,time,channel1,channel2,channel3,channel4,channel5,channel6,channel7,channel8,class
21280,22126,7e-05,1e-05,2.9999999999999997e-05,-5.9999999999999995e-05,0.00033999999999999997,-2.9999999999999997e-05,0.0,0.0,5
21281,22127,7e-05,1e-05,2.9999999999999997e-05,-5.9999999999999995e-05,0.00033999999999999997,-2.9999999999999997e-05,0.0,0.0,5
21282,22128,7e-05,1e-05,2.9999999999999997e-05,-5.9999999999999995e-05,0.00033999999999999997,-2.9999999999999997e-05,0.0,0.0,5
21283,22129,7e-05,1e-05,2.9999999999999997e-05,-5.9999999999999995e-05,0.00033999999999999997,-2.9999999999999997e-05,0.0,0.0,5
21284,22130,7e-05,1e-05,2.9999999999999997e-05,-5.9999999999999995e-05,0.00033999999999999997,-2.9999999999999997e-05,0.0,0.0,5
21285,22131,7e-05,1e-05,2.9999999999999997e-05,-5.9999999999999995e-05,0.00033999999999999997,-2.9999999999999997e-05,0.0,0.0,5
21286,22132,7e-05,1e-05,2.9999999999999997e-05,-5.9999999999999995e-05,0.00033999999999999997,-2.9999999999999997e-05,0.0,0.0,5
21287,22133,7e-05,1e-05,2.9999999999999997e-05,-5.9999999999999995e-05,0.00033999999999999997,-2.9999999999999997e-05,0.0,0.0,5
21288,22134,7e-05,1e-05,2.9999999999999997e-05,-5.9999999999999995e-05,0.00033999999999999997,-2.9999999999999997e-05,0.0,0.0,5
21289,22135,-8e-05,2.9999999999999997e-05,7e-05,7e-05,0.00023999999999999998,2e-05,-4e-05,-5.9999999999999995e-05,5
21290,22136,-8e-05,2.9999999999999997e-05,7e-05,7e-05,0.00023999999999999998,2e-05,-4e-05,-5.9999999999999995e-05,5
21291,22139,-0.00016999999999999999,-0.00013000000000000002,-7e-05,-0.00016,-0.00027,-1e-05,-5e-05,-8e-05,5
21292,22140,-0.00016999999999999999,-0.00013000000000000002,-7e-05,-0.00016,-0.00027,-1e-05,-5e-05,-8e-05,5
21293,22141,-0.00016999999999999999,-0.00013000000000000002,-7e-05,-0.00016,-0.00027,-1e-05,-5e-05,-8e-05,5
21294,22142,-0.00016999999999999999,-0.00013000000000000002,-7e-05,-0.00016,-0.00027,-1e-05,-5e-05,-8e-05,5
21295,22143,-0.00016999999999999999,-0.00013000000000000002,-7e-05,-0.00016,-0.00027,-1e-05,-5e-05,-8e-05,5
21296,22144,-0.00016999999999999999,-0.00013000000000000002,-7e-05,-0.00016,-0.00027,-1e-05,-5e-05,-8e-05,5
21297,22145,-0.00016999999999999999,-0.00013000000000000002,-7e-05,-0.00016,-0.00027,-1e-05,-5e-05,-8e-05,5
21298,22146,-0.00016999999999999999,-0.00013000000000000002,-7e-05,-0.00016,-0.00027,-1e-05,-5e-05,-8e-05,5
21299,22147,-0.00016999999999999999,-0.00013000000000000002,-7e-05,-0.00016,-0.00027,-1e-05,-5e-05,-8e-05,5
21300,22148,-0.00016999999999999999,-0.00013000000000000002,-7e-05,-0.00016,-0.00027,-1e-05,-5e-05,-8e-05,5
21301,22149,-0.00016999999999999999,-0.00013000000000000002,-7e-05,-0.00016,-0.00027,-1e-05,-5e-05,-8e-05,5
21302,22150,-0.00016999999999999999,-0.00013000000000000002,-7e-05,-0.00016,-0.00027,-1e-05,-5e-05,-8e-05,5
21303,22151,-0.00016999999999999999,-0.00013000000000000002,-7e-05,-0.00016,-0.00027,-1e-05,-5e-05,-8e-05,5
21304,22152,-0.00016999999999999999,-0.00013000000000000002,-7e-05,-0.00016,-0.00027,-1e-05,-5e-05,-8e-05,5
21305,22153,-0.00016999999999999999,-0.00013000000000000002,-7e-05,-0.00016,-0.00027,-1e-05,-5e-05,-8e-05,5
21306,22154,-0.00016999999999999999,-0.00013000000000000002,-7e-05,-0.00016,-0.00027,-1e-05,-5e-05,-8e-05,5
21307,22155,-0.00016999999999999999,-0.00013000000000000002,-7e-05,-0.00016,-0.00027,-1e-05,-5e-05,-8e-05,5
21308,22156,-0.00016999999999999999,-0.00013000000000000002,-7e-05,-0.00016,-0.00027,-1e-05,-5e-05,-8e-05,5
21309,22157,-2.9999999999999997e-05,-4e-05,2e-05,-0.00018999999999999998,-0.00029,-4e-05,-5e-05,4e-05,5
21310,22158,2.9999999999999997e-05,2e-05,0.0,-0.00021,5.9999999999999995e-05,5e-05,2.9999999999999997e-05,1e-05,5
21311,22159,4e-05,-2e-05,-0.0001,-0.0003,-0.00057,-2.9999999999999997e-05,-2e-05,0.0,5
21312,22160,4e-05,-2e-05,-0.0001,-0.0003,-0.00057,-2.9999999999999997e-05,-2e-05,0.0,5
21313,22161,4e-05,-2e-05,-0.0001,-0.0003,-0.00057,-2.9999999999999997e-05,-2e-05,0.0,5
21314,22162,4e-05,-2e-05,-0.0001,-0.0003,-0.00057,-2.9999999999999997e-05,-2e-05,0.0,5
21315,22163,4e-05,-2e-05,-0.0001,-0.0003,-0.00057,-2.9999999999999997e-05,-2e-05,0.0,5
21316,22164,4e-05,-2e-05,-0.0001,-0.0003,-0.00057,-2.9999999999999997e-05,-2e-05,0.0,5
21317,22166,4e-05,-2e-05,-0.0001,-0.0003,-0.00057,-2.9999999999999997e-05,-2e-05,0.0,5
21318,22167,4e-05,-2e-05,-0.0001,-0.0003,-0.00057,-2.9999999999999997e-05,-2e-05,0.0,5
21319,22168,4e-05,-2e-05,-0.0001,-0.0003,-0.00057,-2.9999999999999997e-05,-2e-05,0.0,5
21320,22169,4e-05,-2e-05,-0.0001,-0.0003,-0.00057,-2.9999999999999997e-05,-2e-05,0.0,5
21321,22170,4e-05,-2e-05,-0.0001,-0.0003,-0.00057,-2.9999999999999997e-05,-2e-05,0.0,5
21322,22171,4e-05,-2e-05,-0.0001,-0.0003,-0.00057,-2.9999999999999997e-05,-2e-05,0.0,5
21323,22172,-4e-05,-4e-05,-2e-05,-0.00016999999999999999,-0.00022999999999999998,-5.9999999999999995e-05,-4e-05,-4e-05,5
21324,22173,-4e-05,-4e-05,-2e-05,-0.00016999999999999999,-0.00022999999999999998,-5.9999999999999995e-05,-4e-05,-4e-05,5
21325,22174,-4e-05,-4e-05,-2e-05,-0.00016999999999999999,-0.00022999999999999998,-5.9999999999999995e-05,-4e-05,-4e-05,5
21326,22175,-4e-05,-4e-05,-2e-05,-0.00016999999999999999,-0.00022999999999999998,-5.9999999999999995e-05,-4e-05,-4e-05,5
21327,22176,-4e-05,-4e-05,-2e-05,-0.00016999999999999999,-0.00022999999999999998,-5.9999999999999995e-05,-4e-05,-4e-05,5
21328,22177,-4e-05,-4e-05,-2e-05,-0.00016999999999999999,-0.00022999999999999998,-5.9999999999999995e-05,-4e-05,-4e-05,5
21329,22178,-4e-05,-4e-05,-2e-05,-0.00016999999999999999,-0.00022999999999999998,-5.9999999999999995e-05,-4e-05,-4e-05,5
21330,22179,-4e-05,-4e-05,-2e-05,-0.00016999999999999999,-0.00022999999999999998,-5.9999999999999995e-05,-4e-05,-4e-05,5
21331,22180,-2.9999999999999997e-05,8e-05,0.00014,0.00037999999999999997,-5e-05,9e-05,8e-05,2e-05,5
21332,22181,-2.9999999999999997e-05,8e-05,0.00014,0.00037999999999999997,-5e-05,9e-05,8e-05,2e-05,5
21333,22182,-2.9999999999999997e-05,8e-05,0.00014,0.00037999999999999997,-5e-05,9e-05,8e-05,2e-05,5
21334,22183,-2.9999999999999997e-05,8e-05,0.00014,0.00037999999999999997,-5e-05,9e-05,8e-05,2e-05,5
21335,22184,-2.9999999999999997e-05,8e-05,0.00014,0.00037999999999999997,-5e-05,9e-05,8e-05,2e-05,5
21336,22185,-2.9999999999999997e-05,8e-05,0.00014,0.00037999999999999997,-5e-05,9e-05,8e-05,2e-05,5
21337,22186,-2.9999999999999997e-05,8e-05,0.00014,0.00037999999999999997,-5e-05,9e-05,8e-05,2e-05,5
21338,22188,-2.9999999999999997e-05,8e-05,0.00014,0.00037999999999999997,-5e-05,9e-05,8e-05,2e-05,5
21339,22189,-2.9999999999999997e-05,8e-05,0.00014,0.00037999999999999997,-5e-05,9e-05,8e-05,2e-05,5
21340,22190,-2.9999999999999997e-05,8e-05,0.00014,0.00037999999999999997,-5e-05,9e-05,8e-05,2e-05,5
21341,22191,-2.9999999999999997e-05,8e-05,0.00014,0.00037999999999999997,-5e-05,9e-05,8e-05,2e-05,5
21342,22192,-2.9999999999999997e-05,8e-05,0.00014,0.00037999999999999997,-5e-05,9e-05,8e-05,2e-05,5
21343,22193,-2.9999999999999997e-05,8e-05,0.00014,0.00037999999999999997,-5e-05,9e-05,8e-05,2e-05,5
21344,22194,-2.9999999999999997e-05,8e-05,0.00014,0.00037999999999999997,-5e-05,9e-05,8e-05,2e-05,5
21345,22195,-2.9999999999999997e-05,8e-05,0.00014,0.00037999999999999997,-5e-05,9e-05,8e-05,2e-05,5
21346,22196,-2.9999999999999997e-05,8e-05,0.00014,0.00037999999999999997,-5e-05,9e-05,8e-05,2e-05,5
21347,22197,-2.9999999999999997e-05,8e-05,0.00014,0.00037999999999999997,-5e-05,9e-05,8e-05,2e-05,5
21348,22198,-2.9999999999999997e-05,8e-05,0.00014,0.00037999999999999997,-5e-05,9e-05,8e-05,2e-05,5
21349,22199,-2.9999999999999997e-05,8e-05,0.00014,0.00037999999999999997,-5e-05,9e-05,8e-05,2e-05,5
21350,22200,-2.9999999999999997e-05,8e-05,0.00014,0.00037999999999999997,-5e-05,9e-05,8e-05,2e-05,5
21351,22201,-2.9999999999999997e-05,8e-05,0.00014,0.00037999999999999997,-5e-05,9e-05,8e-05,2e-05,5
21352,22202,-2.9999999999999997e-05,8e-05,0.00014,0.00037999999999999997,-5e-05,9e-05,8e-05,2e-05,5
21353,22203,-7e-05,-9e-05,-5e-05,-7e-05,-0.00041,-0.00015,9e-05,-1e-05,5
21354,22204,-5.9999999999999995e-05,-1e-05,-4e-05,-0.00011999999999999999,-0.0003,-0.00033999999999999997,-0.00011,-4e-05,5
21355,22205,-5.9999999999999995e-05,-1e-05,-4e-05,-0.00011999999999999999,-0.0003,-0.00033999999999999997,-0.00011,-4e-05,5
21356,22206,-5.9999999999999995e-05,-1e-05,-4e-05,-0.00011999999999999999,-0.0003,-0.00033999999999999997,-0.00011,-4e-05,5
21357,22207,-5.9999999999999995e-05,-1e-05,-4e-05,-0.00011999999999999999,-0.0003,-0.00033999999999999997,-0.00011,-4e-05,5
21358,22208,-5.9999999999999995e-05,-1e-05,-4e-05,-0.00011999999999999999,-0.0003,-0.00033999999999999997,-0.00011,-4e-05,5
21359,22209,-5.9999999999999995e-05,-1e-05,-4e-05,-0.00011999999999999999,-0.0003,-0.00033999999999999997,-0.00011,-4e-05,5
21360,22210,-5.9999999999999995e-05,-1e-05,-4e-05,-0.00011999999999999999,-0.0003,-0.00033999999999999997,-0.00011,-4e-05,5
21361,22211,-5.9999999999999995e-05,-1e-05,-4e-05,-0.00011999999999999999,-0.0003,-0.00033999999999999997,-0.00011,-4e-05,5
21362,22212,-5.9999999999999995e-05,-1e-05,-4e-05,-0.00011999999999999999,-0.0003,-0.00033999999999999997,-0.00011,-4e-05,5
21363,22213,-5.9999999999999995e-05,-1e-05,-4e-05,-0.00011999999999999999,-0.0003,-0.00033999999999999997,-0.00011,-4e-05,5
21364,22214,-5.9999999999999995e-05,-1e-05,-4e-05,-0.00011999999999999999,-0.0003,-0.00033999999999999997,-0.00011,-4e-05,5
21365,22215,-5.9999999999999995e-05,-1e-05,-4e-05,-0.00011999999999999999,-0.0003,-0.00033999999999999997,-0.00011,-4e-05,5
21366,22216,-5.9999999999999995e-05,-1e-05,-4e-05,-0.00011999999999999999,-0.0003,-0.00033999999999999997,-0.00011,-4e-05,5
21367,22217,-5.9999999999999995e-05,-1e-05,-4e-05,-0.00011999999999999999,-0.0003,-0.00033999999999999997,-0.00011,-4e-05,5
21368,22218,-5.9999999999999995e-05,-1e-05,-4e-05,-0.00011999999999999999,-0.0003,-0.00033999999999999997,-0.00011,-4e-05,5
21369,22219,-5.9999999999999995e-05,-1e-05,-4e-05,-0.00011999999999999999,-0.0003,-0.00033999999999999997,-0.00011,-4e-05,5
21370,22220,-5.9999999999999995e-05,-1e-05,-4e-05,-0.00011999999999999999,-0.0003,-0.00033999999999999997,-0.00011,-4e-05,5
21371,22221,-5.9999999999999995e-05,-1e-05,-4e-05,-0.00011999999999999999,-0.0003,-0.00033999999999999997,-0.00011,-4e-05,5
21372,22222,-5.9999999999999995e-05,-1e-05,-4e-05,-0.00011999999999999999,-0.0003,-0.00033999999999999997,-0.00011,-4e-05,5
21373,22223,-5.9999999999999995e-05,-1e-05,-4e-05,-0.00011999999999999999,-0.0003,-0.00033999999999999997,-0.00011,-4e-05,5
21374,22224,-5.9999999999999995e-05,-1e-05,-4e-05,-0.00011999999999999999,-0.0003,-0.00033999999999999997,-0.00011,-4e-05,5
21375,22225,-5.9999999999999995e-05,-1e-05,-4e-05,-0.00011999999999999999,-0.0003,-0.00033999999999999997,-0.00011,-4e-05,5
21376,22226,-0.00013000000000000002,-9e-05,-5e-05,-0.00031,-0.00044,-9e-05,-7e-05,8e-05,5
21377,22227,7e-05,0.00011999999999999999,0.00015,0.00033,-0.00023999999999999998,-4e-05,4e-05,2e-05,5
21378,22228,7e-05,0.00011999999999999999,0.00015,0.00033,-0.00023999999999999998,-4e-05,4e-05,2e-05,5
21379,22229,7e-05,0.00011999999999999999,0.00015,0.00033,-0.00023999999999999998,-4e-05,4e-05,2e-05,5
21380,22230,7e-05,0.00011999999999999999,0.00015,0.00033,-0.00023999999999999998,-4e-05,4e-05,2e-05,5
21381,22231,7e-05,0.00011999999999999999,0.00015,0.00033,-0.00023999999999999998,-4e-05,4e-05,2e-05,5
21382,22232,-5e-05,2e-05,5.9999999999999995e-05,-0.00011999999999999999,8e-05,-9e-05,-8e-05,-8e-05,5
21383,22233,-5e-05,2e-05,5.9999999999999995e-05,-0.00011999999999999999,8e-05,-9e-05,-8e-05,-8e-05,5
21384,22234,-5e-05,2e-05,5.9999999999999995e-05,-0.00011999999999999999,8e-05,-9e-05,-8e-05,-8e-05,5
21385,22235,-5e-05,2e-05,5.9999999999999995e-05,-0.00011999999999999999,8e-05,-9e-05,-8e-05,-8e-05,5
21386,22236,-5e-05,2e-05,5.9999999999999995e-05,-0.00011999999999999999,8e-05,-9e-05,-8e-05,-8e-05,5
21387,22239,-5e-05,2e-05,5.9999999999999995e-05,-0.00011999999999999999,8e-05,-9e-05,-8e-05,-8e-05,5
21388,22240,-5e-05,2e-05,5.9999999999999995e-05,-0.00011999999999999999,8e-05,-9e-05,-8e-05,-8e-05,5
21389,22241,-5e-05,2e-05,5.9999999999999995e-05,-0.00011999999999999999,8e-05,-9e-05,-8e-05,-8e-05,5
21390,22242,-5e-05,2e-05,5.9999999999999995e-05,-0.00011999999999999999,8e-05,-9e-05,-8e-05,-8e-05,5
21391,22243,-5e-05,2e-05,5.9999999999999995e-05,-0.00011999999999999999,8e-05,-9e-05,-8e-05,-8e-05,5
21392,22244,-5e-05,2e-05,5.9999999999999995e-05,-0.00011999999999999999,8e-05,-9e-05,-8e-05,-8e-05,5
21393,22245,-5e-05,2e-05,5.9999999999999995e-05,-0.00011999999999999999,8e-05,-9e-05,-8e-05,-8e-05,5
21394,22246,-5e-05,2e-05,5.9999999999999995e-05,-0.00011999999999999999,8e-05,-9e-05,-8e-05,-8e-05,5
21395,22247,-5e-05,2e-05,5.9999999999999995e-05,-0.00011999999999999999,8e-05,-9e-05,-8e-05,-8e-05,5
21396,22248,0.0,-0.00013000000000000002,-0.00023999999999999998,5e-05,0.00016999999999999999,5.9999999999999995e-05,-2e-05,-4e-05,5
21397,22249,0.0,-0.00013000000000000002,-0.00023999999999999998,5e-05,0.00016999999999999999,5.9999999999999995e-05,-2e-05,-4e-05,5
21398,22250,0.0,-0.00013000000000000002,-0.00023999999999999998,5e-05,0.00016999999999999999,5.9999999999999995e-05,-2e-05,-4e-05,5
21399,22251,0.0,-0.00013000000000000002,-0.00023999999999999998,5e-05,0.00016999999999999999,5.9999999999999995e-05,-2e-05,-4e-05,5
21400,22252,0.0,-0.00013000000000000002,-0.00023999999999999998,5e-05,0.00016999999999999999,5.9999999999999995e-05,-2e-05,-4e-05,5
21401,22253,0.0,-0.00013000000000000002,-0.00023999999999999998,5e-05,0.00016999999999999999,5.9999999999999995e-05,-2e-05,-4e-05,5
21402,22254,0.0,-0.00013000000000000002,-0.00023999999999999998,5e-05,0.00016999999999999999,5.9999999999999995e-05,-2e-05,-4e-05,5
21403,22255,-5.9999999999999995e-05,-1e-05,4e-05,-4e-05,0.00026000000000000003,7e-05,2e-05,1e-05,5
21404,22256,1e-05,-9e-05,-9e-05,-0.00016999999999999999,-0.00016,5e-05,-2e-05,0.0,5
21405,22257,1e-05,-9e-05,-9e-05,-0.00016999999999999999,-0.00016,5e-05,-2e-05,0.0,5
21406,22258,1e-05,-9e-05,-9e-05,-0.00016999999999999999,-0.00016,5e-05,-2e-05,0.0,5
21407,22259,1e-05,-9e-05,-9e-05,-0.00016999999999999999,-0.00016,5e-05,-2e-05,0.0,5
21408,22260,1e-05,-9e-05,-9e-05,-0.00016999999999999999,-0.00016,5e-05,-2e-05,0.0,5
21409,22261,1e-05,-9e-05,-9e-05,-0.00016999999999999999,-0.00016,5e-05,-2e-05,0.0,5
21410,22262,1e-05,-9e-05,-9e-05,-0.00016999999999999999,-0.00016,5e-05,-2e-05,0.0,5
21411,22263,1e-05,-9e-05,-9e-05,-0.00016999999999999999,-0.00016,5e-05,-2e-05,0.0,5
21412,22264,1e-05,-9e-05,-9e-05,-0.00016999999999999999,-0.00016,5e-05,-2e-05,0.0,5
21413,22265,1e-05,-9e-05,-9e-05,-0.00016999999999999999,-0.00016,5e-05,-2e-05,0.0,5
21414,22266,1e-05,-9e-05,-9e-05,-0.00016999999999999999,-0.00016,5e-05,-2e-05,0.0,5
21415,22267,1e-05,-9e-05,-9e-05,-0.00016999999999999999,-0.00016,5e-05,-2e-05,0.0,5
21416,22268,1e-05,-9e-05,-9e-05,-0.00016999999999999999,-0.00016,5e-05,-2e-05,0.0,5
21417,22269,1e-05,-9e-05,-9e-05,-0.00016999999999999999,-0.00016,5e-05,-2e-05,0.0,5
21418,22270,1e-05,-9e-05,-9e-05,-0.00016999999999999999,-0.00016,5e-05,-2e-05,0.0,5
21419,22271,1e-05,-9e-05,-9e-05,-0.00016999999999999999,-0.00016,5e-05,-2e-05,0.0,5
21420,22272,1e-05,-9e-05,-9e-05,-0.00016999999999999999,-0.00016,5e-05,-2e-05,0.0,5
21421,22273,1e-05,-9e-05,-9e-05,-0.00016999999999999999,-0.00016,5e-05,-2e-05,0.0,5
21422,22274,1e-05,-9e-05,-9e-05,-0.00016999999999999999,-0.00016,5e-05,-2e-05,0.0,5
21423,22275,1e-05,-9e-05,-9e-05,-0.00016999999999999999,-0.00016,5e-05,-2e-05,0.0,5
21424,22276,1e-05,-9e-05,-9e-05,-0.00016999999999999999,-0.00016,5e-05,-2e-05,0.0,5
21425,22277,-4e-05,-0.00011999999999999999,-0.00016999999999999999,0.0004,-2.9999999999999997e-05,-2e-05,-0.00013000000000000002,-8e-05,5
21426,22278,1e-05,0.0,-1e-05,-0.00022999999999999998,0.00021,-2e-05,0.0,-1e-05,5
21427,22279,1e-05,0.0,-1e-05,-0.00022999999999999998,0.00021,-2e-05,0.0,-1e-05,5
21428,22280,1e-05,0.0,-1e-05,-0.00022999999999999998,0.00021,-2e-05,0.0,-1e-05,5
21429,22281,1e-05,0.0,-1e-05,-0.00022999999999999998,0.00021,-2e-05,0.0,-1e-05,5
21430,22282,1e-05,0.0,-1e-05,-0.00022999999999999998,0.00021,-2e-05,0.0,-1e-05,5
21431,22283,1e-05,0.0,-1e-05,-0.00022999999999999998,0.00021,-2e-05,0.0,-1e-05,5
21432,22284,1e-05,0.0,-1e-05,-0.00022999999999999998,0.00021,-2e-05,0.0,-1e-05,5
21433,22285,1e-05,0.0,-1e-05,-0.00022999999999999998,0.00021,-2e-05,0.0,-1e-05,5
21434,22286,1e-05,0.0,-1e-05,-0.00022999999999999998,0.00021,-2e-05,0.0,-1e-05,5
21435,22288,1e-05,0.0,-1e-05,-0.00022999999999999998,0.00021,-2e-05,0.0,-1e-05,5
21436,22289,1e-05,0.0,-1e-05,-0.00022999999999999998,0.00021,-2e-05,0.0,-1e-05,5
21437,22290,1e-05,0.0,-1e-05,-0.00022999999999999998,0.00021,-2e-05,0.0,-1e-05,5
21438,22291,1e-05,0.0,-1e-05,-0.00022999999999999998,0.00021,-2e-05,0.0,-1e-05,5
21439,22292,-5e-05,-8e-05,-8e-05,-0.00016999999999999999,0.00022,0.00018,-1e-05,-1e-05,5
21440,22293,-5e-05,-8e-05,-8e-05,-0.00016999999999999999,0.00022,0.00018,-1e-05,-1e-05,5
21441,22294,-5e-05,-8e-05,-8e-05,-0.00016999999999999999,0.00022,0.00018,-1e-05,-1e-05,5
21442,22295,-5e-05,-8e-05,-8e-05,-0.00016999999999999999,0.00022,0.00018,-1e-05,-1e-05,5
21443,22296,-5e-05,-8e-05,-8e-05,-0.00016999999999999999,0.00022,0.00018,-1e-05,-1e-05,5
21444,22297,-5e-05,-8e-05,-8e-05,-0.00016999999999999999,0.00022,0.00018,-1e-05,-1e-05,5
21445,22298,-5e-05,-8e-05,-8e-05,-0.00016999999999999999,0.00022,0.00018,-1e-05,-1e-05,5
21446,22299,-5e-05,-8e-05,-8e-05,-0.00016999999999999999,0.00022,0.00018,-1e-05,-1e-05,5
21447,22300,2e-05,0.0,-2.9999999999999997e-05,0.00033,-0.00026000000000000003,-7e-05,0.00011,4e-05,5
21448,22301,2e-05,0.0,-2.9999999999999997e-05,0.00033,-0.00026000000000000003,-7e-05,0.00011,4e-05,5
21449,22302,2e-05,0.0,-2.9999999999999997e-05,0.00033,-0.00026000000000000003,-7e-05,0.00011,4e-05,5
21450,22303,2e-05,0.0,-2.9999999999999997e-05,0.00033,-0.00026000000000000003,-7e-05,0.00011,4e-05,5
21451,22304,2e-05,0.0,-2.9999999999999997e-05,0.00033,-0.00026000000000000003,-7e-05,0.00011,4e-05,5
21452,22305,2e-05,0.0,-2.9999999999999997e-05,0.00033,-0.00026000000000000003,-7e-05,0.00011,4e-05,5
21453,22306,2e-05,0.0,-2.9999999999999997e-05,0.00033,-0.00026000000000000003,-7e-05,0.00011,4e-05,5
21454,22307,2e-05,0.0,-2.9999999999999997e-05,0.00033,-0.00026000000000000003,-7e-05,0.00011,4e-05,5
21455,22308,2e-05,0.0,-2.9999999999999997e-05,0.00033,-0.00026000000000000003,-7e-05,0.00011,4e-05,5
21456,22309,2e-05,0.0,-2.9999999999999997e-05,0.00033,-0.00026000000000000003,-7e-05,0.00011,4e-05,5
21457,22310,2e-05,0.0,-2.9999999999999997e-05,0.00033,-0.00026000000000000003,-7e-05,0.00011,4e-05,5
21458,22311,2e-05,0.0,-2.9999999999999997e-05,0.00033,-0.00026000000000000003,-7e-05,0.00011,4e-05,5
21459,22312,2e-05,0.0,-2.9999999999999997e-05,0.00033,-0.00026000000000000003,-7e-05,0.00011,4e-05,5
21460,22313,2e-05,0.0,-2.9999999999999997e-05,0.00033,-0.00026000000000000003,-7e-05,0.00011,4e-05,5
21461,22314,2e-05,0.0,-2.9999999999999997e-05,0.00033,-0.00026000000000000003,-7e-05,0.00011,4e-05,5
21462,22315,2e-05,0.0,-2.9999999999999997e-05,0.00033,-0.00026000000000000003,-7e-05,0.00011,4e-05,5
21463,22316,-5.9999999999999995e-05,8e-05,9e-05,0.00025,-0.00018999999999999998,5.9999999999999995e-05,4e-05,5e-05,5
21464,22317,-5.9999999999999995e-05,-5e-05,-2e-05,-0.00035,0.00013000000000000002,4e-05,0.0,1e-05,5
21465,22318,-5.9999999999999995e-05,-5e-05,-2e-05,-0.00035,0.00013000000000000002,4e-05,0.0,1e-05,5
21466,22319,-5.9999999999999995e-05,-5e-05,-2e-05,-0.00035,0.00013000000000000002,4e-05,0.0,1e-05,5
21467,22320,-5.9999999999999995e-05,-5e-05,-2e-05,-0.00035,0.00013000000000000002,4e-05,0.0,1e-05,5
21468,22321,-5.9999999999999995e-05,-5e-05,-2e-05,-0.00035,0.00013000000000000002,4e-05,0.0,1e-05,5
21469,22322,-5.9999999999999995e-05,-5e-05,-2e-05,-0.00035,0.00013000000000000002,4e-05,0.0,1e-05,5
21470,22323,-5.9999999999999995e-05,-5e-05,-2e-05,-0.00035,0.00013000000000000002,4e-05,0.0,1e-05,5
21471,22324,-5.9999999999999995e-05,-5e-05,-2e-05,-0.00035,0.00013000000000000002,4e-05,0.0,1e-05,5
21472,22325,-5.9999999999999995e-05,-5e-05,-2e-05,-0.00035,0.00013000000000000002,4e-05,0.0,1e-05,5
21473,22326,-5.9999999999999995e-05,-5e-05,-2e-05,-0.00035,0.00013000000000000002,4e-05,0.0,1e-05,5
21474,22327,-5.9999999999999995e-05,-5e-05,-2e-05,-0.00035,0.00013000000000000002,4e-05,0.0,1e-05,5
21475,22328,-5.9999999999999995e-05,-5e-05,-2e-05,-0.00035,0.00013000000000000002,4e-05,0.0,1e-05,5
21476,22329,-5.9999999999999995e-05,-5e-05,-2e-05,-0.00035,0.00013000000000000002,4e-05,0.0,1e-05,5
21477,22330,-5.9999999999999995e-05,-5e-05,-2e-05,-0.00035,0.00013000000000000002,4e-05,0.0,1e-05,5
21478,22331,-5.9999999999999995e-05,-5e-05,-2e-05,-0.00035,0.00013000000000000002,4e-05,0.0,1e-05,5
21479,22332,-5.9999999999999995e-05,-5e-05,-2e-05,-0.00035,0.00013000000000000002,4e-05,0.0,1e-05,5
21480,22333,-5.9999999999999995e-05,-5e-05,-2e-05,-0.00035,0.00013000000000000002,4e-05,0.0,1e-05,5
21481,22334,-5.9999999999999995e-05,-5e-05,-2e-05,-0.00035,0.00013000000000000002,4e-05,0.0,1e-05,5
21482,22335,-5.9999999999999995e-05,-5e-05,-2e-05,-0.00035,0.00013000000000000002,4e-05,0.0,1e-05,5
21483,22336,-5.9999999999999995e-05,-5e-05,-2e-05,-0.00035,0.00013000000000000002,4e-05,0.0,1e-05,5
21484,22339,-4e-05,5.9999999999999995e-05,0.0001,-0.00011,0.00013000000000000002,-1e-05,-4e-05,-2e-05,5
21485,22340,-4e-05,5.9999999999999995e-05,0.0001,-0.00011,0.00013000000000000002,-1e-05,-4e-05,-2e-05,5
21486,22341,-4e-05,5.9999999999999995e-05,0.0001,-0.00011,0.00013000000000000002,-1e-05,-4e-05,-2e-05,5
21487,22342,-4e-05,5.9999999999999995e-05,0.0001,-0.00011,0.00013000000000000002,-1e-05,-4e-05,-2e-05,5
21488,22343,-4e-05,5.9999999999999995e-05,0.0001,-0.00011,0.00013000000000000002,-1e-05,-4e-05,-2e-05,5
21489,22344,-4e-05,5.9999999999999995e-05,0.0001,-0.00011,0.00013000000000000002,-1e-05,-4e-05,-2e-05,5
21490,22345,-4e-05,5.9999999999999995e-05,0.0001,-0.00011,0.00013000000000000002,-1e-05,-4e-05,-2e-05,5
21491,22346,-4e-05,5.9999999999999995e-05,0.0001,-0.00011,0.00013000000000000002,-1e-05,-4e-05,-2e-05,5
21492,22347,-4e-05,5.9999999999999995e-05,0.0001,-0.00011,0.00013000000000000002,-1e-05,-4e-05,-2e-05,5
21493,22348,-4e-05,5.9999999999999995e-05,0.0001,-0.00011,0.00013000000000000002,-1e-05,-4e-05,-2e-05,5
21494,22349,-4e-05,5.9999999999999995e-05,0.0001,-0.00011,0.00013000000000000002,-1e-05,-4e-05,-2e-05,5
21495,22350,-4e-05,5.9999999999999995e-05,0.0001,-0.00011,0.00013000000000000002,-1e-05,-4e-05,-2e-05,5
21496,22351,-4e-05,5.9999999999999995e-05,0.0001,-0.00011,0.00013000000000000002,-1e-05,-4e-05,-2e-05,5
21497,22352,-4e-05,5.9999999999999995e-05,0.0001,-0.00011,0.00013000000000000002,-1e-05,-4e-05,-2e-05,5
21498,22353,-4e-05,5.9999999999999995e-05,0.0001,-0.00011,0.00013000000000000002,-1e-05,-4e-05,-2e-05,5
21499,22354,-4e-05,5.9999999999999995e-05,0.0001,-0.00011,0.00013000000000000002,-1e-05,-4e-05,-2e-05,5
21500,22355,-4e-05,5.9999999999999995e-05,0.0001,-0.00011,0.00013000000000000002,-1e-05,-4e-05,-2e-05,5
21501,22356,-4e-05,5.9999999999999995e-05,0.0001,-0.00011,0.00013000000000000002,-1e-05,-4e-05,-2e-05,5
21502,22357,-4e-05,5.9999999999999995e-05,0.0001,-0.00011,0.00013000000000000002,-1e-05,-4e-05,-2e-05,5
21503,22358,-4e-05,5.9999999999999995e-05,0.0001,-0.00011,0.00013000000000000002,-1e-05,-4e-05,-2e-05,5
21504,22359,-4e-05,5.9999999999999995e-05,0.0001,-0.00011,0.00013000000000000002,-1e-05,-4e-05,-2e-05,5
21505,22360,-4e-05,5.9999999999999995e-05,0.0001,-0.00011,0.00013000000000000002,-1e-05,-4e-05,-2e-05,5
21506,22361,5.9999999999999995e-05,-2.9999999999999997e-05,2e-05,0.00016,-8e-05,5e-05,-2.9999999999999997e-05,-2e-05,5
21507,22362,5.9999999999999995e-05,-2.9999999999999997e-05,2e-05,0.00016,-8e-05,5e-05,-2.9999999999999997e-05,-2e-05,5
21508,22363,5.9999999999999995e-05,-2.9999999999999997e-05,2e-05,0.00016,-8e-05,5e-05,-2.9999999999999997e-05,-2e-05,5
21509,22364,5.9999999999999995e-05,-2.9999999999999997e-05,2e-05,0.00016,-8e-05,5e-05,-2.9999999999999997e-05,-2e-05,5
21510,22365,5.9999999999999995e-05,-2.9999999999999997e-05,2e-05,0.00016,-8e-05,5e-05,-2.9999999999999997e-05,-2e-05,5
21511,22366,5.9999999999999995e-05,-2.9999999999999997e-05,2e-05,0.00016,-8e-05,5e-05,-2.9999999999999997e-05,-2e-05,5
21512,22367,5.9999999999999995e-05,-2.9999999999999997e-05,2e-05,0.00016,-8e-05,5e-05,-2.9999999999999997e-05,-2e-05,5
21513,22368,5.9999999999999995e-05,-2.9999999999999997e-05,2e-05,0.00016,-8e-05,5e-05,-2.9999999999999997e-05,-2e-05,5
21514,22369,5.9999999999999995e-05,-2.9999999999999997e-05,2e-05,0.00016,-8e-05,5e-05,-2.9999999999999997e-05,-2e-05,5
21515,22370,5.9999999999999995e-05,-2.9999999999999997e-05,2e-05,0.00016,-8e-05,5e-05,-2.9999999999999997e-05,-2e-05,5
21516,22371,5.9999999999999995e-05,-2.9999999999999997e-05,2e-05,0.00016,-8e-05,5e-05,-2.9999999999999997e-05,-2e-05,5
21517,22372,5.9999999999999995e-05,-2.9999999999999997e-05,2e-05,0.00016,-8e-05,5e-05,-2.9999999999999997e-05,-2e-05,5
21518,22373,5.9999999999999995e-05,-2.9999999999999997e-05,2e-05,0.00016,-8e-05,5e-05,-2.9999999999999997e-05,-2e-05,5
21519,22374,5.9999999999999995e-05,-2.9999999999999997e-05,2e-05,0.00016,-8e-05,5e-05,-2.9999999999999997e-05,-2e-05,5
21520,22375,-7e-05,-0.00016,-1e-05,0.0002,-2e-05,-4e-05,1e-05,1e-05,5
21521,22376,-0.00014,-1e-05,7e-05,0.00011999999999999999,-0.00014,-2.9999999999999997e-05,-1e-05,5.9999999999999995e-05,5
21522,22377,-0.00014,-1e-05,7e-05,0.00011999999999999999,-0.00014,-2.9999999999999997e-05,-1e-05,5.9999999999999995e-05,5
21523,22378,-0.00014,-1e-05,7e-05,0.00011999999999999999,-0.00014,-2.9999999999999997e-05,-1e-05,5.9999999999999995e-05,5
21524,22379,-0.00014,-1e-05,7e-05,0.00011999999999999999,-0.00014,-2.9999999999999997e-05,-1e-05,5.9999999999999995e-05,5
21525,22380,-0.00014,-1e-05,7e-05,0.00011999999999999999,-0.00014,-2.9999999999999997e-05,-1e-05,5.9999999999999995e-05,5
21526,22381,-0.00014,-1e-05,7e-05,0.00011999999999999999,-0.00014,-2.9999999999999997e-05,-1e-05,5.9999999999999995e-05,5
21527,22382,-0.00014,-1e-05,7e-05,0.00011999999999999999,-0.00014,-2.9999999999999997e-05,-1e-05,5.9999999999999995e-05,5
21528,22383,-0.00014,-1e-05,7e-05,0.00011999999999999999,-0.00014,-2.9999999999999997e-05,-1e-05,5.9999999999999995e-05,5
21529,22384,-0.00014,-1e-05,7e-05,0.00011999999999999999,-0.00014,-2.9999999999999997e-05,-1e-05,5.9999999999999995e-05,5
21530,22385,-0.00014,-1e-05,7e-05,0.00011999999999999999,-0.00014,-2.9999999999999997e-05,-1e-05,5.9999999999999995e-05,5
21531,22386,-0.00014,-1e-05,7e-05,0.00011999999999999999,-0.00014,-2.9999999999999997e-05,-1e-05,5.9999999999999995e-05,5
21532,22388,-0.00014,-1e-05,7e-05,0.00011999999999999999,-0.00014,-2.9999999999999997e-05,-1e-05,5.9999999999999995e-05,5
21533,22389,-0.00014,-1e-05,7e-05,0.00011999999999999999,-0.00014,-2.9999999999999997e-05,-1e-05,5.9999999999999995e-05,5
21534,22390,-0.00014,-1e-05,7e-05,0.00011999999999999999,-0.00014,-2.9999999999999997e-05,-1e-05,5.9999999999999995e-05,5
21535,22391,-0.00014,-1e-05,7e-05,0.00011999999999999999,-0.00014,-2.9999999999999997e-05,-1e-05,5.9999999999999995e-05,5
21536,22392,-0.00014,-1e-05,7e-05,0.00011999999999999999,-0.00014,-2.9999999999999997e-05,-1e-05,5.9999999999999995e-05,5
21537,22393,-0.00014,-1e-05,7e-05,0.00011999999999999999,-0.00014,-2.9999999999999997e-05,-1e-05,5.9999999999999995e-05,5
21538,22394,-0.00014,-1e-05,7e-05,0.00011999999999999999,-0.00014,-2.9999999999999997e-05,-1e-05,5.9999999999999995e-05,5
21539,22395,-0.00014,-1e-05,7e-05,0.00011999999999999999,-0.00014,-2.9999999999999997e-05,-1e-05,5.9999999999999995e-05,5
21540,22396,-0.00014,-1e-05,7e-05,0.00011999999999999999,-0.00014,-2.9999999999999997e-05,-1e-05,5.9999999999999995e-05,5
21541,22397,-0.00014,-1e-05,7e-05,0.00011999999999999999,-0.00014,-2.9999999999999997e-05,-1e-05,5.9999999999999995e-05,5
21542,22398,5e-05,5.9999999999999995e-05,-2e-05,0.00014,0.0001,-4e-05,2e-05,0.0,5
21543,22400,-8e-05,-4e-05,0.0,0.00016999999999999999,0.00044,0.00018999999999999998,-5e-05,-0.00016,5
21544,22401,-8e-05,-4e-05,0.0,0.00016999999999999999,0.00044,0.00018999999999999998,-5e-05,-0.00016,5
21545,22402,-8e-05,-4e-05,0.0,0.00016999999999999999,0.00044,0.00018999999999999998,-5e-05,-0.00016,5
21546,22403,-8e-05,-4e-05,0.0,0.00016999999999999999,0.00044,0.00018999999999999998,-5e-05,-0.00016,5
21547,22404,-8e-05,-4e-05,0.0,0.00016999999999999999,0.00044,0.00018999999999999998,-5e-05,-0.00016,5
21548,22405,-8e-05,-4e-05,0.0,0.00016999999999999999,0.00044,0.00018999999999999998,-5e-05,-0.00016,5
21549,22406,-8e-05,-4e-05,0.0,0.00016999999999999999,0.00044,0.00018999999999999998,-5e-05,-0.00016,5
21550,22407,-8e-05,-4e-05,0.0,0.00016999999999999999,0.00044,0.00018999999999999998,-5e-05,-0.00016,5
21551,22408,-8e-05,-4e-05,0.0,0.00016999999999999999,0.00044,0.00018999999999999998,-5e-05,-0.00016,5
21552,22409,-8e-05,-4e-05,0.0,0.00016999999999999999,0.00044,0.00018999999999999998,-5e-05,-0.00016,5
21553,22410,-8e-05,-4e-05,0.0,0.00016999999999999999,0.00044,0.00018999999999999998,-5e-05,-0.00016,5
21554,22411,-8e-05,-4e-05,0.0,0.00016999999999999999,0.00044,0.00018999999999999998,-5e-05,-0.00016,5
21555,22412,-8e-05,-4e-05,0.0,0.00016999999999999999,0.00044,0.00018999999999999998,-5e-05,-0.00016,5
21556,22413,-8e-05,-4e-05,0.0,0.00016999999999999999,0.00044,0.00018999999999999998,-5e-05,-0.00016,5
21557,22414,-8e-05,-4e-05,0.0,0.00016999999999999999,0.00044,0.00018999999999999998,-5e-05,-0.00016,5
21558,22415,-8e-05,-4e-05,0.0,0.00016999999999999999,0.00044,0.00018999999999999998,-5e-05,-0.00016,5
21559,22416,-8e-05,-4e-05,0.0,0.00016999999999999999,0.00044,0.00018999999999999998,-5e-05,-0.00016,5
21560,22417,-8e-05,-4e-05,0.0,0.00016999999999999999,0.00044,0.00018999999999999998,-5e-05,-0.00016,5
21561,22418,-8e-05,-4e-05,0.0,0.00016999999999999999,0.00044,0.00018999999999999998,-5e-05,-0.00016,5
21562,22419,-8e-05,-4e-05,0.0,0.00016999999999999999,0.00044,0.00018999999999999998,-5e-05,-0.00016,5
21563,22420,-8e-05,-4e-05,0.0,0.00016999999999999999,0.00044,0.00018999999999999998,-5e-05,-0.00016,5
21564,22421,0.00016999999999999999,0.00011,2e-05,-7e-05,-0.00011,-0.0001,-5e-05,-2.9999999999999997e-05,5
21565,22422,0.00016999999999999999,0.00011,2e-05,-7e-05,-0.00011,-0.0001,-5e-05,-2.9999999999999997e-05,5
21566,22423,0.00016999999999999999,0.00011,2e-05,-7e-05,-0.00011,-0.0001,-5e-05,-2.9999999999999997e-05,5
21567,22424,0.00016999999999999999,0.00011,2e-05,-7e-05,-0.00011,-0.0001,-5e-05,-2.9999999999999997e-05,5
21568,22425,0.00016999999999999999,0.00011,2e-05,-7e-05,-0.00011,-0.0001,-5e-05,-2.9999999999999997e-05,5
21569,22426,0.00016999999999999999,0.00011,2e-05,-7e-05,-0.00011,-0.0001,-5e-05,-2.9999999999999997e-05,5
21570,22427,0.00016999999999999999,0.00011,2e-05,-7e-05,-0.00011,-0.0001,-5e-05,-2.9999999999999997e-05,5
21571,22428,0.00016999999999999999,0.00011,2e-05,-7e-05,-0.00011,-0.0001,-5e-05,-2.9999999999999997e-05,5
21572,22429,0.00016999999999999999,0.00011,2e-05,-7e-05,-0.00011,-0.0001,-5e-05,-2.9999999999999997e-05,5
21573,22430,0.00016999999999999999,0.00011,2e-05,-7e-05,-0.00011,-0.0001,-5e-05,-2.9999999999999997e-05,5
21574,22431,0.00016999999999999999,0.00011,2e-05,-7e-05,-0.00011,-0.0001,-5e-05,-2.9999999999999997e-05,5
21575,22432,0.00016999999999999999,0.00011,2e-05,-7e-05,-0.00011,-0.0001,-5e-05,-2.9999999999999997e-05,5
21576,22433,0.00016999999999999999,0.00011,2e-05,-7e-05,-0.00011,-0.0001,-5e-05,-2.9999999999999997e-05,5
21577,22434,0.00016999999999999999,0.00011,2e-05,-7e-05,-0.00011,-0.0001,-5e-05,-2.9999999999999997e-05,5
21578,22435,0.0,5e-05,5e-05,-5e-05,-0.00039,-2.9999999999999997e-05,5e-05,8e-05,5
21579,22436,-1e-05,-2e-05,-5e-05,-0.00011,-5.9999999999999995e-05,-0.00013000000000000002,8e-05,5.9999999999999995e-05,5
21580,22439,-1e-05,-2e-05,-5e-05,-0.00011,-5.9999999999999995e-05,-0.00013000000000000002,8e-05,5.9999999999999995e-05,5
21581,22440,-1e-05,-2e-05,-5e-05,-0.00011,-5.9999999999999995e-05,-0.00013000000000000002,8e-05,5.9999999999999995e-05,5
21582,22441,-1e-05,-2e-05,-5e-05,-0.00011,-5.9999999999999995e-05,-0.00013000000000000002,8e-05,5.9999999999999995e-05,5
21583,22442,-1e-05,-2e-05,-5e-05,-0.00011,-5.9999999999999995e-05,-0.00013000000000000002,8e-05,5.9999999999999995e-05,5
21584,22443,-1e-05,-2e-05,-5e-05,-0.00011,-5.9999999999999995e-05,-0.00013000000000000002,8e-05,5.9999999999999995e-05,5
21585,22444,-1e-05,-2e-05,-5e-05,-0.00011,-5.9999999999999995e-05,-0.00013000000000000002,8e-05,5.9999999999999995e-05,5
21586,22445,-1e-05,-2e-05,-5e-05,-0.00011,-5.9999999999999995e-05,-0.00013000000000000002,8e-05,5.9999999999999995e-05,5
21587,22446,-1e-05,-2e-05,-5e-05,-0.00011,-5.9999999999999995e-05,-0.00013000000000000002,8e-05,5.9999999999999995e-05,5
21588,22447,-1e-05,-2e-05,-5e-05,-0.00011,-5.9999999999999995e-05,-0.00013000000000000002,8e-05,5.9999999999999995e-05,5
21589,22448,-1e-05,-2e-05,-5e-05,-0.00011,-5.9999999999999995e-05,-0.00013000000000000002,8e-05,5.9999999999999995e-05,5
21590,22449,-1e-05,-2e-05,-5e-05,-0.00011,-5.9999999999999995e-05,-0.00013000000000000002,8e-05,5.9999999999999995e-05,5
21591,22450,-1e-05,-2e-05,-5e-05,-0.00011,-5.9999999999999995e-05,-0.00013000000000000002,8e-05,5.9999999999999995e-05,5
21592,22451,-1e-05,-2e-05,-5e-05,-0.00011,-5.9999999999999995e-05,-0.00013000000000000002,8e-05,5.9999999999999995e-05,5
21593,22452,-1e-05,-2e-05,-5e-05,-0.00011,-5.9999999999999995e-05,-0.00013000000000000002,8e-05,5.9999999999999995e-05,5
21594,22453,-1e-05,-2e-05,-5e-05,-0.00011,-5.9999999999999995e-05,-0.00013000000000000002,8e-05,5.9999999999999995e-05,5
21595,22454,-1e-05,-2e-05,-5e-05,-0.00011,-5.9999999999999995e-05,-0.00013000000000000002,8e-05,5.9999999999999995e-05,5
21596,22455,-1e-05,-2e-05,-5e-05,-0.00011,-5.9999999999999995e-05,-0.00013000000000000002,8e-05,5.9999999999999995e-05,5
21597,22456,-1e-05,-2e-05,-5e-05,-0.00011,-5.9999999999999995e-05,-0.00013000000000000002,8e-05,5.9999999999999995e-05,5
21598,22457,-1e-05,-2e-05,-5e-05,-0.00011,-5.9999999999999995e-05,-0.00013000000000000002,8e-05,5.9999999999999995e-05,5
21599,22458,0.00016,0.0,4e-05,5.9999999999999995e-05,0.00037,-2.9999999999999997e-05,-4e-05,2e-05,5
21600,22459,-0.00014,-0.0001,-4e-05,-1e-05,0.00074,0.00022,2e-05,-0.00015,5
21601,22460,-0.00014,-0.0001,-4e-05,-1e-05,0.00074,0.00022,2e-05,-0.00015,5
21602,22461,-0.00014,-0.0001,-4e-05,-1e-05,0.00074,0.00022,2e-05,-0.00015,5
21603,22462,-0.00014,-0.0001,-4e-05,-1e-05,0.00074,0.00022,2e-05,-0.00015,5
21604,22463,-0.00014,-0.0001,-4e-05,-1e-05,0.00074,0.00022,2e-05,-0.00015,5
21605,22464,-0.00014,-0.0001,-4e-05,-1e-05,0.00074,0.00022,2e-05,-0.00015,5
21606,22466,-0.00014,-0.0001,-4e-05,-1e-05,0.00074,0.00022,2e-05,-0.00015,5
21607,22467,-0.00014,-0.0001,-4e-05,-1e-05,0.00074,0.00022,2e-05,-0.00015,5
21608,22468,-0.00014,-0.0001,-4e-05,-1e-05,0.00074,0.00022,2e-05,-0.00015,5
21609,22469,-0.00014,-0.0001,-4e-05,-1e-05,0.00074,0.00022,2e-05,-0.00015,5
21610,22470,-0.00014,-0.0001,-4e-05,-1e-05,0.00074,0.00022,2e-05,-0.00015,5
21611,22471,-0.00014,-0.0001,-4e-05,-1e-05,0.00074,0.00022,2e-05,-0.00015,5
21612,22472,-0.00014,-0.0001,-4e-05,-1e-05,0.00074,0.00022,2e-05,-0.00015,5
21613,22473,-0.00014,-0.0001,-4e-05,-1e-05,0.00074,0.00022,2e-05,-0.00015,5
21614,22474,-0.00014,-0.0001,-4e-05,-1e-05,0.00074,0.00022,2e-05,-0.00015,5
21615,22475,-0.00014,-0.0001,-4e-05,-1e-05,0.00074,0.00022,2e-05,-0.00015,5
21616,22476,-0.00014,-0.0001,-4e-05,-1e-05,0.00074,0.00022,2e-05,-0.00015,5
21617,22477,-0.00014,-0.0001,-4e-05,-1e-05,0.00074,0.00022,2e-05,-0.00015,5
21618,22478,-0.00014,-0.0001,-4e-05,-1e-05,0.00074,0.00022,2e-05,-0.00015,5
21619,22479,-0.00014,-0.0001,-4e-05,-1e-05,0.00074,0.00022,2e-05,-0.00015,5
21620,22480,-0.00014,-0.0001,-4e-05,-1e-05,0.00074,0.00022,2e-05,-0.00015,5
21621,22481,-2.9999999999999997e-05,-2.9999999999999997e-05,-8e-05,-5.9999999999999995e-05,-0.00029,-0.00016999999999999999,-2e-05,-5e-05,5
21622,22482,-2.9999999999999997e-05,-2.9999999999999997e-05,-8e-05,-5.9999999999999995e-05,-0.00029,-0.00016999999999999999,-2e-05,-5e-05,5
21623,22483,-2.9999999999999997e-05,-2.9999999999999997e-05,-8e-05,-5.9999999999999995e-05,-0.00029,-0.00016999999999999999,-2e-05,-5e-05,5
21624,22484,-2.9999999999999997e-05,-2.9999999999999997e-05,-8e-05,-5.9999999999999995e-05,-0.00029,-0.00016999999999999999,-2e-05,-5e-05,5
21625,22485,-2.9999999999999997e-05,-2.9999999999999997e-05,-8e-05,-5.9999999999999995e-05,-0.00029,-0.00016999999999999999,-2e-05,-5e-05,5
21626,22486,-2.9999999999999997e-05,-2.9999999999999997e-05,-8e-05,-5.9999999999999995e-05,-0.00029,-0.00016999999999999999,-2e-05,-5e-05,5
21627,22488,-2.9999999999999997e-05,-2.9999999999999997e-05,-8e-05,-5.9999999999999995e-05,-0.00029,-0.00016999999999999999,-2e-05,-5e-05,5
21628,22489,-2.9999999999999997e-05,-2.9999999999999997e-05,-8e-05,-5.9999999999999995e-05,-0.00029,-0.00016999999999999999,-2e-05,-5e-05,5
21629,22490,-2.9999999999999997e-05,-2.9999999999999997e-05,-8e-05,-5.9999999999999995e-05,-0.00029,-0.00016999999999999999,-2e-05,-5e-05,5
21630,22491,-2.9999999999999997e-05,-2.9999999999999997e-05,-8e-05,-5.9999999999999995e-05,-0.00029,-0.00016999999999999999,-2e-05,-5e-05,5
21631,22492,-2.9999999999999997e-05,-2.9999999999999997e-05,-8e-05,-5.9999999999999995e-05,-0.00029,-0.00016999999999999999,-2e-05,-5e-05,5
21632,22493,-2.9999999999999997e-05,-2.9999999999999997e-05,-8e-05,-5.9999999999999995e-05,-0.00029,-0.00016999999999999999,-2e-05,-5e-05,5
21633,22494,-2.9999999999999997e-05,-2.9999999999999997e-05,-8e-05,-5.9999999999999995e-05,-0.00029,-0.00016999999999999999,-2e-05,-5e-05,5
21634,22495,5e-05,0.0001,0.0001,0.00013000000000000002,0.00016999999999999999,0.00016999999999999999,4e-05,5e-05,5
21635,22496,5.9999999999999995e-05,8e-05,9e-05,0.00016999999999999999,-0.00018,5.9999999999999995e-05,2.9999999999999997e-05,9e-05,5
21636,22497,5.9999999999999995e-05,8e-05,9e-05,0.00016999999999999999,-0.00018,5.9999999999999995e-05,2.9999999999999997e-05,9e-05,5
21637,22498,5.9999999999999995e-05,8e-05,9e-05,0.00016999999999999999,-0.00018,5.9999999999999995e-05,2.9999999999999997e-05,9e-05,5
21638,22499,5.9999999999999995e-05,8e-05,9e-05,0.00016999999999999999,-0.00018,5.9999999999999995e-05,2.9999999999999997e-05,9e-05,5
21639,22500,5.9999999999999995e-05,8e-05,9e-05,0.00016999999999999999,-0.00018,5.9999999999999995e-05,2.9999999999999997e-05,9e-05,5
21640,22501,5.9999999999999995e-05,8e-05,9e-05,0.00016999999999999999,-0.00018,5.9999999999999995e-05,2.9999999999999997e-05,9e-05,5
21641,22502,5.9999999999999995e-05,8e-05,9e-05,0.00016999999999999999,-0.00018,5.9999999999999995e-05,2.9999999999999997e-05,9e-05,5
21642,22503,5.9999999999999995e-05,8e-05,9e-05,0.00016999999999999999,-0.00018,5.9999999999999995e-05,2.9999999999999997e-05,9e-05,5
21643,22504,5.9999999999999995e-05,8e-05,9e-05,0.00016999999999999999,-0.00018,5.9999999999999995e-05,2.9999999999999997e-05,9e-05,5
21644,22505,5.9999999999999995e-05,8e-05,9e-05,0.00016999999999999999,-0.00018,5.9999999999999995e-05,2.9999999999999997e-05,9e-05,5
21645,22506,5.9999999999999995e-05,8e-05,9e-05,0.00016999999999999999,-0.00018,5.9999999999999995e-05,2.9999999999999997e-05,9e-05,5
21646,22507,5.9999999999999995e-05,8e-05,9e-05,0.00016999999999999999,-0.00018,5.9999999999999995e-05,2.9999999999999997e-05,9e-05,5
21647,22508,5.9999999999999995e-05,8e-05,9e-05,0.00016999999999999999,-0.00018,5.9999999999999995e-05,2.9999999999999997e-05,9e-05,5
21648,22509,5.9999999999999995e-05,8e-05,9e-05,0.00016999999999999999,-0.00018,5.9999999999999995e-05,2.9999999999999997e-05,9e-05,5
21649,22510,5.9999999999999995e-05,8e-05,9e-05,0.00016999999999999999,-0.00018,5.9999999999999995e-05,2.9999999999999997e-05,9e-05,5
21650,22511,5.9999999999999995e-05,8e-05,9e-05,0.00016999999999999999,-0.00018,5.9999999999999995e-05,2.9999999999999997e-05,9e-05,5
21651,22512,5.9999999999999995e-05,8e-05,9e-05,0.00016999999999999999,-0.00018,5.9999999999999995e-05,2.9999999999999997e-05,9e-05,5
21652,22513,5.9999999999999995e-05,8e-05,9e-05,0.00016999999999999999,-0.00018,5.9999999999999995e-05,2.9999999999999997e-05,9e-05,5
21653,22514,5.9999999999999995e-05,8e-05,9e-05,0.00016999999999999999,-0.00018,5.9999999999999995e-05,2.9999999999999997e-05,9e-05,5
21654,22515,5.9999999999999995e-05,8e-05,9e-05,0.00016999999999999999,-0.00018,5.9999999999999995e-05,2.9999999999999997e-05,9e-05,5
21655,22516,5.9999999999999995e-05,8e-05,9e-05,0.00016999999999999999,-0.00018,5.9999999999999995e-05,2.9999999999999997e-05,9e-05,5
21656,22517,5.9999999999999995e-05,8e-05,9e-05,0.00016999999999999999,-0.00018,5.9999999999999995e-05,2.9999999999999997e-05,9e-05,5
21657,22518,2e-05,-2e-05,-0.00011999999999999999,0.0005,0.00045,0.00018,-2e-05,0.0,5
21658,22519,-5e-05,-5.9999999999999995e-05,-4e-05,-5e-05,-0.00039,-8e-05,-4e-05,1e-05,5
21659,22520,-5e-05,-5.9999999999999995e-05,-4e-05,-5e-05,-0.00039,-8e-05,-4e-05,1e-05,5
21660,22521,-5e-05,-5.9999999999999995e-05,-4e-05,-5e-05,-0.00039,-8e-05,-4e-05,1e-05,5
21661,22522,-5e-05,-5.9999999999999995e-05,-4e-05,-5e-05,-0.00039,-8e-05,-4e-05,1e-05,5
21662,22523,-5e-05,-5.9999999999999995e-05,-4e-05,-5e-05,-0.00039,-8e-05,-4e-05,1e-05,5
21663,22524,-5e-05,-5.9999999999999995e-05,-4e-05,-5e-05,-0.00039,-8e-05,-4e-05,1e-05,5
21664,22525,-5e-05,-5.9999999999999995e-05,-4e-05,-5e-05,-0.00039,-8e-05,-4e-05,1e-05,5
21665,22526,-5e-05,-5.9999999999999995e-05,-4e-05,-5e-05,-0.00039,-8e-05,-4e-05,1e-05,5
21666,22527,-5e-05,-5.9999999999999995e-05,-4e-05,-5e-05,-0.00039,-8e-05,-4e-05,1e-05,5
21667,22528,-5e-05,-5.9999999999999995e-05,-4e-05,-5e-05,-0.00039,-8e-05,-4e-05,1e-05,5
21668,22529,-5e-05,-5.9999999999999995e-05,-4e-05,-5e-05,-0.00039,-8e-05,-4e-05,1e-05,5
21669,22530,-5e-05,-5.9999999999999995e-05,-4e-05,-5e-05,-0.00039,-8e-05,-4e-05,1e-05,5
21670,22531,-5e-05,-5.9999999999999995e-05,-4e-05,-5e-05,-0.00039,-8e-05,-4e-05,1e-05,5
21671,22532,-5e-05,-5.9999999999999995e-05,-4e-05,-5e-05,-0.00039,-8e-05,-4e-05,1e-05,5
21672,22533,-5e-05,-5.9999999999999995e-05,-4e-05,-5e-05,-0.00039,-8e-05,-4e-05,1e-05,5
21673,22534,-5e-05,-5.9999999999999995e-05,-4e-05,-5e-05,-0.00039,-8e-05,-4e-05,1e-05,5
21674,22535,-5e-05,-5.9999999999999995e-05,-4e-05,-5e-05,-0.00039,-8e-05,-4e-05,1e-05,5
21675,22536,-5e-05,-5.9999999999999995e-05,-4e-05,-5e-05,-0.00039,-8e-05,-4e-05,1e-05,5
21676,22538,-5e-05,-5.9999999999999995e-05,-4e-05,-5e-05,-0.00039,-8e-05,-4e-05,1e-05,5
21677,22539,-5e-05,-5.9999999999999995e-05,-4e-05,-5e-05,-0.00039,-8e-05,-4e-05,1e-05,5
21678,22540,-5e-05,-5.9999999999999995e-05,-4e-05,-5e-05,-0.00039,-8e-05,-4e-05,1e-05,5
21679,22541,4e-05,4e-05,1e-05,-0.00025,-0.0004,-4e-05,-5.9999999999999995e-05,1e-05,5
21680,22542,4e-05,4e-05,1e-05,-0.00025,-0.0004,-4e-05,-5.9999999999999995e-05,1e-05,5
21681,22543,4e-05,4e-05,1e-05,-0.00025,-0.0004,-4e-05,-5.9999999999999995e-05,1e-05,5
21682,22544,4e-05,4e-05,1e-05,-0.00025,-0.0004,-4e-05,-5.9999999999999995e-05,1e-05,5
21683,22545,4e-05,4e-05,1e-05,-0.00025,-0.0004,-4e-05,-5.9999999999999995e-05,1e-05,5
21684,22546,4e-05,4e-05,1e-05,-0.00025,-0.0004,-4e-05,-5.9999999999999995e-05,1e-05,5
21685,22547,4e-05,4e-05,1e-05,-0.00025,-0.0004,-4e-05,-5.9999999999999995e-05,1e-05,5
21686,22548,4e-05,4e-05,1e-05,-0.00025,-0.0004,-4e-05,-5.9999999999999995e-05,1e-05,5
21687,22549,4e-05,4e-05,1e-05,-0.00025,-0.0004,-4e-05,-5.9999999999999995e-05,1e-05,5
21688,22550,4e-05,4e-05,1e-05,-0.00025,-0.0004,-4e-05,-5.9999999999999995e-05,1e-05,5
21689,22551,4e-05,4e-05,1e-05,-0.00025,-0.0004,-4e-05,-5.9999999999999995e-05,1e-05,5
21690,22552,4e-05,4e-05,1e-05,-0.00025,-0.0004,-4e-05,-5.9999999999999995e-05,1e-05,5
21691,22553,4e-05,4e-05,1e-05,-0.00025,-0.0004,-4e-05,-5.9999999999999995e-05,1e-05,5
21692,22554,4e-05,4e-05,1e-05,-0.00025,-0.0004,-4e-05,-5.9999999999999995e-05,1e-05,5
21693,22555,-2.9999999999999997e-05,1e-05,-7e-05,-4e-05,-0.00032,0.0001,-1e-05,1e-05,5
21694,22556,7e-05,2.9999999999999997e-05,1e-05,-9e-05,-0.0001,-7e-05,-2e-05,2.9999999999999997e-05,5
21695,22557,7e-05,2.9999999999999997e-05,1e-05,-9e-05,-0.0001,-7e-05,-2e-05,2.9999999999999997e-05,5
21696,22558,7e-05,2.9999999999999997e-05,1e-05,-9e-05,-0.0001,-7e-05,-2e-05,2.9999999999999997e-05,5
21697,22559,7e-05,2.9999999999999997e-05,1e-05,-9e-05,-0.0001,-7e-05,-2e-05,2.9999999999999997e-05,5
21698,22560,7e-05,2.9999999999999997e-05,1e-05,-9e-05,-0.0001,-7e-05,-2e-05,2.9999999999999997e-05,5
21699,22561,7e-05,2.9999999999999997e-05,1e-05,-9e-05,-0.0001,-7e-05,-2e-05,2.9999999999999997e-05,5
21700,22562,7e-05,2.9999999999999997e-05,1e-05,-9e-05,-0.0001,-7e-05,-2e-05,2.9999999999999997e-05,5
21701,22563,7e-05,2.9999999999999997e-05,1e-05,-9e-05,-0.0001,-7e-05,-2e-05,2.9999999999999997e-05,5
21702,22564,7e-05,2.9999999999999997e-05,1e-05,-9e-05,-0.0001,-7e-05,-2e-05,2.9999999999999997e-05,5
21703,22565,7e-05,2.9999999999999997e-05,1e-05,-9e-05,-0.0001,-7e-05,-2e-05,2.9999999999999997e-05,5
21704,22566,7e-05,2.9999999999999997e-05,1e-05,-9e-05,-0.0001,-7e-05,-2e-05,2.9999999999999997e-05,5
21705,22567,7e-05,2.9999999999999997e-05,1e-05,-9e-05,-0.0001,-7e-05,-2e-05,2.9999999999999997e-05,5
21706,22568,7e-05,2.9999999999999997e-05,1e-05,-9e-05,-0.0001,-7e-05,-2e-05,2.9999999999999997e-05,5
21707,22569,7e-05,2.9999999999999997e-05,1e-05,-9e-05,-0.0001,-7e-05,-2e-05,2.9999999999999997e-05,5
21708,22570,7e-05,2.9999999999999997e-05,1e-05,-9e-05,-0.0001,-7e-05,-2e-05,2.9999999999999997e-05,5
21709,22571,7e-05,2.9999999999999997e-05,1e-05,-9e-05,-0.0001,-7e-05,-2e-05,2.9999999999999997e-05,5
21710,22572,7e-05,2.9999999999999997e-05,1e-05,-9e-05,-0.0001,-7e-05,-2e-05,2.9999999999999997e-05,5
21711,22573,7e-05,2.9999999999999997e-05,1e-05,-9e-05,-0.0001,-7e-05,-2e-05,2.9999999999999997e-05,5
21712,22574,7e-05,2.9999999999999997e-05,1e-05,-9e-05,-0.0001,-7e-05,-2e-05,2.9999999999999997e-05,5
21713,22575,7e-05,2.9999999999999997e-05,1e-05,-9e-05,-0.0001,-7e-05,-2e-05,2.9999999999999997e-05,5
21714,22576,7e-05,2.9999999999999997e-05,1e-05,-9e-05,-0.0001,-7e-05,-2e-05,2.9999999999999997e-05,5
21715,22577,0.0,5e-05,-2.9999999999999997e-05,-1e-05,-0.00022,-0.00023999999999999998,-7e-05,-4e-05,5
21716,22578,-0.00011999999999999999,-2e-05,2e-05,-0.00045999999999999996,-0.00036,-5.9999999999999995e-05,1e-05,0.00022,5
21717,22579,-0.00011999999999999999,-2e-05,2e-05,-0.00045999999999999996,-0.00036,-5.9999999999999995e-05,1e-05,0.00022,5
21718,22580,-0.00011999999999999999,-2e-05,2e-05,-0.00045999999999999996,-0.00036,-5.9999999999999995e-05,1e-05,0.00022,5
21719,22581,-0.00011999999999999999,-2e-05,2e-05,-0.00045999999999999996,-0.00036,-5.9999999999999995e-05,1e-05,0.00022,5
21720,22582,-0.00011999999999999999,-2e-05,2e-05,-0.00045999999999999996,-0.00036,-5.9999999999999995e-05,1e-05,0.00022,5
21721,22583,-0.00011999999999999999,-2e-05,2e-05,-0.00045999999999999996,-0.00036,-5.9999999999999995e-05,1e-05,0.00022,5
21722,22584,-0.00011999999999999999,-2e-05,2e-05,-0.00045999999999999996,-0.00036,-5.9999999999999995e-05,1e-05,0.00022,5
21723,22585,-0.00011999999999999999,-2e-05,2e-05,-0.00045999999999999996,-0.00036,-5.9999999999999995e-05,1e-05,0.00022,5
21724,22586,-0.00011999999999999999,-2e-05,2e-05,-0.00045999999999999996,-0.00036,-5.9999999999999995e-05,1e-05,0.00022,5
21725,22588,-0.00011999999999999999,-2e-05,2e-05,-0.00045999999999999996,-0.00036,-5.9999999999999995e-05,1e-05,0.00022,5
21726,22589,-0.00011999999999999999,-2e-05,2e-05,-0.00045999999999999996,-0.00036,-5.9999999999999995e-05,1e-05,0.00022,5
21727,22590,-0.00011999999999999999,-2e-05,2e-05,-0.00045999999999999996,-0.00036,-5.9999999999999995e-05,1e-05,0.00022,5
21728,22591,-0.00011999999999999999,-2e-05,2e-05,-0.00045999999999999996,-0.00036,-5.9999999999999995e-05,1e-05,0.00022,5
21729,22592,-0.00011999999999999999,-2e-05,2e-05,-0.00045999999999999996,-0.00036,-5.9999999999999995e-05,1e-05,0.00022,5
21730,22593,-0.00011999999999999999,-2e-05,2e-05,-0.00045999999999999996,-0.00036,-5.9999999999999995e-05,1e-05,0.00022,5
21731,22594,-0.00011999999999999999,-2e-05,2e-05,-0.00045999999999999996,-0.00036,-5.9999999999999995e-05,1e-05,0.00022,5
21732,22595,-0.00011999999999999999,-2e-05,2e-05,-0.00045999999999999996,-0.00036,-5.9999999999999995e-05,1e-05,0.00022,5
21733,22596,-0.00011999999999999999,-2e-05,2e-05,-0.00045999999999999996,-0.00036,-5.9999999999999995e-05,1e-05,0.00022,5
21734,22597,-0.00011999999999999999,-2e-05,2e-05,-0.00045999999999999996,-0.00036,-5.9999999999999995e-05,1e-05,0.00022,5
21735,22598,-0.00011999999999999999,-2e-05,2e-05,-0.00045999999999999996,-0.00036,-5.9999999999999995e-05,1e-05,0.00022,5
21736,22599,-0.00011999999999999999,-2e-05,2e-05,-0.00045999999999999996,-0.00036,-5.9999999999999995e-05,1e-05,0.00022,5
21737,22600,0.00011999999999999999,-2e-05,-4e-05,0.00025,0.00031,2.9999999999999997e-05,2.9999999999999997e-05,-5.9999999999999995e-05,5
21738,22602,0.0,-5.9999999999999995e-05,-0.0001,0.0001,0.00018999999999999998,-4e-05,-5.9999999999999995e-05,-0.00013000000000000002,5
21739,22603,0.0,-5.9999999999999995e-05,-0.0001,0.0001,0.00018999999999999998,-4e-05,-5.9999999999999995e-05,-0.00013000000000000002,5
21740,22604,0.0,-5.9999999999999995e-05,-0.0001,0.0001,0.00018999999999999998,-4e-05,-5.9999999999999995e-05,-0.00013000000000000002,5
21741,22605,0.0,-5.9999999999999995e-05,-0.0001,0.0001,0.00018999999999999998,-4e-05,-5.9999999999999995e-05,-0.00013000000000000002,5
21742,22606,0.0,-5.9999999999999995e-05,-0.0001,0.0001,0.00018999999999999998,-4e-05,-5.9999999999999995e-05,-0.00013000000000000002,5
21743,22607,0.0,-5.9999999999999995e-05,-0.0001,0.0001,0.00018999999999999998,-4e-05,-5.9999999999999995e-05,-0.00013000000000000002,5
21744,22608,0.0,-5.9999999999999995e-05,-0.0001,0.0001,0.00018999999999999998,-4e-05,-5.9999999999999995e-05,-0.00013000000000000002,5
21745,22609,0.0,-5.9999999999999995e-05,-0.0001,0.0001,0.00018999999999999998,-4e-05,-5.9999999999999995e-05,-0.00013000000000000002,5
21746,22610,0.0,-5.9999999999999995e-05,-0.0001,0.0001,0.00018999999999999998,-4e-05,-5.9999999999999995e-05,-0.00013000000000000002,5
21747,22611,0.0,-5.9999999999999995e-05,-0.0001,0.0001,0.00018999999999999998,-4e-05,-5.9999999999999995e-05,-0.00013000000000000002,5
21748,22612,0.0,-5.9999999999999995e-05,-0.0001,0.0001,0.00018999999999999998,-4e-05,-5.9999999999999995e-05,-0.00013000000000000002,5
21749,22613,0.0,-5.9999999999999995e-05,-0.0001,0.0001,0.00018999999999999998,-4e-05,-5.9999999999999995e-05,-0.00013000000000000002,5
21750,22614,0.0,-5.9999999999999995e-05,-0.0001,0.0001,0.00018999999999999998,-4e-05,-5.9999999999999995e-05,-0.00013000000000000002,5
21751,22615,4e-05,-1e-05,-0.00011,0.00045,0.00033,5e-05,-1e-05,-2e-05,5
21752,22616,4e-05,-1e-05,-0.00011,0.00045,0.00033,5e-05,-1e-05,-2e-05,5
21753,22617,4e-05,-1e-05,-0.00011,0.00045,0.00033,5e-05,-1e-05,-2e-05,5
21754,22618,4e-05,-1e-05,-0.00011,0.00045,0.00033,5e-05,-1e-05,-2e-05,5
21755,22619,4e-05,-1e-05,-0.00011,0.00045,0.00033,5e-05,-1e-05,-2e-05,5
21756,22620,4e-05,-1e-05,-0.00011,0.00045,0.00033,5e-05,-1e-05,-2e-05,5
21757,22621,4e-05,-1e-05,-0.00011,0.00045,0.00033,5e-05,-1e-05,-2e-05,5
21758,22622,4e-05,-1e-05,-0.00011,0.00045,0.00033,5e-05,-1e-05,-2e-05,5
21759,22623,4e-05,-1e-05,-0.00011,0.00045,0.00033,5e-05,-1e-05,-2e-05,5
21760,22624,4e-05,-1e-05,-0.00011,0.00045,0.00033,5e-05,-1e-05,-2e-05,5
21761,22625,4e-05,-1e-05,-0.00011,0.00045,0.00033,5e-05,-1e-05,-2e-05,5
21762,22626,4e-05,-1e-05,-0.00011,0.00045,0.00033,5e-05,-1e-05,-2e-05,5
21763,22627,4e-05,-1e-05,-0.00011,0.00045,0.00033,5e-05,-1e-05,-2e-05,5
21764,22628,4e-05,-1e-05,-0.00011,0.00045,0.00033,5e-05,-1e-05,-2e-05,5
21765,22629,4e-05,-1e-05,-0.00011,0.00045,0.00033,5e-05,-1e-05,-2e-05,5
21766,22630,4e-05,-1e-05,-0.00011,0.00045,0.00033,5e-05,-1e-05,-2e-05,5
21767,22631,4e-05,-1e-05,-0.00011,0.00045,0.00033,5e-05,-1e-05,-2e-05,5
21768,22632,4e-05,-1e-05,-0.00011,0.00045,0.00033,5e-05,-1e-05,-2e-05,5
21769,22633,4e-05,-1e-05,-0.00011,0.00045,0.00033,5e-05,-1e-05,-2e-05,5
21770,22634,4e-05,-1e-05,-0.00011,0.00045,0.00033,5e-05,-1e-05,-2e-05,5
21771,22635,4e-05,-1e-05,-0.00011,0.00045,0.00033,5e-05,-1e-05,-2e-05,5
21772,22636,4e-05,-1e-05,-0.00011,0.00045,0.00033,5e-05,-1e-05,-2e-05,5
21773,22639,-8e-05,-4e-05,2e-05,-2.9999999999999997e-05,0.00011999999999999999,-2e-05,-1e-05,0.0,5
21774,22640,-8e-05,-4e-05,2e-05,-2.9999999999999997e-05,0.00011999999999999999,-2e-05,-1e-05,0.0,5
21775,22641,-8e-05,-4e-05,2e-05,-2.9999999999999997e-05,0.00011999999999999999,-2e-05,-1e-05,0.0,5
21776,22642,-8e-05,-4e-05,2e-05,-2.9999999999999997e-05,0.00011999999999999999,-2e-05,-1e-05,0.0,5
21777,22643,-8e-05,-4e-05,2e-05,-2.9999999999999997e-05,0.00011999999999999999,-2e-05,-1e-05,0.0,5
21778,22644,-8e-05,-4e-05,2e-05,-2.9999999999999997e-05,0.00011999999999999999,-2e-05,-1e-05,0.0,5
21779,22645,-8e-05,-4e-05,2e-05,-2.9999999999999997e-05,0.00011999999999999999,-2e-05,-1e-05,0.0,5
21780,22646,-8e-05,-4e-05,2e-05,-2.9999999999999997e-05,0.00011999999999999999,-2e-05,-1e-05,0.0,5
21781,22647,-8e-05,-4e-05,2e-05,-2.9999999999999997e-05,0.00011999999999999999,-2e-05,-1e-05,0.0,5
21782,22648,-8e-05,-4e-05,2e-05,-2.9999999999999997e-05,0.00011999999999999999,-2e-05,-1e-05,0.0,5
21783,22649,-8e-05,-4e-05,2e-05,-2.9999999999999997e-05,0.00011999999999999999,-2e-05,-1e-05,0.0,5
21784,22650,-8e-05,-4e-05,2e-05,-2.9999999999999997e-05,0.00011999999999999999,-2e-05,-1e-05,0.0,5
21785,22651,-8e-05,-4e-05,2e-05,-2.9999999999999997e-05,0.00011999999999999999,-2e-05,-1e-05,0.0,5
21786,22652,-8e-05,-4e-05,2e-05,-2.9999999999999997e-05,0.00011999999999999999,-2e-05,-1e-05,0.0,5
21787,22653,-8e-05,-4e-05,2e-05,-2.9999999999999997e-05,0.00011999999999999999,-2e-05,-1e-05,0.0,5
21788,22654,-8e-05,-4e-05,2e-05,-2.9999999999999997e-05,0.00011999999999999999,-2e-05,-1e-05,0.0,5
21789,22655,-8e-05,-4e-05,2e-05,-2.9999999999999997e-05,0.00011999999999999999,-2e-05,-1e-05,0.0,5
21790,22656,-8e-05,-4e-05,2e-05,-2.9999999999999997e-05,0.00011999999999999999,-2e-05,-1e-05,0.0,5
21791,22657,-8e-05,-4e-05,2e-05,-2.9999999999999997e-05,0.00011999999999999999,-2e-05,-1e-05,0.0,5
21792,22658,-8e-05,-4e-05,2e-05,-2.9999999999999997e-05,0.00011999999999999999,-2e-05,-1e-05,0.0,5
21793,22659,-8e-05,-4e-05,2e-05,-2.9999999999999997e-05,0.00011999999999999999,-2e-05,-1e-05,0.0,5
21794,22660,-8e-05,-4e-05,2e-05,-2.9999999999999997e-05,0.00011999999999999999,-2e-05,-1e-05,0.0,5
21795,22661,7e-05,0.0,-2.9999999999999997e-05,-0.00011,-0.00037,-2e-05,-5.9999999999999995e-05,2.9999999999999997e-05,5
21796,22662,-0.00011999999999999999,2e-05,4e-05,0.00022999999999999998,9e-05,5e-05,-1e-05,2e-05,5
21797,22663,-0.00011999999999999999,2e-05,4e-05,0.00022999999999999998,9e-05,5e-05,-1e-05,2e-05,5
21798,22664,-0.00011999999999999999,2e-05,4e-05,0.00022999999999999998,9e-05,5e-05,-1e-05,2e-05,5
21799,22665,-0.00011999999999999999,2e-05,4e-05,0.00022999999999999998,9e-05,5e-05,-1e-05,2e-05,5
21800,22666,-0.00011999999999999999,2e-05,4e-05,0.00022999999999999998,9e-05,5e-05,-1e-05,2e-05,5
21801,22667,-0.00011999999999999999,2e-05,4e-05,0.00022999999999999998,9e-05,5e-05,-1e-05,2e-05,5
21802,22668,-0.00011999999999999999,2e-05,4e-05,0.00022999999999999998,9e-05,5e-05,-1e-05,2e-05,5
21803,22669,-0.00011999999999999999,2e-05,4e-05,0.00022999999999999998,9e-05,5e-05,-1e-05,2e-05,5
21804,22670,-0.00011999999999999999,2e-05,4e-05,0.00022999999999999998,9e-05,5e-05,-1e-05,2e-05,5
21805,22671,-0.00011999999999999999,2e-05,4e-05,0.00022999999999999998,9e-05,5e-05,-1e-05,2e-05,5
21806,22672,-0.00011999999999999999,2e-05,4e-05,0.00022999999999999998,9e-05,5e-05,-1e-05,2e-05,5
21807,22673,-0.00011999999999999999,2e-05,4e-05,0.00022999999999999998,9e-05,5e-05,-1e-05,2e-05,5
21808,22674,-0.00011999999999999999,2e-05,4e-05,0.00022999999999999998,9e-05,5e-05,-1e-05,2e-05,5
21809,22675,7e-05,2.9999999999999997e-05,4e-05,-7e-05,-0.00015,0.0,-2.9999999999999997e-05,-2.9999999999999997e-05,5
21810,22676,8e-05,8e-05,0.0,-0.00011,-0.0001,0.0,2e-05,-2.9999999999999997e-05,5
21811,22677,8e-05,8e-05,0.0,-0.00011,-0.0001,0.0,2e-05,-2.9999999999999997e-05,5
21812,22678,8e-05,8e-05,0.0,-0.00011,-0.0001,0.0,2e-05,-2.9999999999999997e-05,5
21813,22679,8e-05,8e-05,0.0,-0.00011,-0.0001,0.0,2e-05,-2.9999999999999997e-05,5
21814,22680,8e-05,8e-05,0.0,-0.00011,-0.0001,0.0,2e-05,-2.9999999999999997e-05,5
21815,22681,8e-05,8e-05,0.0,-0.00011,-0.0001,0.0,2e-05,-2.9999999999999997e-05,5
21816,22682,8e-05,8e-05,0.0,-0.00011,-0.0001,0.0,2e-05,-2.9999999999999997e-05,5
21817,22683,8e-05,8e-05,0.0,-0.00011,-0.0001,0.0,2e-05,-2.9999999999999997e-05,5
21818,22684,8e-05,8e-05,0.0,-0.00011,-0.0001,0.0,2e-05,-2.9999999999999997e-05,5
21819,22685,8e-05,8e-05,0.0,-0.00011,-0.0001,0.0,2e-05,-2.9999999999999997e-05,5
21820,22686,8e-05,8e-05,0.0,-0.00011,-0.0001,0.0,2e-05,-2.9999999999999997e-05,5
21821,22688,8e-05,8e-05,0.0,-0.00011,-0.0001,0.0,2e-05,-2.9999999999999997e-05,5
21822,22689,8e-05,8e-05,0.0,-0.00011,-0.0001,0.0,2e-05,-2.9999999999999997e-05,5
21823,22690,8e-05,8e-05,0.0,-0.00011,-0.0001,0.0,2e-05,-2.9999999999999997e-05,5
21824,22691,8e-05,8e-05,0.0,-0.00011,-0.0001,0.0,2e-05,-2.9999999999999997e-05,5
21825,22692,8e-05,8e-05,0.0,-0.00011,-0.0001,0.0,2e-05,-2.9999999999999997e-05,5
21826,22693,8e-05,8e-05,0.0,-0.00011,-0.0001,0.0,2e-05,-2.9999999999999997e-05,5
21827,22694,8e-05,8e-05,0.0,-0.00011,-0.0001,0.0,2e-05,-2.9999999999999997e-05,5
21828,22695,8e-05,8e-05,0.0,-0.00011,-0.0001,0.0,2e-05,-2.9999999999999997e-05,5
21829,22696,8e-05,8e-05,0.0,-0.00011,-0.0001,0.0,2e-05,-2.9999999999999997e-05,5
21830,22697,8e-05,8e-05,0.0,-0.00011,-0.0001,0.0,2e-05,-2.9999999999999997e-05,5
21831,22698,-8e-05,-2e-05,8e-05,1e-05,0.00016,0.0001,-2e-05,-2.9999999999999997e-05,5
21832,22699,-4e-05,-7e-05,-8e-05,0.00011999999999999999,0.00028,1e-05,5e-05,-2.9999999999999997e-05,5
21833,22700,-4e-05,-7e-05,-8e-05,0.00011999999999999999,0.00028,1e-05,5e-05,-2.9999999999999997e-05,5
21834,22701,-4e-05,-7e-05,-8e-05,0.00011999999999999999,0.00028,1e-05,5e-05,-2.9999999999999997e-05,5
21835,22702,-4e-05,-7e-05,-8e-05,0.00011999999999999999,0.00028,1e-05,5e-05,-2.9999999999999997e-05,5
21836,22703,-4e-05,-7e-05,-8e-05,0.00011999999999999999,0.00028,1e-05,5e-05,-2.9999999999999997e-05,5
21837,22704,-4e-05,-7e-05,-8e-05,0.00011999999999999999,0.00028,1e-05,5e-05,-2.9999999999999997e-05,5
21838,22705,-4e-05,-7e-05,-8e-05,0.00011999999999999999,0.00028,1e-05,5e-05,-2.9999999999999997e-05,5
21839,22706,-4e-05,-7e-05,-8e-05,0.00011999999999999999,0.00028,1e-05,5e-05,-2.9999999999999997e-05,5
21840,22707,-4e-05,-7e-05,-8e-05,0.00011999999999999999,0.00028,1e-05,5e-05,-2.9999999999999997e-05,5
21841,22708,-4e-05,-7e-05,-8e-05,0.00011999999999999999,0.00028,1e-05,5e-05,-2.9999999999999997e-05,5
21842,22709,-4e-05,-7e-05,-8e-05,0.00011999999999999999,0.00028,1e-05,5e-05,-2.9999999999999997e-05,5
21843,22710,-4e-05,-7e-05,-8e-05,0.00011999999999999999,0.00028,1e-05,5e-05,-2.9999999999999997e-05,5
21844,22711,-4e-05,-7e-05,-8e-05,0.00011999999999999999,0.00028,1e-05,5e-05,-2.9999999999999997e-05,5
21845,22712,-4e-05,-7e-05,-8e-05,0.00011999999999999999,0.00028,1e-05,5e-05,-2.9999999999999997e-05,5
21846,22713,-4e-05,-7e-05,-8e-05,0.00011999999999999999,0.00028,1e-05,5e-05,-2.9999999999999997e-05,5
21847,22714,-4e-05,-7e-05,-8e-05,0.00011999999999999999,0.00028,1e-05,5e-05,-2.9999999999999997e-05,5
21848,22715,-4e-05,-7e-05,-8e-05,0.00011999999999999999,0.00028,1e-05,5e-05,-2.9999999999999997e-05,5
21849,22716,-4e-05,-7e-05,-8e-05,0.00011999999999999999,0.00028,1e-05,5e-05,-2.9999999999999997e-05,5
21850,22717,-4e-05,-7e-05,-8e-05,0.00011999999999999999,0.00028,1e-05,5e-05,-2.9999999999999997e-05,5
21851,22718,-4e-05,-7e-05,-8e-05,0.00011999999999999999,0.00028,1e-05,5e-05,-2.9999999999999997e-05,5
21852,22719,-4e-05,-7e-05,-8e-05,0.00011999999999999999,0.00028,1e-05,5e-05,-2.9999999999999997e-05,5
21853,22720,0.00011,5.9999999999999995e-05,4e-05,0.00033999999999999997,-8e-05,8e-05,-5.9999999999999995e-05,2.9999999999999997e-05,5
21854,22721,0.00011,5.9999999999999995e-05,4e-05,0.00033999999999999997,-8e-05,8e-05,-5.9999999999999995e-05,2.9999999999999997e-05,5
21855,22722,0.00011,5.9999999999999995e-05,4e-05,0.00033999999999999997,-8e-05,8e-05,-5.9999999999999995e-05,2.9999999999999997e-05,5
21856,22723,0.00011,5.9999999999999995e-05,4e-05,0.00033999999999999997,-8e-05,8e-05,-5.9999999999999995e-05,2.9999999999999997e-05,5
21857,22724,0.00011,5.9999999999999995e-05,4e-05,0.00033999999999999997,-8e-05,8e-05,-5.9999999999999995e-05,2.9999999999999997e-05,5
21858,22725,0.00011,5.9999999999999995e-05,4e-05,0.00033999999999999997,-8e-05,8e-05,-5.9999999999999995e-05,2.9999999999999997e-05,5
21859,22726,0.00011,5.9999999999999995e-05,4e-05,0.00033999999999999997,-8e-05,8e-05,-5.9999999999999995e-05,2.9999999999999997e-05,5
21860,22727,-0.00022,-8e-05,-5.9999999999999995e-05,-0.00011,0.00047000000000000004,-4e-05,0.0,-4e-05,5
21861,22728,9e-05,2.9999999999999997e-05,0.0001,0.00042,-5.9999999999999995e-05,-8e-05,-2e-05,-1e-05,5
21862,22729,9e-05,2.9999999999999997e-05,0.0001,0.00042,-5.9999999999999995e-05,-8e-05,-2e-05,-1e-05,5
21863,22730,9e-05,2.9999999999999997e-05,0.0001,0.00042,-5.9999999999999995e-05,-8e-05,-2e-05,-1e-05,5
21864,22731,9e-05,2.9999999999999997e-05,0.0001,0.00042,-5.9999999999999995e-05,-8e-05,-2e-05,-1e-05,5
21865,22732,9e-05,2.9999999999999997e-05,0.0001,0.00042,-5.9999999999999995e-05,-8e-05,-2e-05,-1e-05,5
21866,22733,9e-05,2.9999999999999997e-05,0.0001,0.00042,-5.9999999999999995e-05,-8e-05,-2e-05,-1e-05,5
21867,22734,9e-05,2.9999999999999997e-05,0.0001,0.00042,-5.9999999999999995e-05,-8e-05,-2e-05,-1e-05,5
21868,22735,-0.00011,-7e-05,-0.00014,-0.00021,0.00021,-4e-05,-4e-05,-5e-05,5
21869,22736,8e-05,-2.9999999999999997e-05,2.9999999999999997e-05,-0.00014,0.00016,4e-05,-4e-05,-0.00018,5
21870,22738,8e-05,-2.9999999999999997e-05,2.9999999999999997e-05,-0.00014,0.00016,4e-05,-4e-05,-0.00018,5
21871,22739,8e-05,-2.9999999999999997e-05,2.9999999999999997e-05,-0.00014,0.00016,4e-05,-4e-05,-0.00018,5
21872,22740,8e-05,-2.9999999999999997e-05,2.9999999999999997e-05,-0.00014,0.00016,4e-05,-4e-05,-0.00018,5
21873,22741,8e-05,-2.9999999999999997e-05,2.9999999999999997e-05,-0.00014,0.00016,4e-05,-4e-05,-0.00018,5
21874,22742,8e-05,-2.9999999999999997e-05,2.9999999999999997e-05,-0.00014,0.00016,4e-05,-4e-05,-0.00018,5
21875,22743,8e-05,-2.9999999999999997e-05,2.9999999999999997e-05,-0.00014,0.00016,4e-05,-4e-05,-0.00018,5
21876,22744,8e-05,-2.9999999999999997e-05,2.9999999999999997e-05,-0.00014,0.00016,4e-05,-4e-05,-0.00018,5
21877,22745,8e-05,-2.9999999999999997e-05,2.9999999999999997e-05,-0.00014,0.00016,4e-05,-4e-05,-0.00018,5
21878,22746,8e-05,-2.9999999999999997e-05,2.9999999999999997e-05,-0.00014,0.00016,4e-05,-4e-05,-0.00018,5
21879,22747,8e-05,-2.9999999999999997e-05,2.9999999999999997e-05,-0.00014,0.00016,4e-05,-4e-05,-0.00018,5
21880,22748,8e-05,-2.9999999999999997e-05,2.9999999999999997e-05,-0.00014,0.00016,4e-05,-4e-05,-0.00018,5
21881,22749,8e-05,-2.9999999999999997e-05,2.9999999999999997e-05,-0.00014,0.00016,4e-05,-4e-05,-0.00018,5
21882,22750,8e-05,-2.9999999999999997e-05,2.9999999999999997e-05,-0.00014,0.00016,4e-05,-4e-05,-0.00018,5
21883,22751,8e-05,-2.9999999999999997e-05,2.9999999999999997e-05,-0.00014,0.00016,4e-05,-4e-05,-0.00018,5
21884,22752,8e-05,-2.9999999999999997e-05,2.9999999999999997e-05,-0.00014,0.00016,4e-05,-4e-05,-0.00018,5
21885,22753,8e-05,-2.9999999999999997e-05,2.9999999999999997e-05,-0.00014,0.00016,4e-05,-4e-05,-0.00018,5
21886,22754,8e-05,-2.9999999999999997e-05,2.9999999999999997e-05,-0.00014,0.00016,4e-05,-4e-05,-0.00018,5
21887,22755,8e-05,-2.9999999999999997e-05,2.9999999999999997e-05,-0.00014,0.00016,4e-05,-4e-05,-0.00018,5
21888,22756,8e-05,-2.9999999999999997e-05,2.9999999999999997e-05,-0.00014,0.00016,4e-05,-4e-05,-0.00018,5
21889,22757,8e-05,-2.9999999999999997e-05,2.9999999999999997e-05,-0.00014,0.00016,4e-05,-4e-05,-0.00018,5
21890,22758,0.00011999999999999999,-2.9999999999999997e-05,-2.9999999999999997e-05,0.00016,0.00035,0.00021,5e-05,0.00013000000000000002,5
21891,22759,0.0,2e-05,-5e-05,-0.00036,-8e-05,-7e-05,-1e-05,0.00011999999999999999,5
21892,22760,0.0,2e-05,-5e-05,-0.00036,-8e-05,-7e-05,-1e-05,0.00011999999999999999,5
21893,22761,0.0,2e-05,-5e-05,-0.00036,-8e-05,-7e-05,-1e-05,0.00011999999999999999,5
21894,22762,0.0,2e-05,-5e-05,-0.00036,-8e-05,-7e-05,-1e-05,0.00011999999999999999,5
21895,22763,0.0,2e-05,-5e-05,-0.00036,-8e-05,-7e-05,-1e-05,0.00011999999999999999,5
21896,22764,0.0,2e-05,-5e-05,-0.00036,-8e-05,-7e-05,-1e-05,0.00011999999999999999,5
21897,22765,0.0,2e-05,-5e-05,-0.00036,-8e-05,-7e-05,-1e-05,0.00011999999999999999,5
21898,22766,0.0,2e-05,-5e-05,-0.00036,-8e-05,-7e-05,-1e-05,0.00011999999999999999,5
21899,22767,0.0,2e-05,-5e-05,-0.00036,-8e-05,-7e-05,-1e-05,0.00011999999999999999,5
21900,22768,0.0,2e-05,-5e-05,-0.00036,-8e-05,-7e-05,-1e-05,0.00011999999999999999,5
21901,22769,0.0,2e-05,-5e-05,-0.00036,-8e-05,-7e-05,-1e-05,0.00011999999999999999,5
21902,22770,0.0,2e-05,-5e-05,-0.00036,-8e-05,-7e-05,-1e-05,0.00011999999999999999,5
21903,22771,0.0,2e-05,-5e-05,-0.00036,-8e-05,-7e-05,-1e-05,0.00011999999999999999,5
21904,22772,0.0,2e-05,-5e-05,-0.00036,-8e-05,-7e-05,-1e-05,0.00011999999999999999,5
21905,22773,0.0,2e-05,-5e-05,-0.00036,-8e-05,-7e-05,-1e-05,0.00011999999999999999,5
21906,22774,0.0,2e-05,-5e-05,-0.00036,-8e-05,-7e-05,-1e-05,0.00011999999999999999,5
21907,22775,0.0,2e-05,-5e-05,-0.00036,-8e-05,-7e-05,-1e-05,0.00011999999999999999,5
21908,22776,0.0,2e-05,-5e-05,-0.00036,-8e-05,-7e-05,-1e-05,0.00011999999999999999,5
21909,22777,0.0,2e-05,-5e-05,-0.00036,-8e-05,-7e-05,-1e-05,0.00011999999999999999,5
21910,22778,0.0,2e-05,-5e-05,-0.00036,-8e-05,-7e-05,-1e-05,0.00011999999999999999,5
21911,22779,0.0,2e-05,-5e-05,-0.00036,-8e-05,-7e-05,-1e-05,0.00011999999999999999,5
21912,22780,0.0,2e-05,-5e-05,-0.00036,-8e-05,-7e-05,-1e-05,0.00011999999999999999,5
21913,22781,-2.9999999999999997e-05,-4e-05,-0.00014,0.00011,0.00031,0.0,2.9999999999999997e-05,-2.9999999999999997e-05,5
21914,22782,-2.9999999999999997e-05,-4e-05,-0.00014,0.00011,0.00031,0.0,2.9999999999999997e-05,-2.9999999999999997e-05,5
21915,22783,-2.9999999999999997e-05,-4e-05,-0.00014,0.00011,0.00031,0.0,2.9999999999999997e-05,-2.9999999999999997e-05,5
21916,22784,-2.9999999999999997e-05,-4e-05,-0.00014,0.00011,0.00031,0.0,2.9999999999999997e-05,-2.9999999999999997e-05,5
21917,22785,-2.9999999999999997e-05,-4e-05,-0.00014,0.00011,0.00031,0.0,2.9999999999999997e-05,-2.9999999999999997e-05,5
21918,22786,-2.9999999999999997e-05,-4e-05,-0.00014,0.00011,0.00031,0.0,2.9999999999999997e-05,-2.9999999999999997e-05,5
21919,22789,-2.9999999999999997e-05,-4e-05,-0.00014,0.00011,0.00031,0.0,2.9999999999999997e-05,-2.9999999999999997e-05,5
21920,22790,-2.9999999999999997e-05,-4e-05,-0.00014,0.00011,0.00031,0.0,2.9999999999999997e-05,-2.9999999999999997e-05,5
21921,22791,-2.9999999999999997e-05,-4e-05,-0.00014,0.00011,0.00031,0.0,2.9999999999999997e-05,-2.9999999999999997e-05,5
21922,22792,-2.9999999999999997e-05,-4e-05,-0.00014,0.00011,0.00031,0.0,2.9999999999999997e-05,-2.9999999999999997e-05,5
21923,22793,-2.9999999999999997e-05,-4e-05,-0.00014,0.00011,0.00031,0.0,2.9999999999999997e-05,-2.9999999999999997e-05,5
21924,22794,-2.9999999999999997e-05,-4e-05,-0.00014,0.00011,0.00031,0.0,2.9999999999999997e-05,-2.9999999999999997e-05,5
21925,22795,-2.9999999999999997e-05,-4e-05,-0.00014,0.00011,0.00031,0.0,2.9999999999999997e-05,-2.9999999999999997e-05,5
21926,22796,-2.9999999999999997e-05,-4e-05,-0.00014,0.00011,0.00031,0.0,2.9999999999999997e-05,-2.9999999999999997e-05,5
21927,22797,-2.9999999999999997e-05,-4e-05,-0.00014,0.00011,0.00031,0.0,2.9999999999999997e-05,-2.9999999999999997e-05,5
21928,22798,-2.9999999999999997e-05,-4e-05,-0.00014,0.00011,0.00031,0.0,2.9999999999999997e-05,-2.9999999999999997e-05,5
21929,22799,-2.9999999999999997e-05,-4e-05,-0.00014,0.00011,0.00031,0.0,2.9999999999999997e-05,-2.9999999999999997e-05,5
21930,22800,-2.9999999999999997e-05,-4e-05,-0.00014,0.00011,0.00031,0.0,2.9999999999999997e-05,-2.9999999999999997e-05,5
21931,22801,-2.9999999999999997e-05,-4e-05,-0.00014,0.00011,0.00031,0.0,2.9999999999999997e-05,-2.9999999999999997e-05,5
21932,22802,-2.9999999999999997e-05,-4e-05,-0.00014,0.00011,0.00031,0.0,2.9999999999999997e-05,-2.9999999999999997e-05,5
21933,22803,-4e-05,1e-05,2e-05,-0.00014,-0.00065,-5e-05,-4e-05,2.9999999999999997e-05,5
21934,22804,0.0,2.9999999999999997e-05,8e-05,-4e-05,-0.00054,-0.00018,2e-05,5e-05,5
21935,22805,0.0,2.9999999999999997e-05,8e-05,-4e-05,-0.00054,-0.00018,2e-05,5e-05,5
21936,22806,0.0,2.9999999999999997e-05,8e-05,-4e-05,-0.00054,-0.00018,2e-05,5e-05,5
21937,22807,0.0,2.9999999999999997e-05,8e-05,-4e-05,-0.00054,-0.00018,2e-05,5e-05,5
21938,22808,0.0,2.9999999999999997e-05,8e-05,-4e-05,-0.00054,-0.00018,2e-05,5e-05,5
21939,22809,0.0,2.9999999999999997e-05,8e-05,-4e-05,-0.00054,-0.00018,2e-05,5e-05,5
21940,22810,0.0,2.9999999999999997e-05,8e-05,-4e-05,-0.00054,-0.00018,2e-05,5e-05,5
21941,22811,0.0,2.9999999999999997e-05,8e-05,-4e-05,-0.00054,-0.00018,2e-05,5e-05,5
21942,22812,0.0,2.9999999999999997e-05,8e-05,-4e-05,-0.00054,-0.00018,2e-05,5e-05,5
21943,22813,0.0,2.9999999999999997e-05,8e-05,-4e-05,-0.00054,-0.00018,2e-05,5e-05,5
21944,22814,0.0,2.9999999999999997e-05,8e-05,-4e-05,-0.00054,-0.00018,2e-05,5e-05,5
21945,22815,0.0,2.9999999999999997e-05,8e-05,-4e-05,-0.00054,-0.00018,2e-05,5e-05,5
21946,22816,0.0,2.9999999999999997e-05,8e-05,-4e-05,-0.00054,-0.00018,2e-05,5e-05,5
21947,22817,0.0,2.9999999999999997e-05,8e-05,-4e-05,-0.00054,-0.00018,2e-05,5e-05,5
21948,22818,-9e-05,-5e-05,1e-05,2.9999999999999997e-05,-0.00014,-0.00015,-1e-05,-5.9999999999999995e-05,5
21949,22819,-2.9999999999999997e-05,2.9999999999999997e-05,0.00011999999999999999,-0.00028,-0.0005,-0.00014,-2.9999999999999997e-05,0.0,5
21950,22820,2e-05,-1e-05,-4e-05,0.00022999999999999998,-5.9999999999999995e-05,7e-05,-0.0001,-7e-05,5
21951,22821,2e-05,-1e-05,-4e-05,0.00022999999999999998,-5.9999999999999995e-05,7e-05,-0.0001,-7e-05,5
21952,22822,2e-05,-1e-05,-4e-05,0.00022999999999999998,-5.9999999999999995e-05,7e-05,-0.0001,-7e-05,5
21953,22823,2e-05,-1e-05,-4e-05,0.00022999999999999998,-5.9999999999999995e-05,7e-05,-0.0001,-7e-05,5
21954,22824,2e-05,-1e-05,-4e-05,0.00022999999999999998,-5.9999999999999995e-05,7e-05,-0.0001,-7e-05,5
21955,22825,2e-05,-1e-05,-4e-05,0.00022999999999999998,-5.9999999999999995e-05,7e-05,-0.0001,-7e-05,5
21956,22826,2e-05,-1e-05,-4e-05,0.00022999999999999998,-5.9999999999999995e-05,7e-05,-0.0001,-7e-05,5
21957,22827,2e-05,-1e-05,-4e-05,0.00022999999999999998,-5.9999999999999995e-05,7e-05,-0.0001,-7e-05,5
21958,22828,2e-05,-1e-05,-4e-05,0.00022999999999999998,-5.9999999999999995e-05,7e-05,-0.0001,-7e-05,5
21959,22829,2e-05,-1e-05,-4e-05,0.00022999999999999998,-5.9999999999999995e-05,7e-05,-0.0001,-7e-05,5
21960,22830,2e-05,-1e-05,-4e-05,0.00022999999999999998,-5.9999999999999995e-05,7e-05,-0.0001,-7e-05,5
21961,22831,2e-05,-1e-05,-4e-05,0.00022999999999999998,-5.9999999999999995e-05,7e-05,-0.0001,-7e-05,5
21962,22832,2e-05,-1e-05,-4e-05,0.00022999999999999998,-5.9999999999999995e-05,7e-05,-0.0001,-7e-05,5
21963,22833,2e-05,-1e-05,-4e-05,0.00022999999999999998,-5.9999999999999995e-05,7e-05,-0.0001,-7e-05,5
21964,22834,2e-05,-1e-05,-4e-05,0.00022999999999999998,-5.9999999999999995e-05,7e-05,-0.0001,-7e-05,5
21965,22835,2e-05,-1e-05,-4e-05,0.00022999999999999998,-5.9999999999999995e-05,7e-05,-0.0001,-7e-05,5
21966,22836,2e-05,-1e-05,-4e-05,0.00022999999999999998,-5.9999999999999995e-05,7e-05,-0.0001,-7e-05,5
21967,22839,2e-05,-1e-05,-4e-05,0.00022999999999999998,-5.9999999999999995e-05,7e-05,-0.0001,-7e-05,5
21968,22840,2e-05,-1e-05,-4e-05,0.00022999999999999998,-5.9999999999999995e-05,7e-05,-0.0001,-7e-05,5
21969,22841,-2e-05,0.0,0.0,2.9999999999999997e-05,0.00013000000000000002,0.00015,0.0,2.9999999999999997e-05,5
21970,22842,0.0,1e-05,-1e-05,0.0,5e-05,7e-05,2.9999999999999997e-05,4e-05,5
21971,22843,0.0,1e-05,-1e-05,0.0,5e-05,7e-05,2.9999999999999997e-05,4e-05,5
21972,22844,0.0,1e-05,-1e-05,0.0,5e-05,7e-05,2.9999999999999997e-05,4e-05,5
21973,22845,0.0,1e-05,-1e-05,0.0,5e-05,7e-05,2.9999999999999997e-05,4e-05,5
21974,22846,0.0,1e-05,-1e-05,0.0,5e-05,7e-05,2.9999999999999997e-05,4e-05,5
21975,22847,0.0,1e-05,-1e-05,0.0,5e-05,7e-05,2.9999999999999997e-05,4e-05,5
21976,22848,0.0,1e-05,-1e-05,0.0,5e-05,7e-05,2.9999999999999997e-05,4e-05,5
21977,22849,0.0,1e-05,-1e-05,0.0,5e-05,7e-05,2.9999999999999997e-05,4e-05,5
21978,22850,0.0,1e-05,-1e-05,0.0,5e-05,7e-05,2.9999999999999997e-05,4e-05,5
21979,22851,0.0,1e-05,-1e-05,0.0,5e-05,7e-05,2.9999999999999997e-05,4e-05,5
21980,22852,0.0,1e-05,-1e-05,0.0,5e-05,7e-05,2.9999999999999997e-05,4e-05,5
21981,22853,0.0,1e-05,-1e-05,0.0,5e-05,7e-05,2.9999999999999997e-05,4e-05,5
21982,22854,0.0,1e-05,-1e-05,0.0,5e-05,7e-05,2.9999999999999997e-05,4e-05,5
21983,22855,-1e-05,-0.0001,0.0,0.00022999999999999998,0.00059,2e-05,-9e-05,-7e-05,5
21984,22856,2.9999999999999997e-05,2e-05,0.0001,-0.00014,0.00018,-9e-05,5.9999999999999995e-05,2e-05,5
21985,22857,2.9999999999999997e-05,2e-05,0.0001,-0.00014,0.00018,-9e-05,5.9999999999999995e-05,2e-05,5
21986,22858,2.9999999999999997e-05,2e-05,0.0001,-0.00014,0.00018,-9e-05,5.9999999999999995e-05,2e-05,5
21987,22859,2.9999999999999997e-05,2e-05,0.0001,-0.00014,0.00018,-9e-05,5.9999999999999995e-05,2e-05,5
21988,22860,2.9999999999999997e-05,2e-05,0.0001,-0.00014,0.00018,-9e-05,5.9999999999999995e-05,2e-05,5
21989,22861,2.9999999999999997e-05,2e-05,0.0001,-0.00014,0.00018,-9e-05,5.9999999999999995e-05,2e-05,5
21990,22862,2.9999999999999997e-05,2e-05,0.0001,-0.00014,0.00018,-9e-05,5.9999999999999995e-05,2e-05,5
21991,22863,2.9999999999999997e-05,2e-05,0.0001,-0.00014,0.00018,-9e-05,5.9999999999999995e-05,2e-05,5
21992,22864,2.9999999999999997e-05,2e-05,0.0001,-0.00014,0.00018,-9e-05,5.9999999999999995e-05,2e-05,5
21993,22865,2.9999999999999997e-05,2e-05,0.0001,-0.00014,0.00018,-9e-05,5.9999999999999995e-05,2e-05,5
21994,22866,2.9999999999999997e-05,2e-05,0.0001,-0.00014,0.00018,-9e-05,5.9999999999999995e-05,2e-05,5
21995,22867,2.9999999999999997e-05,2e-05,0.0001,-0.00014,0.00018,-9e-05,5.9999999999999995e-05,2e-05,5
21996,22868,2.9999999999999997e-05,2e-05,0.0001,-0.00014,0.00018,-9e-05,5.9999999999999995e-05,2e-05,5
21997,22869,2.9999999999999997e-05,2e-05,0.0001,-0.00014,0.00018,-9e-05,5.9999999999999995e-05,2e-05,5
21998,22870,2.9999999999999997e-05,2e-05,0.0001,-0.00014,0.00018,-9e-05,5.9999999999999995e-05,2e-05,5
21999,22871,2.9999999999999997e-05,2e-05,0.0001,-0.00014,0.00018,-9e-05,5.9999999999999995e-05,2e-05,5
22000,22872,2.9999999999999997e-05,2e-05,0.0001,-0.00014,0.00018,-9e-05,5.9999999999999995e-05,2e-05,5
22001,22873,2.9999999999999997e-05,2e-05,0.0001,-0.00014,0.00018,-9e-05,5.9999999999999995e-05,2e-05,5
22002,22874,2.9999999999999997e-05,2e-05,0.0001,-0.00014,0.00018,-9e-05,5.9999999999999995e-05,2e-05,5
22003,22875,2.9999999999999997e-05,2e-05,0.0001,-0.00014,0.00018,-9e-05,5.9999999999999995e-05,2e-05,5
22004,22876,2.9999999999999997e-05,2e-05,0.0001,-0.00014,0.00018,-9e-05,5.9999999999999995e-05,2e-05,5
22005,22877,2.9999999999999997e-05,2e-05,0.0001,-0.00014,0.00018,-9e-05,5.9999999999999995e-05,2e-05,5
22006,22878,-2e-05,2.9999999999999997e-05,-2e-05,-0.0002,0.00015,5.9999999999999995e-05,4e-05,5.9999999999999995e-05,5
22007,22879,0.0,0.0,-1e-05,-0.00015,8e-05,8e-05,-7e-05,-1e-05,5
22008,22880,0.0,0.0,-1e-05,-0.00015,8e-05,8e-05,-7e-05,-1e-05,5
22009,22881,0.0,0.0,-1e-05,-0.00015,8e-05,8e-05,-7e-05,-1e-05,5
22010,22882,0.0,0.0,-1e-05,-0.00015,8e-05,8e-05,-7e-05,-1e-05,5
22011,22883,0.0,0.0,-1e-05,-0.00015,8e-05,8e-05,-7e-05,-1e-05,5
22012,22884,0.0,0.0,-1e-05,-0.00015,8e-05,8e-05,-7e-05,-1e-05,5
22013,22885,0.0,0.0,-1e-05,-0.00015,8e-05,8e-05,-7e-05,-1e-05,5
22014,22886,0.0,0.0,-1e-05,-0.00015,8e-05,8e-05,-7e-05,-1e-05,5
22015,22889,0.0,0.0,-1e-05,-0.00015,8e-05,8e-05,-7e-05,-1e-05,5
22016,22890,0.0,0.0,-1e-05,-0.00015,8e-05,8e-05,-7e-05,-1e-05,5
22017,22891,0.0,0.0,-1e-05,-0.00015,8e-05,8e-05,-7e-05,-1e-05,5
22018,22892,0.0,0.0,-1e-05,-0.00015,8e-05,8e-05,-7e-05,-1e-05,5
22019,22893,0.0,0.0,-1e-05,-0.00015,8e-05,8e-05,-7e-05,-1e-05,5
22020,22894,0.0,0.0,-1e-05,-0.00015,8e-05,8e-05,-7e-05,-1e-05,5
22021,22895,0.0,0.0,-1e-05,-0.00015,8e-05,8e-05,-7e-05,-1e-05,5
22022,22896,0.0,0.0,-1e-05,-0.00015,8e-05,8e-05,-7e-05,-1e-05,5
22023,22897,0.0,0.0,-1e-05,-0.00015,8e-05,8e-05,-7e-05,-1e-05,5
22024,22898,0.0,0.0,-1e-05,-0.00015,8e-05,8e-05,-7e-05,-1e-05,5
22025,22899,0.0,0.0,-1e-05,-0.00015,8e-05,8e-05,-7e-05,-1e-05,5
22026,22900,0.0,0.0,-1e-05,-0.00015,8e-05,8e-05,-7e-05,-1e-05,5
22027,22901,5.9999999999999995e-05,5e-05,0.00011,-7e-05,0.00021,-8e-05,-1e-05,4e-05,5
22028,22902,5e-05,1e-05,-2e-05,0.00072,7e-05,9e-05,-4e-05,-2e-05,5
22029,22903,5e-05,1e-05,-2e-05,0.00072,7e-05,9e-05,-4e-05,-2e-05,5
22030,22904,5e-05,1e-05,-2e-05,0.00072,7e-05,9e-05,-4e-05,-2e-05,5
22031,22905,5e-05,1e-05,-2e-05,0.00072,7e-05,9e-05,-4e-05,-2e-05,5
22032,22906,5e-05,1e-05,-2e-05,0.00072,7e-05,9e-05,-4e-05,-2e-05,5
22033,22907,5e-05,1e-05,-2e-05,0.00072,7e-05,9e-05,-4e-05,-2e-05,5
22034,22908,5e-05,1e-05,-2e-05,0.00072,7e-05,9e-05,-4e-05,-2e-05,5
22035,22909,5e-05,1e-05,-2e-05,0.00072,7e-05,9e-05,-4e-05,-2e-05,5
22036,22910,5e-05,1e-05,-2e-05,0.00072,7e-05,9e-05,-4e-05,-2e-05,5
22037,22911,5e-05,1e-05,-2e-05,0.00072,7e-05,9e-05,-4e-05,-2e-05,5
22038,22912,5e-05,1e-05,-2e-05,0.00072,7e-05,9e-05,-4e-05,-2e-05,5
22039,22913,5e-05,1e-05,-2e-05,0.00072,7e-05,9e-05,-4e-05,-2e-05,5
22040,22914,5e-05,1e-05,-2e-05,0.00072,7e-05,9e-05,-4e-05,-2e-05,5
22041,22915,-4e-05,-5.9999999999999995e-05,-0.00011,-0.00025,-0.00016,-5.9999999999999995e-05,-8e-05,-2.9999999999999997e-05,5
22042,22916,-8e-05,-0.00011,-0.00013000000000000002,-0.00056,-0.0005099999999999999,-0.00016999999999999999,-8e-05,-5.9999999999999995e-05,5
22043,22917,-8e-05,-0.00011,-0.00013000000000000002,-0.00056,-0.0005099999999999999,-0.00016999999999999999,-8e-05,-5.9999999999999995e-05,5
22044,22918,-8e-05,-0.00011,-0.00013000000000000002,-0.00056,-0.0005099999999999999,-0.00016999999999999999,-8e-05,-5.9999999999999995e-05,5
22045,22919,-8e-05,-0.00011,-0.00013000000000000002,-0.00056,-0.0005099999999999999,-0.00016999999999999999,-8e-05,-5.9999999999999995e-05,5
22046,22920,-8e-05,-0.00011,-0.00013000000000000002,-0.00056,-0.0005099999999999999,-0.00016999999999999999,-8e-05,-5.9999999999999995e-05,5
22047,22921,-8e-05,-0.00011,-0.00013000000000000002,-0.00056,-0.0005099999999999999,-0.00016999999999999999,-8e-05,-5.9999999999999995e-05,5
22048,22922,-8e-05,-0.00011,-0.00013000000000000002,-0.00056,-0.0005099999999999999,-0.00016999999999999999,-8e-05,-5.9999999999999995e-05,5
22049,22923,-8e-05,-0.00011,-0.00013000000000000002,-0.00056,-0.0005099999999999999,-0.00016999999999999999,-8e-05,-5.9999999999999995e-05,5
22050,22924,-8e-05,-0.00011,-0.00013000000000000002,-0.00056,-0.0005099999999999999,-0.00016999999999999999,-8e-05,-5.9999999999999995e-05,5
22051,22925,-8e-05,-0.00011,-0.00013000000000000002,-0.00056,-0.0005099999999999999,-0.00016999999999999999,-8e-05,-5.9999999999999995e-05,5
22052,22926,-8e-05,-0.00011,-0.00013000000000000002,-0.00056,-0.0005099999999999999,-0.00016999999999999999,-8e-05,-5.9999999999999995e-05,5
22053,22927,-8e-05,-0.00011,-0.00013000000000000002,-0.00056,-0.0005099999999999999,-0.00016999999999999999,-8e-05,-5.9999999999999995e-05,5
22054,22928,-8e-05,-0.00011,-0.00013000000000000002,-0.00056,-0.0005099999999999999,-0.00016999999999999999,-8e-05,-5.9999999999999995e-05,5
22055,22929,-8e-05,-0.00011,-0.00013000000000000002,-0.00056,-0.0005099999999999999,-0.00016999999999999999,-8e-05,-5.9999999999999995e-05,5
22056,22930,-8e-05,-0.00011,-0.00013000000000000002,-0.00056,-0.0005099999999999999,-0.00016999999999999999,-8e-05,-5.9999999999999995e-05,5
22057,22931,-8e-05,-0.00011,-0.00013000000000000002,-0.00056,-0.0005099999999999999,-0.00016999999999999999,-8e-05,-5.9999999999999995e-05,5
22058,22932,-8e-05,-0.00011,-0.00013000000000000002,-0.00056,-0.0005099999999999999,-0.00016999999999999999,-8e-05,-5.9999999999999995e-05,5
22059,22933,-8e-05,-0.00011,-0.00013000000000000002,-0.00056,-0.0005099999999999999,-0.00016999999999999999,-8e-05,-5.9999999999999995e-05,5
22060,22934,-8e-05,-0.00011,-0.00013000000000000002,-0.00056,-0.0005099999999999999,-0.00016999999999999999,-8e-05,-5.9999999999999995e-05,5
22061,22935,-8e-05,-0.00011,-0.00013000000000000002,-0.00056,-0.0005099999999999999,-0.00016999999999999999,-8e-05,-5.9999999999999995e-05,5
22062,22936,-8e-05,-0.00011,-0.00013000000000000002,-0.00056,-0.0005099999999999999,-0.00016999999999999999,-8e-05,-5.9999999999999995e-05,5
22063,22939,-0.0001,-7e-05,-0.00015,2e-05,0.00023999999999999998,5.9999999999999995e-05,2e-05,-2e-05,5
22064,22940,-0.0001,-7e-05,-0.00015,2e-05,0.00023999999999999998,5.9999999999999995e-05,2e-05,-2e-05,5
22065,22941,-0.0001,-7e-05,-0.00015,2e-05,0.00023999999999999998,5.9999999999999995e-05,2e-05,-2e-05,5
22066,22942,-0.0001,-7e-05,-0.00015,2e-05,0.00023999999999999998,5.9999999999999995e-05,2e-05,-2e-05,5
22067,22943,-0.0001,-7e-05,-0.00015,2e-05,0.00023999999999999998,5.9999999999999995e-05,2e-05,-2e-05,5
22068,22944,-0.0001,-7e-05,-0.00015,2e-05,0.00023999999999999998,5.9999999999999995e-05,2e-05,-2e-05,5
22069,22945,-0.0001,-7e-05,-0.00015,2e-05,0.00023999999999999998,5.9999999999999995e-05,2e-05,-2e-05,5
22070,22946,-0.0001,-7e-05,-0.00015,2e-05,0.00023999999999999998,5.9999999999999995e-05,2e-05,-2e-05,5
22071,22947,-0.0001,-7e-05,-0.00015,2e-05,0.00023999999999999998,5.9999999999999995e-05,2e-05,-2e-05,5
22072,22948,-0.0001,-7e-05,-0.00015,2e-05,0.00023999999999999998,5.9999999999999995e-05,2e-05,-2e-05,5
22073,22949,-0.0001,-7e-05,-0.00015,2e-05,0.00023999999999999998,5.9999999999999995e-05,2e-05,-2e-05,5
22074,22950,-0.0001,-7e-05,-0.00015,2e-05,0.00023999999999999998,5.9999999999999995e-05,2e-05,-2e-05,5
22075,22951,-0.0001,-7e-05,-0.00015,2e-05,0.00023999999999999998,5.9999999999999995e-05,2e-05,-2e-05,5
22076,22952,-0.0001,-7e-05,-0.00015,2e-05,0.00023999999999999998,5.9999999999999995e-05,2e-05,-2e-05,5
22077,22953,-0.0001,-7e-05,-0.00015,2e-05,0.00023999999999999998,5.9999999999999995e-05,2e-05,-2e-05,5
22078,22954,-0.0001,-7e-05,-0.00015,2e-05,0.00023999999999999998,5.9999999999999995e-05,2e-05,-2e-05,5
22079,22955,-0.0001,-7e-05,-0.00015,2e-05,0.00023999999999999998,5.9999999999999995e-05,2e-05,-2e-05,5
22080,22956,-0.0001,-7e-05,-0.00015,2e-05,0.00023999999999999998,5.9999999999999995e-05,2e-05,-2e-05,5
22081,22957,-0.0001,-7e-05,-0.00015,2e-05,0.00023999999999999998,5.9999999999999995e-05,2e-05,-2e-05,5
22082,22958,-0.0001,-7e-05,-0.00015,2e-05,0.00023999999999999998,5.9999999999999995e-05,2e-05,-2e-05,5
22083,22959,-0.0001,-7e-05,-0.00015,2e-05,0.00023999999999999998,5.9999999999999995e-05,2e-05,-2e-05,5
22084,22960,-0.0001,-7e-05,-0.00015,2e-05,0.00023999999999999998,5.9999999999999995e-05,2e-05,-2e-05,5
22085,22961,2e-05,2.9999999999999997e-05,5.9999999999999995e-05,-0.0002,-9e-05,-1e-05,0.0,1e-05,5
22086,22962,2e-05,2.9999999999999997e-05,5.9999999999999995e-05,-0.0002,-9e-05,-1e-05,0.0,1e-05,5
22087,22963,2e-05,2.9999999999999997e-05,5.9999999999999995e-05,-0.0002,-9e-05,-1e-05,0.0,1e-05,5
22088,22964,2e-05,2.9999999999999997e-05,5.9999999999999995e-05,-0.0002,-9e-05,-1e-05,0.0,1e-05,5
22089,22965,2e-05,2.9999999999999997e-05,5.9999999999999995e-05,-0.0002,-9e-05,-1e-05,0.0,1e-05,5
22090,22966,2e-05,2.9999999999999997e-05,5.9999999999999995e-05,-0.0002,-9e-05,-1e-05,0.0,1e-05,5
22091,22967,2e-05,2.9999999999999997e-05,5.9999999999999995e-05,-0.0002,-9e-05,-1e-05,0.0,1e-05,5
22092,22968,2e-05,2.9999999999999997e-05,5.9999999999999995e-05,-0.0002,-9e-05,-1e-05,0.0,1e-05,5
22093,22969,2e-05,2.9999999999999997e-05,5.9999999999999995e-05,-0.0002,-9e-05,-1e-05,0.0,1e-05,5
22094,22970,2e-05,2.9999999999999997e-05,5.9999999999999995e-05,-0.0002,-9e-05,-1e-05,0.0,1e-05,5
22095,22971,2e-05,2.9999999999999997e-05,5.9999999999999995e-05,-0.0002,-9e-05,-1e-05,0.0,1e-05,5
22096,22972,2e-05,2.9999999999999997e-05,5.9999999999999995e-05,-0.0002,-9e-05,-1e-05,0.0,1e-05,5
22097,22973,2e-05,2.9999999999999997e-05,5.9999999999999995e-05,-0.0002,-9e-05,-1e-05,0.0,1e-05,5
22098,22974,2e-05,2.9999999999999997e-05,5.9999999999999995e-05,-0.0002,-9e-05,-1e-05,0.0,1e-05,5
22099,22975,-1e-05,5e-05,5e-05,0.00016,0.00029,2e-05,2e-05,2e-05,5
22100,22976,-1e-05,5e-05,5e-05,0.00016,0.00029,2e-05,2e-05,2e-05,5
22101,22978,-1e-05,5e-05,5e-05,0.00016,0.00029,2e-05,2e-05,2e-05,5
22102,22979,-1e-05,5e-05,5e-05,0.00016,0.00029,2e-05,2e-05,2e-05,5
22103,22980,-1e-05,5e-05,5e-05,0.00016,0.00029,2e-05,2e-05,2e-05,5
22104,22981,-1e-05,5e-05,5e-05,0.00016,0.00029,2e-05,2e-05,2e-05,5
22105,22982,7e-05,-8e-05,-0.00015,-0.00058,-0.00033,-0.00013000000000000002,-9e-05,-4e-05,5
22106,22983,-9e-05,2.9999999999999997e-05,0.00013000000000000002,0.00015,-2e-05,-2.9999999999999997e-05,1e-05,1e-05,5
22107,22984,-9e-05,2.9999999999999997e-05,0.00013000000000000002,0.00015,-2e-05,-2.9999999999999997e-05,1e-05,1e-05,5
22108,22985,-9e-05,2.9999999999999997e-05,0.00013000000000000002,0.00015,-2e-05,-2.9999999999999997e-05,1e-05,1e-05,5
22109,22986,-9e-05,2.9999999999999997e-05,0.00013000000000000002,0.00015,-2e-05,-2.9999999999999997e-05,1e-05,1e-05,5
22110,22988,-9e-05,2.9999999999999997e-05,0.00013000000000000002,0.00015,-2e-05,-2.9999999999999997e-05,1e-05,1e-05,5
22111,22989,-9e-05,2.9999999999999997e-05,0.00013000000000000002,0.00015,-2e-05,-2.9999999999999997e-05,1e-05,1e-05,5
22112,22990,-9e-05,2.9999999999999997e-05,0.00013000000000000002,0.00015,-2e-05,-2.9999999999999997e-05,1e-05,1e-05,5
22113,22991,-9e-05,2.9999999999999997e-05,0.00013000000000000002,0.00015,-2e-05,-2.9999999999999997e-05,1e-05,1e-05,5
22114,22992,-9e-05,2.9999999999999997e-05,0.00013000000000000002,0.00015,-2e-05,-2.9999999999999997e-05,1e-05,1e-05,5
22115,22993,-9e-05,2.9999999999999997e-05,0.00013000000000000002,0.00015,-2e-05,-2.9999999999999997e-05,1e-05,1e-05,5
22116,22994,-9e-05,2.9999999999999997e-05,0.00013000000000000002,0.00015,-2e-05,-2.9999999999999997e-05,1e-05,1e-05,5
22117,22995,-9e-05,2.9999999999999997e-05,0.00013000000000000002,0.00015,-2e-05,-2.9999999999999997e-05,1e-05,1e-05,5
22118,22996,-9e-05,2.9999999999999997e-05,0.00013000000000000002,0.00015,-2e-05,-2.9999999999999997e-05,1e-05,1e-05,5
22119,22997,-1e-05,-2e-05,1e-05,-5.9999999999999995e-05,-5.9999999999999995e-05,8e-05,2e-05,1e-05,5
22120,22998,-1e-05,-2e-05,1e-05,-5.9999999999999995e-05,-5.9999999999999995e-05,8e-05,2e-05,1e-05,5
22121,22999,-1e-05,-2e-05,1e-05,-5.9999999999999995e-05,-5.9999999999999995e-05,8e-05,2e-05,1e-05,5
22122,23000,-1e-05,-2e-05,1e-05,-5.9999999999999995e-05,-5.9999999999999995e-05,8e-05,2e-05,1e-05,5
22123,23001,-1e-05,-2e-05,1e-05,-5.9999999999999995e-05,-5.9999999999999995e-05,8e-05,2e-05,1e-05,5
22124,23002,-1e-05,-2e-05,1e-05,-5.9999999999999995e-05,-5.9999999999999995e-05,8e-05,2e-05,1e-05,5
22125,23003,-1e-05,-2e-05,1e-05,-5.9999999999999995e-05,-5.9999999999999995e-05,8e-05,2e-05,1e-05,5
22126,23004,-1e-05,-2e-05,1e-05,-5.9999999999999995e-05,-5.9999999999999995e-05,8e-05,2e-05,1e-05,5
22127,23005,-5.9999999999999995e-05,-9e-05,-1e-05,0.00025,0.00036,5.9999999999999995e-05,-2e-05,-5e-05,5
22128,23006,-5.9999999999999995e-05,-9e-05,-1e-05,0.00025,0.00036,5.9999999999999995e-05,-2e-05,-5e-05,5
22129,23007,-5.9999999999999995e-05,-9e-05,-1e-05,0.00025,0.00036,5.9999999999999995e-05,-2e-05,-5e-05,5
22130,23008,-5.9999999999999995e-05,-9e-05,-1e-05,0.00025,0.00036,5.9999999999999995e-05,-2e-05,-5e-05,5
22131,23009,-5.9999999999999995e-05,-9e-05,-1e-05,0.00025,0.00036,5.9999999999999995e-05,-2e-05,-5e-05,5
22132,23010,-5.9999999999999995e-05,-9e-05,-1e-05,0.00025,0.00036,5.9999999999999995e-05,-2e-05,-5e-05,5
22133,23011,-5.9999999999999995e-05,-9e-05,-1e-05,0.00025,0.00036,5.9999999999999995e-05,-2e-05,-5e-05,5
22134,23012,-5.9999999999999995e-05,-9e-05,-1e-05,0.00025,0.00036,5.9999999999999995e-05,-2e-05,-5e-05,5
22135,23013,-5.9999999999999995e-05,-9e-05,-1e-05,0.00025,0.00036,5.9999999999999995e-05,-2e-05,-5e-05,5
22136,23014,-5.9999999999999995e-05,-9e-05,-1e-05,0.00025,0.00036,5.9999999999999995e-05,-2e-05,-5e-05,5
22137,23015,-5.9999999999999995e-05,-9e-05,-1e-05,0.00025,0.00036,5.9999999999999995e-05,-2e-05,-5e-05,5
22138,23016,-5.9999999999999995e-05,-9e-05,-1e-05,0.00025,0.00036,5.9999999999999995e-05,-2e-05,-5e-05,5
22139,23017,-5.9999999999999995e-05,-9e-05,-1e-05,0.00025,0.00036,5.9999999999999995e-05,-2e-05,-5e-05,5
22140,23018,-5.9999999999999995e-05,-9e-05,-1e-05,0.00025,0.00036,5.9999999999999995e-05,-2e-05,-5e-05,5
22141,23019,-5.9999999999999995e-05,-9e-05,-1e-05,0.00025,0.00036,5.9999999999999995e-05,-2e-05,-5e-05,5
22142,23020,-5.9999999999999995e-05,-9e-05,-1e-05,0.00025,0.00036,5.9999999999999995e-05,-2e-05,-5e-05,5
22143,23021,2.9999999999999997e-05,2e-05,2.9999999999999997e-05,0.00022,0.00032,0.00021,8e-05,5e-05,5
22144,23023,2.9999999999999997e-05,2e-05,2.9999999999999997e-05,0.00022,0.00032,0.00021,8e-05,5e-05,5
22145,23024,2.9999999999999997e-05,2e-05,2.9999999999999997e-05,0.00022,0.00032,0.00021,8e-05,5e-05,5
22146,23025,2.9999999999999997e-05,2e-05,2.9999999999999997e-05,0.00022,0.00032,0.00021,8e-05,5e-05,5
22147,23026,2.9999999999999997e-05,2e-05,2.9999999999999997e-05,0.00022,0.00032,0.00021,8e-05,5e-05,5
22148,23027,2.9999999999999997e-05,2e-05,2.9999999999999997e-05,0.00022,0.00032,0.00021,8e-05,5e-05,5
22149,23028,2.9999999999999997e-05,2e-05,2.9999999999999997e-05,0.00022,0.00032,0.00021,8e-05,5e-05,5
22150,23029,2.9999999999999997e-05,2e-05,2.9999999999999997e-05,0.00022,0.00032,0.00021,8e-05,5e-05,5
22151,23030,2.9999999999999997e-05,2e-05,2.9999999999999997e-05,0.00022,0.00032,0.00021,8e-05,5e-05,5
22152,23031,2.9999999999999997e-05,2e-05,2.9999999999999997e-05,0.00022,0.00032,0.00021,8e-05,5e-05,5
22153,23032,2.9999999999999997e-05,2e-05,2.9999999999999997e-05,0.00022,0.00032,0.00021,8e-05,5e-05,5
22154,23033,2.9999999999999997e-05,2e-05,2.9999999999999997e-05,0.00022,0.00032,0.00021,8e-05,5e-05,5
22155,23034,0.0,-5e-05,-2e-05,7e-05,2e-05,-5e-05,-5e-05,-5e-05,5
22156,23035,0.0,-5e-05,-2e-05,7e-05,2e-05,-5e-05,-5e-05,-5e-05,5
22157,23036,0.0,-5e-05,-2e-05,7e-05,2e-05,-5e-05,-5e-05,-5e-05,5
22158,23039,0.0,-5e-05,-2e-05,7e-05,2e-05,-5e-05,-5e-05,-5e-05,5
22159,23040,0.0,-5e-05,-2e-05,7e-05,2e-05,-5e-05,-5e-05,-5e-05,5
22160,23041,0.0,-5e-05,-2e-05,7e-05,2e-05,-5e-05,-5e-05,-5e-05,5
22161,23042,-9e-05,-8e-05,-5e-05,-8e-05,-7e-05,-7e-05,-1e-05,-2e-05,5
22162,23043,5e-05,2.9999999999999997e-05,-2e-05,-0.0003,-0.0005099999999999999,-9e-05,0.0,-0.00018,5
22163,23044,5e-05,2.9999999999999997e-05,-2e-05,-0.0003,-0.0005099999999999999,-9e-05,0.0,-0.00018,5
22164,23045,5e-05,2.9999999999999997e-05,-2e-05,-0.0003,-0.0005099999999999999,-9e-05,0.0,-0.00018,5
22165,23046,5e-05,2.9999999999999997e-05,-2e-05,-0.0003,-0.0005099999999999999,-9e-05,0.0,-0.00018,5
22166,23047,5e-05,2.9999999999999997e-05,-2e-05,-0.0003,-0.0005099999999999999,-9e-05,0.0,-0.00018,5
22167,23048,5e-05,2.9999999999999997e-05,-2e-05,-0.0003,-0.0005099999999999999,-9e-05,0.0,-0.00018,5
22168,23049,5e-05,2.9999999999999997e-05,-2e-05,-0.0003,-0.0005099999999999999,-9e-05,0.0,-0.00018,5
22169,23050,5e-05,2.9999999999999997e-05,-2e-05,-0.0003,-0.0005099999999999999,-9e-05,0.0,-0.00018,5
22170,23051,5e-05,2.9999999999999997e-05,-2e-05,-0.0003,-0.0005099999999999999,-9e-05,0.0,-0.00018,5
22171,23052,5e-05,2.9999999999999997e-05,-2e-05,-0.0003,-0.0005099999999999999,-9e-05,0.0,-0.00018,5
22172,23053,5e-05,2.9999999999999997e-05,-2e-05,-0.0003,-0.0005099999999999999,-9e-05,0.0,-0.00018,5
22173,23054,5e-05,2.9999999999999997e-05,-2e-05,-0.0003,-0.0005099999999999999,-9e-05,0.0,-0.00018,5
22174,23055,5e-05,2.9999999999999997e-05,-2e-05,-0.0003,-0.0005099999999999999,-9e-05,0.0,-0.00018,5
22175,23056,5e-05,2.9999999999999997e-05,-2e-05,-0.0003,-0.0005099999999999999,-9e-05,0.0,-0.00018,5
22176,23057,5e-05,2.9999999999999997e-05,-2e-05,-0.0003,-0.0005099999999999999,-9e-05,0.0,-0.00018,5
22177,23058,-5e-05,1e-05,0.00011,0.00013000000000000002,-5.9999999999999995e-05,-7e-05,1e-05,0.00015,5
22178,23059,5.9999999999999995e-05,4e-05,5.9999999999999995e-05,4e-05,5.9999999999999995e-05,4e-05,-2e-05,-4e-05,5
22179,23060,5.9999999999999995e-05,4e-05,5.9999999999999995e-05,4e-05,5.9999999999999995e-05,4e-05,-2e-05,-4e-05,5
22180,23061,5.9999999999999995e-05,4e-05,5.9999999999999995e-05,4e-05,5.9999999999999995e-05,4e-05,-2e-05,-4e-05,5
22181,23062,5.9999999999999995e-05,4e-05,5.9999999999999995e-05,4e-05,5.9999999999999995e-05,4e-05,-2e-05,-4e-05,5
22182,23063,5.9999999999999995e-05,4e-05,5.9999999999999995e-05,4e-05,5.9999999999999995e-05,4e-05,-2e-05,-4e-05,5
22183,23064,5.9999999999999995e-05,4e-05,5.9999999999999995e-05,4e-05,5.9999999999999995e-05,4e-05,-2e-05,-4e-05,5
22184,23065,5.9999999999999995e-05,4e-05,5.9999999999999995e-05,4e-05,5.9999999999999995e-05,4e-05,-2e-05,-4e-05,5
22185,23066,5.9999999999999995e-05,4e-05,5.9999999999999995e-05,4e-05,5.9999999999999995e-05,4e-05,-2e-05,-4e-05,5
22186,23067,5.9999999999999995e-05,4e-05,5.9999999999999995e-05,4e-05,5.9999999999999995e-05,4e-05,-2e-05,-4e-05,5
22187,23068,5.9999999999999995e-05,4e-05,5.9999999999999995e-05,4e-05,5.9999999999999995e-05,4e-05,-2e-05,-4e-05,5
22188,23069,5.9999999999999995e-05,4e-05,5.9999999999999995e-05,4e-05,5.9999999999999995e-05,4e-05,-2e-05,-4e-05,5
22189,23070,5.9999999999999995e-05,4e-05,5.9999999999999995e-05,4e-05,5.9999999999999995e-05,4e-05,-2e-05,-4e-05,5
22190,23071,5.9999999999999995e-05,4e-05,5.9999999999999995e-05,4e-05,5.9999999999999995e-05,4e-05,-2e-05,-4e-05,5
22191,23072,5.9999999999999995e-05,4e-05,5.9999999999999995e-05,4e-05,5.9999999999999995e-05,4e-05,-2e-05,-4e-05,5
22192,23073,5.9999999999999995e-05,4e-05,5.9999999999999995e-05,4e-05,5.9999999999999995e-05,4e-05,-2e-05,-4e-05,5
22193,23074,5.9999999999999995e-05,4e-05,5.9999999999999995e-05,4e-05,5.9999999999999995e-05,4e-05,-2e-05,-4e-05,5
22194,23075,5.9999999999999995e-05,4e-05,5.9999999999999995e-05,4e-05,5.9999999999999995e-05,4e-05,-2e-05,-4e-05,5
22195,23076,5.9999999999999995e-05,4e-05,5.9999999999999995e-05,4e-05,5.9999999999999995e-05,4e-05,-2e-05,-4e-05,5
22196,23077,5.9999999999999995e-05,4e-05,5.9999999999999995e-05,4e-05,5.9999999999999995e-05,4e-05,-2e-05,-4e-05,5
22197,23078,5.9999999999999995e-05,4e-05,5.9999999999999995e-05,4e-05,5.9999999999999995e-05,4e-05,-2e-05,-4e-05,5
22198,23079,5.9999999999999995e-05,4e-05,5.9999999999999995e-05,4e-05,5.9999999999999995e-05,4e-05,-2e-05,-4e-05,5
22199,23080,5.9999999999999995e-05,4e-05,5.9999999999999995e-05,4e-05,5.9999999999999995e-05,4e-05,-2e-05,-4e-05,5
22200,23081,7e-05,4e-05,0.0002,0.00011999999999999999,-0.00016999999999999999,-2.9999999999999997e-05,1e-05,4e-05,5
22201,23082,-8e-05,-0.0001,-0.00016,9e-05,0.00039,0.0,9e-05,0.0,5
22202,23083,-8e-05,-0.0001,-0.00016,9e-05,0.00039,0.0,9e-05,0.0,5
22203,23084,-8e-05,-0.0001,-0.00016,9e-05,0.00039,0.0,9e-05,0.0,5
22204,23085,-8e-05,-0.0001,-0.00016,9e-05,0.00039,0.0,9e-05,0.0,5
22205,23086,-8e-05,-0.0001,-0.00016,9e-05,0.00039,0.0,9e-05,0.0,5
22206,23088,-8e-05,-0.0001,-0.00016,9e-05,0.00039,0.0,9e-05,0.0,5
22207,23089,-8e-05,-0.0001,-0.00016,9e-05,0.00039,0.0,9e-05,0.0,5
22208,23090,-8e-05,-0.0001,-0.00016,9e-05,0.00039,0.0,9e-05,0.0,5
22209,23091,-8e-05,-0.0001,-0.00016,9e-05,0.00039,0.0,9e-05,0.0,5
22210,23092,-8e-05,-0.0001,-0.00016,9e-05,0.00039,0.0,9e-05,0.0,5
22211,23093,-8e-05,-0.0001,-0.00016,9e-05,0.00039,0.0,9e-05,0.0,5
22212,23094,2e-05,-1e-05,0.0,0.00018999999999999998,0.00037999999999999997,0.0,-5.9999999999999995e-05,1e-05,5
22213,23095,2e-05,-1e-05,0.0,0.00018999999999999998,0.00037999999999999997,0.0,-5.9999999999999995e-05,1e-05,5
22214,23096,2e-05,-1e-05,0.0,0.00018999999999999998,0.00037999999999999997,0.0,-5.9999999999999995e-05,1e-05,5
22215,23097,2e-05,-1e-05,0.0,0.00018999999999999998,0.00037999999999999997,0.0,-5.9999999999999995e-05,1e-05,5
22216,23098,2e-05,-1e-05,0.0,0.00018999999999999998,0.00037999999999999997,0.0,-5.9999999999999995e-05,1e-05,5
22217,23099,2e-05,-1e-05,0.0,0.00018999999999999998,0.00037999999999999997,0.0,-5.9999999999999995e-05,1e-05,5
22218,23100,2e-05,-1e-05,0.0,0.00018999999999999998,0.00037999999999999997,0.0,-5.9999999999999995e-05,1e-05,5
22219,23101,2e-05,-1e-05,0.0,0.00018999999999999998,0.00037999999999999997,0.0,-5.9999999999999995e-05,1e-05,5
22220,23102,2e-05,-1e-05,0.0,0.00018999999999999998,0.00037999999999999997,0.0,-5.9999999999999995e-05,1e-05,5
22221,23103,2.9999999999999997e-05,4e-05,5.9999999999999995e-05,-0.00035,-0.00026000000000000003,-1e-05,-1e-05,5e-05,5
22222,23104,2.9999999999999997e-05,4e-05,5.9999999999999995e-05,-0.00035,-0.00026000000000000003,-1e-05,-1e-05,5e-05,5
22223,23105,2.9999999999999997e-05,4e-05,5.9999999999999995e-05,-0.00035,-0.00026000000000000003,-1e-05,-1e-05,5e-05,5
22224,23106,2.9999999999999997e-05,4e-05,5.9999999999999995e-05,-0.00035,-0.00026000000000000003,-1e-05,-1e-05,5e-05,5
22225,23107,2.9999999999999997e-05,4e-05,5.9999999999999995e-05,-0.00035,-0.00026000000000000003,-1e-05,-1e-05,5e-05,5
22226,23108,2.9999999999999997e-05,4e-05,5.9999999999999995e-05,-0.00035,-0.00026000000000000003,-1e-05,-1e-05,5e-05,5
22227,23109,2.9999999999999997e-05,4e-05,5.9999999999999995e-05,-0.00035,-0.00026000000000000003,-1e-05,-1e-05,5e-05,5
22228,23110,2.9999999999999997e-05,4e-05,5.9999999999999995e-05,-0.00035,-0.00026000000000000003,-1e-05,-1e-05,5e-05,5
22229,23111,2.9999999999999997e-05,4e-05,5.9999999999999995e-05,-0.00035,-0.00026000000000000003,-1e-05,-1e-05,5e-05,5
22230,23112,2.9999999999999997e-05,4e-05,5.9999999999999995e-05,-0.00035,-0.00026000000000000003,-1e-05,-1e-05,5e-05,5
22231,23113,2.9999999999999997e-05,4e-05,5.9999999999999995e-05,-0.00035,-0.00026000000000000003,-1e-05,-1e-05,5e-05,5
22232,23114,2.9999999999999997e-05,4e-05,5.9999999999999995e-05,-0.00035,-0.00026000000000000003,-1e-05,-1e-05,5e-05,5
22233,23115,2.9999999999999997e-05,4e-05,5.9999999999999995e-05,-0.00035,-0.00026000000000000003,-1e-05,-1e-05,5e-05,5
22234,23116,2.9999999999999997e-05,4e-05,5.9999999999999995e-05,-0.00035,-0.00026000000000000003,-1e-05,-1e-05,5e-05,5
22235,23117,2.9999999999999997e-05,4e-05,5.9999999999999995e-05,-0.00035,-0.00026000000000000003,-1e-05,-1e-05,5e-05,5
22236,23118,2.9999999999999997e-05,4e-05,5.9999999999999995e-05,-0.00035,-0.00026000000000000003,-1e-05,-1e-05,5e-05,5
22237,23119,-0.00018999999999999998,-9e-05,5e-05,0.00011999999999999999,0.0006900000000000001,-4e-05,7e-05,-1e-05,5
22238,23120,-4e-05,-1e-05,7e-05,-0.00016,0.0,0.0,-7e-05,4e-05,5
22239,23121,-4e-05,-1e-05,7e-05,-0.00016,0.0,0.0,-7e-05,4e-05,5
22240,23122,-4e-05,-1e-05,7e-05,-0.00016,0.0,0.0,-7e-05,4e-05,5
22241,23123,-4e-05,-1e-05,7e-05,-0.00016,0.0,0.0,-7e-05,4e-05,5
22242,23124,-4e-05,-1e-05,7e-05,-0.00016,0.0,0.0,-7e-05,4e-05,5
22243,23125,-4e-05,-1e-05,7e-05,-0.00016,0.0,0.0,-7e-05,4e-05,5
22244,23126,-4e-05,-1e-05,7e-05,-0.00016,0.0,0.0,-7e-05,4e-05,5
22245,23127,-4e-05,-1e-05,7e-05,-0.00016,0.0,0.0,-7e-05,4e-05,5
22246,23128,-4e-05,-1e-05,7e-05,-0.00016,0.0,0.0,-7e-05,4e-05,5
22247,23129,-4e-05,-1e-05,7e-05,-0.00016,0.0,0.0,-7e-05,4e-05,5
22248,23130,-4e-05,-1e-05,7e-05,-0.00016,0.0,0.0,-7e-05,4e-05,5
22249,23131,-4e-05,-1e-05,7e-05,-0.00016,0.0,0.0,-7e-05,4e-05,5
22250,23132,-4e-05,-1e-05,7e-05,-0.00016,0.0,0.0,-7e-05,4e-05,5
22251,23133,-4e-05,-1e-05,7e-05,-0.00016,0.0,0.0,-7e-05,4e-05,5
22252,23134,-4e-05,-1e-05,7e-05,-0.00016,0.0,0.0,-7e-05,4e-05,5
22253,23135,-4e-05,-1e-05,7e-05,-0.00016,0.0,0.0,-7e-05,4e-05,5
22254,23136,-4e-05,-1e-05,7e-05,-0.00016,0.0,0.0,-7e-05,4e-05,5
22255,23138,-4e-05,-1e-05,7e-05,-0.00016,0.0,0.0,-7e-05,4e-05,5
22256,23139,-4e-05,-1e-05,7e-05,-0.00016,0.0,0.0,-7e-05,4e-05,5
22257,23140,-4e-05,-1e-05,7e-05,-0.00016,0.0,0.0,-7e-05,4e-05,5
22258,23141,4e-05,9e-05,0.00014,0.00014,0.00043,8e-05,5e-05,5e-05,5
22259,23142,1e-05,-1e-05,-2.9999999999999997e-05,-1e-05,-9e-05,-4e-05,-2e-05,2e-05,5
22260,23143,1e-05,-1e-05,-2.9999999999999997e-05,-1e-05,-9e-05,-4e-05,-2e-05,2e-05,5
22261,23144,1e-05,-1e-05,-2.9999999999999997e-05,-1e-05,-9e-05,-4e-05,-2e-05,2e-05,5
22262,23145,1e-05,-1e-05,-2.9999999999999997e-05,-1e-05,-9e-05,-4e-05,-2e-05,2e-05,5
22263,23146,1e-05,-1e-05,-2.9999999999999997e-05,-1e-05,-9e-05,-4e-05,-2e-05,2e-05,5
22264,23147,1e-05,-1e-05,-2.9999999999999997e-05,-1e-05,-9e-05,-4e-05,-2e-05,2e-05,5
22265,23148,1e-05,-1e-05,-2.9999999999999997e-05,-1e-05,-9e-05,-4e-05,-2e-05,2e-05,5
22266,23149,1e-05,-1e-05,-2.9999999999999997e-05,-1e-05,-9e-05,-4e-05,-2e-05,2e-05,5
22267,23150,1e-05,-1e-05,-2.9999999999999997e-05,-1e-05,-9e-05,-4e-05,-2e-05,2e-05,5
22268,23151,1e-05,-1e-05,-2.9999999999999997e-05,-1e-05,-9e-05,-4e-05,-2e-05,2e-05,5
22269,23152,1e-05,-1e-05,-2.9999999999999997e-05,-1e-05,-9e-05,-4e-05,-2e-05,2e-05,5
22270,23153,1e-05,-1e-05,-2.9999999999999997e-05,-1e-05,-9e-05,-4e-05,-2e-05,2e-05,5
22271,23154,-5.9999999999999995e-05,-9e-05,-8e-05,0.00014,5.9999999999999995e-05,-1e-05,-4e-05,-5.9999999999999995e-05,5
22272,23155,-5.9999999999999995e-05,-9e-05,-8e-05,0.00014,5.9999999999999995e-05,-1e-05,-4e-05,-5.9999999999999995e-05,5
22273,23156,-5.9999999999999995e-05,-9e-05,-8e-05,0.00014,5.9999999999999995e-05,-1e-05,-4e-05,-5.9999999999999995e-05,5
22274,23157,-5.9999999999999995e-05,-9e-05,-8e-05,0.00014,5.9999999999999995e-05,-1e-05,-4e-05,-5.9999999999999995e-05,5
22275,23158,-5.9999999999999995e-05,-9e-05,-8e-05,0.00014,5.9999999999999995e-05,-1e-05,-4e-05,-5.9999999999999995e-05,5
22276,23159,-5.9999999999999995e-05,-9e-05,-8e-05,0.00014,5.9999999999999995e-05,-1e-05,-4e-05,-5.9999999999999995e-05,5
22277,23160,-5.9999999999999995e-05,-9e-05,-8e-05,0.00014,5.9999999999999995e-05,-1e-05,-4e-05,-5.9999999999999995e-05,5
22278,23161,-5.9999999999999995e-05,-9e-05,-8e-05,0.00014,5.9999999999999995e-05,-1e-05,-4e-05,-5.9999999999999995e-05,5
22279,23162,-5.9999999999999995e-05,-9e-05,-8e-05,0.00014,5.9999999999999995e-05,-1e-05,-4e-05,-5.9999999999999995e-05,5
22280,23163,5.9999999999999995e-05,5e-05,5.9999999999999995e-05,-0.00033999999999999997,-0.00014,-9e-05,2e-05,2.9999999999999997e-05,5
22281,23165,5.9999999999999995e-05,5e-05,5.9999999999999995e-05,-0.00033999999999999997,-0.00014,-9e-05,2e-05,2.9999999999999997e-05,5
22282,23166,5.9999999999999995e-05,5e-05,5.9999999999999995e-05,-0.00033999999999999997,-0.00014,-9e-05,2e-05,2.9999999999999997e-05,5
22283,23167,5.9999999999999995e-05,5e-05,5.9999999999999995e-05,-0.00033999999999999997,-0.00014,-9e-05,2e-05,2.9999999999999997e-05,5
22284,23168,5.9999999999999995e-05,5e-05,5.9999999999999995e-05,-0.00033999999999999997,-0.00014,-9e-05,2e-05,2.9999999999999997e-05,5
22285,23169,5.9999999999999995e-05,5e-05,5.9999999999999995e-05,-0.00033999999999999997,-0.00014,-9e-05,2e-05,2.9999999999999997e-05,5
22286,23170,5.9999999999999995e-05,5e-05,5.9999999999999995e-05,-0.00033999999999999997,-0.00014,-9e-05,2e-05,2.9999999999999997e-05,5
22287,23171,5.9999999999999995e-05,5e-05,5.9999999999999995e-05,-0.00033999999999999997,-0.00014,-9e-05,2e-05,2.9999999999999997e-05,5
22288,23172,5.9999999999999995e-05,5e-05,5.9999999999999995e-05,-0.00033999999999999997,-0.00014,-9e-05,2e-05,2.9999999999999997e-05,5
22289,23173,5.9999999999999995e-05,5e-05,5.9999999999999995e-05,-0.00033999999999999997,-0.00014,-9e-05,2e-05,2.9999999999999997e-05,5
22290,23174,5.9999999999999995e-05,5e-05,5.9999999999999995e-05,-0.00033999999999999997,-0.00014,-9e-05,2e-05,2.9999999999999997e-05,5
22291,23175,5.9999999999999995e-05,5e-05,5.9999999999999995e-05,-0.00033999999999999997,-0.00014,-9e-05,2e-05,2.9999999999999997e-05,5
22292,23176,5.9999999999999995e-05,5e-05,5.9999999999999995e-05,-0.00033999999999999997,-0.00014,-9e-05,2e-05,2.9999999999999997e-05,5
22293,23177,5.9999999999999995e-05,5e-05,5.9999999999999995e-05,-0.00033999999999999997,-0.00014,-9e-05,2e-05,2.9999999999999997e-05,5
22294,23178,5.9999999999999995e-05,8e-05,0.0001,-0.0005099999999999999,-0.0005,-5e-05,-4e-05,-1e-05,5
22295,23179,-4e-05,-5e-05,-0.00016,-5e-05,0.00026000000000000003,2e-05,-4e-05,-2.9999999999999997e-05,5
22296,23180,-4e-05,-5e-05,-0.00016,-5e-05,0.00026000000000000003,2e-05,-4e-05,-2.9999999999999997e-05,5
22297,23181,-4e-05,-5e-05,-0.00016,-5e-05,0.00026000000000000003,2e-05,-4e-05,-2.9999999999999997e-05,5
22298,23182,-4e-05,-5e-05,-0.00016,-5e-05,0.00026000000000000003,2e-05,-4e-05,-2.9999999999999997e-05,5
22299,23183,-4e-05,-5e-05,-0.00016,-5e-05,0.00026000000000000003,2e-05,-4e-05,-2.9999999999999997e-05,5
22300,23184,-4e-05,-5e-05,-0.00016,-5e-05,0.00026000000000000003,2e-05,-4e-05,-2.9999999999999997e-05,5
22301,23185,-4e-05,-5e-05,-0.00016,-5e-05,0.00026000000000000003,2e-05,-4e-05,-2.9999999999999997e-05,5
22302,23186,-4e-05,-5e-05,-0.00016,-5e-05,0.00026000000000000003,2e-05,-4e-05,-2.9999999999999997e-05,5
22303,23188,-4e-05,-5e-05,-0.00016,-5e-05,0.00026000000000000003,2e-05,-4e-05,-2.9999999999999997e-05,5
22304,23189,-4e-05,-5e-05,-0.00016,-5e-05,0.00026000000000000003,2e-05,-4e-05,-2.9999999999999997e-05,5
22305,23190,-4e-05,-5e-05,-0.00016,-5e-05,0.00026000000000000003,2e-05,-4e-05,-2.9999999999999997e-05,5
22306,23191,-4e-05,-5e-05,-0.00016,-5e-05,0.00026000000000000003,2e-05,-4e-05,-2.9999999999999997e-05,5
22307,23192,-4e-05,-5e-05,-0.00016,-5e-05,0.00026000000000000003,2e-05,-4e-05,-2.9999999999999997e-05,5
22308,23193,-4e-05,-5e-05,-0.00016,-5e-05,0.00026000000000000003,2e-05,-4e-05,-2.9999999999999997e-05,5
22309,23194,-4e-05,-5e-05,-0.00016,-5e-05,0.00026000000000000003,2e-05,-4e-05,-2.9999999999999997e-05,5
22310,23195,-4e-05,-5e-05,-0.00016,-5e-05,0.00026000000000000003,2e-05,-4e-05,-2.9999999999999997e-05,5
22311,23196,-4e-05,-5e-05,-0.00016,-5e-05,0.00026000000000000003,2e-05,-4e-05,-2.9999999999999997e-05,5
22312,23197,-4e-05,-5e-05,-0.00016,-5e-05,0.00026000000000000003,2e-05,-4e-05,-2.9999999999999997e-05,5
22313,23198,-4e-05,-5e-05,-0.00016,-5e-05,0.00026000000000000003,2e-05,-4e-05,-2.9999999999999997e-05,5
22314,23199,-4e-05,-5e-05,-0.00016,-5e-05,0.00026000000000000003,2e-05,-4e-05,-2.9999999999999997e-05,5
22315,23200,-4e-05,-5e-05,-0.00016,-5e-05,0.00026000000000000003,2e-05,-4e-05,-2.9999999999999997e-05,5
22316,23201,2.9999999999999997e-05,-4e-05,-1e-05,-2e-05,-0.00065,-0.00037,2.9999999999999997e-05,2e-05,5
22317,23202,-2.9999999999999997e-05,-2.9999999999999997e-05,-2e-05,0.0,-0.00033999999999999997,-9e-05,-5e-05,-1e-05,5
22318,23203,-2.9999999999999997e-05,-2.9999999999999997e-05,-2e-05,0.0,-0.00033999999999999997,-9e-05,-5e-05,-1e-05,5
22319,23204,-2.9999999999999997e-05,-2.9999999999999997e-05,-2e-05,0.0,-0.00033999999999999997,-9e-05,-5e-05,-1e-05,5
22320,23205,-2.9999999999999997e-05,-2.9999999999999997e-05,-2e-05,0.0,-0.00033999999999999997,-9e-05,-5e-05,-1e-05,5
22321,23206,-2.9999999999999997e-05,-2.9999999999999997e-05,-2e-05,0.0,-0.00033999999999999997,-9e-05,-5e-05,-1e-05,5
22322,23207,-2.9999999999999997e-05,-2.9999999999999997e-05,-2e-05,0.0,-0.00033999999999999997,-9e-05,-5e-05,-1e-05,5
22323,23208,-2.9999999999999997e-05,-2.9999999999999997e-05,-2e-05,0.0,-0.00033999999999999997,-9e-05,-5e-05,-1e-05,5
22324,23209,-2.9999999999999997e-05,-2.9999999999999997e-05,-2e-05,0.0,-0.00033999999999999997,-9e-05,-5e-05,-1e-05,5
22325,23210,-2.9999999999999997e-05,-2.9999999999999997e-05,-2e-05,0.0,-0.00033999999999999997,-9e-05,-5e-05,-1e-05,5
22326,23211,-2.9999999999999997e-05,-2.9999999999999997e-05,-2e-05,0.0,-0.00033999999999999997,-9e-05,-5e-05,-1e-05,5
22327,23212,-2.9999999999999997e-05,-2.9999999999999997e-05,-2e-05,0.0,-0.00033999999999999997,-9e-05,-5e-05,-1e-05,5
22328,23213,-2.9999999999999997e-05,-2.9999999999999997e-05,-2e-05,0.0,-0.00033999999999999997,-9e-05,-5e-05,-1e-05,5
22329,23214,1e-05,-1e-05,-5.9999999999999995e-05,1e-05,-5.9999999999999995e-05,-7e-05,0.0,-2.9999999999999997e-05,5
22330,23215,1e-05,-1e-05,-5.9999999999999995e-05,1e-05,-5.9999999999999995e-05,-7e-05,0.0,-2.9999999999999997e-05,5
22331,23216,1e-05,-1e-05,-5.9999999999999995e-05,1e-05,-5.9999999999999995e-05,-7e-05,0.0,-2.9999999999999997e-05,5
22332,23217,1e-05,-1e-05,-5.9999999999999995e-05,1e-05,-5.9999999999999995e-05,-7e-05,0.0,-2.9999999999999997e-05,5
22333,23218,1e-05,-1e-05,-5.9999999999999995e-05,1e-05,-5.9999999999999995e-05,-7e-05,0.0,-2.9999999999999997e-05,5
22334,23219,1e-05,-1e-05,-5.9999999999999995e-05,1e-05,-5.9999999999999995e-05,-7e-05,0.0,-2.9999999999999997e-05,5
22335,23220,1e-05,-1e-05,-5.9999999999999995e-05,1e-05,-5.9999999999999995e-05,-7e-05,0.0,-2.9999999999999997e-05,5
22336,23221,1e-05,-1e-05,-5.9999999999999995e-05,1e-05,-5.9999999999999995e-05,-7e-05,0.0,-2.9999999999999997e-05,5
22337,23222,1e-05,-1e-05,-5.9999999999999995e-05,1e-05,-5.9999999999999995e-05,-7e-05,0.0,-2.9999999999999997e-05,5
22338,23223,0.0,5.9999999999999995e-05,0.00014,0.00014,0.00023999999999999998,8e-05,2e-05,1e-05,5
22339,23224,0.0,5.9999999999999995e-05,0.00014,0.00014,0.00023999999999999998,8e-05,2e-05,1e-05,5
22340,23225,0.0,5.9999999999999995e-05,0.00014,0.00014,0.00023999999999999998,8e-05,2e-05,1e-05,5
22341,23226,0.0,5.9999999999999995e-05,0.00014,0.00014,0.00023999999999999998,8e-05,2e-05,1e-05,5
22342,23227,0.0,5.9999999999999995e-05,0.00014,0.00014,0.00023999999999999998,8e-05,2e-05,1e-05,5
22343,23228,0.0,5.9999999999999995e-05,0.00014,0.00014,0.00023999999999999998,8e-05,2e-05,1e-05,5
22344,23229,0.0,5.9999999999999995e-05,0.00014,0.00014,0.00023999999999999998,8e-05,2e-05,1e-05,5
22345,23230,0.0,5.9999999999999995e-05,0.00014,0.00014,0.00023999999999999998,8e-05,2e-05,1e-05,5
22346,23231,0.0,5.9999999999999995e-05,0.00014,0.00014,0.00023999999999999998,8e-05,2e-05,1e-05,5
22347,23232,0.0,5.9999999999999995e-05,0.00014,0.00014,0.00023999999999999998,8e-05,2e-05,1e-05,5
22348,23233,0.0,5.9999999999999995e-05,0.00014,0.00014,0.00023999999999999998,8e-05,2e-05,1e-05,5
22349,23234,0.0,5.9999999999999995e-05,0.00014,0.00014,0.00023999999999999998,8e-05,2e-05,1e-05,5
22350,23235,0.0,5.9999999999999995e-05,0.00014,0.00014,0.00023999999999999998,8e-05,2e-05,1e-05,5
22351,23236,0.0,5.9999999999999995e-05,0.00014,0.00014,0.00023999999999999998,8e-05,2e-05,1e-05,5
22352,23239,1e-05,-7e-05,-8e-05,-5e-05,0.00018999999999999998,0.0,-4e-05,-7e-05,5
22353,23240,4e-05,4e-05,7e-05,-0.00018999999999999998,-0.00047000000000000004,-9e-05,-2e-05,2.9999999999999997e-05,5
22354,23241,4e-05,4e-05,7e-05,-0.00018999999999999998,-0.00047000000000000004,-9e-05,-2e-05,2.9999999999999997e-05,5
22355,23242,4e-05,4e-05,7e-05,-0.00018999999999999998,-0.00047000000000000004,-9e-05,-2e-05,2.9999999999999997e-05,5
22356,23243,4e-05,4e-05,7e-05,-0.00018999999999999998,-0.00047000000000000004,-9e-05,-2e-05,2.9999999999999997e-05,5
22357,23244,4e-05,4e-05,7e-05,-0.00018999999999999998,-0.00047000000000000004,-9e-05,-2e-05,2.9999999999999997e-05,5
22358,23245,4e-05,4e-05,7e-05,-0.00018999999999999998,-0.00047000000000000004,-9e-05,-2e-05,2.9999999999999997e-05,5
22359,23246,4e-05,4e-05,7e-05,-0.00018999999999999998,-0.00047000000000000004,-9e-05,-2e-05,2.9999999999999997e-05,5
22360,23247,4e-05,4e-05,7e-05,-0.00018999999999999998,-0.00047000000000000004,-9e-05,-2e-05,2.9999999999999997e-05,5
22361,23248,4e-05,4e-05,7e-05,-0.00018999999999999998,-0.00047000000000000004,-9e-05,-2e-05,2.9999999999999997e-05,5
22362,23249,4e-05,4e-05,7e-05,-0.00018999999999999998,-0.00047000000000000004,-9e-05,-2e-05,2.9999999999999997e-05,5
22363,23250,4e-05,4e-05,7e-05,-0.00018999999999999998,-0.00047000000000000004,-9e-05,-2e-05,2.9999999999999997e-05,5
22364,23251,4e-05,4e-05,7e-05,-0.00018999999999999998,-0.00047000000000000004,-9e-05,-2e-05,2.9999999999999997e-05,5
22365,23252,4e-05,4e-05,7e-05,-0.00018999999999999998,-0.00047000000000000004,-9e-05,-2e-05,2.9999999999999997e-05,5
22366,23253,4e-05,4e-05,7e-05,-0.00018999999999999998,-0.00047000000000000004,-9e-05,-2e-05,2.9999999999999997e-05,5
22367,23254,4e-05,4e-05,7e-05,-0.00018999999999999998,-0.00047000000000000004,-9e-05,-2e-05,2.9999999999999997e-05,5
22368,23255,4e-05,4e-05,7e-05,-0.00018999999999999998,-0.00047000000000000004,-9e-05,-2e-05,2.9999999999999997e-05,5
22369,23256,4e-05,4e-05,7e-05,-0.00018999999999999998,-0.00047000000000000004,-9e-05,-2e-05,2.9999999999999997e-05,5
22370,23257,4e-05,4e-05,7e-05,-0.00018999999999999998,-0.00047000000000000004,-9e-05,-2e-05,2.9999999999999997e-05,5
22371,23258,4e-05,4e-05,7e-05,-0.00018999999999999998,-0.00047000000000000004,-9e-05,-2e-05,2.9999999999999997e-05,5
22372,23259,4e-05,4e-05,7e-05,-0.00018999999999999998,-0.00047000000000000004,-9e-05,-2e-05,2.9999999999999997e-05,5
22373,23260,4e-05,4e-05,7e-05,-0.00018999999999999998,-0.00047000000000000004,-9e-05,-2e-05,2.9999999999999997e-05,5
22374,23261,-5e-05,-2.9999999999999997e-05,-0.0001,-0.00018,-0.00016999999999999999,2.9999999999999997e-05,-4e-05,0.0,5
22375,23262,-1e-05,-5.9999999999999995e-05,0.0,0.0001,9e-05,-4e-05,5.9999999999999995e-05,0.0,5
22376,23263,-1e-05,-5.9999999999999995e-05,0.0,0.0001,9e-05,-4e-05,5.9999999999999995e-05,0.0,5
22377,23264,-1e-05,-5.9999999999999995e-05,0.0,0.0001,9e-05,-4e-05,5.9999999999999995e-05,0.0,5
22378,23265,-1e-05,-5.9999999999999995e-05,0.0,0.0001,9e-05,-4e-05,5.9999999999999995e-05,0.0,5
22379,23266,-1e-05,-5.9999999999999995e-05,0.0,0.0001,9e-05,-4e-05,5.9999999999999995e-05,0.0,5
22380,23267,-1e-05,-5.9999999999999995e-05,0.0,0.0001,9e-05,-4e-05,5.9999999999999995e-05,0.0,5
22381,23268,-1e-05,-5.9999999999999995e-05,0.0,0.0001,9e-05,-4e-05,5.9999999999999995e-05,0.0,5
22382,23269,-1e-05,-5.9999999999999995e-05,0.0,0.0001,9e-05,-4e-05,5.9999999999999995e-05,0.0,5
22383,23270,-1e-05,-5.9999999999999995e-05,0.0,0.0001,9e-05,-4e-05,5.9999999999999995e-05,0.0,5
22384,23271,-1e-05,-5.9999999999999995e-05,0.0,0.0001,9e-05,-4e-05,5.9999999999999995e-05,0.0,5
22385,23272,-1e-05,-5.9999999999999995e-05,0.0,0.0001,9e-05,-4e-05,5.9999999999999995e-05,0.0,5
22386,23273,-1e-05,-5.9999999999999995e-05,0.0,0.0001,9e-05,-4e-05,5.9999999999999995e-05,0.0,5
22387,23274,-1e-05,-5.9999999999999995e-05,0.0,0.0001,9e-05,-4e-05,5.9999999999999995e-05,0.0,5
22388,23275,-1e-05,-5.9999999999999995e-05,0.0,0.0001,9e-05,-4e-05,5.9999999999999995e-05,0.0,5
22389,23276,-1e-05,-5.9999999999999995e-05,0.0,0.0001,9e-05,-4e-05,5.9999999999999995e-05,0.0,5
22390,23277,-1e-05,-5.9999999999999995e-05,0.0,0.0001,9e-05,-4e-05,5.9999999999999995e-05,0.0,5
22391,23278,-1e-05,-5.9999999999999995e-05,0.0,0.0001,9e-05,-4e-05,5.9999999999999995e-05,0.0,5
22392,23279,-1e-05,-5.9999999999999995e-05,0.0,0.0001,9e-05,-4e-05,5.9999999999999995e-05,0.0,5
22393,23280,-1e-05,-5.9999999999999995e-05,0.0,0.0001,9e-05,-4e-05,5.9999999999999995e-05,0.0,5
22394,23281,-1e-05,-5.9999999999999995e-05,0.0,0.0001,9e-05,-4e-05,5.9999999999999995e-05,0.0,5
22395,23282,-1e-05,-5.9999999999999995e-05,0.0,0.0001,9e-05,-4e-05,5.9999999999999995e-05,0.0,5
22396,23283,0.0,2.9999999999999997e-05,5e-05,-0.00035,-0.00037,-1e-05,4e-05,1e-05,5
22397,23284,8e-05,5.9999999999999995e-05,0.0001,0.00016,-1e-05,5.9999999999999995e-05,1e-05,5e-05,5
22398,23285,1e-05,-7e-05,-9e-05,0.00014,8e-05,1e-05,-7e-05,-5e-05,5
22399,23287,-5.9999999999999995e-05,2.9999999999999997e-05,0.0,0.00022,0.00039,0.00018999999999999998,-2.9999999999999997e-05,-1e-05,5
22400,23289,-5.9999999999999995e-05,2.9999999999999997e-05,0.0,0.00022,0.00039,0.00018999999999999998,-2.9999999999999997e-05,-1e-05,5
22401,23290,-5.9999999999999995e-05,2.9999999999999997e-05,0.0,0.00022,0.00039,0.00018999999999999998,-2.9999999999999997e-05,-1e-05,5
22402,23291,-5.9999999999999995e-05,2.9999999999999997e-05,0.0,0.00022,0.00039,0.00018999999999999998,-2.9999999999999997e-05,-1e-05,5
22403,23292,-5.9999999999999995e-05,2.9999999999999997e-05,0.0,0.00022,0.00039,0.00018999999999999998,-2.9999999999999997e-05,-1e-05,5
22404,23293,-5.9999999999999995e-05,2.9999999999999997e-05,0.0,0.00022,0.00039,0.00018999999999999998,-2.9999999999999997e-05,-1e-05,5
22405,23294,-5.9999999999999995e-05,2.9999999999999997e-05,0.0,0.00022,0.00039,0.00018999999999999998,-2.9999999999999997e-05,-1e-05,5
22406,23295,-5.9999999999999995e-05,2.9999999999999997e-05,0.0,0.00022,0.00039,0.00018999999999999998,-2.9999999999999997e-05,-1e-05,5
22407,23296,-5.9999999999999995e-05,2.9999999999999997e-05,0.0,0.00022,0.00039,0.00018999999999999998,-2.9999999999999997e-05,-1e-05,5
22408,23297,-5.9999999999999995e-05,2.9999999999999997e-05,0.0,0.00022,0.00039,0.00018999999999999998,-2.9999999999999997e-05,-1e-05,5
22409,23298,-2.9999999999999997e-05,5.9999999999999995e-05,0.00011999999999999999,0.00021,0.00011,0.00011999999999999999,0.0,2e-05,5
22410,23299,-2.9999999999999997e-05,5.9999999999999995e-05,0.00011999999999999999,0.00021,0.00011,0.00011999999999999999,0.0,2e-05,5
22411,23300,-2.9999999999999997e-05,-7e-05,-0.00011999999999999999,-0.00028,-0.00042,-0.00018999999999999998,-1e-05,-5e-05,5
22412,23301,-2.9999999999999997e-05,-7e-05,-0.00011999999999999999,-0.00028,-0.00042,-0.00018999999999999998,-1e-05,-5e-05,5
22413,23302,-2.9999999999999997e-05,-7e-05,-0.00011999999999999999,-0.00028,-0.00042,-0.00018999999999999998,-1e-05,-5e-05,5
22414,23303,-2.9999999999999997e-05,-7e-05,-0.00011999999999999999,-0.00028,-0.00042,-0.00018999999999999998,-1e-05,-5e-05,5
22415,23304,-2.9999999999999997e-05,-7e-05,-0.00011999999999999999,-0.00028,-0.00042,-0.00018999999999999998,-1e-05,-5e-05,5
22416,23305,-2.9999999999999997e-05,-7e-05,-0.00011999999999999999,-0.00028,-0.00042,-0.00018999999999999998,-1e-05,-5e-05,5
22417,23306,-2.9999999999999997e-05,-7e-05,-0.00011999999999999999,-0.00028,-0.00042,-0.00018999999999999998,-1e-05,-5e-05,5
22418,23307,-2.9999999999999997e-05,-7e-05,-0.00011999999999999999,-0.00028,-0.00042,-0.00018999999999999998,-1e-05,-5e-05,5
22419,23308,-2.9999999999999997e-05,-7e-05,-0.00011999999999999999,-0.00028,-0.00042,-0.00018999999999999998,-1e-05,-5e-05,5
22420,23309,-2.9999999999999997e-05,-7e-05,-0.00011999999999999999,-0.00028,-0.00042,-0.00018999999999999998,-1e-05,-5e-05,5
22421,23310,-2.9999999999999997e-05,-7e-05,-0.00011999999999999999,-0.00028,-0.00042,-0.00018999999999999998,-1e-05,-5e-05,5
22422,23311,-2.9999999999999997e-05,-7e-05,-0.00011999999999999999,-0.00028,-0.00042,-0.00018999999999999998,-1e-05,-5e-05,5
22423,23312,-2.9999999999999997e-05,-7e-05,-0.00011999999999999999,-0.00028,-0.00042,-0.00018999999999999998,-1e-05,-5e-05,5
22424,23313,-2.9999999999999997e-05,-7e-05,-0.00011999999999999999,-0.00028,-0.00042,-0.00018999999999999998,-1e-05,-5e-05,5
22425,23314,-2.9999999999999997e-05,-7e-05,-0.00011999999999999999,-0.00028,-0.00042,-0.00018999999999999998,-1e-05,-5e-05,5
22426,23315,-2.9999999999999997e-05,-7e-05,-0.00011999999999999999,-0.00028,-0.00042,-0.00018999999999999998,-1e-05,-5e-05,5
22427,23316,-2.9999999999999997e-05,-7e-05,-0.00011999999999999999,-0.00028,-0.00042,-0.00018999999999999998,-1e-05,-5e-05,5
22428,23317,-2.9999999999999997e-05,-7e-05,-0.00011999999999999999,-0.00028,-0.00042,-0.00018999999999999998,-1e-05,-5e-05,5
22429,23318,-2.9999999999999997e-05,-7e-05,-0.00011999999999999999,-0.00028,-0.00042,-0.00018999999999999998,-1e-05,-5e-05,5
22430,23319,-2e-05,-2.9999999999999997e-05,-2.9999999999999997e-05,7e-05,0.00022999999999999998,-4e-05,-5e-05,-4e-05,5
22431,23321,1e-05,2e-05,8e-05,0.00047000000000000004,0.00043,7e-05,-5.9999999999999995e-05,-2.9999999999999997e-05,5
22432,23322,1e-05,2e-05,8e-05,0.00047000000000000004,0.00043,7e-05,-5.9999999999999995e-05,-2.9999999999999997e-05,5
22433,23323,-5.9999999999999995e-05,-0.00011999999999999999,-0.0002,-0.00014,-5.9999999999999995e-05,5e-05,-5.9999999999999995e-05,-4e-05,5
22434,23324,-5.9999999999999995e-05,-0.00011999999999999999,-0.0002,-0.00014,-5.9999999999999995e-05,5e-05,-5.9999999999999995e-05,-4e-05,5
22435,23325,-5.9999999999999995e-05,-0.00011999999999999999,-0.0002,-0.00014,-5.9999999999999995e-05,5e-05,-5.9999999999999995e-05,-4e-05,5
22436,23326,-5.9999999999999995e-05,-0.00011999999999999999,-0.0002,-0.00014,-5.9999999999999995e-05,5e-05,-5.9999999999999995e-05,-4e-05,5
22437,23327,-5.9999999999999995e-05,-0.00011999999999999999,-0.0002,-0.00014,-5.9999999999999995e-05,5e-05,-5.9999999999999995e-05,-4e-05,5
22438,23328,-5.9999999999999995e-05,-0.00011999999999999999,-0.0002,-0.00014,-5.9999999999999995e-05,5e-05,-5.9999999999999995e-05,-4e-05,5
