,time,channel1,channel2,channel3,channel4,channel5,channel6,channel7,channel8,class
16140,17052,-4e-05,-8e-05,0.00031,0.0011300000000000001,0.00014,0.00013000000000000002,-7e-05,-2e-05,5
16141,17053,-4e-05,-8e-05,0.00031,0.0011300000000000001,0.00014,0.00013000000000000002,-7e-05,-2e-05,5
16142,17054,-4e-05,-8e-05,0.00031,0.0011300000000000001,0.00014,0.00013000000000000002,-7e-05,-2e-05,5
16143,17055,-4e-05,-8e-05,0.00031,0.0011300000000000001,0.00014,0.00013000000000000002,-7e-05,-2e-05,5
16144,17056,-4e-05,-8e-05,0.00031,0.0011300000000000001,0.00014,0.00013000000000000002,-7e-05,-2e-05,5
16145,17057,-4e-05,-8e-05,0.00031,0.0011300000000000001,0.00014,0.00013000000000000002,-7e-05,-2e-05,5
16146,17058,-4e-05,-8e-05,0.00031,0.0011300000000000001,0.00014,0.00013000000000000002,-7e-05,-2e-05,5
16147,17059,-4e-05,-8e-05,0.00031,0.0011300000000000001,0.00014,0.00013000000000000002,-7e-05,-2e-05,5
16148,17060,0.00023999999999999998,0.00023999999999999998,0.00022999999999999998,0.00067,0.00054,-0.00036,5e-05,8e-05,5
16149,17061,0.00023999999999999998,0.00023999999999999998,0.00022999999999999998,0.00067,0.00054,-0.00036,5e-05,8e-05,5
16150,17062,0.00023999999999999998,0.00023999999999999998,0.00022999999999999998,0.00067,0.00054,-0.00036,5e-05,8e-05,5
16151,17063,0.00023999999999999998,0.00023999999999999998,0.00022999999999999998,0.00067,0.00054,-0.00036,5e-05,8e-05,5
16152,17064,0.00023999999999999998,0.00023999999999999998,0.00022999999999999998,0.00067,0.00054,-0.00036,5e-05,8e-05,5
16153,17065,0.00023999999999999998,0.00023999999999999998,0.00022999999999999998,0.00067,0.00054,-0.00036,5e-05,8e-05,5
16154,17066,0.00023999999999999998,0.00023999999999999998,0.00022999999999999998,0.00067,0.00054,-0.00036,5e-05,8e-05,5
16155,17067,0.00023999999999999998,0.00023999999999999998,0.00022999999999999998,0.00067,0.00054,-0.00036,5e-05,8e-05,5
16156,17068,0.00023999999999999998,0.00023999999999999998,0.00022999999999999998,0.00067,0.00054,-0.00036,5e-05,8e-05,5
16157,17069,0.00023999999999999998,0.00023999999999999998,0.00022999999999999998,0.00067,0.00054,-0.00036,5e-05,8e-05,5
16158,17070,0.00023999999999999998,0.00023999999999999998,0.00022999999999999998,0.00067,0.00054,-0.00036,5e-05,8e-05,5
16159,17071,0.00023999999999999998,0.00023999999999999998,0.00022999999999999998,0.00067,0.00054,-0.00036,5e-05,8e-05,5
16160,17072,0.00023999999999999998,0.00023999999999999998,0.00022999999999999998,0.00067,0.00054,-0.00036,5e-05,8e-05,5
16161,17073,0.00023999999999999998,0.00023999999999999998,0.00022999999999999998,0.00067,0.00054,-0.00036,5e-05,8e-05,5
16162,17074,0.00023999999999999998,0.00023999999999999998,0.00022999999999999998,0.00067,0.00054,-0.00036,5e-05,8e-05,5
16163,17075,0.0008699999999999999,0.00056,0.00029,0.0001,0.00047000000000000004,0.0001,7e-05,0.00018999999999999998,5
16164,17076,0.0008699999999999999,0.00056,0.00029,0.0001,0.00047000000000000004,0.0001,7e-05,0.00018999999999999998,5
16165,17077,0.0001,5e-05,0.00018999999999999998,-0.00018999999999999998,-0.0008900000000000001,4e-05,-2.9999999999999997e-05,2.9999999999999997e-05,5
16166,17078,0.0001,5e-05,0.00018999999999999998,-0.00018999999999999998,-0.0008900000000000001,4e-05,-2.9999999999999997e-05,2.9999999999999997e-05,5
16167,17079,0.0001,5e-05,0.00018999999999999998,-0.00018999999999999998,-0.0008900000000000001,4e-05,-2.9999999999999997e-05,2.9999999999999997e-05,5
16168,17080,0.0001,5e-05,0.00018999999999999998,-0.00018999999999999998,-0.0008900000000000001,4e-05,-2.9999999999999997e-05,2.9999999999999997e-05,5
16169,17081,0.0001,5e-05,0.00018999999999999998,-0.00018999999999999998,-0.0008900000000000001,4e-05,-2.9999999999999997e-05,2.9999999999999997e-05,5
16170,17082,0.0001,5e-05,0.00018999999999999998,-0.00018999999999999998,-0.0008900000000000001,4e-05,-2.9999999999999997e-05,2.9999999999999997e-05,5
16171,17083,0.0001,5e-05,0.00018999999999999998,-0.00018999999999999998,-0.0008900000000000001,4e-05,-2.9999999999999997e-05,2.9999999999999997e-05,5
16172,17084,0.0001,5e-05,0.00018999999999999998,-0.00018999999999999998,-0.0008900000000000001,4e-05,-2.9999999999999997e-05,2.9999999999999997e-05,5
16173,17085,0.0001,5e-05,0.00018999999999999998,-0.00018999999999999998,-0.0008900000000000001,4e-05,-2.9999999999999997e-05,2.9999999999999997e-05,5
16174,17087,0.0001,5e-05,0.00018999999999999998,-0.00018999999999999998,-0.0008900000000000001,4e-05,-2.9999999999999997e-05,2.9999999999999997e-05,5
16175,17089,0.0001,5e-05,0.00018999999999999998,-0.00018999999999999998,-0.0008900000000000001,4e-05,-2.9999999999999997e-05,2.9999999999999997e-05,5
16176,17091,0.0001,5e-05,0.00018999999999999998,-0.00018999999999999998,-0.0008900000000000001,4e-05,-2.9999999999999997e-05,2.9999999999999997e-05,5
16177,17092,0.0001,5e-05,0.00018999999999999998,-0.00018999999999999998,-0.0008900000000000001,4e-05,-2.9999999999999997e-05,2.9999999999999997e-05,5
16178,17093,0.0001,5e-05,0.00018999999999999998,-0.00018999999999999998,-0.0008900000000000001,4e-05,-2.9999999999999997e-05,2.9999999999999997e-05,5
16179,17094,0.0001,5e-05,0.00018999999999999998,-0.00018999999999999998,-0.0008900000000000001,4e-05,-2.9999999999999997e-05,2.9999999999999997e-05,5
16180,17095,0.0001,5e-05,0.00018999999999999998,-0.00018999999999999998,-0.0008900000000000001,4e-05,-2.9999999999999997e-05,2.9999999999999997e-05,5
16181,17096,0.0001,5e-05,0.00018999999999999998,-0.00018999999999999998,-0.0008900000000000001,4e-05,-2.9999999999999997e-05,2.9999999999999997e-05,5
16182,17097,-0.00023999999999999998,-1e-05,0.00035,0.0004,0.00018999999999999998,0.00016999999999999999,2e-05,-5e-05,5
16183,17098,-0.00021,-0.00027,-0.00021,-0.00037999999999999997,-0.00074,-0.00021,-9e-05,-7e-05,5
16184,17099,2.9999999999999997e-05,0.00023999999999999998,-5e-05,-0.00088,-0.0005,0.00016999999999999999,2.9999999999999997e-05,0.00013000000000000002,5
16185,17100,2.9999999999999997e-05,0.00023999999999999998,-5e-05,-0.00088,-0.0005,0.00016999999999999999,2.9999999999999997e-05,0.00013000000000000002,5
16186,17101,2.9999999999999997e-05,0.00023999999999999998,-5e-05,-0.00088,-0.0005,0.00016999999999999999,2.9999999999999997e-05,0.00013000000000000002,5
16187,17102,2.9999999999999997e-05,0.00023999999999999998,-5e-05,-0.00088,-0.0005,0.00016999999999999999,2.9999999999999997e-05,0.00013000000000000002,5
16188,17103,2.9999999999999997e-05,0.00023999999999999998,-5e-05,-0.00088,-0.0005,0.00016999999999999999,2.9999999999999997e-05,0.00013000000000000002,5
16189,17104,2.9999999999999997e-05,0.00023999999999999998,-5e-05,-0.00088,-0.0005,0.00016999999999999999,2.9999999999999997e-05,0.00013000000000000002,5
16190,17105,2.9999999999999997e-05,0.00023999999999999998,-5e-05,-0.00088,-0.0005,0.00016999999999999999,2.9999999999999997e-05,0.00013000000000000002,5
16191,17106,2.9999999999999997e-05,0.00023999999999999998,-5e-05,-0.00088,-0.0005,0.00016999999999999999,2.9999999999999997e-05,0.00013000000000000002,5
16192,17107,2.9999999999999997e-05,0.00023999999999999998,-5e-05,-0.00088,-0.0005,0.00016999999999999999,2.9999999999999997e-05,0.00013000000000000002,5
16193,17108,2.9999999999999997e-05,0.00023999999999999998,-5e-05,-0.00088,-0.0005,0.00016999999999999999,2.9999999999999997e-05,0.00013000000000000002,5
16194,17109,2.9999999999999997e-05,0.00023999999999999998,-5e-05,-0.00088,-0.0005,0.00016999999999999999,2.9999999999999997e-05,0.00013000000000000002,5
16195,17110,2.9999999999999997e-05,0.00023999999999999998,-5e-05,-0.00088,-0.0005,0.00016999999999999999,2.9999999999999997e-05,0.00013000000000000002,5
16196,17111,0.00015,0.00016,0.00018999999999999998,-9e-05,0.00081,-0.00018,5.9999999999999995e-05,2.9999999999999997e-05,5
16197,17112,-0.00036,-0.0005,-0.00047000000000000004,-0.00044,2.9999999999999997e-05,8e-05,-0.0001,-0.00014,5
16198,17113,-0.00036,-0.0005,-0.00047000000000000004,-0.00044,2.9999999999999997e-05,8e-05,-0.0001,-0.00014,5
16199,17114,-0.00036,-0.0005,-0.00047000000000000004,-0.00044,2.9999999999999997e-05,8e-05,-0.0001,-0.00014,5
16200,17115,-0.00036,-0.0005,-0.00047000000000000004,-0.00044,2.9999999999999997e-05,8e-05,-0.0001,-0.00014,5
16201,17116,-0.00036,-0.0005,-0.00047000000000000004,-0.00044,2.9999999999999997e-05,8e-05,-0.0001,-0.00014,5
16202,17117,-0.00036,-0.0005,-0.00047000000000000004,-0.00044,2.9999999999999997e-05,8e-05,-0.0001,-0.00014,5
16203,17118,-0.00036,-0.0005,-0.00047000000000000004,-0.00044,2.9999999999999997e-05,8e-05,-0.0001,-0.00014,5
16204,17119,-0.00036,-0.0005,-0.00047000000000000004,-0.00044,2.9999999999999997e-05,8e-05,-0.0001,-0.00014,5
16205,17120,0.0,0.00018,0.00029,0.00085,0.00043,0.00016999999999999999,0.00016999999999999999,0.0001,5
16206,17121,0.00033999999999999997,0.00045,0.00011999999999999999,0.00022999999999999998,0.00054,0.00026000000000000003,-8e-05,1e-05,5
16207,17122,0.00033999999999999997,0.00045,0.00011999999999999999,0.00022999999999999998,0.00054,0.00026000000000000003,-8e-05,1e-05,5
16208,17123,0.00033999999999999997,0.00045,0.00011999999999999999,0.00022999999999999998,0.00054,0.00026000000000000003,-8e-05,1e-05,5
16209,17124,0.00033999999999999997,0.00045,0.00011999999999999999,0.00022999999999999998,0.00054,0.00026000000000000003,-8e-05,1e-05,5
16210,17125,0.00033999999999999997,0.00045,0.00011999999999999999,0.00022999999999999998,0.00054,0.00026000000000000003,-8e-05,1e-05,5
16211,17126,0.00033999999999999997,0.00045,0.00011999999999999999,0.00022999999999999998,0.00054,0.00026000000000000003,-8e-05,1e-05,5
16212,17127,0.00033999999999999997,0.00045,0.00011999999999999999,0.00022999999999999998,0.00054,0.00026000000000000003,-8e-05,1e-05,5
16213,17128,0.00033999999999999997,0.00045,0.00011999999999999999,0.00022999999999999998,0.00054,0.00026000000000000003,-8e-05,1e-05,5
16214,17129,0.00033999999999999997,0.00045,0.00011999999999999999,0.00022999999999999998,0.00054,0.00026000000000000003,-8e-05,1e-05,5
16215,17130,0.00033999999999999997,0.00045,0.00011999999999999999,0.00022999999999999998,0.00054,0.00026000000000000003,-8e-05,1e-05,5
16216,17131,0.00033999999999999997,0.00045,0.00011999999999999999,0.00022999999999999998,0.00054,0.00026000000000000003,-8e-05,1e-05,5
16217,17132,0.00033999999999999997,0.00045,0.00011999999999999999,0.00022999999999999998,0.00054,0.00026000000000000003,-8e-05,1e-05,5
16218,17133,0.00033999999999999997,0.00045,0.00011999999999999999,0.00022999999999999998,0.00054,0.00026000000000000003,-8e-05,1e-05,5
16219,17134,0.00033999999999999997,0.00045,0.00011999999999999999,0.00022999999999999998,0.00054,0.00026000000000000003,-8e-05,1e-05,5
16220,17135,-0.00044,-0.00036,2e-05,0.00036,0.00011999999999999999,0.00018,8e-05,-7e-05,5
16221,17136,-0.00015,-0.00022999999999999998,-2e-05,-0.00086,-0.00061,-0.00037999999999999997,-0.00026000000000000003,-0.00014,5
16222,17140,-0.00015,-0.00022999999999999998,-2e-05,-0.00086,-0.00061,-0.00037999999999999997,-0.00026000000000000003,-0.00014,5
16223,17141,-0.00015,-0.00022999999999999998,-2e-05,-0.00086,-0.00061,-0.00037999999999999997,-0.00026000000000000003,-0.00014,5
16224,17142,-0.00015,-0.00022999999999999998,-2e-05,-0.00086,-0.00061,-0.00037999999999999997,-0.00026000000000000003,-0.00014,5
16225,17143,-0.00015,-0.00022999999999999998,-2e-05,-0.00086,-0.00061,-0.00037999999999999997,-0.00026000000000000003,-0.00014,5
16226,17144,-0.00015,-0.00022999999999999998,-2e-05,-0.00086,-0.00061,-0.00037999999999999997,-0.00026000000000000003,-0.00014,5
16227,17145,-0.00015,-0.00022999999999999998,-2e-05,-0.00086,-0.00061,-0.00037999999999999997,-0.00026000000000000003,-0.00014,5
16228,17146,-0.00015,-0.00022999999999999998,-2e-05,-0.00086,-0.00061,-0.00037999999999999997,-0.00026000000000000003,-0.00014,5
16229,17147,-0.00015,-0.00022999999999999998,-2e-05,-0.00086,-0.00061,-0.00037999999999999997,-0.00026000000000000003,-0.00014,5
16230,17148,-0.00015,-0.00022999999999999998,-2e-05,-0.00086,-0.00061,-0.00037999999999999997,-0.00026000000000000003,-0.00014,5
16231,17149,-0.00015,-0.00022999999999999998,-2e-05,-0.00086,-0.00061,-0.00037999999999999997,-0.00026000000000000003,-0.00014,5
16232,17150,-0.00015,-0.00022999999999999998,-2e-05,-0.00086,-0.00061,-0.00037999999999999997,-0.00026000000000000003,-0.00014,5
16233,17151,-0.00015,-0.00022999999999999998,-2e-05,-0.00086,-0.00061,-0.00037999999999999997,-0.00026000000000000003,-0.00014,5
16234,17152,-0.00015,-0.00022999999999999998,-2e-05,-0.00086,-0.00061,-0.00037999999999999997,-0.00026000000000000003,-0.00014,5
16235,17153,-0.00015,-0.00022999999999999998,-2e-05,-0.00086,-0.00061,-0.00037999999999999997,-0.00026000000000000003,-0.00014,5
16236,17154,-0.00015,-0.00022999999999999998,-2e-05,-0.00086,-0.00061,-0.00037999999999999997,-0.00026000000000000003,-0.00014,5
16237,17155,-0.00015,-0.00022999999999999998,-2e-05,-0.00086,-0.00061,-0.00037999999999999997,-0.00026000000000000003,-0.00014,5
16238,17156,-0.00015,-0.00022999999999999998,-2e-05,-0.00086,-0.00061,-0.00037999999999999997,-0.00026000000000000003,-0.00014,5
16239,17157,-0.00015,-0.00022999999999999998,-2e-05,-0.00086,-0.00061,-0.00037999999999999997,-0.00026000000000000003,-0.00014,5
16240,17158,-0.0005,-0.00021,-1e-05,-0.00044,-0.00063,5e-05,5e-05,-2.9999999999999997e-05,5
16241,17159,1e-05,0.00011,-0.0001,0.00037,-0.00032,-0.0001,-0.00011,-9e-05,5
16242,17160,1e-05,0.00011,-0.0001,0.00037,-0.00032,-0.0001,-0.00011,-9e-05,5
16243,17161,1e-05,0.00011,-0.0001,0.00037,-0.00032,-0.0001,-0.00011,-9e-05,5
16244,17162,1e-05,0.00011,-0.0001,0.00037,-0.00032,-0.0001,-0.00011,-9e-05,5
16245,17163,1e-05,0.00011,-0.0001,0.00037,-0.00032,-0.0001,-0.00011,-9e-05,5
16246,17164,1e-05,0.00011,-0.0001,0.00037,-0.00032,-0.0001,-0.00011,-9e-05,5
16247,17165,1e-05,0.00011,-0.0001,0.00037,-0.00032,-0.0001,-0.00011,-9e-05,5
16248,17166,1e-05,0.00011,-0.0001,0.00037,-0.00032,-0.0001,-0.00011,-9e-05,5
16249,17167,1e-05,0.00011,-0.0001,0.00037,-0.00032,-0.0001,-0.00011,-9e-05,5
16250,17168,1e-05,0.00011,-0.0001,0.00037,-0.00032,-0.0001,-0.00011,-9e-05,5
16251,17169,1e-05,0.00011,-0.0001,0.00037,-0.00032,-0.0001,-0.00011,-9e-05,5
16252,17170,1e-05,0.00011,-0.0001,0.00037,-0.00032,-0.0001,-0.00011,-9e-05,5
16253,17171,-5.9999999999999995e-05,-5e-05,-0.00022,-0.0011099999999999999,-0.0011,-0.0005,-0.00015,-9e-05,5
16254,17172,-0.00035,2e-05,-0.00018,0.00015,0.00021,-4e-05,-0.00011999999999999999,-2e-05,5
16255,17173,-0.00035,2e-05,-0.00018,0.00015,0.00021,-4e-05,-0.00011999999999999999,-2e-05,5
16256,17174,-0.00035,2e-05,-0.00018,0.00015,0.00021,-4e-05,-0.00011999999999999999,-2e-05,5
16257,17175,-0.00035,2e-05,-0.00018,0.00015,0.00021,-4e-05,-0.00011999999999999999,-2e-05,5
16258,17176,-0.00035,2e-05,-0.00018,0.00015,0.00021,-4e-05,-0.00011999999999999999,-2e-05,5
16259,17177,-0.00035,2e-05,-0.00018,0.00015,0.00021,-4e-05,-0.00011999999999999999,-2e-05,5
16260,17178,-0.00035,2e-05,-0.00018,0.00015,0.00021,-4e-05,-0.00011999999999999999,-2e-05,5
16261,17179,-0.00035,2e-05,-0.00018,0.00015,0.00021,-4e-05,-0.00011999999999999999,-2e-05,5
16262,17180,-2.9999999999999997e-05,-7e-05,-0.00018999999999999998,0.00031,8e-05,-0.00021,0.00011,4e-05,5
16263,17181,-2.9999999999999997e-05,-7e-05,-0.00018999999999999998,0.00031,8e-05,-0.00021,0.00011,4e-05,5
16264,17182,-2.9999999999999997e-05,-7e-05,-0.00018999999999999998,0.00031,8e-05,-0.00021,0.00011,4e-05,5
16265,17183,-2.9999999999999997e-05,-7e-05,-0.00018999999999999998,0.00031,8e-05,-0.00021,0.00011,4e-05,5
16266,17184,-2.9999999999999997e-05,-7e-05,-0.00018999999999999998,0.00031,8e-05,-0.00021,0.00011,4e-05,5
16267,17185,-2.9999999999999997e-05,-7e-05,-0.00018999999999999998,0.00031,8e-05,-0.00021,0.00011,4e-05,5
16268,17186,-2.9999999999999997e-05,-7e-05,-0.00018999999999999998,0.00031,8e-05,-0.00021,0.00011,4e-05,5
16269,17189,-2.9999999999999997e-05,-7e-05,-0.00018999999999999998,0.00031,8e-05,-0.00021,0.00011,4e-05,5
16270,17190,-2.9999999999999997e-05,-7e-05,-0.00018999999999999998,0.00031,8e-05,-0.00021,0.00011,4e-05,5
16271,17191,-2.9999999999999997e-05,-7e-05,-0.00018999999999999998,0.00031,8e-05,-0.00021,0.00011,4e-05,5
16272,17192,-2.9999999999999997e-05,-7e-05,-0.00018999999999999998,0.00031,8e-05,-0.00021,0.00011,4e-05,5
16273,17193,-2.9999999999999997e-05,-7e-05,-0.00018999999999999998,0.00031,8e-05,-0.00021,0.00011,4e-05,5
16274,17194,-2.9999999999999997e-05,-7e-05,-0.00018999999999999998,0.00031,8e-05,-0.00021,0.00011,4e-05,5
16275,17195,0.00027,0.00021,0.00025,0.0008,0.00013000000000000002,0.00022999999999999998,-0.00016,-2e-05,5
16276,17196,0.00027,0.00021,0.00025,0.0008,0.00013000000000000002,0.00022999999999999998,-0.00016,-2e-05,5
16277,17197,-0.00026000000000000003,5e-05,2e-05,-0.00043,0.00059,-4e-05,9e-05,1e-05,5
16278,17198,-0.00026000000000000003,5e-05,2e-05,-0.00043,0.00059,-4e-05,9e-05,1e-05,5
16279,17199,-0.00026000000000000003,5e-05,2e-05,-0.00043,0.00059,-4e-05,9e-05,1e-05,5
16280,17200,-0.00026000000000000003,5e-05,2e-05,-0.00043,0.00059,-4e-05,9e-05,1e-05,5
16281,17201,-0.00026000000000000003,5e-05,2e-05,-0.00043,0.00059,-4e-05,9e-05,1e-05,5
16282,17202,-0.00026000000000000003,5e-05,2e-05,-0.00043,0.00059,-4e-05,9e-05,1e-05,5
16283,17203,-0.00026000000000000003,5e-05,2e-05,-0.00043,0.00059,-4e-05,9e-05,1e-05,5
16284,17204,-0.00026000000000000003,5e-05,2e-05,-0.00043,0.00059,-4e-05,9e-05,1e-05,5
16285,17205,-0.00026000000000000003,5e-05,2e-05,-0.00043,0.00059,-4e-05,9e-05,1e-05,5
16286,17206,-0.00026000000000000003,5e-05,2e-05,-0.00043,0.00059,-4e-05,9e-05,1e-05,5
16287,17207,-0.00026000000000000003,5e-05,2e-05,-0.00043,0.00059,-4e-05,9e-05,1e-05,5
16288,17208,-0.00026000000000000003,5e-05,2e-05,-0.00043,0.00059,-4e-05,9e-05,1e-05,5
16289,17209,-0.00026000000000000003,5e-05,2e-05,-0.00043,0.00059,-4e-05,9e-05,1e-05,5
16290,17210,-0.00026000000000000003,5e-05,2e-05,-0.00043,0.00059,-4e-05,9e-05,1e-05,5
16291,17211,-0.00026000000000000003,5e-05,2e-05,-0.00043,0.00059,-4e-05,9e-05,1e-05,5
16292,17212,-0.00026000000000000003,5e-05,2e-05,-0.00043,0.00059,-4e-05,9e-05,1e-05,5
16293,17213,-0.00026000000000000003,5e-05,2e-05,-0.00043,0.00059,-4e-05,9e-05,1e-05,5
16294,17214,-0.00026000000000000003,5e-05,2e-05,-0.00043,0.00059,-4e-05,9e-05,1e-05,5
16295,17215,-0.00026000000000000003,5e-05,2e-05,-0.00043,0.00059,-4e-05,9e-05,1e-05,5
16296,17216,-0.00026000000000000003,5e-05,2e-05,-0.00043,0.00059,-4e-05,9e-05,1e-05,5
16297,17217,-0.00026000000000000003,5e-05,2e-05,-0.00043,0.00059,-4e-05,9e-05,1e-05,5
16298,17218,9e-05,-0.00011999999999999999,-1e-05,0.00031,0.00015,-0.00011999999999999999,-7e-05,-5e-05,5
16299,17219,0.00016,5e-05,-0.0001,-0.00063,-0.00063,2.9999999999999997e-05,-0.00011999999999999999,-0.00011999999999999999,5
16300,17220,0.00016,5e-05,-0.0001,-0.00063,-0.00063,2.9999999999999997e-05,-0.00011999999999999999,-0.00011999999999999999,5
16301,17221,0.00016,5e-05,-0.0001,-0.00063,-0.00063,2.9999999999999997e-05,-0.00011999999999999999,-0.00011999999999999999,5
16302,17222,0.00016,5e-05,-0.0001,-0.00063,-0.00063,2.9999999999999997e-05,-0.00011999999999999999,-0.00011999999999999999,5
16303,17223,0.00016,5e-05,-0.0001,-0.00063,-0.00063,2.9999999999999997e-05,-0.00011999999999999999,-0.00011999999999999999,5
16304,17225,0.00016,5e-05,-0.0001,-0.00063,-0.00063,2.9999999999999997e-05,-0.00011999999999999999,-0.00011999999999999999,5
16305,17226,0.00016,5e-05,-0.0001,-0.00063,-0.00063,2.9999999999999997e-05,-0.00011999999999999999,-0.00011999999999999999,5
16306,17227,0.00016,5e-05,-0.0001,-0.00063,-0.00063,2.9999999999999997e-05,-0.00011999999999999999,-0.00011999999999999999,5
16307,17228,0.00016,5e-05,-0.0001,-0.00063,-0.00063,2.9999999999999997e-05,-0.00011999999999999999,-0.00011999999999999999,5
16308,17229,0.00016,5e-05,-0.0001,-0.00063,-0.00063,2.9999999999999997e-05,-0.00011999999999999999,-0.00011999999999999999,5
16309,17230,0.00016,5e-05,-0.0001,-0.00063,-0.00063,2.9999999999999997e-05,-0.00011999999999999999,-0.00011999999999999999,5
16310,17231,0.00016,5e-05,-0.0001,-0.00063,-0.00063,2.9999999999999997e-05,-0.00011999999999999999,-0.00011999999999999999,5
16311,17232,0.00028,0.00035,0.00032,0.0007599999999999999,0.00105,0.00018,0.00021,0.00011999999999999999,5
16312,17233,0.00028,0.00035,0.00032,0.0007599999999999999,0.00105,0.00018,0.00021,0.00011999999999999999,5
16313,17234,0.00028,0.00035,0.00032,0.0007599999999999999,0.00105,0.00018,0.00021,0.00011999999999999999,5
16314,17235,0.00028,0.00035,0.00032,0.0007599999999999999,0.00105,0.00018,0.00021,0.00011999999999999999,5
16315,17236,0.00028,0.00035,0.00032,0.0007599999999999999,0.00105,0.00018,0.00021,0.00011999999999999999,5
16316,17240,-5e-05,-0.00013000000000000002,-0.00014,-8e-05,-0.0005099999999999999,-0.00033,-0.00013000000000000002,-5e-05,5
16317,17241,-5e-05,-0.00013000000000000002,-0.00014,-8e-05,-0.0005099999999999999,-0.00033,-0.00013000000000000002,-5e-05,5
16318,17242,-5e-05,-0.00013000000000000002,-0.00014,-8e-05,-0.0005099999999999999,-0.00033,-0.00013000000000000002,-5e-05,5
16319,17243,-5e-05,-0.00013000000000000002,-0.00014,-8e-05,-0.0005099999999999999,-0.00033,-0.00013000000000000002,-5e-05,5
16320,17244,-5e-05,-0.00013000000000000002,-0.00014,-8e-05,-0.0005099999999999999,-0.00033,-0.00013000000000000002,-5e-05,5
16321,17245,-5e-05,-0.00013000000000000002,-0.00014,-8e-05,-0.0005099999999999999,-0.00033,-0.00013000000000000002,-5e-05,5
16322,17246,-5e-05,-0.00013000000000000002,-0.00014,-8e-05,-0.0005099999999999999,-0.00033,-0.00013000000000000002,-5e-05,5
16323,17247,-5e-05,-0.00013000000000000002,-0.00014,-8e-05,-0.0005099999999999999,-0.00033,-0.00013000000000000002,-5e-05,5
16324,17248,-5e-05,-0.00013000000000000002,-0.00014,-8e-05,-0.0005099999999999999,-0.00033,-0.00013000000000000002,-5e-05,5
16325,17249,-5e-05,-0.00013000000000000002,-0.00014,-8e-05,-0.0005099999999999999,-0.00033,-0.00013000000000000002,-5e-05,5
16326,17250,-5e-05,-0.00013000000000000002,-0.00014,-8e-05,-0.0005099999999999999,-0.00033,-0.00013000000000000002,-5e-05,5
16327,17251,-5e-05,-0.00013000000000000002,-0.00014,-8e-05,-0.0005099999999999999,-0.00033,-0.00013000000000000002,-5e-05,5
16328,17252,-5e-05,-0.00013000000000000002,-0.00014,-8e-05,-0.0005099999999999999,-0.00033,-0.00013000000000000002,-5e-05,5
16329,17253,-5e-05,-0.00013000000000000002,-0.00014,-8e-05,-0.0005099999999999999,-0.00033,-0.00013000000000000002,-5e-05,5
16330,17254,-5e-05,-0.00013000000000000002,-0.00014,-8e-05,-0.0005099999999999999,-0.00033,-0.00013000000000000002,-5e-05,5
16331,17255,-5e-05,-8e-05,-0.00011,0.0002,-0.00032,-0.00036,-0.00018999999999999998,-0.00014,5
16332,17256,9e-05,0.00032,0.00015,-0.00045999999999999996,4e-05,0.0002,2.9999999999999997e-05,-1e-05,5
16333,17257,-0.00014,-0.00013000000000000002,-8e-05,-0.00067,-0.00079,0.0001,1e-05,2.9999999999999997e-05,5
16334,17258,-0.00014,-0.00013000000000000002,-8e-05,-0.00067,-0.00079,0.0001,1e-05,2.9999999999999997e-05,5
16335,17259,-0.00014,-0.00013000000000000002,-8e-05,-0.00067,-0.00079,0.0001,1e-05,2.9999999999999997e-05,5
16336,17260,-0.00014,-0.00013000000000000002,-8e-05,-0.00067,-0.00079,0.0001,1e-05,2.9999999999999997e-05,5
16337,17261,-0.00014,-0.00013000000000000002,-8e-05,-0.00067,-0.00079,0.0001,1e-05,2.9999999999999997e-05,5
16338,17262,-0.00014,-0.00013000000000000002,-8e-05,-0.00067,-0.00079,0.0001,1e-05,2.9999999999999997e-05,5
16339,17263,-0.00014,-0.00013000000000000002,-8e-05,-0.00067,-0.00079,0.0001,1e-05,2.9999999999999997e-05,5
16340,17264,-0.00014,-0.00013000000000000002,-8e-05,-0.00067,-0.00079,0.0001,1e-05,2.9999999999999997e-05,5
16341,17265,-0.00014,-0.00013000000000000002,-8e-05,-0.00067,-0.00079,0.0001,1e-05,2.9999999999999997e-05,5
16342,17266,-0.00014,-0.00013000000000000002,-8e-05,-0.00067,-0.00079,0.0001,1e-05,2.9999999999999997e-05,5
16343,17267,-0.00014,-0.00013000000000000002,-8e-05,-0.00067,-0.00079,0.0001,1e-05,2.9999999999999997e-05,5
16344,17268,-0.00014,-0.00013000000000000002,-8e-05,-0.00067,-0.00079,0.0001,1e-05,2.9999999999999997e-05,5
16345,17269,-0.00014,-0.00013000000000000002,-8e-05,-0.00067,-0.00079,0.0001,1e-05,2.9999999999999997e-05,5
16346,17270,-0.00014,-0.00013000000000000002,-8e-05,-0.00067,-0.00079,0.0001,1e-05,2.9999999999999997e-05,5
16347,17271,-0.00014,-0.00013000000000000002,-8e-05,-0.00067,-0.00079,0.0001,1e-05,2.9999999999999997e-05,5
16348,17272,-0.00014,-0.00013000000000000002,-8e-05,-0.00067,-0.00079,0.0001,1e-05,2.9999999999999997e-05,5
16349,17273,-0.00014,-0.00013000000000000002,-8e-05,-0.00067,-0.00079,0.0001,1e-05,2.9999999999999997e-05,5
16350,17274,-0.00014,-0.00013000000000000002,-8e-05,-0.00067,-0.00079,0.0001,1e-05,2.9999999999999997e-05,5
16351,17275,-0.00014,-0.00013000000000000002,-8e-05,-0.00067,-0.00079,0.0001,1e-05,2.9999999999999997e-05,5
16352,17276,-0.00014,-0.00013000000000000002,-8e-05,-0.00067,-0.00079,0.0001,1e-05,2.9999999999999997e-05,5
16353,17277,0.0001,7e-05,-0.00032,-0.00033999999999999997,-0.00031,-0.00015,2.9999999999999997e-05,4e-05,5
16354,17278,0.0001,7e-05,-0.00032,-0.00033999999999999997,-0.00031,-0.00015,2.9999999999999997e-05,4e-05,5
16355,17279,2e-05,-0.00026000000000000003,-0.00021,-0.00036,-0.00027,-5.9999999999999995e-05,-0.00013000000000000002,-7e-05,5
16356,17280,2e-05,-0.00026000000000000003,-0.00021,-0.00036,-0.00027,-5.9999999999999995e-05,-0.00013000000000000002,-7e-05,5
16357,17281,2e-05,-0.00026000000000000003,-0.00021,-0.00036,-0.00027,-5.9999999999999995e-05,-0.00013000000000000002,-7e-05,5
16358,17282,2e-05,-0.00026000000000000003,-0.00021,-0.00036,-0.00027,-5.9999999999999995e-05,-0.00013000000000000002,-7e-05,5
16359,17283,2e-05,-0.00026000000000000003,-0.00021,-0.00036,-0.00027,-5.9999999999999995e-05,-0.00013000000000000002,-7e-05,5
16360,17284,2e-05,-0.00026000000000000003,-0.00021,-0.00036,-0.00027,-5.9999999999999995e-05,-0.00013000000000000002,-7e-05,5
16361,17285,2e-05,-0.00026000000000000003,-0.00021,-0.00036,-0.00027,-5.9999999999999995e-05,-0.00013000000000000002,-7e-05,5
16362,17286,2e-05,-0.00026000000000000003,-0.00021,-0.00036,-0.00027,-5.9999999999999995e-05,-0.00013000000000000002,-7e-05,5
16363,17289,2e-05,-0.00026000000000000003,-0.00021,-0.00036,-0.00027,-5.9999999999999995e-05,-0.00013000000000000002,-7e-05,5
16364,17290,2e-05,-0.00026000000000000003,-0.00021,-0.00036,-0.00027,-5.9999999999999995e-05,-0.00013000000000000002,-7e-05,5
16365,17291,2e-05,-0.00026000000000000003,-0.00021,-0.00036,-0.00027,-5.9999999999999995e-05,-0.00013000000000000002,-7e-05,5
16366,17292,2e-05,-0.00026000000000000003,-0.00021,-0.00036,-0.00027,-5.9999999999999995e-05,-0.00013000000000000002,-7e-05,5
16367,17293,2e-05,-0.00026000000000000003,-0.00021,-0.00036,-0.00027,-5.9999999999999995e-05,-0.00013000000000000002,-7e-05,5
16368,17294,2e-05,-0.00026000000000000003,-0.00021,-0.00036,-0.00027,-5.9999999999999995e-05,-0.00013000000000000002,-7e-05,5
16369,17295,2e-05,-0.00026000000000000003,-0.00021,-0.00036,-0.00027,-5.9999999999999995e-05,-0.00013000000000000002,-7e-05,5
16370,17296,2e-05,-0.00026000000000000003,-0.00021,-0.00036,-0.00027,-5.9999999999999995e-05,-0.00013000000000000002,-7e-05,5
16371,17297,2e-05,-0.00026000000000000003,-0.00021,-0.00036,-0.00027,-5.9999999999999995e-05,-0.00013000000000000002,-7e-05,5
16372,17298,2e-05,-0.00026000000000000003,-0.00021,-0.00036,-0.00027,-5.9999999999999995e-05,-0.00013000000000000002,-7e-05,5
16373,17299,2e-05,-0.00026000000000000003,-0.00021,-0.00036,-0.00027,-5.9999999999999995e-05,-0.00013000000000000002,-7e-05,5
16374,17300,0.00044,0.00036,2e-05,-0.00021,0.00033,0.00018999999999999998,0.00013000000000000002,0.00022999999999999998,5
16375,17301,0.00032,0.00043,0.00021,0.00026000000000000003,-0.00061,0.00011999999999999999,5e-05,8e-05,5
16376,17302,-0.00018,-0.00033,-0.00039,-0.0007,-0.0005200000000000001,-0.00037,-9e-05,-8e-05,5
16377,17303,-0.00018,-0.00033,-0.00039,-0.0007,-0.0005200000000000001,-0.00037,-9e-05,-8e-05,5
16378,17304,-0.00018,-0.00033,-0.00039,-0.0007,-0.0005200000000000001,-0.00037,-9e-05,-8e-05,5
16379,17305,-0.00018,-0.00033,-0.00039,-0.0007,-0.0005200000000000001,-0.00037,-9e-05,-8e-05,5
16380,17306,-0.00018,-0.00033,-0.00039,-0.0007,-0.0005200000000000001,-0.00037,-9e-05,-8e-05,5
16381,17307,-0.00018,-0.00033,-0.00039,-0.0007,-0.0005200000000000001,-0.00037,-9e-05,-8e-05,5
16382,17308,-0.00018,-0.00033,-0.00039,-0.0007,-0.0005200000000000001,-0.00037,-9e-05,-8e-05,5
16383,17309,-0.00018,-0.00033,-0.00039,-0.0007,-0.0005200000000000001,-0.00037,-9e-05,-8e-05,5
16384,17310,-0.00018,-0.00033,-0.00039,-0.0007,-0.0005200000000000001,-0.00037,-9e-05,-8e-05,5
16385,17311,-0.00018,-0.00033,-0.00039,-0.0007,-0.0005200000000000001,-0.00037,-9e-05,-8e-05,5
16386,17312,-0.00018,-0.00033,-0.00039,-0.0007,-0.0005200000000000001,-0.00037,-9e-05,-8e-05,5
16387,17313,-0.00018,-0.00033,-0.00039,-0.0007,-0.0005200000000000001,-0.00037,-9e-05,-8e-05,5
16388,17314,-0.00018,-0.00033,-0.00039,-0.0007,-0.0005200000000000001,-0.00037,-9e-05,-8e-05,5
16389,17315,-0.00016,-5.9999999999999995e-05,-1e-05,-0.0005,-0.00033999999999999997,2e-05,8e-05,1e-05,5
16390,17316,0.00014,0.00011999999999999999,2.9999999999999997e-05,-4e-05,1e-05,-4e-05,-5e-05,1e-05,5
16391,17317,0.0,-9e-05,4e-05,-0.00065,-0.0003,0.00022,0.0001,8e-05,5
16392,17318,0.0,-9e-05,4e-05,-0.00065,-0.0003,0.00022,0.0001,8e-05,5
16393,17319,0.0,-9e-05,4e-05,-0.00065,-0.0003,0.00022,0.0001,8e-05,5
16394,17320,0.0,-9e-05,4e-05,-0.00065,-0.0003,0.00022,0.0001,8e-05,5
16395,17321,0.0,-9e-05,4e-05,-0.00065,-0.0003,0.00022,0.0001,8e-05,5
16396,17322,0.0,-9e-05,4e-05,-0.00065,-0.0003,0.00022,0.0001,8e-05,5
16397,17323,0.0,-9e-05,4e-05,-0.00065,-0.0003,0.00022,0.0001,8e-05,5
16398,17324,0.0,-9e-05,4e-05,-0.00065,-0.0003,0.00022,0.0001,8e-05,5
16399,17325,0.0,-9e-05,4e-05,-0.00065,-0.0003,0.00022,0.0001,8e-05,5
16400,17326,0.0,-9e-05,4e-05,-0.00065,-0.0003,0.00022,0.0001,8e-05,5
16401,17327,0.0,-9e-05,4e-05,-0.00065,-0.0003,0.00022,0.0001,8e-05,5
16402,17328,0.0,-9e-05,4e-05,-0.00065,-0.0003,0.00022,0.0001,8e-05,5
16403,17329,0.0,-9e-05,4e-05,-0.00065,-0.0003,0.00022,0.0001,8e-05,5
16404,17330,0.0,-9e-05,4e-05,-0.00065,-0.0003,0.00022,0.0001,8e-05,5
16405,17331,0.0,-9e-05,4e-05,-0.00065,-0.0003,0.00022,0.0001,8e-05,5
16406,17332,0.0,-9e-05,4e-05,-0.00065,-0.0003,0.00022,0.0001,8e-05,5
16407,17333,0.0,-9e-05,4e-05,-0.00065,-0.0003,0.00022,0.0001,8e-05,5
16408,17334,0.0,-9e-05,4e-05,-0.00065,-0.0003,0.00022,0.0001,8e-05,5
16409,17335,0.0,-9e-05,4e-05,-0.00065,-0.0003,0.00022,0.0001,8e-05,5
16410,17336,0.0,-9e-05,4e-05,-0.00065,-0.0003,0.00022,0.0001,8e-05,5
16411,17339,0.00031,0.00027,0.00037999999999999997,0.00015,0.00066,0.00025,2e-05,9e-05,5
16412,17340,2.9999999999999997e-05,4e-05,0.00021,0.0009,0.00055,0.00037999999999999997,0.00013000000000000002,2e-05,5
16413,17341,2.9999999999999997e-05,4e-05,0.00021,0.0009,0.00055,0.00037999999999999997,0.00013000000000000002,2e-05,5
16414,17342,2.9999999999999997e-05,4e-05,0.00021,0.0009,0.00055,0.00037999999999999997,0.00013000000000000002,2e-05,5
16415,17343,2.9999999999999997e-05,4e-05,0.00021,0.0009,0.00055,0.00037999999999999997,0.00013000000000000002,2e-05,5
16416,17344,2.9999999999999997e-05,4e-05,0.00021,0.0009,0.00055,0.00037999999999999997,0.00013000000000000002,2e-05,5
16417,17345,2.9999999999999997e-05,4e-05,0.00021,0.0009,0.00055,0.00037999999999999997,0.00013000000000000002,2e-05,5
16418,17346,2.9999999999999997e-05,4e-05,0.00021,0.0009,0.00055,0.00037999999999999997,0.00013000000000000002,2e-05,5
16419,17347,2.9999999999999997e-05,4e-05,0.00021,0.0009,0.00055,0.00037999999999999997,0.00013000000000000002,2e-05,5
16420,17348,2.9999999999999997e-05,4e-05,0.00021,0.0009,0.00055,0.00037999999999999997,0.00013000000000000002,2e-05,5
16421,17349,2.9999999999999997e-05,4e-05,0.00021,0.0009,0.00055,0.00037999999999999997,0.00013000000000000002,2e-05,5
16422,17350,2.9999999999999997e-05,4e-05,0.00021,0.0009,0.00055,0.00037999999999999997,0.00013000000000000002,2e-05,5
16423,17351,2.9999999999999997e-05,4e-05,0.00021,0.0009,0.00055,0.00037999999999999997,0.00013000000000000002,2e-05,5
16424,17352,2.9999999999999997e-05,4e-05,0.00021,0.0009,0.00055,0.00037999999999999997,0.00013000000000000002,2e-05,5
16425,17353,2.9999999999999997e-05,4e-05,0.00021,0.0009,0.00055,0.00037999999999999997,0.00013000000000000002,2e-05,5
16426,17354,2.9999999999999997e-05,4e-05,0.00021,0.0009,0.00055,0.00037999999999999997,0.00013000000000000002,2e-05,5
16427,17355,2.9999999999999997e-05,4e-05,0.00021,0.0009,0.00055,0.00037999999999999997,0.00013000000000000002,2e-05,5
16428,17356,2.9999999999999997e-05,4e-05,0.00021,0.0009,0.00055,0.00037999999999999997,0.00013000000000000002,2e-05,5
16429,17357,2.9999999999999997e-05,4e-05,0.00021,0.0009,0.00055,0.00037999999999999997,0.00013000000000000002,2e-05,5
16430,17358,2.9999999999999997e-05,4e-05,0.00021,0.0009,0.00055,0.00037999999999999997,0.00013000000000000002,2e-05,5
16431,17359,2.9999999999999997e-05,4e-05,0.00021,0.0009,0.00055,0.00037999999999999997,0.00013000000000000002,2e-05,5
16432,17360,0.00011,9e-05,0.00011,0.00013000000000000002,-0.00031,-0.00016,-0.0001,-5e-05,5
16433,17361,-2e-05,-1e-05,0.00018999999999999998,0.00081,0.0010400000000000001,0.00036,8e-05,7e-05,5
16434,17362,-0.00027,-0.00013000000000000002,0.00021,0.0009400000000000001,0.0006799999999999999,0.00014,4e-05,-5.9999999999999995e-05,5
16435,17363,-0.00027,-0.00013000000000000002,0.00021,0.0009400000000000001,0.0006799999999999999,0.00014,4e-05,-5.9999999999999995e-05,5
16436,17364,-0.00027,-0.00013000000000000002,0.00021,0.0009400000000000001,0.0006799999999999999,0.00014,4e-05,-5.9999999999999995e-05,5
16437,17365,-0.00027,-0.00013000000000000002,0.00021,0.0009400000000000001,0.0006799999999999999,0.00014,4e-05,-5.9999999999999995e-05,5
16438,17366,-0.00027,-0.00013000000000000002,0.00021,0.0009400000000000001,0.0006799999999999999,0.00014,4e-05,-5.9999999999999995e-05,5
16439,17367,-0.00027,-0.00013000000000000002,0.00021,0.0009400000000000001,0.0006799999999999999,0.00014,4e-05,-5.9999999999999995e-05,5
16440,17368,-0.00027,-0.00013000000000000002,0.00021,0.0009400000000000001,0.0006799999999999999,0.00014,4e-05,-5.9999999999999995e-05,5
16441,17369,-0.00027,-0.00013000000000000002,0.00021,0.0009400000000000001,0.0006799999999999999,0.00014,4e-05,-5.9999999999999995e-05,5
16442,17370,-0.00027,-0.00013000000000000002,0.00021,0.0009400000000000001,0.0006799999999999999,0.00014,4e-05,-5.9999999999999995e-05,5
16443,17372,-0.00027,-0.00013000000000000002,0.00021,0.0009400000000000001,0.0006799999999999999,0.00014,4e-05,-5.9999999999999995e-05,5
16444,17373,-0.00027,-0.00013000000000000002,0.00021,0.0009400000000000001,0.0006799999999999999,0.00014,4e-05,-5.9999999999999995e-05,5
16445,17374,-0.00027,-0.00013000000000000002,0.00021,0.0009400000000000001,0.0006799999999999999,0.00014,4e-05,-5.9999999999999995e-05,5
16446,17375,-7e-05,-0.00018999999999999998,-0.00014,-0.00032,-0.00074,-0.00025,-0.00011999999999999999,-9e-05,5
16447,17376,-7e-05,-0.00018999999999999998,-0.00014,-0.00032,-0.00074,-0.00025,-0.00011999999999999999,-9e-05,5
16448,17377,0.00021,0.00027,0.0003,0.0011099999999999999,0.0010199999999999999,0.00079,5.9999999999999995e-05,9e-05,5
16449,17378,0.00021,0.00027,0.0003,0.0011099999999999999,0.0010199999999999999,0.00079,5.9999999999999995e-05,9e-05,5
16450,17379,0.00021,0.00027,0.0003,0.0011099999999999999,0.0010199999999999999,0.00079,5.9999999999999995e-05,9e-05,5
16451,17380,0.00021,0.00027,0.0003,0.0011099999999999999,0.0010199999999999999,0.00079,5.9999999999999995e-05,9e-05,5
16452,17381,0.00021,0.00027,0.0003,0.0011099999999999999,0.0010199999999999999,0.00079,5.9999999999999995e-05,9e-05,5
16453,17382,0.00021,0.00027,0.0003,0.0011099999999999999,0.0010199999999999999,0.00079,5.9999999999999995e-05,9e-05,5
16454,17383,0.00021,0.00027,0.0003,0.0011099999999999999,0.0010199999999999999,0.00079,5.9999999999999995e-05,9e-05,5
16455,17384,0.00021,0.00027,0.0003,0.0011099999999999999,0.0010199999999999999,0.00079,5.9999999999999995e-05,9e-05,5
16456,17385,0.00021,0.00027,0.0003,0.0011099999999999999,0.0010199999999999999,0.00079,5.9999999999999995e-05,9e-05,5
16457,17386,0.00021,0.00027,0.0003,0.0011099999999999999,0.0010199999999999999,0.00079,5.9999999999999995e-05,9e-05,5
16458,17389,0.00021,0.00027,0.0003,0.0011099999999999999,0.0010199999999999999,0.00079,5.9999999999999995e-05,9e-05,5
16459,17390,0.00021,0.00027,0.0003,0.0011099999999999999,0.0010199999999999999,0.00079,5.9999999999999995e-05,9e-05,5
16460,17391,0.00021,0.00027,0.0003,0.0011099999999999999,0.0010199999999999999,0.00079,5.9999999999999995e-05,9e-05,5
16461,17392,0.00021,0.00027,0.0003,0.0011099999999999999,0.0010199999999999999,0.00079,5.9999999999999995e-05,9e-05,5
16462,17393,0.00021,0.00027,0.0003,0.0011099999999999999,0.0010199999999999999,0.00079,5.9999999999999995e-05,9e-05,5
16463,17394,0.00021,0.00027,0.0003,0.0011099999999999999,0.0010199999999999999,0.00079,5.9999999999999995e-05,9e-05,5
16464,17395,0.00021,0.00027,0.0003,0.0011099999999999999,0.0010199999999999999,0.00079,5.9999999999999995e-05,9e-05,5
16465,17396,0.00021,0.00027,0.0003,0.0011099999999999999,0.0010199999999999999,0.00079,5.9999999999999995e-05,9e-05,5
16466,17397,0.00021,0.00027,0.0003,0.0011099999999999999,0.0010199999999999999,0.00079,5.9999999999999995e-05,9e-05,5
16467,17398,-0.0003,-0.00033,-2.9999999999999997e-05,-0.0001,-0.00014,5e-05,-5.9999999999999995e-05,-9e-05,5
16468,17399,0.00037,0.00025,-8e-05,-0.0004,-0.00037999999999999997,-0.00018999999999999998,-5.9999999999999995e-05,0.0,5
16469,17400,0.00037,0.00025,-8e-05,-0.0004,-0.00037999999999999997,-0.00018999999999999998,-5.9999999999999995e-05,0.0,5
16470,17401,0.00037,0.00025,-8e-05,-0.0004,-0.00037999999999999997,-0.00018999999999999998,-5.9999999999999995e-05,0.0,5
16471,17402,0.00037,0.00025,-8e-05,-0.0004,-0.00037999999999999997,-0.00018999999999999998,-5.9999999999999995e-05,0.0,5
16472,17403,0.00037,0.00025,-8e-05,-0.0004,-0.00037999999999999997,-0.00018999999999999998,-5.9999999999999995e-05,0.0,5
16473,17404,0.00037,0.00025,-8e-05,-0.0004,-0.00037999999999999997,-0.00018999999999999998,-5.9999999999999995e-05,0.0,5
16474,17405,0.00037,0.00025,-8e-05,-0.0004,-0.00037999999999999997,-0.00018999999999999998,-5.9999999999999995e-05,0.0,5
16475,17406,0.00037,0.00025,-8e-05,-0.0004,-0.00037999999999999997,-0.00018999999999999998,-5.9999999999999995e-05,0.0,5
16476,17407,0.00037,0.00025,-8e-05,-0.0004,-0.00037999999999999997,-0.00018999999999999998,-5.9999999999999995e-05,0.0,5
16477,17408,0.00037,0.00025,-8e-05,-0.0004,-0.00037999999999999997,-0.00018999999999999998,-5.9999999999999995e-05,0.0,5
16478,17409,0.00037,0.00025,-8e-05,-0.0004,-0.00037999999999999997,-0.00018999999999999998,-5.9999999999999995e-05,0.0,5
16479,17410,0.00037,0.00025,-8e-05,-0.0004,-0.00037999999999999997,-0.00018999999999999998,-5.9999999999999995e-05,0.0,5
16480,17411,0.00037,0.00025,-8e-05,-0.0004,-0.00037999999999999997,-0.00018999999999999998,-5.9999999999999995e-05,0.0,5
16481,17412,0.00037,0.00025,-8e-05,-0.0004,-0.00037999999999999997,-0.00018999999999999998,-5.9999999999999995e-05,0.0,5
16482,17413,0.00037,0.00025,-8e-05,-0.0004,-0.00037999999999999997,-0.00018999999999999998,-5.9999999999999995e-05,0.0,5
16483,17414,0.00037,0.00025,-8e-05,-0.0004,-0.00037999999999999997,-0.00018999999999999998,-5.9999999999999995e-05,0.0,5
16484,17415,0.00037,0.00025,-8e-05,-0.0004,-0.00037999999999999997,-0.00018999999999999998,-5.9999999999999995e-05,0.0,5
16485,17416,0.00037,0.00025,-8e-05,-0.0004,-0.00037999999999999997,-0.00018999999999999998,-5.9999999999999995e-05,0.0,5
16486,17417,0.00037,0.00025,-8e-05,-0.0004,-0.00037999999999999997,-0.00018999999999999998,-5.9999999999999995e-05,0.0,5
16487,17418,0.00037,0.00025,-8e-05,-0.0004,-0.00037999999999999997,-0.00018999999999999998,-5.9999999999999995e-05,0.0,5
16488,17419,0.00037,0.00025,-8e-05,-0.0004,-0.00037999999999999997,-0.00018999999999999998,-5.9999999999999995e-05,0.0,5
16489,17420,-5e-05,0.00011999999999999999,0.00016,0.0007099999999999999,0.00074,0.0,5e-05,1e-05,5
16490,17422,-0.0001,-0.00011999999999999999,-0.0001,-7e-05,2e-05,-2.9999999999999997e-05,5.9999999999999995e-05,1e-05,5
16491,17423,-0.00016,-0.00022,-0.00014,-2e-05,2.9999999999999997e-05,-0.00018999999999999998,0.0,-2e-05,5
16492,17424,-0.00016,-0.00022,-0.00014,-2e-05,2.9999999999999997e-05,-0.00018999999999999998,0.0,-2e-05,5
16493,17425,-0.00016,-0.00022,-0.00014,-2e-05,2.9999999999999997e-05,-0.00018999999999999998,0.0,-2e-05,5
16494,17426,-0.00016,-0.00022,-0.00014,-2e-05,2.9999999999999997e-05,-0.00018999999999999998,0.0,-2e-05,5
16495,17427,-0.00016,-0.00022,-0.00014,-2e-05,2.9999999999999997e-05,-0.00018999999999999998,0.0,-2e-05,5
16496,17428,-0.00016,-0.00022,-0.00014,-2e-05,2.9999999999999997e-05,-0.00018999999999999998,0.0,-2e-05,5
16497,17429,-0.00016,-0.00022,-0.00014,-2e-05,2.9999999999999997e-05,-0.00018999999999999998,0.0,-2e-05,5
16498,17430,-0.00016,-0.00022,-0.00014,-2e-05,2.9999999999999997e-05,-0.00018999999999999998,0.0,-2e-05,5
16499,17431,-0.00016,-0.00022,-0.00014,-2e-05,2.9999999999999997e-05,-0.00018999999999999998,0.0,-2e-05,5
16500,17432,-0.00016,-0.00022,-0.00014,-2e-05,2.9999999999999997e-05,-0.00018999999999999998,0.0,-2e-05,5
16501,17433,-0.00016,-0.00022,-0.00014,-2e-05,2.9999999999999997e-05,-0.00018999999999999998,0.0,-2e-05,5
16502,17434,-0.00016,-0.00022,-0.00014,-2e-05,2.9999999999999997e-05,-0.00018999999999999998,0.0,-2e-05,5
16503,17435,-5.9999999999999995e-05,-0.00029,-0.00045,-0.0010199999999999999,-0.00091,-0.00025,-0.00011,-0.00011,5
16504,17436,-5.9999999999999995e-05,-0.00029,-0.00045,-0.0010199999999999999,-0.00091,-0.00025,-0.00011,-0.00011,5
16505,17439,0.00026000000000000003,0.00027,-0.00013000000000000002,-0.00033,-4e-05,-0.00018999999999999998,-2.9999999999999997e-05,5e-05,5
16506,17440,0.00026000000000000003,0.00027,-0.00013000000000000002,-0.00033,-4e-05,-0.00018999999999999998,-2.9999999999999997e-05,5e-05,5
16507,17441,0.00026000000000000003,0.00027,-0.00013000000000000002,-0.00033,-4e-05,-0.00018999999999999998,-2.9999999999999997e-05,5e-05,5
16508,17442,0.00026000000000000003,0.00027,-0.00013000000000000002,-0.00033,-4e-05,-0.00018999999999999998,-2.9999999999999997e-05,5e-05,5
16509,17443,0.00026000000000000003,0.00027,-0.00013000000000000002,-0.00033,-4e-05,-0.00018999999999999998,-2.9999999999999997e-05,5e-05,5
16510,17444,0.00026000000000000003,0.00027,-0.00013000000000000002,-0.00033,-4e-05,-0.00018999999999999998,-2.9999999999999997e-05,5e-05,5
16511,17445,0.00026000000000000003,0.00027,-0.00013000000000000002,-0.00033,-4e-05,-0.00018999999999999998,-2.9999999999999997e-05,5e-05,5
16512,17446,0.00026000000000000003,0.00027,-0.00013000000000000002,-0.00033,-4e-05,-0.00018999999999999998,-2.9999999999999997e-05,5e-05,5
16513,17447,0.00026000000000000003,0.00027,-0.00013000000000000002,-0.00033,-4e-05,-0.00018999999999999998,-2.9999999999999997e-05,5e-05,5
16514,17448,0.00026000000000000003,0.00027,-0.00013000000000000002,-0.00033,-4e-05,-0.00018999999999999998,-2.9999999999999997e-05,5e-05,5
16515,17449,0.00026000000000000003,0.00027,-0.00013000000000000002,-0.00033,-4e-05,-0.00018999999999999998,-2.9999999999999997e-05,5e-05,5
16516,17450,0.00026000000000000003,0.00027,-0.00013000000000000002,-0.00033,-4e-05,-0.00018999999999999998,-2.9999999999999997e-05,5e-05,5
16517,17451,0.00026000000000000003,0.00027,-0.00013000000000000002,-0.00033,-4e-05,-0.00018999999999999998,-2.9999999999999997e-05,5e-05,5
16518,17452,0.00026000000000000003,0.00027,-0.00013000000000000002,-0.00033,-4e-05,-0.00018999999999999998,-2.9999999999999997e-05,5e-05,5
16519,17453,0.00026000000000000003,0.00027,-0.00013000000000000002,-0.00033,-4e-05,-0.00018999999999999998,-2.9999999999999997e-05,5e-05,5
16520,17454,0.00026000000000000003,0.00027,-0.00013000000000000002,-0.00033,-4e-05,-0.00018999999999999998,-2.9999999999999997e-05,5e-05,5
16521,17455,0.00026000000000000003,0.00027,-0.00013000000000000002,-0.00033,-4e-05,-0.00018999999999999998,-2.9999999999999997e-05,5e-05,5
16522,17456,0.00026000000000000003,0.00027,-0.00013000000000000002,-0.00033,-4e-05,-0.00018999999999999998,-2.9999999999999997e-05,5e-05,5
16523,17457,0.00026000000000000003,0.00027,-0.00013000000000000002,-0.00033,-4e-05,-0.00018999999999999998,-2.9999999999999997e-05,5e-05,5
16524,17458,-0.0005099999999999999,-0.0003,5.9999999999999995e-05,0.00029,-0.00022,-0.00018,-0.00011,-9e-05,5
16525,17459,-0.00016,-0.00029,-0.00011999999999999999,-0.00018999999999999998,-0.00029,-7e-05,-5e-05,-8e-05,5
16526,17460,-0.00016,-0.00029,-0.00011999999999999999,-0.00018999999999999998,-0.00029,-7e-05,-5e-05,-8e-05,5
16527,17461,-0.00016,-0.00029,-0.00011999999999999999,-0.00018999999999999998,-0.00029,-7e-05,-5e-05,-8e-05,5
16528,17462,-0.00016,-0.00029,-0.00011999999999999999,-0.00018999999999999998,-0.00029,-7e-05,-5e-05,-8e-05,5
16529,17463,-0.00016,-0.00029,-0.00011999999999999999,-0.00018999999999999998,-0.00029,-7e-05,-5e-05,-8e-05,5
16530,17464,-0.00016,-0.00029,-0.00011999999999999999,-0.00018999999999999998,-0.00029,-7e-05,-5e-05,-8e-05,5
16531,17465,-0.00016,-0.00029,-0.00011999999999999999,-0.00018999999999999998,-0.00029,-7e-05,-5e-05,-8e-05,5
16532,17466,-0.00016,-0.00029,-0.00011999999999999999,-0.00018999999999999998,-0.00029,-7e-05,-5e-05,-8e-05,5
16533,17467,-0.00016,-0.00029,-0.00011999999999999999,-0.00018999999999999998,-0.00029,-7e-05,-5e-05,-8e-05,5
16534,17468,-0.00016,-0.00029,-0.00011999999999999999,-0.00018999999999999998,-0.00029,-7e-05,-5e-05,-8e-05,5
16535,17469,-0.00016,-0.00029,-0.00011999999999999999,-0.00018999999999999998,-0.00029,-7e-05,-5e-05,-8e-05,5
16536,17470,-0.00016,-0.00029,-0.00011999999999999999,-0.00018999999999999998,-0.00029,-7e-05,-5e-05,-8e-05,5
16537,17471,-0.00016,-0.00029,-0.00011999999999999999,-0.00018999999999999998,-0.00029,-7e-05,-5e-05,-8e-05,5
16538,17472,-0.00016,-0.00029,-0.00011999999999999999,-0.00018999999999999998,-0.00029,-7e-05,-5e-05,-8e-05,5
16539,17473,-0.00016,-0.00029,-0.00011999999999999999,-0.00018999999999999998,-0.00029,-7e-05,-5e-05,-8e-05,5
16540,17474,-0.00016,-0.00029,-0.00011999999999999999,-0.00018999999999999998,-0.00029,-7e-05,-5e-05,-8e-05,5
16541,17475,-0.00016,-0.00029,-0.00011999999999999999,-0.00018999999999999998,-0.00029,-7e-05,-5e-05,-8e-05,5
16542,17476,-0.00016,-0.00029,-0.00011999999999999999,-0.00018999999999999998,-0.00029,-7e-05,-5e-05,-8e-05,5
16543,17477,-0.00016,-0.00029,-0.00011999999999999999,-0.00018999999999999998,-0.00029,-7e-05,-5e-05,-8e-05,5
16544,17478,-0.00016,-0.00029,-0.00011999999999999999,-0.00018999999999999998,-0.00029,-7e-05,-5e-05,-8e-05,5
16545,17479,-0.00016,-0.00029,-0.00011999999999999999,-0.00018999999999999998,-0.00029,-7e-05,-5e-05,-8e-05,5
16546,17480,5e-05,0.00033999999999999997,0.00021,2e-05,0.0001,1e-05,4e-05,4e-05,5
16547,17481,5e-05,0.00033999999999999997,0.00021,2e-05,0.0001,1e-05,4e-05,4e-05,5
16548,17482,5e-05,0.00033999999999999997,0.00021,2e-05,0.0001,1e-05,4e-05,4e-05,5
16549,17483,5e-05,0.00033999999999999997,0.00021,2e-05,0.0001,1e-05,4e-05,4e-05,5
16550,17484,5e-05,0.00033999999999999997,0.00021,2e-05,0.0001,1e-05,4e-05,4e-05,5
16551,17485,5e-05,0.00033999999999999997,0.00021,2e-05,0.0001,1e-05,4e-05,4e-05,5
16552,17487,-2e-05,-5e-05,-0.00018,0.00018,0.00026000000000000003,0.00031,-4e-05,-7e-05,5
16553,17490,-2e-05,-5e-05,-0.00018,0.00018,0.00026000000000000003,0.00031,-4e-05,-7e-05,5
16554,17491,-2e-05,-5e-05,-0.00018,0.00018,0.00026000000000000003,0.00031,-4e-05,-7e-05,5
16555,17492,-2e-05,-5e-05,-0.00018,0.00018,0.00026000000000000003,0.00031,-4e-05,-7e-05,5
16556,17493,-2e-05,-5e-05,-0.00018,0.00018,0.00026000000000000003,0.00031,-4e-05,-7e-05,5
16557,17494,-0.00035,-0.00027,-7e-05,-0.00025,-5e-05,-5e-05,-5e-05,-5e-05,5
16558,17495,-0.00035,-0.00027,-7e-05,-0.00025,-5e-05,-5e-05,-5e-05,-5e-05,5
16559,17496,-0.00035,-0.00027,-7e-05,-0.00025,-5e-05,-5e-05,-5e-05,-5e-05,5
16560,17497,-0.00035,-0.00027,-7e-05,-0.00025,-5e-05,-5e-05,-5e-05,-5e-05,5
16561,17498,-0.00035,-0.00027,-7e-05,-0.00025,-5e-05,-5e-05,-5e-05,-5e-05,5
16562,17499,-0.00035,-0.00027,-7e-05,-0.00025,-5e-05,-5e-05,-5e-05,-5e-05,5
16563,17500,-0.00035,-0.00027,-7e-05,-0.00025,-5e-05,-5e-05,-5e-05,-5e-05,5
16564,17501,-0.00015,-0.00018999999999999998,7e-05,0.00016,0.00022,-0.00018999999999999998,-0.00016999999999999999,-0.00011,5
16565,17502,-0.00015,-0.00018999999999999998,7e-05,0.00016,0.00022,-0.00018999999999999998,-0.00016999999999999999,-0.00011,5
16566,17503,-0.00015,-0.00018999999999999998,7e-05,0.00016,0.00022,-0.00018999999999999998,-0.00016999999999999999,-0.00011,5
16567,17504,-0.00015,-0.00018999999999999998,7e-05,0.00016,0.00022,-0.00018999999999999998,-0.00016999999999999999,-0.00011,5
16568,17505,-0.00015,-0.00018999999999999998,7e-05,0.00016,0.00022,-0.00018999999999999998,-0.00016999999999999999,-0.00011,5
16569,17506,-0.00015,-0.00018999999999999998,7e-05,0.00016,0.00022,-0.00018999999999999998,-0.00016999999999999999,-0.00011,5
16570,17507,-0.00015,-0.00018999999999999998,7e-05,0.00016,0.00022,-0.00018999999999999998,-0.00016999999999999999,-0.00011,5
16571,17508,-0.00015,-0.00018999999999999998,7e-05,0.00016,0.00022,-0.00018999999999999998,-0.00016999999999999999,-0.00011,5
16572,17509,-0.00015,-0.00018999999999999998,7e-05,0.00016,0.00022,-0.00018999999999999998,-0.00016999999999999999,-0.00011,5
16573,17510,-0.00015,-0.00018999999999999998,7e-05,0.00016,0.00022,-0.00018999999999999998,-0.00016999999999999999,-0.00011,5
16574,17511,-0.00015,-0.00018999999999999998,7e-05,0.00016,0.00022,-0.00018999999999999998,-0.00016999999999999999,-0.00011,5
16575,17512,-0.00015,-0.00018999999999999998,7e-05,0.00016,0.00022,-0.00018999999999999998,-0.00016999999999999999,-0.00011,5
16576,17513,-0.00015,-0.00018999999999999998,7e-05,0.00016,0.00022,-0.00018999999999999998,-0.00016999999999999999,-0.00011,5
16577,17514,-0.00015,-0.00018999999999999998,7e-05,0.00016,0.00022,-0.00018999999999999998,-0.00016999999999999999,-0.00011,5
16578,17515,-0.00015,-0.00018999999999999998,7e-05,0.00016,0.00022,-0.00018999999999999998,-0.00016999999999999999,-0.00011,5
16579,17516,-0.00015,-0.00018999999999999998,7e-05,0.00016,0.00022,-0.00018999999999999998,-0.00016999999999999999,-0.00011,5
16580,17517,-0.00011,-0.00027,-0.00032,-0.00054,-0.00079,-0.00023999999999999998,-4e-05,-8e-05,5
16581,17518,0.0003,0.00015,5.9999999999999995e-05,0.00028,0.0007700000000000001,0.00014,0.00018999999999999998,0.00013000000000000002,5
16582,17519,-0.00014,-0.00011,-0.00011,0.00033,0.0004,4e-05,0.0001,4e-05,5
16583,17520,-0.00014,-0.00011,-0.00011,0.00033,0.0004,4e-05,0.0001,4e-05,5
16584,17521,-0.00014,-0.00011,-0.00011,0.00033,0.0004,4e-05,0.0001,4e-05,5
16585,17522,-0.00014,-0.00011,-0.00011,0.00033,0.0004,4e-05,0.0001,4e-05,5
16586,17523,-0.00014,-0.00011,-0.00011,0.00033,0.0004,4e-05,0.0001,4e-05,5
16587,17524,-0.00014,-0.00011,-0.00011,0.00033,0.0004,4e-05,0.0001,4e-05,5
16588,17525,-0.00014,-0.00011,-0.00011,0.00033,0.0004,4e-05,0.0001,4e-05,5
16589,17526,-0.00014,-0.00011,-0.00011,0.00033,0.0004,4e-05,0.0001,4e-05,5
16590,17527,-0.00014,-0.00011,-0.00011,0.00033,0.0004,4e-05,0.0001,4e-05,5
16591,17528,-0.00014,-0.00011,-0.00011,0.00033,0.0004,4e-05,0.0001,4e-05,5
16592,17529,-0.00014,-0.00011,-0.00011,0.00033,0.0004,4e-05,0.0001,4e-05,5
16593,17530,-0.00014,-0.00011,-0.00011,0.00033,0.0004,4e-05,0.0001,4e-05,5
16594,17531,-0.00014,-0.00011,-0.00011,0.00033,0.0004,4e-05,0.0001,4e-05,5
16595,17532,-0.00014,-0.00011,-0.00011,0.00033,0.0004,4e-05,0.0001,4e-05,5
16596,17533,-0.00014,-0.00011,-0.00011,0.00033,0.0004,4e-05,0.0001,4e-05,5
16597,17534,-0.00014,-0.00011,-0.00011,0.00033,0.0004,4e-05,0.0001,4e-05,5
16598,17535,-0.00014,-0.00011,-0.00011,0.00033,0.0004,4e-05,0.0001,4e-05,5
16599,17536,-0.00014,-0.00011,-0.00011,0.00033,0.0004,4e-05,0.0001,4e-05,5
16600,17539,-0.00014,-0.00011,-0.00011,0.00033,0.0004,4e-05,0.0001,4e-05,5
16601,17540,-0.00047000000000000004,-0.00027,-0.00016,-0.00011,-0.00031,0.00018,2.9999999999999997e-05,-5e-05,5
16602,17541,-0.00047000000000000004,-0.00027,-0.00016,-0.00011,-0.00031,0.00018,2.9999999999999997e-05,-5e-05,5
16603,17542,0.00027,0.00018999999999999998,0.0,-0.00079,0.00011999999999999999,0.00016,0.00022,0.00013000000000000002,5
16604,17543,0.00027,0.00018999999999999998,0.0,-0.00079,0.00011999999999999999,0.00016,0.00022,0.00013000000000000002,5
16605,17544,0.00027,0.00018999999999999998,0.0,-0.00079,0.00011999999999999999,0.00016,0.00022,0.00013000000000000002,5
16606,17545,0.00027,0.00018999999999999998,0.0,-0.00079,0.00011999999999999999,0.00016,0.00022,0.00013000000000000002,5
16607,17546,0.00027,0.00018999999999999998,0.0,-0.00079,0.00011999999999999999,0.00016,0.00022,0.00013000000000000002,5
16608,17547,0.00027,0.00018999999999999998,0.0,-0.00079,0.00011999999999999999,0.00016,0.00022,0.00013000000000000002,5
16609,17548,0.00027,0.00018999999999999998,0.0,-0.00079,0.00011999999999999999,0.00016,0.00022,0.00013000000000000002,5
16610,17549,0.00027,0.00018999999999999998,0.0,-0.00079,0.00011999999999999999,0.00016,0.00022,0.00013000000000000002,5
16611,17550,0.00027,0.00018999999999999998,0.0,-0.00079,0.00011999999999999999,0.00016,0.00022,0.00013000000000000002,5
16612,17551,0.00027,0.00018999999999999998,0.0,-0.00079,0.00011999999999999999,0.00016,0.00022,0.00013000000000000002,5
16613,17552,0.00027,0.00018999999999999998,0.0,-0.00079,0.00011999999999999999,0.00016,0.00022,0.00013000000000000002,5
16614,17553,0.00027,0.00018999999999999998,0.0,-0.00079,0.00011999999999999999,0.00016,0.00022,0.00013000000000000002,5
16615,17554,-7e-05,5.9999999999999995e-05,5e-05,0.00039,0.00056,-4e-05,0.0,0.0,5
16616,17555,5.9999999999999995e-05,-0.0001,0.0,5.9999999999999995e-05,-0.0005,0.00022,-0.0001,-2e-05,5
16617,17556,5.9999999999999995e-05,-0.0001,0.0,5.9999999999999995e-05,-0.0005,0.00022,-0.0001,-2e-05,5
16618,17557,5.9999999999999995e-05,-0.0001,0.0,5.9999999999999995e-05,-0.0005,0.00022,-0.0001,-2e-05,5
16619,17558,5.9999999999999995e-05,-0.0001,0.0,5.9999999999999995e-05,-0.0005,0.00022,-0.0001,-2e-05,5
16620,17559,5.9999999999999995e-05,-0.0001,0.0,5.9999999999999995e-05,-0.0005,0.00022,-0.0001,-2e-05,5
16621,17560,5.9999999999999995e-05,-0.0001,0.0,5.9999999999999995e-05,-0.0005,0.00022,-0.0001,-2e-05,5
16622,17561,-0.00015,0.0,-0.00014,-0.0007700000000000001,-0.00044,-0.00022,-5.9999999999999995e-05,0.0,5
16623,17562,-0.00015,0.0,-0.00014,-0.0007700000000000001,-0.00044,-0.00022,-5.9999999999999995e-05,0.0,5
16624,17563,-0.00015,0.0,-0.00014,-0.0007700000000000001,-0.00044,-0.00022,-5.9999999999999995e-05,0.0,5
16625,17564,-0.00015,0.0,-0.00014,-0.0007700000000000001,-0.00044,-0.00022,-5.9999999999999995e-05,0.0,5
16626,17565,-0.00015,0.0,-0.00014,-0.0007700000000000001,-0.00044,-0.00022,-5.9999999999999995e-05,0.0,5
16627,17566,-0.00015,0.0,-0.00014,-0.0007700000000000001,-0.00044,-0.00022,-5.9999999999999995e-05,0.0,5
16628,17567,-0.00015,0.0,-0.00014,-0.0007700000000000001,-0.00044,-0.00022,-5.9999999999999995e-05,0.0,5
16629,17568,-0.00015,0.0,-0.00014,-0.0007700000000000001,-0.00044,-0.00022,-5.9999999999999995e-05,0.0,5
16630,17569,-0.00015,0.0,-0.00014,-0.0007700000000000001,-0.00044,-0.00022,-5.9999999999999995e-05,0.0,5
16631,17570,-0.00015,0.0,-0.00014,-0.0007700000000000001,-0.00044,-0.00022,-5.9999999999999995e-05,0.0,5
16632,17571,-0.00015,0.0,-0.00014,-0.0007700000000000001,-0.00044,-0.00022,-5.9999999999999995e-05,0.0,5
16633,17572,-0.00015,0.0,-0.00014,-0.0007700000000000001,-0.00044,-0.00022,-5.9999999999999995e-05,0.0,5
16634,17573,-0.00015,0.0,-0.00014,-0.0007700000000000001,-0.00044,-0.00022,-5.9999999999999995e-05,0.0,5
16635,17574,-0.00015,0.0,-0.00014,-0.0007700000000000001,-0.00044,-0.00022,-5.9999999999999995e-05,0.0,5
16636,17575,-0.00015,0.0,-0.00014,-0.0007700000000000001,-0.00044,-0.00022,-5.9999999999999995e-05,0.0,5
16637,17576,-0.00015,0.0,-0.00014,-0.0007700000000000001,-0.00044,-0.00022,-5.9999999999999995e-05,0.0,5
16638,17577,0.00011999999999999999,0.0001,-0.00011,-0.0009,-0.0008300000000000001,-0.00022,-0.00016,-5.9999999999999995e-05,5
16639,17578,0.00011999999999999999,0.0001,-0.00011,-0.0009,-0.0008300000000000001,-0.00022,-0.00016,-5.9999999999999995e-05,5
16640,17579,-2.9999999999999997e-05,-5.9999999999999995e-05,0.00014,0.00043,0.00054,0.00011999999999999999,5e-05,0.0,5
16641,17580,-2.9999999999999997e-05,-5.9999999999999995e-05,0.00014,0.00043,0.00054,0.00011999999999999999,5e-05,0.0,5
16642,17581,-2.9999999999999997e-05,-5.9999999999999995e-05,0.00014,0.00043,0.00054,0.00011999999999999999,5e-05,0.0,5
16643,17582,-2.9999999999999997e-05,-5.9999999999999995e-05,0.00014,0.00043,0.00054,0.00011999999999999999,5e-05,0.0,5
16644,17583,-2.9999999999999997e-05,-5.9999999999999995e-05,0.00014,0.00043,0.00054,0.00011999999999999999,5e-05,0.0,5
16645,17584,-2.9999999999999997e-05,-5.9999999999999995e-05,0.00014,0.00043,0.00054,0.00011999999999999999,5e-05,0.0,5
16646,17585,-2.9999999999999997e-05,-5.9999999999999995e-05,0.00014,0.00043,0.00054,0.00011999999999999999,5e-05,0.0,5
16647,17586,-2.9999999999999997e-05,-5.9999999999999995e-05,0.00014,0.00043,0.00054,0.00011999999999999999,5e-05,0.0,5
16648,17589,-2.9999999999999997e-05,-5.9999999999999995e-05,0.00014,0.00043,0.00054,0.00011999999999999999,5e-05,0.0,5
16649,17590,-2.9999999999999997e-05,-5.9999999999999995e-05,0.00014,0.00043,0.00054,0.00011999999999999999,5e-05,0.0,5
16650,17591,-2.9999999999999997e-05,-5.9999999999999995e-05,0.00014,0.00043,0.00054,0.00011999999999999999,5e-05,0.0,5
16651,17592,-2.9999999999999997e-05,-5.9999999999999995e-05,0.00014,0.00043,0.00054,0.00011999999999999999,5e-05,0.0,5
16652,17593,-2.9999999999999997e-05,-5.9999999999999995e-05,0.00014,0.00043,0.00054,0.00011999999999999999,5e-05,0.0,5
16653,17594,-2.9999999999999997e-05,-5.9999999999999995e-05,0.00014,0.00043,0.00054,0.00011999999999999999,5e-05,0.0,5
16654,17595,-2.9999999999999997e-05,-5.9999999999999995e-05,0.00014,0.00043,0.00054,0.00011999999999999999,5e-05,0.0,5
16655,17596,-2.9999999999999997e-05,-5.9999999999999995e-05,0.00014,0.00043,0.00054,0.00011999999999999999,5e-05,0.0,5
16656,17597,-2.9999999999999997e-05,-5.9999999999999995e-05,0.00014,0.00043,0.00054,0.00011999999999999999,5e-05,0.0,5
16657,17598,-2.9999999999999997e-05,-5.9999999999999995e-05,0.00014,0.00043,0.00054,0.00011999999999999999,5e-05,0.0,5
16658,17599,-2.9999999999999997e-05,-5.9999999999999995e-05,0.00014,0.00043,0.00054,0.00011999999999999999,5e-05,0.0,5
16659,17600,0.00026000000000000003,-1e-05,-0.00033,5e-05,-0.00011999999999999999,-0.00041,-5e-05,-5e-05,5
16660,17601,0.00026000000000000003,-1e-05,-0.00033,5e-05,-0.00011999999999999999,-0.00041,-5e-05,-5e-05,5
16661,17602,0.00015,0.00033,7e-05,0.0001,-0.00029,0.00047999999999999996,5.9999999999999995e-05,7e-05,5
16662,17603,0.00015,0.00033,7e-05,0.0001,-0.00029,0.00047999999999999996,5.9999999999999995e-05,7e-05,5
16663,17604,0.00015,0.00033,7e-05,0.0001,-0.00029,0.00047999999999999996,5.9999999999999995e-05,7e-05,5
16664,17605,0.00015,0.00033,7e-05,0.0001,-0.00029,0.00047999999999999996,5.9999999999999995e-05,7e-05,5
16665,17606,0.00015,0.00033,7e-05,0.0001,-0.00029,0.00047999999999999996,5.9999999999999995e-05,7e-05,5
16666,17607,0.00015,0.00033,7e-05,0.0001,-0.00029,0.00047999999999999996,5.9999999999999995e-05,7e-05,5
16667,17608,0.00015,0.00033,7e-05,0.0001,-0.00029,0.00047999999999999996,5.9999999999999995e-05,7e-05,5
16668,17609,0.00015,0.00033,7e-05,0.0001,-0.00029,0.00047999999999999996,5.9999999999999995e-05,7e-05,5
16669,17610,0.00015,0.00033,7e-05,0.0001,-0.00029,0.00047999999999999996,5.9999999999999995e-05,7e-05,5
16670,17611,0.00015,0.00033,7e-05,0.0001,-0.00029,0.00047999999999999996,5.9999999999999995e-05,7e-05,5
16671,17612,0.00015,0.00033,7e-05,0.0001,-0.00029,0.00047999999999999996,5.9999999999999995e-05,7e-05,5
16672,17613,0.00015,0.00033,7e-05,0.0001,-0.00029,0.00047999999999999996,5.9999999999999995e-05,7e-05,5
16673,17614,-8e-05,0.00022999999999999998,0.00023999999999999998,0.00045,0.0012699999999999999,0.00049,0.0001,2.9999999999999997e-05,5
16674,17615,-8e-05,0.00022999999999999998,0.00023999999999999998,0.00045,0.0012699999999999999,0.00049,0.0001,2.9999999999999997e-05,5
16675,17616,-8e-05,0.00022999999999999998,0.00023999999999999998,0.00045,0.0012699999999999999,0.00049,0.0001,2.9999999999999997e-05,5
16676,17617,-8e-05,0.00022999999999999998,0.00023999999999999998,0.00045,0.0012699999999999999,0.00049,0.0001,2.9999999999999997e-05,5
16677,17618,-8e-05,0.00022999999999999998,0.00023999999999999998,0.00045,0.0012699999999999999,0.00049,0.0001,2.9999999999999997e-05,5
16678,17619,-8e-05,0.00022999999999999998,0.00023999999999999998,0.00045,0.0012699999999999999,0.00049,0.0001,2.9999999999999997e-05,5
16679,17620,-8e-05,0.00022999999999999998,0.00023999999999999998,0.00045,0.0012699999999999999,0.00049,0.0001,2.9999999999999997e-05,5
16680,17621,0.00037999999999999997,-7e-05,-0.00011,-0.00025,-0.0003,-0.00029,-0.00013000000000000002,-2.9999999999999997e-05,5
16681,17622,0.00037999999999999997,-7e-05,-0.00011,-0.00025,-0.0003,-0.00029,-0.00013000000000000002,-2.9999999999999997e-05,5
16682,17623,0.00037999999999999997,-7e-05,-0.00011,-0.00025,-0.0003,-0.00029,-0.00013000000000000002,-2.9999999999999997e-05,5
16683,17624,0.00037999999999999997,-7e-05,-0.00011,-0.00025,-0.0003,-0.00029,-0.00013000000000000002,-2.9999999999999997e-05,5
16684,17625,0.00037999999999999997,-7e-05,-0.00011,-0.00025,-0.0003,-0.00029,-0.00013000000000000002,-2.9999999999999997e-05,5
16685,17626,0.00037999999999999997,-7e-05,-0.00011,-0.00025,-0.0003,-0.00029,-0.00013000000000000002,-2.9999999999999997e-05,5
16686,17627,0.00037999999999999997,-7e-05,-0.00011,-0.00025,-0.0003,-0.00029,-0.00013000000000000002,-2.9999999999999997e-05,5
16687,17628,0.00037999999999999997,-7e-05,-0.00011,-0.00025,-0.0003,-0.00029,-0.00013000000000000002,-2.9999999999999997e-05,5
16688,17629,0.00037999999999999997,-7e-05,-0.00011,-0.00025,-0.0003,-0.00029,-0.00013000000000000002,-2.9999999999999997e-05,5
16689,17630,0.00037999999999999997,-7e-05,-0.00011,-0.00025,-0.0003,-0.00029,-0.00013000000000000002,-2.9999999999999997e-05,5
16690,17631,0.00037999999999999997,-7e-05,-0.00011,-0.00025,-0.0003,-0.00029,-0.00013000000000000002,-2.9999999999999997e-05,5
16691,17632,0.00037999999999999997,-7e-05,-0.00011,-0.00025,-0.0003,-0.00029,-0.00013000000000000002,-2.9999999999999997e-05,5
16692,17633,0.00037999999999999997,-7e-05,-0.00011,-0.00025,-0.0003,-0.00029,-0.00013000000000000002,-2.9999999999999997e-05,5
16693,17634,0.00037999999999999997,-7e-05,-0.00011,-0.00025,-0.0003,-0.00029,-0.00013000000000000002,-2.9999999999999997e-05,5
16694,17635,0.00037999999999999997,-7e-05,-0.00011,-0.00025,-0.0003,-0.00029,-0.00013000000000000002,-2.9999999999999997e-05,5
16695,17636,0.00037999999999999997,-7e-05,-0.00011,-0.00025,-0.0003,-0.00029,-0.00013000000000000002,-2.9999999999999997e-05,5
16696,17639,7e-05,5e-05,-0.00011,-0.0009,-0.00059,-0.00018999999999999998,-2.9999999999999997e-05,2e-05,5
16697,17640,7e-05,5e-05,-0.00011,-0.0009,-0.00059,-0.00018999999999999998,-2.9999999999999997e-05,2e-05,5
16698,17641,0.00013000000000000002,5e-05,-0.00016,-0.00072,0.00018999999999999998,0.00023999999999999998,0.00011,5e-05,5
16699,17642,-0.00025,-0.00016999999999999999,0.00023999999999999998,0.0012699999999999999,0.0008,0.0001,5e-05,-2e-05,5
16700,17643,-0.00025,-0.00016999999999999999,0.00023999999999999998,0.0012699999999999999,0.0008,0.0001,5e-05,-2e-05,5
16701,17644,-0.00025,-0.00016999999999999999,0.00023999999999999998,0.0012699999999999999,0.0008,0.0001,5e-05,-2e-05,5
16702,17645,-0.00025,-0.00016999999999999999,0.00023999999999999998,0.0012699999999999999,0.0008,0.0001,5e-05,-2e-05,5
16703,17646,-0.00025,-0.00016999999999999999,0.00023999999999999998,0.0012699999999999999,0.0008,0.0001,5e-05,-2e-05,5
16704,17647,-0.00025,-0.00016999999999999999,0.00023999999999999998,0.0012699999999999999,0.0008,0.0001,5e-05,-2e-05,5
16705,17648,-0.00025,-0.00016999999999999999,0.00023999999999999998,0.0012699999999999999,0.0008,0.0001,5e-05,-2e-05,5
16706,17649,-0.00025,-0.00016999999999999999,0.00023999999999999998,0.0012699999999999999,0.0008,0.0001,5e-05,-2e-05,5
16707,17650,-0.00025,-0.00016999999999999999,0.00023999999999999998,0.0012699999999999999,0.0008,0.0001,5e-05,-2e-05,5
16708,17651,-0.00025,-0.00016999999999999999,0.00023999999999999998,0.0012699999999999999,0.0008,0.0001,5e-05,-2e-05,5
16709,17652,-0.00025,-0.00016999999999999999,0.00023999999999999998,0.0012699999999999999,0.0008,0.0001,5e-05,-2e-05,5
16710,17653,-0.00025,-0.00016999999999999999,0.00023999999999999998,0.0012699999999999999,0.0008,0.0001,5e-05,-2e-05,5
16711,17654,-0.00025,-0.00016999999999999999,0.00023999999999999998,0.0012699999999999999,0.0008,0.0001,5e-05,-2e-05,5
16712,17655,-0.00025,-0.00016999999999999999,0.00023999999999999998,0.0012699999999999999,0.0008,0.0001,5e-05,-2e-05,5
16713,17657,-0.00025,-0.00016999999999999999,0.00023999999999999998,0.0012699999999999999,0.0008,0.0001,5e-05,-2e-05,5
16714,17658,-0.00025,-0.00016999999999999999,0.00023999999999999998,0.0012699999999999999,0.0008,0.0001,5e-05,-2e-05,5
16715,17659,-0.00025,-0.00016999999999999999,0.00023999999999999998,0.0012699999999999999,0.0008,0.0001,5e-05,-2e-05,5
16716,17660,0.00021,0.0002,0.00021,-7e-05,0.00037999999999999997,1e-05,0.0,2.9999999999999997e-05,5
16717,17661,0.00021,0.0002,0.00021,-7e-05,0.00037999999999999997,1e-05,0.0,2.9999999999999997e-05,5
16718,17662,-0.00013000000000000002,-0.00026000000000000003,-0.00032,-0.00128,-0.00064,0.00013000000000000002,1e-05,-2e-05,5
16719,17663,-0.00013000000000000002,-0.00026000000000000003,-0.00032,-0.00128,-0.00064,0.00013000000000000002,1e-05,-2e-05,5
16720,17664,-0.00013000000000000002,-0.00026000000000000003,-0.00032,-0.00128,-0.00064,0.00013000000000000002,1e-05,-2e-05,5
16721,17665,-0.00013000000000000002,-0.00026000000000000003,-0.00032,-0.00128,-0.00064,0.00013000000000000002,1e-05,-2e-05,5
16722,17666,-0.00013000000000000002,-0.00026000000000000003,-0.00032,-0.00128,-0.00064,0.00013000000000000002,1e-05,-2e-05,5
16723,17667,-0.00013000000000000002,-0.00026000000000000003,-0.00032,-0.00128,-0.00064,0.00013000000000000002,1e-05,-2e-05,5
16724,17668,-0.00013000000000000002,-0.00026000000000000003,-0.00032,-0.00128,-0.00064,0.00013000000000000002,1e-05,-2e-05,5
16725,17669,-0.00013000000000000002,-0.00026000000000000003,-0.00032,-0.00128,-0.00064,0.00013000000000000002,1e-05,-2e-05,5
16726,17670,-0.00013000000000000002,-0.00026000000000000003,-0.00032,-0.00128,-0.00064,0.00013000000000000002,1e-05,-2e-05,5
16727,17671,-0.00013000000000000002,-0.00026000000000000003,-0.00032,-0.00128,-0.00064,0.00013000000000000002,1e-05,-2e-05,5
16728,17672,-0.00013000000000000002,-0.00026000000000000003,-0.00032,-0.00128,-0.00064,0.00013000000000000002,1e-05,-2e-05,5
16729,17673,-0.00013000000000000002,-0.00026000000000000003,-0.00032,-0.00128,-0.00064,0.00013000000000000002,1e-05,-2e-05,5
16730,17674,0.0,0.00018999999999999998,2.9999999999999997e-05,-0.00015,0.00042,7e-05,2.9999999999999997e-05,0.00011,5
16731,17675,-5e-05,0.0002,0.00025,0.00057,0.00018,0.00011,2e-05,-4e-05,5
16732,17676,-5e-05,0.0002,0.00025,0.00057,0.00018,0.00011,2e-05,-4e-05,5
16733,17677,-5e-05,0.0002,0.00025,0.00057,0.00018,0.00011,2e-05,-4e-05,5
16734,17678,-5e-05,0.0002,0.00025,0.00057,0.00018,0.00011,2e-05,-4e-05,5
16735,17679,-5e-05,0.0002,0.00025,0.00057,0.00018,0.00011,2e-05,-4e-05,5
16736,17680,-5e-05,0.0002,0.00025,0.00057,0.00018,0.00011,2e-05,-4e-05,5
16737,17681,-0.00028,7e-05,0.00018,-0.00035,-0.00078,-4e-05,5e-05,-2e-05,5
16738,17682,-0.00028,7e-05,0.00018,-0.00035,-0.00078,-4e-05,5e-05,-2e-05,5
16739,17683,-0.00028,7e-05,0.00018,-0.00035,-0.00078,-4e-05,5e-05,-2e-05,5
16740,17684,-0.00028,7e-05,0.00018,-0.00035,-0.00078,-4e-05,5e-05,-2e-05,5
16741,17685,-0.00028,7e-05,0.00018,-0.00035,-0.00078,-4e-05,5e-05,-2e-05,5
16742,17686,-0.00028,7e-05,0.00018,-0.00035,-0.00078,-4e-05,5e-05,-2e-05,5
16743,17689,-0.00028,7e-05,0.00018,-0.00035,-0.00078,-4e-05,5e-05,-2e-05,5
16744,17690,-0.00028,7e-05,0.00018,-0.00035,-0.00078,-4e-05,5e-05,-2e-05,5
16745,17691,-0.00028,7e-05,0.00018,-0.00035,-0.00078,-4e-05,5e-05,-2e-05,5
16746,17692,-0.00028,7e-05,0.00018,-0.00035,-0.00078,-4e-05,5e-05,-2e-05,5
16747,17693,-0.00028,7e-05,0.00018,-0.00035,-0.00078,-4e-05,5e-05,-2e-05,5
16748,17694,-0.00028,7e-05,0.00018,-0.00035,-0.00078,-4e-05,5e-05,-2e-05,5
16749,17695,-0.00028,7e-05,0.00018,-0.00035,-0.00078,-4e-05,5e-05,-2e-05,5
16750,17696,-0.00028,7e-05,0.00018,-0.00035,-0.00078,-4e-05,5e-05,-2e-05,5
16751,17697,-0.00028,7e-05,0.00018,-0.00035,-0.00078,-4e-05,5e-05,-2e-05,5
16752,17698,-0.00016,-7e-05,0.00011,0.00027,0.00027,1e-05,-2.9999999999999997e-05,-1e-05,5
16753,17699,-0.00016,-7e-05,0.00011,0.00027,0.00027,1e-05,-2.9999999999999997e-05,-1e-05,5
16754,17700,-2.9999999999999997e-05,-0.00015,-0.00023999999999999998,-8e-05,0.00035,-0.0003,-5e-05,-5.9999999999999995e-05,5
16755,17701,-2.9999999999999997e-05,-0.00015,-0.00023999999999999998,-8e-05,0.00035,-0.0003,-5e-05,-5.9999999999999995e-05,5
16756,17702,-2.9999999999999997e-05,-0.00015,-0.00023999999999999998,-8e-05,0.00035,-0.0003,-5e-05,-5.9999999999999995e-05,5
16757,17703,-2.9999999999999997e-05,-0.00015,-0.00023999999999999998,-8e-05,0.00035,-0.0003,-5e-05,-5.9999999999999995e-05,5
16758,17705,-2.9999999999999997e-05,-0.00015,-0.00023999999999999998,-8e-05,0.00035,-0.0003,-5e-05,-5.9999999999999995e-05,5
16759,17706,-2.9999999999999997e-05,-0.00015,-0.00023999999999999998,-8e-05,0.00035,-0.0003,-5e-05,-5.9999999999999995e-05,5
16760,17707,-2.9999999999999997e-05,-0.00015,-0.00023999999999999998,-8e-05,0.00035,-0.0003,-5e-05,-5.9999999999999995e-05,5
16761,17708,-2.9999999999999997e-05,-0.00015,-0.00023999999999999998,-8e-05,0.00035,-0.0003,-5e-05,-5.9999999999999995e-05,5
16762,17709,-2.9999999999999997e-05,-0.00015,-0.00023999999999999998,-8e-05,0.00035,-0.0003,-5e-05,-5.9999999999999995e-05,5
16763,17710,-2.9999999999999997e-05,-0.00015,-0.00023999999999999998,-8e-05,0.00035,-0.0003,-5e-05,-5.9999999999999995e-05,5
16764,17711,-2.9999999999999997e-05,-0.00015,-0.00023999999999999998,-8e-05,0.00035,-0.0003,-5e-05,-5.9999999999999995e-05,5
16765,17712,-2.9999999999999997e-05,-0.00015,-0.00023999999999999998,-8e-05,0.00035,-0.0003,-5e-05,-5.9999999999999995e-05,5
16766,17713,-2.9999999999999997e-05,-0.00015,-0.00023999999999999998,-8e-05,0.00035,-0.0003,-5e-05,-5.9999999999999995e-05,5
16767,17714,-2.9999999999999997e-05,-0.00015,-0.00023999999999999998,-8e-05,0.00035,-0.0003,-5e-05,-5.9999999999999995e-05,5
16768,17715,-2.9999999999999997e-05,-0.00015,-0.00023999999999999998,-8e-05,0.00035,-0.0003,-5e-05,-5.9999999999999995e-05,5
16769,17716,-2.9999999999999997e-05,-0.00015,-0.00023999999999999998,-8e-05,0.00035,-0.0003,-5e-05,-5.9999999999999995e-05,5
16770,17717,-2.9999999999999997e-05,-0.00015,-0.00023999999999999998,-8e-05,0.00035,-0.0003,-5e-05,-5.9999999999999995e-05,5
16771,17718,-2.9999999999999997e-05,-0.00015,-0.00023999999999999998,-8e-05,0.00035,-0.0003,-5e-05,-5.9999999999999995e-05,5
16772,17719,-2.9999999999999997e-05,-0.00015,-0.00023999999999999998,-8e-05,0.00035,-0.0003,-5e-05,-5.9999999999999995e-05,5
16773,17720,0.00014,1e-05,0.00031,0.00022,-0.00015,0.00013000000000000002,0.00014,0.00011,5
16774,17721,9e-05,5.9999999999999995e-05,7e-05,-0.00021,-4e-05,0.00022,-2.9999999999999997e-05,1e-05,5
16775,17722,9e-05,-8e-05,-0.0002,-0.00018999999999999998,-0.00027,-0.00032,-4e-05,-4e-05,5
16776,17723,9e-05,-8e-05,-0.0002,-0.00018999999999999998,-0.00027,-0.00032,-4e-05,-4e-05,5
16777,17724,9e-05,-8e-05,-0.0002,-0.00018999999999999998,-0.00027,-0.00032,-4e-05,-4e-05,5
16778,17725,9e-05,-8e-05,-0.0002,-0.00018999999999999998,-0.00027,-0.00032,-4e-05,-4e-05,5
16779,17726,9e-05,-8e-05,-0.0002,-0.00018999999999999998,-0.00027,-0.00032,-4e-05,-4e-05,5
16780,17727,9e-05,-8e-05,-0.0002,-0.00018999999999999998,-0.00027,-0.00032,-4e-05,-4e-05,5
16781,17728,9e-05,-8e-05,-0.0002,-0.00018999999999999998,-0.00027,-0.00032,-4e-05,-4e-05,5
16782,17729,9e-05,-8e-05,-0.0002,-0.00018999999999999998,-0.00027,-0.00032,-4e-05,-4e-05,5
16783,17730,9e-05,-8e-05,-0.0002,-0.00018999999999999998,-0.00027,-0.00032,-4e-05,-4e-05,5
16784,17731,9e-05,-8e-05,-0.0002,-0.00018999999999999998,-0.00027,-0.00032,-4e-05,-4e-05,5
16785,17732,9e-05,-8e-05,-0.0002,-0.00018999999999999998,-0.00027,-0.00032,-4e-05,-4e-05,5
16786,17733,9e-05,-8e-05,-0.0002,-0.00018999999999999998,-0.00027,-0.00032,-4e-05,-4e-05,5
16787,17734,2.9999999999999997e-05,-0.00018999999999999998,-0.00016999999999999999,0.00022999999999999998,0.00033999999999999997,0.00044,-2e-05,-1e-05,5
16788,17735,2.9999999999999997e-05,-0.00018999999999999998,-0.00016999999999999999,0.00022999999999999998,0.00033999999999999997,0.00044,-2e-05,-1e-05,5
16789,17736,2.9999999999999997e-05,-0.00018999999999999998,-0.00016999999999999999,0.00022999999999999998,0.00033999999999999997,0.00044,-2e-05,-1e-05,5
16790,17739,2.9999999999999997e-05,-0.00018999999999999998,-0.00016999999999999999,0.00022999999999999998,0.00033999999999999997,0.00044,-2e-05,-1e-05,5
16791,17740,2.9999999999999997e-05,-0.00018999999999999998,-0.00016999999999999999,0.00022999999999999998,0.00033999999999999997,0.00044,-2e-05,-1e-05,5
16792,17741,-0.00047000000000000004,-0.00041,-7e-05,0.0002,-0.00011999999999999999,-2.9999999999999997e-05,-1e-05,-7e-05,5
16793,17742,-0.00047000000000000004,-0.00041,-7e-05,0.0002,-0.00011999999999999999,-2.9999999999999997e-05,-1e-05,-7e-05,5
16794,17743,-0.00047000000000000004,-0.00041,-7e-05,0.0002,-0.00011999999999999999,-2.9999999999999997e-05,-1e-05,-7e-05,5
16795,17745,-0.00047000000000000004,-0.00041,-7e-05,0.0002,-0.00011999999999999999,-2.9999999999999997e-05,-1e-05,-7e-05,5
16796,17746,-0.00047000000000000004,-0.00041,-7e-05,0.0002,-0.00011999999999999999,-2.9999999999999997e-05,-1e-05,-7e-05,5
16797,17747,-0.00047000000000000004,-0.00041,-7e-05,0.0002,-0.00011999999999999999,-2.9999999999999997e-05,-1e-05,-7e-05,5
16798,17748,-0.00047000000000000004,-0.00041,-7e-05,0.0002,-0.00011999999999999999,-2.9999999999999997e-05,-1e-05,-7e-05,5
16799,17749,-0.00047000000000000004,-0.00041,-7e-05,0.0002,-0.00011999999999999999,-2.9999999999999997e-05,-1e-05,-7e-05,5
16800,17750,-0.00047000000000000004,-0.00041,-7e-05,0.0002,-0.00011999999999999999,-2.9999999999999997e-05,-1e-05,-7e-05,5
16801,17751,-0.00047000000000000004,-0.00041,-7e-05,0.0002,-0.00011999999999999999,-2.9999999999999997e-05,-1e-05,-7e-05,5
16802,17752,-0.00047000000000000004,-0.00041,-7e-05,0.0002,-0.00011999999999999999,-2.9999999999999997e-05,-1e-05,-7e-05,5
16803,17753,-0.00047000000000000004,-0.00041,-7e-05,0.0002,-0.00011999999999999999,-2.9999999999999997e-05,-1e-05,-7e-05,5
16804,17755,-0.00047000000000000004,-0.00041,-7e-05,0.0002,-0.00011999999999999999,-2.9999999999999997e-05,-1e-05,-7e-05,5
16805,17756,-0.00047000000000000004,-0.00041,-7e-05,0.0002,-0.00011999999999999999,-2.9999999999999997e-05,-1e-05,-7e-05,5
16806,17757,0.00031,0.00058,0.00022,0.0,-0.00011,5e-05,2e-05,5.9999999999999995e-05,5
16807,17758,-7e-05,-0.00018,-0.00021,-5.9999999999999995e-05,-0.00057,-0.00036,-0.00016999999999999999,-8e-05,5
16808,17759,0.0003,0.00016999999999999999,0.00029,0.00115,0.00066,4e-05,-7e-05,0.0,5
16809,17760,0.0003,0.00016999999999999999,0.00029,0.00115,0.00066,4e-05,-7e-05,0.0,5
16810,17761,0.0003,0.00016999999999999999,0.00029,0.00115,0.00066,4e-05,-7e-05,0.0,5
16811,17762,0.0003,0.00016999999999999999,0.00029,0.00115,0.00066,4e-05,-7e-05,0.0,5
16812,17763,0.0003,0.00016999999999999999,0.00029,0.00115,0.00066,4e-05,-7e-05,0.0,5
16813,17764,0.0003,0.00016999999999999999,0.00029,0.00115,0.00066,4e-05,-7e-05,0.0,5
16814,17765,0.0003,0.00016999999999999999,0.00029,0.00115,0.00066,4e-05,-7e-05,0.0,5
16815,17766,0.0003,0.00016999999999999999,0.00029,0.00115,0.00066,4e-05,-7e-05,0.0,5
16816,17767,0.0003,0.00016999999999999999,0.00029,0.00115,0.00066,4e-05,-7e-05,0.0,5
16817,17768,0.0003,0.00016999999999999999,0.00029,0.00115,0.00066,4e-05,-7e-05,0.0,5
16818,17769,0.0003,0.00016999999999999999,0.00029,0.00115,0.00066,4e-05,-7e-05,0.0,5
16819,17770,0.0003,0.00016999999999999999,0.00029,0.00115,0.00066,4e-05,-7e-05,0.0,5
16820,17771,0.0003,0.00016999999999999999,0.00029,0.00115,0.00066,4e-05,-7e-05,0.0,5
16821,17772,0.0003,0.00016999999999999999,0.00029,0.00115,0.00066,4e-05,-7e-05,0.0,5
16822,17773,0.0003,0.00016999999999999999,0.00029,0.00115,0.00066,4e-05,-7e-05,0.0,5
16823,17774,0.0003,0.00016999999999999999,0.00029,0.00115,0.00066,4e-05,-7e-05,0.0,5
16824,17775,0.0003,0.00016999999999999999,0.00029,0.00115,0.00066,4e-05,-7e-05,0.0,5
16825,17776,0.0003,0.00016999999999999999,0.00029,0.00115,0.00066,4e-05,-7e-05,0.0,5
16826,17777,0.0003,0.00016999999999999999,0.00029,0.00115,0.00066,4e-05,-7e-05,0.0,5
16827,17778,0.0003,0.00016999999999999999,0.00029,0.00115,0.00066,4e-05,-7e-05,0.0,5
16828,17779,0.0003,0.00016999999999999999,0.00029,0.00115,0.00066,4e-05,-7e-05,0.0,5
16829,17780,0.00025,-0.00011999999999999999,-5.9999999999999995e-05,-0.00018,-0.0005099999999999999,-0.00014,-2.9999999999999997e-05,0.0,5
16830,17781,5.9999999999999995e-05,-1e-05,-0.00022,-0.00022,0.00011999999999999999,0.00011,-2.9999999999999997e-05,-1e-05,5
16831,17782,0.0,0.00022999999999999998,0.00016999999999999999,0.0,0.00011,5e-05,0.00013000000000000002,4e-05,5
16832,17783,0.0,0.00022999999999999998,0.00016999999999999999,0.0,0.00011,5e-05,0.00013000000000000002,4e-05,5
16833,17785,0.0,0.00022999999999999998,0.00016999999999999999,0.0,0.00011,5e-05,0.00013000000000000002,4e-05,5
16834,17786,0.0,0.00022999999999999998,0.00016999999999999999,0.0,0.00011,5e-05,0.00013000000000000002,4e-05,5
16835,17788,0.0,0.00022999999999999998,0.00016999999999999999,0.0,0.00011,5e-05,0.00013000000000000002,4e-05,5
16836,17789,0.0,0.00022999999999999998,0.00016999999999999999,0.0,0.00011,5e-05,0.00013000000000000002,4e-05,5
16837,17790,0.0,0.00022999999999999998,0.00016999999999999999,0.0,0.00011,5e-05,0.00013000000000000002,4e-05,5
16838,17791,0.0,0.00022999999999999998,0.00016999999999999999,0.0,0.00011,5e-05,0.00013000000000000002,4e-05,5
16839,17792,0.0,0.00022999999999999998,0.00016999999999999999,0.0,0.00011,5e-05,0.00013000000000000002,4e-05,5
16840,17793,0.0,0.00022999999999999998,0.00016999999999999999,0.0,0.00011,5e-05,0.00013000000000000002,4e-05,5
16841,17794,-5e-05,5.9999999999999995e-05,-0.00011999999999999999,5.9999999999999995e-05,0.00036,0.00015,0.00014,2.9999999999999997e-05,5
16842,17795,-5e-05,5.9999999999999995e-05,-0.00011999999999999999,5.9999999999999995e-05,0.00036,0.00015,0.00014,2.9999999999999997e-05,5
16843,17796,-5e-05,5.9999999999999995e-05,-0.00011999999999999999,5.9999999999999995e-05,0.00036,0.00015,0.00014,2.9999999999999997e-05,5
16844,17797,-5e-05,5.9999999999999995e-05,-0.00011999999999999999,5.9999999999999995e-05,0.00036,0.00015,0.00014,2.9999999999999997e-05,5
16845,17798,-5e-05,5.9999999999999995e-05,-0.00011999999999999999,5.9999999999999995e-05,0.00036,0.00015,0.00014,2.9999999999999997e-05,5
16846,17799,-5e-05,5.9999999999999995e-05,-0.00011999999999999999,5.9999999999999995e-05,0.00036,0.00015,0.00014,2.9999999999999997e-05,5
16847,17800,-5e-05,5.9999999999999995e-05,-0.00011999999999999999,5.9999999999999995e-05,0.00036,0.00015,0.00014,2.9999999999999997e-05,5
16848,17801,-5e-05,5.9999999999999995e-05,-0.00011999999999999999,5.9999999999999995e-05,0.00036,0.00015,0.00014,2.9999999999999997e-05,5
16849,17802,-5e-05,5.9999999999999995e-05,-0.00011999999999999999,5.9999999999999995e-05,0.00036,0.00015,0.00014,2.9999999999999997e-05,5
16850,17803,0.00016,7e-05,0.0,0.00028,-0.00026000000000000003,9e-05,-2e-05,2.9999999999999997e-05,5
16851,17804,0.00016,7e-05,0.0,0.00028,-0.00026000000000000003,9e-05,-2e-05,2.9999999999999997e-05,5
16852,17805,0.00016,7e-05,0.0,0.00028,-0.00026000000000000003,9e-05,-2e-05,2.9999999999999997e-05,5
16853,17806,0.00016,7e-05,0.0,0.00028,-0.00026000000000000003,9e-05,-2e-05,2.9999999999999997e-05,5
16854,17807,0.00016,7e-05,0.0,0.00028,-0.00026000000000000003,9e-05,-2e-05,2.9999999999999997e-05,5
16855,17808,0.00016,7e-05,0.0,0.00028,-0.00026000000000000003,9e-05,-2e-05,2.9999999999999997e-05,5
16856,17809,0.00016,7e-05,0.0,0.00028,-0.00026000000000000003,9e-05,-2e-05,2.9999999999999997e-05,5
16857,17810,0.00016,7e-05,0.0,0.00028,-0.00026000000000000003,9e-05,-2e-05,2.9999999999999997e-05,5
16858,17811,0.00016,7e-05,0.0,0.00028,-0.00026000000000000003,9e-05,-2e-05,2.9999999999999997e-05,5
16859,17812,0.00016,7e-05,0.0,0.00028,-0.00026000000000000003,9e-05,-2e-05,2.9999999999999997e-05,5
16860,17813,0.00016,7e-05,0.0,0.00028,-0.00026000000000000003,9e-05,-2e-05,2.9999999999999997e-05,5
16861,17814,0.00016,7e-05,0.0,0.00028,-0.00026000000000000003,9e-05,-2e-05,2.9999999999999997e-05,5
16862,17815,0.00016,7e-05,0.0,0.00028,-0.00026000000000000003,9e-05,-2e-05,2.9999999999999997e-05,5
16863,17816,0.00016,7e-05,0.0,0.00028,-0.00026000000000000003,9e-05,-2e-05,2.9999999999999997e-05,5
16864,17817,2e-05,-2e-05,0.00016,0.00021,0.00014,0.00022,5e-05,1e-05,5
16865,17818,-5.9999999999999995e-05,7e-05,5e-05,-0.0006799999999999999,-0.00073,-0.00021,-2e-05,2e-05,5
16866,17819,-0.00016,0.00022,0.00011,-7e-05,0.00063,2e-05,-1e-05,-1e-05,5
16867,17820,-0.00016,0.00022,0.00011,-7e-05,0.00063,2e-05,-1e-05,-1e-05,5
16868,17821,-0.00016,0.00022,0.00011,-7e-05,0.00063,2e-05,-1e-05,-1e-05,5
16869,17822,-0.00016,0.00022,0.00011,-7e-05,0.00063,2e-05,-1e-05,-1e-05,5
16870,17823,-0.00016,0.00022,0.00011,-7e-05,0.00063,2e-05,-1e-05,-1e-05,5
16871,17824,-0.00016,0.00022,0.00011,-7e-05,0.00063,2e-05,-1e-05,-1e-05,5
16872,17825,-0.00016,0.00022,0.00011,-7e-05,0.00063,2e-05,-1e-05,-1e-05,5
16873,17826,-0.00016,0.00022,0.00011,-7e-05,0.00063,2e-05,-1e-05,-1e-05,5
16874,17827,-0.00016,0.00022,0.00011,-7e-05,0.00063,2e-05,-1e-05,-1e-05,5
16875,17828,-0.00016,0.00022,0.00011,-7e-05,0.00063,2e-05,-1e-05,-1e-05,5
16876,17829,-0.00016,0.00022,0.00011,-7e-05,0.00063,2e-05,-1e-05,-1e-05,5
16877,17830,-0.00016,0.00022,0.00011,-7e-05,0.00063,2e-05,-1e-05,-1e-05,5
16878,17831,-0.00016,0.00022,0.00011,-7e-05,0.00063,2e-05,-1e-05,-1e-05,5
16879,17832,-0.00016,0.00022,0.00011,-7e-05,0.00063,2e-05,-1e-05,-1e-05,5
16880,17833,-0.00016,0.00022,0.00011,-7e-05,0.00063,2e-05,-1e-05,-1e-05,5
16881,17834,-0.00016,0.00022,0.00011,-7e-05,0.00063,2e-05,-1e-05,-1e-05,5
16882,17835,-0.00016,0.00022,0.00011,-7e-05,0.00063,2e-05,-1e-05,-1e-05,5
16883,17836,-0.00016,0.00022,0.00011,-7e-05,0.00063,2e-05,-1e-05,-1e-05,5
16884,17839,-0.00016,0.00022,0.00011,-7e-05,0.00063,2e-05,-1e-05,-1e-05,5
16885,17840,-2.9999999999999997e-05,-0.00016999999999999999,-9e-05,-4e-05,-0.00035,-0.0001,-2.9999999999999997e-05,2e-05,5
16886,17841,4e-05,2.9999999999999997e-05,-0.00018999999999999998,-8e-05,0.00016,-0.00016999999999999999,-5e-05,-5e-05,5
16887,17842,-0.00025,8e-05,4e-05,5.9999999999999995e-05,0.00011,-9e-05,-4e-05,-4e-05,5
16888,17843,-0.00025,8e-05,4e-05,5.9999999999999995e-05,0.00011,-9e-05,-4e-05,-4e-05,5
16889,17845,-0.00025,8e-05,4e-05,5.9999999999999995e-05,0.00011,-9e-05,-4e-05,-4e-05,5
16890,17846,-0.00025,8e-05,4e-05,5.9999999999999995e-05,0.00011,-9e-05,-4e-05,-4e-05,5
16891,17847,-0.00025,8e-05,4e-05,5.9999999999999995e-05,0.00011,-9e-05,-4e-05,-4e-05,5
16892,17848,-0.00025,8e-05,4e-05,5.9999999999999995e-05,0.00011,-9e-05,-4e-05,-4e-05,5
16893,17849,-0.00025,8e-05,4e-05,5.9999999999999995e-05,0.00011,-9e-05,-4e-05,-4e-05,5
16894,17850,-0.00025,8e-05,4e-05,5.9999999999999995e-05,0.00011,-9e-05,-4e-05,-4e-05,5
16895,17851,-0.00025,8e-05,4e-05,5.9999999999999995e-05,0.00011,-9e-05,-4e-05,-4e-05,5
16896,17852,-0.00025,8e-05,4e-05,5.9999999999999995e-05,0.00011,-9e-05,-4e-05,-4e-05,5
16897,17853,-0.00025,8e-05,4e-05,5.9999999999999995e-05,0.00011,-9e-05,-4e-05,-4e-05,5
16898,17854,-0.00022,4e-05,0.00011,0.00044,0.00088,0.00018,2e-05,-2.9999999999999997e-05,5
16899,17855,-0.00022,4e-05,0.00011,0.00044,0.00088,0.00018,2e-05,-2.9999999999999997e-05,5
16900,17856,-0.00022,4e-05,0.00011,0.00044,0.00088,0.00018,2e-05,-2.9999999999999997e-05,5
16901,17857,-0.00022,4e-05,0.00011,0.00044,0.00088,0.00018,2e-05,-2.9999999999999997e-05,5
16902,17858,-0.00022,4e-05,0.00011,0.00044,0.00088,0.00018,2e-05,-2.9999999999999997e-05,5
16903,17859,-0.00022,4e-05,0.00011,0.00044,0.00088,0.00018,2e-05,-2.9999999999999997e-05,5
16904,17860,-0.00022,4e-05,0.00011,0.00044,0.00088,0.00018,2e-05,-2.9999999999999997e-05,5
16905,17861,-0.00022,4e-05,0.00011,0.00044,0.00088,0.00018,2e-05,-2.9999999999999997e-05,5
16906,17862,-0.00022,4e-05,0.00011,0.00044,0.00088,0.00018,2e-05,-2.9999999999999997e-05,5
16907,17863,7e-05,-2e-05,4e-05,-0.00054,0.00016,0.00027,-1e-05,2e-05,5
16908,17864,7e-05,-2e-05,4e-05,-0.00054,0.00016,0.00027,-1e-05,2e-05,5
16909,17865,7e-05,-2e-05,4e-05,-0.00054,0.00016,0.00027,-1e-05,2e-05,5
16910,17866,7e-05,-2e-05,4e-05,-0.00054,0.00016,0.00027,-1e-05,2e-05,5
16911,17867,7e-05,-2e-05,4e-05,-0.00054,0.00016,0.00027,-1e-05,2e-05,5
16912,17868,7e-05,-2e-05,4e-05,-0.00054,0.00016,0.00027,-1e-05,2e-05,5
16913,17869,7e-05,-2e-05,4e-05,-0.00054,0.00016,0.00027,-1e-05,2e-05,5
16914,17870,7e-05,-2e-05,4e-05,-0.00054,0.00016,0.00027,-1e-05,2e-05,5
16915,17871,7e-05,-2e-05,4e-05,-0.00054,0.00016,0.00027,-1e-05,2e-05,5
16916,17872,7e-05,-2e-05,4e-05,-0.00054,0.00016,0.00027,-1e-05,2e-05,5
16917,17873,7e-05,-2e-05,4e-05,-0.00054,0.00016,0.00027,-1e-05,2e-05,5
16918,17874,7e-05,-2e-05,4e-05,-0.00054,0.00016,0.00027,-1e-05,2e-05,5
16919,17875,7e-05,-2e-05,4e-05,-0.00054,0.00016,0.00027,-1e-05,2e-05,5
16920,17876,7e-05,-2e-05,4e-05,-0.00054,0.00016,0.00027,-1e-05,2e-05,5
16921,17877,7e-05,-2e-05,4e-05,-0.00054,0.00016,0.00027,-1e-05,2e-05,5
16922,17878,-0.00011999999999999999,-0.00026000000000000003,-0.0001,-0.00015,0.00041,-0.00011,-5e-05,-4e-05,5
16923,17879,0.0,-5.9999999999999995e-05,4e-05,-0.00011999999999999999,-0.00082,0.00011999999999999999,5.9999999999999995e-05,-2.9999999999999997e-05,5
16924,17880,0.0,-5.9999999999999995e-05,4e-05,-0.00011999999999999999,-0.00082,0.00011999999999999999,5.9999999999999995e-05,-2.9999999999999997e-05,5
16925,17881,0.0,-5.9999999999999995e-05,4e-05,-0.00011999999999999999,-0.00082,0.00011999999999999999,5.9999999999999995e-05,-2.9999999999999997e-05,5
16926,17882,0.0,-5.9999999999999995e-05,4e-05,-0.00011999999999999999,-0.00082,0.00011999999999999999,5.9999999999999995e-05,-2.9999999999999997e-05,5
16927,17883,0.0,-5.9999999999999995e-05,4e-05,-0.00011999999999999999,-0.00082,0.00011999999999999999,5.9999999999999995e-05,-2.9999999999999997e-05,5
16928,17884,0.0,-5.9999999999999995e-05,4e-05,-0.00011999999999999999,-0.00082,0.00011999999999999999,5.9999999999999995e-05,-2.9999999999999997e-05,5
16929,17885,0.0,-5.9999999999999995e-05,4e-05,-0.00011999999999999999,-0.00082,0.00011999999999999999,5.9999999999999995e-05,-2.9999999999999997e-05,5
16930,17886,0.0,-5.9999999999999995e-05,4e-05,-0.00011999999999999999,-0.00082,0.00011999999999999999,5.9999999999999995e-05,-2.9999999999999997e-05,5
16931,17888,0.0,-5.9999999999999995e-05,4e-05,-0.00011999999999999999,-0.00082,0.00011999999999999999,5.9999999999999995e-05,-2.9999999999999997e-05,5
16932,17889,0.0,-5.9999999999999995e-05,4e-05,-0.00011999999999999999,-0.00082,0.00011999999999999999,5.9999999999999995e-05,-2.9999999999999997e-05,5
16933,17890,0.0,-5.9999999999999995e-05,4e-05,-0.00011999999999999999,-0.00082,0.00011999999999999999,5.9999999999999995e-05,-2.9999999999999997e-05,5
16934,17891,0.0,-5.9999999999999995e-05,4e-05,-0.00011999999999999999,-0.00082,0.00011999999999999999,5.9999999999999995e-05,-2.9999999999999997e-05,5
16935,17892,0.0,-5.9999999999999995e-05,4e-05,-0.00011999999999999999,-0.00082,0.00011999999999999999,5.9999999999999995e-05,-2.9999999999999997e-05,5
16936,17893,0.0,-5.9999999999999995e-05,4e-05,-0.00011999999999999999,-0.00082,0.00011999999999999999,5.9999999999999995e-05,-2.9999999999999997e-05,5
16937,17894,0.0,-5.9999999999999995e-05,4e-05,-0.00011999999999999999,-0.00082,0.00011999999999999999,5.9999999999999995e-05,-2.9999999999999997e-05,5
16938,17895,0.0,-5.9999999999999995e-05,4e-05,-0.00011999999999999999,-0.00082,0.00011999999999999999,5.9999999999999995e-05,-2.9999999999999997e-05,5
16939,17896,0.0,-5.9999999999999995e-05,4e-05,-0.00011999999999999999,-0.00082,0.00011999999999999999,5.9999999999999995e-05,-2.9999999999999997e-05,5
16940,17897,0.0,-5.9999999999999995e-05,4e-05,-0.00011999999999999999,-0.00082,0.00011999999999999999,5.9999999999999995e-05,-2.9999999999999997e-05,5
16941,17898,0.0,-5.9999999999999995e-05,4e-05,-0.00011999999999999999,-0.00082,0.00011999999999999999,5.9999999999999995e-05,-2.9999999999999997e-05,5
16942,17899,0.0,-5.9999999999999995e-05,4e-05,-0.00011999999999999999,-0.00082,0.00011999999999999999,5.9999999999999995e-05,-2.9999999999999997e-05,5
16943,17900,-0.00011999999999999999,-8e-05,-0.00022,-0.00033999999999999997,0.00011999999999999999,-5e-05,2.9999999999999997e-05,0.0,5
16944,17901,0.0003,5.9999999999999995e-05,2e-05,0.00042,-2.9999999999999997e-05,-2e-05,-2e-05,2e-05,5
16945,17902,0.00028,0.00011999999999999999,0.00022999999999999998,0.0005,0.00041,-0.0002,-5.9999999999999995e-05,-4e-05,5
16946,17903,0.00028,0.00011999999999999999,0.00022999999999999998,0.0005,0.00041,-0.0002,-5.9999999999999995e-05,-4e-05,5
16947,17905,0.00028,0.00011999999999999999,0.00022999999999999998,0.0005,0.00041,-0.0002,-5.9999999999999995e-05,-4e-05,5
16948,17906,0.00028,0.00011999999999999999,0.00022999999999999998,0.0005,0.00041,-0.0002,-5.9999999999999995e-05,-4e-05,5
16949,17907,0.00028,0.00011999999999999999,0.00022999999999999998,0.0005,0.00041,-0.0002,-5.9999999999999995e-05,-4e-05,5
16950,17908,0.00028,0.00011999999999999999,0.00022999999999999998,0.0005,0.00041,-0.0002,-5.9999999999999995e-05,-4e-05,5
16951,17909,0.00028,0.00011999999999999999,0.00022999999999999998,0.0005,0.00041,-0.0002,-5.9999999999999995e-05,-4e-05,5
16952,17910,0.00028,0.00011999999999999999,0.00022999999999999998,0.0005,0.00041,-0.0002,-5.9999999999999995e-05,-4e-05,5
16953,17911,0.00028,0.00011999999999999999,0.00022999999999999998,0.0005,0.00041,-0.0002,-5.9999999999999995e-05,-4e-05,5
16954,17912,0.00028,0.00011999999999999999,0.00022999999999999998,0.0005,0.00041,-0.0002,-5.9999999999999995e-05,-4e-05,5
16955,17913,0.00028,0.00011999999999999999,0.00022999999999999998,0.0005,0.00041,-0.0002,-5.9999999999999995e-05,-4e-05,5
16956,17914,-0.00022,-1e-05,2.9999999999999997e-05,0.00023999999999999998,-0.0001,9e-05,5.9999999999999995e-05,-2.9999999999999997e-05,5
16957,17915,-0.00022,-1e-05,2.9999999999999997e-05,0.00023999999999999998,-0.0001,9e-05,5.9999999999999995e-05,-2.9999999999999997e-05,5
16958,17916,-0.00022,-1e-05,2.9999999999999997e-05,0.00023999999999999998,-0.0001,9e-05,5.9999999999999995e-05,-2.9999999999999997e-05,5
16959,17917,-0.00022,-1e-05,2.9999999999999997e-05,0.00023999999999999998,-0.0001,9e-05,5.9999999999999995e-05,-2.9999999999999997e-05,5
16960,17918,-0.00022,-1e-05,2.9999999999999997e-05,0.00023999999999999998,-0.0001,9e-05,5.9999999999999995e-05,-2.9999999999999997e-05,5
16961,17919,-0.00022,-1e-05,2.9999999999999997e-05,0.00023999999999999998,-0.0001,9e-05,5.9999999999999995e-05,-2.9999999999999997e-05,5
16962,17920,-0.00022,-1e-05,2.9999999999999997e-05,0.00023999999999999998,-0.0001,9e-05,5.9999999999999995e-05,-2.9999999999999997e-05,5
16963,17921,-0.00022,-1e-05,2.9999999999999997e-05,0.00023999999999999998,-0.0001,9e-05,5.9999999999999995e-05,-2.9999999999999997e-05,5
16964,17922,-0.00022,-1e-05,2.9999999999999997e-05,0.00023999999999999998,-0.0001,9e-05,5.9999999999999995e-05,-2.9999999999999997e-05,5
16965,17923,0.00011,9e-05,4e-05,0.00041,-5.9999999999999995e-05,-2e-05,0.0,5.9999999999999995e-05,5
16966,17924,0.00011,9e-05,4e-05,0.00041,-5.9999999999999995e-05,-2e-05,0.0,5.9999999999999995e-05,5
16967,17925,0.00011,9e-05,4e-05,0.00041,-5.9999999999999995e-05,-2e-05,0.0,5.9999999999999995e-05,5
16968,17926,0.00011,9e-05,4e-05,0.00041,-5.9999999999999995e-05,-2e-05,0.0,5.9999999999999995e-05,5
16969,17927,0.00011,9e-05,4e-05,0.00041,-5.9999999999999995e-05,-2e-05,0.0,5.9999999999999995e-05,5
16970,17928,0.00011,9e-05,4e-05,0.00041,-5.9999999999999995e-05,-2e-05,0.0,5.9999999999999995e-05,5
16971,17929,0.00011,9e-05,4e-05,0.00041,-5.9999999999999995e-05,-2e-05,0.0,5.9999999999999995e-05,5
16972,17930,0.00011,9e-05,4e-05,0.00041,-5.9999999999999995e-05,-2e-05,0.0,5.9999999999999995e-05,5
16973,17931,0.00011,9e-05,4e-05,0.00041,-5.9999999999999995e-05,-2e-05,0.0,5.9999999999999995e-05,5
16974,17932,0.00011,9e-05,4e-05,0.00041,-5.9999999999999995e-05,-2e-05,0.0,5.9999999999999995e-05,5
16975,17933,0.00011,9e-05,4e-05,0.00041,-5.9999999999999995e-05,-2e-05,0.0,5.9999999999999995e-05,5
16976,17935,0.00011,9e-05,4e-05,0.00041,-5.9999999999999995e-05,-2e-05,0.0,5.9999999999999995e-05,5
16977,17936,0.00011,9e-05,4e-05,0.00041,-5.9999999999999995e-05,-2e-05,0.0,5.9999999999999995e-05,5
16978,17939,-0.00013000000000000002,-2e-05,2.9999999999999997e-05,-0.00015,-0.0003,-0.00018999999999999998,1e-05,-1e-05,5
16979,17940,-0.0001,-5e-05,-0.00016999999999999999,-0.0009400000000000001,-0.00029,-0.00035,5.9999999999999995e-05,2.9999999999999997e-05,5
16980,17941,-0.0001,-5e-05,-0.00016999999999999999,-0.0009400000000000001,-0.00029,-0.00035,5.9999999999999995e-05,2.9999999999999997e-05,5
16981,17942,-0.0001,-5e-05,-0.00016999999999999999,-0.0009400000000000001,-0.00029,-0.00035,5.9999999999999995e-05,2.9999999999999997e-05,5
16982,17943,-0.0001,-5e-05,-0.00016999999999999999,-0.0009400000000000001,-0.00029,-0.00035,5.9999999999999995e-05,2.9999999999999997e-05,5
16983,17944,-0.0001,-5e-05,-0.00016999999999999999,-0.0009400000000000001,-0.00029,-0.00035,5.9999999999999995e-05,2.9999999999999997e-05,5
16984,17945,-0.0001,-5e-05,-0.00016999999999999999,-0.0009400000000000001,-0.00029,-0.00035,5.9999999999999995e-05,2.9999999999999997e-05,5
16985,17946,-0.0001,-5e-05,-0.00016999999999999999,-0.0009400000000000001,-0.00029,-0.00035,5.9999999999999995e-05,2.9999999999999997e-05,5
16986,17947,-0.0001,-5e-05,-0.00016999999999999999,-0.0009400000000000001,-0.00029,-0.00035,5.9999999999999995e-05,2.9999999999999997e-05,5
16987,17948,-0.0001,-5e-05,-0.00016999999999999999,-0.0009400000000000001,-0.00029,-0.00035,5.9999999999999995e-05,2.9999999999999997e-05,5
16988,17949,-0.0001,-5e-05,-0.00016999999999999999,-0.0009400000000000001,-0.00029,-0.00035,5.9999999999999995e-05,2.9999999999999997e-05,5
16989,17950,-0.0001,-5e-05,-0.00016999999999999999,-0.0009400000000000001,-0.00029,-0.00035,5.9999999999999995e-05,2.9999999999999997e-05,5
16990,17951,-0.0001,-5e-05,-0.00016999999999999999,-0.0009400000000000001,-0.00029,-0.00035,5.9999999999999995e-05,2.9999999999999997e-05,5
16991,17952,-0.0001,-5e-05,-0.00016999999999999999,-0.0009400000000000001,-0.00029,-0.00035,5.9999999999999995e-05,2.9999999999999997e-05,5
16992,17953,-0.0001,-5e-05,-0.00016999999999999999,-0.0009400000000000001,-0.00029,-0.00035,5.9999999999999995e-05,2.9999999999999997e-05,5
16993,17955,-0.0001,-5e-05,-0.00016999999999999999,-0.0009400000000000001,-0.00029,-0.00035,5.9999999999999995e-05,2.9999999999999997e-05,5
16994,17956,-0.0001,-5e-05,-0.00016999999999999999,-0.0009400000000000001,-0.00029,-0.00035,5.9999999999999995e-05,2.9999999999999997e-05,5
16995,17957,-0.0001,-5e-05,-0.00016999999999999999,-0.0009400000000000001,-0.00029,-0.00035,5.9999999999999995e-05,2.9999999999999997e-05,5
16996,17958,-0.0001,-5e-05,-0.00016999999999999999,-0.0009400000000000001,-0.00029,-0.00035,5.9999999999999995e-05,2.9999999999999997e-05,5
16997,17959,-0.0001,-5e-05,-0.00016999999999999999,-0.0009400000000000001,-0.00029,-0.00035,5.9999999999999995e-05,2.9999999999999997e-05,5
16998,17960,-1e-05,-4e-05,-9e-05,-1e-05,0.00022999999999999998,0.00022999999999999998,0.00011,2.9999999999999997e-05,5
16999,17961,-1e-05,-4e-05,-9e-05,-1e-05,0.00022999999999999998,0.00022999999999999998,0.00011,2.9999999999999997e-05,5
17000,17962,2e-05,8e-05,-0.00022,-0.0005200000000000001,-0.00033999999999999997,1e-05,0.0,2.9999999999999997e-05,5
17001,17963,2e-05,8e-05,-0.00022,-0.0005200000000000001,-0.00033999999999999997,1e-05,0.0,2.9999999999999997e-05,5
17002,17965,2e-05,8e-05,-0.00022,-0.0005200000000000001,-0.00033999999999999997,1e-05,0.0,2.9999999999999997e-05,5
17003,17966,2e-05,8e-05,-0.00022,-0.0005200000000000001,-0.00033999999999999997,1e-05,0.0,2.9999999999999997e-05,5
17004,17967,2e-05,8e-05,-0.00022,-0.0005200000000000001,-0.00033999999999999997,1e-05,0.0,2.9999999999999997e-05,5
17005,17968,2e-05,8e-05,-0.00022,-0.0005200000000000001,-0.00033999999999999997,1e-05,0.0,2.9999999999999997e-05,5
17006,17969,2e-05,8e-05,-0.00022,-0.0005200000000000001,-0.00033999999999999997,1e-05,0.0,2.9999999999999997e-05,5
17007,17970,2e-05,8e-05,-0.00022,-0.0005200000000000001,-0.00033999999999999997,1e-05,0.0,2.9999999999999997e-05,5
17008,17971,2e-05,8e-05,-0.00022,-0.0005200000000000001,-0.00033999999999999997,1e-05,0.0,2.9999999999999997e-05,5
17009,17972,2e-05,8e-05,-0.00022,-0.0005200000000000001,-0.00033999999999999997,1e-05,0.0,2.9999999999999997e-05,5
17010,17973,2e-05,8e-05,-0.00022,-0.0005200000000000001,-0.00033999999999999997,1e-05,0.0,2.9999999999999997e-05,5
17011,17974,-2.9999999999999997e-05,-5e-05,4e-05,0.00039,-0.00026000000000000003,-0.00016999999999999999,-9e-05,-7e-05,5
17012,17975,5e-05,-7e-05,-5.9999999999999995e-05,5e-05,0.00018,0.00033,2.9999999999999997e-05,1e-05,5
17013,17976,5e-05,-7e-05,-5.9999999999999995e-05,5e-05,0.00018,0.00033,2.9999999999999997e-05,1e-05,5
17014,17977,5e-05,-7e-05,-5.9999999999999995e-05,5e-05,0.00018,0.00033,2.9999999999999997e-05,1e-05,5
17015,17978,5e-05,-7e-05,-5.9999999999999995e-05,5e-05,0.00018,0.00033,2.9999999999999997e-05,1e-05,5
17016,17979,5e-05,-7e-05,-5.9999999999999995e-05,5e-05,0.00018,0.00033,2.9999999999999997e-05,1e-05,5
17017,17980,5e-05,-7e-05,-5.9999999999999995e-05,5e-05,0.00018,0.00033,2.9999999999999997e-05,1e-05,5
17018,17981,5e-05,-7e-05,-5.9999999999999995e-05,5e-05,0.00018,0.00033,2.9999999999999997e-05,1e-05,5
17019,17982,5e-05,-7e-05,-5.9999999999999995e-05,5e-05,0.00018,0.00033,2.9999999999999997e-05,1e-05,5
17020,17983,-0.00022999999999999998,-4e-05,4e-05,5e-05,0.0001,5.9999999999999995e-05,-2e-05,-4e-05,5
17021,17984,-0.00022999999999999998,-4e-05,4e-05,5e-05,0.0001,5.9999999999999995e-05,-2e-05,-4e-05,5
17022,17985,-0.00022999999999999998,-4e-05,4e-05,5e-05,0.0001,5.9999999999999995e-05,-2e-05,-4e-05,5
17023,17986,-0.00022999999999999998,-4e-05,4e-05,5e-05,0.0001,5.9999999999999995e-05,-2e-05,-4e-05,5
17024,17988,-0.00022999999999999998,-4e-05,4e-05,5e-05,0.0001,5.9999999999999995e-05,-2e-05,-4e-05,5
17025,17989,-0.00022999999999999998,-4e-05,4e-05,5e-05,0.0001,5.9999999999999995e-05,-2e-05,-4e-05,5
17026,17990,-0.00022999999999999998,-4e-05,4e-05,5e-05,0.0001,5.9999999999999995e-05,-2e-05,-4e-05,5
17027,17991,-0.00022999999999999998,-4e-05,4e-05,5e-05,0.0001,5.9999999999999995e-05,-2e-05,-4e-05,5
17028,17992,-0.00022999999999999998,-4e-05,4e-05,5e-05,0.0001,5.9999999999999995e-05,-2e-05,-4e-05,5
17029,17993,-0.00022999999999999998,-4e-05,4e-05,5e-05,0.0001,5.9999999999999995e-05,-2e-05,-4e-05,5
17030,17994,-0.00022999999999999998,-4e-05,4e-05,5e-05,0.0001,5.9999999999999995e-05,-2e-05,-4e-05,5
17031,17995,-0.00022999999999999998,-4e-05,4e-05,5e-05,0.0001,5.9999999999999995e-05,-2e-05,-4e-05,5
17032,17996,-0.00022999999999999998,-4e-05,4e-05,5e-05,0.0001,5.9999999999999995e-05,-2e-05,-4e-05,5
17033,17997,0.00033999999999999997,1e-05,0.00014,0.00053,0.0002,-2e-05,-2e-05,2.9999999999999997e-05,5
17034,17998,-1e-05,0.00018999999999999998,-8e-05,-0.00067,-0.00036,-0.00013000000000000002,-0.00011999999999999999,-5e-05,5
17035,17999,9e-05,-4e-05,1e-05,-0.00015,2.9999999999999997e-05,2e-05,0.0,-2.9999999999999997e-05,5
17036,18000,9e-05,-4e-05,1e-05,-0.00015,2.9999999999999997e-05,2e-05,0.0,-2.9999999999999997e-05,5
17037,18001,9e-05,-4e-05,1e-05,-0.00015,2.9999999999999997e-05,2e-05,0.0,-2.9999999999999997e-05,5
17038,18002,9e-05,-4e-05,1e-05,-0.00015,2.9999999999999997e-05,2e-05,0.0,-2.9999999999999997e-05,5
17039,18003,9e-05,-4e-05,1e-05,-0.00015,2.9999999999999997e-05,2e-05,0.0,-2.9999999999999997e-05,5
17040,18004,9e-05,-4e-05,1e-05,-0.00015,2.9999999999999997e-05,2e-05,0.0,-2.9999999999999997e-05,5
17041,18005,9e-05,-4e-05,1e-05,-0.00015,2.9999999999999997e-05,2e-05,0.0,-2.9999999999999997e-05,5
17042,18006,9e-05,-4e-05,1e-05,-0.00015,2.9999999999999997e-05,2e-05,0.0,-2.9999999999999997e-05,5
17043,18007,9e-05,-4e-05,1e-05,-0.00015,2.9999999999999997e-05,2e-05,0.0,-2.9999999999999997e-05,5
17044,18008,9e-05,-4e-05,1e-05,-0.00015,2.9999999999999997e-05,2e-05,0.0,-2.9999999999999997e-05,5
17045,18009,9e-05,-4e-05,1e-05,-0.00015,2.9999999999999997e-05,2e-05,0.0,-2.9999999999999997e-05,5
17046,18010,9e-05,-4e-05,1e-05,-0.00015,2.9999999999999997e-05,2e-05,0.0,-2.9999999999999997e-05,5
17047,18011,9e-05,-4e-05,1e-05,-0.00015,2.9999999999999997e-05,2e-05,0.0,-2.9999999999999997e-05,5
17048,18012,9e-05,-4e-05,1e-05,-0.00015,2.9999999999999997e-05,2e-05,0.0,-2.9999999999999997e-05,5
17049,18013,9e-05,-4e-05,1e-05,-0.00015,2.9999999999999997e-05,2e-05,0.0,-2.9999999999999997e-05,5
17050,18014,9e-05,-4e-05,1e-05,-0.00015,2.9999999999999997e-05,2e-05,0.0,-2.9999999999999997e-05,5
17051,18015,9e-05,-4e-05,1e-05,-0.00015,2.9999999999999997e-05,2e-05,0.0,-2.9999999999999997e-05,5
17052,18016,9e-05,-4e-05,1e-05,-0.00015,2.9999999999999997e-05,2e-05,0.0,-2.9999999999999997e-05,5
17053,18017,9e-05,-4e-05,1e-05,-0.00015,2.9999999999999997e-05,2e-05,0.0,-2.9999999999999997e-05,5
17054,18018,9e-05,-4e-05,1e-05,-0.00015,2.9999999999999997e-05,2e-05,0.0,-2.9999999999999997e-05,5
17055,18019,9e-05,-4e-05,1e-05,-0.00015,2.9999999999999997e-05,2e-05,0.0,-2.9999999999999997e-05,5
17056,18020,5e-05,0.0,-5e-05,-0.00062,-0.00078,-0.00039,-0.00013000000000000002,-2.9999999999999997e-05,5
17057,18021,5e-05,0.0,-5e-05,-0.00062,-0.00078,-0.00039,-0.00013000000000000002,-2.9999999999999997e-05,5
17058,18022,-0.00015,-0.00029,-0.00054,-0.00047000000000000004,0.0002,4e-05,-0.0001,-7e-05,5
17059,18023,-0.00015,-0.00029,-0.00054,-0.00047000000000000004,0.0002,4e-05,-0.0001,-7e-05,5
17060,18024,-0.00015,-0.00029,-0.00054,-0.00047000000000000004,0.0002,4e-05,-0.0001,-7e-05,5
17061,18025,-0.00015,-0.00029,-0.00054,-0.00047000000000000004,0.0002,4e-05,-0.0001,-7e-05,5
17062,18026,-0.00015,-0.00029,-0.00054,-0.00047000000000000004,0.0002,4e-05,-0.0001,-7e-05,5
17063,18027,-0.00015,-0.00029,-0.00054,-0.00047000000000000004,0.0002,4e-05,-0.0001,-7e-05,5
17064,18028,-0.00015,-0.00029,-0.00054,-0.00047000000000000004,0.0002,4e-05,-0.0001,-7e-05,5
17065,18029,-0.00015,-0.00029,-0.00054,-0.00047000000000000004,0.0002,4e-05,-0.0001,-7e-05,5
17066,18030,-0.00015,-0.00029,-0.00054,-0.00047000000000000004,0.0002,4e-05,-0.0001,-7e-05,5
17067,18031,-0.00015,-0.00029,-0.00054,-0.00047000000000000004,0.0002,4e-05,-0.0001,-7e-05,5
17068,18032,-0.00015,-0.00029,-0.00054,-0.00047000000000000004,0.0002,4e-05,-0.0001,-7e-05,5
17069,18033,-0.00015,-0.00029,-0.00054,-0.00047000000000000004,0.0002,4e-05,-0.0001,-7e-05,5
17070,18034,-0.00015,-0.00029,-0.00054,-0.00047000000000000004,0.0002,4e-05,-0.0001,-7e-05,5
17071,18035,-0.00015,-0.00029,-0.00054,-0.00047000000000000004,0.0002,4e-05,-0.0001,-7e-05,5
17072,18036,-0.00015,-0.00029,-0.00054,-0.00047000000000000004,0.0002,4e-05,-0.0001,-7e-05,5
17073,18038,-0.00015,-0.00029,-0.00054,-0.00047000000000000004,0.0002,4e-05,-0.0001,-7e-05,5
17074,18039,-0.00015,-0.00029,-0.00054,-0.00047000000000000004,0.0002,4e-05,-0.0001,-7e-05,5
17075,18040,-0.00015,-0.00029,-0.00054,-0.00047000000000000004,0.0002,4e-05,-0.0001,-7e-05,5
17076,18041,-0.00015,-0.00029,-0.00054,-0.00047000000000000004,0.0002,4e-05,-0.0001,-7e-05,5
17077,18042,-0.00015,-0.00029,-0.00054,-0.00047000000000000004,0.0002,4e-05,-0.0001,-7e-05,5
17078,18043,0.00025,0.00018999999999999998,0.00016,0.00031,-7e-05,-0.00011999999999999999,-5.9999999999999995e-05,2.9999999999999997e-05,5
17079,18044,2.9999999999999997e-05,0.0,0.00026000000000000003,0.00042,-2.9999999999999997e-05,-0.00018999999999999998,-0.0001,-8e-05,5
17080,18045,2.9999999999999997e-05,0.0,0.00026000000000000003,0.00042,-2.9999999999999997e-05,-0.00018999999999999998,-0.0001,-8e-05,5
17081,18046,2.9999999999999997e-05,0.0,0.00026000000000000003,0.00042,-2.9999999999999997e-05,-0.00018999999999999998,-0.0001,-8e-05,5
17082,18047,2.9999999999999997e-05,0.0,0.00026000000000000003,0.00042,-2.9999999999999997e-05,-0.00018999999999999998,-0.0001,-8e-05,5
17083,18048,2.9999999999999997e-05,0.0,0.00026000000000000003,0.00042,-2.9999999999999997e-05,-0.00018999999999999998,-0.0001,-8e-05,5
17084,18049,2.9999999999999997e-05,0.0,0.00026000000000000003,0.00042,-2.9999999999999997e-05,-0.00018999999999999998,-0.0001,-8e-05,5
17085,18050,2.9999999999999997e-05,0.0,0.00026000000000000003,0.00042,-2.9999999999999997e-05,-0.00018999999999999998,-0.0001,-8e-05,5
17086,18051,2.9999999999999997e-05,0.0,0.00026000000000000003,0.00042,-2.9999999999999997e-05,-0.00018999999999999998,-0.0001,-8e-05,5
17087,18052,2.9999999999999997e-05,0.0,0.00026000000000000003,0.00042,-2.9999999999999997e-05,-0.00018999999999999998,-0.0001,-8e-05,5
17088,18053,2.9999999999999997e-05,0.0,0.00026000000000000003,0.00042,-2.9999999999999997e-05,-0.00018999999999999998,-0.0001,-8e-05,5
17089,18054,2.9999999999999997e-05,0.0,0.00026000000000000003,0.00042,-2.9999999999999997e-05,-0.00018999999999999998,-0.0001,-8e-05,5
17090,18055,2.9999999999999997e-05,0.0,0.00026000000000000003,0.00042,-2.9999999999999997e-05,-0.00018999999999999998,-0.0001,-8e-05,5
17091,18056,2.9999999999999997e-05,0.0,0.00026000000000000003,0.00042,-2.9999999999999997e-05,-0.00018999999999999998,-0.0001,-8e-05,5
17092,18057,2.9999999999999997e-05,0.0,0.00026000000000000003,0.00042,-2.9999999999999997e-05,-0.00018999999999999998,-0.0001,-8e-05,5
17093,18058,0.00015,-2e-05,-0.0002,5.9999999999999995e-05,-0.00025,-0.00014,0.0001,-1e-05,5
17094,18059,-0.0001,0.0,0.00011,0.00085,0.00085,0.00014,5e-05,2e-05,5
17095,18060,-0.0001,0.0,0.00011,0.00085,0.00085,0.00014,5e-05,2e-05,5
17096,18061,-0.0001,0.0,0.00011,0.00085,0.00085,0.00014,5e-05,2e-05,5
17097,18062,-0.0001,0.0,0.00011,0.00085,0.00085,0.00014,5e-05,2e-05,5
17098,18063,-0.0001,0.0,0.00011,0.00085,0.00085,0.00014,5e-05,2e-05,5
17099,18064,-0.0001,0.0,0.00011,0.00085,0.00085,0.00014,5e-05,2e-05,5
17100,18065,-0.0001,0.0,0.00011,0.00085,0.00085,0.00014,5e-05,2e-05,5
17101,18066,-0.0001,0.0,0.00011,0.00085,0.00085,0.00014,5e-05,2e-05,5
17102,18067,-0.0001,0.0,0.00011,0.00085,0.00085,0.00014,5e-05,2e-05,5
17103,18068,-0.0001,0.0,0.00011,0.00085,0.00085,0.00014,5e-05,2e-05,5
17104,18069,-0.0001,0.0,0.00011,0.00085,0.00085,0.00014,5e-05,2e-05,5
17105,18070,-0.0001,0.0,0.00011,0.00085,0.00085,0.00014,5e-05,2e-05,5
17106,18071,-0.0001,0.0,0.00011,0.00085,0.00085,0.00014,5e-05,2e-05,5
17107,18072,-0.0001,0.0,0.00011,0.00085,0.00085,0.00014,5e-05,2e-05,5
17108,18073,-0.0001,0.0,0.00011,0.00085,0.00085,0.00014,5e-05,2e-05,5
17109,18074,-0.0001,0.0,0.00011,0.00085,0.00085,0.00014,5e-05,2e-05,5
17110,18075,-0.0001,0.0,0.00011,0.00085,0.00085,0.00014,5e-05,2e-05,5
17111,18076,-0.0001,0.0,0.00011,0.00085,0.00085,0.00014,5e-05,2e-05,5
17112,18077,-0.0001,0.0,0.00011,0.00085,0.00085,0.00014,5e-05,2e-05,5
17113,18078,-0.0001,0.0,0.00011,0.00085,0.00085,0.00014,5e-05,2e-05,5
17114,18079,-0.0001,0.0,0.00011,0.00085,0.00085,0.00014,5e-05,2e-05,5
17115,18080,-0.00016999999999999999,-0.00022,-0.00018,-0.00066,-0.00026000000000000003,2e-05,-4e-05,-5e-05,5
17116,18081,-0.00016999999999999999,-0.00022,-0.00018,-0.00066,-0.00026000000000000003,2e-05,-4e-05,-5e-05,5
17117,18082,-2e-05,-0.00015,-0.00014,-0.00056,-0.00074,-0.00037,-9e-05,-9e-05,5
17118,18083,-2e-05,-0.00015,-0.00014,-0.00056,-0.00074,-0.00037,-9e-05,-9e-05,5
17119,18084,-2e-05,-0.00015,-0.00014,-0.00056,-0.00074,-0.00037,-9e-05,-9e-05,5
17120,18085,-2e-05,-0.00015,-0.00014,-0.00056,-0.00074,-0.00037,-9e-05,-9e-05,5
17121,18086,-2e-05,-0.00015,-0.00014,-0.00056,-0.00074,-0.00037,-9e-05,-9e-05,5
17122,18089,-2e-05,-0.00015,-0.00014,-0.00056,-0.00074,-0.00037,-9e-05,-9e-05,5
17123,18091,-2e-05,-0.00015,-0.00014,-0.00056,-0.00074,-0.00037,-9e-05,-9e-05,5
17124,18092,-2e-05,-0.00015,-0.00014,-0.00056,-0.00074,-0.00037,-9e-05,-9e-05,5
17125,18093,-2e-05,-0.00015,-0.00014,-0.00056,-0.00074,-0.00037,-9e-05,-9e-05,5
17126,18094,-0.00018999999999999998,-5.9999999999999995e-05,-0.00016999999999999999,0.0008699999999999999,0.00062,5e-05,-2e-05,-5e-05,5
17127,18095,-0.00018999999999999998,-5.9999999999999995e-05,-0.00016999999999999999,0.0008699999999999999,0.00062,5e-05,-2e-05,-5e-05,5
17128,18096,-0.00018999999999999998,-5.9999999999999995e-05,-0.00016999999999999999,0.0008699999999999999,0.00062,5e-05,-2e-05,-5e-05,5
17129,18097,-0.00018999999999999998,-5.9999999999999995e-05,-0.00016999999999999999,0.0008699999999999999,0.00062,5e-05,-2e-05,-5e-05,5
17130,18098,-0.00018999999999999998,-5.9999999999999995e-05,-0.00016999999999999999,0.0008699999999999999,0.00062,5e-05,-2e-05,-5e-05,5
17131,18099,-0.00018999999999999998,-5.9999999999999995e-05,-0.00016999999999999999,0.0008699999999999999,0.00062,5e-05,-2e-05,-5e-05,5
17132,18100,-0.00018999999999999998,-5.9999999999999995e-05,-0.00016999999999999999,0.0008699999999999999,0.00062,5e-05,-2e-05,-5e-05,5
17133,18101,-0.00018999999999999998,-5.9999999999999995e-05,-0.00016999999999999999,0.0008699999999999999,0.00062,5e-05,-2e-05,-5e-05,5
17134,18102,-0.00018999999999999998,-5.9999999999999995e-05,-0.00016999999999999999,0.0008699999999999999,0.00062,5e-05,-2e-05,-5e-05,5
17135,18103,7e-05,-2e-05,-5.9999999999999995e-05,-0.00014,-0.00029,0.0001,5e-05,2.9999999999999997e-05,5
17136,18104,7e-05,-2e-05,-5.9999999999999995e-05,-0.00014,-0.00029,0.0001,5e-05,2.9999999999999997e-05,5
17137,18105,7e-05,-2e-05,-5.9999999999999995e-05,-0.00014,-0.00029,0.0001,5e-05,2.9999999999999997e-05,5
17138,18106,7e-05,-2e-05,-5.9999999999999995e-05,-0.00014,-0.00029,0.0001,5e-05,2.9999999999999997e-05,5
17139,18107,7e-05,-2e-05,-5.9999999999999995e-05,-0.00014,-0.00029,0.0001,5e-05,2.9999999999999997e-05,5
17140,18108,7e-05,-2e-05,-5.9999999999999995e-05,-0.00014,-0.00029,0.0001,5e-05,2.9999999999999997e-05,5
17141,18109,7e-05,-2e-05,-5.9999999999999995e-05,-0.00014,-0.00029,0.0001,5e-05,2.9999999999999997e-05,5
17142,18110,7e-05,-2e-05,-5.9999999999999995e-05,-0.00014,-0.00029,0.0001,5e-05,2.9999999999999997e-05,5
17143,18111,7e-05,-2e-05,-5.9999999999999995e-05,-0.00014,-0.00029,0.0001,5e-05,2.9999999999999997e-05,5
17144,18112,7e-05,-2e-05,-5.9999999999999995e-05,-0.00014,-0.00029,0.0001,5e-05,2.9999999999999997e-05,5
17145,18113,7e-05,-2e-05,-5.9999999999999995e-05,-0.00014,-0.00029,0.0001,5e-05,2.9999999999999997e-05,5
17146,18114,7e-05,-2e-05,-5.9999999999999995e-05,-0.00014,-0.00029,0.0001,5e-05,2.9999999999999997e-05,5
17147,18115,7e-05,-2e-05,-5.9999999999999995e-05,-0.00014,-0.00029,0.0001,5e-05,2.9999999999999997e-05,5
17148,18116,7e-05,-2e-05,-5.9999999999999995e-05,-0.00014,-0.00029,0.0001,5e-05,2.9999999999999997e-05,5
17149,18117,0.00018,-7e-05,-0.00013000000000000002,-0.0006900000000000001,-0.00063,-4e-05,5e-05,-2e-05,5
17150,18118,-2e-05,0.0001,-4e-05,-0.00058,-0.00041,-0.00015,-2.9999999999999997e-05,-5.9999999999999995e-05,5
17151,18119,0.00011,-4e-05,0.00011999999999999999,0.0008,-0.00016999999999999999,8e-05,-4e-05,-1e-05,5
17152,18120,0.00011,-4e-05,0.00011999999999999999,0.0008,-0.00016999999999999999,8e-05,-4e-05,-1e-05,5
17153,18121,0.00011,-4e-05,0.00011999999999999999,0.0008,-0.00016999999999999999,8e-05,-4e-05,-1e-05,5
17154,18122,0.00011,-4e-05,0.00011999999999999999,0.0008,-0.00016999999999999999,8e-05,-4e-05,-1e-05,5
17155,18123,0.00011,-4e-05,0.00011999999999999999,0.0008,-0.00016999999999999999,8e-05,-4e-05,-1e-05,5
17156,18124,0.00011,-4e-05,0.00011999999999999999,0.0008,-0.00016999999999999999,8e-05,-4e-05,-1e-05,5
17157,18125,0.00011,-4e-05,0.00011999999999999999,0.0008,-0.00016999999999999999,8e-05,-4e-05,-1e-05,5
17158,18126,0.00011,-4e-05,0.00011999999999999999,0.0008,-0.00016999999999999999,8e-05,-4e-05,-1e-05,5
17159,18127,0.00011,-4e-05,0.00011999999999999999,0.0008,-0.00016999999999999999,8e-05,-4e-05,-1e-05,5
17160,18128,0.00011,-4e-05,0.00011999999999999999,0.0008,-0.00016999999999999999,8e-05,-4e-05,-1e-05,5
17161,18129,0.00011,-4e-05,0.00011999999999999999,0.0008,-0.00016999999999999999,8e-05,-4e-05,-1e-05,5
17162,18130,0.00011,-4e-05,0.00011999999999999999,0.0008,-0.00016999999999999999,8e-05,-4e-05,-1e-05,5
17163,18131,0.00011,-4e-05,0.00011999999999999999,0.0008,-0.00016999999999999999,8e-05,-4e-05,-1e-05,5
17164,18132,0.00011,-4e-05,0.00011999999999999999,0.0008,-0.00016999999999999999,8e-05,-4e-05,-1e-05,5
17165,18133,0.00011,-4e-05,0.00011999999999999999,0.0008,-0.00016999999999999999,8e-05,-4e-05,-1e-05,5
17166,18134,0.00011,-4e-05,0.00011999999999999999,0.0008,-0.00016999999999999999,8e-05,-4e-05,-1e-05,5
17167,18135,0.00011,-4e-05,0.00011999999999999999,0.0008,-0.00016999999999999999,8e-05,-4e-05,-1e-05,5
17168,18137,0.00011,-4e-05,0.00011999999999999999,0.0008,-0.00016999999999999999,8e-05,-4e-05,-1e-05,5
17169,18140,0.00011,-4e-05,0.00011999999999999999,0.0008,-0.00016999999999999999,8e-05,-4e-05,-1e-05,5
17170,18142,-8e-05,0.00029,2e-05,0.00037999999999999997,0.0007,5e-05,-1e-05,5e-05,5
17171,18143,-7e-05,-2e-05,-5e-05,0.00013000000000000002,-4e-05,-0.00022,-8e-05,-4e-05,5
17172,18144,-7e-05,-2e-05,-5e-05,0.00013000000000000002,-4e-05,-0.00022,-8e-05,-4e-05,5
17173,18145,-7e-05,-2e-05,-5e-05,0.00013000000000000002,-4e-05,-0.00022,-8e-05,-4e-05,5
17174,18146,-7e-05,-2e-05,-5e-05,0.00013000000000000002,-4e-05,-0.00022,-8e-05,-4e-05,5
17175,18147,-7e-05,-2e-05,-5e-05,0.00013000000000000002,-4e-05,-0.00022,-8e-05,-4e-05,5
17176,18148,-7e-05,-2e-05,-5e-05,0.00013000000000000002,-4e-05,-0.00022,-8e-05,-4e-05,5
17177,18149,-7e-05,-2e-05,-5e-05,0.00013000000000000002,-4e-05,-0.00022,-8e-05,-4e-05,5
17178,18150,-7e-05,-2e-05,-5e-05,0.00013000000000000002,-4e-05,-0.00022,-8e-05,-4e-05,5
17179,18151,-7e-05,-2e-05,-5e-05,0.00013000000000000002,-4e-05,-0.00022,-8e-05,-4e-05,5
17180,18152,-7e-05,-2e-05,-5e-05,0.00013000000000000002,-4e-05,-0.00022,-8e-05,-4e-05,5
17181,18153,-7e-05,-2e-05,-5e-05,0.00013000000000000002,-4e-05,-0.00022,-8e-05,-4e-05,5
17182,18154,-0.00016,-0.00016999999999999999,7e-05,-0.00027,-0.00128,-0.0003,0.0,-5e-05,5
17183,18155,-0.00016,-0.00016999999999999999,7e-05,-0.00027,-0.00128,-0.0003,0.0,-5e-05,5
17184,18156,-0.00016,-0.00016999999999999999,7e-05,-0.00027,-0.00128,-0.0003,0.0,-5e-05,5
17185,18157,-0.00016,-0.00016999999999999999,7e-05,-0.00027,-0.00128,-0.0003,0.0,-5e-05,5
17186,18158,-0.00016,-0.00016999999999999999,7e-05,-0.00027,-0.00128,-0.0003,0.0,-5e-05,5
17187,18159,-0.00016,-0.00016999999999999999,7e-05,-0.00027,-0.00128,-0.0003,0.0,-5e-05,5
17188,18160,-0.00016,-0.00016999999999999999,7e-05,-0.00027,-0.00128,-0.0003,0.0,-5e-05,5
17189,18161,-0.00016,-0.00016999999999999999,7e-05,-0.00027,-0.00128,-0.0003,0.0,-5e-05,5
17190,18162,-0.00016,-0.00016999999999999999,7e-05,-0.00027,-0.00128,-0.0003,0.0,-5e-05,5
17191,18163,-0.00015,-5e-05,5e-05,2e-05,-0.00037999999999999997,-0.00011999999999999999,-4e-05,-2.9999999999999997e-05,5
17192,18164,-0.00015,-5e-05,5e-05,2e-05,-0.00037999999999999997,-0.00011999999999999999,-4e-05,-2.9999999999999997e-05,5
17193,18165,-0.00015,-5e-05,5e-05,2e-05,-0.00037999999999999997,-0.00011999999999999999,-4e-05,-2.9999999999999997e-05,5
17194,18166,-0.00015,-5e-05,5e-05,2e-05,-0.00037999999999999997,-0.00011999999999999999,-4e-05,-2.9999999999999997e-05,5
17195,18167,-0.00015,-5e-05,5e-05,2e-05,-0.00037999999999999997,-0.00011999999999999999,-4e-05,-2.9999999999999997e-05,5
17196,18168,-0.00015,-5e-05,5e-05,2e-05,-0.00037999999999999997,-0.00011999999999999999,-4e-05,-2.9999999999999997e-05,5
17197,18169,-0.00015,-5e-05,5e-05,2e-05,-0.00037999999999999997,-0.00011999999999999999,-4e-05,-2.9999999999999997e-05,5
17198,18170,-0.00015,-5e-05,5e-05,2e-05,-0.00037999999999999997,-0.00011999999999999999,-4e-05,-2.9999999999999997e-05,5
17199,18171,-0.00015,-5e-05,5e-05,2e-05,-0.00037999999999999997,-0.00011999999999999999,-4e-05,-2.9999999999999997e-05,5
17200,18172,-0.00015,-5e-05,5e-05,2e-05,-0.00037999999999999997,-0.00011999999999999999,-4e-05,-2.9999999999999997e-05,5
17201,18173,-0.00015,-5e-05,5e-05,2e-05,-0.00037999999999999997,-0.00011999999999999999,-4e-05,-2.9999999999999997e-05,5
17202,18174,-0.00015,-5e-05,5e-05,2e-05,-0.00037999999999999997,-0.00011999999999999999,-4e-05,-2.9999999999999997e-05,5
17203,18175,-0.00015,-5e-05,5e-05,2e-05,-0.00037999999999999997,-0.00011999999999999999,-4e-05,-2.9999999999999997e-05,5
17204,18176,-0.00015,-5e-05,5e-05,2e-05,-0.00037999999999999997,-0.00011999999999999999,-4e-05,-2.9999999999999997e-05,5
17205,18177,2e-05,-2.9999999999999997e-05,-2e-05,-4e-05,0.00047000000000000004,0.00016,9e-05,5.9999999999999995e-05,5
17206,18178,-0.00015,-1e-05,-2e-05,0.00014,-0.00027,-0.00013000000000000002,-0.00014,-0.00011999999999999999,5
17207,18179,-2.9999999999999997e-05,-0.00015,-0.00025,-0.00057,-0.00022,-1e-05,5.9999999999999995e-05,5e-05,5
17208,18180,-2.9999999999999997e-05,-0.00015,-0.00025,-0.00057,-0.00022,-1e-05,5.9999999999999995e-05,5e-05,5
17209,18181,-2.9999999999999997e-05,-0.00015,-0.00025,-0.00057,-0.00022,-1e-05,5.9999999999999995e-05,5e-05,5
17210,18182,-2.9999999999999997e-05,-0.00015,-0.00025,-0.00057,-0.00022,-1e-05,5.9999999999999995e-05,5e-05,5
17211,18183,-2.9999999999999997e-05,-0.00015,-0.00025,-0.00057,-0.00022,-1e-05,5.9999999999999995e-05,5e-05,5
17212,18184,-2.9999999999999997e-05,-0.00015,-0.00025,-0.00057,-0.00022,-1e-05,5.9999999999999995e-05,5e-05,5
17213,18185,-2.9999999999999997e-05,-0.00015,-0.00025,-0.00057,-0.00022,-1e-05,5.9999999999999995e-05,5e-05,5
17214,18186,-2.9999999999999997e-05,-0.00015,-0.00025,-0.00057,-0.00022,-1e-05,5.9999999999999995e-05,5e-05,5
17215,18188,-2.9999999999999997e-05,-0.00015,-0.00025,-0.00057,-0.00022,-1e-05,5.9999999999999995e-05,5e-05,5
17216,18190,-2.9999999999999997e-05,-0.00015,-0.00025,-0.00057,-0.00022,-1e-05,5.9999999999999995e-05,5e-05,5
17217,18191,-2.9999999999999997e-05,-0.00015,-0.00025,-0.00057,-0.00022,-1e-05,5.9999999999999995e-05,5e-05,5
17218,18192,-2.9999999999999997e-05,-0.00015,-0.00025,-0.00057,-0.00022,-1e-05,5.9999999999999995e-05,5e-05,5
17219,18193,-2.9999999999999997e-05,-0.00015,-0.00025,-0.00057,-0.00022,-1e-05,5.9999999999999995e-05,5e-05,5
17220,18194,-2.9999999999999997e-05,-0.00015,-0.00025,-0.00057,-0.00022,-1e-05,5.9999999999999995e-05,5e-05,5
17221,18195,-2.9999999999999997e-05,-0.00015,-0.00025,-0.00057,-0.00022,-1e-05,5.9999999999999995e-05,5e-05,5
17222,18196,-2.9999999999999997e-05,-0.00015,-0.00025,-0.00057,-0.00022,-1e-05,5.9999999999999995e-05,5e-05,5
17223,18197,-2.9999999999999997e-05,-0.00015,-0.00025,-0.00057,-0.00022,-1e-05,5.9999999999999995e-05,5e-05,5
17224,18198,-2.9999999999999997e-05,-0.00015,-0.00025,-0.00057,-0.00022,-1e-05,5.9999999999999995e-05,5e-05,5
17225,18199,-2.9999999999999997e-05,-0.00015,-0.00025,-0.00057,-0.00022,-1e-05,5.9999999999999995e-05,5e-05,5
17226,18200,-7e-05,-0.00011999999999999999,0.0003,0.00103,0.00043,9e-05,4e-05,-4e-05,5
17227,18201,-0.00026000000000000003,-0.00022999999999999998,-0.00022,-0.00065,-0.0008300000000000001,-0.00031,-0.00013000000000000002,-5.9999999999999995e-05,5
17228,18202,0.00086,0.00031,1e-05,4e-05,0.00045,0.00013000000000000002,0.0,5.9999999999999995e-05,5
17229,18203,0.00086,0.00031,1e-05,4e-05,0.00045,0.00013000000000000002,0.0,5.9999999999999995e-05,5
17230,18204,0.00086,0.00031,1e-05,4e-05,0.00045,0.00013000000000000002,0.0,5.9999999999999995e-05,5
17231,18205,0.00086,0.00031,1e-05,4e-05,0.00045,0.00013000000000000002,0.0,5.9999999999999995e-05,5
17232,18206,0.00086,0.00031,1e-05,4e-05,0.00045,0.00013000000000000002,0.0,5.9999999999999995e-05,5
17233,18207,0.00086,0.00031,1e-05,4e-05,0.00045,0.00013000000000000002,0.0,5.9999999999999995e-05,5
17234,18208,0.00086,0.00031,1e-05,4e-05,0.00045,0.00013000000000000002,0.0,5.9999999999999995e-05,5
17235,18209,0.00086,0.00031,1e-05,4e-05,0.00045,0.00013000000000000002,0.0,5.9999999999999995e-05,5
17236,18210,0.00086,0.00031,1e-05,4e-05,0.00045,0.00013000000000000002,0.0,5.9999999999999995e-05,5
