,time,channel1,channel2,channel3,channel4,channel5,channel6,channel7,channel8,class
20998,21766,0.00016999999999999999,-8e-05,2e-05,-4e-05,-0.00011,0.0001,0.0001,1e-05,5
20999,21767,0.00016999999999999999,-8e-05,2e-05,-4e-05,-0.00011,0.0001,0.0001,1e-05,5
21000,21768,0.00016999999999999999,-8e-05,2e-05,-4e-05,-0.00011,0.0001,0.0001,1e-05,5
21001,21769,0.00016999999999999999,-8e-05,2e-05,-4e-05,-0.00011,0.0001,0.0001,1e-05,5
21002,21770,0.00016999999999999999,-8e-05,2e-05,-4e-05,-0.00011,0.0001,0.0001,1e-05,5
21003,21771,0.00016999999999999999,-8e-05,2e-05,-4e-05,-0.00011,0.0001,0.0001,1e-05,5
21004,21772,0.00016999999999999999,-8e-05,2e-05,-4e-05,-0.00011,0.0001,0.0001,1e-05,5
21005,21773,0.00016999999999999999,-8e-05,2e-05,-4e-05,-0.00011,0.0001,0.0001,1e-05,5
21006,21774,0.00016999999999999999,-8e-05,2e-05,-4e-05,-0.00011,0.0001,0.0001,1e-05,5
21007,21775,0.00016999999999999999,-8e-05,2e-05,-4e-05,-0.00011,0.0001,0.0001,1e-05,5
21008,21776,-0.00016999999999999999,-2.9999999999999997e-05,2e-05,-0.00011,0.00018,2.9999999999999997e-05,5e-05,4e-05,5
21009,21777,2.9999999999999997e-05,1e-05,-0.00011,0.00015,0.00015,-7e-05,4e-05,2.9999999999999997e-05,5
21010,21778,2.9999999999999997e-05,1e-05,-0.00011,0.00015,0.00015,-7e-05,4e-05,2.9999999999999997e-05,5
21011,21779,2.9999999999999997e-05,1e-05,-0.00011,0.00015,0.00015,-7e-05,4e-05,2.9999999999999997e-05,5
21012,21780,2.9999999999999997e-05,1e-05,-0.00011,0.00015,0.00015,-7e-05,4e-05,2.9999999999999997e-05,5
21013,21781,2.9999999999999997e-05,1e-05,-0.00011,0.00015,0.00015,-7e-05,4e-05,2.9999999999999997e-05,5
21014,21782,2.9999999999999997e-05,1e-05,-0.00011,0.00015,0.00015,-7e-05,4e-05,2.9999999999999997e-05,5
21015,21783,-1e-05,2.9999999999999997e-05,0.00013000000000000002,-8e-05,0.00011999999999999999,0.00011999999999999999,0.0001,7e-05,5
21016,21784,-1e-05,2.9999999999999997e-05,0.00013000000000000002,-8e-05,0.00011999999999999999,0.00011999999999999999,0.0001,7e-05,5
21017,21785,-1e-05,2.9999999999999997e-05,0.00013000000000000002,-8e-05,0.00011999999999999999,0.00011999999999999999,0.0001,7e-05,5
21018,21786,-1e-05,2.9999999999999997e-05,0.00013000000000000002,-8e-05,0.00011999999999999999,0.00011999999999999999,0.0001,7e-05,5
21019,21789,-1e-05,2.9999999999999997e-05,0.00013000000000000002,-8e-05,0.00011999999999999999,0.00011999999999999999,0.0001,7e-05,5
21020,21790,-1e-05,2.9999999999999997e-05,0.00013000000000000002,-8e-05,0.00011999999999999999,0.00011999999999999999,0.0001,7e-05,5
21021,21791,-1e-05,2.9999999999999997e-05,0.00013000000000000002,-8e-05,0.00011999999999999999,0.00011999999999999999,0.0001,7e-05,5
21022,21792,-1e-05,2.9999999999999997e-05,0.00013000000000000002,-8e-05,0.00011999999999999999,0.00011999999999999999,0.0001,7e-05,5
21023,21793,-1e-05,2.9999999999999997e-05,0.00013000000000000002,-8e-05,0.00011999999999999999,0.00011999999999999999,0.0001,7e-05,5
21024,21794,-1e-05,2.9999999999999997e-05,0.00013000000000000002,-8e-05,0.00011999999999999999,0.00011999999999999999,0.0001,7e-05,5
21025,21795,-1e-05,2.9999999999999997e-05,0.00013000000000000002,-8e-05,0.00011999999999999999,0.00011999999999999999,0.0001,7e-05,5
21026,21796,-1e-05,2.9999999999999997e-05,0.00013000000000000002,-8e-05,0.00011999999999999999,0.00011999999999999999,0.0001,7e-05,5
21027,21797,-1e-05,2.9999999999999997e-05,0.00013000000000000002,-8e-05,0.00011999999999999999,0.00011999999999999999,0.0001,7e-05,5
21028,21798,-1e-05,2.9999999999999997e-05,0.00013000000000000002,-8e-05,0.00011999999999999999,0.00011999999999999999,0.0001,7e-05,5
21029,21799,-1e-05,2.9999999999999997e-05,0.00013000000000000002,-8e-05,0.00011999999999999999,0.00011999999999999999,0.0001,7e-05,5
21030,21800,4e-05,-1e-05,-0.00018,0.00032,0.00018999999999999998,0.00033999999999999997,-5.9999999999999995e-05,-5e-05,5
21031,21801,0.00016,-2.9999999999999997e-05,0.0002,0.0006,0.00067,0.0007099999999999999,-5.9999999999999995e-05,8e-05,5
21032,21802,0.00016,-2.9999999999999997e-05,0.0002,0.0006,0.00067,0.0007099999999999999,-5.9999999999999995e-05,8e-05,5
21033,21803,0.00016,-2.9999999999999997e-05,0.0002,0.0006,0.00067,0.0007099999999999999,-5.9999999999999995e-05,8e-05,5
21034,21804,0.00016,-2.9999999999999997e-05,0.0002,0.0006,0.00067,0.0007099999999999999,-5.9999999999999995e-05,8e-05,5
21035,21805,0.00016,-2.9999999999999997e-05,0.0002,0.0006,0.00067,0.0007099999999999999,-5.9999999999999995e-05,8e-05,5
21036,21806,0.00016,-2.9999999999999997e-05,0.0002,0.0006,0.00067,0.0007099999999999999,-5.9999999999999995e-05,8e-05,5
21037,21807,0.00016,-2.9999999999999997e-05,0.0002,0.0006,0.00067,0.0007099999999999999,-5.9999999999999995e-05,8e-05,5
21038,21808,0.00016,-2.9999999999999997e-05,0.0002,0.0006,0.00067,0.0007099999999999999,-5.9999999999999995e-05,8e-05,5
21039,21809,0.00016,-2.9999999999999997e-05,0.0002,0.0006,0.00067,0.0007099999999999999,-5.9999999999999995e-05,8e-05,5
21040,21810,0.00016,-2.9999999999999997e-05,0.0002,0.0006,0.00067,0.0007099999999999999,-5.9999999999999995e-05,8e-05,5
21041,21811,0.00016,-2.9999999999999997e-05,0.0002,0.0006,0.00067,0.0007099999999999999,-5.9999999999999995e-05,8e-05,5
21042,21812,0.00016,-2.9999999999999997e-05,0.0002,0.0006,0.00067,0.0007099999999999999,-5.9999999999999995e-05,8e-05,5
21043,21813,0.00016,-2.9999999999999997e-05,0.0002,0.0006,0.00067,0.0007099999999999999,-5.9999999999999995e-05,8e-05,5
21044,21814,0.00016,-2.9999999999999997e-05,0.0002,0.0006,0.00067,0.0007099999999999999,-5.9999999999999995e-05,8e-05,5
21045,21815,0.00016,-2.9999999999999997e-05,0.0002,0.0006,0.00067,0.0007099999999999999,-5.9999999999999995e-05,8e-05,5
21046,21816,0.00016,-2.9999999999999997e-05,0.0002,0.0006,0.00067,0.0007099999999999999,-5.9999999999999995e-05,8e-05,5
21047,21817,0.00016,-2.9999999999999997e-05,0.0002,0.0006,0.00067,0.0007099999999999999,-5.9999999999999995e-05,8e-05,5
21048,21818,0.00016,-2.9999999999999997e-05,0.0002,0.0006,0.00067,0.0007099999999999999,-5.9999999999999995e-05,8e-05,5
21049,21819,0.00016,-2.9999999999999997e-05,0.0002,0.0006,0.00067,0.0007099999999999999,-5.9999999999999995e-05,8e-05,5
21050,21820,0.00016,-2.9999999999999997e-05,0.0002,0.0006,0.00067,0.0007099999999999999,-5.9999999999999995e-05,8e-05,5
21051,21821,0.00016,-2.9999999999999997e-05,0.0002,0.0006,0.00067,0.0007099999999999999,-5.9999999999999995e-05,8e-05,5
21052,21822,0.00015,-2e-05,0.00018999999999999998,-0.00061,-9e-05,4e-05,7e-05,0.0002,5
21053,21823,0.00015,-2e-05,0.00018999999999999998,-0.00061,-9e-05,4e-05,7e-05,0.0002,5
21054,21824,0.0,-2.9999999999999997e-05,-0.0001,-0.00018,-0.00016,0.0,-0.00018999999999999998,-5.9999999999999995e-05,5
21055,21825,0.0,-2.9999999999999997e-05,-0.0001,-0.00018,-0.00016,0.0,-0.00018999999999999998,-5.9999999999999995e-05,5
21056,21826,0.0,-2.9999999999999997e-05,-0.0001,-0.00018,-0.00016,0.0,-0.00018999999999999998,-5.9999999999999995e-05,5
21057,21827,0.0,-2.9999999999999997e-05,-0.0001,-0.00018,-0.00016,0.0,-0.00018999999999999998,-5.9999999999999995e-05,5
21058,21828,0.0,-2.9999999999999997e-05,-0.0001,-0.00018,-0.00016,0.0,-0.00018999999999999998,-5.9999999999999995e-05,5
21059,21829,0.0,-2.9999999999999997e-05,-0.0001,-0.00018,-0.00016,0.0,-0.00018999999999999998,-5.9999999999999995e-05,5
21060,21830,0.0,-2.9999999999999997e-05,-0.0001,-0.00018,-0.00016,0.0,-0.00018999999999999998,-5.9999999999999995e-05,5
21061,21831,0.0,-2.9999999999999997e-05,-0.0001,-0.00018,-0.00016,0.0,-0.00018999999999999998,-5.9999999999999995e-05,5
21062,21832,0.0,-2.9999999999999997e-05,-0.0001,-0.00018,-0.00016,0.0,-0.00018999999999999998,-5.9999999999999995e-05,5
21063,21833,0.0,-2.9999999999999997e-05,-0.0001,-0.00018,-0.00016,0.0,-0.00018999999999999998,-5.9999999999999995e-05,5
21064,21834,0.0,-2.9999999999999997e-05,-0.0001,-0.00018,-0.00016,0.0,-0.00018999999999999998,-5.9999999999999995e-05,5
21065,21835,0.0,-2.9999999999999997e-05,-0.0001,-0.00018,-0.00016,0.0,-0.00018999999999999998,-5.9999999999999995e-05,5
21066,21836,0.00041,-2e-05,-2.9999999999999997e-05,-0.00011999999999999999,0.0001,-0.00018999999999999998,-1e-05,8e-05,5
21067,21839,0.00041,-2e-05,-2.9999999999999997e-05,-0.00011999999999999999,0.0001,-0.00018999999999999998,-1e-05,8e-05,5
21068,21840,0.00041,-2e-05,-2.9999999999999997e-05,-0.00011999999999999999,0.0001,-0.00018999999999999998,-1e-05,8e-05,5
21069,21841,0.00041,-2e-05,-2.9999999999999997e-05,-0.00011999999999999999,0.0001,-0.00018999999999999998,-1e-05,8e-05,5
21070,21842,0.00041,-2e-05,-2.9999999999999997e-05,-0.00011999999999999999,0.0001,-0.00018999999999999998,-1e-05,8e-05,5
21071,21843,0.00041,-2e-05,-2.9999999999999997e-05,-0.00011999999999999999,0.0001,-0.00018999999999999998,-1e-05,8e-05,5
21072,21844,0.00041,-2e-05,-2.9999999999999997e-05,-0.00011999999999999999,0.0001,-0.00018999999999999998,-1e-05,8e-05,5
21073,21845,-0.00031,4e-05,-0.00013000000000000002,-0.00033,-0.00021,-0.00011,-0.00011,-0.00014,5
21074,21846,-0.00031,4e-05,-0.00013000000000000002,-0.00033,-0.00021,-0.00011,-0.00011,-0.00014,5
21075,21847,-0.00031,4e-05,-0.00013000000000000002,-0.00033,-0.00021,-0.00011,-0.00011,-0.00014,5
21076,21848,-0.00031,4e-05,-0.00013000000000000002,-0.00033,-0.00021,-0.00011,-0.00011,-0.00014,5
21077,21849,-0.00031,4e-05,-0.00013000000000000002,-0.00033,-0.00021,-0.00011,-0.00011,-0.00014,5
21078,21850,-0.00031,4e-05,-0.00013000000000000002,-0.00033,-0.00021,-0.00011,-0.00011,-0.00014,5
21079,21851,-0.00031,4e-05,-0.00013000000000000002,-0.00033,-0.00021,-0.00011,-0.00011,-0.00014,5
21080,21852,-0.00031,4e-05,-0.00013000000000000002,-0.00033,-0.00021,-0.00011,-0.00011,-0.00014,5
21081,21853,-0.00031,4e-05,-0.00013000000000000002,-0.00033,-0.00021,-0.00011,-0.00011,-0.00014,5
21082,21854,-0.00031,4e-05,-0.00013000000000000002,-0.00033,-0.00021,-0.00011,-0.00011,-0.00014,5
21083,21855,-0.00031,4e-05,-0.00013000000000000002,-0.00033,-0.00021,-0.00011,-0.00011,-0.00014,5
21084,21856,-0.00031,4e-05,-0.00013000000000000002,-0.00033,-0.00021,-0.00011,-0.00011,-0.00014,5
21085,21857,-0.00031,4e-05,-0.00013000000000000002,-0.00033,-0.00021,-0.00011,-0.00011,-0.00014,5
21086,21858,-0.00031,4e-05,-0.00013000000000000002,-0.00033,-0.00021,-0.00011,-0.00011,-0.00014,5
21087,21859,-0.00031,4e-05,-0.00013000000000000002,-0.00033,-0.00021,-0.00011,-0.00011,-0.00014,5
21088,21860,-0.0002,2e-05,-7e-05,-1e-05,-4e-05,-8e-05,0.00011,-2.9999999999999997e-05,5
21089,21861,0.0,-1e-05,-0.00018999999999999998,0.00036,-0.00045,0.00035,5e-05,-7e-05,5
21090,21862,0.0,-1e-05,-0.00018999999999999998,0.00036,-0.00045,0.00035,5e-05,-7e-05,5
21091,21863,0.0,-1e-05,-0.00018999999999999998,0.00036,-0.00045,0.00035,5e-05,-7e-05,5
21092,21864,0.0,-1e-05,-0.00018999999999999998,0.00036,-0.00045,0.00035,5e-05,-7e-05,5
21093,21865,0.0,-1e-05,-0.00018999999999999998,0.00036,-0.00045,0.00035,5e-05,-7e-05,5
21094,21866,0.0,-1e-05,-0.00018999999999999998,0.00036,-0.00045,0.00035,5e-05,-7e-05,5
21095,21867,0.0,-1e-05,-0.00018999999999999998,0.00036,-0.00045,0.00035,5e-05,-7e-05,5
21096,21868,0.0,-1e-05,-0.00018999999999999998,0.00036,-0.00045,0.00035,5e-05,-7e-05,5
21097,21869,0.0,-1e-05,-0.00018999999999999998,0.00036,-0.00045,0.00035,5e-05,-7e-05,5
21098,21870,0.0,-1e-05,-0.00018999999999999998,0.00036,-0.00045,0.00035,5e-05,-7e-05,5
21099,21871,0.0,-1e-05,-0.00018999999999999998,0.00036,-0.00045,0.00035,5e-05,-7e-05,5
21100,21872,0.0,-1e-05,-0.00018999999999999998,0.00036,-0.00045,0.00035,5e-05,-7e-05,5
21101,21873,0.0,-1e-05,-0.00018999999999999998,0.00036,-0.00045,0.00035,5e-05,-7e-05,5
21102,21874,0.0,-1e-05,-0.00018999999999999998,0.00036,-0.00045,0.00035,5e-05,-7e-05,5
21103,21875,0.0,-1e-05,-0.00018999999999999998,0.00036,-0.00045,0.00035,5e-05,-7e-05,5
21104,21876,0.0,-1e-05,-0.00018999999999999998,0.00036,-0.00045,0.00035,5e-05,-7e-05,5
21105,21877,0.0,-1e-05,-0.00018999999999999998,0.00036,-0.00045,0.00035,5e-05,-7e-05,5
21106,21878,0.0,-1e-05,-0.00018999999999999998,0.00036,-0.00045,0.00035,5e-05,-7e-05,5
21107,21879,0.0,-1e-05,-0.00018999999999999998,0.00036,-0.00045,0.00035,5e-05,-7e-05,5
21108,21880,0.0,-1e-05,-0.00018999999999999998,0.00036,-0.00045,0.00035,5e-05,-7e-05,5
21109,21881,0.0,-1e-05,-0.00018999999999999998,0.00036,-0.00045,0.00035,5e-05,-7e-05,5
21110,21882,-8e-05,2e-05,-0.00011999999999999999,0.00016999999999999999,7e-05,-0.00025,0.00018,2.9999999999999997e-05,5
21111,21883,-8e-05,2e-05,-0.00011999999999999999,0.00016999999999999999,7e-05,-0.00025,0.00018,2.9999999999999997e-05,5
21112,21884,0.00013000000000000002,-2e-05,-5.9999999999999995e-05,-0.00022999999999999998,0.00066,-0.00013000000000000002,7e-05,1e-05,5
21113,21885,0.00013000000000000002,-2e-05,-5.9999999999999995e-05,-0.00022999999999999998,0.00066,-0.00013000000000000002,7e-05,1e-05,5
21114,21886,0.00013000000000000002,-2e-05,-5.9999999999999995e-05,-0.00022999999999999998,0.00066,-0.00013000000000000002,7e-05,1e-05,5
21115,21888,0.00013000000000000002,-2e-05,-5.9999999999999995e-05,-0.00022999999999999998,0.00066,-0.00013000000000000002,7e-05,1e-05,5
21116,21889,0.00013000000000000002,-2e-05,-5.9999999999999995e-05,-0.00022999999999999998,0.00066,-0.00013000000000000002,7e-05,1e-05,5
21117,21890,0.00013000000000000002,-2e-05,-5.9999999999999995e-05,-0.00022999999999999998,0.00066,-0.00013000000000000002,7e-05,1e-05,5
21118,21891,0.00013000000000000002,-2e-05,-5.9999999999999995e-05,-0.00022999999999999998,0.00066,-0.00013000000000000002,7e-05,1e-05,5
21119,21892,0.00013000000000000002,-2e-05,-5.9999999999999995e-05,-0.00022999999999999998,0.00066,-0.00013000000000000002,7e-05,1e-05,5
21120,21893,0.00013000000000000002,-2e-05,-5.9999999999999995e-05,-0.00022999999999999998,0.00066,-0.00013000000000000002,7e-05,1e-05,5
21121,21894,0.00013000000000000002,-2e-05,-5.9999999999999995e-05,-0.00022999999999999998,0.00066,-0.00013000000000000002,7e-05,1e-05,5
21122,21895,0.00013000000000000002,-2e-05,-5.9999999999999995e-05,-0.00022999999999999998,0.00066,-0.00013000000000000002,7e-05,1e-05,5
21123,21896,5.9999999999999995e-05,0.0,0.00018999999999999998,0.00045999999999999996,0.00086,5.9999999999999995e-05,0.0,-2.9999999999999997e-05,5
21124,21897,5.9999999999999995e-05,0.0,0.00018999999999999998,0.00045999999999999996,0.00086,5.9999999999999995e-05,0.0,-2.9999999999999997e-05,5
21125,21898,5.9999999999999995e-05,0.0,0.00018999999999999998,0.00045999999999999996,0.00086,5.9999999999999995e-05,0.0,-2.9999999999999997e-05,5
21126,21899,5.9999999999999995e-05,0.0,0.00018999999999999998,0.00045999999999999996,0.00086,5.9999999999999995e-05,0.0,-2.9999999999999997e-05,5
21127,21900,5.9999999999999995e-05,0.0,0.00018999999999999998,0.00045999999999999996,0.00086,5.9999999999999995e-05,0.0,-2.9999999999999997e-05,5
21128,21901,5.9999999999999995e-05,0.0,0.00018999999999999998,0.00045999999999999996,0.00086,5.9999999999999995e-05,0.0,-2.9999999999999997e-05,5
21129,21902,5.9999999999999995e-05,0.0,0.00018999999999999998,0.00045999999999999996,0.00086,5.9999999999999995e-05,0.0,-2.9999999999999997e-05,5
21130,21903,5.9999999999999995e-05,0.0,0.00018999999999999998,0.00045999999999999996,0.00086,5.9999999999999995e-05,0.0,-2.9999999999999997e-05,5
21131,21904,5.9999999999999995e-05,0.0,0.00018999999999999998,0.00045999999999999996,0.00086,5.9999999999999995e-05,0.0,-2.9999999999999997e-05,5
21132,21905,-0.00025,2.9999999999999997e-05,-9e-05,-4e-05,-0.00059,-0.00026000000000000003,-2e-05,-5.9999999999999995e-05,5
21133,21906,-0.00025,2.9999999999999997e-05,-9e-05,-4e-05,-0.00059,-0.00026000000000000003,-2e-05,-5.9999999999999995e-05,5
21134,21907,-0.00025,2.9999999999999997e-05,-9e-05,-4e-05,-0.00059,-0.00026000000000000003,-2e-05,-5.9999999999999995e-05,5
21135,21908,-0.00025,2.9999999999999997e-05,-9e-05,-4e-05,-0.00059,-0.00026000000000000003,-2e-05,-5.9999999999999995e-05,5
21136,21909,-0.00025,2.9999999999999997e-05,-9e-05,-4e-05,-0.00059,-0.00026000000000000003,-2e-05,-5.9999999999999995e-05,5
21137,21910,-0.00025,2.9999999999999997e-05,-9e-05,-4e-05,-0.00059,-0.00026000000000000003,-2e-05,-5.9999999999999995e-05,5
21138,21911,-0.00025,2.9999999999999997e-05,-9e-05,-4e-05,-0.00059,-0.00026000000000000003,-2e-05,-5.9999999999999995e-05,5
21139,21912,-0.00025,2.9999999999999997e-05,-9e-05,-4e-05,-0.00059,-0.00026000000000000003,-2e-05,-5.9999999999999995e-05,5
21140,21913,-0.00025,2.9999999999999997e-05,-9e-05,-4e-05,-0.00059,-0.00026000000000000003,-2e-05,-5.9999999999999995e-05,5
21141,21914,-0.00025,2.9999999999999997e-05,-9e-05,-4e-05,-0.00059,-0.00026000000000000003,-2e-05,-5.9999999999999995e-05,5
21142,21915,-0.00025,2.9999999999999997e-05,-9e-05,-4e-05,-0.00059,-0.00026000000000000003,-2e-05,-5.9999999999999995e-05,5
21143,21916,-0.00025,2.9999999999999997e-05,-9e-05,-4e-05,-0.00059,-0.00026000000000000003,-2e-05,-5.9999999999999995e-05,5
21144,21917,-0.00025,2.9999999999999997e-05,-9e-05,-4e-05,-0.00059,-0.00026000000000000003,-2e-05,-5.9999999999999995e-05,5
21145,21918,-0.00025,2.9999999999999997e-05,-9e-05,-4e-05,-0.00059,-0.00026000000000000003,-2e-05,-5.9999999999999995e-05,5
21146,21919,-0.00025,2.9999999999999997e-05,-9e-05,-4e-05,-0.00059,-0.00026000000000000003,-2e-05,-5.9999999999999995e-05,5
21147,21920,-1e-05,-4e-05,2e-05,-0.00023999999999999998,-0.00018999999999999998,-8e-05,-2e-05,-9e-05,5
21148,21921,-1e-05,-4e-05,2e-05,-0.00023999999999999998,-0.00018999999999999998,-8e-05,-2e-05,-9e-05,5
21149,21922,5e-05,-2e-05,0.00016,-0.00016999999999999999,-0.00047999999999999996,-4e-05,-2.9999999999999997e-05,5e-05,5
21150,21923,5e-05,-2e-05,0.00016,-0.00016999999999999999,-0.00047999999999999996,-4e-05,-2.9999999999999997e-05,5e-05,5
21151,21924,5e-05,-2e-05,0.00016,-0.00016999999999999999,-0.00047999999999999996,-4e-05,-2.9999999999999997e-05,5e-05,5
21152,21925,5e-05,-2e-05,0.00016,-0.00016999999999999999,-0.00047999999999999996,-4e-05,-2.9999999999999997e-05,5e-05,5
21153,21926,5e-05,-2e-05,0.00016,-0.00016999999999999999,-0.00047999999999999996,-4e-05,-2.9999999999999997e-05,5e-05,5
21154,21927,5e-05,-2e-05,0.00016,-0.00016999999999999999,-0.00047999999999999996,-4e-05,-2.9999999999999997e-05,5e-05,5
21155,21928,5e-05,-2e-05,0.00016,-0.00016999999999999999,-0.00047999999999999996,-4e-05,-2.9999999999999997e-05,5e-05,5
21156,21929,5e-05,-2e-05,0.00016,-0.00016999999999999999,-0.00047999999999999996,-4e-05,-2.9999999999999997e-05,5e-05,5
21157,21930,5e-05,-2e-05,0.00016,-0.00016999999999999999,-0.00047999999999999996,-4e-05,-2.9999999999999997e-05,5e-05,5
21158,21931,5e-05,-2e-05,0.00016,-0.00016999999999999999,-0.00047999999999999996,-4e-05,-2.9999999999999997e-05,5e-05,5
21159,21932,5e-05,-2e-05,0.00016,-0.00016999999999999999,-0.00047999999999999996,-4e-05,-2.9999999999999997e-05,5e-05,5
21160,21933,5e-05,-2e-05,0.00016,-0.00016999999999999999,-0.00047999999999999996,-4e-05,-2.9999999999999997e-05,5e-05,5
21161,21934,5e-05,-2e-05,0.00016,-0.00016999999999999999,-0.00047999999999999996,-4e-05,-2.9999999999999997e-05,5e-05,5
21162,21935,5e-05,-2e-05,0.00016,-0.00016999999999999999,-0.00047999999999999996,-4e-05,-2.9999999999999997e-05,5e-05,5
21163,21936,5e-05,-2e-05,0.00016,-0.00016999999999999999,-0.00047999999999999996,-4e-05,-2.9999999999999997e-05,5e-05,5
21164,21938,5e-05,-2e-05,0.00016,-0.00016999999999999999,-0.00047999999999999996,-4e-05,-2.9999999999999997e-05,5e-05,5
21165,21939,5e-05,-2e-05,0.00016,-0.00016999999999999999,-0.00047999999999999996,-4e-05,-2.9999999999999997e-05,5e-05,5
21166,21940,5e-05,-2e-05,0.00016,-0.00016999999999999999,-0.00047999999999999996,-4e-05,-2.9999999999999997e-05,5e-05,5
21167,21941,5e-05,-2e-05,0.00016,-0.00016999999999999999,-0.00047999999999999996,-4e-05,-2.9999999999999997e-05,5e-05,5
21168,21942,5e-05,-2e-05,0.00016,-0.00016999999999999999,-0.00047999999999999996,-4e-05,-2.9999999999999997e-05,5e-05,5
21169,21943,-0.00029,-2.9999999999999997e-05,-0.00029,-0.00016,-0.00073,0.00016,-0.0002,4e-05,5
21170,21944,5.9999999999999995e-05,-2e-05,9e-05,-0.00042,-0.00053,-8e-05,0.00018,4e-05,5
21171,21945,5.9999999999999995e-05,-2e-05,9e-05,-0.00042,-0.00053,-8e-05,0.00018,4e-05,5
21172,21946,5.9999999999999995e-05,-2e-05,9e-05,-0.00042,-0.00053,-8e-05,0.00018,4e-05,5
21173,21947,5.9999999999999995e-05,-2e-05,9e-05,-0.00042,-0.00053,-8e-05,0.00018,4e-05,5
21174,21948,5.9999999999999995e-05,-2e-05,9e-05,-0.00042,-0.00053,-8e-05,0.00018,4e-05,5
21175,21949,5.9999999999999995e-05,-2e-05,9e-05,-0.00042,-0.00053,-8e-05,0.00018,4e-05,5
21176,21950,5.9999999999999995e-05,-2e-05,9e-05,-0.00042,-0.00053,-8e-05,0.00018,4e-05,5
21177,21951,5.9999999999999995e-05,-2e-05,9e-05,-0.00042,-0.00053,-8e-05,0.00018,4e-05,5
21178,21952,5.9999999999999995e-05,-2e-05,9e-05,-0.00042,-0.00053,-8e-05,0.00018,4e-05,5
21179,21953,5.9999999999999995e-05,-2e-05,9e-05,-0.00042,-0.00053,-8e-05,0.00018,4e-05,5
21180,21954,5.9999999999999995e-05,-2e-05,9e-05,-0.00042,-0.00053,-8e-05,0.00018,4e-05,5
21181,21955,5.9999999999999995e-05,-2e-05,9e-05,-0.00042,-0.00053,-8e-05,0.00018,4e-05,5
21182,21956,5.9999999999999995e-05,-2.9999999999999997e-05,0.00013000000000000002,0.00022999999999999998,-0.00015,-0.00011999999999999999,-5e-05,-1e-05,5
21183,21957,5.9999999999999995e-05,-2.9999999999999997e-05,0.00013000000000000002,0.00022999999999999998,-0.00015,-0.00011999999999999999,-5e-05,-1e-05,5
21184,21958,5.9999999999999995e-05,-2.9999999999999997e-05,0.00013000000000000002,0.00022999999999999998,-0.00015,-0.00011999999999999999,-5e-05,-1e-05,5
21185,21959,5.9999999999999995e-05,-2.9999999999999997e-05,0.00013000000000000002,0.00022999999999999998,-0.00015,-0.00011999999999999999,-5e-05,-1e-05,5
21186,21960,5.9999999999999995e-05,-2.9999999999999997e-05,0.00013000000000000002,0.00022999999999999998,-0.00015,-0.00011999999999999999,-5e-05,-1e-05,5
21187,21961,5.9999999999999995e-05,-2.9999999999999997e-05,0.00013000000000000002,0.00022999999999999998,-0.00015,-0.00011999999999999999,-5e-05,-1e-05,5
21188,21962,5.9999999999999995e-05,-2.9999999999999997e-05,0.00013000000000000002,0.00022999999999999998,-0.00015,-0.00011999999999999999,-5e-05,-1e-05,5
21189,21963,5.9999999999999995e-05,-2.9999999999999997e-05,0.00013000000000000002,0.00022999999999999998,-0.00015,-0.00011999999999999999,-5e-05,-1e-05,5
21190,21964,5.9999999999999995e-05,-2.9999999999999997e-05,0.00013000000000000002,0.00022999999999999998,-0.00015,-0.00011999999999999999,-5e-05,-1e-05,5
21191,21965,0.00011999999999999999,-1e-05,0.00015,-2.9999999999999997e-05,0.0004,2e-05,-0.00018999999999999998,2.9999999999999997e-05,5
21192,21966,0.00011999999999999999,-1e-05,0.00015,-2.9999999999999997e-05,0.0004,2e-05,-0.00018999999999999998,2.9999999999999997e-05,5
21193,21967,0.00011999999999999999,-1e-05,0.00015,-2.9999999999999997e-05,0.0004,2e-05,-0.00018999999999999998,2.9999999999999997e-05,5
21194,21968,0.00011999999999999999,-1e-05,0.00015,-2.9999999999999997e-05,0.0004,2e-05,-0.00018999999999999998,2.9999999999999997e-05,5
21195,21969,0.00011999999999999999,-1e-05,0.00015,-2.9999999999999997e-05,0.0004,2e-05,-0.00018999999999999998,2.9999999999999997e-05,5
21196,21970,0.00011999999999999999,-1e-05,0.00015,-2.9999999999999997e-05,0.0004,2e-05,-0.00018999999999999998,2.9999999999999997e-05,5
21197,21971,0.00011999999999999999,-1e-05,0.00015,-2.9999999999999997e-05,0.0004,2e-05,-0.00018999999999999998,2.9999999999999997e-05,5
21198,21972,0.00011999999999999999,-1e-05,0.00015,-2.9999999999999997e-05,0.0004,2e-05,-0.00018999999999999998,2.9999999999999997e-05,5
21199,21973,0.00011999999999999999,-1e-05,0.00015,-2.9999999999999997e-05,0.0004,2e-05,-0.00018999999999999998,2.9999999999999997e-05,5
21200,21974,0.00011999999999999999,-1e-05,0.00015,-2.9999999999999997e-05,0.0004,2e-05,-0.00018999999999999998,2.9999999999999997e-05,5
21201,21975,0.00011999999999999999,-1e-05,0.00015,-2.9999999999999997e-05,0.0004,2e-05,-0.00018999999999999998,2.9999999999999997e-05,5
21202,21976,0.00011999999999999999,-1e-05,0.00015,-2.9999999999999997e-05,0.0004,2e-05,-0.00018999999999999998,2.9999999999999997e-05,5
21203,21977,0.00011999999999999999,-1e-05,0.00015,-2.9999999999999997e-05,0.0004,2e-05,-0.00018999999999999998,2.9999999999999997e-05,5
21204,21978,0.00011999999999999999,-1e-05,0.00015,-2.9999999999999997e-05,0.0004,2e-05,-0.00018999999999999998,2.9999999999999997e-05,5
21205,21979,0.00011999999999999999,-1e-05,0.00015,-2.9999999999999997e-05,0.0004,2e-05,-0.00018999999999999998,2.9999999999999997e-05,5
21206,21980,0.00022,2.9999999999999997e-05,-9e-05,-0.00015,-0.00025,-0.00013000000000000002,9e-05,0.00018,5
21207,21981,8e-05,0.0,5.9999999999999995e-05,-0.00041,-0.00082,-0.00011,4e-05,0.0,5
21208,21982,8e-05,0.0,5.9999999999999995e-05,-0.00041,-0.00082,-0.00011,4e-05,0.0,5
21209,21983,8e-05,0.0,5.9999999999999995e-05,-0.00041,-0.00082,-0.00011,4e-05,0.0,5
21210,21984,8e-05,0.0,5.9999999999999995e-05,-0.00041,-0.00082,-0.00011,4e-05,0.0,5
21211,21985,8e-05,0.0,5.9999999999999995e-05,-0.00041,-0.00082,-0.00011,4e-05,0.0,5
21212,21986,8e-05,0.0,5.9999999999999995e-05,-0.00041,-0.00082,-0.00011,4e-05,0.0,5
21213,21988,8e-05,0.0,5.9999999999999995e-05,-0.00041,-0.00082,-0.00011,4e-05,0.0,5
21214,21989,8e-05,0.0,5.9999999999999995e-05,-0.00041,-0.00082,-0.00011,4e-05,0.0,5
21215,21990,8e-05,0.0,5.9999999999999995e-05,-0.00041,-0.00082,-0.00011,4e-05,0.0,5
21216,21991,8e-05,0.0,5.9999999999999995e-05,-0.00041,-0.00082,-0.00011,4e-05,0.0,5
21217,21992,8e-05,0.0,5.9999999999999995e-05,-0.00041,-0.00082,-0.00011,4e-05,0.0,5
21218,21993,8e-05,0.0,5.9999999999999995e-05,-0.00041,-0.00082,-0.00011,4e-05,0.0,5
21219,21994,8e-05,0.0,5.9999999999999995e-05,-0.00041,-0.00082,-0.00011,4e-05,0.0,5
21220,21995,8e-05,0.0,5.9999999999999995e-05,-0.00041,-0.00082,-0.00011,4e-05,0.0,5
21221,21996,8e-05,0.0,5.9999999999999995e-05,-0.00041,-0.00082,-0.00011,4e-05,0.0,5
21222,21997,8e-05,0.0,5.9999999999999995e-05,-0.00041,-0.00082,-0.00011,4e-05,0.0,5
21223,21998,8e-05,0.0,5.9999999999999995e-05,-0.00041,-0.00082,-0.00011,4e-05,0.0,5
21224,21999,8e-05,0.0,5.9999999999999995e-05,-0.00041,-0.00082,-0.00011,4e-05,0.0,5
21225,22000,8e-05,0.0,5.9999999999999995e-05,-0.00041,-0.00082,-0.00011,4e-05,0.0,5
21226,22001,8e-05,0.0,5.9999999999999995e-05,-0.00041,-0.00082,-0.00011,4e-05,0.0,5
21227,22002,-0.00018,1e-05,-5.9999999999999995e-05,-2e-05,0.00033999999999999997,8e-05,-4e-05,-0.00013000000000000002,5
21228,22003,-0.00018,1e-05,-5.9999999999999995e-05,-2e-05,0.00033999999999999997,8e-05,-4e-05,-0.00013000000000000002,5
21229,22004,-0.00022,-1e-05,-0.00011999999999999999,-0.0002,-0.0007599999999999999,1e-05,-4e-05,0.0,5
21230,22005,-0.00022,-1e-05,-0.00011999999999999999,-0.0002,-0.0007599999999999999,1e-05,-4e-05,0.0,5
21231,22006,-0.00022,-1e-05,-0.00011999999999999999,-0.0002,-0.0007599999999999999,1e-05,-4e-05,0.0,5
21232,22007,-0.00022,-1e-05,-0.00011999999999999999,-0.0002,-0.0007599999999999999,1e-05,-4e-05,0.0,5
21233,22008,-0.00022,-1e-05,-0.00011999999999999999,-0.0002,-0.0007599999999999999,1e-05,-4e-05,0.0,5
21234,22009,-0.00022,-1e-05,-0.00011999999999999999,-0.0002,-0.0007599999999999999,1e-05,-4e-05,0.0,5
21235,22010,-0.00022,-1e-05,-0.00011999999999999999,-0.0002,-0.0007599999999999999,1e-05,-4e-05,0.0,5
21236,22011,-0.00022,-1e-05,-0.00011999999999999999,-0.0002,-0.0007599999999999999,1e-05,-4e-05,0.0,5
21237,22012,-0.00022,-1e-05,-0.00011999999999999999,-0.0002,-0.0007599999999999999,1e-05,-4e-05,0.0,5
21238,22013,-0.00022,-1e-05,-0.00011999999999999999,-0.0002,-0.0007599999999999999,1e-05,-4e-05,0.0,5
21239,22014,-0.00022,-1e-05,-0.00011999999999999999,-0.0002,-0.0007599999999999999,1e-05,-4e-05,0.0,5
21240,22015,-0.00022,-1e-05,-0.00011999999999999999,-0.0002,-0.0007599999999999999,1e-05,-4e-05,0.0,5
21241,22016,-8e-05,-2.9999999999999997e-05,-2e-05,-0.00018999999999999998,-0.00021,0.00011999999999999999,5.9999999999999995e-05,-5e-05,5
21242,22017,-8e-05,-2.9999999999999997e-05,-2e-05,-0.00018999999999999998,-0.00021,0.00011999999999999999,5.9999999999999995e-05,-5e-05,5
21243,22018,-8e-05,-2.9999999999999997e-05,-2e-05,-0.00018999999999999998,-0.00021,0.00011999999999999999,5.9999999999999995e-05,-5e-05,5
21244,22019,-8e-05,-2.9999999999999997e-05,-2e-05,-0.00018999999999999998,-0.00021,0.00011999999999999999,5.9999999999999995e-05,-5e-05,5
21245,22020,-8e-05,-2.9999999999999997e-05,-2e-05,-0.00018999999999999998,-0.00021,0.00011999999999999999,5.9999999999999995e-05,-5e-05,5
21246,22021,-8e-05,-2.9999999999999997e-05,-2e-05,-0.00018999999999999998,-0.00021,0.00011999999999999999,5.9999999999999995e-05,-5e-05,5
21247,22022,-8e-05,-2.9999999999999997e-05,-2e-05,-0.00018999999999999998,-0.00021,0.00011999999999999999,5.9999999999999995e-05,-5e-05,5
21248,22023,-8e-05,-2.9999999999999997e-05,-2e-05,-0.00018999999999999998,-0.00021,0.00011999999999999999,5.9999999999999995e-05,-5e-05,5
21249,22024,-8e-05,-2.9999999999999997e-05,-2e-05,-0.00018999999999999998,-0.00021,0.00011999999999999999,5.9999999999999995e-05,-5e-05,5
21250,22025,-4e-05,-2.9999999999999997e-05,-0.00011,0.0005099999999999999,0.00032,-4e-05,-5e-05,-7e-05,5
21251,22026,-4e-05,-2.9999999999999997e-05,-0.00011,0.0005099999999999999,0.00032,-4e-05,-5e-05,-7e-05,5
21252,22027,-4e-05,-2.9999999999999997e-05,-0.00011,0.0005099999999999999,0.00032,-4e-05,-5e-05,-7e-05,5
21253,22028,-4e-05,-2.9999999999999997e-05,-0.00011,0.0005099999999999999,0.00032,-4e-05,-5e-05,-7e-05,5
21254,22029,-4e-05,-2.9999999999999997e-05,-0.00011,0.0005099999999999999,0.00032,-4e-05,-5e-05,-7e-05,5
21255,22030,-4e-05,-2.9999999999999997e-05,-0.00011,0.0005099999999999999,0.00032,-4e-05,-5e-05,-7e-05,5
21256,22031,-4e-05,-2.9999999999999997e-05,-0.00011,0.0005099999999999999,0.00032,-4e-05,-5e-05,-7e-05,5
21257,22032,-4e-05,-2.9999999999999997e-05,-0.00011,0.0005099999999999999,0.00032,-4e-05,-5e-05,-7e-05,5
21258,22033,-4e-05,-2.9999999999999997e-05,-0.00011,0.0005099999999999999,0.00032,-4e-05,-5e-05,-7e-05,5
21259,22034,-4e-05,-2.9999999999999997e-05,-0.00011,0.0005099999999999999,0.00032,-4e-05,-5e-05,-7e-05,5
21260,22035,-4e-05,-2.9999999999999997e-05,-0.00011,0.0005099999999999999,0.00032,-4e-05,-5e-05,-7e-05,5
21261,22036,-4e-05,-2.9999999999999997e-05,-0.00011,0.0005099999999999999,0.00032,-4e-05,-5e-05,-7e-05,5
21262,22039,-4e-05,-2.9999999999999997e-05,-0.00011,0.0005099999999999999,0.00032,-4e-05,-5e-05,-7e-05,5
21263,22040,-4e-05,-2.9999999999999997e-05,-0.00011,0.0005099999999999999,0.00032,-4e-05,-5e-05,-7e-05,5
21264,22041,-4e-05,-2.9999999999999997e-05,-0.00011,0.0005099999999999999,0.00032,-4e-05,-5e-05,-7e-05,5
21265,22042,-4e-05,-2.9999999999999997e-05,-0.00011,0.0005099999999999999,0.00032,-4e-05,-5e-05,-7e-05,5
21266,22043,-4e-05,-2.9999999999999997e-05,-0.00011,0.0005099999999999999,0.00032,-4e-05,-5e-05,-7e-05,5
21267,22044,-4e-05,-2.9999999999999997e-05,-0.00011,0.0005099999999999999,0.00032,-4e-05,-5e-05,-7e-05,5
21268,22045,-4e-05,-2.9999999999999997e-05,-0.00011,0.0005099999999999999,0.00032,-4e-05,-5e-05,-7e-05,5
21269,22046,-4e-05,-2.9999999999999997e-05,-0.00011,0.0005099999999999999,0.00032,-4e-05,-5e-05,-7e-05,5
21270,22047,-0.00026000000000000003,-5.9999999999999995e-05,-4e-05,-5e-05,-0.00036,-0.0001,-0.0001,-0.0001,5
21271,22048,-0.00026000000000000003,-5.9999999999999995e-05,-4e-05,-5e-05,-0.00036,-0.0001,-0.0001,-0.0001,5
21272,22049,-5e-05,-2e-05,-7e-05,-1e-05,-0.00058,2e-05,-2e-05,-5.9999999999999995e-05,5
21273,22050,-5e-05,-2e-05,-7e-05,-1e-05,-0.00058,2e-05,-2e-05,-5.9999999999999995e-05,5
21274,22051,-5e-05,-2e-05,-7e-05,-1e-05,-0.00058,2e-05,-2e-05,-5.9999999999999995e-05,5
21275,22052,-5e-05,-2e-05,-7e-05,-1e-05,-0.00058,2e-05,-2e-05,-5.9999999999999995e-05,5
21276,22053,-5e-05,-2e-05,-7e-05,-1e-05,-0.00058,2e-05,-2e-05,-5.9999999999999995e-05,5
21277,22054,-5e-05,-2e-05,-7e-05,-1e-05,-0.00058,2e-05,-2e-05,-5.9999999999999995e-05,5
21278,22055,-5e-05,-2e-05,-7e-05,-1e-05,-0.00058,2e-05,-2e-05,-5.9999999999999995e-05,5
21279,22056,-5e-05,-2e-05,-7e-05,-1e-05,-0.00058,2e-05,-2e-05,-5.9999999999999995e-05,5
21280,22057,-5e-05,-2e-05,-7e-05,-1e-05,-0.00058,2e-05,-2e-05,-5.9999999999999995e-05,5
21281,22058,-5e-05,-2e-05,-7e-05,-1e-05,-0.00058,2e-05,-2e-05,-5.9999999999999995e-05,5
21282,22059,-5e-05,-2e-05,-7e-05,-1e-05,-0.00058,2e-05,-2e-05,-5.9999999999999995e-05,5
21283,22061,-5e-05,-2e-05,-7e-05,-1e-05,-0.00058,2e-05,-2e-05,-5.9999999999999995e-05,5
21284,22062,5.9999999999999995e-05,0.0,-5.9999999999999995e-05,-0.0001,0.00041,2.9999999999999997e-05,-5e-05,-1e-05,5
21285,22063,5.9999999999999995e-05,0.0,-5.9999999999999995e-05,-0.0001,0.00041,2.9999999999999997e-05,-5e-05,-1e-05,5
21286,22064,0.0005,1e-05,-5.9999999999999995e-05,-2.9999999999999997e-05,2.9999999999999997e-05,-0.00022,8e-05,0.00015,5
21287,22065,0.0005,1e-05,-5.9999999999999995e-05,-2.9999999999999997e-05,2.9999999999999997e-05,-0.00022,8e-05,0.00015,5
21288,22066,0.0005,1e-05,-5.9999999999999995e-05,-2.9999999999999997e-05,2.9999999999999997e-05,-0.00022,8e-05,0.00015,5
21289,22067,0.0005,1e-05,-5.9999999999999995e-05,-2.9999999999999997e-05,2.9999999999999997e-05,-0.00022,8e-05,0.00015,5
21290,22068,0.0005,1e-05,-5.9999999999999995e-05,-2.9999999999999997e-05,2.9999999999999997e-05,-0.00022,8e-05,0.00015,5
21291,22069,0.0005,1e-05,-5.9999999999999995e-05,-2.9999999999999997e-05,2.9999999999999997e-05,-0.00022,8e-05,0.00015,5
21292,22070,0.0005,1e-05,-5.9999999999999995e-05,-2.9999999999999997e-05,2.9999999999999997e-05,-0.00022,8e-05,0.00015,5
21293,22071,0.0005,1e-05,-5.9999999999999995e-05,-2.9999999999999997e-05,2.9999999999999997e-05,-0.00022,8e-05,0.00015,5
21294,22072,0.0005,1e-05,-5.9999999999999995e-05,-2.9999999999999997e-05,2.9999999999999997e-05,-0.00022,8e-05,0.00015,5
21295,22073,0.0005,1e-05,-5.9999999999999995e-05,-2.9999999999999997e-05,2.9999999999999997e-05,-0.00022,8e-05,0.00015,5
21296,22074,0.0005,1e-05,-5.9999999999999995e-05,-2.9999999999999997e-05,2.9999999999999997e-05,-0.00022,8e-05,0.00015,5
21297,22075,0.0005,1e-05,-5.9999999999999995e-05,-2.9999999999999997e-05,2.9999999999999997e-05,-0.00022,8e-05,0.00015,5
21298,22076,0.00015,0.0,7e-05,8e-05,-4e-05,8e-05,9e-05,-1e-05,5
21299,22077,0.00015,0.0,7e-05,8e-05,-4e-05,8e-05,9e-05,-1e-05,5
21300,22078,0.00015,0.0,7e-05,8e-05,-4e-05,8e-05,9e-05,-1e-05,5
21301,22079,0.00015,0.0,7e-05,8e-05,-4e-05,8e-05,9e-05,-1e-05,5
21302,22080,0.00015,0.0,7e-05,8e-05,-4e-05,8e-05,9e-05,-1e-05,5
21303,22081,0.00015,0.0,7e-05,8e-05,-4e-05,8e-05,9e-05,-1e-05,5
21304,22082,0.00015,0.0,7e-05,8e-05,-4e-05,8e-05,9e-05,-1e-05,5
21305,22083,0.00015,0.0,7e-05,8e-05,-4e-05,8e-05,9e-05,-1e-05,5
21306,22084,0.00015,0.0,7e-05,8e-05,-4e-05,8e-05,9e-05,-1e-05,5
21307,22085,-0.00021,0.0,4e-05,-0.00015,-0.00047000000000000004,0.00042,2e-05,2e-05,5
21308,22086,-0.00021,0.0,4e-05,-0.00015,-0.00047000000000000004,0.00042,2e-05,2e-05,5
21309,22089,-0.00021,0.0,4e-05,-0.00015,-0.00047000000000000004,0.00042,2e-05,2e-05,5
21310,22090,-0.00021,0.0,4e-05,-0.00015,-0.00047000000000000004,0.00042,2e-05,2e-05,5
21311,22091,-0.00021,0.0,4e-05,-0.00015,-0.00047000000000000004,0.00042,2e-05,2e-05,5
21312,22092,-0.00021,0.0,4e-05,-0.00015,-0.00047000000000000004,0.00042,2e-05,2e-05,5
21313,22093,-0.00021,0.0,4e-05,-0.00015,-0.00047000000000000004,0.00042,2e-05,2e-05,5
21314,22094,-0.00021,0.0,4e-05,-0.00015,-0.00047000000000000004,0.00042,2e-05,2e-05,5
21315,22095,-0.00021,0.0,4e-05,-0.00015,-0.00047000000000000004,0.00042,2e-05,2e-05,5
21316,22096,-0.00021,0.0,4e-05,-0.00015,-0.00047000000000000004,0.00042,2e-05,2e-05,5
21317,22097,-0.00021,0.0,4e-05,-0.00015,-0.00047000000000000004,0.00042,2e-05,2e-05,5
21318,22098,-0.00021,0.0,4e-05,-0.00015,-0.00047000000000000004,0.00042,2e-05,2e-05,5
21319,22099,-0.00021,0.0,4e-05,-0.00015,-0.00047000000000000004,0.00042,2e-05,2e-05,5
21320,22100,5e-05,2e-05,-4e-05,0.00022,0.0003,-9e-05,1e-05,1e-05,5
21321,22101,-5e-05,-1e-05,-5.9999999999999995e-05,0.00036,0.00058,-0.0001,2.9999999999999997e-05,1e-05,5
21322,22102,-5e-05,-1e-05,-5.9999999999999995e-05,0.00036,0.00058,-0.0001,2.9999999999999997e-05,1e-05,5
21323,22103,-5e-05,-1e-05,-5.9999999999999995e-05,0.00036,0.00058,-0.0001,2.9999999999999997e-05,1e-05,5
21324,22104,-5e-05,-1e-05,-5.9999999999999995e-05,0.00036,0.00058,-0.0001,2.9999999999999997e-05,1e-05,5
21325,22105,-5e-05,-1e-05,-5.9999999999999995e-05,0.00036,0.00058,-0.0001,2.9999999999999997e-05,1e-05,5
21326,22106,-5e-05,-1e-05,-5.9999999999999995e-05,0.00036,0.00058,-0.0001,2.9999999999999997e-05,1e-05,5
21327,22107,-5e-05,-1e-05,-5.9999999999999995e-05,0.00036,0.00058,-0.0001,2.9999999999999997e-05,1e-05,5
21328,22108,-5e-05,-1e-05,-5.9999999999999995e-05,0.00036,0.00058,-0.0001,2.9999999999999997e-05,1e-05,5
21329,22109,-5e-05,-1e-05,-5.9999999999999995e-05,0.00036,0.00058,-0.0001,2.9999999999999997e-05,1e-05,5
21330,22110,-5e-05,-1e-05,-5.9999999999999995e-05,0.00036,0.00058,-0.0001,2.9999999999999997e-05,1e-05,5
21331,22111,-5e-05,-1e-05,-5.9999999999999995e-05,0.00036,0.00058,-0.0001,2.9999999999999997e-05,1e-05,5
21332,22112,-5e-05,-1e-05,-5.9999999999999995e-05,0.00036,0.00058,-0.0001,2.9999999999999997e-05,1e-05,5
21333,22113,-5e-05,-1e-05,-5.9999999999999995e-05,0.00036,0.00058,-0.0001,2.9999999999999997e-05,1e-05,5
21334,22114,-5e-05,-1e-05,-5.9999999999999995e-05,0.00036,0.00058,-0.0001,2.9999999999999997e-05,1e-05,5
21335,22115,-5e-05,-1e-05,-5.9999999999999995e-05,0.00036,0.00058,-0.0001,2.9999999999999997e-05,1e-05,5
21336,22116,-5e-05,-1e-05,-5.9999999999999995e-05,0.00036,0.00058,-0.0001,2.9999999999999997e-05,1e-05,5
21337,22117,-5e-05,-1e-05,-5.9999999999999995e-05,0.00036,0.00058,-0.0001,2.9999999999999997e-05,1e-05,5
21338,22118,-5e-05,-1e-05,-5.9999999999999995e-05,0.00036,0.00058,-0.0001,2.9999999999999997e-05,1e-05,5
21339,22119,-5e-05,-1e-05,-5.9999999999999995e-05,0.00036,0.00058,-0.0001,2.9999999999999997e-05,1e-05,5
21340,22120,-5e-05,-1e-05,-5.9999999999999995e-05,0.00036,0.00058,-0.0001,2.9999999999999997e-05,1e-05,5
21341,22121,-5e-05,-1e-05,-5.9999999999999995e-05,0.00036,0.00058,-0.0001,2.9999999999999997e-05,1e-05,5
21342,22122,-0.00042,-5e-05,-2e-05,-0.00018,-0.00075,-1e-05,-7e-05,-0.00014,5
21343,22123,-0.00042,-5e-05,-2e-05,-0.00018,-0.00075,-1e-05,-7e-05,-0.00014,5
21344,22124,-2e-05,-2e-05,0.0001,0.00032,0.00021,-7e-05,1e-05,0.0,5
21345,22125,-2e-05,-2e-05,0.0001,0.00032,0.00021,-7e-05,1e-05,0.0,5
21346,22126,-2e-05,-2e-05,0.0001,0.00032,0.00021,-7e-05,1e-05,0.0,5
21347,22127,-2e-05,-2e-05,0.0001,0.00032,0.00021,-7e-05,1e-05,0.0,5
21348,22128,-2e-05,-2e-05,0.0001,0.00032,0.00021,-7e-05,1e-05,0.0,5
21349,22129,-2e-05,-2e-05,0.0001,0.00032,0.00021,-7e-05,1e-05,0.0,5
21350,22130,-2e-05,-2e-05,0.0001,0.00032,0.00021,-7e-05,1e-05,0.0,5
21351,22131,-2e-05,-2e-05,0.0001,0.00032,0.00021,-7e-05,1e-05,0.0,5
21352,22132,-2e-05,-2e-05,0.0001,0.00032,0.00021,-7e-05,1e-05,0.0,5
21353,22133,-2e-05,-2e-05,0.0001,0.00032,0.00021,-7e-05,1e-05,0.0,5
21354,22134,-2e-05,-2e-05,0.0001,0.00032,0.00021,-7e-05,1e-05,0.0,5
21355,22135,-2e-05,-2e-05,0.0001,0.00032,0.00021,-7e-05,1e-05,0.0,5
21356,22136,0.00023999999999999998,-2.9999999999999997e-05,7e-05,0.00011,0.00037,-4e-05,5e-05,8e-05,5
21357,22138,0.00023999999999999998,-2.9999999999999997e-05,7e-05,0.00011,0.00037,-4e-05,5e-05,8e-05,5
21358,22139,0.00023999999999999998,-2.9999999999999997e-05,7e-05,0.00011,0.00037,-4e-05,5e-05,8e-05,5
21359,22140,0.00023999999999999998,-2.9999999999999997e-05,7e-05,0.00011,0.00037,-4e-05,5e-05,8e-05,5
21360,22142,0.00023999999999999998,-2.9999999999999997e-05,7e-05,0.00011,0.00037,-4e-05,5e-05,8e-05,5
21361,22143,0.00023999999999999998,-2.9999999999999997e-05,7e-05,0.00011,0.00037,-4e-05,5e-05,8e-05,5
21362,22144,0.00023999999999999998,-2.9999999999999997e-05,7e-05,0.00011,0.00037,-4e-05,5e-05,8e-05,5
21363,22145,0.00018999999999999998,0.0,0.00016,-0.00014,8e-05,-7e-05,-1e-05,5.9999999999999995e-05,5
21364,22146,0.00018999999999999998,0.0,0.00016,-0.00014,8e-05,-7e-05,-1e-05,5.9999999999999995e-05,5
21365,22147,0.00018999999999999998,0.0,0.00016,-0.00014,8e-05,-7e-05,-1e-05,5.9999999999999995e-05,5
21366,22148,0.00018999999999999998,0.0,0.00016,-0.00014,8e-05,-7e-05,-1e-05,5.9999999999999995e-05,5
21367,22149,0.00018999999999999998,0.0,0.00016,-0.00014,8e-05,-7e-05,-1e-05,5.9999999999999995e-05,5
21368,22150,0.00018999999999999998,0.0,0.00016,-0.00014,8e-05,-7e-05,-1e-05,5.9999999999999995e-05,5
21369,22151,0.00018999999999999998,0.0,0.00016,-0.00014,8e-05,-7e-05,-1e-05,5.9999999999999995e-05,5
21370,22152,0.00018999999999999998,0.0,0.00016,-0.00014,8e-05,-7e-05,-1e-05,5.9999999999999995e-05,5
21371,22153,0.00018999999999999998,0.0,0.00016,-0.00014,8e-05,-7e-05,-1e-05,5.9999999999999995e-05,5
21372,22154,0.00018999999999999998,0.0,0.00016,-0.00014,8e-05,-7e-05,-1e-05,5.9999999999999995e-05,5
21373,22155,0.00018999999999999998,0.0,0.00016,-0.00014,8e-05,-7e-05,-1e-05,5.9999999999999995e-05,5
21374,22156,0.00018999999999999998,0.0,0.00016,-0.00014,8e-05,-7e-05,-1e-05,5.9999999999999995e-05,5
21375,22157,0.00018999999999999998,0.0,0.00016,-0.00014,8e-05,-7e-05,-1e-05,5.9999999999999995e-05,5
21376,22158,0.00018999999999999998,0.0,0.00016,-0.00014,8e-05,-7e-05,-1e-05,5.9999999999999995e-05,5
21377,22159,0.00018999999999999998,0.0,0.00016,-0.00014,8e-05,-7e-05,-1e-05,5.9999999999999995e-05,5
21378,22160,-9e-05,-2e-05,-0.0001,0.0,2e-05,0.0001,-1e-05,-2e-05,5
21379,22161,-0.00011999999999999999,0.0,-0.00011999999999999999,-8e-05,-0.00054,-0.00011999999999999999,-7e-05,-7e-05,5
21380,22162,-0.00011999999999999999,0.0,-0.00011999999999999999,-8e-05,-0.00054,-0.00011999999999999999,-7e-05,-7e-05,5
21381,22163,-0.00011999999999999999,0.0,-0.00011999999999999999,-8e-05,-0.00054,-0.00011999999999999999,-7e-05,-7e-05,5
21382,22164,-0.00011999999999999999,0.0,-0.00011999999999999999,-8e-05,-0.00054,-0.00011999999999999999,-7e-05,-7e-05,5
21383,22165,-0.00011999999999999999,0.0,-0.00011999999999999999,-8e-05,-0.00054,-0.00011999999999999999,-7e-05,-7e-05,5
21384,22166,-0.00011999999999999999,0.0,-0.00011999999999999999,-8e-05,-0.00054,-0.00011999999999999999,-7e-05,-7e-05,5
21385,22167,-0.00011999999999999999,0.0,-0.00011999999999999999,-8e-05,-0.00054,-0.00011999999999999999,-7e-05,-7e-05,5
21386,22168,-0.00011999999999999999,0.0,-0.00011999999999999999,-8e-05,-0.00054,-0.00011999999999999999,-7e-05,-7e-05,5
21387,22169,-0.00011999999999999999,0.0,-0.00011999999999999999,-8e-05,-0.00054,-0.00011999999999999999,-7e-05,-7e-05,5
21388,22170,-0.00011999999999999999,0.0,-0.00011999999999999999,-8e-05,-0.00054,-0.00011999999999999999,-7e-05,-7e-05,5
21389,22171,-0.00011999999999999999,0.0,-0.00011999999999999999,-8e-05,-0.00054,-0.00011999999999999999,-7e-05,-7e-05,5
21390,22172,-0.00011999999999999999,0.0,-0.00011999999999999999,-8e-05,-0.00054,-0.00011999999999999999,-7e-05,-7e-05,5
21391,22173,-0.00011999999999999999,0.0,-0.00011999999999999999,-8e-05,-0.00054,-0.00011999999999999999,-7e-05,-7e-05,5
21392,22174,-0.00011999999999999999,0.0,-0.00011999999999999999,-8e-05,-0.00054,-0.00011999999999999999,-7e-05,-7e-05,5
21393,22175,-0.00011999999999999999,0.0,-0.00011999999999999999,-8e-05,-0.00054,-0.00011999999999999999,-7e-05,-7e-05,5
21394,22176,-0.00011999999999999999,0.0,-0.00011999999999999999,-8e-05,-0.00054,-0.00011999999999999999,-7e-05,-7e-05,5
21395,22177,-0.00011999999999999999,0.0,-0.00011999999999999999,-8e-05,-0.00054,-0.00011999999999999999,-7e-05,-7e-05,5
21396,22178,-0.00011999999999999999,0.0,-0.00011999999999999999,-8e-05,-0.00054,-0.00011999999999999999,-7e-05,-7e-05,5
21397,22179,-0.00011999999999999999,0.0,-0.00011999999999999999,-8e-05,-0.00054,-0.00011999999999999999,-7e-05,-7e-05,5
21398,22180,-0.00011999999999999999,0.0,-0.00011999999999999999,-8e-05,-0.00054,-0.00011999999999999999,-7e-05,-7e-05,5
21399,22181,-0.00011999999999999999,0.0,-0.00011999999999999999,-8e-05,-0.00054,-0.00011999999999999999,-7e-05,-7e-05,5
21400,22182,5.9999999999999995e-05,-2e-05,9e-05,0.00036,-0.00065,0.00011,5.9999999999999995e-05,2e-05,5
21401,22183,5.9999999999999995e-05,-2e-05,9e-05,0.00036,-0.00065,0.00011,5.9999999999999995e-05,2e-05,5
21402,22184,-0.00014,-2e-05,4e-05,0.00042,0.00061,-2e-05,-4e-05,-5e-05,5
21403,22185,-0.00014,-2e-05,4e-05,0.00042,0.00061,-2e-05,-4e-05,-5e-05,5
21404,22186,-0.00014,-2e-05,4e-05,0.00042,0.00061,-2e-05,-4e-05,-5e-05,5
21405,22188,-0.00014,-2e-05,4e-05,0.00042,0.00061,-2e-05,-4e-05,-5e-05,5
21406,22189,-0.00014,-2e-05,4e-05,0.00042,0.00061,-2e-05,-4e-05,-5e-05,5
21407,22190,-0.00014,-2e-05,4e-05,0.00042,0.00061,-2e-05,-4e-05,-5e-05,5
21408,22191,-0.00014,-2e-05,4e-05,0.00042,0.00061,-2e-05,-4e-05,-5e-05,5
21409,22192,-0.00014,-2e-05,4e-05,0.00042,0.00061,-2e-05,-4e-05,-5e-05,5
21410,22194,-0.00014,-2e-05,4e-05,0.00042,0.00061,-2e-05,-4e-05,-5e-05,5
21411,22195,-0.00014,-2e-05,4e-05,0.00042,0.00061,-2e-05,-4e-05,-5e-05,5
21412,22196,0.00026000000000000003,0.0,0.0,-0.00033999999999999997,0.00018,-8e-05,8e-05,0.00011999999999999999,5
21413,22197,0.00026000000000000003,0.0,0.0,-0.00033999999999999997,0.00018,-8e-05,8e-05,0.00011999999999999999,5
21414,22198,0.00026000000000000003,0.0,0.0,-0.00033999999999999997,0.00018,-8e-05,8e-05,0.00011999999999999999,5
21415,22199,0.00026000000000000003,0.0,0.0,-0.00033999999999999997,0.00018,-8e-05,8e-05,0.00011999999999999999,5
21416,22200,0.00026000000000000003,0.0,0.0,-0.00033999999999999997,0.00018,-8e-05,8e-05,0.00011999999999999999,5
21417,22201,0.00026000000000000003,0.0,0.0,-0.00033999999999999997,0.00018,-8e-05,8e-05,0.00011999999999999999,5
21418,22202,0.00026000000000000003,0.0,0.0,-0.00033999999999999997,0.00018,-8e-05,8e-05,0.00011999999999999999,5
21419,22203,0.00026000000000000003,0.0,0.0,-0.00033999999999999997,0.00018,-8e-05,8e-05,0.00011999999999999999,5
21420,22204,0.00026000000000000003,0.0,0.0,-0.00033999999999999997,0.00018,-8e-05,8e-05,0.00011999999999999999,5
21421,22205,2e-05,-2e-05,1e-05,-0.0004,9e-05,0.00025,-1e-05,-2e-05,5
21422,22206,2e-05,-2e-05,1e-05,-0.0004,9e-05,0.00025,-1e-05,-2e-05,5
21423,22207,2e-05,-2e-05,1e-05,-0.0004,9e-05,0.00025,-1e-05,-2e-05,5
21424,22208,2e-05,-2e-05,1e-05,-0.0004,9e-05,0.00025,-1e-05,-2e-05,5
21425,22209,2e-05,-2e-05,1e-05,-0.0004,9e-05,0.00025,-1e-05,-2e-05,5
21426,22210,2e-05,-2e-05,1e-05,-0.0004,9e-05,0.00025,-1e-05,-2e-05,5
21427,22211,2e-05,-2e-05,1e-05,-0.0004,9e-05,0.00025,-1e-05,-2e-05,5
21428,22212,2e-05,-2e-05,1e-05,-0.0004,9e-05,0.00025,-1e-05,-2e-05,5
21429,22213,2e-05,-2e-05,1e-05,-0.0004,9e-05,0.00025,-1e-05,-2e-05,5
21430,22214,2e-05,-2e-05,1e-05,-0.0004,9e-05,0.00025,-1e-05,-2e-05,5
21431,22215,2e-05,-2e-05,1e-05,-0.0004,9e-05,0.00025,-1e-05,-2e-05,5
21432,22216,2e-05,-2e-05,1e-05,-0.0004,9e-05,0.00025,-1e-05,-2e-05,5
21433,22217,2e-05,-2e-05,1e-05,-0.0004,9e-05,0.00025,-1e-05,-2e-05,5
21434,22218,2e-05,-2e-05,1e-05,-0.0004,9e-05,0.00025,-1e-05,-2e-05,5
21435,22219,2e-05,-2e-05,1e-05,-0.0004,9e-05,0.00025,-1e-05,-2e-05,5
21436,22220,5e-05,-2e-05,-0.0001,-5.9999999999999995e-05,-0.00028,-0.00011,-4e-05,-0.00015,5
21437,22221,0.00015,-2e-05,0.00015,0.00032,0.00112,-9e-05,7e-05,7e-05,5
21438,22222,0.00015,-2e-05,0.00015,0.00032,0.00112,-9e-05,7e-05,7e-05,5
21439,22223,0.00015,-2e-05,0.00015,0.00032,0.00112,-9e-05,7e-05,7e-05,5
21440,22224,0.00015,-2e-05,0.00015,0.00032,0.00112,-9e-05,7e-05,7e-05,5
21441,22225,0.00015,-2e-05,0.00015,0.00032,0.00112,-9e-05,7e-05,7e-05,5
21442,22226,0.00015,-2e-05,0.00015,0.00032,0.00112,-9e-05,7e-05,7e-05,5
21443,22227,0.00015,-2e-05,0.00015,0.00032,0.00112,-9e-05,7e-05,7e-05,5
21444,22228,0.00015,-2e-05,0.00015,0.00032,0.00112,-9e-05,7e-05,7e-05,5
21445,22229,0.00015,-2e-05,0.00015,0.00032,0.00112,-9e-05,7e-05,7e-05,5
21446,22230,0.00015,-2e-05,0.00015,0.00032,0.00112,-9e-05,7e-05,7e-05,5
21447,22231,0.00015,-2e-05,0.00015,0.00032,0.00112,-9e-05,7e-05,7e-05,5
21448,22232,0.00015,-2e-05,0.00015,0.00032,0.00112,-9e-05,7e-05,7e-05,5
21449,22233,0.00015,-2e-05,0.00015,0.00032,0.00112,-9e-05,7e-05,7e-05,5
21450,22234,0.00015,-2e-05,0.00015,0.00032,0.00112,-9e-05,7e-05,7e-05,5
21451,22235,0.00015,-2e-05,0.00015,0.00032,0.00112,-9e-05,7e-05,7e-05,5
21452,22236,0.00015,-2e-05,0.00015,0.00032,0.00112,-9e-05,7e-05,7e-05,5
21453,22238,0.00015,-2e-05,0.00015,0.00032,0.00112,-9e-05,7e-05,7e-05,5
21454,22239,0.00015,-2e-05,0.00015,0.00032,0.00112,-9e-05,7e-05,7e-05,5
21455,22240,0.00015,-2e-05,0.00015,0.00032,0.00112,-9e-05,7e-05,7e-05,5
21456,22241,0.00015,-2e-05,0.00015,0.00032,0.00112,-9e-05,7e-05,7e-05,5
21457,22242,-2.9999999999999997e-05,-1e-05,0.00011999999999999999,0.00011,-0.00022999999999999998,-0.00021,4e-05,-1e-05,5
21458,22243,-2.9999999999999997e-05,-1e-05,0.00011999999999999999,0.00011,-0.00022999999999999998,-0.00021,4e-05,-1e-05,5
21459,22244,-4e-05,-1e-05,-0.00011,-2e-05,-0.00056,-2e-05,-0.00014,-7e-05,5
21460,22245,-4e-05,-1e-05,-0.00011,-2e-05,-0.00056,-2e-05,-0.00014,-7e-05,5
21461,22246,-4e-05,-1e-05,-0.00011,-2e-05,-0.00056,-2e-05,-0.00014,-7e-05,5
21462,22247,-4e-05,-1e-05,-0.00011,-2e-05,-0.00056,-2e-05,-0.00014,-7e-05,5
21463,22248,-4e-05,-1e-05,-0.00011,-2e-05,-0.00056,-2e-05,-0.00014,-7e-05,5
21464,22249,-4e-05,-1e-05,-0.00011,-2e-05,-0.00056,-2e-05,-0.00014,-7e-05,5
21465,22250,-4e-05,-1e-05,-0.00011,-2e-05,-0.00056,-2e-05,-0.00014,-7e-05,5
21466,22251,-4e-05,-1e-05,-0.00011,-2e-05,-0.00056,-2e-05,-0.00014,-7e-05,5
21467,22252,-4e-05,-1e-05,-0.00011,-2e-05,-0.00056,-2e-05,-0.00014,-7e-05,5
21468,22253,-4e-05,-1e-05,-0.00011,-2e-05,-0.00056,-2e-05,-0.00014,-7e-05,5
21469,22254,-4e-05,-1e-05,-0.00011,-2e-05,-0.00056,-2e-05,-0.00014,-7e-05,5
21470,22255,-4e-05,-1e-05,-0.00011,-2e-05,-0.00056,-2e-05,-0.00014,-7e-05,5
21471,22256,-0.00014,0.0,0.00022,-0.00033,-5e-05,0.00014,-5e-05,-5e-05,5
21472,22257,-0.00014,0.0,0.00022,-0.00033,-5e-05,0.00014,-5e-05,-5e-05,5
21473,22258,-0.00014,0.0,0.00022,-0.00033,-5e-05,0.00014,-5e-05,-5e-05,5
21474,22259,-0.00014,0.0,0.00022,-0.00033,-5e-05,0.00014,-5e-05,-5e-05,5
21475,22260,-0.00014,0.0,0.00022,-0.00033,-5e-05,0.00014,-5e-05,-5e-05,5
21476,22261,-0.00014,0.0,0.00022,-0.00033,-5e-05,0.00014,-5e-05,-5e-05,5
21477,22262,-0.00014,0.0,0.00022,-0.00033,-5e-05,0.00014,-5e-05,-5e-05,5
21478,22263,-0.00014,0.0,0.00022,-0.00033,-5e-05,0.00014,-5e-05,-5e-05,5
21479,22264,-0.00014,0.0,0.00022,-0.00033,-5e-05,0.00014,-5e-05,-5e-05,5
21480,22265,-9e-05,2.9999999999999997e-05,-5e-05,0.0001,0.00074,0.00022999999999999998,-5.9999999999999995e-05,0.0,5
21481,22266,-9e-05,2.9999999999999997e-05,-5e-05,0.0001,0.00074,0.00022999999999999998,-5.9999999999999995e-05,0.0,5
21482,22267,-9e-05,2.9999999999999997e-05,-5e-05,0.0001,0.00074,0.00022999999999999998,-5.9999999999999995e-05,0.0,5
21483,22268,-9e-05,2.9999999999999997e-05,-5e-05,0.0001,0.00074,0.00022999999999999998,-5.9999999999999995e-05,0.0,5
21484,22269,-9e-05,2.9999999999999997e-05,-5e-05,0.0001,0.00074,0.00022999999999999998,-5.9999999999999995e-05,0.0,5
21485,22270,-9e-05,2.9999999999999997e-05,-5e-05,0.0001,0.00074,0.00022999999999999998,-5.9999999999999995e-05,0.0,5
21486,22271,-9e-05,2.9999999999999997e-05,-5e-05,0.0001,0.00074,0.00022999999999999998,-5.9999999999999995e-05,0.0,5
21487,22272,-9e-05,2.9999999999999997e-05,-5e-05,0.0001,0.00074,0.00022999999999999998,-5.9999999999999995e-05,0.0,5
21488,22273,-9e-05,2.9999999999999997e-05,-5e-05,0.0001,0.00074,0.00022999999999999998,-5.9999999999999995e-05,0.0,5
21489,22274,-9e-05,2.9999999999999997e-05,-5e-05,0.0001,0.00074,0.00022999999999999998,-5.9999999999999995e-05,0.0,5
21490,22275,-9e-05,2.9999999999999997e-05,-5e-05,0.0001,0.00074,0.00022999999999999998,-5.9999999999999995e-05,0.0,5
21491,22276,-9e-05,2.9999999999999997e-05,-5e-05,0.0001,0.00074,0.00022999999999999998,-5.9999999999999995e-05,0.0,5
21492,22277,-9e-05,2.9999999999999997e-05,-5e-05,0.0001,0.00074,0.00022999999999999998,-5.9999999999999995e-05,0.0,5
21493,22278,-9e-05,2.9999999999999997e-05,-5e-05,0.0001,0.00074,0.00022999999999999998,-5.9999999999999995e-05,0.0,5
21494,22279,-9e-05,2.9999999999999997e-05,-5e-05,0.0001,0.00074,0.00022999999999999998,-5.9999999999999995e-05,0.0,5
21495,22280,0.0001,-5e-05,-0.00013000000000000002,-0.00025,-0.00028,-1e-05,-7e-05,-2e-05,5
21496,22281,7e-05,4e-05,-9e-05,-0.0003,-0.00075,-2e-05,2.9999999999999997e-05,0.0,5
21497,22282,7e-05,4e-05,-9e-05,-0.0003,-0.00075,-2e-05,2.9999999999999997e-05,0.0,5
21498,22283,7e-05,4e-05,-9e-05,-0.0003,-0.00075,-2e-05,2.9999999999999997e-05,0.0,5
21499,22284,7e-05,4e-05,-9e-05,-0.0003,-0.00075,-2e-05,2.9999999999999997e-05,0.0,5
21500,22285,7e-05,4e-05,-9e-05,-0.0003,-0.00075,-2e-05,2.9999999999999997e-05,0.0,5
21501,22286,7e-05,4e-05,-9e-05,-0.0003,-0.00075,-2e-05,2.9999999999999997e-05,0.0,5
21502,22288,7e-05,4e-05,-9e-05,-0.0003,-0.00075,-2e-05,2.9999999999999997e-05,0.0,5
21503,22289,7e-05,4e-05,-9e-05,-0.0003,-0.00075,-2e-05,2.9999999999999997e-05,0.0,5
21504,22290,7e-05,4e-05,-9e-05,-0.0003,-0.00075,-2e-05,2.9999999999999997e-05,0.0,5
21505,22291,7e-05,4e-05,-9e-05,-0.0003,-0.00075,-2e-05,2.9999999999999997e-05,0.0,5
21506,22292,7e-05,4e-05,-9e-05,-0.0003,-0.00075,-2e-05,2.9999999999999997e-05,0.0,5
21507,22293,7e-05,4e-05,-9e-05,-0.0003,-0.00075,-2e-05,2.9999999999999997e-05,0.0,5
21508,22294,7e-05,4e-05,-9e-05,-0.0003,-0.00075,-2e-05,2.9999999999999997e-05,0.0,5
21509,22295,7e-05,4e-05,-9e-05,-0.0003,-0.00075,-2e-05,2.9999999999999997e-05,0.0,5
21510,22296,7e-05,4e-05,-9e-05,-0.0003,-0.00075,-2e-05,2.9999999999999997e-05,0.0,5
21511,22297,7e-05,4e-05,-9e-05,-0.0003,-0.00075,-2e-05,2.9999999999999997e-05,0.0,5
21512,22298,7e-05,4e-05,-9e-05,-0.0003,-0.00075,-2e-05,2.9999999999999997e-05,0.0,5
21513,22299,7e-05,4e-05,-9e-05,-0.0003,-0.00075,-2e-05,2.9999999999999997e-05,0.0,5
21514,22300,7e-05,4e-05,-9e-05,-0.0003,-0.00075,-2e-05,2.9999999999999997e-05,0.0,5
21515,22301,7e-05,4e-05,-9e-05,-0.0003,-0.00075,-2e-05,2.9999999999999997e-05,0.0,5
21516,22302,0.00011,2e-05,-0.00022,-4e-05,0.0009599999999999999,-5.9999999999999995e-05,-0.00015,-2.9999999999999997e-05,5
21517,22303,0.00011,2e-05,-0.00022,-4e-05,0.0009599999999999999,-5.9999999999999995e-05,-0.00015,-2.9999999999999997e-05,5
21518,22304,-0.00018999999999999998,-5e-05,7e-05,-0.00016999999999999999,0.0003,-0.00011,1e-05,0.0,5
21519,22305,-0.00018999999999999998,-5e-05,7e-05,-0.00016999999999999999,0.0003,-0.00011,1e-05,0.0,5
21520,22306,-0.00018999999999999998,-5e-05,7e-05,-0.00016999999999999999,0.0003,-0.00011,1e-05,0.0,5
21521,22307,-0.00018999999999999998,-5e-05,7e-05,-0.00016999999999999999,0.0003,-0.00011,1e-05,0.0,5
21522,22308,-0.00018999999999999998,-5e-05,7e-05,-0.00016999999999999999,0.0003,-0.00011,1e-05,0.0,5
21523,22309,-0.00018999999999999998,-5e-05,7e-05,-0.00016999999999999999,0.0003,-0.00011,1e-05,0.0,5
21524,22310,-0.00018999999999999998,-5e-05,7e-05,-0.00016999999999999999,0.0003,-0.00011,1e-05,0.0,5
21525,22311,-0.00018999999999999998,-5e-05,7e-05,-0.00016999999999999999,0.0003,-0.00011,1e-05,0.0,5
21526,22312,-0.00018999999999999998,-5e-05,7e-05,-0.00016999999999999999,0.0003,-0.00011,1e-05,0.0,5
21527,22313,-0.00018999999999999998,-5e-05,7e-05,-0.00016999999999999999,0.0003,-0.00011,1e-05,0.0,5
21528,22314,-0.00018999999999999998,-5e-05,7e-05,-0.00016999999999999999,0.0003,-0.00011,1e-05,0.0,5
21529,22315,-0.00018999999999999998,-5e-05,7e-05,-0.00016999999999999999,0.0003,-0.00011,1e-05,0.0,5
21530,22316,-0.00018999999999999998,-5e-05,7e-05,-0.00016999999999999999,0.0003,-0.00011,1e-05,0.0,5
21531,22317,-0.00018999999999999998,-5e-05,7e-05,-0.00016999999999999999,0.0003,-0.00011,1e-05,0.0,5
21532,22318,-0.00018999999999999998,-5e-05,7e-05,-0.00016999999999999999,0.0003,-0.00011,1e-05,0.0,5
21533,22319,-0.00018999999999999998,-5e-05,7e-05,-0.00016999999999999999,0.0003,-0.00011,1e-05,0.0,5
21534,22320,-0.00018999999999999998,-5e-05,7e-05,-0.00016999999999999999,0.0003,-0.00011,1e-05,0.0,5
21535,22321,-0.00018999999999999998,-5e-05,7e-05,-0.00016999999999999999,0.0003,-0.00011,1e-05,0.0,5
21536,22322,-0.00018999999999999998,-5e-05,7e-05,-0.00016999999999999999,0.0003,-0.00011,1e-05,0.0,5
21537,22323,-0.00018999999999999998,-5e-05,7e-05,-0.00016999999999999999,0.0003,-0.00011,1e-05,0.0,5
21538,22324,-0.00018999999999999998,-5e-05,7e-05,-0.00016999999999999999,0.0003,-0.00011,1e-05,0.0,5
21539,22325,-0.00011,-2.9999999999999997e-05,0.0,-0.00018,0.00031,-2.9999999999999997e-05,-5.9999999999999995e-05,-5e-05,5
21540,22326,-0.00014,-2e-05,-5.9999999999999995e-05,-0.00021,-0.00044,-2.9999999999999997e-05,-4e-05,-5.9999999999999995e-05,5
21541,22327,-0.00014,-2e-05,-5.9999999999999995e-05,-0.00021,-0.00044,-2.9999999999999997e-05,-4e-05,-5.9999999999999995e-05,5
21542,22328,-0.00014,-2e-05,-5.9999999999999995e-05,-0.00021,-0.00044,-2.9999999999999997e-05,-4e-05,-5.9999999999999995e-05,5
21543,22329,-0.00014,-2e-05,-5.9999999999999995e-05,-0.00021,-0.00044,-2.9999999999999997e-05,-4e-05,-5.9999999999999995e-05,5
21544,22330,-0.00014,-2e-05,-5.9999999999999995e-05,-0.00021,-0.00044,-2.9999999999999997e-05,-4e-05,-5.9999999999999995e-05,5
21545,22331,-0.00014,-2e-05,-5.9999999999999995e-05,-0.00021,-0.00044,-2.9999999999999997e-05,-4e-05,-5.9999999999999995e-05,5
21546,22332,-0.00014,-2e-05,-5.9999999999999995e-05,-0.00021,-0.00044,-2.9999999999999997e-05,-4e-05,-5.9999999999999995e-05,5
21547,22333,-0.00014,-2e-05,-5.9999999999999995e-05,-0.00021,-0.00044,-2.9999999999999997e-05,-4e-05,-5.9999999999999995e-05,5
21548,22334,-0.00014,-2e-05,-5.9999999999999995e-05,-0.00021,-0.00044,-2.9999999999999997e-05,-4e-05,-5.9999999999999995e-05,5
21549,22335,-0.00014,-2e-05,-5.9999999999999995e-05,-0.00021,-0.00044,-2.9999999999999997e-05,-4e-05,-5.9999999999999995e-05,5
21550,22336,-0.00014,-2e-05,-5.9999999999999995e-05,-0.00021,-0.00044,-2.9999999999999997e-05,-4e-05,-5.9999999999999995e-05,5
21551,22338,-0.00014,-2e-05,-5.9999999999999995e-05,-0.00021,-0.00044,-2.9999999999999997e-05,-4e-05,-5.9999999999999995e-05,5
21552,22339,-0.00014,-2e-05,-5.9999999999999995e-05,-0.00021,-0.00044,-2.9999999999999997e-05,-4e-05,-5.9999999999999995e-05,5
21553,22340,-1e-05,2e-05,7e-05,-2.9999999999999997e-05,-0.0001,9e-05,1e-05,2.9999999999999997e-05,5
21554,22341,-9e-05,-5e-05,-0.00018999999999999998,0.00057,-0.00022999999999999998,1e-05,-2.9999999999999997e-05,0.0,5
21555,22342,-9e-05,-5e-05,-0.00018999999999999998,0.00057,-0.00022999999999999998,1e-05,-2.9999999999999997e-05,0.0,5
21556,22343,-9e-05,-5e-05,-0.00018999999999999998,0.00057,-0.00022999999999999998,1e-05,-2.9999999999999997e-05,0.0,5
21557,22344,-9e-05,-5e-05,-0.00018999999999999998,0.00057,-0.00022999999999999998,1e-05,-2.9999999999999997e-05,0.0,5
21558,22345,-9e-05,-5e-05,-0.00018999999999999998,0.00057,-0.00022999999999999998,1e-05,-2.9999999999999997e-05,0.0,5
21559,22346,-9e-05,-5e-05,-0.00018999999999999998,0.00057,-0.00022999999999999998,1e-05,-2.9999999999999997e-05,0.0,5
21560,22347,-9e-05,-5e-05,-0.00018999999999999998,0.00057,-0.00022999999999999998,1e-05,-2.9999999999999997e-05,0.0,5
21561,22348,-9e-05,-5e-05,-0.00018999999999999998,0.00057,-0.00022999999999999998,1e-05,-2.9999999999999997e-05,0.0,5
21562,22349,-9e-05,-5e-05,-0.00018999999999999998,0.00057,-0.00022999999999999998,1e-05,-2.9999999999999997e-05,0.0,5
21563,22350,-9e-05,-5e-05,-0.00018999999999999998,0.00057,-0.00022999999999999998,1e-05,-2.9999999999999997e-05,0.0,5
21564,22351,-9e-05,-5e-05,-0.00018999999999999998,0.00057,-0.00022999999999999998,1e-05,-2.9999999999999997e-05,0.0,5
21565,22352,-9e-05,-5e-05,-0.00018999999999999998,0.00057,-0.00022999999999999998,1e-05,-2.9999999999999997e-05,0.0,5
21566,22353,-9e-05,-5e-05,-0.00018999999999999998,0.00057,-0.00022999999999999998,1e-05,-2.9999999999999997e-05,0.0,5
21567,22354,-9e-05,-5e-05,-0.00018999999999999998,0.00057,-0.00022999999999999998,1e-05,-2.9999999999999997e-05,0.0,5
21568,22355,-9e-05,-5e-05,-0.00018999999999999998,0.00057,-0.00022999999999999998,1e-05,-2.9999999999999997e-05,0.0,5
21569,22356,-9e-05,-5e-05,-0.00018999999999999998,0.00057,-0.00022999999999999998,1e-05,-2.9999999999999997e-05,0.0,5
21570,22357,-9e-05,-5e-05,-0.00018999999999999998,0.00057,-0.00022999999999999998,1e-05,-2.9999999999999997e-05,0.0,5
21571,22358,-9e-05,-5e-05,-0.00018999999999999998,0.00057,-0.00022999999999999998,1e-05,-2.9999999999999997e-05,0.0,5
21572,22359,-9e-05,-5e-05,-0.00018999999999999998,0.00057,-0.00022999999999999998,1e-05,-2.9999999999999997e-05,0.0,5
21573,22360,-9e-05,-5e-05,-0.00018999999999999998,0.00057,-0.00022999999999999998,1e-05,-2.9999999999999997e-05,0.0,5
21574,22361,-9e-05,-5e-05,-0.00018999999999999998,0.00057,-0.00022999999999999998,1e-05,-2.9999999999999997e-05,0.0,5
21575,22362,-0.00025,0.0,2e-05,5.9999999999999995e-05,-5.9999999999999995e-05,0.00018,4e-05,0.0,5
21576,22363,-0.00025,0.0,2e-05,5.9999999999999995e-05,-5.9999999999999995e-05,0.00018,4e-05,0.0,5
21577,22364,-0.00013000000000000002,-4e-05,0.00022999999999999998,-0.00016999999999999999,-5.9999999999999995e-05,-0.00015,-5.9999999999999995e-05,-1e-05,5
21578,22365,-0.00013000000000000002,-4e-05,0.00022999999999999998,-0.00016999999999999999,-5.9999999999999995e-05,-0.00015,-5.9999999999999995e-05,-1e-05,5
21579,22366,-0.00013000000000000002,-4e-05,0.00022999999999999998,-0.00016999999999999999,-5.9999999999999995e-05,-0.00015,-5.9999999999999995e-05,-1e-05,5
21580,22367,-0.00013000000000000002,-4e-05,0.00022999999999999998,-0.00016999999999999999,-5.9999999999999995e-05,-0.00015,-5.9999999999999995e-05,-1e-05,5
21581,22368,-0.00013000000000000002,-4e-05,0.00022999999999999998,-0.00016999999999999999,-5.9999999999999995e-05,-0.00015,-5.9999999999999995e-05,-1e-05,5
21582,22369,-0.00013000000000000002,-4e-05,0.00022999999999999998,-0.00016999999999999999,-5.9999999999999995e-05,-0.00015,-5.9999999999999995e-05,-1e-05,5
21583,22370,-0.00013000000000000002,-4e-05,0.00022999999999999998,-0.00016999999999999999,-5.9999999999999995e-05,-0.00015,-5.9999999999999995e-05,-1e-05,5
21584,22371,-0.00013000000000000002,-4e-05,0.00022999999999999998,-0.00016999999999999999,-5.9999999999999995e-05,-0.00015,-5.9999999999999995e-05,-1e-05,5
21585,22372,-0.00013000000000000002,-4e-05,0.00022999999999999998,-0.00016999999999999999,-5.9999999999999995e-05,-0.00015,-5.9999999999999995e-05,-1e-05,5
21586,22373,-0.00013000000000000002,-4e-05,0.00022999999999999998,-0.00016999999999999999,-5.9999999999999995e-05,-0.00015,-5.9999999999999995e-05,-1e-05,5
21587,22374,-0.00013000000000000002,-4e-05,0.00022999999999999998,-0.00016999999999999999,-5.9999999999999995e-05,-0.00015,-5.9999999999999995e-05,-1e-05,5
21588,22375,-0.00013000000000000002,-4e-05,0.00022999999999999998,-0.00016999999999999999,-5.9999999999999995e-05,-0.00015,-5.9999999999999995e-05,-1e-05,5
21589,22376,-0.00013000000000000002,-4e-05,0.00022999999999999998,-0.00016999999999999999,-5.9999999999999995e-05,-0.00015,-5.9999999999999995e-05,-1e-05,5
21590,22377,-0.00013000000000000002,-4e-05,0.00022999999999999998,-0.00016999999999999999,-5.9999999999999995e-05,-0.00015,-5.9999999999999995e-05,-1e-05,5
21591,22378,-0.00013000000000000002,-4e-05,0.00022999999999999998,-0.00016999999999999999,-5.9999999999999995e-05,-0.00015,-5.9999999999999995e-05,-1e-05,5
21592,22379,-0.00013000000000000002,-4e-05,0.00022999999999999998,-0.00016999999999999999,-5.9999999999999995e-05,-0.00015,-5.9999999999999995e-05,-1e-05,5
21593,22380,-0.00013000000000000002,-4e-05,0.00022999999999999998,-0.00016999999999999999,-5.9999999999999995e-05,-0.00015,-5.9999999999999995e-05,-1e-05,5
21594,22382,-0.00013000000000000002,-4e-05,0.00022999999999999998,-0.00016999999999999999,-5.9999999999999995e-05,-0.00015,-5.9999999999999995e-05,-1e-05,5
21595,22383,-0.00013000000000000002,-4e-05,0.00022999999999999998,-0.00016999999999999999,-5.9999999999999995e-05,-0.00015,-5.9999999999999995e-05,-1e-05,5
21596,22384,-0.00013000000000000002,-4e-05,0.00022999999999999998,-0.00016999999999999999,-5.9999999999999995e-05,-0.00015,-5.9999999999999995e-05,-1e-05,5
21597,22385,-0.00031,-2.9999999999999997e-05,-8e-05,0.00018,-0.00016,-9e-05,-2e-05,-5.9999999999999995e-05,5
21598,22386,-1e-05,-1e-05,-1e-05,-5.9999999999999995e-05,0.00041,-7e-05,5.9999999999999995e-05,0.00016999999999999999,5
21599,22388,-1e-05,-1e-05,-1e-05,-5.9999999999999995e-05,0.00041,-7e-05,5.9999999999999995e-05,0.00016999999999999999,5
21600,22389,-1e-05,-1e-05,-1e-05,-5.9999999999999995e-05,0.00041,-7e-05,5.9999999999999995e-05,0.00016999999999999999,5
21601,22390,-1e-05,-1e-05,-1e-05,-5.9999999999999995e-05,0.00041,-7e-05,5.9999999999999995e-05,0.00016999999999999999,5
21602,22391,-1e-05,-1e-05,-1e-05,-5.9999999999999995e-05,0.00041,-7e-05,5.9999999999999995e-05,0.00016999999999999999,5
21603,22392,-1e-05,-1e-05,-1e-05,-5.9999999999999995e-05,0.00041,-7e-05,5.9999999999999995e-05,0.00016999999999999999,5
21604,22393,-1e-05,-1e-05,-1e-05,-5.9999999999999995e-05,0.00041,-7e-05,5.9999999999999995e-05,0.00016999999999999999,5
21605,22394,-1e-05,-1e-05,-1e-05,-5.9999999999999995e-05,0.00041,-7e-05,5.9999999999999995e-05,0.00016999999999999999,5
21606,22395,-1e-05,-1e-05,-1e-05,-5.9999999999999995e-05,0.00041,-7e-05,5.9999999999999995e-05,0.00016999999999999999,5
21607,22396,-1e-05,-1e-05,-1e-05,-5.9999999999999995e-05,0.00041,-7e-05,5.9999999999999995e-05,0.00016999999999999999,5
21608,22397,-1e-05,-1e-05,-1e-05,-5.9999999999999995e-05,0.00041,-7e-05,5.9999999999999995e-05,0.00016999999999999999,5
21609,22398,-1e-05,-1e-05,-1e-05,-5.9999999999999995e-05,0.00041,-7e-05,5.9999999999999995e-05,0.00016999999999999999,5
21610,22399,-1e-05,-1e-05,-1e-05,-5.9999999999999995e-05,0.00041,-7e-05,5.9999999999999995e-05,0.00016999999999999999,5
21611,22400,9e-05,-2e-05,0.00016,-0.00037,-0.00057,-2e-05,2.9999999999999997e-05,5e-05,5
21612,22401,2.9999999999999997e-05,2e-05,-0.00013000000000000002,-0.00025,-0.00031,0.0002,9e-05,-2.9999999999999997e-05,5
21613,22402,2.9999999999999997e-05,2e-05,-0.00013000000000000002,-0.00025,-0.00031,0.0002,9e-05,-2.9999999999999997e-05,5
21614,22403,2.9999999999999997e-05,2e-05,-0.00013000000000000002,-0.00025,-0.00031,0.0002,9e-05,-2.9999999999999997e-05,5
21615,22404,2.9999999999999997e-05,2e-05,-0.00013000000000000002,-0.00025,-0.00031,0.0002,9e-05,-2.9999999999999997e-05,5
21616,22405,2.9999999999999997e-05,2e-05,-0.00013000000000000002,-0.00025,-0.00031,0.0002,9e-05,-2.9999999999999997e-05,5
21617,22406,2.9999999999999997e-05,2e-05,-0.00013000000000000002,-0.00025,-0.00031,0.0002,9e-05,-2.9999999999999997e-05,5
21618,22407,2.9999999999999997e-05,2e-05,-0.00013000000000000002,-0.00025,-0.00031,0.0002,9e-05,-2.9999999999999997e-05,5
21619,22408,2.9999999999999997e-05,2e-05,-0.00013000000000000002,-0.00025,-0.00031,0.0002,9e-05,-2.9999999999999997e-05,5
21620,22409,2.9999999999999997e-05,2e-05,-0.00013000000000000002,-0.00025,-0.00031,0.0002,9e-05,-2.9999999999999997e-05,5
21621,22410,2.9999999999999997e-05,2e-05,-0.00013000000000000002,-0.00025,-0.00031,0.0002,9e-05,-2.9999999999999997e-05,5
21622,22411,2.9999999999999997e-05,2e-05,-0.00013000000000000002,-0.00025,-0.00031,0.0002,9e-05,-2.9999999999999997e-05,5
21623,22412,2.9999999999999997e-05,2e-05,-0.00013000000000000002,-0.00025,-0.00031,0.0002,9e-05,-2.9999999999999997e-05,5
21624,22413,2.9999999999999997e-05,2e-05,-0.00013000000000000002,-0.00025,-0.00031,0.0002,9e-05,-2.9999999999999997e-05,5
21625,22414,2.9999999999999997e-05,2e-05,-0.00013000000000000002,-0.00025,-0.00031,0.0002,9e-05,-2.9999999999999997e-05,5
21626,22415,2.9999999999999997e-05,2e-05,-0.00013000000000000002,-0.00025,-0.00031,0.0002,9e-05,-2.9999999999999997e-05,5
21627,22416,2.9999999999999997e-05,2e-05,-0.00013000000000000002,-0.00025,-0.00031,0.0002,9e-05,-2.9999999999999997e-05,5
21628,22417,2.9999999999999997e-05,2e-05,-0.00013000000000000002,-0.00025,-0.00031,0.0002,9e-05,-2.9999999999999997e-05,5
21629,22418,2.9999999999999997e-05,2e-05,-0.00013000000000000002,-0.00025,-0.00031,0.0002,9e-05,-2.9999999999999997e-05,5
21630,22419,2.9999999999999997e-05,2e-05,-0.00013000000000000002,-0.00025,-0.00031,0.0002,9e-05,-2.9999999999999997e-05,5
21631,22420,2.9999999999999997e-05,2e-05,-0.00013000000000000002,-0.00025,-0.00031,0.0002,9e-05,-2.9999999999999997e-05,5
21632,22421,2.9999999999999997e-05,2e-05,-0.00013000000000000002,-0.00025,-0.00031,0.0002,9e-05,-2.9999999999999997e-05,5
21633,22422,-4e-05,-5e-05,8e-05,-0.0001,0.0004,0.00018999999999999998,-1e-05,-1e-05,5
21634,22423,0.00011999999999999999,-1e-05,-9e-05,5.9999999999999995e-05,0.0003,-5.9999999999999995e-05,-9e-05,-5e-05,5
21635,22424,4e-05,0.0,-5e-05,-0.00011999999999999999,-0.00014,-0.00045,2e-05,-7e-05,5
21636,22425,4e-05,0.0,-5e-05,-0.00011999999999999999,-0.00014,-0.00045,2e-05,-7e-05,5
21637,22426,4e-05,0.0,-5e-05,-0.00011999999999999999,-0.00014,-0.00045,2e-05,-7e-05,5
21638,22427,4e-05,0.0,-5e-05,-0.00011999999999999999,-0.00014,-0.00045,2e-05,-7e-05,5
21639,22428,4e-05,0.0,-5e-05,-0.00011999999999999999,-0.00014,-0.00045,2e-05,-7e-05,5
21640,22429,4e-05,0.0,-5e-05,-0.00011999999999999999,-0.00014,-0.00045,2e-05,-7e-05,5
21641,22430,4e-05,0.0,-5e-05,-0.00011999999999999999,-0.00014,-0.00045,2e-05,-7e-05,5
21642,22431,4e-05,0.0,-5e-05,-0.00011999999999999999,-0.00014,-0.00045,2e-05,-7e-05,5
21643,22432,4e-05,0.0,-5e-05,-0.00011999999999999999,-0.00014,-0.00045,2e-05,-7e-05,5
21644,22433,4e-05,0.0,-5e-05,-0.00011999999999999999,-0.00014,-0.00045,2e-05,-7e-05,5
21645,22434,4e-05,0.0,-5e-05,-0.00011999999999999999,-0.00014,-0.00045,2e-05,-7e-05,5
21646,22435,4e-05,0.0,-5e-05,-0.00011999999999999999,-0.00014,-0.00045,2e-05,-7e-05,5
21647,22436,4e-05,0.0,-5e-05,-0.00011999999999999999,-0.00014,-0.00045,2e-05,-7e-05,5
21648,22438,4e-05,0.0,-5e-05,-0.00011999999999999999,-0.00014,-0.00045,2e-05,-7e-05,5
21649,22439,4e-05,0.0,-5e-05,-0.00011999999999999999,-0.00014,-0.00045,2e-05,-7e-05,5
21650,22441,4e-05,0.0,-5e-05,-0.00011999999999999999,-0.00014,-0.00045,2e-05,-7e-05,5
21651,22442,4e-05,0.0,-5e-05,-0.00011999999999999999,-0.00014,-0.00045,2e-05,-7e-05,5
21652,22443,4e-05,0.0,-5e-05,-0.00011999999999999999,-0.00014,-0.00045,2e-05,-7e-05,5
21653,22444,4e-05,0.0,-5e-05,-0.00011999999999999999,-0.00014,-0.00045,2e-05,-7e-05,5
21654,22445,0.00045,-1e-05,-0.00023999999999999998,-0.00018,-0.00063,-5e-05,4e-05,7e-05,5
21655,22446,0.00026000000000000003,-5.9999999999999995e-05,0.00014,-1e-05,-0.0003,-0.00015,-2e-05,0.0,5
21656,22447,0.00026000000000000003,-5.9999999999999995e-05,0.00014,-1e-05,-0.0003,-0.00015,-2e-05,0.0,5
21657,22448,0.00026000000000000003,-5.9999999999999995e-05,0.00014,-1e-05,-0.0003,-0.00015,-2e-05,0.0,5
21658,22449,0.00026000000000000003,-5.9999999999999995e-05,0.00014,-1e-05,-0.0003,-0.00015,-2e-05,0.0,5
21659,22450,0.00026000000000000003,-5.9999999999999995e-05,0.00014,-1e-05,-0.0003,-0.00015,-2e-05,0.0,5
21660,22451,0.00026000000000000003,-5.9999999999999995e-05,0.00014,-1e-05,-0.0003,-0.00015,-2e-05,0.0,5
21661,22452,0.00026000000000000003,-5.9999999999999995e-05,0.00014,-1e-05,-0.0003,-0.00015,-2e-05,0.0,5
21662,22453,0.00026000000000000003,-5.9999999999999995e-05,0.00014,-1e-05,-0.0003,-0.00015,-2e-05,0.0,5
21663,22454,0.00026000000000000003,-5.9999999999999995e-05,0.00014,-1e-05,-0.0003,-0.00015,-2e-05,0.0,5
21664,22455,0.00026000000000000003,-5.9999999999999995e-05,0.00014,-1e-05,-0.0003,-0.00015,-2e-05,0.0,5
21665,22456,0.00026000000000000003,-5.9999999999999995e-05,0.00014,-1e-05,-0.0003,-0.00015,-2e-05,0.0,5
21666,22457,0.00026000000000000003,-5.9999999999999995e-05,0.00014,-1e-05,-0.0003,-0.00015,-2e-05,0.0,5
21667,22458,0.00026000000000000003,-5.9999999999999995e-05,0.00014,-1e-05,-0.0003,-0.00015,-2e-05,0.0,5
21668,22459,4e-05,-4e-05,0.0002,0.0005200000000000001,0.00098,2e-05,4e-05,4e-05,5
21669,22460,4e-05,-4e-05,0.0002,0.0005200000000000001,0.00098,2e-05,4e-05,4e-05,5
21670,22461,4e-05,-4e-05,0.0002,0.0005200000000000001,0.00098,2e-05,4e-05,4e-05,5
21671,22462,4e-05,-4e-05,0.0002,0.0005200000000000001,0.00098,2e-05,4e-05,4e-05,5
21672,22463,4e-05,-4e-05,0.0002,0.0005200000000000001,0.00098,2e-05,4e-05,4e-05,5
21673,22464,4e-05,-4e-05,0.0002,0.0005200000000000001,0.00098,2e-05,4e-05,4e-05,5
21674,22465,4e-05,-4e-05,0.0002,0.0005200000000000001,0.00098,2e-05,4e-05,4e-05,5
21675,22466,-0.00018999999999999998,0.0,-0.00015,-0.00022,0.00041,-2e-05,-5e-05,-7e-05,5
21676,22467,-0.00018999999999999998,0.0,-0.00015,-0.00022,0.00041,-2e-05,-5e-05,-7e-05,5
21677,22468,-0.00018999999999999998,0.0,-0.00015,-0.00022,0.00041,-2e-05,-5e-05,-7e-05,5
21678,22469,-0.00018999999999999998,0.0,-0.00015,-0.00022,0.00041,-2e-05,-5e-05,-7e-05,5
21679,22470,-0.00018999999999999998,0.0,-0.00015,-0.00022,0.00041,-2e-05,-5e-05,-7e-05,5
21680,22471,-0.00018999999999999998,0.0,-0.00015,-0.00022,0.00041,-2e-05,-5e-05,-7e-05,5
21681,22472,-0.00018999999999999998,0.0,-0.00015,-0.00022,0.00041,-2e-05,-5e-05,-7e-05,5
21682,22473,-0.00018999999999999998,0.0,-0.00015,-0.00022,0.00041,-2e-05,-5e-05,-7e-05,5
21683,22474,-0.00018999999999999998,0.0,-0.00015,-0.00022,0.00041,-2e-05,-5e-05,-7e-05,5
21684,22475,-0.00018999999999999998,0.0,-0.00015,-0.00022,0.00041,-2e-05,-5e-05,-7e-05,5
21685,22476,-0.00018999999999999998,0.0,-0.00015,-0.00022,0.00041,-2e-05,-5e-05,-7e-05,5
21686,22477,-0.00018999999999999998,0.0,-0.00015,-0.00022,0.00041,-2e-05,-5e-05,-7e-05,5
21687,22478,-0.00018999999999999998,0.0,-0.00015,-0.00022,0.00041,-2e-05,-5e-05,-7e-05,5
21688,22479,-0.00018999999999999998,0.0,-0.00015,-0.00022,0.00041,-2e-05,-5e-05,-7e-05,5
21689,22480,-0.00018999999999999998,0.0,-0.00015,-0.00022,0.00041,-2e-05,-5e-05,-7e-05,5
21690,22481,-0.00018999999999999998,0.0,-0.00015,-0.00022,0.00041,-2e-05,-5e-05,-7e-05,5
21691,22482,-0.00016,2.9999999999999997e-05,-2e-05,0.00016,-0.00022,2e-05,-0.00014,-9e-05,5
21692,22483,-0.00016,2.9999999999999997e-05,-2e-05,0.00016,-0.00022,2e-05,-0.00014,-9e-05,5
21693,22484,-0.00013000000000000002,-2e-05,0.0,-4e-05,-0.0005099999999999999,0.00026000000000000003,0.0,-5e-05,5
21694,22485,-0.00013000000000000002,-2e-05,0.0,-4e-05,-0.0005099999999999999,0.00026000000000000003,0.0,-5e-05,5
21695,22486,-0.00013000000000000002,-2e-05,0.0,-4e-05,-0.0005099999999999999,0.00026000000000000003,0.0,-5e-05,5
21696,22488,-0.00013000000000000002,-2e-05,0.0,-4e-05,-0.0005099999999999999,0.00026000000000000003,0.0,-5e-05,5
21697,22489,-0.00013000000000000002,-2e-05,0.0,-4e-05,-0.0005099999999999999,0.00026000000000000003,0.0,-5e-05,5
21698,22490,-0.00013000000000000002,-2e-05,0.0,-4e-05,-0.0005099999999999999,0.00026000000000000003,0.0,-5e-05,5
21699,22491,-0.00013000000000000002,-2e-05,0.0,-4e-05,-0.0005099999999999999,0.00026000000000000003,0.0,-5e-05,5
21700,22492,-0.00013000000000000002,-2e-05,0.0,-4e-05,-0.0005099999999999999,0.00026000000000000003,0.0,-5e-05,5
21701,22493,-0.00013000000000000002,-2e-05,0.0,-4e-05,-0.0005099999999999999,0.00026000000000000003,0.0,-5e-05,5
21702,22494,-0.00013000000000000002,-2e-05,0.0,-4e-05,-0.0005099999999999999,0.00026000000000000003,0.0,-5e-05,5
21703,22495,-0.00013000000000000002,-2e-05,0.0,-4e-05,-0.0005099999999999999,0.00026000000000000003,0.0,-5e-05,5
21704,22496,-0.00013000000000000002,-2e-05,0.0,-4e-05,-0.0005099999999999999,0.00026000000000000003,0.0,-5e-05,5
21705,22497,-0.00013000000000000002,-2e-05,0.0,-4e-05,-0.0005099999999999999,0.00026000000000000003,0.0,-5e-05,5
21706,22498,-0.00013000000000000002,-2e-05,0.0,-4e-05,-0.0005099999999999999,0.00026000000000000003,0.0,-5e-05,5
21707,22499,-0.00013000000000000002,-2e-05,0.0,-4e-05,-0.0005099999999999999,0.00026000000000000003,0.0,-5e-05,5
21708,22500,-0.00013000000000000002,-2e-05,0.0,-4e-05,-0.0005099999999999999,0.00026000000000000003,0.0,-5e-05,5
21709,22501,-0.00013000000000000002,-2e-05,0.0,-4e-05,-0.0005099999999999999,0.00026000000000000003,0.0,-5e-05,5
21710,22502,-0.00013000000000000002,-2e-05,0.0,-4e-05,-0.0005099999999999999,0.00026000000000000003,0.0,-5e-05,5
21711,22503,-0.00013000000000000002,-2e-05,0.0,-4e-05,-0.0005099999999999999,0.00026000000000000003,0.0,-5e-05,5
21712,22504,-0.00013000000000000002,-2e-05,0.0,-4e-05,-0.0005099999999999999,0.00026000000000000003,0.0,-5e-05,5
21713,22505,-0.00011,-2.9999999999999997e-05,0.0,0.00021,-0.00042,-9e-05,-0.00011,-5e-05,5
21714,22506,-0.00011,-1e-05,4e-05,4e-05,0.00072,-2.9999999999999997e-05,-0.00011999999999999999,-5.9999999999999995e-05,5
21715,22507,0.00026000000000000003,1e-05,-0.00033999999999999997,-0.00035,-0.00056,-2.9999999999999997e-05,2e-05,5.9999999999999995e-05,5
21716,22508,0.00026000000000000003,1e-05,-0.00033999999999999997,-0.00035,-0.00056,-2.9999999999999997e-05,2e-05,5.9999999999999995e-05,5
21717,22509,0.00026000000000000003,1e-05,-0.00033999999999999997,-0.00035,-0.00056,-2.9999999999999997e-05,2e-05,5.9999999999999995e-05,5
21718,22510,0.00026000000000000003,1e-05,-0.00033999999999999997,-0.00035,-0.00056,-2.9999999999999997e-05,2e-05,5.9999999999999995e-05,5
21719,22511,0.00026000000000000003,1e-05,-0.00033999999999999997,-0.00035,-0.00056,-2.9999999999999997e-05,2e-05,5.9999999999999995e-05,5
21720,22512,0.00026000000000000003,1e-05,-0.00033999999999999997,-0.00035,-0.00056,-2.9999999999999997e-05,2e-05,5.9999999999999995e-05,5
21721,22513,0.00026000000000000003,1e-05,-0.00033999999999999997,-0.00035,-0.00056,-2.9999999999999997e-05,2e-05,5.9999999999999995e-05,5
21722,22514,0.00026000000000000003,1e-05,-0.00033999999999999997,-0.00035,-0.00056,-2.9999999999999997e-05,2e-05,5.9999999999999995e-05,5
21723,22515,0.00026000000000000003,1e-05,-0.00033999999999999997,-0.00035,-0.00056,-2.9999999999999997e-05,2e-05,5.9999999999999995e-05,5
21724,22516,0.00026000000000000003,1e-05,-0.00033999999999999997,-0.00035,-0.00056,-2.9999999999999997e-05,2e-05,5.9999999999999995e-05,5
21725,22517,0.00026000000000000003,1e-05,-0.00033999999999999997,-0.00035,-0.00056,-2.9999999999999997e-05,2e-05,5.9999999999999995e-05,5
21726,22518,0.00026000000000000003,1e-05,-0.00033999999999999997,-0.00035,-0.00056,-2.9999999999999997e-05,2e-05,5.9999999999999995e-05,5
21727,22519,-0.00032,1e-05,-9e-05,-0.00022999999999999998,0.0002,5e-05,5e-05,-4e-05,5
21728,22520,-0.00032,1e-05,-9e-05,-0.00022999999999999998,0.0002,5e-05,5e-05,-4e-05,5
21729,22521,-0.00032,1e-05,-9e-05,-0.00022999999999999998,0.0002,5e-05,5e-05,-4e-05,5
21730,22522,-0.00032,1e-05,-9e-05,-0.00022999999999999998,0.0002,5e-05,5e-05,-4e-05,5
21731,22523,-0.00032,1e-05,-9e-05,-0.00022999999999999998,0.0002,5e-05,5e-05,-4e-05,5
21732,22524,-0.00032,1e-05,-9e-05,-0.00022999999999999998,0.0002,5e-05,5e-05,-4e-05,5
21733,22525,-0.00032,1e-05,-9e-05,-0.00022999999999999998,0.0002,5e-05,5e-05,-4e-05,5
21734,22526,0.00025,0.0,-4e-05,0.00039,0.0008300000000000001,0.0005099999999999999,-0.00013000000000000002,-8e-05,5
21735,22527,0.00025,0.0,-4e-05,0.00039,0.0008300000000000001,0.0005099999999999999,-0.00013000000000000002,-8e-05,5
21736,22528,0.00025,0.0,-4e-05,0.00039,0.0008300000000000001,0.0005099999999999999,-0.00013000000000000002,-8e-05,5
21737,22529,0.00025,0.0,-4e-05,0.00039,0.0008300000000000001,0.0005099999999999999,-0.00013000000000000002,-8e-05,5
21738,22530,0.00025,0.0,-4e-05,0.00039,0.0008300000000000001,0.0005099999999999999,-0.00013000000000000002,-8e-05,5
21739,22531,0.00025,0.0,-4e-05,0.00039,0.0008300000000000001,0.0005099999999999999,-0.00013000000000000002,-8e-05,5
21740,22532,0.00025,0.0,-4e-05,0.00039,0.0008300000000000001,0.0005099999999999999,-0.00013000000000000002,-8e-05,5
21741,22533,0.00025,0.0,-4e-05,0.00039,0.0008300000000000001,0.0005099999999999999,-0.00013000000000000002,-8e-05,5
21742,22534,0.00025,0.0,-4e-05,0.00039,0.0008300000000000001,0.0005099999999999999,-0.00013000000000000002,-8e-05,5
21743,22535,0.00025,0.0,-4e-05,0.00039,0.0008300000000000001,0.0005099999999999999,-0.00013000000000000002,-8e-05,5
21744,22536,0.00025,0.0,-4e-05,0.00039,0.0008300000000000001,0.0005099999999999999,-0.00013000000000000002,-8e-05,5
21745,22538,0.00025,0.0,-4e-05,0.00039,0.0008300000000000001,0.0005099999999999999,-0.00013000000000000002,-8e-05,5
21746,22539,0.00025,0.0,-4e-05,0.00039,0.0008300000000000001,0.0005099999999999999,-0.00013000000000000002,-8e-05,5
21747,22540,0.00025,0.0,-4e-05,0.00039,0.0008300000000000001,0.0005099999999999999,-0.00013000000000000002,-8e-05,5
21748,22541,0.00025,0.0,-4e-05,0.00039,0.0008300000000000001,0.0005099999999999999,-0.00013000000000000002,-8e-05,5
21749,22542,-4e-05,-1e-05,-4e-05,-0.0002,-2.9999999999999997e-05,-0.0004,0.00021,8e-05,5
21750,22543,-4e-05,-1e-05,-4e-05,-0.0002,-2.9999999999999997e-05,-0.0004,0.00021,8e-05,5
21751,22544,-0.00015,0.0,5e-05,0.00035,2e-05,-5.9999999999999995e-05,-2e-05,-2.9999999999999997e-05,5
21752,22545,-0.00015,0.0,5e-05,0.00035,2e-05,-5.9999999999999995e-05,-2e-05,-2.9999999999999997e-05,5
21753,22546,-0.00015,0.0,5e-05,0.00035,2e-05,-5.9999999999999995e-05,-2e-05,-2.9999999999999997e-05,5
21754,22547,-0.00015,0.0,5e-05,0.00035,2e-05,-5.9999999999999995e-05,-2e-05,-2.9999999999999997e-05,5
21755,22548,-0.00015,0.0,5e-05,0.00035,2e-05,-5.9999999999999995e-05,-2e-05,-2.9999999999999997e-05,5
21756,22549,-0.00015,0.0,5e-05,0.00035,2e-05,-5.9999999999999995e-05,-2e-05,-2.9999999999999997e-05,5
21757,22550,-0.00015,0.0,5e-05,0.00035,2e-05,-5.9999999999999995e-05,-2e-05,-2.9999999999999997e-05,5
21758,22551,-0.00015,0.0,5e-05,0.00035,2e-05,-5.9999999999999995e-05,-2e-05,-2.9999999999999997e-05,5
21759,22552,-0.00015,0.0,5e-05,0.00035,2e-05,-5.9999999999999995e-05,-2e-05,-2.9999999999999997e-05,5
21760,22553,-0.00015,0.0,5e-05,0.00035,2e-05,-5.9999999999999995e-05,-2e-05,-2.9999999999999997e-05,5
21761,22554,-0.00015,0.0,5e-05,0.00035,2e-05,-5.9999999999999995e-05,-2e-05,-2.9999999999999997e-05,5
21762,22555,-0.00015,0.0,5e-05,0.00035,2e-05,-5.9999999999999995e-05,-2e-05,-2.9999999999999997e-05,5
21763,22556,-0.00015,0.0,5e-05,0.00035,2e-05,-5.9999999999999995e-05,-2e-05,-2.9999999999999997e-05,5
21764,22557,-0.00015,0.0,5e-05,0.00035,2e-05,-5.9999999999999995e-05,-2e-05,-2.9999999999999997e-05,5
21765,22558,-0.00015,0.0,5e-05,0.00035,2e-05,-5.9999999999999995e-05,-2e-05,-2.9999999999999997e-05,5
21766,22559,-0.00015,0.0,5e-05,0.00035,2e-05,-5.9999999999999995e-05,-2e-05,-2.9999999999999997e-05,5
21767,22560,-0.00015,0.0,5e-05,0.00035,2e-05,-5.9999999999999995e-05,-2e-05,-2.9999999999999997e-05,5
21768,22561,-0.00015,0.0,5e-05,0.00035,2e-05,-5.9999999999999995e-05,-2e-05,-2.9999999999999997e-05,5
21769,22562,-0.00015,0.0,5e-05,0.00035,2e-05,-5.9999999999999995e-05,-2e-05,-2.9999999999999997e-05,5
21770,22563,-0.00015,0.0,5e-05,0.00035,2e-05,-5.9999999999999995e-05,-2e-05,-2.9999999999999997e-05,5
21771,22564,-0.00015,0.0,5e-05,0.00035,2e-05,-5.9999999999999995e-05,-2e-05,-2.9999999999999997e-05,5
21772,22565,0.00026000000000000003,-1e-05,7e-05,5e-05,-1e-05,-2e-05,-5e-05,2e-05,5
21773,22566,0.00015,-2.9999999999999997e-05,-2e-05,-0.00016,-0.00037,-0.00016999999999999999,-4e-05,-4e-05,5
21774,22567,0.00015,-2.9999999999999997e-05,-2e-05,-0.00016,-0.00037,-0.00016999999999999999,-4e-05,-4e-05,5
21775,22568,0.00015,-2.9999999999999997e-05,-2e-05,-0.00016,-0.00037,-0.00016999999999999999,-4e-05,-4e-05,5
21776,22569,0.00015,-2.9999999999999997e-05,-2e-05,-0.00016,-0.00037,-0.00016999999999999999,-4e-05,-4e-05,5
21777,22570,0.00015,-2.9999999999999997e-05,-2e-05,-0.00016,-0.00037,-0.00016999999999999999,-4e-05,-4e-05,5
21778,22571,0.00015,-2.9999999999999997e-05,-2e-05,-0.00016,-0.00037,-0.00016999999999999999,-4e-05,-4e-05,5
21779,22572,0.00015,-2.9999999999999997e-05,-2e-05,-0.00016,-0.00037,-0.00016999999999999999,-4e-05,-4e-05,5
21780,22573,0.00015,-2.9999999999999997e-05,-2e-05,-0.00016,-0.00037,-0.00016999999999999999,-4e-05,-4e-05,5
21781,22574,0.00015,-2.9999999999999997e-05,-2e-05,-0.00016,-0.00037,-0.00016999999999999999,-4e-05,-4e-05,5
21782,22575,0.00015,-2.9999999999999997e-05,-2e-05,-0.00016,-0.00037,-0.00016999999999999999,-4e-05,-4e-05,5
21783,22576,0.00015,-2.9999999999999997e-05,-2e-05,-0.00016,-0.00037,-0.00016999999999999999,-4e-05,-4e-05,5
21784,22577,0.00015,-2.9999999999999997e-05,-2e-05,-0.00016,-0.00037,-0.00016999999999999999,-4e-05,-4e-05,5
21785,22578,0.00015,-2.9999999999999997e-05,-2e-05,-0.00016,-0.00037,-0.00016999999999999999,-4e-05,-4e-05,5
21786,22579,-2.9999999999999997e-05,-2e-05,2.9999999999999997e-05,-1e-05,0.0004,0.00011,-5.9999999999999995e-05,-4e-05,5
21787,22580,-2.9999999999999997e-05,-2e-05,2.9999999999999997e-05,-1e-05,0.0004,0.00011,-5.9999999999999995e-05,-4e-05,5
21788,22581,-2.9999999999999997e-05,-2e-05,2.9999999999999997e-05,-1e-05,0.0004,0.00011,-5.9999999999999995e-05,-4e-05,5
21789,22582,-2.9999999999999997e-05,-2e-05,2.9999999999999997e-05,-1e-05,0.0004,0.00011,-5.9999999999999995e-05,-4e-05,5
21790,22583,-2.9999999999999997e-05,-2e-05,2.9999999999999997e-05,-1e-05,0.0004,0.00011,-5.9999999999999995e-05,-4e-05,5
21791,22584,-2.9999999999999997e-05,-2e-05,2.9999999999999997e-05,-1e-05,0.0004,0.00011,-5.9999999999999995e-05,-4e-05,5
21792,22585,-2.9999999999999997e-05,-2e-05,2.9999999999999997e-05,-1e-05,0.0004,0.00011,-5.9999999999999995e-05,-4e-05,5
21793,22586,-0.00022999999999999998,-2.9999999999999997e-05,-2.9999999999999997e-05,-0.00036,-0.00041,4e-05,-2e-05,-2.9999999999999997e-05,5
21794,22588,-0.00022999999999999998,-2.9999999999999997e-05,-2.9999999999999997e-05,-0.00036,-0.00041,4e-05,-2e-05,-2.9999999999999997e-05,5
21795,22589,-0.00022999999999999998,-2.9999999999999997e-05,-2.9999999999999997e-05,-0.00036,-0.00041,4e-05,-2e-05,-2.9999999999999997e-05,5
21796,22590,-0.00022999999999999998,-2.9999999999999997e-05,-2.9999999999999997e-05,-0.00036,-0.00041,4e-05,-2e-05,-2.9999999999999997e-05,5
21797,22591,-0.00022999999999999998,-2.9999999999999997e-05,-2.9999999999999997e-05,-0.00036,-0.00041,4e-05,-2e-05,-2.9999999999999997e-05,5
21798,22592,-0.00022999999999999998,-2.9999999999999997e-05,-2.9999999999999997e-05,-0.00036,-0.00041,4e-05,-2e-05,-2.9999999999999997e-05,5
21799,22593,-0.00022999999999999998,-2.9999999999999997e-05,-2.9999999999999997e-05,-0.00036,-0.00041,4e-05,-2e-05,-2.9999999999999997e-05,5
21800,22594,-0.00022999999999999998,-2.9999999999999997e-05,-2.9999999999999997e-05,-0.00036,-0.00041,4e-05,-2e-05,-2.9999999999999997e-05,5
21801,22595,-0.00022999999999999998,-2.9999999999999997e-05,-2.9999999999999997e-05,-0.00036,-0.00041,4e-05,-2e-05,-2.9999999999999997e-05,5
21802,22596,-0.00022999999999999998,-2.9999999999999997e-05,-2.9999999999999997e-05,-0.00036,-0.00041,4e-05,-2e-05,-2.9999999999999997e-05,5
21803,22597,-0.00022999999999999998,-2.9999999999999997e-05,-2.9999999999999997e-05,-0.00036,-0.00041,4e-05,-2e-05,-2.9999999999999997e-05,5
21804,22598,-0.00022999999999999998,-2.9999999999999997e-05,-2.9999999999999997e-05,-0.00036,-0.00041,4e-05,-2e-05,-2.9999999999999997e-05,5
21805,22599,-0.00022999999999999998,-2.9999999999999997e-05,-2.9999999999999997e-05,-0.00036,-0.00041,4e-05,-2e-05,-2.9999999999999997e-05,5
21806,22600,-0.00022999999999999998,-2.9999999999999997e-05,-2.9999999999999997e-05,-0.00036,-0.00041,4e-05,-2e-05,-2.9999999999999997e-05,5
21807,22601,-0.00022999999999999998,-2.9999999999999997e-05,-2.9999999999999997e-05,-0.00036,-0.00041,4e-05,-2e-05,-2.9999999999999997e-05,5
21808,22602,1e-05,-5.9999999999999995e-05,9e-05,-0.00031,-0.0003,0.00014,-1e-05,4e-05,5
21809,22603,1e-05,-5.9999999999999995e-05,9e-05,-0.00031,-0.0003,0.00014,-1e-05,4e-05,5
21810,22604,-8e-05,-2e-05,5.9999999999999995e-05,0.0001,0.00028,-5e-05,5e-05,-1e-05,5
21811,22605,-8e-05,-2e-05,5.9999999999999995e-05,0.0001,0.00028,-5e-05,5e-05,-1e-05,5
21812,22606,-8e-05,-2e-05,5.9999999999999995e-05,0.0001,0.00028,-5e-05,5e-05,-1e-05,5
21813,22607,-8e-05,-2e-05,5.9999999999999995e-05,0.0001,0.00028,-5e-05,5e-05,-1e-05,5
21814,22608,-8e-05,-2e-05,5.9999999999999995e-05,0.0001,0.00028,-5e-05,5e-05,-1e-05,5
21815,22609,-8e-05,-2e-05,5.9999999999999995e-05,0.0001,0.00028,-5e-05,5e-05,-1e-05,5
21816,22610,-8e-05,-2e-05,5.9999999999999995e-05,0.0001,0.00028,-5e-05,5e-05,-1e-05,5
21817,22611,-8e-05,-2e-05,5.9999999999999995e-05,0.0001,0.00028,-5e-05,5e-05,-1e-05,5
21818,22612,-8e-05,-2e-05,5.9999999999999995e-05,0.0001,0.00028,-5e-05,5e-05,-1e-05,5
21819,22613,-8e-05,-2e-05,5.9999999999999995e-05,0.0001,0.00028,-5e-05,5e-05,-1e-05,5
21820,22614,-8e-05,-2e-05,5.9999999999999995e-05,0.0001,0.00028,-5e-05,5e-05,-1e-05,5
21821,22615,-8e-05,-2e-05,5.9999999999999995e-05,0.0001,0.00028,-5e-05,5e-05,-1e-05,5
21822,22617,-8e-05,-2e-05,5.9999999999999995e-05,0.0001,0.00028,-5e-05,5e-05,-1e-05,5
21823,22618,-8e-05,-2e-05,5.9999999999999995e-05,0.0001,0.00028,-5e-05,5e-05,-1e-05,5
21824,22619,-8e-05,-2e-05,5.9999999999999995e-05,0.0001,0.00028,-5e-05,5e-05,-1e-05,5
21825,22620,-8e-05,-2e-05,5.9999999999999995e-05,0.0001,0.00028,-5e-05,5e-05,-1e-05,5
21826,22621,-8e-05,-2e-05,5.9999999999999995e-05,0.0001,0.00028,-5e-05,5e-05,-1e-05,5
21827,22622,-8e-05,-2e-05,5.9999999999999995e-05,0.0001,0.00028,-5e-05,5e-05,-1e-05,5
21828,22623,-8e-05,-2e-05,5.9999999999999995e-05,0.0001,0.00028,-5e-05,5e-05,-1e-05,5
21829,22624,-8e-05,-2e-05,5.9999999999999995e-05,0.0001,0.00028,-5e-05,5e-05,-1e-05,5
21830,22625,-0.00033999999999999997,-1e-05,-0.0001,-2.9999999999999997e-05,-0.0003,-0.00029,0.00032,5e-05,5
21831,22626,-5e-05,-2.9999999999999997e-05,5e-05,0.0,0.00031,-4e-05,-0.00015,-5e-05,5
21832,22627,-5e-05,-2.9999999999999997e-05,5e-05,0.0,0.00031,-4e-05,-0.00015,-5e-05,5
21833,22628,-5e-05,-2.9999999999999997e-05,5e-05,0.0,0.00031,-4e-05,-0.00015,-5e-05,5
21834,22629,-5e-05,-2.9999999999999997e-05,5e-05,0.0,0.00031,-4e-05,-0.00015,-5e-05,5
21835,22630,-5e-05,-2.9999999999999997e-05,5e-05,0.0,0.00031,-4e-05,-0.00015,-5e-05,5
21836,22631,-5e-05,-2.9999999999999997e-05,5e-05,0.0,0.00031,-4e-05,-0.00015,-5e-05,5
21837,22632,-5e-05,-2.9999999999999997e-05,5e-05,0.0,0.00031,-4e-05,-0.00015,-5e-05,5
21838,22633,-5e-05,-2.9999999999999997e-05,5e-05,0.0,0.00031,-4e-05,-0.00015,-5e-05,5
21839,22634,-5e-05,-2.9999999999999997e-05,5e-05,0.0,0.00031,-4e-05,-0.00015,-5e-05,5
21840,22635,-5e-05,-2.9999999999999997e-05,5e-05,0.0,0.00031,-4e-05,-0.00015,-5e-05,5
21841,22636,-5e-05,-2.9999999999999997e-05,5e-05,0.0,0.00031,-4e-05,-0.00015,-5e-05,5
21842,22638,-5e-05,-2.9999999999999997e-05,5e-05,0.0,0.00031,-4e-05,-0.00015,-5e-05,5
21843,22639,-0.00011999999999999999,0.0,9e-05,0.0003,0.00047000000000000004,0.00011999999999999999,5.9999999999999995e-05,-2e-05,5
21844,22640,-0.00011999999999999999,0.0,9e-05,0.0003,0.00047000000000000004,0.00011999999999999999,5.9999999999999995e-05,-2e-05,5
21845,22641,-0.00011999999999999999,0.0,9e-05,0.0003,0.00047000000000000004,0.00011999999999999999,5.9999999999999995e-05,-2e-05,5
21846,22642,-0.00011999999999999999,0.0,9e-05,0.0003,0.00047000000000000004,0.00011999999999999999,5.9999999999999995e-05,-2e-05,5
21847,22643,-0.00011999999999999999,0.0,9e-05,0.0003,0.00047000000000000004,0.00011999999999999999,5.9999999999999995e-05,-2e-05,5
21848,22644,-0.00011999999999999999,0.0,9e-05,0.0003,0.00047000000000000004,0.00011999999999999999,5.9999999999999995e-05,-2e-05,5
21849,22645,-0.00011999999999999999,0.0,9e-05,0.0003,0.00047000000000000004,0.00011999999999999999,5.9999999999999995e-05,-2e-05,5
21850,22646,-0.00014,1e-05,0.00021,-4e-05,0.00047000000000000004,-8e-05,1e-05,2.9999999999999997e-05,5
21851,22647,-0.00014,1e-05,0.00021,-4e-05,0.00047000000000000004,-8e-05,1e-05,2.9999999999999997e-05,5
21852,22648,-0.00014,1e-05,0.00021,-4e-05,0.00047000000000000004,-8e-05,1e-05,2.9999999999999997e-05,5
21853,22649,-0.00014,1e-05,0.00021,-4e-05,0.00047000000000000004,-8e-05,1e-05,2.9999999999999997e-05,5
21854,22650,-0.00014,1e-05,0.00021,-4e-05,0.00047000000000000004,-8e-05,1e-05,2.9999999999999997e-05,5
21855,22651,-0.00014,1e-05,0.00021,-4e-05,0.00047000000000000004,-8e-05,1e-05,2.9999999999999997e-05,5
21856,22652,-0.00014,1e-05,0.00021,-4e-05,0.00047000000000000004,-8e-05,1e-05,2.9999999999999997e-05,5
21857,22653,-0.00014,1e-05,0.00021,-4e-05,0.00047000000000000004,-8e-05,1e-05,2.9999999999999997e-05,5
21858,22654,-0.00014,1e-05,0.00021,-4e-05,0.00047000000000000004,-8e-05,1e-05,2.9999999999999997e-05,5
21859,22655,-0.00014,1e-05,0.00021,-4e-05,0.00047000000000000004,-8e-05,1e-05,2.9999999999999997e-05,5
21860,22656,-0.00014,1e-05,0.00021,-4e-05,0.00047000000000000004,-8e-05,1e-05,2.9999999999999997e-05,5
21861,22657,-0.00014,1e-05,0.00021,-4e-05,0.00047000000000000004,-8e-05,1e-05,2.9999999999999997e-05,5
21862,22658,-0.00014,1e-05,0.00021,-4e-05,0.00047000000000000004,-8e-05,1e-05,2.9999999999999997e-05,5
21863,22659,-0.00014,1e-05,0.00021,-4e-05,0.00047000000000000004,-8e-05,1e-05,2.9999999999999997e-05,5
21864,22660,-0.00014,1e-05,0.00021,-4e-05,0.00047000000000000004,-8e-05,1e-05,2.9999999999999997e-05,5
21865,22661,-0.00014,1e-05,0.00021,-4e-05,0.00047000000000000004,-8e-05,1e-05,2.9999999999999997e-05,5
21866,22662,-5e-05,-4e-05,-0.00011999999999999999,-0.00016999999999999999,8e-05,9e-05,-9e-05,-5e-05,5
21867,22663,-5e-05,-4e-05,-0.00011999999999999999,-0.00016999999999999999,8e-05,9e-05,-9e-05,-5e-05,5
21868,22664,0.00014,-2e-05,2e-05,-0.00013000000000000002,-9e-05,2.9999999999999997e-05,2e-05,0.0,5
21869,22665,0.00014,-2e-05,2e-05,-0.00013000000000000002,-9e-05,2.9999999999999997e-05,2e-05,0.0,5
21870,22666,0.00014,-2e-05,2e-05,-0.00013000000000000002,-9e-05,2.9999999999999997e-05,2e-05,0.0,5
21871,22667,0.00014,-2e-05,2e-05,-0.00013000000000000002,-9e-05,2.9999999999999997e-05,2e-05,0.0,5
21872,22668,0.00014,-2e-05,2e-05,-0.00013000000000000002,-9e-05,2.9999999999999997e-05,2e-05,0.0,5
21873,22669,0.00014,-2e-05,2e-05,-0.00013000000000000002,-9e-05,2.9999999999999997e-05,2e-05,0.0,5
21874,22670,0.00014,-2e-05,2e-05,-0.00013000000000000002,-9e-05,2.9999999999999997e-05,2e-05,0.0,5
21875,22671,0.00014,-2e-05,2e-05,-0.00013000000000000002,-9e-05,2.9999999999999997e-05,2e-05,0.0,5
21876,22672,0.00014,-2e-05,2e-05,-0.00013000000000000002,-9e-05,2.9999999999999997e-05,2e-05,0.0,5
21877,22673,0.00014,-2e-05,2e-05,-0.00013000000000000002,-9e-05,2.9999999999999997e-05,2e-05,0.0,5
21878,22674,0.00014,-2e-05,2e-05,-0.00013000000000000002,-9e-05,2.9999999999999997e-05,2e-05,0.0,5
21879,22675,0.00014,-2e-05,2e-05,-0.00013000000000000002,-9e-05,2.9999999999999997e-05,2e-05,0.0,5
21880,22676,0.00014,-2e-05,2e-05,-0.00013000000000000002,-9e-05,2.9999999999999997e-05,2e-05,0.0,5
21881,22677,0.00014,-2e-05,2e-05,-0.00013000000000000002,-9e-05,2.9999999999999997e-05,2e-05,0.0,5
21882,22678,0.00014,-2e-05,2e-05,-0.00013000000000000002,-9e-05,2.9999999999999997e-05,2e-05,0.0,5
21883,22679,0.00014,-2e-05,2e-05,-0.00013000000000000002,-9e-05,2.9999999999999997e-05,2e-05,0.0,5
21884,22680,0.00014,-2e-05,2e-05,-0.00013000000000000002,-9e-05,2.9999999999999997e-05,2e-05,0.0,5
21885,22681,0.00014,-2e-05,2e-05,-0.00013000000000000002,-9e-05,2.9999999999999997e-05,2e-05,0.0,5
21886,22682,0.00014,-2e-05,2e-05,-0.00013000000000000002,-9e-05,2.9999999999999997e-05,2e-05,0.0,5
21887,22683,0.00014,-2e-05,2e-05,-0.00013000000000000002,-9e-05,2.9999999999999997e-05,2e-05,0.0,5
21888,22684,0.00014,-2e-05,2e-05,-0.00013000000000000002,-9e-05,2.9999999999999997e-05,2e-05,0.0,5
21889,22685,-0.00011,1e-05,-2.9999999999999997e-05,0.00016999999999999999,-0.00016,0.00021,4e-05,-1e-05,5
21890,22686,-2.9999999999999997e-05,2e-05,4e-05,-0.00032,-0.0007,-4e-05,-1e-05,-2e-05,5
21891,22688,-2.9999999999999997e-05,2e-05,4e-05,-0.00032,-0.0007,-4e-05,-1e-05,-2e-05,5
21892,22689,-2.9999999999999997e-05,2e-05,4e-05,-0.00032,-0.0007,-4e-05,-1e-05,-2e-05,5
21893,22690,-2.9999999999999997e-05,2e-05,4e-05,-0.00032,-0.0007,-4e-05,-1e-05,-2e-05,5
21894,22691,-2.9999999999999997e-05,2e-05,4e-05,-0.00032,-0.0007,-4e-05,-1e-05,-2e-05,5
21895,22692,-2.9999999999999997e-05,2e-05,4e-05,-0.00032,-0.0007,-4e-05,-1e-05,-2e-05,5
21896,22693,-2.9999999999999997e-05,2e-05,4e-05,-0.00032,-0.0007,-4e-05,-1e-05,-2e-05,5
21897,22694,-2.9999999999999997e-05,2e-05,4e-05,-0.00032,-0.0007,-4e-05,-1e-05,-2e-05,5
21898,22695,-2.9999999999999997e-05,2e-05,4e-05,-0.00032,-0.0007,-4e-05,-1e-05,-2e-05,5
21899,22696,-2.9999999999999997e-05,2e-05,4e-05,-0.00032,-0.0007,-4e-05,-1e-05,-2e-05,5
21900,22697,-2.9999999999999997e-05,2e-05,4e-05,-0.00032,-0.0007,-4e-05,-1e-05,-2e-05,5
21901,22698,-2.9999999999999997e-05,2e-05,4e-05,-0.00032,-0.0007,-4e-05,-1e-05,-2e-05,5
21902,22699,5e-05,-2e-05,-0.00015,0.00018,0.00026000000000000003,4e-05,-0.00014,-5.9999999999999995e-05,5
21903,22700,5e-05,-2e-05,-0.00015,0.00018,0.00026000000000000003,4e-05,-0.00014,-5.9999999999999995e-05,5
21904,22701,5e-05,-2e-05,-0.00015,0.00018,0.00026000000000000003,4e-05,-0.00014,-5.9999999999999995e-05,5
21905,22702,5e-05,-2e-05,-0.00015,0.00018,0.00026000000000000003,4e-05,-0.00014,-5.9999999999999995e-05,5
21906,22703,5e-05,-2e-05,-0.00015,0.00018,0.00026000000000000003,4e-05,-0.00014,-5.9999999999999995e-05,5
21907,22704,5e-05,-2e-05,-0.00015,0.00018,0.00026000000000000003,4e-05,-0.00014,-5.9999999999999995e-05,5
21908,22705,5e-05,-2e-05,-0.00015,0.00018,0.00026000000000000003,4e-05,-0.00014,-5.9999999999999995e-05,5
21909,22706,-0.00011999999999999999,1e-05,8e-05,9e-05,-8e-05,-0.00023999999999999998,0.00018,2e-05,5
21910,22707,-0.00011999999999999999,1e-05,8e-05,9e-05,-8e-05,-0.00023999999999999998,0.00018,2e-05,5
21911,22708,-0.00011999999999999999,1e-05,8e-05,9e-05,-8e-05,-0.00023999999999999998,0.00018,2e-05,5
21912,22709,-0.00011999999999999999,1e-05,8e-05,9e-05,-8e-05,-0.00023999999999999998,0.00018,2e-05,5
21913,22710,-0.00011999999999999999,1e-05,8e-05,9e-05,-8e-05,-0.00023999999999999998,0.00018,2e-05,5
21914,22711,-0.00011999999999999999,1e-05,8e-05,9e-05,-8e-05,-0.00023999999999999998,0.00018,2e-05,5
21915,22712,-0.00011999999999999999,1e-05,8e-05,9e-05,-8e-05,-0.00023999999999999998,0.00018,2e-05,5
21916,22713,-0.00011999999999999999,1e-05,8e-05,9e-05,-8e-05,-0.00023999999999999998,0.00018,2e-05,5
21917,22714,-0.00011999999999999999,1e-05,8e-05,9e-05,-8e-05,-0.00023999999999999998,0.00018,2e-05,5
21918,22715,-0.00011999999999999999,1e-05,8e-05,9e-05,-8e-05,-0.00023999999999999998,0.00018,2e-05,5
21919,22716,-0.00011999999999999999,1e-05,8e-05,9e-05,-8e-05,-0.00023999999999999998,0.00018,2e-05,5
21920,22717,-0.00011999999999999999,1e-05,8e-05,9e-05,-8e-05,-0.00023999999999999998,0.00018,2e-05,5
21921,22718,-0.00011999999999999999,1e-05,8e-05,9e-05,-8e-05,-0.00023999999999999998,0.00018,2e-05,5
21922,22719,-0.00011999999999999999,1e-05,8e-05,9e-05,-8e-05,-0.00023999999999999998,0.00018,2e-05,5
21923,22720,-0.00011999999999999999,1e-05,8e-05,9e-05,-8e-05,-0.00023999999999999998,0.00018,2e-05,5
21924,22721,-0.00011999999999999999,1e-05,8e-05,9e-05,-8e-05,-0.00023999999999999998,0.00018,2e-05,5
21925,22722,0.00014,-5e-05,-0.00016,0.00013000000000000002,2.9999999999999997e-05,1e-05,-5e-05,2.9999999999999997e-05,5
21926,22723,0.00014,-5e-05,-0.00016,0.00013000000000000002,2.9999999999999997e-05,1e-05,-5e-05,2.9999999999999997e-05,5
21927,22724,-0.00037,2.9999999999999997e-05,-0.00011999999999999999,-5e-05,-8e-05,-0.00039,-2e-05,-0.00011999999999999999,5
21928,22725,-0.00037,2.9999999999999997e-05,-0.00011999999999999999,-5e-05,-8e-05,-0.00039,-2e-05,-0.00011999999999999999,5
21929,22726,-0.00037,2.9999999999999997e-05,-0.00011999999999999999,-5e-05,-8e-05,-0.00039,-2e-05,-0.00011999999999999999,5
21930,22727,-0.00037,2.9999999999999997e-05,-0.00011999999999999999,-5e-05,-8e-05,-0.00039,-2e-05,-0.00011999999999999999,5
21931,22728,-0.00037,2.9999999999999997e-05,-0.00011999999999999999,-5e-05,-8e-05,-0.00039,-2e-05,-0.00011999999999999999,5
21932,22729,-0.00037,2.9999999999999997e-05,-0.00011999999999999999,-5e-05,-8e-05,-0.00039,-2e-05,-0.00011999999999999999,5
21933,22730,-0.00037,2.9999999999999997e-05,-0.00011999999999999999,-5e-05,-8e-05,-0.00039,-2e-05,-0.00011999999999999999,5
21934,22731,-0.00037,2.9999999999999997e-05,-0.00011999999999999999,-5e-05,-8e-05,-0.00039,-2e-05,-0.00011999999999999999,5
21935,22732,-0.00037,2.9999999999999997e-05,-0.00011999999999999999,-5e-05,-8e-05,-0.00039,-2e-05,-0.00011999999999999999,5
21936,22733,-0.00037,2.9999999999999997e-05,-0.00011999999999999999,-5e-05,-8e-05,-0.00039,-2e-05,-0.00011999999999999999,5
21937,22734,-0.00037,2.9999999999999997e-05,-0.00011999999999999999,-5e-05,-8e-05,-0.00039,-2e-05,-0.00011999999999999999,5
21938,22735,-0.00037,2.9999999999999997e-05,-0.00011999999999999999,-5e-05,-8e-05,-0.00039,-2e-05,-0.00011999999999999999,5
21939,22736,-0.00037,2.9999999999999997e-05,-0.00011999999999999999,-5e-05,-8e-05,-0.00039,-2e-05,-0.00011999999999999999,5
21940,22738,-0.00037,2.9999999999999997e-05,-0.00011999999999999999,-5e-05,-8e-05,-0.00039,-2e-05,-0.00011999999999999999,5
21941,22739,-0.00037,2.9999999999999997e-05,-0.00011999999999999999,-5e-05,-8e-05,-0.00039,-2e-05,-0.00011999999999999999,5
21942,22740,-0.00037,2.9999999999999997e-05,-0.00011999999999999999,-5e-05,-8e-05,-0.00039,-2e-05,-0.00011999999999999999,5
21943,22741,-0.00037,2.9999999999999997e-05,-0.00011999999999999999,-5e-05,-8e-05,-0.00039,-2e-05,-0.00011999999999999999,5
21944,22742,-0.00037,2.9999999999999997e-05,-0.00011999999999999999,-5e-05,-8e-05,-0.00039,-2e-05,-0.00011999999999999999,5
21945,22743,-0.00037,2.9999999999999997e-05,-0.00011999999999999999,-5e-05,-8e-05,-0.00039,-2e-05,-0.00011999999999999999,5
21946,22744,-0.00037,2.9999999999999997e-05,-0.00011999999999999999,-5e-05,-8e-05,-0.00039,-2e-05,-0.00011999999999999999,5
21947,22745,-5e-05,1e-05,0.00014,-0.00011,-0.00073,-2.9999999999999997e-05,-4e-05,2e-05,5
21948,22746,4e-05,-4e-05,-0.00016999999999999999,5.9999999999999995e-05,0.00042,0.00016999999999999999,1e-05,-1e-05,5
21949,22747,4e-05,-4e-05,-0.00016999999999999999,5.9999999999999995e-05,0.00042,0.00016999999999999999,1e-05,-1e-05,5
21950,22748,4e-05,-4e-05,-0.00016999999999999999,5.9999999999999995e-05,0.00042,0.00016999999999999999,1e-05,-1e-05,5
21951,22749,4e-05,-4e-05,-0.00016999999999999999,5.9999999999999995e-05,0.00042,0.00016999999999999999,1e-05,-1e-05,5
21952,22750,4e-05,-4e-05,-0.00016999999999999999,5.9999999999999995e-05,0.00042,0.00016999999999999999,1e-05,-1e-05,5
21953,22751,4e-05,-4e-05,-0.00016999999999999999,5.9999999999999995e-05,0.00042,0.00016999999999999999,1e-05,-1e-05,5
21954,22752,4e-05,-4e-05,-0.00016999999999999999,5.9999999999999995e-05,0.00042,0.00016999999999999999,1e-05,-1e-05,5
21955,22753,4e-05,-4e-05,-0.00016999999999999999,5.9999999999999995e-05,0.00042,0.00016999999999999999,1e-05,-1e-05,5
21956,22754,4e-05,-4e-05,-0.00016999999999999999,5.9999999999999995e-05,0.00042,0.00016999999999999999,1e-05,-1e-05,5
21957,22755,4e-05,-4e-05,-0.00016999999999999999,5.9999999999999995e-05,0.00042,0.00016999999999999999,1e-05,-1e-05,5
21958,22756,4e-05,-4e-05,-0.00016999999999999999,5.9999999999999995e-05,0.00042,0.00016999999999999999,1e-05,-1e-05,5
21959,22757,4e-05,-4e-05,-0.00016999999999999999,5.9999999999999995e-05,0.00042,0.00016999999999999999,1e-05,-1e-05,5
21960,22758,4e-05,-4e-05,-0.00016999999999999999,5.9999999999999995e-05,0.00042,0.00016999999999999999,1e-05,-1e-05,5
21961,22759,-0.0001,-2e-05,0.0001,0.00016,-0.00036,-5e-05,-5e-05,-0.00011,5
21962,22760,-0.0001,-2e-05,0.0001,0.00016,-0.00036,-5e-05,-5e-05,-0.00011,5
21963,22761,-0.0001,-2e-05,0.0001,0.00016,-0.00036,-5e-05,-5e-05,-0.00011,5
21964,22762,-0.0001,-2e-05,0.0001,0.00016,-0.00036,-5e-05,-5e-05,-0.00011,5
21965,22763,-0.0001,-2e-05,0.0001,0.00016,-0.00036,-5e-05,-5e-05,-0.00011,5
21966,22764,-0.0001,-2e-05,0.0001,0.00016,-0.00036,-5e-05,-5e-05,-0.00011,5
21967,22765,-0.0001,-2e-05,0.0001,0.00016,-0.00036,-5e-05,-5e-05,-0.00011,5
21968,22766,-8e-05,-2.9999999999999997e-05,-0.00016999999999999999,-0.00018999999999999998,-1e-05,-0.00035,-0.00011999999999999999,-2.9999999999999997e-05,5
21969,22767,-8e-05,-2.9999999999999997e-05,-0.00016999999999999999,-0.00018999999999999998,-1e-05,-0.00035,-0.00011999999999999999,-2.9999999999999997e-05,5
21970,22768,-8e-05,-2.9999999999999997e-05,-0.00016999999999999999,-0.00018999999999999998,-1e-05,-0.00035,-0.00011999999999999999,-2.9999999999999997e-05,5
21971,22769,-8e-05,-2.9999999999999997e-05,-0.00016999999999999999,-0.00018999999999999998,-1e-05,-0.00035,-0.00011999999999999999,-2.9999999999999997e-05,5
21972,22770,-8e-05,-2.9999999999999997e-05,-0.00016999999999999999,-0.00018999999999999998,-1e-05,-0.00035,-0.00011999999999999999,-2.9999999999999997e-05,5
21973,22771,-8e-05,-2.9999999999999997e-05,-0.00016999999999999999,-0.00018999999999999998,-1e-05,-0.00035,-0.00011999999999999999,-2.9999999999999997e-05,5
21974,22772,-8e-05,-2.9999999999999997e-05,-0.00016999999999999999,-0.00018999999999999998,-1e-05,-0.00035,-0.00011999999999999999,-2.9999999999999997e-05,5
21975,22773,-8e-05,-2.9999999999999997e-05,-0.00016999999999999999,-0.00018999999999999998,-1e-05,-0.00035,-0.00011999999999999999,-2.9999999999999997e-05,5
21976,22774,-8e-05,-2.9999999999999997e-05,-0.00016999999999999999,-0.00018999999999999998,-1e-05,-0.00035,-0.00011999999999999999,-2.9999999999999997e-05,5
21977,22775,-8e-05,-2.9999999999999997e-05,-0.00016999999999999999,-0.00018999999999999998,-1e-05,-0.00035,-0.00011999999999999999,-2.9999999999999997e-05,5
21978,22776,-8e-05,-2.9999999999999997e-05,-0.00016999999999999999,-0.00018999999999999998,-1e-05,-0.00035,-0.00011999999999999999,-2.9999999999999997e-05,5
21979,22777,-8e-05,-2.9999999999999997e-05,-0.00016999999999999999,-0.00018999999999999998,-1e-05,-0.00035,-0.00011999999999999999,-2.9999999999999997e-05,5
21980,22778,-8e-05,-2.9999999999999997e-05,-0.00016999999999999999,-0.00018999999999999998,-1e-05,-0.00035,-0.00011999999999999999,-2.9999999999999997e-05,5
21981,22779,-8e-05,-2.9999999999999997e-05,-0.00016999999999999999,-0.00018999999999999998,-1e-05,-0.00035,-0.00011999999999999999,-2.9999999999999997e-05,5
21982,22780,-8e-05,-2.9999999999999997e-05,-0.00016999999999999999,-0.00018999999999999998,-1e-05,-0.00035,-0.00011999999999999999,-2.9999999999999997e-05,5
21983,22781,-8e-05,-2.9999999999999997e-05,-0.00016999999999999999,-0.00018999999999999998,-1e-05,-0.00035,-0.00011999999999999999,-2.9999999999999997e-05,5
21984,22782,9e-05,4e-05,2.9999999999999997e-05,-0.00021,-0.00033999999999999997,5e-05,-5e-05,-4e-05,5
21985,22783,9e-05,4e-05,2.9999999999999997e-05,-0.00021,-0.00033999999999999997,5e-05,-5e-05,-4e-05,5
21986,22784,-0.00011,-4e-05,-0.00018999999999999998,0.00033999999999999997,0.00037,0.00013000000000000002,-5e-05,0.0,5
21987,22785,-0.00011,-4e-05,-0.00018999999999999998,0.00033999999999999997,0.00037,0.00013000000000000002,-5e-05,0.0,5
21988,22786,-0.00011,-4e-05,-0.00018999999999999998,0.00033999999999999997,0.00037,0.00013000000000000002,-5e-05,0.0,5
21989,22788,-0.00011,-4e-05,-0.00018999999999999998,0.00033999999999999997,0.00037,0.00013000000000000002,-5e-05,0.0,5
21990,22789,-0.00011,-4e-05,-0.00018999999999999998,0.00033999999999999997,0.00037,0.00013000000000000002,-5e-05,0.0,5
21991,22790,-0.00011,-4e-05,-0.00018999999999999998,0.00033999999999999997,0.00037,0.00013000000000000002,-5e-05,0.0,5
21992,22791,-0.00011,-4e-05,-0.00018999999999999998,0.00033999999999999997,0.00037,0.00013000000000000002,-5e-05,0.0,5
21993,22792,-0.00011,-4e-05,-0.00018999999999999998,0.00033999999999999997,0.00037,0.00013000000000000002,-5e-05,0.0,5
21994,22793,-0.00011,-4e-05,-0.00018999999999999998,0.00033999999999999997,0.00037,0.00013000000000000002,-5e-05,0.0,5
21995,22794,-0.00011,-4e-05,-0.00018999999999999998,0.00033999999999999997,0.00037,0.00013000000000000002,-5e-05,0.0,5
21996,22795,-0.00011,-4e-05,-0.00018999999999999998,0.00033999999999999997,0.00037,0.00013000000000000002,-5e-05,0.0,5
21997,22796,-0.00011,-4e-05,-0.00018999999999999998,0.00033999999999999997,0.00037,0.00013000000000000002,-5e-05,0.0,5
21998,22797,-0.00011,-4e-05,-0.00018999999999999998,0.00033999999999999997,0.00037,0.00013000000000000002,-5e-05,0.0,5
21999,22798,-0.00011,-4e-05,-0.00018999999999999998,0.00033999999999999997,0.00037,0.00013000000000000002,-5e-05,0.0,5
22000,22799,-0.00011,-4e-05,-0.00018999999999999998,0.00033999999999999997,0.00037,0.00013000000000000002,-5e-05,0.0,5
22001,22800,-0.00011,-4e-05,-0.00018999999999999998,0.00033999999999999997,0.00037,0.00013000000000000002,-5e-05,0.0,5
22002,22801,-0.00011,-4e-05,-0.00018999999999999998,0.00033999999999999997,0.00037,0.00013000000000000002,-5e-05,0.0,5
22003,22802,-0.00011,-4e-05,-0.00018999999999999998,0.00033999999999999997,0.00037,0.00013000000000000002,-5e-05,0.0,5
22004,22803,-0.00011,-4e-05,-0.00018999999999999998,0.00033999999999999997,0.00037,0.00013000000000000002,-5e-05,0.0,5
22005,22804,-0.00011,-4e-05,-0.00018999999999999998,0.00033999999999999997,0.00037,0.00013000000000000002,-5e-05,0.0,5
22006,22805,1e-05,-2.9999999999999997e-05,-0.00011,-0.00073,-0.00037,-5.9999999999999995e-05,-7e-05,-2e-05,5
22007,22806,-0.00032,-2e-05,0.00021,4e-05,-0.0001,0.00016,1e-05,2.9999999999999997e-05,5
22008,22807,-0.00032,-2e-05,0.00021,4e-05,-0.0001,0.00016,1e-05,2.9999999999999997e-05,5
22009,22808,-0.00032,-2e-05,0.00021,4e-05,-0.0001,0.00016,1e-05,2.9999999999999997e-05,5
22010,22809,-0.00032,-2e-05,0.00021,4e-05,-0.0001,0.00016,1e-05,2.9999999999999997e-05,5
22011,22810,-0.00032,-2e-05,0.00021,4e-05,-0.0001,0.00016,1e-05,2.9999999999999997e-05,5
22012,22811,-0.00032,-2e-05,0.00021,4e-05,-0.0001,0.00016,1e-05,2.9999999999999997e-05,5
22013,22812,-0.00032,-2e-05,0.00021,4e-05,-0.0001,0.00016,1e-05,2.9999999999999997e-05,5
22014,22813,-0.00032,-2e-05,0.00021,4e-05,-0.0001,0.00016,1e-05,2.9999999999999997e-05,5
22015,22814,-0.00032,-2e-05,0.00021,4e-05,-0.0001,0.00016,1e-05,2.9999999999999997e-05,5
22016,22815,-0.00032,-2e-05,0.00021,4e-05,-0.0001,0.00016,1e-05,2.9999999999999997e-05,5
22017,22816,-0.00032,-2e-05,0.00021,4e-05,-0.0001,0.00016,1e-05,2.9999999999999997e-05,5
22018,22817,-0.00032,-2e-05,0.00021,4e-05,-0.0001,0.00016,1e-05,2.9999999999999997e-05,5
22019,22818,0.00013000000000000002,0.0,-5e-05,9e-05,0.00074,5.9999999999999995e-05,4e-05,2.9999999999999997e-05,5
22020,22819,0.00013000000000000002,0.0,-5e-05,9e-05,0.00074,5.9999999999999995e-05,4e-05,2.9999999999999997e-05,5
22021,22820,0.00013000000000000002,0.0,-5e-05,9e-05,0.00074,5.9999999999999995e-05,4e-05,2.9999999999999997e-05,5
22022,22821,0.00013000000000000002,0.0,-5e-05,9e-05,0.00074,5.9999999999999995e-05,4e-05,2.9999999999999997e-05,5
22023,22822,0.00013000000000000002,0.0,-5e-05,9e-05,0.00074,5.9999999999999995e-05,4e-05,2.9999999999999997e-05,5
22024,22823,0.00013000000000000002,0.0,-5e-05,9e-05,0.00074,5.9999999999999995e-05,4e-05,2.9999999999999997e-05,5
22025,22824,0.00013000000000000002,0.0,-5e-05,9e-05,0.00074,5.9999999999999995e-05,4e-05,2.9999999999999997e-05,5
22026,22825,0.00013000000000000002,0.0,-5e-05,9e-05,0.00074,5.9999999999999995e-05,4e-05,2.9999999999999997e-05,5
22027,22826,0.00013000000000000002,0.0,-5e-05,9e-05,0.00074,5.9999999999999995e-05,4e-05,2.9999999999999997e-05,5
22028,22827,0.00043,0.0,5.9999999999999995e-05,5e-05,0.00021,0.00029,2.9999999999999997e-05,7e-05,5
22029,22828,0.00043,0.0,5.9999999999999995e-05,5e-05,0.00021,0.00029,2.9999999999999997e-05,7e-05,5
22030,22829,0.00043,0.0,5.9999999999999995e-05,5e-05,0.00021,0.00029,2.9999999999999997e-05,7e-05,5
22031,22830,0.00043,0.0,5.9999999999999995e-05,5e-05,0.00021,0.00029,2.9999999999999997e-05,7e-05,5
22032,22831,0.00043,0.0,5.9999999999999995e-05,5e-05,0.00021,0.00029,2.9999999999999997e-05,7e-05,5
22033,22832,0.00043,0.0,5.9999999999999995e-05,5e-05,0.00021,0.00029,2.9999999999999997e-05,7e-05,5
22034,22833,0.00043,0.0,5.9999999999999995e-05,5e-05,0.00021,0.00029,2.9999999999999997e-05,7e-05,5
22035,22834,0.00043,0.0,5.9999999999999995e-05,5e-05,0.00021,0.00029,2.9999999999999997e-05,7e-05,5
22036,22835,0.00043,0.0,5.9999999999999995e-05,5e-05,0.00021,0.00029,2.9999999999999997e-05,7e-05,5
22037,22836,0.00043,0.0,5.9999999999999995e-05,5e-05,0.00021,0.00029,2.9999999999999997e-05,7e-05,5
22038,22838,0.00043,0.0,5.9999999999999995e-05,5e-05,0.00021,0.00029,2.9999999999999997e-05,7e-05,5
22039,22839,0.00043,0.0,5.9999999999999995e-05,5e-05,0.00021,0.00029,2.9999999999999997e-05,7e-05,5
22040,22840,0.00043,0.0,5.9999999999999995e-05,5e-05,0.00021,0.00029,2.9999999999999997e-05,7e-05,5
22041,22841,0.00043,0.0,5.9999999999999995e-05,5e-05,0.00021,0.00029,2.9999999999999997e-05,7e-05,5
22042,22842,-1e-05,-1e-05,0.0001,-0.00016999999999999999,-0.00049,-2e-05,-1e-05,5e-05,5
22043,22843,-1e-05,-1e-05,0.0001,-0.00016999999999999999,-0.00049,-2e-05,-1e-05,5e-05,5
22044,22844,0.00039,1e-05,-5e-05,0.00011,-0.00025,0.00011999999999999999,-2.9999999999999997e-05,0.0,5
22045,22845,0.00039,1e-05,-5e-05,0.00011,-0.00025,0.00011999999999999999,-2.9999999999999997e-05,0.0,5
22046,22846,0.00039,1e-05,-5e-05,0.00011,-0.00025,0.00011999999999999999,-2.9999999999999997e-05,0.0,5
22047,22847,0.00039,1e-05,-5e-05,0.00011,-0.00025,0.00011999999999999999,-2.9999999999999997e-05,0.0,5
22048,22848,0.00039,1e-05,-5e-05,0.00011,-0.00025,0.00011999999999999999,-2.9999999999999997e-05,0.0,5
22049,22849,0.00039,1e-05,-5e-05,0.00011,-0.00025,0.00011999999999999999,-2.9999999999999997e-05,0.0,5
22050,22850,0.00039,1e-05,-5e-05,0.00011,-0.00025,0.00011999999999999999,-2.9999999999999997e-05,0.0,5
22051,22851,0.00039,1e-05,-5e-05,0.00011,-0.00025,0.00011999999999999999,-2.9999999999999997e-05,0.0,5
22052,22852,0.00039,1e-05,-5e-05,0.00011,-0.00025,0.00011999999999999999,-2.9999999999999997e-05,0.0,5
22053,22853,0.00039,1e-05,-5e-05,0.00011,-0.00025,0.00011999999999999999,-2.9999999999999997e-05,0.0,5
22054,22854,0.00039,1e-05,-5e-05,0.00011,-0.00025,0.00011999999999999999,-2.9999999999999997e-05,0.0,5
22055,22855,0.00039,1e-05,-5e-05,0.00011,-0.00025,0.00011999999999999999,-2.9999999999999997e-05,0.0,5
22056,22856,0.00039,1e-05,-5e-05,0.00011,-0.00025,0.00011999999999999999,-2.9999999999999997e-05,0.0,5
22057,22857,0.00039,1e-05,-5e-05,0.00011,-0.00025,0.00011999999999999999,-2.9999999999999997e-05,0.0,5
22058,22858,0.00039,1e-05,-5e-05,0.00011,-0.00025,0.00011999999999999999,-2.9999999999999997e-05,0.0,5
22059,22859,0.00039,1e-05,-5e-05,0.00011,-0.00025,0.00011999999999999999,-2.9999999999999997e-05,0.0,5
22060,22860,0.00039,1e-05,-5e-05,0.00011,-0.00025,0.00011999999999999999,-2.9999999999999997e-05,0.0,5
22061,22861,0.00039,1e-05,-5e-05,0.00011,-0.00025,0.00011999999999999999,-2.9999999999999997e-05,0.0,5
22062,22862,0.00039,1e-05,-5e-05,0.00011,-0.00025,0.00011999999999999999,-2.9999999999999997e-05,0.0,5
22063,22863,0.00039,1e-05,-5e-05,0.00011,-0.00025,0.00011999999999999999,-2.9999999999999997e-05,0.0,5
22064,22864,0.00039,1e-05,-5e-05,0.00011,-0.00025,0.00011999999999999999,-2.9999999999999997e-05,0.0,5
22065,22865,2.9999999999999997e-05,1e-05,-5e-05,0.00054,0.0006900000000000001,-0.00014,-8e-05,-4e-05,5
22066,22866,-1e-05,1e-05,-1e-05,-0.00015,-0.00027,5e-05,2e-05,0.0,5
22067,22867,-1e-05,1e-05,-1e-05,-0.00015,-0.00027,5e-05,2e-05,0.0,5
22068,22868,-1e-05,1e-05,-1e-05,-0.00015,-0.00027,5e-05,2e-05,0.0,5
22069,22869,-1e-05,1e-05,-1e-05,-0.00015,-0.00027,5e-05,2e-05,0.0,5
22070,22870,-1e-05,1e-05,-1e-05,-0.00015,-0.00027,5e-05,2e-05,0.0,5
22071,22871,-1e-05,1e-05,-1e-05,-0.00015,-0.00027,5e-05,2e-05,0.0,5
22072,22872,-1e-05,1e-05,-1e-05,-0.00015,-0.00027,5e-05,2e-05,0.0,5
22073,22873,-1e-05,1e-05,-1e-05,-0.00015,-0.00027,5e-05,2e-05,0.0,5
22074,22874,-1e-05,1e-05,-1e-05,-0.00015,-0.00027,5e-05,2e-05,0.0,5
22075,22875,-1e-05,1e-05,-1e-05,-0.00015,-0.00027,5e-05,2e-05,0.0,5
22076,22876,-1e-05,1e-05,-1e-05,-0.00015,-0.00027,5e-05,2e-05,0.0,5
22077,22877,-1e-05,1e-05,-1e-05,-0.00015,-0.00027,5e-05,2e-05,0.0,5
22078,22878,0.00018999999999999998,2e-05,2.9999999999999997e-05,8e-05,-0.00028,-2.9999999999999997e-05,0.0,-5e-05,5
22079,22879,0.00018999999999999998,2e-05,2.9999999999999997e-05,8e-05,-0.00028,-2.9999999999999997e-05,0.0,-5e-05,5
22080,22880,0.00018999999999999998,2e-05,2.9999999999999997e-05,8e-05,-0.00028,-2.9999999999999997e-05,0.0,-5e-05,5
22081,22881,0.00018999999999999998,2e-05,2.9999999999999997e-05,8e-05,-0.00028,-2.9999999999999997e-05,0.0,-5e-05,5
22082,22882,0.00018999999999999998,2e-05,2.9999999999999997e-05,8e-05,-0.00028,-2.9999999999999997e-05,0.0,-5e-05,5
22083,22883,0.00018999999999999998,2e-05,2.9999999999999997e-05,8e-05,-0.00028,-2.9999999999999997e-05,0.0,-5e-05,5
22084,22884,0.00018999999999999998,2e-05,2.9999999999999997e-05,8e-05,-0.00028,-2.9999999999999997e-05,0.0,-5e-05,5
22085,22885,0.00018999999999999998,2e-05,2.9999999999999997e-05,8e-05,-0.00028,-2.9999999999999997e-05,0.0,-5e-05,5
22086,22886,0.00018999999999999998,2e-05,2.9999999999999997e-05,8e-05,-0.00028,-2.9999999999999997e-05,0.0,-5e-05,5
22087,22888,8e-05,0.0,1e-05,-2.9999999999999997e-05,-0.00065,-0.00016,-1e-05,-1e-05,5
22088,22889,8e-05,0.0,1e-05,-2.9999999999999997e-05,-0.00065,-0.00016,-1e-05,-1e-05,5
22089,22890,8e-05,0.0,1e-05,-2.9999999999999997e-05,-0.00065,-0.00016,-1e-05,-1e-05,5
22090,22891,8e-05,0.0,1e-05,-2.9999999999999997e-05,-0.00065,-0.00016,-1e-05,-1e-05,5
22091,22892,8e-05,0.0,1e-05,-2.9999999999999997e-05,-0.00065,-0.00016,-1e-05,-1e-05,5
22092,22893,8e-05,0.0,1e-05,-2.9999999999999997e-05,-0.00065,-0.00016,-1e-05,-1e-05,5
22093,22894,8e-05,0.0,1e-05,-2.9999999999999997e-05,-0.00065,-0.00016,-1e-05,-1e-05,5
22094,22895,8e-05,0.0,1e-05,-2.9999999999999997e-05,-0.00065,-0.00016,-1e-05,-1e-05,5
22095,22896,8e-05,0.0,1e-05,-2.9999999999999997e-05,-0.00065,-0.00016,-1e-05,-1e-05,5
22096,22897,8e-05,0.0,1e-05,-2.9999999999999997e-05,-0.00065,-0.00016,-1e-05,-1e-05,5
22097,22898,8e-05,0.0,1e-05,-2.9999999999999997e-05,-0.00065,-0.00016,-1e-05,-1e-05,5
22098,22899,8e-05,0.0,1e-05,-2.9999999999999997e-05,-0.00065,-0.00016,-1e-05,-1e-05,5
22099,22900,8e-05,0.0,1e-05,-2.9999999999999997e-05,-0.00065,-0.00016,-1e-05,-1e-05,5
22100,22901,8e-05,0.0,1e-05,-2.9999999999999997e-05,-0.00065,-0.00016,-1e-05,-1e-05,5
22101,22902,-0.00014,-2.9999999999999997e-05,8e-05,-0.00013000000000000002,1e-05,-0.00016,5e-05,1e-05,5
22102,22903,-0.00014,-2.9999999999999997e-05,8e-05,-0.00013000000000000002,1e-05,-0.00016,5e-05,1e-05,5
22103,22904,-8e-05,-1e-05,-2.9999999999999997e-05,0.00011,-0.00021,5.9999999999999995e-05,-2.9999999999999997e-05,-2.9999999999999997e-05,5
22104,22905,-8e-05,-1e-05,-2.9999999999999997e-05,0.00011,-0.00021,5.9999999999999995e-05,-2.9999999999999997e-05,-2.9999999999999997e-05,5
22105,22906,-8e-05,-1e-05,-2.9999999999999997e-05,0.00011,-0.00021,5.9999999999999995e-05,-2.9999999999999997e-05,-2.9999999999999997e-05,5
22106,22907,-8e-05,-1e-05,-2.9999999999999997e-05,0.00011,-0.00021,5.9999999999999995e-05,-2.9999999999999997e-05,-2.9999999999999997e-05,5
22107,22908,-8e-05,-1e-05,-2.9999999999999997e-05,0.00011,-0.00021,5.9999999999999995e-05,-2.9999999999999997e-05,-2.9999999999999997e-05,5
22108,22909,-8e-05,-1e-05,-2.9999999999999997e-05,0.00011,-0.00021,5.9999999999999995e-05,-2.9999999999999997e-05,-2.9999999999999997e-05,5
22109,22910,-8e-05,-1e-05,-2.9999999999999997e-05,0.00011,-0.00021,5.9999999999999995e-05,-2.9999999999999997e-05,-2.9999999999999997e-05,5
22110,22911,-8e-05,-1e-05,-2.9999999999999997e-05,0.00011,-0.00021,5.9999999999999995e-05,-2.9999999999999997e-05,-2.9999999999999997e-05,5
22111,22912,-8e-05,-1e-05,-2.9999999999999997e-05,0.00011,-0.00021,5.9999999999999995e-05,-2.9999999999999997e-05,-2.9999999999999997e-05,5
22112,22913,-8e-05,-1e-05,-2.9999999999999997e-05,0.00011,-0.00021,5.9999999999999995e-05,-2.9999999999999997e-05,-2.9999999999999997e-05,5
22113,22914,-8e-05,-1e-05,-2.9999999999999997e-05,0.00011,-0.00021,5.9999999999999995e-05,-2.9999999999999997e-05,-2.9999999999999997e-05,5
22114,22915,-8e-05,-1e-05,-2.9999999999999997e-05,0.00011,-0.00021,5.9999999999999995e-05,-2.9999999999999997e-05,-2.9999999999999997e-05,5
22115,22916,-8e-05,-1e-05,-2.9999999999999997e-05,0.00011,-0.00021,5.9999999999999995e-05,-2.9999999999999997e-05,-2.9999999999999997e-05,5
22116,22917,-8e-05,-1e-05,-2.9999999999999997e-05,0.00011,-0.00021,5.9999999999999995e-05,-2.9999999999999997e-05,-2.9999999999999997e-05,5
22117,22918,-8e-05,-1e-05,-2.9999999999999997e-05,0.00011,-0.00021,5.9999999999999995e-05,-2.9999999999999997e-05,-2.9999999999999997e-05,5
22118,22919,-8e-05,-1e-05,-2.9999999999999997e-05,0.00011,-0.00021,5.9999999999999995e-05,-2.9999999999999997e-05,-2.9999999999999997e-05,5
22119,22920,-8e-05,-1e-05,-2.9999999999999997e-05,0.00011,-0.00021,5.9999999999999995e-05,-2.9999999999999997e-05,-2.9999999999999997e-05,5
22120,22921,-8e-05,-1e-05,-2.9999999999999997e-05,0.00011,-0.00021,5.9999999999999995e-05,-2.9999999999999997e-05,-2.9999999999999997e-05,5
22121,22922,-8e-05,-1e-05,-2.9999999999999997e-05,0.00011,-0.00021,5.9999999999999995e-05,-2.9999999999999997e-05,-2.9999999999999997e-05,5
