,time,channel1,channel2,channel3,channel4,channel5,channel6,channel7,channel8,class
19404,20281,-0.00049,5e-05,0.00026000000000000003,0.00041,0.00036,1e-05,-2e-05,-0.00013000000000000002,5
19405,20282,-0.00049,5e-05,0.00026000000000000003,0.00041,0.00036,1e-05,-2e-05,-0.00013000000000000002,5
19406,20283,-0.00049,5e-05,0.00026000000000000003,0.00041,0.00036,1e-05,-2e-05,-0.00013000000000000002,5
19407,20284,-0.00049,5e-05,0.00026000000000000003,0.00041,0.00036,1e-05,-2e-05,-0.00013000000000000002,5
19408,20285,-0.00049,5e-05,0.00026000000000000003,0.00041,0.00036,1e-05,-2e-05,-0.00013000000000000002,5
19409,20286,-0.00049,5e-05,0.00026000000000000003,0.00041,0.00036,1e-05,-2e-05,-0.00013000000000000002,5
19410,20287,-0.00049,5e-05,0.00026000000000000003,0.00041,0.00036,1e-05,-2e-05,-0.00013000000000000002,5
19411,20288,0.00018,7e-05,0.00013000000000000002,0.00108,0.0007099999999999999,0.00014,7e-05,2.9999999999999997e-05,5
19412,20289,0.00018,7e-05,0.00013000000000000002,0.00108,0.0007099999999999999,0.00014,7e-05,2.9999999999999997e-05,5
19413,20290,-0.00047000000000000004,-0.00027,1e-05,0.00067,0.00025,2e-05,0.0,-0.00015,5
19414,20291,-0.00047000000000000004,-0.00027,1e-05,0.00067,0.00025,2e-05,0.0,-0.00015,5
19415,20292,-0.00047000000000000004,-0.00027,1e-05,0.00067,0.00025,2e-05,0.0,-0.00015,5
19416,20293,-0.00047000000000000004,-0.00027,1e-05,0.00067,0.00025,2e-05,0.0,-0.00015,5
19417,20294,-0.00047000000000000004,-0.00027,1e-05,0.00067,0.00025,2e-05,0.0,-0.00015,5
19418,20295,-0.00047000000000000004,-0.00027,1e-05,0.00067,0.00025,2e-05,0.0,-0.00015,5
19419,20296,-0.00047000000000000004,-0.00027,1e-05,0.00067,0.00025,2e-05,0.0,-0.00015,5
19420,20297,-0.00047000000000000004,-0.00027,1e-05,0.00067,0.00025,2e-05,0.0,-0.00015,5
19421,20298,-0.00047000000000000004,-0.00027,1e-05,0.00067,0.00025,2e-05,0.0,-0.00015,5
19422,20299,-0.00047000000000000004,-0.00027,1e-05,0.00067,0.00025,2e-05,0.0,-0.00015,5
19423,20300,-0.00047000000000000004,-0.00027,1e-05,0.00067,0.00025,2e-05,0.0,-0.00015,5
19424,20301,-0.00047000000000000004,-0.00027,1e-05,0.00067,0.00025,2e-05,0.0,-0.00015,5
19425,20302,0.0001,7e-05,0.00036,0.00039,-0.00015,8e-05,7e-05,-1e-05,5
19426,20303,0.0001,7e-05,0.00036,0.00039,-0.00015,8e-05,7e-05,-1e-05,5
19427,20304,0.0001,7e-05,0.00036,0.00039,-0.00015,8e-05,7e-05,-1e-05,5
19428,20305,0.0001,7e-05,0.00036,0.00039,-0.00015,8e-05,7e-05,-1e-05,5
19429,20306,0.0001,7e-05,0.00036,0.00039,-0.00015,8e-05,7e-05,-1e-05,5
19430,20307,0.0001,7e-05,0.00036,0.00039,-0.00015,8e-05,7e-05,-1e-05,5
19431,20308,0.0001,7e-05,0.00036,0.00039,-0.00015,8e-05,7e-05,-1e-05,5
19432,20309,0.0001,7e-05,0.00036,0.00039,-0.00015,8e-05,7e-05,-1e-05,5
19433,20311,0.00042,-2e-05,-0.00011,-0.00014,-0.00054,-4e-05,0.0,0.0001,5
19434,20312,0.00042,-2e-05,-0.00011,-0.00014,-0.00054,-4e-05,0.0,0.0001,5
19435,20313,0.00042,-2e-05,-0.00011,-0.00014,-0.00054,-4e-05,0.0,0.0001,5
19436,20314,0.00042,-2e-05,-0.00011,-0.00014,-0.00054,-4e-05,0.0,0.0001,5
19437,20315,0.00042,-2e-05,-0.00011,-0.00014,-0.00054,-4e-05,0.0,0.0001,5
19438,20316,0.00042,-2e-05,-0.00011,-0.00014,-0.00054,-4e-05,0.0,0.0001,5
19439,20317,0.00042,-2e-05,-0.00011,-0.00014,-0.00054,-4e-05,0.0,0.0001,5
19440,20318,0.00042,-2e-05,-0.00011,-0.00014,-0.00054,-4e-05,0.0,0.0001,5
19441,20319,0.00042,-2e-05,-0.00011,-0.00014,-0.00054,-4e-05,0.0,0.0001,5
19442,20320,0.00042,-2e-05,-0.00011,-0.00014,-0.00054,-4e-05,0.0,0.0001,5
19443,20321,0.00042,-2e-05,-0.00011,-0.00014,-0.00054,-4e-05,0.0,0.0001,5
19444,20322,0.00042,-2e-05,-0.00011,-0.00014,-0.00054,-4e-05,0.0,0.0001,5
19445,20323,0.00042,-2e-05,-0.00011,-0.00014,-0.00054,-4e-05,0.0,0.0001,5
19446,20324,0.00042,-2e-05,-0.00011,-0.00014,-0.00054,-4e-05,0.0,0.0001,5
19447,20325,-0.00029,-0.00031,-0.00047000000000000004,-0.00032,-0.00032,2.9999999999999997e-05,-9e-05,-0.00025,5
19448,20326,-0.00029,-0.00031,-0.00047000000000000004,-0.00032,-0.00032,2.9999999999999997e-05,-9e-05,-0.00025,5
19449,20327,-0.00037,2.9999999999999997e-05,-0.00022,-0.00056,-0.0002,-9e-05,-5e-05,-8e-05,5
19450,20328,-0.00037,2.9999999999999997e-05,-0.00022,-0.00056,-0.0002,-9e-05,-5e-05,-8e-05,5
19451,20329,-0.00037,2.9999999999999997e-05,-0.00022,-0.00056,-0.0002,-9e-05,-5e-05,-8e-05,5
19452,20330,-0.00037,2.9999999999999997e-05,-0.00022,-0.00056,-0.0002,-9e-05,-5e-05,-8e-05,5
19453,20331,-0.00037,2.9999999999999997e-05,-0.00022,-0.00056,-0.0002,-9e-05,-5e-05,-8e-05,5
19454,20332,-0.00037,2.9999999999999997e-05,-0.00022,-0.00056,-0.0002,-9e-05,-5e-05,-8e-05,5
19455,20333,-0.00037,2.9999999999999997e-05,-0.00022,-0.00056,-0.0002,-9e-05,-5e-05,-8e-05,5
19456,20334,-0.00037,2.9999999999999997e-05,-0.00022,-0.00056,-0.0002,-9e-05,-5e-05,-8e-05,5
19457,20335,-0.00037,2.9999999999999997e-05,-0.00022,-0.00056,-0.0002,-9e-05,-5e-05,-8e-05,5
19458,20336,-0.00037,2.9999999999999997e-05,-0.00022,-0.00056,-0.0002,-9e-05,-5e-05,-8e-05,5
19459,20338,-0.00037,2.9999999999999997e-05,-0.00022,-0.00056,-0.0002,-9e-05,-5e-05,-8e-05,5
19460,20339,-0.00037,2.9999999999999997e-05,-0.00022,-0.00056,-0.0002,-9e-05,-5e-05,-8e-05,5
19461,20340,-0.00037,2.9999999999999997e-05,-0.00022,-0.00056,-0.0002,-9e-05,-5e-05,-8e-05,5
19462,20341,-0.00037,2.9999999999999997e-05,-0.00022,-0.00056,-0.0002,-9e-05,-5e-05,-8e-05,5
19463,20342,-0.00037,2.9999999999999997e-05,-0.00022,-0.00056,-0.0002,-9e-05,-5e-05,-8e-05,5
19464,20343,-0.00037,2.9999999999999997e-05,-0.00022,-0.00056,-0.0002,-9e-05,-5e-05,-8e-05,5
19465,20344,-0.00037,2.9999999999999997e-05,-0.00022,-0.00056,-0.0002,-9e-05,-5e-05,-8e-05,5
19466,20345,-0.00037,2.9999999999999997e-05,-0.00022,-0.00056,-0.0002,-9e-05,-5e-05,-8e-05,5
19467,20346,-0.00037,2.9999999999999997e-05,-0.00022,-0.00056,-0.0002,-9e-05,-5e-05,-8e-05,5
19468,20347,-0.00037,2.9999999999999997e-05,-0.00022,-0.00056,-0.0002,-9e-05,-5e-05,-8e-05,5
19469,20348,-5e-05,-0.00016999999999999999,-0.00045999999999999996,-0.00016,-2e-05,2.9999999999999997e-05,-9e-05,-4e-05,5
19470,20349,-5e-05,-0.00016999999999999999,-0.00045999999999999996,-0.00016,-2e-05,2.9999999999999997e-05,-9e-05,-4e-05,5
19471,20350,0.00061,0.00011999999999999999,-0.00015,8e-05,0.0007099999999999999,9e-05,4e-05,0.00014,5
19472,20351,0.00061,0.00011999999999999999,-0.00015,8e-05,0.0007099999999999999,9e-05,4e-05,0.00014,5
19473,20352,0.00061,0.00011999999999999999,-0.00015,8e-05,0.0007099999999999999,9e-05,4e-05,0.00014,5
19474,20353,0.00061,0.00011999999999999999,-0.00015,8e-05,0.0007099999999999999,9e-05,4e-05,0.00014,5
19475,20354,0.00061,0.00011999999999999999,-0.00015,8e-05,0.0007099999999999999,9e-05,4e-05,0.00014,5
19476,20355,0.00061,0.00011999999999999999,-0.00015,8e-05,0.0007099999999999999,9e-05,4e-05,0.00014,5
19477,20357,0.00061,0.00011999999999999999,-0.00015,8e-05,0.0007099999999999999,9e-05,4e-05,0.00014,5
19478,20358,0.00061,0.00011999999999999999,-0.00015,8e-05,0.0007099999999999999,9e-05,4e-05,0.00014,5
19479,20359,0.00061,0.00011999999999999999,-0.00015,8e-05,0.0007099999999999999,9e-05,4e-05,0.00014,5
19480,20360,0.00061,0.00011999999999999999,-0.00015,8e-05,0.0007099999999999999,9e-05,4e-05,0.00014,5
19481,20361,0.00061,0.00011999999999999999,-0.00015,8e-05,0.0007099999999999999,9e-05,4e-05,0.00014,5
19482,20362,0.0003,0.00013000000000000002,8e-05,0.00067,0.00056,2e-05,-4e-05,5.9999999999999995e-05,5
19483,20363,0.0003,0.00013000000000000002,8e-05,0.00067,0.00056,2e-05,-4e-05,5.9999999999999995e-05,5
19484,20364,0.0003,0.00013000000000000002,8e-05,0.00067,0.00056,2e-05,-4e-05,5.9999999999999995e-05,5
19485,20365,0.0003,0.00013000000000000002,8e-05,0.00067,0.00056,2e-05,-4e-05,5.9999999999999995e-05,5
19486,20366,0.0003,0.00013000000000000002,8e-05,0.00067,0.00056,2e-05,-4e-05,5.9999999999999995e-05,5
19487,20367,0.0003,0.00013000000000000002,8e-05,0.00067,0.00056,2e-05,-4e-05,5.9999999999999995e-05,5
19488,20368,0.0003,0.00013000000000000002,8e-05,0.00067,0.00056,2e-05,-4e-05,5.9999999999999995e-05,5
19489,20369,0.0003,0.00013000000000000002,8e-05,0.00067,0.00056,2e-05,-4e-05,5.9999999999999995e-05,5
19490,20370,0.0003,0.00013000000000000002,8e-05,0.00067,0.00056,2e-05,-4e-05,5.9999999999999995e-05,5
19491,20371,0.00047000000000000004,0.00016999999999999999,0.00015,-0.00016999999999999999,-0.00013000000000000002,-5e-05,1e-05,8e-05,5
19492,20372,0.00047000000000000004,0.00016999999999999999,0.00015,-0.00016999999999999999,-0.00013000000000000002,-5e-05,1e-05,8e-05,5
19493,20373,0.00047000000000000004,0.00016999999999999999,0.00015,-0.00016999999999999999,-0.00013000000000000002,-5e-05,1e-05,8e-05,5
19494,20374,0.00047000000000000004,0.00016999999999999999,0.00015,-0.00016999999999999999,-0.00013000000000000002,-5e-05,1e-05,8e-05,5
19495,20375,0.00047000000000000004,0.00016999999999999999,0.00015,-0.00016999999999999999,-0.00013000000000000002,-5e-05,1e-05,8e-05,5
19496,20376,0.00047000000000000004,0.00016999999999999999,0.00015,-0.00016999999999999999,-0.00013000000000000002,-5e-05,1e-05,8e-05,5
19497,20377,0.00047000000000000004,0.00016999999999999999,0.00015,-0.00016999999999999999,-0.00013000000000000002,-5e-05,1e-05,8e-05,5
19498,20378,0.00047000000000000004,0.00016999999999999999,0.00015,-0.00016999999999999999,-0.00013000000000000002,-5e-05,1e-05,8e-05,5
19499,20379,0.00047000000000000004,0.00016999999999999999,0.00015,-0.00016999999999999999,-0.00013000000000000002,-5e-05,1e-05,8e-05,5
19500,20380,0.00047000000000000004,0.00016999999999999999,0.00015,-0.00016999999999999999,-0.00013000000000000002,-5e-05,1e-05,8e-05,5
19501,20381,0.00047000000000000004,0.00016999999999999999,0.00015,-0.00016999999999999999,-0.00013000000000000002,-5e-05,1e-05,8e-05,5
19502,20382,0.00047000000000000004,0.00016999999999999999,0.00015,-0.00016999999999999999,-0.00013000000000000002,-5e-05,1e-05,8e-05,5
19503,20383,0.00047000000000000004,0.00016999999999999999,0.00015,-0.00016999999999999999,-0.00013000000000000002,-5e-05,1e-05,8e-05,5
19504,20384,0.00047000000000000004,0.00016999999999999999,0.00015,-0.00016999999999999999,-0.00013000000000000002,-5e-05,1e-05,8e-05,5
19505,20385,5e-05,9e-05,0.0004,0.00032,0.00059,2e-05,2e-05,4e-05,5
19506,20386,5e-05,9e-05,0.0004,0.00032,0.00059,2e-05,2e-05,4e-05,5
19507,20388,-0.0003,-0.00011,-0.00037999999999999997,-0.00036,0.00022,2e-05,-5e-05,-0.0002,5
19508,20389,-0.0003,-0.00011,-0.00037999999999999997,-0.00036,0.00022,2e-05,-5e-05,-0.0002,5
19509,20390,-0.0003,-0.00011,-0.00037999999999999997,-0.00036,0.00022,2e-05,-5e-05,-0.0002,5
19510,20391,-0.0003,-0.00011,-0.00037999999999999997,-0.00036,0.00022,2e-05,-5e-05,-0.0002,5
19511,20392,-0.0003,-0.00011,-0.00037999999999999997,-0.00036,0.00022,2e-05,-5e-05,-0.0002,5
19512,20393,-0.0003,-0.00011,-0.00037999999999999997,-0.00036,0.00022,2e-05,-5e-05,-0.0002,5
19513,20394,-0.0003,-0.00011,-0.00037999999999999997,-0.00036,0.00022,2e-05,-5e-05,-0.0002,5
19514,20395,-0.0003,-0.00011,-0.00037999999999999997,-0.00036,0.00022,2e-05,-5e-05,-0.0002,5
19515,20396,-0.0003,-0.00011,-0.00037999999999999997,-0.00036,0.00022,2e-05,-5e-05,-0.0002,5
19516,20397,-0.0003,-0.00011,-0.00037999999999999997,-0.00036,0.00022,2e-05,-5e-05,-0.0002,5
19517,20398,-0.0003,-0.00011,-0.00037999999999999997,-0.00036,0.00022,2e-05,-5e-05,-0.0002,5
19518,20399,-0.0003,-0.00011,-0.00037999999999999997,-0.00036,0.00022,2e-05,-5e-05,-0.0002,5
19519,20400,-0.0003,-0.00011,-0.00037999999999999997,-0.00036,0.00022,2e-05,-5e-05,-0.0002,5
19520,20401,-0.0003,-0.00011,-0.00037999999999999997,-0.00036,0.00022,2e-05,-5e-05,-0.0002,5
19521,20402,-0.0003,-0.00011,-0.00037999999999999997,-0.00036,0.00022,2e-05,-5e-05,-0.0002,5
19522,20404,-0.0003,-0.00011,-0.00037999999999999997,-0.00036,0.00022,2e-05,-5e-05,-0.0002,5
19523,20405,-0.0003,-0.00011,-0.00037999999999999997,-0.00036,0.00022,2e-05,-5e-05,-0.0002,5
19524,20406,-0.0003,-0.00011,-0.00037999999999999997,-0.00036,0.00022,2e-05,-5e-05,-0.0002,5
19525,20407,-0.0003,-0.00011,-0.00037999999999999997,-0.00036,0.00022,2e-05,-5e-05,-0.0002,5
19526,20408,-0.00105,-0.00032,-0.0002,4e-05,-0.00027,-4e-05,-2.9999999999999997e-05,-0.00018,5
19527,20409,-0.00105,-0.00032,-0.0002,4e-05,-0.00027,-4e-05,-2.9999999999999997e-05,-0.00018,5
19528,20410,0.0,1e-05,-8e-05,-4e-05,0.00023999999999999998,8e-05,-1e-05,1e-05,5
19529,20411,0.0,1e-05,-8e-05,-4e-05,0.00023999999999999998,8e-05,-1e-05,1e-05,5
19530,20412,0.0,1e-05,-8e-05,-4e-05,0.00023999999999999998,8e-05,-1e-05,1e-05,5
19531,20413,0.0,1e-05,-8e-05,-4e-05,0.00023999999999999998,8e-05,-1e-05,1e-05,5
19532,20414,0.0,1e-05,-8e-05,-4e-05,0.00023999999999999998,8e-05,-1e-05,1e-05,5
19533,20415,0.0,1e-05,-8e-05,-4e-05,0.00023999999999999998,8e-05,-1e-05,1e-05,5
19534,20416,0.0,1e-05,-8e-05,-4e-05,0.00023999999999999998,8e-05,-1e-05,1e-05,5
19535,20417,0.0,1e-05,-8e-05,-4e-05,0.00023999999999999998,8e-05,-1e-05,1e-05,5
19536,20418,0.0,1e-05,-8e-05,-4e-05,0.00023999999999999998,8e-05,-1e-05,1e-05,5
19537,20419,0.0,1e-05,-8e-05,-4e-05,0.00023999999999999998,8e-05,-1e-05,1e-05,5
19538,20420,0.0,1e-05,-8e-05,-4e-05,0.00023999999999999998,8e-05,-1e-05,1e-05,5
19539,20421,0.0,1e-05,-8e-05,-4e-05,0.00023999999999999998,8e-05,-1e-05,1e-05,5
19540,20422,0.0,1e-05,-8e-05,-4e-05,0.00023999999999999998,8e-05,-1e-05,1e-05,5
19541,20423,0.0,1e-05,-8e-05,-4e-05,0.00023999999999999998,8e-05,-1e-05,1e-05,5
19542,20424,0.0,1e-05,-8e-05,-4e-05,0.00023999999999999998,8e-05,-1e-05,1e-05,5
19543,20425,0.0,1e-05,-8e-05,-4e-05,0.00023999999999999998,8e-05,-1e-05,1e-05,5
19544,20426,0.0,1e-05,-8e-05,-4e-05,0.00023999999999999998,8e-05,-1e-05,1e-05,5
19545,20427,0.0,1e-05,-8e-05,-4e-05,0.00023999999999999998,8e-05,-1e-05,1e-05,5
19546,20428,0.0,1e-05,-8e-05,-4e-05,0.00023999999999999998,8e-05,-1e-05,1e-05,5
19547,20429,0.0,1e-05,-8e-05,-4e-05,0.00023999999999999998,8e-05,-1e-05,1e-05,5
19548,20430,0.0,1e-05,-8e-05,-4e-05,0.00023999999999999998,8e-05,-1e-05,1e-05,5
19549,20431,5e-05,0.0001,-0.00013000000000000002,-0.00031,-0.00033999999999999997,0.0,-1e-05,7e-05,5
19550,20432,-0.00063,1e-05,-0.00016999999999999999,2e-05,0.00074,0.00016999999999999999,5e-05,-5e-05,5
19551,20433,-0.00063,1e-05,-0.00016999999999999999,2e-05,0.00074,0.00016999999999999999,5e-05,-5e-05,5
19552,20434,-0.00063,1e-05,-0.00016999999999999999,2e-05,0.00074,0.00016999999999999999,5e-05,-5e-05,5
19553,20435,-0.00063,1e-05,-0.00016999999999999999,2e-05,0.00074,0.00016999999999999999,5e-05,-5e-05,5
19554,20436,-0.00063,1e-05,-0.00016999999999999999,2e-05,0.00074,0.00016999999999999999,5e-05,-5e-05,5
19555,20438,-0.00063,1e-05,-0.00016999999999999999,2e-05,0.00074,0.00016999999999999999,5e-05,-5e-05,5
19556,20439,-0.00063,1e-05,-0.00016999999999999999,2e-05,0.00074,0.00016999999999999999,5e-05,-5e-05,5
19557,20440,-0.00063,1e-05,-0.00016999999999999999,2e-05,0.00074,0.00016999999999999999,5e-05,-5e-05,5
19558,20441,-0.00063,1e-05,-0.00016999999999999999,2e-05,0.00074,0.00016999999999999999,5e-05,-5e-05,5
19559,20442,-0.00063,1e-05,-0.00016999999999999999,2e-05,0.00074,0.00016999999999999999,5e-05,-5e-05,5
19560,20444,-0.00063,1e-05,-0.00016999999999999999,2e-05,0.00074,0.00016999999999999999,5e-05,-5e-05,5
19561,20445,-4e-05,5.9999999999999995e-05,-0.00011,-0.0002,-0.00047999999999999996,-8e-05,0.0,-1e-05,5
19562,20446,-4e-05,5.9999999999999995e-05,-0.00011,-0.0002,-0.00047999999999999996,-8e-05,0.0,-1e-05,5
19563,20447,-0.00086,2e-05,4e-05,-2.9999999999999997e-05,-0.00049,-0.0001,-0.00011,-0.00031,5
19564,20448,-0.00086,2e-05,4e-05,-2.9999999999999997e-05,-0.00049,-0.0001,-0.00011,-0.00031,5
19565,20449,-0.00086,2e-05,4e-05,-2.9999999999999997e-05,-0.00049,-0.0001,-0.00011,-0.00031,5
19566,20450,-0.00086,2e-05,4e-05,-2.9999999999999997e-05,-0.00049,-0.0001,-0.00011,-0.00031,5
19567,20451,-0.00086,2e-05,4e-05,-2.9999999999999997e-05,-0.00049,-0.0001,-0.00011,-0.00031,5
19568,20452,-0.00086,2e-05,4e-05,-2.9999999999999997e-05,-0.00049,-0.0001,-0.00011,-0.00031,5
19569,20453,-0.00086,2e-05,4e-05,-2.9999999999999997e-05,-0.00049,-0.0001,-0.00011,-0.00031,5
19570,20454,-0.00086,2e-05,4e-05,-2.9999999999999997e-05,-0.00049,-0.0001,-0.00011,-0.00031,5
19571,20455,-0.00086,2e-05,4e-05,-2.9999999999999997e-05,-0.00049,-0.0001,-0.00011,-0.00031,5
19572,20456,-0.00086,2e-05,4e-05,-2.9999999999999997e-05,-0.00049,-0.0001,-0.00011,-0.00031,5
19573,20457,-0.00086,2e-05,4e-05,-2.9999999999999997e-05,-0.00049,-0.0001,-0.00011,-0.00031,5
19574,20458,-0.00086,2e-05,4e-05,-2.9999999999999997e-05,-0.00049,-0.0001,-0.00011,-0.00031,5
19575,20459,-0.00086,2e-05,4e-05,-2.9999999999999997e-05,-0.00049,-0.0001,-0.00011,-0.00031,5
19576,20460,-0.00086,2e-05,4e-05,-2.9999999999999997e-05,-0.00049,-0.0001,-0.00011,-0.00031,5
19577,20461,-0.00086,2e-05,4e-05,-2.9999999999999997e-05,-0.00049,-0.0001,-0.00011,-0.00031,5
19578,20462,-0.00086,2e-05,4e-05,-2.9999999999999997e-05,-0.00049,-0.0001,-0.00011,-0.00031,5
19579,20463,-0.00086,2e-05,4e-05,-2.9999999999999997e-05,-0.00049,-0.0001,-0.00011,-0.00031,5
19580,20464,-0.00086,2e-05,4e-05,-2.9999999999999997e-05,-0.00049,-0.0001,-0.00011,-0.00031,5
19581,20465,-0.00086,2e-05,4e-05,-2.9999999999999997e-05,-0.00049,-0.0001,-0.00011,-0.00031,5
19582,20466,-0.00086,2e-05,4e-05,-2.9999999999999997e-05,-0.00049,-0.0001,-0.00011,-0.00031,5
19583,20467,-0.00086,2e-05,4e-05,-2.9999999999999997e-05,-0.00049,-0.0001,-0.00011,-0.00031,5
19584,20468,0.00032,1e-05,0.00022999999999999998,0.00026000000000000003,0.00064,4e-05,2.9999999999999997e-05,0.00014,5
19585,20469,0.00032,1e-05,0.00022999999999999998,0.00026000000000000003,0.00064,4e-05,2.9999999999999997e-05,0.00014,5
19586,20470,0.00059,-0.00011,-0.0005,-0.0007,-0.00045,-2.9999999999999997e-05,0.0,9e-05,5
19587,20471,0.00059,-0.00011,-0.0005,-0.0007,-0.00045,-2.9999999999999997e-05,0.0,9e-05,5
19588,20472,0.00059,-0.00011,-0.0005,-0.0007,-0.00045,-2.9999999999999997e-05,0.0,9e-05,5
19589,20473,0.00059,-0.00011,-0.0005,-0.0007,-0.00045,-2.9999999999999997e-05,0.0,9e-05,5
19590,20474,0.00059,-0.00011,-0.0005,-0.0007,-0.00045,-2.9999999999999997e-05,0.0,9e-05,5
19591,20475,0.00059,-0.00011,-0.0005,-0.0007,-0.00045,-2.9999999999999997e-05,0.0,9e-05,5
19592,20476,0.00059,-0.00011,-0.0005,-0.0007,-0.00045,-2.9999999999999997e-05,0.0,9e-05,5
19593,20477,0.00059,-0.00011,-0.0005,-0.0007,-0.00045,-2.9999999999999997e-05,0.0,9e-05,5
19594,20478,0.00059,-0.00011,-0.0005,-0.0007,-0.00045,-2.9999999999999997e-05,0.0,9e-05,5
19595,20479,0.00059,-0.00011,-0.0005,-0.0007,-0.00045,-2.9999999999999997e-05,0.0,9e-05,5
19596,20481,0.00059,-0.00011,-0.0005,-0.0007,-0.00045,-2.9999999999999997e-05,0.0,9e-05,5
19597,20482,0.00059,-0.00011,-0.0005,-0.0007,-0.00045,-2.9999999999999997e-05,0.0,9e-05,5
19598,20483,0.00059,-0.00011,-0.0005,-0.0007,-0.00045,-2.9999999999999997e-05,0.0,9e-05,5
19599,20484,0.00059,-0.00011,-0.0005,-0.0007,-0.00045,-2.9999999999999997e-05,0.0,9e-05,5
19600,20485,0.00059,-0.00011,-0.0005,-0.0007,-0.00045,-2.9999999999999997e-05,0.0,9e-05,5
19601,20486,0.00059,-0.00011,-0.0005,-0.0007,-0.00045,-2.9999999999999997e-05,0.0,9e-05,5
19602,20488,0.00059,-0.00011,-0.0005,-0.0007,-0.00045,-2.9999999999999997e-05,0.0,9e-05,5
19603,20489,0.00059,-0.00011,-0.0005,-0.0007,-0.00045,-2.9999999999999997e-05,0.0,9e-05,5
19604,20490,0.0005200000000000001,0.00025,0.00016999999999999999,0.00015,-0.0003,1e-05,2e-05,7e-05,5
19605,20491,0.0005200000000000001,0.00025,0.00016999999999999999,0.00015,-0.0003,1e-05,2e-05,7e-05,5
19606,20492,0.00037,-2.9999999999999997e-05,0.00022,0.00016999999999999999,-0.00044,-7e-05,-5e-05,-5e-05,5
19607,20494,0.00037,-2.9999999999999997e-05,0.00022,0.00016999999999999999,-0.00044,-7e-05,-5e-05,-5e-05,5
19608,20495,0.00037,-2.9999999999999997e-05,0.00022,0.00016999999999999999,-0.00044,-7e-05,-5e-05,-5e-05,5
19609,20496,0.00037,-2.9999999999999997e-05,0.00022,0.00016999999999999999,-0.00044,-7e-05,-5e-05,-5e-05,5
19610,20497,0.00037,-2.9999999999999997e-05,0.00022,0.00016999999999999999,-0.00044,-7e-05,-5e-05,-5e-05,5
19611,20498,0.00037,-2.9999999999999997e-05,0.00022,0.00016999999999999999,-0.00044,-7e-05,-5e-05,-5e-05,5
19612,20499,0.00037,-2.9999999999999997e-05,0.00022,0.00016999999999999999,-0.00044,-7e-05,-5e-05,-5e-05,5
19613,20500,0.00037,-2.9999999999999997e-05,0.00022,0.00016999999999999999,-0.00044,-7e-05,-5e-05,-5e-05,5
19614,20501,0.00037,-2.9999999999999997e-05,0.00022,0.00016999999999999999,-0.00044,-7e-05,-5e-05,-5e-05,5
19615,20502,0.00037,-2.9999999999999997e-05,0.00022,0.00016999999999999999,-0.00044,-7e-05,-5e-05,-5e-05,5
19616,20503,0.00037,-2.9999999999999997e-05,0.00022,0.00016999999999999999,-0.00044,-7e-05,-5e-05,-5e-05,5
19617,20504,0.00037,-2.9999999999999997e-05,0.00022,0.00016999999999999999,-0.00044,-7e-05,-5e-05,-5e-05,5
19618,20505,-0.0005,-0.00018,-0.00011999999999999999,-0.00072,-0.00033,-5e-05,2e-05,0.00013000000000000002,5
19619,20506,-0.0005,-0.00018,-0.00011999999999999999,-0.00072,-0.00033,-5e-05,2e-05,0.00013000000000000002,5
19620,20507,-0.00043,-9e-05,0.00016,0.00028,0.00042,5.9999999999999995e-05,4e-05,0.0,5
19621,20508,-0.00043,-9e-05,0.00016,0.00028,0.00042,5.9999999999999995e-05,4e-05,0.0,5
19622,20509,-0.00043,-9e-05,0.00016,0.00028,0.00042,5.9999999999999995e-05,4e-05,0.0,5
19623,20510,-0.00043,-9e-05,0.00016,0.00028,0.00042,5.9999999999999995e-05,4e-05,0.0,5
19624,20511,-0.00043,-9e-05,0.00016,0.00028,0.00042,5.9999999999999995e-05,4e-05,0.0,5
19625,20512,-0.00043,-9e-05,0.00016,0.00028,0.00042,5.9999999999999995e-05,4e-05,0.0,5
19626,20513,-0.00043,-9e-05,0.00016,0.00028,0.00042,5.9999999999999995e-05,4e-05,0.0,5
19627,20514,-0.00043,-9e-05,0.00016,0.00028,0.00042,5.9999999999999995e-05,4e-05,0.0,5
19628,20515,-0.00043,-9e-05,0.00016,0.00028,0.00042,5.9999999999999995e-05,4e-05,0.0,5
19629,20516,-0.00043,-9e-05,0.00016,0.00028,0.00042,5.9999999999999995e-05,4e-05,0.0,5
19630,20517,-0.00043,-9e-05,0.00016,0.00028,0.00042,5.9999999999999995e-05,4e-05,0.0,5
19631,20518,-0.00043,-9e-05,0.00016,0.00028,0.00042,5.9999999999999995e-05,4e-05,0.0,5
19632,20519,-0.00043,-9e-05,0.00016,0.00028,0.00042,5.9999999999999995e-05,4e-05,0.0,5
19633,20520,-0.00043,-9e-05,0.00016,0.00028,0.00042,5.9999999999999995e-05,4e-05,0.0,5
19634,20521,-0.00043,-9e-05,0.00016,0.00028,0.00042,5.9999999999999995e-05,4e-05,0.0,5
19635,20522,-0.00043,-9e-05,0.00016,0.00028,0.00042,5.9999999999999995e-05,4e-05,0.0,5
19636,20523,-0.00043,-9e-05,0.00016,0.00028,0.00042,5.9999999999999995e-05,4e-05,0.0,5
19637,20524,-0.00043,-9e-05,0.00016,0.00028,0.00042,5.9999999999999995e-05,4e-05,0.0,5
19638,20525,-0.00043,-9e-05,0.00016,0.00028,0.00042,5.9999999999999995e-05,4e-05,0.0,5
19639,20526,-0.00043,-9e-05,0.00016,0.00028,0.00042,5.9999999999999995e-05,4e-05,0.0,5
19640,20527,-0.00043,-9e-05,0.00016,0.00028,0.00042,5.9999999999999995e-05,4e-05,0.0,5
19641,20529,0.00063,-2e-05,0.0001,0.00056,0.00033,-8e-05,-2.9999999999999997e-05,1e-05,5
19642,20530,-8e-05,0.00011,0.00035,0.00022999999999999998,-0.0007,5e-05,1e-05,-2.9999999999999997e-05,5
19643,20531,-8e-05,0.00011,0.00035,0.00022999999999999998,-0.0007,5e-05,1e-05,-2.9999999999999997e-05,5
19644,20532,-8e-05,0.00011,0.00035,0.00022999999999999998,-0.0007,5e-05,1e-05,-2.9999999999999997e-05,5
19645,20533,-8e-05,0.00011,0.00035,0.00022999999999999998,-0.0007,5e-05,1e-05,-2.9999999999999997e-05,5
19646,20534,-8e-05,0.00011,0.00035,0.00022999999999999998,-0.0007,5e-05,1e-05,-2.9999999999999997e-05,5
19647,20535,-8e-05,0.00011,0.00035,0.00022999999999999998,-0.0007,5e-05,1e-05,-2.9999999999999997e-05,5
19648,20536,-8e-05,0.00011,0.00035,0.00022999999999999998,-0.0007,5e-05,1e-05,-2.9999999999999997e-05,5
19649,20538,-8e-05,0.00011,0.00035,0.00022999999999999998,-0.0007,5e-05,1e-05,-2.9999999999999997e-05,5
19650,20539,-8e-05,0.00011,0.00035,0.00022999999999999998,-0.0007,5e-05,1e-05,-2.9999999999999997e-05,5
19651,20540,-8e-05,0.00011,0.00035,0.00022999999999999998,-0.0007,5e-05,1e-05,-2.9999999999999997e-05,5
19652,20541,-8e-05,0.00011,0.00035,0.00022999999999999998,-0.0007,5e-05,1e-05,-2.9999999999999997e-05,5
19653,20542,-8e-05,0.00011,0.00035,0.00022999999999999998,-0.0007,5e-05,1e-05,-2.9999999999999997e-05,5
19654,20544,-8e-05,0.00011,0.00035,0.00022999999999999998,-0.0007,5e-05,1e-05,-2.9999999999999997e-05,5
19655,20545,-8e-05,0.00011,0.00035,0.00022999999999999998,-0.0007,5e-05,1e-05,-2.9999999999999997e-05,5
19656,20546,-8e-05,0.00011,0.00035,0.00022999999999999998,-0.0007,5e-05,1e-05,-2.9999999999999997e-05,5
19657,20547,-8e-05,0.00011,0.00035,0.00022999999999999998,-0.0007,5e-05,1e-05,-2.9999999999999997e-05,5
19658,20548,-8e-05,0.00011,0.00035,0.00022999999999999998,-0.0007,5e-05,1e-05,-2.9999999999999997e-05,5
19659,20549,-8e-05,0.00011,0.00035,0.00022999999999999998,-0.0007,5e-05,1e-05,-2.9999999999999997e-05,5
19660,20550,-0.00027,0.00011999999999999999,0.00045,-2.9999999999999997e-05,-0.00018999999999999998,-5.9999999999999995e-05,-2e-05,-0.0001,5
19661,20551,-0.00027,0.00011999999999999999,0.00045,-2.9999999999999997e-05,-0.00018999999999999998,-5.9999999999999995e-05,-2e-05,-0.0001,5
19662,20552,0.0005099999999999999,5e-05,0.00026000000000000003,0.0001,0.00043,1e-05,2.9999999999999997e-05,8e-05,5
19663,20553,0.0005099999999999999,5e-05,0.00026000000000000003,0.0001,0.00043,1e-05,2.9999999999999997e-05,8e-05,5
19664,20554,0.0005099999999999999,5e-05,0.00026000000000000003,0.0001,0.00043,1e-05,2.9999999999999997e-05,8e-05,5
19665,20555,0.0005099999999999999,5e-05,0.00026000000000000003,0.0001,0.00043,1e-05,2.9999999999999997e-05,8e-05,5
19666,20556,0.0005099999999999999,5e-05,0.00026000000000000003,0.0001,0.00043,1e-05,2.9999999999999997e-05,8e-05,5
19667,20557,0.0005099999999999999,5e-05,0.00026000000000000003,0.0001,0.00043,1e-05,2.9999999999999997e-05,8e-05,5
19668,20558,0.0005099999999999999,5e-05,0.00026000000000000003,0.0001,0.00043,1e-05,2.9999999999999997e-05,8e-05,5
19669,20559,0.0005099999999999999,5e-05,0.00026000000000000003,0.0001,0.00043,1e-05,2.9999999999999997e-05,8e-05,5
19670,20560,0.0005099999999999999,5e-05,0.00026000000000000003,0.0001,0.00043,1e-05,2.9999999999999997e-05,8e-05,5
19671,20561,0.0005099999999999999,5e-05,0.00026000000000000003,0.0001,0.00043,1e-05,2.9999999999999997e-05,8e-05,5
19672,20562,0.0005099999999999999,5e-05,0.00026000000000000003,0.0001,0.00043,1e-05,2.9999999999999997e-05,8e-05,5
19673,20563,0.0005099999999999999,5e-05,0.00026000000000000003,0.0001,0.00043,1e-05,2.9999999999999997e-05,8e-05,5
19674,20564,0.0005099999999999999,5e-05,0.00026000000000000003,0.0001,0.00043,1e-05,2.9999999999999997e-05,8e-05,5
19675,20565,-9e-05,0.00011,-9e-05,0.00011,0.00033999999999999997,0.0,-2.9999999999999997e-05,-0.00028,5
19676,20566,-9e-05,0.00011,-9e-05,0.00011,0.00033999999999999997,0.0,-2.9999999999999997e-05,-0.00028,5
19677,20567,-9e-05,0.00011,-9e-05,0.00011,0.00033999999999999997,0.0,-2.9999999999999997e-05,-0.00028,5
19678,20568,-9e-05,0.00011,-9e-05,0.00011,0.00033999999999999997,0.0,-2.9999999999999997e-05,-0.00028,5
19679,20569,-9e-05,0.00011,-9e-05,0.00011,0.00033999999999999997,0.0,-2.9999999999999997e-05,-0.00028,5
19680,20570,-9e-05,0.00011,-9e-05,0.00011,0.00033999999999999997,0.0,-2.9999999999999997e-05,-0.00028,5
19681,20571,-9e-05,0.00011,-9e-05,0.00011,0.00033999999999999997,0.0,-2.9999999999999997e-05,-0.00028,5
19682,20572,-0.00027,2e-05,0.00016999999999999999,-0.00014,-0.00049,-0.00011,-0.00011,0.0001,5
19683,20573,-0.00027,2e-05,0.00016999999999999999,-0.00014,-0.00049,-0.00011,-0.00011,0.0001,5
19684,20574,-0.00027,2e-05,0.00016999999999999999,-0.00014,-0.00049,-0.00011,-0.00011,0.0001,5
19685,20576,-0.00027,2e-05,0.00016999999999999999,-0.00014,-0.00049,-0.00011,-0.00011,0.0001,5
19686,20577,-0.00027,2e-05,0.00016999999999999999,-0.00014,-0.00049,-0.00011,-0.00011,0.0001,5
19687,20578,-0.00027,2e-05,0.00016999999999999999,-0.00014,-0.00049,-0.00011,-0.00011,0.0001,5
19688,20579,-0.00027,2e-05,0.00016999999999999999,-0.00014,-0.00049,-0.00011,-0.00011,0.0001,5
19689,20580,-0.00027,2e-05,0.00016999999999999999,-0.00014,-0.00049,-0.00011,-0.00011,0.0001,5
19690,20581,-0.00027,2e-05,0.00016999999999999999,-0.00014,-0.00049,-0.00011,-0.00011,0.0001,5
19691,20582,-0.00027,2e-05,0.00016999999999999999,-0.00014,-0.00049,-0.00011,-0.00011,0.0001,5
19692,20583,-0.00027,2e-05,0.00016999999999999999,-0.00014,-0.00049,-0.00011,-0.00011,0.0001,5
19693,20584,-0.00027,2e-05,0.00016999999999999999,-0.00014,-0.00049,-0.00011,-0.00011,0.0001,5
19694,20585,-0.00027,2e-05,0.00016999999999999999,-0.00014,-0.00049,-0.00011,-0.00011,0.0001,5
19695,20586,-0.00027,2e-05,0.00016999999999999999,-0.00014,-0.00049,-0.00011,-0.00011,0.0001,5
19696,20587,0.0009599999999999999,2e-05,-0.00011999999999999999,-0.00075,-0.00074,-9e-05,-5.9999999999999995e-05,-0.00011,5
19697,20588,0.0009599999999999999,2e-05,-0.00011999999999999999,-0.00075,-0.00074,-9e-05,-5.9999999999999995e-05,-0.00011,5
19698,20589,0.0009599999999999999,2e-05,-0.00011999999999999999,-0.00075,-0.00074,-9e-05,-5.9999999999999995e-05,-0.00011,5
19699,20590,-2.9999999999999997e-05,-0.00016,-0.00011,0.00045,8e-05,-4e-05,-2e-05,-4e-05,5
19700,20591,-2.9999999999999997e-05,-0.00016,-0.00011,0.00045,8e-05,-4e-05,-2e-05,-4e-05,5
19701,20592,-2.9999999999999997e-05,-0.00016,-0.00011,0.00045,8e-05,-4e-05,-2e-05,-4e-05,5
19702,20594,-2.9999999999999997e-05,-0.00016,-0.00011,0.00045,8e-05,-4e-05,-2e-05,-4e-05,5
19703,20595,-2.9999999999999997e-05,-0.00016,-0.00011,0.00045,8e-05,-4e-05,-2e-05,-4e-05,5
19704,20596,-2.9999999999999997e-05,-0.00016,-0.00011,0.00045,8e-05,-4e-05,-2e-05,-4e-05,5
19705,20597,-2.9999999999999997e-05,-0.00016,-0.00011,0.00045,8e-05,-4e-05,-2e-05,-4e-05,5
19706,20598,-2.9999999999999997e-05,-0.00016,-0.00011,0.00045,8e-05,-4e-05,-2e-05,-4e-05,5
19707,20599,-2.9999999999999997e-05,-0.00016,-0.00011,0.00045,8e-05,-4e-05,-2e-05,-4e-05,5
19708,20600,-2.9999999999999997e-05,-0.00016,-0.00011,0.00045,8e-05,-4e-05,-2e-05,-4e-05,5
19709,20601,-2.9999999999999997e-05,-0.00016,-0.00011,0.00045,8e-05,-4e-05,-2e-05,-4e-05,5
19710,20602,-2.9999999999999997e-05,-0.00016,-0.00011,0.00045,8e-05,-4e-05,-2e-05,-4e-05,5
19711,20603,-2.9999999999999997e-05,-0.00016,-0.00011,0.00045,8e-05,-4e-05,-2e-05,-4e-05,5
19712,20604,-2.9999999999999997e-05,-0.00016,-0.00011,0.00045,8e-05,-4e-05,-2e-05,-4e-05,5
19713,20605,-2.9999999999999997e-05,-0.00016,-0.00011,0.00045,8e-05,-4e-05,-2e-05,-4e-05,5
19714,20606,-2.9999999999999997e-05,-0.00016,-0.00011,0.00045,8e-05,-4e-05,-2e-05,-4e-05,5
19715,20607,-2.9999999999999997e-05,-0.00016,-0.00011,0.00045,8e-05,-4e-05,-2e-05,-4e-05,5
19716,20608,-2.9999999999999997e-05,-0.00016,-0.00011,0.00045,8e-05,-4e-05,-2e-05,-4e-05,5
19717,20609,-2.9999999999999997e-05,-0.00016,-0.00011,0.00045,8e-05,-4e-05,-2e-05,-4e-05,5
19718,20610,-2.9999999999999997e-05,-0.00016,-0.00011,0.00045,8e-05,-4e-05,-2e-05,-4e-05,5
19719,20611,-0.0003,0.0,-0.00021,1e-05,-0.0002,2e-05,-2e-05,-1e-05,5
19720,20612,0.00015,9e-05,-0.00011,-0.00016999999999999999,-0.0005200000000000001,-7e-05,2.9999999999999997e-05,0.00023999999999999998,5
19721,20613,0.00015,9e-05,-0.00011,-0.00016999999999999999,-0.0005200000000000001,-7e-05,2.9999999999999997e-05,0.00023999999999999998,5
19722,20614,0.00015,9e-05,-0.00011,-0.00016999999999999999,-0.0005200000000000001,-7e-05,2.9999999999999997e-05,0.00023999999999999998,5
19723,20615,0.00015,9e-05,-0.00011,-0.00016999999999999999,-0.0005200000000000001,-7e-05,2.9999999999999997e-05,0.00023999999999999998,5
19724,20616,0.00015,9e-05,-0.00011,-0.00016999999999999999,-0.0005200000000000001,-7e-05,2.9999999999999997e-05,0.00023999999999999998,5
19725,20617,0.00015,9e-05,-0.00011,-0.00016999999999999999,-0.0005200000000000001,-7e-05,2.9999999999999997e-05,0.00023999999999999998,5
19726,20618,0.00015,9e-05,-0.00011,-0.00016999999999999999,-0.0005200000000000001,-7e-05,2.9999999999999997e-05,0.00023999999999999998,5
19727,20619,0.00015,9e-05,-0.00011,-0.00016999999999999999,-0.0005200000000000001,-7e-05,2.9999999999999997e-05,0.00023999999999999998,5
19728,20620,0.00015,9e-05,-0.00011,-0.00016999999999999999,-0.0005200000000000001,-7e-05,2.9999999999999997e-05,0.00023999999999999998,5
19729,20621,0.00015,9e-05,-0.00011,-0.00016999999999999999,-0.0005200000000000001,-7e-05,2.9999999999999997e-05,0.00023999999999999998,5
19730,20623,0.00015,9e-05,-0.00011,-0.00016999999999999999,-0.0005200000000000001,-7e-05,2.9999999999999997e-05,0.00023999999999999998,5
19731,20624,0.00015,9e-05,-0.00011,-0.00016999999999999999,-0.0005200000000000001,-7e-05,2.9999999999999997e-05,0.00023999999999999998,5
19732,20625,-0.00109,-0.00018999999999999998,-8e-05,-2.9999999999999997e-05,0.00033,9e-05,-1e-05,-0.00025,5
19733,20626,-0.00109,-0.00018999999999999998,-8e-05,-2.9999999999999997e-05,0.00033,9e-05,-1e-05,-0.00025,5
19734,20627,-0.00109,-0.00018999999999999998,-8e-05,-2.9999999999999997e-05,0.00033,9e-05,-1e-05,-0.00025,5
19735,20628,-0.00109,-0.00018999999999999998,-8e-05,-2.9999999999999997e-05,0.00033,9e-05,-1e-05,-0.00025,5
19736,20629,-0.00109,-0.00018999999999999998,-8e-05,-2.9999999999999997e-05,0.00033,9e-05,-1e-05,-0.00025,5
19737,20630,-0.00109,-0.00018999999999999998,-8e-05,-2.9999999999999997e-05,0.00033,9e-05,-1e-05,-0.00025,5
19738,20631,-0.00109,-0.00018999999999999998,-8e-05,-2.9999999999999997e-05,0.00033,9e-05,-1e-05,-0.00025,5
19739,20632,-0.00039,2e-05,0.00011,0.00023999999999999998,0.00033,5e-05,1e-05,-0.00016999999999999999,5
19740,20633,-0.00039,2e-05,0.00011,0.00023999999999999998,0.00033,5e-05,1e-05,-0.00016999999999999999,5
19741,20634,-0.00039,2e-05,0.00011,0.00023999999999999998,0.00033,5e-05,1e-05,-0.00016999999999999999,5
19742,20635,-0.00039,2e-05,0.00011,0.00023999999999999998,0.00033,5e-05,1e-05,-0.00016999999999999999,5
19743,20636,-0.00039,2e-05,0.00011,0.00023999999999999998,0.00033,5e-05,1e-05,-0.00016999999999999999,5
19744,20638,-0.00039,2e-05,0.00011,0.00023999999999999998,0.00033,5e-05,1e-05,-0.00016999999999999999,5
19745,20639,-0.00039,2e-05,0.00011,0.00023999999999999998,0.00033,5e-05,1e-05,-0.00016999999999999999,5
19746,20640,-0.00039,2e-05,0.00011,0.00023999999999999998,0.00033,5e-05,1e-05,-0.00016999999999999999,5
19747,20641,-0.00039,2e-05,0.00011,0.00023999999999999998,0.00033,5e-05,1e-05,-0.00016999999999999999,5
19748,20642,-0.00039,2e-05,0.00011,0.00023999999999999998,0.00033,5e-05,1e-05,-0.00016999999999999999,5
19749,20643,-0.00039,2e-05,0.00011,0.00023999999999999998,0.00033,5e-05,1e-05,-0.00016999999999999999,5
19750,20644,-0.00039,2e-05,0.00011,0.00023999999999999998,0.00033,5e-05,1e-05,-0.00016999999999999999,5
19751,20645,-0.00039,2e-05,0.00011,0.00023999999999999998,0.00033,5e-05,1e-05,-0.00016999999999999999,5
19752,20646,-0.00039,2e-05,0.00011,0.00023999999999999998,0.00033,5e-05,1e-05,-0.00016999999999999999,5
19753,20647,-0.00039,2e-05,0.00011,0.00023999999999999998,0.00033,5e-05,1e-05,-0.00016999999999999999,5
19754,20648,8e-05,-5e-05,0.00011,0.00033,0.00022,-1e-05,2.9999999999999997e-05,0.00015,5
19755,20649,8e-05,-5e-05,0.00011,0.00033,0.00022,-1e-05,2.9999999999999997e-05,0.00015,5
19756,20650,-0.00101,-8e-05,4e-05,-5e-05,-0.00022,5e-05,-2e-05,-0.00028,5
19757,20651,-0.00101,-8e-05,4e-05,-5e-05,-0.00022,5e-05,-2e-05,-0.00028,5
19758,20652,-0.00101,-8e-05,4e-05,-5e-05,-0.00022,5e-05,-2e-05,-0.00028,5
19759,20653,-0.00101,-8e-05,4e-05,-5e-05,-0.00022,5e-05,-2e-05,-0.00028,5
19760,20654,-0.00101,-8e-05,4e-05,-5e-05,-0.00022,5e-05,-2e-05,-0.00028,5
19761,20655,-0.00101,-8e-05,4e-05,-5e-05,-0.00022,5e-05,-2e-05,-0.00028,5
19762,20656,-0.00101,-8e-05,4e-05,-5e-05,-0.00022,5e-05,-2e-05,-0.00028,5
19763,20657,-0.00101,-8e-05,4e-05,-5e-05,-0.00022,5e-05,-2e-05,-0.00028,5
19764,20658,-0.00101,-8e-05,4e-05,-5e-05,-0.00022,5e-05,-2e-05,-0.00028,5
19765,20659,-0.00101,-8e-05,4e-05,-5e-05,-0.00022,5e-05,-2e-05,-0.00028,5
19766,20660,-0.00101,-8e-05,4e-05,-5e-05,-0.00022,5e-05,-2e-05,-0.00028,5
19767,20661,-0.00101,-8e-05,4e-05,-5e-05,-0.00022,5e-05,-2e-05,-0.00028,5
19768,20662,-0.00101,-8e-05,4e-05,-5e-05,-0.00022,5e-05,-2e-05,-0.00028,5
19769,20663,-0.00101,-8e-05,4e-05,-5e-05,-0.00022,5e-05,-2e-05,-0.00028,5
19770,20664,-0.00101,-8e-05,4e-05,-5e-05,-0.00022,5e-05,-2e-05,-0.00028,5
19771,20665,-0.00101,-8e-05,4e-05,-5e-05,-0.00022,5e-05,-2e-05,-0.00028,5
19772,20666,-0.00101,-8e-05,4e-05,-5e-05,-0.00022,5e-05,-2e-05,-0.00028,5
19773,20667,-0.00101,-8e-05,4e-05,-5e-05,-0.00022,5e-05,-2e-05,-0.00028,5
19774,20669,-0.00101,-8e-05,4e-05,-5e-05,-0.00022,5e-05,-2e-05,-0.00028,5
19775,20670,-0.00101,-8e-05,4e-05,-5e-05,-0.00022,5e-05,-2e-05,-0.00028,5
19776,20671,0.00062,0.00011,0.0001,-8e-05,-0.00081,-0.00016,2.9999999999999997e-05,0.00016,5
19777,20672,0.00036,8e-05,0.00016,0.0005,0.00022999999999999998,-5e-05,-1e-05,5.9999999999999995e-05,5
19778,20673,0.00036,8e-05,0.00016,0.0005,0.00022999999999999998,-5e-05,-1e-05,5.9999999999999995e-05,5
19779,20674,0.00036,8e-05,0.00016,0.0005,0.00022999999999999998,-5e-05,-1e-05,5.9999999999999995e-05,5
19780,20675,0.00036,8e-05,0.00016,0.0005,0.00022999999999999998,-5e-05,-1e-05,5.9999999999999995e-05,5
19781,20676,0.00036,8e-05,0.00016,0.0005,0.00022999999999999998,-5e-05,-1e-05,5.9999999999999995e-05,5
19782,20677,0.00036,8e-05,0.00016,0.0005,0.00022999999999999998,-5e-05,-1e-05,5.9999999999999995e-05,5
19783,20678,0.00036,8e-05,0.00016,0.0005,0.00022999999999999998,-5e-05,-1e-05,5.9999999999999995e-05,5
19784,20679,0.00036,8e-05,0.00016,0.0005,0.00022999999999999998,-5e-05,-1e-05,5.9999999999999995e-05,5
19785,20680,0.00036,8e-05,0.00016,0.0005,0.00022999999999999998,-5e-05,-1e-05,5.9999999999999995e-05,5
19786,20681,0.00036,8e-05,0.00016,0.0005,0.00022999999999999998,-5e-05,-1e-05,5.9999999999999995e-05,5
19787,20682,0.00036,8e-05,0.00016,0.0005,0.00022999999999999998,-5e-05,-1e-05,5.9999999999999995e-05,5
19788,20683,0.00036,8e-05,0.00016,0.0005,0.00022999999999999998,-5e-05,-1e-05,5.9999999999999995e-05,5
19789,20684,0.00036,8e-05,0.00016,0.0005,0.00022999999999999998,-5e-05,-1e-05,5.9999999999999995e-05,5
19790,20685,-0.00043,-7e-05,-5e-05,-0.00039,0.00029,0.0,4e-05,-4e-05,5
19791,20686,-0.00043,-7e-05,-5e-05,-0.00039,0.00029,0.0,4e-05,-4e-05,5
19792,20688,-0.00043,-7e-05,-5e-05,-0.00039,0.00029,0.0,4e-05,-4e-05,5
19793,20689,-0.00043,-7e-05,-5e-05,-0.00039,0.00029,0.0,4e-05,-4e-05,5
19794,20690,-0.00043,-7e-05,-5e-05,-0.00039,0.00029,0.0,4e-05,-4e-05,5
19795,20691,-0.00043,-7e-05,-5e-05,-0.00039,0.00029,0.0,4e-05,-4e-05,5
19796,20692,0.00011999999999999999,-0.0001,-0.00025,-4e-05,0.00031,-4e-05,0.0,0.0,5
19797,20693,0.00011999999999999999,-0.0001,-0.00025,-4e-05,0.00031,-4e-05,0.0,0.0,5
19798,20694,0.00011999999999999999,-0.0001,-0.00025,-4e-05,0.00031,-4e-05,0.0,0.0,5
19799,20695,0.00011999999999999999,-0.0001,-0.00025,-4e-05,0.00031,-4e-05,0.0,0.0,5
19800,20696,0.00011999999999999999,-0.0001,-0.00025,-4e-05,0.00031,-4e-05,0.0,0.0,5
19801,20697,0.00011999999999999999,-0.0001,-0.00025,-4e-05,0.00031,-4e-05,0.0,0.0,5
19802,20698,0.00011999999999999999,-0.0001,-0.00025,-4e-05,0.00031,-4e-05,0.0,0.0,5
19803,20699,0.00011999999999999999,-0.0001,-0.00025,-4e-05,0.00031,-4e-05,0.0,0.0,5
19804,20700,0.00011999999999999999,-0.0001,-0.00025,-4e-05,0.00031,-4e-05,0.0,0.0,5
19805,20701,0.00011999999999999999,-0.0001,-0.00025,-4e-05,0.00031,-4e-05,0.0,0.0,5
19806,20702,0.00011999999999999999,-0.0001,-0.00025,-4e-05,0.00031,-4e-05,0.0,0.0,5
19807,20703,0.00011999999999999999,-0.0001,-0.00025,-4e-05,0.00031,-4e-05,0.0,0.0,5
19808,20704,0.00011999999999999999,-0.0001,-0.00025,-4e-05,0.00031,-4e-05,0.0,0.0,5
19809,20705,0.00011999999999999999,-0.0001,-0.00025,-4e-05,0.00031,-4e-05,0.0,0.0,5
19810,20706,0.00011999999999999999,-0.0001,-0.00025,-4e-05,0.00031,-4e-05,0.0,0.0,5
19811,20707,0.00011999999999999999,-0.0001,-0.00025,-4e-05,0.00031,-4e-05,0.0,0.0,5
19812,20711,0.00011999999999999999,-0.0001,-0.00025,-4e-05,0.00031,-4e-05,0.0,0.0,5
19813,20712,-0.00042,-0.0001,-2.9999999999999997e-05,0.0003,0.00039,0.00013000000000000002,0.0,-0.00014,5
19814,20713,-0.00042,-0.0001,-2.9999999999999997e-05,0.0003,0.00039,0.00013000000000000002,0.0,-0.00014,5
19815,20715,-0.00042,-0.0001,-2.9999999999999997e-05,0.0003,0.00039,0.00013000000000000002,0.0,-0.00014,5
19816,20716,-0.00042,-0.0001,-2.9999999999999997e-05,0.0003,0.00039,0.00013000000000000002,0.0,-0.00014,5
19817,20717,-0.00042,-0.0001,-2.9999999999999997e-05,0.0003,0.00039,0.00013000000000000002,0.0,-0.00014,5
19818,20718,-0.00042,-0.0001,-2.9999999999999997e-05,0.0003,0.00039,0.00013000000000000002,0.0,-0.00014,5
19819,20719,-0.00042,-0.0001,-2.9999999999999997e-05,0.0003,0.00039,0.00013000000000000002,0.0,-0.00014,5
19820,20720,-0.00042,-0.0001,-2.9999999999999997e-05,0.0003,0.00039,0.00013000000000000002,0.0,-0.00014,5
19821,20721,-0.00042,-0.0001,-2.9999999999999997e-05,0.0003,0.00039,0.00013000000000000002,0.0,-0.00014,5
19822,20722,-0.00042,-0.0001,-2.9999999999999997e-05,0.0003,0.00039,0.00013000000000000002,0.0,-0.00014,5
19823,20723,-0.00042,-0.0001,-2.9999999999999997e-05,0.0003,0.00039,0.00013000000000000002,0.0,-0.00014,5
19824,20724,-0.00042,-0.0001,-2.9999999999999997e-05,0.0003,0.00039,0.00013000000000000002,0.0,-0.00014,5
19825,20725,-0.00042,-0.0001,-2.9999999999999997e-05,0.0003,0.00039,0.00013000000000000002,0.0,-0.00014,5
19826,20726,-0.00042,-0.0001,-2.9999999999999997e-05,0.0003,0.00039,0.00013000000000000002,0.0,-0.00014,5
19827,20727,-0.00042,-0.0001,-2.9999999999999997e-05,0.0003,0.00039,0.00013000000000000002,0.0,-0.00014,5
19828,20728,-0.00042,-0.0001,-2.9999999999999997e-05,0.0003,0.00039,0.00013000000000000002,0.0,-0.00014,5
19829,20729,-0.00042,-0.0001,-2.9999999999999997e-05,0.0003,0.00039,0.00013000000000000002,0.0,-0.00014,5
19830,20730,-0.0003,-0.00015,-8e-05,4e-05,-0.00028,2e-05,-2.9999999999999997e-05,-2.9999999999999997e-05,5
19831,20731,-0.0003,-0.00015,-8e-05,4e-05,-0.00028,2e-05,-2.9999999999999997e-05,-2.9999999999999997e-05,5
19832,20732,-0.00016999999999999999,0.00014,-2e-05,0.00016999999999999999,-0.00015,2.9999999999999997e-05,-4e-05,-0.00037,5
19833,20733,-0.00016999999999999999,0.00014,-2e-05,0.00016999999999999999,-0.00015,2.9999999999999997e-05,-4e-05,-0.00037,5
19834,20734,-0.00016999999999999999,0.00014,-2e-05,0.00016999999999999999,-0.00015,2.9999999999999997e-05,-4e-05,-0.00037,5
19835,20735,-0.00016999999999999999,0.00014,-2e-05,0.00016999999999999999,-0.00015,2.9999999999999997e-05,-4e-05,-0.00037,5
19836,20736,-0.00016999999999999999,0.00014,-2e-05,0.00016999999999999999,-0.00015,2.9999999999999997e-05,-4e-05,-0.00037,5
19837,20738,-0.00016999999999999999,0.00014,-2e-05,0.00016999999999999999,-0.00015,2.9999999999999997e-05,-4e-05,-0.00037,5
19838,20739,-0.00016999999999999999,0.00014,-2e-05,0.00016999999999999999,-0.00015,2.9999999999999997e-05,-4e-05,-0.00037,5
19839,20740,-0.00016999999999999999,0.00014,-2e-05,0.00016999999999999999,-0.00015,2.9999999999999997e-05,-4e-05,-0.00037,5
19840,20741,-0.00016999999999999999,0.00014,-2e-05,0.00016999999999999999,-0.00015,2.9999999999999997e-05,-4e-05,-0.00037,5
19841,20742,-0.00016999999999999999,0.00014,-2e-05,0.00016999999999999999,-0.00015,2.9999999999999997e-05,-4e-05,-0.00037,5
19842,20743,-0.00016999999999999999,0.00014,-2e-05,0.00016999999999999999,-0.00015,2.9999999999999997e-05,-4e-05,-0.00037,5
19843,20744,-0.00016999999999999999,0.00014,-2e-05,0.00016999999999999999,-0.00015,2.9999999999999997e-05,-4e-05,-0.00037,5
19844,20745,0.0006,5.9999999999999995e-05,-0.00013000000000000002,-0.0003,5.9999999999999995e-05,0.00014,5.9999999999999995e-05,0.00016,5
19845,20746,0.0006,5.9999999999999995e-05,-0.00013000000000000002,-0.0003,5.9999999999999995e-05,0.00014,5.9999999999999995e-05,0.00016,5
19846,20747,0.0006,5.9999999999999995e-05,-0.00013000000000000002,-0.0003,5.9999999999999995e-05,0.00014,5.9999999999999995e-05,0.00016,5
19847,20748,0.0006,5.9999999999999995e-05,-0.00013000000000000002,-0.0003,5.9999999999999995e-05,0.00014,5.9999999999999995e-05,0.00016,5
19848,20749,0.0006,5.9999999999999995e-05,-0.00013000000000000002,-0.0003,5.9999999999999995e-05,0.00014,5.9999999999999995e-05,0.00016,5
19849,20750,0.0006,5.9999999999999995e-05,-0.00013000000000000002,-0.0003,5.9999999999999995e-05,0.00014,5.9999999999999995e-05,0.00016,5
19850,20751,0.0006,5.9999999999999995e-05,-0.00013000000000000002,-0.0003,5.9999999999999995e-05,0.00014,5.9999999999999995e-05,0.00016,5
19851,20752,0.00081,5e-05,-9e-05,-0.00047999999999999996,9e-05,-1e-05,-1e-05,0.00023999999999999998,5
19852,20753,0.00081,5e-05,-9e-05,-0.00047999999999999996,9e-05,-1e-05,-1e-05,0.00023999999999999998,5
19853,20754,0.00081,5e-05,-9e-05,-0.00047999999999999996,9e-05,-1e-05,-1e-05,0.00023999999999999998,5
19854,20755,0.00081,5e-05,-9e-05,-0.00047999999999999996,9e-05,-1e-05,-1e-05,0.00023999999999999998,5
19855,20756,0.00081,5e-05,-9e-05,-0.00047999999999999996,9e-05,-1e-05,-1e-05,0.00023999999999999998,5
19856,20757,0.00081,5e-05,-9e-05,-0.00047999999999999996,9e-05,-1e-05,-1e-05,0.00023999999999999998,5
19857,20758,0.00081,5e-05,-9e-05,-0.00047999999999999996,9e-05,-1e-05,-1e-05,0.00023999999999999998,5
19858,20759,0.00081,5e-05,-9e-05,-0.00047999999999999996,9e-05,-1e-05,-1e-05,0.00023999999999999998,5
19859,20760,0.00081,5e-05,-9e-05,-0.00047999999999999996,9e-05,-1e-05,-1e-05,0.00023999999999999998,5
19860,20762,0.00081,5e-05,-9e-05,-0.00047999999999999996,9e-05,-1e-05,-1e-05,0.00023999999999999998,5
19861,20763,0.00081,5e-05,-9e-05,-0.00047999999999999996,9e-05,-1e-05,-1e-05,0.00023999999999999998,5
19862,20764,0.00081,5e-05,-9e-05,-0.00047999999999999996,9e-05,-1e-05,-1e-05,0.00023999999999999998,5
19863,20765,0.00081,5e-05,-9e-05,-0.00047999999999999996,9e-05,-1e-05,-1e-05,0.00023999999999999998,5
19864,20766,0.00081,5e-05,-9e-05,-0.00047999999999999996,9e-05,-1e-05,-1e-05,0.00023999999999999998,5
19865,20767,0.00081,5e-05,-9e-05,-0.00047999999999999996,9e-05,-1e-05,-1e-05,0.00023999999999999998,5
19866,20768,0.00016,8e-05,-0.00018999999999999998,-7e-05,0.00037,0.00014,1e-05,-2e-05,5
19867,20769,0.00016,8e-05,-0.00018999999999999998,-7e-05,0.00037,0.00014,1e-05,-2e-05,5
19868,20770,-5e-05,-0.0001,-4e-05,-0.00022,5e-05,-7e-05,-1e-05,0.00013000000000000002,5
19869,20771,-5e-05,-0.0001,-4e-05,-0.00022,5e-05,-7e-05,-1e-05,0.00013000000000000002,5
19870,20772,-5e-05,-0.0001,-4e-05,-0.00022,5e-05,-7e-05,-1e-05,0.00013000000000000002,5
19871,20773,-5e-05,-0.0001,-4e-05,-0.00022,5e-05,-7e-05,-1e-05,0.00013000000000000002,5
19872,20774,-5e-05,-0.0001,-4e-05,-0.00022,5e-05,-7e-05,-1e-05,0.00013000000000000002,5
19873,20775,-5e-05,-0.0001,-4e-05,-0.00022,5e-05,-7e-05,-1e-05,0.00013000000000000002,5
19874,20776,-5e-05,-0.0001,-4e-05,-0.00022,5e-05,-7e-05,-1e-05,0.00013000000000000002,5
19875,20777,-5e-05,-0.0001,-4e-05,-0.00022,5e-05,-7e-05,-1e-05,0.00013000000000000002,5
19876,20778,-5e-05,-0.0001,-4e-05,-0.00022,5e-05,-7e-05,-1e-05,0.00013000000000000002,5
19877,20779,-5e-05,-0.0001,-4e-05,-0.00022,5e-05,-7e-05,-1e-05,0.00013000000000000002,5
19878,20780,-5e-05,-0.0001,-4e-05,-0.00022,5e-05,-7e-05,-1e-05,0.00013000000000000002,5
19879,20781,-5e-05,-0.0001,-4e-05,-0.00022,5e-05,-7e-05,-1e-05,0.00013000000000000002,5
19880,20782,-5e-05,-0.0001,-4e-05,-0.00022,5e-05,-7e-05,-1e-05,0.00013000000000000002,5
19881,20783,-5e-05,-0.0001,-4e-05,-0.00022,5e-05,-7e-05,-1e-05,0.00013000000000000002,5
19882,20784,-5e-05,-0.0001,-4e-05,-0.00022,5e-05,-7e-05,-1e-05,0.00013000000000000002,5
19883,20785,-5e-05,-0.0001,-4e-05,-0.00022,5e-05,-7e-05,-1e-05,0.00013000000000000002,5
19884,20786,-5e-05,-0.0001,-4e-05,-0.00022,5e-05,-7e-05,-1e-05,0.00013000000000000002,5
19885,20788,-5e-05,-0.0001,-4e-05,-0.00022,5e-05,-7e-05,-1e-05,0.00013000000000000002,5
19886,20789,-5e-05,-0.0001,-4e-05,-0.00022,5e-05,-7e-05,-1e-05,0.00013000000000000002,5
19887,20790,4e-05,0.0001,0.00023999999999999998,0.0002,-7e-05,-4e-05,-5e-05,2e-05,5
19888,20791,4e-05,0.0001,0.00023999999999999998,0.0002,-7e-05,-4e-05,-5e-05,2e-05,5
19889,20792,0.0003,4e-05,-4e-05,0.00033,0.00073,0.0001,2.9999999999999997e-05,5.9999999999999995e-05,5
19890,20793,0.0003,4e-05,-4e-05,0.00033,0.00073,0.0001,2.9999999999999997e-05,5.9999999999999995e-05,5
19891,20794,0.0003,4e-05,-4e-05,0.00033,0.00073,0.0001,2.9999999999999997e-05,5.9999999999999995e-05,5
19892,20795,0.0003,4e-05,-4e-05,0.00033,0.00073,0.0001,2.9999999999999997e-05,5.9999999999999995e-05,5
19893,20796,0.0003,4e-05,-4e-05,0.00033,0.00073,0.0001,2.9999999999999997e-05,5.9999999999999995e-05,5
19894,20797,0.0003,4e-05,-4e-05,0.00033,0.00073,0.0001,2.9999999999999997e-05,5.9999999999999995e-05,5
19895,20798,0.0003,4e-05,-4e-05,0.00033,0.00073,0.0001,2.9999999999999997e-05,5.9999999999999995e-05,5
19896,20799,0.0003,4e-05,-4e-05,0.00033,0.00073,0.0001,2.9999999999999997e-05,5.9999999999999995e-05,5
19897,20800,0.0003,4e-05,-4e-05,0.00033,0.00073,0.0001,2.9999999999999997e-05,5.9999999999999995e-05,5
19898,20801,0.0003,4e-05,-4e-05,0.00033,0.00073,0.0001,2.9999999999999997e-05,5.9999999999999995e-05,5
19899,20802,0.0003,4e-05,-4e-05,0.00033,0.00073,0.0001,2.9999999999999997e-05,5.9999999999999995e-05,5
19900,20803,0.0003,4e-05,-4e-05,0.00033,0.00073,0.0001,2.9999999999999997e-05,5.9999999999999995e-05,5
19901,20804,0.0003,4e-05,-4e-05,0.00033,0.00073,0.0001,2.9999999999999997e-05,5.9999999999999995e-05,5
19902,20805,-0.00026000000000000003,8e-05,7e-05,-7e-05,-0.0005099999999999999,-5e-05,-2e-05,-2e-05,5
19903,20806,-0.00026000000000000003,8e-05,7e-05,-7e-05,-0.0005099999999999999,-5e-05,-2e-05,-2e-05,5
19904,20807,-0.00026000000000000003,8e-05,7e-05,-7e-05,-0.0005099999999999999,-5e-05,-2e-05,-2e-05,5
19905,20808,-0.00026000000000000003,8e-05,7e-05,-7e-05,-0.0005099999999999999,-5e-05,-2e-05,-2e-05,5
19906,20810,-0.00026000000000000003,8e-05,7e-05,-7e-05,-0.0005099999999999999,-5e-05,-2e-05,-2e-05,5
19907,20811,-0.00026000000000000003,8e-05,7e-05,-7e-05,-0.0005099999999999999,-5e-05,-2e-05,-2e-05,5
19908,20812,0.00018999999999999998,-9e-05,5e-05,-0.00047000000000000004,-0.00079,-9e-05,-1e-05,0.0001,5
19909,20813,0.00018999999999999998,-9e-05,5e-05,-0.00047000000000000004,-0.00079,-9e-05,-1e-05,0.0001,5
19910,20814,0.00018999999999999998,-9e-05,5e-05,-0.00047000000000000004,-0.00079,-9e-05,-1e-05,0.0001,5
19911,20815,0.00018999999999999998,-9e-05,5e-05,-0.00047000000000000004,-0.00079,-9e-05,-1e-05,0.0001,5
19912,20816,0.00018999999999999998,-9e-05,5e-05,-0.00047000000000000004,-0.00079,-9e-05,-1e-05,0.0001,5
19913,20817,0.00018999999999999998,-9e-05,5e-05,-0.00047000000000000004,-0.00079,-9e-05,-1e-05,0.0001,5
19914,20818,0.00018999999999999998,-9e-05,5e-05,-0.00047000000000000004,-0.00079,-9e-05,-1e-05,0.0001,5
19915,20819,0.00018999999999999998,-9e-05,5e-05,-0.00047000000000000004,-0.00079,-9e-05,-1e-05,0.0001,5
19916,20820,0.00018999999999999998,-9e-05,5e-05,-0.00047000000000000004,-0.00079,-9e-05,-1e-05,0.0001,5
19917,20821,0.00018999999999999998,-9e-05,5e-05,-0.00047000000000000004,-0.00079,-9e-05,-1e-05,0.0001,5
19918,20822,0.00018999999999999998,-9e-05,5e-05,-0.00047000000000000004,-0.00079,-9e-05,-1e-05,0.0001,5
19919,20823,0.00018999999999999998,-9e-05,5e-05,-0.00047000000000000004,-0.00079,-9e-05,-1e-05,0.0001,5
19920,20824,0.00018999999999999998,-9e-05,5e-05,-0.00047000000000000004,-0.00079,-9e-05,-1e-05,0.0001,5
19921,20825,0.00018999999999999998,-9e-05,5e-05,-0.00047000000000000004,-0.00079,-9e-05,-1e-05,0.0001,5
19922,20826,0.00018999999999999998,-9e-05,5e-05,-0.00047000000000000004,-0.00079,-9e-05,-1e-05,0.0001,5
19923,20827,0.00018999999999999998,-9e-05,5e-05,-0.00047000000000000004,-0.00079,-9e-05,-1e-05,0.0001,5
19924,20828,0.0007099999999999999,-2e-05,-5.9999999999999995e-05,0.00018,0.00042,4e-05,4e-05,0.00018,5
19925,20829,0.0007099999999999999,-2e-05,-5.9999999999999995e-05,0.00018,0.00042,4e-05,4e-05,0.00018,5
19926,20830,-0.00011999999999999999,-0.00013000000000000002,-0.00027,-0.00027,-1e-05,-0.00014,-2e-05,-0.00014,5
19927,20831,-0.00011999999999999999,-0.00013000000000000002,-0.00027,-0.00027,-1e-05,-0.00014,-2e-05,-0.00014,5
19928,20832,-0.00011999999999999999,-0.00013000000000000002,-0.00027,-0.00027,-1e-05,-0.00014,-2e-05,-0.00014,5
19929,20833,-0.00011999999999999999,-0.00013000000000000002,-0.00027,-0.00027,-1e-05,-0.00014,-2e-05,-0.00014,5
19930,20834,-0.00011999999999999999,-0.00013000000000000002,-0.00027,-0.00027,-1e-05,-0.00014,-2e-05,-0.00014,5
19931,20835,-0.00011999999999999999,-0.00013000000000000002,-0.00027,-0.00027,-1e-05,-0.00014,-2e-05,-0.00014,5
19932,20836,-0.00011999999999999999,-0.00013000000000000002,-0.00027,-0.00027,-1e-05,-0.00014,-2e-05,-0.00014,5
19933,20837,-0.00011999999999999999,-0.00013000000000000002,-0.00027,-0.00027,-1e-05,-0.00014,-2e-05,-0.00014,5
19934,20839,-0.00011999999999999999,-0.00013000000000000002,-0.00027,-0.00027,-1e-05,-0.00014,-2e-05,-0.00014,5
19935,20840,-0.00011999999999999999,-0.00013000000000000002,-0.00027,-0.00027,-1e-05,-0.00014,-2e-05,-0.00014,5
19936,20841,-0.00011999999999999999,-0.00013000000000000002,-0.00027,-0.00027,-1e-05,-0.00014,-2e-05,-0.00014,5
19937,20842,-0.00011999999999999999,-0.00013000000000000002,-0.00027,-0.00027,-1e-05,-0.00014,-2e-05,-0.00014,5
19938,20843,-0.00011999999999999999,-0.00013000000000000002,-0.00027,-0.00027,-1e-05,-0.00014,-2e-05,-0.00014,5
19939,20844,-0.00011999999999999999,-0.00013000000000000002,-0.00027,-0.00027,-1e-05,-0.00014,-2e-05,-0.00014,5
19940,20845,-0.00011999999999999999,-0.00013000000000000002,-0.00027,-0.00027,-1e-05,-0.00014,-2e-05,-0.00014,5
19941,20846,-0.00011999999999999999,-0.00013000000000000002,-0.00027,-0.00027,-1e-05,-0.00014,-2e-05,-0.00014,5
19942,20847,-0.00011999999999999999,-0.00013000000000000002,-0.00027,-0.00027,-1e-05,-0.00014,-2e-05,-0.00014,5
19943,20848,-0.00011999999999999999,-0.00013000000000000002,-0.00027,-0.00027,-1e-05,-0.00014,-2e-05,-0.00014,5
19944,20849,-0.00011999999999999999,-0.00013000000000000002,-0.00027,-0.00027,-1e-05,-0.00014,-2e-05,-0.00014,5
19945,20850,0.0006,0.00022,0.00033999999999999997,0.00027,5.9999999999999995e-05,-0.00015,-4e-05,0.00021,5
19946,20851,0.0006,0.00022,0.00033999999999999997,0.00027,5.9999999999999995e-05,-0.00015,-4e-05,0.00021,5
19947,20852,0.0006,-0.00011999999999999999,5.9999999999999995e-05,0.0005099999999999999,0.0002,-2.9999999999999997e-05,-4e-05,8e-05,5
19948,20853,0.0006,-0.00011999999999999999,5.9999999999999995e-05,0.0005099999999999999,0.0002,-2.9999999999999997e-05,-4e-05,8e-05,5
19949,20854,0.0006,-0.00011999999999999999,5.9999999999999995e-05,0.0005099999999999999,0.0002,-2.9999999999999997e-05,-4e-05,8e-05,5
19950,20856,0.0006,-0.00011999999999999999,5.9999999999999995e-05,0.0005099999999999999,0.0002,-2.9999999999999997e-05,-4e-05,8e-05,5
19951,20857,0.0006,-0.00011999999999999999,5.9999999999999995e-05,0.0005099999999999999,0.0002,-2.9999999999999997e-05,-4e-05,8e-05,5
19952,20858,0.0006,-0.00011999999999999999,5.9999999999999995e-05,0.0005099999999999999,0.0002,-2.9999999999999997e-05,-4e-05,8e-05,5
19953,20859,0.0006,-0.00011999999999999999,5.9999999999999995e-05,0.0005099999999999999,0.0002,-2.9999999999999997e-05,-4e-05,8e-05,5
19954,20860,0.0006,-0.00011999999999999999,5.9999999999999995e-05,0.0005099999999999999,0.0002,-2.9999999999999997e-05,-4e-05,8e-05,5
19955,20861,0.0006,-0.00011999999999999999,5.9999999999999995e-05,0.0005099999999999999,0.0002,-2.9999999999999997e-05,-4e-05,8e-05,5
19956,20862,0.0006,-0.00011999999999999999,5.9999999999999995e-05,0.0005099999999999999,0.0002,-2.9999999999999997e-05,-4e-05,8e-05,5
19957,20863,0.0006,-0.00011999999999999999,5.9999999999999995e-05,0.0005099999999999999,0.0002,-2.9999999999999997e-05,-4e-05,8e-05,5
19958,20864,0.0006,-0.00011999999999999999,5.9999999999999995e-05,0.0005099999999999999,0.0002,-2.9999999999999997e-05,-4e-05,8e-05,5
19959,20865,0.00022,-1e-05,0.00018,0.00058,0.00022,1e-05,-1e-05,7e-05,5
19960,20866,0.00022,-1e-05,0.00018,0.00058,0.00022,1e-05,-1e-05,7e-05,5
19961,20867,0.00022,-1e-05,0.00018,0.00058,0.00022,1e-05,-1e-05,7e-05,5
19962,20868,0.00022,-1e-05,0.00018,0.00058,0.00022,1e-05,-1e-05,7e-05,5
19963,20869,0.00022,-1e-05,0.00018,0.00058,0.00022,1e-05,-1e-05,7e-05,5
19964,20870,0.00022,-1e-05,0.00018,0.00058,0.00022,1e-05,-1e-05,7e-05,5
19965,20871,0.00022,-1e-05,0.00018,0.00058,0.00022,1e-05,-1e-05,7e-05,5
19966,20872,-0.00022,1e-05,-0.00036,-0.0007099999999999999,-8e-05,4e-05,-2.9999999999999997e-05,-2.9999999999999997e-05,5
19967,20873,-0.00022,1e-05,-0.00036,-0.0007099999999999999,-8e-05,4e-05,-2.9999999999999997e-05,-2.9999999999999997e-05,5
19968,20874,-0.00022,1e-05,-0.00036,-0.0007099999999999999,-8e-05,4e-05,-2.9999999999999997e-05,-2.9999999999999997e-05,5
19969,20875,-0.00022,1e-05,-0.00036,-0.0007099999999999999,-8e-05,4e-05,-2.9999999999999997e-05,-2.9999999999999997e-05,5
19970,20876,-0.00022,1e-05,-0.00036,-0.0007099999999999999,-8e-05,4e-05,-2.9999999999999997e-05,-2.9999999999999997e-05,5
19971,20877,-0.00022,1e-05,-0.00036,-0.0007099999999999999,-8e-05,4e-05,-2.9999999999999997e-05,-2.9999999999999997e-05,5
19972,20878,-0.00022,1e-05,-0.00036,-0.0007099999999999999,-8e-05,4e-05,-2.9999999999999997e-05,-2.9999999999999997e-05,5
19973,20879,-0.00022,1e-05,-0.00036,-0.0007099999999999999,-8e-05,4e-05,-2.9999999999999997e-05,-2.9999999999999997e-05,5
19974,20880,-0.00022,1e-05,-0.00036,-0.0007099999999999999,-8e-05,4e-05,-2.9999999999999997e-05,-2.9999999999999997e-05,5
19975,20881,-0.00022,1e-05,-0.00036,-0.0007099999999999999,-8e-05,4e-05,-2.9999999999999997e-05,-2.9999999999999997e-05,5
19976,20882,-0.00022,1e-05,-0.00036,-0.0007099999999999999,-8e-05,4e-05,-2.9999999999999997e-05,-2.9999999999999997e-05,5
19977,20883,-0.00022,1e-05,-0.00036,-0.0007099999999999999,-8e-05,4e-05,-2.9999999999999997e-05,-2.9999999999999997e-05,5
19978,20884,-0.00022,1e-05,-0.00036,-0.0007099999999999999,-8e-05,4e-05,-2.9999999999999997e-05,-2.9999999999999997e-05,5
19979,20885,-0.00022,1e-05,-0.00036,-0.0007099999999999999,-8e-05,4e-05,-2.9999999999999997e-05,-2.9999999999999997e-05,5
19980,20886,-0.00022,1e-05,-0.00036,-0.0007099999999999999,-8e-05,4e-05,-2.9999999999999997e-05,-2.9999999999999997e-05,5
19981,20888,0.00011999999999999999,-0.00016999999999999999,-0.00022,-0.0005099999999999999,0.00021,0.0,4e-05,5e-05,5
19982,20889,0.00011999999999999999,-0.00016999999999999999,-0.00022,-0.0005099999999999999,0.00021,0.0,4e-05,5e-05,5
19983,20890,8e-05,7e-05,0.00022,0.00049,-4e-05,-9e-05,0.0,2.9999999999999997e-05,5
19984,20891,8e-05,7e-05,0.00022,0.00049,-4e-05,-9e-05,0.0,2.9999999999999997e-05,5
19985,20892,8e-05,7e-05,0.00022,0.00049,-4e-05,-9e-05,0.0,2.9999999999999997e-05,5
19986,20893,8e-05,7e-05,0.00022,0.00049,-4e-05,-9e-05,0.0,2.9999999999999997e-05,5
19987,20894,8e-05,7e-05,0.00022,0.00049,-4e-05,-9e-05,0.0,2.9999999999999997e-05,5
19988,20895,8e-05,7e-05,0.00022,0.00049,-4e-05,-9e-05,0.0,2.9999999999999997e-05,5
19989,20896,8e-05,7e-05,0.00022,0.00049,-4e-05,-9e-05,0.0,2.9999999999999997e-05,5
19990,20897,8e-05,7e-05,0.00022,0.00049,-4e-05,-9e-05,0.0,2.9999999999999997e-05,5
19991,20898,8e-05,7e-05,0.00022,0.00049,-4e-05,-9e-05,0.0,2.9999999999999997e-05,5
19992,20899,8e-05,7e-05,0.00022,0.00049,-4e-05,-9e-05,0.0,2.9999999999999997e-05,5
19993,20900,8e-05,7e-05,0.00022,0.00049,-4e-05,-9e-05,0.0,2.9999999999999997e-05,5
19994,20901,8e-05,7e-05,0.00022,0.00049,-4e-05,-9e-05,0.0,2.9999999999999997e-05,5
19995,20903,8e-05,7e-05,0.00022,0.00049,-4e-05,-9e-05,0.0,2.9999999999999997e-05,5
19996,20904,8e-05,7e-05,0.00022,0.00049,-4e-05,-9e-05,0.0,2.9999999999999997e-05,5
19997,20905,8e-05,7e-05,0.00022,0.00049,-4e-05,-9e-05,0.0,2.9999999999999997e-05,5
19998,20906,8e-05,7e-05,0.00022,0.00049,-4e-05,-9e-05,0.0,2.9999999999999997e-05,5
19999,20907,8e-05,7e-05,0.00022,0.00049,-4e-05,-9e-05,0.0,2.9999999999999997e-05,5
20000,20908,8e-05,7e-05,0.00022,0.00049,-4e-05,-9e-05,0.0,2.9999999999999997e-05,5
20001,20909,8e-05,7e-05,0.00022,0.00049,-4e-05,-9e-05,0.0,2.9999999999999997e-05,5
20002,20910,8e-05,7e-05,0.00022,0.00049,-4e-05,-9e-05,0.0,2.9999999999999997e-05,5
20003,20911,0.0006799999999999999,0.00015,-2e-05,-1e-05,0.00018,-5e-05,-2.9999999999999997e-05,-1e-05,5
20004,20912,0.00018,-0.0004,-0.00066,-0.0006,-5.9999999999999995e-05,-2e-05,-2.9999999999999997e-05,1e-05,5
20005,20913,0.00018,-0.0004,-0.00066,-0.0006,-5.9999999999999995e-05,-2e-05,-2.9999999999999997e-05,1e-05,5
20006,20914,0.00018,-0.0004,-0.00066,-0.0006,-5.9999999999999995e-05,-2e-05,-2.9999999999999997e-05,1e-05,5
20007,20915,0.00018,-0.0004,-0.00066,-0.0006,-5.9999999999999995e-05,-2e-05,-2.9999999999999997e-05,1e-05,5
20008,20916,0.00018,-0.0004,-0.00066,-0.0006,-5.9999999999999995e-05,-2e-05,-2.9999999999999997e-05,1e-05,5
20009,20917,0.00018,-0.0004,-0.00066,-0.0006,-5.9999999999999995e-05,-2e-05,-2.9999999999999997e-05,1e-05,5
20010,20918,0.00018,-0.0004,-0.00066,-0.0006,-5.9999999999999995e-05,-2e-05,-2.9999999999999997e-05,1e-05,5
20011,20919,0.00018,-0.0004,-0.00066,-0.0006,-5.9999999999999995e-05,-2e-05,-2.9999999999999997e-05,1e-05,5
20012,20920,0.00018,-0.0004,-0.00066,-0.0006,-5.9999999999999995e-05,-2e-05,-2.9999999999999997e-05,1e-05,5
20013,20921,0.00018,-0.0004,-0.00066,-0.0006,-5.9999999999999995e-05,-2e-05,-2.9999999999999997e-05,1e-05,5
20014,20922,0.00018,-0.0004,-0.00066,-0.0006,-5.9999999999999995e-05,-2e-05,-2.9999999999999997e-05,1e-05,5
20015,20923,0.00018,-0.0004,-0.00066,-0.0006,-5.9999999999999995e-05,-2e-05,-2.9999999999999997e-05,1e-05,5
20016,20924,-0.00044,-7e-05,-0.00011,0.00027,0.00061,-9e-05,-2e-05,-0.00016,5
20017,20925,-0.00044,-7e-05,-0.00011,0.00027,0.00061,-9e-05,-2e-05,-0.00016,5
20018,20926,-0.00044,-7e-05,-0.00011,0.00027,0.00061,-9e-05,-2e-05,-0.00016,5
20019,20927,-0.00044,-7e-05,-0.00011,0.00027,0.00061,-9e-05,-2e-05,-0.00016,5
20020,20928,-0.00044,-7e-05,-0.00011,0.00027,0.00061,-9e-05,-2e-05,-0.00016,5
20021,20929,-0.00044,-7e-05,-0.00011,0.00027,0.00061,-9e-05,-2e-05,-0.00016,5
20022,20930,-0.00044,-7e-05,-0.00011,0.00027,0.00061,-9e-05,-2e-05,-0.00016,5
20023,20931,-0.00044,-7e-05,-0.00011,0.00027,0.00061,-9e-05,-2e-05,-0.00016,5
20024,20932,-0.00044,-7e-05,-0.00011,0.00027,0.00061,-9e-05,-2e-05,-0.00016,5
20025,20933,0.00043,0.00016999999999999999,0.00014,-2.9999999999999997e-05,-0.00032,-1e-05,4e-05,0.00013000000000000002,5
20026,20934,0.00043,0.00016999999999999999,0.00014,-2.9999999999999997e-05,-0.00032,-1e-05,4e-05,0.00013000000000000002,5
20027,20935,0.00043,0.00016999999999999999,0.00014,-2.9999999999999997e-05,-0.00032,-1e-05,4e-05,0.00013000000000000002,5
20028,20936,0.00043,0.00016999999999999999,0.00014,-2.9999999999999997e-05,-0.00032,-1e-05,4e-05,0.00013000000000000002,5
20029,20938,0.00043,0.00016999999999999999,0.00014,-2.9999999999999997e-05,-0.00032,-1e-05,4e-05,0.00013000000000000002,5
20030,20939,0.00043,0.00016999999999999999,0.00014,-2.9999999999999997e-05,-0.00032,-1e-05,4e-05,0.00013000000000000002,5
20031,20940,0.00043,0.00016999999999999999,0.00014,-2.9999999999999997e-05,-0.00032,-1e-05,4e-05,0.00013000000000000002,5
20032,20941,0.00043,0.00016999999999999999,0.00014,-2.9999999999999997e-05,-0.00032,-1e-05,4e-05,0.00013000000000000002,5
20033,20942,0.00043,0.00016999999999999999,0.00014,-2.9999999999999997e-05,-0.00032,-1e-05,4e-05,0.00013000000000000002,5
20034,20943,0.00043,0.00016999999999999999,0.00014,-2.9999999999999997e-05,-0.00032,-1e-05,4e-05,0.00013000000000000002,5
20035,20944,0.00043,0.00016999999999999999,0.00014,-2.9999999999999997e-05,-0.00032,-1e-05,4e-05,0.00013000000000000002,5
20036,20945,0.00043,0.00016999999999999999,0.00014,-2.9999999999999997e-05,-0.00032,-1e-05,4e-05,0.00013000000000000002,5
20037,20946,0.00043,0.00016999999999999999,0.00014,-2.9999999999999997e-05,-0.00032,-1e-05,4e-05,0.00013000000000000002,5
20038,20947,0.00043,0.00016999999999999999,0.00014,-2.9999999999999997e-05,-0.00032,-1e-05,4e-05,0.00013000000000000002,5
20039,20948,-0.00025,-0.00011,-0.00021,-0.00037,-0.00119,-4e-05,-5e-05,-0.0001,5
20040,20950,-0.0009,-0.00033,-0.00033999999999999997,-0.00025,-0.00037999999999999997,1e-05,-4e-05,-0.00015,5
20041,20951,-0.0009,-0.00033,-0.00033999999999999997,-0.00025,-0.00037999999999999997,1e-05,-4e-05,-0.00015,5
20042,20952,-0.0009,-0.00033,-0.00033999999999999997,-0.00025,-0.00037999999999999997,1e-05,-4e-05,-0.00015,5
20043,20953,-0.0009,-0.00033,-0.00033999999999999997,-0.00025,-0.00037999999999999997,1e-05,-4e-05,-0.00015,5
20044,20954,-0.0009,-0.00033,-0.00033999999999999997,-0.00025,-0.00037999999999999997,1e-05,-4e-05,-0.00015,5
20045,20955,-0.0009,-0.00033,-0.00033999999999999997,-0.00025,-0.00037999999999999997,1e-05,-4e-05,-0.00015,5
20046,20956,-0.0009,-0.00033,-0.00033999999999999997,-0.00025,-0.00037999999999999997,1e-05,-4e-05,-0.00015,5
20047,20957,-0.0009,-0.00033,-0.00033999999999999997,-0.00025,-0.00037999999999999997,1e-05,-4e-05,-0.00015,5
20048,20958,-0.0009,-0.00033,-0.00033999999999999997,-0.00025,-0.00037999999999999997,1e-05,-4e-05,-0.00015,5
20049,20959,-0.0009,-0.00033,-0.00033999999999999997,-0.00025,-0.00037999999999999997,1e-05,-4e-05,-0.00015,5
20050,20960,-0.0009,-0.00033,-0.00033999999999999997,-0.00025,-0.00037999999999999997,1e-05,-4e-05,-0.00015,5
20051,20961,-0.0009,-0.00033,-0.00033999999999999997,-0.00025,-0.00037999999999999997,1e-05,-4e-05,-0.00015,5
20052,20962,-0.0009,-0.00033,-0.00033999999999999997,-0.00025,-0.00037999999999999997,1e-05,-4e-05,-0.00015,5
20053,20963,-0.0009,-0.00033,-0.00033999999999999997,-0.00025,-0.00037999999999999997,1e-05,-4e-05,-0.00015,5
20054,20964,-0.0009,-0.00033,-0.00033999999999999997,-0.00025,-0.00037999999999999997,1e-05,-4e-05,-0.00015,5
20055,20965,-0.0009,-0.00033,-0.00033999999999999997,-0.00025,-0.00037999999999999997,1e-05,-4e-05,-0.00015,5
20056,20966,-0.0009,-0.00033,-0.00033999999999999997,-0.00025,-0.00037999999999999997,1e-05,-4e-05,-0.00015,5
20057,20967,-0.0009,-0.00033,-0.00033999999999999997,-0.00025,-0.00037999999999999997,1e-05,-4e-05,-0.00015,5
20058,20968,-0.0009,-0.00033,-0.00033999999999999997,-0.00025,-0.00037999999999999997,1e-05,-4e-05,-0.00015,5
20059,20969,-0.0009,-0.00033,-0.00033999999999999997,-0.00025,-0.00037999999999999997,1e-05,-4e-05,-0.00015,5
20060,20970,-0.00026000000000000003,2e-05,0.00021,0.00015,-5e-05,-1e-05,-4e-05,-0.00021,5
20061,20971,-0.00026000000000000003,2e-05,0.00021,0.00015,-5e-05,-1e-05,-4e-05,-0.00021,5
20062,20972,-0.00016,0.00011,0.00018,-0.00027,-0.00047000000000000004,-8e-05,-2e-05,-0.00016999999999999999,5
20063,20973,-0.00016,0.00011,0.00018,-0.00027,-0.00047000000000000004,-8e-05,-2e-05,-0.00016999999999999999,5
20064,20974,-0.00016,0.00011,0.00018,-0.00027,-0.00047000000000000004,-8e-05,-2e-05,-0.00016999999999999999,5
20065,20975,-0.00016,0.00011,0.00018,-0.00027,-0.00047000000000000004,-8e-05,-2e-05,-0.00016999999999999999,5
20066,20976,-0.00016,0.00011,0.00018,-0.00027,-0.00047000000000000004,-8e-05,-2e-05,-0.00016999999999999999,5
20067,20977,-0.00016,0.00011,0.00018,-0.00027,-0.00047000000000000004,-8e-05,-2e-05,-0.00016999999999999999,5
20068,20978,-0.00016,0.00011,0.00018,-0.00027,-0.00047000000000000004,-8e-05,-2e-05,-0.00016999999999999999,5
20069,20979,-0.00016,0.00011,0.00018,-0.00027,-0.00047000000000000004,-8e-05,-2e-05,-0.00016999999999999999,5
20070,20980,-0.00016,0.00011,0.00018,-0.00027,-0.00047000000000000004,-8e-05,-2e-05,-0.00016999999999999999,5
20071,20981,-0.00016,0.00011,0.00018,-0.00027,-0.00047000000000000004,-8e-05,-2e-05,-0.00016999999999999999,5
20072,20982,-0.00016,0.00011,0.00018,-0.00027,-0.00047000000000000004,-8e-05,-2e-05,-0.00016999999999999999,5
20073,20983,-0.00016,0.00011,0.00018,-0.00027,-0.00047000000000000004,-8e-05,-2e-05,-0.00016999999999999999,5
20074,20984,-0.00032,-0.0001,-8e-05,-0.00016,0.00013000000000000002,2.9999999999999997e-05,-4e-05,-0.00011,5
20075,20985,-0.00032,-0.0001,-8e-05,-0.00016,0.00013000000000000002,2.9999999999999997e-05,-4e-05,-0.00011,5
20076,20986,-0.00032,-0.0001,-8e-05,-0.00016,0.00013000000000000002,2.9999999999999997e-05,-4e-05,-0.00011,5
20077,20988,-0.00032,-0.0001,-8e-05,-0.00016,0.00013000000000000002,2.9999999999999997e-05,-4e-05,-0.00011,5
20078,20989,-0.00032,-0.0001,-8e-05,-0.00016,0.00013000000000000002,2.9999999999999997e-05,-4e-05,-0.00011,5
20079,20990,-0.00032,-0.0001,-8e-05,-0.00016,0.00013000000000000002,2.9999999999999997e-05,-4e-05,-0.00011,5
20080,20991,-0.00032,-0.0001,-8e-05,-0.00016,0.00013000000000000002,2.9999999999999997e-05,-4e-05,-0.00011,5
20081,20992,-0.00032,-0.0001,-8e-05,-0.00016,0.00013000000000000002,2.9999999999999997e-05,-4e-05,-0.00011,5
20082,20993,-0.00085,7e-05,0.00037,0.00045999999999999996,1e-05,0.00015,1e-05,-0.00029,5
20083,20994,-0.00085,7e-05,0.00037,0.00045999999999999996,1e-05,0.00015,1e-05,-0.00029,5
20084,20995,-0.00085,7e-05,0.00037,0.00045999999999999996,1e-05,0.00015,1e-05,-0.00029,5
20085,20997,-0.00085,7e-05,0.00037,0.00045999999999999996,1e-05,0.00015,1e-05,-0.00029,5
20086,20998,-0.00085,7e-05,0.00037,0.00045999999999999996,1e-05,0.00015,1e-05,-0.00029,5
20087,20999,-0.00085,7e-05,0.00037,0.00045999999999999996,1e-05,0.00015,1e-05,-0.00029,5
20088,21000,-0.00085,7e-05,0.00037,0.00045999999999999996,1e-05,0.00015,1e-05,-0.00029,5
20089,21001,-0.00085,7e-05,0.00037,0.00045999999999999996,1e-05,0.00015,1e-05,-0.00029,5
20090,21002,-0.00085,7e-05,0.00037,0.00045999999999999996,1e-05,0.00015,1e-05,-0.00029,5
20091,21003,-0.00085,7e-05,0.00037,0.00045999999999999996,1e-05,0.00015,1e-05,-0.00029,5
20092,21004,-0.00085,7e-05,0.00037,0.00045999999999999996,1e-05,0.00015,1e-05,-0.00029,5
20093,21005,-0.00085,7e-05,0.00037,0.00045999999999999996,1e-05,0.00015,1e-05,-0.00029,5
20094,21006,-0.00085,7e-05,0.00037,0.00045999999999999996,1e-05,0.00015,1e-05,-0.00029,5
20095,21007,-0.00085,7e-05,0.00037,0.00045999999999999996,1e-05,0.00015,1e-05,-0.00029,5
20096,21008,0.00041,0.00011999999999999999,-2.9999999999999997e-05,-0.00014,-7e-05,2e-05,0.0,0.00018999999999999998,5
20097,21009,0.00041,0.00011999999999999999,-2.9999999999999997e-05,-0.00014,-7e-05,2e-05,0.0,0.00018999999999999998,5
20098,21010,0.00045,0.00016,0.0003,-0.00037999999999999997,-0.00041,-0.0001,-1e-05,4e-05,5
20099,21011,0.00045,0.00016,0.0003,-0.00037999999999999997,-0.00041,-0.0001,-1e-05,4e-05,5
20100,21012,0.00045,0.00016,0.0003,-0.00037999999999999997,-0.00041,-0.0001,-1e-05,4e-05,5
20101,21013,0.00045,0.00016,0.0003,-0.00037999999999999997,-0.00041,-0.0001,-1e-05,4e-05,5
20102,21014,0.00045,0.00016,0.0003,-0.00037999999999999997,-0.00041,-0.0001,-1e-05,4e-05,5
20103,21015,0.00045,0.00016,0.0003,-0.00037999999999999997,-0.00041,-0.0001,-1e-05,4e-05,5
20104,21016,0.00045,0.00016,0.0003,-0.00037999999999999997,-0.00041,-0.0001,-1e-05,4e-05,5
20105,21017,0.00045,0.00016,0.0003,-0.00037999999999999997,-0.00041,-0.0001,-1e-05,4e-05,5
20106,21018,0.00045,0.00016,0.0003,-0.00037999999999999997,-0.00041,-0.0001,-1e-05,4e-05,5
20107,21019,0.00045,0.00016,0.0003,-0.00037999999999999997,-0.00041,-0.0001,-1e-05,4e-05,5
20108,21020,0.00045,0.00016,0.0003,-0.00037999999999999997,-0.00041,-0.0001,-1e-05,4e-05,5
20109,21021,0.00045,0.00016,0.0003,-0.00037999999999999997,-0.00041,-0.0001,-1e-05,4e-05,5
20110,21022,0.00045,0.00016,0.0003,-0.00037999999999999997,-0.00041,-0.0001,-1e-05,4e-05,5
20111,21023,0.00045,0.00016,0.0003,-0.00037999999999999997,-0.00041,-0.0001,-1e-05,4e-05,5
20112,21024,0.00045,0.00016,0.0003,-0.00037999999999999997,-0.00041,-0.0001,-1e-05,4e-05,5
20113,21025,0.00045,0.00016,0.0003,-0.00037999999999999997,-0.00041,-0.0001,-1e-05,4e-05,5
20114,21026,0.00045,0.00016,0.0003,-0.00037999999999999997,-0.00041,-0.0001,-1e-05,4e-05,5
20115,21027,0.00045,0.00016,0.0003,-0.00037999999999999997,-0.00041,-0.0001,-1e-05,4e-05,5
20116,21028,0.00045,0.00016,0.0003,-0.00037999999999999997,-0.00041,-0.0001,-1e-05,4e-05,5
20117,21029,0.00045,0.00016,0.0003,-0.00037999999999999997,-0.00041,-0.0001,-1e-05,4e-05,5
20118,21030,-0.00033,-7e-05,7e-05,0.0006799999999999999,0.0009400000000000001,0.00028,9e-05,5e-05,5
20119,21031,-0.00033,-7e-05,7e-05,0.0006799999999999999,0.0009400000000000001,0.00028,9e-05,5e-05,5
20120,21032,-0.00075,-1e-05,5e-05,-2.9999999999999997e-05,-0.00016999999999999999,-1e-05,0.0,-0.00015,5
20121,21033,-0.00075,-1e-05,5e-05,-2.9999999999999997e-05,-0.00016999999999999999,-1e-05,0.0,-0.00015,5
20122,21034,-0.00075,-1e-05,5e-05,-2.9999999999999997e-05,-0.00016999999999999999,-1e-05,0.0,-0.00015,5
20123,21035,-0.00075,-1e-05,5e-05,-2.9999999999999997e-05,-0.00016999999999999999,-1e-05,0.0,-0.00015,5
20124,21036,-0.00075,-1e-05,5e-05,-2.9999999999999997e-05,-0.00016999999999999999,-1e-05,0.0,-0.00015,5
20125,21038,-0.00075,-1e-05,5e-05,-2.9999999999999997e-05,-0.00016999999999999999,-1e-05,0.0,-0.00015,5
20126,21039,-0.00075,-1e-05,5e-05,-2.9999999999999997e-05,-0.00016999999999999999,-1e-05,0.0,-0.00015,5
20127,21040,-0.00075,-1e-05,5e-05,-2.9999999999999997e-05,-0.00016999999999999999,-1e-05,0.0,-0.00015,5
20128,21041,-0.00075,-1e-05,5e-05,-2.9999999999999997e-05,-0.00016999999999999999,-1e-05,0.0,-0.00015,5
20129,21043,-0.00075,-1e-05,5e-05,-2.9999999999999997e-05,-0.00016999999999999999,-1e-05,0.0,-0.00015,5
20130,21044,2.9999999999999997e-05,4e-05,-5.9999999999999995e-05,-0.00062,-0.00053,-0.00011999999999999999,-5.9999999999999995e-05,-0.00013000000000000002,5
20131,21045,2.9999999999999997e-05,4e-05,-5.9999999999999995e-05,-0.00062,-0.00053,-0.00011999999999999999,-5.9999999999999995e-05,-0.00013000000000000002,5
20132,21046,2.9999999999999997e-05,4e-05,-5.9999999999999995e-05,-0.00062,-0.00053,-0.00011999999999999999,-5.9999999999999995e-05,-0.00013000000000000002,5
20133,21047,2.9999999999999997e-05,4e-05,-5.9999999999999995e-05,-0.00062,-0.00053,-0.00011999999999999999,-5.9999999999999995e-05,-0.00013000000000000002,5
20134,21048,2.9999999999999997e-05,4e-05,-5.9999999999999995e-05,-0.00062,-0.00053,-0.00011999999999999999,-5.9999999999999995e-05,-0.00013000000000000002,5
20135,21049,2.9999999999999997e-05,4e-05,-5.9999999999999995e-05,-0.00062,-0.00053,-0.00011999999999999999,-5.9999999999999995e-05,-0.00013000000000000002,5
20136,21050,2.9999999999999997e-05,4e-05,-5.9999999999999995e-05,-0.00062,-0.00053,-0.00011999999999999999,-5.9999999999999995e-05,-0.00013000000000000002,5
20137,21051,2.9999999999999997e-05,4e-05,-5.9999999999999995e-05,-0.00062,-0.00053,-0.00011999999999999999,-5.9999999999999995e-05,-0.00013000000000000002,5
20138,21052,2.9999999999999997e-05,4e-05,-5.9999999999999995e-05,-0.00062,-0.00053,-0.00011999999999999999,-5.9999999999999995e-05,-0.00013000000000000002,5
20139,21053,0.00016999999999999999,-0.00013000000000000002,-0.00023999999999999998,-0.0002,-0.00013000000000000002,7e-05,5.9999999999999995e-05,0.0001,5
20140,21054,0.00016999999999999999,-0.00013000000000000002,-0.00023999999999999998,-0.0002,-0.00013000000000000002,7e-05,5.9999999999999995e-05,0.0001,5
20141,21055,0.00016999999999999999,-0.00013000000000000002,-0.00023999999999999998,-0.0002,-0.00013000000000000002,7e-05,5.9999999999999995e-05,0.0001,5
20142,21056,0.00016999999999999999,-0.00013000000000000002,-0.00023999999999999998,-0.0002,-0.00013000000000000002,7e-05,5.9999999999999995e-05,0.0001,5
20143,21057,0.00016999999999999999,-0.00013000000000000002,-0.00023999999999999998,-0.0002,-0.00013000000000000002,7e-05,5.9999999999999995e-05,0.0001,5
20144,21058,0.00016999999999999999,-0.00013000000000000002,-0.00023999999999999998,-0.0002,-0.00013000000000000002,7e-05,5.9999999999999995e-05,0.0001,5
20145,21059,0.00016999999999999999,-0.00013000000000000002,-0.00023999999999999998,-0.0002,-0.00013000000000000002,7e-05,5.9999999999999995e-05,0.0001,5
20146,21060,0.00016999999999999999,-0.00013000000000000002,-0.00023999999999999998,-0.0002,-0.00013000000000000002,7e-05,5.9999999999999995e-05,0.0001,5
20147,21061,0.00016999999999999999,-0.00013000000000000002,-0.00023999999999999998,-0.0002,-0.00013000000000000002,7e-05,5.9999999999999995e-05,0.0001,5
20148,21062,0.00016999999999999999,-0.00013000000000000002,-0.00023999999999999998,-0.0002,-0.00013000000000000002,7e-05,5.9999999999999995e-05,0.0001,5
20149,21063,0.00016999999999999999,-0.00013000000000000002,-0.00023999999999999998,-0.0002,-0.00013000000000000002,7e-05,5.9999999999999995e-05,0.0001,5
20150,21064,0.00016999999999999999,-0.00013000000000000002,-0.00023999999999999998,-0.0002,-0.00013000000000000002,7e-05,5.9999999999999995e-05,0.0001,5
20151,21065,0.00016999999999999999,-0.00013000000000000002,-0.00023999999999999998,-0.0002,-0.00013000000000000002,7e-05,5.9999999999999995e-05,0.0001,5
20152,21066,0.00016999999999999999,-0.00013000000000000002,-0.00023999999999999998,-0.0002,-0.00013000000000000002,7e-05,5.9999999999999995e-05,0.0001,5
20153,21067,0.00016999999999999999,-0.00013000000000000002,-0.00023999999999999998,-0.0002,-0.00013000000000000002,7e-05,5.9999999999999995e-05,0.0001,5
20154,21068,-0.00027,-0.00014,-0.00044,0.00047999999999999996,0.00061,1e-05,-5e-05,-0.00011,5
20155,21069,-0.00027,-0.00014,-0.00044,0.00047999999999999996,0.00061,1e-05,-5e-05,-0.00011,5
20156,21070,0.00075,0.00015,5.9999999999999995e-05,0.00028,0.0003,-5e-05,-2.9999999999999997e-05,0.00016999999999999999,5
20157,21071,0.00075,0.00015,5.9999999999999995e-05,0.00028,0.0003,-5e-05,-2.9999999999999997e-05,0.00016999999999999999,5
20158,21072,0.00075,0.00015,5.9999999999999995e-05,0.00028,0.0003,-5e-05,-2.9999999999999997e-05,0.00016999999999999999,5
20159,21073,0.00075,0.00015,5.9999999999999995e-05,0.00028,0.0003,-5e-05,-2.9999999999999997e-05,0.00016999999999999999,5
20160,21074,0.00075,0.00015,5.9999999999999995e-05,0.00028,0.0003,-5e-05,-2.9999999999999997e-05,0.00016999999999999999,5
20161,21075,0.00075,0.00015,5.9999999999999995e-05,0.00028,0.0003,-5e-05,-2.9999999999999997e-05,0.00016999999999999999,5
20162,21076,0.00075,0.00015,5.9999999999999995e-05,0.00028,0.0003,-5e-05,-2.9999999999999997e-05,0.00016999999999999999,5
20163,21077,0.00075,0.00015,5.9999999999999995e-05,0.00028,0.0003,-5e-05,-2.9999999999999997e-05,0.00016999999999999999,5
20164,21078,0.00075,0.00015,5.9999999999999995e-05,0.00028,0.0003,-5e-05,-2.9999999999999997e-05,0.00016999999999999999,5
20165,21079,0.00075,0.00015,5.9999999999999995e-05,0.00028,0.0003,-5e-05,-2.9999999999999997e-05,0.00016999999999999999,5
20166,21080,0.00075,0.00015,5.9999999999999995e-05,0.00028,0.0003,-5e-05,-2.9999999999999997e-05,0.00016999999999999999,5
20167,21081,0.00075,0.00015,5.9999999999999995e-05,0.00028,0.0003,-5e-05,-2.9999999999999997e-05,0.00016999999999999999,5
20168,21082,0.00075,0.00015,5.9999999999999995e-05,0.00028,0.0003,-5e-05,-2.9999999999999997e-05,0.00016999999999999999,5
20169,21083,0.00075,0.00015,5.9999999999999995e-05,0.00028,0.0003,-5e-05,-2.9999999999999997e-05,0.00016999999999999999,5
20170,21084,0.00075,0.00015,5.9999999999999995e-05,0.00028,0.0003,-5e-05,-2.9999999999999997e-05,0.00016999999999999999,5
20171,21085,0.00075,0.00015,5.9999999999999995e-05,0.00028,0.0003,-5e-05,-2.9999999999999997e-05,0.00016999999999999999,5
20172,21086,0.00075,0.00015,5.9999999999999995e-05,0.00028,0.0003,-5e-05,-2.9999999999999997e-05,0.00016999999999999999,5
20173,21088,0.00075,0.00015,5.9999999999999995e-05,0.00028,0.0003,-5e-05,-2.9999999999999997e-05,0.00016999999999999999,5
20174,21089,0.00075,0.00015,5.9999999999999995e-05,0.00028,0.0003,-5e-05,-2.9999999999999997e-05,0.00016999999999999999,5
20175,21091,-0.00067,-0.00016,-7e-05,-0.00021,-0.00059,-2e-05,-2.9999999999999997e-05,-0.00015,5
20176,21092,0.00053,-0.00011999999999999999,-0.00028,0.0002,0.00013000000000000002,5.9999999999999995e-05,-1e-05,0.00018,5
20177,21094,0.00053,-0.00011999999999999999,-0.00028,0.0002,0.00013000000000000002,5.9999999999999995e-05,-1e-05,0.00018,5
20178,21095,0.00053,-0.00011999999999999999,-0.00028,0.0002,0.00013000000000000002,5.9999999999999995e-05,-1e-05,0.00018,5
20179,21096,0.00053,-0.00011999999999999999,-0.00028,0.0002,0.00013000000000000002,5.9999999999999995e-05,-1e-05,0.00018,5
20180,21097,0.00053,-0.00011999999999999999,-0.00028,0.0002,0.00013000000000000002,5.9999999999999995e-05,-1e-05,0.00018,5
20181,21098,0.00053,-0.00011999999999999999,-0.00028,0.0002,0.00013000000000000002,5.9999999999999995e-05,-1e-05,0.00018,5
20182,21099,0.00053,-0.00011999999999999999,-0.00028,0.0002,0.00013000000000000002,5.9999999999999995e-05,-1e-05,0.00018,5
20183,21100,0.00053,-0.00011999999999999999,-0.00028,0.0002,0.00013000000000000002,5.9999999999999995e-05,-1e-05,0.00018,5
20184,21101,0.00053,-0.00011999999999999999,-0.00028,0.0002,0.00013000000000000002,5.9999999999999995e-05,-1e-05,0.00018,5
20185,21102,0.00053,-0.00011999999999999999,-0.00028,0.0002,0.00013000000000000002,5.9999999999999995e-05,-1e-05,0.00018,5
20186,21103,0.00053,-0.00011999999999999999,-0.00028,0.0002,0.00013000000000000002,5.9999999999999995e-05,-1e-05,0.00018,5
20187,21104,0.00059,2e-05,-2e-05,-1e-05,-0.00021,-4e-05,2e-05,0.00011,5
20188,21105,0.00059,2e-05,-2e-05,-1e-05,-0.00021,-4e-05,2e-05,0.00011,5
20189,21106,0.00059,2e-05,-2e-05,-1e-05,-0.00021,-4e-05,2e-05,0.00011,5
20190,21107,0.00059,2e-05,-2e-05,-1e-05,-0.00021,-4e-05,2e-05,0.00011,5
20191,21108,0.00059,2e-05,-2e-05,-1e-05,-0.00021,-4e-05,2e-05,0.00011,5
20192,21109,0.00059,2e-05,-2e-05,-1e-05,-0.00021,-4e-05,2e-05,0.00011,5
20193,21110,0.00059,2e-05,-2e-05,-1e-05,-0.00021,-4e-05,2e-05,0.00011,5
20194,21111,0.00059,2e-05,-2e-05,-1e-05,-0.00021,-4e-05,2e-05,0.00011,5
20195,21112,0.00059,2e-05,-2e-05,-1e-05,-0.00021,-4e-05,2e-05,0.00011,5
20196,21113,0.00018999999999999998,0.0002,0.00036,0.00016,0.00025,4e-05,1e-05,9e-05,5
20197,21114,0.00018999999999999998,0.0002,0.00036,0.00016,0.00025,4e-05,1e-05,9e-05,5
20198,21115,0.00018999999999999998,0.0002,0.00036,0.00016,0.00025,4e-05,1e-05,9e-05,5
20199,21116,0.00018999999999999998,0.0002,0.00036,0.00016,0.00025,4e-05,1e-05,9e-05,5
20200,21117,0.00018999999999999998,0.0002,0.00036,0.00016,0.00025,4e-05,1e-05,9e-05,5
20201,21118,0.00018999999999999998,0.0002,0.00036,0.00016,0.00025,4e-05,1e-05,9e-05,5
20202,21119,0.00018999999999999998,0.0002,0.00036,0.00016,0.00025,4e-05,1e-05,9e-05,5
20203,21120,0.00018999999999999998,0.0002,0.00036,0.00016,0.00025,4e-05,1e-05,9e-05,5
20204,21121,0.00018999999999999998,0.0002,0.00036,0.00016,0.00025,4e-05,1e-05,9e-05,5
20205,21122,0.00018999999999999998,0.0002,0.00036,0.00016,0.00025,4e-05,1e-05,9e-05,5
20206,21123,0.00018999999999999998,0.0002,0.00036,0.00016,0.00025,4e-05,1e-05,9e-05,5
20207,21124,0.00018999999999999998,0.0002,0.00036,0.00016,0.00025,4e-05,1e-05,9e-05,5
20208,21125,0.00018999999999999998,0.0002,0.00036,0.00016,0.00025,4e-05,1e-05,9e-05,5
20209,21126,0.00018999999999999998,0.0002,0.00036,0.00016,0.00025,4e-05,1e-05,9e-05,5
20210,21127,0.00018999999999999998,0.0002,0.00036,0.00016,0.00025,4e-05,1e-05,9e-05,5
20211,21128,2.9999999999999997e-05,2e-05,0.00013000000000000002,-0.00015,-0.0007700000000000001,-5.9999999999999995e-05,-1e-05,2e-05,5
20212,21129,2.9999999999999997e-05,2e-05,0.00013000000000000002,-0.00015,-0.0007700000000000001,-5.9999999999999995e-05,-1e-05,2e-05,5
20213,21130,0.00037,5e-05,-0.00011999999999999999,0.00032,0.00045999999999999996,4e-05,0.0,2.9999999999999997e-05,5
20214,21131,0.00037,5e-05,-0.00011999999999999999,0.00032,0.00045999999999999996,4e-05,0.0,2.9999999999999997e-05,5
20215,21132,0.00037,5e-05,-0.00011999999999999999,0.00032,0.00045999999999999996,4e-05,0.0,2.9999999999999997e-05,5
20216,21133,0.00037,5e-05,-0.00011999999999999999,0.00032,0.00045999999999999996,4e-05,0.0,2.9999999999999997e-05,5
20217,21134,0.00037,5e-05,-0.00011999999999999999,0.00032,0.00045999999999999996,4e-05,0.0,2.9999999999999997e-05,5
20218,21135,0.00037,5e-05,-0.00011999999999999999,0.00032,0.00045999999999999996,4e-05,0.0,2.9999999999999997e-05,5
20219,21137,0.00037,5e-05,-0.00011999999999999999,0.00032,0.00045999999999999996,4e-05,0.0,2.9999999999999997e-05,5
20220,21138,0.00037,5e-05,-0.00011999999999999999,0.00032,0.00045999999999999996,4e-05,0.0,2.9999999999999997e-05,5
20221,21139,0.00037,5e-05,-0.00011999999999999999,0.00032,0.00045999999999999996,4e-05,0.0,2.9999999999999997e-05,5
20222,21140,0.00037,5e-05,-0.00011999999999999999,0.00032,0.00045999999999999996,4e-05,0.0,2.9999999999999997e-05,5
20223,21141,0.00037,5e-05,-0.00011999999999999999,0.00032,0.00045999999999999996,4e-05,0.0,2.9999999999999997e-05,5
20224,21142,0.00037,5e-05,-0.00011999999999999999,0.00032,0.00045999999999999996,4e-05,0.0,2.9999999999999997e-05,5
20225,21143,0.00037,5e-05,-0.00011999999999999999,0.00032,0.00045999999999999996,4e-05,0.0,2.9999999999999997e-05,5
20226,21144,0.00037,5e-05,-0.00011999999999999999,0.00032,0.00045999999999999996,4e-05,0.0,2.9999999999999997e-05,5
20227,21145,0.00037,5e-05,-0.00011999999999999999,0.00032,0.00045999999999999996,4e-05,0.0,2.9999999999999997e-05,5
20228,21146,0.00037,5e-05,-0.00011999999999999999,0.00032,0.00045999999999999996,4e-05,0.0,2.9999999999999997e-05,5
20229,21147,0.00037,5e-05,-0.00011999999999999999,0.00032,0.00045999999999999996,4e-05,0.0,2.9999999999999997e-05,5
20230,21148,0.00037,5e-05,-0.00011999999999999999,0.00032,0.00045999999999999996,4e-05,0.0,2.9999999999999997e-05,5
20231,21149,0.00037,5e-05,-0.00011999999999999999,0.00032,0.00045999999999999996,4e-05,0.0,2.9999999999999997e-05,5
20232,21150,-0.00027,-0.0001,2.9999999999999997e-05,-0.00011,-0.00011,-5e-05,-2.9999999999999997e-05,1e-05,5
20233,21151,-0.00027,-0.0001,2.9999999999999997e-05,-0.00011,-0.00011,-5e-05,-2.9999999999999997e-05,1e-05,5
20234,21152,-0.00049,-4e-05,0.00016,8e-05,-9e-05,-2.9999999999999997e-05,-2e-05,-2e-05,5
20235,21153,-0.00049,-4e-05,0.00016,8e-05,-9e-05,-2.9999999999999997e-05,-2e-05,-2e-05,5
20236,21154,-0.00049,-4e-05,0.00016,8e-05,-9e-05,-2.9999999999999997e-05,-2e-05,-2e-05,5
20237,21155,-0.00049,-4e-05,0.00016,8e-05,-9e-05,-2.9999999999999997e-05,-2e-05,-2e-05,5
20238,21156,-0.00049,-4e-05,0.00016,8e-05,-9e-05,-2.9999999999999997e-05,-2e-05,-2e-05,5
20239,21157,-0.00049,-4e-05,0.00016,8e-05,-9e-05,-2.9999999999999997e-05,-2e-05,-2e-05,5
20240,21158,-0.00049,-4e-05,0.00016,8e-05,-9e-05,-2.9999999999999997e-05,-2e-05,-2e-05,5
20241,21159,-0.00049,-4e-05,0.00016,8e-05,-9e-05,-2.9999999999999997e-05,-2e-05,-2e-05,5
20242,21160,-0.00049,-4e-05,0.00016,8e-05,-9e-05,-2.9999999999999997e-05,-2e-05,-2e-05,5
20243,21161,-0.00049,-4e-05,0.00016,8e-05,-9e-05,-2.9999999999999997e-05,-2e-05,-2e-05,5
20244,21162,-0.00049,-4e-05,0.00016,8e-05,-9e-05,-2.9999999999999997e-05,-2e-05,-2e-05,5
20245,21163,-0.00049,-4e-05,0.00016,8e-05,-9e-05,-2.9999999999999997e-05,-2e-05,-2e-05,5
20246,21164,0.00036,-5.9999999999999995e-05,1e-05,-0.00033999999999999997,-0.00074,-5.9999999999999995e-05,-5e-05,7e-05,5
20247,21165,0.00036,-5.9999999999999995e-05,1e-05,-0.00033999999999999997,-0.00074,-5.9999999999999995e-05,-5e-05,7e-05,5
20248,21166,0.00036,-5.9999999999999995e-05,1e-05,-0.00033999999999999997,-0.00074,-5.9999999999999995e-05,-5e-05,7e-05,5
20249,21167,0.00036,-5.9999999999999995e-05,1e-05,-0.00033999999999999997,-0.00074,-5.9999999999999995e-05,-5e-05,7e-05,5
20250,21168,0.00036,-5.9999999999999995e-05,1e-05,-0.00033999999999999997,-0.00074,-5.9999999999999995e-05,-5e-05,7e-05,5
20251,21169,0.00036,-5.9999999999999995e-05,1e-05,-0.00033999999999999997,-0.00074,-5.9999999999999995e-05,-5e-05,7e-05,5
20252,21170,0.00036,-5.9999999999999995e-05,1e-05,-0.00033999999999999997,-0.00074,-5.9999999999999995e-05,-5e-05,7e-05,5
20253,21171,0.00036,-5.9999999999999995e-05,1e-05,-0.00033999999999999997,-0.00074,-5.9999999999999995e-05,-5e-05,7e-05,5
20254,21172,0.00036,-5.9999999999999995e-05,1e-05,-0.00033999999999999997,-0.00074,-5.9999999999999995e-05,-5e-05,7e-05,5
20255,21173,0.00039,-1e-05,7e-05,2.9999999999999997e-05,-5e-05,-2.9999999999999997e-05,2e-05,0.00013000000000000002,5
20256,21174,0.00039,-1e-05,7e-05,2.9999999999999997e-05,-5e-05,-2.9999999999999997e-05,2e-05,0.00013000000000000002,5
20257,21175,0.00039,-1e-05,7e-05,2.9999999999999997e-05,-5e-05,-2.9999999999999997e-05,2e-05,0.00013000000000000002,5
20258,21176,0.00039,-1e-05,7e-05,2.9999999999999997e-05,-5e-05,-2.9999999999999997e-05,2e-05,0.00013000000000000002,5
20259,21177,0.00039,-1e-05,7e-05,2.9999999999999997e-05,-5e-05,-2.9999999999999997e-05,2e-05,0.00013000000000000002,5
20260,21178,0.00039,-1e-05,7e-05,2.9999999999999997e-05,-5e-05,-2.9999999999999997e-05,2e-05,0.00013000000000000002,5
20261,21179,0.00039,-1e-05,7e-05,2.9999999999999997e-05,-5e-05,-2.9999999999999997e-05,2e-05,0.00013000000000000002,5
20262,21180,0.00039,-1e-05,7e-05,2.9999999999999997e-05,-5e-05,-2.9999999999999997e-05,2e-05,0.00013000000000000002,5
20263,21181,0.00039,-1e-05,7e-05,2.9999999999999997e-05,-5e-05,-2.9999999999999997e-05,2e-05,0.00013000000000000002,5
20264,21183,0.00039,-1e-05,7e-05,2.9999999999999997e-05,-5e-05,-2.9999999999999997e-05,2e-05,0.00013000000000000002,5
20265,21184,0.00039,-1e-05,7e-05,2.9999999999999997e-05,-5e-05,-2.9999999999999997e-05,2e-05,0.00013000000000000002,5
20266,21185,0.00039,-1e-05,7e-05,2.9999999999999997e-05,-5e-05,-2.9999999999999997e-05,2e-05,0.00013000000000000002,5
20267,21186,0.00039,-1e-05,7e-05,2.9999999999999997e-05,-5e-05,-2.9999999999999997e-05,2e-05,0.00013000000000000002,5
20268,21188,-0.00013000000000000002,2.9999999999999997e-05,0.00018999999999999998,0.00013000000000000002,-0.00016,5e-05,5e-05,1e-05,5
20269,21189,-0.00013000000000000002,2.9999999999999997e-05,0.00018999999999999998,0.00013000000000000002,-0.00016,5e-05,5e-05,1e-05,5
20270,21190,2e-05,-5.9999999999999995e-05,-0.00011999999999999999,-5e-05,0.00043,2.9999999999999997e-05,-1e-05,-7e-05,5
20271,21191,2e-05,-5.9999999999999995e-05,-0.00011999999999999999,-5e-05,0.00043,2.9999999999999997e-05,-1e-05,-7e-05,5
20272,21192,2e-05,-5.9999999999999995e-05,-0.00011999999999999999,-5e-05,0.00043,2.9999999999999997e-05,-1e-05,-7e-05,5
20273,21194,2e-05,-5.9999999999999995e-05,-0.00011999999999999999,-5e-05,0.00043,2.9999999999999997e-05,-1e-05,-7e-05,5
20274,21195,2e-05,-5.9999999999999995e-05,-0.00011999999999999999,-5e-05,0.00043,2.9999999999999997e-05,-1e-05,-7e-05,5
20275,21196,2e-05,-5.9999999999999995e-05,-0.00011999999999999999,-5e-05,0.00043,2.9999999999999997e-05,-1e-05,-7e-05,5
20276,21197,2e-05,-5.9999999999999995e-05,-0.00011999999999999999,-5e-05,0.00043,2.9999999999999997e-05,-1e-05,-7e-05,5
20277,21198,2e-05,-5.9999999999999995e-05,-0.00011999999999999999,-5e-05,0.00043,2.9999999999999997e-05,-1e-05,-7e-05,5
20278,21199,2e-05,-5.9999999999999995e-05,-0.00011999999999999999,-5e-05,0.00043,2.9999999999999997e-05,-1e-05,-7e-05,5
20279,21200,2e-05,-5.9999999999999995e-05,-0.00011999999999999999,-5e-05,0.00043,2.9999999999999997e-05,-1e-05,-7e-05,5
20280,21201,2e-05,-5.9999999999999995e-05,-0.00011999999999999999,-5e-05,0.00043,2.9999999999999997e-05,-1e-05,-7e-05,5
20281,21202,2e-05,-5.9999999999999995e-05,-0.00011999999999999999,-5e-05,0.00043,2.9999999999999997e-05,-1e-05,-7e-05,5
20282,21203,2e-05,-5.9999999999999995e-05,-0.00011999999999999999,-5e-05,0.00043,2.9999999999999997e-05,-1e-05,-7e-05,5
20283,21204,2e-05,-5.9999999999999995e-05,-0.00011999999999999999,-5e-05,0.00043,2.9999999999999997e-05,-1e-05,-7e-05,5
20284,21205,2e-05,-5.9999999999999995e-05,-0.00011999999999999999,-5e-05,0.00043,2.9999999999999997e-05,-1e-05,-7e-05,5
20285,21206,2e-05,-5.9999999999999995e-05,-0.00011999999999999999,-5e-05,0.00043,2.9999999999999997e-05,-1e-05,-7e-05,5
20286,21207,2e-05,-5.9999999999999995e-05,-0.00011999999999999999,-5e-05,0.00043,2.9999999999999997e-05,-1e-05,-7e-05,5
20287,21208,2e-05,-5.9999999999999995e-05,-0.00011999999999999999,-5e-05,0.00043,2.9999999999999997e-05,-1e-05,-7e-05,5
20288,21209,2e-05,-5.9999999999999995e-05,-0.00011999999999999999,-5e-05,0.00043,2.9999999999999997e-05,-1e-05,-7e-05,5
20289,21210,2e-05,-5.9999999999999995e-05,-0.00011999999999999999,-5e-05,0.00043,2.9999999999999997e-05,-1e-05,-7e-05,5
20290,21211,0.0006,-2.9999999999999997e-05,-0.00033,-0.0003,0.00058,0.00013000000000000002,5.9999999999999995e-05,8e-05,5
20291,21212,-0.0001,4e-05,-2e-05,0.0005200000000000001,0.00085,2e-05,-2e-05,-0.00011,5
20292,21213,-0.0001,4e-05,-2e-05,0.0005200000000000001,0.00085,2e-05,-2e-05,-0.00011,5
20293,21214,-0.0001,4e-05,-2e-05,0.0005200000000000001,0.00085,2e-05,-2e-05,-0.00011,5
20294,21215,-0.0001,4e-05,-2e-05,0.0005200000000000001,0.00085,2e-05,-2e-05,-0.00011,5
20295,21216,-0.0001,4e-05,-2e-05,0.0005200000000000001,0.00085,2e-05,-2e-05,-0.00011,5
20296,21217,-0.0001,4e-05,-2e-05,0.0005200000000000001,0.00085,2e-05,-2e-05,-0.00011,5
20297,21218,-0.0001,4e-05,-2e-05,0.0005200000000000001,0.00085,2e-05,-2e-05,-0.00011,5
20298,21219,-0.0001,4e-05,-2e-05,0.0005200000000000001,0.00085,2e-05,-2e-05,-0.00011,5
20299,21220,-0.0001,4e-05,-2e-05,0.0005200000000000001,0.00085,2e-05,-2e-05,-0.00011,5
20300,21221,-0.0001,4e-05,-2e-05,0.0005200000000000001,0.00085,2e-05,-2e-05,-0.00011,5
20301,21222,-0.0001,4e-05,-2e-05,0.0005200000000000001,0.00085,2e-05,-2e-05,-0.00011,5
20302,21223,-0.0001,4e-05,-2e-05,0.0005200000000000001,0.00085,2e-05,-2e-05,-0.00011,5
20303,21224,-5e-05,0.00014,0.00028,0.0006900000000000001,0.00039,5e-05,-5e-05,-2e-05,5
20304,21225,-5e-05,0.00014,0.00028,0.0006900000000000001,0.00039,5e-05,-5e-05,-2e-05,5
20305,21226,-5e-05,0.00014,0.00028,0.0006900000000000001,0.00039,5e-05,-5e-05,-2e-05,5
20306,21227,-5e-05,0.00014,0.00028,0.0006900000000000001,0.00039,5e-05,-5e-05,-2e-05,5
20307,21228,-5e-05,0.00014,0.00028,0.0006900000000000001,0.00039,5e-05,-5e-05,-2e-05,5
20308,21230,-5e-05,0.00014,0.00028,0.0006900000000000001,0.00039,5e-05,-5e-05,-2e-05,5
20309,21231,-5e-05,0.00014,0.00028,0.0006900000000000001,0.00039,5e-05,-5e-05,-2e-05,5
20310,21232,-5e-05,0.00014,0.00028,0.0006900000000000001,0.00039,5e-05,-5e-05,-2e-05,5
20311,21233,-0.00026000000000000003,5.9999999999999995e-05,0.00011999999999999999,-0.00037999999999999997,-0.00036,-0.00013000000000000002,-4e-05,-5e-05,5
20312,21234,-0.00026000000000000003,5.9999999999999995e-05,0.00011999999999999999,-0.00037999999999999997,-0.00036,-0.00013000000000000002,-4e-05,-5e-05,5
20313,21235,-0.00026000000000000003,5.9999999999999995e-05,0.00011999999999999999,-0.00037999999999999997,-0.00036,-0.00013000000000000002,-4e-05,-5e-05,5
20314,21236,-0.00026000000000000003,5.9999999999999995e-05,0.00011999999999999999,-0.00037999999999999997,-0.00036,-0.00013000000000000002,-4e-05,-5e-05,5
20315,21238,-0.00026000000000000003,5.9999999999999995e-05,0.00011999999999999999,-0.00037999999999999997,-0.00036,-0.00013000000000000002,-4e-05,-5e-05,5
20316,21239,-0.00026000000000000003,5.9999999999999995e-05,0.00011999999999999999,-0.00037999999999999997,-0.00036,-0.00013000000000000002,-4e-05,-5e-05,5
20317,21240,-0.00026000000000000003,5.9999999999999995e-05,0.00011999999999999999,-0.00037999999999999997,-0.00036,-0.00013000000000000002,-4e-05,-5e-05,5
20318,21241,-0.00026000000000000003,5.9999999999999995e-05,0.00011999999999999999,-0.00037999999999999997,-0.00036,-0.00013000000000000002,-4e-05,-5e-05,5
20319,21242,-0.00026000000000000003,5.9999999999999995e-05,0.00011999999999999999,-0.00037999999999999997,-0.00036,-0.00013000000000000002,-4e-05,-5e-05,5
20320,21243,-0.00026000000000000003,5.9999999999999995e-05,0.00011999999999999999,-0.00037999999999999997,-0.00036,-0.00013000000000000002,-4e-05,-5e-05,5
20321,21244,-0.00026000000000000003,5.9999999999999995e-05,0.00011999999999999999,-0.00037999999999999997,-0.00036,-0.00013000000000000002,-4e-05,-5e-05,5
20322,21245,-0.00026000000000000003,5.9999999999999995e-05,0.00011999999999999999,-0.00037999999999999997,-0.00036,-0.00013000000000000002,-4e-05,-5e-05,5
20323,21246,-0.00026000000000000003,5.9999999999999995e-05,0.00011999999999999999,-0.00037999999999999997,-0.00036,-0.00013000000000000002,-4e-05,-5e-05,5
20324,21247,-0.00026000000000000003,5.9999999999999995e-05,0.00011999999999999999,-0.00037999999999999997,-0.00036,-0.00013000000000000002,-4e-05,-5e-05,5
20325,21248,0.00013000000000000002,0.00011,0.00023999999999999998,0.00033999999999999997,0.00061,-5e-05,5.9999999999999995e-05,-2e-05,5
20326,21249,0.00013000000000000002,0.00011,0.00023999999999999998,0.00033999999999999997,0.00061,-5e-05,5.9999999999999995e-05,-2e-05,5
20327,21250,0.00031,2e-05,-0.00011999999999999999,-0.00023999999999999998,-0.00042,-0.00011999999999999999,-4e-05,2e-05,5
20328,21251,0.00031,2e-05,-0.00011999999999999999,-0.00023999999999999998,-0.00042,-0.00011999999999999999,-4e-05,2e-05,5
20329,21252,0.00031,2e-05,-0.00011999999999999999,-0.00023999999999999998,-0.00042,-0.00011999999999999999,-4e-05,2e-05,5
20330,21253,0.00031,2e-05,-0.00011999999999999999,-0.00023999999999999998,-0.00042,-0.00011999999999999999,-4e-05,2e-05,5
20331,21254,0.00031,2e-05,-0.00011999999999999999,-0.00023999999999999998,-0.00042,-0.00011999999999999999,-4e-05,2e-05,5
20332,21255,0.00031,2e-05,-0.00011999999999999999,-0.00023999999999999998,-0.00042,-0.00011999999999999999,-4e-05,2e-05,5
20333,21256,0.00031,2e-05,-0.00011999999999999999,-0.00023999999999999998,-0.00042,-0.00011999999999999999,-4e-05,2e-05,5
20334,21257,0.00031,2e-05,-0.00011999999999999999,-0.00023999999999999998,-0.00042,-0.00011999999999999999,-4e-05,2e-05,5
20335,21258,0.00031,2e-05,-0.00011999999999999999,-0.00023999999999999998,-0.00042,-0.00011999999999999999,-4e-05,2e-05,5
20336,21259,0.00031,2e-05,-0.00011999999999999999,-0.00023999999999999998,-0.00042,-0.00011999999999999999,-4e-05,2e-05,5
20337,21260,0.00031,2e-05,-0.00011999999999999999,-0.00023999999999999998,-0.00042,-0.00011999999999999999,-4e-05,2e-05,5
20338,21261,0.00031,2e-05,-0.00011999999999999999,-0.00023999999999999998,-0.00042,-0.00011999999999999999,-4e-05,2e-05,5
20339,21262,0.00031,2e-05,-0.00011999999999999999,-0.00023999999999999998,-0.00042,-0.00011999999999999999,-4e-05,2e-05,5
20340,21263,0.00031,2e-05,-0.00011999999999999999,-0.00023999999999999998,-0.00042,-0.00011999999999999999,-4e-05,2e-05,5
20341,21264,0.00031,2e-05,-0.00011999999999999999,-0.00023999999999999998,-0.00042,-0.00011999999999999999,-4e-05,2e-05,5
20342,21265,0.00031,2e-05,-0.00011999999999999999,-0.00023999999999999998,-0.00042,-0.00011999999999999999,-4e-05,2e-05,5
20343,21266,0.00031,2e-05,-0.00011999999999999999,-0.00023999999999999998,-0.00042,-0.00011999999999999999,-4e-05,2e-05,5
20344,21267,0.00031,2e-05,-0.00011999999999999999,-0.00023999999999999998,-0.00042,-0.00011999999999999999,-4e-05,2e-05,5
20345,21268,0.00031,2e-05,-0.00011999999999999999,-0.00023999999999999998,-0.00042,-0.00011999999999999999,-4e-05,2e-05,5
20346,21269,0.00031,2e-05,-0.00011999999999999999,-0.00023999999999999998,-0.00042,-0.00011999999999999999,-4e-05,2e-05,5
20347,21270,1e-05,4e-05,-0.00011,-0.00015,-5.9999999999999995e-05,-7e-05,-2e-05,5e-05,5
20348,21271,1e-05,4e-05,-0.00011,-0.00015,-5.9999999999999995e-05,-7e-05,-2e-05,5e-05,5
20349,21272,0.00014,0.0,-5.9999999999999995e-05,-0.00023999999999999998,-0.00055,-0.00013000000000000002,-2e-05,2.9999999999999997e-05,5
20350,21273,0.00014,0.0,-5.9999999999999995e-05,-0.00023999999999999998,-0.00055,-0.00013000000000000002,-2e-05,2.9999999999999997e-05,5
20351,21274,0.00014,0.0,-5.9999999999999995e-05,-0.00023999999999999998,-0.00055,-0.00013000000000000002,-2e-05,2.9999999999999997e-05,5
20352,21275,0.00014,0.0,-5.9999999999999995e-05,-0.00023999999999999998,-0.00055,-0.00013000000000000002,-2e-05,2.9999999999999997e-05,5
20353,21277,0.00014,0.0,-5.9999999999999995e-05,-0.00023999999999999998,-0.00055,-0.00013000000000000002,-2e-05,2.9999999999999997e-05,5
20354,21278,0.00014,0.0,-5.9999999999999995e-05,-0.00023999999999999998,-0.00055,-0.00013000000000000002,-2e-05,2.9999999999999997e-05,5
20355,21279,0.00014,0.0,-5.9999999999999995e-05,-0.00023999999999999998,-0.00055,-0.00013000000000000002,-2e-05,2.9999999999999997e-05,5
20356,21280,0.00014,0.0,-5.9999999999999995e-05,-0.00023999999999999998,-0.00055,-0.00013000000000000002,-2e-05,2.9999999999999997e-05,5
20357,21281,0.00014,0.0,-5.9999999999999995e-05,-0.00023999999999999998,-0.00055,-0.00013000000000000002,-2e-05,2.9999999999999997e-05,5
20358,21282,0.00014,0.0,-5.9999999999999995e-05,-0.00023999999999999998,-0.00055,-0.00013000000000000002,-2e-05,2.9999999999999997e-05,5
20359,21283,0.00014,0.0,-5.9999999999999995e-05,-0.00023999999999999998,-0.00055,-0.00013000000000000002,-2e-05,2.9999999999999997e-05,5
20360,21284,-0.0004,-8e-05,1e-05,-9e-05,-2.9999999999999997e-05,2e-05,-2e-05,-0.00015,5
20361,21285,-0.0004,-8e-05,1e-05,-9e-05,-2.9999999999999997e-05,2e-05,-2e-05,-0.00015,5
20362,21286,-0.0004,-8e-05,1e-05,-9e-05,-2.9999999999999997e-05,2e-05,-2e-05,-0.00015,5
20363,21288,-0.0004,-8e-05,1e-05,-9e-05,-2.9999999999999997e-05,2e-05,-2e-05,-0.00015,5
20364,21289,-0.0004,-8e-05,1e-05,-9e-05,-2.9999999999999997e-05,2e-05,-2e-05,-0.00015,5
20365,21290,-0.0004,-8e-05,1e-05,-9e-05,-2.9999999999999997e-05,2e-05,-2e-05,-0.00015,5
20366,21291,-0.0004,-8e-05,1e-05,-9e-05,-2.9999999999999997e-05,2e-05,-2e-05,-0.00015,5
20367,21292,-0.0004,-8e-05,1e-05,-9e-05,-2.9999999999999997e-05,2e-05,-2e-05,-0.00015,5
20368,21293,-0.00067,-0.0001,0.0,0.00032,0.00036,0.00013000000000000002,2.9999999999999997e-05,-5.9999999999999995e-05,5
20369,21294,-0.00067,-0.0001,0.0,0.00032,0.00036,0.00013000000000000002,2.9999999999999997e-05,-5.9999999999999995e-05,5
20370,21295,-0.00067,-0.0001,0.0,0.00032,0.00036,0.00013000000000000002,2.9999999999999997e-05,-5.9999999999999995e-05,5
20371,21296,-0.00067,-0.0001,0.0,0.00032,0.00036,0.00013000000000000002,2.9999999999999997e-05,-5.9999999999999995e-05,5
20372,21297,-0.00067,-0.0001,0.0,0.00032,0.00036,0.00013000000000000002,2.9999999999999997e-05,-5.9999999999999995e-05,5
20373,21298,-0.00067,-0.0001,0.0,0.00032,0.00036,0.00013000000000000002,2.9999999999999997e-05,-5.9999999999999995e-05,5
20374,21299,-0.00067,-0.0001,0.0,0.00032,0.00036,0.00013000000000000002,2.9999999999999997e-05,-5.9999999999999995e-05,5
20375,21300,-0.00067,-0.0001,0.0,0.00032,0.00036,0.00013000000000000002,2.9999999999999997e-05,-5.9999999999999995e-05,5
20376,21301,-0.00067,-0.0001,0.0,0.00032,0.00036,0.00013000000000000002,2.9999999999999997e-05,-5.9999999999999995e-05,5
20377,21302,-0.00067,-0.0001,0.0,0.00032,0.00036,0.00013000000000000002,2.9999999999999997e-05,-5.9999999999999995e-05,5
20378,21303,-0.00067,-0.0001,0.0,0.00032,0.00036,0.00013000000000000002,2.9999999999999997e-05,-5.9999999999999995e-05,5
20379,21304,-0.00067,-0.0001,0.0,0.00032,0.00036,0.00013000000000000002,2.9999999999999997e-05,-5.9999999999999995e-05,5
20380,21305,-0.00067,-0.0001,0.0,0.00032,0.00036,0.00013000000000000002,2.9999999999999997e-05,-5.9999999999999995e-05,5
20381,21306,-0.00067,-0.0001,0.0,0.00032,0.00036,0.00013000000000000002,2.9999999999999997e-05,-5.9999999999999995e-05,5
20382,21307,-0.00067,-0.0001,0.0,0.00032,0.00036,0.00013000000000000002,2.9999999999999997e-05,-5.9999999999999995e-05,5
20383,21308,-0.00067,-0.0001,0.0,0.00032,0.00036,0.00013000000000000002,2.9999999999999997e-05,-5.9999999999999995e-05,5
20384,21309,-0.00067,-0.0001,0.0,0.00032,0.00036,0.00013000000000000002,2.9999999999999997e-05,-5.9999999999999995e-05,5
20385,21310,5.9999999999999995e-05,5e-05,-2.9999999999999997e-05,0.00026000000000000003,0.0003,5e-05,5e-05,0.0,5
20386,21311,5.9999999999999995e-05,5e-05,-2.9999999999999997e-05,0.00026000000000000003,0.0003,5e-05,5e-05,0.0,5
20387,21312,5.9999999999999995e-05,5e-05,-2.9999999999999997e-05,0.00026000000000000003,0.0003,5e-05,5e-05,0.0,5
20388,21313,5.9999999999999995e-05,5e-05,-2.9999999999999997e-05,0.00026000000000000003,0.0003,5e-05,5e-05,0.0,5
20389,21314,5.9999999999999995e-05,5e-05,-2.9999999999999997e-05,0.00026000000000000003,0.0003,5e-05,5e-05,0.0,5
20390,21315,5.9999999999999995e-05,5e-05,-2.9999999999999997e-05,0.00026000000000000003,0.0003,5e-05,5e-05,0.0,5
20391,21316,5.9999999999999995e-05,5e-05,-2.9999999999999997e-05,0.00026000000000000003,0.0003,5e-05,5e-05,0.0,5
20392,21317,5.9999999999999995e-05,5e-05,-2.9999999999999997e-05,0.00026000000000000003,0.0003,5e-05,5e-05,0.0,5
20393,21318,5.9999999999999995e-05,5e-05,-2.9999999999999997e-05,0.00026000000000000003,0.0003,5e-05,5e-05,0.0,5
20394,21319,5.9999999999999995e-05,5e-05,-2.9999999999999997e-05,0.00026000000000000003,0.0003,5e-05,5e-05,0.0,5
20395,21320,5.9999999999999995e-05,5e-05,-2.9999999999999997e-05,0.00026000000000000003,0.0003,5e-05,5e-05,0.0,5
20396,21321,5.9999999999999995e-05,5e-05,-2.9999999999999997e-05,0.00026000000000000003,0.0003,5e-05,5e-05,0.0,5
20397,21322,5.9999999999999995e-05,5e-05,-2.9999999999999997e-05,0.00026000000000000003,0.0003,5e-05,5e-05,0.0,5
20398,21324,5.9999999999999995e-05,5e-05,-2.9999999999999997e-05,0.00026000000000000003,0.0003,5e-05,5e-05,0.0,5
20399,21325,5.9999999999999995e-05,5e-05,-2.9999999999999997e-05,0.00026000000000000003,0.0003,5e-05,5e-05,0.0,5
20400,21326,5.9999999999999995e-05,5e-05,-2.9999999999999997e-05,0.00026000000000000003,0.0003,5e-05,5e-05,0.0,5
20401,21327,5.9999999999999995e-05,5e-05,-2.9999999999999997e-05,0.00026000000000000003,0.0003,5e-05,5e-05,0.0,5
20402,21328,5.9999999999999995e-05,5e-05,-2.9999999999999997e-05,0.00026000000000000003,0.0003,5e-05,5e-05,0.0,5
20403,21329,5.9999999999999995e-05,5e-05,-2.9999999999999997e-05,0.00026000000000000003,0.0003,5e-05,5e-05,0.0,5
20404,21330,-2.9999999999999997e-05,-2.9999999999999997e-05,-0.00011999999999999999,-0.00028,5.9999999999999995e-05,-9e-05,0.0,-2.9999999999999997e-05,5
20405,21331,-2.9999999999999997e-05,-2.9999999999999997e-05,-0.00011999999999999999,-0.00028,5.9999999999999995e-05,-9e-05,0.0,-2.9999999999999997e-05,5
20406,21332,0.00057,7e-05,-5e-05,-0.00044,-0.0006799999999999999,-0.00011999999999999999,-4e-05,5.9999999999999995e-05,5
20407,21333,0.00057,7e-05,-5e-05,-0.00044,-0.0006799999999999999,-0.00011999999999999999,-4e-05,5.9999999999999995e-05,5
20408,21334,0.00057,7e-05,-5e-05,-0.00044,-0.0006799999999999999,-0.00011999999999999999,-4e-05,5.9999999999999995e-05,5
20409,21335,0.00057,7e-05,-5e-05,-0.00044,-0.0006799999999999999,-0.00011999999999999999,-4e-05,5.9999999999999995e-05,5
20410,21336,0.00057,7e-05,-5e-05,-0.00044,-0.0006799999999999999,-0.00011999999999999999,-4e-05,5.9999999999999995e-05,5
20411,21338,0.00057,7e-05,-5e-05,-0.00044,-0.0006799999999999999,-0.00011999999999999999,-4e-05,5.9999999999999995e-05,5
20412,21339,0.00057,7e-05,-5e-05,-0.00044,-0.0006799999999999999,-0.00011999999999999999,-4e-05,5.9999999999999995e-05,5
20413,21340,0.00057,7e-05,-5e-05,-0.00044,-0.0006799999999999999,-0.00011999999999999999,-4e-05,5.9999999999999995e-05,5
20414,21341,0.00057,7e-05,-5e-05,-0.00044,-0.0006799999999999999,-0.00011999999999999999,-4e-05,5.9999999999999995e-05,5
20415,21342,0.00057,7e-05,-5e-05,-0.00044,-0.0006799999999999999,-0.00011999999999999999,-4e-05,5.9999999999999995e-05,5
20416,21343,0.00057,7e-05,-5e-05,-0.00044,-0.0006799999999999999,-0.00011999999999999999,-4e-05,5.9999999999999995e-05,5
20417,21344,-0.00016999999999999999,-7e-05,-0.00018,-0.00045999999999999996,-0.00063,-0.00015,-9e-05,-0.0001,5
20418,21345,-0.00016999999999999999,-7e-05,-0.00018,-0.00045999999999999996,-0.00063,-0.00015,-9e-05,-0.0001,5
20419,21346,-0.00016999999999999999,-7e-05,-0.00018,-0.00045999999999999996,-0.00063,-0.00015,-9e-05,-0.0001,5
20420,21347,-0.00016999999999999999,-7e-05,-0.00018,-0.00045999999999999996,-0.00063,-0.00015,-9e-05,-0.0001,5
20421,21348,-0.00016999999999999999,-7e-05,-0.00018,-0.00045999999999999996,-0.00063,-0.00015,-9e-05,-0.0001,5
20422,21349,-0.00016999999999999999,-7e-05,-0.00018,-0.00045999999999999996,-0.00063,-0.00015,-9e-05,-0.0001,5
20423,21350,-0.00016999999999999999,-7e-05,-0.00018,-0.00045999999999999996,-0.00063,-0.00015,-9e-05,-0.0001,5
20424,21351,-0.00016999999999999999,-7e-05,-0.00018,-0.00045999999999999996,-0.00063,-0.00015,-9e-05,-0.0001,5
20425,21352,-0.00016999999999999999,-7e-05,-0.00018,-0.00045999999999999996,-0.00063,-0.00015,-9e-05,-0.0001,5
20426,21353,0.00035,-0.0001,-0.00028,-0.00029,-0.00029,-5e-05,-4e-05,-1e-05,5
20427,21354,0.00035,-0.0001,-0.00028,-0.00029,-0.00029,-5e-05,-4e-05,-1e-05,5
20428,21355,0.00035,-0.0001,-0.00028,-0.00029,-0.00029,-5e-05,-4e-05,-1e-05,5
20429,21356,0.00035,-0.0001,-0.00028,-0.00029,-0.00029,-5e-05,-4e-05,-1e-05,5
20430,21357,0.00035,-0.0001,-0.00028,-0.00029,-0.00029,-5e-05,-4e-05,-1e-05,5
20431,21358,0.00035,-0.0001,-0.00028,-0.00029,-0.00029,-5e-05,-4e-05,-1e-05,5
20432,21359,0.00035,-0.0001,-0.00028,-0.00029,-0.00029,-5e-05,-4e-05,-1e-05,5
20433,21360,0.00035,-0.0001,-0.00028,-0.00029,-0.00029,-5e-05,-4e-05,-1e-05,5
20434,21361,0.00035,-0.0001,-0.00028,-0.00029,-0.00029,-5e-05,-4e-05,-1e-05,5
20435,21362,0.00035,-0.0001,-0.00028,-0.00029,-0.00029,-5e-05,-4e-05,-1e-05,5
20436,21363,0.00035,-0.0001,-0.00028,-0.00029,-0.00029,-5e-05,-4e-05,-1e-05,5
20437,21364,0.00035,-0.0001,-0.00028,-0.00029,-0.00029,-5e-05,-4e-05,-1e-05,5
20438,21365,0.00035,-0.0001,-0.00028,-0.00029,-0.00029,-5e-05,-4e-05,-1e-05,5
20439,21366,0.00035,-0.0001,-0.00028,-0.00029,-0.00029,-5e-05,-4e-05,-1e-05,5
20440,21367,0.00035,-0.0001,-0.00028,-0.00029,-0.00029,-5e-05,-4e-05,-1e-05,5
20441,21368,0.00042,0.0001,0.00021,0.0007,0.00056,1e-05,5e-05,0.00025,5
20442,21369,0.00042,0.0001,0.00021,0.0007,0.00056,1e-05,5e-05,0.00025,5
20443,21371,-0.00079,-1e-05,-1e-05,-5e-05,-0.00011,-2e-05,0.0,-0.00011,5
20444,21372,-0.00079,-1e-05,-1e-05,-5e-05,-0.00011,-2e-05,0.0,-0.00011,5
20445,21373,-0.00079,-1e-05,-1e-05,-5e-05,-0.00011,-2e-05,0.0,-0.00011,5
20446,21374,-0.00079,-1e-05,-1e-05,-5e-05,-0.00011,-2e-05,0.0,-0.00011,5
20447,21375,-0.00079,-1e-05,-1e-05,-5e-05,-0.00011,-2e-05,0.0,-0.00011,5
20448,21376,-0.00079,-1e-05,-1e-05,-5e-05,-0.00011,-2e-05,0.0,-0.00011,5
20449,21377,-0.00079,-1e-05,-1e-05,-5e-05,-0.00011,-2e-05,0.0,-0.00011,5
20450,21378,-0.00079,-1e-05,-1e-05,-5e-05,-0.00011,-2e-05,0.0,-0.00011,5
20451,21379,-0.00079,-1e-05,-1e-05,-5e-05,-0.00011,-2e-05,0.0,-0.00011,5
20452,21380,-0.00079,-1e-05,-1e-05,-5e-05,-0.00011,-2e-05,0.0,-0.00011,5
20453,21381,-0.00079,-1e-05,-1e-05,-5e-05,-0.00011,-2e-05,0.0,-0.00011,5
20454,21382,-0.00079,-1e-05,-1e-05,-5e-05,-0.00011,-2e-05,0.0,-0.00011,5
20455,21383,-0.00079,-1e-05,-1e-05,-5e-05,-0.00011,-2e-05,0.0,-0.00011,5
20456,21384,-0.00079,-1e-05,-1e-05,-5e-05,-0.00011,-2e-05,0.0,-0.00011,5
20457,21385,-0.00079,-1e-05,-1e-05,-5e-05,-0.00011,-2e-05,0.0,-0.00011,5
20458,21386,-0.00079,-1e-05,-1e-05,-5e-05,-0.00011,-2e-05,0.0,-0.00011,5
20459,21388,-0.00079,-1e-05,-1e-05,-5e-05,-0.00011,-2e-05,0.0,-0.00011,5
20460,21389,-0.00079,-1e-05,-1e-05,-5e-05,-0.00011,-2e-05,0.0,-0.00011,5
20461,21390,-0.00018,-0.00015,-0.00023999999999999998,-0.00022,-0.00063,-2e-05,-4e-05,-5e-05,5
20462,21391,-0.00018,-0.00015,-0.00023999999999999998,-0.00022,-0.00063,-2e-05,-4e-05,-5e-05,5
20463,21392,5.9999999999999995e-05,0.00016999999999999999,0.00033,0.00058,0.00091,0.00016999999999999999,7e-05,-2.9999999999999997e-05,5
20464,21393,5.9999999999999995e-05,0.00016999999999999999,0.00033,0.00058,0.00091,0.00016999999999999999,7e-05,-2.9999999999999997e-05,5
20465,21394,5.9999999999999995e-05,0.00016999999999999999,0.00033,0.00058,0.00091,0.00016999999999999999,7e-05,-2.9999999999999997e-05,5
20466,21395,5.9999999999999995e-05,0.00016999999999999999,0.00033,0.00058,0.00091,0.00016999999999999999,7e-05,-2.9999999999999997e-05,5
20467,21396,5.9999999999999995e-05,0.00016999999999999999,0.00033,0.00058,0.00091,0.00016999999999999999,7e-05,-2.9999999999999997e-05,5
20468,21397,5.9999999999999995e-05,0.00016999999999999999,0.00033,0.00058,0.00091,0.00016999999999999999,7e-05,-2.9999999999999997e-05,5
20469,21398,5.9999999999999995e-05,0.00016999999999999999,0.00033,0.00058,0.00091,0.00016999999999999999,7e-05,-2.9999999999999997e-05,5
20470,21399,5.9999999999999995e-05,0.00016999999999999999,0.00033,0.00058,0.00091,0.00016999999999999999,7e-05,-2.9999999999999997e-05,5
20471,21400,5.9999999999999995e-05,0.00016999999999999999,0.00033,0.00058,0.00091,0.00016999999999999999,7e-05,-2.9999999999999997e-05,5
20472,21401,5.9999999999999995e-05,0.00016999999999999999,0.00033,0.00058,0.00091,0.00016999999999999999,7e-05,-2.9999999999999997e-05,5
20473,21402,5.9999999999999995e-05,0.00016999999999999999,0.00033,0.00058,0.00091,0.00016999999999999999,7e-05,-2.9999999999999997e-05,5
20474,21403,5.9999999999999995e-05,0.00016999999999999999,0.00033,0.00058,0.00091,0.00016999999999999999,7e-05,-2.9999999999999997e-05,5
20475,21404,5.9999999999999995e-05,0.00016999999999999999,0.00033,0.00058,0.00091,0.00016999999999999999,7e-05,-2.9999999999999997e-05,5
20476,21405,5.9999999999999995e-05,0.00016999999999999999,0.00033,0.00058,0.00091,0.00016999999999999999,7e-05,-2.9999999999999997e-05,5
20477,21406,5.9999999999999995e-05,0.00016999999999999999,0.00033,0.00058,0.00091,0.00016999999999999999,7e-05,-2.9999999999999997e-05,5
20478,21407,5.9999999999999995e-05,0.00016999999999999999,0.00033,0.00058,0.00091,0.00016999999999999999,7e-05,-2.9999999999999997e-05,5
20479,21408,5.9999999999999995e-05,0.00016999999999999999,0.00033,0.00058,0.00091,0.00016999999999999999,7e-05,-2.9999999999999997e-05,5
20480,21409,5.9999999999999995e-05,0.00016999999999999999,0.00033,0.00058,0.00091,0.00016999999999999999,7e-05,-2.9999999999999997e-05,5
20481,21410,5.9999999999999995e-05,0.00016999999999999999,0.00033,0.00058,0.00091,0.00016999999999999999,7e-05,-2.9999999999999997e-05,5
20482,21411,5.9999999999999995e-05,0.00016999999999999999,0.00033,0.00058,0.00091,0.00016999999999999999,7e-05,-2.9999999999999997e-05,5
20483,21412,5.9999999999999995e-05,0.00016999999999999999,0.00033,0.00058,0.00091,0.00016999999999999999,7e-05,-2.9999999999999997e-05,5
20484,21413,0.00016,2.9999999999999997e-05,2e-05,-0.00025,-0.00054,-0.00016999999999999999,-7e-05,-0.0002,5
20485,21414,0.00016,2.9999999999999997e-05,2e-05,-0.00025,-0.00054,-0.00016999999999999999,-7e-05,-0.0002,5
20486,21415,-5.9999999999999995e-05,-0.00013000000000000002,-9e-05,-0.0005099999999999999,-0.00082,-9e-05,-5.9999999999999995e-05,-8e-05,5
20487,21417,-5.9999999999999995e-05,-0.00013000000000000002,-9e-05,-0.0005099999999999999,-0.00082,-9e-05,-5.9999999999999995e-05,-8e-05,5
20488,21418,-5.9999999999999995e-05,-0.00013000000000000002,-9e-05,-0.0005099999999999999,-0.00082,-9e-05,-5.9999999999999995e-05,-8e-05,5
20489,21419,-5.9999999999999995e-05,-0.00013000000000000002,-9e-05,-0.0005099999999999999,-0.00082,-9e-05,-5.9999999999999995e-05,-8e-05,5
20490,21420,-5.9999999999999995e-05,-0.00013000000000000002,-9e-05,-0.0005099999999999999,-0.00082,-9e-05,-5.9999999999999995e-05,-8e-05,5
20491,21421,-5.9999999999999995e-05,-0.00013000000000000002,-9e-05,-0.0005099999999999999,-0.00082,-9e-05,-5.9999999999999995e-05,-8e-05,5
20492,21422,-5.9999999999999995e-05,-0.00013000000000000002,-9e-05,-0.0005099999999999999,-0.00082,-9e-05,-5.9999999999999995e-05,-8e-05,5
20493,21423,-5.9999999999999995e-05,-0.00013000000000000002,-9e-05,-0.0005099999999999999,-0.00082,-9e-05,-5.9999999999999995e-05,-8e-05,5
20494,21424,-5.9999999999999995e-05,-0.00013000000000000002,-9e-05,-0.0005099999999999999,-0.00082,-9e-05,-5.9999999999999995e-05,-8e-05,5
20495,21425,-5.9999999999999995e-05,-0.00013000000000000002,-9e-05,-0.0005099999999999999,-0.00082,-9e-05,-5.9999999999999995e-05,-8e-05,5
20496,21426,-5.9999999999999995e-05,-0.00013000000000000002,-9e-05,-0.0005099999999999999,-0.00082,-9e-05,-5.9999999999999995e-05,-8e-05,5
20497,21427,-5.9999999999999995e-05,-0.00013000000000000002,-9e-05,-0.0005099999999999999,-0.00082,-9e-05,-5.9999999999999995e-05,-8e-05,5
20498,21428,-0.00047000000000000004,-0.00016999999999999999,-0.00011,-0.00022999999999999998,-0.00023999999999999998,-0.00011999999999999999,-7e-05,-0.00021,5
20499,21429,-0.00047000000000000004,-0.00016999999999999999,-0.00011,-0.00022999999999999998,-0.00023999999999999998,-0.00011999999999999999,-7e-05,-0.00021,5
20500,21430,-0.0005200000000000001,-0.00018999999999999998,-0.00011999999999999999,-5.9999999999999995e-05,-0.00013000000000000002,-4e-05,-2.9999999999999997e-05,-2.9999999999999997e-05,5
20501,21431,-0.0005200000000000001,-0.00018999999999999998,-0.00011999999999999999,-5.9999999999999995e-05,-0.00013000000000000002,-4e-05,-2.9999999999999997e-05,-2.9999999999999997e-05,5
20502,21432,-0.0005200000000000001,-0.00018999999999999998,-0.00011999999999999999,-5.9999999999999995e-05,-0.00013000000000000002,-4e-05,-2.9999999999999997e-05,-2.9999999999999997e-05,5
20503,21433,-0.0005200000000000001,-0.00018999999999999998,-0.00011999999999999999,-5.9999999999999995e-05,-0.00013000000000000002,-4e-05,-2.9999999999999997e-05,-2.9999999999999997e-05,5
20504,21434,-0.0005200000000000001,-0.00018999999999999998,-0.00011999999999999999,-5.9999999999999995e-05,-0.00013000000000000002,-4e-05,-2.9999999999999997e-05,-2.9999999999999997e-05,5
20505,21435,-0.0005200000000000001,-0.00018999999999999998,-0.00011999999999999999,-5.9999999999999995e-05,-0.00013000000000000002,-4e-05,-2.9999999999999997e-05,-2.9999999999999997e-05,5
20506,21436,-0.0005200000000000001,-0.00018999999999999998,-0.00011999999999999999,-5.9999999999999995e-05,-0.00013000000000000002,-4e-05,-2.9999999999999997e-05,-2.9999999999999997e-05,5
20507,21437,-0.0005200000000000001,-0.00018999999999999998,-0.00011999999999999999,-5.9999999999999995e-05,-0.00013000000000000002,-4e-05,-2.9999999999999997e-05,-2.9999999999999997e-05,5
20508,21438,-0.0005200000000000001,-0.00018999999999999998,-0.00011999999999999999,-5.9999999999999995e-05,-0.00013000000000000002,-4e-05,-2.9999999999999997e-05,-2.9999999999999997e-05,5
20509,21439,-0.0005200000000000001,-0.00018999999999999998,-0.00011999999999999999,-5.9999999999999995e-05,-0.00013000000000000002,-4e-05,-2.9999999999999997e-05,-2.9999999999999997e-05,5
20510,21440,-0.0005200000000000001,-0.00018999999999999998,-0.00011999999999999999,-5.9999999999999995e-05,-0.00013000000000000002,-4e-05,-2.9999999999999997e-05,-2.9999999999999997e-05,5
20511,21441,-0.0005200000000000001,-0.00018999999999999998,-0.00011999999999999999,-5.9999999999999995e-05,-0.00013000000000000002,-4e-05,-2.9999999999999997e-05,-2.9999999999999997e-05,5
20512,21442,-0.0005200000000000001,-0.00018999999999999998,-0.00011999999999999999,-5.9999999999999995e-05,-0.00013000000000000002,-4e-05,-2.9999999999999997e-05,-2.9999999999999997e-05,5
20513,21444,-0.0005200000000000001,-0.00018999999999999998,-0.00011999999999999999,-5.9999999999999995e-05,-0.00013000000000000002,-4e-05,-2.9999999999999997e-05,-2.9999999999999997e-05,5
20514,21445,-0.0005200000000000001,-0.00018999999999999998,-0.00011999999999999999,-5.9999999999999995e-05,-0.00013000000000000002,-4e-05,-2.9999999999999997e-05,-2.9999999999999997e-05,5
20515,21446,-0.0005200000000000001,-0.00018999999999999998,-0.00011999999999999999,-5.9999999999999995e-05,-0.00013000000000000002,-4e-05,-2.9999999999999997e-05,-2.9999999999999997e-05,5
20516,21447,-0.0005200000000000001,-0.00018999999999999998,-0.00011999999999999999,-5.9999999999999995e-05,-0.00013000000000000002,-4e-05,-2.9999999999999997e-05,-2.9999999999999997e-05,5
20517,21448,-0.0005200000000000001,-0.00018999999999999998,-0.00011999999999999999,-5.9999999999999995e-05,-0.00013000000000000002,-4e-05,-2.9999999999999997e-05,-2.9999999999999997e-05,5
20518,21449,-0.0005200000000000001,-0.00018999999999999998,-0.00011999999999999999,-5.9999999999999995e-05,-0.00013000000000000002,-4e-05,-2.9999999999999997e-05,-2.9999999999999997e-05,5
20519,21450,2.9999999999999997e-05,-0.00016999999999999999,-0.00042,5.9999999999999995e-05,0.00056,0.00018999999999999998,1e-05,8e-05,5
20520,21451,2.9999999999999997e-05,-0.00016999999999999999,-0.00042,5.9999999999999995e-05,0.00056,0.00018999999999999998,1e-05,8e-05,5
20521,21452,0.00031,-0.00018,-0.00029,-0.00042,-0.00036,-4e-05,-2.9999999999999997e-05,0.00011999999999999999,5
20522,21453,0.00031,-0.00018,-0.00029,-0.00042,-0.00036,-4e-05,-2.9999999999999997e-05,0.00011999999999999999,5
20523,21454,0.00031,-0.00018,-0.00029,-0.00042,-0.00036,-4e-05,-2.9999999999999997e-05,0.00011999999999999999,5
20524,21455,0.00031,-0.00018,-0.00029,-0.00042,-0.00036,-4e-05,-2.9999999999999997e-05,0.00011999999999999999,5
20525,21456,0.00031,-0.00018,-0.00029,-0.00042,-0.00036,-4e-05,-2.9999999999999997e-05,0.00011999999999999999,5
20526,21457,0.00031,-0.00018,-0.00029,-0.00042,-0.00036,-4e-05,-2.9999999999999997e-05,0.00011999999999999999,5
20527,21458,0.00031,-0.00018,-0.00029,-0.00042,-0.00036,-4e-05,-2.9999999999999997e-05,0.00011999999999999999,5
20528,21459,0.00031,-0.00018,-0.00029,-0.00042,-0.00036,-4e-05,-2.9999999999999997e-05,0.00011999999999999999,5
20529,21460,0.00031,-0.00018,-0.00029,-0.00042,-0.00036,-4e-05,-2.9999999999999997e-05,0.00011999999999999999,5
