,time,channel1,channel2,channel3,channel4,channel5,channel6,channel7,channel8,class
19682,20592,-0.00025,-0.00031,-0.00026000000000000003,-0.00023999999999999998,4e-05,0.00037999999999999997,0.00013000000000000002,0.00011,5
19683,20593,-0.00025,-0.00031,-0.00026000000000000003,-0.00023999999999999998,4e-05,0.00037999999999999997,0.00013000000000000002,0.00011,5
19684,20594,-0.00025,-0.00031,-0.00026000000000000003,-0.00023999999999999998,4e-05,0.00037999999999999997,0.00013000000000000002,0.00011,5
19685,20595,-0.00025,-0.00031,-0.00026000000000000003,-0.00023999999999999998,4e-05,0.00037999999999999997,0.00013000000000000002,0.00011,5
19686,20596,-0.00025,-0.00031,-0.00026000000000000003,-0.00023999999999999998,4e-05,0.00037999999999999997,0.00013000000000000002,0.00011,5
19687,20597,-0.00025,-0.00031,-0.00026000000000000003,-0.00023999999999999998,4e-05,0.00037999999999999997,0.00013000000000000002,0.00011,5
19688,20598,-0.00025,-0.00031,-0.00026000000000000003,-0.00023999999999999998,4e-05,0.00037999999999999997,0.00013000000000000002,0.00011,5
19689,20599,-0.00025,-0.00031,-0.00026000000000000003,-0.00023999999999999998,4e-05,0.00037999999999999997,0.00013000000000000002,0.00011,5
19690,20600,-0.00025,-0.00031,-0.00026000000000000003,-0.00023999999999999998,4e-05,0.00037999999999999997,0.00013000000000000002,0.00011,5
19691,20601,-0.00025,-0.00031,-0.00026000000000000003,-0.00023999999999999998,4e-05,0.00037999999999999997,0.00013000000000000002,0.00011,5
19692,20602,-0.00025,-0.00031,-0.00026000000000000003,-0.00023999999999999998,4e-05,0.00037999999999999997,0.00013000000000000002,0.00011,5
19693,20603,-0.00025,-0.00031,-0.00026000000000000003,-0.00023999999999999998,4e-05,0.00037999999999999997,0.00013000000000000002,0.00011,5
19694,20604,0.00013000000000000002,0.00013000000000000002,5e-05,0.00027,0.0003,-9e-05,4e-05,-0.00018,5
19695,20605,8e-05,9e-05,0.0,-0.00022,-0.00044,-0.00016,-0.00013000000000000002,-0.00013000000000000002,5
19696,20606,8e-05,9e-05,0.0,-0.00022,-0.00044,-0.00016,-0.00013000000000000002,-0.00013000000000000002,5
19697,20607,8e-05,9e-05,0.0,-0.00022,-0.00044,-0.00016,-0.00013000000000000002,-0.00013000000000000002,5
19698,20608,8e-05,9e-05,0.0,-0.00022,-0.00044,-0.00016,-0.00013000000000000002,-0.00013000000000000002,5
19699,20609,8e-05,9e-05,0.0,-0.00022,-0.00044,-0.00016,-0.00013000000000000002,-0.00013000000000000002,5
19700,20610,8e-05,9e-05,0.0,-0.00022,-0.00044,-0.00016,-0.00013000000000000002,-0.00013000000000000002,5
19701,20611,8e-05,9e-05,0.0,-0.00022,-0.00044,-0.00016,-0.00013000000000000002,-0.00013000000000000002,5
19702,20612,8e-05,9e-05,0.0,-0.00022,-0.00044,-0.00016,-0.00013000000000000002,-0.00013000000000000002,5
19703,20613,8e-05,9e-05,0.0,-0.00022,-0.00044,-0.00016,-0.00013000000000000002,-0.00013000000000000002,5
19704,20614,8e-05,9e-05,0.0,-0.00022,-0.00044,-0.00016,-0.00013000000000000002,-0.00013000000000000002,5
19705,20615,8e-05,9e-05,0.0,-0.00022,-0.00044,-0.00016,-0.00013000000000000002,-0.00013000000000000002,5
19706,20616,8e-05,9e-05,0.0,-0.00022,-0.00044,-0.00016,-0.00013000000000000002,-0.00013000000000000002,5
19707,20617,8e-05,9e-05,0.0,-0.00022,-0.00044,-0.00016,-0.00013000000000000002,-0.00013000000000000002,5
19708,20618,8e-05,9e-05,0.0,-0.00022,-0.00044,-0.00016,-0.00013000000000000002,-0.00013000000000000002,5
19709,20619,8e-05,9e-05,0.0,-0.00022,-0.00044,-0.00016,-0.00013000000000000002,-0.00013000000000000002,5
19710,20620,8e-05,9e-05,0.0,-0.00022,-0.00044,-0.00016,-0.00013000000000000002,-0.00013000000000000002,5
19711,20621,8e-05,9e-05,0.0,-0.00022,-0.00044,-0.00016,-0.00013000000000000002,-0.00013000000000000002,5
19712,20622,8e-05,9e-05,0.0,-0.00022,-0.00044,-0.00016,-0.00013000000000000002,-0.00013000000000000002,5
19713,20623,8e-05,9e-05,0.0,-0.00022,-0.00044,-0.00016,-0.00013000000000000002,-0.00013000000000000002,5
19714,20624,8e-05,9e-05,0.0,-0.00022,-0.00044,-0.00016,-0.00013000000000000002,-0.00013000000000000002,5
19715,20625,8e-05,9e-05,0.0,-0.00022,-0.00044,-0.00016,-0.00013000000000000002,-0.00013000000000000002,5
19716,20626,8e-05,9e-05,0.0,-0.00022,-0.00044,-0.00016,-0.00013000000000000002,-0.00013000000000000002,5
19717,20627,1e-05,-7e-05,-0.00013000000000000002,-0.00055,0.00013000000000000002,0.00022999999999999998,0.00011999999999999999,5e-05,5
19718,20628,0.0,0.0001,0.00014,0.00015,-2e-05,1e-05,2e-05,2.9999999999999997e-05,5
19719,20629,0.0,0.0001,0.00014,0.00015,-2e-05,1e-05,2e-05,2.9999999999999997e-05,5
19720,20630,0.0,0.0001,0.00014,0.00015,-2e-05,1e-05,2e-05,2.9999999999999997e-05,5
19721,20631,0.0,0.0001,0.00014,0.00015,-2e-05,1e-05,2e-05,2.9999999999999997e-05,5
19722,20632,0.0,0.0001,0.00014,0.00015,-2e-05,1e-05,2e-05,2.9999999999999997e-05,5
19723,20633,0.0,0.0001,0.00014,0.00015,-2e-05,1e-05,2e-05,2.9999999999999997e-05,5
19724,20634,0.0,0.0001,0.00014,0.00015,-2e-05,1e-05,2e-05,2.9999999999999997e-05,5
19725,20635,0.0,0.0001,0.00014,0.00015,-2e-05,1e-05,2e-05,2.9999999999999997e-05,5
19726,20636,0.0,0.0001,0.00014,0.00015,-2e-05,1e-05,2e-05,2.9999999999999997e-05,5
19727,20638,0.0,0.0001,0.00014,0.00015,-2e-05,1e-05,2e-05,2.9999999999999997e-05,5
19728,20639,0.0,0.0001,0.00014,0.00015,-2e-05,1e-05,2e-05,2.9999999999999997e-05,5
19729,20640,0.0,0.0001,0.00014,0.00015,-2e-05,1e-05,2e-05,2.9999999999999997e-05,5
19730,20641,0.0,0.0001,0.00014,0.00015,-2e-05,1e-05,2e-05,2.9999999999999997e-05,5
19731,20642,0.0,0.0001,0.00014,0.00015,-2e-05,1e-05,2e-05,2.9999999999999997e-05,5
19732,20643,0.0,0.0001,0.00014,0.00015,-2e-05,1e-05,2e-05,2.9999999999999997e-05,5
19733,20644,0.0,0.0001,0.00014,0.00015,-2e-05,1e-05,2e-05,2.9999999999999997e-05,5
19734,20645,0.0,0.0001,0.00014,0.00015,-2e-05,1e-05,2e-05,2.9999999999999997e-05,5
19735,20646,0.0,0.0001,0.00014,0.00015,-2e-05,1e-05,2e-05,2.9999999999999997e-05,5
19736,20647,0.0,0.0001,0.00014,0.00015,-2e-05,1e-05,2e-05,2.9999999999999997e-05,5
19737,20648,0.0,0.0001,0.00014,0.00015,-2e-05,1e-05,2e-05,2.9999999999999997e-05,5
19738,20649,-5.9999999999999995e-05,0.0,-7e-05,-0.00039,-0.00039,-0.00026000000000000003,-0.00016,-0.00018999999999999998,5
19739,20650,-1e-05,0.0,2e-05,0.00026000000000000003,-0.0003,-0.00016999999999999999,-7e-05,-9e-05,5
19740,20651,-1e-05,0.0,2e-05,0.00026000000000000003,-0.0003,-0.00016999999999999999,-7e-05,-9e-05,5
19741,20652,-1e-05,0.0,2e-05,0.00026000000000000003,-0.0003,-0.00016999999999999999,-7e-05,-9e-05,5
19742,20653,-1e-05,0.0,2e-05,0.00026000000000000003,-0.0003,-0.00016999999999999999,-7e-05,-9e-05,5
19743,20654,-1e-05,0.0,2e-05,0.00026000000000000003,-0.0003,-0.00016999999999999999,-7e-05,-9e-05,5
19744,20655,-1e-05,0.0,2e-05,0.00026000000000000003,-0.0003,-0.00016999999999999999,-7e-05,-9e-05,5
19745,20656,-1e-05,0.0,2e-05,0.00026000000000000003,-0.0003,-0.00016999999999999999,-7e-05,-9e-05,5
19746,20657,-1e-05,0.0,2e-05,0.00026000000000000003,-0.0003,-0.00016999999999999999,-7e-05,-9e-05,5
19747,20658,-1e-05,0.0,2e-05,0.00026000000000000003,-0.0003,-0.00016999999999999999,-7e-05,-9e-05,5
19748,20659,-1e-05,0.0,2e-05,0.00026000000000000003,-0.0003,-0.00016999999999999999,-7e-05,-9e-05,5
19749,20660,-1e-05,0.0,2e-05,0.00026000000000000003,-0.0003,-0.00016999999999999999,-7e-05,-9e-05,5
19750,20661,-1e-05,0.0,2e-05,0.00026000000000000003,-0.0003,-0.00016999999999999999,-7e-05,-9e-05,5
19751,20662,-1e-05,0.0,2e-05,0.00026000000000000003,-0.0003,-0.00016999999999999999,-7e-05,-9e-05,5
19752,20663,-1e-05,0.0,2e-05,0.00026000000000000003,-0.0003,-0.00016999999999999999,-7e-05,-9e-05,5
19753,20664,-1e-05,0.0,2e-05,0.00026000000000000003,-0.0003,-0.00016999999999999999,-7e-05,-9e-05,5
19754,20665,-1e-05,0.0,2e-05,0.00026000000000000003,-0.0003,-0.00016999999999999999,-7e-05,-9e-05,5
19755,20666,-1e-05,0.0,2e-05,0.00026000000000000003,-0.0003,-0.00016999999999999999,-7e-05,-9e-05,5
19756,20667,-1e-05,0.0,2e-05,0.00026000000000000003,-0.0003,-0.00016999999999999999,-7e-05,-9e-05,5
19757,20668,-1e-05,0.0,2e-05,0.00026000000000000003,-0.0003,-0.00016999999999999999,-7e-05,-9e-05,5
19758,20669,-1e-05,0.0,2e-05,0.00026000000000000003,-0.0003,-0.00016999999999999999,-7e-05,-9e-05,5
19759,20670,-1e-05,0.0,2e-05,0.00026000000000000003,-0.0003,-0.00016999999999999999,-7e-05,-9e-05,5
19760,20671,-1e-05,0.0,2e-05,0.00026000000000000003,-0.0003,-0.00016999999999999999,-7e-05,-9e-05,5
19761,20672,-1e-05,0.0,2e-05,0.00026000000000000003,-0.0003,-0.00016999999999999999,-7e-05,-9e-05,5
19762,20673,-0.00022999999999999998,-0.00016,7e-05,-7e-05,-0.00015,4e-05,0.0,-7e-05,5
19763,20674,5.9999999999999995e-05,4e-05,-8e-05,-0.00033,-0.00022,-2.9999999999999997e-05,-1e-05,2e-05,5
19764,20675,5.9999999999999995e-05,4e-05,-8e-05,-0.00033,-0.00022,-2.9999999999999997e-05,-1e-05,2e-05,5
19765,20676,5.9999999999999995e-05,4e-05,-8e-05,-0.00033,-0.00022,-2.9999999999999997e-05,-1e-05,2e-05,5
19766,20677,5.9999999999999995e-05,4e-05,-8e-05,-0.00033,-0.00022,-2.9999999999999997e-05,-1e-05,2e-05,5
19767,20678,5.9999999999999995e-05,4e-05,-8e-05,-0.00033,-0.00022,-2.9999999999999997e-05,-1e-05,2e-05,5
19768,20679,5.9999999999999995e-05,4e-05,-8e-05,-0.00033,-0.00022,-2.9999999999999997e-05,-1e-05,2e-05,5
19769,20680,5.9999999999999995e-05,4e-05,-8e-05,-0.00033,-0.00022,-2.9999999999999997e-05,-1e-05,2e-05,5
19770,20681,5.9999999999999995e-05,4e-05,-8e-05,-0.00033,-0.00022,-2.9999999999999997e-05,-1e-05,2e-05,5
19771,20682,5.9999999999999995e-05,4e-05,-8e-05,-0.00033,-0.00022,-2.9999999999999997e-05,-1e-05,2e-05,5
19772,20683,5.9999999999999995e-05,4e-05,-8e-05,-0.00033,-0.00022,-2.9999999999999997e-05,-1e-05,2e-05,5
19773,20684,5.9999999999999995e-05,4e-05,-8e-05,-0.00033,-0.00022,-2.9999999999999997e-05,-1e-05,2e-05,5
19774,20685,5.9999999999999995e-05,4e-05,-8e-05,-0.00033,-0.00022,-2.9999999999999997e-05,-1e-05,2e-05,5
19775,20686,5.9999999999999995e-05,4e-05,-8e-05,-0.00033,-0.00022,-2.9999999999999997e-05,-1e-05,2e-05,5
19776,20688,-4e-05,-2e-05,1e-05,0.00044,-0.00018999999999999998,-9e-05,-2.9999999999999997e-05,-8e-05,5
19777,20690,-4e-05,-2e-05,1e-05,0.00044,-0.00018999999999999998,-9e-05,-2.9999999999999997e-05,-8e-05,5
19778,20691,-4e-05,-2e-05,1e-05,0.00044,-0.00018999999999999998,-9e-05,-2.9999999999999997e-05,-8e-05,5
19779,20692,-4e-05,-2e-05,1e-05,0.00044,-0.00018999999999999998,-9e-05,-2.9999999999999997e-05,-8e-05,5
19780,20693,-4e-05,-2e-05,1e-05,0.00044,-0.00018999999999999998,-9e-05,-2.9999999999999997e-05,-8e-05,5
19781,20694,-4e-05,-2e-05,1e-05,0.00044,-0.00018999999999999998,-9e-05,-2.9999999999999997e-05,-8e-05,5
19782,20695,-4e-05,-2e-05,1e-05,0.00044,-0.00018999999999999998,-9e-05,-2.9999999999999997e-05,-8e-05,5
19783,20696,-4e-05,-2e-05,1e-05,0.00044,-0.00018999999999999998,-9e-05,-2.9999999999999997e-05,-8e-05,5
19784,20697,-4e-05,-2e-05,1e-05,0.00044,-0.00018999999999999998,-9e-05,-2.9999999999999997e-05,-8e-05,5
19785,20698,-4e-05,-2e-05,1e-05,0.00044,-0.00018999999999999998,-9e-05,-2.9999999999999997e-05,-8e-05,5
19786,20699,-4e-05,-2e-05,1e-05,0.00044,-0.00018999999999999998,-9e-05,-2.9999999999999997e-05,-8e-05,5
19787,20700,-4e-05,-2e-05,1e-05,0.00044,-0.00018999999999999998,-9e-05,-2.9999999999999997e-05,-8e-05,5
19788,20701,-4e-05,-2e-05,1e-05,0.00044,-0.00018999999999999998,-9e-05,-2.9999999999999997e-05,-8e-05,5
19789,20702,-4e-05,-2e-05,1e-05,0.00044,-0.00018999999999999998,-9e-05,-2.9999999999999997e-05,-8e-05,5
19790,20703,-4e-05,-2e-05,1e-05,0.00044,-0.00018999999999999998,-9e-05,-2.9999999999999997e-05,-8e-05,5
19791,20704,-4e-05,-2e-05,1e-05,0.00044,-0.00018999999999999998,-9e-05,-2.9999999999999997e-05,-8e-05,5
19792,20705,-4e-05,-2e-05,1e-05,0.00044,-0.00018999999999999998,-9e-05,-2.9999999999999997e-05,-8e-05,5
19793,20706,-4e-05,-2e-05,1e-05,0.00044,-0.00018999999999999998,-9e-05,-2.9999999999999997e-05,-8e-05,5
19794,20707,-4e-05,-2e-05,1e-05,0.00044,-0.00018999999999999998,-9e-05,-2.9999999999999997e-05,-8e-05,5
19795,20708,-4e-05,-2e-05,1e-05,0.00044,-0.00018999999999999998,-9e-05,-2.9999999999999997e-05,-8e-05,5
19796,20709,-4e-05,-2e-05,1e-05,0.00044,-0.00018999999999999998,-9e-05,-2.9999999999999997e-05,-8e-05,5
19797,20710,1e-05,0.00011,-0.00015,-0.0003,-4e-05,-0.00016999999999999999,-4e-05,0.00011,5
19798,20711,2e-05,-1e-05,-7e-05,-0.00016,-0.0004,-0.00014,-2.9999999999999997e-05,5.9999999999999995e-05,5
19799,20712,2e-05,-1e-05,-7e-05,-0.00016,-0.0004,-0.00014,-2.9999999999999997e-05,5.9999999999999995e-05,5
19800,20713,2e-05,-1e-05,-7e-05,-0.00016,-0.0004,-0.00014,-2.9999999999999997e-05,5.9999999999999995e-05,5
19801,20714,2e-05,-1e-05,-7e-05,-0.00016,-0.0004,-0.00014,-2.9999999999999997e-05,5.9999999999999995e-05,5
19802,20715,2e-05,-1e-05,-7e-05,-0.00016,-0.0004,-0.00014,-2.9999999999999997e-05,5.9999999999999995e-05,5
19803,20716,2e-05,-1e-05,-7e-05,-0.00016,-0.0004,-0.00014,-2.9999999999999997e-05,5.9999999999999995e-05,5
19804,20717,2e-05,-1e-05,-7e-05,-0.00016,-0.0004,-0.00014,-2.9999999999999997e-05,5.9999999999999995e-05,5
19805,20718,2e-05,-1e-05,-7e-05,-0.00016,-0.0004,-0.00014,-2.9999999999999997e-05,5.9999999999999995e-05,5
19806,20719,2e-05,-1e-05,-7e-05,-0.00016,-0.0004,-0.00014,-2.9999999999999997e-05,5.9999999999999995e-05,5
19807,20720,2e-05,-1e-05,-7e-05,-0.00016,-0.0004,-0.00014,-2.9999999999999997e-05,5.9999999999999995e-05,5
19808,20721,2e-05,-1e-05,-7e-05,-0.00016,-0.0004,-0.00014,-2.9999999999999997e-05,5.9999999999999995e-05,5
19809,20722,2e-05,-1e-05,-7e-05,-0.00016,-0.0004,-0.00014,-2.9999999999999997e-05,5.9999999999999995e-05,5
19810,20723,2e-05,-1e-05,-7e-05,-0.00016,-0.0004,-0.00014,-2.9999999999999997e-05,5.9999999999999995e-05,5
19811,20724,2e-05,-1e-05,-7e-05,-0.00016,-0.0004,-0.00014,-2.9999999999999997e-05,5.9999999999999995e-05,5
19812,20725,2e-05,-1e-05,-7e-05,-0.00016,-0.0004,-0.00014,-2.9999999999999997e-05,5.9999999999999995e-05,5
19813,20726,2e-05,-1e-05,-7e-05,-0.00016,-0.0004,-0.00014,-2.9999999999999997e-05,5.9999999999999995e-05,5
19814,20727,2e-05,-1e-05,-7e-05,-0.00016,-0.0004,-0.00014,-2.9999999999999997e-05,5.9999999999999995e-05,5
19815,20728,2e-05,-1e-05,-7e-05,-0.00016,-0.0004,-0.00014,-2.9999999999999997e-05,5.9999999999999995e-05,5
19816,20729,2e-05,-1e-05,-7e-05,-0.00016,-0.0004,-0.00014,-2.9999999999999997e-05,5.9999999999999995e-05,5
19817,20730,2e-05,-1e-05,-7e-05,-0.00016,-0.0004,-0.00014,-2.9999999999999997e-05,5.9999999999999995e-05,5
19818,20731,2e-05,-1e-05,-7e-05,-0.00016,-0.0004,-0.00014,-2.9999999999999997e-05,5.9999999999999995e-05,5
19819,20732,2e-05,-1e-05,-7e-05,-0.00016,-0.0004,-0.00014,-2.9999999999999997e-05,5.9999999999999995e-05,5
19820,20733,7e-05,0.0,-0.00011,-0.0005099999999999999,0.0001,7e-05,5.9999999999999995e-05,4e-05,5
19821,20734,7e-05,0.0,-0.00011,-0.0005099999999999999,0.0001,7e-05,5.9999999999999995e-05,4e-05,5
19822,20735,7e-05,0.0,-0.00011,-0.0005099999999999999,0.0001,7e-05,5.9999999999999995e-05,4e-05,5
19823,20736,7e-05,0.0,-0.00011,-0.0005099999999999999,0.0001,7e-05,5.9999999999999995e-05,4e-05,5
19824,20738,7e-05,0.0,-0.00011,-0.0005099999999999999,0.0001,7e-05,5.9999999999999995e-05,4e-05,5
19825,20739,7e-05,0.0,-0.00011,-0.0005099999999999999,0.0001,7e-05,5.9999999999999995e-05,4e-05,5
19826,20740,7e-05,0.0,-0.00011,-0.0005099999999999999,0.0001,7e-05,5.9999999999999995e-05,4e-05,5
19827,20741,7e-05,0.0,-0.00011,-0.0005099999999999999,0.0001,7e-05,5.9999999999999995e-05,4e-05,5
19828,20742,7e-05,0.0,-0.00011,-0.0005099999999999999,0.0001,7e-05,5.9999999999999995e-05,4e-05,5
19829,20743,7e-05,0.0,-0.00011,-0.0005099999999999999,0.0001,7e-05,5.9999999999999995e-05,4e-05,5
19830,20744,7e-05,0.0,-0.00011,-0.0005099999999999999,0.0001,7e-05,5.9999999999999995e-05,4e-05,5
19831,20745,7e-05,0.0,-0.00011,-0.0005099999999999999,0.0001,7e-05,5.9999999999999995e-05,4e-05,5
19832,20746,7e-05,0.0,-0.00011,-0.0005099999999999999,0.0001,7e-05,5.9999999999999995e-05,4e-05,5
19833,20747,-7e-05,4e-05,-8e-05,-0.00015,-0.00032,-0.0003,-0.0001,-5e-05,5
19834,20748,0.0,-7e-05,0.00011999999999999999,4e-05,0.00016999999999999999,5.9999999999999995e-05,2.9999999999999997e-05,-2.9999999999999997e-05,5
19835,20749,0.0,-7e-05,0.00011999999999999999,4e-05,0.00016999999999999999,5.9999999999999995e-05,2.9999999999999997e-05,-2.9999999999999997e-05,5
19836,20750,0.0,-7e-05,0.00011999999999999999,4e-05,0.00016999999999999999,5.9999999999999995e-05,2.9999999999999997e-05,-2.9999999999999997e-05,5
19837,20751,0.0,-7e-05,0.00011999999999999999,4e-05,0.00016999999999999999,5.9999999999999995e-05,2.9999999999999997e-05,-2.9999999999999997e-05,5
19838,20752,0.0,-7e-05,0.00011999999999999999,4e-05,0.00016999999999999999,5.9999999999999995e-05,2.9999999999999997e-05,-2.9999999999999997e-05,5
19839,20753,0.0,-7e-05,0.00011999999999999999,4e-05,0.00016999999999999999,5.9999999999999995e-05,2.9999999999999997e-05,-2.9999999999999997e-05,5
19840,20754,0.0,-7e-05,0.00011999999999999999,4e-05,0.00016999999999999999,5.9999999999999995e-05,2.9999999999999997e-05,-2.9999999999999997e-05,5
19841,20755,0.0,-7e-05,0.00011999999999999999,4e-05,0.00016999999999999999,5.9999999999999995e-05,2.9999999999999997e-05,-2.9999999999999997e-05,5
19842,20756,0.0,-7e-05,0.00011999999999999999,4e-05,0.00016999999999999999,5.9999999999999995e-05,2.9999999999999997e-05,-2.9999999999999997e-05,5
19843,20757,0.0,-7e-05,0.00011999999999999999,4e-05,0.00016999999999999999,5.9999999999999995e-05,2.9999999999999997e-05,-2.9999999999999997e-05,5
19844,20758,0.0,-7e-05,0.00011999999999999999,4e-05,0.00016999999999999999,5.9999999999999995e-05,2.9999999999999997e-05,-2.9999999999999997e-05,5
19845,20759,0.0,-7e-05,0.00011999999999999999,4e-05,0.00016999999999999999,5.9999999999999995e-05,2.9999999999999997e-05,-2.9999999999999997e-05,5
19846,20760,0.0,-7e-05,0.00011999999999999999,4e-05,0.00016999999999999999,5.9999999999999995e-05,2.9999999999999997e-05,-2.9999999999999997e-05,5
19847,20761,0.0,-7e-05,0.00011999999999999999,4e-05,0.00016999999999999999,5.9999999999999995e-05,2.9999999999999997e-05,-2.9999999999999997e-05,5
19848,20762,0.0,-7e-05,0.00011999999999999999,4e-05,0.00016999999999999999,5.9999999999999995e-05,2.9999999999999997e-05,-2.9999999999999997e-05,5
19849,20763,0.0,-7e-05,0.00011999999999999999,4e-05,0.00016999999999999999,5.9999999999999995e-05,2.9999999999999997e-05,-2.9999999999999997e-05,5
19850,20764,0.0,-7e-05,0.00011999999999999999,4e-05,0.00016999999999999999,5.9999999999999995e-05,2.9999999999999997e-05,-2.9999999999999997e-05,5
19851,20765,0.0,-7e-05,0.00011999999999999999,4e-05,0.00016999999999999999,5.9999999999999995e-05,2.9999999999999997e-05,-2.9999999999999997e-05,5
19852,20766,0.0,-7e-05,0.00011999999999999999,4e-05,0.00016999999999999999,5.9999999999999995e-05,2.9999999999999997e-05,-2.9999999999999997e-05,5
19853,20767,0.0,-7e-05,0.00011999999999999999,4e-05,0.00016999999999999999,5.9999999999999995e-05,2.9999999999999997e-05,-2.9999999999999997e-05,5
19854,20768,0.0,-7e-05,0.00011999999999999999,4e-05,0.00016999999999999999,5.9999999999999995e-05,2.9999999999999997e-05,-2.9999999999999997e-05,5
19855,20769,0.00032,0.0002,0.00013000000000000002,0.00047000000000000004,0.00022,0.00022999999999999998,5.9999999999999995e-05,2e-05,5
19856,20770,0.00011999999999999999,9e-05,-4e-05,0.00065,0.00049,5.9999999999999995e-05,0.0,-5.9999999999999995e-05,5
19857,20771,0.00011999999999999999,9e-05,-4e-05,0.00065,0.00049,5.9999999999999995e-05,0.0,-5.9999999999999995e-05,5
19858,20772,0.00011999999999999999,9e-05,-4e-05,0.00065,0.00049,5.9999999999999995e-05,0.0,-5.9999999999999995e-05,5
19859,20773,0.00011999999999999999,9e-05,-4e-05,0.00065,0.00049,5.9999999999999995e-05,0.0,-5.9999999999999995e-05,5
19860,20774,0.00011999999999999999,9e-05,-4e-05,0.00065,0.00049,5.9999999999999995e-05,0.0,-5.9999999999999995e-05,5
19861,20775,0.00011999999999999999,9e-05,-4e-05,0.00065,0.00049,5.9999999999999995e-05,0.0,-5.9999999999999995e-05,5
19862,20776,0.00011999999999999999,9e-05,-4e-05,0.00065,0.00049,5.9999999999999995e-05,0.0,-5.9999999999999995e-05,5
19863,20777,0.00011999999999999999,9e-05,-4e-05,0.00065,0.00049,5.9999999999999995e-05,0.0,-5.9999999999999995e-05,5
19864,20778,0.00011999999999999999,9e-05,-4e-05,0.00065,0.00049,5.9999999999999995e-05,0.0,-5.9999999999999995e-05,5
19865,20779,0.00011999999999999999,9e-05,-4e-05,0.00065,0.00049,5.9999999999999995e-05,0.0,-5.9999999999999995e-05,5
19866,20780,0.00011999999999999999,9e-05,-4e-05,0.00065,0.00049,5.9999999999999995e-05,0.0,-5.9999999999999995e-05,5
19867,20781,0.00011999999999999999,9e-05,-4e-05,0.00065,0.00049,5.9999999999999995e-05,0.0,-5.9999999999999995e-05,5
19868,20782,0.00011999999999999999,9e-05,-4e-05,0.00065,0.00049,5.9999999999999995e-05,0.0,-5.9999999999999995e-05,5
19869,20783,0.00011999999999999999,9e-05,-4e-05,0.00065,0.00049,5.9999999999999995e-05,0.0,-5.9999999999999995e-05,5
19870,20784,2e-05,0.00014,-2e-05,0.00063,0.00037,0.00011999999999999999,5e-05,-1e-05,5
19871,20786,2e-05,0.00014,-2e-05,0.00063,0.00037,0.00011999999999999999,5e-05,-1e-05,5
19872,20787,2e-05,0.00014,-2e-05,0.00063,0.00037,0.00011999999999999999,5e-05,-1e-05,5
19873,20788,2e-05,0.00014,-2e-05,0.00063,0.00037,0.00011999999999999999,5e-05,-1e-05,5
19874,20789,2e-05,0.00014,-2e-05,0.00063,0.00037,0.00011999999999999999,5e-05,-1e-05,5
19875,20790,2e-05,0.00014,-2e-05,0.00063,0.00037,0.00011999999999999999,5e-05,-1e-05,5
19876,20791,2e-05,0.00014,-2e-05,0.00063,0.00037,0.00011999999999999999,5e-05,-1e-05,5
19877,20792,2e-05,0.00014,-2e-05,0.00063,0.00037,0.00011999999999999999,5e-05,-1e-05,5
19878,20793,0.0,-5e-05,7e-05,1e-05,0.00018999999999999998,7e-05,4e-05,5e-05,5
19879,20794,0.0,-5e-05,7e-05,1e-05,0.00018999999999999998,7e-05,4e-05,5e-05,5
19880,20795,0.0,-5e-05,7e-05,1e-05,0.00018999999999999998,7e-05,4e-05,5e-05,5
19881,20796,0.0,-5e-05,7e-05,1e-05,0.00018999999999999998,7e-05,4e-05,5e-05,5
19882,20797,0.0,-5e-05,7e-05,1e-05,0.00018999999999999998,7e-05,4e-05,5e-05,5
19883,20798,0.0,-5e-05,7e-05,1e-05,0.00018999999999999998,7e-05,4e-05,5e-05,5
19884,20799,0.0,-5e-05,7e-05,1e-05,0.00018999999999999998,7e-05,4e-05,5e-05,5
19885,20800,0.0,-5e-05,7e-05,1e-05,0.00018999999999999998,7e-05,4e-05,5e-05,5
19886,20801,0.0,-5e-05,7e-05,1e-05,0.00018999999999999998,7e-05,4e-05,5e-05,5
19887,20802,0.0,-5e-05,7e-05,1e-05,0.00018999999999999998,7e-05,4e-05,5e-05,5
19888,20803,0.0,-5e-05,7e-05,1e-05,0.00018999999999999998,7e-05,4e-05,5e-05,5
19889,20804,0.0,-5e-05,7e-05,1e-05,0.00018999999999999998,7e-05,4e-05,5e-05,5
19890,20805,0.0,-5e-05,7e-05,1e-05,0.00018999999999999998,7e-05,4e-05,5e-05,5
19891,20806,0.0,-5e-05,7e-05,1e-05,0.00018999999999999998,7e-05,4e-05,5e-05,5
19892,20807,-8e-05,4e-05,-0.0001,-0.00022,2e-05,-0.00021,-8e-05,2e-05,5
19893,20808,-9e-05,-8e-05,-5e-05,-0.00021,-0.00059,-0.00022999999999999998,-2e-05,-9e-05,5
19894,20809,-9e-05,-8e-05,-5e-05,-0.00021,-0.00059,-0.00022999999999999998,-2e-05,-9e-05,5
19895,20810,-9e-05,-8e-05,-5e-05,-0.00021,-0.00059,-0.00022999999999999998,-2e-05,-9e-05,5
19896,20811,-9e-05,-8e-05,-5e-05,-0.00021,-0.00059,-0.00022999999999999998,-2e-05,-9e-05,5
19897,20812,-9e-05,-8e-05,-5e-05,-0.00021,-0.00059,-0.00022999999999999998,-2e-05,-9e-05,5
19898,20813,-9e-05,-8e-05,-5e-05,-0.00021,-0.00059,-0.00022999999999999998,-2e-05,-9e-05,5
19899,20814,-9e-05,-8e-05,-5e-05,-0.00021,-0.00059,-0.00022999999999999998,-2e-05,-9e-05,5
19900,20815,-9e-05,-8e-05,-5e-05,-0.00021,-0.00059,-0.00022999999999999998,-2e-05,-9e-05,5
19901,20816,-9e-05,-8e-05,-5e-05,-0.00021,-0.00059,-0.00022999999999999998,-2e-05,-9e-05,5
19902,20817,-9e-05,-8e-05,-5e-05,-0.00021,-0.00059,-0.00022999999999999998,-2e-05,-9e-05,5
19903,20818,-9e-05,-8e-05,-5e-05,-0.00021,-0.00059,-0.00022999999999999998,-2e-05,-9e-05,5
19904,20819,-9e-05,-8e-05,-5e-05,-0.00021,-0.00059,-0.00022999999999999998,-2e-05,-9e-05,5
19905,20820,-9e-05,-8e-05,-5e-05,-0.00021,-0.00059,-0.00022999999999999998,-2e-05,-9e-05,5
19906,20821,-9e-05,-8e-05,-5e-05,-0.00021,-0.00059,-0.00022999999999999998,-2e-05,-9e-05,5
19907,20822,-9e-05,-8e-05,-5e-05,-0.00021,-0.00059,-0.00022999999999999998,-2e-05,-9e-05,5
19908,20823,-9e-05,-8e-05,-5e-05,-0.00021,-0.00059,-0.00022999999999999998,-2e-05,-9e-05,5
19909,20824,-9e-05,-8e-05,-5e-05,-0.00021,-0.00059,-0.00022999999999999998,-2e-05,-9e-05,5
19910,20825,-9e-05,-8e-05,-5e-05,-0.00021,-0.00059,-0.00022999999999999998,-2e-05,-9e-05,5
19911,20826,-9e-05,-8e-05,-5e-05,-0.00021,-0.00059,-0.00022999999999999998,-2e-05,-9e-05,5
19912,20827,-9e-05,-8e-05,-5e-05,-0.00021,-0.00059,-0.00022999999999999998,-2e-05,-9e-05,5
19913,20828,-9e-05,-8e-05,-5e-05,-0.00021,-0.00059,-0.00022999999999999998,-2e-05,-9e-05,5
19914,20829,-5.9999999999999995e-05,-0.00018,-0.00031,-0.00066,-0.0005099999999999999,-0.00027,-5e-05,-8e-05,5
19915,20830,4e-05,5e-05,-0.00011,-0.00037,-0.00032,-0.00016,-5.9999999999999995e-05,-5e-05,5
19916,20831,4e-05,5e-05,-0.00011,-0.00037,-0.00032,-0.00016,-5.9999999999999995e-05,-5e-05,5
19917,20832,4e-05,5e-05,-0.00011,-0.00037,-0.00032,-0.00016,-5.9999999999999995e-05,-5e-05,5
19918,20833,4e-05,5e-05,-0.00011,-0.00037,-0.00032,-0.00016,-5.9999999999999995e-05,-5e-05,5
19919,20834,4e-05,5e-05,-0.00011,-0.00037,-0.00032,-0.00016,-5.9999999999999995e-05,-5e-05,5
19920,20835,4e-05,5e-05,-0.00011,-0.00037,-0.00032,-0.00016,-5.9999999999999995e-05,-5e-05,5
19921,20836,4e-05,5e-05,-0.00011,-0.00037,-0.00032,-0.00016,-5.9999999999999995e-05,-5e-05,5
19922,20838,4e-05,5e-05,-0.00011,-0.00037,-0.00032,-0.00016,-5.9999999999999995e-05,-5e-05,5
19923,20839,4e-05,5e-05,-0.00011,-0.00037,-0.00032,-0.00016,-5.9999999999999995e-05,-5e-05,5
19924,20840,4e-05,5e-05,-0.00011,-0.00037,-0.00032,-0.00016,-5.9999999999999995e-05,-5e-05,5
19925,20841,4e-05,5e-05,-0.00011,-0.00037,-0.00032,-0.00016,-5.9999999999999995e-05,-5e-05,5
19926,20842,4e-05,5e-05,-0.00011,-0.00037,-0.00032,-0.00016,-5.9999999999999995e-05,-5e-05,5
19927,20843,4e-05,5e-05,-0.00011,-0.00037,-0.00032,-0.00016,-5.9999999999999995e-05,-5e-05,5
19928,20844,-0.0001,-7e-05,-2.9999999999999997e-05,0.00057,-0.00011999999999999999,-5e-05,1e-05,-4e-05,5
19929,20845,-0.0001,-7e-05,-2.9999999999999997e-05,0.00057,-0.00011999999999999999,-5e-05,1e-05,-4e-05,5
19930,20846,-0.0001,-7e-05,-2.9999999999999997e-05,0.00057,-0.00011999999999999999,-5e-05,1e-05,-4e-05,5
19931,20847,-0.0001,-7e-05,-2.9999999999999997e-05,0.00057,-0.00011999999999999999,-5e-05,1e-05,-4e-05,5
19932,20848,-0.0001,-7e-05,-2.9999999999999997e-05,0.00057,-0.00011999999999999999,-5e-05,1e-05,-4e-05,5
19933,20849,-0.0001,-7e-05,-2.9999999999999997e-05,0.00057,-0.00011999999999999999,-5e-05,1e-05,-4e-05,5
19934,20850,-0.0001,-7e-05,-2.9999999999999997e-05,0.00057,-0.00011999999999999999,-5e-05,1e-05,-4e-05,5
19935,20851,-0.0001,-7e-05,-2.9999999999999997e-05,0.00057,-0.00011999999999999999,-5e-05,1e-05,-4e-05,5
19936,20852,-0.00026000000000000003,-0.00032,-4e-05,5e-05,0.00037,0.00026000000000000003,4e-05,-2.9999999999999997e-05,5
19937,20853,-0.00026000000000000003,-0.00032,-4e-05,5e-05,0.00037,0.00026000000000000003,4e-05,-2.9999999999999997e-05,5
19938,20854,-0.00026000000000000003,-0.00032,-4e-05,5e-05,0.00037,0.00026000000000000003,4e-05,-2.9999999999999997e-05,5
19939,20855,-0.00026000000000000003,-0.00032,-4e-05,5e-05,0.00037,0.00026000000000000003,4e-05,-2.9999999999999997e-05,5
19940,20856,-0.00026000000000000003,-0.00032,-4e-05,5e-05,0.00037,0.00026000000000000003,4e-05,-2.9999999999999997e-05,5
19941,20857,-0.00026000000000000003,-0.00032,-4e-05,5e-05,0.00037,0.00026000000000000003,4e-05,-2.9999999999999997e-05,5
19942,20858,-0.00026000000000000003,-0.00032,-4e-05,5e-05,0.00037,0.00026000000000000003,4e-05,-2.9999999999999997e-05,5
19943,20859,-0.00026000000000000003,-0.00032,-4e-05,5e-05,0.00037,0.00026000000000000003,4e-05,-2.9999999999999997e-05,5
19944,20860,-0.00026000000000000003,-0.00032,-4e-05,5e-05,0.00037,0.00026000000000000003,4e-05,-2.9999999999999997e-05,5
19945,20861,-0.00026000000000000003,-0.00032,-4e-05,5e-05,0.00037,0.00026000000000000003,4e-05,-2.9999999999999997e-05,5
19946,20862,-0.00026000000000000003,-0.00032,-4e-05,5e-05,0.00037,0.00026000000000000003,4e-05,-2.9999999999999997e-05,5
19947,20863,-0.00026000000000000003,-0.00032,-4e-05,5e-05,0.00037,0.00026000000000000003,4e-05,-2.9999999999999997e-05,5
19948,20864,-0.00026000000000000003,-0.00032,-4e-05,5e-05,0.00037,0.00026000000000000003,4e-05,-2.9999999999999997e-05,5
19949,20865,-0.00026000000000000003,-0.00032,-4e-05,5e-05,0.00037,0.00026000000000000003,4e-05,-2.9999999999999997e-05,5
19950,20866,-0.00026000000000000003,-0.00032,-4e-05,5e-05,0.00037,0.00026000000000000003,4e-05,-2.9999999999999997e-05,5
19951,20867,-4e-05,2.9999999999999997e-05,7e-05,-1e-05,0.00016999999999999999,-0.00018999999999999998,-0.00011999999999999999,-7e-05,5
19952,20868,0.00013000000000000002,0.0001,-5e-05,-7e-05,0.00047000000000000004,0.00022999999999999998,0.00013000000000000002,0.00022999999999999998,5
19953,20869,0.00013000000000000002,0.0001,-5e-05,-7e-05,0.00047000000000000004,0.00022999999999999998,0.00013000000000000002,0.00022999999999999998,5
19954,20870,0.00013000000000000002,0.0001,-5e-05,-7e-05,0.00047000000000000004,0.00022999999999999998,0.00013000000000000002,0.00022999999999999998,5
19955,20871,0.00013000000000000002,0.0001,-5e-05,-7e-05,0.00047000000000000004,0.00022999999999999998,0.00013000000000000002,0.00022999999999999998,5
19956,20872,0.00013000000000000002,0.0001,-5e-05,-7e-05,0.00047000000000000004,0.00022999999999999998,0.00013000000000000002,0.00022999999999999998,5
19957,20873,0.00013000000000000002,0.0001,-5e-05,-7e-05,0.00047000000000000004,0.00022999999999999998,0.00013000000000000002,0.00022999999999999998,5
19958,20874,0.00013000000000000002,0.0001,-5e-05,-7e-05,0.00047000000000000004,0.00022999999999999998,0.00013000000000000002,0.00022999999999999998,5
19959,20875,0.00013000000000000002,0.0001,-5e-05,-7e-05,0.00047000000000000004,0.00022999999999999998,0.00013000000000000002,0.00022999999999999998,5
19960,20876,0.00013000000000000002,0.0001,-5e-05,-7e-05,0.00047000000000000004,0.00022999999999999998,0.00013000000000000002,0.00022999999999999998,5
19961,20877,0.00013000000000000002,0.0001,-5e-05,-7e-05,0.00047000000000000004,0.00022999999999999998,0.00013000000000000002,0.00022999999999999998,5
19962,20878,0.00013000000000000002,0.0001,-5e-05,-7e-05,0.00047000000000000004,0.00022999999999999998,0.00013000000000000002,0.00022999999999999998,5
19963,20879,0.00013000000000000002,0.0001,-5e-05,-7e-05,0.00047000000000000004,0.00022999999999999998,0.00013000000000000002,0.00022999999999999998,5
19964,20880,0.00013000000000000002,0.0001,-5e-05,-7e-05,0.00047000000000000004,0.00022999999999999998,0.00013000000000000002,0.00022999999999999998,5
19965,20881,0.00013000000000000002,0.0001,-5e-05,-7e-05,0.00047000000000000004,0.00022999999999999998,0.00013000000000000002,0.00022999999999999998,5
19966,20882,0.00013000000000000002,0.0001,-5e-05,-7e-05,0.00047000000000000004,0.00022999999999999998,0.00013000000000000002,0.00022999999999999998,5
19967,20883,0.00013000000000000002,0.0001,-5e-05,-7e-05,0.00047000000000000004,0.00022999999999999998,0.00013000000000000002,0.00022999999999999998,5
19968,20884,0.00013000000000000002,0.0001,-5e-05,-7e-05,0.00047000000000000004,0.00022999999999999998,0.00013000000000000002,0.00022999999999999998,5
19969,20885,0.00013000000000000002,0.0001,-5e-05,-7e-05,0.00047000000000000004,0.00022999999999999998,0.00013000000000000002,0.00022999999999999998,5
19970,20886,0.00013000000000000002,0.0001,-5e-05,-7e-05,0.00047000000000000004,0.00022999999999999998,0.00013000000000000002,0.00022999999999999998,5
19971,20888,0.00013000000000000002,0.0001,-5e-05,-7e-05,0.00047000000000000004,0.00022999999999999998,0.00013000000000000002,0.00022999999999999998,5
19972,20889,-2e-05,2e-05,-4e-05,-0.00043,9e-05,4e-05,-5e-05,0.0,5
19973,20890,-4e-05,-5e-05,-0.00022999999999999998,-0.00062,-0.0004,-0.00033999999999999997,-5e-05,5e-05,5
19974,20891,-4e-05,-5e-05,-0.00022999999999999998,-0.00062,-0.0004,-0.00033999999999999997,-5e-05,5e-05,5
19975,20892,-4e-05,-5e-05,-0.00022999999999999998,-0.00062,-0.0004,-0.00033999999999999997,-5e-05,5e-05,5
19976,20893,-4e-05,-5e-05,-0.00022999999999999998,-0.00062,-0.0004,-0.00033999999999999997,-5e-05,5e-05,5
19977,20894,-4e-05,-5e-05,-0.00022999999999999998,-0.00062,-0.0004,-0.00033999999999999997,-5e-05,5e-05,5
19978,20895,-4e-05,-5e-05,-0.00022999999999999998,-0.00062,-0.0004,-0.00033999999999999997,-5e-05,5e-05,5
19979,20896,-4e-05,-5e-05,-0.00022999999999999998,-0.00062,-0.0004,-0.00033999999999999997,-5e-05,5e-05,5
19980,20897,-4e-05,-5e-05,-0.00022999999999999998,-0.00062,-0.0004,-0.00033999999999999997,-5e-05,5e-05,5
19981,20898,-4e-05,-5e-05,-0.00022999999999999998,-0.00062,-0.0004,-0.00033999999999999997,-5e-05,5e-05,5
19982,20899,-4e-05,-5e-05,-0.00022999999999999998,-0.00062,-0.0004,-0.00033999999999999997,-5e-05,5e-05,5
19983,20900,-4e-05,-5e-05,-0.00022999999999999998,-0.00062,-0.0004,-0.00033999999999999997,-5e-05,5e-05,5
19984,20901,-4e-05,-5e-05,-0.00022999999999999998,-0.00062,-0.0004,-0.00033999999999999997,-5e-05,5e-05,5
19985,20902,-4e-05,-5e-05,-0.00022999999999999998,-0.00062,-0.0004,-0.00033999999999999997,-5e-05,5e-05,5
19986,20903,-4e-05,-5e-05,-0.00022999999999999998,-0.00062,-0.0004,-0.00033999999999999997,-5e-05,5e-05,5
19987,20904,4e-05,0.00018,0.00022999999999999998,-9e-05,0.00011999999999999999,2.9999999999999997e-05,2e-05,1e-05,5
19988,20905,4e-05,0.00018,0.00022999999999999998,-9e-05,0.00011999999999999999,2.9999999999999997e-05,2e-05,1e-05,5
19989,20906,4e-05,0.00018,0.00022999999999999998,-9e-05,0.00011999999999999999,2.9999999999999997e-05,2e-05,1e-05,5
19990,20907,4e-05,0.00018,0.00022999999999999998,-9e-05,0.00011999999999999999,2.9999999999999997e-05,2e-05,1e-05,5
19991,20908,4e-05,0.00018,0.00022999999999999998,-9e-05,0.00011999999999999999,2.9999999999999997e-05,2e-05,1e-05,5
19992,20909,4e-05,0.00018,0.00022999999999999998,-9e-05,0.00011999999999999999,2.9999999999999997e-05,2e-05,1e-05,5
19993,20911,4e-05,0.00018,0.00022999999999999998,-9e-05,0.00011999999999999999,2.9999999999999997e-05,2e-05,1e-05,5
19994,20912,4e-05,0.00018,0.00022999999999999998,-9e-05,0.00011999999999999999,2.9999999999999997e-05,2e-05,1e-05,5
19995,20913,4e-05,0.00018,0.00022999999999999998,-9e-05,0.00011999999999999999,2.9999999999999997e-05,2e-05,1e-05,5
19996,20914,4e-05,0.00018,0.00022999999999999998,-9e-05,0.00011999999999999999,2.9999999999999997e-05,2e-05,1e-05,5
19997,20915,4e-05,0.00018,0.00022999999999999998,-9e-05,0.00011999999999999999,2.9999999999999997e-05,2e-05,1e-05,5
19998,20916,4e-05,0.00018,0.00022999999999999998,-9e-05,0.00011999999999999999,2.9999999999999997e-05,2e-05,1e-05,5
19999,20917,4e-05,0.00018,0.00022999999999999998,-9e-05,0.00011999999999999999,2.9999999999999997e-05,2e-05,1e-05,5
20000,20918,4e-05,0.00018,0.00022999999999999998,-9e-05,0.00011999999999999999,2.9999999999999997e-05,2e-05,1e-05,5
20001,20919,4e-05,0.00018,0.00022999999999999998,-9e-05,0.00011999999999999999,2.9999999999999997e-05,2e-05,1e-05,5
20002,20920,4e-05,0.00018,0.00022999999999999998,-9e-05,0.00011999999999999999,2.9999999999999997e-05,2e-05,1e-05,5
20003,20921,4e-05,0.00018,0.00022999999999999998,-9e-05,0.00011999999999999999,2.9999999999999997e-05,2e-05,1e-05,5
20004,20922,4e-05,0.00018,0.00022999999999999998,-9e-05,0.00011999999999999999,2.9999999999999997e-05,2e-05,1e-05,5
20005,20923,4e-05,0.00018,0.00022999999999999998,-9e-05,0.00011999999999999999,2.9999999999999997e-05,2e-05,1e-05,5
20006,20924,4e-05,0.00018,0.00022999999999999998,-9e-05,0.00011999999999999999,2.9999999999999997e-05,2e-05,1e-05,5
20007,20925,4e-05,0.00018,0.00022999999999999998,-9e-05,0.00011999999999999999,2.9999999999999997e-05,2e-05,1e-05,5
20008,20926,4e-05,0.00018,0.00022999999999999998,-9e-05,0.00011999999999999999,2.9999999999999997e-05,2e-05,1e-05,5
20009,20927,4e-05,0.00018,0.00022999999999999998,-9e-05,0.00011999999999999999,2.9999999999999997e-05,2e-05,1e-05,5
20010,20928,-0.00018999999999999998,-5.9999999999999995e-05,2.9999999999999997e-05,-0.0003,-0.0003,-0.0003,-0.00018,-0.00018999999999999998,5
20011,20929,-0.00018999999999999998,-5.9999999999999995e-05,2.9999999999999997e-05,-0.0003,-0.0003,-0.0003,-0.00018,-0.00018999999999999998,5
20012,20930,-8e-05,-2e-05,0.00018999999999999998,-0.00013000000000000002,0.00053,0.00025,7e-05,5.9999999999999995e-05,5
20013,20931,0.00016,1e-05,-8e-05,0.00018,-0.00016,4e-05,0.0,-2.9999999999999997e-05,5
20014,20932,0.00016,1e-05,-8e-05,0.00018,-0.00016,4e-05,0.0,-2.9999999999999997e-05,5
20015,20933,0.00016,1e-05,-8e-05,0.00018,-0.00016,4e-05,0.0,-2.9999999999999997e-05,5
20016,20934,0.00016,1e-05,-8e-05,0.00018,-0.00016,4e-05,0.0,-2.9999999999999997e-05,5
20017,20935,0.00016,1e-05,-8e-05,0.00018,-0.00016,4e-05,0.0,-2.9999999999999997e-05,5
20018,20936,0.00016,1e-05,-8e-05,0.00018,-0.00016,4e-05,0.0,-2.9999999999999997e-05,5
20019,20938,0.00016,1e-05,-8e-05,0.00018,-0.00016,4e-05,0.0,-2.9999999999999997e-05,5
20020,20939,0.00016,1e-05,-8e-05,0.00018,-0.00016,4e-05,0.0,-2.9999999999999997e-05,5
20021,20940,0.00016,1e-05,-8e-05,0.00018,-0.00016,4e-05,0.0,-2.9999999999999997e-05,5
20022,20941,0.00016,1e-05,-8e-05,0.00018,-0.00016,4e-05,0.0,-2.9999999999999997e-05,5
20023,20942,0.00016,1e-05,-8e-05,0.00018,-0.00016,4e-05,0.0,-2.9999999999999997e-05,5
20024,20943,0.00016,1e-05,-8e-05,0.00018,-0.00016,4e-05,0.0,-2.9999999999999997e-05,5
20025,20944,0.00016,1e-05,-8e-05,0.00018,-0.00016,4e-05,0.0,-2.9999999999999997e-05,5
20026,20945,0.00016,1e-05,-8e-05,0.00018,-0.00016,4e-05,0.0,-2.9999999999999997e-05,5
20027,20946,0.00016,1e-05,-8e-05,0.00018,-0.00016,4e-05,0.0,-2.9999999999999997e-05,5
20028,20947,0.00016,1e-05,-8e-05,0.00018,-0.00016,4e-05,0.0,-2.9999999999999997e-05,5
20029,20948,0.00016,1e-05,-8e-05,0.00018,-0.00016,4e-05,0.0,-2.9999999999999997e-05,5
20030,20949,-0.00014,-5.9999999999999995e-05,0.0,0.00016999999999999999,-0.00022,-4e-05,2e-05,8e-05,5
20031,20950,2.9999999999999997e-05,2.9999999999999997e-05,0.0,-0.00016999999999999999,5e-05,0.00015,1e-05,2.9999999999999997e-05,5
20032,20951,2.9999999999999997e-05,2.9999999999999997e-05,0.0,-0.00016999999999999999,5e-05,0.00015,1e-05,2.9999999999999997e-05,5
20033,20952,2.9999999999999997e-05,2.9999999999999997e-05,0.0,-0.00016999999999999999,5e-05,0.00015,1e-05,2.9999999999999997e-05,5
20034,20953,2.9999999999999997e-05,2.9999999999999997e-05,0.0,-0.00016999999999999999,5e-05,0.00015,1e-05,2.9999999999999997e-05,5
20035,20954,2.9999999999999997e-05,2.9999999999999997e-05,0.0,-0.00016999999999999999,5e-05,0.00015,1e-05,2.9999999999999997e-05,5
20036,20955,2.9999999999999997e-05,2.9999999999999997e-05,0.0,-0.00016999999999999999,5e-05,0.00015,1e-05,2.9999999999999997e-05,5
20037,20956,2.9999999999999997e-05,2.9999999999999997e-05,0.0,-0.00016999999999999999,5e-05,0.00015,1e-05,2.9999999999999997e-05,5
20038,20957,2.9999999999999997e-05,2.9999999999999997e-05,0.0,-0.00016999999999999999,5e-05,0.00015,1e-05,2.9999999999999997e-05,5
20039,20958,2.9999999999999997e-05,2.9999999999999997e-05,0.0,-0.00016999999999999999,5e-05,0.00015,1e-05,2.9999999999999997e-05,5
20040,20959,2.9999999999999997e-05,2.9999999999999997e-05,0.0,-0.00016999999999999999,5e-05,0.00015,1e-05,2.9999999999999997e-05,5
20041,20960,2.9999999999999997e-05,2.9999999999999997e-05,0.0,-0.00016999999999999999,5e-05,0.00015,1e-05,2.9999999999999997e-05,5
20042,20961,2.9999999999999997e-05,2.9999999999999997e-05,0.0,-0.00016999999999999999,5e-05,0.00015,1e-05,2.9999999999999997e-05,5
20043,20962,2.9999999999999997e-05,2.9999999999999997e-05,0.0,-0.00016999999999999999,5e-05,0.00015,1e-05,2.9999999999999997e-05,5
20044,20963,2.9999999999999997e-05,2.9999999999999997e-05,0.0,-0.00016999999999999999,5e-05,0.00015,1e-05,2.9999999999999997e-05,5
20045,20964,0.00018999999999999998,7e-05,-0.00021,-0.0006799999999999999,0.00062,0.00018999999999999998,4e-05,2e-05,5
20046,20965,0.00018999999999999998,7e-05,-0.00021,-0.0006799999999999999,0.00062,0.00018999999999999998,4e-05,2e-05,5
20047,20966,0.00018999999999999998,7e-05,-0.00021,-0.0006799999999999999,0.00062,0.00018999999999999998,4e-05,2e-05,5
20048,20967,0.00018999999999999998,7e-05,-0.00021,-0.0006799999999999999,0.00062,0.00018999999999999998,4e-05,2e-05,5
20049,20968,0.00018999999999999998,7e-05,-0.00021,-0.0006799999999999999,0.00062,0.00018999999999999998,4e-05,2e-05,5
20050,20969,0.00018999999999999998,7e-05,-0.00021,-0.0006799999999999999,0.00062,0.00018999999999999998,4e-05,2e-05,5
20051,20970,0.00018999999999999998,7e-05,-0.00021,-0.0006799999999999999,0.00062,0.00018999999999999998,4e-05,2e-05,5
20052,20971,0.00018999999999999998,7e-05,-0.00021,-0.0006799999999999999,0.00062,0.00018999999999999998,4e-05,2e-05,5
20053,20972,0.00018999999999999998,7e-05,-0.00021,-0.0006799999999999999,0.00062,0.00018999999999999998,4e-05,2e-05,5
20054,20973,0.00018999999999999998,7e-05,-0.00021,-0.0006799999999999999,0.00062,0.00018999999999999998,4e-05,2e-05,5
20055,20974,0.00018999999999999998,7e-05,-0.00021,-0.0006799999999999999,0.00062,0.00018999999999999998,4e-05,2e-05,5
20056,20975,0.00018999999999999998,7e-05,-0.00021,-0.0006799999999999999,0.00062,0.00018999999999999998,4e-05,2e-05,5
20057,20976,0.00018999999999999998,7e-05,-0.00021,-0.0006799999999999999,0.00062,0.00018999999999999998,4e-05,2e-05,5
20058,20977,0.00018999999999999998,7e-05,-0.00021,-0.0006799999999999999,0.00062,0.00018999999999999998,4e-05,2e-05,5
20059,20978,0.00018999999999999998,7e-05,-0.00021,-0.0006799999999999999,0.00062,0.00018999999999999998,4e-05,2e-05,5
20060,20979,-2.9999999999999997e-05,0.00011,0.00026000000000000003,-0.00018999999999999998,0.00015,5.9999999999999995e-05,2e-05,-0.00028,5
20061,20980,-2.9999999999999997e-05,0.00011,0.00026000000000000003,-0.00018999999999999998,0.00015,5.9999999999999995e-05,2e-05,-0.00028,5
20062,20981,-2.9999999999999997e-05,0.00011,0.00026000000000000003,-0.00018999999999999998,0.00015,5.9999999999999995e-05,2e-05,-0.00028,5
20063,20982,-2.9999999999999997e-05,0.00011,0.00026000000000000003,-0.00018999999999999998,0.00015,5.9999999999999995e-05,2e-05,-0.00028,5
20064,20983,-2.9999999999999997e-05,0.00011,0.00026000000000000003,-0.00018999999999999998,0.00015,5.9999999999999995e-05,2e-05,-0.00028,5
20065,20984,-2.9999999999999997e-05,0.00011,0.00026000000000000003,-0.00018999999999999998,0.00015,5.9999999999999995e-05,2e-05,-0.00028,5
20066,20985,-2.9999999999999997e-05,0.00011,0.00026000000000000003,-0.00018999999999999998,0.00015,5.9999999999999995e-05,2e-05,-0.00028,5
20067,20986,2.9999999999999997e-05,-0.00011,-0.00021,-0.00067,-0.00026000000000000003,0.00015,9e-05,4e-05,5
20068,20989,-0.00013000000000000002,-7e-05,-2e-05,0.0002,-0.00021,-7e-05,-5e-05,-2e-05,5
20069,20990,-0.00013000000000000002,-7e-05,-2e-05,0.0002,-0.00021,-7e-05,-5e-05,-2e-05,5
20070,20991,-0.00013000000000000002,-7e-05,-2e-05,0.0002,-0.00021,-7e-05,-5e-05,-2e-05,5
20071,20992,-0.00013000000000000002,-7e-05,-2e-05,0.0002,-0.00021,-7e-05,-5e-05,-2e-05,5
20072,20993,-0.00013000000000000002,-7e-05,-2e-05,0.0002,-0.00021,-7e-05,-5e-05,-2e-05,5
20073,20994,-0.00013000000000000002,-7e-05,-2e-05,0.0002,-0.00021,-7e-05,-5e-05,-2e-05,5
20074,20995,-0.00013000000000000002,-7e-05,-2e-05,0.0002,-0.00021,-7e-05,-5e-05,-2e-05,5
20075,20996,-0.00013000000000000002,-7e-05,-2e-05,0.0002,-0.00021,-7e-05,-5e-05,-2e-05,5
20076,20997,-0.00013000000000000002,-7e-05,-2e-05,0.0002,-0.00021,-7e-05,-5e-05,-2e-05,5
20077,20998,-0.00013000000000000002,-7e-05,-2e-05,0.0002,-0.00021,-7e-05,-5e-05,-2e-05,5
20078,20999,-0.00013000000000000002,-7e-05,-2e-05,0.0002,-0.00021,-7e-05,-5e-05,-2e-05,5
20079,21000,-0.00013000000000000002,-7e-05,-2e-05,0.0002,-0.00021,-7e-05,-5e-05,-2e-05,5
20080,21001,-0.00013000000000000002,-7e-05,-2e-05,0.0002,-0.00021,-7e-05,-5e-05,-2e-05,5
20081,21002,-0.00013000000000000002,-7e-05,-2e-05,0.0002,-0.00021,-7e-05,-5e-05,-2e-05,5
20082,21003,-0.00013000000000000002,-7e-05,-2e-05,0.0002,-0.00021,-7e-05,-5e-05,-2e-05,5
20083,21004,-0.00013000000000000002,-7e-05,-2e-05,0.0002,-0.00021,-7e-05,-5e-05,-2e-05,5
20084,21005,-0.00013000000000000002,-7e-05,-2e-05,0.0002,-0.00021,-7e-05,-5e-05,-2e-05,5
20085,21006,-0.00013000000000000002,-7e-05,-2e-05,0.0002,-0.00021,-7e-05,-5e-05,-2e-05,5
20086,21007,-0.00013000000000000002,-7e-05,-2e-05,0.0002,-0.00021,-7e-05,-5e-05,-2e-05,5
20087,21008,-0.00013000000000000002,-7e-05,-2e-05,0.0002,-0.00021,-7e-05,-5e-05,-2e-05,5
20088,21009,-0.00013000000000000002,-7e-05,-2e-05,0.0002,-0.00021,-7e-05,-5e-05,-2e-05,5
20089,21010,-0.00013000000000000002,-7e-05,-2e-05,0.0002,-0.00021,-7e-05,-5e-05,-2e-05,5
20090,21011,-2e-05,2.9999999999999997e-05,8e-05,0.00099,0.00037,-0.00018,-4e-05,0.0001,5
20091,21012,-2e-05,2.9999999999999997e-05,8e-05,0.00099,0.00037,-0.00018,-4e-05,0.0001,5
20092,21013,-2e-05,2.9999999999999997e-05,8e-05,0.00099,0.00037,-0.00018,-4e-05,0.0001,5
20093,21014,-2e-05,2.9999999999999997e-05,8e-05,0.00099,0.00037,-0.00018,-4e-05,0.0001,5
20094,21015,-2e-05,2.9999999999999997e-05,8e-05,0.00099,0.00037,-0.00018,-4e-05,0.0001,5
20095,21016,-2e-05,2.9999999999999997e-05,8e-05,0.00099,0.00037,-0.00018,-4e-05,0.0001,5
20096,21017,-2e-05,2.9999999999999997e-05,8e-05,0.00099,0.00037,-0.00018,-4e-05,0.0001,5
20097,21018,-2e-05,2.9999999999999997e-05,8e-05,0.00099,0.00037,-0.00018,-4e-05,0.0001,5
20098,21019,-2e-05,2.9999999999999997e-05,8e-05,0.00099,0.00037,-0.00018,-4e-05,0.0001,5
20099,21020,-2e-05,2.9999999999999997e-05,8e-05,0.00099,0.00037,-0.00018,-4e-05,0.0001,5
20100,21021,-2e-05,2.9999999999999997e-05,8e-05,0.00099,0.00037,-0.00018,-4e-05,0.0001,5
20101,21022,-2e-05,2.9999999999999997e-05,8e-05,0.00099,0.00037,-0.00018,-4e-05,0.0001,5
20102,21023,-2e-05,2.9999999999999997e-05,8e-05,0.00099,0.00037,-0.00018,-4e-05,0.0001,5
20103,21024,-2e-05,2.9999999999999997e-05,8e-05,0.00099,0.00037,-0.00018,-4e-05,0.0001,5
20104,21025,-2e-05,2.9999999999999997e-05,8e-05,0.00099,0.00037,-0.00018,-4e-05,0.0001,5
20105,21026,-2e-05,2.9999999999999997e-05,8e-05,0.00099,0.00037,-0.00018,-4e-05,0.0001,5
20106,21027,-2e-05,2.9999999999999997e-05,8e-05,0.00099,0.00037,-0.00018,-4e-05,0.0001,5
20107,21028,-2e-05,2.9999999999999997e-05,8e-05,0.00099,0.00037,-0.00018,-4e-05,0.0001,5
20108,21029,-2e-05,2.9999999999999997e-05,8e-05,0.00099,0.00037,-0.00018,-4e-05,0.0001,5
20109,21030,-2e-05,2.9999999999999997e-05,8e-05,0.00099,0.00037,-0.00018,-4e-05,0.0001,5
20110,21031,-2e-05,2.9999999999999997e-05,8e-05,0.00099,0.00037,-0.00018,-4e-05,0.0001,5
20111,21032,-2e-05,2.9999999999999997e-05,8e-05,0.00099,0.00037,-0.00018,-4e-05,0.0001,5
20112,21033,-2e-05,2.9999999999999997e-05,8e-05,0.00099,0.00037,-0.00018,-4e-05,0.0001,5
20113,21034,-2e-05,2.9999999999999997e-05,8e-05,0.00099,0.00037,-0.00018,-4e-05,0.0001,5
20114,21035,-2e-05,2.9999999999999997e-05,8e-05,0.00099,0.00037,-0.00018,-4e-05,0.0001,5
20115,21036,-2e-05,2.9999999999999997e-05,8e-05,0.00099,0.00037,-0.00018,-4e-05,0.0001,5
20116,21038,-2e-05,2.9999999999999997e-05,8e-05,0.00099,0.00037,-0.00018,-4e-05,0.0001,5
20117,21039,-2e-05,2.9999999999999997e-05,8e-05,0.00099,0.00037,-0.00018,-4e-05,0.0001,5
20118,21040,2e-05,-0.00022999999999999998,-4e-05,2.9999999999999997e-05,0.00011999999999999999,-0.0001,-2.9999999999999997e-05,1e-05,5
20119,21041,-4e-05,-5.9999999999999995e-05,-4e-05,2.9999999999999997e-05,-2.9999999999999997e-05,-5.9999999999999995e-05,-2e-05,-2e-05,5
20120,21042,-4e-05,-5.9999999999999995e-05,-4e-05,2.9999999999999997e-05,-2.9999999999999997e-05,-5.9999999999999995e-05,-2e-05,-2e-05,5
20121,21043,-4e-05,-5.9999999999999995e-05,-4e-05,2.9999999999999997e-05,-2.9999999999999997e-05,-5.9999999999999995e-05,-2e-05,-2e-05,5
20122,21044,-4e-05,-5.9999999999999995e-05,-4e-05,2.9999999999999997e-05,-2.9999999999999997e-05,-5.9999999999999995e-05,-2e-05,-2e-05,5
20123,21045,-4e-05,-5.9999999999999995e-05,-4e-05,2.9999999999999997e-05,-2.9999999999999997e-05,-5.9999999999999995e-05,-2e-05,-2e-05,5
20124,21046,-4e-05,-5.9999999999999995e-05,-4e-05,2.9999999999999997e-05,-2.9999999999999997e-05,-5.9999999999999995e-05,-2e-05,-2e-05,5
20125,21047,0.0001,0.00018999999999999998,0.00035,0.0004,-0.00029,-0.00016999999999999999,-5.9999999999999995e-05,-8e-05,5
20126,21048,-5.9999999999999995e-05,-4e-05,-5.9999999999999995e-05,-0.0002,-0.00029,-0.00011999999999999999,0.0,4e-05,5
20127,21049,-5.9999999999999995e-05,-4e-05,-5.9999999999999995e-05,-0.0002,-0.00029,-0.00011999999999999999,0.0,4e-05,5
20128,21050,-5.9999999999999995e-05,-4e-05,-5.9999999999999995e-05,-0.0002,-0.00029,-0.00011999999999999999,0.0,4e-05,5
20129,21051,-5.9999999999999995e-05,-4e-05,-5.9999999999999995e-05,-0.0002,-0.00029,-0.00011999999999999999,0.0,4e-05,5
20130,21052,-5.9999999999999995e-05,-4e-05,-5.9999999999999995e-05,-0.0002,-0.00029,-0.00011999999999999999,0.0,4e-05,5
20131,21053,-5.9999999999999995e-05,-4e-05,-5.9999999999999995e-05,-0.0002,-0.00029,-0.00011999999999999999,0.0,4e-05,5
20132,21054,-5.9999999999999995e-05,-4e-05,-5.9999999999999995e-05,-0.0002,-0.00029,-0.00011999999999999999,0.0,4e-05,5
20133,21055,-5.9999999999999995e-05,-4e-05,-5.9999999999999995e-05,-0.0002,-0.00029,-0.00011999999999999999,0.0,4e-05,5
20134,21056,-5.9999999999999995e-05,-4e-05,-5.9999999999999995e-05,-0.0002,-0.00029,-0.00011999999999999999,0.0,4e-05,5
20135,21057,-5.9999999999999995e-05,-4e-05,-5.9999999999999995e-05,-0.0002,-0.00029,-0.00011999999999999999,0.0,4e-05,5
20136,21058,-5.9999999999999995e-05,-4e-05,-5.9999999999999995e-05,-0.0002,-0.00029,-0.00011999999999999999,0.0,4e-05,5
20137,21059,-5.9999999999999995e-05,-4e-05,-5.9999999999999995e-05,-0.0002,-0.00029,-0.00011999999999999999,0.0,4e-05,5
20138,21060,-5.9999999999999995e-05,-4e-05,-5.9999999999999995e-05,-0.0002,-0.00029,-0.00011999999999999999,0.0,4e-05,5
20139,21061,-5.9999999999999995e-05,-4e-05,-5.9999999999999995e-05,-0.0002,-0.00029,-0.00011999999999999999,0.0,4e-05,5
20140,21062,-5.9999999999999995e-05,-4e-05,-5.9999999999999995e-05,-0.0002,-0.00029,-0.00011999999999999999,0.0,4e-05,5
20141,21063,-5.9999999999999995e-05,-4e-05,-5.9999999999999995e-05,-0.0002,-0.00029,-0.00011999999999999999,0.0,4e-05,5
20142,21064,-5.9999999999999995e-05,-4e-05,-5.9999999999999995e-05,-0.0002,-0.00029,-0.00011999999999999999,0.0,4e-05,5
20143,21065,-5.9999999999999995e-05,-4e-05,-5.9999999999999995e-05,-0.0002,-0.00029,-0.00011999999999999999,0.0,4e-05,5
20144,21066,-5.9999999999999995e-05,-4e-05,-5.9999999999999995e-05,-0.0002,-0.00029,-0.00011999999999999999,0.0,4e-05,5
20145,21067,-5.9999999999999995e-05,-4e-05,-5.9999999999999995e-05,-0.0002,-0.00029,-0.00011999999999999999,0.0,4e-05,5
20146,21068,-5.9999999999999995e-05,-4e-05,-5.9999999999999995e-05,-0.0002,-0.00029,-0.00011999999999999999,0.0,4e-05,5
20147,21069,-5.9999999999999995e-05,-4e-05,-5.9999999999999995e-05,-0.0002,-0.00029,-0.00011999999999999999,0.0,4e-05,5
20148,21070,-5.9999999999999995e-05,-4e-05,-5.9999999999999995e-05,-0.0002,-0.00029,-0.00011999999999999999,0.0,4e-05,5
20149,21071,-2e-05,-2e-05,-0.00032,-0.00081,-0.00016999999999999999,4e-05,-2.9999999999999997e-05,-1e-05,5
20150,21072,-2e-05,-2e-05,-0.00032,-0.00081,-0.00016999999999999999,4e-05,-2.9999999999999997e-05,-1e-05,5
20151,21073,-2e-05,-2e-05,-0.00032,-0.00081,-0.00016999999999999999,4e-05,-2.9999999999999997e-05,-1e-05,5
20152,21074,-2e-05,-2e-05,-0.00032,-0.00081,-0.00016999999999999999,4e-05,-2.9999999999999997e-05,-1e-05,5
20153,21075,-2e-05,-2e-05,-0.00032,-0.00081,-0.00016999999999999999,4e-05,-2.9999999999999997e-05,-1e-05,5
20154,21076,-2e-05,-2e-05,-0.00032,-0.00081,-0.00016999999999999999,4e-05,-2.9999999999999997e-05,-1e-05,5
20155,21077,-2e-05,-2e-05,-0.00032,-0.00081,-0.00016999999999999999,4e-05,-2.9999999999999997e-05,-1e-05,5
20156,21078,-2e-05,-2e-05,-0.00032,-0.00081,-0.00016999999999999999,4e-05,-2.9999999999999997e-05,-1e-05,5
20157,21079,-2e-05,-2e-05,-0.00032,-0.00081,-0.00016999999999999999,4e-05,-2.9999999999999997e-05,-1e-05,5
20158,21080,-2e-05,-2e-05,-0.00032,-0.00081,-0.00016999999999999999,4e-05,-2.9999999999999997e-05,-1e-05,5
20159,21081,-2e-05,-2e-05,-0.00032,-0.00081,-0.00016999999999999999,4e-05,-2.9999999999999997e-05,-1e-05,5
20160,21082,-2e-05,-2e-05,-0.00032,-0.00081,-0.00016999999999999999,4e-05,-2.9999999999999997e-05,-1e-05,5
20161,21083,-2e-05,-2e-05,-0.00032,-0.00081,-0.00016999999999999999,4e-05,-2.9999999999999997e-05,-1e-05,5
20162,21084,-2e-05,-2e-05,-0.00032,-0.00081,-0.00016999999999999999,4e-05,-2.9999999999999997e-05,-1e-05,5
20163,21085,-2e-05,-2e-05,-0.00032,-0.00081,-0.00016999999999999999,4e-05,-2.9999999999999997e-05,-1e-05,5
20164,21086,-2e-05,-2e-05,-0.00032,-0.00081,-0.00016999999999999999,4e-05,-2.9999999999999997e-05,-1e-05,5
20165,21088,-2e-05,-2e-05,-0.00032,-0.00081,-0.00016999999999999999,4e-05,-2.9999999999999997e-05,-1e-05,5
20166,21089,-2e-05,-2e-05,-0.00032,-0.00081,-0.00016999999999999999,4e-05,-2.9999999999999997e-05,-1e-05,5
20167,21090,-2e-05,-2e-05,-0.00032,-0.00081,-0.00016999999999999999,4e-05,-2.9999999999999997e-05,-1e-05,5
20168,21091,-2e-05,-2e-05,-0.00032,-0.00081,-0.00016999999999999999,4e-05,-2.9999999999999997e-05,-1e-05,5
20169,21092,-2e-05,-2e-05,-0.00032,-0.00081,-0.00016999999999999999,4e-05,-2.9999999999999997e-05,-1e-05,5
20170,21093,0.0001,0.00014,0.0003,0.00043,0.00064,0.00029,5.9999999999999995e-05,9e-05,5
20171,21094,-0.00014,-8e-05,-1e-05,0.00033,0.00036,0.00018,8e-05,2e-05,5
20172,21095,-0.00014,-8e-05,-1e-05,0.00033,0.00036,0.00018,8e-05,2e-05,5
20173,21096,-0.00014,-8e-05,-1e-05,0.00033,0.00036,0.00018,8e-05,2e-05,5
20174,21097,-0.00014,-8e-05,-1e-05,0.00033,0.00036,0.00018,8e-05,2e-05,5
20175,21098,-0.00014,-8e-05,-1e-05,0.00033,0.00036,0.00018,8e-05,2e-05,5
20176,21099,-0.00014,-8e-05,-1e-05,0.00033,0.00036,0.00018,8e-05,2e-05,5
20177,21100,-0.00014,-8e-05,-1e-05,0.00033,0.00036,0.00018,8e-05,2e-05,5
20178,21101,-0.00014,-8e-05,-1e-05,0.00033,0.00036,0.00018,8e-05,2e-05,5
20179,21102,-0.00014,-8e-05,-1e-05,0.00033,0.00036,0.00018,8e-05,2e-05,5
20180,21103,-0.00014,-8e-05,-1e-05,0.00033,0.00036,0.00018,8e-05,2e-05,5
20181,21104,-0.00014,-8e-05,-1e-05,0.00033,0.00036,0.00018,8e-05,2e-05,5
20182,21105,-0.00014,-8e-05,-1e-05,0.00033,0.00036,0.00018,8e-05,2e-05,5
20183,21106,-0.00014,-8e-05,-1e-05,0.00033,0.00036,0.00018,8e-05,2e-05,5
20184,21107,7e-05,5e-05,0.00023999999999999998,-5e-05,-0.00061,-5.9999999999999995e-05,0.0,4e-05,5
20185,21108,0.00026000000000000003,0.00011,0.0001,0.00041,0.00057,5e-05,-2e-05,2.9999999999999997e-05,5
20186,21109,0.00026000000000000003,0.00011,0.0001,0.00041,0.00057,5e-05,-2e-05,2.9999999999999997e-05,5
20187,21110,0.00026000000000000003,0.00011,0.0001,0.00041,0.00057,5e-05,-2e-05,2.9999999999999997e-05,5
20188,21111,0.00026000000000000003,0.00011,0.0001,0.00041,0.00057,5e-05,-2e-05,2.9999999999999997e-05,5
20189,21112,0.00026000000000000003,0.00011,0.0001,0.00041,0.00057,5e-05,-2e-05,2.9999999999999997e-05,5
20190,21113,0.00026000000000000003,0.00011,0.0001,0.00041,0.00057,5e-05,-2e-05,2.9999999999999997e-05,5
20191,21114,0.00026000000000000003,0.00011,0.0001,0.00041,0.00057,5e-05,-2e-05,2.9999999999999997e-05,5
20192,21115,0.00026000000000000003,0.00011,0.0001,0.00041,0.00057,5e-05,-2e-05,2.9999999999999997e-05,5
20193,21116,0.00026000000000000003,0.00011,0.0001,0.00041,0.00057,5e-05,-2e-05,2.9999999999999997e-05,5
20194,21117,0.00026000000000000003,0.00011,0.0001,0.00041,0.00057,5e-05,-2e-05,2.9999999999999997e-05,5
20195,21118,0.00026000000000000003,0.00011,0.0001,0.00041,0.00057,5e-05,-2e-05,2.9999999999999997e-05,5
20196,21119,0.00026000000000000003,0.00011,0.0001,0.00041,0.00057,5e-05,-2e-05,2.9999999999999997e-05,5
20197,21120,0.00026000000000000003,0.00011,0.0001,0.00041,0.00057,5e-05,-2e-05,2.9999999999999997e-05,5
20198,21121,0.00026000000000000003,0.00011,0.0001,0.00041,0.00057,5e-05,-2e-05,2.9999999999999997e-05,5
20199,21122,0.00026000000000000003,0.00011,0.0001,0.00041,0.00057,5e-05,-2e-05,2.9999999999999997e-05,5
20200,21123,0.00026000000000000003,0.00011,0.0001,0.00041,0.00057,5e-05,-2e-05,2.9999999999999997e-05,5
20201,21124,0.00026000000000000003,0.00011,0.0001,0.00041,0.00057,5e-05,-2e-05,2.9999999999999997e-05,5
20202,21125,0.00026000000000000003,0.00011,0.0001,0.00041,0.00057,5e-05,-2e-05,2.9999999999999997e-05,5
20203,21126,0.00026000000000000003,0.00011,0.0001,0.00041,0.00057,5e-05,-2e-05,2.9999999999999997e-05,5
20204,21127,0.00026000000000000003,0.00011,0.0001,0.00041,0.00057,5e-05,-2e-05,2.9999999999999997e-05,5
20205,21128,0.00026000000000000003,0.00011,0.0001,0.00041,0.00057,5e-05,-2e-05,2.9999999999999997e-05,5
20206,21129,0.00026000000000000003,0.00011,0.0001,0.00041,0.00057,5e-05,-2e-05,2.9999999999999997e-05,5
20207,21130,7e-05,-0.0001,-0.00037999999999999997,-0.00029,4e-05,0.00011,1e-05,0.00011,5
20208,21131,1e-05,-5.9999999999999995e-05,-0.00064,-0.00081,-0.00049,-1e-05,-1e-05,1e-05,5
20209,21132,1e-05,-5.9999999999999995e-05,-0.00064,-0.00081,-0.00049,-1e-05,-1e-05,1e-05,5
20210,21133,1e-05,-5.9999999999999995e-05,-0.00064,-0.00081,-0.00049,-1e-05,-1e-05,1e-05,5
20211,21134,1e-05,-5.9999999999999995e-05,-0.00064,-0.00081,-0.00049,-1e-05,-1e-05,1e-05,5
20212,21135,1e-05,-5.9999999999999995e-05,-0.00064,-0.00081,-0.00049,-1e-05,-1e-05,1e-05,5
20213,21136,1e-05,-5.9999999999999995e-05,-0.00064,-0.00081,-0.00049,-1e-05,-1e-05,1e-05,5
20214,21138,1e-05,-5.9999999999999995e-05,-0.00064,-0.00081,-0.00049,-1e-05,-1e-05,1e-05,5
20215,21139,1e-05,-5.9999999999999995e-05,-0.00064,-0.00081,-0.00049,-1e-05,-1e-05,1e-05,5
20216,21140,1e-05,-5.9999999999999995e-05,-0.00064,-0.00081,-0.00049,-1e-05,-1e-05,1e-05,5
20217,21141,1e-05,-5.9999999999999995e-05,-0.00064,-0.00081,-0.00049,-1e-05,-1e-05,1e-05,5
20218,21142,1e-05,-5.9999999999999995e-05,-0.00064,-0.00081,-0.00049,-1e-05,-1e-05,1e-05,5
20219,21143,1e-05,-5.9999999999999995e-05,-0.00064,-0.00081,-0.00049,-1e-05,-1e-05,1e-05,5
20220,21144,1e-05,-5.9999999999999995e-05,-0.00064,-0.00081,-0.00049,-1e-05,-1e-05,1e-05,5
20221,21145,1e-05,-5.9999999999999995e-05,-0.00064,-0.00081,-0.00049,-1e-05,-1e-05,1e-05,5
20222,21146,1e-05,-5.9999999999999995e-05,-0.00064,-0.00081,-0.00049,-1e-05,-1e-05,1e-05,5
20223,21147,1e-05,-5.9999999999999995e-05,-0.00064,-0.00081,-0.00049,-1e-05,-1e-05,1e-05,5
20224,21148,1e-05,-5.9999999999999995e-05,-0.00064,-0.00081,-0.00049,-1e-05,-1e-05,1e-05,5
20225,21149,1e-05,-5.9999999999999995e-05,-0.00064,-0.00081,-0.00049,-1e-05,-1e-05,1e-05,5
20226,21150,1e-05,-5.9999999999999995e-05,-0.00064,-0.00081,-0.00049,-1e-05,-1e-05,1e-05,5
20227,21151,1e-05,-5.9999999999999995e-05,-0.00064,-0.00081,-0.00049,-1e-05,-1e-05,1e-05,5
20228,21152,1e-05,-5.9999999999999995e-05,-0.00064,-0.00081,-0.00049,-1e-05,-1e-05,1e-05,5
20229,21153,5.9999999999999995e-05,2e-05,0.0003,0.00056,-1e-05,-1e-05,-5.9999999999999995e-05,-4e-05,5
20230,21154,5.9999999999999995e-05,2e-05,0.0003,0.00056,-1e-05,-1e-05,-5.9999999999999995e-05,-4e-05,5
20231,21155,5.9999999999999995e-05,2e-05,0.0003,0.00056,-1e-05,-1e-05,-5.9999999999999995e-05,-4e-05,5
20232,21156,5.9999999999999995e-05,2e-05,0.0003,0.00056,-1e-05,-1e-05,-5.9999999999999995e-05,-4e-05,5
20233,21157,5.9999999999999995e-05,2e-05,0.0003,0.00056,-1e-05,-1e-05,-5.9999999999999995e-05,-4e-05,5
20234,21158,5.9999999999999995e-05,2e-05,0.0003,0.00056,-1e-05,-1e-05,-5.9999999999999995e-05,-4e-05,5
20235,21159,5.9999999999999995e-05,2e-05,0.0003,0.00056,-1e-05,-1e-05,-5.9999999999999995e-05,-4e-05,5
20236,21160,5.9999999999999995e-05,2e-05,0.0003,0.00056,-1e-05,-1e-05,-5.9999999999999995e-05,-4e-05,5
20237,21161,5.9999999999999995e-05,2e-05,0.0003,0.00056,-1e-05,-1e-05,-5.9999999999999995e-05,-4e-05,5
20238,21162,5.9999999999999995e-05,2e-05,0.0003,0.00056,-1e-05,-1e-05,-5.9999999999999995e-05,-4e-05,5
20239,21163,5.9999999999999995e-05,2e-05,0.0003,0.00056,-1e-05,-1e-05,-5.9999999999999995e-05,-4e-05,5
20240,21164,5.9999999999999995e-05,2e-05,0.0003,0.00056,-1e-05,-1e-05,-5.9999999999999995e-05,-4e-05,5
20241,21165,5.9999999999999995e-05,2e-05,0.0003,0.00056,-1e-05,-1e-05,-5.9999999999999995e-05,-4e-05,5
20242,21166,5.9999999999999995e-05,2e-05,0.0003,0.00056,-1e-05,-1e-05,-5.9999999999999995e-05,-4e-05,5
20243,21167,-0.00016,-0.00011999999999999999,0.00015,1e-05,0.0003,0.00025,4e-05,4e-05,5
20244,21168,1e-05,5.9999999999999995e-05,-0.0001,7e-05,-0.00021,-0.00022,-2e-05,5e-05,5
20245,21169,1e-05,5.9999999999999995e-05,-0.0001,7e-05,-0.00021,-0.00022,-2e-05,5e-05,5
20246,21170,1e-05,5.9999999999999995e-05,-0.0001,7e-05,-0.00021,-0.00022,-2e-05,5e-05,5
20247,21171,1e-05,5.9999999999999995e-05,-0.0001,7e-05,-0.00021,-0.00022,-2e-05,5e-05,5
20248,21172,1e-05,5.9999999999999995e-05,-0.0001,7e-05,-0.00021,-0.00022,-2e-05,5e-05,5
20249,21173,1e-05,5.9999999999999995e-05,-0.0001,7e-05,-0.00021,-0.00022,-2e-05,5e-05,5
20250,21174,1e-05,5.9999999999999995e-05,-0.0001,7e-05,-0.00021,-0.00022,-2e-05,5e-05,5
20251,21175,1e-05,5.9999999999999995e-05,-0.0001,7e-05,-0.00021,-0.00022,-2e-05,5e-05,5
20252,21176,1e-05,5.9999999999999995e-05,-0.0001,7e-05,-0.00021,-0.00022,-2e-05,5e-05,5
20253,21177,1e-05,5.9999999999999995e-05,-0.0001,7e-05,-0.00021,-0.00022,-2e-05,5e-05,5
20254,21178,1e-05,5.9999999999999995e-05,-0.0001,7e-05,-0.00021,-0.00022,-2e-05,5e-05,5
20255,21179,1e-05,5.9999999999999995e-05,-0.0001,7e-05,-0.00021,-0.00022,-2e-05,5e-05,5
20256,21180,1e-05,5.9999999999999995e-05,-0.0001,7e-05,-0.00021,-0.00022,-2e-05,5e-05,5
20257,21181,1e-05,5.9999999999999995e-05,-0.0001,7e-05,-0.00021,-0.00022,-2e-05,5e-05,5
20258,21182,1e-05,5.9999999999999995e-05,-0.0001,7e-05,-0.00021,-0.00022,-2e-05,5e-05,5
20259,21183,1e-05,5.9999999999999995e-05,-0.0001,7e-05,-0.00021,-0.00022,-2e-05,5e-05,5
20260,21184,1e-05,5.9999999999999995e-05,-0.0001,7e-05,-0.00021,-0.00022,-2e-05,5e-05,5
20261,21185,1e-05,5.9999999999999995e-05,-0.0001,7e-05,-0.00021,-0.00022,-2e-05,5e-05,5
20262,21186,1e-05,5.9999999999999995e-05,-0.0001,7e-05,-0.00021,-0.00022,-2e-05,5e-05,5
20263,21188,1e-05,5.9999999999999995e-05,-0.0001,7e-05,-0.00021,-0.00022,-2e-05,5e-05,5
20264,21189,1e-05,5.9999999999999995e-05,-0.0001,7e-05,-0.00021,-0.00022,-2e-05,5e-05,5
20265,21190,-8e-05,-7e-05,0.0002,-0.00027,-0.00028,-0.00027,-9e-05,-9e-05,5
20266,21191,4e-05,7e-05,0.00023999999999999998,-0.00037999999999999997,-0.00011,2e-05,1e-05,-2.9999999999999997e-05,5
20267,21192,4e-05,7e-05,0.00023999999999999998,-0.00037999999999999997,-0.00011,2e-05,1e-05,-2.9999999999999997e-05,5
20268,21193,4e-05,7e-05,0.00023999999999999998,-0.00037999999999999997,-0.00011,2e-05,1e-05,-2.9999999999999997e-05,5
20269,21194,4e-05,7e-05,0.00023999999999999998,-0.00037999999999999997,-0.00011,2e-05,1e-05,-2.9999999999999997e-05,5
20270,21195,4e-05,7e-05,0.00023999999999999998,-0.00037999999999999997,-0.00011,2e-05,1e-05,-2.9999999999999997e-05,5
20271,21196,4e-05,7e-05,0.00023999999999999998,-0.00037999999999999997,-0.00011,2e-05,1e-05,-2.9999999999999997e-05,5
20272,21197,4e-05,7e-05,0.00023999999999999998,-0.00037999999999999997,-0.00011,2e-05,1e-05,-2.9999999999999997e-05,5
20273,21198,4e-05,7e-05,0.00023999999999999998,-0.00037999999999999997,-0.00011,2e-05,1e-05,-2.9999999999999997e-05,5
20274,21199,4e-05,7e-05,0.00023999999999999998,-0.00037999999999999997,-0.00011,2e-05,1e-05,-2.9999999999999997e-05,5
20275,21200,4e-05,7e-05,0.00023999999999999998,-0.00037999999999999997,-0.00011,2e-05,1e-05,-2.9999999999999997e-05,5
20276,21201,4e-05,7e-05,0.00023999999999999998,-0.00037999999999999997,-0.00011,2e-05,1e-05,-2.9999999999999997e-05,5
20277,21202,4e-05,7e-05,0.00023999999999999998,-0.00037999999999999997,-0.00011,2e-05,1e-05,-2.9999999999999997e-05,5
20278,21203,4e-05,7e-05,0.00023999999999999998,-0.00037999999999999997,-0.00011,2e-05,1e-05,-2.9999999999999997e-05,5
20279,21204,4e-05,7e-05,0.00023999999999999998,-0.00037999999999999997,-0.00011,2e-05,1e-05,-2.9999999999999997e-05,5
20280,21205,4e-05,7e-05,0.00023999999999999998,-0.00037999999999999997,-0.00011,2e-05,1e-05,-2.9999999999999997e-05,5
20281,21206,4e-05,7e-05,0.00023999999999999998,-0.00037999999999999997,-0.00011,2e-05,1e-05,-2.9999999999999997e-05,5
20282,21207,4e-05,7e-05,0.00023999999999999998,-0.00037999999999999997,-0.00011,2e-05,1e-05,-2.9999999999999997e-05,5
20283,21208,4e-05,7e-05,0.00023999999999999998,-0.00037999999999999997,-0.00011,2e-05,1e-05,-2.9999999999999997e-05,5
20284,21209,4e-05,7e-05,0.00023999999999999998,-0.00037999999999999997,-0.00011,2e-05,1e-05,-2.9999999999999997e-05,5
20285,21210,4e-05,7e-05,0.00023999999999999998,-0.00037999999999999997,-0.00011,2e-05,1e-05,-2.9999999999999997e-05,5
20286,21211,4e-05,7e-05,0.00023999999999999998,-0.00037999999999999997,-0.00011,2e-05,1e-05,-2.9999999999999997e-05,5
20287,21212,4e-05,7e-05,0.00023999999999999998,-0.00037999999999999997,-0.00011,2e-05,1e-05,-2.9999999999999997e-05,5
20288,21213,-0.00016999999999999999,-5e-05,9e-05,-0.00039,-0.0005,2e-05,5.9999999999999995e-05,2e-05,5
20289,21214,-0.00016999999999999999,-5e-05,9e-05,-0.00039,-0.0005,2e-05,5.9999999999999995e-05,2e-05,5
20290,21215,-0.00016999999999999999,-5e-05,9e-05,-0.00039,-0.0005,2e-05,5.9999999999999995e-05,2e-05,5
20291,21216,-0.00016999999999999999,-5e-05,9e-05,-0.00039,-0.0005,2e-05,5.9999999999999995e-05,2e-05,5
20292,21217,-0.00016999999999999999,-5e-05,9e-05,-0.00039,-0.0005,2e-05,5.9999999999999995e-05,2e-05,5
20293,21218,-0.00016999999999999999,-5e-05,9e-05,-0.00039,-0.0005,2e-05,5.9999999999999995e-05,2e-05,5
20294,21219,-0.00016999999999999999,-5e-05,9e-05,-0.00039,-0.0005,2e-05,5.9999999999999995e-05,2e-05,5
20295,21220,-0.00016999999999999999,-5e-05,9e-05,-0.00039,-0.0005,2e-05,5.9999999999999995e-05,2e-05,5
20296,21221,-0.00016999999999999999,-5e-05,9e-05,-0.00039,-0.0005,2e-05,5.9999999999999995e-05,2e-05,5
20297,21222,-0.00016999999999999999,-5e-05,9e-05,-0.00039,-0.0005,2e-05,5.9999999999999995e-05,2e-05,5
20298,21223,-0.00016999999999999999,-5e-05,9e-05,-0.00039,-0.0005,2e-05,5.9999999999999995e-05,2e-05,5
20299,21224,-0.00016999999999999999,-5e-05,9e-05,-0.00039,-0.0005,2e-05,5.9999999999999995e-05,2e-05,5
20300,21225,-0.00016999999999999999,-5e-05,9e-05,-0.00039,-0.0005,2e-05,5.9999999999999995e-05,2e-05,5
20301,21226,-0.00016999999999999999,-5e-05,9e-05,-0.00039,-0.0005,2e-05,5.9999999999999995e-05,2e-05,5
20302,21227,8e-05,-0.00018,-0.00015,-0.00035,0.00016999999999999999,4e-05,8e-05,-1e-05,5
20303,21228,8e-05,-8e-05,-0.00013000000000000002,-0.00029,0.00035,0.0,-5e-05,-7e-05,5
20304,21229,8e-05,-8e-05,-0.00013000000000000002,-0.00029,0.00035,0.0,-5e-05,-7e-05,5
20305,21230,8e-05,-8e-05,-0.00013000000000000002,-0.00029,0.00035,0.0,-5e-05,-7e-05,5
20306,21231,8e-05,-8e-05,-0.00013000000000000002,-0.00029,0.00035,0.0,-5e-05,-7e-05,5
20307,21232,8e-05,-8e-05,-0.00013000000000000002,-0.00029,0.00035,0.0,-5e-05,-7e-05,5
20308,21233,8e-05,-8e-05,-0.00013000000000000002,-0.00029,0.00035,0.0,-5e-05,-7e-05,5
20309,21234,8e-05,-8e-05,-0.00013000000000000002,-0.00029,0.00035,0.0,-5e-05,-7e-05,5
20310,21235,8e-05,-8e-05,-0.00013000000000000002,-0.00029,0.00035,0.0,-5e-05,-7e-05,5
20311,21236,8e-05,-8e-05,-0.00013000000000000002,-0.00029,0.00035,0.0,-5e-05,-7e-05,5
20312,21239,8e-05,-8e-05,-0.00013000000000000002,-0.00029,0.00035,0.0,-5e-05,-7e-05,5
20313,21240,8e-05,-8e-05,-0.00013000000000000002,-0.00029,0.00035,0.0,-5e-05,-7e-05,5
20314,21241,8e-05,-8e-05,-0.00013000000000000002,-0.00029,0.00035,0.0,-5e-05,-7e-05,5
20315,21242,8e-05,-8e-05,-0.00013000000000000002,-0.00029,0.00035,0.0,-5e-05,-7e-05,5
20316,21243,8e-05,-8e-05,-0.00013000000000000002,-0.00029,0.00035,0.0,-5e-05,-7e-05,5
20317,21244,8e-05,-8e-05,-0.00013000000000000002,-0.00029,0.00035,0.0,-5e-05,-7e-05,5
20318,21245,8e-05,-8e-05,-0.00013000000000000002,-0.00029,0.00035,0.0,-5e-05,-7e-05,5
20319,21246,8e-05,-8e-05,-0.00013000000000000002,-0.00029,0.00035,0.0,-5e-05,-7e-05,5
20320,21247,8e-05,-8e-05,-0.00013000000000000002,-0.00029,0.00035,0.0,-5e-05,-7e-05,5
20321,21248,8e-05,-8e-05,-0.00013000000000000002,-0.00029,0.00035,0.0,-5e-05,-7e-05,5
20322,21249,8e-05,-8e-05,-0.00013000000000000002,-0.00029,0.00035,0.0,-5e-05,-7e-05,5
20323,21250,8e-05,-8e-05,-0.00013000000000000002,-0.00029,0.00035,0.0,-5e-05,-7e-05,5
20324,21251,5.9999999999999995e-05,0.00022,-0.0002,-5e-05,0.0006799999999999999,0.00036,0.00011999999999999999,0.00036,5
20325,21252,-5e-05,-5.9999999999999995e-05,0.0001,0.00043,0.0001,-1e-05,-2.9999999999999997e-05,-2e-05,5
20326,21253,-5e-05,-5.9999999999999995e-05,0.0001,0.00043,0.0001,-1e-05,-2.9999999999999997e-05,-2e-05,5
20327,21254,-5e-05,-5.9999999999999995e-05,0.0001,0.00043,0.0001,-1e-05,-2.9999999999999997e-05,-2e-05,5
20328,21255,-5e-05,-5.9999999999999995e-05,0.0001,0.00043,0.0001,-1e-05,-2.9999999999999997e-05,-2e-05,5
20329,21256,-5e-05,-5.9999999999999995e-05,0.0001,0.00043,0.0001,-1e-05,-2.9999999999999997e-05,-2e-05,5
20330,21257,-5e-05,-5.9999999999999995e-05,0.0001,0.00043,0.0001,-1e-05,-2.9999999999999997e-05,-2e-05,5
20331,21258,-5e-05,-5.9999999999999995e-05,0.0001,0.00043,0.0001,-1e-05,-2.9999999999999997e-05,-2e-05,5
20332,21259,-5e-05,-5.9999999999999995e-05,0.0001,0.00043,0.0001,-1e-05,-2.9999999999999997e-05,-2e-05,5
20333,21260,-5e-05,-5.9999999999999995e-05,0.0001,0.00043,0.0001,-1e-05,-2.9999999999999997e-05,-2e-05,5
20334,21261,-5e-05,-5.9999999999999995e-05,0.0001,0.00043,0.0001,-1e-05,-2.9999999999999997e-05,-2e-05,5
20335,21262,-5e-05,-5.9999999999999995e-05,0.0001,0.00043,0.0001,-1e-05,-2.9999999999999997e-05,-2e-05,5
20336,21263,-5e-05,-5.9999999999999995e-05,0.0001,0.00043,0.0001,-1e-05,-2.9999999999999997e-05,-2e-05,5
20337,21264,-5e-05,-5.9999999999999995e-05,0.0001,0.00043,0.0001,-1e-05,-2.9999999999999997e-05,-2e-05,5
20338,21265,-5e-05,-5.9999999999999995e-05,0.0001,0.00043,0.0001,-1e-05,-2.9999999999999997e-05,-2e-05,5
20339,21266,-5e-05,-5.9999999999999995e-05,0.0001,0.00043,0.0001,-1e-05,-2.9999999999999997e-05,-2e-05,5
20340,21267,-5e-05,-5.9999999999999995e-05,0.0001,0.00043,0.0001,-1e-05,-2.9999999999999997e-05,-2e-05,5
20341,21268,-5e-05,-5.9999999999999995e-05,0.0001,0.00043,0.0001,-1e-05,-2.9999999999999997e-05,-2e-05,5
20342,21269,-5e-05,-5.9999999999999995e-05,0.0001,0.00043,0.0001,-1e-05,-2.9999999999999997e-05,-2e-05,5
20343,21270,-5e-05,-5.9999999999999995e-05,0.0001,0.00043,0.0001,-1e-05,-2.9999999999999997e-05,-2e-05,5
20344,21271,-5e-05,-5.9999999999999995e-05,0.0001,0.00043,0.0001,-1e-05,-2.9999999999999997e-05,-2e-05,5
20345,21272,-5e-05,-5.9999999999999995e-05,0.0001,0.00043,0.0001,-1e-05,-2.9999999999999997e-05,-2e-05,5
20346,21273,5e-05,0.00016,-4e-05,2e-05,8e-05,-0.0001,-2e-05,-0.00013000000000000002,5
20347,21274,5e-05,0.00016,-4e-05,2e-05,8e-05,-0.0001,-2e-05,-0.00013000000000000002,5
20348,21275,5e-05,0.00016,-4e-05,2e-05,8e-05,-0.0001,-2e-05,-0.00013000000000000002,5
20349,21276,5e-05,0.00016,-4e-05,2e-05,8e-05,-0.0001,-2e-05,-0.00013000000000000002,5
20350,21277,5e-05,0.00016,-4e-05,2e-05,8e-05,-0.0001,-2e-05,-0.00013000000000000002,5
20351,21278,5e-05,0.00016,-4e-05,2e-05,8e-05,-0.0001,-2e-05,-0.00013000000000000002,5
20352,21279,5e-05,0.00016,-4e-05,2e-05,8e-05,-0.0001,-2e-05,-0.00013000000000000002,5
20353,21280,5e-05,0.00016,-4e-05,2e-05,8e-05,-0.0001,-2e-05,-0.00013000000000000002,5
20354,21281,5e-05,0.00016,-4e-05,2e-05,8e-05,-0.0001,-2e-05,-0.00013000000000000002,5
20355,21282,5e-05,0.00016,-4e-05,2e-05,8e-05,-0.0001,-2e-05,-0.00013000000000000002,5
20356,21283,5e-05,0.00016,-4e-05,2e-05,8e-05,-0.0001,-2e-05,-0.00013000000000000002,5
20357,21284,5e-05,0.00016,-4e-05,2e-05,8e-05,-0.0001,-2e-05,-0.00013000000000000002,5
20358,21285,5e-05,0.00016,-4e-05,2e-05,8e-05,-0.0001,-2e-05,-0.00013000000000000002,5
20359,21286,5e-05,0.00016,-4e-05,2e-05,8e-05,-0.0001,-2e-05,-0.00013000000000000002,5
20360,21289,0.0,2.9999999999999997e-05,-2.9999999999999997e-05,-4e-05,9e-05,0.00013000000000000002,0.0,-5e-05,5
20361,21290,0.0,2.9999999999999997e-05,-2.9999999999999997e-05,-4e-05,9e-05,0.00013000000000000002,0.0,-5e-05,5
20362,21291,0.0,2.9999999999999997e-05,-2.9999999999999997e-05,-4e-05,9e-05,0.00013000000000000002,0.0,-5e-05,5
20363,21292,0.0,2.9999999999999997e-05,-2.9999999999999997e-05,-4e-05,9e-05,0.00013000000000000002,0.0,-5e-05,5
20364,21293,0.0,2.9999999999999997e-05,-2.9999999999999997e-05,-4e-05,9e-05,0.00013000000000000002,0.0,-5e-05,5
20365,21294,0.0,2.9999999999999997e-05,-2.9999999999999997e-05,-4e-05,9e-05,0.00013000000000000002,0.0,-5e-05,5
20366,21295,0.0,2.9999999999999997e-05,-2.9999999999999997e-05,-4e-05,9e-05,0.00013000000000000002,0.0,-5e-05,5
20367,21296,0.0,2.9999999999999997e-05,-2.9999999999999997e-05,-4e-05,9e-05,0.00013000000000000002,0.0,-5e-05,5
20368,21297,0.0,2.9999999999999997e-05,-2.9999999999999997e-05,-4e-05,9e-05,0.00013000000000000002,0.0,-5e-05,5
20369,21298,0.0,2.9999999999999997e-05,-2.9999999999999997e-05,-4e-05,9e-05,0.00013000000000000002,0.0,-5e-05,5
20370,21299,0.0,2.9999999999999997e-05,-2.9999999999999997e-05,-4e-05,9e-05,0.00013000000000000002,0.0,-5e-05,5
20371,21300,0.0,2.9999999999999997e-05,-2.9999999999999997e-05,-4e-05,9e-05,0.00013000000000000002,0.0,-5e-05,5
20372,21301,0.0,2.9999999999999997e-05,-2.9999999999999997e-05,-4e-05,9e-05,0.00013000000000000002,0.0,-5e-05,5
20373,21302,0.0,2.9999999999999997e-05,-2.9999999999999997e-05,-4e-05,9e-05,0.00013000000000000002,0.0,-5e-05,5
20374,21303,0.0,2.9999999999999997e-05,-2.9999999999999997e-05,-4e-05,9e-05,0.00013000000000000002,0.0,-5e-05,5
20375,21304,0.0,2.9999999999999997e-05,-2.9999999999999997e-05,-4e-05,9e-05,0.00013000000000000002,0.0,-5e-05,5
20376,21305,0.0,2.9999999999999997e-05,-2.9999999999999997e-05,-4e-05,9e-05,0.00013000000000000002,0.0,-5e-05,5
20377,21306,0.0,2.9999999999999997e-05,-2.9999999999999997e-05,-4e-05,9e-05,0.00013000000000000002,0.0,-5e-05,5
20378,21307,0.0,2.9999999999999997e-05,-2.9999999999999997e-05,-4e-05,9e-05,0.00013000000000000002,0.0,-5e-05,5
20379,21308,0.0,2.9999999999999997e-05,-2.9999999999999997e-05,-4e-05,9e-05,0.00013000000000000002,0.0,-5e-05,5
20380,21309,0.0,2.9999999999999997e-05,-2.9999999999999997e-05,-4e-05,9e-05,0.00013000000000000002,0.0,-5e-05,5
20381,21310,0.0,2.9999999999999997e-05,-2.9999999999999997e-05,-4e-05,9e-05,0.00013000000000000002,0.0,-5e-05,5
20382,21311,0.0,2.9999999999999997e-05,-2.9999999999999997e-05,-4e-05,9e-05,0.00013000000000000002,0.0,-5e-05,5
20383,21312,0.0,2.9999999999999997e-05,-2.9999999999999997e-05,-4e-05,9e-05,0.00013000000000000002,0.0,-5e-05,5
20384,21313,0.0,2.9999999999999997e-05,-2.9999999999999997e-05,-4e-05,9e-05,0.00013000000000000002,0.0,-5e-05,5
20385,21314,0.0,2.9999999999999997e-05,-2.9999999999999997e-05,-4e-05,9e-05,0.00013000000000000002,0.0,-5e-05,5
20386,21315,0.0,2.9999999999999997e-05,-2.9999999999999997e-05,-4e-05,9e-05,0.00013000000000000002,0.0,-5e-05,5
20387,21316,0.0,2.9999999999999997e-05,-2.9999999999999997e-05,-4e-05,9e-05,0.00013000000000000002,0.0,-5e-05,5
20388,21317,0.0,2.9999999999999997e-05,-2.9999999999999997e-05,-4e-05,9e-05,0.00013000000000000002,0.0,-5e-05,5
20389,21318,0.00011,0.00018999999999999998,0.00037999999999999997,-0.00057,0.00014,0.00011999999999999999,0.00015,0.00021,5
20390,21319,-0.00015,-0.0002,-0.00022,0.0007,0.00037,5.9999999999999995e-05,-5.9999999999999995e-05,-0.00013000000000000002,5
20391,21320,-0.00015,-0.0002,-0.00022,0.0007,0.00037,5.9999999999999995e-05,-5.9999999999999995e-05,-0.00013000000000000002,5
20392,21321,-0.00015,-0.0002,-0.00022,0.0007,0.00037,5.9999999999999995e-05,-5.9999999999999995e-05,-0.00013000000000000002,5
20393,21322,-0.00015,-0.0002,-0.00022,0.0007,0.00037,5.9999999999999995e-05,-5.9999999999999995e-05,-0.00013000000000000002,5
20394,21323,-0.00015,-0.0002,-0.00022,0.0007,0.00037,5.9999999999999995e-05,-5.9999999999999995e-05,-0.00013000000000000002,5
20395,21324,-0.00015,-0.0002,-0.00022,0.0007,0.00037,5.9999999999999995e-05,-5.9999999999999995e-05,-0.00013000000000000002,5
20396,21325,-0.00015,-0.0002,-0.00022,0.0007,0.00037,5.9999999999999995e-05,-5.9999999999999995e-05,-0.00013000000000000002,5
20397,21326,-0.00015,-0.0002,-0.00022,0.0007,0.00037,5.9999999999999995e-05,-5.9999999999999995e-05,-0.00013000000000000002,5
20398,21327,-0.00015,-0.0002,-0.00022,0.0007,0.00037,5.9999999999999995e-05,-5.9999999999999995e-05,-0.00013000000000000002,5
20399,21328,-0.00015,-0.0002,-0.00022,0.0007,0.00037,5.9999999999999995e-05,-5.9999999999999995e-05,-0.00013000000000000002,5
20400,21329,-0.00015,-0.0002,-0.00022,0.0007,0.00037,5.9999999999999995e-05,-5.9999999999999995e-05,-0.00013000000000000002,5
20401,21330,-0.00015,-0.0002,-0.00022,0.0007,0.00037,5.9999999999999995e-05,-5.9999999999999995e-05,-0.00013000000000000002,5
20402,21331,-0.00015,-0.0002,-0.00022,0.0007,0.00037,5.9999999999999995e-05,-5.9999999999999995e-05,-0.00013000000000000002,5
20403,21332,9e-05,-5e-05,0.00018,0.00026000000000000003,0.0004,0.00023999999999999998,5.9999999999999995e-05,0.00013000000000000002,5
20404,21333,0.00013000000000000002,0.00011,0.0003,-2.9999999999999997e-05,-0.00065,-0.00011,-4e-05,0.00018,5
20405,21334,0.00013000000000000002,0.00011,0.0003,-2.9999999999999997e-05,-0.00065,-0.00011,-4e-05,0.00018,5
20406,21335,0.00013000000000000002,0.00011,0.0003,-2.9999999999999997e-05,-0.00065,-0.00011,-4e-05,0.00018,5
20407,21336,0.00013000000000000002,0.00011,0.0003,-2.9999999999999997e-05,-0.00065,-0.00011,-4e-05,0.00018,5
20408,21338,0.00013000000000000002,0.00011,0.0003,-2.9999999999999997e-05,-0.00065,-0.00011,-4e-05,0.00018,5
20409,21339,0.00013000000000000002,0.00011,0.0003,-2.9999999999999997e-05,-0.00065,-0.00011,-4e-05,0.00018,5
20410,21340,0.00013000000000000002,0.00011,0.0003,-2.9999999999999997e-05,-0.00065,-0.00011,-4e-05,0.00018,5
20411,21341,0.00013000000000000002,0.00011,0.0003,-2.9999999999999997e-05,-0.00065,-0.00011,-4e-05,0.00018,5
20412,21342,0.00013000000000000002,0.00011,0.0003,-2.9999999999999997e-05,-0.00065,-0.00011,-4e-05,0.00018,5
20413,21343,0.00013000000000000002,0.00011,0.0003,-2.9999999999999997e-05,-0.00065,-0.00011,-4e-05,0.00018,5
20414,21344,0.00013000000000000002,0.00011,0.0003,-2.9999999999999997e-05,-0.00065,-0.00011,-4e-05,0.00018,5
20415,21345,0.00013000000000000002,0.00011,0.0003,-2.9999999999999997e-05,-0.00065,-0.00011,-4e-05,0.00018,5
20416,21346,0.00013000000000000002,0.00011,0.0003,-2.9999999999999997e-05,-0.00065,-0.00011,-4e-05,0.00018,5
20417,21347,-0.00033,4e-05,-5.9999999999999995e-05,0.00027,-0.00013000000000000002,-1e-05,-1e-05,-0.00037999999999999997,5
20418,21348,-4e-05,-0.00018,0.0,-0.00018,0.0006900000000000001,0.00031,0.0,-0.00011,5
20419,21349,-4e-05,-0.00018,0.0,-0.00018,0.0006900000000000001,0.00031,0.0,-0.00011,5
20420,21350,-4e-05,-0.00018,0.0,-0.00018,0.0006900000000000001,0.00031,0.0,-0.00011,5
20421,21351,-4e-05,-0.00018,0.0,-0.00018,0.0006900000000000001,0.00031,0.0,-0.00011,5
20422,21352,-4e-05,-0.00018,0.0,-0.00018,0.0006900000000000001,0.00031,0.0,-0.00011,5
20423,21353,-4e-05,-0.00018,0.0,-0.00018,0.0006900000000000001,0.00031,0.0,-0.00011,5
20424,21354,-4e-05,-0.00018,0.0,-0.00018,0.0006900000000000001,0.00031,0.0,-0.00011,5
20425,21355,-4e-05,-0.00018,0.0,-0.00018,0.0006900000000000001,0.00031,0.0,-0.00011,5
20426,21356,-4e-05,-0.00018,0.0,-0.00018,0.0006900000000000001,0.00031,0.0,-0.00011,5
20427,21357,-4e-05,-0.00018,0.0,-0.00018,0.0006900000000000001,0.00031,0.0,-0.00011,5
20428,21358,-4e-05,-0.00018,0.0,-0.00018,0.0006900000000000001,0.00031,0.0,-0.00011,5
20429,21359,-4e-05,-0.00018,0.0,-0.00018,0.0006900000000000001,0.00031,0.0,-0.00011,5
20430,21360,-4e-05,-0.00018,0.0,-0.00018,0.0006900000000000001,0.00031,0.0,-0.00011,5
20431,21361,-4e-05,-0.00018,0.0,-0.00018,0.0006900000000000001,0.00031,0.0,-0.00011,5
20432,21362,-4e-05,-0.00018,0.0,-0.00018,0.0006900000000000001,0.00031,0.0,-0.00011,5
20433,21363,-4e-05,-0.00018,0.0,-0.00018,0.0006900000000000001,0.00031,0.0,-0.00011,5
20434,21364,-4e-05,-0.00018,0.0,-0.00018,0.0006900000000000001,0.00031,0.0,-0.00011,5
20435,21365,-4e-05,-0.00018,0.0,-0.00018,0.0006900000000000001,0.00031,0.0,-0.00011,5
20436,21366,-4e-05,-0.00018,0.0,-0.00018,0.0006900000000000001,0.00031,0.0,-0.00011,5
20437,21367,-4e-05,-0.00018,0.0,-0.00018,0.0006900000000000001,0.00031,0.0,-0.00011,5
20438,21368,-4e-05,-0.00018,0.0,-0.00018,0.0006900000000000001,0.00031,0.0,-0.00011,5
20439,21369,-4e-05,-0.00018,0.0,-0.00018,0.0006900000000000001,0.00031,0.0,-0.00011,5
20440,21370,-4e-05,-0.00018,0.0,-0.00018,0.0006900000000000001,0.00031,0.0,-0.00011,5
20441,21371,-4e-05,-0.00018,0.0,-0.00018,0.0006900000000000001,0.00031,0.0,-0.00011,5
20442,21372,-4e-05,-0.00018,0.0,-0.00018,0.0006900000000000001,0.00031,0.0,-0.00011,5
20443,21373,-4e-05,-0.00018,0.0,-0.00018,0.0006900000000000001,0.00031,0.0,-0.00011,5
20444,21374,-4e-05,-0.00018,0.0,-0.00018,0.0006900000000000001,0.00031,0.0,-0.00011,5
20445,21375,-4e-05,-0.00018,0.0,-0.00018,0.0006900000000000001,0.00031,0.0,-0.00011,5
20446,21376,-4e-05,-0.00018,0.0,-0.00018,0.0006900000000000001,0.00031,0.0,-0.00011,5
20447,21377,-5.9999999999999995e-05,0.00025,0.00022999999999999998,0.00028,-0.00064,-0.00033,-0.00022999999999999998,-0.00013000000000000002,5
20448,21378,0.00021,0.00011999999999999999,7e-05,-4e-05,1e-05,-0.00013000000000000002,-8e-05,2.9999999999999997e-05,5
20449,21379,-0.00037,-0.00023999999999999998,-0.00023999999999999998,-0.00016999999999999999,-0.00018999999999999998,0.0,-0.00011,-0.0004,5
20450,21380,-0.00021,2.9999999999999997e-05,9e-05,0.00041,-0.00042,-5.9999999999999995e-05,4e-05,0.00011,5
20451,21381,-0.00021,2.9999999999999997e-05,9e-05,0.00041,-0.00042,-5.9999999999999995e-05,4e-05,0.00011,5
20452,21382,-0.00021,2.9999999999999997e-05,9e-05,0.00041,-0.00042,-5.9999999999999995e-05,4e-05,0.00011,5
20453,21383,-0.00021,2.9999999999999997e-05,9e-05,0.00041,-0.00042,-5.9999999999999995e-05,4e-05,0.00011,5
20454,21384,-0.00021,2.9999999999999997e-05,9e-05,0.00041,-0.00042,-5.9999999999999995e-05,4e-05,0.00011,5
20455,21385,-0.00021,2.9999999999999997e-05,9e-05,0.00041,-0.00042,-5.9999999999999995e-05,4e-05,0.00011,5
20456,21386,-0.00021,2.9999999999999997e-05,9e-05,0.00041,-0.00042,-5.9999999999999995e-05,4e-05,0.00011,5
20457,21389,-0.00021,2.9999999999999997e-05,9e-05,0.00041,-0.00042,-5.9999999999999995e-05,4e-05,0.00011,5
20458,21390,-0.00021,2.9999999999999997e-05,9e-05,0.00041,-0.00042,-5.9999999999999995e-05,4e-05,0.00011,5
20459,21391,-0.00021,2.9999999999999997e-05,9e-05,0.00041,-0.00042,-5.9999999999999995e-05,4e-05,0.00011,5
20460,21392,-0.00021,2.9999999999999997e-05,9e-05,0.00041,-0.00042,-5.9999999999999995e-05,4e-05,0.00011,5
20461,21393,-0.0001,-0.00015,0.0,0.00065,0.0002,-0.00018999999999999998,-9e-05,1e-05,5
20462,21395,-0.0001,-0.00015,0.0,0.00065,0.0002,-0.00018999999999999998,-9e-05,1e-05,5
20463,21396,-0.0001,-0.00015,0.0,0.00065,0.0002,-0.00018999999999999998,-9e-05,1e-05,5
20464,21397,-0.0001,-0.00015,0.0,0.00065,0.0002,-0.00018999999999999998,-9e-05,1e-05,5
20465,21398,-0.0001,-0.00015,0.0,0.00065,0.0002,-0.00018999999999999998,-9e-05,1e-05,5
20466,21399,-0.0001,-0.00015,0.0,0.00065,0.0002,-0.00018999999999999998,-9e-05,1e-05,5
20467,21400,-0.0001,-0.00015,0.0,0.00065,0.0002,-0.00018999999999999998,-9e-05,1e-05,5
20468,21401,-0.0001,-0.00015,0.0,0.00065,0.0002,-0.00018999999999999998,-9e-05,1e-05,5
20469,21402,-0.0001,-0.00015,0.0,0.00065,0.0002,-0.00018999999999999998,-9e-05,1e-05,5
20470,21403,-0.0001,-0.00015,0.0,0.00065,0.0002,-0.00018999999999999998,-9e-05,1e-05,5
20471,21404,-0.0001,-0.00015,0.0,0.00065,0.0002,-0.00018999999999999998,-9e-05,1e-05,5
20472,21405,-0.0001,-0.00015,0.0,0.00065,0.0002,-0.00018999999999999998,-9e-05,1e-05,5
20473,21406,-0.0001,-0.00015,0.0,0.00065,0.0002,-0.00018999999999999998,-9e-05,1e-05,5
20474,21407,-1e-05,-4e-05,0.00011,0.00021,0.00072,0.00018,5.9999999999999995e-05,-0.0002,5
20475,21408,8e-05,-2e-05,-0.00025,-0.00047000000000000004,-0.00011999999999999999,-7e-05,-2e-05,8e-05,5
20476,21409,8e-05,-2e-05,-0.00025,-0.00047000000000000004,-0.00011999999999999999,-7e-05,-2e-05,8e-05,5
20477,21410,8e-05,-2e-05,-0.00025,-0.00047000000000000004,-0.00011999999999999999,-7e-05,-2e-05,8e-05,5
20478,21411,8e-05,-2e-05,-0.00025,-0.00047000000000000004,-0.00011999999999999999,-7e-05,-2e-05,8e-05,5
20479,21412,8e-05,-2e-05,-0.00025,-0.00047000000000000004,-0.00011999999999999999,-7e-05,-2e-05,8e-05,5
20480,21413,8e-05,-2e-05,-0.00025,-0.00047000000000000004,-0.00011999999999999999,-7e-05,-2e-05,8e-05,5
20481,21414,8e-05,-2e-05,-0.00025,-0.00047000000000000004,-0.00011999999999999999,-7e-05,-2e-05,8e-05,5
20482,21415,8e-05,-2e-05,-0.00025,-0.00047000000000000004,-0.00011999999999999999,-7e-05,-2e-05,8e-05,5
20483,21416,8e-05,-2e-05,-0.00025,-0.00047000000000000004,-0.00011999999999999999,-7e-05,-2e-05,8e-05,5
20484,21417,8e-05,-2e-05,-0.00025,-0.00047000000000000004,-0.00011999999999999999,-7e-05,-2e-05,8e-05,5
20485,21418,8e-05,-2e-05,-0.00025,-0.00047000000000000004,-0.00011999999999999999,-7e-05,-2e-05,8e-05,5
20486,21419,8e-05,-2e-05,-0.00025,-0.00047000000000000004,-0.00011999999999999999,-7e-05,-2e-05,8e-05,5
20487,21420,8e-05,-2e-05,-0.00025,-0.00047000000000000004,-0.00011999999999999999,-7e-05,-2e-05,8e-05,5
20488,21421,8e-05,-2e-05,-0.00025,-0.00047000000000000004,-0.00011999999999999999,-7e-05,-2e-05,8e-05,5
20489,21422,8e-05,-2e-05,-0.00025,-0.00047000000000000004,-0.00011999999999999999,-7e-05,-2e-05,8e-05,5
20490,21423,8e-05,-2e-05,-0.00025,-0.00047000000000000004,-0.00011999999999999999,-7e-05,-2e-05,8e-05,5
20491,21424,8e-05,-2e-05,-0.00025,-0.00047000000000000004,-0.00011999999999999999,-7e-05,-2e-05,8e-05,5
20492,21425,8e-05,-2e-05,-0.00025,-0.00047000000000000004,-0.00011999999999999999,-7e-05,-2e-05,8e-05,5
20493,21426,8e-05,-2e-05,-0.00025,-0.00047000000000000004,-0.00011999999999999999,-7e-05,-2e-05,8e-05,5
20494,21427,8e-05,-2e-05,-0.00025,-0.00047000000000000004,-0.00011999999999999999,-7e-05,-2e-05,8e-05,5
20495,21428,8e-05,-2e-05,-0.00025,-0.00047000000000000004,-0.00011999999999999999,-7e-05,-2e-05,8e-05,5
20496,21429,8e-05,-2e-05,-0.00025,-0.00047000000000000004,-0.00011999999999999999,-7e-05,-2e-05,8e-05,5
20497,21430,8e-05,-2e-05,-0.00025,-0.00047000000000000004,-0.00011999999999999999,-7e-05,-2e-05,8e-05,5
20498,21431,0.00023999999999999998,0.00015,0.00018999999999999998,2.9999999999999997e-05,0.0008900000000000001,1e-05,-8e-05,-0.0002,5
20499,21432,0.00023999999999999998,0.00015,0.00018999999999999998,2.9999999999999997e-05,0.0008900000000000001,1e-05,-8e-05,-0.0002,5
20500,21433,0.00023999999999999998,0.00015,0.00018999999999999998,2.9999999999999997e-05,0.0008900000000000001,1e-05,-8e-05,-0.0002,5
20501,21434,0.00023999999999999998,0.00015,0.00018999999999999998,2.9999999999999997e-05,0.0008900000000000001,1e-05,-8e-05,-0.0002,5
20502,21435,0.00023999999999999998,0.00015,0.00018999999999999998,2.9999999999999997e-05,0.0008900000000000001,1e-05,-8e-05,-0.0002,5
20503,21436,0.00023999999999999998,0.00015,0.00018999999999999998,2.9999999999999997e-05,0.0008900000000000001,1e-05,-8e-05,-0.0002,5
20504,21438,0.00023999999999999998,0.00015,0.00018999999999999998,2.9999999999999997e-05,0.0008900000000000001,1e-05,-8e-05,-0.0002,5
20505,21439,0.00023999999999999998,0.00015,0.00018999999999999998,2.9999999999999997e-05,0.0008900000000000001,1e-05,-8e-05,-0.0002,5
20506,21440,0.00023999999999999998,0.00015,0.00018999999999999998,2.9999999999999997e-05,0.0008900000000000001,1e-05,-8e-05,-0.0002,5
20507,21441,0.00023999999999999998,0.00015,0.00018999999999999998,2.9999999999999997e-05,0.0008900000000000001,1e-05,-8e-05,-0.0002,5
20508,21442,0.00023999999999999998,0.00015,0.00018999999999999998,2.9999999999999997e-05,0.0008900000000000001,1e-05,-8e-05,-0.0002,5
20509,21443,0.00023999999999999998,0.00015,0.00018999999999999998,2.9999999999999997e-05,0.0008900000000000001,1e-05,-8e-05,-0.0002,5
20510,21444,0.00023999999999999998,0.00015,0.00018999999999999998,2.9999999999999997e-05,0.0008900000000000001,1e-05,-8e-05,-0.0002,5
20511,21445,0.00023999999999999998,0.00015,0.00018999999999999998,2.9999999999999997e-05,0.0008900000000000001,1e-05,-8e-05,-0.0002,5
20512,21446,0.00023999999999999998,0.00015,0.00018999999999999998,2.9999999999999997e-05,0.0008900000000000001,1e-05,-8e-05,-0.0002,5
20513,21447,0.00023999999999999998,0.00015,0.00018999999999999998,2.9999999999999997e-05,0.0008900000000000001,1e-05,-8e-05,-0.0002,5
20514,21448,0.00023999999999999998,0.00015,0.00018999999999999998,2.9999999999999997e-05,0.0008900000000000001,1e-05,-8e-05,-0.0002,5
20515,21449,0.00023999999999999998,0.00015,0.00018999999999999998,2.9999999999999997e-05,0.0008900000000000001,1e-05,-8e-05,-0.0002,5
20516,21450,0.00023999999999999998,0.00015,0.00018999999999999998,2.9999999999999997e-05,0.0008900000000000001,1e-05,-8e-05,-0.0002,5
20517,21451,0.00023999999999999998,0.00015,0.00018999999999999998,2.9999999999999997e-05,0.0008900000000000001,1e-05,-8e-05,-0.0002,5
20518,21452,0.00023999999999999998,0.00015,0.00018999999999999998,2.9999999999999997e-05,0.0008900000000000001,1e-05,-8e-05,-0.0002,5
20519,21453,0.00013000000000000002,0.00018,0.00021,-0.00032,-0.00049,-0.0003,-2e-05,0.0005,5
20520,21454,0.00013000000000000002,0.00018,0.00021,-0.00032,-0.00049,-0.0003,-2e-05,0.0005,5
20521,21455,0.00013000000000000002,0.00018,0.00021,-0.00032,-0.00049,-0.0003,-2e-05,0.0005,5
20522,21456,0.00013000000000000002,0.00018,0.00021,-0.00032,-0.00049,-0.0003,-2e-05,0.0005,5
20523,21457,0.00013000000000000002,0.00018,0.00021,-0.00032,-0.00049,-0.0003,-2e-05,0.0005,5
20524,21458,0.00013000000000000002,0.00018,0.00021,-0.00032,-0.00049,-0.0003,-2e-05,0.0005,5
20525,21459,0.00013000000000000002,0.00018,0.00021,-0.00032,-0.00049,-0.0003,-2e-05,0.0005,5
20526,21460,0.00013000000000000002,0.00018,0.00021,-0.00032,-0.00049,-0.0003,-2e-05,0.0005,5
20527,21461,0.00013000000000000002,0.00018,0.00021,-0.00032,-0.00049,-0.0003,-2e-05,0.0005,5
20528,21462,0.00013000000000000002,0.00018,0.00021,-0.00032,-0.00049,-0.0003,-2e-05,0.0005,5
20529,21463,0.00013000000000000002,0.00018,0.00021,-0.00032,-0.00049,-0.0003,-2e-05,0.0005,5
20530,21464,0.00013000000000000002,0.00018,0.00021,-0.00032,-0.00049,-0.0003,-2e-05,0.0005,5
20531,21465,0.00013000000000000002,0.00018,0.00021,-0.00032,-0.00049,-0.0003,-2e-05,0.0005,5
20532,21466,0.00013000000000000002,0.00018,0.00021,-0.00032,-0.00049,-0.0003,-2e-05,0.0005,5
20533,21467,0.0,5.9999999999999995e-05,0.00011999999999999999,-0.00029,0.00016,0.00031,0.00013000000000000002,0.00018999999999999998,5
20534,21468,-9e-05,-1e-05,-1e-05,0.00023999999999999998,-0.00033999999999999997,-2.9999999999999997e-05,-5e-05,-0.00032,5
20535,21469,-9e-05,-1e-05,-1e-05,0.00023999999999999998,-0.00033999999999999997,-2.9999999999999997e-05,-5e-05,-0.00032,5
20536,21470,-9e-05,-1e-05,-1e-05,0.00023999999999999998,-0.00033999999999999997,-2.9999999999999997e-05,-5e-05,-0.00032,5
20537,21471,-9e-05,-1e-05,-1e-05,0.00023999999999999998,-0.00033999999999999997,-2.9999999999999997e-05,-5e-05,-0.00032,5
20538,21472,-9e-05,-1e-05,-1e-05,0.00023999999999999998,-0.00033999999999999997,-2.9999999999999997e-05,-5e-05,-0.00032,5
20539,21473,-9e-05,-1e-05,-1e-05,0.00023999999999999998,-0.00033999999999999997,-2.9999999999999997e-05,-5e-05,-0.00032,5
20540,21474,-9e-05,-1e-05,-1e-05,0.00023999999999999998,-0.00033999999999999997,-2.9999999999999997e-05,-5e-05,-0.00032,5
20541,21475,-9e-05,-1e-05,-1e-05,0.00023999999999999998,-0.00033999999999999997,-2.9999999999999997e-05,-5e-05,-0.00032,5
20542,21476,-9e-05,-1e-05,-1e-05,0.00023999999999999998,-0.00033999999999999997,-2.9999999999999997e-05,-5e-05,-0.00032,5
20543,21477,-9e-05,-1e-05,-1e-05,0.00023999999999999998,-0.00033999999999999997,-2.9999999999999997e-05,-5e-05,-0.00032,5
20544,21478,-9e-05,-1e-05,-1e-05,0.00023999999999999998,-0.00033999999999999997,-2.9999999999999997e-05,-5e-05,-0.00032,5
20545,21479,-9e-05,-1e-05,-1e-05,0.00023999999999999998,-0.00033999999999999997,-2.9999999999999997e-05,-5e-05,-0.00032,5
20546,21480,-9e-05,-1e-05,-1e-05,0.00023999999999999998,-0.00033999999999999997,-2.9999999999999997e-05,-5e-05,-0.00032,5
20547,21481,-9e-05,-1e-05,-1e-05,0.00023999999999999998,-0.00033999999999999997,-2.9999999999999997e-05,-5e-05,-0.00032,5
20548,21482,-9e-05,-1e-05,-1e-05,0.00023999999999999998,-0.00033999999999999997,-2.9999999999999997e-05,-5e-05,-0.00032,5
20549,21483,-9e-05,-1e-05,-1e-05,0.00023999999999999998,-0.00033999999999999997,-2.9999999999999997e-05,-5e-05,-0.00032,5
20550,21484,-9e-05,-1e-05,-1e-05,0.00023999999999999998,-0.00033999999999999997,-2.9999999999999997e-05,-5e-05,-0.00032,5
20551,21485,-9e-05,-1e-05,-1e-05,0.00023999999999999998,-0.00033999999999999997,-2.9999999999999997e-05,-5e-05,-0.00032,5
20552,21486,-9e-05,-1e-05,-1e-05,0.00023999999999999998,-0.00033999999999999997,-2.9999999999999997e-05,-5e-05,-0.00032,5
20553,21488,-9e-05,-1e-05,-1e-05,0.00023999999999999998,-0.00033999999999999997,-2.9999999999999997e-05,-5e-05,-0.00032,5
20554,21489,-9e-05,-1e-05,-1e-05,0.00023999999999999998,-0.00033999999999999997,-2.9999999999999997e-05,-5e-05,-0.00032,5
20555,21490,-9e-05,-1e-05,-1e-05,0.00023999999999999998,-0.00033999999999999997,-2.9999999999999997e-05,-5e-05,-0.00032,5
20556,21491,-0.00016999999999999999,-4e-05,-0.00022,-0.0005,-5e-05,0.00014,1e-05,-0.00013000000000000002,5
20557,21492,-0.00016999999999999999,-4e-05,-0.00022,-0.0005,-5e-05,0.00014,1e-05,-0.00013000000000000002,5
20558,21493,-0.00016999999999999999,-4e-05,-0.00022,-0.0005,-5e-05,0.00014,1e-05,-0.00013000000000000002,5
20559,21494,-0.00016999999999999999,-4e-05,-0.00022,-0.0005,-5e-05,0.00014,1e-05,-0.00013000000000000002,5
20560,21495,-0.00016999999999999999,-4e-05,-0.00022,-0.0005,-5e-05,0.00014,1e-05,-0.00013000000000000002,5
20561,21496,-0.00016999999999999999,-4e-05,-0.00022,-0.0005,-5e-05,0.00014,1e-05,-0.00013000000000000002,5
20562,21497,-0.00016999999999999999,-4e-05,-0.00022,-0.0005,-5e-05,0.00014,1e-05,-0.00013000000000000002,5
20563,21498,-0.00016999999999999999,-4e-05,-0.00022,-0.0005,-5e-05,0.00014,1e-05,-0.00013000000000000002,5
20564,21499,-0.00016999999999999999,-4e-05,-0.00022,-0.0005,-5e-05,0.00014,1e-05,-0.00013000000000000002,5
20565,21500,-0.00016999999999999999,-4e-05,-0.00022,-0.0005,-5e-05,0.00014,1e-05,-0.00013000000000000002,5
20566,21501,-0.00016999999999999999,-4e-05,-0.00022,-0.0005,-5e-05,0.00014,1e-05,-0.00013000000000000002,5
20567,21502,-0.00016999999999999999,-4e-05,-0.00022,-0.0005,-5e-05,0.00014,1e-05,-0.00013000000000000002,5
20568,21503,-0.00016999999999999999,-4e-05,-0.00022,-0.0005,-5e-05,0.00014,1e-05,-0.00013000000000000002,5
20569,21504,-0.00016999999999999999,-4e-05,-0.00022,-0.0005,-5e-05,0.00014,1e-05,-0.00013000000000000002,5
20570,21505,-0.00016999999999999999,-4e-05,-0.00022,-0.0005,-5e-05,0.00014,1e-05,-0.00013000000000000002,5
20571,21506,-0.00016999999999999999,-4e-05,-0.00022,-0.0005,-5e-05,0.00014,1e-05,-0.00013000000000000002,5
20572,21507,-0.00016999999999999999,-4e-05,-0.00022,-0.0005,-5e-05,0.00014,1e-05,-0.00013000000000000002,5
20573,21508,-0.00016999999999999999,-4e-05,-0.00022,-0.0005,-5e-05,0.00014,1e-05,-0.00013000000000000002,5
20574,21509,-0.00016999999999999999,-4e-05,-0.00022,-0.0005,-5e-05,0.00014,1e-05,-0.00013000000000000002,5
20575,21510,-0.00016999999999999999,-4e-05,-0.00022,-0.0005,-5e-05,0.00014,1e-05,-0.00013000000000000002,5
20576,21511,-0.00016999999999999999,-4e-05,-0.00022,-0.0005,-5e-05,0.00014,1e-05,-0.00013000000000000002,5
20577,21512,-0.00016999999999999999,-4e-05,-0.00022,-0.0005,-5e-05,0.00014,1e-05,-0.00013000000000000002,5
20578,21513,-1e-05,2e-05,0.00011,5.9999999999999995e-05,-2.9999999999999997e-05,0.00018999999999999998,4e-05,5e-05,5
20579,21514,0.00021,2.9999999999999997e-05,-0.00036,-0.00036,-4e-05,-7e-05,-4e-05,-2.9999999999999997e-05,5
20580,21515,0.00021,2.9999999999999997e-05,-0.00036,-0.00036,-4e-05,-7e-05,-4e-05,-2.9999999999999997e-05,5
20581,21516,0.00021,2.9999999999999997e-05,-0.00036,-0.00036,-4e-05,-7e-05,-4e-05,-2.9999999999999997e-05,5
20582,21517,0.00021,2.9999999999999997e-05,-0.00036,-0.00036,-4e-05,-7e-05,-4e-05,-2.9999999999999997e-05,5
20583,21518,0.00021,2.9999999999999997e-05,-0.00036,-0.00036,-4e-05,-7e-05,-4e-05,-2.9999999999999997e-05,5
20584,21519,0.00021,2.9999999999999997e-05,-0.00036,-0.00036,-4e-05,-7e-05,-4e-05,-2.9999999999999997e-05,5
20585,21520,0.00021,2.9999999999999997e-05,-0.00036,-0.00036,-4e-05,-7e-05,-4e-05,-2.9999999999999997e-05,5
20586,21521,0.00021,2.9999999999999997e-05,-0.00036,-0.00036,-4e-05,-7e-05,-4e-05,-2.9999999999999997e-05,5
20587,21522,0.00021,2.9999999999999997e-05,-0.00036,-0.00036,-4e-05,-7e-05,-4e-05,-2.9999999999999997e-05,5
20588,21523,0.00021,2.9999999999999997e-05,-0.00036,-0.00036,-4e-05,-7e-05,-4e-05,-2.9999999999999997e-05,5
20589,21524,0.00021,2.9999999999999997e-05,-0.00036,-0.00036,-4e-05,-7e-05,-4e-05,-2.9999999999999997e-05,5
20590,21525,0.00021,2.9999999999999997e-05,-0.00036,-0.00036,-4e-05,-7e-05,-4e-05,-2.9999999999999997e-05,5
20591,21526,0.00021,2.9999999999999997e-05,-0.00036,-0.00036,-4e-05,-7e-05,-4e-05,-2.9999999999999997e-05,5
20592,21527,0.00021,2.9999999999999997e-05,-0.00036,-0.00036,-4e-05,-7e-05,-4e-05,-2.9999999999999997e-05,5
20593,21528,0.00021,2.9999999999999997e-05,-0.00036,-0.00036,-4e-05,-7e-05,-4e-05,-2.9999999999999997e-05,5
20594,21529,0.00021,2.9999999999999997e-05,-0.00036,-0.00036,-4e-05,-7e-05,-4e-05,-2.9999999999999997e-05,5
20595,21530,0.00021,2.9999999999999997e-05,-0.00036,-0.00036,-4e-05,-7e-05,-4e-05,-2.9999999999999997e-05,5
20596,21531,0.00021,2.9999999999999997e-05,-0.00036,-0.00036,-4e-05,-7e-05,-4e-05,-2.9999999999999997e-05,5
20597,21532,0.00021,2.9999999999999997e-05,-0.00036,-0.00036,-4e-05,-7e-05,-4e-05,-2.9999999999999997e-05,5
20598,21533,0.00021,2.9999999999999997e-05,-0.00036,-0.00036,-4e-05,-7e-05,-4e-05,-2.9999999999999997e-05,5
20599,21534,0.00021,2.9999999999999997e-05,-0.00036,-0.00036,-4e-05,-7e-05,-4e-05,-2.9999999999999997e-05,5
20600,21535,-0.00037,-0.00023999999999999998,-0.00011,-0.00043,-0.00018999999999999998,-8e-05,-0.00014,-0.00065,5
20601,21536,-0.00015,-0.00037999999999999997,0.00014,5e-05,0.00043,-0.00014,-2.9999999999999997e-05,7e-05,5
20602,21538,-0.00015,-0.00037999999999999997,0.00014,5e-05,0.00043,-0.00014,-2.9999999999999997e-05,7e-05,5
20603,21539,-0.00015,-0.00037999999999999997,0.00014,5e-05,0.00043,-0.00014,-2.9999999999999997e-05,7e-05,5
20604,21540,-0.00015,-0.00037999999999999997,0.00014,5e-05,0.00043,-0.00014,-2.9999999999999997e-05,7e-05,5
20605,21541,-0.00015,-0.00037999999999999997,0.00014,5e-05,0.00043,-0.00014,-2.9999999999999997e-05,7e-05,5
20606,21542,-0.00015,-0.00037999999999999997,0.00014,5e-05,0.00043,-0.00014,-2.9999999999999997e-05,7e-05,5
20607,21543,-0.00015,-0.00037999999999999997,0.00014,5e-05,0.00043,-0.00014,-2.9999999999999997e-05,7e-05,5
20608,21544,-0.00015,-0.00037999999999999997,0.00014,5e-05,0.00043,-0.00014,-2.9999999999999997e-05,7e-05,5
20609,21545,-0.00015,-0.00037999999999999997,0.00014,5e-05,0.00043,-0.00014,-2.9999999999999997e-05,7e-05,5
20610,21546,-0.00015,-0.00037999999999999997,0.00014,5e-05,0.00043,-0.00014,-2.9999999999999997e-05,7e-05,5
20611,21547,-0.00015,-0.00037999999999999997,0.00014,5e-05,0.00043,-0.00014,-2.9999999999999997e-05,7e-05,5
20612,21548,-0.00015,-0.00037999999999999997,0.00014,5e-05,0.00043,-0.00014,-2.9999999999999997e-05,7e-05,5
20613,21549,-0.00015,-0.00037999999999999997,0.00014,5e-05,0.00043,-0.00014,-2.9999999999999997e-05,7e-05,5
20614,21550,7e-05,0.00011999999999999999,-0.00011,4e-05,0.00031,0.00014,8e-05,0.00018999999999999998,5
20615,21551,0.00027,8e-05,-8e-05,0.00016,-0.00031,0.00016,1e-05,-5e-05,5
20616,21552,0.00027,8e-05,-8e-05,0.00016,-0.00031,0.00016,1e-05,-5e-05,5
20617,21553,0.00027,8e-05,-8e-05,0.00016,-0.00031,0.00016,1e-05,-5e-05,5
20618,21554,0.00027,8e-05,-8e-05,0.00016,-0.00031,0.00016,1e-05,-5e-05,5
20619,21555,0.00027,8e-05,-8e-05,0.00016,-0.00031,0.00016,1e-05,-5e-05,5
20620,21556,0.00027,8e-05,-8e-05,0.00016,-0.00031,0.00016,1e-05,-5e-05,5
20621,21557,0.00027,8e-05,-8e-05,0.00016,-0.00031,0.00016,1e-05,-5e-05,5
20622,21558,0.00027,8e-05,-8e-05,0.00016,-0.00031,0.00016,1e-05,-5e-05,5
20623,21559,0.00027,8e-05,-8e-05,0.00016,-0.00031,0.00016,1e-05,-5e-05,5
20624,21560,0.00027,8e-05,-8e-05,0.00016,-0.00031,0.00016,1e-05,-5e-05,5
20625,21561,0.00027,8e-05,-8e-05,0.00016,-0.00031,0.00016,1e-05,-5e-05,5
20626,21562,0.00027,8e-05,-8e-05,0.00016,-0.00031,0.00016,1e-05,-5e-05,5
20627,21563,0.00027,8e-05,-8e-05,0.00016,-0.00031,0.00016,1e-05,-5e-05,5
20628,21564,0.00027,8e-05,-8e-05,0.00016,-0.00031,0.00016,1e-05,-5e-05,5
20629,21565,0.00027,8e-05,-8e-05,0.00016,-0.00031,0.00016,1e-05,-5e-05,5
20630,21566,0.00027,8e-05,-8e-05,0.00016,-0.00031,0.00016,1e-05,-5e-05,5
20631,21567,0.00027,8e-05,-8e-05,0.00016,-0.00031,0.00016,1e-05,-5e-05,5
20632,21568,0.00027,8e-05,-8e-05,0.00016,-0.00031,0.00016,1e-05,-5e-05,5
20633,21569,0.00027,8e-05,-8e-05,0.00016,-0.00031,0.00016,1e-05,-5e-05,5
20634,21570,0.00027,8e-05,-8e-05,0.00016,-0.00031,0.00016,1e-05,-5e-05,5
20635,21571,0.00027,8e-05,-8e-05,0.00016,-0.00031,0.00016,1e-05,-5e-05,5
20636,21572,0.00027,8e-05,-8e-05,0.00016,-0.00031,0.00016,1e-05,-5e-05,5
20637,21573,8e-05,9e-05,-9e-05,-0.00088,8e-05,0.00016,0.00014,7e-05,5
20638,21574,8e-05,9e-05,-9e-05,-0.00088,8e-05,0.00016,0.00014,7e-05,5
20639,21575,8e-05,9e-05,-9e-05,-0.00088,8e-05,0.00016,0.00014,7e-05,5
20640,21576,8e-05,9e-05,-9e-05,-0.00088,8e-05,0.00016,0.00014,7e-05,5
20641,21577,8e-05,9e-05,-9e-05,-0.00088,8e-05,0.00016,0.00014,7e-05,5
20642,21578,8e-05,9e-05,-9e-05,-0.00088,8e-05,0.00016,0.00014,7e-05,5
20643,21579,8e-05,9e-05,-9e-05,-0.00088,8e-05,0.00016,0.00014,7e-05,5
20644,21580,8e-05,9e-05,-9e-05,-0.00088,8e-05,0.00016,0.00014,7e-05,5
20645,21581,8e-05,9e-05,-9e-05,-0.00088,8e-05,0.00016,0.00014,7e-05,5
20646,21582,8e-05,9e-05,-9e-05,-0.00088,8e-05,0.00016,0.00014,7e-05,5
20647,21583,8e-05,9e-05,-9e-05,-0.00088,8e-05,0.00016,0.00014,7e-05,5
20648,21584,8e-05,9e-05,-9e-05,-0.00088,8e-05,0.00016,0.00014,7e-05,5
20649,21585,8e-05,9e-05,-9e-05,-0.00088,8e-05,0.00016,0.00014,7e-05,5
20650,21586,8e-05,9e-05,-9e-05,-0.00088,8e-05,0.00016,0.00014,7e-05,5
20651,21588,8e-05,9e-05,-9e-05,-0.00088,8e-05,0.00016,0.00014,7e-05,5
20652,21589,8e-05,9e-05,-9e-05,-0.00088,8e-05,0.00016,0.00014,7e-05,5
20653,21590,8e-05,9e-05,-9e-05,-0.00088,8e-05,0.00016,0.00014,7e-05,5
20654,21591,8e-05,9e-05,-9e-05,-0.00088,8e-05,0.00016,0.00014,7e-05,5
20655,21592,8e-05,9e-05,-9e-05,-0.00088,8e-05,0.00016,0.00014,7e-05,5
20656,21593,8e-05,9e-05,-9e-05,-0.00088,8e-05,0.00016,0.00014,7e-05,5
20657,21594,8e-05,9e-05,-9e-05,-0.00088,8e-05,0.00016,0.00014,7e-05,5
20658,21595,8e-05,9e-05,-9e-05,-0.00088,8e-05,0.00016,0.00014,7e-05,5
20659,21596,8e-05,-2.9999999999999997e-05,-4e-05,0.00031,5.9999999999999995e-05,-0.00011999999999999999,-4e-05,1e-05,5
20660,21597,8e-05,-2.9999999999999997e-05,-4e-05,0.00031,5.9999999999999995e-05,-0.00011999999999999999,-4e-05,1e-05,5
20661,21598,8e-05,-2.9999999999999997e-05,-4e-05,0.00031,5.9999999999999995e-05,-0.00011999999999999999,-4e-05,1e-05,5
20662,21599,8e-05,-2.9999999999999997e-05,-4e-05,0.00031,5.9999999999999995e-05,-0.00011999999999999999,-4e-05,1e-05,5
20663,21600,8e-05,-2.9999999999999997e-05,-4e-05,0.00031,5.9999999999999995e-05,-0.00011999999999999999,-4e-05,1e-05,5
20664,21601,8e-05,-2.9999999999999997e-05,-4e-05,0.00031,5.9999999999999995e-05,-0.00011999999999999999,-4e-05,1e-05,5
20665,21602,8e-05,-2.9999999999999997e-05,-4e-05,0.00031,5.9999999999999995e-05,-0.00011999999999999999,-4e-05,1e-05,5
20666,21603,8e-05,-2.9999999999999997e-05,-4e-05,0.00031,5.9999999999999995e-05,-0.00011999999999999999,-4e-05,1e-05,5
20667,21604,8e-05,-2.9999999999999997e-05,-4e-05,0.00031,5.9999999999999995e-05,-0.00011999999999999999,-4e-05,1e-05,5
20668,21605,8e-05,-2.9999999999999997e-05,-4e-05,0.00031,5.9999999999999995e-05,-0.00011999999999999999,-4e-05,1e-05,5
20669,21606,8e-05,-2.9999999999999997e-05,-4e-05,0.00031,5.9999999999999995e-05,-0.00011999999999999999,-4e-05,1e-05,5
20670,21607,8e-05,-2.9999999999999997e-05,-4e-05,0.00031,5.9999999999999995e-05,-0.00011999999999999999,-4e-05,1e-05,5
20671,21608,8e-05,-2.9999999999999997e-05,-4e-05,0.00031,5.9999999999999995e-05,-0.00011999999999999999,-4e-05,1e-05,5
20672,21609,8e-05,-2.9999999999999997e-05,-4e-05,0.00031,5.9999999999999995e-05,-0.00011999999999999999,-4e-05,1e-05,5
20673,21610,-0.00025,-0.00036,-1e-05,-0.00016,-9e-05,-0.00016999999999999999,-0.00016999999999999999,-0.00028,5
20674,21611,-0.00025,-0.00036,-1e-05,-0.00016,-9e-05,-0.00016999999999999999,-0.00016999999999999999,-0.00028,5
20675,21613,-0.00025,-0.00036,-1e-05,-0.00016,-9e-05,-0.00016999999999999999,-0.00016999999999999999,-0.00028,5
20676,21614,0.00022,9e-05,-0.00015,0.00015,0.00031,0.00016,4e-05,0.00023999999999999998,5
20677,21615,0.00022,9e-05,-0.00015,0.00015,0.00031,0.00016,4e-05,0.00023999999999999998,5
20678,21616,0.00022,9e-05,-0.00015,0.00015,0.00031,0.00016,4e-05,0.00023999999999999998,5
20679,21617,0.00022,9e-05,-0.00015,0.00015,0.00031,0.00016,4e-05,0.00023999999999999998,5
20680,21618,0.00022,9e-05,-0.00015,0.00015,0.00031,0.00016,4e-05,0.00023999999999999998,5
20681,21619,0.00022,9e-05,-0.00015,0.00015,0.00031,0.00016,4e-05,0.00023999999999999998,5
20682,21620,0.00022,9e-05,-0.00015,0.00015,0.00031,0.00016,4e-05,0.00023999999999999998,5
20683,21621,0.00022,9e-05,-0.00015,0.00015,0.00031,0.00016,4e-05,0.00023999999999999998,5
20684,21622,0.00022,9e-05,-0.00015,0.00015,0.00031,0.00016,4e-05,0.00023999999999999998,5
20685,21623,0.00022,9e-05,-0.00015,0.00015,0.00031,0.00016,4e-05,0.00023999999999999998,5
20686,21624,0.00022,9e-05,-0.00015,0.00015,0.00031,0.00016,4e-05,0.00023999999999999998,5
20687,21625,0.00022,9e-05,-0.00015,0.00015,0.00031,0.00016,4e-05,0.00023999999999999998,5
20688,21626,0.00022,9e-05,-0.00015,0.00015,0.00031,0.00016,4e-05,0.00023999999999999998,5
20689,21627,0.00022,9e-05,-0.00015,0.00015,0.00031,0.00016,4e-05,0.00023999999999999998,5
20690,21628,0.00022,9e-05,-0.00015,0.00015,0.00031,0.00016,4e-05,0.00023999999999999998,5
20691,21629,0.00022,9e-05,-0.00015,0.00015,0.00031,0.00016,4e-05,0.00023999999999999998,5
20692,21630,0.00022,9e-05,-0.00015,0.00015,0.00031,0.00016,4e-05,0.00023999999999999998,5
20693,21631,0.00022,9e-05,-0.00015,0.00015,0.00031,0.00016,4e-05,0.00023999999999999998,5
20694,21632,0.00022,9e-05,-0.00015,0.00015,0.00031,0.00016,4e-05,0.00023999999999999998,5
20695,21633,-0.00031,-0.00018999999999999998,-0.00033999999999999997,-0.00016,-0.0001,-0.00011,-0.00022,-0.0004,5
20696,21634,-0.00031,-0.00018999999999999998,-0.00033999999999999997,-0.00016,-0.0001,-0.00011,-0.00022,-0.0004,5
20697,21635,-0.00031,-0.00018999999999999998,-0.00033999999999999997,-0.00016,-0.0001,-0.00011,-0.00022,-0.0004,5
20698,21636,-0.00031,-0.00018999999999999998,-0.00033999999999999997,-0.00016,-0.0001,-0.00011,-0.00022,-0.0004,5
20699,21638,-0.00031,-0.00018999999999999998,-0.00033999999999999997,-0.00016,-0.0001,-0.00011,-0.00022,-0.0004,5
20700,21639,-0.00031,-0.00018999999999999998,-0.00033999999999999997,-0.00016,-0.0001,-0.00011,-0.00022,-0.0004,5
20701,21640,-0.00031,-0.00018999999999999998,-0.00033999999999999997,-0.00016,-0.0001,-0.00011,-0.00022,-0.0004,5
20702,21641,-0.00031,-0.00018999999999999998,-0.00033999999999999997,-0.00016,-0.0001,-0.00011,-0.00022,-0.0004,5
20703,21642,-0.00031,-0.00018999999999999998,-0.00033999999999999997,-0.00016,-0.0001,-0.00011,-0.00022,-0.0004,5
20704,21643,-0.00031,-0.00018999999999999998,-0.00033999999999999997,-0.00016,-0.0001,-0.00011,-0.00022,-0.0004,5
20705,21644,-0.00031,-0.00018999999999999998,-0.00033999999999999997,-0.00016,-0.0001,-0.00011,-0.00022,-0.0004,5
20706,21645,-0.00031,-0.00018999999999999998,-0.00033999999999999997,-0.00016,-0.0001,-0.00011,-0.00022,-0.0004,5
20707,21646,-0.00031,-0.00018999999999999998,-0.00033999999999999997,-0.00016,-0.0001,-0.00011,-0.00022,-0.0004,5
20708,21647,-0.00031,-0.00018999999999999998,-0.00033999999999999997,-0.00016,-0.0001,-0.00011,-0.00022,-0.0004,5
20709,21648,-0.00031,-0.00018999999999999998,-0.00033999999999999997,-0.00016,-0.0001,-0.00011,-0.00022,-0.0004,5
20710,21649,-0.00031,-0.00018999999999999998,-0.00033999999999999997,-0.00016,-0.0001,-0.00011,-0.00022,-0.0004,5
20711,21650,-0.00031,-0.00018999999999999998,-0.00033999999999999997,-0.00016,-0.0001,-0.00011,-0.00022,-0.0004,5
20712,21651,-0.00031,-0.00018999999999999998,-0.00033999999999999997,-0.00016,-0.0001,-0.00011,-0.00022,-0.0004,5
20713,21652,-0.00031,-0.00018999999999999998,-0.00033999999999999997,-0.00016,-0.0001,-0.00011,-0.00022,-0.0004,5
20714,21653,-0.00031,-0.00018999999999999998,-0.00033999999999999997,-0.00016,-0.0001,-0.00011,-0.00022,-0.0004,5
20715,21654,-0.00031,-0.00018999999999999998,-0.00033999999999999997,-0.00016,-0.0001,-0.00011,-0.00022,-0.0004,5
20716,21655,-2.9999999999999997e-05,-8e-05,0.00011,0.0006,0.00081,0.00014,0.0001,7e-05,5
20717,21656,0.0002,-1e-05,0.00018999999999999998,0.00054,0.00065,0.00022999999999999998,7e-05,-0.0004,5
20718,21657,0.0002,-1e-05,0.00018999999999999998,0.00054,0.00065,0.00022999999999999998,7e-05,-0.0004,5
20719,21658,0.0002,-1e-05,0.00018999999999999998,0.00054,0.00065,0.00022999999999999998,7e-05,-0.0004,5
20720,21659,0.0002,-1e-05,0.00018999999999999998,0.00054,0.00065,0.00022999999999999998,7e-05,-0.0004,5
20721,21661,0.0002,-1e-05,0.00018999999999999998,0.00054,0.00065,0.00022999999999999998,7e-05,-0.0004,5
20722,21662,0.0002,-1e-05,0.00018999999999999998,0.00054,0.00065,0.00022999999999999998,7e-05,-0.0004,5
20723,21663,0.0002,-1e-05,0.00018999999999999998,0.00054,0.00065,0.00022999999999999998,7e-05,-0.0004,5
20724,21664,0.0002,-1e-05,0.00018999999999999998,0.00054,0.00065,0.00022999999999999998,7e-05,-0.0004,5
20725,21665,0.0002,-1e-05,0.00018999999999999998,0.00054,0.00065,0.00022999999999999998,7e-05,-0.0004,5
20726,21666,0.0002,-1e-05,0.00018999999999999998,0.00054,0.00065,0.00022999999999999998,7e-05,-0.0004,5
20727,21667,0.0002,-1e-05,0.00018999999999999998,0.00054,0.00065,0.00022999999999999998,7e-05,-0.0004,5
20728,21668,0.0002,-1e-05,0.00018999999999999998,0.00054,0.00065,0.00022999999999999998,7e-05,-0.0004,5
20729,21669,0.0002,-1e-05,0.00018999999999999998,0.00054,0.00065,0.00022999999999999998,7e-05,-0.0004,5
20730,21670,-7e-05,5e-05,-0.00021,-0.00033,-0.00055,-0.0002,2.9999999999999997e-05,5.9999999999999995e-05,5
20731,21671,-0.00074,9e-05,0.00026000000000000003,-4e-05,5.9999999999999995e-05,0.00018999999999999998,0.00011999999999999999,0.00015,5
20732,21672,-0.00074,9e-05,0.00026000000000000003,-4e-05,5.9999999999999995e-05,0.00018999999999999998,0.00011999999999999999,0.00015,5
20733,21673,-0.00074,9e-05,0.00026000000000000003,-4e-05,5.9999999999999995e-05,0.00018999999999999998,0.00011999999999999999,0.00015,5
20734,21674,-0.00074,9e-05,0.00026000000000000003,-4e-05,5.9999999999999995e-05,0.00018999999999999998,0.00011999999999999999,0.00015,5
20735,21675,-0.00074,9e-05,0.00026000000000000003,-4e-05,5.9999999999999995e-05,0.00018999999999999998,0.00011999999999999999,0.00015,5
20736,21676,-0.00074,9e-05,0.00026000000000000003,-4e-05,5.9999999999999995e-05,0.00018999999999999998,0.00011999999999999999,0.00015,5
20737,21677,-0.00074,9e-05,0.00026000000000000003,-4e-05,5.9999999999999995e-05,0.00018999999999999998,0.00011999999999999999,0.00015,5
20738,21678,-0.00074,9e-05,0.00026000000000000003,-4e-05,5.9999999999999995e-05,0.00018999999999999998,0.00011999999999999999,0.00015,5
20739,21679,-0.00074,9e-05,0.00026000000000000003,-4e-05,5.9999999999999995e-05,0.00018999999999999998,0.00011999999999999999,0.00015,5
20740,21680,-0.00074,9e-05,0.00026000000000000003,-4e-05,5.9999999999999995e-05,0.00018999999999999998,0.00011999999999999999,0.00015,5
20741,21681,-0.00074,9e-05,0.00026000000000000003,-4e-05,5.9999999999999995e-05,0.00018999999999999998,0.00011999999999999999,0.00015,5
20742,21682,-0.00074,9e-05,0.00026000000000000003,-4e-05,5.9999999999999995e-05,0.00018999999999999998,0.00011999999999999999,0.00015,5
20743,21683,-0.00074,9e-05,0.00026000000000000003,-4e-05,5.9999999999999995e-05,0.00018999999999999998,0.00011999999999999999,0.00015,5
20744,21684,-0.00074,9e-05,0.00026000000000000003,-4e-05,5.9999999999999995e-05,0.00018999999999999998,0.00011999999999999999,0.00015,5
20745,21685,-0.00074,9e-05,0.00026000000000000003,-4e-05,5.9999999999999995e-05,0.00018999999999999998,0.00011999999999999999,0.00015,5
20746,21686,-0.00074,9e-05,0.00026000000000000003,-4e-05,5.9999999999999995e-05,0.00018999999999999998,0.00011999999999999999,0.00015,5
20747,21688,-0.00074,9e-05,0.00026000000000000003,-4e-05,5.9999999999999995e-05,0.00018999999999999998,0.00011999999999999999,0.00015,5
20748,21689,-0.00074,9e-05,0.00026000000000000003,-4e-05,5.9999999999999995e-05,0.00018999999999999998,0.00011999999999999999,0.00015,5
20749,21690,-0.00074,9e-05,0.00026000000000000003,-4e-05,5.9999999999999995e-05,0.00018999999999999998,0.00011999999999999999,0.00015,5
20750,21691,-0.00074,9e-05,0.00026000000000000003,-4e-05,5.9999999999999995e-05,0.00018999999999999998,0.00011999999999999999,0.00015,5
20751,21692,0.00064,0.00015,5e-05,0.00011999999999999999,4e-05,5.9999999999999995e-05,-8e-05,-8e-05,5
20752,21693,9e-05,4e-05,5.9999999999999995e-05,-5.9999999999999995e-05,0.0,0.00015,4e-05,7e-05,5
20753,21694,9e-05,4e-05,5.9999999999999995e-05,-5.9999999999999995e-05,0.0,0.00015,4e-05,7e-05,5
20754,21695,9e-05,4e-05,5.9999999999999995e-05,-5.9999999999999995e-05,0.0,0.00015,4e-05,7e-05,5
20755,21696,9e-05,4e-05,5.9999999999999995e-05,-5.9999999999999995e-05,0.0,0.00015,4e-05,7e-05,5
20756,21697,9e-05,4e-05,5.9999999999999995e-05,-5.9999999999999995e-05,0.0,0.00015,4e-05,7e-05,5
20757,21698,9e-05,4e-05,5.9999999999999995e-05,-5.9999999999999995e-05,0.0,0.00015,4e-05,7e-05,5
20758,21699,9e-05,4e-05,5.9999999999999995e-05,-5.9999999999999995e-05,0.0,0.00015,4e-05,7e-05,5
20759,21700,9e-05,4e-05,5.9999999999999995e-05,-5.9999999999999995e-05,0.0,0.00015,4e-05,7e-05,5
20760,21701,9e-05,4e-05,5.9999999999999995e-05,-5.9999999999999995e-05,0.0,0.00015,4e-05,7e-05,5
20761,21702,9e-05,4e-05,5.9999999999999995e-05,-5.9999999999999995e-05,0.0,0.00015,4e-05,7e-05,5
20762,21703,9e-05,4e-05,5.9999999999999995e-05,-5.9999999999999995e-05,0.0,0.00015,4e-05,7e-05,5
20763,21704,9e-05,4e-05,5.9999999999999995e-05,-5.9999999999999995e-05,0.0,0.00015,4e-05,7e-05,5
20764,21705,9e-05,4e-05,5.9999999999999995e-05,-5.9999999999999995e-05,0.0,0.00015,4e-05,7e-05,5
20765,21706,0.00018999999999999998,0.00028,8e-05,0.00037,0.00029,0.00029,5.9999999999999995e-05,-2.9999999999999997e-05,5
20766,21708,0.00018999999999999998,0.00028,8e-05,0.00037,0.00029,0.00029,5.9999999999999995e-05,-2.9999999999999997e-05,5
20767,21709,0.00018999999999999998,0.00028,8e-05,0.00037,0.00029,0.00029,5.9999999999999995e-05,-2.9999999999999997e-05,5
20768,21710,0.00018999999999999998,0.00028,8e-05,0.00037,0.00029,0.00029,5.9999999999999995e-05,-2.9999999999999997e-05,5
20769,21711,0.00018999999999999998,0.00028,8e-05,0.00037,0.00029,0.00029,5.9999999999999995e-05,-2.9999999999999997e-05,5
20770,21712,0.00018999999999999998,0.00028,8e-05,0.00037,0.00029,0.00029,5.9999999999999995e-05,-2.9999999999999997e-05,5
20771,21713,0.00018999999999999998,0.00028,8e-05,0.00037,0.00029,0.00029,5.9999999999999995e-05,-2.9999999999999997e-05,5
20772,21714,0.0,-5.9999999999999995e-05,-2e-05,-0.0005,-0.0001,2.9999999999999997e-05,2e-05,1e-05,5
20773,21715,-8e-05,-0.00014,-0.00016999999999999999,-0.00041,-0.00045999999999999996,-7e-05,-1e-05,2.9999999999999997e-05,5
20774,21716,-8e-05,-0.00014,-0.00016999999999999999,-0.00041,-0.00045999999999999996,-7e-05,-1e-05,2.9999999999999997e-05,5
20775,21717,-8e-05,-0.00014,-0.00016999999999999999,-0.00041,-0.00045999999999999996,-7e-05,-1e-05,2.9999999999999997e-05,5
20776,21718,-8e-05,-0.00014,-0.00016999999999999999,-0.00041,-0.00045999999999999996,-7e-05,-1e-05,2.9999999999999997e-05,5
20777,21719,-8e-05,-0.00014,-0.00016999999999999999,-0.00041,-0.00045999999999999996,-7e-05,-1e-05,2.9999999999999997e-05,5
20778,21720,-8e-05,-0.00014,-0.00016999999999999999,-0.00041,-0.00045999999999999996,-7e-05,-1e-05,2.9999999999999997e-05,5
20779,21721,-8e-05,-0.00014,-0.00016999999999999999,-0.00041,-0.00045999999999999996,-7e-05,-1e-05,2.9999999999999997e-05,5
20780,21723,-8e-05,-0.00014,-0.00016999999999999999,-0.00041,-0.00045999999999999996,-7e-05,-1e-05,2.9999999999999997e-05,5
20781,21724,-8e-05,-0.00014,-0.00016999999999999999,-0.00041,-0.00045999999999999996,-7e-05,-1e-05,2.9999999999999997e-05,5
20782,21725,-8e-05,-0.00014,-0.00016999999999999999,-0.00041,-0.00045999999999999996,-7e-05,-1e-05,2.9999999999999997e-05,5
20783,21726,-8e-05,-0.00014,-0.00016999999999999999,-0.00041,-0.00045999999999999996,-7e-05,-1e-05,2.9999999999999997e-05,5
20784,21727,-8e-05,-0.00014,-0.00016999999999999999,-0.00041,-0.00045999999999999996,-7e-05,-1e-05,2.9999999999999997e-05,5
20785,21728,-8e-05,-0.00014,-0.00016999999999999999,-0.00041,-0.00045999999999999996,-7e-05,-1e-05,2.9999999999999997e-05,5
20786,21729,-8e-05,-0.00014,-0.00016999999999999999,-0.00041,-0.00045999999999999996,-7e-05,-1e-05,2.9999999999999997e-05,5
20787,21730,0.00022999999999999998,0.0001,-5.9999999999999995e-05,0.0001,0.00011999999999999999,-0.00011999999999999999,-9e-05,-2.9999999999999997e-05,5
20788,21731,-2.9999999999999997e-05,-1e-05,0.00021,0.00013000000000000002,0.0,-5e-05,-4e-05,1e-05,5
20789,21732,-2.9999999999999997e-05,-1e-05,0.00021,0.00013000000000000002,0.0,-5e-05,-4e-05,1e-05,5
20790,21733,-2.9999999999999997e-05,-1e-05,0.00021,0.00013000000000000002,0.0,-5e-05,-4e-05,1e-05,5
20791,21734,-2.9999999999999997e-05,-1e-05,0.00021,0.00013000000000000002,0.0,-5e-05,-4e-05,1e-05,5
20792,21735,-2.9999999999999997e-05,-1e-05,0.00021,0.00013000000000000002,0.0,-5e-05,-4e-05,1e-05,5
20793,21736,-2.9999999999999997e-05,-1e-05,0.00021,0.00013000000000000002,0.0,-5e-05,-4e-05,1e-05,5
20794,21738,-2.9999999999999997e-05,-1e-05,0.00021,0.00013000000000000002,0.0,-5e-05,-4e-05,1e-05,5
20795,21739,-2.9999999999999997e-05,-1e-05,0.00021,0.00013000000000000002,0.0,-5e-05,-4e-05,1e-05,5
20796,21740,-2.9999999999999997e-05,-1e-05,0.00021,0.00013000000000000002,0.0,-5e-05,-4e-05,1e-05,5
20797,21741,-2.9999999999999997e-05,-1e-05,0.00021,0.00013000000000000002,0.0,-5e-05,-4e-05,1e-05,5
20798,21742,-2.9999999999999997e-05,-1e-05,0.00021,0.00013000000000000002,0.0,-5e-05,-4e-05,1e-05,5
20799,21743,-2.9999999999999997e-05,-1e-05,0.00021,0.00013000000000000002,0.0,-5e-05,-4e-05,1e-05,5
20800,21744,-2.9999999999999997e-05,-1e-05,0.00021,0.00013000000000000002,0.0,-5e-05,-4e-05,1e-05,5
20801,21745,-2.9999999999999997e-05,-1e-05,0.00021,0.00013000000000000002,0.0,-5e-05,-4e-05,1e-05,5
20802,21746,-2.9999999999999997e-05,-1e-05,0.00021,0.00013000000000000002,0.0,-5e-05,-4e-05,1e-05,5
20803,21747,-2.9999999999999997e-05,-1e-05,0.00021,0.00013000000000000002,0.0,-5e-05,-4e-05,1e-05,5
20804,21748,-2.9999999999999997e-05,-1e-05,0.00021,0.00013000000000000002,0.0,-5e-05,-4e-05,1e-05,5
20805,21749,-2.9999999999999997e-05,-1e-05,0.00021,0.00013000000000000002,0.0,-5e-05,-4e-05,1e-05,5
20806,21750,-2.9999999999999997e-05,-1e-05,0.00021,0.00013000000000000002,0.0,-5e-05,-4e-05,1e-05,5
20807,21751,-2.9999999999999997e-05,-1e-05,0.00021,0.00013000000000000002,0.0,-5e-05,-4e-05,1e-05,5
20808,21752,-2.9999999999999997e-05,-1e-05,0.00021,0.00013000000000000002,0.0,-5e-05,-4e-05,1e-05,5
20809,21753,7e-05,8e-05,-0.0001,-0.00015,0.00035,0.00013000000000000002,2.9999999999999997e-05,4e-05,5
20810,21754,-0.00014,4e-05,0.0001,0.00018999999999999998,-0.00041,-0.00022,-5.9999999999999995e-05,-4e-05,5
20811,21755,-0.00014,4e-05,0.0001,0.00018999999999999998,-0.00041,-0.00022,-5.9999999999999995e-05,-4e-05,5
20812,21756,-0.00014,4e-05,0.0001,0.00018999999999999998,-0.00041,-0.00022,-5.9999999999999995e-05,-4e-05,5
20813,21757,-0.00014,4e-05,0.0001,0.00018999999999999998,-0.00041,-0.00022,-5.9999999999999995e-05,-4e-05,5
20814,21758,-0.00014,4e-05,0.0001,0.00018999999999999998,-0.00041,-0.00022,-5.9999999999999995e-05,-4e-05,5
20815,21759,-0.00014,4e-05,0.0001,0.00018999999999999998,-0.00041,-0.00022,-5.9999999999999995e-05,-4e-05,5
20816,21760,-0.00014,4e-05,0.0001,0.00018999999999999998,-0.00041,-0.00022,-5.9999999999999995e-05,-4e-05,5
20817,21761,-0.00014,4e-05,0.0001,0.00018999999999999998,-0.00041,-0.00022,-5.9999999999999995e-05,-4e-05,5
20818,21762,-0.00014,4e-05,0.0001,0.00018999999999999998,-0.00041,-0.00022,-5.9999999999999995e-05,-4e-05,5
20819,21763,-0.00014,4e-05,0.0001,0.00018999999999999998,-0.00041,-0.00022,-5.9999999999999995e-05,-4e-05,5
