,time,channel1,channel2,channel3,channel4,channel5,channel6,channel7,channel8,class
19146,19759,2.9999999999999997e-05,-5e-05,-0.0001,8e-05,-0.0005,-9e-05,-5e-05,-4e-05,5
19147,19760,2.9999999999999997e-05,-5e-05,-0.0001,8e-05,-0.0005,-9e-05,-5e-05,-4e-05,5
19148,19761,2.9999999999999997e-05,-5e-05,-0.0001,8e-05,-0.0005,-9e-05,-5e-05,-4e-05,5
19149,19762,2.9999999999999997e-05,-5e-05,-0.0001,8e-05,-0.0005,-9e-05,-5e-05,-4e-05,5
19150,19763,2.9999999999999997e-05,-5e-05,-0.0001,8e-05,-0.0005,-9e-05,-5e-05,-4e-05,5
19151,19764,2.9999999999999997e-05,-5e-05,-0.0001,8e-05,-0.0005,-9e-05,-5e-05,-4e-05,5
19152,19765,2.9999999999999997e-05,-5e-05,-0.0001,8e-05,-0.0005,-9e-05,-5e-05,-4e-05,5
19153,19766,2.9999999999999997e-05,-5e-05,-0.0001,8e-05,-0.0005,-9e-05,-5e-05,-4e-05,5
19154,19767,2.9999999999999997e-05,-5e-05,-0.0001,8e-05,-0.0005,-9e-05,-5e-05,-4e-05,5
19155,19768,2.9999999999999997e-05,-5e-05,-0.0001,8e-05,-0.0005,-9e-05,-5e-05,-4e-05,5
19156,19769,2.9999999999999997e-05,-5e-05,-0.0001,8e-05,-0.0005,-9e-05,-5e-05,-4e-05,5
19157,19770,2.9999999999999997e-05,-5e-05,-0.0001,8e-05,-0.0005,-9e-05,-5e-05,-4e-05,5
19158,19771,2.9999999999999997e-05,-5e-05,-0.0001,8e-05,-0.0005,-9e-05,-5e-05,-4e-05,5
19159,19772,-8e-05,-9e-05,-1e-05,4e-05,0.0001,-7e-05,-1e-05,0.0,5
19160,19773,-8e-05,-9e-05,-1e-05,4e-05,0.0001,-7e-05,-1e-05,0.0,5
19161,19774,-8e-05,-9e-05,-1e-05,4e-05,0.0001,-7e-05,-1e-05,0.0,5
19162,19775,-8e-05,-9e-05,-1e-05,4e-05,0.0001,-7e-05,-1e-05,0.0,5
19163,19776,-8e-05,-9e-05,-1e-05,4e-05,0.0001,-7e-05,-1e-05,0.0,5
19164,19777,-8e-05,-9e-05,-1e-05,4e-05,0.0001,-7e-05,-1e-05,0.0,5
19165,19778,-8e-05,-9e-05,-1e-05,4e-05,0.0001,-7e-05,-1e-05,0.0,5
19166,19779,-8e-05,-9e-05,-1e-05,4e-05,0.0001,-7e-05,-1e-05,0.0,5
19167,19780,-8e-05,-9e-05,-1e-05,4e-05,0.0001,-7e-05,-1e-05,0.0,5
19168,19781,-8e-05,-9e-05,-1e-05,4e-05,0.0001,-7e-05,-1e-05,0.0,5
19169,19782,-8e-05,-9e-05,-1e-05,4e-05,0.0001,-7e-05,-1e-05,0.0,5
19170,19783,-8e-05,-9e-05,-1e-05,4e-05,0.0001,-7e-05,-1e-05,0.0,5
19171,19784,-8e-05,-9e-05,-1e-05,4e-05,0.0001,-7e-05,-1e-05,0.0,5
19172,19785,-8e-05,-9e-05,-1e-05,4e-05,0.0001,-7e-05,-1e-05,0.0,5
19173,19786,-2.9999999999999997e-05,-4e-05,-0.00011999999999999999,0.00018999999999999998,0.00014,2e-05,-4e-05,-5.9999999999999995e-05,5
19174,19788,-2.9999999999999997e-05,-4e-05,-0.00011999999999999999,0.00018999999999999998,0.00014,2e-05,-4e-05,-5.9999999999999995e-05,5
19175,19789,-2.9999999999999997e-05,-4e-05,-0.00011999999999999999,0.00018999999999999998,0.00014,2e-05,-4e-05,-5.9999999999999995e-05,5
19176,19790,-2.9999999999999997e-05,-4e-05,-0.00011999999999999999,0.00018999999999999998,0.00014,2e-05,-4e-05,-5.9999999999999995e-05,5
19177,19791,-2.9999999999999997e-05,-4e-05,-0.00011999999999999999,0.00018999999999999998,0.00014,2e-05,-4e-05,-5.9999999999999995e-05,5
19178,19792,-2.9999999999999997e-05,-4e-05,-0.00011999999999999999,0.00018999999999999998,0.00014,2e-05,-4e-05,-5.9999999999999995e-05,5
19179,19793,-2.9999999999999997e-05,-4e-05,-0.00011999999999999999,0.00018999999999999998,0.00014,2e-05,-4e-05,-5.9999999999999995e-05,5
19180,19794,-2.9999999999999997e-05,-4e-05,-0.00011999999999999999,0.00018999999999999998,0.00014,2e-05,-4e-05,-5.9999999999999995e-05,5
19181,19795,2e-05,0.0,-0.00011999999999999999,-0.00011,-0.00032,-0.00022999999999999998,-7e-05,-5.9999999999999995e-05,5
19182,19796,-8e-05,-0.00011,-2.9999999999999997e-05,1e-05,5.9999999999999995e-05,-7e-05,-0.0001,-7e-05,5
19183,19797,-8e-05,-0.00011,-2.9999999999999997e-05,1e-05,5.9999999999999995e-05,-7e-05,-0.0001,-7e-05,5
19184,19798,-8e-05,-0.00011,-2.9999999999999997e-05,1e-05,5.9999999999999995e-05,-7e-05,-0.0001,-7e-05,5
19185,19799,-8e-05,-0.00011,-2.9999999999999997e-05,1e-05,5.9999999999999995e-05,-7e-05,-0.0001,-7e-05,5
19186,19800,-8e-05,-0.00011,-2.9999999999999997e-05,1e-05,5.9999999999999995e-05,-7e-05,-0.0001,-7e-05,5
19187,19801,-8e-05,-0.00011,-2.9999999999999997e-05,1e-05,5.9999999999999995e-05,-7e-05,-0.0001,-7e-05,5
19188,19802,-8e-05,-0.00011,-2.9999999999999997e-05,1e-05,5.9999999999999995e-05,-7e-05,-0.0001,-7e-05,5
19189,19803,-8e-05,-0.00011,-2.9999999999999997e-05,1e-05,5.9999999999999995e-05,-7e-05,-0.0001,-7e-05,5
19190,19804,-8e-05,-0.00011,-2.9999999999999997e-05,1e-05,5.9999999999999995e-05,-7e-05,-0.0001,-7e-05,5
19191,19805,-8e-05,-0.00011,-2.9999999999999997e-05,1e-05,5.9999999999999995e-05,-7e-05,-0.0001,-7e-05,5
19192,19806,-8e-05,-0.00011,-2.9999999999999997e-05,1e-05,5.9999999999999995e-05,-7e-05,-0.0001,-7e-05,5
19193,19807,-8e-05,-0.00011,-2.9999999999999997e-05,1e-05,5.9999999999999995e-05,-7e-05,-0.0001,-7e-05,5
19194,19808,-8e-05,-0.00011,-2.9999999999999997e-05,1e-05,5.9999999999999995e-05,-7e-05,-0.0001,-7e-05,5
19195,19809,-8e-05,-0.00011,-2.9999999999999997e-05,1e-05,5.9999999999999995e-05,-7e-05,-0.0001,-7e-05,5
19196,19810,-8e-05,-0.00011,-2.9999999999999997e-05,1e-05,5.9999999999999995e-05,-7e-05,-0.0001,-7e-05,5
19197,19811,-8e-05,-0.00011,-2.9999999999999997e-05,1e-05,5.9999999999999995e-05,-7e-05,-0.0001,-7e-05,5
19198,19812,-8e-05,-0.00011,-2.9999999999999997e-05,1e-05,5.9999999999999995e-05,-7e-05,-0.0001,-7e-05,5
19199,19813,-8e-05,-0.00011,-2.9999999999999997e-05,1e-05,5.9999999999999995e-05,-7e-05,-0.0001,-7e-05,5
19200,19814,-8e-05,-0.00011,-2.9999999999999997e-05,1e-05,5.9999999999999995e-05,-7e-05,-0.0001,-7e-05,5
19201,19816,-8e-05,-0.00011,-2.9999999999999997e-05,1e-05,5.9999999999999995e-05,-7e-05,-0.0001,-7e-05,5
19202,19817,0.0,-2.9999999999999997e-05,-0.00022999999999999998,-0.00042,-0.00042,-0.00011999999999999999,-4e-05,-2e-05,5
19203,19818,0.0,-2.9999999999999997e-05,-0.00022999999999999998,-0.00042,-0.00042,-0.00011999999999999999,-4e-05,-2e-05,5
19204,19819,-2e-05,-1e-05,5e-05,-2e-05,8e-05,-8e-05,-5e-05,-2.9999999999999997e-05,5
19205,19820,-2e-05,-1e-05,5e-05,-2e-05,8e-05,-8e-05,-5e-05,-2.9999999999999997e-05,5
19206,19821,-2e-05,-1e-05,5e-05,-2e-05,8e-05,-8e-05,-5e-05,-2.9999999999999997e-05,5
19207,19822,-2e-05,-1e-05,5e-05,-2e-05,8e-05,-8e-05,-5e-05,-2.9999999999999997e-05,5
19208,19823,-2e-05,-1e-05,5e-05,-2e-05,8e-05,-8e-05,-5e-05,-2.9999999999999997e-05,5
19209,19824,-2e-05,-1e-05,5e-05,-2e-05,8e-05,-8e-05,-5e-05,-2.9999999999999997e-05,5
19210,19825,-2e-05,-1e-05,5e-05,-2e-05,8e-05,-8e-05,-5e-05,-2.9999999999999997e-05,5
19211,19826,-2e-05,-1e-05,5e-05,-2e-05,8e-05,-8e-05,-5e-05,-2.9999999999999997e-05,5
19212,19827,-2e-05,-1e-05,5e-05,-2e-05,8e-05,-8e-05,-5e-05,-2.9999999999999997e-05,5
19213,19828,-2e-05,-1e-05,5e-05,-2e-05,8e-05,-8e-05,-5e-05,-2.9999999999999997e-05,5
19214,19829,-2e-05,-1e-05,5e-05,-2e-05,8e-05,-8e-05,-5e-05,-2.9999999999999997e-05,5
19215,19830,-2e-05,-1e-05,5e-05,-2e-05,8e-05,-8e-05,-5e-05,-2.9999999999999997e-05,5
19216,19831,-2e-05,-1e-05,5e-05,-2e-05,8e-05,-8e-05,-5e-05,-2.9999999999999997e-05,5
19217,19832,-0.0002,-0.00011,-4e-05,0.00023999999999999998,0.00086,-5.9999999999999995e-05,-2e-05,-2.9999999999999997e-05,5
19218,19833,-0.0002,-0.00011,-4e-05,0.00023999999999999998,0.00086,-5.9999999999999995e-05,-2e-05,-2.9999999999999997e-05,5
19219,19834,-0.0002,-0.00011,-4e-05,0.00023999999999999998,0.00086,-5.9999999999999995e-05,-2e-05,-2.9999999999999997e-05,5
19220,19835,-0.0002,-0.00011,-4e-05,0.00023999999999999998,0.00086,-5.9999999999999995e-05,-2e-05,-2.9999999999999997e-05,5
19221,19836,-0.0002,-0.00011,-4e-05,0.00023999999999999998,0.00086,-5.9999999999999995e-05,-2e-05,-2.9999999999999997e-05,5
19222,19838,0.00022,0.00015,5.9999999999999995e-05,-1e-05,-0.0008699999999999999,1e-05,2e-05,-2e-05,5
19223,19839,-0.00027,-0.00016,1e-05,-5.9999999999999995e-05,-5e-05,-0.00018,-1e-05,-1e-05,5
19224,19840,-0.00027,-0.00016,1e-05,-5.9999999999999995e-05,-5e-05,-0.00018,-1e-05,-1e-05,5
19225,19841,-0.00027,-0.00016,1e-05,-5.9999999999999995e-05,-5e-05,-0.00018,-1e-05,-1e-05,5
19226,19842,-0.00027,-0.00016,1e-05,-5.9999999999999995e-05,-5e-05,-0.00018,-1e-05,-1e-05,5
19227,19843,-0.00027,-0.00016,1e-05,-5.9999999999999995e-05,-5e-05,-0.00018,-1e-05,-1e-05,5
19228,19844,-0.00027,-0.00016,1e-05,-5.9999999999999995e-05,-5e-05,-0.00018,-1e-05,-1e-05,5
19229,19845,-0.00027,-0.00016,1e-05,-5.9999999999999995e-05,-5e-05,-0.00018,-1e-05,-1e-05,5
19230,19846,-0.00027,-0.00016,1e-05,-5.9999999999999995e-05,-5e-05,-0.00018,-1e-05,-1e-05,5
19231,19847,-0.00027,-0.00016,1e-05,-5.9999999999999995e-05,-5e-05,-0.00018,-1e-05,-1e-05,5
19232,19848,-0.00027,-0.00016,1e-05,-5.9999999999999995e-05,-5e-05,-0.00018,-1e-05,-1e-05,5
19233,19849,-0.00027,-0.00016,1e-05,-5.9999999999999995e-05,-5e-05,-0.00018,-1e-05,-1e-05,5
19234,19850,-0.00027,-0.00016,1e-05,-5.9999999999999995e-05,-5e-05,-0.00018,-1e-05,-1e-05,5
19235,19851,-0.00027,-0.00016,1e-05,-5.9999999999999995e-05,-5e-05,-0.00018,-1e-05,-1e-05,5
19236,19852,-0.00027,-0.00016,1e-05,-5.9999999999999995e-05,-5e-05,-0.00018,-1e-05,-1e-05,5
19237,19853,-0.00027,-0.00016,1e-05,-5.9999999999999995e-05,-5e-05,-0.00018,-1e-05,-1e-05,5
19238,19854,-0.00027,-0.00016,1e-05,-5.9999999999999995e-05,-5e-05,-0.00018,-1e-05,-1e-05,5
19239,19855,5e-05,-2e-05,-0.00013000000000000002,-8e-05,-0.00022999999999999998,-5e-05,-4e-05,0.0,5
19240,19856,0.00011999999999999999,0.00016999999999999999,9e-05,-1e-05,-2e-05,-5.9999999999999995e-05,2e-05,4e-05,5
19241,19857,0.00011999999999999999,0.00016999999999999999,9e-05,-1e-05,-2e-05,-5.9999999999999995e-05,2e-05,4e-05,5
19242,19858,0.00011999999999999999,0.00016999999999999999,9e-05,-1e-05,-2e-05,-5.9999999999999995e-05,2e-05,4e-05,5
19243,19859,0.00011999999999999999,0.00016999999999999999,9e-05,-1e-05,-2e-05,-5.9999999999999995e-05,2e-05,4e-05,5
19244,19860,0.00011999999999999999,0.00016999999999999999,9e-05,-1e-05,-2e-05,-5.9999999999999995e-05,2e-05,4e-05,5
19245,19861,0.00011999999999999999,0.00016999999999999999,9e-05,-1e-05,-2e-05,-5.9999999999999995e-05,2e-05,4e-05,5
19246,19862,0.00011999999999999999,0.00016999999999999999,9e-05,-1e-05,-2e-05,-5.9999999999999995e-05,2e-05,4e-05,5
19247,19863,0.00011999999999999999,0.00016999999999999999,9e-05,-1e-05,-2e-05,-5.9999999999999995e-05,2e-05,4e-05,5
19248,19864,0.00011999999999999999,0.00016999999999999999,9e-05,-1e-05,-2e-05,-5.9999999999999995e-05,2e-05,4e-05,5
19249,19865,0.00011999999999999999,0.00016999999999999999,9e-05,-1e-05,-2e-05,-5.9999999999999995e-05,2e-05,4e-05,5
19250,19866,0.00011999999999999999,0.00016999999999999999,9e-05,-1e-05,-2e-05,-5.9999999999999995e-05,2e-05,4e-05,5
19251,19867,0.00011999999999999999,0.00016999999999999999,9e-05,-1e-05,-2e-05,-5.9999999999999995e-05,2e-05,4e-05,5
19252,19868,0.00011999999999999999,0.00016999999999999999,9e-05,-1e-05,-2e-05,-5.9999999999999995e-05,2e-05,4e-05,5
19253,19869,0.00011999999999999999,0.00016999999999999999,9e-05,-1e-05,-2e-05,-5.9999999999999995e-05,2e-05,4e-05,5
19254,19870,0.00011999999999999999,0.00016999999999999999,9e-05,-1e-05,-2e-05,-5.9999999999999995e-05,2e-05,4e-05,5
19255,19871,0.00011999999999999999,0.00016999999999999999,9e-05,-1e-05,-2e-05,-5.9999999999999995e-05,2e-05,4e-05,5
19256,19872,0.00011999999999999999,0.00016999999999999999,9e-05,-1e-05,-2e-05,-5.9999999999999995e-05,2e-05,4e-05,5
19257,19873,0.00011999999999999999,0.00016999999999999999,9e-05,-1e-05,-2e-05,-5.9999999999999995e-05,2e-05,4e-05,5
19258,19874,0.00011999999999999999,0.00016999999999999999,9e-05,-1e-05,-2e-05,-5.9999999999999995e-05,2e-05,4e-05,5
19259,19875,0.00011999999999999999,0.00016999999999999999,9e-05,-1e-05,-2e-05,-5.9999999999999995e-05,2e-05,4e-05,5
19260,19876,0.00011999999999999999,0.00016999999999999999,9e-05,-1e-05,-2e-05,-5.9999999999999995e-05,2e-05,4e-05,5
19261,19877,5.9999999999999995e-05,0.00014,0.00016,8e-05,0.00027,-0.00011,-2e-05,-2e-05,5
19262,19878,5.9999999999999995e-05,0.00014,0.00016,8e-05,0.00027,-0.00011,-2e-05,-2e-05,5
19263,19879,7e-05,1e-05,-2e-05,0.0,1e-05,0.00026000000000000003,9e-05,5e-05,5
19264,19880,7e-05,1e-05,-2e-05,0.0,1e-05,0.00026000000000000003,9e-05,5e-05,5
19265,19881,7e-05,1e-05,-2e-05,0.0,1e-05,0.00026000000000000003,9e-05,5e-05,5
19266,19882,7e-05,1e-05,-2e-05,0.0,1e-05,0.00026000000000000003,9e-05,5e-05,5
19267,19883,7e-05,1e-05,-2e-05,0.0,1e-05,0.00026000000000000003,9e-05,5e-05,5
19268,19884,7e-05,1e-05,-2e-05,0.0,1e-05,0.00026000000000000003,9e-05,5e-05,5
19269,19885,7e-05,1e-05,-2e-05,0.0,1e-05,0.00026000000000000003,9e-05,5e-05,5
19270,19886,7e-05,1e-05,-2e-05,0.0,1e-05,0.00026000000000000003,9e-05,5e-05,5
19271,19888,7e-05,1e-05,-2e-05,0.0,1e-05,0.00026000000000000003,9e-05,5e-05,5
19272,19889,7e-05,1e-05,-2e-05,0.0,1e-05,0.00026000000000000003,9e-05,5e-05,5
19273,19890,7e-05,1e-05,-2e-05,0.0,1e-05,0.00026000000000000003,9e-05,5e-05,5
19274,19891,7e-05,1e-05,-2e-05,0.0,1e-05,0.00026000000000000003,9e-05,5e-05,5
19275,19892,7e-05,1e-05,-2e-05,0.0,1e-05,0.00026000000000000003,9e-05,5e-05,5
19276,19893,7e-05,1e-05,-2e-05,0.0,1e-05,0.00026000000000000003,9e-05,5e-05,5
19277,19894,7e-05,1e-05,-2e-05,0.0,1e-05,0.00026000000000000003,9e-05,5e-05,5
19278,19895,7e-05,1e-05,-2e-05,0.0,1e-05,0.00026000000000000003,9e-05,5e-05,5
19279,19896,7e-05,1e-05,-2e-05,0.0,1e-05,0.00026000000000000003,9e-05,5e-05,5
19280,19897,7e-05,1e-05,-2e-05,0.0,1e-05,0.00026000000000000003,9e-05,5e-05,5
19281,19898,7e-05,1e-05,-2e-05,0.0,1e-05,0.00026000000000000003,9e-05,5e-05,5
19282,19899,7e-05,1e-05,-2e-05,0.0,1e-05,0.00026000000000000003,9e-05,5e-05,5
19283,19900,9e-05,8e-05,-8e-05,9e-05,0.00028,0.00023999999999999998,5.9999999999999995e-05,2.9999999999999997e-05,5
19284,19901,-2.9999999999999997e-05,-2e-05,7e-05,-0.0003,-0.00016,0.00018,4e-05,-1e-05,5
19285,19902,-2.9999999999999997e-05,-2e-05,7e-05,-0.0003,-0.00016,0.00018,4e-05,-1e-05,5
19286,19903,-2.9999999999999997e-05,-2e-05,7e-05,-0.0003,-0.00016,0.00018,4e-05,-1e-05,5
19287,19904,-2.9999999999999997e-05,-2e-05,7e-05,-0.0003,-0.00016,0.00018,4e-05,-1e-05,5
19288,19905,-2.9999999999999997e-05,-2e-05,7e-05,-0.0003,-0.00016,0.00018,4e-05,-1e-05,5
19289,19906,-2.9999999999999997e-05,-2e-05,7e-05,-0.0003,-0.00016,0.00018,4e-05,-1e-05,5
19290,19907,-2.9999999999999997e-05,-2e-05,7e-05,-0.0003,-0.00016,0.00018,4e-05,-1e-05,5
19291,19908,-2.9999999999999997e-05,-2e-05,7e-05,-0.0003,-0.00016,0.00018,4e-05,-1e-05,5
19292,19909,-2.9999999999999997e-05,-2e-05,7e-05,-0.0003,-0.00016,0.00018,4e-05,-1e-05,5
19293,19910,-2.9999999999999997e-05,-2e-05,7e-05,-0.0003,-0.00016,0.00018,4e-05,-1e-05,5
19294,19911,-2.9999999999999997e-05,-2e-05,7e-05,-0.0003,-0.00016,0.00018,4e-05,-1e-05,5
19295,19912,-2.9999999999999997e-05,-2e-05,7e-05,-0.0003,-0.00016,0.00018,4e-05,-1e-05,5
19296,19913,-2.9999999999999997e-05,-2e-05,7e-05,-0.0003,-0.00016,0.00018,4e-05,-1e-05,5
19297,19914,-2.9999999999999997e-05,-2e-05,7e-05,-0.0003,-0.00016,0.00018,4e-05,-1e-05,5
19298,19915,9e-05,5e-05,-2e-05,8e-05,-0.00026000000000000003,0.0,0.0,2e-05,5
19299,19916,9e-05,5e-05,-2e-05,8e-05,-0.00026000000000000003,0.0,0.0,2e-05,5
19300,19917,0.00014,0.0001,-5e-05,-4e-05,-0.00021,-7e-05,2e-05,4e-05,5
19301,19918,0.00014,0.0001,-5e-05,-4e-05,-0.00021,-7e-05,2e-05,4e-05,5
19302,19919,0.00014,0.0001,-5e-05,-4e-05,-0.00021,-7e-05,2e-05,4e-05,5
19303,19920,0.00014,0.0001,-5e-05,-4e-05,-0.00021,-7e-05,2e-05,4e-05,5
19304,19921,0.00014,0.0001,-5e-05,-4e-05,-0.00021,-7e-05,2e-05,4e-05,5
19305,19922,0.00014,0.0001,-5e-05,-4e-05,-0.00021,-7e-05,2e-05,4e-05,5
19306,19923,0.00014,0.0001,-5e-05,-4e-05,-0.00021,-7e-05,2e-05,4e-05,5
19307,19924,0.00014,0.0001,-5e-05,-4e-05,-0.00021,-7e-05,2e-05,4e-05,5
19308,19925,0.00014,0.0001,-5e-05,-4e-05,-0.00021,-7e-05,2e-05,4e-05,5
19309,19926,0.00014,0.0001,-5e-05,-4e-05,-0.00021,-7e-05,2e-05,4e-05,5
19310,19927,0.00014,0.0001,-5e-05,-4e-05,-0.00021,-7e-05,2e-05,4e-05,5
19311,19928,0.00014,0.0001,-5e-05,-4e-05,-0.00021,-7e-05,2e-05,4e-05,5
19312,19929,0.00014,0.0001,-5e-05,-4e-05,-0.00021,-7e-05,2e-05,4e-05,5
19313,19930,0.00014,0.0001,-5e-05,-4e-05,-0.00021,-7e-05,2e-05,4e-05,5
19314,19931,0.00014,0.0001,-5e-05,-4e-05,-0.00021,-7e-05,2e-05,4e-05,5
19315,19932,0.00014,0.0001,-5e-05,-4e-05,-0.00021,-7e-05,2e-05,4e-05,5
19316,19933,0.00014,0.0001,-5e-05,-4e-05,-0.00021,-7e-05,2e-05,4e-05,5
19317,19934,0.00014,0.0001,-5e-05,-4e-05,-0.00021,-7e-05,2e-05,4e-05,5
19318,19935,0.00014,0.0001,-5e-05,-4e-05,-0.00021,-7e-05,2e-05,4e-05,5
19319,19936,0.00014,0.0001,-5e-05,-4e-05,-0.00021,-7e-05,2e-05,4e-05,5
19320,19938,-0.00022,-4e-05,0.00018999999999999998,0.00018,0.00022999999999999998,0.00011999999999999999,4e-05,1e-05,5
19321,19939,5.9999999999999995e-05,-5e-05,-0.0002,-7e-05,-0.00026000000000000003,-2e-05,-7e-05,-4e-05,5
19322,19940,-2e-05,-2.9999999999999997e-05,-5e-05,0.00015,-0.00029,-5.9999999999999995e-05,-4e-05,-2e-05,5
19323,19941,-2e-05,-2.9999999999999997e-05,-5e-05,0.00015,-0.00029,-5.9999999999999995e-05,-4e-05,-2e-05,5
19324,19942,-2e-05,-2.9999999999999997e-05,-5e-05,0.00015,-0.00029,-5.9999999999999995e-05,-4e-05,-2e-05,5
19325,19943,-2e-05,-2.9999999999999997e-05,-5e-05,0.00015,-0.00029,-5.9999999999999995e-05,-4e-05,-2e-05,5
19326,19944,-2e-05,-2.9999999999999997e-05,-5e-05,0.00015,-0.00029,-5.9999999999999995e-05,-4e-05,-2e-05,5
19327,19945,-2e-05,-2.9999999999999997e-05,-5e-05,0.00015,-0.00029,-5.9999999999999995e-05,-4e-05,-2e-05,5
19328,19946,-2e-05,-2.9999999999999997e-05,-5e-05,0.00015,-0.00029,-5.9999999999999995e-05,-4e-05,-2e-05,5
19329,19947,-2e-05,-2.9999999999999997e-05,-5e-05,0.00015,-0.00029,-5.9999999999999995e-05,-4e-05,-2e-05,5
19330,19948,-2e-05,-2.9999999999999997e-05,-5e-05,0.00015,-0.00029,-5.9999999999999995e-05,-4e-05,-2e-05,5
19331,19949,-2e-05,-2.9999999999999997e-05,-5e-05,0.00015,-0.00029,-5.9999999999999995e-05,-4e-05,-2e-05,5
19332,19950,-2e-05,-2.9999999999999997e-05,-5e-05,0.00015,-0.00029,-5.9999999999999995e-05,-4e-05,-2e-05,5
19333,19951,-2e-05,-2.9999999999999997e-05,-5e-05,0.00015,-0.00029,-5.9999999999999995e-05,-4e-05,-2e-05,5
19334,19952,-2.9999999999999997e-05,-2e-05,-0.00011999999999999999,-0.00018,8e-05,-5.9999999999999995e-05,-4e-05,-2.9999999999999997e-05,5
19335,19953,-2.9999999999999997e-05,-2e-05,-0.00011999999999999999,-0.00018,8e-05,-5.9999999999999995e-05,-4e-05,-2.9999999999999997e-05,5
19336,19954,-2.9999999999999997e-05,-2e-05,-0.00011999999999999999,-0.00018,8e-05,-5.9999999999999995e-05,-4e-05,-2.9999999999999997e-05,5
19337,19955,-2.9999999999999997e-05,-2e-05,-0.00011999999999999999,-0.00018,8e-05,-5.9999999999999995e-05,-4e-05,-2.9999999999999997e-05,5
19338,19956,-2.9999999999999997e-05,-2e-05,-0.00011999999999999999,-0.00018,8e-05,-5.9999999999999995e-05,-4e-05,-2.9999999999999997e-05,5
19339,19957,-2.9999999999999997e-05,-2e-05,-0.00011999999999999999,-0.00018,8e-05,-5.9999999999999995e-05,-4e-05,-2.9999999999999997e-05,5
19340,19958,0.0,-1e-05,-0.00015,-0.00023999999999999998,0.00041,-1e-05,-1e-05,-2.9999999999999997e-05,5
19341,19959,0.0,-1e-05,-0.00015,-0.00023999999999999998,0.00041,-1e-05,-1e-05,-2.9999999999999997e-05,5
19342,19960,0.0,-1e-05,-0.00015,-0.00023999999999999998,0.00041,-1e-05,-1e-05,-2.9999999999999997e-05,5
19343,19961,0.0,-1e-05,-0.00015,-0.00023999999999999998,0.00041,-1e-05,-1e-05,-2.9999999999999997e-05,5
19344,19962,0.0,-1e-05,-0.00015,-0.00023999999999999998,0.00041,-1e-05,-1e-05,-2.9999999999999997e-05,5
19345,19963,0.0,-1e-05,-0.00015,-0.00023999999999999998,0.00041,-1e-05,-1e-05,-2.9999999999999997e-05,5
19346,19964,0.0,-1e-05,-0.00015,-0.00023999999999999998,0.00041,-1e-05,-1e-05,-2.9999999999999997e-05,5
19347,19965,0.0,-1e-05,-0.00015,-0.00023999999999999998,0.00041,-1e-05,-1e-05,-2.9999999999999997e-05,5
19348,19966,0.0,-1e-05,-0.00015,-0.00023999999999999998,0.00041,-1e-05,-1e-05,-2.9999999999999997e-05,5
19349,19967,0.0,-1e-05,-0.00015,-0.00023999999999999998,0.00041,-1e-05,-1e-05,-2.9999999999999997e-05,5
19350,19968,0.0,-1e-05,-0.00015,-0.00023999999999999998,0.00041,-1e-05,-1e-05,-2.9999999999999997e-05,5
19351,19969,0.0,-1e-05,-0.00015,-0.00023999999999999998,0.00041,-1e-05,-1e-05,-2.9999999999999997e-05,5
19352,19970,0.0,-1e-05,-0.00015,-0.00023999999999999998,0.00041,-1e-05,-1e-05,-2.9999999999999997e-05,5
19353,19971,0.0,-1e-05,-0.00015,-0.00023999999999999998,0.00041,-1e-05,-1e-05,-2.9999999999999997e-05,5
19354,19972,0.0,-1e-05,-0.00015,-0.00023999999999999998,0.00041,-1e-05,-1e-05,-2.9999999999999997e-05,5
19355,19973,0.0,-1e-05,-0.00015,-0.00023999999999999998,0.00041,-1e-05,-1e-05,-2.9999999999999997e-05,5
19356,19974,0.0,-1e-05,-0.00015,-0.00023999999999999998,0.00041,-1e-05,-1e-05,-2.9999999999999997e-05,5
19357,19975,-5e-05,-2.9999999999999997e-05,-5e-05,0.00013000000000000002,5.9999999999999995e-05,-4e-05,-2e-05,-2.9999999999999997e-05,5
19358,19976,2e-05,0.0,2e-05,-5e-05,-2.9999999999999997e-05,2.9999999999999997e-05,4e-05,0.0,5
19359,19977,2e-05,0.0,2e-05,-5e-05,-2.9999999999999997e-05,2.9999999999999997e-05,4e-05,0.0,5
19360,19978,2e-05,0.0,2e-05,-5e-05,-2.9999999999999997e-05,2.9999999999999997e-05,4e-05,0.0,5
19361,19979,2e-05,0.0,2e-05,-5e-05,-2.9999999999999997e-05,2.9999999999999997e-05,4e-05,0.0,5
19362,19980,2e-05,0.0,2e-05,-5e-05,-2.9999999999999997e-05,2.9999999999999997e-05,4e-05,0.0,5
19363,19981,2e-05,0.0,2e-05,-5e-05,-2.9999999999999997e-05,2.9999999999999997e-05,4e-05,0.0,5
19364,19982,2e-05,0.0,2e-05,-5e-05,-2.9999999999999997e-05,2.9999999999999997e-05,4e-05,0.0,5
19365,19983,2e-05,0.0,2e-05,-5e-05,-2.9999999999999997e-05,2.9999999999999997e-05,4e-05,0.0,5
19366,19984,2e-05,0.0,2e-05,-5e-05,-2.9999999999999997e-05,2.9999999999999997e-05,4e-05,0.0,5
19367,19985,2e-05,0.0,2e-05,-5e-05,-2.9999999999999997e-05,2.9999999999999997e-05,4e-05,0.0,5
19368,19986,2e-05,0.0,2e-05,-5e-05,-2.9999999999999997e-05,2.9999999999999997e-05,4e-05,0.0,5
19369,19988,2e-05,0.0,2e-05,-5e-05,-2.9999999999999997e-05,2.9999999999999997e-05,4e-05,0.0,5
19370,19989,2e-05,0.0,2e-05,-5e-05,-2.9999999999999997e-05,2.9999999999999997e-05,4e-05,0.0,5
19371,19990,2e-05,0.0,2e-05,-5e-05,-2.9999999999999997e-05,2.9999999999999997e-05,4e-05,0.0,5
19372,19991,2e-05,0.0,2e-05,-5e-05,-2.9999999999999997e-05,2.9999999999999997e-05,4e-05,0.0,5
19373,19992,2e-05,0.0,2e-05,-5e-05,-2.9999999999999997e-05,2.9999999999999997e-05,4e-05,0.0,5
19374,19993,2e-05,0.0,2e-05,-5e-05,-2.9999999999999997e-05,2.9999999999999997e-05,4e-05,0.0,5
19375,19994,2e-05,0.0,2e-05,-5e-05,-2.9999999999999997e-05,2.9999999999999997e-05,4e-05,0.0,5
19376,19995,2e-05,0.0,2e-05,-5e-05,-2.9999999999999997e-05,2.9999999999999997e-05,4e-05,0.0,5
19377,19996,2e-05,0.0,2e-05,-5e-05,-2.9999999999999997e-05,2.9999999999999997e-05,4e-05,0.0,5
19378,19997,4e-05,5.9999999999999995e-05,-2e-05,-0.00011999999999999999,-0.00016999999999999999,2e-05,1e-05,1e-05,5
19379,19998,4e-05,5.9999999999999995e-05,-2e-05,-0.00011999999999999999,-0.00016999999999999999,2e-05,1e-05,1e-05,5
19380,19999,-5e-05,-5e-05,-1e-05,-2e-05,0.0001,2e-05,-5e-05,-1e-05,5
19381,20000,-5e-05,-5e-05,-1e-05,-2e-05,0.0001,2e-05,-5e-05,-1e-05,5
19382,20001,-5e-05,-5e-05,-1e-05,-2e-05,0.0001,2e-05,-5e-05,-1e-05,5
19383,20002,-5e-05,-5e-05,-1e-05,-2e-05,0.0001,2e-05,-5e-05,-1e-05,5
19384,20003,-5e-05,-5e-05,-1e-05,-2e-05,0.0001,2e-05,-5e-05,-1e-05,5
19385,20004,-5e-05,-5e-05,-1e-05,-2e-05,0.0001,2e-05,-5e-05,-1e-05,5
19386,20005,-5e-05,-5e-05,-1e-05,-2e-05,0.0001,2e-05,-5e-05,-1e-05,5
19387,20006,-5e-05,-5e-05,-1e-05,-2e-05,0.0001,2e-05,-5e-05,-1e-05,5
19388,20007,-5e-05,-5e-05,-1e-05,-2e-05,0.0001,2e-05,-5e-05,-1e-05,5
19389,20008,-5e-05,-5e-05,-1e-05,-2e-05,0.0001,2e-05,-5e-05,-1e-05,5
19390,20009,-5e-05,-5e-05,-1e-05,-2e-05,0.0001,2e-05,-5e-05,-1e-05,5
19391,20010,-5e-05,-5e-05,-1e-05,-2e-05,0.0001,2e-05,-5e-05,-1e-05,5
19392,20011,-5e-05,-5e-05,-1e-05,-2e-05,0.0001,2e-05,-5e-05,-1e-05,5
19393,20012,4e-05,7e-05,9e-05,0.00032,-2.9999999999999997e-05,0.00011,7e-05,2.9999999999999997e-05,5
19394,20013,4e-05,7e-05,9e-05,0.00032,-2.9999999999999997e-05,0.00011,7e-05,2.9999999999999997e-05,5
19395,20014,4e-05,7e-05,9e-05,0.00032,-2.9999999999999997e-05,0.00011,7e-05,2.9999999999999997e-05,5
19396,20015,4e-05,7e-05,9e-05,0.00032,-2.9999999999999997e-05,0.00011,7e-05,2.9999999999999997e-05,5
19397,20016,4e-05,7e-05,9e-05,0.00032,-2.9999999999999997e-05,0.00011,7e-05,2.9999999999999997e-05,5
19398,20017,4e-05,7e-05,9e-05,0.00032,-2.9999999999999997e-05,0.00011,7e-05,2.9999999999999997e-05,5
19399,20018,1e-05,2.9999999999999997e-05,0.00013000000000000002,-0.0001,-0.00037,2.9999999999999997e-05,1e-05,0.0,5
19400,20019,-2.9999999999999997e-05,-0.0001,-0.00026000000000000003,-2.9999999999999997e-05,-2e-05,-2e-05,-4e-05,1e-05,5
19401,20020,-2.9999999999999997e-05,-0.0001,-0.00026000000000000003,-2.9999999999999997e-05,-2e-05,-2e-05,-4e-05,1e-05,5
19402,20021,-2.9999999999999997e-05,-0.0001,-0.00026000000000000003,-2.9999999999999997e-05,-2e-05,-2e-05,-4e-05,1e-05,5
19403,20022,-2.9999999999999997e-05,-0.0001,-0.00026000000000000003,-2.9999999999999997e-05,-2e-05,-2e-05,-4e-05,1e-05,5
19404,20023,-2.9999999999999997e-05,-0.0001,-0.00026000000000000003,-2.9999999999999997e-05,-2e-05,-2e-05,-4e-05,1e-05,5
19405,20024,-2.9999999999999997e-05,-0.0001,-0.00026000000000000003,-2.9999999999999997e-05,-2e-05,-2e-05,-4e-05,1e-05,5
19406,20025,-2.9999999999999997e-05,-0.0001,-0.00026000000000000003,-2.9999999999999997e-05,-2e-05,-2e-05,-4e-05,1e-05,5
19407,20026,-2.9999999999999997e-05,-0.0001,-0.00026000000000000003,-2.9999999999999997e-05,-2e-05,-2e-05,-4e-05,1e-05,5
19408,20027,-2.9999999999999997e-05,-0.0001,-0.00026000000000000003,-2.9999999999999997e-05,-2e-05,-2e-05,-4e-05,1e-05,5
19409,20028,-2.9999999999999997e-05,-0.0001,-0.00026000000000000003,-2.9999999999999997e-05,-2e-05,-2e-05,-4e-05,1e-05,5
19410,20029,-2.9999999999999997e-05,-0.0001,-0.00026000000000000003,-2.9999999999999997e-05,-2e-05,-2e-05,-4e-05,1e-05,5
19411,20030,-2.9999999999999997e-05,-0.0001,-0.00026000000000000003,-2.9999999999999997e-05,-2e-05,-2e-05,-4e-05,1e-05,5
19412,20031,-2.9999999999999997e-05,-0.0001,-0.00026000000000000003,-2.9999999999999997e-05,-2e-05,-2e-05,-4e-05,1e-05,5
19413,20033,-2.9999999999999997e-05,-0.0001,-0.00026000000000000003,-2.9999999999999997e-05,-2e-05,-2e-05,-4e-05,1e-05,5
19414,20034,-0.00022,-0.00027,5e-05,-0.00025,-0.00016,-2.9999999999999997e-05,-2.9999999999999997e-05,-2.9999999999999997e-05,5
19415,20035,-0.00022,-0.00027,5e-05,-0.00025,-0.00016,-2.9999999999999997e-05,-2.9999999999999997e-05,-2.9999999999999997e-05,5
19416,20042,-0.00022,-0.00027,5e-05,-0.00025,-0.00016,-2.9999999999999997e-05,-2.9999999999999997e-05,-2.9999999999999997e-05,5
19417,20043,-8e-05,-2.9999999999999997e-05,4e-05,-9e-05,0.0001,8e-05,-2e-05,-2.9999999999999997e-05,5
19418,20044,-8e-05,-2.9999999999999997e-05,4e-05,-9e-05,0.0001,8e-05,-2e-05,-2.9999999999999997e-05,5
19419,20045,-8e-05,-2.9999999999999997e-05,4e-05,-9e-05,0.0001,8e-05,-2e-05,-2.9999999999999997e-05,5
19420,20046,-8e-05,-2.9999999999999997e-05,4e-05,-9e-05,0.0001,8e-05,-2e-05,-2.9999999999999997e-05,5
19421,20047,-8e-05,-2.9999999999999997e-05,4e-05,-9e-05,0.0001,8e-05,-2e-05,-2.9999999999999997e-05,5
19422,20048,-8e-05,-2.9999999999999997e-05,4e-05,-9e-05,0.0001,8e-05,-2e-05,-2.9999999999999997e-05,5
19423,20049,-8e-05,-2.9999999999999997e-05,4e-05,-9e-05,0.0001,8e-05,-2e-05,-2.9999999999999997e-05,5
19424,20050,-8e-05,-2.9999999999999997e-05,4e-05,-9e-05,0.0001,8e-05,-2e-05,-2.9999999999999997e-05,5
19425,20051,-8e-05,-2.9999999999999997e-05,4e-05,-9e-05,0.0001,8e-05,-2e-05,-2.9999999999999997e-05,5
19426,20052,-8e-05,-2.9999999999999997e-05,4e-05,-9e-05,0.0001,8e-05,-2e-05,-2.9999999999999997e-05,5
19427,20053,-8e-05,-2.9999999999999997e-05,4e-05,-9e-05,0.0001,8e-05,-2e-05,-2.9999999999999997e-05,5
19428,20054,-8e-05,-2.9999999999999997e-05,4e-05,-9e-05,0.0001,8e-05,-2e-05,-2.9999999999999997e-05,5
19429,20055,-8e-05,-2.9999999999999997e-05,4e-05,-9e-05,0.0001,8e-05,-2e-05,-2.9999999999999997e-05,5
19430,20056,-8e-05,-2.9999999999999997e-05,4e-05,-9e-05,0.0001,8e-05,-2e-05,-2.9999999999999997e-05,5
19431,20057,-8e-05,-2.9999999999999997e-05,4e-05,-9e-05,0.0001,8e-05,-2e-05,-2.9999999999999997e-05,5
19432,20058,-8e-05,-2.9999999999999997e-05,4e-05,-9e-05,0.0001,8e-05,-2e-05,-2.9999999999999997e-05,5
19433,20059,-8e-05,-2.9999999999999997e-05,4e-05,-9e-05,0.0001,8e-05,-2e-05,-2.9999999999999997e-05,5
19434,20060,-8e-05,-2.9999999999999997e-05,4e-05,-9e-05,0.0001,8e-05,-2e-05,-2.9999999999999997e-05,5
19435,20061,-8e-05,-2.9999999999999997e-05,4e-05,-9e-05,0.0001,8e-05,-2e-05,-2.9999999999999997e-05,5
19436,20062,-8e-05,-2.9999999999999997e-05,4e-05,-9e-05,0.0001,8e-05,-2e-05,-2.9999999999999997e-05,5
19437,20063,-8e-05,-2.9999999999999997e-05,4e-05,-9e-05,0.0001,8e-05,-2e-05,-2.9999999999999997e-05,5
19438,20064,-8e-05,-2.9999999999999997e-05,4e-05,-9e-05,0.0001,8e-05,-2e-05,-2.9999999999999997e-05,5
19439,20065,8e-05,9e-05,0.00014,-0.0001,-0.0001,5e-05,4e-05,4e-05,5
19440,20066,8e-05,9e-05,0.00014,-0.0001,-0.0001,5e-05,4e-05,4e-05,5
19441,20067,2.9999999999999997e-05,-5.9999999999999995e-05,-0.00011999999999999999,-0.00037,-0.0004,2.9999999999999997e-05,2e-05,0.0,5
19442,20068,2.9999999999999997e-05,-5.9999999999999995e-05,-0.00011999999999999999,-0.00037,-0.0004,2.9999999999999997e-05,2e-05,0.0,5
19443,20069,2.9999999999999997e-05,-5.9999999999999995e-05,-0.00011999999999999999,-0.00037,-0.0004,2.9999999999999997e-05,2e-05,0.0,5
19444,20070,2.9999999999999997e-05,-5.9999999999999995e-05,-0.00011999999999999999,-0.00037,-0.0004,2.9999999999999997e-05,2e-05,0.0,5
19445,20071,2.9999999999999997e-05,-5.9999999999999995e-05,-0.00011999999999999999,-0.00037,-0.0004,2.9999999999999997e-05,2e-05,0.0,5
19446,20072,2.9999999999999997e-05,5e-05,5e-05,-0.00033,0.00016,5e-05,2e-05,1e-05,5
19447,20073,2.9999999999999997e-05,5e-05,5e-05,-0.00033,0.00016,5e-05,2e-05,1e-05,5
19448,20074,2.9999999999999997e-05,5e-05,5e-05,-0.00033,0.00016,5e-05,2e-05,1e-05,5
19449,20075,2.9999999999999997e-05,5e-05,5e-05,-0.00033,0.00016,5e-05,2e-05,1e-05,5
19450,20076,2.9999999999999997e-05,5e-05,5e-05,-0.00033,0.00016,5e-05,2e-05,1e-05,5
19451,20077,2.9999999999999997e-05,5e-05,5e-05,-0.00033,0.00016,5e-05,2e-05,1e-05,5
19452,20078,-4e-05,7e-05,8e-05,0.0005099999999999999,-0.00029,-8e-05,-2.9999999999999997e-05,-2e-05,5
19453,20079,-4e-05,7e-05,8e-05,0.0005099999999999999,-0.00029,-8e-05,-2.9999999999999997e-05,-2e-05,5
19454,20080,-4e-05,7e-05,8e-05,0.0005099999999999999,-0.00029,-8e-05,-2.9999999999999997e-05,-2e-05,5
19455,20081,-4e-05,7e-05,8e-05,0.0005099999999999999,-0.00029,-8e-05,-2.9999999999999997e-05,-2e-05,5
19456,20082,-4e-05,7e-05,8e-05,0.0005099999999999999,-0.00029,-8e-05,-2.9999999999999997e-05,-2e-05,5
19457,20083,-4e-05,7e-05,8e-05,0.0005099999999999999,-0.00029,-8e-05,-2.9999999999999997e-05,-2e-05,5
19458,20084,-4e-05,7e-05,8e-05,0.0005099999999999999,-0.00029,-8e-05,-2.9999999999999997e-05,-2e-05,5
19459,20085,-4e-05,7e-05,8e-05,0.0005099999999999999,-0.00029,-8e-05,-2.9999999999999997e-05,-2e-05,5
19460,20086,-4e-05,7e-05,8e-05,0.0005099999999999999,-0.00029,-8e-05,-2.9999999999999997e-05,-2e-05,5
19461,20088,-4e-05,7e-05,8e-05,0.0005099999999999999,-0.00029,-8e-05,-2.9999999999999997e-05,-2e-05,5
19462,20089,-4e-05,7e-05,8e-05,0.0005099999999999999,-0.00029,-8e-05,-2.9999999999999997e-05,-2e-05,5
19463,20090,-4e-05,7e-05,8e-05,0.0005099999999999999,-0.00029,-8e-05,-2.9999999999999997e-05,-2e-05,5
19464,20091,-4e-05,7e-05,8e-05,0.0005099999999999999,-0.00029,-8e-05,-2.9999999999999997e-05,-2e-05,5
19465,20092,-4e-05,7e-05,8e-05,0.0005099999999999999,-0.00029,-8e-05,-2.9999999999999997e-05,-2e-05,5
19466,20093,-4e-05,7e-05,8e-05,0.0005099999999999999,-0.00029,-8e-05,-2.9999999999999997e-05,-2e-05,5
19467,20094,-4e-05,7e-05,8e-05,0.0005099999999999999,-0.00029,-8e-05,-2.9999999999999997e-05,-2e-05,5
19468,20095,-5e-05,1e-05,0.00018999999999999998,0.0007,0.00103,0.00018999999999999998,5.9999999999999995e-05,4e-05,5
19469,20096,-7e-05,-0.00014,-0.00037999999999999997,-0.00035,-0.00043,-0.00011,-8e-05,-8e-05,5
19470,20097,-7e-05,-0.00014,-0.00037999999999999997,-0.00035,-0.00043,-0.00011,-8e-05,-8e-05,5
19471,20098,-7e-05,-0.00014,-0.00037999999999999997,-0.00035,-0.00043,-0.00011,-8e-05,-8e-05,5
19472,20099,-7e-05,-0.00014,-0.00037999999999999997,-0.00035,-0.00043,-0.00011,-8e-05,-8e-05,5
19473,20100,-7e-05,-0.00014,-0.00037999999999999997,-0.00035,-0.00043,-0.00011,-8e-05,-8e-05,5
19474,20101,-7e-05,-0.00014,-0.00037999999999999997,-0.00035,-0.00043,-0.00011,-8e-05,-8e-05,5
19475,20102,-7e-05,-0.00014,-0.00037999999999999997,-0.00035,-0.00043,-0.00011,-8e-05,-8e-05,5
19476,20103,-7e-05,-0.00014,-0.00037999999999999997,-0.00035,-0.00043,-0.00011,-8e-05,-8e-05,5
19477,20104,-7e-05,-0.00014,-0.00037999999999999997,-0.00035,-0.00043,-0.00011,-8e-05,-8e-05,5
19478,20105,-7e-05,-0.00014,-0.00037999999999999997,-0.00035,-0.00043,-0.00011,-8e-05,-8e-05,5
19479,20106,-7e-05,-0.00014,-0.00037999999999999997,-0.00035,-0.00043,-0.00011,-8e-05,-8e-05,5
19480,20107,-7e-05,-0.00014,-0.00037999999999999997,-0.00035,-0.00043,-0.00011,-8e-05,-8e-05,5
19481,20108,-7e-05,-0.00014,-0.00037999999999999997,-0.00035,-0.00043,-0.00011,-8e-05,-8e-05,5
19482,20109,-7e-05,-0.00014,-0.00037999999999999997,-0.00035,-0.00043,-0.00011,-8e-05,-8e-05,5
19483,20110,-7e-05,-0.00014,-0.00037999999999999997,-0.00035,-0.00043,-0.00011,-8e-05,-8e-05,5
19484,20111,-7e-05,-0.00014,-0.00037999999999999997,-0.00035,-0.00043,-0.00011,-8e-05,-8e-05,5
19485,20112,-7e-05,-0.00014,-0.00037999999999999997,-0.00035,-0.00043,-0.00011,-8e-05,-8e-05,5
19486,20113,-7e-05,-0.00014,-0.00037999999999999997,-0.00035,-0.00043,-0.00011,-8e-05,-8e-05,5
19487,20114,-7e-05,-0.00014,-0.00037999999999999997,-0.00035,-0.00043,-0.00011,-8e-05,-8e-05,5
19488,20115,-7e-05,-0.00014,-0.00037999999999999997,-0.00035,-0.00043,-0.00011,-8e-05,-8e-05,5
19489,20116,-7e-05,-0.00014,-0.00037999999999999997,-0.00035,-0.00043,-0.00011,-8e-05,-8e-05,5
19490,20117,9e-05,5e-05,-2e-05,-2.9999999999999997e-05,-0.00023999999999999998,-9e-05,-2e-05,0.0,5
19491,20118,9e-05,5e-05,-2e-05,-2.9999999999999997e-05,-0.00023999999999999998,-9e-05,-2e-05,0.0,5
19492,20119,2e-05,0.00011,0.00028,0.0001,0.00023999999999999998,-2.9999999999999997e-05,-1e-05,0.0,5
19493,20120,2e-05,0.00011,0.00028,0.0001,0.00023999999999999998,-2.9999999999999997e-05,-1e-05,0.0,5
19494,20121,2e-05,0.00011,0.00028,0.0001,0.00023999999999999998,-2.9999999999999997e-05,-1e-05,0.0,5
19495,20122,2e-05,0.00011,0.00028,0.0001,0.00023999999999999998,-2.9999999999999997e-05,-1e-05,0.0,5
19496,20123,2e-05,0.00011,0.00028,0.0001,0.00023999999999999998,-2.9999999999999997e-05,-1e-05,0.0,5
19497,20124,2e-05,0.00011,0.00028,0.0001,0.00023999999999999998,-2.9999999999999997e-05,-1e-05,0.0,5
19498,20125,2e-05,0.00011,0.00028,0.0001,0.00023999999999999998,-2.9999999999999997e-05,-1e-05,0.0,5
19499,20126,2e-05,0.00011,0.00028,0.0001,0.00023999999999999998,-2.9999999999999997e-05,-1e-05,0.0,5
19500,20127,2e-05,0.00011,0.00028,0.0001,0.00023999999999999998,-2.9999999999999997e-05,-1e-05,0.0,5
19501,20128,2e-05,0.00011,0.00028,0.0001,0.00023999999999999998,-2.9999999999999997e-05,-1e-05,0.0,5
19502,20129,2e-05,0.00011,0.00028,0.0001,0.00023999999999999998,-2.9999999999999997e-05,-1e-05,0.0,5
19503,20130,2e-05,0.00011,0.00028,0.0001,0.00023999999999999998,-2.9999999999999997e-05,-1e-05,0.0,5
19504,20131,2e-05,-5e-05,-0.00018,-0.00011999999999999999,-7e-05,2e-05,-4e-05,-4e-05,5
19505,20132,2e-05,-5e-05,-0.00018,-0.00011999999999999999,-7e-05,2e-05,-4e-05,-4e-05,5
19506,20133,2e-05,-5e-05,-0.00018,-0.00011999999999999999,-7e-05,2e-05,-4e-05,-4e-05,5
19507,20134,2e-05,-5e-05,-0.00018,-0.00011999999999999999,-7e-05,2e-05,-4e-05,-4e-05,5
19508,20135,2e-05,-5e-05,-0.00018,-0.00011999999999999999,-7e-05,2e-05,-4e-05,-4e-05,5
19509,20136,2e-05,-5e-05,-0.00018,-0.00011999999999999999,-7e-05,2e-05,-4e-05,-4e-05,5
19510,20138,2e-05,-5e-05,-0.00018,-0.00011999999999999999,-7e-05,2e-05,-4e-05,-4e-05,5
19511,20139,2e-05,-5e-05,-0.00018,-0.00011999999999999999,-7e-05,2e-05,-4e-05,-4e-05,5
19512,20140,2e-05,2e-05,9e-05,-0.00022,-0.00025,0.0,1e-05,2e-05,5
19513,20141,2e-05,2e-05,9e-05,-0.00022,-0.00025,0.0,1e-05,2e-05,5
19514,20142,2e-05,2e-05,9e-05,-0.00022,-0.00025,0.0,1e-05,2e-05,5
19515,20143,2e-05,2e-05,9e-05,-0.00022,-0.00025,0.0,1e-05,2e-05,5
19516,20144,2e-05,2e-05,9e-05,-0.00022,-0.00025,0.0,1e-05,2e-05,5
19517,20145,2e-05,2e-05,9e-05,-0.00022,-0.00025,0.0,1e-05,2e-05,5
19518,20146,2e-05,2e-05,9e-05,-0.00022,-0.00025,0.0,1e-05,2e-05,5
19519,20147,2e-05,2e-05,9e-05,-0.00022,-0.00025,0.0,1e-05,2e-05,5
19520,20148,2e-05,2e-05,9e-05,-0.00022,-0.00025,0.0,1e-05,2e-05,5
19521,20149,2e-05,2e-05,9e-05,-0.00022,-0.00025,0.0,1e-05,2e-05,5
19522,20150,2e-05,2e-05,9e-05,-0.00022,-0.00025,0.0,1e-05,2e-05,5
19523,20151,2e-05,2e-05,9e-05,-0.00022,-0.00025,0.0,1e-05,2e-05,5
19524,20152,2e-05,2e-05,9e-05,-0.00022,-0.00025,0.0,1e-05,2e-05,5
19525,20153,2e-05,2e-05,9e-05,-0.00022,-0.00025,0.0,1e-05,2e-05,5
19526,20154,2e-05,2e-05,9e-05,-0.00022,-0.00025,0.0,1e-05,2e-05,5
19527,20155,-1e-05,1e-05,-4e-05,-0.00016999999999999999,-0.00037999999999999997,-8e-05,-4e-05,-2.9999999999999997e-05,5
19528,20156,1e-05,1e-05,0.00011,0.00018999999999999998,0.00079,7e-05,0.0,1e-05,5
19529,20157,1e-05,1e-05,0.00011,0.00018999999999999998,0.00079,7e-05,0.0,1e-05,5
19530,20158,1e-05,1e-05,0.00011,0.00018999999999999998,0.00079,7e-05,0.0,1e-05,5
19531,20159,1e-05,1e-05,0.00011,0.00018999999999999998,0.00079,7e-05,0.0,1e-05,5
19532,20160,1e-05,1e-05,0.00011,0.00018999999999999998,0.00079,7e-05,0.0,1e-05,5
19533,20161,1e-05,1e-05,0.00011,0.00018999999999999998,0.00079,7e-05,0.0,1e-05,5
19534,20162,1e-05,1e-05,0.00011,0.00018999999999999998,0.00079,7e-05,0.0,1e-05,5
19535,20163,1e-05,1e-05,0.00011,0.00018999999999999998,0.00079,7e-05,0.0,1e-05,5
19536,20164,1e-05,1e-05,0.00011,0.00018999999999999998,0.00079,7e-05,0.0,1e-05,5
19537,20165,1e-05,1e-05,0.00011,0.00018999999999999998,0.00079,7e-05,0.0,1e-05,5
19538,20166,1e-05,1e-05,0.00011,0.00018999999999999998,0.00079,7e-05,0.0,1e-05,5
19539,20167,1e-05,1e-05,0.00011,0.00018999999999999998,0.00079,7e-05,0.0,1e-05,5
19540,20168,1e-05,1e-05,0.00011,0.00018999999999999998,0.00079,7e-05,0.0,1e-05,5
19541,20169,1e-05,1e-05,0.00011,0.00018999999999999998,0.00079,7e-05,0.0,1e-05,5
19542,20170,1e-05,1e-05,0.00011,0.00018999999999999998,0.00079,7e-05,0.0,1e-05,5
19543,20171,1e-05,1e-05,0.00011,0.00018999999999999998,0.00079,7e-05,0.0,1e-05,5
19544,20172,1e-05,1e-05,0.00011,0.00018999999999999998,0.00079,7e-05,0.0,1e-05,5
19545,20173,1e-05,1e-05,0.00011,0.00018999999999999998,0.00079,7e-05,0.0,1e-05,5
19546,20174,1e-05,1e-05,0.00011,0.00018999999999999998,0.00079,7e-05,0.0,1e-05,5
19547,20175,1e-05,1e-05,0.00011,0.00018999999999999998,0.00079,7e-05,0.0,1e-05,5
19548,20176,1e-05,1e-05,0.00011,0.00018999999999999998,0.00079,7e-05,0.0,1e-05,5
19549,20177,5.9999999999999995e-05,0.0001,2.9999999999999997e-05,1e-05,-0.00022,-1e-05,0.0,1e-05,5
19550,20178,5.9999999999999995e-05,0.0001,2.9999999999999997e-05,1e-05,-0.00022,-1e-05,0.0,1e-05,5
19551,20179,-2e-05,1e-05,8e-05,0.00029,0.00035,2e-05,1e-05,0.0,5
19552,20180,-2e-05,1e-05,8e-05,0.00029,0.00035,2e-05,1e-05,0.0,5
19553,20181,-2e-05,1e-05,8e-05,0.00029,0.00035,2e-05,1e-05,0.0,5
19554,20182,-2e-05,1e-05,8e-05,0.00029,0.00035,2e-05,1e-05,0.0,5
19555,20183,-2e-05,1e-05,8e-05,0.00029,0.00035,2e-05,1e-05,0.0,5
19556,20184,-2e-05,1e-05,8e-05,0.00029,0.00035,2e-05,1e-05,0.0,5
19557,20185,-2e-05,1e-05,8e-05,0.00029,0.00035,2e-05,1e-05,0.0,5
19558,20186,-2e-05,1e-05,8e-05,0.00029,0.00035,2e-05,1e-05,0.0,5
19559,20188,-2e-05,1e-05,8e-05,0.00029,0.00035,2e-05,1e-05,0.0,5
19560,20189,-2e-05,1e-05,8e-05,0.00029,0.00035,2e-05,1e-05,0.0,5
19561,20190,-2e-05,1e-05,8e-05,0.00029,0.00035,2e-05,1e-05,0.0,5
19562,20191,-8e-05,-1e-05,0.0001,0.00022999999999999998,-0.0002,-5e-05,0.0,-2e-05,5
19563,20192,-8e-05,-1e-05,0.0001,0.00022999999999999998,-0.0002,-5e-05,0.0,-2e-05,5
19564,20193,-8e-05,-1e-05,0.0001,0.00022999999999999998,-0.0002,-5e-05,0.0,-2e-05,5
19565,20194,-8e-05,-1e-05,0.0001,0.00022999999999999998,-0.0002,-5e-05,0.0,-2e-05,5
19566,20195,-8e-05,-1e-05,0.0001,0.00022999999999999998,-0.0002,-5e-05,0.0,-2e-05,5
19567,20196,-8e-05,-1e-05,0.0001,0.00022999999999999998,-0.0002,-5e-05,0.0,-2e-05,5
19568,20197,-8e-05,-1e-05,0.0001,0.00022999999999999998,-0.0002,-5e-05,0.0,-2e-05,5
19569,20198,-8e-05,-1e-05,0.0001,0.00022999999999999998,-0.0002,-5e-05,0.0,-2e-05,5
19570,20199,-8e-05,-1e-05,0.0001,0.00022999999999999998,-0.0002,-5e-05,0.0,-2e-05,5
19571,20200,-8e-05,-1e-05,0.0001,0.00022999999999999998,-0.0002,-5e-05,0.0,-2e-05,5
19572,20201,-8e-05,-1e-05,0.0001,0.00022999999999999998,-0.0002,-5e-05,0.0,-2e-05,5
19573,20202,-8e-05,-1e-05,0.0001,0.00022999999999999998,-0.0002,-5e-05,0.0,-2e-05,5
19574,20203,-8e-05,-1e-05,0.0001,0.00022999999999999998,-0.0002,-5e-05,0.0,-2e-05,5
19575,20204,-8e-05,-1e-05,0.0001,0.00022999999999999998,-0.0002,-5e-05,0.0,-2e-05,5
19576,20205,-8e-05,-1e-05,0.0001,0.00022999999999999998,-0.0002,-5e-05,0.0,-2e-05,5
19577,20206,-8e-05,-1e-05,0.0001,0.00022999999999999998,-0.0002,-5e-05,0.0,-2e-05,5
19578,20207,-1e-05,-5.9999999999999995e-05,-0.00014,-0.00027,-0.0005099999999999999,-0.0001,-2.9999999999999997e-05,-2e-05,5
19579,20208,-1e-05,-5.9999999999999995e-05,-0.00014,-0.00027,-0.0005099999999999999,-0.0001,-2.9999999999999997e-05,-2e-05,5
19580,20209,-1e-05,-5.9999999999999995e-05,-0.00014,-0.00027,-0.0005099999999999999,-0.0001,-2.9999999999999997e-05,-2e-05,5
19581,20210,-1e-05,-5.9999999999999995e-05,-0.00014,-0.00027,-0.0005099999999999999,-0.0001,-2.9999999999999997e-05,-2e-05,5
19582,20211,-1e-05,-5.9999999999999995e-05,-0.00014,-0.00027,-0.0005099999999999999,-0.0001,-2.9999999999999997e-05,-2e-05,5
19583,20212,-1e-05,-5.9999999999999995e-05,-0.00014,-0.00027,-0.0005099999999999999,-0.0001,-2.9999999999999997e-05,-2e-05,5
19584,20213,-1e-05,-5.9999999999999995e-05,-0.00014,-0.00027,-0.0005099999999999999,-0.0001,-2.9999999999999997e-05,-2e-05,5
19585,20214,-1e-05,-5.9999999999999995e-05,-0.00014,-0.00027,-0.0005099999999999999,-0.0001,-2.9999999999999997e-05,-2e-05,5
19586,20215,0.0,-1e-05,1e-05,-0.0003,5e-05,-7e-05,-4e-05,-1e-05,5
19587,20216,0.0,-1e-05,1e-05,-0.0003,5e-05,-7e-05,-4e-05,-1e-05,5
19588,20217,-7e-05,-8e-05,0.00015,0.0,-0.0001,0.00014,2e-05,-1e-05,5
19589,20218,-7e-05,-8e-05,0.00015,0.0,-0.0001,0.00014,2e-05,-1e-05,5
19590,20219,-7e-05,-8e-05,0.00015,0.0,-0.0001,0.00014,2e-05,-1e-05,5
19591,20220,-7e-05,-8e-05,0.00015,0.0,-0.0001,0.00014,2e-05,-1e-05,5
19592,20221,-7e-05,-8e-05,0.00015,0.0,-0.0001,0.00014,2e-05,-1e-05,5
19593,20222,-7e-05,-8e-05,0.00015,0.0,-0.0001,0.00014,2e-05,-1e-05,5
19594,20223,-7e-05,-8e-05,0.00015,0.0,-0.0001,0.00014,2e-05,-1e-05,5
19595,20224,-7e-05,-8e-05,0.00015,0.0,-0.0001,0.00014,2e-05,-1e-05,5
19596,20225,-7e-05,-8e-05,0.00015,0.0,-0.0001,0.00014,2e-05,-1e-05,5
19597,20226,-7e-05,-8e-05,0.00015,0.0,-0.0001,0.00014,2e-05,-1e-05,5
19598,20227,-7e-05,-8e-05,0.00015,0.0,-0.0001,0.00014,2e-05,-1e-05,5
19599,20228,-7e-05,-8e-05,0.00015,0.0,-0.0001,0.00014,2e-05,-1e-05,5
19600,20229,-7e-05,-8e-05,0.00015,0.0,-0.0001,0.00014,2e-05,-1e-05,5
19601,20230,-7e-05,-8e-05,0.00015,0.0,-0.0001,0.00014,2e-05,-1e-05,5
19602,20231,-7e-05,-8e-05,0.00015,0.0,-0.0001,0.00014,2e-05,-1e-05,5
19603,20232,-7e-05,-8e-05,0.00015,0.0,-0.0001,0.00014,2e-05,-1e-05,5
19604,20233,-7e-05,-8e-05,0.00015,0.0,-0.0001,0.00014,2e-05,-1e-05,5
19605,20234,-7e-05,-8e-05,0.00015,0.0,-0.0001,0.00014,2e-05,-1e-05,5
19606,20235,-7e-05,-8e-05,0.00015,0.0,-0.0001,0.00014,2e-05,-1e-05,5
19607,20236,-7e-05,-8e-05,0.00015,0.0,-0.0001,0.00014,2e-05,-1e-05,5
19608,20239,1e-05,4e-05,-5e-05,-0.00029,-0.00018999999999999998,-0.00011,-4e-05,-2e-05,5
19609,20240,1e-05,4e-05,-5e-05,-0.00029,-0.00018999999999999998,-0.00011,-4e-05,-2e-05,5
19610,20241,1e-05,4e-05,-5e-05,-0.00029,-0.00018999999999999998,-0.00011,-4e-05,-2e-05,5
19611,20242,1e-05,4e-05,-5e-05,-0.00029,-0.00018999999999999998,-0.00011,-4e-05,-2e-05,5
19612,20243,1e-05,4e-05,-5e-05,-0.00029,-0.00018999999999999998,-0.00011,-4e-05,-2e-05,5
19613,20244,1e-05,4e-05,-5e-05,-0.00029,-0.00018999999999999998,-0.00011,-4e-05,-2e-05,5
19614,20245,1e-05,4e-05,-5e-05,-0.00029,-0.00018999999999999998,-0.00011,-4e-05,-2e-05,5
19615,20246,1e-05,4e-05,-5e-05,-0.00029,-0.00018999999999999998,-0.00011,-4e-05,-2e-05,5
19616,20247,1e-05,4e-05,-5e-05,-0.00029,-0.00018999999999999998,-0.00011,-4e-05,-2e-05,5
19617,20248,1e-05,4e-05,-5e-05,-0.00029,-0.00018999999999999998,-0.00011,-4e-05,-2e-05,5
19618,20249,1e-05,4e-05,-5e-05,-0.00029,-0.00018999999999999998,-0.00011,-4e-05,-2e-05,5
19619,20250,1e-05,4e-05,-5e-05,-0.00029,-0.00018999999999999998,-0.00011,-4e-05,-2e-05,5
19620,20251,5.9999999999999995e-05,7e-05,9e-05,0.00036,0.00031,5.9999999999999995e-05,2e-05,0.0,5
19621,20252,5.9999999999999995e-05,7e-05,9e-05,0.00036,0.00031,5.9999999999999995e-05,2e-05,0.0,5
19622,20253,5.9999999999999995e-05,7e-05,9e-05,0.00036,0.00031,5.9999999999999995e-05,2e-05,0.0,5
19623,20254,5.9999999999999995e-05,7e-05,9e-05,0.00036,0.00031,5.9999999999999995e-05,2e-05,0.0,5
19624,20255,5.9999999999999995e-05,7e-05,9e-05,0.00036,0.00031,5.9999999999999995e-05,2e-05,0.0,5
19625,20256,5.9999999999999995e-05,7e-05,9e-05,0.00036,0.00031,5.9999999999999995e-05,2e-05,0.0,5
19626,20257,5.9999999999999995e-05,7e-05,9e-05,0.00036,0.00031,5.9999999999999995e-05,2e-05,0.0,5
19627,20258,5.9999999999999995e-05,7e-05,9e-05,0.00036,0.00031,5.9999999999999995e-05,2e-05,0.0,5
19628,20260,5.9999999999999995e-05,7e-05,9e-05,0.00036,0.00031,5.9999999999999995e-05,2e-05,0.0,5
19629,20261,-2.9999999999999997e-05,0.0,-5.9999999999999995e-05,-0.0001,-0.0005200000000000001,-0.00018999999999999998,-4e-05,-2e-05,5
19630,20262,-2.9999999999999997e-05,0.0,-5.9999999999999995e-05,-0.0001,-0.0005200000000000001,-0.00018999999999999998,-4e-05,-2e-05,5
19631,20263,-2.9999999999999997e-05,0.0,-5.9999999999999995e-05,-0.0001,-0.0005200000000000001,-0.00018999999999999998,-4e-05,-2e-05,5
19632,20264,-2.9999999999999997e-05,0.0,-5.9999999999999995e-05,-0.0001,-0.0005200000000000001,-0.00018999999999999998,-4e-05,-2e-05,5
19633,20265,-2.9999999999999997e-05,0.0,-5.9999999999999995e-05,-0.0001,-0.0005200000000000001,-0.00018999999999999998,-4e-05,-2e-05,5
19634,20266,-2.9999999999999997e-05,0.0,-5.9999999999999995e-05,-0.0001,-0.0005200000000000001,-0.00018999999999999998,-4e-05,-2e-05,5
19635,20267,-2.9999999999999997e-05,0.0,-5.9999999999999995e-05,-0.0001,-0.0005200000000000001,-0.00018999999999999998,-4e-05,-2e-05,5
19636,20268,-2.9999999999999997e-05,0.0,-5.9999999999999995e-05,-0.0001,-0.0005200000000000001,-0.00018999999999999998,-4e-05,-2e-05,5
19637,20269,-2.9999999999999997e-05,0.0,-5.9999999999999995e-05,-0.0001,-0.0005200000000000001,-0.00018999999999999998,-4e-05,-2e-05,5
19638,20270,-2.9999999999999997e-05,0.0,-5.9999999999999995e-05,-0.0001,-0.0005200000000000001,-0.00018999999999999998,-4e-05,-2e-05,5
19639,20271,-2.9999999999999997e-05,0.0,-5.9999999999999995e-05,-0.0001,-0.0005200000000000001,-0.00018999999999999998,-4e-05,-2e-05,5
19640,20272,-2.9999999999999997e-05,0.0,-5.9999999999999995e-05,-0.0001,-0.0005200000000000001,-0.00018999999999999998,-4e-05,-2e-05,5
19641,20273,-2.9999999999999997e-05,0.0,-5.9999999999999995e-05,-0.0001,-0.0005200000000000001,-0.00018999999999999998,-4e-05,-2e-05,5
19642,20274,-2.9999999999999997e-05,0.0,-5.9999999999999995e-05,-0.0001,-0.0005200000000000001,-0.00018999999999999998,-4e-05,-2e-05,5
19643,20275,-2.9999999999999997e-05,0.0,-5.9999999999999995e-05,-0.0001,-0.0005200000000000001,-0.00018999999999999998,-4e-05,-2e-05,5
19644,20276,-2e-05,-4e-05,-0.0001,-4e-05,0.00016999999999999999,-9e-05,-2.9999999999999997e-05,-2e-05,5
19645,20277,2e-05,5e-05,0.0002,0.00037,0.0009400000000000001,0.0001,0.0,1e-05,5
19646,20278,2e-05,5e-05,0.0002,0.00037,0.0009400000000000001,0.0001,0.0,1e-05,5
19647,20279,2e-05,5e-05,0.0002,0.00037,0.0009400000000000001,0.0001,0.0,1e-05,5
19648,20280,2e-05,5e-05,0.0002,0.00037,0.0009400000000000001,0.0001,0.0,1e-05,5
19649,20281,2e-05,5e-05,0.0002,0.00037,0.0009400000000000001,0.0001,0.0,1e-05,5
19650,20282,2e-05,5e-05,0.0002,0.00037,0.0009400000000000001,0.0001,0.0,1e-05,5
19651,20283,2e-05,5e-05,0.0002,0.00037,0.0009400000000000001,0.0001,0.0,1e-05,5
19652,20284,2e-05,5e-05,0.0002,0.00037,0.0009400000000000001,0.0001,0.0,1e-05,5
19653,20285,2e-05,5e-05,0.0002,0.00037,0.0009400000000000001,0.0001,0.0,1e-05,5
19654,20287,2e-05,5e-05,0.0002,0.00037,0.0009400000000000001,0.0001,0.0,1e-05,5
19655,20289,2e-05,5e-05,0.0002,0.00037,0.0009400000000000001,0.0001,0.0,1e-05,5
19656,20290,2e-05,5e-05,0.0002,0.00037,0.0009400000000000001,0.0001,0.0,1e-05,5
19657,20291,2e-05,5e-05,0.0002,0.00037,0.0009400000000000001,0.0001,0.0,1e-05,5
19658,20292,2e-05,5e-05,0.0002,0.00037,0.0009400000000000001,0.0001,0.0,1e-05,5
19659,20293,2e-05,5e-05,0.0002,0.00037,0.0009400000000000001,0.0001,0.0,1e-05,5
19660,20294,2e-05,5e-05,0.0002,0.00037,0.0009400000000000001,0.0001,0.0,1e-05,5
19661,20295,2e-05,5e-05,0.0002,0.00037,0.0009400000000000001,0.0001,0.0,1e-05,5
19662,20296,2e-05,5e-05,0.0002,0.00037,0.0009400000000000001,0.0001,0.0,1e-05,5
19663,20297,2e-05,5e-05,0.0002,0.00037,0.0009400000000000001,0.0001,0.0,1e-05,5
19664,20298,1e-05,-1e-05,4e-05,-0.00013000000000000002,5e-05,5.9999999999999995e-05,-1e-05,0.0,5
19665,20299,1e-05,-1e-05,4e-05,-0.00013000000000000002,5e-05,5.9999999999999995e-05,-1e-05,0.0,5
19666,20300,2e-05,-1e-05,-7e-05,-0.00011,-0.00039,-7e-05,-4e-05,-1e-05,5
19667,20301,2e-05,-1e-05,-7e-05,-0.00011,-0.00039,-7e-05,-4e-05,-1e-05,5
19668,20302,2e-05,-1e-05,-7e-05,-0.00011,-0.00039,-7e-05,-4e-05,-1e-05,5
19669,20303,2e-05,-1e-05,-7e-05,-0.00011,-0.00039,-7e-05,-4e-05,-1e-05,5
19670,20304,2e-05,-1e-05,-7e-05,-0.00011,-0.00039,-7e-05,-4e-05,-1e-05,5
19671,20305,2e-05,-1e-05,-7e-05,-0.00011,-0.00039,-7e-05,-4e-05,-1e-05,5
19672,20306,2e-05,-1e-05,-7e-05,-0.00011,-0.00039,-7e-05,-4e-05,-1e-05,5
19673,20307,2e-05,-1e-05,-7e-05,-0.00011,-0.00039,-7e-05,-4e-05,-1e-05,5
19674,20308,2e-05,-1e-05,-7e-05,-0.00011,-0.00039,-7e-05,-4e-05,-1e-05,5
19675,20309,2e-05,-1e-05,-7e-05,-0.00011,-0.00039,-7e-05,-4e-05,-1e-05,5
19676,20310,2e-05,-1e-05,-7e-05,-0.00011,-0.00039,-7e-05,-4e-05,-1e-05,5
19677,20311,2e-05,-1e-05,-7e-05,-0.00011,-0.00039,-7e-05,-4e-05,-1e-05,5
19678,20312,-0.00011,-0.00013000000000000002,-8e-05,8e-05,-0.0005,-0.00011,-5e-05,-1e-05,5
19679,20313,-0.00011,-0.00013000000000000002,-8e-05,8e-05,-0.0005,-0.00011,-5e-05,-1e-05,5
19680,20314,-0.00011,-0.00013000000000000002,-8e-05,8e-05,-0.0005,-0.00011,-5e-05,-1e-05,5
19681,20315,-0.00011,-0.00013000000000000002,-8e-05,8e-05,-0.0005,-0.00011,-5e-05,-1e-05,5
19682,20316,-0.00011,-0.00013000000000000002,-8e-05,8e-05,-0.0005,-0.00011,-5e-05,-1e-05,5
19683,20317,-0.00011,-0.00013000000000000002,-8e-05,8e-05,-0.0005,-0.00011,-5e-05,-1e-05,5
19684,20318,-0.00011,-0.00013000000000000002,-8e-05,8e-05,-0.0005,-0.00011,-5e-05,-1e-05,5
19685,20319,-0.00011,-0.00013000000000000002,-8e-05,8e-05,-0.0005,-0.00011,-5e-05,-1e-05,5
19686,20320,-0.00011,-0.00013000000000000002,-8e-05,8e-05,-0.0005,-0.00011,-5e-05,-1e-05,5
19687,20321,-2e-05,1e-05,4e-05,0.00014,2.9999999999999997e-05,-5.9999999999999995e-05,0.0,1e-05,5
19688,20322,-2e-05,1e-05,4e-05,0.00014,2.9999999999999997e-05,-5.9999999999999995e-05,0.0,1e-05,5
19689,20323,-2e-05,1e-05,4e-05,0.00014,2.9999999999999997e-05,-5.9999999999999995e-05,0.0,1e-05,5
19690,20324,-2e-05,1e-05,4e-05,0.00014,2.9999999999999997e-05,-5.9999999999999995e-05,0.0,1e-05,5
19691,20325,-2e-05,1e-05,4e-05,0.00014,2.9999999999999997e-05,-5.9999999999999995e-05,0.0,1e-05,5
19692,20326,-2e-05,1e-05,4e-05,0.00014,2.9999999999999997e-05,-5.9999999999999995e-05,0.0,1e-05,5
19693,20327,-2e-05,1e-05,4e-05,0.00014,2.9999999999999997e-05,-5.9999999999999995e-05,0.0,1e-05,5
19694,20328,-2e-05,1e-05,4e-05,0.00014,2.9999999999999997e-05,-5.9999999999999995e-05,0.0,1e-05,5
19695,20329,-2e-05,1e-05,4e-05,0.00014,2.9999999999999997e-05,-5.9999999999999995e-05,0.0,1e-05,5
19696,20330,-2e-05,1e-05,4e-05,0.00014,2.9999999999999997e-05,-5.9999999999999995e-05,0.0,1e-05,5
19697,20331,-2e-05,1e-05,4e-05,0.00014,2.9999999999999997e-05,-5.9999999999999995e-05,0.0,1e-05,5
19698,20332,-2e-05,1e-05,4e-05,0.00014,2.9999999999999997e-05,-5.9999999999999995e-05,0.0,1e-05,5
19699,20333,-2e-05,1e-05,4e-05,0.00014,2.9999999999999997e-05,-5.9999999999999995e-05,0.0,1e-05,5
19700,20334,-2e-05,1e-05,4e-05,0.00014,2.9999999999999997e-05,-5.9999999999999995e-05,0.0,1e-05,5
19701,20335,-2e-05,1e-05,4e-05,0.00014,2.9999999999999997e-05,-5.9999999999999995e-05,0.0,1e-05,5
19702,20336,-2e-05,1e-05,4e-05,0.00014,2.9999999999999997e-05,-5.9999999999999995e-05,0.0,1e-05,5
19703,20338,-2e-05,1e-05,4e-05,0.00014,2.9999999999999997e-05,-5.9999999999999995e-05,0.0,1e-05,5
19704,20339,-2e-05,1e-05,4e-05,0.00014,2.9999999999999997e-05,-5.9999999999999995e-05,0.0,1e-05,5
19705,20340,-2e-05,1e-05,4e-05,0.00014,2.9999999999999997e-05,-5.9999999999999995e-05,0.0,1e-05,5
19706,20341,-2e-05,1e-05,4e-05,0.00014,2.9999999999999997e-05,-5.9999999999999995e-05,0.0,1e-05,5
19707,20342,-2e-05,1e-05,4e-05,0.00014,2.9999999999999997e-05,-5.9999999999999995e-05,0.0,1e-05,5
19708,20343,-1e-05,-8e-05,4e-05,0.00014,-0.00025,0.0,1e-05,-2e-05,5
19709,20344,-1e-05,-8e-05,4e-05,0.00014,-0.00025,0.0,1e-05,-2e-05,5
19710,20345,2e-05,7e-05,5.9999999999999995e-05,0.0,1e-05,5e-05,2e-05,-2e-05,5
19711,20346,2e-05,7e-05,5.9999999999999995e-05,0.0,1e-05,5e-05,2e-05,-2e-05,5
19712,20347,2e-05,7e-05,5.9999999999999995e-05,0.0,1e-05,5e-05,2e-05,-2e-05,5
19713,20348,2e-05,7e-05,5.9999999999999995e-05,0.0,1e-05,5e-05,2e-05,-2e-05,5
19714,20349,2e-05,7e-05,5.9999999999999995e-05,0.0,1e-05,5e-05,2e-05,-2e-05,5
19715,20350,2e-05,7e-05,5.9999999999999995e-05,0.0,1e-05,5e-05,2e-05,-2e-05,5
19716,20351,2e-05,7e-05,5.9999999999999995e-05,0.0,1e-05,5e-05,2e-05,-2e-05,5
19717,20352,2e-05,7e-05,5.9999999999999995e-05,0.0,1e-05,5e-05,2e-05,-2e-05,5
19718,20353,2e-05,7e-05,5.9999999999999995e-05,0.0,1e-05,5e-05,2e-05,-2e-05,5
19719,20354,2e-05,7e-05,5.9999999999999995e-05,0.0,1e-05,5e-05,2e-05,-2e-05,5
19720,20355,2e-05,7e-05,5.9999999999999995e-05,0.0,1e-05,5e-05,2e-05,-2e-05,5
19721,20356,2e-05,7e-05,5.9999999999999995e-05,0.0,1e-05,5e-05,2e-05,-2e-05,5
19722,20357,2e-05,7e-05,5.9999999999999995e-05,0.0,1e-05,5e-05,2e-05,-2e-05,5
19723,20358,0.0,2e-05,-1e-05,0.00018999999999999998,0.00031,-4e-05,-2e-05,-1e-05,5
19724,20359,0.0,2e-05,-1e-05,0.00018999999999999998,0.00031,-4e-05,-2e-05,-1e-05,5
19725,20360,0.0,-2.9999999999999997e-05,-7e-05,5.9999999999999995e-05,-0.00014,5e-05,1e-05,-1e-05,5
19726,20361,0.0,-2.9999999999999997e-05,-7e-05,5.9999999999999995e-05,-0.00014,5e-05,1e-05,-1e-05,5
19727,20362,0.0,-2.9999999999999997e-05,-7e-05,5.9999999999999995e-05,-0.00014,5e-05,1e-05,-1e-05,5
19728,20363,0.0,-2.9999999999999997e-05,-7e-05,5.9999999999999995e-05,-0.00014,5e-05,1e-05,-1e-05,5
19729,20364,0.0,-2.9999999999999997e-05,-7e-05,5.9999999999999995e-05,-0.00014,5e-05,1e-05,-1e-05,5
19730,20365,0.0,-2.9999999999999997e-05,-7e-05,5.9999999999999995e-05,-0.00014,5e-05,1e-05,-1e-05,5
19731,20366,0.0,-2.9999999999999997e-05,-7e-05,5.9999999999999995e-05,-0.00014,5e-05,1e-05,-1e-05,5
19732,20367,0.0,-2.9999999999999997e-05,-7e-05,5.9999999999999995e-05,-0.00014,5e-05,1e-05,-1e-05,5
19733,20368,0.0,-2.9999999999999997e-05,-7e-05,5.9999999999999995e-05,-0.00014,5e-05,1e-05,-1e-05,5
19734,20369,0.0,-2.9999999999999997e-05,-7e-05,5.9999999999999995e-05,-0.00014,5e-05,1e-05,-1e-05,5
19735,20370,0.0,-2.9999999999999997e-05,-7e-05,5.9999999999999995e-05,-0.00014,5e-05,1e-05,-1e-05,5
19736,20371,0.0,-2.9999999999999997e-05,-7e-05,5.9999999999999995e-05,-0.00014,5e-05,1e-05,-1e-05,5
19737,20372,5e-05,5.9999999999999995e-05,-5e-05,-0.00027,-5.9999999999999995e-05,-2e-05,-2.9999999999999997e-05,-1e-05,5
19738,20373,5e-05,5.9999999999999995e-05,-5e-05,-0.00027,-5.9999999999999995e-05,-2e-05,-2.9999999999999997e-05,-1e-05,5
19739,20374,5e-05,5.9999999999999995e-05,-5e-05,-0.00027,-5.9999999999999995e-05,-2e-05,-2.9999999999999997e-05,-1e-05,5
19740,20375,5e-05,5.9999999999999995e-05,-5e-05,-0.00027,-5.9999999999999995e-05,-2e-05,-2.9999999999999997e-05,-1e-05,5
19741,20376,5e-05,5.9999999999999995e-05,-5e-05,-0.00027,-5.9999999999999995e-05,-2e-05,-2.9999999999999997e-05,-1e-05,5
19742,20377,5e-05,5.9999999999999995e-05,-5e-05,-0.00027,-5.9999999999999995e-05,-2e-05,-2.9999999999999997e-05,-1e-05,5
19743,20378,5e-05,5.9999999999999995e-05,-5e-05,-0.00027,-5.9999999999999995e-05,-2e-05,-2.9999999999999997e-05,-1e-05,5
19744,20379,5e-05,5.9999999999999995e-05,-5e-05,-0.00027,-5.9999999999999995e-05,-2e-05,-2.9999999999999997e-05,-1e-05,5
19745,20380,5e-05,5.9999999999999995e-05,-5e-05,-0.00027,-5.9999999999999995e-05,-2e-05,-2.9999999999999997e-05,-1e-05,5
19746,20381,-1e-05,-2.9999999999999997e-05,-4e-05,-0.0005099999999999999,-5e-05,2e-05,-2e-05,-1e-05,5
19747,20382,-1e-05,-2.9999999999999997e-05,-4e-05,-0.0005099999999999999,-5e-05,2e-05,-2e-05,-1e-05,5
19748,20383,-1e-05,-2.9999999999999997e-05,-4e-05,-0.0005099999999999999,-5e-05,2e-05,-2e-05,-1e-05,5
19749,20384,-1e-05,-2.9999999999999997e-05,-4e-05,-0.0005099999999999999,-5e-05,2e-05,-2e-05,-1e-05,5
19750,20385,-1e-05,-2.9999999999999997e-05,-4e-05,-0.0005099999999999999,-5e-05,2e-05,-2e-05,-1e-05,5
19751,20386,-1e-05,-2.9999999999999997e-05,-4e-05,-0.0005099999999999999,-5e-05,2e-05,-2e-05,-1e-05,5
19752,20388,-1e-05,-2.9999999999999997e-05,-4e-05,-0.0005099999999999999,-5e-05,2e-05,-2e-05,-1e-05,5
19753,20389,-1e-05,-2.9999999999999997e-05,-4e-05,-0.0005099999999999999,-5e-05,2e-05,-2e-05,-1e-05,5
19754,20390,-1e-05,-2.9999999999999997e-05,-4e-05,-0.0005099999999999999,-5e-05,2e-05,-2e-05,-1e-05,5
19755,20391,-1e-05,-2.9999999999999997e-05,-4e-05,-0.0005099999999999999,-5e-05,2e-05,-2e-05,-1e-05,5
19756,20392,-1e-05,-2.9999999999999997e-05,-4e-05,-0.0005099999999999999,-5e-05,2e-05,-2e-05,-1e-05,5
19757,20393,-1e-05,-2.9999999999999997e-05,-4e-05,-0.0005099999999999999,-5e-05,2e-05,-2e-05,-1e-05,5
19758,20394,-1e-05,-2.9999999999999997e-05,-4e-05,-0.0005099999999999999,-5e-05,2e-05,-2e-05,-1e-05,5
19759,20395,-1e-05,-2.9999999999999997e-05,-4e-05,-0.0005099999999999999,-5e-05,2e-05,-2e-05,-1e-05,5
19760,20396,2e-05,2.9999999999999997e-05,0.0,9e-05,-0.00039,-0.00011,1e-05,0.0,5
19761,20397,1e-05,-4e-05,5.9999999999999995e-05,2e-05,-0.00021,-2.9999999999999997e-05,-1e-05,0.0,5
19762,20398,1e-05,-4e-05,5.9999999999999995e-05,2e-05,-0.00021,-2.9999999999999997e-05,-1e-05,0.0,5
19763,20399,1e-05,-4e-05,5.9999999999999995e-05,2e-05,-0.00021,-2.9999999999999997e-05,-1e-05,0.0,5
19764,20400,1e-05,-4e-05,5.9999999999999995e-05,2e-05,-0.00021,-2.9999999999999997e-05,-1e-05,0.0,5
19765,20401,1e-05,-4e-05,5.9999999999999995e-05,2e-05,-0.00021,-2.9999999999999997e-05,-1e-05,0.0,5
19766,20402,1e-05,-4e-05,5.9999999999999995e-05,2e-05,-0.00021,-2.9999999999999997e-05,-1e-05,0.0,5
19767,20403,1e-05,-4e-05,5.9999999999999995e-05,2e-05,-0.00021,-2.9999999999999997e-05,-1e-05,0.0,5
19768,20404,1e-05,-4e-05,5.9999999999999995e-05,2e-05,-0.00021,-2.9999999999999997e-05,-1e-05,0.0,5
19769,20405,1e-05,-4e-05,5.9999999999999995e-05,2e-05,-0.00021,-2.9999999999999997e-05,-1e-05,0.0,5
19770,20406,1e-05,-4e-05,5.9999999999999995e-05,2e-05,-0.00021,-2.9999999999999997e-05,-1e-05,0.0,5
19771,20407,1e-05,-4e-05,5.9999999999999995e-05,2e-05,-0.00021,-2.9999999999999997e-05,-1e-05,0.0,5
19772,20408,1e-05,-4e-05,5.9999999999999995e-05,2e-05,-0.00021,-2.9999999999999997e-05,-1e-05,0.0,5
19773,20409,1e-05,-4e-05,5.9999999999999995e-05,2e-05,-0.00021,-2.9999999999999997e-05,-1e-05,0.0,5
19774,20410,1e-05,-4e-05,5.9999999999999995e-05,2e-05,-0.00021,-2.9999999999999997e-05,-1e-05,0.0,5
19775,20411,1e-05,-4e-05,5.9999999999999995e-05,2e-05,-0.00021,-2.9999999999999997e-05,-1e-05,0.0,5
19776,20412,1e-05,-4e-05,5.9999999999999995e-05,2e-05,-0.00021,-2.9999999999999997e-05,-1e-05,0.0,5
19777,20413,1e-05,-4e-05,5.9999999999999995e-05,2e-05,-0.00021,-2.9999999999999997e-05,-1e-05,0.0,5
19778,20414,1e-05,-4e-05,5.9999999999999995e-05,2e-05,-0.00021,-2.9999999999999997e-05,-1e-05,0.0,5
19779,20415,1e-05,-4e-05,5.9999999999999995e-05,2e-05,-0.00021,-2.9999999999999997e-05,-1e-05,0.0,5
19780,20416,1e-05,-4e-05,5.9999999999999995e-05,2e-05,-0.00021,-2.9999999999999997e-05,-1e-05,0.0,5
19781,20417,1e-05,-4e-05,5.9999999999999995e-05,2e-05,-0.00021,-2.9999999999999997e-05,-1e-05,0.0,5
19782,20418,1e-05,-4e-05,5.9999999999999995e-05,2e-05,-0.00021,-2.9999999999999997e-05,-1e-05,0.0,5
19783,20419,0.0,2.9999999999999997e-05,0.0001,-0.00011,-5e-05,1e-05,-2.9999999999999997e-05,-2e-05,5
19784,20420,8e-05,5.9999999999999995e-05,-5e-05,-0.00015,-0.00098,-0.00018999999999999998,-4e-05,-1e-05,5
19785,20421,8e-05,5.9999999999999995e-05,-5e-05,-0.00015,-0.00098,-0.00018999999999999998,-4e-05,-1e-05,5
19786,20422,8e-05,5.9999999999999995e-05,-5e-05,-0.00015,-0.00098,-0.00018999999999999998,-4e-05,-1e-05,5
19787,20423,8e-05,5.9999999999999995e-05,-5e-05,-0.00015,-0.00098,-0.00018999999999999998,-4e-05,-1e-05,5
19788,20424,8e-05,5.9999999999999995e-05,-5e-05,-0.00015,-0.00098,-0.00018999999999999998,-4e-05,-1e-05,5
19789,20425,8e-05,5.9999999999999995e-05,-5e-05,-0.00015,-0.00098,-0.00018999999999999998,-4e-05,-1e-05,5
19790,20426,8e-05,5.9999999999999995e-05,-5e-05,-0.00015,-0.00098,-0.00018999999999999998,-4e-05,-1e-05,5
19791,20427,8e-05,5.9999999999999995e-05,-5e-05,-0.00015,-0.00098,-0.00018999999999999998,-4e-05,-1e-05,5
19792,20428,8e-05,5.9999999999999995e-05,-5e-05,-0.00015,-0.00098,-0.00018999999999999998,-4e-05,-1e-05,5
19793,20429,8e-05,5.9999999999999995e-05,-5e-05,-0.00015,-0.00098,-0.00018999999999999998,-4e-05,-1e-05,5
19794,20430,8e-05,5.9999999999999995e-05,-5e-05,-0.00015,-0.00098,-0.00018999999999999998,-4e-05,-1e-05,5
19795,20431,8e-05,5.9999999999999995e-05,-5e-05,-0.00015,-0.00098,-0.00018999999999999998,-4e-05,-1e-05,5
19796,20432,-7e-05,-8e-05,1e-05,1e-05,-1e-05,-1e-05,-4e-05,1e-05,5
19797,20433,-7e-05,-8e-05,1e-05,1e-05,-1e-05,-1e-05,-4e-05,1e-05,5
19798,20434,-7e-05,-8e-05,1e-05,1e-05,-1e-05,-1e-05,-4e-05,1e-05,5
19799,20435,-7e-05,-8e-05,1e-05,1e-05,-1e-05,-1e-05,-4e-05,1e-05,5
19800,20436,-7e-05,-8e-05,1e-05,1e-05,-1e-05,-1e-05,-4e-05,1e-05,5
19801,20438,-7e-05,-8e-05,1e-05,1e-05,-1e-05,-1e-05,-4e-05,1e-05,5
19802,20439,-7e-05,-8e-05,1e-05,1e-05,-1e-05,-1e-05,-4e-05,1e-05,5
19803,20440,-7e-05,-8e-05,1e-05,1e-05,-1e-05,-1e-05,-4e-05,1e-05,5
19804,20441,-9e-05,-7e-05,-7e-05,0.00023999999999999998,0.0006,0.00016999999999999999,0.0,-2.9999999999999997e-05,5
19805,20442,-9e-05,-7e-05,-7e-05,0.00023999999999999998,0.0006,0.00016999999999999999,0.0,-2.9999999999999997e-05,5
19806,20443,-9e-05,-7e-05,-7e-05,0.00023999999999999998,0.0006,0.00016999999999999999,0.0,-2.9999999999999997e-05,5
19807,20444,-9e-05,-7e-05,-7e-05,0.00023999999999999998,0.0006,0.00016999999999999999,0.0,-2.9999999999999997e-05,5
19808,20445,-9e-05,-7e-05,-7e-05,0.00023999999999999998,0.0006,0.00016999999999999999,0.0,-2.9999999999999997e-05,5
19809,20446,-9e-05,-7e-05,-7e-05,0.00023999999999999998,0.0006,0.00016999999999999999,0.0,-2.9999999999999997e-05,5
19810,20447,-9e-05,-7e-05,-7e-05,0.00023999999999999998,0.0006,0.00016999999999999999,0.0,-2.9999999999999997e-05,5
19811,20448,-9e-05,-7e-05,-7e-05,0.00023999999999999998,0.0006,0.00016999999999999999,0.0,-2.9999999999999997e-05,5
19812,20449,-9e-05,-7e-05,-7e-05,0.00023999999999999998,0.0006,0.00016999999999999999,0.0,-2.9999999999999997e-05,5
19813,20450,-9e-05,-7e-05,-7e-05,0.00023999999999999998,0.0006,0.00016999999999999999,0.0,-2.9999999999999997e-05,5
19814,20451,-9e-05,-7e-05,-7e-05,0.00023999999999999998,0.0006,0.00016999999999999999,0.0,-2.9999999999999997e-05,5
19815,20452,-9e-05,-7e-05,-7e-05,0.00023999999999999998,0.0006,0.00016999999999999999,0.0,-2.9999999999999997e-05,5
19816,20453,-9e-05,-7e-05,-7e-05,0.00023999999999999998,0.0006,0.00016999999999999999,0.0,-2.9999999999999997e-05,5
19817,20454,-9e-05,-7e-05,-7e-05,0.00023999999999999998,0.0006,0.00016999999999999999,0.0,-2.9999999999999997e-05,5
19818,20455,-9e-05,-7e-05,-7e-05,0.00023999999999999998,0.0006,0.00016999999999999999,0.0,-2.9999999999999997e-05,5
19819,20456,2.9999999999999997e-05,4e-05,0.0,0.0,0.00011,0.00014,5e-05,0.0,5
19820,20457,-4e-05,-7e-05,-7e-05,7e-05,0.00028,0.0,-2.9999999999999997e-05,-1e-05,5
19821,20458,-4e-05,-7e-05,-7e-05,7e-05,0.00028,0.0,-2.9999999999999997e-05,-1e-05,5
19822,20459,-4e-05,-7e-05,-7e-05,7e-05,0.00028,0.0,-2.9999999999999997e-05,-1e-05,5
19823,20460,-4e-05,-7e-05,-7e-05,7e-05,0.00028,0.0,-2.9999999999999997e-05,-1e-05,5
19824,20461,-4e-05,-7e-05,-7e-05,7e-05,0.00028,0.0,-2.9999999999999997e-05,-1e-05,5
19825,20462,-4e-05,-7e-05,-7e-05,7e-05,0.00028,0.0,-2.9999999999999997e-05,-1e-05,5
19826,20463,-4e-05,-7e-05,-7e-05,7e-05,0.00028,0.0,-2.9999999999999997e-05,-1e-05,5
19827,20464,-4e-05,-7e-05,-7e-05,7e-05,0.00028,0.0,-2.9999999999999997e-05,-1e-05,5
19828,20465,-4e-05,-7e-05,-7e-05,7e-05,0.00028,0.0,-2.9999999999999997e-05,-1e-05,5
19829,20466,-4e-05,-7e-05,-7e-05,7e-05,0.00028,0.0,-2.9999999999999997e-05,-1e-05,5
19830,20467,-4e-05,-7e-05,-7e-05,7e-05,0.00028,0.0,-2.9999999999999997e-05,-1e-05,5
19831,20468,-4e-05,-7e-05,-7e-05,7e-05,0.00028,0.0,-2.9999999999999997e-05,-1e-05,5
19832,20469,-4e-05,-7e-05,-7e-05,7e-05,0.00028,0.0,-2.9999999999999997e-05,-1e-05,5
19833,20470,-4e-05,-7e-05,-7e-05,7e-05,0.00028,0.0,-2.9999999999999997e-05,-1e-05,5
19834,20471,-4e-05,-7e-05,-7e-05,7e-05,0.00028,0.0,-2.9999999999999997e-05,-1e-05,5
19835,20472,-4e-05,-7e-05,-7e-05,7e-05,0.00028,0.0,-2.9999999999999997e-05,-1e-05,5
19836,20473,-4e-05,-7e-05,-7e-05,7e-05,0.00028,0.0,-2.9999999999999997e-05,-1e-05,5
19837,20474,-4e-05,-7e-05,-7e-05,7e-05,0.00028,0.0,-2.9999999999999997e-05,-1e-05,5
19838,20475,-4e-05,-7e-05,-7e-05,7e-05,0.00028,0.0,-2.9999999999999997e-05,-1e-05,5
19839,20476,-4e-05,-7e-05,-7e-05,7e-05,0.00028,0.0,-2.9999999999999997e-05,-1e-05,5
19840,20477,-4e-05,-7e-05,-7e-05,7e-05,0.00028,0.0,-2.9999999999999997e-05,-1e-05,5
19841,20478,4e-05,-1e-05,-0.00016999999999999999,-5.9999999999999995e-05,0.00061,5e-05,1e-05,-1e-05,5
19842,20479,4e-05,-1e-05,-0.00016999999999999999,-5.9999999999999995e-05,0.00061,5e-05,1e-05,-1e-05,5
19843,20480,-4e-05,2e-05,-0.00013000000000000002,4e-05,0.0002,4e-05,-2e-05,-1e-05,5
19844,20481,-4e-05,2e-05,-0.00013000000000000002,4e-05,0.0002,4e-05,-2e-05,-1e-05,5
19845,20482,-4e-05,2e-05,-0.00013000000000000002,4e-05,0.0002,4e-05,-2e-05,-1e-05,5
19846,20483,-4e-05,2e-05,-0.00013000000000000002,4e-05,0.0002,4e-05,-2e-05,-1e-05,5
19847,20484,-4e-05,2e-05,-0.00013000000000000002,4e-05,0.0002,4e-05,-2e-05,-1e-05,5
19848,20485,-4e-05,2e-05,-0.00013000000000000002,4e-05,0.0002,4e-05,-2e-05,-1e-05,5
19849,20486,-4e-05,2e-05,-0.00013000000000000002,4e-05,0.0002,4e-05,-2e-05,-1e-05,5
19850,20488,-4e-05,2e-05,-0.00013000000000000002,4e-05,0.0002,4e-05,-2e-05,-1e-05,5
19851,20489,-4e-05,2e-05,-0.00013000000000000002,4e-05,0.0002,4e-05,-2e-05,-1e-05,5
19852,20490,-4e-05,2e-05,-0.00013000000000000002,4e-05,0.0002,4e-05,-2e-05,-1e-05,5
19853,20491,-4e-05,2e-05,-0.00013000000000000002,4e-05,0.0002,4e-05,-2e-05,-1e-05,5
19854,20492,-4e-05,2e-05,-0.00013000000000000002,4e-05,0.0002,4e-05,-2e-05,-1e-05,5
19855,20493,-4e-05,2e-05,-0.00013000000000000002,4e-05,0.0002,4e-05,-2e-05,-1e-05,5
19856,20494,-4e-05,2e-05,-0.00013000000000000002,4e-05,0.0002,4e-05,-2e-05,-1e-05,5
19857,20495,-4e-05,2e-05,-0.00013000000000000002,4e-05,0.0002,4e-05,-2e-05,-1e-05,5
19858,20496,-4e-05,2e-05,-0.00013000000000000002,4e-05,0.0002,4e-05,-2e-05,-1e-05,5
19859,20497,-4e-05,2e-05,-0.00013000000000000002,4e-05,0.0002,4e-05,-2e-05,-1e-05,5
19860,20498,-4e-05,2e-05,-0.00013000000000000002,4e-05,0.0002,4e-05,-2e-05,-1e-05,5
19861,20499,-4e-05,2e-05,-0.00013000000000000002,4e-05,0.0002,4e-05,-2e-05,-1e-05,5
19862,20500,-4e-05,2e-05,-0.00013000000000000002,4e-05,0.0002,4e-05,-2e-05,-1e-05,5
19863,20501,-4e-05,2e-05,-0.00013000000000000002,4e-05,0.0002,4e-05,-2e-05,-1e-05,5
19864,20502,-4e-05,2e-05,-0.00013000000000000002,4e-05,0.0002,4e-05,-2e-05,-1e-05,5
19865,20503,-4e-05,2e-05,-0.00013000000000000002,4e-05,0.0002,4e-05,-2e-05,-1e-05,5
19866,20504,-4e-05,2e-05,-0.00013000000000000002,4e-05,0.0002,4e-05,-2e-05,-1e-05,5
19867,20505,-4e-05,2e-05,-0.00013000000000000002,4e-05,0.0002,4e-05,-2e-05,-1e-05,5
19868,20506,-4e-05,2e-05,-0.00013000000000000002,4e-05,0.0002,4e-05,-2e-05,-1e-05,5
19869,20507,-4e-05,2e-05,-0.00013000000000000002,4e-05,0.0002,4e-05,-2e-05,-1e-05,5
19870,20508,-9e-05,-5e-05,2e-05,0.00029,0.00041,8e-05,1e-05,0.0,5
19871,20509,-9e-05,-5e-05,2e-05,0.00029,0.00041,8e-05,1e-05,0.0,5
19872,20510,4e-05,-1e-05,-2.9999999999999997e-05,0.00016999999999999999,2e-05,-0.0001,-2e-05,-2e-05,5
19873,20511,4e-05,-1e-05,-2.9999999999999997e-05,0.00016999999999999999,2e-05,-0.0001,-2e-05,-2e-05,5
19874,20512,4e-05,-1e-05,-2.9999999999999997e-05,0.00016999999999999999,2e-05,-0.0001,-2e-05,-2e-05,5
19875,20513,4e-05,-1e-05,-2.9999999999999997e-05,0.00016999999999999999,2e-05,-0.0001,-2e-05,-2e-05,5
19876,20514,4e-05,-1e-05,-2.9999999999999997e-05,0.00016999999999999999,2e-05,-0.0001,-2e-05,-2e-05,5
19877,20515,4e-05,-1e-05,-2.9999999999999997e-05,0.00016999999999999999,2e-05,-0.0001,-2e-05,-2e-05,5
19878,20516,-1e-05,4e-05,9e-05,8e-05,1e-05,2e-05,-2e-05,0.0,5
19879,20517,7e-05,9e-05,9e-05,0.00037999999999999997,0.00039,5e-05,1e-05,0.0,5
19880,20518,7e-05,9e-05,9e-05,0.00037999999999999997,0.00039,5e-05,1e-05,0.0,5
19881,20519,7e-05,9e-05,9e-05,0.00037999999999999997,0.00039,5e-05,1e-05,0.0,5
19882,20520,7e-05,9e-05,9e-05,0.00037999999999999997,0.00039,5e-05,1e-05,0.0,5
19883,20521,7e-05,9e-05,9e-05,0.00037999999999999997,0.00039,5e-05,1e-05,0.0,5
19884,20522,7e-05,9e-05,9e-05,0.00037999999999999997,0.00039,5e-05,1e-05,0.0,5
19885,20523,7e-05,9e-05,9e-05,0.00037999999999999997,0.00039,5e-05,1e-05,0.0,5
19886,20524,7e-05,9e-05,9e-05,0.00037999999999999997,0.00039,5e-05,1e-05,0.0,5
19887,20525,7e-05,9e-05,9e-05,0.00037999999999999997,0.00039,5e-05,1e-05,0.0,5
19888,20526,7e-05,9e-05,9e-05,0.00037999999999999997,0.00039,5e-05,1e-05,0.0,5
19889,20527,7e-05,9e-05,9e-05,0.00037999999999999997,0.00039,5e-05,1e-05,0.0,5
19890,20528,7e-05,9e-05,9e-05,0.00037999999999999997,0.00039,5e-05,1e-05,0.0,5
19891,20529,7e-05,9e-05,9e-05,0.00037999999999999997,0.00039,5e-05,1e-05,0.0,5
19892,20530,7e-05,9e-05,9e-05,0.00037999999999999997,0.00039,5e-05,1e-05,0.0,5
19893,20531,7e-05,9e-05,9e-05,0.00037999999999999997,0.00039,5e-05,1e-05,0.0,5
19894,20532,7e-05,9e-05,9e-05,0.00037999999999999997,0.00039,5e-05,1e-05,0.0,5
19895,20533,7e-05,9e-05,9e-05,0.00037999999999999997,0.00039,5e-05,1e-05,0.0,5
19896,20534,7e-05,9e-05,9e-05,0.00037999999999999997,0.00039,5e-05,1e-05,0.0,5
19897,20535,7e-05,9e-05,9e-05,0.00037999999999999997,0.00039,5e-05,1e-05,0.0,5
19898,20536,7e-05,9e-05,9e-05,0.00037999999999999997,0.00039,5e-05,1e-05,0.0,5
19899,20540,5e-05,4e-05,0.00011999999999999999,-0.00011999999999999999,-0.00041,0.0,1e-05,-1e-05,5
19900,20541,5e-05,4e-05,0.00011999999999999999,-0.00011999999999999999,-0.00041,0.0,1e-05,-1e-05,5
19901,20542,5e-05,4e-05,0.00011999999999999999,-0.00011999999999999999,-0.00041,0.0,1e-05,-1e-05,5
19902,20543,5e-05,4e-05,0.00011999999999999999,-0.00011999999999999999,-0.00041,0.0,1e-05,-1e-05,5
19903,20544,5e-05,4e-05,0.00011999999999999999,-0.00011999999999999999,-0.00041,0.0,1e-05,-1e-05,5
19904,20545,5e-05,4e-05,0.00011999999999999999,-0.00011999999999999999,-0.00041,0.0,1e-05,-1e-05,5
19905,20546,5e-05,4e-05,0.00011999999999999999,-0.00011999999999999999,-0.00041,0.0,1e-05,-1e-05,5
19906,20547,5e-05,4e-05,0.00011999999999999999,-0.00011999999999999999,-0.00041,0.0,1e-05,-1e-05,5
19907,20548,5e-05,4e-05,0.00011999999999999999,-0.00011999999999999999,-0.00041,0.0,1e-05,-1e-05,5
19908,20549,5e-05,4e-05,0.00011999999999999999,-0.00011999999999999999,-0.00041,0.0,1e-05,-1e-05,5
19909,20550,5e-05,4e-05,0.00011999999999999999,-0.00011999999999999999,-0.00041,0.0,1e-05,-1e-05,5
19910,20551,5e-05,4e-05,0.00011999999999999999,-0.00011999999999999999,-0.00041,0.0,1e-05,-1e-05,5
19911,20552,5e-05,4e-05,0.00011999999999999999,-0.00011999999999999999,-0.00041,0.0,1e-05,-1e-05,5
19912,20553,5e-05,4e-05,0.00011999999999999999,-0.00011999999999999999,-0.00041,0.0,1e-05,-1e-05,5
19913,20554,5e-05,4e-05,0.00011999999999999999,-0.00011999999999999999,-0.00041,0.0,1e-05,-1e-05,5
19914,20555,5e-05,4e-05,0.00011999999999999999,-0.00011999999999999999,-0.00041,0.0,1e-05,-1e-05,5
19915,20556,5e-05,4e-05,0.00011999999999999999,-0.00011999999999999999,-0.00041,0.0,1e-05,-1e-05,5
19916,20557,5e-05,4e-05,0.00011999999999999999,-0.00011999999999999999,-0.00041,0.0,1e-05,-1e-05,5
19917,20558,5e-05,4e-05,0.00011999999999999999,-0.00011999999999999999,-0.00041,0.0,1e-05,-1e-05,5
19918,20559,5e-05,4e-05,0.00011999999999999999,-0.00011999999999999999,-0.00041,0.0,1e-05,-1e-05,5
19919,20560,5e-05,4e-05,0.00011999999999999999,-0.00011999999999999999,-0.00041,0.0,1e-05,-1e-05,5
19920,20561,-2e-05,-2.9999999999999997e-05,-0.00016999999999999999,-0.00055,-0.00061,-0.00013000000000000002,-4e-05,-2.9999999999999997e-05,5
19921,20562,-5e-05,-4e-05,-0.00015,-0.00039,-0.00033999999999999997,4e-05,2e-05,-1e-05,5
19922,20563,-5e-05,-4e-05,-0.00015,-0.00039,-0.00033999999999999997,4e-05,2e-05,-1e-05,5
19923,20564,-5e-05,-4e-05,-0.00015,-0.00039,-0.00033999999999999997,4e-05,2e-05,-1e-05,5
19924,20565,-5e-05,-4e-05,-0.00015,-0.00039,-0.00033999999999999997,4e-05,2e-05,-1e-05,5
19925,20566,-5e-05,-4e-05,-0.00015,-0.00039,-0.00033999999999999997,4e-05,2e-05,-1e-05,5
19926,20567,-5e-05,-4e-05,-0.00015,-0.00039,-0.00033999999999999997,4e-05,2e-05,-1e-05,5
19927,20568,-5e-05,-4e-05,-0.00015,-0.00039,-0.00033999999999999997,4e-05,2e-05,-1e-05,5
19928,20569,-5e-05,-4e-05,-0.00015,-0.00039,-0.00033999999999999997,4e-05,2e-05,-1e-05,5
19929,20570,-5e-05,-4e-05,-0.00015,-0.00039,-0.00033999999999999997,4e-05,2e-05,-1e-05,5
19930,20571,-5e-05,-4e-05,-0.00015,-0.00039,-0.00033999999999999997,4e-05,2e-05,-1e-05,5
19931,20572,-5e-05,-4e-05,-0.00015,-0.00039,-0.00033999999999999997,4e-05,2e-05,-1e-05,5
19932,20573,-5e-05,-4e-05,-0.00015,-0.00039,-0.00033999999999999997,4e-05,2e-05,-1e-05,5
19933,20574,-5e-05,-4e-05,-0.00015,-0.00039,-0.00033999999999999997,4e-05,2e-05,-1e-05,5
19934,20575,-5e-05,-4e-05,-0.00015,-0.00039,-0.00033999999999999997,4e-05,2e-05,-1e-05,5
19935,20576,-5.9999999999999995e-05,-2.9999999999999997e-05,1e-05,0.00011999999999999999,-0.0001,-2.9999999999999997e-05,-1e-05,-2.9999999999999997e-05,5
19936,20577,-2.9999999999999997e-05,-2e-05,-1e-05,-0.00028,-0.00035,-7e-05,-2.9999999999999997e-05,-4e-05,5
19937,20578,-2.9999999999999997e-05,-2e-05,-1e-05,-0.00028,-0.00035,-7e-05,-2.9999999999999997e-05,-4e-05,5
19938,20579,-2.9999999999999997e-05,-2e-05,-1e-05,-0.00028,-0.00035,-7e-05,-2.9999999999999997e-05,-4e-05,5
19939,20580,-2.9999999999999997e-05,-2e-05,-1e-05,-0.00028,-0.00035,-7e-05,-2.9999999999999997e-05,-4e-05,5
19940,20581,-2.9999999999999997e-05,-2e-05,-1e-05,-0.00028,-0.00035,-7e-05,-2.9999999999999997e-05,-4e-05,5
19941,20582,-2.9999999999999997e-05,-2e-05,-1e-05,-0.00028,-0.00035,-7e-05,-2.9999999999999997e-05,-4e-05,5
19942,20583,-2.9999999999999997e-05,-2e-05,-1e-05,-0.00028,-0.00035,-7e-05,-2.9999999999999997e-05,-4e-05,5
19943,20584,-2.9999999999999997e-05,-2e-05,-1e-05,-0.00028,-0.00035,-7e-05,-2.9999999999999997e-05,-4e-05,5
19944,20585,-2.9999999999999997e-05,-2e-05,-1e-05,-0.00028,-0.00035,-7e-05,-2.9999999999999997e-05,-4e-05,5
19945,20587,-2.9999999999999997e-05,-2e-05,-1e-05,-0.00028,-0.00035,-7e-05,-2.9999999999999997e-05,-4e-05,5
19946,20589,-2.9999999999999997e-05,-2e-05,-1e-05,-0.00028,-0.00035,-7e-05,-2.9999999999999997e-05,-4e-05,5
19947,20590,-2.9999999999999997e-05,-2e-05,-1e-05,-0.00028,-0.00035,-7e-05,-2.9999999999999997e-05,-4e-05,5
19948,20591,-2.9999999999999997e-05,-2e-05,-1e-05,-0.00028,-0.00035,-7e-05,-2.9999999999999997e-05,-4e-05,5
19949,20592,-2.9999999999999997e-05,-2e-05,-1e-05,-0.00028,-0.00035,-7e-05,-2.9999999999999997e-05,-4e-05,5
19950,20593,-2.9999999999999997e-05,-2e-05,-1e-05,-0.00028,-0.00035,-7e-05,-2.9999999999999997e-05,-4e-05,5
19951,20594,-2.9999999999999997e-05,-2e-05,-1e-05,-0.00028,-0.00035,-7e-05,-2.9999999999999997e-05,-4e-05,5
19952,20595,-2.9999999999999997e-05,-2e-05,-1e-05,-0.00028,-0.00035,-7e-05,-2.9999999999999997e-05,-4e-05,5
19953,20596,-2.9999999999999997e-05,-2e-05,-1e-05,-0.00028,-0.00035,-7e-05,-2.9999999999999997e-05,-4e-05,5
19954,20597,-2.9999999999999997e-05,-2e-05,-1e-05,-0.00028,-0.00035,-7e-05,-2.9999999999999997e-05,-4e-05,5
19955,20598,1e-05,-0.00011999999999999999,-0.00013000000000000002,-4e-05,2.9999999999999997e-05,0.0,-1e-05,0.0,5
19956,20599,1e-05,-0.00011999999999999999,-0.00013000000000000002,-4e-05,2.9999999999999997e-05,0.0,-1e-05,0.0,5
19957,20601,-2e-05,-4e-05,-2e-05,8e-05,-4e-05,-5e-05,-2.9999999999999997e-05,-2e-05,5
19958,20602,-2e-05,-4e-05,-2e-05,8e-05,-4e-05,-5e-05,-2.9999999999999997e-05,-2e-05,5
19959,20603,-2e-05,-4e-05,-2e-05,8e-05,-4e-05,-5e-05,-2.9999999999999997e-05,-2e-05,5
19960,20604,-2e-05,-4e-05,-2e-05,8e-05,-4e-05,-5e-05,-2.9999999999999997e-05,-2e-05,5
19961,20605,-2e-05,-4e-05,-2e-05,8e-05,-4e-05,-5e-05,-2.9999999999999997e-05,-2e-05,5
19962,20606,-2e-05,-4e-05,-2e-05,8e-05,-4e-05,-5e-05,-2.9999999999999997e-05,-2e-05,5
19963,20607,-2e-05,-4e-05,-2e-05,8e-05,-4e-05,-5e-05,-2.9999999999999997e-05,-2e-05,5
19964,20608,-2e-05,-4e-05,-2e-05,8e-05,-4e-05,-5e-05,-2.9999999999999997e-05,-2e-05,5
19965,20609,-2e-05,-4e-05,-2e-05,8e-05,-4e-05,-5e-05,-2.9999999999999997e-05,-2e-05,5
19966,20610,-2e-05,-4e-05,-2e-05,8e-05,-4e-05,-5e-05,-2.9999999999999997e-05,-2e-05,5
19967,20611,-2e-05,-4e-05,-2e-05,8e-05,-4e-05,-5e-05,-2.9999999999999997e-05,-2e-05,5
19968,20612,-2e-05,-4e-05,-2e-05,8e-05,-4e-05,-5e-05,-2.9999999999999997e-05,-2e-05,5
19969,20613,-2e-05,-4e-05,-2e-05,8e-05,-4e-05,-5e-05,-2.9999999999999997e-05,-2e-05,5
19970,20614,-2e-05,-4e-05,-2e-05,8e-05,-4e-05,-5e-05,-2.9999999999999997e-05,-2e-05,5
19971,20615,-2e-05,-4e-05,-2e-05,8e-05,-4e-05,-5e-05,-2.9999999999999997e-05,-2e-05,5
19972,20616,-2e-05,-4e-05,-2e-05,8e-05,-4e-05,-5e-05,-2.9999999999999997e-05,-2e-05,5
19973,20617,-2e-05,-4e-05,-2e-05,8e-05,-4e-05,-5e-05,-2.9999999999999997e-05,-2e-05,5
19974,20618,-2e-05,-4e-05,-2e-05,8e-05,-4e-05,-5e-05,-2.9999999999999997e-05,-2e-05,5
19975,20619,-2e-05,-4e-05,-2e-05,8e-05,-4e-05,-5e-05,-2.9999999999999997e-05,-2e-05,5
19976,20620,-2e-05,-4e-05,-2e-05,8e-05,-4e-05,-5e-05,-2.9999999999999997e-05,-2e-05,5
19977,20621,-5e-05,-4e-05,-0.00013000000000000002,-0.00016999999999999999,-0.00023999999999999998,-2.9999999999999997e-05,-2.9999999999999997e-05,-2.9999999999999997e-05,5
19978,20622,2e-05,1e-05,0.00011,2e-05,0.00044,7e-05,5e-05,4e-05,5
19979,20624,2e-05,1e-05,0.00011,2e-05,0.00044,7e-05,5e-05,4e-05,5
19980,20625,2e-05,1e-05,0.00011,2e-05,0.00044,7e-05,5e-05,4e-05,5
19981,20626,2e-05,1e-05,0.00011,2e-05,0.00044,7e-05,5e-05,4e-05,5
19982,20627,2e-05,1e-05,0.00011,2e-05,0.00044,7e-05,5e-05,4e-05,5
19983,20628,2e-05,1e-05,0.00011,2e-05,0.00044,7e-05,5e-05,4e-05,5
19984,20629,2e-05,1e-05,0.00011,2e-05,0.00044,7e-05,5e-05,4e-05,5
19985,20630,2e-05,1e-05,0.00011,2e-05,0.00044,7e-05,5e-05,4e-05,5
19986,20631,2e-05,1e-05,0.00011,2e-05,0.00044,7e-05,5e-05,4e-05,5
19987,20632,2e-05,1e-05,0.00011,2e-05,0.00044,7e-05,5e-05,4e-05,5
19988,20633,2e-05,1e-05,0.00011,2e-05,0.00044,7e-05,5e-05,4e-05,5
19989,20634,2e-05,1e-05,0.00011,2e-05,0.00044,7e-05,5e-05,4e-05,5
19990,20635,2e-05,1e-05,0.00011,2e-05,0.00044,7e-05,5e-05,4e-05,5
19991,20636,4e-05,0.00011,5.9999999999999995e-05,0.00013000000000000002,4e-05,0.00011999999999999999,2.9999999999999997e-05,-2e-05,5
19992,20638,0.0,-1e-05,-0.00014,-0.00021,9e-05,-5.9999999999999995e-05,-2.9999999999999997e-05,-2e-05,5
19993,20639,0.0,-1e-05,-0.00014,-0.00021,9e-05,-5.9999999999999995e-05,-2.9999999999999997e-05,-2e-05,5
19994,20640,0.0,-1e-05,-0.00014,-0.00021,9e-05,-5.9999999999999995e-05,-2.9999999999999997e-05,-2e-05,5
19995,20641,0.0,-1e-05,-0.00014,-0.00021,9e-05,-5.9999999999999995e-05,-2.9999999999999997e-05,-2e-05,5
19996,20642,0.0,-1e-05,-0.00014,-0.00021,9e-05,-5.9999999999999995e-05,-2.9999999999999997e-05,-2e-05,5
19997,20643,0.0,-1e-05,-0.00014,-0.00021,9e-05,-5.9999999999999995e-05,-2.9999999999999997e-05,-2e-05,5
19998,20644,0.0,-1e-05,-0.00014,-0.00021,9e-05,-5.9999999999999995e-05,-2.9999999999999997e-05,-2e-05,5
19999,20645,0.0,-1e-05,-0.00014,-0.00021,9e-05,-5.9999999999999995e-05,-2.9999999999999997e-05,-2e-05,5
20000,20646,0.0,-1e-05,-0.00014,-0.00021,9e-05,-5.9999999999999995e-05,-2.9999999999999997e-05,-2e-05,5
20001,20647,0.0,-1e-05,-0.00014,-0.00021,9e-05,-5.9999999999999995e-05,-2.9999999999999997e-05,-2e-05,5
20002,20648,0.0,-1e-05,-0.00014,-0.00021,9e-05,-5.9999999999999995e-05,-2.9999999999999997e-05,-2e-05,5
20003,20649,0.0,-1e-05,-0.00014,-0.00021,9e-05,-5.9999999999999995e-05,-2.9999999999999997e-05,-2e-05,5
20004,20650,0.0,-1e-05,-0.00014,-0.00021,9e-05,-5.9999999999999995e-05,-2.9999999999999997e-05,-2e-05,5
20005,20651,0.0,-1e-05,-0.00014,-0.00021,9e-05,-5.9999999999999995e-05,-2.9999999999999997e-05,-2e-05,5
20006,20652,0.0,-1e-05,-0.00014,-0.00021,9e-05,-5.9999999999999995e-05,-2.9999999999999997e-05,-2e-05,5
20007,20653,0.0,-1e-05,-0.00014,-0.00021,9e-05,-5.9999999999999995e-05,-2.9999999999999997e-05,-2e-05,5
20008,20654,0.0,-1e-05,-0.00014,-0.00021,9e-05,-5.9999999999999995e-05,-2.9999999999999997e-05,-2e-05,5
20009,20655,0.0,-1e-05,-0.00014,-0.00021,9e-05,-5.9999999999999995e-05,-2.9999999999999997e-05,-2e-05,5
20010,20656,0.0,-1e-05,-0.00014,-0.00021,9e-05,-5.9999999999999995e-05,-2.9999999999999997e-05,-2e-05,5
20011,20657,0.0,-1e-05,-0.00014,-0.00021,9e-05,-5.9999999999999995e-05,-2.9999999999999997e-05,-2e-05,5
20012,20658,2e-05,2e-05,5.9999999999999995e-05,-0.00011999999999999999,0.00032,0.00014,2.9999999999999997e-05,1e-05,5
20013,20659,2e-05,2e-05,5.9999999999999995e-05,-0.00011999999999999999,0.00032,0.00014,2.9999999999999997e-05,1e-05,5
20014,20660,-5e-05,-4e-05,-2.9999999999999997e-05,-1e-05,2.9999999999999997e-05,2.9999999999999997e-05,1e-05,0.0,5
20015,20661,-5e-05,-4e-05,-2.9999999999999997e-05,-1e-05,2.9999999999999997e-05,2.9999999999999997e-05,1e-05,0.0,5
20016,20662,-5e-05,-4e-05,-2.9999999999999997e-05,-1e-05,2.9999999999999997e-05,2.9999999999999997e-05,1e-05,0.0,5
20017,20663,-5e-05,-4e-05,-2.9999999999999997e-05,-1e-05,2.9999999999999997e-05,2.9999999999999997e-05,1e-05,0.0,5
20018,20664,-5e-05,-4e-05,-2.9999999999999997e-05,-1e-05,2.9999999999999997e-05,2.9999999999999997e-05,1e-05,0.0,5
20019,20665,-5e-05,-4e-05,-2.9999999999999997e-05,-1e-05,2.9999999999999997e-05,2.9999999999999997e-05,1e-05,0.0,5
20020,20666,-5e-05,-4e-05,-2.9999999999999997e-05,-1e-05,2.9999999999999997e-05,2.9999999999999997e-05,1e-05,0.0,5
20021,20667,-5e-05,-4e-05,-2.9999999999999997e-05,-1e-05,2.9999999999999997e-05,2.9999999999999997e-05,1e-05,0.0,5
20022,20668,-5e-05,-4e-05,-2.9999999999999997e-05,-1e-05,2.9999999999999997e-05,2.9999999999999997e-05,1e-05,0.0,5
20023,20669,-5e-05,-4e-05,-2.9999999999999997e-05,-1e-05,2.9999999999999997e-05,2.9999999999999997e-05,1e-05,0.0,5
20024,20670,-5e-05,-4e-05,-2.9999999999999997e-05,-1e-05,2.9999999999999997e-05,2.9999999999999997e-05,1e-05,0.0,5
20025,20671,-5e-05,-4e-05,-2.9999999999999997e-05,-1e-05,2.9999999999999997e-05,2.9999999999999997e-05,1e-05,0.0,5
20026,20672,-5e-05,-4e-05,-2.9999999999999997e-05,-1e-05,2.9999999999999997e-05,2.9999999999999997e-05,1e-05,0.0,5
20027,20673,-5e-05,-4e-05,-2.9999999999999997e-05,-1e-05,2.9999999999999997e-05,2.9999999999999997e-05,1e-05,0.0,5
20028,20674,-5e-05,-4e-05,-2.9999999999999997e-05,-1e-05,2.9999999999999997e-05,2.9999999999999997e-05,1e-05,0.0,5
20029,20675,-5e-05,-4e-05,-2.9999999999999997e-05,-1e-05,2.9999999999999997e-05,2.9999999999999997e-05,1e-05,0.0,5
20030,20676,-5e-05,-4e-05,-2.9999999999999997e-05,-1e-05,2.9999999999999997e-05,2.9999999999999997e-05,1e-05,0.0,5
20031,20677,-5e-05,-4e-05,-2.9999999999999997e-05,-1e-05,2.9999999999999997e-05,2.9999999999999997e-05,1e-05,0.0,5
20032,20678,-5e-05,-4e-05,-2.9999999999999997e-05,-1e-05,2.9999999999999997e-05,2.9999999999999997e-05,1e-05,0.0,5
20033,20679,-5e-05,-4e-05,-2.9999999999999997e-05,-1e-05,2.9999999999999997e-05,2.9999999999999997e-05,1e-05,0.0,5
20034,20680,-5e-05,-4e-05,-2.9999999999999997e-05,-1e-05,2.9999999999999997e-05,2.9999999999999997e-05,1e-05,0.0,5
20035,20681,-2e-05,-1e-05,-5.9999999999999995e-05,-0.0002,-0.00026000000000000003,-4e-05,-2.9999999999999997e-05,1e-05,5
20036,20682,-0.00011,-4e-05,0.00015,0.00022,0.00015,8e-05,1e-05,1e-05,5
20037,20684,-0.00011,-4e-05,0.00015,0.00022,0.00015,8e-05,1e-05,1e-05,5
20038,20685,-0.00011,-4e-05,0.00015,0.00022,0.00015,8e-05,1e-05,1e-05,5
20039,20686,-0.00011,-4e-05,0.00015,0.00022,0.00015,8e-05,1e-05,1e-05,5
20040,20688,-0.00011,-4e-05,0.00015,0.00022,0.00015,8e-05,1e-05,1e-05,5
20041,20689,-0.00011,-4e-05,0.00015,0.00022,0.00015,8e-05,1e-05,1e-05,5
20042,20690,-0.00011,-4e-05,0.00015,0.00022,0.00015,8e-05,1e-05,1e-05,5
20043,20691,-0.00011,-4e-05,0.00015,0.00022,0.00015,8e-05,1e-05,1e-05,5
20044,20692,-0.00011,-4e-05,0.00015,0.00022,0.00015,8e-05,1e-05,1e-05,5
20045,20693,-0.00011,-4e-05,0.00015,0.00022,0.00015,8e-05,1e-05,1e-05,5
20046,20694,-0.00011,-4e-05,0.00015,0.00022,0.00015,8e-05,1e-05,1e-05,5
20047,20695,5.9999999999999995e-05,5e-05,-0.00011,0.00016999999999999999,2e-05,-2e-05,2.9999999999999997e-05,1e-05,5
20048,20696,5.9999999999999995e-05,5e-05,-0.00011,0.00016999999999999999,2e-05,-2e-05,2.9999999999999997e-05,1e-05,5
20049,20697,5.9999999999999995e-05,5e-05,-0.00011,0.00016999999999999999,2e-05,-2e-05,2.9999999999999997e-05,1e-05,5
20050,20698,5.9999999999999995e-05,5e-05,-0.00011,0.00016999999999999999,2e-05,-2e-05,2.9999999999999997e-05,1e-05,5
20051,20699,5.9999999999999995e-05,5e-05,-0.00011,0.00016999999999999999,2e-05,-2e-05,2.9999999999999997e-05,1e-05,5
20052,20700,5.9999999999999995e-05,5e-05,-0.00011,0.00016999999999999999,2e-05,-2e-05,2.9999999999999997e-05,1e-05,5
20053,20701,5.9999999999999995e-05,5e-05,-0.00011,0.00016999999999999999,2e-05,-2e-05,2.9999999999999997e-05,1e-05,5
20054,20702,5.9999999999999995e-05,1e-05,-1e-05,2.9999999999999997e-05,-0.00029,-0.00011999999999999999,-2.9999999999999997e-05,-1e-05,5
20055,20703,5.9999999999999995e-05,1e-05,-1e-05,2.9999999999999997e-05,-0.00029,-0.00011999999999999999,-2.9999999999999997e-05,-1e-05,5
20056,20704,5.9999999999999995e-05,1e-05,-1e-05,2.9999999999999997e-05,-0.00029,-0.00011999999999999999,-2.9999999999999997e-05,-1e-05,5
20057,20705,5.9999999999999995e-05,1e-05,-1e-05,2.9999999999999997e-05,-0.00029,-0.00011999999999999999,-2.9999999999999997e-05,-1e-05,5
20058,20706,5.9999999999999995e-05,1e-05,-1e-05,2.9999999999999997e-05,-0.00029,-0.00011999999999999999,-2.9999999999999997e-05,-1e-05,5
20059,20707,5.9999999999999995e-05,1e-05,-1e-05,2.9999999999999997e-05,-0.00029,-0.00011999999999999999,-2.9999999999999997e-05,-1e-05,5
20060,20708,5.9999999999999995e-05,1e-05,-1e-05,2.9999999999999997e-05,-0.00029,-0.00011999999999999999,-2.9999999999999997e-05,-1e-05,5
20061,20709,5.9999999999999995e-05,1e-05,-1e-05,2.9999999999999997e-05,-0.00029,-0.00011999999999999999,-2.9999999999999997e-05,-1e-05,5
20062,20710,5.9999999999999995e-05,1e-05,-1e-05,2.9999999999999997e-05,-0.00029,-0.00011999999999999999,-2.9999999999999997e-05,-1e-05,5
20063,20711,5.9999999999999995e-05,1e-05,-1e-05,2.9999999999999997e-05,-0.00029,-0.00011999999999999999,-2.9999999999999997e-05,-1e-05,5
20064,20712,5.9999999999999995e-05,1e-05,-1e-05,2.9999999999999997e-05,-0.00029,-0.00011999999999999999,-2.9999999999999997e-05,-1e-05,5
20065,20713,5.9999999999999995e-05,1e-05,-1e-05,2.9999999999999997e-05,-0.00029,-0.00011999999999999999,-2.9999999999999997e-05,-1e-05,5
20066,20714,5.9999999999999995e-05,1e-05,-1e-05,2.9999999999999997e-05,-0.00029,-0.00011999999999999999,-2.9999999999999997e-05,-1e-05,5
20067,20715,5.9999999999999995e-05,1e-05,-1e-05,2.9999999999999997e-05,-0.00029,-0.00011999999999999999,-2.9999999999999997e-05,-1e-05,5
20068,20716,5.9999999999999995e-05,1e-05,-1e-05,2.9999999999999997e-05,-0.00029,-0.00011999999999999999,-2.9999999999999997e-05,-1e-05,5
20069,20717,5.9999999999999995e-05,1e-05,-1e-05,2.9999999999999997e-05,-0.00029,-0.00011999999999999999,-2.9999999999999997e-05,-1e-05,5
20070,20718,-2e-05,-2.9999999999999997e-05,2.9999999999999997e-05,0.00021,1e-05,-9e-05,-4e-05,-2.9999999999999997e-05,5
20071,20719,-2e-05,-2.9999999999999997e-05,2.9999999999999997e-05,0.00021,1e-05,-9e-05,-4e-05,-2.9999999999999997e-05,5
20072,20720,-2e-05,-2.9999999999999997e-05,2.9999999999999997e-05,0.00021,1e-05,-9e-05,-4e-05,-2.9999999999999997e-05,5
20073,20721,-2.9999999999999997e-05,-7e-05,-5e-05,0.00011999999999999999,0.00078,4e-05,2.9999999999999997e-05,-1e-05,5
20074,20722,-2.9999999999999997e-05,-7e-05,-5e-05,0.00011999999999999999,0.00078,4e-05,2.9999999999999997e-05,-1e-05,5
20075,20723,-2.9999999999999997e-05,-7e-05,-5e-05,0.00011999999999999999,0.00078,4e-05,2.9999999999999997e-05,-1e-05,5
20076,20724,-2.9999999999999997e-05,-7e-05,-5e-05,0.00011999999999999999,0.00078,4e-05,2.9999999999999997e-05,-1e-05,5
20077,20725,-2.9999999999999997e-05,-7e-05,-5e-05,0.00011999999999999999,0.00078,4e-05,2.9999999999999997e-05,-1e-05,5
20078,20726,-2.9999999999999997e-05,-7e-05,-5e-05,0.00011999999999999999,0.00078,4e-05,2.9999999999999997e-05,-1e-05,5
20079,20727,-2.9999999999999997e-05,-7e-05,-5e-05,0.00011999999999999999,0.00078,4e-05,2.9999999999999997e-05,-1e-05,5
20080,20728,-2.9999999999999997e-05,-7e-05,-5e-05,0.00011999999999999999,0.00078,4e-05,2.9999999999999997e-05,-1e-05,5
20081,20729,-2.9999999999999997e-05,-7e-05,-5e-05,0.00011999999999999999,0.00078,4e-05,2.9999999999999997e-05,-1e-05,5
20082,20730,-2.9999999999999997e-05,-7e-05,-5e-05,0.00011999999999999999,0.00078,4e-05,2.9999999999999997e-05,-1e-05,5
20083,20731,-2.9999999999999997e-05,-7e-05,-5e-05,0.00011999999999999999,0.00078,4e-05,2.9999999999999997e-05,-1e-05,5
20084,20732,-2.9999999999999997e-05,-7e-05,-5e-05,0.00011999999999999999,0.00078,4e-05,2.9999999999999997e-05,-1e-05,5
20085,20733,-2.9999999999999997e-05,-7e-05,-5e-05,0.00011999999999999999,0.00078,4e-05,2.9999999999999997e-05,-1e-05,5
20086,20734,-2.9999999999999997e-05,-7e-05,-5e-05,0.00011999999999999999,0.00078,4e-05,2.9999999999999997e-05,-1e-05,5
20087,20735,-2.9999999999999997e-05,-7e-05,-5e-05,0.00011999999999999999,0.00078,4e-05,2.9999999999999997e-05,-1e-05,5
20088,20736,-2.9999999999999997e-05,-7e-05,-5e-05,0.00011999999999999999,0.00078,4e-05,2.9999999999999997e-05,-1e-05,5
20089,20738,-2.9999999999999997e-05,-7e-05,-5e-05,0.00011999999999999999,0.00078,4e-05,2.9999999999999997e-05,-1e-05,5
20090,20739,-2.9999999999999997e-05,-7e-05,-5e-05,0.00011999999999999999,0.00078,4e-05,2.9999999999999997e-05,-1e-05,5
20091,20740,-2.9999999999999997e-05,-7e-05,-5e-05,0.00011999999999999999,0.00078,4e-05,2.9999999999999997e-05,-1e-05,5
20092,20741,0.0,-2e-05,0.0,4e-05,0.00018,-2e-05,-1e-05,-2e-05,5
20093,20742,-5e-05,-2e-05,0.0,1e-05,-0.00015,0.0,-4e-05,0.0,5
20094,20743,-5e-05,-2e-05,0.0,1e-05,-0.00015,0.0,-4e-05,0.0,5
20095,20744,-5e-05,-2e-05,0.0,1e-05,-0.00015,0.0,-4e-05,0.0,5
20096,20745,-5e-05,-2e-05,0.0,1e-05,-0.00015,0.0,-4e-05,0.0,5
20097,20746,-5e-05,-2e-05,0.0,1e-05,-0.00015,0.0,-4e-05,0.0,5
20098,20747,-5e-05,-2e-05,0.0,1e-05,-0.00015,0.0,-4e-05,0.0,5
20099,20748,-5e-05,-2e-05,0.0,1e-05,-0.00015,0.0,-4e-05,0.0,5
20100,20749,-5e-05,-2e-05,0.0,1e-05,-0.00015,0.0,-4e-05,0.0,5
20101,20750,-5e-05,-2e-05,0.0,1e-05,-0.00015,0.0,-4e-05,0.0,5
20102,20751,-5e-05,-2e-05,0.0,1e-05,-0.00015,0.0,-4e-05,0.0,5
20103,20752,-5e-05,-2e-05,0.0,1e-05,-0.00015,0.0,-4e-05,0.0,5
20104,20753,-5e-05,-2e-05,0.0,1e-05,-0.00015,0.0,-4e-05,0.0,5
20105,20754,-5e-05,-2e-05,0.0,1e-05,-0.00015,0.0,-4e-05,0.0,5
20106,20755,1e-05,4e-05,0.00013000000000000002,0.00016,-0.00021,-2e-05,0.0,-1e-05,5
20107,20756,1e-05,4e-05,0.00013000000000000002,0.00016,-0.00021,-2e-05,0.0,-1e-05,5
20108,20757,1e-05,4e-05,0.00013000000000000002,0.00016,-0.00021,-2e-05,0.0,-1e-05,5
20109,20758,1e-05,4e-05,0.00013000000000000002,0.00016,-0.00021,-2e-05,0.0,-1e-05,5
20110,20759,1e-05,4e-05,0.00013000000000000002,0.00016,-0.00021,-2e-05,0.0,-1e-05,5
20111,20760,1e-05,4e-05,0.00013000000000000002,0.00016,-0.00021,-2e-05,0.0,-1e-05,5
20112,20761,1e-05,4e-05,0.00013000000000000002,0.00016,-0.00021,-2e-05,0.0,-1e-05,5
20113,20762,-4e-05,-4e-05,-9e-05,5.9999999999999995e-05,-8e-05,4e-05,-1e-05,-2e-05,5
20114,20763,-4e-05,-4e-05,-9e-05,5.9999999999999995e-05,-8e-05,4e-05,-1e-05,-2e-05,5
20115,20764,-4e-05,-4e-05,-9e-05,5.9999999999999995e-05,-8e-05,4e-05,-1e-05,-2e-05,5
20116,20765,-4e-05,-4e-05,-9e-05,5.9999999999999995e-05,-8e-05,4e-05,-1e-05,-2e-05,5
20117,20766,-4e-05,-4e-05,-9e-05,5.9999999999999995e-05,-8e-05,4e-05,-1e-05,-2e-05,5
20118,20767,-4e-05,-4e-05,-9e-05,5.9999999999999995e-05,-8e-05,4e-05,-1e-05,-2e-05,5
20119,20768,-4e-05,-4e-05,-9e-05,5.9999999999999995e-05,-8e-05,4e-05,-1e-05,-2e-05,5
20120,20769,-4e-05,-4e-05,-9e-05,5.9999999999999995e-05,-8e-05,4e-05,-1e-05,-2e-05,5
20121,20770,-4e-05,-4e-05,-9e-05,5.9999999999999995e-05,-8e-05,4e-05,-1e-05,-2e-05,5
20122,20771,-4e-05,-4e-05,-9e-05,5.9999999999999995e-05,-8e-05,4e-05,-1e-05,-2e-05,5
20123,20772,-4e-05,-4e-05,-9e-05,5.9999999999999995e-05,-8e-05,4e-05,-1e-05,-2e-05,5
20124,20773,-4e-05,-4e-05,-9e-05,5.9999999999999995e-05,-8e-05,4e-05,-1e-05,-2e-05,5
20125,20774,-4e-05,-4e-05,-9e-05,5.9999999999999995e-05,-8e-05,4e-05,-1e-05,-2e-05,5
20126,20775,-4e-05,-4e-05,-9e-05,5.9999999999999995e-05,-8e-05,4e-05,-1e-05,-2e-05,5
20127,20776,-4e-05,-4e-05,-9e-05,5.9999999999999995e-05,-8e-05,4e-05,-1e-05,-2e-05,5
20128,20777,-4e-05,-4e-05,-9e-05,5.9999999999999995e-05,-8e-05,4e-05,-1e-05,-2e-05,5
20129,20778,-4e-05,-4e-05,-9e-05,5.9999999999999995e-05,-8e-05,4e-05,-1e-05,-2e-05,5
20130,20779,-4e-05,-4e-05,-9e-05,5.9999999999999995e-05,-8e-05,4e-05,-1e-05,-2e-05,5
20131,20780,-4e-05,-4e-05,-9e-05,5.9999999999999995e-05,-8e-05,4e-05,-1e-05,-2e-05,5
20132,20781,-4e-05,-4e-05,-9e-05,5.9999999999999995e-05,-8e-05,4e-05,-1e-05,-2e-05,5
20133,20782,-4e-05,-4e-05,-9e-05,5.9999999999999995e-05,-8e-05,4e-05,-1e-05,-2e-05,5
20134,20783,-4e-05,-4e-05,-9e-05,5.9999999999999995e-05,-8e-05,4e-05,-1e-05,-2e-05,5
20135,20784,-4e-05,-4e-05,-9e-05,5.9999999999999995e-05,-8e-05,4e-05,-1e-05,-2e-05,5
20136,20785,-4e-05,-4e-05,-9e-05,5.9999999999999995e-05,-8e-05,4e-05,-1e-05,-2e-05,5
20137,20786,-4e-05,-4e-05,-9e-05,5.9999999999999995e-05,-8e-05,4e-05,-1e-05,-2e-05,5
20138,20788,-4e-05,-4e-05,-9e-05,5.9999999999999995e-05,-8e-05,4e-05,-1e-05,-2e-05,5
20139,20789,-0.00015,-9e-05,-2e-05,-0.00014,2.9999999999999997e-05,-1e-05,1e-05,-2.9999999999999997e-05,5
20140,20790,-0.00015,-9e-05,-2e-05,-0.00014,2.9999999999999997e-05,-1e-05,1e-05,-2.9999999999999997e-05,5
20141,20791,-0.00015,-9e-05,-2e-05,-0.00014,2.9999999999999997e-05,-1e-05,1e-05,-2.9999999999999997e-05,5
20142,20792,-0.00015,-9e-05,-2e-05,-0.00014,2.9999999999999997e-05,-1e-05,1e-05,-2.9999999999999997e-05,5
20143,20793,-0.00015,-9e-05,-2e-05,-0.00014,2.9999999999999997e-05,-1e-05,1e-05,-2.9999999999999997e-05,5
20144,20794,-0.00015,-9e-05,-2e-05,-0.00014,2.9999999999999997e-05,-1e-05,1e-05,-2.9999999999999997e-05,5
20145,20795,-0.00015,-9e-05,-2e-05,-0.00014,2.9999999999999997e-05,-1e-05,1e-05,-2.9999999999999997e-05,5
20146,20796,-0.00015,-9e-05,-2e-05,-0.00014,2.9999999999999997e-05,-1e-05,1e-05,-2.9999999999999997e-05,5
20147,20797,-0.00015,-9e-05,-2e-05,-0.00014,2.9999999999999997e-05,-1e-05,1e-05,-2.9999999999999997e-05,5
20148,20798,-0.00015,-9e-05,-2e-05,-0.00014,2.9999999999999997e-05,-1e-05,1e-05,-2.9999999999999997e-05,5
20149,20799,-0.00015,-9e-05,-2e-05,-0.00014,2.9999999999999997e-05,-1e-05,1e-05,-2.9999999999999997e-05,5
20150,20800,-0.00015,-9e-05,-2e-05,-0.00014,2.9999999999999997e-05,-1e-05,1e-05,-2.9999999999999997e-05,5
20151,20801,2e-05,0.0,-1e-05,-2.9999999999999997e-05,0.0,-7e-05,-5.9999999999999995e-05,-1e-05,5
20152,20802,9e-05,5.9999999999999995e-05,5.9999999999999995e-05,-2.9999999999999997e-05,-0.00026000000000000003,-2.9999999999999997e-05,1e-05,1e-05,5
20153,20803,9e-05,5.9999999999999995e-05,5.9999999999999995e-05,-2.9999999999999997e-05,-0.00026000000000000003,-2.9999999999999997e-05,1e-05,1e-05,5
20154,20804,9e-05,5.9999999999999995e-05,5.9999999999999995e-05,-2.9999999999999997e-05,-0.00026000000000000003,-2.9999999999999997e-05,1e-05,1e-05,5
20155,20805,9e-05,5.9999999999999995e-05,5.9999999999999995e-05,-2.9999999999999997e-05,-0.00026000000000000003,-2.9999999999999997e-05,1e-05,1e-05,5
20156,20806,9e-05,5.9999999999999995e-05,5.9999999999999995e-05,-2.9999999999999997e-05,-0.00026000000000000003,-2.9999999999999997e-05,1e-05,1e-05,5
20157,20807,9e-05,5.9999999999999995e-05,5.9999999999999995e-05,-2.9999999999999997e-05,-0.00026000000000000003,-2.9999999999999997e-05,1e-05,1e-05,5
20158,20808,9e-05,5.9999999999999995e-05,5.9999999999999995e-05,-2.9999999999999997e-05,-0.00026000000000000003,-2.9999999999999997e-05,1e-05,1e-05,5
20159,20809,9e-05,5.9999999999999995e-05,5.9999999999999995e-05,-2.9999999999999997e-05,-0.00026000000000000003,-2.9999999999999997e-05,1e-05,1e-05,5
20160,20810,9e-05,5.9999999999999995e-05,5.9999999999999995e-05,-2.9999999999999997e-05,-0.00026000000000000003,-2.9999999999999997e-05,1e-05,1e-05,5
20161,20811,9e-05,5.9999999999999995e-05,5.9999999999999995e-05,-2.9999999999999997e-05,-0.00026000000000000003,-2.9999999999999997e-05,1e-05,1e-05,5
20162,20812,9e-05,5.9999999999999995e-05,5.9999999999999995e-05,-2.9999999999999997e-05,-0.00026000000000000003,-2.9999999999999997e-05,1e-05,1e-05,5
20163,20813,9e-05,5.9999999999999995e-05,5.9999999999999995e-05,-2.9999999999999997e-05,-0.00026000000000000003,-2.9999999999999997e-05,1e-05,1e-05,5
20164,20814,9e-05,5.9999999999999995e-05,5.9999999999999995e-05,-2.9999999999999997e-05,-0.00026000000000000003,-2.9999999999999997e-05,1e-05,1e-05,5
20165,20815,-7e-05,-2.9999999999999997e-05,5e-05,-5.9999999999999995e-05,0.0002,-2e-05,-1e-05,-1e-05,5
20166,20816,-7e-05,-2.9999999999999997e-05,5e-05,-5.9999999999999995e-05,0.0002,-2e-05,-1e-05,-1e-05,5
20167,20817,-7e-05,-2.9999999999999997e-05,5e-05,-5.9999999999999995e-05,0.0002,-2e-05,-1e-05,-1e-05,5
20168,20818,-7e-05,-2.9999999999999997e-05,5e-05,-5.9999999999999995e-05,0.0002,-2e-05,-1e-05,-1e-05,5
20169,20819,-7e-05,-2.9999999999999997e-05,5e-05,-5.9999999999999995e-05,0.0002,-2e-05,-1e-05,-1e-05,5
20170,20820,-7e-05,-2.9999999999999997e-05,5e-05,-5.9999999999999995e-05,0.0002,-2e-05,-1e-05,-1e-05,5
20171,20821,-7e-05,-2.9999999999999997e-05,5e-05,-5.9999999999999995e-05,0.0002,-2e-05,-1e-05,-1e-05,5
20172,20822,-2e-05,-0.00011999999999999999,-0.00016,-0.00047999999999999996,-0.00098,-0.00016999999999999999,-0.00011,-7e-05,5
20173,20823,-2e-05,-0.00011999999999999999,-0.00016,-0.00047999999999999996,-0.00098,-0.00016999999999999999,-0.00011,-7e-05,5
20174,20824,-2e-05,-0.00011999999999999999,-0.00016,-0.00047999999999999996,-0.00098,-0.00016999999999999999,-0.00011,-7e-05,5
20175,20825,-2e-05,-0.00011999999999999999,-0.00016,-0.00047999999999999996,-0.00098,-0.00016999999999999999,-0.00011,-7e-05,5
20176,20826,-2e-05,-0.00011999999999999999,-0.00016,-0.00047999999999999996,-0.00098,-0.00016999999999999999,-0.00011,-7e-05,5
20177,20827,-2e-05,-0.00011999999999999999,-0.00016,-0.00047999999999999996,-0.00098,-0.00016999999999999999,-0.00011,-7e-05,5
20178,20828,-2e-05,-0.00011999999999999999,-0.00016,-0.00047999999999999996,-0.00098,-0.00016999999999999999,-0.00011,-7e-05,5
20179,20829,-2e-05,-0.00011999999999999999,-0.00016,-0.00047999999999999996,-0.00098,-0.00016999999999999999,-0.00011,-7e-05,5
20180,20830,-2e-05,-0.00011999999999999999,-0.00016,-0.00047999999999999996,-0.00098,-0.00016999999999999999,-0.00011,-7e-05,5
20181,20831,-2e-05,-0.00011999999999999999,-0.00016,-0.00047999999999999996,-0.00098,-0.00016999999999999999,-0.00011,-7e-05,5
20182,20832,-2e-05,-0.00011999999999999999,-0.00016,-0.00047999999999999996,-0.00098,-0.00016999999999999999,-0.00011,-7e-05,5
20183,20833,-2e-05,-0.00011999999999999999,-0.00016,-0.00047999999999999996,-0.00098,-0.00016999999999999999,-0.00011,-7e-05,5
20184,20834,-2e-05,-0.00011999999999999999,-0.00016,-0.00047999999999999996,-0.00098,-0.00016999999999999999,-0.00011,-7e-05,5
20185,20835,-2e-05,-0.00011999999999999999,-0.00016,-0.00047999999999999996,-0.00098,-0.00016999999999999999,-0.00011,-7e-05,5
20186,20836,-2e-05,-0.00011999999999999999,-0.00016,-0.00047999999999999996,-0.00098,-0.00016999999999999999,-0.00011,-7e-05,5
20187,20839,-2e-05,-0.0001,-0.0002,-0.00043,-0.00044,-0.00015,-5e-05,-2e-05,5
20188,20840,-2e-05,-0.0001,-0.0002,-0.00043,-0.00044,-0.00015,-5e-05,-2e-05,5
20189,20841,-2e-05,-0.0001,-0.0002,-0.00043,-0.00044,-0.00015,-5e-05,-2e-05,5
20190,20842,-2e-05,-0.0001,-0.0002,-0.00043,-0.00044,-0.00015,-5e-05,-2e-05,5
20191,20843,-2e-05,-0.0001,-0.0002,-0.00043,-0.00044,-0.00015,-5e-05,-2e-05,5
20192,20844,-2e-05,-0.0001,-0.0002,-0.00043,-0.00044,-0.00015,-5e-05,-2e-05,5
20193,20845,-2e-05,-0.0001,-0.0002,-0.00043,-0.00044,-0.00015,-5e-05,-2e-05,5
20194,20846,2e-05,1e-05,-1e-05,0.00011,1e-05,-0.00011999999999999999,-8e-05,-1e-05,5
20195,20847,2e-05,1e-05,-1e-05,0.00011,1e-05,-0.00011999999999999999,-8e-05,-1e-05,5
20196,20848,2e-05,1e-05,-1e-05,0.00011,1e-05,-0.00011999999999999999,-8e-05,-1e-05,5
20197,20849,2e-05,1e-05,-1e-05,0.00011,1e-05,-0.00011999999999999999,-8e-05,-1e-05,5
20198,20850,2e-05,1e-05,-1e-05,0.00011,1e-05,-0.00011999999999999999,-8e-05,-1e-05,5
20199,20851,2e-05,1e-05,-1e-05,0.00011,1e-05,-0.00011999999999999999,-8e-05,-1e-05,5
20200,20852,2e-05,1e-05,-1e-05,0.00011,1e-05,-0.00011999999999999999,-8e-05,-1e-05,5
20201,20853,2e-05,1e-05,-1e-05,0.00011,1e-05,-0.00011999999999999999,-8e-05,-1e-05,5
20202,20854,2e-05,1e-05,-1e-05,0.00011,1e-05,-0.00011999999999999999,-8e-05,-1e-05,5
20203,20855,2e-05,1e-05,-1e-05,0.00011,1e-05,-0.00011999999999999999,-8e-05,-1e-05,5
20204,20856,2e-05,1e-05,-1e-05,0.00011,1e-05,-0.00011999999999999999,-8e-05,-1e-05,5
20205,20857,2e-05,1e-05,-1e-05,0.00011,1e-05,-0.00011999999999999999,-8e-05,-1e-05,5
20206,20858,2e-05,1e-05,-1e-05,0.00011,1e-05,-0.00011999999999999999,-8e-05,-1e-05,5
20207,20859,2e-05,1e-05,-1e-05,0.00011,1e-05,-0.00011999999999999999,-8e-05,-1e-05,5
20208,20860,2e-05,1e-05,-1e-05,0.00011,1e-05,-0.00011999999999999999,-8e-05,-1e-05,5
20209,20861,2e-05,-1e-05,1e-05,-5e-05,-0.00016,-5.9999999999999995e-05,-2e-05,-2e-05,5
20210,20862,7e-05,7e-05,0.00016999999999999999,0.00049,0.00035,5.9999999999999995e-05,4e-05,1e-05,5
20211,20863,7e-05,7e-05,0.00016999999999999999,0.00049,0.00035,5.9999999999999995e-05,4e-05,1e-05,5
20212,20864,7e-05,7e-05,0.00016999999999999999,0.00049,0.00035,5.9999999999999995e-05,4e-05,1e-05,5
20213,20865,7e-05,7e-05,0.00016999999999999999,0.00049,0.00035,5.9999999999999995e-05,4e-05,1e-05,5
20214,20866,7e-05,7e-05,0.00016999999999999999,0.00049,0.00035,5.9999999999999995e-05,4e-05,1e-05,5
20215,20867,7e-05,7e-05,0.00016999999999999999,0.00049,0.00035,5.9999999999999995e-05,4e-05,1e-05,5
20216,20868,7e-05,7e-05,0.00016999999999999999,0.00049,0.00035,5.9999999999999995e-05,4e-05,1e-05,5
20217,20869,7e-05,7e-05,0.00016999999999999999,0.00049,0.00035,5.9999999999999995e-05,4e-05,1e-05,5
20218,20870,7e-05,7e-05,0.00016999999999999999,0.00049,0.00035,5.9999999999999995e-05,4e-05,1e-05,5
20219,20871,7e-05,7e-05,0.00016999999999999999,0.00049,0.00035,5.9999999999999995e-05,4e-05,1e-05,5
20220,20872,7e-05,7e-05,0.00016999999999999999,0.00049,0.00035,5.9999999999999995e-05,4e-05,1e-05,5
20221,20873,7e-05,7e-05,0.00016999999999999999,0.00049,0.00035,5.9999999999999995e-05,4e-05,1e-05,5
20222,20874,7e-05,7e-05,0.00016999999999999999,0.00049,0.00035,5.9999999999999995e-05,4e-05,1e-05,5
20223,20875,8e-05,5e-05,0.0001,0.00054,0.00042,8e-05,8e-05,0.0,5
20224,20876,8e-05,5e-05,0.0001,0.00054,0.00042,8e-05,8e-05,0.0,5
20225,20877,8e-05,5e-05,0.0001,0.00054,0.00042,8e-05,8e-05,0.0,5
20226,20878,8e-05,5e-05,0.0001,0.00054,0.00042,8e-05,8e-05,0.0,5
20227,20879,8e-05,5e-05,0.0001,0.00054,0.00042,8e-05,8e-05,0.0,5
20228,20880,8e-05,5e-05,0.0001,0.00054,0.00042,8e-05,8e-05,0.0,5
20229,20881,8e-05,5e-05,0.0001,0.00054,0.00042,8e-05,8e-05,0.0,5
20230,20882,4e-05,2e-05,4e-05,-9e-05,-0.00031,2.9999999999999997e-05,2e-05,2.9999999999999997e-05,5
20231,20883,4e-05,2e-05,4e-05,-9e-05,-0.00031,2.9999999999999997e-05,2e-05,2.9999999999999997e-05,5
20232,20884,4e-05,2e-05,4e-05,-9e-05,-0.00031,2.9999999999999997e-05,2e-05,2.9999999999999997e-05,5
20233,20885,4e-05,2e-05,4e-05,-9e-05,-0.00031,2.9999999999999997e-05,2e-05,2.9999999999999997e-05,5
20234,20886,4e-05,2e-05,4e-05,-9e-05,-0.00031,2.9999999999999997e-05,2e-05,2.9999999999999997e-05,5
20235,20889,4e-05,2e-05,4e-05,-9e-05,-0.00031,2.9999999999999997e-05,2e-05,2.9999999999999997e-05,5
20236,20890,4e-05,2e-05,4e-05,-9e-05,-0.00031,2.9999999999999997e-05,2e-05,2.9999999999999997e-05,5
20237,20891,4e-05,2e-05,4e-05,-9e-05,-0.00031,2.9999999999999997e-05,2e-05,2.9999999999999997e-05,5
20238,20892,4e-05,2e-05,4e-05,-9e-05,-0.00031,2.9999999999999997e-05,2e-05,2.9999999999999997e-05,5
20239,20893,4e-05,2e-05,4e-05,-9e-05,-0.00031,2.9999999999999997e-05,2e-05,2.9999999999999997e-05,5
20240,20894,4e-05,2e-05,4e-05,-9e-05,-0.00031,2.9999999999999997e-05,2e-05,2.9999999999999997e-05,5
20241,20895,4e-05,2e-05,4e-05,-9e-05,-0.00031,2.9999999999999997e-05,2e-05,2.9999999999999997e-05,5
20242,20896,4e-05,2e-05,4e-05,-9e-05,-0.00031,2.9999999999999997e-05,2e-05,2.9999999999999997e-05,5
20243,20897,4e-05,2e-05,4e-05,-9e-05,-0.00031,2.9999999999999997e-05,2e-05,2.9999999999999997e-05,5
20244,20898,4e-05,2e-05,4e-05,-9e-05,-0.00031,2.9999999999999997e-05,2e-05,2.9999999999999997e-05,5
20245,20899,1e-05,-2.9999999999999997e-05,1e-05,-0.00013000000000000002,-0.00014,-7e-05,-4e-05,-2e-05,5
20246,20900,0.0,1e-05,2.9999999999999997e-05,4e-05,-5.9999999999999995e-05,1e-05,-2e-05,-1e-05,5
20247,20902,0.0,1e-05,2.9999999999999997e-05,4e-05,-5.9999999999999995e-05,1e-05,-2e-05,-1e-05,5
20248,20903,0.0,1e-05,2.9999999999999997e-05,4e-05,-5.9999999999999995e-05,1e-05,-2e-05,-1e-05,5
20249,20904,0.0,1e-05,2.9999999999999997e-05,4e-05,-5.9999999999999995e-05,1e-05,-2e-05,-1e-05,5
20250,20905,0.0,1e-05,2.9999999999999997e-05,4e-05,-5.9999999999999995e-05,1e-05,-2e-05,-1e-05,5
20251,20906,0.0,1e-05,2.9999999999999997e-05,4e-05,-5.9999999999999995e-05,1e-05,-2e-05,-1e-05,5
20252,20907,0.0,1e-05,2.9999999999999997e-05,4e-05,-5.9999999999999995e-05,1e-05,-2e-05,-1e-05,5
20253,20908,0.0,1e-05,2.9999999999999997e-05,4e-05,-5.9999999999999995e-05,1e-05,-2e-05,-1e-05,5
20254,20909,0.0,1e-05,2.9999999999999997e-05,4e-05,-5.9999999999999995e-05,1e-05,-2e-05,-1e-05,5
20255,20910,0.0,1e-05,2.9999999999999997e-05,4e-05,-5.9999999999999995e-05,1e-05,-2e-05,-1e-05,5
20256,20911,0.0,1e-05,2.9999999999999997e-05,4e-05,-5.9999999999999995e-05,1e-05,-2e-05,-1e-05,5
20257,20912,0.0,1e-05,2.9999999999999997e-05,4e-05,-5.9999999999999995e-05,1e-05,-2e-05,-1e-05,5
20258,20913,0.0,1e-05,2.9999999999999997e-05,4e-05,-5.9999999999999995e-05,1e-05,-2e-05,-1e-05,5
20259,20914,0.0,1e-05,2.9999999999999997e-05,4e-05,-5.9999999999999995e-05,1e-05,-2e-05,-1e-05,5
20260,20915,0.0,1e-05,2.9999999999999997e-05,4e-05,-5.9999999999999995e-05,1e-05,-2e-05,-1e-05,5
20261,20916,0.0,1e-05,2.9999999999999997e-05,4e-05,-5.9999999999999995e-05,1e-05,-2e-05,-1e-05,5
20262,20917,0.0,1e-05,2.9999999999999997e-05,4e-05,-5.9999999999999995e-05,1e-05,-2e-05,-1e-05,5
20263,20918,0.0,1e-05,2.9999999999999997e-05,4e-05,-5.9999999999999995e-05,1e-05,-2e-05,-1e-05,5
20264,20919,0.0,1e-05,2.9999999999999997e-05,4e-05,-5.9999999999999995e-05,1e-05,-2e-05,-1e-05,5
20265,20920,0.0,1e-05,2.9999999999999997e-05,4e-05,-5.9999999999999995e-05,1e-05,-2e-05,-1e-05,5
20266,20921,-7e-05,-8e-05,-0.00021,-0.00021,0.0001,-5e-05,-2e-05,-2.9999999999999997e-05,5
20267,20922,-0.0001,-8e-05,-0.00011999999999999999,-0.0002,-0.00018,-5e-05,-1e-05,-2e-05,5
20268,20923,-0.0001,-8e-05,-0.00011999999999999999,-0.0002,-0.00018,-5e-05,-1e-05,-2e-05,5
20269,20924,-0.0001,-8e-05,-0.00011999999999999999,-0.0002,-0.00018,-5e-05,-1e-05,-2e-05,5
20270,20925,-0.0001,-8e-05,-0.00011999999999999999,-0.0002,-0.00018,-5e-05,-1e-05,-2e-05,5
20271,20926,-0.0001,-8e-05,-0.00011999999999999999,-0.0002,-0.00018,-5e-05,-1e-05,-2e-05,5
20272,20927,-0.0001,-8e-05,-0.00011999999999999999,-0.0002,-0.00018,-5e-05,-1e-05,-2e-05,5
20273,20928,-0.0001,-8e-05,-0.00011999999999999999,-0.0002,-0.00018,-5e-05,-1e-05,-2e-05,5
20274,20929,-0.0001,-8e-05,-0.00011999999999999999,-0.0002,-0.00018,-5e-05,-1e-05,-2e-05,5
20275,20930,-0.0001,-8e-05,-0.00011999999999999999,-0.0002,-0.00018,-5e-05,-1e-05,-2e-05,5
20276,20931,-0.0001,-8e-05,-0.00011999999999999999,-0.0002,-0.00018,-5e-05,-1e-05,-2e-05,5
20277,20932,-0.0001,-8e-05,-0.00011999999999999999,-0.0002,-0.00018,-5e-05,-1e-05,-2e-05,5
20278,20933,-0.0001,-8e-05,-0.00011999999999999999,-0.0002,-0.00018,-5e-05,-1e-05,-2e-05,5
20279,20934,-0.0001,-8e-05,-0.00011999999999999999,-0.0002,-0.00018,-5e-05,-1e-05,-2e-05,5
20280,20935,-2.9999999999999997e-05,1e-05,5e-05,-0.00013000000000000002,0.0002,4e-05,-2.9999999999999997e-05,0.0,5
20281,20936,-2.9999999999999997e-05,1e-05,5e-05,-0.00013000000000000002,0.0002,4e-05,-2.9999999999999997e-05,0.0,5
20282,20938,-2.9999999999999997e-05,1e-05,5e-05,-0.00013000000000000002,0.0002,4e-05,-2.9999999999999997e-05,0.0,5
20283,20939,-2.9999999999999997e-05,1e-05,5e-05,-0.00013000000000000002,0.0002,4e-05,-2.9999999999999997e-05,0.0,5
20284,20940,-2.9999999999999997e-05,1e-05,5e-05,-0.00013000000000000002,0.0002,4e-05,-2.9999999999999997e-05,0.0,5
20285,20941,-2.9999999999999997e-05,1e-05,5e-05,-0.00013000000000000002,0.0002,4e-05,-2.9999999999999997e-05,0.0,5
20286,20942,5e-05,5e-05,5e-05,0.0002,-0.00016999999999999999,-4e-05,0.0,0.0,5
20287,20943,5e-05,5e-05,5e-05,0.0002,-0.00016999999999999999,-4e-05,0.0,0.0,5
20288,20944,5e-05,5e-05,5e-05,0.0002,-0.00016999999999999999,-4e-05,0.0,0.0,5
20289,20945,5e-05,5e-05,5e-05,0.0002,-0.00016999999999999999,-4e-05,0.0,0.0,5
20290,20946,5e-05,5e-05,5e-05,0.0002,-0.00016999999999999999,-4e-05,0.0,0.0,5
20291,20947,5e-05,5e-05,5e-05,0.0002,-0.00016999999999999999,-4e-05,0.0,0.0,5
20292,20948,5e-05,5e-05,5e-05,0.0002,-0.00016999999999999999,-4e-05,0.0,0.0,5
20293,20949,5e-05,5e-05,5e-05,0.0002,-0.00016999999999999999,-4e-05,0.0,0.0,5
20294,20950,5e-05,5e-05,5e-05,0.0002,-0.00016999999999999999,-4e-05,0.0,0.0,5
20295,20951,5e-05,5e-05,5e-05,0.0002,-0.00016999999999999999,-4e-05,0.0,0.0,5
20296,20952,5e-05,5e-05,5e-05,0.0002,-0.00016999999999999999,-4e-05,0.0,0.0,5
20297,20953,5e-05,5e-05,5e-05,0.0002,-0.00016999999999999999,-4e-05,0.0,0.0,5
20298,20954,5e-05,5e-05,5e-05,0.0002,-0.00016999999999999999,-4e-05,0.0,0.0,5
20299,20955,5e-05,5e-05,5e-05,0.0002,-0.00016999999999999999,-4e-05,0.0,0.0,5
20300,20956,5e-05,5e-05,5e-05,0.0002,-0.00016999999999999999,-4e-05,0.0,0.0,5
20301,20957,5e-05,5e-05,5e-05,0.0002,-0.00016999999999999999,-4e-05,0.0,0.0,5
20302,20958,-5e-05,-0.00013000000000000002,-0.00021,-0.0004,-0.0005,-5.9999999999999995e-05,-1e-05,-1e-05,5
20303,20959,-5e-05,-0.00013000000000000002,-0.00021,-0.0004,-0.0005,-5.9999999999999995e-05,-1e-05,-1e-05,5
20304,20960,0.0,2e-05,-5.9999999999999995e-05,-0.00015,0.00011999999999999999,1e-05,0.0,-1e-05,5
20305,20961,0.0,2e-05,-5.9999999999999995e-05,-0.00015,0.00011999999999999999,1e-05,0.0,-1e-05,5
20306,20962,0.0,2e-05,-5.9999999999999995e-05,-0.00015,0.00011999999999999999,1e-05,0.0,-1e-05,5
20307,20963,0.0,2e-05,-5.9999999999999995e-05,-0.00015,0.00011999999999999999,1e-05,0.0,-1e-05,5
20308,20964,0.0,2e-05,-5.9999999999999995e-05,-0.00015,0.00011999999999999999,1e-05,0.0,-1e-05,5
20309,20965,0.0,2e-05,-5.9999999999999995e-05,-0.00015,0.00011999999999999999,1e-05,0.0,-1e-05,5
20310,20966,0.0,2e-05,-5.9999999999999995e-05,-0.00015,0.00011999999999999999,1e-05,0.0,-1e-05,5
20311,20967,0.0,2e-05,-5.9999999999999995e-05,-0.00015,0.00011999999999999999,1e-05,0.0,-1e-05,5
20312,20968,0.0,2e-05,-5.9999999999999995e-05,-0.00015,0.00011999999999999999,1e-05,0.0,-1e-05,5
20313,20969,0.0,2e-05,-5.9999999999999995e-05,-0.00015,0.00011999999999999999,1e-05,0.0,-1e-05,5
20314,20970,0.0,2e-05,-5.9999999999999995e-05,-0.00015,0.00011999999999999999,1e-05,0.0,-1e-05,5
20315,20971,0.0,2e-05,-5.9999999999999995e-05,-0.00015,0.00011999999999999999,1e-05,0.0,-1e-05,5
20316,20972,0.0,2e-05,-5.9999999999999995e-05,-0.00015,0.00011999999999999999,1e-05,0.0,-1e-05,5
20317,20973,0.0,2e-05,-5.9999999999999995e-05,-0.00015,0.00011999999999999999,1e-05,0.0,-1e-05,5
20318,20974,0.0,2e-05,-5.9999999999999995e-05,-0.00015,0.00011999999999999999,1e-05,0.0,-1e-05,5
20319,20975,0.0,2e-05,-5.9999999999999995e-05,-0.00015,0.00011999999999999999,1e-05,0.0,-1e-05,5
20320,20976,0.0,2e-05,-5.9999999999999995e-05,-0.00015,0.00011999999999999999,1e-05,0.0,-1e-05,5
20321,20977,0.0,2e-05,-5.9999999999999995e-05,-0.00015,0.00011999999999999999,1e-05,0.0,-1e-05,5
20322,20978,0.0,2e-05,-5.9999999999999995e-05,-0.00015,0.00011999999999999999,1e-05,0.0,-1e-05,5
20323,20979,0.0,2e-05,-5.9999999999999995e-05,-0.00015,0.00011999999999999999,1e-05,0.0,-1e-05,5
20324,20980,0.0,2e-05,-5.9999999999999995e-05,-0.00015,0.00011999999999999999,1e-05,0.0,-1e-05,5
20325,20981,-1e-05,0.0001,0.00018,0.00016,-2.9999999999999997e-05,1e-05,-2e-05,-1e-05,5
20326,20982,-1e-05,0.0001,0.00018,0.00016,-2.9999999999999997e-05,1e-05,-2e-05,-1e-05,5
20327,20983,-4e-05,2.9999999999999997e-05,-1e-05,1e-05,0.00027,1e-05,2.9999999999999997e-05,2e-05,5
20328,20984,-4e-05,2.9999999999999997e-05,-1e-05,1e-05,0.00027,1e-05,2.9999999999999997e-05,2e-05,5
20329,20985,-4e-05,2.9999999999999997e-05,-1e-05,1e-05,0.00027,1e-05,2.9999999999999997e-05,2e-05,5
20330,20986,-4e-05,2.9999999999999997e-05,-1e-05,1e-05,0.00027,1e-05,2.9999999999999997e-05,2e-05,5
20331,20988,-4e-05,2.9999999999999997e-05,-1e-05,1e-05,0.00027,1e-05,2.9999999999999997e-05,2e-05,5
20332,20989,-4e-05,2.9999999999999997e-05,-1e-05,1e-05,0.00027,1e-05,2.9999999999999997e-05,2e-05,5
20333,20990,-4e-05,2.9999999999999997e-05,-1e-05,1e-05,0.00027,1e-05,2.9999999999999997e-05,2e-05,5
20334,20991,-4e-05,2.9999999999999997e-05,-1e-05,1e-05,0.00027,1e-05,2.9999999999999997e-05,2e-05,5
20335,20992,-4e-05,2.9999999999999997e-05,-1e-05,1e-05,0.00027,1e-05,2.9999999999999997e-05,2e-05,5
20336,20993,-4e-05,2.9999999999999997e-05,-1e-05,1e-05,0.00027,1e-05,2.9999999999999997e-05,2e-05,5
20337,20994,-4e-05,2.9999999999999997e-05,-1e-05,1e-05,0.00027,1e-05,2.9999999999999997e-05,2e-05,5
20338,20995,0.0,0.0,4e-05,-0.00016999999999999999,-0.00042,-5e-05,0.0,1e-05,5
20339,20996,0.0,0.0,4e-05,-0.00016999999999999999,-0.00042,-5e-05,0.0,1e-05,5
20340,20997,0.0,0.0,4e-05,-0.00016999999999999999,-0.00042,-5e-05,0.0,1e-05,5
20341,20998,0.0,0.0,4e-05,-0.00016999999999999999,-0.00042,-5e-05,0.0,1e-05,5
20342,20999,0.0,0.0,4e-05,-0.00016999999999999999,-0.00042,-5e-05,0.0,1e-05,5
20343,21000,0.0,0.0,4e-05,-0.00016999999999999999,-0.00042,-5e-05,0.0,1e-05,5
20344,21001,0.0,0.0,4e-05,-0.00016999999999999999,-0.00042,-5e-05,0.0,1e-05,5
20345,21002,0.0,0.0,4e-05,-0.00016999999999999999,-0.00042,-5e-05,0.0,1e-05,5
20346,21003,0.0,0.0,4e-05,-0.00016999999999999999,-0.00042,-5e-05,0.0,1e-05,5
20347,21004,0.0,0.0,4e-05,-0.00016999999999999999,-0.00042,-5e-05,0.0,1e-05,5
20348,21005,0.0,0.0,4e-05,-0.00016999999999999999,-0.00042,-5e-05,0.0,1e-05,5
20349,21006,0.0,0.0,4e-05,-0.00016999999999999999,-0.00042,-5e-05,0.0,1e-05,5
20350,21007,0.0,0.0,4e-05,-0.00016999999999999999,-0.00042,-5e-05,0.0,1e-05,5
20351,21008,0.0,0.0,4e-05,-0.00016999999999999999,-0.00042,-5e-05,0.0,1e-05,5
20352,21009,2.9999999999999997e-05,-2e-05,2e-05,0.00033,0.00067,4e-05,0.0,-2e-05,5
20353,21010,2.9999999999999997e-05,-2e-05,2e-05,0.00033,0.00067,4e-05,0.0,-2e-05,5
20354,21011,2.9999999999999997e-05,-2e-05,2e-05,0.00033,0.00067,4e-05,0.0,-2e-05,5
20355,21012,2.9999999999999997e-05,-2e-05,2e-05,0.00033,0.00067,4e-05,0.0,-2e-05,5
20356,21013,2.9999999999999997e-05,-2e-05,2e-05,0.00033,0.00067,4e-05,0.0,-2e-05,5
20357,21014,2.9999999999999997e-05,-2e-05,2e-05,0.00033,0.00067,4e-05,0.0,-2e-05,5
20358,21015,2.9999999999999997e-05,-2e-05,2e-05,0.00033,0.00067,4e-05,0.0,-2e-05,5
20359,21016,2.9999999999999997e-05,-2e-05,2e-05,0.00033,0.00067,4e-05,0.0,-2e-05,5
20360,21017,2.9999999999999997e-05,-2e-05,2e-05,0.00033,0.00067,4e-05,0.0,-2e-05,5
20361,21018,2.9999999999999997e-05,8e-05,0.00014,0.0005,0.00011999999999999999,4e-05,-1e-05,-2e-05,5
20362,21019,2.9999999999999997e-05,8e-05,0.00014,0.0005,0.00011999999999999999,4e-05,-1e-05,-2e-05,5
20363,21020,0.0,2e-05,9e-05,-4e-05,-0.00023999999999999998,-0.0001,-2e-05,-1e-05,5
20364,21021,0.0,2e-05,9e-05,-4e-05,-0.00023999999999999998,-0.0001,-2e-05,-1e-05,5
20365,21022,0.0,2e-05,9e-05,-4e-05,-0.00023999999999999998,-0.0001,-2e-05,-1e-05,5
20366,21023,0.0,2e-05,9e-05,-4e-05,-0.00023999999999999998,-0.0001,-2e-05,-1e-05,5
20367,21024,0.0,2e-05,9e-05,-4e-05,-0.00023999999999999998,-0.0001,-2e-05,-1e-05,5
20368,21025,0.0,2e-05,9e-05,-4e-05,-0.00023999999999999998,-0.0001,-2e-05,-1e-05,5
20369,21026,0.0,2e-05,9e-05,-4e-05,-0.00023999999999999998,-0.0001,-2e-05,-1e-05,5
20370,21027,0.0,2e-05,9e-05,-4e-05,-0.00023999999999999998,-0.0001,-2e-05,-1e-05,5
20371,21028,0.0,2e-05,9e-05,-4e-05,-0.00023999999999999998,-0.0001,-2e-05,-1e-05,5
20372,21029,0.0,2e-05,9e-05,-4e-05,-0.00023999999999999998,-0.0001,-2e-05,-1e-05,5
20373,21030,0.0,2e-05,9e-05,-4e-05,-0.00023999999999999998,-0.0001,-2e-05,-1e-05,5
20374,21031,0.0,2e-05,9e-05,-4e-05,-0.00023999999999999998,-0.0001,-2e-05,-1e-05,5
20375,21032,0.0,2e-05,9e-05,-4e-05,-0.00023999999999999998,-0.0001,-2e-05,-1e-05,5
20376,21033,0.0,2e-05,9e-05,-4e-05,-0.00023999999999999998,-0.0001,-2e-05,-1e-05,5
20377,21034,0.0,2e-05,9e-05,-4e-05,-0.00023999999999999998,-0.0001,-2e-05,-1e-05,5
20378,21035,0.0,2e-05,9e-05,-4e-05,-0.00023999999999999998,-0.0001,-2e-05,-1e-05,5
20379,21036,0.0,2e-05,9e-05,-4e-05,-0.00023999999999999998,-0.0001,-2e-05,-1e-05,5
20380,21039,0.0,2e-05,9e-05,-4e-05,-0.00023999999999999998,-0.0001,-2e-05,-1e-05,5
20381,21040,0.0,2e-05,9e-05,-4e-05,-0.00023999999999999998,-0.0001,-2e-05,-1e-05,5
20382,21041,0.0,-7e-05,-0.00016999999999999999,2e-05,5.9999999999999995e-05,-8e-05,-5.9999999999999995e-05,-4e-05,5
20383,21042,1e-05,0.0,2e-05,0.00023999999999999998,0.00085,0.00014,-1e-05,-1e-05,5
20384,21043,1e-05,0.0,2e-05,0.00023999999999999998,0.00085,0.00014,-1e-05,-1e-05,5
20385,21044,1e-05,0.0,2e-05,0.00023999999999999998,0.00085,0.00014,-1e-05,-1e-05,5
20386,21045,1e-05,0.0,2e-05,0.00023999999999999998,0.00085,0.00014,-1e-05,-1e-05,5
20387,21046,1e-05,0.0,2e-05,0.00023999999999999998,0.00085,0.00014,-1e-05,-1e-05,5
20388,21047,1e-05,0.0,2e-05,0.00023999999999999998,0.00085,0.00014,-1e-05,-1e-05,5
20389,21048,1e-05,0.0,2e-05,0.00023999999999999998,0.00085,0.00014,-1e-05,-1e-05,5
20390,21049,1e-05,0.0,2e-05,0.00023999999999999998,0.00085,0.00014,-1e-05,-1e-05,5
20391,21050,1e-05,0.0,2e-05,0.00023999999999999998,0.00085,0.00014,-1e-05,-1e-05,5
20392,21051,1e-05,0.0,2e-05,0.00023999999999999998,0.00085,0.00014,-1e-05,-1e-05,5
20393,21052,1e-05,0.0,2e-05,0.00023999999999999998,0.00085,0.00014,-1e-05,-1e-05,5
20394,21053,1e-05,0.0,2e-05,0.00023999999999999998,0.00085,0.00014,-1e-05,-1e-05,5
20395,21054,1e-05,0.0,2e-05,0.00023999999999999998,0.00085,0.00014,-1e-05,-1e-05,5
20396,21055,1e-05,0.0,2e-05,0.00023999999999999998,0.00085,0.00014,-1e-05,-1e-05,5
20397,21056,1e-05,0.0,2e-05,0.00023999999999999998,0.00085,0.00014,-1e-05,-1e-05,5
20398,21057,1e-05,0.0,2e-05,0.00023999999999999998,0.00085,0.00014,-1e-05,-1e-05,5
20399,21058,1e-05,0.0,2e-05,0.00023999999999999998,0.00085,0.00014,-1e-05,-1e-05,5
20400,21059,1e-05,0.0,2e-05,0.00023999999999999998,0.00085,0.00014,-1e-05,-1e-05,5
20401,21060,1e-05,0.0,2e-05,0.00023999999999999998,0.00085,0.00014,-1e-05,-1e-05,5
20402,21061,1e-05,0.0,2e-05,0.00023999999999999998,0.00085,0.00014,-1e-05,-1e-05,5
20403,21062,1e-05,0.0,2e-05,0.00023999999999999998,0.00085,0.00014,-1e-05,-1e-05,5
20404,21063,0.0,5.9999999999999995e-05,5e-05,-8e-05,-0.00016999999999999999,0.0001,2e-05,0.0,5
20405,21064,0.0,5.9999999999999995e-05,5e-05,-8e-05,-0.00016999999999999999,0.0001,2e-05,0.0,5
20406,21065,-0.00021,-9e-05,4e-05,-1e-05,0.00021,0.0,2e-05,1e-05,5
20407,21066,-0.00021,-9e-05,4e-05,-1e-05,0.00021,0.0,2e-05,1e-05,5
20408,21067,-0.00021,-9e-05,4e-05,-1e-05,0.00021,0.0,2e-05,1e-05,5
