,time,channel1,channel2,channel3,channel4,channel5,channel6,channel7,channel8,class
23395,24551,9e-05,0.00011,2e-05,0.00073,-8e-05,-0.00013000000000000002,-4e-05,1e-05,5
23396,24552,9e-05,0.00011,2e-05,0.00073,-8e-05,-0.00013000000000000002,-4e-05,1e-05,5
23397,24553,9e-05,0.00011,2e-05,0.00073,-8e-05,-0.00013000000000000002,-4e-05,1e-05,5
23398,24554,9e-05,0.00011,2e-05,0.00073,-8e-05,-0.00013000000000000002,-4e-05,1e-05,5
23399,24555,9e-05,0.00011,2e-05,0.00073,-8e-05,-0.00013000000000000002,-4e-05,1e-05,5
23400,24556,9e-05,0.00011,2e-05,0.00073,-8e-05,-0.00013000000000000002,-4e-05,1e-05,5
23401,24557,9e-05,0.00011,2e-05,0.00073,-8e-05,-0.00013000000000000002,-4e-05,1e-05,5
23402,24558,9e-05,0.00011,2e-05,0.00073,-8e-05,-0.00013000000000000002,-4e-05,1e-05,5
23403,24559,9e-05,0.00011,2e-05,0.00073,-8e-05,-0.00013000000000000002,-4e-05,1e-05,5
23404,24560,9e-05,0.00011,2e-05,0.00073,-8e-05,-0.00013000000000000002,-4e-05,1e-05,5
23405,24561,9e-05,0.00011,2e-05,0.00073,-8e-05,-0.00013000000000000002,-4e-05,1e-05,5
23406,24562,-0.00043,-1e-05,0.00018,0.00044,-0.00043,-8e-05,-2.9999999999999997e-05,-8e-05,5
23407,24563,-0.00043,-1e-05,0.00018,0.00044,-0.00043,-8e-05,-2.9999999999999997e-05,-8e-05,5
23408,24564,-0.0002,-0.00011,-5e-05,-0.0004,-0.00039,2e-05,2e-05,1e-05,5
23409,24565,-0.0002,-0.00011,-5e-05,-0.0004,-0.00039,2e-05,2e-05,1e-05,5
23410,24566,-0.0002,-0.00011,-5e-05,-0.0004,-0.00039,2e-05,2e-05,1e-05,5
23411,24567,-0.0002,-0.00011,-5e-05,-0.0004,-0.00039,2e-05,2e-05,1e-05,5
23412,24568,-0.0002,-0.00011,-5e-05,-0.0004,-0.00039,2e-05,2e-05,1e-05,5
23413,24569,-0.0002,-0.00011,-5e-05,-0.0004,-0.00039,2e-05,2e-05,1e-05,5
23414,24570,-0.0002,-0.00011,-5e-05,-0.0004,-0.00039,2e-05,2e-05,1e-05,5
23415,24571,-0.0002,-0.00011,-5e-05,-0.0004,-0.00039,2e-05,2e-05,1e-05,5
23416,24572,-0.0002,-0.00011,-5e-05,-0.0004,-0.00039,2e-05,2e-05,1e-05,5
23417,24573,-0.0002,-0.00011,-5e-05,-0.0004,-0.00039,2e-05,2e-05,1e-05,5
23418,24574,-0.0002,-0.00011,-5e-05,-0.0004,-0.00039,2e-05,2e-05,1e-05,5
23419,24575,-0.0002,-0.00011,-5e-05,-0.0004,-0.00039,2e-05,2e-05,1e-05,5
23420,24576,-0.0002,-0.00011,-5e-05,-0.0004,-0.00039,2e-05,2e-05,1e-05,5
23421,24577,-0.00016999999999999999,-4e-05,0.0001,8e-05,0.0004,5.9999999999999995e-05,0.0,-2e-05,5
23422,24578,-0.00016999999999999999,-4e-05,0.0001,8e-05,0.0004,5.9999999999999995e-05,0.0,-2e-05,5
23423,24579,-0.00011,0.00014,0.00037999999999999997,0.00037999999999999997,-0.00023999999999999998,-2e-05,0.0,1e-05,5
23424,24580,-0.00011,0.00014,0.00037999999999999997,0.00037999999999999997,-0.00023999999999999998,-2e-05,0.0,1e-05,5
23425,24581,-0.00011,0.00014,0.00037999999999999997,0.00037999999999999997,-0.00023999999999999998,-2e-05,0.0,1e-05,5
23426,24582,-0.00011,0.00014,0.00037999999999999997,0.00037999999999999997,-0.00023999999999999998,-2e-05,0.0,1e-05,5
23427,24583,-0.00011,0.00014,0.00037999999999999997,0.00037999999999999997,-0.00023999999999999998,-2e-05,0.0,1e-05,5
23428,24584,-0.00011,0.00014,0.00037999999999999997,0.00037999999999999997,-0.00023999999999999998,-2e-05,0.0,1e-05,5
23429,24585,-0.00011,0.00014,0.00037999999999999997,0.00037999999999999997,-0.00023999999999999998,-2e-05,0.0,1e-05,5
23430,24587,-0.00011,0.00014,0.00037999999999999997,0.00037999999999999997,-0.00023999999999999998,-2e-05,0.0,1e-05,5
23431,24589,-0.00011,0.00014,0.00037999999999999997,0.00037999999999999997,-0.00023999999999999998,-2e-05,0.0,1e-05,5
23432,24590,-0.00011,0.00014,0.00037999999999999997,0.00037999999999999997,-0.00023999999999999998,-2e-05,0.0,1e-05,5
23433,24591,-0.00011,0.00014,0.00037999999999999997,0.00037999999999999997,-0.00023999999999999998,-2e-05,0.0,1e-05,5
23434,24592,-0.00011,0.00014,0.00037999999999999997,0.00037999999999999997,-0.00023999999999999998,-2e-05,0.0,1e-05,5
23435,24593,-0.00011,0.00014,0.00037999999999999997,0.00037999999999999997,-0.00023999999999999998,-2e-05,0.0,1e-05,5
23436,24594,-0.00011,0.00014,0.00037999999999999997,0.00037999999999999997,-0.00023999999999999998,-2e-05,0.0,1e-05,5
23437,24595,-0.00011,0.00014,0.00037999999999999997,0.00037999999999999997,-0.00023999999999999998,-2e-05,0.0,1e-05,5
23438,24596,-0.00011,0.00014,0.00037999999999999997,0.00037999999999999997,-0.00023999999999999998,-2e-05,0.0,1e-05,5
23439,24597,-0.00011,0.00014,0.00037999999999999997,0.00037999999999999997,-0.00023999999999999998,-2e-05,0.0,1e-05,5
23440,24598,-0.00011,0.00014,0.00037999999999999997,0.00037999999999999997,-0.00023999999999999998,-2e-05,0.0,1e-05,5
23441,24599,-0.00011,0.00014,0.00037999999999999997,0.00037999999999999997,-0.00023999999999999998,-2e-05,0.0,1e-05,5
23442,24600,0.00013000000000000002,-7e-05,-0.00026000000000000003,-0.00101,4e-05,-2.9999999999999997e-05,-1e-05,-1e-05,5
23443,24601,0.00018999999999999998,0.0,-0.00023999999999999998,-0.00049,-0.00022999999999999998,-0.00011999999999999999,-2e-05,0.0,5
23444,24602,2.9999999999999997e-05,-5.9999999999999995e-05,0.00035,-5e-05,1e-05,-4e-05,-4e-05,-1e-05,5
23445,24603,2.9999999999999997e-05,-5.9999999999999995e-05,0.00035,-5e-05,1e-05,-4e-05,-4e-05,-1e-05,5
23446,24604,2.9999999999999997e-05,-5.9999999999999995e-05,0.00035,-5e-05,1e-05,-4e-05,-4e-05,-1e-05,5
23447,24605,2.9999999999999997e-05,-5.9999999999999995e-05,0.00035,-5e-05,1e-05,-4e-05,-4e-05,-1e-05,5
23448,24606,2.9999999999999997e-05,-5.9999999999999995e-05,0.00035,-5e-05,1e-05,-4e-05,-4e-05,-1e-05,5
23449,24607,2.9999999999999997e-05,-5.9999999999999995e-05,0.00035,-5e-05,1e-05,-4e-05,-4e-05,-1e-05,5
23450,24608,2.9999999999999997e-05,-5.9999999999999995e-05,0.00035,-5e-05,1e-05,-4e-05,-4e-05,-1e-05,5
23451,24609,2.9999999999999997e-05,-5.9999999999999995e-05,0.00035,-5e-05,1e-05,-4e-05,-4e-05,-1e-05,5
23452,24610,2.9999999999999997e-05,-5.9999999999999995e-05,0.00035,-5e-05,1e-05,-4e-05,-4e-05,-1e-05,5
23453,24611,2.9999999999999997e-05,-5.9999999999999995e-05,0.00035,-5e-05,1e-05,-4e-05,-4e-05,-1e-05,5
23454,24612,2.9999999999999997e-05,-5.9999999999999995e-05,0.00035,-5e-05,1e-05,-4e-05,-4e-05,-1e-05,5
23455,24613,2.9999999999999997e-05,-5.9999999999999995e-05,0.00035,-5e-05,1e-05,-4e-05,-4e-05,-1e-05,5
23456,24614,2.9999999999999997e-05,-5.9999999999999995e-05,0.00035,-5e-05,1e-05,-4e-05,-4e-05,-1e-05,5
23457,24615,2.9999999999999997e-05,-5.9999999999999995e-05,0.00035,-5e-05,1e-05,-4e-05,-4e-05,-1e-05,5
23458,24616,2.9999999999999997e-05,-5.9999999999999995e-05,0.00035,-5e-05,1e-05,-4e-05,-4e-05,-1e-05,5
23459,24617,2.9999999999999997e-05,-5.9999999999999995e-05,0.00035,-5e-05,1e-05,-4e-05,-4e-05,-1e-05,5
23460,24618,2.9999999999999997e-05,-5.9999999999999995e-05,0.00035,-5e-05,1e-05,-4e-05,-4e-05,-1e-05,5
23461,24619,2.9999999999999997e-05,-5.9999999999999995e-05,0.00035,-5e-05,1e-05,-4e-05,-4e-05,-1e-05,5
23462,24620,2.9999999999999997e-05,-5.9999999999999995e-05,0.00035,-5e-05,1e-05,-4e-05,-4e-05,-1e-05,5
23463,24621,2.9999999999999997e-05,-5.9999999999999995e-05,0.00035,-5e-05,1e-05,-4e-05,-4e-05,-1e-05,5
23464,24622,0.0005,1e-05,0.00014,0.00053,-9e-05,2.9999999999999997e-05,-1e-05,0.0,5
23465,24623,0.0005,1e-05,0.00014,0.00053,-9e-05,2.9999999999999997e-05,-1e-05,0.0,5
23466,24624,5.9999999999999995e-05,-2.9999999999999997e-05,-7e-05,0.00022,0.00028,-1e-05,-2.9999999999999997e-05,-2.9999999999999997e-05,5
23467,24625,5.9999999999999995e-05,-2.9999999999999997e-05,-7e-05,0.00022,0.00028,-1e-05,-2.9999999999999997e-05,-2.9999999999999997e-05,5
23468,24626,5.9999999999999995e-05,-2.9999999999999997e-05,-7e-05,0.00022,0.00028,-1e-05,-2.9999999999999997e-05,-2.9999999999999997e-05,5
23469,24627,5.9999999999999995e-05,-2.9999999999999997e-05,-7e-05,0.00022,0.00028,-1e-05,-2.9999999999999997e-05,-2.9999999999999997e-05,5
23470,24628,5.9999999999999995e-05,-2.9999999999999997e-05,-7e-05,0.00022,0.00028,-1e-05,-2.9999999999999997e-05,-2.9999999999999997e-05,5
23471,24629,5.9999999999999995e-05,-2.9999999999999997e-05,-7e-05,0.00022,0.00028,-1e-05,-2.9999999999999997e-05,-2.9999999999999997e-05,5
23472,24630,5.9999999999999995e-05,-2.9999999999999997e-05,-7e-05,0.00022,0.00028,-1e-05,-2.9999999999999997e-05,-2.9999999999999997e-05,5
23473,24631,5.9999999999999995e-05,-2.9999999999999997e-05,-7e-05,0.00022,0.00028,-1e-05,-2.9999999999999997e-05,-2.9999999999999997e-05,5
23474,24632,5.9999999999999995e-05,-2.9999999999999997e-05,-7e-05,0.00022,0.00028,-1e-05,-2.9999999999999997e-05,-2.9999999999999997e-05,5
23475,24633,5.9999999999999995e-05,-2.9999999999999997e-05,-7e-05,0.00022,0.00028,-1e-05,-2.9999999999999997e-05,-2.9999999999999997e-05,5
23476,24634,5.9999999999999995e-05,-2.9999999999999997e-05,-7e-05,0.00022,0.00028,-1e-05,-2.9999999999999997e-05,-2.9999999999999997e-05,5
23477,24635,5.9999999999999995e-05,-2.9999999999999997e-05,-7e-05,0.00022,0.00028,-1e-05,-2.9999999999999997e-05,-2.9999999999999997e-05,5
23478,24637,0.00011,-4e-05,2e-05,0.00033999999999999997,7e-05,-5e-05,-5.9999999999999995e-05,-2e-05,5
23479,24639,0.00011,-4e-05,2e-05,0.00033999999999999997,7e-05,-5e-05,-5.9999999999999995e-05,-2e-05,5
23480,24640,0.00011,-4e-05,2e-05,0.00033999999999999997,7e-05,-5e-05,-5.9999999999999995e-05,-2e-05,5
23481,24641,0.00011,-4e-05,2e-05,0.00033999999999999997,7e-05,-5e-05,-5.9999999999999995e-05,-2e-05,5
23482,24642,0.00011,-4e-05,2e-05,0.00033999999999999997,7e-05,-5e-05,-5.9999999999999995e-05,-2e-05,5
23483,24643,0.00011,-4e-05,2e-05,0.00033999999999999997,7e-05,-5e-05,-5.9999999999999995e-05,-2e-05,5
23484,24644,-0.00045,-5.9999999999999995e-05,-7e-05,-2e-05,-0.00015,-2.9999999999999997e-05,-4e-05,-5e-05,5
23485,24645,-0.00045,-5.9999999999999995e-05,-7e-05,-2e-05,-0.00015,-2.9999999999999997e-05,-4e-05,-5e-05,5
23486,24646,-0.00045,-5.9999999999999995e-05,-7e-05,-2e-05,-0.00015,-2.9999999999999997e-05,-4e-05,-5e-05,5
23487,24647,-0.00045,-5.9999999999999995e-05,-7e-05,-2e-05,-0.00015,-2.9999999999999997e-05,-4e-05,-5e-05,5
23488,24648,-0.00045,-5.9999999999999995e-05,-7e-05,-2e-05,-0.00015,-2.9999999999999997e-05,-4e-05,-5e-05,5
23489,24649,-0.00045,-5.9999999999999995e-05,-7e-05,-2e-05,-0.00015,-2.9999999999999997e-05,-4e-05,-5e-05,5
23490,24650,-0.00045,-5.9999999999999995e-05,-7e-05,-2e-05,-0.00015,-2.9999999999999997e-05,-4e-05,-5e-05,5
23491,24651,-0.00045,-5.9999999999999995e-05,-7e-05,-2e-05,-0.00015,-2.9999999999999997e-05,-4e-05,-5e-05,5
23492,24652,-0.00045,-5.9999999999999995e-05,-7e-05,-2e-05,-0.00015,-2.9999999999999997e-05,-4e-05,-5e-05,5
23493,24653,-0.00045,-5.9999999999999995e-05,-7e-05,-2e-05,-0.00015,-2.9999999999999997e-05,-4e-05,-5e-05,5
23494,24654,-0.00045,-5.9999999999999995e-05,-7e-05,-2e-05,-0.00015,-2.9999999999999997e-05,-4e-05,-5e-05,5
23495,24655,-0.00045,-5.9999999999999995e-05,-7e-05,-2e-05,-0.00015,-2.9999999999999997e-05,-4e-05,-5e-05,5
23496,24656,-0.00045,-5.9999999999999995e-05,-7e-05,-2e-05,-0.00015,-2.9999999999999997e-05,-4e-05,-5e-05,5
23497,24657,-0.00045,-5.9999999999999995e-05,-7e-05,-2e-05,-0.00015,-2.9999999999999997e-05,-4e-05,-5e-05,5
23498,24658,-0.00045,-5.9999999999999995e-05,-7e-05,-2e-05,-0.00015,-2.9999999999999997e-05,-4e-05,-5e-05,5
23499,24659,-0.00045,-5.9999999999999995e-05,-7e-05,-2e-05,-0.00015,-2.9999999999999997e-05,-4e-05,-5e-05,5
23500,24660,-9e-05,-5.9999999999999995e-05,-0.0001,-0.00128,0.0001,0.0001,5.9999999999999995e-05,1e-05,5
23501,24661,-7e-05,-4e-05,0.00016999999999999999,-0.00018999999999999998,0.00025,0.00016999999999999999,1e-05,-2.9999999999999997e-05,5
23502,24662,-7e-05,-4e-05,0.00016999999999999999,-0.00018999999999999998,0.00025,0.00016999999999999999,1e-05,-2.9999999999999997e-05,5
23503,24663,-7e-05,-4e-05,0.00016999999999999999,-0.00018999999999999998,0.00025,0.00016999999999999999,1e-05,-2.9999999999999997e-05,5
23504,24664,-7e-05,-4e-05,0.00016999999999999999,-0.00018999999999999998,0.00025,0.00016999999999999999,1e-05,-2.9999999999999997e-05,5
23505,24665,-7e-05,-4e-05,0.00016999999999999999,-0.00018999999999999998,0.00025,0.00016999999999999999,1e-05,-2.9999999999999997e-05,5
23506,24666,-7e-05,-4e-05,0.00016999999999999999,-0.00018999999999999998,0.00025,0.00016999999999999999,1e-05,-2.9999999999999997e-05,5
23507,24667,-7e-05,-4e-05,0.00016999999999999999,-0.00018999999999999998,0.00025,0.00016999999999999999,1e-05,-2.9999999999999997e-05,5
23508,24668,-7e-05,-4e-05,0.00016999999999999999,-0.00018999999999999998,0.00025,0.00016999999999999999,1e-05,-2.9999999999999997e-05,5
23509,24669,-7e-05,-4e-05,0.00016999999999999999,-0.00018999999999999998,0.00025,0.00016999999999999999,1e-05,-2.9999999999999997e-05,5
23510,24670,-7e-05,-4e-05,0.00016999999999999999,-0.00018999999999999998,0.00025,0.00016999999999999999,1e-05,-2.9999999999999997e-05,5
23511,24671,-7e-05,-4e-05,0.00016999999999999999,-0.00018999999999999998,0.00025,0.00016999999999999999,1e-05,-2.9999999999999997e-05,5
23512,24672,-7e-05,-4e-05,0.00016999999999999999,-0.00018999999999999998,0.00025,0.00016999999999999999,1e-05,-2.9999999999999997e-05,5
23513,24673,-7e-05,-4e-05,0.00016999999999999999,-0.00018999999999999998,0.00025,0.00016999999999999999,1e-05,-2.9999999999999997e-05,5
23514,24674,-7e-05,-4e-05,0.00016999999999999999,-0.00018999999999999998,0.00025,0.00016999999999999999,1e-05,-2.9999999999999997e-05,5
23515,24675,-7e-05,-4e-05,0.00016999999999999999,-0.00018999999999999998,0.00025,0.00016999999999999999,1e-05,-2.9999999999999997e-05,5
23516,24676,-7e-05,-4e-05,0.00016999999999999999,-0.00018999999999999998,0.00025,0.00016999999999999999,1e-05,-2.9999999999999997e-05,5
23517,24677,-7e-05,-4e-05,0.00016999999999999999,-0.00018999999999999998,0.00025,0.00016999999999999999,1e-05,-2.9999999999999997e-05,5
23518,24678,-7e-05,-4e-05,0.00016999999999999999,-0.00018999999999999998,0.00025,0.00016999999999999999,1e-05,-2.9999999999999997e-05,5
23519,24679,-7e-05,-4e-05,0.00016999999999999999,-0.00018999999999999998,0.00025,0.00016999999999999999,1e-05,-2.9999999999999997e-05,5
23520,24680,-7e-05,-4e-05,0.00016999999999999999,-0.00018999999999999998,0.00025,0.00016999999999999999,1e-05,-2.9999999999999997e-05,5
23521,24681,-7e-05,-4e-05,0.00016999999999999999,-0.00018999999999999998,0.00025,0.00016999999999999999,1e-05,-2.9999999999999997e-05,5
23522,24682,-0.0002,-9e-05,-9e-05,-0.00086,0.0003,-9e-05,-4e-05,0.0,5
23523,24683,-0.0002,-9e-05,-9e-05,-0.00086,0.0003,-9e-05,-4e-05,0.0,5
23524,24684,9e-05,1e-05,2.9999999999999997e-05,0.00042,2.9999999999999997e-05,-7e-05,-2e-05,0.0,5
23525,24685,9e-05,1e-05,2.9999999999999997e-05,0.00042,2.9999999999999997e-05,-7e-05,-2e-05,0.0,5
23526,24687,9e-05,1e-05,2.9999999999999997e-05,0.00042,2.9999999999999997e-05,-7e-05,-2e-05,0.0,5
23527,24689,9e-05,1e-05,2.9999999999999997e-05,0.00042,2.9999999999999997e-05,-7e-05,-2e-05,0.0,5
23528,24690,9e-05,1e-05,2.9999999999999997e-05,0.00042,2.9999999999999997e-05,-7e-05,-2e-05,0.0,5
23529,24691,9e-05,1e-05,2.9999999999999997e-05,0.00042,2.9999999999999997e-05,-7e-05,-2e-05,0.0,5
23530,24692,9e-05,1e-05,2.9999999999999997e-05,0.00042,2.9999999999999997e-05,-7e-05,-2e-05,0.0,5
23531,24693,9e-05,1e-05,2.9999999999999997e-05,0.00042,2.9999999999999997e-05,-7e-05,-2e-05,0.0,5
23532,24694,9e-05,1e-05,2.9999999999999997e-05,0.00042,2.9999999999999997e-05,-7e-05,-2e-05,0.0,5
23533,24695,9e-05,1e-05,2.9999999999999997e-05,0.00042,2.9999999999999997e-05,-7e-05,-2e-05,0.0,5
23534,24696,9e-05,1e-05,2.9999999999999997e-05,0.00042,2.9999999999999997e-05,-7e-05,-2e-05,0.0,5
23535,24697,8e-05,-2.9999999999999997e-05,-8e-05,0.0009199999999999999,0.00032,-1e-05,-2e-05,4e-05,5
23536,24698,8e-05,-2.9999999999999997e-05,-8e-05,0.0009199999999999999,0.00032,-1e-05,-2e-05,4e-05,5
23537,24699,8e-05,-2.9999999999999997e-05,-8e-05,0.0009199999999999999,0.00032,-1e-05,-2e-05,4e-05,5
23538,24700,8e-05,-2.9999999999999997e-05,-8e-05,0.0009199999999999999,0.00032,-1e-05,-2e-05,4e-05,5
23539,24701,8e-05,-2.9999999999999997e-05,-8e-05,0.0009199999999999999,0.00032,-1e-05,-2e-05,4e-05,5
23540,24702,8e-05,-2.9999999999999997e-05,-8e-05,0.0009199999999999999,0.00032,-1e-05,-2e-05,4e-05,5
23541,24703,0.00015,-8e-05,0.00015,5.9999999999999995e-05,0.0008699999999999999,0.00028,4e-05,-2e-05,5
23542,24704,0.0,-0.00016,-0.00045999999999999996,-0.00086,-0.00065,-0.00013000000000000002,-4e-05,-1e-05,5
23543,24705,0.0,-0.00016,-0.00045999999999999996,-0.00086,-0.00065,-0.00013000000000000002,-4e-05,-1e-05,5
23544,24706,0.0,-0.00016,-0.00045999999999999996,-0.00086,-0.00065,-0.00013000000000000002,-4e-05,-1e-05,5
23545,24707,0.0,-0.00016,-0.00045999999999999996,-0.00086,-0.00065,-0.00013000000000000002,-4e-05,-1e-05,5
23546,24708,0.0,-0.00016,-0.00045999999999999996,-0.00086,-0.00065,-0.00013000000000000002,-4e-05,-1e-05,5
23547,24709,0.0,-0.00016,-0.00045999999999999996,-0.00086,-0.00065,-0.00013000000000000002,-4e-05,-1e-05,5
23548,24710,0.0,-0.00016,-0.00045999999999999996,-0.00086,-0.00065,-0.00013000000000000002,-4e-05,-1e-05,5
23549,24711,0.0,-0.00016,-0.00045999999999999996,-0.00086,-0.00065,-0.00013000000000000002,-4e-05,-1e-05,5
23550,24712,0.0,-0.00016,-0.00045999999999999996,-0.00086,-0.00065,-0.00013000000000000002,-4e-05,-1e-05,5
23551,24713,0.0,-0.00016,-0.00045999999999999996,-0.00086,-0.00065,-0.00013000000000000002,-4e-05,-1e-05,5
23552,24714,0.0,-0.00016,-0.00045999999999999996,-0.00086,-0.00065,-0.00013000000000000002,-4e-05,-1e-05,5
23553,24715,0.0,-0.00016,-0.00045999999999999996,-0.00086,-0.00065,-0.00013000000000000002,-4e-05,-1e-05,5
23554,24716,0.0,-0.00016,-0.00045999999999999996,-0.00086,-0.00065,-0.00013000000000000002,-4e-05,-1e-05,5
23555,24717,0.0,-0.00016,-0.00045999999999999996,-0.00086,-0.00065,-0.00013000000000000002,-4e-05,-1e-05,5
23556,24718,0.0,-0.00016,-0.00045999999999999996,-0.00086,-0.00065,-0.00013000000000000002,-4e-05,-1e-05,5
23557,24719,0.0,-0.00016,-0.00045999999999999996,-0.00086,-0.00065,-0.00013000000000000002,-4e-05,-1e-05,5
23558,24720,0.00044,0.00011999999999999999,-0.00015,-2.9999999999999997e-05,-0.00018999999999999998,-1e-05,4e-05,9e-05,5
23559,24721,-0.0003,1e-05,0.00033,-0.00026000000000000003,-0.00075,-5e-05,-1e-05,1e-05,5
23560,24722,-0.0001,-2.9999999999999997e-05,-1e-05,0.00075,0.00045,8e-05,2.9999999999999997e-05,-2.9999999999999997e-05,5
23561,24723,-0.0001,-2.9999999999999997e-05,-1e-05,0.00075,0.00045,8e-05,2.9999999999999997e-05,-2.9999999999999997e-05,5
23562,24724,-0.0001,-2.9999999999999997e-05,-1e-05,0.00075,0.00045,8e-05,2.9999999999999997e-05,-2.9999999999999997e-05,5
23563,24725,-0.0001,-2.9999999999999997e-05,-1e-05,0.00075,0.00045,8e-05,2.9999999999999997e-05,-2.9999999999999997e-05,5
23564,24726,-0.0001,-2.9999999999999997e-05,-1e-05,0.00075,0.00045,8e-05,2.9999999999999997e-05,-2.9999999999999997e-05,5
23565,24727,-0.0001,-2.9999999999999997e-05,-1e-05,0.00075,0.00045,8e-05,2.9999999999999997e-05,-2.9999999999999997e-05,5
23566,24728,-0.0001,-2.9999999999999997e-05,-1e-05,0.00075,0.00045,8e-05,2.9999999999999997e-05,-2.9999999999999997e-05,5
23567,24729,-0.0001,-2.9999999999999997e-05,-1e-05,0.00075,0.00045,8e-05,2.9999999999999997e-05,-2.9999999999999997e-05,5
23568,24730,-0.0001,-2.9999999999999997e-05,-1e-05,0.00075,0.00045,8e-05,2.9999999999999997e-05,-2.9999999999999997e-05,5
23569,24731,-0.0001,-2.9999999999999997e-05,-1e-05,0.00075,0.00045,8e-05,2.9999999999999997e-05,-2.9999999999999997e-05,5
23570,24732,-0.0001,-2.9999999999999997e-05,-1e-05,0.00075,0.00045,8e-05,2.9999999999999997e-05,-2.9999999999999997e-05,5
23571,24733,-0.0001,-2.9999999999999997e-05,-1e-05,0.00075,0.00045,8e-05,2.9999999999999997e-05,-2.9999999999999997e-05,5
23572,24734,-0.0001,-2.9999999999999997e-05,-1e-05,0.00075,0.00045,8e-05,2.9999999999999997e-05,-2.9999999999999997e-05,5
23573,24735,-0.0001,-2.9999999999999997e-05,-1e-05,0.00075,0.00045,8e-05,2.9999999999999997e-05,-2.9999999999999997e-05,5
23574,24737,-0.0001,-2.9999999999999997e-05,-1e-05,0.00075,0.00045,8e-05,2.9999999999999997e-05,-2.9999999999999997e-05,5
23575,24739,-0.0001,-2.9999999999999997e-05,-1e-05,0.00075,0.00045,8e-05,2.9999999999999997e-05,-2.9999999999999997e-05,5
23576,24740,-0.0001,-2.9999999999999997e-05,-1e-05,0.00075,0.00045,8e-05,2.9999999999999997e-05,-2.9999999999999997e-05,5
23577,24741,-0.0001,-2.9999999999999997e-05,-1e-05,0.00075,0.00045,8e-05,2.9999999999999997e-05,-2.9999999999999997e-05,5
23578,24742,-0.0001,-2.9999999999999997e-05,-1e-05,0.00075,0.00045,8e-05,2.9999999999999997e-05,-2.9999999999999997e-05,5
23579,24743,4e-05,8e-05,-0.00014,0.00018999999999999998,0.00022999999999999998,-1e-05,0.0,0.0,5
23580,24744,2.9999999999999997e-05,-2e-05,8e-05,9e-05,-0.00072,-0.0001,-1e-05,2.9999999999999997e-05,5
23581,24745,2.9999999999999997e-05,-2e-05,8e-05,9e-05,-0.00072,-0.0001,-1e-05,2.9999999999999997e-05,5
23582,24746,2.9999999999999997e-05,-2e-05,8e-05,9e-05,-0.00072,-0.0001,-1e-05,2.9999999999999997e-05,5
23583,24747,2.9999999999999997e-05,-2e-05,8e-05,9e-05,-0.00072,-0.0001,-1e-05,2.9999999999999997e-05,5
23584,24748,2.9999999999999997e-05,-2e-05,8e-05,9e-05,-0.00072,-0.0001,-1e-05,2.9999999999999997e-05,5
23585,24749,2.9999999999999997e-05,-2e-05,8e-05,9e-05,-0.00072,-0.0001,-1e-05,2.9999999999999997e-05,5
23586,24750,2.9999999999999997e-05,-2e-05,8e-05,9e-05,-0.00072,-0.0001,-1e-05,2.9999999999999997e-05,5
23587,24751,2.9999999999999997e-05,-2e-05,8e-05,9e-05,-0.00072,-0.0001,-1e-05,2.9999999999999997e-05,5
23588,24752,2.9999999999999997e-05,-2e-05,8e-05,9e-05,-0.00072,-0.0001,-1e-05,2.9999999999999997e-05,5
23589,24753,2.9999999999999997e-05,-2e-05,8e-05,9e-05,-0.00072,-0.0001,-1e-05,2.9999999999999997e-05,5
23590,24754,2.9999999999999997e-05,-2e-05,8e-05,9e-05,-0.00072,-0.0001,-1e-05,2.9999999999999997e-05,5
23591,24755,2.9999999999999997e-05,-2e-05,8e-05,9e-05,-0.00072,-0.0001,-1e-05,2.9999999999999997e-05,5
23592,24756,2.9999999999999997e-05,-2e-05,8e-05,9e-05,-0.00072,-0.0001,-1e-05,2.9999999999999997e-05,5
23593,24757,-0.00018999999999999998,-0.00011,0.00011,0.00013000000000000002,-0.00018,-8e-05,-9e-05,-0.00011,5
23594,24758,-0.00018999999999999998,-0.00011,0.00011,0.00013000000000000002,-0.00018,-8e-05,-9e-05,-0.00011,5
23595,24759,-0.00018999999999999998,-0.00011,0.00011,0.00013000000000000002,-0.00018,-8e-05,-9e-05,-0.00011,5
23596,24760,-0.00018999999999999998,-0.00011,0.00011,0.00013000000000000002,-0.00018,-8e-05,-9e-05,-0.00011,5
23597,24761,-0.00018999999999999998,-0.00011,0.00011,0.00013000000000000002,-0.00018,-8e-05,-9e-05,-0.00011,5
23598,24762,-0.00018999999999999998,-0.00011,0.00011,0.00013000000000000002,-0.00018,-8e-05,-9e-05,-0.00011,5
23599,24763,0.00014,2.9999999999999997e-05,-0.0003,0.00023999999999999998,2e-05,-4e-05,2e-05,2.9999999999999997e-05,5
23600,24764,-0.00016,4e-05,0.0001,0.00033,0.00049,-4e-05,0.0,0.0,5
23601,24765,-0.00016,4e-05,0.0001,0.00033,0.00049,-4e-05,0.0,0.0,5
23602,24766,-0.00016,4e-05,0.0001,0.00033,0.00049,-4e-05,0.0,0.0,5
23603,24767,-0.00016,4e-05,0.0001,0.00033,0.00049,-4e-05,0.0,0.0,5
23604,24768,-0.00016,4e-05,0.0001,0.00033,0.00049,-4e-05,0.0,0.0,5
23605,24769,-0.00016,4e-05,0.0001,0.00033,0.00049,-4e-05,0.0,0.0,5
23606,24770,-0.00016,4e-05,0.0001,0.00033,0.00049,-4e-05,0.0,0.0,5
23607,24771,-0.00016,4e-05,0.0001,0.00033,0.00049,-4e-05,0.0,0.0,5
23608,24772,-0.00016,4e-05,0.0001,0.00033,0.00049,-4e-05,0.0,0.0,5
23609,24773,-0.00016,4e-05,0.0001,0.00033,0.00049,-4e-05,0.0,0.0,5
23610,24774,-0.00016,4e-05,0.0001,0.00033,0.00049,-4e-05,0.0,0.0,5
23611,24775,-0.00016,4e-05,0.0001,0.00033,0.00049,-4e-05,0.0,0.0,5
23612,24776,-0.00016,4e-05,0.0001,0.00033,0.00049,-4e-05,0.0,0.0,5
23613,24777,-0.00016,4e-05,0.0001,0.00033,0.00049,-4e-05,0.0,0.0,5
23614,24778,-0.00016,4e-05,0.0001,0.00033,0.00049,-4e-05,0.0,0.0,5
23615,24779,-0.00016,4e-05,0.0001,0.00033,0.00049,-4e-05,0.0,0.0,5
23616,24780,2e-05,-2.9999999999999997e-05,-0.00013000000000000002,-0.00029,-0.00023999999999999998,2e-05,2.9999999999999997e-05,4e-05,5
23617,24781,2e-05,-2.9999999999999997e-05,-0.00013000000000000002,-0.00029,-0.00023999999999999998,2e-05,2.9999999999999997e-05,4e-05,5
23618,24782,-0.00028,-0.00016999999999999999,2e-05,0.0002,-0.00028,0.0,-1e-05,-8e-05,5
23619,24783,-0.00028,-0.00016999999999999999,2e-05,0.0002,-0.00028,0.0,-1e-05,-8e-05,5
23620,24784,-0.00028,-0.00016999999999999999,2e-05,0.0002,-0.00028,0.0,-1e-05,-8e-05,5
23621,24785,-0.00028,-0.00016999999999999999,2e-05,0.0002,-0.00028,0.0,-1e-05,-8e-05,5
23622,24787,-0.00028,-0.00016999999999999999,2e-05,0.0002,-0.00028,0.0,-1e-05,-8e-05,5
23623,24789,-0.00028,-0.00016999999999999999,2e-05,0.0002,-0.00028,0.0,-1e-05,-8e-05,5
23624,24790,-0.00028,-0.00016999999999999999,2e-05,0.0002,-0.00028,0.0,-1e-05,-8e-05,5
23625,24791,-0.00028,-0.00016999999999999999,2e-05,0.0002,-0.00028,0.0,-1e-05,-8e-05,5
23626,24792,-0.00028,-0.00016999999999999999,2e-05,0.0002,-0.00028,0.0,-1e-05,-8e-05,5
23627,24793,-0.00028,-0.00016999999999999999,2e-05,0.0002,-0.00028,0.0,-1e-05,-8e-05,5
23628,24794,-0.00028,-0.00016999999999999999,2e-05,0.0002,-0.00028,0.0,-1e-05,-8e-05,5
23629,24795,-0.00028,-0.00016999999999999999,2e-05,0.0002,-0.00028,0.0,-1e-05,-8e-05,5
23630,24796,-0.00028,-0.00016999999999999999,2e-05,0.0002,-0.00028,0.0,-1e-05,-8e-05,5
23631,24797,-0.00028,-0.00016999999999999999,2e-05,0.0002,-0.00028,0.0,-1e-05,-8e-05,5
23632,24798,-0.00028,-0.00016999999999999999,2e-05,0.0002,-0.00028,0.0,-1e-05,-8e-05,5
23633,24799,-0.00028,-0.00016999999999999999,2e-05,0.0002,-0.00028,0.0,-1e-05,-8e-05,5
23634,24800,-0.00028,-0.00016999999999999999,2e-05,0.0002,-0.00028,0.0,-1e-05,-8e-05,5
23635,24801,-0.00028,-0.00016999999999999999,2e-05,0.0002,-0.00028,0.0,-1e-05,-8e-05,5
23636,24802,-5e-05,-0.00011999999999999999,-0.00056,0.0004,0.00045999999999999996,-2e-05,-2.9999999999999997e-05,-5.9999999999999995e-05,5
23637,24803,-5e-05,-0.00011999999999999999,-0.00056,0.0004,0.00045999999999999996,-2e-05,-2.9999999999999997e-05,-5.9999999999999995e-05,5
23638,24804,-0.00018999999999999998,-4e-05,-0.0001,-0.00033999999999999997,5.9999999999999995e-05,4e-05,-1e-05,-1e-05,5
23639,24805,-0.00018999999999999998,-4e-05,-0.0001,-0.00033999999999999997,5.9999999999999995e-05,4e-05,-1e-05,-1e-05,5
23640,24806,-0.00018999999999999998,-4e-05,-0.0001,-0.00033999999999999997,5.9999999999999995e-05,4e-05,-1e-05,-1e-05,5
23641,24807,-0.00018999999999999998,-4e-05,-0.0001,-0.00033999999999999997,5.9999999999999995e-05,4e-05,-1e-05,-1e-05,5
23642,24808,-0.00018999999999999998,-4e-05,-0.0001,-0.00033999999999999997,5.9999999999999995e-05,4e-05,-1e-05,-1e-05,5
23643,24809,-0.00018999999999999998,-4e-05,-0.0001,-0.00033999999999999997,5.9999999999999995e-05,4e-05,-1e-05,-1e-05,5
23644,24810,-0.00018999999999999998,-4e-05,-0.0001,-0.00033999999999999997,5.9999999999999995e-05,4e-05,-1e-05,-1e-05,5
23645,24811,-0.00018999999999999998,-4e-05,-0.0001,-0.00033999999999999997,5.9999999999999995e-05,4e-05,-1e-05,-1e-05,5
23646,24812,-0.00018999999999999998,-4e-05,-0.0001,-0.00033999999999999997,5.9999999999999995e-05,4e-05,-1e-05,-1e-05,5
23647,24813,-0.00018999999999999998,-4e-05,-0.0001,-0.00033999999999999997,5.9999999999999995e-05,4e-05,-1e-05,-1e-05,5
23648,24814,-0.00018999999999999998,-4e-05,-0.0001,-0.00033999999999999997,5.9999999999999995e-05,4e-05,-1e-05,-1e-05,5
23649,24815,-0.00018999999999999998,-4e-05,-0.0001,-0.00033999999999999997,5.9999999999999995e-05,4e-05,-1e-05,-1e-05,5
23650,24816,-0.00018999999999999998,-4e-05,-0.0001,-0.00033999999999999997,5.9999999999999995e-05,4e-05,-1e-05,-1e-05,5
23651,24817,-0.00015,-2e-05,-0.00014,-0.00042,-0.00045999999999999996,0.0,-2e-05,-8e-05,5
23652,24818,-0.00015,-2e-05,-0.00014,-0.00042,-0.00045999999999999996,0.0,-2e-05,-8e-05,5
23653,24819,-0.00015,-2e-05,-0.00014,-0.00042,-0.00045999999999999996,0.0,-2e-05,-8e-05,5
23654,24820,-0.00015,-2e-05,-0.00014,-0.00042,-0.00045999999999999996,0.0,-2e-05,-8e-05,5
23655,24821,-0.00015,-2e-05,-0.00014,-0.00042,-0.00045999999999999996,0.0,-2e-05,-8e-05,5
23656,24822,-0.00015,-2e-05,-0.00014,-0.00042,-0.00045999999999999996,0.0,-2e-05,-8e-05,5
23657,24823,0.00022,7e-05,0.00023999999999999998,0.00015,0.00032,0.00014,5.9999999999999995e-05,9e-05,5
23658,24824,5e-05,-7e-05,-0.00027,0.00022,0.00021,-2.9999999999999997e-05,-2e-05,-8e-05,5
23659,24825,5e-05,-7e-05,-0.00027,0.00022,0.00021,-2.9999999999999997e-05,-2e-05,-8e-05,5
23660,24826,5e-05,-7e-05,-0.00027,0.00022,0.00021,-2.9999999999999997e-05,-2e-05,-8e-05,5
23661,24827,5e-05,-7e-05,-0.00027,0.00022,0.00021,-2.9999999999999997e-05,-2e-05,-8e-05,5
23662,24828,5e-05,-7e-05,-0.00027,0.00022,0.00021,-2.9999999999999997e-05,-2e-05,-8e-05,5
23663,24829,5e-05,-7e-05,-0.00027,0.00022,0.00021,-2.9999999999999997e-05,-2e-05,-8e-05,5
23664,24830,5e-05,-7e-05,-0.00027,0.00022,0.00021,-2.9999999999999997e-05,-2e-05,-8e-05,5
23665,24831,5e-05,-7e-05,-0.00027,0.00022,0.00021,-2.9999999999999997e-05,-2e-05,-8e-05,5
23666,24832,5e-05,-7e-05,-0.00027,0.00022,0.00021,-2.9999999999999997e-05,-2e-05,-8e-05,5
23667,24833,5e-05,-7e-05,-0.00027,0.00022,0.00021,-2.9999999999999997e-05,-2e-05,-8e-05,5
23668,24834,5e-05,-7e-05,-0.00027,0.00022,0.00021,-2.9999999999999997e-05,-2e-05,-8e-05,5
23669,24835,5e-05,-7e-05,-0.00027,0.00022,0.00021,-2.9999999999999997e-05,-2e-05,-8e-05,5
23670,24837,5e-05,-7e-05,-0.00027,0.00022,0.00021,-2.9999999999999997e-05,-2e-05,-8e-05,5
23671,24839,5e-05,-7e-05,-0.00027,0.00022,0.00021,-2.9999999999999997e-05,-2e-05,-8e-05,5
23672,24840,-0.00013000000000000002,2e-05,0.00022999999999999998,-0.00056,0.00016,-2.9999999999999997e-05,-4e-05,-5.9999999999999995e-05,5
23673,24841,-0.00086,-0.00023999999999999998,0.00011999999999999999,-0.00043,-0.00014,0.00014,2.9999999999999997e-05,-0.00016999999999999999,5
23674,24842,-0.00086,-0.00023999999999999998,0.00011999999999999999,-0.00043,-0.00014,0.00014,2.9999999999999997e-05,-0.00016999999999999999,5
23675,24843,-0.00086,-0.00023999999999999998,0.00011999999999999999,-0.00043,-0.00014,0.00014,2.9999999999999997e-05,-0.00016999999999999999,5
23676,24844,-0.00086,-0.00023999999999999998,0.00011999999999999999,-0.00043,-0.00014,0.00014,2.9999999999999997e-05,-0.00016999999999999999,5
23677,24845,-0.00086,-0.00023999999999999998,0.00011999999999999999,-0.00043,-0.00014,0.00014,2.9999999999999997e-05,-0.00016999999999999999,5
23678,24846,-0.00086,-0.00023999999999999998,0.00011999999999999999,-0.00043,-0.00014,0.00014,2.9999999999999997e-05,-0.00016999999999999999,5
23679,24847,-0.00086,-0.00023999999999999998,0.00011999999999999999,-0.00043,-0.00014,0.00014,2.9999999999999997e-05,-0.00016999999999999999,5
23680,24848,-0.00086,-0.00023999999999999998,0.00011999999999999999,-0.00043,-0.00014,0.00014,2.9999999999999997e-05,-0.00016999999999999999,5
23681,24849,-0.00086,-0.00023999999999999998,0.00011999999999999999,-0.00043,-0.00014,0.00014,2.9999999999999997e-05,-0.00016999999999999999,5
23682,24850,-0.00086,-0.00023999999999999998,0.00011999999999999999,-0.00043,-0.00014,0.00014,2.9999999999999997e-05,-0.00016999999999999999,5
23683,24851,-0.00086,-0.00023999999999999998,0.00011999999999999999,-0.00043,-0.00014,0.00014,2.9999999999999997e-05,-0.00016999999999999999,5
23684,24852,-0.00086,-0.00023999999999999998,0.00011999999999999999,-0.00043,-0.00014,0.00014,2.9999999999999997e-05,-0.00016999999999999999,5
23685,24855,-0.00086,-0.00023999999999999998,0.00011999999999999999,-0.00043,-0.00014,0.00014,2.9999999999999997e-05,-0.00016999999999999999,5
23686,24856,-0.00086,-0.00023999999999999998,0.00011999999999999999,-0.00043,-0.00014,0.00014,2.9999999999999997e-05,-0.00016999999999999999,5
23687,24857,-0.00086,-0.00023999999999999998,0.00011999999999999999,-0.00043,-0.00014,0.00014,2.9999999999999997e-05,-0.00016999999999999999,5
23688,24858,-0.00086,-0.00023999999999999998,0.00011999999999999999,-0.00043,-0.00014,0.00014,2.9999999999999997e-05,-0.00016999999999999999,5
23689,24859,-0.00086,-0.00023999999999999998,0.00011999999999999999,-0.00043,-0.00014,0.00014,2.9999999999999997e-05,-0.00016999999999999999,5
23690,24860,-0.00086,-0.00023999999999999998,0.00011999999999999999,-0.00043,-0.00014,0.00014,2.9999999999999997e-05,-0.00016999999999999999,5
23691,24861,-0.00086,-0.00023999999999999998,0.00011999999999999999,-0.00043,-0.00014,0.00014,2.9999999999999997e-05,-0.00016999999999999999,5
23692,24862,0.00011999999999999999,-5e-05,-0.00013000000000000002,0.00108,4e-05,2e-05,-1e-05,0.0,5
23693,24863,-0.00011999999999999999,5e-05,0.00021,8e-05,-0.0001,-2e-05,0.0,-1e-05,5
23694,24864,0.00031,2.9999999999999997e-05,-9e-05,0.00041,-0.00016999999999999999,-5.9999999999999995e-05,-1e-05,8e-05,5
23695,24865,0.00031,2.9999999999999997e-05,-9e-05,0.00041,-0.00016999999999999999,-5.9999999999999995e-05,-1e-05,8e-05,5
23696,24866,0.00031,2.9999999999999997e-05,-9e-05,0.00041,-0.00016999999999999999,-5.9999999999999995e-05,-1e-05,8e-05,5
23697,24867,0.00031,2.9999999999999997e-05,-9e-05,0.00041,-0.00016999999999999999,-5.9999999999999995e-05,-1e-05,8e-05,5
23698,24868,0.00031,2.9999999999999997e-05,-9e-05,0.00041,-0.00016999999999999999,-5.9999999999999995e-05,-1e-05,8e-05,5
23699,24869,0.00031,2.9999999999999997e-05,-9e-05,0.00041,-0.00016999999999999999,-5.9999999999999995e-05,-1e-05,8e-05,5
23700,24870,0.00031,2.9999999999999997e-05,-9e-05,0.00041,-0.00016999999999999999,-5.9999999999999995e-05,-1e-05,8e-05,5
23701,24871,0.00031,2.9999999999999997e-05,-9e-05,0.00041,-0.00016999999999999999,-5.9999999999999995e-05,-1e-05,8e-05,5
23702,24872,0.00031,2.9999999999999997e-05,-9e-05,0.00041,-0.00016999999999999999,-5.9999999999999995e-05,-1e-05,8e-05,5
23703,24873,0.00031,2.9999999999999997e-05,-9e-05,0.00041,-0.00016999999999999999,-5.9999999999999995e-05,-1e-05,8e-05,5
23704,24874,0.00031,2.9999999999999997e-05,-9e-05,0.00041,-0.00016999999999999999,-5.9999999999999995e-05,-1e-05,8e-05,5
23705,24875,0.00031,2.9999999999999997e-05,-9e-05,0.00041,-0.00016999999999999999,-5.9999999999999995e-05,-1e-05,8e-05,5
23706,24876,0.00031,2.9999999999999997e-05,-9e-05,0.00041,-0.00016999999999999999,-5.9999999999999995e-05,-1e-05,8e-05,5
23707,24877,0.00013000000000000002,0.00013000000000000002,0.00057,0.00011999999999999999,-0.00033,5e-05,5e-05,2e-05,5
23708,24878,0.00013000000000000002,0.00013000000000000002,0.00057,0.00011999999999999999,-0.00033,5e-05,5e-05,2e-05,5
23709,24879,0.00013000000000000002,0.00013000000000000002,0.00057,0.00011999999999999999,-0.00033,5e-05,5e-05,2e-05,5
23710,24880,0.00013000000000000002,0.00013000000000000002,0.00057,0.00011999999999999999,-0.00033,5e-05,5e-05,2e-05,5
23711,24881,0.00013000000000000002,0.00013000000000000002,0.00057,0.00011999999999999999,-0.00033,5e-05,5e-05,2e-05,5
23712,24882,0.00013000000000000002,0.00013000000000000002,0.00057,0.00011999999999999999,-0.00033,5e-05,5e-05,2e-05,5
23713,24883,-0.0002,-0.00016999999999999999,-0.00037,-0.00011,-0.00022,-8e-05,-2e-05,-2.9999999999999997e-05,5
23714,24884,0.00023999999999999998,9e-05,-5e-05,-0.0011,0.00058,8e-05,4e-05,5.9999999999999995e-05,5
23715,24885,0.00023999999999999998,9e-05,-5e-05,-0.0011,0.00058,8e-05,4e-05,5.9999999999999995e-05,5
23716,24887,0.00023999999999999998,9e-05,-5e-05,-0.0011,0.00058,8e-05,4e-05,5.9999999999999995e-05,5
23717,24889,0.00023999999999999998,9e-05,-5e-05,-0.0011,0.00058,8e-05,4e-05,5.9999999999999995e-05,5
23718,24890,0.00023999999999999998,9e-05,-5e-05,-0.0011,0.00058,8e-05,4e-05,5.9999999999999995e-05,5
23719,24891,0.00023999999999999998,9e-05,-5e-05,-0.0011,0.00058,8e-05,4e-05,5.9999999999999995e-05,5
23720,24892,0.00023999999999999998,9e-05,-5e-05,-0.0011,0.00058,8e-05,4e-05,5.9999999999999995e-05,5
23721,24893,0.00023999999999999998,9e-05,-5e-05,-0.0011,0.00058,8e-05,4e-05,5.9999999999999995e-05,5
23722,24894,0.00023999999999999998,9e-05,-5e-05,-0.0011,0.00058,8e-05,4e-05,5.9999999999999995e-05,5
23723,24895,0.00023999999999999998,9e-05,-5e-05,-0.0011,0.00058,8e-05,4e-05,5.9999999999999995e-05,5
23724,24896,0.00023999999999999998,9e-05,-5e-05,-0.0011,0.00058,8e-05,4e-05,5.9999999999999995e-05,5
23725,24897,0.00023999999999999998,9e-05,-5e-05,-0.0011,0.00058,8e-05,4e-05,5.9999999999999995e-05,5
23726,24898,0.00023999999999999998,9e-05,-5e-05,-0.0011,0.00058,8e-05,4e-05,5.9999999999999995e-05,5
23727,24899,0.00023999999999999998,9e-05,-5e-05,-0.0011,0.00058,8e-05,4e-05,5.9999999999999995e-05,5
23728,24900,9e-05,9e-05,0.0003,0.00037999999999999997,-0.0002,1e-05,-1e-05,1e-05,5
23729,24901,-1e-05,8e-05,-8e-05,0.0005,-0.00016999999999999999,-8e-05,-5e-05,-2e-05,5
23730,24902,-1e-05,8e-05,-8e-05,0.0005,-0.00016999999999999999,-8e-05,-5e-05,-2e-05,5
23731,24903,-1e-05,8e-05,-8e-05,0.0005,-0.00016999999999999999,-8e-05,-5e-05,-2e-05,5
23732,24904,-1e-05,8e-05,-8e-05,0.0005,-0.00016999999999999999,-8e-05,-5e-05,-2e-05,5
23733,24905,-1e-05,8e-05,-8e-05,0.0005,-0.00016999999999999999,-8e-05,-5e-05,-2e-05,5
23734,24906,-1e-05,8e-05,-8e-05,0.0005,-0.00016999999999999999,-8e-05,-5e-05,-2e-05,5
23735,24907,-1e-05,8e-05,-8e-05,0.0005,-0.00016999999999999999,-8e-05,-5e-05,-2e-05,5
23736,24908,-1e-05,8e-05,-8e-05,0.0005,-0.00016999999999999999,-8e-05,-5e-05,-2e-05,5
23737,24909,-1e-05,8e-05,-8e-05,0.0005,-0.00016999999999999999,-8e-05,-5e-05,-2e-05,5
23738,24910,-1e-05,8e-05,-8e-05,0.0005,-0.00016999999999999999,-8e-05,-5e-05,-2e-05,5
23739,24911,-1e-05,8e-05,-8e-05,0.0005,-0.00016999999999999999,-8e-05,-5e-05,-2e-05,5
23740,24912,-1e-05,8e-05,-8e-05,0.0005,-0.00016999999999999999,-8e-05,-5e-05,-2e-05,5
23741,24913,-1e-05,8e-05,-8e-05,0.0005,-0.00016999999999999999,-8e-05,-5e-05,-2e-05,5
23742,24914,-1e-05,8e-05,-8e-05,0.0005,-0.00016999999999999999,-8e-05,-5e-05,-2e-05,5
23743,24915,-1e-05,8e-05,-8e-05,0.0005,-0.00016999999999999999,-8e-05,-5e-05,-2e-05,5
23744,24916,-1e-05,8e-05,-8e-05,0.0005,-0.00016999999999999999,-8e-05,-5e-05,-2e-05,5
23745,24917,-1e-05,8e-05,-8e-05,0.0005,-0.00016999999999999999,-8e-05,-5e-05,-2e-05,5
23746,24918,-1e-05,8e-05,-8e-05,0.0005,-0.00016999999999999999,-8e-05,-5e-05,-2e-05,5
23747,24919,-1e-05,8e-05,-8e-05,0.0005,-0.00016999999999999999,-8e-05,-5e-05,-2e-05,5
23748,24920,-1e-05,8e-05,-8e-05,0.0005,-0.00016999999999999999,-8e-05,-5e-05,-2e-05,5
23749,24921,-1e-05,8e-05,-8e-05,0.0005,-0.00016999999999999999,-8e-05,-5e-05,-2e-05,5
23750,24922,5.9999999999999995e-05,-9e-05,-0.00018,0.00011,-0.00036,2.9999999999999997e-05,0.0,-2e-05,5
23751,24923,5.9999999999999995e-05,-9e-05,-0.00018,0.00011,-0.00036,2.9999999999999997e-05,0.0,-2e-05,5
23752,24924,1e-05,-2.9999999999999997e-05,-0.00025,0.00028,-0.00018999999999999998,-2e-05,-2e-05,0.0,5
23753,24925,1e-05,-2.9999999999999997e-05,-0.00025,0.00028,-0.00018999999999999998,-2e-05,-2e-05,0.0,5
23754,24926,1e-05,-2.9999999999999997e-05,-0.00025,0.00028,-0.00018999999999999998,-2e-05,-2e-05,0.0,5
23755,24927,1e-05,-2.9999999999999997e-05,-0.00025,0.00028,-0.00018999999999999998,-2e-05,-2e-05,0.0,5
23756,24928,1e-05,-2.9999999999999997e-05,-0.00025,0.00028,-0.00018999999999999998,-2e-05,-2e-05,0.0,5
23757,24929,1e-05,-2.9999999999999997e-05,-0.00025,0.00028,-0.00018999999999999998,-2e-05,-2e-05,0.0,5
23758,24930,1e-05,-2.9999999999999997e-05,-0.00025,0.00028,-0.00018999999999999998,-2e-05,-2e-05,0.0,5
23759,24931,1e-05,-2.9999999999999997e-05,-0.00025,0.00028,-0.00018999999999999998,-2e-05,-2e-05,0.0,5
23760,24932,1e-05,-2.9999999999999997e-05,-0.00025,0.00028,-0.00018999999999999998,-2e-05,-2e-05,0.0,5
23761,24933,1e-05,-2.9999999999999997e-05,-0.00025,0.00028,-0.00018999999999999998,-2e-05,-2e-05,0.0,5
23762,24934,1e-05,-2.9999999999999997e-05,-0.00025,0.00028,-0.00018999999999999998,-2e-05,-2e-05,0.0,5
23763,24935,1e-05,-2.9999999999999997e-05,-0.00025,0.00028,-0.00018999999999999998,-2e-05,-2e-05,0.0,5
23764,24937,-0.00028,-5.9999999999999995e-05,-0.00029,0.00018,0.00016999999999999999,-7e-05,-5e-05,-8e-05,5
23765,24939,-0.00028,-5.9999999999999995e-05,-0.00029,0.00018,0.00016999999999999999,-7e-05,-5e-05,-8e-05,5
23766,24940,-0.00028,-5.9999999999999995e-05,-0.00029,0.00018,0.00016999999999999999,-7e-05,-5e-05,-8e-05,5
23767,24941,-0.00028,-5.9999999999999995e-05,-0.00029,0.00018,0.00016999999999999999,-7e-05,-5e-05,-8e-05,5
23768,24942,-0.00028,-5.9999999999999995e-05,-0.00029,0.00018,0.00016999999999999999,-7e-05,-5e-05,-8e-05,5
23769,24943,-0.00023999999999999998,-7e-05,5.9999999999999995e-05,-0.00045,-0.00057,-8e-05,-5e-05,-5e-05,5
23770,24944,0.00033,0.00011999999999999999,9e-05,0.00033,0.00041,0.00016999999999999999,5e-05,9e-05,5
23771,24945,0.00033,0.00011999999999999999,9e-05,0.00033,0.00041,0.00016999999999999999,5e-05,9e-05,5
23772,24946,0.00033,0.00011999999999999999,9e-05,0.00033,0.00041,0.00016999999999999999,5e-05,9e-05,5
23773,24947,0.00033,0.00011999999999999999,9e-05,0.00033,0.00041,0.00016999999999999999,5e-05,9e-05,5
23774,24948,0.00033,0.00011999999999999999,9e-05,0.00033,0.00041,0.00016999999999999999,5e-05,9e-05,5
23775,24949,0.00033,0.00011999999999999999,9e-05,0.00033,0.00041,0.00016999999999999999,5e-05,9e-05,5
23776,24950,0.00033,0.00011999999999999999,9e-05,0.00033,0.00041,0.00016999999999999999,5e-05,9e-05,5
23777,24951,0.00033,0.00011999999999999999,9e-05,0.00033,0.00041,0.00016999999999999999,5e-05,9e-05,5
23778,24952,0.00033,0.00011999999999999999,9e-05,0.00033,0.00041,0.00016999999999999999,5e-05,9e-05,5
23779,24953,0.00033,0.00011999999999999999,9e-05,0.00033,0.00041,0.00016999999999999999,5e-05,9e-05,5
23780,24954,0.00033,0.00011999999999999999,9e-05,0.00033,0.00041,0.00016999999999999999,5e-05,9e-05,5
23781,24955,0.00033,0.00011999999999999999,9e-05,0.00033,0.00041,0.00016999999999999999,5e-05,9e-05,5
23782,24956,0.00033,0.00011999999999999999,9e-05,0.00033,0.00041,0.00016999999999999999,5e-05,9e-05,5
23783,24957,0.00033,0.00011999999999999999,9e-05,0.00033,0.00041,0.00016999999999999999,5e-05,9e-05,5
23784,24958,0.00033,0.00011999999999999999,9e-05,0.00033,0.00041,0.00016999999999999999,5e-05,9e-05,5
23785,24959,0.00033,0.00011999999999999999,9e-05,0.00033,0.00041,0.00016999999999999999,5e-05,9e-05,5
23786,24960,4e-05,1e-05,0.00011999999999999999,-0.00063,-0.00018999999999999998,2e-05,2.9999999999999997e-05,2.9999999999999997e-05,5
23787,24961,-0.00022,0.0,-5e-05,0.00014,0.00011999999999999999,5.9999999999999995e-05,1e-05,-4e-05,5
23788,24962,0.00018999999999999998,-2e-05,-5.9999999999999995e-05,-0.00031,8e-05,-7e-05,-1e-05,2e-05,5
23789,24963,0.00018999999999999998,-2e-05,-5.9999999999999995e-05,-0.00031,8e-05,-7e-05,-1e-05,2e-05,5
23790,24964,0.00018999999999999998,-2e-05,-5.9999999999999995e-05,-0.00031,8e-05,-7e-05,-1e-05,2e-05,5
23791,24965,0.00018999999999999998,-2e-05,-5.9999999999999995e-05,-0.00031,8e-05,-7e-05,-1e-05,2e-05,5
23792,24966,0.00018999999999999998,-2e-05,-5.9999999999999995e-05,-0.00031,8e-05,-7e-05,-1e-05,2e-05,5
23793,24967,0.00018999999999999998,-2e-05,-5.9999999999999995e-05,-0.00031,8e-05,-7e-05,-1e-05,2e-05,5
23794,24968,0.00018999999999999998,-2e-05,-5.9999999999999995e-05,-0.00031,8e-05,-7e-05,-1e-05,2e-05,5
23795,24969,0.00018999999999999998,-2e-05,-5.9999999999999995e-05,-0.00031,8e-05,-7e-05,-1e-05,2e-05,5
23796,24970,0.00018999999999999998,-2e-05,-5.9999999999999995e-05,-0.00031,8e-05,-7e-05,-1e-05,2e-05,5
23797,24971,0.00018999999999999998,-2e-05,-5.9999999999999995e-05,-0.00031,8e-05,-7e-05,-1e-05,2e-05,5
23798,24972,0.00018999999999999998,-2e-05,-5.9999999999999995e-05,-0.00031,8e-05,-7e-05,-1e-05,2e-05,5
23799,24973,0.00018999999999999998,-2e-05,-5.9999999999999995e-05,-0.00031,8e-05,-7e-05,-1e-05,2e-05,5
23800,24974,0.00018999999999999998,-2e-05,-5.9999999999999995e-05,-0.00031,8e-05,-7e-05,-1e-05,2e-05,5
23801,24975,0.00018999999999999998,-2e-05,-5.9999999999999995e-05,-0.00031,8e-05,-7e-05,-1e-05,2e-05,5
23802,24976,0.00018999999999999998,-2e-05,-5.9999999999999995e-05,-0.00031,8e-05,-7e-05,-1e-05,2e-05,5
23803,24977,0.00018999999999999998,-2e-05,-5.9999999999999995e-05,-0.00031,8e-05,-7e-05,-1e-05,2e-05,5
23804,24978,0.00018999999999999998,-2e-05,-5.9999999999999995e-05,-0.00031,8e-05,-7e-05,-1e-05,2e-05,5
23805,24979,0.00018999999999999998,-2e-05,-5.9999999999999995e-05,-0.00031,8e-05,-7e-05,-1e-05,2e-05,5
23806,24980,0.00018999999999999998,-2e-05,-5.9999999999999995e-05,-0.00031,8e-05,-7e-05,-1e-05,2e-05,5
23807,24981,0.00018999999999999998,-2e-05,-5.9999999999999995e-05,-0.00031,8e-05,-7e-05,-1e-05,2e-05,5
23808,24982,-2e-05,8e-05,0.00027,0.00085,0.00053,8e-05,0.0,-2e-05,5
23809,24983,0.00018999999999999998,1e-05,9e-05,-0.00041,-0.00021,-0.00013000000000000002,-2.9999999999999997e-05,2e-05,5
23810,24984,0.00018999999999999998,1e-05,9e-05,-0.00041,-0.00021,-0.00013000000000000002,-2.9999999999999997e-05,2e-05,5
23811,24985,0.00018999999999999998,1e-05,9e-05,-0.00041,-0.00021,-0.00013000000000000002,-2.9999999999999997e-05,2e-05,5
23812,24987,0.00018999999999999998,1e-05,9e-05,-0.00041,-0.00021,-0.00013000000000000002,-2.9999999999999997e-05,2e-05,5
23813,24989,0.00018999999999999998,1e-05,9e-05,-0.00041,-0.00021,-0.00013000000000000002,-2.9999999999999997e-05,2e-05,5
23814,24990,0.00018999999999999998,1e-05,9e-05,-0.00041,-0.00021,-0.00013000000000000002,-2.9999999999999997e-05,2e-05,5
23815,24991,0.00018999999999999998,1e-05,9e-05,-0.00041,-0.00021,-0.00013000000000000002,-2.9999999999999997e-05,2e-05,5
23816,24992,0.00018999999999999998,1e-05,9e-05,-0.00041,-0.00021,-0.00013000000000000002,-2.9999999999999997e-05,2e-05,5
23817,24993,0.00018999999999999998,1e-05,9e-05,-0.00041,-0.00021,-0.00013000000000000002,-2.9999999999999997e-05,2e-05,5
23818,24994,0.00018999999999999998,1e-05,9e-05,-0.00041,-0.00021,-0.00013000000000000002,-2.9999999999999997e-05,2e-05,5
23819,24995,0.00018999999999999998,1e-05,9e-05,-0.00041,-0.00021,-0.00013000000000000002,-2.9999999999999997e-05,2e-05,5
23820,24996,0.00028,0.0001,-7e-05,-0.00047999999999999996,-0.00041,5e-05,2e-05,8e-05,5
23821,24997,0.00028,0.0001,-7e-05,-0.00047999999999999996,-0.00041,5e-05,2e-05,8e-05,5
23822,24998,0.00028,0.0001,-7e-05,-0.00047999999999999996,-0.00041,5e-05,2e-05,8e-05,5
23823,24999,0.00028,0.0001,-7e-05,-0.00047999999999999996,-0.00041,5e-05,2e-05,8e-05,5
23824,25000,0.00028,0.0001,-7e-05,-0.00047999999999999996,-0.00041,5e-05,2e-05,8e-05,5
23825,25001,0.00028,0.0001,-7e-05,-0.00047999999999999996,-0.00041,5e-05,2e-05,8e-05,5
23826,25002,0.00028,0.0001,-7e-05,-0.00047999999999999996,-0.00041,5e-05,2e-05,8e-05,5
23827,25003,0.00028,0.0001,-7e-05,-0.00047999999999999996,-0.00041,5e-05,2e-05,8e-05,5
23828,25004,-0.0001,-8e-05,-0.0001,-0.00086,-0.00055,-5.9999999999999995e-05,-4e-05,2.9999999999999997e-05,5
23829,25005,-0.0001,-8e-05,-0.0001,-0.00086,-0.00055,-5.9999999999999995e-05,-4e-05,2.9999999999999997e-05,5
23830,25006,-0.0001,-8e-05,-0.0001,-0.00086,-0.00055,-5.9999999999999995e-05,-4e-05,2.9999999999999997e-05,5
23831,25007,-0.0001,-8e-05,-0.0001,-0.00086,-0.00055,-5.9999999999999995e-05,-4e-05,2.9999999999999997e-05,5
23832,25008,-0.0001,-8e-05,-0.0001,-0.00086,-0.00055,-5.9999999999999995e-05,-4e-05,2.9999999999999997e-05,5
23833,25009,-0.0001,-8e-05,-0.0001,-0.00086,-0.00055,-5.9999999999999995e-05,-4e-05,2.9999999999999997e-05,5
23834,25010,-0.0001,-8e-05,-0.0001,-0.00086,-0.00055,-5.9999999999999995e-05,-4e-05,2.9999999999999997e-05,5
23835,25011,-0.0001,-8e-05,-0.0001,-0.00086,-0.00055,-5.9999999999999995e-05,-4e-05,2.9999999999999997e-05,5
23836,25012,-0.0001,-8e-05,-0.0001,-0.00086,-0.00055,-5.9999999999999995e-05,-4e-05,2.9999999999999997e-05,5
23837,25013,-0.0001,-8e-05,-0.0001,-0.00086,-0.00055,-5.9999999999999995e-05,-4e-05,2.9999999999999997e-05,5
23838,25014,-0.0001,-8e-05,-0.0001,-0.00086,-0.00055,-5.9999999999999995e-05,-4e-05,2.9999999999999997e-05,5
23839,25015,-0.0001,-8e-05,-0.0001,-0.00086,-0.00055,-5.9999999999999995e-05,-4e-05,2.9999999999999997e-05,5
23840,25016,-0.0001,-8e-05,-0.0001,-0.00086,-0.00055,-5.9999999999999995e-05,-4e-05,2.9999999999999997e-05,5
23841,25017,-0.0001,-8e-05,-0.0001,-0.00086,-0.00055,-5.9999999999999995e-05,-4e-05,2.9999999999999997e-05,5
23842,25018,-0.0001,-8e-05,-0.0001,-0.00086,-0.00055,-5.9999999999999995e-05,-4e-05,2.9999999999999997e-05,5
23843,25019,-9e-05,1e-05,0.00016999999999999999,-0.00042,0.00013000000000000002,-4e-05,-2.9999999999999997e-05,7e-05,5
23844,25020,-0.00015,-8e-05,-5e-05,0.00015,-0.0007,-8e-05,-2.9999999999999997e-05,-4e-05,5
23845,25021,-0.00015,-8e-05,-5e-05,0.00015,-0.0007,-8e-05,-2.9999999999999997e-05,-4e-05,5
23846,25022,-0.00015,-8e-05,-5e-05,0.00015,-0.0007,-8e-05,-2.9999999999999997e-05,-4e-05,5
23847,25023,-0.00015,-8e-05,-5e-05,0.00015,-0.0007,-8e-05,-2.9999999999999997e-05,-4e-05,5
23848,25024,-0.00015,-8e-05,-5e-05,0.00015,-0.0007,-8e-05,-2.9999999999999997e-05,-4e-05,5
23849,25025,-0.00015,-8e-05,-5e-05,0.00015,-0.0007,-8e-05,-2.9999999999999997e-05,-4e-05,5
23850,25026,-0.00015,-8e-05,-5e-05,0.00015,-0.0007,-8e-05,-2.9999999999999997e-05,-4e-05,5
23851,25027,-0.00015,-8e-05,-5e-05,0.00015,-0.0007,-8e-05,-2.9999999999999997e-05,-4e-05,5
23852,25028,-0.00015,-8e-05,-5e-05,0.00015,-0.0007,-8e-05,-2.9999999999999997e-05,-4e-05,5
23853,25029,-0.00015,-8e-05,-5e-05,0.00015,-0.0007,-8e-05,-2.9999999999999997e-05,-4e-05,5
23854,25030,-0.00015,-8e-05,-5e-05,0.00015,-0.0007,-8e-05,-2.9999999999999997e-05,-4e-05,5
23855,25031,-0.00015,-8e-05,-5e-05,0.00015,-0.0007,-8e-05,-2.9999999999999997e-05,-4e-05,5
23856,25033,-0.00015,-8e-05,-5e-05,0.00015,-0.0007,-8e-05,-2.9999999999999997e-05,-4e-05,5
23857,25034,-0.00015,-8e-05,-5e-05,0.00015,-0.0007,-8e-05,-2.9999999999999997e-05,-4e-05,5
23858,25035,-0.00015,-8e-05,-5e-05,0.00015,-0.0007,-8e-05,-2.9999999999999997e-05,-4e-05,5
23859,25037,-0.00015,-8e-05,-5e-05,0.00015,-0.0007,-8e-05,-2.9999999999999997e-05,-4e-05,5
23860,25039,-0.00015,-8e-05,-5e-05,0.00015,-0.0007,-8e-05,-2.9999999999999997e-05,-4e-05,5
23861,25040,-0.00015,-8e-05,-5e-05,0.00015,-0.0007,-8e-05,-2.9999999999999997e-05,-4e-05,5
23862,25041,-0.00015,-8e-05,-5e-05,0.00015,-0.0007,-8e-05,-2.9999999999999997e-05,-4e-05,5
23863,25042,2e-05,-2.9999999999999997e-05,1e-05,0.00053,0.00014,0.0,2e-05,2e-05,5
23864,25043,-0.00016999999999999999,2e-05,0.00016999999999999999,0.00016,0.00018,-2e-05,0.0,1e-05,5
23865,25044,-0.00016999999999999999,2e-05,0.00016999999999999999,0.00016,0.00018,-2e-05,0.0,1e-05,5
23866,25045,-0.00016999999999999999,2e-05,0.00016999999999999999,0.00016,0.00018,-2e-05,0.0,1e-05,5
23867,25046,-0.00016999999999999999,2e-05,0.00016999999999999999,0.00016,0.00018,-2e-05,0.0,1e-05,5
23868,25047,-0.00016999999999999999,2e-05,0.00016999999999999999,0.00016,0.00018,-2e-05,0.0,1e-05,5
23869,25048,-0.00016999999999999999,2e-05,0.00016999999999999999,0.00016,0.00018,-2e-05,0.0,1e-05,5
23870,25049,-0.00016999999999999999,2e-05,0.00016999999999999999,0.00016,0.00018,-2e-05,0.0,1e-05,5
23871,25050,-0.00016999999999999999,2e-05,0.00016999999999999999,0.00016,0.00018,-2e-05,0.0,1e-05,5
23872,25051,-0.00016999999999999999,2e-05,0.00016999999999999999,0.00016,0.00018,-2e-05,0.0,1e-05,5
23873,25052,-0.00016999999999999999,2e-05,0.00016999999999999999,0.00016,0.00018,-2e-05,0.0,1e-05,5
23874,25053,-0.00016999999999999999,2e-05,0.00016999999999999999,0.00016,0.00018,-2e-05,0.0,1e-05,5
23875,25054,-0.00016999999999999999,2e-05,0.00016999999999999999,0.00016,0.00018,-2e-05,0.0,1e-05,5
23876,25055,-0.00016999999999999999,2e-05,0.00016999999999999999,0.00016,0.00018,-2e-05,0.0,1e-05,5
23877,25056,-9e-05,-5.9999999999999995e-05,8e-05,-0.00033999999999999997,0.0001,-5.9999999999999995e-05,-4e-05,-4e-05,5
23878,25057,-9e-05,-5.9999999999999995e-05,8e-05,-0.00033999999999999997,0.0001,-5.9999999999999995e-05,-4e-05,-4e-05,5
23879,25058,-9e-05,-5.9999999999999995e-05,8e-05,-0.00033999999999999997,0.0001,-5.9999999999999995e-05,-4e-05,-4e-05,5
23880,25059,-9e-05,-5.9999999999999995e-05,8e-05,-0.00033999999999999997,0.0001,-5.9999999999999995e-05,-4e-05,-4e-05,5
23881,25060,-9e-05,-5.9999999999999995e-05,8e-05,-0.00033999999999999997,0.0001,-5.9999999999999995e-05,-4e-05,-4e-05,5
23882,25061,-9e-05,-5.9999999999999995e-05,8e-05,-0.00033999999999999997,0.0001,-5.9999999999999995e-05,-4e-05,-4e-05,5
23883,25062,-9e-05,-5.9999999999999995e-05,8e-05,-0.00033999999999999997,0.0001,-5.9999999999999995e-05,-4e-05,-4e-05,5
23884,25063,-9e-05,-5.9999999999999995e-05,8e-05,-0.00033999999999999997,0.0001,-5.9999999999999995e-05,-4e-05,-4e-05,5
23885,25064,9e-05,8e-05,4e-05,0.00022,0.00018,0.00014,0.0,-2e-05,5
23886,25065,9e-05,8e-05,4e-05,0.00022,0.00018,0.00014,0.0,-2e-05,5
23887,25066,9e-05,8e-05,4e-05,0.00022,0.00018,0.00014,0.0,-2e-05,5
23888,25067,9e-05,8e-05,4e-05,0.00022,0.00018,0.00014,0.0,-2e-05,5
23889,25068,9e-05,8e-05,4e-05,0.00022,0.00018,0.00014,0.0,-2e-05,5
23890,25069,9e-05,8e-05,4e-05,0.00022,0.00018,0.00014,0.0,-2e-05,5
23891,25070,9e-05,8e-05,4e-05,0.00022,0.00018,0.00014,0.0,-2e-05,5
23892,25071,9e-05,8e-05,4e-05,0.00022,0.00018,0.00014,0.0,-2e-05,5
23893,25072,9e-05,8e-05,4e-05,0.00022,0.00018,0.00014,0.0,-2e-05,5
23894,25073,9e-05,8e-05,4e-05,0.00022,0.00018,0.00014,0.0,-2e-05,5
23895,25074,9e-05,8e-05,4e-05,0.00022,0.00018,0.00014,0.0,-2e-05,5
23896,25075,9e-05,8e-05,4e-05,0.00022,0.00018,0.00014,0.0,-2e-05,5
23897,25076,9e-05,8e-05,4e-05,0.00022,0.00018,0.00014,0.0,-2e-05,5
23898,25077,9e-05,8e-05,4e-05,0.00022,0.00018,0.00014,0.0,-2e-05,5
23899,25078,9e-05,8e-05,4e-05,0.00022,0.00018,0.00014,0.0,-2e-05,5
23900,25079,0.00011999999999999999,-4e-05,9e-05,-0.0008,0.00082,5.9999999999999995e-05,-1e-05,-2e-05,5
23901,25080,0.00029,-2.9999999999999997e-05,-2e-05,0.00027,0.0005099999999999999,8e-05,4e-05,5e-05,5
23902,25081,0.00029,-2.9999999999999997e-05,-2e-05,0.00027,0.0005099999999999999,8e-05,4e-05,5e-05,5
23903,25082,0.00029,-2.9999999999999997e-05,-2e-05,0.00027,0.0005099999999999999,8e-05,4e-05,5e-05,5
23904,25083,0.00029,-2.9999999999999997e-05,-2e-05,0.00027,0.0005099999999999999,8e-05,4e-05,5e-05,5
23905,25084,0.00029,-2.9999999999999997e-05,-2e-05,0.00027,0.0005099999999999999,8e-05,4e-05,5e-05,5
23906,25085,0.00029,-2.9999999999999997e-05,-2e-05,0.00027,0.0005099999999999999,8e-05,4e-05,5e-05,5
23907,25087,0.00029,-2.9999999999999997e-05,-2e-05,0.00027,0.0005099999999999999,8e-05,4e-05,5e-05,5
23908,25089,0.00029,-2.9999999999999997e-05,-2e-05,0.00027,0.0005099999999999999,8e-05,4e-05,5e-05,5
23909,25090,0.00029,-2.9999999999999997e-05,-2e-05,0.00027,0.0005099999999999999,8e-05,4e-05,5e-05,5
23910,25091,0.00029,-2.9999999999999997e-05,-2e-05,0.00027,0.0005099999999999999,8e-05,4e-05,5e-05,5
23911,25092,0.00029,-2.9999999999999997e-05,-2e-05,0.00027,0.0005099999999999999,8e-05,4e-05,5e-05,5
23912,25093,0.00029,-2.9999999999999997e-05,-2e-05,0.00027,0.0005099999999999999,8e-05,4e-05,5e-05,5
23913,25094,0.00029,-2.9999999999999997e-05,-2e-05,0.00027,0.0005099999999999999,8e-05,4e-05,5e-05,5
23914,25095,0.00029,-2.9999999999999997e-05,-2e-05,0.00027,0.0005099999999999999,8e-05,4e-05,5e-05,5
23915,25096,0.00029,-2.9999999999999997e-05,-2e-05,0.00027,0.0005099999999999999,8e-05,4e-05,5e-05,5
23916,25097,0.00029,-2.9999999999999997e-05,-2e-05,0.00027,0.0005099999999999999,8e-05,4e-05,5e-05,5
23917,25098,0.00029,-2.9999999999999997e-05,-2e-05,0.00027,0.0005099999999999999,8e-05,4e-05,5e-05,5
23918,25099,0.00029,-2.9999999999999997e-05,-2e-05,0.00027,0.0005099999999999999,8e-05,4e-05,5e-05,5
23919,25100,0.00029,-2.9999999999999997e-05,-2e-05,0.00027,0.0005099999999999999,8e-05,4e-05,5e-05,5
23920,25101,0.00029,-2.9999999999999997e-05,-2e-05,0.00027,0.0005099999999999999,8e-05,4e-05,5e-05,5
23921,25102,-0.00025,5e-05,0.00016999999999999999,5.9999999999999995e-05,-8e-05,2e-05,0.0,2.9999999999999997e-05,5
23922,25103,0.0001,5e-05,2.9999999999999997e-05,0.0004,5e-05,-2e-05,1e-05,5e-05,5
23923,25104,0.0001,5e-05,2.9999999999999997e-05,0.0004,5e-05,-2e-05,1e-05,5e-05,5
23924,25105,0.0001,5e-05,2.9999999999999997e-05,0.0004,5e-05,-2e-05,1e-05,5e-05,5
23925,25106,0.0001,5e-05,2.9999999999999997e-05,0.0004,5e-05,-2e-05,1e-05,5e-05,5
23926,25107,0.0001,5e-05,2.9999999999999997e-05,0.0004,5e-05,-2e-05,1e-05,5e-05,5
23927,25108,0.0001,5e-05,2.9999999999999997e-05,0.0004,5e-05,-2e-05,1e-05,5e-05,5
23928,25109,0.0001,5e-05,2.9999999999999997e-05,0.0004,5e-05,-2e-05,1e-05,5e-05,5
23929,25110,0.0001,5e-05,2.9999999999999997e-05,0.0004,5e-05,-2e-05,1e-05,5e-05,5
23930,25111,0.0001,5e-05,2.9999999999999997e-05,0.0004,5e-05,-2e-05,1e-05,5e-05,5
23931,25112,0.0001,5e-05,2.9999999999999997e-05,0.0004,5e-05,-2e-05,1e-05,5e-05,5
23932,25113,0.0001,5e-05,2.9999999999999997e-05,0.0004,5e-05,-2e-05,1e-05,5e-05,5
23933,25114,0.0001,5e-05,2.9999999999999997e-05,0.0004,5e-05,-2e-05,1e-05,5e-05,5
23934,25115,0.0001,5e-05,2.9999999999999997e-05,0.0004,5e-05,-2e-05,1e-05,5e-05,5
23935,25116,0.0001,5e-05,2.9999999999999997e-05,0.0004,5e-05,-2e-05,1e-05,5e-05,5
23936,25117,0.0001,5e-05,2.9999999999999997e-05,0.0004,5e-05,-2e-05,1e-05,5e-05,5
23937,25118,0.0001,5e-05,2.9999999999999997e-05,0.0004,5e-05,-2e-05,1e-05,5e-05,5
23938,25119,0.0001,5e-05,2.9999999999999997e-05,0.0004,5e-05,-2e-05,1e-05,5e-05,5
23939,25120,0.0001,5e-05,2.9999999999999997e-05,0.0004,5e-05,-2e-05,1e-05,5e-05,5
23940,25121,0.0001,5e-05,2.9999999999999997e-05,0.0004,5e-05,-2e-05,1e-05,5e-05,5
23941,25122,0.0001,5e-05,2.9999999999999997e-05,0.0004,5e-05,-2e-05,1e-05,5e-05,5
23942,25123,0.0001,5e-05,2.9999999999999997e-05,0.0004,5e-05,-2e-05,1e-05,5e-05,5
23943,25124,0.0001,5e-05,2.9999999999999997e-05,0.0004,5e-05,-2e-05,1e-05,5e-05,5
23944,25125,0.00025,7e-05,0.00013000000000000002,0.00064,0.00014,0.00014,5.9999999999999995e-05,4e-05,5
23945,25126,-0.00016999999999999999,-1e-05,0.00016999999999999999,0.00016,-0.00025,-1e-05,-1e-05,-4e-05,5
23946,25127,-0.00016999999999999999,-1e-05,0.00016999999999999999,0.00016,-0.00025,-1e-05,-1e-05,-4e-05,5
23947,25128,-0.00016999999999999999,-1e-05,0.00016999999999999999,0.00016,-0.00025,-1e-05,-1e-05,-4e-05,5
23948,25129,-0.00016999999999999999,-1e-05,0.00016999999999999999,0.00016,-0.00025,-1e-05,-1e-05,-4e-05,5
23949,25130,-0.00016999999999999999,-1e-05,0.00016999999999999999,0.00016,-0.00025,-1e-05,-1e-05,-4e-05,5
23950,25131,-0.00016999999999999999,-1e-05,0.00016999999999999999,0.00016,-0.00025,-1e-05,-1e-05,-4e-05,5
23951,25132,-0.00016999999999999999,-1e-05,0.00016999999999999999,0.00016,-0.00025,-1e-05,-1e-05,-4e-05,5
23952,25133,-0.00016999999999999999,-1e-05,0.00016999999999999999,0.00016,-0.00025,-1e-05,-1e-05,-4e-05,5
23953,25134,-0.00016999999999999999,-1e-05,0.00016999999999999999,0.00016,-0.00025,-1e-05,-1e-05,-4e-05,5
23954,25135,-0.00016999999999999999,-1e-05,0.00016999999999999999,0.00016,-0.00025,-1e-05,-1e-05,-4e-05,5
23955,25137,-0.00016999999999999999,-1e-05,0.00016999999999999999,0.00016,-0.00025,-1e-05,-1e-05,-4e-05,5
23956,25139,2.9999999999999997e-05,1e-05,0.00033999999999999997,0.00016,0.00039,5.9999999999999995e-05,4e-05,-1e-05,5
23957,25140,-0.00025,-0.00016999999999999999,-5e-05,0.00056,-0.00018,-0.00013000000000000002,-5e-05,-9e-05,5
23958,25141,-0.00025,-0.00016999999999999999,-5e-05,0.00056,-0.00018,-0.00013000000000000002,-5e-05,-9e-05,5
23959,25142,-0.00025,-0.00016999999999999999,-5e-05,0.00056,-0.00018,-0.00013000000000000002,-5e-05,-9e-05,5
23960,25143,-0.00025,-0.00016999999999999999,-5e-05,0.00056,-0.00018,-0.00013000000000000002,-5e-05,-9e-05,5
23961,25144,-0.00025,-0.00016999999999999999,-5e-05,0.00056,-0.00018,-0.00013000000000000002,-5e-05,-9e-05,5
23962,25145,-0.00025,-0.00016999999999999999,-5e-05,0.00056,-0.00018,-0.00013000000000000002,-5e-05,-9e-05,5
23963,25146,-0.00025,-0.00016999999999999999,-5e-05,0.00056,-0.00018,-0.00013000000000000002,-5e-05,-9e-05,5
23964,25147,-0.00025,-0.00016999999999999999,-5e-05,0.00056,-0.00018,-0.00013000000000000002,-5e-05,-9e-05,5
23965,25148,-0.00025,-0.00016999999999999999,-5e-05,0.00056,-0.00018,-0.00013000000000000002,-5e-05,-9e-05,5
23966,25149,-0.00025,-0.00016999999999999999,-5e-05,0.00056,-0.00018,-0.00013000000000000002,-5e-05,-9e-05,5
23967,25150,-0.00025,-0.00016999999999999999,-5e-05,0.00056,-0.00018,-0.00013000000000000002,-5e-05,-9e-05,5
23968,25151,-0.00025,-0.00016999999999999999,-5e-05,0.00056,-0.00018,-0.00013000000000000002,-5e-05,-9e-05,5
23969,25152,-0.00025,-0.00016999999999999999,-5e-05,0.00056,-0.00018,-0.00013000000000000002,-5e-05,-9e-05,5
23970,25153,-0.00025,-0.00016999999999999999,-5e-05,0.00056,-0.00018,-0.00013000000000000002,-5e-05,-9e-05,5
23971,25154,-0.00025,-0.00016999999999999999,-5e-05,0.00056,-0.00018,-0.00013000000000000002,-5e-05,-9e-05,5
23972,25155,-0.00025,-0.00016999999999999999,-5e-05,0.00056,-0.00018,-0.00013000000000000002,-5e-05,-9e-05,5
23973,25156,-0.00025,-0.00016999999999999999,-5e-05,0.00056,-0.00018,-0.00013000000000000002,-5e-05,-9e-05,5
23974,25157,-0.00025,-0.00016999999999999999,-5e-05,0.00056,-0.00018,-0.00013000000000000002,-5e-05,-9e-05,5
23975,25158,-0.00025,-0.00016999999999999999,-5e-05,0.00056,-0.00018,-0.00013000000000000002,-5e-05,-9e-05,5
23976,25159,-0.00025,-0.00016999999999999999,-5e-05,0.00056,-0.00018,-0.00013000000000000002,-5e-05,-9e-05,5
23977,25160,-0.00025,-0.00016999999999999999,-5e-05,0.00056,-0.00018,-0.00013000000000000002,-5e-05,-9e-05,5
23978,25161,-8e-05,-0.00014,-2.9999999999999997e-05,-0.00033999999999999997,0.00023999999999999998,4e-05,0.0,-2.9999999999999997e-05,5
23979,25162,-0.00011,-2e-05,-0.00015,-0.0002,0.00075,0.00018,2e-05,0.0,5
23980,25163,0.00042,2e-05,-0.00011,-0.0001,0.00027,-2e-05,-2.9999999999999997e-05,2.9999999999999997e-05,5
23981,25164,0.00042,2e-05,-0.00011,-0.0001,0.00027,-2e-05,-2.9999999999999997e-05,2.9999999999999997e-05,5
23982,25165,0.00042,2e-05,-0.00011,-0.0001,0.00027,-2e-05,-2.9999999999999997e-05,2.9999999999999997e-05,5
23983,25166,0.00042,2e-05,-0.00011,-0.0001,0.00027,-2e-05,-2.9999999999999997e-05,2.9999999999999997e-05,5
23984,25167,0.00042,2e-05,-0.00011,-0.0001,0.00027,-2e-05,-2.9999999999999997e-05,2.9999999999999997e-05,5
23985,25168,0.00042,2e-05,-0.00011,-0.0001,0.00027,-2e-05,-2.9999999999999997e-05,2.9999999999999997e-05,5
23986,25169,0.00042,2e-05,-0.00011,-0.0001,0.00027,-2e-05,-2.9999999999999997e-05,2.9999999999999997e-05,5
23987,25170,0.00042,2e-05,-0.00011,-0.0001,0.00027,-2e-05,-2.9999999999999997e-05,2.9999999999999997e-05,5
23988,25171,0.00042,2e-05,-0.00011,-0.0001,0.00027,-2e-05,-2.9999999999999997e-05,2.9999999999999997e-05,5
23989,25172,0.00042,2e-05,-0.00011,-0.0001,0.00027,-2e-05,-2.9999999999999997e-05,2.9999999999999997e-05,5
23990,25173,0.00042,2e-05,-0.00011,-0.0001,0.00027,-2e-05,-2.9999999999999997e-05,2.9999999999999997e-05,5
23991,25174,0.00042,2e-05,-0.00011,-0.0001,0.00027,-2e-05,-2.9999999999999997e-05,2.9999999999999997e-05,5
23992,25175,0.00042,2e-05,-0.00011,-0.0001,0.00027,-2e-05,-2.9999999999999997e-05,2.9999999999999997e-05,5
23993,25176,0.00025,5.9999999999999995e-05,-2.9999999999999997e-05,-0.0002,-0.00044,-2.9999999999999997e-05,-1e-05,5.9999999999999995e-05,5
23994,25177,0.00025,5.9999999999999995e-05,-2.9999999999999997e-05,-0.0002,-0.00044,-2.9999999999999997e-05,-1e-05,5.9999999999999995e-05,5
23995,25178,0.00025,5.9999999999999995e-05,-2.9999999999999997e-05,-0.0002,-0.00044,-2.9999999999999997e-05,-1e-05,5.9999999999999995e-05,5
23996,25179,0.00025,5.9999999999999995e-05,-2.9999999999999997e-05,-0.0002,-0.00044,-2.9999999999999997e-05,-1e-05,5.9999999999999995e-05,5
23997,25180,0.00025,5.9999999999999995e-05,-2.9999999999999997e-05,-0.0002,-0.00044,-2.9999999999999997e-05,-1e-05,5.9999999999999995e-05,5
23998,25181,0.00025,5.9999999999999995e-05,-2.9999999999999997e-05,-0.0002,-0.00044,-2.9999999999999997e-05,-1e-05,5.9999999999999995e-05,5
23999,25182,0.00025,5.9999999999999995e-05,-2.9999999999999997e-05,-0.0002,-0.00044,-2.9999999999999997e-05,-1e-05,5.9999999999999995e-05,5
24000,25183,0.00025,5.9999999999999995e-05,-2.9999999999999997e-05,-0.0002,-0.00044,-2.9999999999999997e-05,-1e-05,5.9999999999999995e-05,5
24001,25184,-0.00016,-2.9999999999999997e-05,4e-05,-0.00043,-0.00064,-5e-05,-2.9999999999999997e-05,-0.00011,5
24002,25185,-0.00016,-2.9999999999999997e-05,4e-05,-0.00043,-0.00064,-5e-05,-2.9999999999999997e-05,-0.00011,5
24003,25187,-0.00016,-2.9999999999999997e-05,4e-05,-0.00043,-0.00064,-5e-05,-2.9999999999999997e-05,-0.00011,5
24004,25189,-0.00016,-2.9999999999999997e-05,4e-05,-0.00043,-0.00064,-5e-05,-2.9999999999999997e-05,-0.00011,5
24005,25190,-0.00016,-2.9999999999999997e-05,4e-05,-0.00043,-0.00064,-5e-05,-2.9999999999999997e-05,-0.00011,5
24006,25191,-0.00016,-2.9999999999999997e-05,4e-05,-0.00043,-0.00064,-5e-05,-2.9999999999999997e-05,-0.00011,5
24007,25192,-0.00016,-2.9999999999999997e-05,4e-05,-0.00043,-0.00064,-5e-05,-2.9999999999999997e-05,-0.00011,5
24008,25193,-0.00016,-2.9999999999999997e-05,4e-05,-0.00043,-0.00064,-5e-05,-2.9999999999999997e-05,-0.00011,5
24009,25194,-0.00016,-2.9999999999999997e-05,4e-05,-0.00043,-0.00064,-5e-05,-2.9999999999999997e-05,-0.00011,5
24010,25195,-0.00016,-2.9999999999999997e-05,4e-05,-0.00043,-0.00064,-5e-05,-2.9999999999999997e-05,-0.00011,5
24011,25196,-0.00016,-2.9999999999999997e-05,4e-05,-0.00043,-0.00064,-5e-05,-2.9999999999999997e-05,-0.00011,5
24012,25197,-0.00016,-2.9999999999999997e-05,4e-05,-0.00043,-0.00064,-5e-05,-2.9999999999999997e-05,-0.00011,5
24013,25198,-0.00016,-2.9999999999999997e-05,4e-05,-0.00043,-0.00064,-5e-05,-2.9999999999999997e-05,-0.00011,5
24014,25199,-5.9999999999999995e-05,-1e-05,-0.00021,-0.00037999999999999997,0.00037999999999999997,0.00011,5e-05,0.00018,5
24015,25200,-0.00015,-2.9999999999999997e-05,-9e-05,-0.0003,0.00026000000000000003,-2e-05,0.0,-1e-05,5
24016,25201,-0.00015,-2.9999999999999997e-05,-9e-05,-0.0003,0.00026000000000000003,-2e-05,0.0,-1e-05,5
24017,25202,-0.00015,-2.9999999999999997e-05,-9e-05,-0.0003,0.00026000000000000003,-2e-05,0.0,-1e-05,5
24018,25203,-0.00015,-2.9999999999999997e-05,-9e-05,-0.0003,0.00026000000000000003,-2e-05,0.0,-1e-05,5
24019,25204,-0.00015,-2.9999999999999997e-05,-9e-05,-0.0003,0.00026000000000000003,-2e-05,0.0,-1e-05,5
24020,25205,-0.00015,-2.9999999999999997e-05,-9e-05,-0.0003,0.00026000000000000003,-2e-05,0.0,-1e-05,5
24021,25206,-0.00015,-2.9999999999999997e-05,-9e-05,-0.0003,0.00026000000000000003,-2e-05,0.0,-1e-05,5
24022,25207,-0.00015,-2.9999999999999997e-05,-9e-05,-0.0003,0.00026000000000000003,-2e-05,0.0,-1e-05,5
24023,25208,-0.00015,-2.9999999999999997e-05,-9e-05,-0.0003,0.00026000000000000003,-2e-05,0.0,-1e-05,5
24024,25209,-0.00015,-2.9999999999999997e-05,-9e-05,-0.0003,0.00026000000000000003,-2e-05,0.0,-1e-05,5
24025,25210,-0.00015,-2.9999999999999997e-05,-9e-05,-0.0003,0.00026000000000000003,-2e-05,0.0,-1e-05,5
24026,25211,-0.00015,-2.9999999999999997e-05,-9e-05,-0.0003,0.00026000000000000003,-2e-05,0.0,-1e-05,5
24027,25212,-0.00015,-2.9999999999999997e-05,-9e-05,-0.0003,0.00026000000000000003,-2e-05,0.0,-1e-05,5
24028,25213,-0.00015,-2.9999999999999997e-05,-9e-05,-0.0003,0.00026000000000000003,-2e-05,0.0,-1e-05,5
24029,25214,-0.00015,-2.9999999999999997e-05,-9e-05,-0.0003,0.00026000000000000003,-2e-05,0.0,-1e-05,5
24030,25215,-0.00015,-2.9999999999999997e-05,-9e-05,-0.0003,0.00026000000000000003,-2e-05,0.0,-1e-05,5
24031,25216,-0.00015,-2.9999999999999997e-05,-9e-05,-0.0003,0.00026000000000000003,-2e-05,0.0,-1e-05,5
24032,25217,-0.00015,-2.9999999999999997e-05,-9e-05,-0.0003,0.00026000000000000003,-2e-05,0.0,-1e-05,5
24033,25218,-0.00015,-2.9999999999999997e-05,-9e-05,-0.0003,0.00026000000000000003,-2e-05,0.0,-1e-05,5
24034,25219,-0.00015,-2.9999999999999997e-05,-9e-05,-0.0003,0.00026000000000000003,-2e-05,0.0,-1e-05,5
24035,25220,-0.00015,-2.9999999999999997e-05,-9e-05,-0.0003,0.00026000000000000003,-2e-05,0.0,-1e-05,5
24036,25221,-0.00015,-2.9999999999999997e-05,-9e-05,-0.0003,0.00026000000000000003,-2e-05,0.0,-1e-05,5
24037,25222,-2.9999999999999997e-05,-2e-05,-9e-05,-0.0005099999999999999,0.0002,5.9999999999999995e-05,0.0,2e-05,5
24038,25223,-2.9999999999999997e-05,-2e-05,-9e-05,-0.0005099999999999999,0.0002,5.9999999999999995e-05,0.0,2e-05,5
24039,25224,-2.9999999999999997e-05,-2e-05,-9e-05,-0.0005099999999999999,0.0002,5.9999999999999995e-05,0.0,2e-05,5
24040,25225,-2.9999999999999997e-05,-2e-05,-9e-05,-0.0005099999999999999,0.0002,5.9999999999999995e-05,0.0,2e-05,5
24041,25226,-2.9999999999999997e-05,-2e-05,-9e-05,-0.0005099999999999999,0.0002,5.9999999999999995e-05,0.0,2e-05,5
24042,25227,-2.9999999999999997e-05,-2e-05,-9e-05,-0.0005099999999999999,0.0002,5.9999999999999995e-05,0.0,2e-05,5
24043,25228,-2.9999999999999997e-05,-2e-05,-9e-05,-0.0005099999999999999,0.0002,5.9999999999999995e-05,0.0,2e-05,5
24044,25229,-2.9999999999999997e-05,-2e-05,-9e-05,-0.0005099999999999999,0.0002,5.9999999999999995e-05,0.0,2e-05,5
24045,25230,-2.9999999999999997e-05,-2e-05,-9e-05,-0.0005099999999999999,0.0002,5.9999999999999995e-05,0.0,2e-05,5
24046,25231,-2.9999999999999997e-05,-2e-05,-9e-05,-0.0005099999999999999,0.0002,5.9999999999999995e-05,0.0,2e-05,5
24047,25232,-2.9999999999999997e-05,-2e-05,-9e-05,-0.0005099999999999999,0.0002,5.9999999999999995e-05,0.0,2e-05,5
24048,25233,-2.9999999999999997e-05,-2e-05,-9e-05,-0.0005099999999999999,0.0002,5.9999999999999995e-05,0.0,2e-05,5
24049,25234,-2.9999999999999997e-05,-2e-05,-9e-05,-0.0005099999999999999,0.0002,5.9999999999999995e-05,0.0,2e-05,5
24050,25235,-2.9999999999999997e-05,-2e-05,-9e-05,-0.0005099999999999999,0.0002,5.9999999999999995e-05,0.0,2e-05,5
24051,25237,0.00014,5.9999999999999995e-05,0.00016999999999999999,0.0005200000000000001,0.00018999999999999998,4e-05,1e-05,2e-05,5
24052,25239,0.00014,5.9999999999999995e-05,0.00016999999999999999,0.0005200000000000001,0.00018999999999999998,4e-05,1e-05,2e-05,5
24053,25240,0.00014,5.9999999999999995e-05,0.00016999999999999999,0.0005200000000000001,0.00018999999999999998,4e-05,1e-05,2e-05,5
24054,25241,0.00014,5.9999999999999995e-05,0.00016999999999999999,0.0005200000000000001,0.00018999999999999998,4e-05,1e-05,2e-05,5
24055,25242,0.00014,5.9999999999999995e-05,0.00016999999999999999,0.0005200000000000001,0.00018999999999999998,4e-05,1e-05,2e-05,5
24056,25243,0.00014,5.9999999999999995e-05,0.00016999999999999999,0.0005200000000000001,0.00018999999999999998,4e-05,1e-05,2e-05,5
24057,25244,0.00018,0.0001,0.00026000000000000003,-0.00021,0.00014,2e-05,-2e-05,-2.9999999999999997e-05,5
24058,25245,0.00018,0.0001,0.00026000000000000003,-0.00021,0.00014,2e-05,-2e-05,-2.9999999999999997e-05,5
24059,25246,0.00018,0.0001,0.00026000000000000003,-0.00021,0.00014,2e-05,-2e-05,-2.9999999999999997e-05,5
24060,25247,0.00018,0.0001,0.00026000000000000003,-0.00021,0.00014,2e-05,-2e-05,-2.9999999999999997e-05,5
24061,25248,0.00018,0.0001,0.00026000000000000003,-0.00021,0.00014,2e-05,-2e-05,-2.9999999999999997e-05,5
24062,25249,0.00018,0.0001,0.00026000000000000003,-0.00021,0.00014,2e-05,-2e-05,-2.9999999999999997e-05,5
24063,25250,0.00018,0.0001,0.00026000000000000003,-0.00021,0.00014,2e-05,-2e-05,-2.9999999999999997e-05,5
24064,25251,0.00018,0.0001,0.00026000000000000003,-0.00021,0.00014,2e-05,-2e-05,-2.9999999999999997e-05,5
24065,25252,0.00018,0.0001,0.00026000000000000003,-0.00021,0.00014,2e-05,-2e-05,-2.9999999999999997e-05,5
24066,25253,0.00018,0.0001,0.00026000000000000003,-0.00021,0.00014,2e-05,-2e-05,-2.9999999999999997e-05,5
24067,25254,0.00018,0.0001,0.00026000000000000003,-0.00021,0.00014,2e-05,-2e-05,-2.9999999999999997e-05,5
24068,25255,0.00018,0.0001,0.00026000000000000003,-0.00021,0.00014,2e-05,-2e-05,-2.9999999999999997e-05,5
24069,25256,0.00018,0.0001,0.00026000000000000003,-0.00021,0.00014,2e-05,-2e-05,-2.9999999999999997e-05,5
24070,25257,0.00018,0.0001,0.00026000000000000003,-0.00021,0.00014,2e-05,-2e-05,-2.9999999999999997e-05,5
24071,25258,0.00018,0.0001,0.00026000000000000003,-0.00021,0.00014,2e-05,-2e-05,-2.9999999999999997e-05,5
24072,25259,-0.00029,-0.00018,-9e-05,2e-05,-0.00047999999999999996,-2e-05,-2e-05,-8e-05,5
24073,25260,-0.00018,7e-05,8e-05,-0.00016,0.0,-7e-05,-4e-05,-4e-05,5
24074,25261,-0.00018,7e-05,8e-05,-0.00016,0.0,-7e-05,-4e-05,-4e-05,5
24075,25262,-0.00018,7e-05,8e-05,-0.00016,0.0,-7e-05,-4e-05,-4e-05,5
24076,25263,-0.00018,7e-05,8e-05,-0.00016,0.0,-7e-05,-4e-05,-4e-05,5
24077,25264,-0.00018,7e-05,8e-05,-0.00016,0.0,-7e-05,-4e-05,-4e-05,5
24078,25265,-0.00018,7e-05,8e-05,-0.00016,0.0,-7e-05,-4e-05,-4e-05,5
24079,25266,-0.00018,7e-05,8e-05,-0.00016,0.0,-7e-05,-4e-05,-4e-05,5
24080,25267,-0.00018,7e-05,8e-05,-0.00016,0.0,-7e-05,-4e-05,-4e-05,5
24081,25268,-0.00018,7e-05,8e-05,-0.00016,0.0,-7e-05,-4e-05,-4e-05,5
24082,25269,-0.00018,7e-05,8e-05,-0.00016,0.0,-7e-05,-4e-05,-4e-05,5
24083,25270,-0.00018,7e-05,8e-05,-0.00016,0.0,-7e-05,-4e-05,-4e-05,5
24084,25271,-0.00018,7e-05,8e-05,-0.00016,0.0,-7e-05,-4e-05,-4e-05,5
24085,25272,-0.00018,7e-05,8e-05,-0.00016,0.0,-7e-05,-4e-05,-4e-05,5
24086,25273,-0.00018,7e-05,8e-05,-0.00016,0.0,-7e-05,-4e-05,-4e-05,5
24087,25274,-0.00018,7e-05,8e-05,-0.00016,0.0,-7e-05,-4e-05,-4e-05,5
24088,25275,-0.00018,7e-05,8e-05,-0.00016,0.0,-7e-05,-4e-05,-4e-05,5
24089,25276,-0.00018,7e-05,8e-05,-0.00016,0.0,-7e-05,-4e-05,-4e-05,5
24090,25277,-0.00018,7e-05,8e-05,-0.00016,0.0,-7e-05,-4e-05,-4e-05,5
24091,25278,-0.00018,7e-05,8e-05,-0.00016,0.0,-7e-05,-4e-05,-4e-05,5
24092,25279,-0.00018,7e-05,8e-05,-0.00016,0.0,-7e-05,-4e-05,-4e-05,5
24093,25280,-0.00018,7e-05,8e-05,-0.00016,0.0,-7e-05,-4e-05,-4e-05,5
24094,25281,-0.00018,7e-05,8e-05,-0.00016,0.0,-7e-05,-4e-05,-4e-05,5
24095,25282,7e-05,5.9999999999999995e-05,1e-05,0.0005099999999999999,-0.00023999999999999998,0.0,0.0,-2.9999999999999997e-05,5
24096,25283,-2.9999999999999997e-05,-2.9999999999999997e-05,0.0,-0.00021,-0.00014,2e-05,0.0,4e-05,5
24097,25284,-2.9999999999999997e-05,-2.9999999999999997e-05,0.0,-0.00021,-0.00014,2e-05,0.0,4e-05,5
24098,25285,-2.9999999999999997e-05,-2.9999999999999997e-05,0.0,-0.00021,-0.00014,2e-05,0.0,4e-05,5
24099,25287,-2.9999999999999997e-05,-2.9999999999999997e-05,0.0,-0.00021,-0.00014,2e-05,0.0,4e-05,5
24100,25289,-2.9999999999999997e-05,-2.9999999999999997e-05,0.0,-0.00021,-0.00014,2e-05,0.0,4e-05,5
24101,25290,-2.9999999999999997e-05,-2.9999999999999997e-05,0.0,-0.00021,-0.00014,2e-05,0.0,4e-05,5
24102,25291,-2.9999999999999997e-05,-2.9999999999999997e-05,0.0,-0.00021,-0.00014,2e-05,0.0,4e-05,5
24103,25292,-2.9999999999999997e-05,-2.9999999999999997e-05,0.0,-0.00021,-0.00014,2e-05,0.0,4e-05,5
24104,25293,-2.9999999999999997e-05,-2.9999999999999997e-05,0.0,-0.00021,-0.00014,2e-05,0.0,4e-05,5
24105,25294,-2.9999999999999997e-05,-2.9999999999999997e-05,0.0,-0.00021,-0.00014,2e-05,0.0,4e-05,5
24106,25295,-2.9999999999999997e-05,-2.9999999999999997e-05,0.0,-0.00021,-0.00014,2e-05,0.0,4e-05,5
24107,25296,4e-05,-0.00015,-2.9999999999999997e-05,-0.00018999999999999998,-7e-05,-8e-05,-5e-05,-2.9999999999999997e-05,5
24108,25297,4e-05,-0.00015,-2.9999999999999997e-05,-0.00018999999999999998,-7e-05,-8e-05,-5e-05,-2.9999999999999997e-05,5
24109,25298,4e-05,-0.00015,-2.9999999999999997e-05,-0.00018999999999999998,-7e-05,-8e-05,-5e-05,-2.9999999999999997e-05,5
24110,25299,4e-05,-0.00015,-2.9999999999999997e-05,-0.00018999999999999998,-7e-05,-8e-05,-5e-05,-2.9999999999999997e-05,5
24111,25300,4e-05,-0.00015,-2.9999999999999997e-05,-0.00018999999999999998,-7e-05,-8e-05,-5e-05,-2.9999999999999997e-05,5
24112,25301,4e-05,-0.00015,-2.9999999999999997e-05,-0.00018999999999999998,-7e-05,-8e-05,-5e-05,-2.9999999999999997e-05,5
24113,25302,4e-05,-0.00015,-2.9999999999999997e-05,-0.00018999999999999998,-7e-05,-8e-05,-5e-05,-2.9999999999999997e-05,5
24114,25303,4e-05,-0.00015,-2.9999999999999997e-05,-0.00018999999999999998,-7e-05,-8e-05,-5e-05,-2.9999999999999997e-05,5
24115,25304,-0.00025,-0.00021,-0.00039,-0.00037999999999999997,-0.00011,-4e-05,-1e-05,-4e-05,5
24116,25305,-0.00025,-0.00021,-0.00039,-0.00037999999999999997,-0.00011,-4e-05,-1e-05,-4e-05,5
24117,25306,-0.00025,-0.00021,-0.00039,-0.00037999999999999997,-0.00011,-4e-05,-1e-05,-4e-05,5
24118,25307,-0.00025,-0.00021,-0.00039,-0.00037999999999999997,-0.00011,-4e-05,-1e-05,-4e-05,5
24119,25308,-0.00025,-0.00021,-0.00039,-0.00037999999999999997,-0.00011,-4e-05,-1e-05,-4e-05,5
24120,25309,-0.00025,-0.00021,-0.00039,-0.00037999999999999997,-0.00011,-4e-05,-1e-05,-4e-05,5
24121,25310,-0.00025,-0.00021,-0.00039,-0.00037999999999999997,-0.00011,-4e-05,-1e-05,-4e-05,5
24122,25311,-0.00025,-0.00021,-0.00039,-0.00037999999999999997,-0.00011,-4e-05,-1e-05,-4e-05,5
24123,25312,-0.00025,-0.00021,-0.00039,-0.00037999999999999997,-0.00011,-4e-05,-1e-05,-4e-05,5
24124,25313,-0.00025,-0.00021,-0.00039,-0.00037999999999999997,-0.00011,-4e-05,-1e-05,-4e-05,5
24125,25314,-0.00025,-0.00021,-0.00039,-0.00037999999999999997,-0.00011,-4e-05,-1e-05,-4e-05,5
24126,25315,-0.00025,-0.00021,-0.00039,-0.00037999999999999997,-0.00011,-4e-05,-1e-05,-4e-05,5
24127,25316,-0.00025,-0.00021,-0.00039,-0.00037999999999999997,-0.00011,-4e-05,-1e-05,-4e-05,5
24128,25317,-0.00025,-0.00021,-0.00039,-0.00037999999999999997,-0.00011,-4e-05,-1e-05,-4e-05,5
24129,25318,-0.00025,-0.00021,-0.00039,-0.00037999999999999997,-0.00011,-4e-05,-1e-05,-4e-05,5
24130,25319,5.9999999999999995e-05,5e-05,2e-05,-0.00042,-0.00049,-2e-05,-1e-05,4e-05,5
24131,25320,5e-05,-0.0001,-0.00023999999999999998,0.00084,0.00025,0.00011999999999999999,2.9999999999999997e-05,1e-05,5
24132,25321,5e-05,-0.0001,-0.00023999999999999998,0.00084,0.00025,0.00011999999999999999,2.9999999999999997e-05,1e-05,5
24133,25322,5e-05,-0.0001,-0.00023999999999999998,0.00084,0.00025,0.00011999999999999999,2.9999999999999997e-05,1e-05,5
24134,25323,5e-05,-0.0001,-0.00023999999999999998,0.00084,0.00025,0.00011999999999999999,2.9999999999999997e-05,1e-05,5
24135,25324,5e-05,-0.0001,-0.00023999999999999998,0.00084,0.00025,0.00011999999999999999,2.9999999999999997e-05,1e-05,5
24136,25325,5e-05,-0.0001,-0.00023999999999999998,0.00084,0.00025,0.00011999999999999999,2.9999999999999997e-05,1e-05,5
24137,25326,5e-05,-0.0001,-0.00023999999999999998,0.00084,0.00025,0.00011999999999999999,2.9999999999999997e-05,1e-05,5
24138,25327,5e-05,-0.0001,-0.00023999999999999998,0.00084,0.00025,0.00011999999999999999,2.9999999999999997e-05,1e-05,5
24139,25328,5e-05,-0.0001,-0.00023999999999999998,0.00084,0.00025,0.00011999999999999999,2.9999999999999997e-05,1e-05,5
24140,25329,5e-05,-0.0001,-0.00023999999999999998,0.00084,0.00025,0.00011999999999999999,2.9999999999999997e-05,1e-05,5
24141,25330,5e-05,-0.0001,-0.00023999999999999998,0.00084,0.00025,0.00011999999999999999,2.9999999999999997e-05,1e-05,5
24142,25331,5e-05,-0.0001,-0.00023999999999999998,0.00084,0.00025,0.00011999999999999999,2.9999999999999997e-05,1e-05,5
24143,25332,5e-05,-0.0001,-0.00023999999999999998,0.00084,0.00025,0.00011999999999999999,2.9999999999999997e-05,1e-05,5
24144,25333,5e-05,-0.0001,-0.00023999999999999998,0.00084,0.00025,0.00011999999999999999,2.9999999999999997e-05,1e-05,5
24145,25334,5e-05,-0.0001,-0.00023999999999999998,0.00084,0.00025,0.00011999999999999999,2.9999999999999997e-05,1e-05,5
24146,25335,5e-05,-0.0001,-0.00023999999999999998,0.00084,0.00025,0.00011999999999999999,2.9999999999999997e-05,1e-05,5
24147,25337,5e-05,-0.0001,-0.00023999999999999998,0.00084,0.00025,0.00011999999999999999,2.9999999999999997e-05,1e-05,5
24148,25339,5e-05,-0.0001,-0.00023999999999999998,0.00084,0.00025,0.00011999999999999999,2.9999999999999997e-05,1e-05,5
24149,25340,5e-05,-0.0001,-0.00023999999999999998,0.00084,0.00025,0.00011999999999999999,2.9999999999999997e-05,1e-05,5
24150,25341,5e-05,-0.0001,-0.00023999999999999998,0.00084,0.00025,0.00011999999999999999,2.9999999999999997e-05,1e-05,5
24151,25342,-5.9999999999999995e-05,0.0,1e-05,-0.00047999999999999996,-1e-05,2.9999999999999997e-05,-2e-05,-1e-05,5
24152,25343,-0.0001,5.9999999999999995e-05,0.00016,0.0008300000000000001,0.00018999999999999998,-0.00011,-2.9999999999999997e-05,0.0,5
24153,25344,-0.0001,5.9999999999999995e-05,0.00016,0.0008300000000000001,0.00018999999999999998,-0.00011,-2.9999999999999997e-05,0.0,5
24154,25345,-0.0001,5.9999999999999995e-05,0.00016,0.0008300000000000001,0.00018999999999999998,-0.00011,-2.9999999999999997e-05,0.0,5
24155,25346,-0.0001,5.9999999999999995e-05,0.00016,0.0008300000000000001,0.00018999999999999998,-0.00011,-2.9999999999999997e-05,0.0,5
24156,25347,-0.0001,5.9999999999999995e-05,0.00016,0.0008300000000000001,0.00018999999999999998,-0.00011,-2.9999999999999997e-05,0.0,5
24157,25348,-0.0001,5.9999999999999995e-05,0.00016,0.0008300000000000001,0.00018999999999999998,-0.00011,-2.9999999999999997e-05,0.0,5
24158,25349,-0.0001,5.9999999999999995e-05,0.00016,0.0008300000000000001,0.00018999999999999998,-0.00011,-2.9999999999999997e-05,0.0,5
24159,25350,-0.0001,5.9999999999999995e-05,0.00016,0.0008300000000000001,0.00018999999999999998,-0.00011,-2.9999999999999997e-05,0.0,5
24160,25351,-0.0001,5.9999999999999995e-05,0.00016,0.0008300000000000001,0.00018999999999999998,-0.00011,-2.9999999999999997e-05,0.0,5
24161,25352,-0.0001,5.9999999999999995e-05,0.00016,0.0008300000000000001,0.00018999999999999998,-0.00011,-2.9999999999999997e-05,0.0,5
24162,25353,-0.0001,5.9999999999999995e-05,0.00016,0.0008300000000000001,0.00018999999999999998,-0.00011,-2.9999999999999997e-05,0.0,5
24163,25354,-0.0001,5.9999999999999995e-05,0.00016,0.0008300000000000001,0.00018999999999999998,-0.00011,-2.9999999999999997e-05,0.0,5
24164,25355,-0.0001,5.9999999999999995e-05,0.00016,0.0008300000000000001,0.00018999999999999998,-0.00011,-2.9999999999999997e-05,0.0,5
24165,25356,-8e-05,-0.00014,5e-05,0.00043,0.00067,2.9999999999999997e-05,-1e-05,-5.9999999999999995e-05,5
24166,25357,-8e-05,-0.00014,5e-05,0.00043,0.00067,2.9999999999999997e-05,-1e-05,-5.9999999999999995e-05,5
24167,25358,-8e-05,-0.00014,5e-05,0.00043,0.00067,2.9999999999999997e-05,-1e-05,-5.9999999999999995e-05,5
24168,25359,-8e-05,-0.00014,5e-05,0.00043,0.00067,2.9999999999999997e-05,-1e-05,-5.9999999999999995e-05,5
24169,25360,-8e-05,-0.00014,5e-05,0.00043,0.00067,2.9999999999999997e-05,-1e-05,-5.9999999999999995e-05,5
24170,25361,-8e-05,-0.00014,5e-05,0.00043,0.00067,2.9999999999999997e-05,-1e-05,-5.9999999999999995e-05,5
24171,25362,-8e-05,-0.00014,5e-05,0.00043,0.00067,2.9999999999999997e-05,-1e-05,-5.9999999999999995e-05,5
24172,25363,-8e-05,-0.00014,5e-05,0.00043,0.00067,2.9999999999999997e-05,-1e-05,-5.9999999999999995e-05,5
24173,25364,0.00037,-2e-05,-9e-05,-0.0008300000000000001,9e-05,-2.9999999999999997e-05,-2e-05,1e-05,5
24174,25365,0.00037,-2e-05,-9e-05,-0.0008300000000000001,9e-05,-2.9999999999999997e-05,-2e-05,1e-05,5
24175,25366,0.00037,-2e-05,-9e-05,-0.0008300000000000001,9e-05,-2.9999999999999997e-05,-2e-05,1e-05,5
24176,25367,0.00037,-2e-05,-9e-05,-0.0008300000000000001,9e-05,-2.9999999999999997e-05,-2e-05,1e-05,5
24177,25368,0.00037,-2e-05,-9e-05,-0.0008300000000000001,9e-05,-2.9999999999999997e-05,-2e-05,1e-05,5
24178,25369,0.00037,-2e-05,-9e-05,-0.0008300000000000001,9e-05,-2.9999999999999997e-05,-2e-05,1e-05,5
24179,25370,0.00037,-2e-05,-9e-05,-0.0008300000000000001,9e-05,-2.9999999999999997e-05,-2e-05,1e-05,5
24180,25371,0.00037,-2e-05,-9e-05,-0.0008300000000000001,9e-05,-2.9999999999999997e-05,-2e-05,1e-05,5
24181,25372,0.00037,-2e-05,-9e-05,-0.0008300000000000001,9e-05,-2.9999999999999997e-05,-2e-05,1e-05,5
24182,25373,0.00037,-2e-05,-9e-05,-0.0008300000000000001,9e-05,-2.9999999999999997e-05,-2e-05,1e-05,5
24183,25374,0.00037,-2e-05,-9e-05,-0.0008300000000000001,9e-05,-2.9999999999999997e-05,-2e-05,1e-05,5
24184,25375,0.00037,-2e-05,-9e-05,-0.0008300000000000001,9e-05,-2.9999999999999997e-05,-2e-05,1e-05,5
24185,25376,0.00037,-2e-05,-9e-05,-0.0008300000000000001,9e-05,-2.9999999999999997e-05,-2e-05,1e-05,5
24186,25377,0.00037,-2e-05,-9e-05,-0.0008300000000000001,9e-05,-2.9999999999999997e-05,-2e-05,1e-05,5
24187,25378,0.00037,-2e-05,-9e-05,-0.0008300000000000001,9e-05,-2.9999999999999997e-05,-2e-05,1e-05,5
24188,25379,0.00013000000000000002,0.00016999999999999999,0.0002,0.0006,-0.00022999999999999998,2e-05,1e-05,-1e-05,5
24189,25380,0.0004,4e-05,4e-05,-8e-05,-0.00031,-4e-05,-1e-05,2.9999999999999997e-05,5
24190,25381,0.0004,4e-05,4e-05,-8e-05,-0.00031,-4e-05,-1e-05,2.9999999999999997e-05,5
24191,25382,0.0004,4e-05,4e-05,-8e-05,-0.00031,-4e-05,-1e-05,2.9999999999999997e-05,5
24192,25383,0.0004,4e-05,4e-05,-8e-05,-0.00031,-4e-05,-1e-05,2.9999999999999997e-05,5
24193,25384,0.0004,4e-05,4e-05,-8e-05,-0.00031,-4e-05,-1e-05,2.9999999999999997e-05,5
24194,25385,0.0004,4e-05,4e-05,-8e-05,-0.00031,-4e-05,-1e-05,2.9999999999999997e-05,5
24195,25387,0.0004,4e-05,4e-05,-8e-05,-0.00031,-4e-05,-1e-05,2.9999999999999997e-05,5
24196,25389,0.0004,4e-05,4e-05,-8e-05,-0.00031,-4e-05,-1e-05,2.9999999999999997e-05,5
24197,25390,0.0004,4e-05,4e-05,-8e-05,-0.00031,-4e-05,-1e-05,2.9999999999999997e-05,5
24198,25391,0.0004,4e-05,4e-05,-8e-05,-0.00031,-4e-05,-1e-05,2.9999999999999997e-05,5
24199,25392,0.0004,4e-05,4e-05,-8e-05,-0.00031,-4e-05,-1e-05,2.9999999999999997e-05,5
24200,25393,0.0004,4e-05,4e-05,-8e-05,-0.00031,-4e-05,-1e-05,2.9999999999999997e-05,5
24201,25394,0.0004,4e-05,4e-05,-8e-05,-0.00031,-4e-05,-1e-05,2.9999999999999997e-05,5
24202,25395,0.0004,4e-05,4e-05,-8e-05,-0.00031,-4e-05,-1e-05,2.9999999999999997e-05,5
24203,25396,0.0004,4e-05,4e-05,-8e-05,-0.00031,-4e-05,-1e-05,2.9999999999999997e-05,5
24204,25397,0.0004,4e-05,4e-05,-8e-05,-0.00031,-4e-05,-1e-05,2.9999999999999997e-05,5
24205,25398,0.0004,4e-05,4e-05,-8e-05,-0.00031,-4e-05,-1e-05,2.9999999999999997e-05,5
24206,25399,0.0004,4e-05,4e-05,-8e-05,-0.00031,-4e-05,-1e-05,2.9999999999999997e-05,5
24207,25400,0.0004,4e-05,4e-05,-8e-05,-0.00031,-4e-05,-1e-05,2.9999999999999997e-05,5
24208,25401,0.0004,4e-05,4e-05,-8e-05,-0.00031,-4e-05,-1e-05,2.9999999999999997e-05,5
24209,25402,-8e-05,-4e-05,-0.00015,-0.00049,0.00037,0.0,-2e-05,2e-05,5
24210,25403,-0.0001,0.0001,0.0001,-0.00015,0.00026000000000000003,-2.9999999999999997e-05,0.0,-1e-05,5
24211,25404,-0.0001,0.0001,0.0001,-0.00015,0.00026000000000000003,-2.9999999999999997e-05,0.0,-1e-05,5
24212,25405,-0.0001,0.0001,0.0001,-0.00015,0.00026000000000000003,-2.9999999999999997e-05,0.0,-1e-05,5
24213,25406,-0.0001,0.0001,0.0001,-0.00015,0.00026000000000000003,-2.9999999999999997e-05,0.0,-1e-05,5
24214,25407,-0.0001,0.0001,0.0001,-0.00015,0.00026000000000000003,-2.9999999999999997e-05,0.0,-1e-05,5
24215,25408,-0.0001,0.0001,0.0001,-0.00015,0.00026000000000000003,-2.9999999999999997e-05,0.0,-1e-05,5
24216,25409,-0.0001,0.0001,0.0001,-0.00015,0.00026000000000000003,-2.9999999999999997e-05,0.0,-1e-05,5
24217,25410,-0.0001,0.0001,0.0001,-0.00015,0.00026000000000000003,-2.9999999999999997e-05,0.0,-1e-05,5
24218,25411,-0.0001,0.0001,0.0001,-0.00015,0.00026000000000000003,-2.9999999999999997e-05,0.0,-1e-05,5
24219,25412,-0.0001,0.0001,0.0001,-0.00015,0.00026000000000000003,-2.9999999999999997e-05,0.0,-1e-05,5
24220,25413,-0.0001,0.0001,0.0001,-0.00015,0.00026000000000000003,-2.9999999999999997e-05,0.0,-1e-05,5
24221,25414,-0.0001,0.0001,0.0001,-0.00015,0.00026000000000000003,-2.9999999999999997e-05,0.0,-1e-05,5
24222,25415,-0.0001,0.0001,0.0001,-0.00015,0.00026000000000000003,-2.9999999999999997e-05,0.0,-1e-05,5
24223,25416,-0.0001,-4e-05,0.0002,-7e-05,-0.00047999999999999996,-2e-05,-2.9999999999999997e-05,-5.9999999999999995e-05,5
24224,25417,-0.0001,-4e-05,0.0002,-7e-05,-0.00047999999999999996,-2e-05,-2.9999999999999997e-05,-5.9999999999999995e-05,5
24225,25418,-0.0001,-4e-05,0.0002,-7e-05,-0.00047999999999999996,-2e-05,-2.9999999999999997e-05,-5.9999999999999995e-05,5
24226,25419,-0.0001,-4e-05,0.0002,-7e-05,-0.00047999999999999996,-2e-05,-2.9999999999999997e-05,-5.9999999999999995e-05,5
24227,25420,-0.0001,-4e-05,0.0002,-7e-05,-0.00047999999999999996,-2e-05,-2.9999999999999997e-05,-5.9999999999999995e-05,5
24228,25421,-0.0001,-4e-05,0.0002,-7e-05,-0.00047999999999999996,-2e-05,-2.9999999999999997e-05,-5.9999999999999995e-05,5
24229,25422,-0.0001,-4e-05,0.0002,-7e-05,-0.00047999999999999996,-2e-05,-2.9999999999999997e-05,-5.9999999999999995e-05,5
24230,25423,-0.0001,-4e-05,0.0002,-7e-05,-0.00047999999999999996,-2e-05,-2.9999999999999997e-05,-5.9999999999999995e-05,5
24231,25424,-0.00016999999999999999,-5.9999999999999995e-05,5e-05,2e-05,-0.00016,-2e-05,1e-05,-5e-05,5
24232,25425,-0.00016999999999999999,-5.9999999999999995e-05,5e-05,2e-05,-0.00016,-2e-05,1e-05,-5e-05,5
24233,25426,-0.00016999999999999999,-5.9999999999999995e-05,5e-05,2e-05,-0.00016,-2e-05,1e-05,-5e-05,5
24234,25427,-0.00016999999999999999,-5.9999999999999995e-05,5e-05,2e-05,-0.00016,-2e-05,1e-05,-5e-05,5
24235,25428,-0.00016999999999999999,-5.9999999999999995e-05,5e-05,2e-05,-0.00016,-2e-05,1e-05,-5e-05,5
24236,25429,-0.00016999999999999999,-5.9999999999999995e-05,5e-05,2e-05,-0.00016,-2e-05,1e-05,-5e-05,5
24237,25430,-0.00016999999999999999,-5.9999999999999995e-05,5e-05,2e-05,-0.00016,-2e-05,1e-05,-5e-05,5
24238,25431,-0.00016999999999999999,-5.9999999999999995e-05,5e-05,2e-05,-0.00016,-2e-05,1e-05,-5e-05,5
24239,25432,-0.00016999999999999999,-5.9999999999999995e-05,5e-05,2e-05,-0.00016,-2e-05,1e-05,-5e-05,5
24240,25433,-0.00016999999999999999,-5.9999999999999995e-05,5e-05,2e-05,-0.00016,-2e-05,1e-05,-5e-05,5
24241,25434,-0.00016999999999999999,-5.9999999999999995e-05,5e-05,2e-05,-0.00016,-2e-05,1e-05,-5e-05,5
24242,25435,-0.00016999999999999999,-5.9999999999999995e-05,5e-05,2e-05,-0.00016,-2e-05,1e-05,-5e-05,5
24243,25437,-0.00016999999999999999,-5.9999999999999995e-05,5e-05,2e-05,-0.00016,-2e-05,1e-05,-5e-05,5
24244,25439,4e-05,0.00014,1e-05,0.00025,0.00029,2.9999999999999997e-05,2e-05,2e-05,5
24245,25440,-0.00029,-0.00016,-0.00011,-0.0001,-0.00018999999999999998,-8e-05,-2.9999999999999997e-05,-7e-05,5
24246,25441,-0.00029,-0.00016,-0.00011,-0.0001,-0.00018999999999999998,-8e-05,-2.9999999999999997e-05,-7e-05,5
24247,25442,-0.00029,-0.00016,-0.00011,-0.0001,-0.00018999999999999998,-8e-05,-2.9999999999999997e-05,-7e-05,5
24248,25443,-0.00029,-0.00016,-0.00011,-0.0001,-0.00018999999999999998,-8e-05,-2.9999999999999997e-05,-7e-05,5
24249,25444,-0.00029,-0.00016,-0.00011,-0.0001,-0.00018999999999999998,-8e-05,-2.9999999999999997e-05,-7e-05,5
24250,25445,-0.00029,-0.00016,-0.00011,-0.0001,-0.00018999999999999998,-8e-05,-2.9999999999999997e-05,-7e-05,5
24251,25446,-0.00029,-0.00016,-0.00011,-0.0001,-0.00018999999999999998,-8e-05,-2.9999999999999997e-05,-7e-05,5
24252,25447,-0.00029,-0.00016,-0.00011,-0.0001,-0.00018999999999999998,-8e-05,-2.9999999999999997e-05,-7e-05,5
24253,25448,-0.00029,-0.00016,-0.00011,-0.0001,-0.00018999999999999998,-8e-05,-2.9999999999999997e-05,-7e-05,5
24254,25449,-0.00029,-0.00016,-0.00011,-0.0001,-0.00018999999999999998,-8e-05,-2.9999999999999997e-05,-7e-05,5
24255,25450,-0.00029,-0.00016,-0.00011,-0.0001,-0.00018999999999999998,-8e-05,-2.9999999999999997e-05,-7e-05,5
24256,25451,-0.00029,-0.00016,-0.00011,-0.0001,-0.00018999999999999998,-8e-05,-2.9999999999999997e-05,-7e-05,5
24257,25452,-0.00029,-0.00016,-0.00011,-0.0001,-0.00018999999999999998,-8e-05,-2.9999999999999997e-05,-7e-05,5
24258,25453,-0.00029,-0.00016,-0.00011,-0.0001,-0.00018999999999999998,-8e-05,-2.9999999999999997e-05,-7e-05,5
24259,25454,-0.00029,-0.00016,-0.00011,-0.0001,-0.00018999999999999998,-8e-05,-2.9999999999999997e-05,-7e-05,5
24260,25455,-0.00029,-0.00016,-0.00011,-0.0001,-0.00018999999999999998,-8e-05,-2.9999999999999997e-05,-7e-05,5
24261,25456,-0.00029,-0.00016,-0.00011,-0.0001,-0.00018999999999999998,-8e-05,-2.9999999999999997e-05,-7e-05,5
24262,25457,-0.00029,-0.00016,-0.00011,-0.0001,-0.00018999999999999998,-8e-05,-2.9999999999999997e-05,-7e-05,5
24263,25458,-0.00029,-0.00016,-0.00011,-0.0001,-0.00018999999999999998,-8e-05,-2.9999999999999997e-05,-7e-05,5
24264,25459,-0.00029,-0.00016,-0.00011,-0.0001,-0.00018999999999999998,-8e-05,-2.9999999999999997e-05,-7e-05,5
24265,25460,-0.00029,-0.00016,-0.00011,-0.0001,-0.00018999999999999998,-8e-05,-2.9999999999999997e-05,-7e-05,5
24266,25461,-0.00029,-0.00016,-0.00011,-0.0001,-0.00018999999999999998,-8e-05,-2.9999999999999997e-05,-7e-05,5
24267,25462,-0.00032,-7e-05,2e-05,0.00061,1e-05,0.00011999999999999999,0.0,-0.00016,5
24268,25463,-0.00032,-7e-05,2e-05,0.00061,1e-05,0.00011999999999999999,0.0,-0.00016,5
24269,25464,-0.00032,-7e-05,2e-05,0.00061,1e-05,0.00011999999999999999,0.0,-0.00016,5
24270,25465,-0.00032,-7e-05,2e-05,0.00061,1e-05,0.00011999999999999999,0.0,-0.00016,5
24271,25466,-0.00032,-7e-05,2e-05,0.00061,1e-05,0.00011999999999999999,0.0,-0.00016,5
24272,25467,-0.00032,-7e-05,2e-05,0.00061,1e-05,0.00011999999999999999,0.0,-0.00016,5
24273,25468,-0.00032,-7e-05,2e-05,0.00061,1e-05,0.00011999999999999999,0.0,-0.00016,5
24274,25469,-0.00032,-7e-05,2e-05,0.00061,1e-05,0.00011999999999999999,0.0,-0.00016,5
24275,25470,-0.00032,-7e-05,2e-05,0.00061,1e-05,0.00011999999999999999,0.0,-0.00016,5
24276,25471,-0.00032,-7e-05,2e-05,0.00061,1e-05,0.00011999999999999999,0.0,-0.00016,5
24277,25472,-0.00032,-7e-05,2e-05,0.00061,1e-05,0.00011999999999999999,0.0,-0.00016,5
24278,25473,-0.00032,-7e-05,2e-05,0.00061,1e-05,0.00011999999999999999,0.0,-0.00016,5
24279,25474,-0.00032,-7e-05,2e-05,0.00061,1e-05,0.00011999999999999999,0.0,-0.00016,5
24280,25475,-0.00032,-7e-05,2e-05,0.00061,1e-05,0.00011999999999999999,0.0,-0.00016,5
24281,25476,-0.00032,-7e-05,2e-05,0.00061,1e-05,0.00011999999999999999,0.0,-0.00016,5
24282,25477,-0.00032,-7e-05,2e-05,0.00061,1e-05,0.00011999999999999999,0.0,-0.00016,5
24283,25478,-0.00032,-7e-05,2e-05,0.00061,1e-05,0.00011999999999999999,0.0,-0.00016,5
24284,25479,-0.00032,-7e-05,2e-05,0.00061,1e-05,0.00011999999999999999,0.0,-0.00016,5
24285,25480,-0.00032,-7e-05,2e-05,0.00061,1e-05,0.00011999999999999999,0.0,-0.00016,5
24286,25481,-0.00032,-7e-05,2e-05,0.00061,1e-05,0.00011999999999999999,0.0,-0.00016,5
24287,25482,-0.00032,-7e-05,2e-05,0.00061,1e-05,0.00011999999999999999,0.0,-0.00016,5
24288,25483,-0.00032,-7e-05,2e-05,0.00061,1e-05,0.00011999999999999999,0.0,-0.00016,5
24289,25484,-0.00032,-7e-05,2e-05,0.00061,1e-05,0.00011999999999999999,0.0,-0.00016,5
24290,25485,0.0,-0.00014,-0.00041,0.0004,0.001,0.00014,-2e-05,-5.9999999999999995e-05,5
24291,25487,1e-05,2e-05,2.9999999999999997e-05,-0.00043,4e-05,2e-05,2e-05,0.0,5
24292,25489,1e-05,2e-05,2.9999999999999997e-05,-0.00043,4e-05,2e-05,2e-05,0.0,5
24293,25490,1e-05,2e-05,2.9999999999999997e-05,-0.00043,4e-05,2e-05,2e-05,0.0,5
24294,25491,1e-05,2e-05,2.9999999999999997e-05,-0.00043,4e-05,2e-05,2e-05,0.0,5
24295,25492,1e-05,2e-05,2.9999999999999997e-05,-0.00043,4e-05,2e-05,2e-05,0.0,5
24296,25493,1e-05,2e-05,2.9999999999999997e-05,-0.00043,4e-05,2e-05,2e-05,0.0,5
24297,25494,1e-05,2e-05,2.9999999999999997e-05,-0.00043,4e-05,2e-05,2e-05,0.0,5
24298,25495,1e-05,2e-05,2.9999999999999997e-05,-0.00043,4e-05,2e-05,2e-05,0.0,5
24299,25496,1e-05,2e-05,2.9999999999999997e-05,-0.00043,4e-05,2e-05,2e-05,0.0,5
24300,25497,1e-05,2e-05,2.9999999999999997e-05,-0.00043,4e-05,2e-05,2e-05,0.0,5
24301,25498,1e-05,2e-05,2.9999999999999997e-05,-0.00043,4e-05,2e-05,2e-05,0.0,5
24302,25499,0.0,0.00011,0.00022,0.0005099999999999999,-0.00043,-9e-05,0.0,2e-05,5
24303,25500,7e-05,5e-05,2.9999999999999997e-05,7e-05,-0.00037999999999999997,-5.9999999999999995e-05,-1e-05,2e-05,5
24304,25501,7e-05,5e-05,2.9999999999999997e-05,7e-05,-0.00037999999999999997,-5.9999999999999995e-05,-1e-05,2e-05,5
24305,25502,7e-05,5e-05,2.9999999999999997e-05,7e-05,-0.00037999999999999997,-5.9999999999999995e-05,-1e-05,2e-05,5
24306,25503,7e-05,5e-05,2.9999999999999997e-05,7e-05,-0.00037999999999999997,-5.9999999999999995e-05,-1e-05,2e-05,5
24307,25504,7e-05,5e-05,2.9999999999999997e-05,7e-05,-0.00037999999999999997,-5.9999999999999995e-05,-1e-05,2e-05,5
24308,25505,7e-05,5e-05,2.9999999999999997e-05,7e-05,-0.00037999999999999997,-5.9999999999999995e-05,-1e-05,2e-05,5
24309,25506,7e-05,5e-05,2.9999999999999997e-05,7e-05,-0.00037999999999999997,-5.9999999999999995e-05,-1e-05,2e-05,5
24310,25507,7e-05,5e-05,2.9999999999999997e-05,7e-05,-0.00037999999999999997,-5.9999999999999995e-05,-1e-05,2e-05,5
24311,25508,7e-05,5e-05,2.9999999999999997e-05,7e-05,-0.00037999999999999997,-5.9999999999999995e-05,-1e-05,2e-05,5
24312,25509,7e-05,5e-05,2.9999999999999997e-05,7e-05,-0.00037999999999999997,-5.9999999999999995e-05,-1e-05,2e-05,5
24313,25510,7e-05,5e-05,2.9999999999999997e-05,7e-05,-0.00037999999999999997,-5.9999999999999995e-05,-1e-05,2e-05,5
24314,25511,7e-05,5e-05,2.9999999999999997e-05,7e-05,-0.00037999999999999997,-5.9999999999999995e-05,-1e-05,2e-05,5
24315,25512,7e-05,5e-05,2.9999999999999997e-05,7e-05,-0.00037999999999999997,-5.9999999999999995e-05,-1e-05,2e-05,5
24316,25513,7e-05,5e-05,2.9999999999999997e-05,7e-05,-0.00037999999999999997,-5.9999999999999995e-05,-1e-05,2e-05,5
24317,25514,7e-05,5e-05,2.9999999999999997e-05,7e-05,-0.00037999999999999997,-5.9999999999999995e-05,-1e-05,2e-05,5
24318,25515,7e-05,5e-05,2.9999999999999997e-05,7e-05,-0.00037999999999999997,-5.9999999999999995e-05,-1e-05,2e-05,5
24319,25516,7e-05,5e-05,2.9999999999999997e-05,7e-05,-0.00037999999999999997,-5.9999999999999995e-05,-1e-05,2e-05,5
24320,25517,7e-05,5e-05,2.9999999999999997e-05,7e-05,-0.00037999999999999997,-5.9999999999999995e-05,-1e-05,2e-05,5
24321,25518,7e-05,5e-05,2.9999999999999997e-05,7e-05,-0.00037999999999999997,-5.9999999999999995e-05,-1e-05,2e-05,5
24322,25519,7e-05,5e-05,2.9999999999999997e-05,7e-05,-0.00037999999999999997,-5.9999999999999995e-05,-1e-05,2e-05,5
24323,25520,7e-05,5e-05,2.9999999999999997e-05,7e-05,-0.00037999999999999997,-5.9999999999999995e-05,-1e-05,2e-05,5
24324,25521,-0.00011999999999999999,-2.9999999999999997e-05,-4e-05,-0.0006,-0.00044,1e-05,1e-05,-1e-05,5
24325,25522,1e-05,-2.9999999999999997e-05,0.00047999999999999996,-0.00022999999999999998,-0.0006900000000000001,8e-05,1e-05,-2e-05,5
24326,25523,-2e-05,-5e-05,-5.9999999999999995e-05,4e-05,0.00025,-5e-05,-5e-05,-1e-05,5
24327,25524,-2e-05,-5e-05,-5.9999999999999995e-05,4e-05,0.00025,-5e-05,-5e-05,-1e-05,5
24328,25525,-2e-05,-5e-05,-5.9999999999999995e-05,4e-05,0.00025,-5e-05,-5e-05,-1e-05,5
24329,25526,-2e-05,-5e-05,-5.9999999999999995e-05,4e-05,0.00025,-5e-05,-5e-05,-1e-05,5
24330,25527,-2e-05,-5e-05,-5.9999999999999995e-05,4e-05,0.00025,-5e-05,-5e-05,-1e-05,5
24331,25528,-2e-05,-5e-05,-5.9999999999999995e-05,4e-05,0.00025,-5e-05,-5e-05,-1e-05,5
24332,25529,-2e-05,-5e-05,-5.9999999999999995e-05,4e-05,0.00025,-5e-05,-5e-05,-1e-05,5
24333,25530,-2e-05,-5e-05,-5.9999999999999995e-05,4e-05,0.00025,-5e-05,-5e-05,-1e-05,5
24334,25531,-2e-05,-5e-05,-5.9999999999999995e-05,4e-05,0.00025,-5e-05,-5e-05,-1e-05,5
24335,25532,-2e-05,-5e-05,-5.9999999999999995e-05,4e-05,0.00025,-5e-05,-5e-05,-1e-05,5
24336,25533,-2e-05,-5e-05,-5.9999999999999995e-05,4e-05,0.00025,-5e-05,-5e-05,-1e-05,5
24337,25534,-2e-05,-5e-05,-5.9999999999999995e-05,4e-05,0.00025,-5e-05,-5e-05,-1e-05,5
24338,25535,-2e-05,-5e-05,-5.9999999999999995e-05,4e-05,0.00025,-5e-05,-5e-05,-1e-05,5
24339,25537,-2e-05,-5e-05,-5.9999999999999995e-05,4e-05,0.00025,-5e-05,-5e-05,-1e-05,5
24340,25539,-2e-05,-5e-05,-5.9999999999999995e-05,4e-05,0.00025,-5e-05,-5e-05,-1e-05,5
24341,25540,-2e-05,-5e-05,-5.9999999999999995e-05,4e-05,0.00025,-5e-05,-5e-05,-1e-05,5
24342,25541,-2e-05,-5e-05,-5.9999999999999995e-05,4e-05,0.00025,-5e-05,-5e-05,-1e-05,5
24343,25542,-2e-05,-5e-05,-5.9999999999999995e-05,4e-05,0.00025,-5e-05,-5e-05,-1e-05,5
24344,25543,-2e-05,-5e-05,-5.9999999999999995e-05,4e-05,0.00025,-5e-05,-5e-05,-1e-05,5
24345,25544,-2e-05,-5e-05,-5.9999999999999995e-05,4e-05,0.00025,-5e-05,-5e-05,-1e-05,5
24346,25545,-5.9999999999999995e-05,-7e-05,-0.00015,-0.0007599999999999999,-0.00047000000000000004,-0.00033,-0.0001,-7e-05,5
24347,25546,5e-05,-2.9999999999999997e-05,-0.00023999999999999998,-0.00037,-8e-05,2.9999999999999997e-05,-1e-05,1e-05,5
24348,25547,5e-05,-2.9999999999999997e-05,-0.00023999999999999998,-0.00037,-8e-05,2.9999999999999997e-05,-1e-05,1e-05,5
24349,25548,5e-05,-2.9999999999999997e-05,-0.00023999999999999998,-0.00037,-8e-05,2.9999999999999997e-05,-1e-05,1e-05,5
24350,25549,5e-05,-2.9999999999999997e-05,-0.00023999999999999998,-0.00037,-8e-05,2.9999999999999997e-05,-1e-05,1e-05,5
24351,25550,5e-05,-2.9999999999999997e-05,-0.00023999999999999998,-0.00037,-8e-05,2.9999999999999997e-05,-1e-05,1e-05,5
24352,25551,5e-05,-2.9999999999999997e-05,-0.00023999999999999998,-0.00037,-8e-05,2.9999999999999997e-05,-1e-05,1e-05,5
24353,25552,5e-05,-2.9999999999999997e-05,-0.00023999999999999998,-0.00037,-8e-05,2.9999999999999997e-05,-1e-05,1e-05,5
24354,25553,5e-05,-2.9999999999999997e-05,-0.00023999999999999998,-0.00037,-8e-05,2.9999999999999997e-05,-1e-05,1e-05,5
24355,25554,5e-05,-2.9999999999999997e-05,-0.00023999999999999998,-0.00037,-8e-05,2.9999999999999997e-05,-1e-05,1e-05,5
24356,25555,5e-05,-2.9999999999999997e-05,-0.00023999999999999998,-0.00037,-8e-05,2.9999999999999997e-05,-1e-05,1e-05,5
24357,25556,5e-05,-2.9999999999999997e-05,-0.00023999999999999998,-0.00037,-8e-05,2.9999999999999997e-05,-1e-05,1e-05,5
24358,25557,5e-05,-2.9999999999999997e-05,-0.00023999999999999998,-0.00037,-8e-05,2.9999999999999997e-05,-1e-05,1e-05,5
24359,25558,5e-05,-2.9999999999999997e-05,-0.00023999999999999998,-0.00037,-8e-05,2.9999999999999997e-05,-1e-05,1e-05,5
24360,25559,-2.9999999999999997e-05,-9e-05,-0.00015,-0.00016,-0.00047000000000000004,-4e-05,-4e-05,-2e-05,5
24361,25560,8e-05,8e-05,7e-05,-0.00016999999999999999,-0.00022,-5e-05,-2.9999999999999997e-05,2.9999999999999997e-05,5
24362,25561,8e-05,8e-05,7e-05,-0.00016999999999999999,-0.00022,-5e-05,-2.9999999999999997e-05,2.9999999999999997e-05,5
24363,25562,8e-05,8e-05,7e-05,-0.00016999999999999999,-0.00022,-5e-05,-2.9999999999999997e-05,2.9999999999999997e-05,5
24364,25563,8e-05,8e-05,7e-05,-0.00016999999999999999,-0.00022,-5e-05,-2.9999999999999997e-05,2.9999999999999997e-05,5
24365,25564,8e-05,8e-05,7e-05,-0.00016999999999999999,-0.00022,-5e-05,-2.9999999999999997e-05,2.9999999999999997e-05,5
24366,25565,8e-05,8e-05,7e-05,-0.00016999999999999999,-0.00022,-5e-05,-2.9999999999999997e-05,2.9999999999999997e-05,5
24367,25566,8e-05,8e-05,7e-05,-0.00016999999999999999,-0.00022,-5e-05,-2.9999999999999997e-05,2.9999999999999997e-05,5
24368,25567,8e-05,8e-05,7e-05,-0.00016999999999999999,-0.00022,-5e-05,-2.9999999999999997e-05,2.9999999999999997e-05,5
24369,25568,8e-05,8e-05,7e-05,-0.00016999999999999999,-0.00022,-5e-05,-2.9999999999999997e-05,2.9999999999999997e-05,5
24370,25569,8e-05,8e-05,7e-05,-0.00016999999999999999,-0.00022,-5e-05,-2.9999999999999997e-05,2.9999999999999997e-05,5
24371,25570,8e-05,8e-05,7e-05,-0.00016999999999999999,-0.00022,-5e-05,-2.9999999999999997e-05,2.9999999999999997e-05,5
24372,25571,8e-05,8e-05,7e-05,-0.00016999999999999999,-0.00022,-5e-05,-2.9999999999999997e-05,2.9999999999999997e-05,5
24373,25572,8e-05,8e-05,7e-05,-0.00016999999999999999,-0.00022,-5e-05,-2.9999999999999997e-05,2.9999999999999997e-05,5
24374,25573,8e-05,8e-05,7e-05,-0.00016999999999999999,-0.00022,-5e-05,-2.9999999999999997e-05,2.9999999999999997e-05,5
24375,25574,8e-05,8e-05,7e-05,-0.00016999999999999999,-0.00022,-5e-05,-2.9999999999999997e-05,2.9999999999999997e-05,5
24376,25575,8e-05,8e-05,7e-05,-0.00016999999999999999,-0.00022,-5e-05,-2.9999999999999997e-05,2.9999999999999997e-05,5
24377,25576,8e-05,8e-05,7e-05,-0.00016999999999999999,-0.00022,-5e-05,-2.9999999999999997e-05,2.9999999999999997e-05,5
24378,25577,8e-05,8e-05,7e-05,-0.00016999999999999999,-0.00022,-5e-05,-2.9999999999999997e-05,2.9999999999999997e-05,5
24379,25578,8e-05,8e-05,7e-05,-0.00016999999999999999,-0.00022,-5e-05,-2.9999999999999997e-05,2.9999999999999997e-05,5
24380,25579,8e-05,8e-05,7e-05,-0.00016999999999999999,-0.00022,-5e-05,-2.9999999999999997e-05,2.9999999999999997e-05,5
24381,25580,8e-05,8e-05,7e-05,-0.00016999999999999999,-0.00022,-5e-05,-2.9999999999999997e-05,2.9999999999999997e-05,5
24382,25581,8e-05,8e-05,7e-05,-0.00016999999999999999,-0.00022,-5e-05,-2.9999999999999997e-05,2.9999999999999997e-05,5
24383,25582,1e-05,-2e-05,2e-05,-2.9999999999999997e-05,0.00026000000000000003,9e-05,2.9999999999999997e-05,-1e-05,5
24384,25583,1e-05,-2e-05,2e-05,-2.9999999999999997e-05,0.00026000000000000003,9e-05,2.9999999999999997e-05,-1e-05,5
24385,25584,1e-05,-2e-05,2e-05,-2.9999999999999997e-05,0.00026000000000000003,9e-05,2.9999999999999997e-05,-1e-05,5
24386,25585,1e-05,-2e-05,2e-05,-2.9999999999999997e-05,0.00026000000000000003,9e-05,2.9999999999999997e-05,-1e-05,5
24387,25587,1e-05,-2e-05,2e-05,-2.9999999999999997e-05,0.00026000000000000003,9e-05,2.9999999999999997e-05,-1e-05,5
24388,25589,1e-05,-2e-05,2e-05,-2.9999999999999997e-05,0.00026000000000000003,9e-05,2.9999999999999997e-05,-1e-05,5
24389,25590,1e-05,-2e-05,2e-05,-2.9999999999999997e-05,0.00026000000000000003,9e-05,2.9999999999999997e-05,-1e-05,5
24390,25591,1e-05,-2e-05,2e-05,-2.9999999999999997e-05,0.00026000000000000003,9e-05,2.9999999999999997e-05,-1e-05,5
24391,25592,1e-05,-2e-05,2e-05,-2.9999999999999997e-05,0.00026000000000000003,9e-05,2.9999999999999997e-05,-1e-05,5
24392,25593,1e-05,-2e-05,2e-05,-2.9999999999999997e-05,0.00026000000000000003,9e-05,2.9999999999999997e-05,-1e-05,5
24393,25594,1e-05,-2e-05,2e-05,-2.9999999999999997e-05,0.00026000000000000003,9e-05,2.9999999999999997e-05,-1e-05,5
24394,25595,1e-05,-2e-05,2e-05,-2.9999999999999997e-05,0.00026000000000000003,9e-05,2.9999999999999997e-05,-1e-05,5
24395,25596,1e-05,-2e-05,2e-05,-2.9999999999999997e-05,0.00026000000000000003,9e-05,2.9999999999999997e-05,-1e-05,5
24396,25597,1e-05,-2e-05,2e-05,-2.9999999999999997e-05,0.00026000000000000003,9e-05,2.9999999999999997e-05,-1e-05,5
24397,25598,1e-05,-2e-05,2e-05,-2.9999999999999997e-05,0.00026000000000000003,9e-05,2.9999999999999997e-05,-1e-05,5
24398,25599,1e-05,-2e-05,2e-05,-2.9999999999999997e-05,0.00026000000000000003,9e-05,2.9999999999999997e-05,-1e-05,5
24399,25600,1e-05,-2e-05,2e-05,-2.9999999999999997e-05,0.00026000000000000003,9e-05,2.9999999999999997e-05,-1e-05,5
24400,25601,1e-05,-2e-05,2e-05,-2.9999999999999997e-05,0.00026000000000000003,9e-05,2.9999999999999997e-05,-1e-05,5
24401,25602,1e-05,-2e-05,2e-05,-2.9999999999999997e-05,0.00026000000000000003,9e-05,2.9999999999999997e-05,-1e-05,5
24402,25603,1e-05,-2e-05,2e-05,-2.9999999999999997e-05,0.00026000000000000003,9e-05,2.9999999999999997e-05,-1e-05,5
24403,25604,1e-05,-2e-05,2e-05,-2.9999999999999997e-05,0.00026000000000000003,9e-05,2.9999999999999997e-05,-1e-05,5
24404,25605,-1e-05,5e-05,0.00011,0.00013000000000000002,-0.00028,-4e-05,-2.9999999999999997e-05,-1e-05,5
24405,25606,2e-05,0.00011999999999999999,0.00027,-0.00014,-4e-05,-9e-05,-4e-05,2e-05,5
24406,25607,2e-05,0.00011999999999999999,0.00027,-0.00014,-4e-05,-9e-05,-4e-05,2e-05,5
24407,25608,2e-05,0.00011999999999999999,0.00027,-0.00014,-4e-05,-9e-05,-4e-05,2e-05,5
24408,25609,2e-05,0.00011999999999999999,0.00027,-0.00014,-4e-05,-9e-05,-4e-05,2e-05,5
24409,25610,2e-05,0.00011999999999999999,0.00027,-0.00014,-4e-05,-9e-05,-4e-05,2e-05,5
24410,25611,2e-05,0.00011999999999999999,0.00027,-0.00014,-4e-05,-9e-05,-4e-05,2e-05,5
24411,25612,2e-05,0.00011999999999999999,0.00027,-0.00014,-4e-05,-9e-05,-4e-05,2e-05,5
24412,25613,2e-05,0.00011999999999999999,0.00027,-0.00014,-4e-05,-9e-05,-4e-05,2e-05,5
24413,25614,2e-05,0.00011999999999999999,0.00027,-0.00014,-4e-05,-9e-05,-4e-05,2e-05,5
24414,25615,2e-05,0.00011999999999999999,0.00027,-0.00014,-4e-05,-9e-05,-4e-05,2e-05,5
24415,25616,2e-05,0.00011999999999999999,0.00027,-0.00014,-4e-05,-9e-05,-4e-05,2e-05,5
24416,25617,2e-05,0.00011999999999999999,0.00027,-0.00014,-4e-05,-9e-05,-4e-05,2e-05,5
24417,25618,2e-05,0.00011999999999999999,0.00027,-0.00014,-4e-05,-9e-05,-4e-05,2e-05,5
24418,25619,-0.00011,-5e-05,-0.00026000000000000003,-0.00022999999999999998,4e-05,-2.9999999999999997e-05,-2.9999999999999997e-05,-2e-05,5
24419,25620,-0.00021,1e-05,0.00026000000000000003,4e-05,-1e-05,-4e-05,-1e-05,0.0,5
24420,25621,-0.00021,1e-05,0.00026000000000000003,4e-05,-1e-05,-4e-05,-1e-05,0.0,5
24421,25622,-0.00021,1e-05,0.00026000000000000003,4e-05,-1e-05,-4e-05,-1e-05,0.0,5
24422,25623,-0.00021,1e-05,0.00026000000000000003,4e-05,-1e-05,-4e-05,-1e-05,0.0,5
24423,25624,-0.00021,1e-05,0.00026000000000000003,4e-05,-1e-05,-4e-05,-1e-05,0.0,5
24424,25625,-0.00021,1e-05,0.00026000000000000003,4e-05,-1e-05,-4e-05,-1e-05,0.0,5
24425,25626,-0.00021,1e-05,0.00026000000000000003,4e-05,-1e-05,-4e-05,-1e-05,0.0,5
24426,25627,-0.00021,1e-05,0.00026000000000000003,4e-05,-1e-05,-4e-05,-1e-05,0.0,5
24427,25628,-0.00021,1e-05,0.00026000000000000003,4e-05,-1e-05,-4e-05,-1e-05,0.0,5
24428,25629,-0.00021,1e-05,0.00026000000000000003,4e-05,-1e-05,-4e-05,-1e-05,0.0,5
24429,25630,-0.00021,1e-05,0.00026000000000000003,4e-05,-1e-05,-4e-05,-1e-05,0.0,5
24430,25631,-0.00021,1e-05,0.00026000000000000003,4e-05,-1e-05,-4e-05,-1e-05,0.0,5
24431,25632,-0.00021,1e-05,0.00026000000000000003,4e-05,-1e-05,-4e-05,-1e-05,0.0,5
24432,25633,-0.00021,1e-05,0.00026000000000000003,4e-05,-1e-05,-4e-05,-1e-05,0.0,5
24433,25634,-0.00021,1e-05,0.00026000000000000003,4e-05,-1e-05,-4e-05,-1e-05,0.0,5
24434,25635,-0.00021,1e-05,0.00026000000000000003,4e-05,-1e-05,-4e-05,-1e-05,0.0,5
24435,25637,-0.00021,1e-05,0.00026000000000000003,4e-05,-1e-05,-4e-05,-1e-05,0.0,5
24436,25639,-0.00021,1e-05,0.00026000000000000003,4e-05,-1e-05,-4e-05,-1e-05,0.0,5
24437,25640,-0.00021,1e-05,0.00026000000000000003,4e-05,-1e-05,-4e-05,-1e-05,0.0,5
24438,25641,-0.00021,1e-05,0.00026000000000000003,4e-05,-1e-05,-4e-05,-1e-05,0.0,5
24439,25642,-9e-05,0.0001,0.00032,-0.00057,0.00049,0.00025,9e-05,4e-05,5
24440,25643,7e-05,-4e-05,-8e-05,9e-05,-5e-05,2.9999999999999997e-05,-2e-05,-2.9999999999999997e-05,5
24441,25644,7e-05,-4e-05,-8e-05,9e-05,-5e-05,2.9999999999999997e-05,-2e-05,-2.9999999999999997e-05,5
24442,25645,7e-05,-4e-05,-8e-05,9e-05,-5e-05,2.9999999999999997e-05,-2e-05,-2.9999999999999997e-05,5
24443,25646,7e-05,-4e-05,-8e-05,9e-05,-5e-05,2.9999999999999997e-05,-2e-05,-2.9999999999999997e-05,5
24444,25647,7e-05,-4e-05,-8e-05,9e-05,-5e-05,2.9999999999999997e-05,-2e-05,-2.9999999999999997e-05,5
24445,25648,7e-05,-4e-05,-8e-05,9e-05,-5e-05,2.9999999999999997e-05,-2e-05,-2.9999999999999997e-05,5
24446,25649,7e-05,-4e-05,-8e-05,9e-05,-5e-05,2.9999999999999997e-05,-2e-05,-2.9999999999999997e-05,5
24447,25650,7e-05,-4e-05,-8e-05,9e-05,-5e-05,2.9999999999999997e-05,-2e-05,-2.9999999999999997e-05,5
24448,25651,7e-05,-4e-05,-8e-05,9e-05,-5e-05,2.9999999999999997e-05,-2e-05,-2.9999999999999997e-05,5
24449,25652,7e-05,-4e-05,-8e-05,9e-05,-5e-05,2.9999999999999997e-05,-2e-05,-2.9999999999999997e-05,5
24450,25653,7e-05,-4e-05,-8e-05,9e-05,-5e-05,2.9999999999999997e-05,-2e-05,-2.9999999999999997e-05,5
24451,25654,7e-05,-4e-05,-8e-05,9e-05,-5e-05,2.9999999999999997e-05,-2e-05,-2.9999999999999997e-05,5
24452,25655,7e-05,-4e-05,-8e-05,9e-05,-5e-05,2.9999999999999997e-05,-2e-05,-2.9999999999999997e-05,5
24453,25656,7e-05,-4e-05,-8e-05,9e-05,-5e-05,2.9999999999999997e-05,-2e-05,-2.9999999999999997e-05,5
24454,25657,7e-05,-4e-05,-8e-05,9e-05,-5e-05,2.9999999999999997e-05,-2e-05,-2.9999999999999997e-05,5
24455,25658,7e-05,-4e-05,-8e-05,9e-05,-5e-05,2.9999999999999997e-05,-2e-05,-2.9999999999999997e-05,5
24456,25659,7e-05,-4e-05,-8e-05,9e-05,-5e-05,2.9999999999999997e-05,-2e-05,-2.9999999999999997e-05,5
24457,25660,7e-05,-4e-05,-8e-05,9e-05,-5e-05,2.9999999999999997e-05,-2e-05,-2.9999999999999997e-05,5
24458,25661,7e-05,-4e-05,-8e-05,9e-05,-5e-05,2.9999999999999997e-05,-2e-05,-2.9999999999999997e-05,5
24459,25662,7e-05,-4e-05,-8e-05,9e-05,-5e-05,2.9999999999999997e-05,-2e-05,-2.9999999999999997e-05,5
24460,25663,7e-05,-4e-05,-8e-05,9e-05,-5e-05,2.9999999999999997e-05,-2e-05,-2.9999999999999997e-05,5
24461,25664,7e-05,-4e-05,-8e-05,9e-05,-5e-05,2.9999999999999997e-05,-2e-05,-2.9999999999999997e-05,5
24462,25665,-0.00055,2e-05,0.00047999999999999996,-0.00023999999999999998,-0.00011999999999999999,-0.00011999999999999999,-4e-05,-7e-05,5
24463,25666,7e-05,-0.00021,-0.0008300000000000001,-0.00039,-0.00032,1e-05,-2e-05,-2.9999999999999997e-05,5
24464,25667,7e-05,-0.00021,-0.0008300000000000001,-0.00039,-0.00032,1e-05,-2e-05,-2.9999999999999997e-05,5
24465,25668,7e-05,-0.00021,-0.0008300000000000001,-0.00039,-0.00032,1e-05,-2e-05,-2.9999999999999997e-05,5
24466,25669,7e-05,-0.00021,-0.0008300000000000001,-0.00039,-0.00032,1e-05,-2e-05,-2.9999999999999997e-05,5
24467,25670,7e-05,-0.00021,-0.0008300000000000001,-0.00039,-0.00032,1e-05,-2e-05,-2.9999999999999997e-05,5
24468,25671,7e-05,-0.00021,-0.0008300000000000001,-0.00039,-0.00032,1e-05,-2e-05,-2.9999999999999997e-05,5
24469,25672,7e-05,-0.00021,-0.0008300000000000001,-0.00039,-0.00032,1e-05,-2e-05,-2.9999999999999997e-05,5
24470,25673,7e-05,-0.00021,-0.0008300000000000001,-0.00039,-0.00032,1e-05,-2e-05,-2.9999999999999997e-05,5
24471,25674,7e-05,-0.00021,-0.0008300000000000001,-0.00039,-0.00032,1e-05,-2e-05,-2.9999999999999997e-05,5
24472,25675,7e-05,-0.00021,-0.0008300000000000001,-0.00039,-0.00032,1e-05,-2e-05,-2.9999999999999997e-05,5
24473,25676,7e-05,-0.00021,-0.0008300000000000001,-0.00039,-0.00032,1e-05,-2e-05,-2.9999999999999997e-05,5
24474,25677,7e-05,-0.00021,-0.0008300000000000001,-0.00039,-0.00032,1e-05,-2e-05,-2.9999999999999997e-05,5
24475,25678,7e-05,-0.00021,-0.0008300000000000001,-0.00039,-0.00032,1e-05,-2e-05,-2.9999999999999997e-05,5
24476,25679,-0.00011999999999999999,0.00011999999999999999,0.00014,0.0005,0.00039,0.0001,4e-05,5e-05,5
24477,25680,-0.00021,2e-05,0.00022999999999999998,0.00082,0.00015,-5e-05,-1e-05,-1e-05,5
24478,25681,-0.00021,2e-05,0.00022999999999999998,0.00082,0.00015,-5e-05,-1e-05,-1e-05,5
24479,25682,-0.00021,2e-05,0.00022999999999999998,0.00082,0.00015,-5e-05,-1e-05,-1e-05,5
24480,25683,-0.00021,2e-05,0.00022999999999999998,0.00082,0.00015,-5e-05,-1e-05,-1e-05,5
24481,25684,-0.00021,2e-05,0.00022999999999999998,0.00082,0.00015,-5e-05,-1e-05,-1e-05,5
24482,25685,-0.00021,2e-05,0.00022999999999999998,0.00082,0.00015,-5e-05,-1e-05,-1e-05,5
24483,25687,-0.00021,2e-05,0.00022999999999999998,0.00082,0.00015,-5e-05,-1e-05,-1e-05,5
24484,25689,-0.00021,2e-05,0.00022999999999999998,0.00082,0.00015,-5e-05,-1e-05,-1e-05,5
24485,25690,-0.00021,2e-05,0.00022999999999999998,0.00082,0.00015,-5e-05,-1e-05,-1e-05,5
24486,25691,-0.00021,2e-05,0.00022999999999999998,0.00082,0.00015,-5e-05,-1e-05,-1e-05,5
24487,25692,-0.00021,2e-05,0.00022999999999999998,0.00082,0.00015,-5e-05,-1e-05,-1e-05,5
24488,25693,-0.00021,2e-05,0.00022999999999999998,0.00082,0.00015,-5e-05,-1e-05,-1e-05,5
24489,25694,-0.00021,2e-05,0.00022999999999999998,0.00082,0.00015,-5e-05,-1e-05,-1e-05,5
24490,25695,-0.00021,2e-05,0.00022999999999999998,0.00082,0.00015,-5e-05,-1e-05,-1e-05,5
24491,25696,-0.00021,2e-05,0.00022999999999999998,0.00082,0.00015,-5e-05,-1e-05,-1e-05,5
24492,25697,-0.00021,2e-05,0.00022999999999999998,0.00082,0.00015,-5e-05,-1e-05,-1e-05,5
24493,25698,-0.00021,2e-05,0.00022999999999999998,0.00082,0.00015,-5e-05,-1e-05,-1e-05,5
24494,25699,-0.00021,2e-05,0.00022999999999999998,0.00082,0.00015,-5e-05,-1e-05,-1e-05,5
24495,25700,-0.00021,2e-05,0.00022999999999999998,0.00082,0.00015,-5e-05,-1e-05,-1e-05,5
24496,25701,-0.00021,2e-05,0.00022999999999999998,0.00082,0.00015,-5e-05,-1e-05,-1e-05,5
24497,25702,2e-05,-2.9999999999999997e-05,5.9999999999999995e-05,0.00032,-0.00016,-4e-05,-2.9999999999999997e-05,-2.9999999999999997e-05,5
24498,25703,8e-05,7e-05,-0.00013000000000000002,-9e-05,0.00027,-5e-05,-1e-05,1e-05,5
24499,25704,8e-05,7e-05,-0.00013000000000000002,-9e-05,0.00027,-5e-05,-1e-05,1e-05,5
24500,25705,8e-05,7e-05,-0.00013000000000000002,-9e-05,0.00027,-5e-05,-1e-05,1e-05,5
24501,25706,8e-05,7e-05,-0.00013000000000000002,-9e-05,0.00027,-5e-05,-1e-05,1e-05,5
24502,25707,8e-05,7e-05,-0.00013000000000000002,-9e-05,0.00027,-5e-05,-1e-05,1e-05,5
24503,25708,8e-05,7e-05,-0.00013000000000000002,-9e-05,0.00027,-5e-05,-1e-05,1e-05,5
24504,25709,8e-05,7e-05,-0.00013000000000000002,-9e-05,0.00027,-5e-05,-1e-05,1e-05,5
24505,25710,8e-05,7e-05,-0.00013000000000000002,-9e-05,0.00027,-5e-05,-1e-05,1e-05,5
24506,25711,8e-05,7e-05,-0.00013000000000000002,-9e-05,0.00027,-5e-05,-1e-05,1e-05,5
24507,25712,8e-05,7e-05,-0.00013000000000000002,-9e-05,0.00027,-5e-05,-1e-05,1e-05,5
24508,25713,8e-05,7e-05,-0.00013000000000000002,-9e-05,0.00027,-5e-05,-1e-05,1e-05,5
24509,25714,8e-05,7e-05,-0.00013000000000000002,-9e-05,0.00027,-5e-05,-1e-05,1e-05,5
24510,25715,8e-05,7e-05,-0.00013000000000000002,-9e-05,0.00027,-5e-05,-1e-05,1e-05,5
24511,25716,8e-05,7e-05,-0.00013000000000000002,-9e-05,0.00027,-5e-05,-1e-05,1e-05,5
24512,25717,8e-05,7e-05,-0.00013000000000000002,-9e-05,0.00027,-5e-05,-1e-05,1e-05,5
24513,25718,8e-05,7e-05,-0.00013000000000000002,-9e-05,0.00027,-5e-05,-1e-05,1e-05,5
24514,25719,8e-05,7e-05,-0.00013000000000000002,-9e-05,0.00027,-5e-05,-1e-05,1e-05,5
24515,25720,8e-05,7e-05,-0.00013000000000000002,-9e-05,0.00027,-5e-05,-1e-05,1e-05,5
24516,25721,8e-05,7e-05,-0.00013000000000000002,-9e-05,0.00027,-5e-05,-1e-05,1e-05,5
24517,25722,8e-05,7e-05,-0.00013000000000000002,-9e-05,0.00027,-5e-05,-1e-05,1e-05,5
24518,25723,8e-05,7e-05,-0.00013000000000000002,-9e-05,0.00027,-5e-05,-1e-05,1e-05,5
24519,25724,8e-05,7e-05,-0.00013000000000000002,-9e-05,0.00027,-5e-05,-1e-05,1e-05,5
24520,25725,0.00014,9e-05,2e-05,-0.00021,0.00021,1e-05,-2.9999999999999997e-05,-1e-05,5
24521,25726,-0.0002,-5.9999999999999995e-05,-1e-05,-0.0011300000000000001,0.00018,7e-05,2e-05,-2.9999999999999997e-05,5
24522,25727,-0.0002,-5.9999999999999995e-05,-1e-05,-0.0011300000000000001,0.00018,7e-05,2e-05,-2.9999999999999997e-05,5
24523,25728,-0.0002,-5.9999999999999995e-05,-1e-05,-0.0011300000000000001,0.00018,7e-05,2e-05,-2.9999999999999997e-05,5
24524,25729,-0.0002,-5.9999999999999995e-05,-1e-05,-0.0011300000000000001,0.00018,7e-05,2e-05,-2.9999999999999997e-05,5
24525,25730,-0.0002,-5.9999999999999995e-05,-1e-05,-0.0011300000000000001,0.00018,7e-05,2e-05,-2.9999999999999997e-05,5
24526,25731,-0.0002,-5.9999999999999995e-05,-1e-05,-0.0011300000000000001,0.00018,7e-05,2e-05,-2.9999999999999997e-05,5
24527,25732,-0.0002,-5.9999999999999995e-05,-1e-05,-0.0011300000000000001,0.00018,7e-05,2e-05,-2.9999999999999997e-05,5
24528,25733,-0.0002,-5.9999999999999995e-05,-1e-05,-0.0011300000000000001,0.00018,7e-05,2e-05,-2.9999999999999997e-05,5
24529,25734,-0.0002,-5.9999999999999995e-05,-1e-05,-0.0011300000000000001,0.00018,7e-05,2e-05,-2.9999999999999997e-05,5
24530,25735,-0.0002,-5.9999999999999995e-05,-1e-05,-0.0011300000000000001,0.00018,7e-05,2e-05,-2.9999999999999997e-05,5
24531,25737,-0.0002,-5.9999999999999995e-05,-1e-05,-0.0011300000000000001,0.00018,7e-05,2e-05,-2.9999999999999997e-05,5
24532,25739,-0.00029,-0.00022999999999999998,-0.0003,0.00011999999999999999,-0.00028,0.0,-2.9999999999999997e-05,-5e-05,5
24533,25740,0.00011,0.0,-5e-05,0.00028,-0.00023999999999999998,-4e-05,-2e-05,1e-05,5
24534,25742,0.00011,0.0,-5e-05,0.00028,-0.00023999999999999998,-4e-05,-2e-05,1e-05,5
24535,25743,0.00011,0.0,-5e-05,0.00028,-0.00023999999999999998,-4e-05,-2e-05,1e-05,5
24536,25744,0.00011,0.0,-5e-05,0.00028,-0.00023999999999999998,-4e-05,-2e-05,1e-05,5
24537,25745,0.00011,0.0,-5e-05,0.00028,-0.00023999999999999998,-4e-05,-2e-05,1e-05,5
24538,25746,0.00011,0.0,-5e-05,0.00028,-0.00023999999999999998,-4e-05,-2e-05,1e-05,5
24539,25747,0.00011,0.0,-5e-05,0.00028,-0.00023999999999999998,-4e-05,-2e-05,1e-05,5
24540,25748,0.00011,0.0,-5e-05,0.00028,-0.00023999999999999998,-4e-05,-2e-05,1e-05,5
24541,25749,0.00011,0.0,-5e-05,0.00028,-0.00023999999999999998,-4e-05,-2e-05,1e-05,5
24542,25750,0.00011,0.0,-5e-05,0.00028,-0.00023999999999999998,-4e-05,-2e-05,1e-05,5
24543,25751,0.00011,0.0,-5e-05,0.00028,-0.00023999999999999998,-4e-05,-2e-05,1e-05,5
24544,25752,0.00011,0.0,-5e-05,0.00028,-0.00023999999999999998,-4e-05,-2e-05,1e-05,5
24545,25753,0.00011,0.0,-5e-05,0.00028,-0.00023999999999999998,-4e-05,-2e-05,1e-05,5
24546,25754,0.00011,0.0,-5e-05,0.00028,-0.00023999999999999998,-4e-05,-2e-05,1e-05,5
24547,25755,0.00011,0.0,-5e-05,0.00028,-0.00023999999999999998,-4e-05,-2e-05,1e-05,5
24548,25756,0.00011,0.0,-5e-05,0.00028,-0.00023999999999999998,-4e-05,-2e-05,1e-05,5
24549,25757,0.00011,0.0,-5e-05,0.00028,-0.00023999999999999998,-4e-05,-2e-05,1e-05,5
24550,25758,0.00011,0.0,-5e-05,0.00028,-0.00023999999999999998,-4e-05,-2e-05,1e-05,5
24551,25759,0.00011,0.0,-5e-05,0.00028,-0.00023999999999999998,-4e-05,-2e-05,1e-05,5
24552,25760,0.00011,0.0,-5e-05,0.00028,-0.00023999999999999998,-4e-05,-2e-05,1e-05,5
24553,25761,0.00016999999999999999,-5e-05,-0.00028,-0.00081,0.0001,5e-05,2.9999999999999997e-05,1e-05,5
24554,25762,2e-05,-0.00016999999999999999,-0.00025,5e-05,0.00011999999999999999,1e-05,1e-05,0.0,5
24555,25763,1e-05,0.00016,0.0005099999999999999,0.00047999999999999996,5.9999999999999995e-05,8e-05,5e-05,2e-05,5
24556,25764,1e-05,0.00016,0.0005099999999999999,0.00047999999999999996,5.9999999999999995e-05,8e-05,5e-05,2e-05,5
24557,25765,1e-05,0.00016,0.0005099999999999999,0.00047999999999999996,5.9999999999999995e-05,8e-05,5e-05,2e-05,5
