,time,channel1,channel2,channel3,channel4,channel5,channel6,channel7,channel8,class
22122,23047,0.00023999999999999998,0.00021,5e-05,0.0,-0.00016999999999999999,-5.9999999999999995e-05,-2.9999999999999997e-05,-1e-05,5
22123,23048,0.00023999999999999998,0.00021,5e-05,0.0,-0.00016999999999999999,-5.9999999999999995e-05,-2.9999999999999997e-05,-1e-05,5
22124,23049,0.00023999999999999998,0.00021,5e-05,0.0,-0.00016999999999999999,-5.9999999999999995e-05,-2.9999999999999997e-05,-1e-05,5
22125,23050,0.00023999999999999998,0.00021,5e-05,0.0,-0.00016999999999999999,-5.9999999999999995e-05,-2.9999999999999997e-05,-1e-05,5
22126,23051,0.00023999999999999998,0.00021,5e-05,0.0,-0.00016999999999999999,-5.9999999999999995e-05,-2.9999999999999997e-05,-1e-05,5
22127,23052,0.00023999999999999998,0.00021,5e-05,0.0,-0.00016999999999999999,-5.9999999999999995e-05,-2.9999999999999997e-05,-1e-05,5
22128,23053,0.00023999999999999998,0.00021,5e-05,0.0,-0.00016999999999999999,-5.9999999999999995e-05,-2.9999999999999997e-05,-1e-05,5
22129,23054,0.00023999999999999998,0.00021,5e-05,0.0,-0.00016999999999999999,-5.9999999999999995e-05,-2.9999999999999997e-05,-1e-05,5
22130,23055,-0.00011,-2e-05,-9e-05,-0.00018,-0.00016999999999999999,-1e-05,-2.9999999999999997e-05,-5e-05,5
22131,23056,1e-05,-5e-05,-2e-05,5.9999999999999995e-05,8e-05,0.00015,-5e-05,-2.9999999999999997e-05,5
22132,23057,-5.9999999999999995e-05,-5e-05,-0.00011,8e-05,-0.00011999999999999999,-0.00013000000000000002,-4e-05,-7e-05,5
22133,23058,-5.9999999999999995e-05,-5e-05,-0.00011,8e-05,-0.00011999999999999999,-0.00013000000000000002,-4e-05,-7e-05,5
22134,23059,-5.9999999999999995e-05,-5e-05,-0.00011,8e-05,-0.00011999999999999999,-0.00013000000000000002,-4e-05,-7e-05,5
22135,23060,-5.9999999999999995e-05,-5e-05,-0.00011,8e-05,-0.00011999999999999999,-0.00013000000000000002,-4e-05,-7e-05,5
22136,23061,-5.9999999999999995e-05,-5e-05,-0.00011,8e-05,-0.00011999999999999999,-0.00013000000000000002,-4e-05,-7e-05,5
22137,23062,-5.9999999999999995e-05,-5e-05,-0.00011,8e-05,-0.00011999999999999999,-0.00013000000000000002,-4e-05,-7e-05,5
22138,23063,-5.9999999999999995e-05,-5e-05,-0.00011,8e-05,-0.00011999999999999999,-0.00013000000000000002,-4e-05,-7e-05,5
22139,23064,-5.9999999999999995e-05,-5e-05,-0.00011,8e-05,-0.00011999999999999999,-0.00013000000000000002,-4e-05,-7e-05,5
22140,23065,-5.9999999999999995e-05,-5e-05,-0.00011,8e-05,-0.00011999999999999999,-0.00013000000000000002,-4e-05,-7e-05,5
22141,23066,-5.9999999999999995e-05,-5e-05,-0.00011,8e-05,-0.00011999999999999999,-0.00013000000000000002,-4e-05,-7e-05,5
22142,23067,-5.9999999999999995e-05,-5e-05,-0.00011,8e-05,-0.00011999999999999999,-0.00013000000000000002,-4e-05,-7e-05,5
22143,23068,-5.9999999999999995e-05,-5e-05,-0.00011,8e-05,-0.00011999999999999999,-0.00013000000000000002,-4e-05,-7e-05,5
22144,23069,1e-05,5e-05,-4e-05,-7e-05,0.00011999999999999999,5e-05,-7e-05,-5e-05,5
22145,23070,1e-05,5e-05,-4e-05,-7e-05,0.00011999999999999999,5e-05,-7e-05,-5e-05,5
22146,23071,1e-05,5e-05,-4e-05,-7e-05,0.00011999999999999999,5e-05,-7e-05,-5e-05,5
22147,23072,1e-05,5e-05,-4e-05,-7e-05,0.00011999999999999999,5e-05,-7e-05,-5e-05,5
22148,23073,1e-05,5e-05,-4e-05,-7e-05,0.00011999999999999999,5e-05,-7e-05,-5e-05,5
22149,23074,1e-05,5e-05,-4e-05,-7e-05,0.00011999999999999999,5e-05,-7e-05,-5e-05,5
22150,23075,1e-05,5e-05,-4e-05,-7e-05,0.00011999999999999999,5e-05,-7e-05,-5e-05,5
22151,23076,1e-05,5e-05,-4e-05,-7e-05,0.00011999999999999999,5e-05,-7e-05,-5e-05,5
22152,23077,1e-05,5e-05,-4e-05,-7e-05,0.00011999999999999999,5e-05,-7e-05,-5e-05,5
22153,23078,1e-05,5e-05,-4e-05,-7e-05,0.00011999999999999999,5e-05,-7e-05,-5e-05,5
22154,23079,1e-05,5e-05,-4e-05,-7e-05,0.00011999999999999999,5e-05,-7e-05,-5e-05,5
22155,23080,1e-05,5e-05,-4e-05,-7e-05,0.00011999999999999999,5e-05,-7e-05,-5e-05,5
22156,23081,1e-05,5e-05,-4e-05,-7e-05,0.00011999999999999999,5e-05,-7e-05,-5e-05,5
22157,23082,1e-05,5e-05,-4e-05,-7e-05,0.00011999999999999999,5e-05,-7e-05,-5e-05,5
22158,23083,1e-05,5e-05,-4e-05,-7e-05,0.00011999999999999999,5e-05,-7e-05,-5e-05,5
22159,23084,-0.00011,2e-05,5e-05,-0.00016999999999999999,0.00042,7e-05,0.0,0.0,5
22160,23085,-0.00011,2e-05,5e-05,-0.00016999999999999999,0.00042,7e-05,0.0,0.0,5
22161,23086,-0.00011,2e-05,5e-05,-0.00016999999999999999,0.00042,7e-05,0.0,0.0,5
22162,23088,-0.00011,2e-05,5e-05,-0.00016999999999999999,0.00042,7e-05,0.0,0.0,5
22163,23089,-0.00011,2e-05,5e-05,-0.00016999999999999999,0.00042,7e-05,0.0,0.0,5
22164,23090,-0.00011,2e-05,5e-05,-0.00016999999999999999,0.00042,7e-05,0.0,0.0,5
22165,23091,-0.00011,2e-05,5e-05,-0.00016999999999999999,0.00042,7e-05,0.0,0.0,5
22166,23092,-0.00011,2e-05,5e-05,-0.00016999999999999999,0.00042,7e-05,0.0,0.0,5
22167,23093,-0.00011,2e-05,5e-05,-0.00016999999999999999,0.00042,7e-05,0.0,0.0,5
22168,23094,8e-05,-0.00011999999999999999,1e-05,-5.9999999999999995e-05,-0.00013000000000000002,0.00022999999999999998,8e-05,2.9999999999999997e-05,5
22169,23095,-0.00021,-0.00016999999999999999,-0.00016999999999999999,-0.00011999999999999999,-0.00037,-5e-05,-4e-05,-4e-05,5
22170,23096,0.0001,7e-05,-1e-05,0.00013000000000000002,0.00061,-7e-05,-2.9999999999999997e-05,2e-05,5
22171,23097,0.0001,7e-05,-1e-05,0.00013000000000000002,0.00061,-7e-05,-2.9999999999999997e-05,2e-05,5
22172,23098,0.0001,7e-05,-1e-05,0.00013000000000000002,0.00061,-7e-05,-2.9999999999999997e-05,2e-05,5
22173,23099,0.0001,7e-05,-1e-05,0.00013000000000000002,0.00061,-7e-05,-2.9999999999999997e-05,2e-05,5
22174,23100,0.0001,7e-05,-1e-05,0.00013000000000000002,0.00061,-7e-05,-2.9999999999999997e-05,2e-05,5
22175,23101,0.0001,7e-05,-1e-05,0.00013000000000000002,0.00061,-7e-05,-2.9999999999999997e-05,2e-05,5
22176,23102,0.0001,7e-05,-1e-05,0.00013000000000000002,0.00061,-7e-05,-2.9999999999999997e-05,2e-05,5
22177,23103,0.0001,7e-05,-1e-05,0.00013000000000000002,0.00061,-7e-05,-2.9999999999999997e-05,2e-05,5
22178,23104,0.0001,7e-05,-1e-05,0.00013000000000000002,0.00061,-7e-05,-2.9999999999999997e-05,2e-05,5
22179,23105,0.0001,7e-05,-1e-05,0.00013000000000000002,0.00061,-7e-05,-2.9999999999999997e-05,2e-05,5
22180,23106,0.0001,7e-05,-1e-05,0.00013000000000000002,0.00061,-7e-05,-2.9999999999999997e-05,2e-05,5
22181,23107,0.0001,7e-05,-1e-05,0.00013000000000000002,0.00061,-7e-05,-2.9999999999999997e-05,2e-05,5
22182,23108,0.0001,7e-05,-1e-05,0.00013000000000000002,0.00061,-7e-05,-2.9999999999999997e-05,2e-05,5
22183,23109,0.0001,7e-05,-1e-05,0.00013000000000000002,0.00061,-7e-05,-2.9999999999999997e-05,2e-05,5
22184,23110,0.0001,7e-05,-1e-05,0.00013000000000000002,0.00061,-7e-05,-2.9999999999999997e-05,2e-05,5
22185,23111,0.0001,7e-05,-1e-05,0.00013000000000000002,0.00061,-7e-05,-2.9999999999999997e-05,2e-05,5
22186,23112,0.0001,7e-05,-1e-05,0.00013000000000000002,0.00061,-7e-05,-2.9999999999999997e-05,2e-05,5
22187,23113,0.0001,7e-05,-1e-05,0.00013000000000000002,0.00061,-7e-05,-2.9999999999999997e-05,2e-05,5
22188,23114,0.0001,7e-05,-1e-05,0.00013000000000000002,0.00061,-7e-05,-2.9999999999999997e-05,2e-05,5
22189,23115,0.0001,7e-05,-1e-05,0.00013000000000000002,0.00061,-7e-05,-2.9999999999999997e-05,2e-05,5
22190,23116,0.0001,7e-05,-1e-05,0.00013000000000000002,0.00061,-7e-05,-2.9999999999999997e-05,2e-05,5
22191,23117,0.0001,7e-05,-1e-05,0.00013000000000000002,0.00061,-7e-05,-2.9999999999999997e-05,2e-05,5
22192,23118,0.0001,7e-05,-1e-05,0.00013000000000000002,0.00061,-7e-05,-2.9999999999999997e-05,2e-05,5
22193,23119,0.0001,7e-05,-1e-05,0.00013000000000000002,0.00061,-7e-05,-2.9999999999999997e-05,2e-05,5
22194,23120,0.0001,7e-05,-1e-05,0.00013000000000000002,0.00061,-7e-05,-2.9999999999999997e-05,2e-05,5
22195,23121,0.0001,7e-05,-1e-05,0.00013000000000000002,0.00061,-7e-05,-2.9999999999999997e-05,2e-05,5
22196,23122,0.0001,7e-05,-1e-05,0.00013000000000000002,0.00061,-7e-05,-2.9999999999999997e-05,2e-05,5
22197,23123,0.0001,8e-05,7e-05,0.00011999999999999999,0.00016,-5e-05,-2.9999999999999997e-05,-2.9999999999999997e-05,5
22198,23124,0.0001,8e-05,7e-05,0.00011999999999999999,0.00016,-5e-05,-2.9999999999999997e-05,-2.9999999999999997e-05,5
22199,23125,0.0001,8e-05,7e-05,0.00011999999999999999,0.00016,-5e-05,-2.9999999999999997e-05,-2.9999999999999997e-05,5
22200,23126,0.0001,8e-05,7e-05,0.00011999999999999999,0.00016,-5e-05,-2.9999999999999997e-05,-2.9999999999999997e-05,5
22201,23127,0.0001,8e-05,7e-05,0.00011999999999999999,0.00016,-5e-05,-2.9999999999999997e-05,-2.9999999999999997e-05,5
22202,23128,0.0001,8e-05,7e-05,0.00011999999999999999,0.00016,-5e-05,-2.9999999999999997e-05,-2.9999999999999997e-05,5
22203,23129,0.0001,8e-05,7e-05,0.00011999999999999999,0.00016,-5e-05,-2.9999999999999997e-05,-2.9999999999999997e-05,5
22204,23130,0.0001,8e-05,7e-05,0.00011999999999999999,0.00016,-5e-05,-2.9999999999999997e-05,-2.9999999999999997e-05,5
22205,23131,0.00018,8e-05,-5.9999999999999995e-05,-0.0001,-1e-05,2.9999999999999997e-05,-1e-05,4e-05,5
22206,23132,-7e-05,-7e-05,0.0,0.0,5.9999999999999995e-05,-0.00016999999999999999,-5e-05,-2e-05,5
22207,23133,-7e-05,-7e-05,0.0,0.0,5.9999999999999995e-05,-0.00016999999999999999,-5e-05,-2e-05,5
22208,23134,-7e-05,-7e-05,0.0,0.0,5.9999999999999995e-05,-0.00016999999999999999,-5e-05,-2e-05,5
22209,23135,-7e-05,-7e-05,0.0,0.0,5.9999999999999995e-05,-0.00016999999999999999,-5e-05,-2e-05,5
22210,23136,-7e-05,-7e-05,0.0,0.0,5.9999999999999995e-05,-0.00016999999999999999,-5e-05,-2e-05,5
22211,23139,-7e-05,-7e-05,0.0,0.0,5.9999999999999995e-05,-0.00016999999999999999,-5e-05,-2e-05,5
22212,23140,-7e-05,-7e-05,0.0,0.0,5.9999999999999995e-05,-0.00016999999999999999,-5e-05,-2e-05,5
22213,23141,-7e-05,-7e-05,0.0,0.0,5.9999999999999995e-05,-0.00016999999999999999,-5e-05,-2e-05,5
22214,23142,-7e-05,-7e-05,0.0,0.0,5.9999999999999995e-05,-0.00016999999999999999,-5e-05,-2e-05,5
22215,23143,-7e-05,-7e-05,0.0,0.0,5.9999999999999995e-05,-0.00016999999999999999,-5e-05,-2e-05,5
22216,23144,-7e-05,-7e-05,0.0,0.0,5.9999999999999995e-05,-0.00016999999999999999,-5e-05,-2e-05,5
22217,23145,-7e-05,-7e-05,0.0,0.0,5.9999999999999995e-05,-0.00016999999999999999,-5e-05,-2e-05,5
22218,23146,-7e-05,-7e-05,0.0,0.0,5.9999999999999995e-05,-0.00016999999999999999,-5e-05,-2e-05,5
22219,23147,-7e-05,-7e-05,0.0,0.0,5.9999999999999995e-05,-0.00016999999999999999,-5e-05,-2e-05,5
22220,23148,-7e-05,-7e-05,0.0,0.0,5.9999999999999995e-05,-0.00016999999999999999,-5e-05,-2e-05,5
22221,23149,-7e-05,-7e-05,0.0,0.0,5.9999999999999995e-05,-0.00016999999999999999,-5e-05,-2e-05,5
22222,23150,-7e-05,-7e-05,0.0,0.0,5.9999999999999995e-05,-0.00016999999999999999,-5e-05,-2e-05,5
22223,23151,-7e-05,-7e-05,0.0,0.0,5.9999999999999995e-05,-0.00016999999999999999,-5e-05,-2e-05,5
22224,23152,-7e-05,-7e-05,0.0,0.0,5.9999999999999995e-05,-0.00016999999999999999,-5e-05,-2e-05,5
22225,23153,-7e-05,-7e-05,0.0,0.0,5.9999999999999995e-05,-0.00016999999999999999,-5e-05,-2e-05,5
22226,23154,-7e-05,-7e-05,0.0,0.0,5.9999999999999995e-05,-0.00016999999999999999,-5e-05,-2e-05,5
22227,23155,-7e-05,-7e-05,0.0,0.0,5.9999999999999995e-05,-0.00016999999999999999,-5e-05,-2e-05,5
22228,23156,-7e-05,-7e-05,0.0,0.0,5.9999999999999995e-05,-0.00016999999999999999,-5e-05,-2e-05,5
22229,23157,-7e-05,-7e-05,0.0,0.0,5.9999999999999995e-05,-0.00016999999999999999,-5e-05,-2e-05,5
22230,23158,-7e-05,-7e-05,0.0,0.0,5.9999999999999995e-05,-0.00016999999999999999,-5e-05,-2e-05,5
22231,23159,-7e-05,-7e-05,0.0,0.0,5.9999999999999995e-05,-0.00016999999999999999,-5e-05,-2e-05,5
22232,23160,-7e-05,-7e-05,0.0,0.0,5.9999999999999995e-05,-0.00016999999999999999,-5e-05,-2e-05,5
22233,23161,-7e-05,-7e-05,0.0,0.0,5.9999999999999995e-05,-0.00016999999999999999,-5e-05,-2e-05,5
22234,23162,-7e-05,-7e-05,0.0,0.0,5.9999999999999995e-05,-0.00016999999999999999,-5e-05,-2e-05,5
22235,23163,-7e-05,-7e-05,0.0,0.0,5.9999999999999995e-05,-0.00016999999999999999,-5e-05,-2e-05,5
22236,23164,-7e-05,-7e-05,0.0,0.0,5.9999999999999995e-05,-0.00016999999999999999,-5e-05,-2e-05,5
22237,23165,-7e-05,-7e-05,0.0,0.0,5.9999999999999995e-05,-0.00016999999999999999,-5e-05,-2e-05,5
22238,23166,-7e-05,-7e-05,0.0,0.0,5.9999999999999995e-05,-0.00016999999999999999,-5e-05,-2e-05,5
22239,23167,-7e-05,-7e-05,0.0,0.0,5.9999999999999995e-05,-0.00016999999999999999,-5e-05,-2e-05,5
22240,23168,0.0,8e-05,2.9999999999999997e-05,0.00018,0.00026000000000000003,0.0,-5.9999999999999995e-05,-4e-05,5
22241,23169,-1e-05,5e-05,9e-05,8e-05,-0.00028,-8e-05,5e-05,2.9999999999999997e-05,5
22242,23170,-1e-05,5e-05,9e-05,8e-05,-0.00028,-8e-05,5e-05,2.9999999999999997e-05,5
22243,23171,7e-05,-2e-05,-5.9999999999999995e-05,-5e-05,-0.00026000000000000003,1e-05,0.0,2e-05,5
22244,23172,7e-05,-2e-05,-5.9999999999999995e-05,-5e-05,-0.00026000000000000003,1e-05,0.0,2e-05,5
22245,23173,7e-05,-2e-05,-5.9999999999999995e-05,-5e-05,-0.00026000000000000003,1e-05,0.0,2e-05,5
22246,23174,7e-05,-2e-05,-5.9999999999999995e-05,-5e-05,-0.00026000000000000003,1e-05,0.0,2e-05,5
22247,23175,-0.00016,-0.00011999999999999999,2.9999999999999997e-05,5e-05,-0.00037,0.00015,4e-05,-5.9999999999999995e-05,5
22248,23176,-0.00016,-0.00011999999999999999,2.9999999999999997e-05,5e-05,-0.00037,0.00015,4e-05,-5.9999999999999995e-05,5
22249,23177,-8e-05,2e-05,2.9999999999999997e-05,7e-05,-0.00039,0.00011999999999999999,2.9999999999999997e-05,-5.9999999999999995e-05,5
22250,23179,-8e-05,2e-05,2.9999999999999997e-05,7e-05,-0.00039,0.00011999999999999999,2.9999999999999997e-05,-5.9999999999999995e-05,5
22251,23180,-8e-05,2e-05,2.9999999999999997e-05,7e-05,-0.00039,0.00011999999999999999,2.9999999999999997e-05,-5.9999999999999995e-05,5
22252,23181,-8e-05,2e-05,2.9999999999999997e-05,7e-05,-0.00039,0.00011999999999999999,2.9999999999999997e-05,-5.9999999999999995e-05,5
22253,23182,-8e-05,2e-05,2.9999999999999997e-05,7e-05,-0.00039,0.00011999999999999999,2.9999999999999997e-05,-5.9999999999999995e-05,5
22254,23183,-8e-05,2e-05,2.9999999999999997e-05,7e-05,-0.00039,0.00011999999999999999,2.9999999999999997e-05,-5.9999999999999995e-05,5
22255,23184,-8e-05,2e-05,2.9999999999999997e-05,7e-05,-0.00039,0.00011999999999999999,2.9999999999999997e-05,-5.9999999999999995e-05,5
22256,23185,-8e-05,2e-05,2.9999999999999997e-05,7e-05,-0.00039,0.00011999999999999999,2.9999999999999997e-05,-5.9999999999999995e-05,5
22257,23186,-8e-05,2e-05,2.9999999999999997e-05,7e-05,-0.00039,0.00011999999999999999,2.9999999999999997e-05,-5.9999999999999995e-05,5
22258,23188,-8e-05,2e-05,2.9999999999999997e-05,7e-05,-0.00039,0.00011999999999999999,2.9999999999999997e-05,-5.9999999999999995e-05,5
22259,23189,-8e-05,2e-05,2.9999999999999997e-05,7e-05,-0.00039,0.00011999999999999999,2.9999999999999997e-05,-5.9999999999999995e-05,5
22260,23190,0.00011,-8e-05,7e-05,0.00022999999999999998,7e-05,0.00011,0.0,0.0,5
22261,23191,0.00011,-8e-05,7e-05,0.00022999999999999998,7e-05,0.00011,0.0,0.0,5
22262,23192,0.00011,-8e-05,7e-05,0.00022999999999999998,7e-05,0.00011,0.0,0.0,5
22263,23193,0.00011,-8e-05,7e-05,0.00022999999999999998,7e-05,0.00011,0.0,0.0,5
22264,23194,0.00011,-8e-05,7e-05,0.00022999999999999998,7e-05,0.00011,0.0,0.0,5
22265,23195,0.00011,-8e-05,7e-05,0.00022999999999999998,7e-05,0.00011,0.0,0.0,5
22266,23196,0.00011,-8e-05,7e-05,0.00022999999999999998,7e-05,0.00011,0.0,0.0,5
22267,23197,0.00011,-8e-05,7e-05,0.00022999999999999998,7e-05,0.00011,0.0,0.0,5
22268,23198,0.00011,-8e-05,7e-05,0.00022999999999999998,7e-05,0.00011,0.0,0.0,5
22269,23199,0.00011,-8e-05,7e-05,0.00022999999999999998,7e-05,0.00011,0.0,0.0,5
22270,23200,0.00011,-8e-05,7e-05,0.00022999999999999998,7e-05,0.00011,0.0,0.0,5
22271,23201,0.00011,-8e-05,7e-05,0.00022999999999999998,7e-05,0.00011,0.0,0.0,5
22272,23202,0.00011,-8e-05,7e-05,0.00022999999999999998,7e-05,0.00011,0.0,0.0,5
22273,23203,0.00011,-8e-05,7e-05,0.00022999999999999998,7e-05,0.00011,0.0,0.0,5
22274,23204,0.00011,-8e-05,7e-05,0.00022999999999999998,7e-05,0.00011,0.0,0.0,5
22275,23205,-0.00011999999999999999,-0.00018999999999999998,-0.00025,-1e-05,0.0005,-1e-05,-1e-05,-5.9999999999999995e-05,5
22276,23206,-0.00011999999999999999,-0.00018999999999999998,-0.00025,-1e-05,0.0005,-1e-05,-1e-05,-5.9999999999999995e-05,5
22277,23207,-0.00011999999999999999,-0.00018999999999999998,-0.00025,-1e-05,0.0005,-1e-05,-1e-05,-5.9999999999999995e-05,5
22278,23208,-0.00011999999999999999,-0.00018999999999999998,-0.00025,-1e-05,0.0005,-1e-05,-1e-05,-5.9999999999999995e-05,5
22279,23209,-0.00011999999999999999,-0.00018999999999999998,-0.00025,-1e-05,0.0005,-1e-05,-1e-05,-5.9999999999999995e-05,5
22280,23210,-0.00011999999999999999,-0.00018999999999999998,-0.00025,-1e-05,0.0005,-1e-05,-1e-05,-5.9999999999999995e-05,5
22281,23211,-0.00011999999999999999,-0.00018999999999999998,-0.00025,-1e-05,0.0005,-1e-05,-1e-05,-5.9999999999999995e-05,5
22282,23212,-0.00011999999999999999,-0.00018999999999999998,-0.00025,-1e-05,0.0005,-1e-05,-1e-05,-5.9999999999999995e-05,5
22283,23213,0.00015,5.9999999999999995e-05,0.0,-7e-05,-2.9999999999999997e-05,-1e-05,-2e-05,2e-05,5
22284,23214,0.00015,5.9999999999999995e-05,0.0,-7e-05,-2.9999999999999997e-05,-1e-05,-2e-05,2e-05,5
22285,23215,0.00015,5.9999999999999995e-05,0.0,-7e-05,-2.9999999999999997e-05,-1e-05,-2e-05,2e-05,5
22286,23216,0.00015,5.9999999999999995e-05,0.0,-7e-05,-2.9999999999999997e-05,-1e-05,-2e-05,2e-05,5
22287,23217,0.00015,5.9999999999999995e-05,0.0,-7e-05,-2.9999999999999997e-05,-1e-05,-2e-05,2e-05,5
22288,23218,0.00015,5.9999999999999995e-05,0.0,-7e-05,-2.9999999999999997e-05,-1e-05,-2e-05,2e-05,5
22289,23219,0.00015,5.9999999999999995e-05,0.0,-7e-05,-2.9999999999999997e-05,-1e-05,-2e-05,2e-05,5
22290,23220,0.00015,5.9999999999999995e-05,0.0,-7e-05,-2.9999999999999997e-05,-1e-05,-2e-05,2e-05,5
22291,23221,0.00015,5.9999999999999995e-05,0.0,-7e-05,-2.9999999999999997e-05,-1e-05,-2e-05,2e-05,5
22292,23222,0.00015,5.9999999999999995e-05,0.0,-7e-05,-2.9999999999999997e-05,-1e-05,-2e-05,2e-05,5
22293,23223,0.00015,5.9999999999999995e-05,0.0,-7e-05,-2.9999999999999997e-05,-1e-05,-2e-05,2e-05,5
22294,23224,0.00015,5.9999999999999995e-05,0.0,-7e-05,-2.9999999999999997e-05,-1e-05,-2e-05,2e-05,5
22295,23225,0.00015,5.9999999999999995e-05,0.0,-7e-05,-2.9999999999999997e-05,-1e-05,-2e-05,2e-05,5
22296,23226,-9e-05,4e-05,0.0,-9e-05,-0.00027,-0.00013000000000000002,-2.9999999999999997e-05,-2e-05,5
22297,23227,-9e-05,4e-05,0.0,-9e-05,-0.00027,-0.00013000000000000002,-2.9999999999999997e-05,-2e-05,5
22298,23228,-9e-05,4e-05,0.0,-9e-05,-0.00027,-0.00013000000000000002,-2.9999999999999997e-05,-2e-05,5
22299,23229,-9e-05,4e-05,0.0,-9e-05,-0.00027,-0.00013000000000000002,-2.9999999999999997e-05,-2e-05,5
22300,23230,-9e-05,4e-05,0.0,-9e-05,-0.00027,-0.00013000000000000002,-2.9999999999999997e-05,-2e-05,5
22301,23231,-9e-05,4e-05,0.0,-9e-05,-0.00027,-0.00013000000000000002,-2.9999999999999997e-05,-2e-05,5
22302,23232,-9e-05,4e-05,0.0,-9e-05,-0.00027,-0.00013000000000000002,-2.9999999999999997e-05,-2e-05,5
22303,23233,-9e-05,4e-05,0.0,-9e-05,-0.00027,-0.00013000000000000002,-2.9999999999999997e-05,-2e-05,5
22304,23234,-9e-05,4e-05,0.0,-9e-05,-0.00027,-0.00013000000000000002,-2.9999999999999997e-05,-2e-05,5
22305,23235,-9e-05,4e-05,0.0,-9e-05,-0.00027,-0.00013000000000000002,-2.9999999999999997e-05,-2e-05,5
22306,23236,-9e-05,4e-05,0.0,-9e-05,-0.00027,-0.00013000000000000002,-2.9999999999999997e-05,-2e-05,5
22307,23238,-9e-05,4e-05,0.0,-9e-05,-0.00027,-0.00013000000000000002,-2.9999999999999997e-05,-2e-05,5
22308,23239,-9e-05,4e-05,0.0,-9e-05,-0.00027,-0.00013000000000000002,-2.9999999999999997e-05,-2e-05,5
22309,23240,-9e-05,4e-05,0.0,-9e-05,-0.00027,-0.00013000000000000002,-2.9999999999999997e-05,-2e-05,5
22310,23241,-9e-05,4e-05,0.0,-9e-05,-0.00027,-0.00013000000000000002,-2.9999999999999997e-05,-2e-05,5
22311,23242,-9e-05,4e-05,0.0,-9e-05,-0.00027,-0.00013000000000000002,-2.9999999999999997e-05,-2e-05,5
22312,23243,-4e-05,0.0,2.9999999999999997e-05,-2.9999999999999997e-05,-0.00013000000000000002,-5.9999999999999995e-05,-5e-05,-4e-05,5
22313,23244,-2e-05,5.9999999999999995e-05,2e-05,-0.0001,-0.00018999999999999998,-5e-05,-1e-05,-1e-05,5
22314,23245,-2e-05,5.9999999999999995e-05,2e-05,-0.0001,-0.00018999999999999998,-5e-05,-1e-05,-1e-05,5
22315,23246,-2e-05,5.9999999999999995e-05,2e-05,-0.0001,-0.00018999999999999998,-5e-05,-1e-05,-1e-05,5
22316,23247,-2e-05,5.9999999999999995e-05,2e-05,-0.0001,-0.00018999999999999998,-5e-05,-1e-05,-1e-05,5
22317,23248,-2e-05,5.9999999999999995e-05,2e-05,-0.0001,-0.00018999999999999998,-5e-05,-1e-05,-1e-05,5
22318,23249,0.0,-2.9999999999999997e-05,-0.00021,-0.00018,0.00084,0.00025,-1e-05,-1e-05,5
22319,23250,0.0,-2.9999999999999997e-05,-0.00021,-0.00018,0.00084,0.00025,-1e-05,-1e-05,5
22320,23251,0.0,-2.9999999999999997e-05,-0.00021,-0.00018,0.00084,0.00025,-1e-05,-1e-05,5
22321,23252,0.0,-2.9999999999999997e-05,-0.00021,-0.00018,0.00084,0.00025,-1e-05,-1e-05,5
22322,23253,0.0,-2.9999999999999997e-05,-0.00021,-0.00018,0.00084,0.00025,-1e-05,-1e-05,5
22323,23254,0.0,-2.9999999999999997e-05,-0.00021,-0.00018,0.00084,0.00025,-1e-05,-1e-05,5
22324,23255,0.0,-2.9999999999999997e-05,-0.00021,-0.00018,0.00084,0.00025,-1e-05,-1e-05,5
22325,23256,0.0,-2.9999999999999997e-05,-0.00021,-0.00018,0.00084,0.00025,-1e-05,-1e-05,5
22326,23257,0.0,-2.9999999999999997e-05,-0.00021,-0.00018,0.00084,0.00025,-1e-05,-1e-05,5
22327,23258,0.0,-2.9999999999999997e-05,-0.00021,-0.00018,0.00084,0.00025,-1e-05,-1e-05,5
22328,23259,0.0,-2.9999999999999997e-05,-0.00021,-0.00018,0.00084,0.00025,-1e-05,-1e-05,5
22329,23260,0.0,-2.9999999999999997e-05,-0.00021,-0.00018,0.00084,0.00025,-1e-05,-1e-05,5
22330,23261,0.0,-2.9999999999999997e-05,-0.00021,-0.00018,0.00084,0.00025,-1e-05,-1e-05,5
22331,23262,0.0,-2.9999999999999997e-05,-0.00021,-0.00018,0.00084,0.00025,-1e-05,-1e-05,5
22332,23263,0.0,-2.9999999999999997e-05,-0.00021,-0.00018,0.00084,0.00025,-1e-05,-1e-05,5
22333,23264,0.0,-2.9999999999999997e-05,-0.00021,-0.00018,0.00084,0.00025,-1e-05,-1e-05,5
22334,23265,-1e-05,-2.9999999999999997e-05,8e-05,0.0001,2e-05,1e-05,2e-05,-2e-05,5
22335,23266,-1e-05,-2.9999999999999997e-05,8e-05,0.0001,2e-05,1e-05,2e-05,-2e-05,5
22336,23267,-1e-05,-2.9999999999999997e-05,8e-05,0.0001,2e-05,1e-05,2e-05,-2e-05,5
22337,23268,-1e-05,-2.9999999999999997e-05,8e-05,0.0001,2e-05,1e-05,2e-05,-2e-05,5
22338,23269,-1e-05,-2.9999999999999997e-05,8e-05,0.0001,2e-05,1e-05,2e-05,-2e-05,5
22339,23270,-1e-05,-2.9999999999999997e-05,8e-05,0.0001,2e-05,1e-05,2e-05,-2e-05,5
22340,23271,-1e-05,-2.9999999999999997e-05,8e-05,0.0001,2e-05,1e-05,2e-05,-2e-05,5
22341,23272,-1e-05,-2.9999999999999997e-05,8e-05,0.0001,2e-05,1e-05,2e-05,-2e-05,5
22342,23273,-1e-05,-2.9999999999999997e-05,8e-05,0.0001,2e-05,1e-05,2e-05,-2e-05,5
22343,23274,-1e-05,-2.9999999999999997e-05,8e-05,0.0001,2e-05,1e-05,2e-05,-2e-05,5
22344,23275,-1e-05,-2.9999999999999997e-05,8e-05,0.0001,2e-05,1e-05,2e-05,-2e-05,5
22345,23276,-1e-05,-2.9999999999999997e-05,8e-05,0.0001,2e-05,1e-05,2e-05,-2e-05,5
22346,23277,-1e-05,-2.9999999999999997e-05,8e-05,0.0001,2e-05,1e-05,2e-05,-2e-05,5
22347,23278,-1e-05,-2.9999999999999997e-05,8e-05,0.0001,2e-05,1e-05,2e-05,-2e-05,5
22348,23279,-1e-05,-2.9999999999999997e-05,8e-05,0.0001,2e-05,1e-05,2e-05,-2e-05,5
22349,23280,-1e-05,-2.9999999999999997e-05,8e-05,0.0001,2e-05,1e-05,2e-05,-2e-05,5
22350,23281,-1e-05,-2.9999999999999997e-05,8e-05,0.0001,2e-05,1e-05,2e-05,-2e-05,5
22351,23282,-1e-05,-2.9999999999999997e-05,8e-05,0.0001,2e-05,1e-05,2e-05,-2e-05,5
22352,23283,-1e-05,-2.9999999999999997e-05,8e-05,0.0001,2e-05,1e-05,2e-05,-2e-05,5
22353,23284,-1e-05,-2.9999999999999997e-05,8e-05,0.0001,2e-05,1e-05,2e-05,-2e-05,5
22354,23285,-1e-05,-2.9999999999999997e-05,8e-05,0.0001,2e-05,1e-05,2e-05,-2e-05,5
22355,23286,-1e-05,-2.9999999999999997e-05,8e-05,0.0001,2e-05,1e-05,2e-05,-2e-05,5
22356,23289,-0.00011999999999999999,7e-05,5e-05,-4e-05,-0.00013000000000000002,-0.0002,-5e-05,-2.9999999999999997e-05,5
22357,23290,-0.00011999999999999999,7e-05,5e-05,-4e-05,-0.00013000000000000002,-0.0002,-5e-05,-2.9999999999999997e-05,5
22358,23291,-0.00011999999999999999,-0.00011999999999999999,-0.00011999999999999999,-0.00011,-0.00047999999999999996,-8e-05,-2.9999999999999997e-05,-4e-05,5
22359,23292,-0.00011999999999999999,-0.00011999999999999999,-0.00011999999999999999,-0.00011,-0.00047999999999999996,-8e-05,-2.9999999999999997e-05,-4e-05,5
22360,23293,-0.00011999999999999999,-0.00011999999999999999,-0.00011999999999999999,-0.00011,-0.00047999999999999996,-8e-05,-2.9999999999999997e-05,-4e-05,5
22361,23294,-0.00011999999999999999,-0.00011999999999999999,-0.00011999999999999999,-0.00011,-0.00047999999999999996,-8e-05,-2.9999999999999997e-05,-4e-05,5
22362,23295,0.00016,-0.00014,-2.9999999999999997e-05,-2.9999999999999997e-05,-0.00025,-9e-05,-2e-05,-4e-05,5
22363,23296,0.00016,-0.00014,-2.9999999999999997e-05,-2.9999999999999997e-05,-0.00025,-9e-05,-2e-05,-4e-05,5
22364,23297,0.00016,-0.00014,-2.9999999999999997e-05,-2.9999999999999997e-05,-0.00025,-9e-05,-2e-05,-4e-05,5
22365,23298,0.00016,-0.00014,-2.9999999999999997e-05,-2.9999999999999997e-05,-0.00025,-9e-05,-2e-05,-4e-05,5
22366,23299,0.00016,-0.00014,-2.9999999999999997e-05,-2.9999999999999997e-05,-0.00025,-9e-05,-2e-05,-4e-05,5
22367,23300,0.00016,-0.00014,-2.9999999999999997e-05,-2.9999999999999997e-05,-0.00025,-9e-05,-2e-05,-4e-05,5
22368,23301,0.00016,-0.00014,-2.9999999999999997e-05,-2.9999999999999997e-05,-0.00025,-9e-05,-2e-05,-4e-05,5
22369,23302,0.00016,-0.00014,-2.9999999999999997e-05,-2.9999999999999997e-05,-0.00025,-9e-05,-2e-05,-4e-05,5
22370,23303,0.00016,-0.00014,-2.9999999999999997e-05,-2.9999999999999997e-05,-0.00025,-9e-05,-2e-05,-4e-05,5
22371,23304,0.00016,-0.00014,-2.9999999999999997e-05,-2.9999999999999997e-05,-0.00025,-9e-05,-2e-05,-4e-05,5
22372,23305,0.00016,-0.00014,-2.9999999999999997e-05,-2.9999999999999997e-05,-0.00025,-9e-05,-2e-05,-4e-05,5
22373,23306,0.00016,-0.00014,-2.9999999999999997e-05,-2.9999999999999997e-05,-0.00025,-9e-05,-2e-05,-4e-05,5
22374,23307,0.00016,-0.00014,-2.9999999999999997e-05,-2.9999999999999997e-05,-0.00025,-9e-05,-2e-05,-4e-05,5
22375,23308,0.00016,-0.00014,-2.9999999999999997e-05,-2.9999999999999997e-05,-0.00025,-9e-05,-2e-05,-4e-05,5
22376,23309,0.00016,-0.00014,-2.9999999999999997e-05,-2.9999999999999997e-05,-0.00025,-9e-05,-2e-05,-4e-05,5
22377,23310,0.00016,-0.00014,-2.9999999999999997e-05,-2.9999999999999997e-05,-0.00025,-9e-05,-2e-05,-4e-05,5
22378,23311,0.00016,-0.00014,-2.9999999999999997e-05,-2.9999999999999997e-05,-0.00025,-9e-05,-2e-05,-4e-05,5
22379,23312,0.00016,-0.00014,-2.9999999999999997e-05,-2.9999999999999997e-05,-0.00025,-9e-05,-2e-05,-4e-05,5
22380,23313,0.00016,-0.00014,-2.9999999999999997e-05,-2.9999999999999997e-05,-0.00025,-9e-05,-2e-05,-4e-05,5
22381,23314,0.00016,-0.00014,-2.9999999999999997e-05,-2.9999999999999997e-05,-0.00025,-9e-05,-2e-05,-4e-05,5
22382,23315,0.00016,-0.00014,-2.9999999999999997e-05,-2.9999999999999997e-05,-0.00025,-9e-05,-2e-05,-4e-05,5
22383,23316,0.00016,-0.00014,-2.9999999999999997e-05,-2.9999999999999997e-05,-0.00025,-9e-05,-2e-05,-4e-05,5
22384,23317,0.00016,-0.00014,-2.9999999999999997e-05,-2.9999999999999997e-05,-0.00025,-9e-05,-2e-05,-4e-05,5
22385,23318,0.00016,-0.00014,-2.9999999999999997e-05,-2.9999999999999997e-05,-0.00025,-9e-05,-2e-05,-4e-05,5
22386,23319,0.00016,-0.00014,-2.9999999999999997e-05,-2.9999999999999997e-05,-0.00025,-9e-05,-2e-05,-4e-05,5
22387,23320,0.00016,-0.00014,-2.9999999999999997e-05,-2.9999999999999997e-05,-0.00025,-9e-05,-2e-05,-4e-05,5
22388,23321,0.00016,-0.00014,-2.9999999999999997e-05,-2.9999999999999997e-05,-0.00025,-9e-05,-2e-05,-4e-05,5
22389,23322,0.00016,-0.00014,-2.9999999999999997e-05,-2.9999999999999997e-05,-0.00025,-9e-05,-2e-05,-4e-05,5
22390,23323,0.00016,-0.00014,-2.9999999999999997e-05,-2.9999999999999997e-05,-0.00025,-9e-05,-2e-05,-4e-05,5
22391,23324,0.00016,-0.00014,-2.9999999999999997e-05,-2.9999999999999997e-05,-0.00025,-9e-05,-2e-05,-4e-05,5
22392,23325,0.00016,-0.00014,-2.9999999999999997e-05,-2.9999999999999997e-05,-0.00025,-9e-05,-2e-05,-4e-05,5
22393,23326,-5e-05,-1e-05,-4e-05,-0.00011,7e-05,-0.00018,2e-05,-5e-05,5
22394,23327,1e-05,0.00011999999999999999,1e-05,5.9999999999999995e-05,0.0,-0.00013000000000000002,0.0,7e-05,5
22395,23328,-5e-05,-1e-05,-7e-05,-4e-05,0.00025,9e-05,1e-05,-2.9999999999999997e-05,5
22396,23329,-5e-05,-1e-05,-7e-05,-4e-05,0.00025,9e-05,1e-05,-2.9999999999999997e-05,5
22397,23330,-5e-05,-1e-05,-7e-05,-4e-05,0.00025,9e-05,1e-05,-2.9999999999999997e-05,5
22398,23331,-5e-05,-1e-05,-7e-05,-4e-05,0.00025,9e-05,1e-05,-2.9999999999999997e-05,5
22399,23332,4e-05,-5.9999999999999995e-05,-7e-05,-5.9999999999999995e-05,-0.00023999999999999998,-0.00013000000000000002,-5e-05,1e-05,5
22400,23333,-2e-05,-1e-05,-2.9999999999999997e-05,4e-05,0.00025,-1e-05,-1e-05,-2e-05,5
22401,23334,-0.00013000000000000002,-1e-05,-5.9999999999999995e-05,1e-05,-0.00016,-4e-05,-4e-05,-4e-05,5
22402,23335,-0.00013000000000000002,-1e-05,-5.9999999999999995e-05,1e-05,-0.00016,-4e-05,-4e-05,-4e-05,5
22403,23336,-0.00013000000000000002,-1e-05,-5.9999999999999995e-05,1e-05,-0.00016,-4e-05,-4e-05,-4e-05,5
22404,23338,-0.00013000000000000002,-1e-05,-5.9999999999999995e-05,1e-05,-0.00016,-4e-05,-4e-05,-4e-05,5
22405,23339,-0.00013000000000000002,-1e-05,-5.9999999999999995e-05,1e-05,-0.00016,-4e-05,-4e-05,-4e-05,5
22406,23340,-0.00013000000000000002,-1e-05,-5.9999999999999995e-05,1e-05,-0.00016,-4e-05,-4e-05,-4e-05,5
22407,23341,-0.00013000000000000002,-1e-05,-5.9999999999999995e-05,1e-05,-0.00016,-4e-05,-4e-05,-4e-05,5
22408,23342,-0.00013000000000000002,-1e-05,-5.9999999999999995e-05,1e-05,-0.00016,-4e-05,-4e-05,-4e-05,5
22409,23343,-0.00013000000000000002,-1e-05,-5.9999999999999995e-05,1e-05,-0.00016,-4e-05,-4e-05,-4e-05,5
22410,23344,-0.00013000000000000002,-1e-05,-5.9999999999999995e-05,1e-05,-0.00016,-4e-05,-4e-05,-4e-05,5
22411,23345,-0.00013000000000000002,-1e-05,-5.9999999999999995e-05,1e-05,-0.00016,-4e-05,-4e-05,-4e-05,5
22412,23346,-0.00013000000000000002,-1e-05,-5.9999999999999995e-05,1e-05,-0.00016,-4e-05,-4e-05,-4e-05,5
22413,23347,-0.00013000000000000002,-1e-05,-5.9999999999999995e-05,1e-05,-0.00016,-4e-05,-4e-05,-4e-05,5
22414,23348,-0.00013000000000000002,-1e-05,-5.9999999999999995e-05,1e-05,-0.00016,-4e-05,-4e-05,-4e-05,5
22415,23349,-0.00013000000000000002,-1e-05,-5.9999999999999995e-05,1e-05,-0.00016,-4e-05,-4e-05,-4e-05,5
22416,23350,-0.00013000000000000002,-1e-05,-5.9999999999999995e-05,1e-05,-0.00016,-4e-05,-4e-05,-4e-05,5
22417,23351,-0.00013000000000000002,-1e-05,-5.9999999999999995e-05,1e-05,-0.00016,-4e-05,-4e-05,-4e-05,5
22418,23352,-0.00013000000000000002,-1e-05,-5.9999999999999995e-05,1e-05,-0.00016,-4e-05,-4e-05,-4e-05,5
22419,23353,-0.00013000000000000002,-1e-05,-5.9999999999999995e-05,1e-05,-0.00016,-4e-05,-4e-05,-4e-05,5
22420,23354,-0.00013000000000000002,-1e-05,-5.9999999999999995e-05,1e-05,-0.00016,-4e-05,-4e-05,-4e-05,5
22421,23355,-0.00013000000000000002,-1e-05,-5.9999999999999995e-05,1e-05,-0.00016,-4e-05,-4e-05,-4e-05,5
22422,23356,-0.00013000000000000002,-1e-05,-5.9999999999999995e-05,1e-05,-0.00016,-4e-05,-4e-05,-4e-05,5
22423,23357,-0.00013000000000000002,-1e-05,-5.9999999999999995e-05,1e-05,-0.00016,-4e-05,-4e-05,-4e-05,5
22424,23358,-0.00013000000000000002,-1e-05,-5.9999999999999995e-05,1e-05,-0.00016,-4e-05,-4e-05,-4e-05,5
22425,23359,-0.00013000000000000002,-1e-05,-5.9999999999999995e-05,1e-05,-0.00016,-4e-05,-4e-05,-4e-05,5
22426,23360,-0.00013000000000000002,-1e-05,-5.9999999999999995e-05,1e-05,-0.00016,-4e-05,-4e-05,-4e-05,5
22427,23361,-0.00013000000000000002,-1e-05,-5.9999999999999995e-05,1e-05,-0.00016,-4e-05,-4e-05,-4e-05,5
22428,23362,-0.00013000000000000002,-1e-05,-5.9999999999999995e-05,1e-05,-0.00016,-4e-05,-4e-05,-4e-05,5
22429,23363,-8e-05,0.0,-0.00016,-2.9999999999999997e-05,0.0001,8e-05,7e-05,1e-05,5
22430,23364,-8e-05,0.0,-0.00016,-2.9999999999999997e-05,0.0001,8e-05,7e-05,1e-05,5
22431,23365,-4e-05,-0.00011,0.00011999999999999999,8e-05,-0.00036,5.9999999999999995e-05,5.9999999999999995e-05,2.9999999999999997e-05,5
22432,23366,-4e-05,-0.00011,0.00011999999999999999,8e-05,-0.00036,5.9999999999999995e-05,5.9999999999999995e-05,2.9999999999999997e-05,5
22433,23367,-4e-05,-0.00011,0.00011999999999999999,8e-05,-0.00036,5.9999999999999995e-05,5.9999999999999995e-05,2.9999999999999997e-05,5
22434,23368,-4e-05,-0.00011,0.00011999999999999999,8e-05,-0.00036,5.9999999999999995e-05,5.9999999999999995e-05,2.9999999999999997e-05,5
22435,23369,-4e-05,-0.00011,0.00011999999999999999,8e-05,-0.00036,5.9999999999999995e-05,5.9999999999999995e-05,2.9999999999999997e-05,5
22436,23370,-4e-05,-0.00011,0.00011999999999999999,8e-05,-0.00036,5.9999999999999995e-05,5.9999999999999995e-05,2.9999999999999997e-05,5
22437,23371,-4e-05,-0.00011,0.00011999999999999999,8e-05,-0.00036,5.9999999999999995e-05,5.9999999999999995e-05,2.9999999999999997e-05,5
22438,23372,-4e-05,-0.00011,0.00011999999999999999,8e-05,-0.00036,5.9999999999999995e-05,5.9999999999999995e-05,2.9999999999999997e-05,5
22439,23373,-4e-05,-0.00011,0.00011999999999999999,8e-05,-0.00036,5.9999999999999995e-05,5.9999999999999995e-05,2.9999999999999997e-05,5
22440,23374,-4e-05,-0.00011,0.00011999999999999999,8e-05,-0.00036,5.9999999999999995e-05,5.9999999999999995e-05,2.9999999999999997e-05,5
22441,23375,-4e-05,-0.00011,0.00011999999999999999,8e-05,-0.00036,5.9999999999999995e-05,5.9999999999999995e-05,2.9999999999999997e-05,5
22442,23376,-4e-05,-0.00011,0.00011999999999999999,8e-05,-0.00036,5.9999999999999995e-05,5.9999999999999995e-05,2.9999999999999997e-05,5
22443,23377,-4e-05,-0.00011,0.00011999999999999999,8e-05,-0.00036,5.9999999999999995e-05,5.9999999999999995e-05,2.9999999999999997e-05,5
22444,23378,-0.0001,0.0,7e-05,0.00013000000000000002,0.00026000000000000003,9e-05,0.0,-1e-05,5
22445,23379,-0.0001,0.0,7e-05,0.00013000000000000002,0.00026000000000000003,9e-05,0.0,-1e-05,5
22446,23380,-0.0001,0.0,7e-05,0.00013000000000000002,0.00026000000000000003,9e-05,0.0,-1e-05,5
22447,23381,-0.0001,0.0,7e-05,0.00013000000000000002,0.00026000000000000003,9e-05,0.0,-1e-05,5
22448,23382,-0.0001,0.0,7e-05,0.00013000000000000002,0.00026000000000000003,9e-05,0.0,-1e-05,5
22449,23383,-0.0001,0.0,7e-05,0.00013000000000000002,0.00026000000000000003,9e-05,0.0,-1e-05,5
22450,23384,-1e-05,7e-05,7e-05,5.9999999999999995e-05,2e-05,-0.0001,7e-05,-2.9999999999999997e-05,5
22451,23385,-1e-05,7e-05,7e-05,5.9999999999999995e-05,2e-05,-0.0001,7e-05,-2.9999999999999997e-05,5
22452,23386,-1e-05,7e-05,7e-05,5.9999999999999995e-05,2e-05,-0.0001,7e-05,-2.9999999999999997e-05,5
22453,23388,-1e-05,7e-05,7e-05,5.9999999999999995e-05,2e-05,-0.0001,7e-05,-2.9999999999999997e-05,5
22454,23389,-1e-05,7e-05,7e-05,5.9999999999999995e-05,2e-05,-0.0001,7e-05,-2.9999999999999997e-05,5
22455,23390,-1e-05,7e-05,7e-05,5.9999999999999995e-05,2e-05,-0.0001,7e-05,-2.9999999999999997e-05,5
22456,23391,-1e-05,7e-05,7e-05,5.9999999999999995e-05,2e-05,-0.0001,7e-05,-2.9999999999999997e-05,5
22457,23392,-1e-05,7e-05,7e-05,5.9999999999999995e-05,2e-05,-0.0001,7e-05,-2.9999999999999997e-05,5
22458,23393,-1e-05,7e-05,7e-05,5.9999999999999995e-05,2e-05,-0.0001,7e-05,-2.9999999999999997e-05,5
22459,23394,-1e-05,7e-05,7e-05,5.9999999999999995e-05,2e-05,-0.0001,7e-05,-2.9999999999999997e-05,5
22460,23395,-1e-05,7e-05,7e-05,5.9999999999999995e-05,2e-05,-0.0001,7e-05,-2.9999999999999997e-05,5
22461,23396,-1e-05,7e-05,7e-05,5.9999999999999995e-05,2e-05,-0.0001,7e-05,-2.9999999999999997e-05,5
22462,23397,-1e-05,7e-05,7e-05,5.9999999999999995e-05,2e-05,-0.0001,7e-05,-2.9999999999999997e-05,5
22463,23398,-1e-05,7e-05,7e-05,5.9999999999999995e-05,2e-05,-0.0001,7e-05,-2.9999999999999997e-05,5
22464,23399,-1e-05,7e-05,7e-05,5.9999999999999995e-05,2e-05,-0.0001,7e-05,-2.9999999999999997e-05,5
22465,23400,-0.0002,-0.00018999999999999998,-0.00011999999999999999,-7e-05,8e-05,-4e-05,-2.9999999999999997e-05,-7e-05,5
22466,23401,8e-05,2.9999999999999997e-05,4e-05,-8e-05,-0.00026000000000000003,-0.00018,-4e-05,1e-05,5
22467,23402,8e-05,2.9999999999999997e-05,4e-05,-8e-05,-0.00026000000000000003,-0.00018,-4e-05,1e-05,5
22468,23403,8e-05,2.9999999999999997e-05,4e-05,-8e-05,-0.00026000000000000003,-0.00018,-4e-05,1e-05,5
22469,23404,8e-05,2.9999999999999997e-05,4e-05,-8e-05,-0.00026000000000000003,-0.00018,-4e-05,1e-05,5
22470,23405,8e-05,2.9999999999999997e-05,4e-05,-8e-05,-0.00026000000000000003,-0.00018,-4e-05,1e-05,5
22471,23406,8e-05,2.9999999999999997e-05,4e-05,-8e-05,-0.00026000000000000003,-0.00018,-4e-05,1e-05,5
22472,23407,8e-05,2.9999999999999997e-05,4e-05,-8e-05,-0.00026000000000000003,-0.00018,-4e-05,1e-05,5
22473,23408,-0.00011999999999999999,5.9999999999999995e-05,0.00011,-1e-05,4e-05,-8e-05,-5.9999999999999995e-05,-5.9999999999999995e-05,5
22474,23409,-0.00011999999999999999,5.9999999999999995e-05,0.00011,-1e-05,4e-05,-8e-05,-5.9999999999999995e-05,-5.9999999999999995e-05,5
22475,23410,-0.00011999999999999999,5.9999999999999995e-05,0.00011,-1e-05,4e-05,-8e-05,-5.9999999999999995e-05,-5.9999999999999995e-05,5
22476,23411,-0.00011999999999999999,5.9999999999999995e-05,0.00011,-1e-05,4e-05,-8e-05,-5.9999999999999995e-05,-5.9999999999999995e-05,5
22477,23412,-0.00011999999999999999,5.9999999999999995e-05,0.00011,-1e-05,4e-05,-8e-05,-5.9999999999999995e-05,-5.9999999999999995e-05,5
22478,23413,-0.00011999999999999999,5.9999999999999995e-05,0.00011,-1e-05,4e-05,-8e-05,-5.9999999999999995e-05,-5.9999999999999995e-05,5
22479,23414,-0.00011999999999999999,5.9999999999999995e-05,0.00011,-1e-05,4e-05,-8e-05,-5.9999999999999995e-05,-5.9999999999999995e-05,5
22480,23415,8e-05,2e-05,2e-05,-2.9999999999999997e-05,-5.9999999999999995e-05,4e-05,-1e-05,-1e-05,5
22481,23416,8e-05,-1e-05,4e-05,1e-05,-0.00016999999999999999,-0.0001,-4e-05,-2.9999999999999997e-05,5
22482,23417,-9e-05,5e-05,-7e-05,-0.00011,-8e-05,2e-05,-2e-05,0.0,5
22483,23418,-9e-05,5e-05,-7e-05,-0.00011,-8e-05,2e-05,-2e-05,0.0,5
22484,23419,-9e-05,5e-05,-7e-05,-0.00011,-8e-05,2e-05,-2e-05,0.0,5
22485,23420,-9e-05,5e-05,-7e-05,-0.00011,-8e-05,2e-05,-2e-05,0.0,5
22486,23421,-9e-05,5e-05,-7e-05,-0.00011,-8e-05,2e-05,-2e-05,0.0,5
22487,23422,-9e-05,5e-05,-7e-05,-0.00011,-8e-05,2e-05,-2e-05,0.0,5
22488,23423,-9e-05,5e-05,-7e-05,-0.00011,-8e-05,2e-05,-2e-05,0.0,5
22489,23424,-9e-05,5e-05,-7e-05,-0.00011,-8e-05,2e-05,-2e-05,0.0,5
22490,23425,-9e-05,5e-05,-7e-05,-0.00011,-8e-05,2e-05,-2e-05,0.0,5
22491,23426,-9e-05,5e-05,-7e-05,-0.00011,-8e-05,2e-05,-2e-05,0.0,5
22492,23427,-9e-05,5e-05,-7e-05,-0.00011,-8e-05,2e-05,-2e-05,0.0,5
22493,23428,-9e-05,5e-05,-7e-05,-0.00011,-8e-05,2e-05,-2e-05,0.0,5
22494,23429,-9e-05,5e-05,-7e-05,-0.00011,-8e-05,2e-05,-2e-05,0.0,5
22495,23430,-9e-05,5e-05,-7e-05,-0.00011,-8e-05,2e-05,-2e-05,0.0,5
22496,23431,-9e-05,5e-05,-7e-05,-0.00011,-8e-05,2e-05,-2e-05,0.0,5
22497,23432,-9e-05,5e-05,-7e-05,-0.00011,-8e-05,2e-05,-2e-05,0.0,5
22498,23433,-9e-05,5e-05,-7e-05,-0.00011,-8e-05,2e-05,-2e-05,0.0,5
22499,23434,-9e-05,5e-05,-7e-05,-0.00011,-8e-05,2e-05,-2e-05,0.0,5
22500,23435,-9e-05,5e-05,-7e-05,-0.00011,-8e-05,2e-05,-2e-05,0.0,5
22501,23436,-9e-05,5e-05,-7e-05,-0.00011,-8e-05,2e-05,-2e-05,0.0,5
22502,23438,-9e-05,5e-05,-7e-05,-0.00011,-8e-05,2e-05,-2e-05,0.0,5
22503,23439,-9e-05,5e-05,-7e-05,-0.00011,-8e-05,2e-05,-2e-05,0.0,5
22504,23440,-9e-05,5e-05,-7e-05,-0.00011,-8e-05,2e-05,-2e-05,0.0,5
22505,23441,-9e-05,5e-05,-7e-05,-0.00011,-8e-05,2e-05,-2e-05,0.0,5
22506,23442,-9e-05,5e-05,-7e-05,-0.00011,-8e-05,2e-05,-2e-05,0.0,5
22507,23443,-9e-05,5e-05,-7e-05,-0.00011,-8e-05,2e-05,-2e-05,0.0,5
22508,23444,-9e-05,5e-05,-7e-05,-0.00011,-8e-05,2e-05,-2e-05,0.0,5
22509,23445,-0.00011,-1e-05,5.9999999999999995e-05,2e-05,-0.00028,-5.9999999999999995e-05,-2e-05,-4e-05,5
22510,23446,-0.00011,-1e-05,5.9999999999999995e-05,2e-05,-0.00028,-5.9999999999999995e-05,-2e-05,-4e-05,5
22511,23447,0.0001,-1e-05,-9e-05,-0.00018999999999999998,0.00027,-9e-05,-2.9999999999999997e-05,2e-05,5
22512,23448,0.0001,-1e-05,-9e-05,-0.00018999999999999998,0.00027,-9e-05,-2.9999999999999997e-05,2e-05,5
22513,23449,0.0001,-1e-05,-9e-05,-0.00018999999999999998,0.00027,-9e-05,-2.9999999999999997e-05,2e-05,5
22514,23450,0.0001,-1e-05,-9e-05,-0.00018999999999999998,0.00027,-9e-05,-2.9999999999999997e-05,2e-05,5
22515,23451,0.0001,-1e-05,-9e-05,-0.00018999999999999998,0.00027,-9e-05,-2.9999999999999997e-05,2e-05,5
22516,23452,-2.9999999999999997e-05,0.0,-4e-05,0.00026000000000000003,0.00044,9e-05,-5e-05,-2.9999999999999997e-05,5
22517,23453,-9e-05,-8e-05,-7e-05,-0.00026000000000000003,-0.00016,5.9999999999999995e-05,-1e-05,-2e-05,5
22518,23454,0.00011,2.9999999999999997e-05,2e-05,-8e-05,2e-05,0.0,-2.9999999999999997e-05,2.9999999999999997e-05,5
22519,23455,0.00011,2.9999999999999997e-05,2e-05,-8e-05,2e-05,0.0,-2.9999999999999997e-05,2.9999999999999997e-05,5
22520,23456,0.00011,2.9999999999999997e-05,2e-05,-8e-05,2e-05,0.0,-2.9999999999999997e-05,2.9999999999999997e-05,5
22521,23457,0.00011,2.9999999999999997e-05,2e-05,-8e-05,2e-05,0.0,-2.9999999999999997e-05,2.9999999999999997e-05,5
22522,23458,0.00011,2.9999999999999997e-05,2e-05,-8e-05,2e-05,0.0,-2.9999999999999997e-05,2.9999999999999997e-05,5
22523,23460,0.00011,2.9999999999999997e-05,2e-05,-8e-05,2e-05,0.0,-2.9999999999999997e-05,2.9999999999999997e-05,5
22524,23461,0.00011,2.9999999999999997e-05,2e-05,-8e-05,2e-05,0.0,-2.9999999999999997e-05,2.9999999999999997e-05,5
22525,23462,0.00011,2.9999999999999997e-05,2e-05,-8e-05,2e-05,0.0,-2.9999999999999997e-05,2.9999999999999997e-05,5
22526,23463,0.00011,2.9999999999999997e-05,2e-05,-8e-05,2e-05,0.0,-2.9999999999999997e-05,2.9999999999999997e-05,5
22527,23464,0.00011,2.9999999999999997e-05,2e-05,-8e-05,2e-05,0.0,-2.9999999999999997e-05,2.9999999999999997e-05,5
22528,23465,0.00011,2.9999999999999997e-05,2e-05,-8e-05,2e-05,0.0,-2.9999999999999997e-05,2.9999999999999997e-05,5
22529,23466,0.00011,2.9999999999999997e-05,2e-05,-8e-05,2e-05,0.0,-2.9999999999999997e-05,2.9999999999999997e-05,5
22530,23467,0.00011,2.9999999999999997e-05,2e-05,-8e-05,2e-05,0.0,-2.9999999999999997e-05,2.9999999999999997e-05,5
22531,23468,0.00011,2.9999999999999997e-05,2e-05,-8e-05,2e-05,0.0,-2.9999999999999997e-05,2.9999999999999997e-05,5
22532,23469,0.00011,2.9999999999999997e-05,2e-05,-8e-05,2e-05,0.0,-2.9999999999999997e-05,2.9999999999999997e-05,5
22533,23470,0.00011,2.9999999999999997e-05,2e-05,-8e-05,2e-05,0.0,-2.9999999999999997e-05,2.9999999999999997e-05,5
22534,23471,0.00011,2.9999999999999997e-05,2e-05,-8e-05,2e-05,0.0,-2.9999999999999997e-05,2.9999999999999997e-05,5
22535,23472,0.00011,2.9999999999999997e-05,2e-05,-8e-05,2e-05,0.0,-2.9999999999999997e-05,2.9999999999999997e-05,5
22536,23473,0.00011,2.9999999999999997e-05,2e-05,-8e-05,2e-05,0.0,-2.9999999999999997e-05,2.9999999999999997e-05,5
22537,23474,0.00011,2.9999999999999997e-05,2e-05,-8e-05,2e-05,0.0,-2.9999999999999997e-05,2.9999999999999997e-05,5
22538,23475,0.00011,2.9999999999999997e-05,2e-05,-8e-05,2e-05,0.0,-2.9999999999999997e-05,2.9999999999999997e-05,5
22539,23476,0.00011,2.9999999999999997e-05,2e-05,-8e-05,2e-05,0.0,-2.9999999999999997e-05,2.9999999999999997e-05,5
22540,23477,0.00011,2.9999999999999997e-05,2e-05,-8e-05,2e-05,0.0,-2.9999999999999997e-05,2.9999999999999997e-05,5
22541,23478,0.00011,2.9999999999999997e-05,2e-05,-8e-05,2e-05,0.0,-2.9999999999999997e-05,2.9999999999999997e-05,5
22542,23479,0.00011,2.9999999999999997e-05,2e-05,-8e-05,2e-05,0.0,-2.9999999999999997e-05,2.9999999999999997e-05,5
22543,23480,0.00011,2.9999999999999997e-05,2e-05,-8e-05,2e-05,0.0,-2.9999999999999997e-05,2.9999999999999997e-05,5
22544,23481,0.00011,2.9999999999999997e-05,2e-05,-8e-05,2e-05,0.0,-2.9999999999999997e-05,2.9999999999999997e-05,5
22545,23482,0.00011,2.9999999999999997e-05,2e-05,-8e-05,2e-05,0.0,-2.9999999999999997e-05,2.9999999999999997e-05,5
22546,23483,0.00021,0.00018999999999999998,1e-05,-2e-05,-0.00031,-4e-05,0.0,-1e-05,5
22547,23484,0.00016999999999999999,-4e-05,-5.9999999999999995e-05,0.0,0.00015,0.00014,1e-05,-2e-05,5
22548,23485,0.00016999999999999999,-4e-05,-5.9999999999999995e-05,0.0,0.00015,0.00014,1e-05,-2e-05,5
22549,23486,0.00016999999999999999,-4e-05,-5.9999999999999995e-05,0.0,0.00015,0.00014,1e-05,-2e-05,5
22550,23488,0.00016999999999999999,-4e-05,-5.9999999999999995e-05,0.0,0.00015,0.00014,1e-05,-2e-05,5
22551,23489,0.00016999999999999999,-4e-05,-5.9999999999999995e-05,0.0,0.00015,0.00014,1e-05,-2e-05,5
22552,23490,0.00016999999999999999,-4e-05,-5.9999999999999995e-05,0.0,0.00015,0.00014,1e-05,-2e-05,5
22553,23491,0.00016999999999999999,-4e-05,-5.9999999999999995e-05,0.0,0.00015,0.00014,1e-05,-2e-05,5
22554,23492,0.00016999999999999999,-4e-05,-5.9999999999999995e-05,0.0,0.00015,0.00014,1e-05,-2e-05,5
22555,23493,0.00016999999999999999,-4e-05,-5.9999999999999995e-05,0.0,0.00015,0.00014,1e-05,-2e-05,5
22556,23494,0.00016999999999999999,-4e-05,-5.9999999999999995e-05,0.0,0.00015,0.00014,1e-05,-2e-05,5
22557,23495,0.00016999999999999999,-4e-05,-5.9999999999999995e-05,0.0,0.00015,0.00014,1e-05,-2e-05,5
22558,23496,0.00016999999999999999,-4e-05,-5.9999999999999995e-05,0.0,0.00015,0.00014,1e-05,-2e-05,5
22559,23497,0.00016999999999999999,-4e-05,-5.9999999999999995e-05,0.0,0.00015,0.00014,1e-05,-2e-05,5
22560,23498,0.00016999999999999999,-4e-05,-5.9999999999999995e-05,0.0,0.00015,0.00014,1e-05,-2e-05,5
22561,23499,0.00016999999999999999,-4e-05,-5.9999999999999995e-05,0.0,0.00015,0.00014,1e-05,-2e-05,5
22562,23500,0.00016999999999999999,-4e-05,-5.9999999999999995e-05,0.0,0.00015,0.00014,1e-05,-2e-05,5
22563,23501,0.00016999999999999999,-4e-05,-5.9999999999999995e-05,0.0,0.00015,0.00014,1e-05,-2e-05,5
22564,23502,0.00016999999999999999,-4e-05,-5.9999999999999995e-05,0.0,0.00015,0.00014,1e-05,-2e-05,5
22565,23503,0.00016999999999999999,-4e-05,-5.9999999999999995e-05,0.0,0.00015,0.00014,1e-05,-2e-05,5
22566,23504,0.00016999999999999999,-4e-05,-5.9999999999999995e-05,0.0,0.00015,0.00014,1e-05,-2e-05,5
22567,23505,-8e-05,-8e-05,-2e-05,-2.9999999999999997e-05,-8e-05,0.00014,2e-05,7e-05,5
22568,23506,-8e-05,-8e-05,-2e-05,-2.9999999999999997e-05,-8e-05,0.00014,2e-05,7e-05,5
22569,23508,0.00033,4e-05,2.9999999999999997e-05,9e-05,0.00054,4e-05,-1e-05,0.00011999999999999999,5
22570,23509,0.00033,4e-05,2.9999999999999997e-05,9e-05,0.00054,4e-05,-1e-05,0.00011999999999999999,5
22571,23510,0.00033,4e-05,2.9999999999999997e-05,9e-05,0.00054,4e-05,-1e-05,0.00011999999999999999,5
22572,23511,0.00033,4e-05,2.9999999999999997e-05,9e-05,0.00054,4e-05,-1e-05,0.00011999999999999999,5
22573,23512,0.00033,4e-05,2.9999999999999997e-05,9e-05,0.00054,4e-05,-1e-05,0.00011999999999999999,5
22574,23513,0.00033,4e-05,2.9999999999999997e-05,9e-05,0.00054,4e-05,-1e-05,0.00011999999999999999,5
22575,23514,0.00033,4e-05,2.9999999999999997e-05,9e-05,0.00054,4e-05,-1e-05,0.00011999999999999999,5
22576,23515,0.00033,4e-05,2.9999999999999997e-05,9e-05,0.00054,4e-05,-1e-05,0.00011999999999999999,5
22577,23516,0.00033,4e-05,2.9999999999999997e-05,9e-05,0.00054,4e-05,-1e-05,0.00011999999999999999,5
22578,23517,0.00033,4e-05,2.9999999999999997e-05,9e-05,0.00054,4e-05,-1e-05,0.00011999999999999999,5
22579,23518,0.00033,4e-05,2.9999999999999997e-05,9e-05,0.00054,4e-05,-1e-05,0.00011999999999999999,5
22580,23519,0.00033,4e-05,2.9999999999999997e-05,9e-05,0.00054,4e-05,-1e-05,0.00011999999999999999,5
22581,23520,-5.9999999999999995e-05,-2e-05,-5.9999999999999995e-05,-5.9999999999999995e-05,0.0,-0.0001,-4e-05,1e-05,5
22582,23521,-5.9999999999999995e-05,-2e-05,-5.9999999999999995e-05,-5.9999999999999995e-05,0.0,-0.0001,-4e-05,1e-05,5
22583,23522,-0.00013000000000000002,2e-05,2.9999999999999997e-05,0.00016,0.00016999999999999999,-1e-05,4e-05,-2e-05,5
22584,23523,-0.00013000000000000002,2e-05,2.9999999999999997e-05,0.00016,0.00016999999999999999,-1e-05,4e-05,-2e-05,5
22585,23524,-0.00013000000000000002,2e-05,2.9999999999999997e-05,0.00016,0.00016999999999999999,-1e-05,4e-05,-2e-05,5
22586,23525,-0.00013000000000000002,2e-05,2.9999999999999997e-05,0.00016,0.00016999999999999999,-1e-05,4e-05,-2e-05,5
22587,23526,-0.00013000000000000002,2e-05,2.9999999999999997e-05,0.00016,0.00016999999999999999,-1e-05,4e-05,-2e-05,5
22588,23527,-0.00013000000000000002,2e-05,2.9999999999999997e-05,0.00016,0.00016999999999999999,-1e-05,4e-05,-2e-05,5
22589,23528,-0.00013000000000000002,2e-05,2.9999999999999997e-05,0.00016,0.00016999999999999999,-1e-05,4e-05,-2e-05,5
22590,23529,-0.00013000000000000002,2e-05,2.9999999999999997e-05,0.00016,0.00016999999999999999,-1e-05,4e-05,-2e-05,5
22591,23530,-0.00013000000000000002,2e-05,2.9999999999999997e-05,0.00016,0.00016999999999999999,-1e-05,4e-05,-2e-05,5
22592,23531,-0.00013000000000000002,2e-05,2.9999999999999997e-05,0.00016,0.00016999999999999999,-1e-05,4e-05,-2e-05,5
22593,23532,-0.00013000000000000002,2e-05,2.9999999999999997e-05,0.00016,0.00016999999999999999,-1e-05,4e-05,-2e-05,5
22594,23533,-0.00013000000000000002,2e-05,2.9999999999999997e-05,0.00016,0.00016999999999999999,-1e-05,4e-05,-2e-05,5
22595,23534,-0.00013000000000000002,2e-05,2.9999999999999997e-05,0.00016,0.00016999999999999999,-1e-05,4e-05,-2e-05,5
22596,23535,0.0,-0.00016,-0.00022999999999999998,-0.00016999999999999999,0.00042,9e-05,2e-05,-2e-05,5
22597,23536,0.0,-0.00016,-0.00022999999999999998,-0.00016999999999999999,0.00042,9e-05,2e-05,-2e-05,5
22598,23538,-8e-05,-1e-05,2.9999999999999997e-05,-7e-05,0.00014,0.00018999999999999998,2e-05,-5e-05,5
22599,23539,-8e-05,-1e-05,2.9999999999999997e-05,-7e-05,0.00014,0.00018999999999999998,2e-05,-5e-05,5
22600,23540,-8e-05,-1e-05,2.9999999999999997e-05,-7e-05,0.00014,0.00018999999999999998,2e-05,-5e-05,5
22601,23541,-8e-05,-1e-05,2.9999999999999997e-05,-7e-05,0.00014,0.00018999999999999998,2e-05,-5e-05,5
22602,23542,-8e-05,-1e-05,2.9999999999999997e-05,-7e-05,0.00014,0.00018999999999999998,2e-05,-5e-05,5
22603,23543,-8e-05,-1e-05,2.9999999999999997e-05,-7e-05,0.00014,0.00018999999999999998,2e-05,-5e-05,5
22604,23544,-8e-05,-1e-05,2.9999999999999997e-05,-7e-05,0.00014,0.00018999999999999998,2e-05,-5e-05,5
22605,23545,-8e-05,-1e-05,2.9999999999999997e-05,-7e-05,0.00014,0.00018999999999999998,2e-05,-5e-05,5
22606,23546,-8e-05,-1e-05,2.9999999999999997e-05,-7e-05,0.00014,0.00018999999999999998,2e-05,-5e-05,5
22607,23547,-8e-05,-1e-05,2.9999999999999997e-05,-7e-05,0.00014,0.00018999999999999998,2e-05,-5e-05,5
22608,23548,-8e-05,-1e-05,2.9999999999999997e-05,-7e-05,0.00014,0.00018999999999999998,2e-05,-5e-05,5
22609,23549,-8e-05,-1e-05,2.9999999999999997e-05,-7e-05,0.00014,0.00018999999999999998,2e-05,-5e-05,5
22610,23550,-8e-05,-1e-05,2.9999999999999997e-05,-7e-05,0.00014,0.00018999999999999998,2e-05,-5e-05,5
22611,23551,-8e-05,-1e-05,2.9999999999999997e-05,-7e-05,0.00014,0.00018999999999999998,2e-05,-5e-05,5
22612,23552,-8e-05,-1e-05,2.9999999999999997e-05,-7e-05,0.00014,0.00018999999999999998,2e-05,-5e-05,5
22613,23553,-8e-05,-1e-05,2.9999999999999997e-05,-7e-05,0.00014,0.00018999999999999998,2e-05,-5e-05,5
22614,23554,-8e-05,-1e-05,2.9999999999999997e-05,-7e-05,0.00014,0.00018999999999999998,2e-05,-5e-05,5
22615,23555,-8e-05,-1e-05,2.9999999999999997e-05,-7e-05,0.00014,0.00018999999999999998,2e-05,-5e-05,5
22616,23556,-8e-05,-1e-05,2.9999999999999997e-05,-7e-05,0.00014,0.00018999999999999998,2e-05,-5e-05,5
22617,23557,-8e-05,-1e-05,2.9999999999999997e-05,-7e-05,0.00014,0.00018999999999999998,2e-05,-5e-05,5
22618,23558,-0.00016,-0.00013000000000000002,-7e-05,5.9999999999999995e-05,-0.00055,-9e-05,-5e-05,-5.9999999999999995e-05,5
22619,23559,-0.00016,-0.00013000000000000002,-7e-05,5.9999999999999995e-05,-0.00055,-9e-05,-5e-05,-5.9999999999999995e-05,5
22620,23560,-0.00016,-0.00013000000000000002,-7e-05,5.9999999999999995e-05,-0.00055,-9e-05,-5e-05,-5.9999999999999995e-05,5
22621,23561,-0.00016,-0.00013000000000000002,-7e-05,5.9999999999999995e-05,-0.00055,-9e-05,-5e-05,-5.9999999999999995e-05,5
22622,23562,-0.00016,-0.00013000000000000002,-7e-05,5.9999999999999995e-05,-0.00055,-9e-05,-5e-05,-5.9999999999999995e-05,5
22623,23563,-0.00016,-0.00013000000000000002,-7e-05,5.9999999999999995e-05,-0.00055,-9e-05,-5e-05,-5.9999999999999995e-05,5
22624,23564,-0.00016,-0.00013000000000000002,-7e-05,5.9999999999999995e-05,-0.00055,-9e-05,-5e-05,-5.9999999999999995e-05,5
22625,23565,-5.9999999999999995e-05,-2.9999999999999997e-05,-7e-05,-5.9999999999999995e-05,-0.00036,5e-05,-1e-05,1e-05,5
22626,23566,-5.9999999999999995e-05,-2.9999999999999997e-05,-7e-05,-5.9999999999999995e-05,-0.00036,5e-05,-1e-05,1e-05,5
22627,23567,-5.9999999999999995e-05,-2.9999999999999997e-05,-7e-05,-5.9999999999999995e-05,-0.00036,5e-05,-1e-05,1e-05,5
22628,23568,-5.9999999999999995e-05,-2.9999999999999997e-05,-7e-05,-5.9999999999999995e-05,-0.00036,5e-05,-1e-05,1e-05,5
22629,23569,-5.9999999999999995e-05,-2.9999999999999997e-05,-7e-05,-5.9999999999999995e-05,-0.00036,5e-05,-1e-05,1e-05,5
22630,23570,-5.9999999999999995e-05,-2.9999999999999997e-05,-7e-05,-5.9999999999999995e-05,-0.00036,5e-05,-1e-05,1e-05,5
22631,23571,-5.9999999999999995e-05,-2.9999999999999997e-05,-7e-05,-5.9999999999999995e-05,-0.00036,5e-05,-1e-05,1e-05,5
22632,23572,-0.00011999999999999999,-0.00011999999999999999,-5.9999999999999995e-05,5e-05,5e-05,-0.00011,-5e-05,-5.9999999999999995e-05,5
22633,23573,-0.00011999999999999999,-0.00011999999999999999,-5.9999999999999995e-05,5e-05,5e-05,-0.00011,-5e-05,-5.9999999999999995e-05,5
22634,23574,-0.00011999999999999999,-0.00011999999999999999,-5.9999999999999995e-05,5e-05,5e-05,-0.00011,-5e-05,-5.9999999999999995e-05,5
22635,23575,-0.00011999999999999999,-0.00011999999999999999,-5.9999999999999995e-05,5e-05,5e-05,-0.00011,-5e-05,-5.9999999999999995e-05,5
22636,23576,-0.00011999999999999999,-0.00011999999999999999,-5.9999999999999995e-05,5e-05,5e-05,-0.00011,-5e-05,-5.9999999999999995e-05,5
22637,23577,-0.00011999999999999999,-0.00011999999999999999,-5.9999999999999995e-05,5e-05,5e-05,-0.00011,-5e-05,-5.9999999999999995e-05,5
22638,23578,-0.00011999999999999999,-0.00011999999999999999,-5.9999999999999995e-05,5e-05,5e-05,-0.00011,-5e-05,-5.9999999999999995e-05,5
22639,23579,0.00015,-1e-05,2e-05,2e-05,-0.00013000000000000002,0.0,-2.9999999999999997e-05,1e-05,5
22640,23580,0.00015,-1e-05,2e-05,2e-05,-0.00013000000000000002,0.0,-2.9999999999999997e-05,1e-05,5
22641,23581,0.00015,-1e-05,2e-05,2e-05,-0.00013000000000000002,0.0,-2.9999999999999997e-05,1e-05,5
22642,23582,0.00015,-1e-05,2e-05,2e-05,-0.00013000000000000002,0.0,-2.9999999999999997e-05,1e-05,5
22643,23583,0.00015,-1e-05,2e-05,2e-05,-0.00013000000000000002,0.0,-2.9999999999999997e-05,1e-05,5
22644,23584,0.00015,-1e-05,2e-05,2e-05,-0.00013000000000000002,0.0,-2.9999999999999997e-05,1e-05,5
22645,23585,0.00015,-1e-05,2e-05,2e-05,-0.00013000000000000002,0.0,-2.9999999999999997e-05,1e-05,5
22646,23586,0.00015,-1e-05,2e-05,2e-05,-0.00013000000000000002,0.0,-2.9999999999999997e-05,1e-05,5
22647,23588,0.00015,-1e-05,2e-05,2e-05,-0.00013000000000000002,0.0,-2.9999999999999997e-05,1e-05,5
22648,23589,0.00015,-1e-05,2e-05,2e-05,-0.00013000000000000002,0.0,-2.9999999999999997e-05,1e-05,5
22649,23590,0.00015,-1e-05,2e-05,2e-05,-0.00013000000000000002,0.0,-2.9999999999999997e-05,1e-05,5
22650,23591,0.00015,-1e-05,2e-05,2e-05,-0.00013000000000000002,0.0,-2.9999999999999997e-05,1e-05,5
22651,23592,0.00015,-1e-05,2e-05,2e-05,-0.00013000000000000002,0.0,-2.9999999999999997e-05,1e-05,5
22652,23593,0.00015,-1e-05,2e-05,2e-05,-0.00013000000000000002,0.0,-2.9999999999999997e-05,1e-05,5
22653,23594,0.00015,-1e-05,2e-05,2e-05,-0.00013000000000000002,0.0,-2.9999999999999997e-05,1e-05,5
22654,23595,-8e-05,2.9999999999999997e-05,2.9999999999999997e-05,2.9999999999999997e-05,-4e-05,-2.9999999999999997e-05,0.0,-5.9999999999999995e-05,5
22655,23596,-8e-05,2.9999999999999997e-05,2.9999999999999997e-05,2.9999999999999997e-05,-4e-05,-2.9999999999999997e-05,0.0,-5.9999999999999995e-05,5
22656,23597,-0.00022,2e-05,-2.9999999999999997e-05,5e-05,0.00013000000000000002,-0.00011999999999999999,-2.9999999999999997e-05,-5e-05,5
22657,23598,-0.00022,2e-05,-2.9999999999999997e-05,5e-05,0.00013000000000000002,-0.00011999999999999999,-2.9999999999999997e-05,-5e-05,5
22658,23599,-0.00022,2e-05,-2.9999999999999997e-05,5e-05,0.00013000000000000002,-0.00011999999999999999,-2.9999999999999997e-05,-5e-05,5
22659,23601,-0.00022,2e-05,-2.9999999999999997e-05,5e-05,0.00013000000000000002,-0.00011999999999999999,-2.9999999999999997e-05,-5e-05,5
22660,23602,-0.00022,2e-05,-2.9999999999999997e-05,5e-05,0.00013000000000000002,-0.00011999999999999999,-2.9999999999999997e-05,-5e-05,5
22661,23603,-0.00022,2e-05,-2.9999999999999997e-05,5e-05,0.00013000000000000002,-0.00011999999999999999,-2.9999999999999997e-05,-5e-05,5
22662,23604,-0.00022,2e-05,-2.9999999999999997e-05,5e-05,0.00013000000000000002,-0.00011999999999999999,-2.9999999999999997e-05,-5e-05,5
22663,23605,-0.00022,2e-05,-2.9999999999999997e-05,5e-05,0.00013000000000000002,-0.00011999999999999999,-2.9999999999999997e-05,-5e-05,5
22664,23606,-0.00022,2e-05,-2.9999999999999997e-05,5e-05,0.00013000000000000002,-0.00011999999999999999,-2.9999999999999997e-05,-5e-05,5
22665,23607,-0.00022,2e-05,-2.9999999999999997e-05,5e-05,0.00013000000000000002,-0.00011999999999999999,-2.9999999999999997e-05,-5e-05,5
22666,23608,-0.00022,2e-05,-2.9999999999999997e-05,5e-05,0.00013000000000000002,-0.00011999999999999999,-2.9999999999999997e-05,-5e-05,5
22667,23609,-0.00022,2e-05,-2.9999999999999997e-05,5e-05,0.00013000000000000002,-0.00011999999999999999,-2.9999999999999997e-05,-5e-05,5
22668,23610,-0.00022,2e-05,-2.9999999999999997e-05,5e-05,0.00013000000000000002,-0.00011999999999999999,-2.9999999999999997e-05,-5e-05,5
22669,23611,-0.00022,2e-05,-2.9999999999999997e-05,5e-05,0.00013000000000000002,-0.00011999999999999999,-2.9999999999999997e-05,-5e-05,5
22670,23612,-0.00022,2e-05,-2.9999999999999997e-05,5e-05,0.00013000000000000002,-0.00011999999999999999,-2.9999999999999997e-05,-5e-05,5
22671,23613,-0.00022,2e-05,-2.9999999999999997e-05,5e-05,0.00013000000000000002,-0.00011999999999999999,-2.9999999999999997e-05,-5e-05,5
22672,23614,-0.00022,2e-05,-2.9999999999999997e-05,5e-05,0.00013000000000000002,-0.00011999999999999999,-2.9999999999999997e-05,-5e-05,5
22673,23615,-0.00022,2e-05,-2.9999999999999997e-05,5e-05,0.00013000000000000002,-0.00011999999999999999,-2.9999999999999997e-05,-5e-05,5
22674,23616,-0.00022,2e-05,-2.9999999999999997e-05,5e-05,0.00013000000000000002,-0.00011999999999999999,-2.9999999999999997e-05,-5e-05,5
22675,23617,-0.00022,2e-05,-2.9999999999999997e-05,5e-05,0.00013000000000000002,-0.00011999999999999999,-2.9999999999999997e-05,-5e-05,5
22676,23618,-0.00022,2e-05,-2.9999999999999997e-05,5e-05,0.00013000000000000002,-0.00011999999999999999,-2.9999999999999997e-05,-5e-05,5
22677,23619,-0.00022,2e-05,-2.9999999999999997e-05,5e-05,0.00013000000000000002,-0.00011999999999999999,-2.9999999999999997e-05,-5e-05,5
22678,23620,-0.00022,2e-05,-2.9999999999999997e-05,5e-05,0.00013000000000000002,-0.00011999999999999999,-2.9999999999999997e-05,-5e-05,5
22679,23621,-0.00022,2e-05,-2.9999999999999997e-05,5e-05,0.00013000000000000002,-0.00011999999999999999,-2.9999999999999997e-05,-5e-05,5
22680,23622,-0.00022,2e-05,-2.9999999999999997e-05,5e-05,0.00013000000000000002,-0.00011999999999999999,-2.9999999999999997e-05,-5e-05,5
22681,23623,-0.00022,2e-05,-2.9999999999999997e-05,5e-05,0.00013000000000000002,-0.00011999999999999999,-2.9999999999999997e-05,-5e-05,5
22682,23624,-0.00022,2e-05,-2.9999999999999997e-05,5e-05,0.00013000000000000002,-0.00011999999999999999,-2.9999999999999997e-05,-5e-05,5
22683,23625,-4e-05,-5.9999999999999995e-05,9e-05,0.00018999999999999998,0.00047000000000000004,-7e-05,4e-05,2.9999999999999997e-05,5
22684,23626,2.9999999999999997e-05,5.9999999999999995e-05,-0.0001,-0.00021,-0.00031,-2.9999999999999997e-05,0.0,1e-05,5
22685,23627,8e-05,1e-05,1e-05,-9e-05,-0.00039,-0.00014,-1e-05,-2.9999999999999997e-05,5
22686,23628,8e-05,1e-05,1e-05,-9e-05,-0.00039,-0.00014,-1e-05,-2.9999999999999997e-05,5
22687,23629,8e-05,1e-05,1e-05,-9e-05,-0.00039,-0.00014,-1e-05,-2.9999999999999997e-05,5
22688,23630,8e-05,1e-05,1e-05,-9e-05,-0.00039,-0.00014,-1e-05,-2.9999999999999997e-05,5
22689,23631,8e-05,1e-05,1e-05,-9e-05,-0.00039,-0.00014,-1e-05,-2.9999999999999997e-05,5
22690,23632,8e-05,1e-05,1e-05,-9e-05,-0.00039,-0.00014,-1e-05,-2.9999999999999997e-05,5
22691,23633,8e-05,1e-05,1e-05,-9e-05,-0.00039,-0.00014,-1e-05,-2.9999999999999997e-05,5
22692,23634,8e-05,1e-05,1e-05,-9e-05,-0.00039,-0.00014,-1e-05,-2.9999999999999997e-05,5
22693,23635,8e-05,1e-05,1e-05,-9e-05,-0.00039,-0.00014,-1e-05,-2.9999999999999997e-05,5
22694,23636,8e-05,1e-05,1e-05,-9e-05,-0.00039,-0.00014,-1e-05,-2.9999999999999997e-05,5
22695,23638,8e-05,1e-05,1e-05,-9e-05,-0.00039,-0.00014,-1e-05,-2.9999999999999997e-05,5
22696,23639,8e-05,1e-05,1e-05,-9e-05,-0.00039,-0.00014,-1e-05,-2.9999999999999997e-05,5
22697,23640,5.9999999999999995e-05,8e-05,0.00011999999999999999,0.00016999999999999999,0.00039,0.0,-2.9999999999999997e-05,0.0,5
22698,23641,5.9999999999999995e-05,8e-05,0.00011999999999999999,0.00016999999999999999,0.00039,0.0,-2.9999999999999997e-05,0.0,5
22699,23642,1e-05,1e-05,1e-05,7e-05,-0.00037,-5e-05,5e-05,2e-05,5
22700,23643,1e-05,1e-05,1e-05,7e-05,-0.00037,-5e-05,5e-05,2e-05,5
22701,23644,1e-05,1e-05,1e-05,7e-05,-0.00037,-5e-05,5e-05,2e-05,5
22702,23645,1e-05,1e-05,1e-05,7e-05,-0.00037,-5e-05,5e-05,2e-05,5
22703,23646,1e-05,1e-05,1e-05,7e-05,-0.00037,-5e-05,5e-05,2e-05,5
22704,23647,1e-05,1e-05,1e-05,7e-05,-0.00037,-5e-05,5e-05,2e-05,5
22705,23648,1e-05,1e-05,1e-05,7e-05,-0.00037,-5e-05,5e-05,2e-05,5
22706,23649,1e-05,1e-05,1e-05,7e-05,-0.00037,-5e-05,5e-05,2e-05,5
22707,23650,1e-05,1e-05,1e-05,7e-05,-0.00037,-5e-05,5e-05,2e-05,5
22708,23651,1e-05,1e-05,1e-05,7e-05,-0.00037,-5e-05,5e-05,2e-05,5
22709,23652,1e-05,1e-05,1e-05,7e-05,-0.00037,-5e-05,5e-05,2e-05,5
22710,23653,1e-05,1e-05,1e-05,7e-05,-0.00037,-5e-05,5e-05,2e-05,5
22711,23654,1e-05,1e-05,1e-05,7e-05,-0.00037,-5e-05,5e-05,2e-05,5
22712,23655,-0.00013000000000000002,-8e-05,1e-05,-4e-05,-5e-05,-2e-05,-2.9999999999999997e-05,-5e-05,5
22713,23656,-0.00013000000000000002,-8e-05,1e-05,-4e-05,-5e-05,-2e-05,-2.9999999999999997e-05,-5e-05,5
22714,23657,-4e-05,5.9999999999999995e-05,-4e-05,-0.00016999999999999999,-0.00035,-2e-05,-5.9999999999999995e-05,-2.9999999999999997e-05,5
22715,23658,-4e-05,5.9999999999999995e-05,-4e-05,-0.00016999999999999999,-0.00035,-2e-05,-5.9999999999999995e-05,-2.9999999999999997e-05,5
22716,23659,-4e-05,5.9999999999999995e-05,-4e-05,-0.00016999999999999999,-0.00035,-2e-05,-5.9999999999999995e-05,-2.9999999999999997e-05,5
22717,23660,-4e-05,5.9999999999999995e-05,-4e-05,-0.00016999999999999999,-0.00035,-2e-05,-5.9999999999999995e-05,-2.9999999999999997e-05,5
22718,23661,-4e-05,5.9999999999999995e-05,-4e-05,-0.00016999999999999999,-0.00035,-2e-05,-5.9999999999999995e-05,-2.9999999999999997e-05,5
22719,23662,-4e-05,5.9999999999999995e-05,-4e-05,-0.00016999999999999999,-0.00035,-2e-05,-5.9999999999999995e-05,-2.9999999999999997e-05,5
22720,23663,-4e-05,5.9999999999999995e-05,-4e-05,-0.00016999999999999999,-0.00035,-2e-05,-5.9999999999999995e-05,-2.9999999999999997e-05,5
22721,23664,-4e-05,5.9999999999999995e-05,-4e-05,-0.00016999999999999999,-0.00035,-2e-05,-5.9999999999999995e-05,-2.9999999999999997e-05,5
22722,23665,-4e-05,5.9999999999999995e-05,-4e-05,-0.00016999999999999999,-0.00035,-2e-05,-5.9999999999999995e-05,-2.9999999999999997e-05,5
22723,23666,-4e-05,5.9999999999999995e-05,-4e-05,-0.00016999999999999999,-0.00035,-2e-05,-5.9999999999999995e-05,-2.9999999999999997e-05,5
22724,23667,-4e-05,5.9999999999999995e-05,-4e-05,-0.00016999999999999999,-0.00035,-2e-05,-5.9999999999999995e-05,-2.9999999999999997e-05,5
22725,23668,-4e-05,5.9999999999999995e-05,-4e-05,-0.00016999999999999999,-0.00035,-2e-05,-5.9999999999999995e-05,-2.9999999999999997e-05,5
22726,23669,-4e-05,5.9999999999999995e-05,-4e-05,-0.00016999999999999999,-0.00035,-2e-05,-5.9999999999999995e-05,-2.9999999999999997e-05,5
22727,23670,-4e-05,5.9999999999999995e-05,-4e-05,-0.00016999999999999999,-0.00035,-2e-05,-5.9999999999999995e-05,-2.9999999999999997e-05,5
22728,23671,-4e-05,5.9999999999999995e-05,-4e-05,-0.00016999999999999999,-0.00035,-2e-05,-5.9999999999999995e-05,-2.9999999999999997e-05,5
22729,23672,-4e-05,5.9999999999999995e-05,-4e-05,-0.00016999999999999999,-0.00035,-2e-05,-5.9999999999999995e-05,-2.9999999999999997e-05,5
22730,23673,-4e-05,5.9999999999999995e-05,-4e-05,-0.00016999999999999999,-0.00035,-2e-05,-5.9999999999999995e-05,-2.9999999999999997e-05,5
22731,23674,-4e-05,5.9999999999999995e-05,-4e-05,-0.00016999999999999999,-0.00035,-2e-05,-5.9999999999999995e-05,-2.9999999999999997e-05,5
22732,23675,-4e-05,5.9999999999999995e-05,-4e-05,-0.00016999999999999999,-0.00035,-2e-05,-5.9999999999999995e-05,-2.9999999999999997e-05,5
22733,23676,-4e-05,5.9999999999999995e-05,-4e-05,-0.00016999999999999999,-0.00035,-2e-05,-5.9999999999999995e-05,-2.9999999999999997e-05,5
22734,23677,-4e-05,5.9999999999999995e-05,-4e-05,-0.00016999999999999999,-0.00035,-2e-05,-5.9999999999999995e-05,-2.9999999999999997e-05,5
22735,23678,-4e-05,5.9999999999999995e-05,-4e-05,-0.00016999999999999999,-0.00035,-2e-05,-5.9999999999999995e-05,-2.9999999999999997e-05,5
22736,23679,4e-05,-0.00011999999999999999,-5.9999999999999995e-05,-1e-05,-0.00021,0.0,-1e-05,-2.9999999999999997e-05,5
22737,23680,4e-05,-0.00011999999999999999,-5.9999999999999995e-05,-1e-05,-0.00021,0.0,-1e-05,-2.9999999999999997e-05,5
22738,23681,4e-05,-0.00011999999999999999,-5.9999999999999995e-05,-1e-05,-0.00021,0.0,-1e-05,-2.9999999999999997e-05,5
22739,23682,4e-05,-0.00011999999999999999,-5.9999999999999995e-05,-1e-05,-0.00021,0.0,-1e-05,-2.9999999999999997e-05,5
22740,23683,4e-05,-0.00011999999999999999,-5.9999999999999995e-05,-1e-05,-0.00021,0.0,-1e-05,-2.9999999999999997e-05,5
22741,23684,-0.00041,-0.00028,1e-05,5e-05,0.0,-9e-05,-4e-05,-8e-05,5
22742,23685,-0.00041,-0.00028,1e-05,5e-05,0.0,-9e-05,-4e-05,-8e-05,5
22743,23686,-0.00041,-0.00028,1e-05,5e-05,0.0,-9e-05,-4e-05,-8e-05,5
22744,23688,-0.00041,-0.00028,1e-05,5e-05,0.0,-9e-05,-4e-05,-8e-05,5
22745,23689,-0.00041,-0.00028,1e-05,5e-05,0.0,-9e-05,-4e-05,-8e-05,5
22746,23690,-0.00041,-0.00028,1e-05,5e-05,0.0,-9e-05,-4e-05,-8e-05,5
22747,23691,-0.00041,-0.00028,1e-05,5e-05,0.0,-9e-05,-4e-05,-8e-05,5
22748,23692,0.0,0.00018,-5e-05,-0.00016999999999999999,-0.00037,-0.0005,0.0,0.0,5
22749,23693,0.0,0.00018,-5e-05,-0.00016999999999999999,-0.00037,-0.0005,0.0,0.0,5
22750,23694,0.0,0.00018,-5e-05,-0.00016999999999999999,-0.00037,-0.0005,0.0,0.0,5
22751,23695,0.0,0.00018,-5e-05,-0.00016999999999999999,-0.00037,-0.0005,0.0,0.0,5
22752,23696,0.0,0.00018,-5e-05,-0.00016999999999999999,-0.00037,-0.0005,0.0,0.0,5
22753,23697,0.0,0.00018,-5e-05,-0.00016999999999999999,-0.00037,-0.0005,0.0,0.0,5
22754,23698,0.0,0.00018,-5e-05,-0.00016999999999999999,-0.00037,-0.0005,0.0,0.0,5
22755,23699,1e-05,4e-05,-8e-05,1e-05,0.00018999999999999998,0.00025,2e-05,-1e-05,5
22756,23700,1e-05,4e-05,-8e-05,1e-05,0.00018999999999999998,0.00025,2e-05,-1e-05,5
22757,23701,1e-05,4e-05,-8e-05,1e-05,0.00018999999999999998,0.00025,2e-05,-1e-05,5
22758,23702,1e-05,4e-05,-8e-05,1e-05,0.00018999999999999998,0.00025,2e-05,-1e-05,5
22759,23703,1e-05,4e-05,-8e-05,1e-05,0.00018999999999999998,0.00025,2e-05,-1e-05,5
22760,23704,1e-05,4e-05,-8e-05,1e-05,0.00018999999999999998,0.00025,2e-05,-1e-05,5
22761,23705,1e-05,4e-05,-8e-05,1e-05,0.00018999999999999998,0.00025,2e-05,-1e-05,5
22762,23706,1e-05,4e-05,-8e-05,1e-05,0.00018999999999999998,0.00025,2e-05,-1e-05,5
22763,23707,1e-05,4e-05,-8e-05,1e-05,0.00018999999999999998,0.00025,2e-05,-1e-05,5
22764,23708,1e-05,4e-05,-8e-05,1e-05,0.00018999999999999998,0.00025,2e-05,-1e-05,5
22765,23709,1e-05,4e-05,-8e-05,1e-05,0.00018999999999999998,0.00025,2e-05,-1e-05,5
22766,23710,1e-05,4e-05,-8e-05,1e-05,0.00018999999999999998,0.00025,2e-05,-1e-05,5
22767,23711,1e-05,4e-05,-8e-05,1e-05,0.00018999999999999998,0.00025,2e-05,-1e-05,5
22768,23712,1e-05,4e-05,-8e-05,1e-05,0.00018999999999999998,0.00025,2e-05,-1e-05,5
22769,23713,1e-05,4e-05,-8e-05,1e-05,0.00018999999999999998,0.00025,2e-05,-1e-05,5
22770,23714,-4e-05,-5.9999999999999995e-05,2e-05,0.00013000000000000002,0.00011999999999999999,7e-05,-2.9999999999999997e-05,-2.9999999999999997e-05,5
22771,23715,-4e-05,-5.9999999999999995e-05,2e-05,0.00013000000000000002,0.00011999999999999999,7e-05,-2.9999999999999997e-05,-2.9999999999999997e-05,5
22772,23716,-4e-05,-5.9999999999999995e-05,2e-05,0.00013000000000000002,0.00011999999999999999,7e-05,-2.9999999999999997e-05,-2.9999999999999997e-05,5
22773,23717,-4e-05,-5.9999999999999995e-05,2e-05,0.00013000000000000002,0.00011999999999999999,7e-05,-2.9999999999999997e-05,-2.9999999999999997e-05,5
22774,23718,-4e-05,-5.9999999999999995e-05,2e-05,0.00013000000000000002,0.00011999999999999999,7e-05,-2.9999999999999997e-05,-2.9999999999999997e-05,5
22775,23719,-4e-05,-5.9999999999999995e-05,2e-05,0.00013000000000000002,0.00011999999999999999,7e-05,-2.9999999999999997e-05,-2.9999999999999997e-05,5
22776,23720,-4e-05,-5.9999999999999995e-05,2e-05,0.00013000000000000002,0.00011999999999999999,7e-05,-2.9999999999999997e-05,-2.9999999999999997e-05,5
22777,23721,-4e-05,-5.9999999999999995e-05,2e-05,0.00013000000000000002,0.00011999999999999999,7e-05,-2.9999999999999997e-05,-2.9999999999999997e-05,5
22778,23722,-4e-05,-5.9999999999999995e-05,2e-05,0.00013000000000000002,0.00011999999999999999,7e-05,-2.9999999999999997e-05,-2.9999999999999997e-05,5
22779,23723,5.9999999999999995e-05,2.9999999999999997e-05,1e-05,5e-05,0.00063,-5.9999999999999995e-05,2e-05,2.9999999999999997e-05,5
22780,23724,5.9999999999999995e-05,2.9999999999999997e-05,1e-05,5e-05,0.00063,-5.9999999999999995e-05,2e-05,2.9999999999999997e-05,5
22781,23725,5.9999999999999995e-05,2.9999999999999997e-05,1e-05,5e-05,0.00063,-5.9999999999999995e-05,2e-05,2.9999999999999997e-05,5
22782,23726,5.9999999999999995e-05,2.9999999999999997e-05,1e-05,5e-05,0.00063,-5.9999999999999995e-05,2e-05,2.9999999999999997e-05,5
22783,23727,5.9999999999999995e-05,2.9999999999999997e-05,1e-05,5e-05,0.00063,-5.9999999999999995e-05,2e-05,2.9999999999999997e-05,5
22784,23728,5.9999999999999995e-05,2.9999999999999997e-05,1e-05,5e-05,0.00063,-5.9999999999999995e-05,2e-05,2.9999999999999997e-05,5
22785,23729,5.9999999999999995e-05,2.9999999999999997e-05,1e-05,5e-05,0.00063,-5.9999999999999995e-05,2e-05,2.9999999999999997e-05,5
22786,23730,5.9999999999999995e-05,2.9999999999999997e-05,1e-05,5e-05,0.00063,-5.9999999999999995e-05,2e-05,2.9999999999999997e-05,5
22787,23731,5.9999999999999995e-05,2.9999999999999997e-05,1e-05,5e-05,0.00063,-5.9999999999999995e-05,2e-05,2.9999999999999997e-05,5
22788,23732,5.9999999999999995e-05,2.9999999999999997e-05,1e-05,5e-05,0.00063,-5.9999999999999995e-05,2e-05,2.9999999999999997e-05,5
22789,23733,5.9999999999999995e-05,2.9999999999999997e-05,1e-05,5e-05,0.00063,-5.9999999999999995e-05,2e-05,2.9999999999999997e-05,5
22790,23734,5.9999999999999995e-05,2.9999999999999997e-05,1e-05,5e-05,0.00063,-5.9999999999999995e-05,2e-05,2.9999999999999997e-05,5
22791,23735,5.9999999999999995e-05,2.9999999999999997e-05,1e-05,5e-05,0.00063,-5.9999999999999995e-05,2e-05,2.9999999999999997e-05,5
22792,23736,5.9999999999999995e-05,2.9999999999999997e-05,1e-05,5e-05,0.00063,-5.9999999999999995e-05,2e-05,2.9999999999999997e-05,5
22793,23738,9e-05,-2e-05,-5e-05,-0.0002,-0.00045,5.9999999999999995e-05,0.0,2.9999999999999997e-05,5
22794,23739,9e-05,-2e-05,-5e-05,-0.0002,-0.00045,5.9999999999999995e-05,0.0,2.9999999999999997e-05,5
22795,23740,8e-05,5e-05,1e-05,-2e-05,-5.9999999999999995e-05,0.0,-2.9999999999999997e-05,0.0,5
22796,23741,8e-05,5e-05,1e-05,-2e-05,-5.9999999999999995e-05,0.0,-2.9999999999999997e-05,0.0,5
22797,23742,8e-05,5e-05,1e-05,-2e-05,-5.9999999999999995e-05,0.0,-2.9999999999999997e-05,0.0,5
22798,23743,8e-05,5e-05,1e-05,-2e-05,-5.9999999999999995e-05,0.0,-2.9999999999999997e-05,0.0,5
22799,23744,8e-05,5e-05,1e-05,-2e-05,-5.9999999999999995e-05,0.0,-2.9999999999999997e-05,0.0,5
22800,23745,8e-05,5e-05,1e-05,-2e-05,-5.9999999999999995e-05,0.0,-2.9999999999999997e-05,0.0,5
22801,23746,8e-05,5e-05,1e-05,-2e-05,-5.9999999999999995e-05,0.0,-2.9999999999999997e-05,0.0,5
22802,23747,8e-05,5e-05,1e-05,-2e-05,-5.9999999999999995e-05,0.0,-2.9999999999999997e-05,0.0,5
22803,23748,8e-05,5e-05,1e-05,-2e-05,-5.9999999999999995e-05,0.0,-2.9999999999999997e-05,0.0,5
22804,23749,8e-05,5e-05,1e-05,-2e-05,-5.9999999999999995e-05,0.0,-2.9999999999999997e-05,0.0,5
22805,23750,8e-05,5e-05,1e-05,-2e-05,-5.9999999999999995e-05,0.0,-2.9999999999999997e-05,0.0,5
22806,23751,8e-05,5e-05,1e-05,-2e-05,-5.9999999999999995e-05,0.0,-2.9999999999999997e-05,0.0,5
22807,23753,-2e-05,8e-05,7e-05,0.0,-0.00014,-4e-05,0.0,-4e-05,5
22808,23754,0.00011999999999999999,1e-05,0.0,1e-05,0.00016999999999999999,0.00011,2e-05,5e-05,5
22809,23755,0.00011999999999999999,1e-05,0.0,1e-05,0.00016999999999999999,0.00011,2e-05,5e-05,5
22810,23756,0.00011999999999999999,1e-05,0.0,1e-05,0.00016999999999999999,0.00011,2e-05,5e-05,5
22811,23757,0.00011999999999999999,1e-05,0.0,1e-05,0.00016999999999999999,0.00011,2e-05,5e-05,5
22812,23758,0.00011999999999999999,1e-05,0.0,1e-05,0.00016999999999999999,0.00011,2e-05,5e-05,5
22813,23759,0.00011999999999999999,1e-05,0.0,1e-05,0.00016999999999999999,0.00011,2e-05,5e-05,5
22814,23760,-0.00011,-5.9999999999999995e-05,-2e-05,-5e-05,-2e-05,-5.9999999999999995e-05,-4e-05,-1e-05,5
22815,23761,-0.00011,-5.9999999999999995e-05,-2e-05,-5e-05,-2e-05,-5.9999999999999995e-05,-4e-05,-1e-05,5
22816,23762,-0.00011,-5.9999999999999995e-05,-2e-05,-5e-05,-2e-05,-5.9999999999999995e-05,-4e-05,-1e-05,5
22817,23763,-0.00011,-5.9999999999999995e-05,-2e-05,-5e-05,-2e-05,-5.9999999999999995e-05,-4e-05,-1e-05,5
22818,23764,-0.00011,-5.9999999999999995e-05,-2e-05,-5e-05,-2e-05,-5.9999999999999995e-05,-4e-05,-1e-05,5
22819,23765,-0.00011,-5.9999999999999995e-05,-2e-05,-5e-05,-2e-05,-5.9999999999999995e-05,-4e-05,-1e-05,5
22820,23766,-0.00011,-5.9999999999999995e-05,-2e-05,-5e-05,-2e-05,-5.9999999999999995e-05,-4e-05,-1e-05,5
22821,23767,-0.00011,-5.9999999999999995e-05,-2e-05,-5e-05,-2e-05,-5.9999999999999995e-05,-4e-05,-1e-05,5
22822,23768,-0.00011,-5.9999999999999995e-05,-2e-05,-5e-05,-2e-05,-5.9999999999999995e-05,-4e-05,-1e-05,5
22823,23769,-0.00011,-5.9999999999999995e-05,-2e-05,-5e-05,-2e-05,-5.9999999999999995e-05,-4e-05,-1e-05,5
22824,23770,-0.00011,-5.9999999999999995e-05,-2e-05,-5e-05,-2e-05,-5.9999999999999995e-05,-4e-05,-1e-05,5
22825,23771,-0.00011,-5.9999999999999995e-05,-2e-05,-5e-05,-2e-05,-5.9999999999999995e-05,-4e-05,-1e-05,5
22826,23772,-0.00011,-5.9999999999999995e-05,-2e-05,-5e-05,-2e-05,-5.9999999999999995e-05,-4e-05,-1e-05,5
22827,23773,-0.00011,-5.9999999999999995e-05,-2e-05,-5e-05,-2e-05,-5.9999999999999995e-05,-4e-05,-1e-05,5
22828,23774,-0.00011,-5.9999999999999995e-05,-2e-05,-5e-05,-2e-05,-5.9999999999999995e-05,-4e-05,-1e-05,5
22829,23775,-0.00011,-5.9999999999999995e-05,-2e-05,-5e-05,-2e-05,-5.9999999999999995e-05,-4e-05,-1e-05,5
22830,23776,1e-05,0.0001,8e-05,5.9999999999999995e-05,0.00061,5.9999999999999995e-05,2.9999999999999997e-05,2e-05,5
22831,23777,1e-05,0.0001,8e-05,5.9999999999999995e-05,0.00061,5.9999999999999995e-05,2.9999999999999997e-05,2e-05,5
22832,23778,0.00021,2e-05,-0.00011,-0.0001,-0.00033,0.0,1e-05,0.0,5
22833,23779,0.00021,2e-05,-0.00011,-0.0001,-0.00033,0.0,1e-05,0.0,5
22834,23780,0.00021,2e-05,-0.00011,-0.0001,-0.00033,0.0,1e-05,0.0,5
22835,23781,0.00021,2e-05,-0.00011,-0.0001,-0.00033,0.0,1e-05,0.0,5
22836,23782,0.00021,2e-05,-0.00011,-0.0001,-0.00033,0.0,1e-05,0.0,5
22837,23783,0.00021,2e-05,-0.00011,-0.0001,-0.00033,0.0,1e-05,0.0,5
22838,23784,0.00021,2e-05,-0.00011,-0.0001,-0.00033,0.0,1e-05,0.0,5
22839,23785,0.00021,2e-05,-0.00011,-0.0001,-0.00033,0.0,1e-05,0.0,5
22840,23786,0.00021,2e-05,-0.00011,-0.0001,-0.00033,0.0,1e-05,0.0,5
22841,23788,0.00021,2e-05,-0.00011,-0.0001,-0.00033,0.0,1e-05,0.0,5
22842,23789,0.00021,2e-05,-0.00011,-0.0001,-0.00033,0.0,1e-05,0.0,5
22843,23790,0.00021,2e-05,-0.00011,-0.0001,-0.00033,0.0,1e-05,0.0,5
22844,23791,0.00021,2e-05,-0.00011,-0.0001,-0.00033,0.0,1e-05,0.0,5
22845,23792,0.00021,2e-05,-0.00011,-0.0001,-0.00033,0.0,1e-05,0.0,5
22846,23793,0.00021,2e-05,-0.00011,-0.0001,-0.00033,0.0,1e-05,0.0,5
22847,23794,0.00021,2e-05,-0.00011,-0.0001,-0.00033,0.0,1e-05,0.0,5
22848,23795,0.00021,2e-05,-0.00011,-0.0001,-0.00033,0.0,1e-05,0.0,5
22849,23796,0.00021,2e-05,-0.00011,-0.0001,-0.00033,0.0,1e-05,0.0,5
22850,23797,0.00021,2e-05,-0.00011,-0.0001,-0.00033,0.0,1e-05,0.0,5
22851,23798,0.00021,2e-05,-0.00011,-0.0001,-0.00033,0.0,1e-05,0.0,5
22852,23799,2e-05,2e-05,0.0,-1e-05,-0.00037999999999999997,0.00025,2.9999999999999997e-05,2e-05,5
22853,23800,2e-05,2e-05,0.0,-1e-05,-0.00037999999999999997,0.00025,2.9999999999999997e-05,2e-05,5
22854,23801,-4e-05,-7e-05,-2.9999999999999997e-05,-2.9999999999999997e-05,-0.00015,-0.00033,2.9999999999999997e-05,1e-05,5
22855,23802,-4e-05,-7e-05,-2.9999999999999997e-05,-2.9999999999999997e-05,-0.00015,-0.00033,2.9999999999999997e-05,1e-05,5
22856,23803,-4e-05,-7e-05,-2.9999999999999997e-05,-2.9999999999999997e-05,-0.00015,-0.00033,2.9999999999999997e-05,1e-05,5
22857,23804,-4e-05,-7e-05,-2.9999999999999997e-05,-2.9999999999999997e-05,-0.00015,-0.00033,2.9999999999999997e-05,1e-05,5
22858,23805,-4e-05,-7e-05,-2.9999999999999997e-05,-2.9999999999999997e-05,-0.00015,-0.00033,2.9999999999999997e-05,1e-05,5
22859,23806,-4e-05,-7e-05,-2.9999999999999997e-05,-2.9999999999999997e-05,-0.00015,-0.00033,2.9999999999999997e-05,1e-05,5
22860,23807,-4e-05,-7e-05,-2.9999999999999997e-05,-2.9999999999999997e-05,-0.00015,-0.00033,2.9999999999999997e-05,1e-05,5
22861,23808,-4e-05,-7e-05,-2.9999999999999997e-05,-2.9999999999999997e-05,-0.00015,-0.00033,2.9999999999999997e-05,1e-05,5
22862,23809,-4e-05,-7e-05,-2.9999999999999997e-05,-2.9999999999999997e-05,-0.00015,-0.00033,2.9999999999999997e-05,1e-05,5
22863,23810,-4e-05,-7e-05,-2.9999999999999997e-05,-2.9999999999999997e-05,-0.00015,-0.00033,2.9999999999999997e-05,1e-05,5
22864,23811,-4e-05,-7e-05,-2.9999999999999997e-05,-2.9999999999999997e-05,-0.00015,-0.00033,2.9999999999999997e-05,1e-05,5
22865,23812,-4e-05,-7e-05,-2.9999999999999997e-05,-2.9999999999999997e-05,-0.00015,-0.00033,2.9999999999999997e-05,1e-05,5
22866,23813,-9e-05,-4e-05,2.9999999999999997e-05,4e-05,-5.9999999999999995e-05,-1e-05,-7e-05,-1e-05,5
22867,23814,-9e-05,-4e-05,2.9999999999999997e-05,4e-05,-5.9999999999999995e-05,-1e-05,-7e-05,-1e-05,5
22868,23815,-9e-05,-4e-05,2.9999999999999997e-05,4e-05,-5.9999999999999995e-05,-1e-05,-7e-05,-1e-05,5
22869,23816,-9e-05,-4e-05,2.9999999999999997e-05,4e-05,-5.9999999999999995e-05,-1e-05,-7e-05,-1e-05,5
22870,23817,-9e-05,-4e-05,2.9999999999999997e-05,4e-05,-5.9999999999999995e-05,-1e-05,-7e-05,-1e-05,5
22871,23818,-9e-05,-4e-05,2.9999999999999997e-05,4e-05,-5.9999999999999995e-05,-1e-05,-7e-05,-1e-05,5
22872,23819,-9e-05,-4e-05,2.9999999999999997e-05,4e-05,-5.9999999999999995e-05,-1e-05,-7e-05,-1e-05,5
22873,23820,0.0,-2.9999999999999997e-05,-4e-05,-5e-05,-2.9999999999999997e-05,5.9999999999999995e-05,2e-05,0.0,5
22874,23821,0.0,-2.9999999999999997e-05,-4e-05,-5e-05,-2.9999999999999997e-05,5.9999999999999995e-05,2e-05,0.0,5
22875,23822,0.0,-2.9999999999999997e-05,-4e-05,-5e-05,-2.9999999999999997e-05,5.9999999999999995e-05,2e-05,0.0,5
22876,23823,0.0,-2.9999999999999997e-05,-4e-05,-5e-05,-2.9999999999999997e-05,5.9999999999999995e-05,2e-05,0.0,5
22877,23824,0.0,-2.9999999999999997e-05,-4e-05,-5e-05,-2.9999999999999997e-05,5.9999999999999995e-05,2e-05,0.0,5
22878,23825,0.0,-2.9999999999999997e-05,-4e-05,-5e-05,-2.9999999999999997e-05,5.9999999999999995e-05,2e-05,0.0,5
22879,23826,0.0,-2.9999999999999997e-05,-4e-05,-5e-05,-2.9999999999999997e-05,5.9999999999999995e-05,2e-05,0.0,5
22880,23827,0.0,-2.9999999999999997e-05,-4e-05,-5e-05,-2.9999999999999997e-05,5.9999999999999995e-05,2e-05,0.0,5
22881,23828,0.0,-2.9999999999999997e-05,-4e-05,-5e-05,-2.9999999999999997e-05,5.9999999999999995e-05,2e-05,0.0,5
22882,23829,0.0,-2.9999999999999997e-05,-4e-05,-5e-05,-2.9999999999999997e-05,5.9999999999999995e-05,2e-05,0.0,5
22883,23830,0.0,-2.9999999999999997e-05,-4e-05,-5e-05,-2.9999999999999997e-05,5.9999999999999995e-05,2e-05,0.0,5
22884,23831,0.0,-2.9999999999999997e-05,-4e-05,-5e-05,-2.9999999999999997e-05,5.9999999999999995e-05,2e-05,0.0,5
22885,23832,0.0,-2.9999999999999997e-05,-4e-05,-5e-05,-2.9999999999999997e-05,5.9999999999999995e-05,2e-05,0.0,5
22886,23833,0.0,-2.9999999999999997e-05,-4e-05,-5e-05,-2.9999999999999997e-05,5.9999999999999995e-05,2e-05,0.0,5
22887,23834,0.0,-2.9999999999999997e-05,-4e-05,-5e-05,-2.9999999999999997e-05,5.9999999999999995e-05,2e-05,0.0,5
22888,23835,0.0,-2.9999999999999997e-05,-4e-05,-5e-05,-2.9999999999999997e-05,5.9999999999999995e-05,2e-05,0.0,5
22889,23836,-4e-05,1e-05,-2.9999999999999997e-05,2.9999999999999997e-05,0.0003,-0.00011,-4e-05,-2.9999999999999997e-05,5
22890,23838,-4e-05,1e-05,-2.9999999999999997e-05,2.9999999999999997e-05,0.0003,-0.00011,-4e-05,-2.9999999999999997e-05,5
22891,23839,-4e-05,1e-05,-2.9999999999999997e-05,2.9999999999999997e-05,0.0003,-0.00011,-4e-05,-2.9999999999999997e-05,5
22892,23840,-4e-05,1e-05,-2.9999999999999997e-05,2.9999999999999997e-05,0.0003,-0.00011,-4e-05,-2.9999999999999997e-05,5
22893,23841,-4e-05,1e-05,-2.9999999999999997e-05,2.9999999999999997e-05,0.0003,-0.00011,-4e-05,-2.9999999999999997e-05,5
22894,23842,-4e-05,1e-05,-2.9999999999999997e-05,2.9999999999999997e-05,0.0003,-0.00011,-4e-05,-2.9999999999999997e-05,5
22895,23843,-4e-05,1e-05,-2.9999999999999997e-05,2.9999999999999997e-05,0.0003,-0.00011,-4e-05,-2.9999999999999997e-05,5
22896,23844,-4e-05,2.9999999999999997e-05,9e-05,9e-05,5.9999999999999995e-05,-9e-05,-2e-05,-2.9999999999999997e-05,5
22897,23845,-4e-05,2.9999999999999997e-05,9e-05,9e-05,5.9999999999999995e-05,-9e-05,-2e-05,-2.9999999999999997e-05,5
22898,23846,-4e-05,2.9999999999999997e-05,9e-05,9e-05,5.9999999999999995e-05,-9e-05,-2e-05,-2.9999999999999997e-05,5
22899,23847,-4e-05,2.9999999999999997e-05,9e-05,9e-05,5.9999999999999995e-05,-9e-05,-2e-05,-2.9999999999999997e-05,5
22900,23848,-4e-05,2.9999999999999997e-05,9e-05,9e-05,5.9999999999999995e-05,-9e-05,-2e-05,-2.9999999999999997e-05,5
22901,23849,-4e-05,2.9999999999999997e-05,9e-05,9e-05,5.9999999999999995e-05,-9e-05,-2e-05,-2.9999999999999997e-05,5
22902,23850,-4e-05,2.9999999999999997e-05,9e-05,9e-05,5.9999999999999995e-05,-9e-05,-2e-05,-2.9999999999999997e-05,5
22903,23851,-4e-05,2.9999999999999997e-05,9e-05,9e-05,5.9999999999999995e-05,-9e-05,-2e-05,-2.9999999999999997e-05,5
22904,23852,-4e-05,2.9999999999999997e-05,9e-05,9e-05,5.9999999999999995e-05,-9e-05,-2e-05,-2.9999999999999997e-05,5
22905,23853,-4e-05,2.9999999999999997e-05,9e-05,9e-05,5.9999999999999995e-05,-9e-05,-2e-05,-2.9999999999999997e-05,5
22906,23854,-4e-05,2.9999999999999997e-05,9e-05,9e-05,5.9999999999999995e-05,-9e-05,-2e-05,-2.9999999999999997e-05,5
22907,23855,-4e-05,2.9999999999999997e-05,9e-05,9e-05,5.9999999999999995e-05,-9e-05,-2e-05,-2.9999999999999997e-05,5
22908,23856,-4e-05,2.9999999999999997e-05,9e-05,9e-05,5.9999999999999995e-05,-9e-05,-2e-05,-2.9999999999999997e-05,5
22909,23857,-4e-05,2.9999999999999997e-05,9e-05,9e-05,5.9999999999999995e-05,-9e-05,-2e-05,-2.9999999999999997e-05,5
22910,23858,-0.00021,-5e-05,2e-05,1e-05,0.0003,5e-05,0.0,-2.9999999999999997e-05,5
22911,23859,-0.00021,-5e-05,2e-05,1e-05,0.0003,5e-05,0.0,-2.9999999999999997e-05,5
22912,23860,-5e-05,-0.0001,7e-05,5.9999999999999995e-05,2.9999999999999997e-05,0.00011,-2.9999999999999997e-05,-2e-05,5
22913,23861,-5e-05,-0.0001,7e-05,5.9999999999999995e-05,2.9999999999999997e-05,0.00011,-2.9999999999999997e-05,-2e-05,5
22914,23862,-5e-05,-0.0001,7e-05,5.9999999999999995e-05,2.9999999999999997e-05,0.00011,-2.9999999999999997e-05,-2e-05,5
22915,23863,-5e-05,-0.0001,7e-05,5.9999999999999995e-05,2.9999999999999997e-05,0.00011,-2.9999999999999997e-05,-2e-05,5
22916,23864,-5e-05,-0.0001,7e-05,5.9999999999999995e-05,2.9999999999999997e-05,0.00011,-2.9999999999999997e-05,-2e-05,5
22917,23865,-5e-05,-0.0001,7e-05,5.9999999999999995e-05,2.9999999999999997e-05,0.00011,-2.9999999999999997e-05,-2e-05,5
22918,23866,-5e-05,-0.0001,7e-05,5.9999999999999995e-05,2.9999999999999997e-05,0.00011,-2.9999999999999997e-05,-2e-05,5
22919,23867,-5e-05,-0.0001,7e-05,5.9999999999999995e-05,2.9999999999999997e-05,0.00011,-2.9999999999999997e-05,-2e-05,5
22920,23868,-5e-05,-0.0001,7e-05,5.9999999999999995e-05,2.9999999999999997e-05,0.00011,-2.9999999999999997e-05,-2e-05,5
22921,23869,-5e-05,-0.0001,7e-05,5.9999999999999995e-05,2.9999999999999997e-05,0.00011,-2.9999999999999997e-05,-2e-05,5
22922,23870,-5e-05,-0.0001,7e-05,5.9999999999999995e-05,2.9999999999999997e-05,0.00011,-2.9999999999999997e-05,-2e-05,5
22923,23871,-5e-05,-0.0001,7e-05,5.9999999999999995e-05,2.9999999999999997e-05,0.00011,-2.9999999999999997e-05,-2e-05,5
22924,23872,-5e-05,-0.0001,7e-05,5.9999999999999995e-05,2.9999999999999997e-05,0.00011,-2.9999999999999997e-05,-2e-05,5
22925,23873,0.00011,0.0001,5e-05,1e-05,-0.00036,-5.9999999999999995e-05,1e-05,2e-05,5
22926,23874,0.00011,0.0001,5e-05,1e-05,-0.00036,-5.9999999999999995e-05,1e-05,2e-05,5
22927,23875,0.00011,0.0001,5e-05,1e-05,-0.00036,-5.9999999999999995e-05,1e-05,2e-05,5
22928,23876,0.00011,0.0001,5e-05,1e-05,-0.00036,-5.9999999999999995e-05,1e-05,2e-05,5
22929,23877,0.00011,0.0001,5e-05,1e-05,-0.00036,-5.9999999999999995e-05,1e-05,2e-05,5
22930,23878,0.00011,0.0001,5e-05,1e-05,-0.00036,-5.9999999999999995e-05,1e-05,2e-05,5
22931,23879,0.00011,0.0001,5e-05,1e-05,-0.00036,-5.9999999999999995e-05,1e-05,2e-05,5
22932,23880,0.00011,0.0001,5e-05,1e-05,-0.00036,-5.9999999999999995e-05,1e-05,2e-05,5
22933,23881,5.9999999999999995e-05,2e-05,-1e-05,5e-05,0.00018999999999999998,5.9999999999999995e-05,-2e-05,-1e-05,5
22934,23882,5.9999999999999995e-05,2e-05,-1e-05,5e-05,0.00018999999999999998,5.9999999999999995e-05,-2e-05,-1e-05,5
22935,23883,5.9999999999999995e-05,2e-05,-1e-05,5e-05,0.00018999999999999998,5.9999999999999995e-05,-2e-05,-1e-05,5
22936,23884,5.9999999999999995e-05,2e-05,-1e-05,5e-05,0.00018999999999999998,5.9999999999999995e-05,-2e-05,-1e-05,5
22937,23885,5.9999999999999995e-05,2e-05,-1e-05,5e-05,0.00018999999999999998,5.9999999999999995e-05,-2e-05,-1e-05,5
22938,23886,5.9999999999999995e-05,2e-05,-1e-05,5e-05,0.00018999999999999998,5.9999999999999995e-05,-2e-05,-1e-05,5
22939,23888,5.9999999999999995e-05,2e-05,-1e-05,5e-05,0.00018999999999999998,5.9999999999999995e-05,-2e-05,-1e-05,5
22940,23889,5.9999999999999995e-05,2e-05,-1e-05,5e-05,0.00018999999999999998,5.9999999999999995e-05,-2e-05,-1e-05,5
22941,23890,5.9999999999999995e-05,2e-05,-1e-05,5e-05,0.00018999999999999998,5.9999999999999995e-05,-2e-05,-1e-05,5
22942,23891,5.9999999999999995e-05,2e-05,-1e-05,5e-05,0.00018999999999999998,5.9999999999999995e-05,-2e-05,-1e-05,5
22943,23892,5.9999999999999995e-05,2e-05,-1e-05,5e-05,0.00018999999999999998,5.9999999999999995e-05,-2e-05,-1e-05,5
22944,23893,5.9999999999999995e-05,2e-05,-1e-05,5e-05,0.00018999999999999998,5.9999999999999995e-05,-2e-05,-1e-05,5
22945,23894,5.9999999999999995e-05,2e-05,-1e-05,5e-05,0.00018999999999999998,5.9999999999999995e-05,-2e-05,-1e-05,5
22946,23895,5.9999999999999995e-05,2e-05,-1e-05,5e-05,0.00018999999999999998,5.9999999999999995e-05,-2e-05,-1e-05,5
22947,23896,5.9999999999999995e-05,2e-05,-1e-05,5e-05,0.00018999999999999998,5.9999999999999995e-05,-2e-05,-1e-05,5
22948,23897,5.9999999999999995e-05,2e-05,-1e-05,5e-05,0.00018999999999999998,5.9999999999999995e-05,-2e-05,-1e-05,5
22949,23898,5.9999999999999995e-05,2e-05,-1e-05,5e-05,0.00018999999999999998,5.9999999999999995e-05,-2e-05,-1e-05,5
22950,23899,5.9999999999999995e-05,2e-05,-1e-05,5e-05,0.00018999999999999998,5.9999999999999995e-05,-2e-05,-1e-05,5
22951,23900,5.9999999999999995e-05,2e-05,-1e-05,5e-05,0.00018999999999999998,5.9999999999999995e-05,-2e-05,-1e-05,5
22952,23901,5.9999999999999995e-05,2e-05,-1e-05,5e-05,0.00018999999999999998,5.9999999999999995e-05,-2e-05,-1e-05,5
22953,23902,5.9999999999999995e-05,2e-05,-1e-05,5e-05,0.00018999999999999998,5.9999999999999995e-05,-2e-05,-1e-05,5
22954,23903,5.9999999999999995e-05,2e-05,-1e-05,5e-05,0.00018999999999999998,5.9999999999999995e-05,-2e-05,-1e-05,5
22955,23904,-0.00011,-2.9999999999999997e-05,-7e-05,-9e-05,-0.00015,-0.0001,-2.9999999999999997e-05,-7e-05,5
22956,23905,0.00011999999999999999,0.00018999999999999998,-5.9999999999999995e-05,-0.00016,-0.00026000000000000003,-5.9999999999999995e-05,-4e-05,-1e-05,5
22957,23906,0.00011999999999999999,0.00018999999999999998,-5.9999999999999995e-05,-0.00016,-0.00026000000000000003,-5.9999999999999995e-05,-4e-05,-1e-05,5
22958,23907,0.00011999999999999999,0.00018999999999999998,-5.9999999999999995e-05,-0.00016,-0.00026000000000000003,-5.9999999999999995e-05,-4e-05,-1e-05,5
22959,23908,0.00011999999999999999,0.00018999999999999998,-5.9999999999999995e-05,-0.00016,-0.00026000000000000003,-5.9999999999999995e-05,-4e-05,-1e-05,5
22960,23909,0.00011999999999999999,0.00018999999999999998,-5.9999999999999995e-05,-0.00016,-0.00026000000000000003,-5.9999999999999995e-05,-4e-05,-1e-05,5
22961,23910,0.00011999999999999999,0.00018999999999999998,-5.9999999999999995e-05,-0.00016,-0.00026000000000000003,-5.9999999999999995e-05,-4e-05,-1e-05,5
22962,23911,0.00011999999999999999,0.00018999999999999998,-5.9999999999999995e-05,-0.00016,-0.00026000000000000003,-5.9999999999999995e-05,-4e-05,-1e-05,5
22963,23912,0.00011999999999999999,0.00018999999999999998,-5.9999999999999995e-05,-0.00016,-0.00026000000000000003,-5.9999999999999995e-05,-4e-05,-1e-05,5
22964,23913,0.00011999999999999999,0.00018999999999999998,-5.9999999999999995e-05,-0.00016,-0.00026000000000000003,-5.9999999999999995e-05,-4e-05,-1e-05,5
22965,23914,0.00011999999999999999,0.00018999999999999998,-5.9999999999999995e-05,-0.00016,-0.00026000000000000003,-5.9999999999999995e-05,-4e-05,-1e-05,5
22966,23915,0.00011999999999999999,0.00018999999999999998,-5.9999999999999995e-05,-0.00016,-0.00026000000000000003,-5.9999999999999995e-05,-4e-05,-1e-05,5
22967,23916,0.00011999999999999999,0.00018999999999999998,-5.9999999999999995e-05,-0.00016,-0.00026000000000000003,-5.9999999999999995e-05,-4e-05,-1e-05,5
22968,23917,0.00011999999999999999,0.00018999999999999998,-5.9999999999999995e-05,-0.00016,-0.00026000000000000003,-5.9999999999999995e-05,-4e-05,-1e-05,5
22969,23918,0.0001,-0.00013000000000000002,-2.9999999999999997e-05,0.0,0.00022,-2.9999999999999997e-05,0.0,2e-05,5
22970,23919,-0.00031,-2e-05,1e-05,2.9999999999999997e-05,0.00031,0.00018999999999999998,-1e-05,-5e-05,5
22971,23920,0.0,-5e-05,-0.0001,-4e-05,9e-05,-1e-05,5e-05,2e-05,5
22972,23921,0.0,-5e-05,-0.0001,-4e-05,9e-05,-1e-05,5e-05,2e-05,5
22973,23922,0.0,-5e-05,-0.0001,-4e-05,9e-05,-1e-05,5e-05,2e-05,5
22974,23923,0.0,-5e-05,-0.0001,-4e-05,9e-05,-1e-05,5e-05,2e-05,5
22975,23924,0.0,-5e-05,-0.0001,-4e-05,9e-05,-1e-05,5e-05,2e-05,5
22976,23925,0.0,-5e-05,-0.0001,-4e-05,9e-05,-1e-05,5e-05,2e-05,5
22977,23926,0.0,-5e-05,-0.0001,-4e-05,9e-05,-1e-05,5e-05,2e-05,5
22978,23927,0.0,-5e-05,-0.0001,-4e-05,9e-05,-1e-05,5e-05,2e-05,5
22979,23928,0.0,-5e-05,-0.0001,-4e-05,9e-05,-1e-05,5e-05,2e-05,5
22980,23929,0.0,-5e-05,-0.0001,-4e-05,9e-05,-1e-05,5e-05,2e-05,5
22981,23930,0.0,-5e-05,-0.0001,-4e-05,9e-05,-1e-05,5e-05,2e-05,5
22982,23931,0.0,-5e-05,-0.0001,-4e-05,9e-05,-1e-05,5e-05,2e-05,5
22983,23932,0.0,-5e-05,-0.0001,-4e-05,9e-05,-1e-05,5e-05,2e-05,5
22984,23933,0.0001,-1e-05,-7e-05,5e-05,0.00049,0.0,-1e-05,2e-05,5
22985,23934,0.0001,-1e-05,-7e-05,5e-05,0.00049,0.0,-1e-05,2e-05,5
22986,23935,0.0001,-1e-05,-7e-05,5e-05,0.00049,0.0,-1e-05,2e-05,5
22987,23936,0.0001,-1e-05,-7e-05,5e-05,0.00049,0.0,-1e-05,2e-05,5
22988,23938,0.0001,-1e-05,-7e-05,5e-05,0.00049,0.0,-1e-05,2e-05,5
22989,23939,0.0001,-1e-05,-7e-05,5e-05,0.00049,0.0,-1e-05,2e-05,5
22990,23940,-2.9999999999999997e-05,-1e-05,0.0,-7e-05,-8e-05,-5.9999999999999995e-05,-4e-05,1e-05,5
22991,23941,-2.9999999999999997e-05,-1e-05,0.0,-7e-05,-8e-05,-5.9999999999999995e-05,-4e-05,1e-05,5
22992,23942,-2.9999999999999997e-05,-1e-05,0.0,-7e-05,-8e-05,-5.9999999999999995e-05,-4e-05,1e-05,5
22993,23943,-2.9999999999999997e-05,-1e-05,0.0,-7e-05,-8e-05,-5.9999999999999995e-05,-4e-05,1e-05,5
22994,23944,-2.9999999999999997e-05,-1e-05,0.0,-7e-05,-8e-05,-5.9999999999999995e-05,-4e-05,1e-05,5
22995,23945,-2.9999999999999997e-05,-1e-05,0.0,-7e-05,-8e-05,-5.9999999999999995e-05,-4e-05,1e-05,5
22996,23946,-2.9999999999999997e-05,-1e-05,0.0,-7e-05,-8e-05,-5.9999999999999995e-05,-4e-05,1e-05,5
22997,23947,-2.9999999999999997e-05,-1e-05,0.0,-7e-05,-8e-05,-5.9999999999999995e-05,-4e-05,1e-05,5
22998,23948,-2.9999999999999997e-05,-1e-05,0.0,-7e-05,-8e-05,-5.9999999999999995e-05,-4e-05,1e-05,5
22999,23949,-2.9999999999999997e-05,-1e-05,0.0,-7e-05,-8e-05,-5.9999999999999995e-05,-4e-05,1e-05,5
23000,23950,-2.9999999999999997e-05,-1e-05,0.0,-7e-05,-8e-05,-5.9999999999999995e-05,-4e-05,1e-05,5
23001,23951,-2.9999999999999997e-05,-1e-05,0.0,-7e-05,-8e-05,-5.9999999999999995e-05,-4e-05,1e-05,5
23002,23952,-2.9999999999999997e-05,-1e-05,0.0,-7e-05,-8e-05,-5.9999999999999995e-05,-4e-05,1e-05,5
23003,23953,-2.9999999999999997e-05,-1e-05,0.0,-7e-05,-8e-05,-5.9999999999999995e-05,-4e-05,1e-05,5
23004,23954,-2.9999999999999997e-05,-1e-05,0.0,-7e-05,-8e-05,-5.9999999999999995e-05,-4e-05,1e-05,5
23005,23955,-2.9999999999999997e-05,-1e-05,0.0,-7e-05,-8e-05,-5.9999999999999995e-05,-4e-05,1e-05,5
23006,23956,8e-05,4e-05,-1e-05,-7e-05,-0.00042,-0.00011,0.0,-1e-05,5
23007,23957,8e-05,4e-05,-1e-05,-7e-05,-0.00042,-0.00011,0.0,-1e-05,5
23008,23958,-7e-05,-0.00014,-5e-05,-1e-05,-4e-05,2.9999999999999997e-05,-2e-05,-2e-05,5
23009,23959,-7e-05,-0.00014,-5e-05,-1e-05,-4e-05,2.9999999999999997e-05,-2e-05,-2e-05,5
23010,23960,-7e-05,-0.00014,-5e-05,-1e-05,-4e-05,2.9999999999999997e-05,-2e-05,-2e-05,5
23011,23961,-7e-05,-0.00014,-5e-05,-1e-05,-4e-05,2.9999999999999997e-05,-2e-05,-2e-05,5
23012,23962,-7e-05,-0.00014,-5e-05,-1e-05,-4e-05,2.9999999999999997e-05,-2e-05,-2e-05,5
23013,23963,-7e-05,-0.00014,-5e-05,-1e-05,-4e-05,2.9999999999999997e-05,-2e-05,-2e-05,5
23014,23964,-7e-05,-0.00014,-5e-05,-1e-05,-4e-05,2.9999999999999997e-05,-2e-05,-2e-05,5
23015,23965,-7e-05,-0.00014,-5e-05,-1e-05,-4e-05,2.9999999999999997e-05,-2e-05,-2e-05,5
23016,23966,-7e-05,-0.00014,-5e-05,-1e-05,-4e-05,2.9999999999999997e-05,-2e-05,-2e-05,5
23017,23967,-7e-05,-0.00014,-5e-05,-1e-05,-4e-05,2.9999999999999997e-05,-2e-05,-2e-05,5
23018,23968,-7e-05,-0.00014,-5e-05,-1e-05,-4e-05,2.9999999999999997e-05,-2e-05,-2e-05,5
23019,23969,-7e-05,-0.00014,-5e-05,-1e-05,-4e-05,2.9999999999999997e-05,-2e-05,-2e-05,5
23020,23970,-7e-05,-0.00014,-5e-05,-1e-05,-4e-05,2.9999999999999997e-05,-2e-05,-2e-05,5
23021,23971,-7e-05,-0.00014,-5e-05,-1e-05,-4e-05,2.9999999999999997e-05,-2e-05,-2e-05,5
23022,23972,-7e-05,-0.00014,-5e-05,-1e-05,-4e-05,2.9999999999999997e-05,-2e-05,-2e-05,5
23023,23973,-7e-05,-0.00014,-5e-05,-1e-05,-4e-05,2.9999999999999997e-05,-2e-05,-2e-05,5
23024,23974,-7e-05,-0.00014,-5e-05,-1e-05,-4e-05,2.9999999999999997e-05,-2e-05,-2e-05,5
23025,23975,-7e-05,-0.00014,-5e-05,-1e-05,-4e-05,2.9999999999999997e-05,-2e-05,-2e-05,5
23026,23976,-7e-05,-0.00014,-5e-05,-1e-05,-4e-05,2.9999999999999997e-05,-2e-05,-2e-05,5
23027,23977,-7e-05,-0.00014,-5e-05,-1e-05,-4e-05,2.9999999999999997e-05,-2e-05,-2e-05,5
23028,23978,-5.9999999999999995e-05,1e-05,-5.9999999999999995e-05,-2.9999999999999997e-05,0.00018999999999999998,0.0,-1e-05,-2.9999999999999997e-05,5
23029,23979,8e-05,0.0,5.9999999999999995e-05,2e-05,-0.00033,-1e-05,1e-05,1e-05,5
23030,23980,-0.00016999999999999999,-1e-05,7e-05,8e-05,0.00037999999999999997,0.0,-2e-05,1e-05,5
23031,23981,-0.00016999999999999999,-1e-05,7e-05,8e-05,0.00037999999999999997,0.0,-2e-05,1e-05,5
23032,23982,-0.00016999999999999999,-1e-05,7e-05,8e-05,0.00037999999999999997,0.0,-2e-05,1e-05,5
23033,23983,-0.00016999999999999999,-1e-05,7e-05,8e-05,0.00037999999999999997,0.0,-2e-05,1e-05,5
23034,23984,-0.00016999999999999999,-1e-05,7e-05,8e-05,0.00037999999999999997,0.0,-2e-05,1e-05,5
23035,23985,-0.00016999999999999999,-1e-05,7e-05,8e-05,0.00037999999999999997,0.0,-2e-05,1e-05,5
23036,23986,-0.00016999999999999999,-1e-05,7e-05,8e-05,0.00037999999999999997,0.0,-2e-05,1e-05,5
23037,23988,-0.00016999999999999999,-1e-05,7e-05,8e-05,0.00037999999999999997,0.0,-2e-05,1e-05,5
23038,23989,-0.00016999999999999999,-1e-05,7e-05,8e-05,0.00037999999999999997,0.0,-2e-05,1e-05,5
23039,23990,-0.00016999999999999999,-1e-05,7e-05,8e-05,0.00037999999999999997,0.0,-2e-05,1e-05,5
23040,23991,-0.00016999999999999999,-1e-05,7e-05,8e-05,0.00037999999999999997,0.0,-2e-05,1e-05,5
23041,23992,-0.00016999999999999999,-1e-05,7e-05,8e-05,0.00037999999999999997,0.0,-2e-05,1e-05,5
23042,23993,2.9999999999999997e-05,-2e-05,-5e-05,-8e-05,-0.00022,-0.00028,-2.9999999999999997e-05,-2e-05,5
23043,23994,2.9999999999999997e-05,-2e-05,-5e-05,-8e-05,-0.00022,-0.00028,-2.9999999999999997e-05,-2e-05,5
23044,23995,2.9999999999999997e-05,-2e-05,-5e-05,-8e-05,-0.00022,-0.00028,-2.9999999999999997e-05,-2e-05,5
23045,23996,2.9999999999999997e-05,-2e-05,-5e-05,-8e-05,-0.00022,-0.00028,-2.9999999999999997e-05,-2e-05,5
23046,23997,2.9999999999999997e-05,-2e-05,-5e-05,-8e-05,-0.00022,-0.00028,-2.9999999999999997e-05,-2e-05,5
23047,23998,2.9999999999999997e-05,-2e-05,-5e-05,-8e-05,-0.00022,-0.00028,-2.9999999999999997e-05,-2e-05,5
23048,23999,2.9999999999999997e-05,-2e-05,-5e-05,-8e-05,-0.00022,-0.00028,-2.9999999999999997e-05,-2e-05,5
23049,24000,2.9999999999999997e-05,-2e-05,-5e-05,-8e-05,-0.00022,-0.00028,-2.9999999999999997e-05,-2e-05,5
23050,24001,-1e-05,1e-05,1e-05,-2e-05,-0.0003,0.0001,1e-05,-1e-05,5
23051,24002,-1e-05,1e-05,1e-05,-2e-05,-0.0003,0.0001,1e-05,-1e-05,5
23052,24003,-1e-05,1e-05,1e-05,-2e-05,-0.0003,0.0001,1e-05,-1e-05,5
23053,24004,-1e-05,1e-05,1e-05,-2e-05,-0.0003,0.0001,1e-05,-1e-05,5
23054,24005,-1e-05,1e-05,1e-05,-2e-05,-0.0003,0.0001,1e-05,-1e-05,5
23055,24006,-1e-05,1e-05,1e-05,-2e-05,-0.0003,0.0001,1e-05,-1e-05,5
23056,24007,-1e-05,1e-05,1e-05,-2e-05,-0.0003,0.0001,1e-05,-1e-05,5
23057,24008,-1e-05,1e-05,1e-05,-2e-05,-0.0003,0.0001,1e-05,-1e-05,5
23058,24009,-1e-05,1e-05,1e-05,-2e-05,-0.0003,0.0001,1e-05,-1e-05,5
23059,24010,-1e-05,1e-05,1e-05,-2e-05,-0.0003,0.0001,1e-05,-1e-05,5
23060,24011,-1e-05,1e-05,1e-05,-2e-05,-0.0003,0.0001,1e-05,-1e-05,5
23061,24012,-1e-05,1e-05,1e-05,-2e-05,-0.0003,0.0001,1e-05,-1e-05,5
23062,24013,-1e-05,1e-05,1e-05,-2e-05,-0.0003,0.0001,1e-05,-1e-05,5
23063,24014,-1e-05,1e-05,1e-05,-2e-05,-0.0003,0.0001,1e-05,-1e-05,5
23064,24015,-1e-05,1e-05,1e-05,-2e-05,-0.0003,0.0001,1e-05,-1e-05,5
23065,24016,7e-05,-1e-05,-5e-05,-0.00014,-0.00014,5e-05,-1e-05,2e-05,5
23066,24017,-8e-05,-7e-05,-4e-05,1e-05,-0.00033999999999999997,-0.00011999999999999999,-4e-05,-2.9999999999999997e-05,5
23067,24018,7e-05,5.9999999999999995e-05,1e-05,0.00011999999999999999,0.00041,0.0001,9e-05,0.0,5
23068,24019,7e-05,5.9999999999999995e-05,1e-05,0.00011999999999999999,0.00041,0.0001,9e-05,0.0,5
23069,24020,7e-05,5.9999999999999995e-05,1e-05,0.00011999999999999999,0.00041,0.0001,9e-05,0.0,5
23070,24021,7e-05,5.9999999999999995e-05,1e-05,0.00011999999999999999,0.00041,0.0001,9e-05,0.0,5
23071,24022,7e-05,5.9999999999999995e-05,1e-05,0.00011999999999999999,0.00041,0.0001,9e-05,0.0,5
23072,24023,7e-05,5.9999999999999995e-05,1e-05,0.00011999999999999999,0.00041,0.0001,9e-05,0.0,5
23073,24024,7e-05,5.9999999999999995e-05,1e-05,0.00011999999999999999,0.00041,0.0001,9e-05,0.0,5
23074,24025,7e-05,5.9999999999999995e-05,1e-05,0.00011999999999999999,0.00041,0.0001,9e-05,0.0,5
23075,24026,7e-05,5.9999999999999995e-05,1e-05,0.00011999999999999999,0.00041,0.0001,9e-05,0.0,5
23076,24027,7e-05,5.9999999999999995e-05,1e-05,0.00011999999999999999,0.00041,0.0001,9e-05,0.0,5
23077,24028,7e-05,5.9999999999999995e-05,1e-05,0.00011999999999999999,0.00041,0.0001,9e-05,0.0,5
23078,24029,7e-05,5.9999999999999995e-05,1e-05,0.00011999999999999999,0.00041,0.0001,9e-05,0.0,5
23079,24030,7e-05,5.9999999999999995e-05,1e-05,0.00011999999999999999,0.00041,0.0001,9e-05,0.0,5
23080,24031,7e-05,5.9999999999999995e-05,1e-05,0.00011999999999999999,0.00041,0.0001,9e-05,0.0,5
23081,24032,7e-05,5.9999999999999995e-05,1e-05,0.00011999999999999999,0.00041,0.0001,9e-05,0.0,5
23082,24033,7e-05,5.9999999999999995e-05,1e-05,0.00011999999999999999,0.00041,0.0001,9e-05,0.0,5
23083,24034,7e-05,5.9999999999999995e-05,1e-05,0.00011999999999999999,0.00041,0.0001,9e-05,0.0,5
23084,24035,7e-05,5.9999999999999995e-05,1e-05,0.00011999999999999999,0.00041,0.0001,9e-05,0.0,5
23085,24036,7e-05,5.9999999999999995e-05,1e-05,0.00011999999999999999,0.00041,0.0001,9e-05,0.0,5
23086,24038,7e-05,5.9999999999999995e-05,1e-05,0.00011999999999999999,0.00041,0.0001,9e-05,0.0,5
23087,24039,5e-05,-5.9999999999999995e-05,-0.00011999999999999999,-0.0002,-0.00039,-4e-05,-1e-05,2e-05,5
23088,24040,5e-05,-5.9999999999999995e-05,-0.00011999999999999999,-0.0002,-0.00039,-4e-05,-1e-05,2e-05,5
23089,24041,5e-05,-5.9999999999999995e-05,-0.00011999999999999999,-0.0002,-0.00039,-4e-05,-1e-05,2e-05,5
23090,24042,5e-05,-5.9999999999999995e-05,-0.00011999999999999999,-0.0002,-0.00039,-4e-05,-1e-05,2e-05,5
23091,24043,5e-05,-5.9999999999999995e-05,-0.00011999999999999999,-0.0002,-0.00039,-4e-05,-1e-05,2e-05,5
23092,24044,5e-05,-5.9999999999999995e-05,-0.00011999999999999999,-0.0002,-0.00039,-4e-05,-1e-05,2e-05,5
23093,24045,5e-05,-5.9999999999999995e-05,-0.00011999999999999999,-0.0002,-0.00039,-4e-05,-1e-05,2e-05,5
23094,24046,5e-05,-5.9999999999999995e-05,-0.00011999999999999999,-0.0002,-0.00039,-4e-05,-1e-05,2e-05,5
23095,24047,5e-05,-5.9999999999999995e-05,-0.00011999999999999999,-0.0002,-0.00039,-4e-05,-1e-05,2e-05,5
23096,24048,5e-05,-5.9999999999999995e-05,-0.00011999999999999999,-0.0002,-0.00039,-4e-05,-1e-05,2e-05,5
23097,24049,5e-05,-5.9999999999999995e-05,-0.00011999999999999999,-0.0002,-0.00039,-4e-05,-1e-05,2e-05,5
23098,24050,5e-05,-5.9999999999999995e-05,-0.00011999999999999999,-0.0002,-0.00039,-4e-05,-1e-05,2e-05,5
23099,24051,5e-05,-5.9999999999999995e-05,-0.00011999999999999999,-0.0002,-0.00039,-4e-05,-1e-05,2e-05,5
23100,24052,5e-05,-5.9999999999999995e-05,-0.00011999999999999999,-0.0002,-0.00039,-4e-05,-1e-05,2e-05,5
23101,24053,2e-05,1e-05,-2e-05,-0.00011,-0.00021,-8e-05,-5e-05,0.0,5
23102,24054,2e-05,1e-05,-2e-05,-0.00011,-0.00021,-8e-05,-5e-05,0.0,5
23103,24055,2e-05,1e-05,-2e-05,-0.00011,-0.00021,-8e-05,-5e-05,0.0,5
23104,24056,2e-05,1e-05,-2e-05,-0.00011,-0.00021,-8e-05,-5e-05,0.0,5
23105,24057,2e-05,1e-05,-2e-05,-0.00011,-0.00021,-8e-05,-5e-05,0.0,5
23106,24058,2e-05,1e-05,-2e-05,-0.00011,-0.00021,-8e-05,-5e-05,0.0,5
23107,24059,2e-05,1e-05,-2e-05,-0.00011,-0.00021,-8e-05,-5e-05,0.0,5
23108,24060,2e-05,1e-05,-2e-05,-0.00011,-0.00021,-8e-05,-5e-05,0.0,5
23109,24061,-0.00022999999999999998,-0.00016999999999999999,-2e-05,0.0001,0.0,4e-05,1e-05,-2e-05,5
23110,24062,-0.00022999999999999998,-0.00016999999999999999,-2e-05,0.0001,0.0,4e-05,1e-05,-2e-05,5
23111,24063,0.00016999999999999999,0.0,-4e-05,-5.9999999999999995e-05,-2.9999999999999997e-05,-2e-05,-1e-05,-1e-05,5
23112,24064,0.00016999999999999999,0.0,-4e-05,-5.9999999999999995e-05,-2.9999999999999997e-05,-2e-05,-1e-05,-1e-05,5
23113,24065,0.00016999999999999999,0.0,-4e-05,-5.9999999999999995e-05,-2.9999999999999997e-05,-2e-05,-1e-05,-1e-05,5
23114,24066,0.00016999999999999999,0.0,-4e-05,-5.9999999999999995e-05,-2.9999999999999997e-05,-2e-05,-1e-05,-1e-05,5
23115,24067,0.00016999999999999999,0.0,-4e-05,-5.9999999999999995e-05,-2.9999999999999997e-05,-2e-05,-1e-05,-1e-05,5
23116,24068,0.00016999999999999999,0.0,-4e-05,-5.9999999999999995e-05,-2.9999999999999997e-05,-2e-05,-1e-05,-1e-05,5
23117,24069,0.00016999999999999999,0.0,-4e-05,-5.9999999999999995e-05,-2.9999999999999997e-05,-2e-05,-1e-05,-1e-05,5
23118,24070,0.00016999999999999999,0.0,-4e-05,-5.9999999999999995e-05,-2.9999999999999997e-05,-2e-05,-1e-05,-1e-05,5
23119,24071,0.00016999999999999999,0.0,-4e-05,-5.9999999999999995e-05,-2.9999999999999997e-05,-2e-05,-1e-05,-1e-05,5
23120,24072,0.00016999999999999999,0.0,-4e-05,-5.9999999999999995e-05,-2.9999999999999997e-05,-2e-05,-1e-05,-1e-05,5
23121,24073,0.00016999999999999999,0.0,-4e-05,-5.9999999999999995e-05,-2.9999999999999997e-05,-2e-05,-1e-05,-1e-05,5
23122,24074,0.00016999999999999999,0.0,-4e-05,-5.9999999999999995e-05,-2.9999999999999997e-05,-2e-05,-1e-05,-1e-05,5
23123,24075,0.00016999999999999999,0.0,-4e-05,-5.9999999999999995e-05,-2.9999999999999997e-05,-2e-05,-1e-05,-1e-05,5
23124,24076,0.00016999999999999999,0.0,-4e-05,-5.9999999999999995e-05,-2.9999999999999997e-05,-2e-05,-1e-05,-1e-05,5
23125,24077,0.00016999999999999999,0.0,-4e-05,-5.9999999999999995e-05,-2.9999999999999997e-05,-2e-05,-1e-05,-1e-05,5
23126,24078,0.00014,5.9999999999999995e-05,0.0001,0.00016,-9e-05,0.00015,-5.9999999999999995e-05,1e-05,5
23127,24080,0.00014,5.9999999999999995e-05,0.0001,0.00016,-9e-05,0.00015,-5.9999999999999995e-05,1e-05,5
23128,24081,0.00014,5.9999999999999995e-05,0.0001,0.00016,-9e-05,0.00015,-5.9999999999999995e-05,1e-05,5
23129,24082,0.00014,5.9999999999999995e-05,0.0001,0.00016,-9e-05,0.00015,-5.9999999999999995e-05,1e-05,5
23130,24083,0.00014,5.9999999999999995e-05,0.0001,0.00016,-9e-05,0.00015,-5.9999999999999995e-05,1e-05,5
23131,24084,0.00014,5.9999999999999995e-05,0.0001,0.00016,-9e-05,0.00015,-5.9999999999999995e-05,1e-05,5
23132,24085,0.00014,5.9999999999999995e-05,0.0001,0.00016,-9e-05,0.00015,-5.9999999999999995e-05,1e-05,5
23133,24086,0.00014,5.9999999999999995e-05,0.0001,0.00016,-9e-05,0.00015,-5.9999999999999995e-05,1e-05,5
23134,24088,0.00014,5.9999999999999995e-05,0.0001,0.00016,-9e-05,0.00015,-5.9999999999999995e-05,1e-05,5
23135,24089,0.00014,5.9999999999999995e-05,0.0001,0.00016,-9e-05,0.00015,-5.9999999999999995e-05,1e-05,5
23136,24090,0.00014,5.9999999999999995e-05,0.0001,0.00016,-9e-05,0.00015,-5.9999999999999995e-05,1e-05,5
23137,24091,0.00014,5.9999999999999995e-05,0.0001,0.00016,-9e-05,0.00015,-5.9999999999999995e-05,1e-05,5
23138,24092,0.00014,5.9999999999999995e-05,0.0001,0.00016,-9e-05,0.00015,-5.9999999999999995e-05,1e-05,5
23139,24093,0.00014,5.9999999999999995e-05,0.0001,0.00016,-9e-05,0.00015,-5.9999999999999995e-05,1e-05,5
23140,24094,0.00014,5.9999999999999995e-05,0.0001,0.00016,-9e-05,0.00015,-5.9999999999999995e-05,1e-05,5
23141,24095,0.00014,5.9999999999999995e-05,0.0001,0.00016,-9e-05,0.00015,-5.9999999999999995e-05,1e-05,5
23142,24096,0.00014,5.9999999999999995e-05,0.0001,0.00016,-9e-05,0.00015,-5.9999999999999995e-05,1e-05,5
23143,24097,0.00014,5.9999999999999995e-05,0.0001,0.00016,-9e-05,0.00015,-5.9999999999999995e-05,1e-05,5
23144,24098,0.00014,5.9999999999999995e-05,0.0001,0.00016,-9e-05,0.00015,-5.9999999999999995e-05,1e-05,5
23145,24099,2.9999999999999997e-05,8e-05,0.00013000000000000002,8e-05,0.00018,7e-05,-2e-05,-1e-05,5
23146,24100,2.9999999999999997e-05,8e-05,0.00013000000000000002,8e-05,0.00018,7e-05,-2e-05,-1e-05,5
23147,24101,-1e-05,8e-05,5e-05,-4e-05,-0.00056,-2.9999999999999997e-05,-1e-05,-2e-05,5
23148,24102,-1e-05,8e-05,5e-05,-4e-05,-0.00056,-2.9999999999999997e-05,-1e-05,-2e-05,5
23149,24103,-1e-05,8e-05,5e-05,-4e-05,-0.00056,-2.9999999999999997e-05,-1e-05,-2e-05,5
23150,24104,-1e-05,8e-05,5e-05,-4e-05,-0.00056,-2.9999999999999997e-05,-1e-05,-2e-05,5
23151,24105,-1e-05,8e-05,5e-05,-4e-05,-0.00056,-2.9999999999999997e-05,-1e-05,-2e-05,5
23152,24106,-1e-05,8e-05,5e-05,-4e-05,-0.00056,-2.9999999999999997e-05,-1e-05,-2e-05,5
23153,24107,-1e-05,8e-05,5e-05,-4e-05,-0.00056,-2.9999999999999997e-05,-1e-05,-2e-05,5
23154,24108,-1e-05,8e-05,5e-05,-4e-05,-0.00056,-2.9999999999999997e-05,-1e-05,-2e-05,5
23155,24109,-1e-05,8e-05,5e-05,-4e-05,-0.00056,-2.9999999999999997e-05,-1e-05,-2e-05,5
23156,24110,-1e-05,8e-05,5e-05,-4e-05,-0.00056,-2.9999999999999997e-05,-1e-05,-2e-05,5
23157,24111,-1e-05,8e-05,5e-05,-4e-05,-0.00056,-2.9999999999999997e-05,-1e-05,-2e-05,5
23158,24112,-1e-05,8e-05,5e-05,-4e-05,-0.00056,-2.9999999999999997e-05,-1e-05,-2e-05,5
23159,24113,-1e-05,8e-05,5e-05,-4e-05,-0.00056,-2.9999999999999997e-05,-1e-05,-2e-05,5
23160,24114,-1e-05,8e-05,5e-05,-4e-05,-0.00056,-2.9999999999999997e-05,-1e-05,-2e-05,5
23161,24115,-1e-05,8e-05,5e-05,-4e-05,-0.00056,-2.9999999999999997e-05,-1e-05,-2e-05,5
23162,24116,-1e-05,8e-05,5e-05,-4e-05,-0.00056,-2.9999999999999997e-05,-1e-05,-2e-05,5
23163,24117,-1e-05,8e-05,5e-05,-4e-05,-0.00056,-2.9999999999999997e-05,-1e-05,-2e-05,5
23164,24118,-1e-05,8e-05,5e-05,-4e-05,-0.00056,-2.9999999999999997e-05,-1e-05,-2e-05,5
23165,24119,-1e-05,8e-05,5e-05,-4e-05,-0.00056,-2.9999999999999997e-05,-1e-05,-2e-05,5
23166,24120,-1e-05,8e-05,5e-05,-4e-05,-0.00056,-2.9999999999999997e-05,-1e-05,-2e-05,5
23167,24121,2e-05,0.0,-2e-05,1e-05,0.00011,1e-05,-2e-05,0.0,5
23168,24122,2e-05,0.0,-2e-05,1e-05,0.00011,1e-05,-2e-05,0.0,5
23169,24123,-0.00013000000000000002,-0.00013000000000000002,-8e-05,-0.00014,-0.00041,-9e-05,0.0,-5e-05,5
23170,24124,-0.00013000000000000002,-0.00013000000000000002,-8e-05,-0.00014,-0.00041,-9e-05,0.0,-5e-05,5
23171,24125,-0.00013000000000000002,-0.00013000000000000002,-8e-05,-0.00014,-0.00041,-9e-05,0.0,-5e-05,5
23172,24126,-0.00013000000000000002,-0.00013000000000000002,-8e-05,-0.00014,-0.00041,-9e-05,0.0,-5e-05,5
23173,24127,-0.00013000000000000002,-0.00013000000000000002,-8e-05,-0.00014,-0.00041,-9e-05,0.0,-5e-05,5
23174,24128,-0.00013000000000000002,-0.00013000000000000002,-8e-05,-0.00014,-0.00041,-9e-05,0.0,-5e-05,5
23175,24129,-0.00013000000000000002,-0.00013000000000000002,-8e-05,-0.00014,-0.00041,-9e-05,0.0,-5e-05,5
23176,24130,-0.00013000000000000002,-0.00013000000000000002,-8e-05,-0.00014,-0.00041,-9e-05,0.0,-5e-05,5
23177,24131,-0.00013000000000000002,-0.00013000000000000002,-8e-05,-0.00014,-0.00041,-9e-05,0.0,-5e-05,5
23178,24132,-0.00013000000000000002,-0.00013000000000000002,-8e-05,-0.00014,-0.00041,-9e-05,0.0,-5e-05,5
23179,24133,-0.00013000000000000002,-0.00013000000000000002,-8e-05,-0.00014,-0.00041,-9e-05,0.0,-5e-05,5
23180,24134,-0.00013000000000000002,-0.00013000000000000002,-8e-05,-0.00014,-0.00041,-9e-05,0.0,-5e-05,5
23181,24135,-0.00013000000000000002,-0.00013000000000000002,-8e-05,-0.00014,-0.00041,-9e-05,0.0,-5e-05,5
23182,24136,0.00011999999999999999,8e-05,5e-05,-2.9999999999999997e-05,2e-05,2.9999999999999997e-05,2.9999999999999997e-05,1e-05,5
23183,24138,1e-05,-7e-05,-5e-05,-1e-05,0.00011999999999999999,-0.0001,-2e-05,-1e-05,5
23184,24140,1e-05,-7e-05,-5e-05,-1e-05,0.00011999999999999999,-0.0001,-2e-05,-1e-05,5
23185,24141,1e-05,-7e-05,-5e-05,-1e-05,0.00011999999999999999,-0.0001,-2e-05,-1e-05,5
23186,24142,1e-05,-7e-05,-5e-05,-1e-05,0.00011999999999999999,-0.0001,-2e-05,-1e-05,5
23187,24143,1e-05,-7e-05,-5e-05,-1e-05,0.00011999999999999999,-0.0001,-2e-05,-1e-05,5
23188,24144,1e-05,-7e-05,-5e-05,-1e-05,0.00011999999999999999,-0.0001,-2e-05,-1e-05,5
23189,24145,1e-05,-7e-05,-5e-05,-1e-05,0.00011999999999999999,-0.0001,-2e-05,-1e-05,5
23190,24146,1e-05,-7e-05,-5e-05,-1e-05,0.00011999999999999999,-0.0001,-2e-05,-1e-05,5
23191,24147,1e-05,-7e-05,-5e-05,-1e-05,0.00011999999999999999,-0.0001,-2e-05,-1e-05,5
23192,24148,1e-05,-7e-05,-5e-05,-1e-05,0.00011999999999999999,-0.0001,-2e-05,-1e-05,5
23193,24149,1e-05,-7e-05,-5e-05,-1e-05,0.00011999999999999999,-0.0001,-2e-05,-1e-05,5
23194,24150,1e-05,-7e-05,-5e-05,-1e-05,0.00011999999999999999,-0.0001,-2e-05,-1e-05,5
23195,24151,1e-05,-7e-05,-5e-05,-1e-05,0.00011999999999999999,-0.0001,-2e-05,-1e-05,5
23196,24152,1e-05,-7e-05,-5e-05,-1e-05,0.00011999999999999999,-0.0001,-2e-05,-1e-05,5
23197,24153,1e-05,-7e-05,-5e-05,-1e-05,0.00011999999999999999,-0.0001,-2e-05,-1e-05,5
23198,24154,1e-05,-7e-05,-5e-05,-1e-05,0.00011999999999999999,-0.0001,-2e-05,-1e-05,5
23199,24155,1e-05,-7e-05,-5e-05,-1e-05,0.00011999999999999999,-0.0001,-2e-05,-1e-05,5
23200,24156,1e-05,-7e-05,-5e-05,-1e-05,0.00011999999999999999,-0.0001,-2e-05,-1e-05,5
23201,24157,1e-05,-7e-05,-5e-05,-1e-05,0.00011999999999999999,-0.0001,-2e-05,-1e-05,5
23202,24158,-4e-05,-1e-05,0.0,-2e-05,-0.00025,-5e-05,-2.9999999999999997e-05,-1e-05,5
23203,24159,-4e-05,-1e-05,-4e-05,-2e-05,0.00022999999999999998,2.9999999999999997e-05,-1e-05,-1e-05,5
23204,24160,-0.00029,-9e-05,0.0,8e-05,0.00032,9e-05,0.0,-2.9999999999999997e-05,5
23205,24161,-0.00029,-9e-05,0.0,8e-05,0.00032,9e-05,0.0,-2.9999999999999997e-05,5
23206,24162,-0.00029,-9e-05,0.0,8e-05,0.00032,9e-05,0.0,-2.9999999999999997e-05,5
23207,24163,-0.00029,-9e-05,0.0,8e-05,0.00032,9e-05,0.0,-2.9999999999999997e-05,5
23208,24164,-0.00029,-9e-05,0.0,8e-05,0.00032,9e-05,0.0,-2.9999999999999997e-05,5
23209,24165,-0.00029,-9e-05,0.0,8e-05,0.00032,9e-05,0.0,-2.9999999999999997e-05,5
23210,24166,-0.00029,-9e-05,0.0,8e-05,0.00032,9e-05,0.0,-2.9999999999999997e-05,5
23211,24167,-0.00029,-9e-05,0.0,8e-05,0.00032,9e-05,0.0,-2.9999999999999997e-05,5
23212,24168,-0.00029,-9e-05,0.0,8e-05,0.00032,9e-05,0.0,-2.9999999999999997e-05,5
23213,24169,-0.00029,-9e-05,0.0,8e-05,0.00032,9e-05,0.0,-2.9999999999999997e-05,5
23214,24170,-0.00029,-9e-05,0.0,8e-05,0.00032,9e-05,0.0,-2.9999999999999997e-05,5
23215,24171,-0.00029,-9e-05,0.0,8e-05,0.00032,9e-05,0.0,-2.9999999999999997e-05,5
23216,24172,-0.00029,-9e-05,0.0,8e-05,0.00032,9e-05,0.0,-2.9999999999999997e-05,5
23217,24173,-0.00029,-9e-05,0.0,8e-05,0.00032,9e-05,0.0,-2.9999999999999997e-05,5
23218,24174,-0.00029,-9e-05,0.0,8e-05,0.00032,9e-05,0.0,-2.9999999999999997e-05,5
23219,24175,-0.00029,-9e-05,0.0,8e-05,0.00032,9e-05,0.0,-2.9999999999999997e-05,5
23220,24176,-0.00029,-9e-05,0.0,8e-05,0.00032,9e-05,0.0,-2.9999999999999997e-05,5
23221,24177,-0.00029,-9e-05,0.0,8e-05,0.00032,9e-05,0.0,-2.9999999999999997e-05,5
23222,24178,-0.00029,-9e-05,0.0,8e-05,0.00032,9e-05,0.0,-2.9999999999999997e-05,5
23223,24179,-0.00029,-9e-05,0.0,8e-05,0.00032,9e-05,0.0,-2.9999999999999997e-05,5
23224,24180,-0.00029,-9e-05,0.0,8e-05,0.00032,9e-05,0.0,-2.9999999999999997e-05,5
23225,24181,-0.00016,-9e-05,-0.00013000000000000002,-8e-05,1e-05,2.9999999999999997e-05,-1e-05,0.0,5
23226,24182,-0.00016,-9e-05,-0.00013000000000000002,-8e-05,1e-05,2.9999999999999997e-05,-1e-05,0.0,5
23227,24183,-1e-05,-1e-05,4e-05,0.00015,0.00032,-4e-05,-1e-05,1e-05,5
23228,24184,-1e-05,-1e-05,4e-05,0.00015,0.00032,-4e-05,-1e-05,1e-05,5
23229,24185,-1e-05,-1e-05,4e-05,0.00015,0.00032,-4e-05,-1e-05,1e-05,5
23230,24186,-1e-05,-1e-05,4e-05,0.00015,0.00032,-4e-05,-1e-05,1e-05,5
23231,24188,-1e-05,-1e-05,4e-05,0.00015,0.00032,-4e-05,-1e-05,1e-05,5
23232,24189,-1e-05,-1e-05,4e-05,0.00015,0.00032,-4e-05,-1e-05,1e-05,5
23233,24190,-1e-05,-1e-05,4e-05,0.00015,0.00032,-4e-05,-1e-05,1e-05,5
23234,24191,-1e-05,-1e-05,4e-05,0.00015,0.00032,-4e-05,-1e-05,1e-05,5
23235,24192,-1e-05,-1e-05,4e-05,0.00015,0.00032,-4e-05,-1e-05,1e-05,5
23236,24193,-1e-05,-1e-05,4e-05,0.00015,0.00032,-4e-05,-1e-05,1e-05,5
23237,24194,-1e-05,-1e-05,4e-05,0.00015,0.00032,-4e-05,-1e-05,1e-05,5
23238,24195,-1e-05,-1e-05,4e-05,0.00015,0.00032,-4e-05,-1e-05,1e-05,5
23239,24196,-5.9999999999999995e-05,2.9999999999999997e-05,2.9999999999999997e-05,8e-05,0.00022999999999999998,1e-05,-2e-05,-4e-05,5
23240,24197,-5.9999999999999995e-05,2.9999999999999997e-05,2.9999999999999997e-05,8e-05,0.00022999999999999998,1e-05,-2e-05,-4e-05,5
23241,24198,-5.9999999999999995e-05,2.9999999999999997e-05,2.9999999999999997e-05,8e-05,0.00022999999999999998,1e-05,-2e-05,-4e-05,5
23242,24199,-5.9999999999999995e-05,2.9999999999999997e-05,2.9999999999999997e-05,8e-05,0.00022999999999999998,1e-05,-2e-05,-4e-05,5
23243,24200,-5.9999999999999995e-05,2.9999999999999997e-05,2.9999999999999997e-05,8e-05,0.00022999999999999998,1e-05,-2e-05,-4e-05,5
23244,24201,-5.9999999999999995e-05,2.9999999999999997e-05,2.9999999999999997e-05,8e-05,0.00022999999999999998,1e-05,-2e-05,-4e-05,5
23245,24202,-5.9999999999999995e-05,2.9999999999999997e-05,2.9999999999999997e-05,8e-05,0.00022999999999999998,1e-05,-2e-05,-4e-05,5
23246,24203,-5.9999999999999995e-05,2.9999999999999997e-05,2.9999999999999997e-05,8e-05,0.00022999999999999998,1e-05,-2e-05,-4e-05,5
23247,24204,2.9999999999999997e-05,-7e-05,-0.00011,-0.00014,-2e-05,2.9999999999999997e-05,2.9999999999999997e-05,0.0,5
23248,24205,2.9999999999999997e-05,-7e-05,-0.00011,-0.00014,-2e-05,2.9999999999999997e-05,2.9999999999999997e-05,0.0,5
23249,24206,2.9999999999999997e-05,-7e-05,-0.00011,-0.00014,-2e-05,2.9999999999999997e-05,2.9999999999999997e-05,0.0,5
23250,24207,2.9999999999999997e-05,-7e-05,-0.00011,-0.00014,-2e-05,2.9999999999999997e-05,2.9999999999999997e-05,0.0,5
23251,24208,2.9999999999999997e-05,-7e-05,-0.00011,-0.00014,-2e-05,2.9999999999999997e-05,2.9999999999999997e-05,0.0,5
23252,24209,2.9999999999999997e-05,-7e-05,-0.00011,-0.00014,-2e-05,2.9999999999999997e-05,2.9999999999999997e-05,0.0,5
23253,24210,2.9999999999999997e-05,-7e-05,-0.00011,-0.00014,-2e-05,2.9999999999999997e-05,2.9999999999999997e-05,0.0,5
23254,24211,2.9999999999999997e-05,-7e-05,-0.00011,-0.00014,-2e-05,2.9999999999999997e-05,2.9999999999999997e-05,0.0,5
23255,24212,2.9999999999999997e-05,-7e-05,-0.00011,-0.00014,-2e-05,2.9999999999999997e-05,2.9999999999999997e-05,0.0,5
23256,24213,2.9999999999999997e-05,-7e-05,-0.00011,-0.00014,-2e-05,2.9999999999999997e-05,2.9999999999999997e-05,0.0,5
23257,24214,2.9999999999999997e-05,-7e-05,-0.00011,-0.00014,-2e-05,2.9999999999999997e-05,2.9999999999999997e-05,0.0,5
23258,24215,2.9999999999999997e-05,-7e-05,-0.00011,-0.00014,-2e-05,2.9999999999999997e-05,2.9999999999999997e-05,0.0,5
23259,24216,2.9999999999999997e-05,-7e-05,-0.00011,-0.00014,-2e-05,2.9999999999999997e-05,2.9999999999999997e-05,0.0,5
23260,24217,2.9999999999999997e-05,-7e-05,-0.00011,-0.00014,-2e-05,2.9999999999999997e-05,2.9999999999999997e-05,0.0,5
23261,24218,2.9999999999999997e-05,-1e-05,-4e-05,8e-05,0.00018999999999999998,5.9999999999999995e-05,5e-05,1e-05,5
23262,24219,1e-05,5e-05,5e-05,4e-05,-0.00016999999999999999,-0.00011,-4e-05,-1e-05,5
23263,24220,7e-05,-1e-05,5e-05,0.00014,0.00016,0.00018999999999999998,-1e-05,0.0,5
23264,24221,7e-05,-1e-05,5e-05,0.00014,0.00016,0.00018999999999999998,-1e-05,0.0,5
23265,24222,7e-05,-1e-05,5e-05,0.00014,0.00016,0.00018999999999999998,-1e-05,0.0,5
23266,24223,7e-05,-1e-05,5e-05,0.00014,0.00016,0.00018999999999999998,-1e-05,0.0,5
23267,24224,7e-05,-1e-05,5e-05,0.00014,0.00016,0.00018999999999999998,-1e-05,0.0,5
23268,24225,7e-05,-1e-05,5e-05,0.00014,0.00016,0.00018999999999999998,-1e-05,0.0,5
23269,24226,7e-05,-1e-05,5e-05,0.00014,0.00016,0.00018999999999999998,-1e-05,0.0,5
23270,24227,7e-05,-1e-05,5e-05,0.00014,0.00016,0.00018999999999999998,-1e-05,0.0,5
23271,24228,7e-05,-1e-05,5e-05,0.00014,0.00016,0.00018999999999999998,-1e-05,0.0,5
23272,24229,7e-05,-1e-05,5e-05,0.00014,0.00016,0.00018999999999999998,-1e-05,0.0,5
23273,24230,7e-05,-1e-05,5e-05,0.00014,0.00016,0.00018999999999999998,-1e-05,0.0,5
23274,24231,7e-05,-1e-05,5e-05,0.00014,0.00016,0.00018999999999999998,-1e-05,0.0,5
23275,24232,1e-05,-2.9999999999999997e-05,-1e-05,0.0,0.00047999999999999996,5.9999999999999995e-05,2e-05,-1e-05,5
23276,24233,1e-05,-2.9999999999999997e-05,-1e-05,0.0,0.00047999999999999996,5.9999999999999995e-05,2e-05,-1e-05,5
23277,24234,1e-05,-2.9999999999999997e-05,-1e-05,0.0,0.00047999999999999996,5.9999999999999995e-05,2e-05,-1e-05,5
23278,24235,1e-05,-2.9999999999999997e-05,-1e-05,0.0,0.00047999999999999996,5.9999999999999995e-05,2e-05,-1e-05,5
23279,24236,1e-05,-2.9999999999999997e-05,-1e-05,0.0,0.00047999999999999996,5.9999999999999995e-05,2e-05,-1e-05,5
23280,24238,1e-05,-2.9999999999999997e-05,-1e-05,0.0,0.00047999999999999996,5.9999999999999995e-05,2e-05,-1e-05,5
23281,24239,1e-05,-2.9999999999999997e-05,-1e-05,0.0,0.00047999999999999996,5.9999999999999995e-05,2e-05,-1e-05,5
23282,24240,1e-05,-2.9999999999999997e-05,-1e-05,0.0,0.00047999999999999996,5.9999999999999995e-05,2e-05,-1e-05,5
23283,24241,1e-05,-2.9999999999999997e-05,-1e-05,0.0,0.00047999999999999996,5.9999999999999995e-05,2e-05,-1e-05,5
23284,24242,-0.00011999999999999999,-8e-05,0.0,-2.9999999999999997e-05,-0.0002,-7e-05,-9e-05,-4e-05,5
23285,24243,-0.00011999999999999999,-8e-05,0.0,-2.9999999999999997e-05,-0.0002,-7e-05,-9e-05,-4e-05,5
23286,24244,-0.00011999999999999999,-8e-05,0.0,-2.9999999999999997e-05,-0.0002,-7e-05,-9e-05,-4e-05,5
23287,24245,-0.00011999999999999999,-8e-05,0.0,-2.9999999999999997e-05,-0.0002,-7e-05,-9e-05,-4e-05,5
