,time,channel1,channel2,channel3,channel4,channel5,channel6,channel7,channel8,class
17868,18510,-2.9999999999999997e-05,0.0,0.00013000000000000002,0.00033,0.00035,0.00056,0.00022,0.00011999999999999999,5
17869,18512,-2.9999999999999997e-05,0.0,0.00013000000000000002,0.00033,0.00035,0.00056,0.00022,0.00011999999999999999,5
17870,18513,-2.9999999999999997e-05,0.0,0.00013000000000000002,0.00033,0.00035,0.00056,0.00022,0.00011999999999999999,5
17871,18514,-2.9999999999999997e-05,0.0,0.00013000000000000002,0.00033,0.00035,0.00056,0.00022,0.00011999999999999999,5
17872,18515,-2.9999999999999997e-05,0.0,0.00013000000000000002,0.00033,0.00035,0.00056,0.00022,0.00011999999999999999,5
17873,18516,-2.9999999999999997e-05,0.0,0.00013000000000000002,0.00033,0.00035,0.00056,0.00022,0.00011999999999999999,5
17874,18517,-2.9999999999999997e-05,0.0,0.00013000000000000002,0.00033,0.00035,0.00056,0.00022,0.00011999999999999999,5
17875,18518,-2.9999999999999997e-05,0.0,0.00013000000000000002,0.00033,0.00035,0.00056,0.00022,0.00011999999999999999,5
17876,18519,-2.9999999999999997e-05,0.0,0.00013000000000000002,0.00033,0.00035,0.00056,0.00022,0.00011999999999999999,5
17877,18520,-2.9999999999999997e-05,0.0,0.00013000000000000002,0.00033,0.00035,0.00056,0.00022,0.00011999999999999999,5
17878,18521,-2.9999999999999997e-05,0.0,0.00013000000000000002,0.00033,0.00035,0.00056,0.00022,0.00011999999999999999,5
17879,18522,-2.9999999999999997e-05,0.0,0.00013000000000000002,0.00033,0.00035,0.00056,0.00022,0.00011999999999999999,5
17880,18523,-2.9999999999999997e-05,0.0,0.00013000000000000002,0.00033,0.00035,0.00056,0.00022,0.00011999999999999999,5
17881,18524,-2.9999999999999997e-05,0.0,0.00013000000000000002,0.00033,0.00035,0.00056,0.00022,0.00011999999999999999,5
17882,18525,-2.9999999999999997e-05,0.0,0.00013000000000000002,0.00033,0.00035,0.00056,0.00022,0.00011999999999999999,5
17883,18526,-2.9999999999999997e-05,0.0,0.00013000000000000002,0.00033,0.00035,0.00056,0.00022,0.00011999999999999999,5
17884,18527,-2.9999999999999997e-05,0.0,0.00013000000000000002,0.00033,0.00035,0.00056,0.00022,0.00011999999999999999,5
17885,18528,-2.9999999999999997e-05,0.0,0.00013000000000000002,0.00033,0.00035,0.00056,0.00022,0.00011999999999999999,5
17886,18529,-2.9999999999999997e-05,0.0,0.00013000000000000002,0.00033,0.00035,0.00056,0.00022,0.00011999999999999999,5
17887,18530,-2.9999999999999997e-05,0.0,0.00013000000000000002,0.00033,0.00035,0.00056,0.00022,0.00011999999999999999,5
17888,18531,-2.9999999999999997e-05,0.0,0.00013000000000000002,0.00033,0.00035,0.00056,0.00022,0.00011999999999999999,5
17889,18532,-2.9999999999999997e-05,0.0,0.00013000000000000002,0.00033,0.00035,0.00056,0.00022,0.00011999999999999999,5
17890,18533,-2.9999999999999997e-05,0.0,0.00013000000000000002,0.00033,0.00035,0.00056,0.00022,0.00011999999999999999,5
17891,18534,-2.9999999999999997e-05,0.0,0.00013000000000000002,0.00033,0.00035,0.00056,0.00022,0.00011999999999999999,5
17892,18535,-2.9999999999999997e-05,0.0,0.00013000000000000002,0.00033,0.00035,0.00056,0.00022,0.00011999999999999999,5
17893,18536,-2.9999999999999997e-05,0.0,0.00013000000000000002,0.00033,0.00035,0.00056,0.00022,0.00011999999999999999,5
17894,18538,1e-05,-7e-05,-2e-05,7e-05,0.00039,0.00018999999999999998,0.00011999999999999999,9e-05,5
17895,18539,1e-05,-7e-05,-2e-05,7e-05,0.00039,0.00018999999999999998,0.00011999999999999999,9e-05,5
17896,18540,1e-05,-7e-05,-2e-05,7e-05,0.00039,0.00018999999999999998,0.00011999999999999999,9e-05,5
17897,18541,1e-05,-7e-05,-2e-05,7e-05,0.00039,0.00018999999999999998,0.00011999999999999999,9e-05,5
17898,18542,1e-05,-7e-05,-2e-05,7e-05,0.00039,0.00018999999999999998,0.00011999999999999999,9e-05,5
17899,18543,1e-05,-7e-05,-2e-05,7e-05,0.00039,0.00018999999999999998,0.00011999999999999999,9e-05,5
17900,18544,1e-05,-7e-05,-2e-05,7e-05,0.00039,0.00018999999999999998,0.00011999999999999999,9e-05,5
17901,18545,1e-05,-7e-05,-2e-05,7e-05,0.00039,0.00018999999999999998,0.00011999999999999999,9e-05,5
17902,18546,1e-05,-7e-05,-2e-05,7e-05,0.00039,0.00018999999999999998,0.00011999999999999999,9e-05,5
17903,18547,1e-05,-7e-05,-2e-05,7e-05,0.00039,0.00018999999999999998,0.00011999999999999999,9e-05,5
17904,18548,1e-05,-7e-05,-2e-05,7e-05,0.00039,0.00018999999999999998,0.00011999999999999999,9e-05,5
17905,18549,1e-05,-7e-05,-2e-05,7e-05,0.00039,0.00018999999999999998,0.00011999999999999999,9e-05,5
17906,18550,0.00013000000000000002,0.00021,0.0005099999999999999,0.00053,0.0001,0.0005,0.00023999999999999998,0.00011,5
17907,18551,0.00023999999999999998,-2.9999999999999997e-05,7e-05,-0.00028,-0.00011,-0.00031,-0.00018,-1e-05,5
17908,18552,0.00023999999999999998,-2.9999999999999997e-05,7e-05,-0.00028,-0.00011,-0.00031,-0.00018,-1e-05,5
17909,18553,0.00023999999999999998,-2.9999999999999997e-05,7e-05,-0.00028,-0.00011,-0.00031,-0.00018,-1e-05,5
17910,18554,0.00023999999999999998,-2.9999999999999997e-05,7e-05,-0.00028,-0.00011,-0.00031,-0.00018,-1e-05,5
17911,18555,0.00023999999999999998,-2.9999999999999997e-05,7e-05,-0.00028,-0.00011,-0.00031,-0.00018,-1e-05,5
17912,18556,0.00023999999999999998,-2.9999999999999997e-05,7e-05,-0.00028,-0.00011,-0.00031,-0.00018,-1e-05,5
17913,18557,0.00023999999999999998,-2.9999999999999997e-05,7e-05,-0.00028,-0.00011,-0.00031,-0.00018,-1e-05,5
17914,18558,0.00023999999999999998,-2.9999999999999997e-05,7e-05,-0.00028,-0.00011,-0.00031,-0.00018,-1e-05,5
17915,18559,0.00023999999999999998,-2.9999999999999997e-05,7e-05,-0.00028,-0.00011,-0.00031,-0.00018,-1e-05,5
17916,18560,0.00023999999999999998,-2.9999999999999997e-05,7e-05,-0.00028,-0.00011,-0.00031,-0.00018,-1e-05,5
17917,18561,0.00023999999999999998,-2.9999999999999997e-05,7e-05,-0.00028,-0.00011,-0.00031,-0.00018,-1e-05,5
17918,18562,0.00023999999999999998,-2.9999999999999997e-05,7e-05,-0.00028,-0.00011,-0.00031,-0.00018,-1e-05,5
17919,18563,0.00023999999999999998,-2.9999999999999997e-05,7e-05,-0.00028,-0.00011,-0.00031,-0.00018,-1e-05,5
17920,18564,0.0,-0.0001,-0.00011,2e-05,0.00022999999999999998,-0.00028,-0.00011999999999999999,-5.9999999999999995e-05,5
17921,18565,0.0,-0.0001,-0.00011,2e-05,0.00022999999999999998,-0.00028,-0.00011999999999999999,-5.9999999999999995e-05,5
17922,18566,0.0001,0.0001,0.00011999999999999999,-7e-05,-0.00021,-8e-05,-2e-05,5e-05,5
17923,18567,0.0001,0.0001,0.00011999999999999999,-7e-05,-0.00021,-8e-05,-2e-05,5e-05,5
17924,18568,0.0001,0.0001,0.00011999999999999999,-7e-05,-0.00021,-8e-05,-2e-05,5e-05,5
17925,18569,0.0001,0.0001,0.00011999999999999999,-7e-05,-0.00021,-8e-05,-2e-05,5e-05,5
17926,18570,0.0001,0.0001,0.00011999999999999999,-7e-05,-0.00021,-8e-05,-2e-05,5e-05,5
17927,18571,0.0001,0.0001,0.00011999999999999999,-7e-05,-0.00021,-8e-05,-2e-05,5e-05,5
17928,18572,0.0001,0.0001,0.00011999999999999999,-7e-05,-0.00021,-8e-05,-2e-05,5e-05,5
17929,18573,0.0001,0.0001,0.00011999999999999999,-7e-05,-0.00021,-8e-05,-2e-05,5e-05,5
17930,18574,0.0001,0.0001,0.00011999999999999999,-7e-05,-0.00021,-8e-05,-2e-05,5e-05,5
17931,18575,0.0001,0.0001,0.00011999999999999999,-7e-05,-0.00021,-8e-05,-2e-05,5e-05,5
17932,18576,0.0001,0.0001,0.00011999999999999999,-7e-05,-0.00021,-8e-05,-2e-05,5e-05,5
17933,18577,0.0001,0.0001,0.00011999999999999999,-7e-05,-0.00021,-8e-05,-2e-05,5e-05,5
17934,18578,0.0001,0.0001,0.00011999999999999999,-7e-05,-0.00021,-8e-05,-2e-05,5e-05,5
17935,18579,0.0001,0.0001,0.00011999999999999999,-7e-05,-0.00021,-8e-05,-2e-05,5e-05,5
17936,18580,0.0001,0.0001,0.00011999999999999999,-7e-05,-0.00021,-8e-05,-2e-05,5e-05,5
17937,18581,0.0001,0.0001,0.00011999999999999999,-7e-05,-0.00021,-8e-05,-2e-05,5e-05,5
17938,18582,0.0001,0.0001,0.00011999999999999999,-7e-05,-0.00021,-8e-05,-2e-05,5e-05,5
17939,18583,0.0001,0.0001,0.00011999999999999999,-7e-05,-0.00021,-8e-05,-2e-05,5e-05,5
17940,18584,0.0001,0.0001,0.00011999999999999999,-7e-05,-0.00021,-8e-05,-2e-05,5e-05,5
17941,18585,0.0001,0.0001,0.00011999999999999999,-7e-05,-0.00021,-8e-05,-2e-05,5e-05,5
17942,18586,0.0001,0.0001,0.00011999999999999999,-7e-05,-0.00021,-8e-05,-2e-05,5e-05,5
17943,18588,-4e-05,-8e-05,-0.00016999999999999999,0.0001,5e-05,0.0002,4e-05,2.9999999999999997e-05,5
17944,18589,-4e-05,7e-05,-7e-05,0.00033999999999999997,-0.00065,-0.00028,0.00013000000000000002,-5.9999999999999995e-05,5
17945,18590,-4e-05,7e-05,-7e-05,0.00033999999999999997,-0.00065,-0.00028,0.00013000000000000002,-5.9999999999999995e-05,5
17946,18591,-4e-05,7e-05,-7e-05,0.00033999999999999997,-0.00065,-0.00028,0.00013000000000000002,-5.9999999999999995e-05,5
17947,18592,-4e-05,7e-05,-7e-05,0.00033999999999999997,-0.00065,-0.00028,0.00013000000000000002,-5.9999999999999995e-05,5
17948,18593,-4e-05,7e-05,-7e-05,0.00033999999999999997,-0.00065,-0.00028,0.00013000000000000002,-5.9999999999999995e-05,5
17949,18594,-4e-05,7e-05,-7e-05,0.00033999999999999997,-0.00065,-0.00028,0.00013000000000000002,-5.9999999999999995e-05,5
17950,18595,-4e-05,7e-05,-7e-05,0.00033999999999999997,-0.00065,-0.00028,0.00013000000000000002,-5.9999999999999995e-05,5
17951,18596,-4e-05,7e-05,-7e-05,0.00033999999999999997,-0.00065,-0.00028,0.00013000000000000002,-5.9999999999999995e-05,5
17952,18597,-4e-05,7e-05,-7e-05,0.00033999999999999997,-0.00065,-0.00028,0.00013000000000000002,-5.9999999999999995e-05,5
17953,18598,-4e-05,7e-05,-7e-05,0.00033999999999999997,-0.00065,-0.00028,0.00013000000000000002,-5.9999999999999995e-05,5
17954,18599,-4e-05,7e-05,-7e-05,0.00033999999999999997,-0.00065,-0.00028,0.00013000000000000002,-5.9999999999999995e-05,5
17955,18600,-4e-05,7e-05,-7e-05,0.00033999999999999997,-0.00065,-0.00028,0.00013000000000000002,-5.9999999999999995e-05,5
17956,18601,-4e-05,7e-05,-7e-05,0.00033999999999999997,-0.00065,-0.00028,0.00013000000000000002,-5.9999999999999995e-05,5
17957,18602,-4e-05,7e-05,-7e-05,0.00033999999999999997,-0.00065,-0.00028,0.00013000000000000002,-5.9999999999999995e-05,5
17958,18603,-4e-05,7e-05,-7e-05,0.00033999999999999997,-0.00065,-0.00028,0.00013000000000000002,-5.9999999999999995e-05,5
17959,18604,-4e-05,7e-05,-7e-05,0.00033999999999999997,-0.00065,-0.00028,0.00013000000000000002,-5.9999999999999995e-05,5
17960,18605,-4e-05,7e-05,-7e-05,0.00033999999999999997,-0.00065,-0.00028,0.00013000000000000002,-5.9999999999999995e-05,5
17961,18606,-4e-05,7e-05,-7e-05,0.00033999999999999997,-0.00065,-0.00028,0.00013000000000000002,-5.9999999999999995e-05,5
17962,18607,-4e-05,7e-05,-7e-05,0.00033999999999999997,-0.00065,-0.00028,0.00013000000000000002,-5.9999999999999995e-05,5
17963,18608,-4e-05,7e-05,-7e-05,0.00033999999999999997,-0.00065,-0.00028,0.00013000000000000002,-5.9999999999999995e-05,5
17964,18609,-4e-05,7e-05,-7e-05,0.00033999999999999997,-0.00065,-0.00028,0.00013000000000000002,-5.9999999999999995e-05,5
17965,18610,8e-05,-2.9999999999999997e-05,-0.00022999999999999998,-4e-05,0.00011999999999999999,-0.00016999999999999999,-7e-05,2.9999999999999997e-05,5
17966,18611,-4e-05,0.0,2e-05,-4e-05,2e-05,-9e-05,-0.00014,-9e-05,5
17967,18612,-4e-05,0.0,2e-05,-4e-05,2e-05,-9e-05,-0.00014,-9e-05,5
17968,18613,-4e-05,0.0,2e-05,-4e-05,2e-05,-9e-05,-0.00014,-9e-05,5
17969,18614,-4e-05,0.0,2e-05,-4e-05,2e-05,-9e-05,-0.00014,-9e-05,5
17970,18615,-4e-05,0.0,2e-05,-4e-05,2e-05,-9e-05,-0.00014,-9e-05,5
17971,18616,-4e-05,0.0,2e-05,-4e-05,2e-05,-9e-05,-0.00014,-9e-05,5
17972,18617,-4e-05,0.0,2e-05,-4e-05,2e-05,-9e-05,-0.00014,-9e-05,5
17973,18618,-4e-05,0.0,2e-05,-4e-05,2e-05,-9e-05,-0.00014,-9e-05,5
17974,18619,-4e-05,0.0,2e-05,-4e-05,2e-05,-9e-05,-0.00014,-9e-05,5
17975,18620,-4e-05,0.0,2e-05,-4e-05,2e-05,-9e-05,-0.00014,-9e-05,5
17976,18621,-4e-05,0.0,2e-05,-4e-05,2e-05,-9e-05,-0.00014,-9e-05,5
17977,18622,-4e-05,0.0,2e-05,-4e-05,2e-05,-9e-05,-0.00014,-9e-05,5
17978,18623,-4e-05,0.0,2e-05,-4e-05,2e-05,-9e-05,-0.00014,-9e-05,5
17979,18624,2e-05,-2.9999999999999997e-05,0.0,-0.00028,-0.00036,-5.9999999999999995e-05,-5e-05,-0.00011,5
17980,18625,-1e-05,-5.9999999999999995e-05,-9e-05,-7e-05,9e-05,-1e-05,-5.9999999999999995e-05,4e-05,5
17981,18626,-1e-05,-5.9999999999999995e-05,-9e-05,-7e-05,9e-05,-1e-05,-5.9999999999999995e-05,4e-05,5
17982,18627,-1e-05,-5.9999999999999995e-05,-9e-05,-7e-05,9e-05,-1e-05,-5.9999999999999995e-05,4e-05,5
17983,18628,-1e-05,-5.9999999999999995e-05,-9e-05,-7e-05,9e-05,-1e-05,-5.9999999999999995e-05,4e-05,5
17984,18629,-1e-05,-5.9999999999999995e-05,-9e-05,-7e-05,9e-05,-1e-05,-5.9999999999999995e-05,4e-05,5
17985,18630,-1e-05,-5.9999999999999995e-05,-9e-05,-7e-05,9e-05,-1e-05,-5.9999999999999995e-05,4e-05,5
17986,18631,-1e-05,-5.9999999999999995e-05,-9e-05,-7e-05,9e-05,-1e-05,-5.9999999999999995e-05,4e-05,5
17987,18632,-1e-05,-5.9999999999999995e-05,-9e-05,-7e-05,9e-05,-1e-05,-5.9999999999999995e-05,4e-05,5
17988,18633,-1e-05,-5.9999999999999995e-05,-9e-05,-7e-05,9e-05,-1e-05,-5.9999999999999995e-05,4e-05,5
17989,18634,-1e-05,-5.9999999999999995e-05,-9e-05,-7e-05,9e-05,-1e-05,-5.9999999999999995e-05,4e-05,5
17990,18635,-1e-05,-5.9999999999999995e-05,-9e-05,-7e-05,9e-05,-1e-05,-5.9999999999999995e-05,4e-05,5
17991,18636,-1e-05,-5.9999999999999995e-05,-9e-05,-7e-05,9e-05,-1e-05,-5.9999999999999995e-05,4e-05,5
17992,18638,-1e-05,-5.9999999999999995e-05,-9e-05,-7e-05,9e-05,-1e-05,-5.9999999999999995e-05,4e-05,5
17993,18639,-1e-05,-5.9999999999999995e-05,-9e-05,-7e-05,9e-05,-1e-05,-5.9999999999999995e-05,4e-05,5
17994,18640,-1e-05,-5.9999999999999995e-05,-9e-05,-7e-05,9e-05,-1e-05,-5.9999999999999995e-05,4e-05,5
17995,18641,-1e-05,-5.9999999999999995e-05,-9e-05,-7e-05,9e-05,-1e-05,-5.9999999999999995e-05,4e-05,5
17996,18642,-1e-05,-5.9999999999999995e-05,-9e-05,-7e-05,9e-05,-1e-05,-5.9999999999999995e-05,4e-05,5
17997,18643,-1e-05,-5.9999999999999995e-05,-9e-05,-7e-05,9e-05,-1e-05,-5.9999999999999995e-05,4e-05,5
17998,18644,-1e-05,-5.9999999999999995e-05,-9e-05,-7e-05,9e-05,-1e-05,-5.9999999999999995e-05,4e-05,5
17999,18645,-1e-05,-5.9999999999999995e-05,-9e-05,-7e-05,9e-05,-1e-05,-5.9999999999999995e-05,4e-05,5
18000,18646,-1e-05,-5.9999999999999995e-05,-9e-05,-7e-05,9e-05,-1e-05,-5.9999999999999995e-05,4e-05,5
18001,18647,-1e-05,-5.9999999999999995e-05,-9e-05,-7e-05,9e-05,-1e-05,-5.9999999999999995e-05,4e-05,5
18002,18648,-0.00015,-2.9999999999999997e-05,-5e-05,-0.00047000000000000004,1e-05,2.9999999999999997e-05,0.0,-4e-05,5
18003,18649,-5.9999999999999995e-05,-2e-05,-0.00013000000000000002,-0.00025,0.00016,-5e-05,-9e-05,-2.9999999999999997e-05,5
18004,18650,-5.9999999999999995e-05,-2e-05,-0.00013000000000000002,-0.00025,0.00016,-5e-05,-9e-05,-2.9999999999999997e-05,5
18005,18651,-5.9999999999999995e-05,-2e-05,-0.00013000000000000002,-0.00025,0.00016,-5e-05,-9e-05,-2.9999999999999997e-05,5
18006,18652,-5.9999999999999995e-05,-2e-05,-0.00013000000000000002,-0.00025,0.00016,-5e-05,-9e-05,-2.9999999999999997e-05,5
18007,18653,-5.9999999999999995e-05,-2e-05,-0.00013000000000000002,-0.00025,0.00016,-5e-05,-9e-05,-2.9999999999999997e-05,5
18008,18654,-5.9999999999999995e-05,-2e-05,-0.00013000000000000002,-0.00025,0.00016,-5e-05,-9e-05,-2.9999999999999997e-05,5
18009,18655,-5.9999999999999995e-05,-2e-05,-0.00013000000000000002,-0.00025,0.00016,-5e-05,-9e-05,-2.9999999999999997e-05,5
18010,18656,-5.9999999999999995e-05,-2e-05,-0.00013000000000000002,-0.00025,0.00016,-5e-05,-9e-05,-2.9999999999999997e-05,5
18011,18657,-5.9999999999999995e-05,-2e-05,-0.00013000000000000002,-0.00025,0.00016,-5e-05,-9e-05,-2.9999999999999997e-05,5
18012,18658,-5.9999999999999995e-05,-2e-05,-0.00013000000000000002,-0.00025,0.00016,-5e-05,-9e-05,-2.9999999999999997e-05,5
18013,18659,-5.9999999999999995e-05,-2e-05,-0.00013000000000000002,-0.00025,0.00016,-5e-05,-9e-05,-2.9999999999999997e-05,5
18014,18660,-5.9999999999999995e-05,-2e-05,-0.00013000000000000002,-0.00025,0.00016,-5e-05,-9e-05,-2.9999999999999997e-05,5
18015,18661,-5.9999999999999995e-05,-2e-05,-0.00013000000000000002,-0.00025,0.00016,-5e-05,-9e-05,-2.9999999999999997e-05,5
18016,18662,-5.9999999999999995e-05,-2e-05,-0.00013000000000000002,-0.00025,0.00016,-5e-05,-9e-05,-2.9999999999999997e-05,5
18017,18663,-5.9999999999999995e-05,-2e-05,-0.00013000000000000002,-0.00025,0.00016,-5e-05,-9e-05,-2.9999999999999997e-05,5
18018,18664,-5.9999999999999995e-05,-2e-05,-0.00013000000000000002,-0.00025,0.00016,-5e-05,-9e-05,-2.9999999999999997e-05,5
18019,18665,-5.9999999999999995e-05,-2e-05,-0.00013000000000000002,-0.00025,0.00016,-5e-05,-9e-05,-2.9999999999999997e-05,5
18020,18666,-5.9999999999999995e-05,-2e-05,-0.00013000000000000002,-0.00025,0.00016,-5e-05,-9e-05,-2.9999999999999997e-05,5
18021,18667,-5.9999999999999995e-05,-2e-05,-0.00013000000000000002,-0.00025,0.00016,-5e-05,-9e-05,-2.9999999999999997e-05,5
18022,18668,-5.9999999999999995e-05,-2e-05,-0.00013000000000000002,-0.00025,0.00016,-5e-05,-9e-05,-2.9999999999999997e-05,5
18023,18669,-5.9999999999999995e-05,-2e-05,-0.00013000000000000002,-0.00025,0.00016,-5e-05,-9e-05,-2.9999999999999997e-05,5
18024,18670,-2e-05,-7e-05,-0.00011999999999999999,-0.00025,-0.00042,-0.00029,-5e-05,-2.9999999999999997e-05,5
18025,18671,1e-05,4e-05,5e-05,-0.00022999999999999998,-0.00018,-5.9999999999999995e-05,-2.9999999999999997e-05,-2e-05,5
18026,18672,1e-05,4e-05,5e-05,-0.00022999999999999998,-0.00018,-5.9999999999999995e-05,-2.9999999999999997e-05,-2e-05,5
18027,18673,1e-05,4e-05,5e-05,-0.00022999999999999998,-0.00018,-5.9999999999999995e-05,-2.9999999999999997e-05,-2e-05,5
18028,18674,1e-05,4e-05,5e-05,-0.00022999999999999998,-0.00018,-5.9999999999999995e-05,-2.9999999999999997e-05,-2e-05,5
18029,18675,1e-05,4e-05,5e-05,-0.00022999999999999998,-0.00018,-5.9999999999999995e-05,-2.9999999999999997e-05,-2e-05,5
18030,18676,1e-05,4e-05,5e-05,-0.00022999999999999998,-0.00018,-5.9999999999999995e-05,-2.9999999999999997e-05,-2e-05,5
18031,18677,1e-05,4e-05,5e-05,-0.00022999999999999998,-0.00018,-5.9999999999999995e-05,-2.9999999999999997e-05,-2e-05,5
18032,18678,1e-05,4e-05,5e-05,-0.00022999999999999998,-0.00018,-5.9999999999999995e-05,-2.9999999999999997e-05,-2e-05,5
18033,18679,1e-05,4e-05,5e-05,-0.00022999999999999998,-0.00018,-5.9999999999999995e-05,-2.9999999999999997e-05,-2e-05,5
18034,18680,1e-05,4e-05,5e-05,-0.00022999999999999998,-0.00018,-5.9999999999999995e-05,-2.9999999999999997e-05,-2e-05,5
18035,18681,1e-05,4e-05,5e-05,-0.00022999999999999998,-0.00018,-5.9999999999999995e-05,-2.9999999999999997e-05,-2e-05,5
18036,18682,1e-05,4e-05,5e-05,-0.00022999999999999998,-0.00018,-5.9999999999999995e-05,-2.9999999999999997e-05,-2e-05,5
18037,18683,8e-05,7e-05,-2e-05,-0.0004,-0.00026000000000000003,-4e-05,-2e-05,0.00016999999999999999,5
18038,18684,-1e-05,0.0,5e-05,-4e-05,-0.00037999999999999997,-0.00023999999999999998,-0.00013000000000000002,-0.0001,5
18039,18685,-1e-05,0.0,5e-05,-4e-05,-0.00037999999999999997,-0.00023999999999999998,-0.00013000000000000002,-0.0001,5
18040,18686,-1e-05,0.0,5e-05,-4e-05,-0.00037999999999999997,-0.00023999999999999998,-0.00013000000000000002,-0.0001,5
18041,18688,-1e-05,0.0,5e-05,-4e-05,-0.00037999999999999997,-0.00023999999999999998,-0.00013000000000000002,-0.0001,5
18042,18689,-1e-05,0.0,5e-05,-4e-05,-0.00037999999999999997,-0.00023999999999999998,-0.00013000000000000002,-0.0001,5
18043,18690,-1e-05,0.0,5e-05,-4e-05,-0.00037999999999999997,-0.00023999999999999998,-0.00013000000000000002,-0.0001,5
18044,18691,-1e-05,0.0,5e-05,-4e-05,-0.00037999999999999997,-0.00023999999999999998,-0.00013000000000000002,-0.0001,5
18045,18692,-1e-05,0.0,5e-05,-4e-05,-0.00037999999999999997,-0.00023999999999999998,-0.00013000000000000002,-0.0001,5
18046,18693,-1e-05,0.0,5e-05,-4e-05,-0.00037999999999999997,-0.00023999999999999998,-0.00013000000000000002,-0.0001,5
18047,18694,-1e-05,0.0,5e-05,-4e-05,-0.00037999999999999997,-0.00023999999999999998,-0.00013000000000000002,-0.0001,5
18048,18695,-1e-05,0.0,5e-05,-4e-05,-0.00037999999999999997,-0.00023999999999999998,-0.00013000000000000002,-0.0001,5
18049,18696,-1e-05,0.0,5e-05,-4e-05,-0.00037999999999999997,-0.00023999999999999998,-0.00013000000000000002,-0.0001,5
18050,18697,-1e-05,0.0,5e-05,-4e-05,-0.00037999999999999997,-0.00023999999999999998,-0.00013000000000000002,-0.0001,5
18051,18698,-1e-05,0.0,5e-05,-4e-05,-0.00037999999999999997,-0.00023999999999999998,-0.00013000000000000002,-0.0001,5
18052,18699,-8e-05,-0.00011,-0.00011999999999999999,0.00027,0.00054,5.9999999999999995e-05,-1e-05,-2.9999999999999997e-05,5
18053,18700,1e-05,-0.00011,-0.0001,-0.00011,9e-05,0.0001,1e-05,0.0,5
18054,18701,1e-05,-0.00011,-0.0001,-0.00011,9e-05,0.0001,1e-05,0.0,5
18055,18702,1e-05,-0.00011,-0.0001,-0.00011,9e-05,0.0001,1e-05,0.0,5
18056,18703,1e-05,-0.00011,-0.0001,-0.00011,9e-05,0.0001,1e-05,0.0,5
18057,18704,1e-05,-0.00011,-0.0001,-0.00011,9e-05,0.0001,1e-05,0.0,5
18058,18705,1e-05,-0.00011,-0.0001,-0.00011,9e-05,0.0001,1e-05,0.0,5
18059,18706,1e-05,-0.00011,-0.0001,-0.00011,9e-05,0.0001,1e-05,0.0,5
18060,18707,-0.00011999999999999999,8e-05,8e-05,0.00032,-0.0001,-0.00021,-2e-05,2.9999999999999997e-05,5
18061,18708,-0.00011999999999999999,8e-05,8e-05,0.00032,-0.0001,-0.00021,-2e-05,2.9999999999999997e-05,5
18062,18709,-0.00011999999999999999,8e-05,8e-05,0.00032,-0.0001,-0.00021,-2e-05,2.9999999999999997e-05,5
18063,18710,-0.00011999999999999999,8e-05,8e-05,0.00032,-0.0001,-0.00021,-2e-05,2.9999999999999997e-05,5
18064,18711,-0.00011999999999999999,8e-05,8e-05,0.00032,-0.0001,-0.00021,-2e-05,2.9999999999999997e-05,5
18065,18712,-0.00011999999999999999,8e-05,8e-05,0.00032,-0.0001,-0.00021,-2e-05,2.9999999999999997e-05,5
18066,18713,-0.00011999999999999999,8e-05,8e-05,0.00032,-0.0001,-0.00021,-2e-05,2.9999999999999997e-05,5
18067,18714,-0.00011999999999999999,8e-05,8e-05,0.00032,-0.0001,-0.00021,-2e-05,2.9999999999999997e-05,5
18068,18715,-0.00011999999999999999,8e-05,8e-05,0.00032,-0.0001,-0.00021,-2e-05,2.9999999999999997e-05,5
18069,18716,-0.00011999999999999999,8e-05,8e-05,0.00032,-0.0001,-0.00021,-2e-05,2.9999999999999997e-05,5
18070,18717,-0.00011999999999999999,8e-05,8e-05,0.00032,-0.0001,-0.00021,-2e-05,2.9999999999999997e-05,5
18071,18718,-0.00011999999999999999,8e-05,8e-05,0.00032,-0.0001,-0.00021,-2e-05,2.9999999999999997e-05,5
18072,18719,-0.00011999999999999999,8e-05,8e-05,0.00032,-0.0001,-0.00021,-2e-05,2.9999999999999997e-05,5
18073,18720,-0.00011999999999999999,8e-05,8e-05,0.00032,-0.0001,-0.00021,-2e-05,2.9999999999999997e-05,5
18074,18721,-0.00011999999999999999,8e-05,8e-05,0.00032,-0.0001,-0.00021,-2e-05,2.9999999999999997e-05,5
18075,18722,-0.00011999999999999999,8e-05,8e-05,0.00032,-0.0001,-0.00021,-2e-05,2.9999999999999997e-05,5
18076,18723,-0.00011999999999999999,8e-05,8e-05,0.00032,-0.0001,-0.00021,-2e-05,2.9999999999999997e-05,5
18077,18724,-0.00011999999999999999,8e-05,8e-05,0.00032,-0.0001,-0.00021,-2e-05,2.9999999999999997e-05,5
18078,18725,-0.00011999999999999999,8e-05,8e-05,0.00032,-0.0001,-0.00021,-2e-05,2.9999999999999997e-05,5
18079,18726,-0.00011999999999999999,8e-05,8e-05,0.00032,-0.0001,-0.00021,-2e-05,2.9999999999999997e-05,5
18080,18727,-0.00011999999999999999,8e-05,8e-05,0.00032,-0.0001,-0.00021,-2e-05,2.9999999999999997e-05,5
18081,18728,-0.00011999999999999999,8e-05,8e-05,0.00032,-0.0001,-0.00021,-2e-05,2.9999999999999997e-05,5
18082,18729,-0.00011999999999999999,8e-05,8e-05,0.00032,-0.0001,-0.00021,-2e-05,2.9999999999999997e-05,5
18083,18730,2.9999999999999997e-05,-1e-05,5e-05,0.00025,0.00074,0.00022,7e-05,5e-05,5
18084,18731,-1e-05,2e-05,-2e-05,-0.0001,-0.00049,-0.0001,-5e-05,-5.9999999999999995e-05,5
18085,18732,-1e-05,2e-05,-2e-05,-0.0001,-0.00049,-0.0001,-5e-05,-5.9999999999999995e-05,5
18086,18733,-1e-05,2e-05,-2e-05,-0.0001,-0.00049,-0.0001,-5e-05,-5.9999999999999995e-05,5
18087,18734,-1e-05,2e-05,-2e-05,-0.0001,-0.00049,-0.0001,-5e-05,-5.9999999999999995e-05,5
18088,18735,-1e-05,2e-05,-2e-05,-0.0001,-0.00049,-0.0001,-5e-05,-5.9999999999999995e-05,5
18089,18736,-1e-05,2e-05,-2e-05,-0.0001,-0.00049,-0.0001,-5e-05,-5.9999999999999995e-05,5
18090,18738,-1e-05,2e-05,-2e-05,-0.0001,-0.00049,-0.0001,-5e-05,-5.9999999999999995e-05,5
18091,18739,-1e-05,2e-05,-2e-05,-0.0001,-0.00049,-0.0001,-5e-05,-5.9999999999999995e-05,5
18092,18740,-1e-05,2e-05,-2e-05,-0.0001,-0.00049,-0.0001,-5e-05,-5.9999999999999995e-05,5
18093,18741,-1e-05,2e-05,-2e-05,-0.0001,-0.00049,-0.0001,-5e-05,-5.9999999999999995e-05,5
18094,18742,-1e-05,2e-05,-2e-05,-0.0001,-0.00049,-0.0001,-5e-05,-5.9999999999999995e-05,5
18095,18743,-1e-05,2e-05,-2e-05,-0.0001,-0.00049,-0.0001,-5e-05,-5.9999999999999995e-05,5
18096,18744,0.00011999999999999999,2e-05,8e-05,5e-05,0.00022999999999999998,8e-05,1e-05,0.00015,5
18097,18745,0.00011999999999999999,2e-05,8e-05,5e-05,0.00022999999999999998,8e-05,1e-05,0.00015,5
18098,18746,0.00011999999999999999,2e-05,8e-05,5e-05,0.00022999999999999998,8e-05,1e-05,0.00015,5
18099,18747,0.00011999999999999999,2e-05,8e-05,5e-05,0.00022999999999999998,8e-05,1e-05,0.00015,5
18100,18748,0.00011999999999999999,2e-05,8e-05,5e-05,0.00022999999999999998,8e-05,1e-05,0.00015,5
18101,18749,0.00011999999999999999,2e-05,8e-05,5e-05,0.00022999999999999998,8e-05,1e-05,0.00015,5
18102,18750,0.00011999999999999999,2e-05,8e-05,5e-05,0.00022999999999999998,8e-05,1e-05,0.00015,5
18103,18751,0.00011999999999999999,2e-05,8e-05,5e-05,0.00022999999999999998,8e-05,1e-05,0.00015,5
18104,18752,-2e-05,-0.00016999999999999999,-0.00018999999999999998,-0.00016,0.00016999999999999999,-2.9999999999999997e-05,2e-05,-2e-05,5
18105,18753,-2e-05,-0.00016999999999999999,-0.00018999999999999998,-0.00016,0.00016999999999999999,-2.9999999999999997e-05,2e-05,-2e-05,5
18106,18754,-2e-05,-0.00016999999999999999,-0.00018999999999999998,-0.00016,0.00016999999999999999,-2.9999999999999997e-05,2e-05,-2e-05,5
18107,18755,-2e-05,-0.00016999999999999999,-0.00018999999999999998,-0.00016,0.00016999999999999999,-2.9999999999999997e-05,2e-05,-2e-05,5
18108,18756,-2e-05,-0.00016999999999999999,-0.00018999999999999998,-0.00016,0.00016999999999999999,-2.9999999999999997e-05,2e-05,-2e-05,5
18109,18757,-2e-05,-0.00016999999999999999,-0.00018999999999999998,-0.00016,0.00016999999999999999,-2.9999999999999997e-05,2e-05,-2e-05,5
18110,18758,-2e-05,-0.00016999999999999999,-0.00018999999999999998,-0.00016,0.00016999999999999999,-2.9999999999999997e-05,2e-05,-2e-05,5
18111,18759,-2e-05,-0.00016999999999999999,-0.00018999999999999998,-0.00016,0.00016999999999999999,-2.9999999999999997e-05,2e-05,-2e-05,5
18112,18760,-2e-05,-0.00016999999999999999,-0.00018999999999999998,-0.00016,0.00016999999999999999,-2.9999999999999997e-05,2e-05,-2e-05,5
18113,18761,-2e-05,-0.00016999999999999999,-0.00018999999999999998,-0.00016,0.00016999999999999999,-2.9999999999999997e-05,2e-05,-2e-05,5
18114,18762,-2e-05,-0.00016999999999999999,-0.00018999999999999998,-0.00016,0.00016999999999999999,-2.9999999999999997e-05,2e-05,-2e-05,5
18115,18763,-2e-05,-0.00016999999999999999,-0.00018999999999999998,-0.00016,0.00016999999999999999,-2.9999999999999997e-05,2e-05,-2e-05,5
18116,18764,-2e-05,-0.00016999999999999999,-0.00018999999999999998,-0.00016,0.00016999999999999999,-2.9999999999999997e-05,2e-05,-2e-05,5
18117,18765,-2e-05,-0.00016999999999999999,-0.00018999999999999998,-0.00016,0.00016999999999999999,-2.9999999999999997e-05,2e-05,-2e-05,5
18118,18766,-2e-05,-0.00016999999999999999,-0.00018999999999999998,-0.00016,0.00016999999999999999,-2.9999999999999997e-05,2e-05,-2e-05,5
18119,18767,-0.0001,-0.00013000000000000002,-0.00016,-5e-05,-0.00018,0.00018,9e-05,-1e-05,5
18120,18768,-0.0001,-0.00013000000000000002,-0.00016,-5e-05,-0.00018,0.00018,9e-05,-1e-05,5
18121,18769,-0.0001,-0.00013000000000000002,-0.00016,-5e-05,-0.00018,0.00018,9e-05,-1e-05,5
18122,18770,-0.0001,-0.00013000000000000002,-0.00016,-5e-05,-0.00018,0.00018,9e-05,-1e-05,5
18123,18771,-0.0001,-0.00013000000000000002,-0.00016,-5e-05,-0.00018,0.00018,9e-05,-1e-05,5
18124,18772,-0.0001,-0.00013000000000000002,-0.00016,-5e-05,-0.00018,0.00018,9e-05,-1e-05,5
18125,18773,-0.0001,-0.00013000000000000002,-0.00016,-5e-05,-0.00018,0.00018,9e-05,-1e-05,5
18126,18774,-0.0001,-0.00013000000000000002,-0.00016,-5e-05,-0.00018,0.00018,9e-05,-1e-05,5
18127,18775,-0.0001,-0.00013000000000000002,-0.00016,-5e-05,-0.00018,0.00018,9e-05,-1e-05,5
18128,18776,-0.0001,-0.00013000000000000002,-0.00016,-5e-05,-0.00018,0.00018,9e-05,-1e-05,5
18129,18777,-0.0001,-0.00013000000000000002,-0.00016,-5e-05,-0.00018,0.00018,9e-05,-1e-05,5
18130,18778,-0.0001,-0.00013000000000000002,-0.00016,-5e-05,-0.00018,0.00018,9e-05,-1e-05,5
18131,18779,-0.0001,-0.00013000000000000002,-0.00016,-5e-05,-0.00018,0.00018,9e-05,-1e-05,5
18132,18780,-0.0001,-0.00013000000000000002,-0.00016,-5e-05,-0.00018,0.00018,9e-05,-1e-05,5
18133,18781,-0.0001,-0.00013000000000000002,-0.00016,-5e-05,-0.00018,0.00018,9e-05,-1e-05,5
18134,18782,-0.0001,-0.00013000000000000002,-0.00016,-5e-05,-0.00018,0.00018,9e-05,-1e-05,5
18135,18783,-0.0001,-0.00013000000000000002,-0.00016,-5e-05,-0.00018,0.00018,9e-05,-1e-05,5
18136,18784,-0.0001,-0.00013000000000000002,-0.00016,-5e-05,-0.00018,0.00018,9e-05,-1e-05,5
18137,18785,-0.0001,-0.00013000000000000002,-0.00016,-5e-05,-0.00018,0.00018,9e-05,-1e-05,5
18138,18786,-0.0001,-0.00013000000000000002,-0.00016,-5e-05,-0.00018,0.00018,9e-05,-1e-05,5
18139,18788,-0.0001,-0.00013000000000000002,-0.00016,-5e-05,-0.00018,0.00018,9e-05,-1e-05,5
18140,18789,-0.0001,-0.00013000000000000002,-0.00016,-5e-05,-0.00018,0.00018,9e-05,-1e-05,5
18141,18790,-0.0001,-0.00013000000000000002,-0.00016,-5e-05,-0.00018,0.00018,9e-05,-1e-05,5
18142,18791,0.0,-1e-05,2e-05,-0.00018999999999999998,-0.00015,1e-05,-5e-05,-5.9999999999999995e-05,5
18143,18792,0.0,-1e-05,2e-05,-0.00018999999999999998,-0.00015,1e-05,-5e-05,-5.9999999999999995e-05,5
18144,18793,0.0,-1e-05,2e-05,-0.00018999999999999998,-0.00015,1e-05,-5e-05,-5.9999999999999995e-05,5
18145,18794,0.0,-1e-05,2e-05,-0.00018999999999999998,-0.00015,1e-05,-5e-05,-5.9999999999999995e-05,5
18146,18795,0.0,-1e-05,2e-05,-0.00018999999999999998,-0.00015,1e-05,-5e-05,-5.9999999999999995e-05,5
18147,18796,0.0,-1e-05,2e-05,-0.00018999999999999998,-0.00015,1e-05,-5e-05,-5.9999999999999995e-05,5
18148,18797,0.0,-1e-05,2e-05,-0.00018999999999999998,-0.00015,1e-05,-5e-05,-5.9999999999999995e-05,5
18149,18798,0.0,-1e-05,2e-05,-0.00018999999999999998,-0.00015,1e-05,-5e-05,-5.9999999999999995e-05,5
18150,18799,0.0,-1e-05,2e-05,-0.00018999999999999998,-0.00015,1e-05,-5e-05,-5.9999999999999995e-05,5
18151,18800,0.0,-1e-05,2e-05,-0.00018999999999999998,-0.00015,1e-05,-5e-05,-5.9999999999999995e-05,5
18152,18801,0.0,-1e-05,2e-05,-0.00018999999999999998,-0.00015,1e-05,-5e-05,-5.9999999999999995e-05,5
18153,18802,0.0,-1e-05,2e-05,-0.00018999999999999998,-0.00015,1e-05,-5e-05,-5.9999999999999995e-05,5
18154,18803,-2.9999999999999997e-05,-5.9999999999999995e-05,-9e-05,7e-05,0.00021,-0.00026000000000000003,-2e-05,-2.9999999999999997e-05,5
18155,18804,-7e-05,-2e-05,1e-05,5.9999999999999995e-05,1e-05,-1e-05,-2.9999999999999997e-05,-8e-05,5
18156,18805,-7e-05,-2e-05,1e-05,5.9999999999999995e-05,1e-05,-1e-05,-2.9999999999999997e-05,-8e-05,5
18157,18806,-7e-05,-2e-05,1e-05,5.9999999999999995e-05,1e-05,-1e-05,-2.9999999999999997e-05,-8e-05,5
18158,18807,-7e-05,-2e-05,1e-05,5.9999999999999995e-05,1e-05,-1e-05,-2.9999999999999997e-05,-8e-05,5
18159,18808,-7e-05,-2e-05,1e-05,5.9999999999999995e-05,1e-05,-1e-05,-2.9999999999999997e-05,-8e-05,5
18160,18809,-7e-05,-2e-05,1e-05,5.9999999999999995e-05,1e-05,-1e-05,-2.9999999999999997e-05,-8e-05,5
18161,18810,-7e-05,-2e-05,1e-05,5.9999999999999995e-05,1e-05,-1e-05,-2.9999999999999997e-05,-8e-05,5
18162,18811,-7e-05,-2e-05,1e-05,5.9999999999999995e-05,1e-05,-1e-05,-2.9999999999999997e-05,-8e-05,5
18163,18812,0.0,7e-05,7e-05,1e-05,0.00011999999999999999,0.00022999999999999998,0.00011999999999999999,0.0,5
18164,18813,0.0,7e-05,7e-05,1e-05,0.00011999999999999999,0.00022999999999999998,0.00011999999999999999,0.0,5
18165,18814,0.0,7e-05,7e-05,1e-05,0.00011999999999999999,0.00022999999999999998,0.00011999999999999999,0.0,5
18166,18815,0.0,7e-05,7e-05,1e-05,0.00011999999999999999,0.00022999999999999998,0.00011999999999999999,0.0,5
18167,18816,0.0,7e-05,7e-05,1e-05,0.00011999999999999999,0.00022999999999999998,0.00011999999999999999,0.0,5
18168,18817,0.0,7e-05,7e-05,1e-05,0.00011999999999999999,0.00022999999999999998,0.00011999999999999999,0.0,5
18169,18818,0.0,7e-05,7e-05,1e-05,0.00011999999999999999,0.00022999999999999998,0.00011999999999999999,0.0,5
18170,18819,0.0,7e-05,7e-05,1e-05,0.00011999999999999999,0.00022999999999999998,0.00011999999999999999,0.0,5
18171,18820,0.0,7e-05,7e-05,1e-05,0.00011999999999999999,0.00022999999999999998,0.00011999999999999999,0.0,5
18172,18821,0.0,7e-05,7e-05,1e-05,0.00011999999999999999,0.00022999999999999998,0.00011999999999999999,0.0,5
18173,18822,0.0,7e-05,7e-05,1e-05,0.00011999999999999999,0.00022999999999999998,0.00011999999999999999,0.0,5
18174,18823,0.0,7e-05,7e-05,1e-05,0.00011999999999999999,0.00022999999999999998,0.00011999999999999999,0.0,5
18175,18824,0.0,7e-05,7e-05,1e-05,0.00011999999999999999,0.00022999999999999998,0.00011999999999999999,0.0,5
18176,18825,0.0,7e-05,7e-05,1e-05,0.00011999999999999999,0.00022999999999999998,0.00011999999999999999,0.0,5
18177,18826,0.0,7e-05,7e-05,1e-05,0.00011999999999999999,0.00022999999999999998,0.00011999999999999999,0.0,5
18178,18827,0.0001,-2e-05,1e-05,0.00011999999999999999,-1e-05,-0.0004,-0.00016,2e-05,5
18179,18828,0.0001,-2e-05,1e-05,0.00011999999999999999,-1e-05,-0.0004,-0.00016,2e-05,5
18180,18829,0.0001,-2e-05,1e-05,0.00011999999999999999,-1e-05,-0.0004,-0.00016,2e-05,5
18181,18830,0.0001,-2e-05,1e-05,0.00011999999999999999,-1e-05,-0.0004,-0.00016,2e-05,5
18182,18831,0.0001,-2e-05,1e-05,0.00011999999999999999,-1e-05,-0.0004,-0.00016,2e-05,5
18183,18832,0.0001,-2e-05,1e-05,0.00011999999999999999,-1e-05,-0.0004,-0.00016,2e-05,5
18184,18833,0.0001,-2e-05,1e-05,0.00011999999999999999,-1e-05,-0.0004,-0.00016,2e-05,5
18185,18834,0.0001,-2e-05,1e-05,0.00011999999999999999,-1e-05,-0.0004,-0.00016,2e-05,5
18186,18835,0.0001,-2e-05,1e-05,0.00011999999999999999,-1e-05,-0.0004,-0.00016,2e-05,5
18187,18836,0.0001,-2e-05,1e-05,0.00011999999999999999,-1e-05,-0.0004,-0.00016,2e-05,5
18188,18838,0.0001,-2e-05,1e-05,0.00011999999999999999,-1e-05,-0.0004,-0.00016,2e-05,5
18189,18839,0.0001,-2e-05,1e-05,0.00011999999999999999,-1e-05,-0.0004,-0.00016,2e-05,5
18190,18840,0.0001,-2e-05,1e-05,0.00011999999999999999,-1e-05,-0.0004,-0.00016,2e-05,5
18191,18841,0.0001,-2e-05,1e-05,0.00011999999999999999,-1e-05,-0.0004,-0.00016,2e-05,5
18192,18842,0.0001,-2e-05,1e-05,0.00011999999999999999,-1e-05,-0.0004,-0.00016,2e-05,5
18193,18843,0.0001,-2e-05,1e-05,0.00011999999999999999,-1e-05,-0.0004,-0.00016,2e-05,5
18194,18844,0.0001,-2e-05,1e-05,0.00011999999999999999,-1e-05,-0.0004,-0.00016,2e-05,5
18195,18845,0.0001,-2e-05,1e-05,0.00011999999999999999,-1e-05,-0.0004,-0.00016,2e-05,5
18196,18846,0.0001,-2e-05,1e-05,0.00011999999999999999,-1e-05,-0.0004,-0.00016,2e-05,5
18197,18847,0.0001,-2e-05,1e-05,0.00011999999999999999,-1e-05,-0.0004,-0.00016,2e-05,5
18198,18848,0.0001,-2e-05,1e-05,0.00011999999999999999,-1e-05,-0.0004,-0.00016,2e-05,5
18199,18849,0.0001,-2e-05,1e-05,0.00011999999999999999,-1e-05,-0.0004,-0.00016,2e-05,5
18200,18850,-0.00018999999999999998,-0.00013000000000000002,-1e-05,0.00037999999999999997,0.00013000000000000002,0.00029,-4e-05,-1e-05,5
18201,18851,0.0,0.00016,0.00025,7e-05,-0.00041,-0.00021,-0.00011,-0.00011,5
18202,18852,0.0,0.00016,0.00025,7e-05,-0.00041,-0.00021,-0.00011,-0.00011,5
18203,18853,0.0,0.00016,0.00025,7e-05,-0.00041,-0.00021,-0.00011,-0.00011,5
18204,18854,0.0,0.00016,0.00025,7e-05,-0.00041,-0.00021,-0.00011,-0.00011,5
18205,18855,0.0,0.00016,0.00025,7e-05,-0.00041,-0.00021,-0.00011,-0.00011,5
18206,18856,0.0,0.00016,0.00025,7e-05,-0.00041,-0.00021,-0.00011,-0.00011,5
18207,18857,0.0,0.00016,0.00025,7e-05,-0.00041,-0.00021,-0.00011,-0.00011,5
18208,18858,0.0,0.00016,0.00025,7e-05,-0.00041,-0.00021,-0.00011,-0.00011,5
18209,18859,0.0,0.00016,0.00025,7e-05,-0.00041,-0.00021,-0.00011,-0.00011,5
18210,18860,0.0,0.00016,0.00025,7e-05,-0.00041,-0.00021,-0.00011,-0.00011,5
18211,18861,0.0,0.00016,0.00025,7e-05,-0.00041,-0.00021,-0.00011,-0.00011,5
18212,18862,0.0,0.00016,0.00025,7e-05,-0.00041,-0.00021,-0.00011,-0.00011,5
18213,18863,-2.9999999999999997e-05,-2e-05,2.9999999999999997e-05,2.9999999999999997e-05,-0.00016,0.00031,8e-05,2e-05,5
18214,18864,9e-05,8e-05,5e-05,-0.00031,-0.00022999999999999998,-0.00027,-0.00016,-8e-05,5
18215,18865,9e-05,8e-05,5e-05,-0.00031,-0.00022999999999999998,-0.00027,-0.00016,-8e-05,5
18216,18866,9e-05,8e-05,5e-05,-0.00031,-0.00022999999999999998,-0.00027,-0.00016,-8e-05,5
18217,18867,9e-05,8e-05,5e-05,-0.00031,-0.00022999999999999998,-0.00027,-0.00016,-8e-05,5
18218,18868,9e-05,8e-05,5e-05,-0.00031,-0.00022999999999999998,-0.00027,-0.00016,-8e-05,5
18219,18869,9e-05,8e-05,5e-05,-0.00031,-0.00022999999999999998,-0.00027,-0.00016,-8e-05,5
18220,18870,9e-05,8e-05,5e-05,-0.00031,-0.00022999999999999998,-0.00027,-0.00016,-8e-05,5
18221,18871,9e-05,8e-05,5e-05,-0.00031,-0.00022999999999999998,-0.00027,-0.00016,-8e-05,5
18222,18872,-5e-05,5.9999999999999995e-05,0.00016,-9e-05,-0.00011,2e-05,-4e-05,2e-05,5
18223,18873,-5e-05,5.9999999999999995e-05,0.00016,-9e-05,-0.00011,2e-05,-4e-05,2e-05,5
18224,18874,-5e-05,5.9999999999999995e-05,0.00016,-9e-05,-0.00011,2e-05,-4e-05,2e-05,5
18225,18875,-5e-05,5.9999999999999995e-05,0.00016,-9e-05,-0.00011,2e-05,-4e-05,2e-05,5
18226,18876,-5e-05,5.9999999999999995e-05,0.00016,-9e-05,-0.00011,2e-05,-4e-05,2e-05,5
18227,18877,-5e-05,5.9999999999999995e-05,0.00016,-9e-05,-0.00011,2e-05,-4e-05,2e-05,5
18228,18878,-5e-05,5.9999999999999995e-05,0.00016,-9e-05,-0.00011,2e-05,-4e-05,2e-05,5
18229,18879,-5e-05,5.9999999999999995e-05,0.00016,-9e-05,-0.00011,2e-05,-4e-05,2e-05,5
18230,18880,-5e-05,5.9999999999999995e-05,0.00016,-9e-05,-0.00011,2e-05,-4e-05,2e-05,5
18231,18881,-5e-05,5.9999999999999995e-05,0.00016,-9e-05,-0.00011,2e-05,-4e-05,2e-05,5
18232,18882,-5e-05,5.9999999999999995e-05,0.00016,-9e-05,-0.00011,2e-05,-4e-05,2e-05,5
18233,18883,-5e-05,5.9999999999999995e-05,0.00016,-9e-05,-0.00011,2e-05,-4e-05,2e-05,5
18234,18884,-5e-05,5.9999999999999995e-05,0.00016,-9e-05,-0.00011,2e-05,-4e-05,2e-05,5
18235,18885,-5e-05,5.9999999999999995e-05,0.00016,-9e-05,-0.00011,2e-05,-4e-05,2e-05,5
18236,18886,-5e-05,5.9999999999999995e-05,0.00016,-9e-05,-0.00011,2e-05,-4e-05,2e-05,5
18237,18888,-0.0001,-0.00014,-0.0001,-0.00025,0.0001,0.0002,5e-05,-0.00014,5
18238,18889,-0.0001,-0.00014,-0.0001,-0.00025,0.0001,0.0002,5e-05,-0.00014,5
18239,18890,-0.0001,-0.00014,-0.0001,-0.00025,0.0001,0.0002,5e-05,-0.00014,5
18240,18891,-0.0001,-0.00014,-0.0001,-0.00025,0.0001,0.0002,5e-05,-0.00014,5
18241,18892,-0.0001,-0.00014,-0.0001,-0.00025,0.0001,0.0002,5e-05,-0.00014,5
18242,18893,-0.0001,-0.00014,-0.0001,-0.00025,0.0001,0.0002,5e-05,-0.00014,5
18243,18894,-0.0001,-0.00014,-0.0001,-0.00025,0.0001,0.0002,5e-05,-0.00014,5
18244,18895,-0.0001,-0.00014,-0.0001,-0.00025,0.0001,0.0002,5e-05,-0.00014,5
18245,18896,-0.0001,-0.00014,-0.0001,-0.00025,0.0001,0.0002,5e-05,-0.00014,5
18246,18897,-0.0001,-0.00014,-0.0001,-0.00025,0.0001,0.0002,5e-05,-0.00014,5
18247,18898,-0.0001,-0.00014,-0.0001,-0.00025,0.0001,0.0002,5e-05,-0.00014,5
18248,18899,-0.0001,-0.00014,-0.0001,-0.00025,0.0001,0.0002,5e-05,-0.00014,5
18249,18900,-0.0001,-0.00014,-0.0001,-0.00025,0.0001,0.0002,5e-05,-0.00014,5
18250,18901,-0.0001,-0.00014,-0.0001,-0.00025,0.0001,0.0002,5e-05,-0.00014,5
18251,18902,-0.0001,-0.00014,-0.0001,-0.00025,0.0001,0.0002,5e-05,-0.00014,5
18252,18903,-0.0001,-0.00014,-0.0001,-0.00025,0.0001,0.0002,5e-05,-0.00014,5
18253,18904,-0.0001,-0.00014,-0.0001,-0.00025,0.0001,0.0002,5e-05,-0.00014,5
18254,18905,-0.0001,-0.00014,-0.0001,-0.00025,0.0001,0.0002,5e-05,-0.00014,5
18255,18906,-0.0001,-0.00014,-0.0001,-0.00025,0.0001,0.0002,5e-05,-0.00014,5
18256,18907,-0.0001,-0.00014,-0.0001,-0.00025,0.0001,0.0002,5e-05,-0.00014,5
18257,18908,-0.0001,-0.00014,-0.0001,-0.00025,0.0001,0.0002,5e-05,-0.00014,5
18258,18909,2.9999999999999997e-05,2e-05,-5e-05,4e-05,-7e-05,7e-05,4e-05,8e-05,5
18259,18910,1e-05,-4e-05,-1e-05,0.00011999999999999999,0.00028,-2e-05,-4e-05,7e-05,5
18260,18912,1e-05,-4e-05,-1e-05,0.00011999999999999999,0.00028,-2e-05,-4e-05,7e-05,5
18261,18913,1e-05,-4e-05,-1e-05,0.00011999999999999999,0.00028,-2e-05,-4e-05,7e-05,5
18262,18914,1e-05,-4e-05,-1e-05,0.00011999999999999999,0.00028,-2e-05,-4e-05,7e-05,5
18263,18915,1e-05,-4e-05,-1e-05,0.00011999999999999999,0.00028,-2e-05,-4e-05,7e-05,5
18264,18916,1e-05,-4e-05,-1e-05,0.00011999999999999999,0.00028,-2e-05,-4e-05,7e-05,5
18265,18917,1e-05,-4e-05,-1e-05,0.00011999999999999999,0.00028,-2e-05,-4e-05,7e-05,5
18266,18918,1e-05,-4e-05,-1e-05,0.00011999999999999999,0.00028,-2e-05,-4e-05,7e-05,5
18267,18919,1e-05,-4e-05,-1e-05,0.00011999999999999999,0.00028,-2e-05,-4e-05,7e-05,5
18268,18920,1e-05,-4e-05,-1e-05,0.00011999999999999999,0.00028,-2e-05,-4e-05,7e-05,5
18269,18921,1e-05,-4e-05,-1e-05,0.00011999999999999999,0.00028,-2e-05,-4e-05,7e-05,5
18270,18922,1e-05,-4e-05,-1e-05,0.00011999999999999999,0.00028,-2e-05,-4e-05,7e-05,5
18271,18923,1e-05,-4e-05,-1e-05,0.00011999999999999999,0.00028,-2e-05,-4e-05,7e-05,5
18272,18924,-4e-05,-5.9999999999999995e-05,-4e-05,-0.00022,2.9999999999999997e-05,0.00014,-0.00011999999999999999,-4e-05,5
18273,18925,-4e-05,-5.9999999999999995e-05,-4e-05,-0.00022,2.9999999999999997e-05,0.00014,-0.00011999999999999999,-4e-05,5
18274,18926,-4e-05,-5.9999999999999995e-05,-4e-05,-0.00022,2.9999999999999997e-05,0.00014,-0.00011999999999999999,-4e-05,5
18275,18927,-4e-05,-5.9999999999999995e-05,-4e-05,-0.00022,2.9999999999999997e-05,0.00014,-0.00011999999999999999,-4e-05,5
18276,18928,-4e-05,-5.9999999999999995e-05,-4e-05,-0.00022,2.9999999999999997e-05,0.00014,-0.00011999999999999999,-4e-05,5
18277,18929,-4e-05,-5.9999999999999995e-05,-4e-05,-0.00022,2.9999999999999997e-05,0.00014,-0.00011999999999999999,-4e-05,5
18278,18930,-4e-05,-5.9999999999999995e-05,-4e-05,-0.00022,2.9999999999999997e-05,0.00014,-0.00011999999999999999,-4e-05,5
18279,18931,-4e-05,-5.9999999999999995e-05,-4e-05,-0.00022,2.9999999999999997e-05,0.00014,-0.00011999999999999999,-4e-05,5
18280,18932,-2e-05,-8e-05,-0.00022999999999999998,-5e-05,-5.9999999999999995e-05,-0.00013000000000000002,-1e-05,2.9999999999999997e-05,5
18281,18933,-2e-05,-8e-05,-0.00022999999999999998,-5e-05,-5.9999999999999995e-05,-0.00013000000000000002,-1e-05,2.9999999999999997e-05,5
18282,18934,-2e-05,-8e-05,-0.00022999999999999998,-5e-05,-5.9999999999999995e-05,-0.00013000000000000002,-1e-05,2.9999999999999997e-05,5
18283,18935,-2e-05,-8e-05,-0.00022999999999999998,-5e-05,-5.9999999999999995e-05,-0.00013000000000000002,-1e-05,2.9999999999999997e-05,5
18284,18936,-2e-05,-8e-05,-0.00022999999999999998,-5e-05,-5.9999999999999995e-05,-0.00013000000000000002,-1e-05,2.9999999999999997e-05,5
18285,18938,-2e-05,-8e-05,-0.00022999999999999998,-5e-05,-5.9999999999999995e-05,-0.00013000000000000002,-1e-05,2.9999999999999997e-05,5
18286,18939,-2e-05,-8e-05,-0.00022999999999999998,-5e-05,-5.9999999999999995e-05,-0.00013000000000000002,-1e-05,2.9999999999999997e-05,5
18287,18940,-2e-05,-8e-05,-0.00022999999999999998,-5e-05,-5.9999999999999995e-05,-0.00013000000000000002,-1e-05,2.9999999999999997e-05,5
18288,18941,-2e-05,-8e-05,-0.00022999999999999998,-5e-05,-5.9999999999999995e-05,-0.00013000000000000002,-1e-05,2.9999999999999997e-05,5
18289,18942,-2e-05,-8e-05,-0.00022999999999999998,-5e-05,-5.9999999999999995e-05,-0.00013000000000000002,-1e-05,2.9999999999999997e-05,5
18290,18943,-2e-05,-8e-05,-0.00022999999999999998,-5e-05,-5.9999999999999995e-05,-0.00013000000000000002,-1e-05,2.9999999999999997e-05,5
18291,18944,-2e-05,-8e-05,-0.00022999999999999998,-5e-05,-5.9999999999999995e-05,-0.00013000000000000002,-1e-05,2.9999999999999997e-05,5
18292,18945,-2e-05,-8e-05,-0.00022999999999999998,-5e-05,-5.9999999999999995e-05,-0.00013000000000000002,-1e-05,2.9999999999999997e-05,5
18293,18946,-2e-05,-8e-05,-0.00022999999999999998,-5e-05,-5.9999999999999995e-05,-0.00013000000000000002,-1e-05,2.9999999999999997e-05,5
18294,18947,-2e-05,-0.00011999999999999999,-0.0001,2.9999999999999997e-05,0.00013000000000000002,-0.00015,-0.00014,-7e-05,5
18295,18948,-2e-05,-0.00011999999999999999,-0.0001,2.9999999999999997e-05,0.00013000000000000002,-0.00015,-0.00014,-7e-05,5
18296,18949,-2e-05,-0.00011999999999999999,-0.0001,2.9999999999999997e-05,0.00013000000000000002,-0.00015,-0.00014,-7e-05,5
18297,18950,-2e-05,-0.00011999999999999999,-0.0001,2.9999999999999997e-05,0.00013000000000000002,-0.00015,-0.00014,-7e-05,5
18298,18951,-2e-05,-0.00011999999999999999,-0.0001,2.9999999999999997e-05,0.00013000000000000002,-0.00015,-0.00014,-7e-05,5
18299,18952,-2e-05,-0.00011999999999999999,-0.0001,2.9999999999999997e-05,0.00013000000000000002,-0.00015,-0.00014,-7e-05,5
18300,18953,-2e-05,-0.00011999999999999999,-0.0001,2.9999999999999997e-05,0.00013000000000000002,-0.00015,-0.00014,-7e-05,5
18301,18954,-2e-05,-0.00011999999999999999,-0.0001,2.9999999999999997e-05,0.00013000000000000002,-0.00015,-0.00014,-7e-05,5
18302,18955,-2e-05,-0.00011999999999999999,-0.0001,2.9999999999999997e-05,0.00013000000000000002,-0.00015,-0.00014,-7e-05,5
18303,18956,-2e-05,-0.00011999999999999999,-0.0001,2.9999999999999997e-05,0.00013000000000000002,-0.00015,-0.00014,-7e-05,5
18304,18957,-2e-05,-0.00011999999999999999,-0.0001,2.9999999999999997e-05,0.00013000000000000002,-0.00015,-0.00014,-7e-05,5
18305,18958,-2e-05,-0.00011999999999999999,-0.0001,2.9999999999999997e-05,0.00013000000000000002,-0.00015,-0.00014,-7e-05,5
18306,18959,-2e-05,-0.00011999999999999999,-0.0001,2.9999999999999997e-05,0.00013000000000000002,-0.00015,-0.00014,-7e-05,5
18307,18960,-2e-05,-0.00011999999999999999,-0.0001,2.9999999999999997e-05,0.00013000000000000002,-0.00015,-0.00014,-7e-05,5
18308,18961,-2e-05,-0.00011999999999999999,-0.0001,2.9999999999999997e-05,0.00013000000000000002,-0.00015,-0.00014,-7e-05,5
18309,18962,-2e-05,-0.00011999999999999999,-0.0001,2.9999999999999997e-05,0.00013000000000000002,-0.00015,-0.00014,-7e-05,5
18310,18963,-2e-05,-0.00011999999999999999,-0.0001,2.9999999999999997e-05,0.00013000000000000002,-0.00015,-0.00014,-7e-05,5
18311,18964,-2e-05,-0.00011999999999999999,-0.0001,2.9999999999999997e-05,0.00013000000000000002,-0.00015,-0.00014,-7e-05,5
18312,18965,-2e-05,-0.00011999999999999999,-0.0001,2.9999999999999997e-05,0.00013000000000000002,-0.00015,-0.00014,-7e-05,5
18313,18966,-2e-05,-0.00011999999999999999,-0.0001,2.9999999999999997e-05,0.00013000000000000002,-0.00015,-0.00014,-7e-05,5
18314,18967,-2e-05,-0.00011999999999999999,-0.0001,2.9999999999999997e-05,0.00013000000000000002,-0.00015,-0.00014,-7e-05,5
18315,18968,-2e-05,-0.00011999999999999999,-0.0001,2.9999999999999997e-05,0.00013000000000000002,-0.00015,-0.00014,-7e-05,5
18316,18969,-2e-05,-0.00011999999999999999,-0.0001,2.9999999999999997e-05,0.00013000000000000002,-0.00015,-0.00014,-7e-05,5
18317,18970,-2e-05,-0.00011999999999999999,-0.0001,2.9999999999999997e-05,0.00013000000000000002,-0.00015,-0.00014,-7e-05,5
18318,18971,-2e-05,-0.00011999999999999999,-0.0001,2.9999999999999997e-05,0.00013000000000000002,-0.00015,-0.00014,-7e-05,5
18319,18972,-2e-05,-0.00011999999999999999,-0.0001,2.9999999999999997e-05,0.00013000000000000002,-0.00015,-0.00014,-7e-05,5
18320,18973,-2e-05,-0.00011999999999999999,-0.0001,2.9999999999999997e-05,0.00013000000000000002,-0.00015,-0.00014,-7e-05,5
18321,18974,-2e-05,-0.00011999999999999999,-0.0001,2.9999999999999997e-05,0.00013000000000000002,-0.00015,-0.00014,-7e-05,5
18322,18975,-2e-05,-0.00011999999999999999,-0.0001,2.9999999999999997e-05,0.00013000000000000002,-0.00015,-0.00014,-7e-05,5
18323,18976,-2e-05,-0.00011999999999999999,-0.0001,2.9999999999999997e-05,0.00013000000000000002,-0.00015,-0.00014,-7e-05,5
18324,18977,-2e-05,-0.00011999999999999999,-0.0001,2.9999999999999997e-05,0.00013000000000000002,-0.00015,-0.00014,-7e-05,5
18325,18978,-5.9999999999999995e-05,-0.00011999999999999999,-0.00027,-0.00015,-0.00025,-0.0001,-5e-05,-1e-05,5
18326,18979,7e-05,8e-05,5.9999999999999995e-05,-8e-05,-4e-05,-2.9999999999999997e-05,0.0,0.00013000000000000002,5
18327,18980,7e-05,8e-05,5.9999999999999995e-05,-8e-05,-4e-05,-2.9999999999999997e-05,0.0,0.00013000000000000002,5
18328,18981,7e-05,8e-05,5.9999999999999995e-05,-8e-05,-4e-05,-2.9999999999999997e-05,0.0,0.00013000000000000002,5
18329,18982,7e-05,8e-05,5.9999999999999995e-05,-8e-05,-4e-05,-2.9999999999999997e-05,0.0,0.00013000000000000002,5
18330,18983,7e-05,8e-05,5.9999999999999995e-05,-8e-05,-4e-05,-2.9999999999999997e-05,0.0,0.00013000000000000002,5
18331,18984,7e-05,8e-05,5.9999999999999995e-05,-8e-05,-4e-05,-2.9999999999999997e-05,0.0,0.00013000000000000002,5
18332,18985,7e-05,8e-05,5.9999999999999995e-05,-8e-05,-4e-05,-2.9999999999999997e-05,0.0,0.00013000000000000002,5
18333,18986,7e-05,8e-05,5.9999999999999995e-05,-8e-05,-4e-05,-2.9999999999999997e-05,0.0,0.00013000000000000002,5
18334,18988,7e-05,8e-05,5.9999999999999995e-05,-8e-05,-4e-05,-2.9999999999999997e-05,0.0,0.00013000000000000002,5
18335,18989,7e-05,8e-05,5.9999999999999995e-05,-8e-05,-4e-05,-2.9999999999999997e-05,0.0,0.00013000000000000002,5
18336,18990,7e-05,8e-05,5.9999999999999995e-05,-8e-05,-4e-05,-2.9999999999999997e-05,0.0,0.00013000000000000002,5
18337,18991,7e-05,8e-05,5.9999999999999995e-05,-8e-05,-4e-05,-2.9999999999999997e-05,0.0,0.00013000000000000002,5
18338,18992,-2e-05,1e-05,4e-05,0.00014,-5e-05,-0.00023999999999999998,-2.9999999999999997e-05,1e-05,5
18339,18993,4e-05,0.00015,0.00028,-0.0003,1e-05,0.00028,5.9999999999999995e-05,0.0,5
18340,18994,4e-05,0.00015,0.00028,-0.0003,1e-05,0.00028,5.9999999999999995e-05,0.0,5
18341,18995,4e-05,0.00015,0.00028,-0.0003,1e-05,0.00028,5.9999999999999995e-05,0.0,5
18342,18996,4e-05,0.00015,0.00028,-0.0003,1e-05,0.00028,5.9999999999999995e-05,0.0,5
18343,18997,4e-05,0.00015,0.00028,-0.0003,1e-05,0.00028,5.9999999999999995e-05,0.0,5
18344,18998,4e-05,0.00015,0.00028,-0.0003,1e-05,0.00028,5.9999999999999995e-05,0.0,5
18345,18999,4e-05,0.00015,0.00028,-0.0003,1e-05,0.00028,5.9999999999999995e-05,0.0,5
18346,19000,4e-05,0.00015,0.00028,-0.0003,1e-05,0.00028,5.9999999999999995e-05,0.0,5
18347,19001,4e-05,0.00015,0.00028,-0.0003,1e-05,0.00028,5.9999999999999995e-05,0.0,5
18348,19002,4e-05,0.00015,0.00028,-0.0003,1e-05,0.00028,5.9999999999999995e-05,0.0,5
18349,19003,4e-05,0.00015,0.00028,-0.0003,1e-05,0.00028,5.9999999999999995e-05,0.0,5
18350,19004,4e-05,0.00015,0.00028,-0.0003,1e-05,0.00028,5.9999999999999995e-05,0.0,5
18351,19005,4e-05,0.00015,0.00028,-0.0003,1e-05,0.00028,5.9999999999999995e-05,0.0,5
18352,19006,4e-05,0.00015,0.00028,-0.0003,1e-05,0.00028,5.9999999999999995e-05,0.0,5
18353,19007,1e-05,5.9999999999999995e-05,1e-05,-0.00023999999999999998,-0.00022999999999999998,2.9999999999999997e-05,7e-05,-2e-05,5
18354,19008,4e-05,0.00014,0.00014,0.00049,0.00011999999999999999,-8e-05,1e-05,2e-05,5
18355,19009,4e-05,0.00014,0.00014,0.00049,0.00011999999999999999,-8e-05,1e-05,2e-05,5
18356,19010,4e-05,0.00014,0.00014,0.00049,0.00011999999999999999,-8e-05,1e-05,2e-05,5
18357,19011,4e-05,0.00014,0.00014,0.00049,0.00011999999999999999,-8e-05,1e-05,2e-05,5
18358,19012,4e-05,0.00014,0.00014,0.00049,0.00011999999999999999,-8e-05,1e-05,2e-05,5
18359,19013,4e-05,0.00014,0.00014,0.00049,0.00011999999999999999,-8e-05,1e-05,2e-05,5
18360,19014,4e-05,0.00014,0.00014,0.00049,0.00011999999999999999,-8e-05,1e-05,2e-05,5
18361,19015,4e-05,0.00014,0.00014,0.00049,0.00011999999999999999,-8e-05,1e-05,2e-05,5
18362,19016,4e-05,0.00014,0.00014,0.00049,0.00011999999999999999,-8e-05,1e-05,2e-05,5
18363,19017,4e-05,0.00014,0.00014,0.00049,0.00011999999999999999,-8e-05,1e-05,2e-05,5
18364,19018,4e-05,0.00014,0.00014,0.00049,0.00011999999999999999,-8e-05,1e-05,2e-05,5
18365,19019,4e-05,0.00014,0.00014,0.00049,0.00011999999999999999,-8e-05,1e-05,2e-05,5
18366,19020,4e-05,0.00014,0.00014,0.00049,0.00011999999999999999,-8e-05,1e-05,2e-05,5
18367,19021,4e-05,0.00014,0.00014,0.00049,0.00011999999999999999,-8e-05,1e-05,2e-05,5
18368,19022,4e-05,0.00014,0.00014,0.00049,0.00011999999999999999,-8e-05,1e-05,2e-05,5
18369,19023,4e-05,0.00014,0.00014,0.00049,0.00011999999999999999,-8e-05,1e-05,2e-05,5
18370,19024,4e-05,0.00014,0.00014,0.00049,0.00011999999999999999,-8e-05,1e-05,2e-05,5
18371,19025,4e-05,0.00014,0.00014,0.00049,0.00011999999999999999,-8e-05,1e-05,2e-05,5
18372,19026,4e-05,0.00014,0.00014,0.00049,0.00011999999999999999,-8e-05,1e-05,2e-05,5
18373,19027,4e-05,0.00014,0.00014,0.00049,0.00011999999999999999,-8e-05,1e-05,2e-05,5
18374,19028,4e-05,0.00014,0.00014,0.00049,0.00011999999999999999,-8e-05,1e-05,2e-05,5
18375,19029,4e-05,0.00014,0.00014,0.00049,0.00011999999999999999,-8e-05,1e-05,2e-05,5
18376,19030,2e-05,-4e-05,0.0001,0.00033,0.00011,-5.9999999999999995e-05,0.0,-2.9999999999999997e-05,5
18377,19031,-2.9999999999999997e-05,4e-05,9e-05,5.9999999999999995e-05,4e-05,-5.9999999999999995e-05,-7e-05,0.0,5
18378,19032,-2.9999999999999997e-05,4e-05,9e-05,5.9999999999999995e-05,4e-05,-5.9999999999999995e-05,-7e-05,0.0,5
18379,19033,-2.9999999999999997e-05,4e-05,9e-05,5.9999999999999995e-05,4e-05,-5.9999999999999995e-05,-7e-05,0.0,5
18380,19034,-2.9999999999999997e-05,4e-05,9e-05,5.9999999999999995e-05,4e-05,-5.9999999999999995e-05,-7e-05,0.0,5
18381,19035,-2.9999999999999997e-05,4e-05,9e-05,5.9999999999999995e-05,4e-05,-5.9999999999999995e-05,-7e-05,0.0,5
18382,19036,-2.9999999999999997e-05,4e-05,9e-05,5.9999999999999995e-05,4e-05,-5.9999999999999995e-05,-7e-05,0.0,5
18383,19038,-2.9999999999999997e-05,4e-05,9e-05,5.9999999999999995e-05,4e-05,-5.9999999999999995e-05,-7e-05,0.0,5
18384,19039,-2.9999999999999997e-05,4e-05,9e-05,5.9999999999999995e-05,4e-05,-5.9999999999999995e-05,-7e-05,0.0,5
18385,19040,-2.9999999999999997e-05,4e-05,9e-05,5.9999999999999995e-05,4e-05,-5.9999999999999995e-05,-7e-05,0.0,5
18386,19041,-2.9999999999999997e-05,4e-05,9e-05,5.9999999999999995e-05,4e-05,-5.9999999999999995e-05,-7e-05,0.0,5
18387,19042,-2.9999999999999997e-05,4e-05,9e-05,5.9999999999999995e-05,4e-05,-5.9999999999999995e-05,-7e-05,0.0,5
18388,19043,-2.9999999999999997e-05,4e-05,9e-05,5.9999999999999995e-05,4e-05,-5.9999999999999995e-05,-7e-05,0.0,5
18389,19044,-2.9999999999999997e-05,4e-05,9e-05,5.9999999999999995e-05,4e-05,-5.9999999999999995e-05,-7e-05,0.0,5
18390,19045,-2.9999999999999997e-05,4e-05,9e-05,5.9999999999999995e-05,4e-05,-5.9999999999999995e-05,-7e-05,0.0,5
18391,19046,-2.9999999999999997e-05,4e-05,9e-05,5.9999999999999995e-05,4e-05,-5.9999999999999995e-05,-7e-05,0.0,5
18392,19047,-2.9999999999999997e-05,4e-05,9e-05,5.9999999999999995e-05,4e-05,-5.9999999999999995e-05,-7e-05,0.0,5
18393,19048,-2.9999999999999997e-05,4e-05,9e-05,5.9999999999999995e-05,4e-05,-5.9999999999999995e-05,-7e-05,0.0,5
18394,19049,-2.9999999999999997e-05,4e-05,9e-05,5.9999999999999995e-05,4e-05,-5.9999999999999995e-05,-7e-05,0.0,5
18395,19050,-2.9999999999999997e-05,4e-05,9e-05,5.9999999999999995e-05,4e-05,-5.9999999999999995e-05,-7e-05,0.0,5
18396,19051,-2.9999999999999997e-05,4e-05,9e-05,5.9999999999999995e-05,4e-05,-5.9999999999999995e-05,-7e-05,0.0,5
18397,19052,-2e-05,-7e-05,-0.00016999999999999999,-0.00035,-0.00022,-4e-05,0.00018,-1e-05,5
18398,19053,-9e-05,-0.00016,-2.9999999999999997e-05,0.00033999999999999997,0.00032,0.00026000000000000003,9e-05,-0.00011999999999999999,5
18399,19054,-9e-05,-0.00016,-2.9999999999999997e-05,0.00033999999999999997,0.00032,0.00026000000000000003,9e-05,-0.00011999999999999999,5
18400,19055,-9e-05,-0.00016,-2.9999999999999997e-05,0.00033999999999999997,0.00032,0.00026000000000000003,9e-05,-0.00011999999999999999,5
18401,19056,-9e-05,-0.00016,-2.9999999999999997e-05,0.00033999999999999997,0.00032,0.00026000000000000003,9e-05,-0.00011999999999999999,5
18402,19057,-9e-05,-0.00016,-2.9999999999999997e-05,0.00033999999999999997,0.00032,0.00026000000000000003,9e-05,-0.00011999999999999999,5
18403,19058,-9e-05,-0.00016,-2.9999999999999997e-05,0.00033999999999999997,0.00032,0.00026000000000000003,9e-05,-0.00011999999999999999,5
18404,19059,-9e-05,-0.00016,-2.9999999999999997e-05,0.00033999999999999997,0.00032,0.00026000000000000003,9e-05,-0.00011999999999999999,5
18405,19060,-9e-05,-0.00016,-2.9999999999999997e-05,0.00033999999999999997,0.00032,0.00026000000000000003,9e-05,-0.00011999999999999999,5
18406,19061,-9e-05,-0.00016,-2.9999999999999997e-05,0.00033999999999999997,0.00032,0.00026000000000000003,9e-05,-0.00011999999999999999,5
18407,19062,-9e-05,-0.00016,-2.9999999999999997e-05,0.00033999999999999997,0.00032,0.00026000000000000003,9e-05,-0.00011999999999999999,5
18408,19063,-9e-05,-0.00016,-2.9999999999999997e-05,0.00033999999999999997,0.00032,0.00026000000000000003,9e-05,-0.00011999999999999999,5
18409,19064,-9e-05,-0.00016,-2.9999999999999997e-05,0.00033999999999999997,0.00032,0.00026000000000000003,9e-05,-0.00011999999999999999,5
18410,19065,-9e-05,-0.00016,-2.9999999999999997e-05,0.00033999999999999997,0.00032,0.00026000000000000003,9e-05,-0.00011999999999999999,5
18411,19066,-9e-05,-0.00016,-2.9999999999999997e-05,0.00033999999999999997,0.00032,0.00026000000000000003,9e-05,-0.00011999999999999999,5
18412,19067,-9e-05,-0.00016,-2.9999999999999997e-05,0.00033999999999999997,0.00032,0.00026000000000000003,9e-05,-0.00011999999999999999,5
18413,19068,-4e-05,-1e-05,0.0001,0.00016,0.00016999999999999999,-0.00013000000000000002,-0.0001,-5.9999999999999995e-05,5
18414,19069,-4e-05,-1e-05,0.0001,0.00016,0.00016999999999999999,-0.00013000000000000002,-0.0001,-5.9999999999999995e-05,5
18415,19070,-4e-05,-1e-05,0.0001,0.00016,0.00016999999999999999,-0.00013000000000000002,-0.0001,-5.9999999999999995e-05,5
18416,19071,-4e-05,-1e-05,0.0001,0.00016,0.00016999999999999999,-0.00013000000000000002,-0.0001,-5.9999999999999995e-05,5
18417,19072,-4e-05,-1e-05,0.0001,0.00016,0.00016999999999999999,-0.00013000000000000002,-0.0001,-5.9999999999999995e-05,5
18418,19073,-4e-05,-1e-05,0.0001,0.00016,0.00016999999999999999,-0.00013000000000000002,-0.0001,-5.9999999999999995e-05,5
18419,19074,-4e-05,-1e-05,0.0001,0.00016,0.00016999999999999999,-0.00013000000000000002,-0.0001,-5.9999999999999995e-05,5
18420,19075,4e-05,-0.00011,-0.00028,-0.00029,-0.0002,-5e-05,0.0,-2e-05,5
18421,19076,4e-05,-0.00011,-0.00028,-0.00029,-0.0002,-5e-05,0.0,-2e-05,5
18422,19077,4e-05,-0.00011,-0.00028,-0.00029,-0.0002,-5e-05,0.0,-2e-05,5
18423,19078,4e-05,-0.00011,-0.00028,-0.00029,-0.0002,-5e-05,0.0,-2e-05,5
18424,19079,4e-05,-0.00011,-0.00028,-0.00029,-0.0002,-5e-05,0.0,-2e-05,5
18425,19080,4e-05,-0.00011,-0.00028,-0.00029,-0.0002,-5e-05,0.0,-2e-05,5
18426,19081,4e-05,-0.00011,-0.00028,-0.00029,-0.0002,-5e-05,0.0,-2e-05,5
18427,19082,4e-05,-0.00011,-0.00028,-0.00029,-0.0002,-5e-05,0.0,-2e-05,5
18428,19083,4e-05,-0.00011,-0.00028,-0.00029,-0.0002,-5e-05,0.0,-2e-05,5
18429,19084,4e-05,-0.00011,-0.00028,-0.00029,-0.0002,-5e-05,0.0,-2e-05,5
18430,19085,4e-05,-0.00011,-0.00028,-0.00029,-0.0002,-5e-05,0.0,-2e-05,5
18431,19086,4e-05,-0.00011,-0.00028,-0.00029,-0.0002,-5e-05,0.0,-2e-05,5
18432,19088,4e-05,-0.00011,-0.00028,-0.00029,-0.0002,-5e-05,0.0,-2e-05,5
18433,19089,4e-05,-0.00011,-0.00028,-0.00029,-0.0002,-5e-05,0.0,-2e-05,5
18434,19090,-2.9999999999999997e-05,5e-05,5e-05,0.00013000000000000002,0.00036,9e-05,1e-05,-1e-05,5
18435,19091,-7e-05,9e-05,4e-05,0.00031,-0.0001,-0.0001,-8e-05,-5.9999999999999995e-05,5
18436,19092,-7e-05,9e-05,4e-05,0.00031,-0.0001,-0.0001,-8e-05,-5.9999999999999995e-05,5
18437,19093,-7e-05,9e-05,4e-05,0.00031,-0.0001,-0.0001,-8e-05,-5.9999999999999995e-05,5
18438,19094,-7e-05,9e-05,4e-05,0.00031,-0.0001,-0.0001,-8e-05,-5.9999999999999995e-05,5
18439,19095,-7e-05,9e-05,4e-05,0.00031,-0.0001,-0.0001,-8e-05,-5.9999999999999995e-05,5
18440,19096,-7e-05,9e-05,4e-05,0.00031,-0.0001,-0.0001,-8e-05,-5.9999999999999995e-05,5
18441,19097,-7e-05,9e-05,4e-05,0.00031,-0.0001,-0.0001,-8e-05,-5.9999999999999995e-05,5
18442,19098,-7e-05,9e-05,4e-05,0.00031,-0.0001,-0.0001,-8e-05,-5.9999999999999995e-05,5
18443,19099,-7e-05,9e-05,4e-05,0.00031,-0.0001,-0.0001,-8e-05,-5.9999999999999995e-05,5
18444,19100,-7e-05,9e-05,4e-05,0.00031,-0.0001,-0.0001,-8e-05,-5.9999999999999995e-05,5
18445,19101,-7e-05,9e-05,4e-05,0.00031,-0.0001,-0.0001,-8e-05,-5.9999999999999995e-05,5
18446,19102,-7e-05,9e-05,4e-05,0.00031,-0.0001,-0.0001,-8e-05,-5.9999999999999995e-05,5
18447,19103,-7e-05,9e-05,4e-05,0.00031,-0.0001,-0.0001,-8e-05,-5.9999999999999995e-05,5
18448,19104,-7e-05,9e-05,4e-05,0.00031,-0.0001,-0.0001,-8e-05,-5.9999999999999995e-05,5
18449,19105,-7e-05,9e-05,4e-05,0.00031,-0.0001,-0.0001,-8e-05,-5.9999999999999995e-05,5
18450,19106,-7e-05,9e-05,4e-05,0.00031,-0.0001,-0.0001,-8e-05,-5.9999999999999995e-05,5
18451,19107,-7e-05,9e-05,4e-05,0.00031,-0.0001,-0.0001,-8e-05,-5.9999999999999995e-05,5
18452,19108,-7e-05,9e-05,4e-05,0.00031,-0.0001,-0.0001,-8e-05,-5.9999999999999995e-05,5
18453,19109,-7e-05,9e-05,4e-05,0.00031,-0.0001,-0.0001,-8e-05,-5.9999999999999995e-05,5
18454,19110,-7e-05,9e-05,4e-05,0.00031,-0.0001,-0.0001,-8e-05,-5.9999999999999995e-05,5
18455,19111,-7e-05,9e-05,4e-05,0.00031,-0.0001,-0.0001,-8e-05,-5.9999999999999995e-05,5
18456,19112,-7e-05,9e-05,4e-05,0.00031,-0.0001,-0.0001,-8e-05,-5.9999999999999995e-05,5
18457,19113,-9e-05,-0.00016,-0.00033,-2e-05,-0.00018,-0.0002,0.0,-0.0001,5
18458,19114,5.9999999999999995e-05,5.9999999999999995e-05,0.00013000000000000002,0.00015,0.00014,0.0001,1e-05,1e-05,5
18459,19115,5.9999999999999995e-05,5.9999999999999995e-05,0.00013000000000000002,0.00015,0.00014,0.0001,1e-05,1e-05,5
18460,19116,5.9999999999999995e-05,5.9999999999999995e-05,0.00013000000000000002,0.00015,0.00014,0.0001,1e-05,1e-05,5
18461,19117,5.9999999999999995e-05,5.9999999999999995e-05,0.00013000000000000002,0.00015,0.00014,0.0001,1e-05,1e-05,5
18462,19118,5.9999999999999995e-05,5.9999999999999995e-05,0.00013000000000000002,0.00015,0.00014,0.0001,1e-05,1e-05,5
18463,19119,5.9999999999999995e-05,5.9999999999999995e-05,0.00013000000000000002,0.00015,0.00014,0.0001,1e-05,1e-05,5
18464,19120,5.9999999999999995e-05,5.9999999999999995e-05,0.00013000000000000002,0.00015,0.00014,0.0001,1e-05,1e-05,5
18465,19121,5.9999999999999995e-05,5.9999999999999995e-05,0.00013000000000000002,0.00015,0.00014,0.0001,1e-05,1e-05,5
18466,19122,5.9999999999999995e-05,5.9999999999999995e-05,0.00013000000000000002,0.00015,0.00014,0.0001,1e-05,1e-05,5
18467,19123,5.9999999999999995e-05,5.9999999999999995e-05,0.00013000000000000002,0.00015,0.00014,0.0001,1e-05,1e-05,5
18468,19124,5.9999999999999995e-05,5.9999999999999995e-05,0.00013000000000000002,0.00015,0.00014,0.0001,1e-05,1e-05,5
18469,19125,5.9999999999999995e-05,5.9999999999999995e-05,0.00013000000000000002,0.00015,0.00014,0.0001,1e-05,1e-05,5
18470,19126,5.9999999999999995e-05,0.00013000000000000002,0.00018,0.00016,0.00021,0.00015,2e-05,0.0,5
18471,19127,-0.00013000000000000002,-0.00016,-0.00016,-0.00011999999999999999,-5e-05,-0.00018999999999999998,2.9999999999999997e-05,-1e-05,5
18472,19128,-0.00013000000000000002,-0.00016,-0.00016,-0.00011999999999999999,-5e-05,-0.00018999999999999998,2.9999999999999997e-05,-1e-05,5
18473,19129,-0.00013000000000000002,-0.00016,-0.00016,-0.00011999999999999999,-5e-05,-0.00018999999999999998,2.9999999999999997e-05,-1e-05,5
18474,19130,-0.00013000000000000002,-0.00016,-0.00016,-0.00011999999999999999,-5e-05,-0.00018999999999999998,2.9999999999999997e-05,-1e-05,5
18475,19131,-0.00013000000000000002,-0.00016,-0.00016,-0.00011999999999999999,-5e-05,-0.00018999999999999998,2.9999999999999997e-05,-1e-05,5
18476,19132,-0.00013000000000000002,-0.00016,-0.00016,-0.00011999999999999999,-5e-05,-0.00018999999999999998,2.9999999999999997e-05,-1e-05,5
18477,19133,-0.00013000000000000002,-0.00016,-0.00016,-0.00011999999999999999,-5e-05,-0.00018999999999999998,2.9999999999999997e-05,-1e-05,5
18478,19134,-0.00013000000000000002,-0.00016,-0.00016,-0.00011999999999999999,-5e-05,-0.00018999999999999998,2.9999999999999997e-05,-1e-05,5
18479,19135,-0.00013000000000000002,-0.00016,-0.00016,-0.00011999999999999999,-5e-05,-0.00018999999999999998,2.9999999999999997e-05,-1e-05,5
18480,19136,-0.00013000000000000002,-0.00016,-0.00016,-0.00011999999999999999,-5e-05,-0.00018999999999999998,2.9999999999999997e-05,-1e-05,5
18481,19138,-0.00013000000000000002,-0.00016,-0.00016,-0.00011999999999999999,-5e-05,-0.00018999999999999998,2.9999999999999997e-05,-1e-05,5
18482,19139,-0.00013000000000000002,-0.00016,-0.00016,-0.00011999999999999999,-5e-05,-0.00018999999999999998,2.9999999999999997e-05,-1e-05,5
18483,19140,-0.00013000000000000002,-0.00016,-0.00016,-0.00011999999999999999,-5e-05,-0.00018999999999999998,2.9999999999999997e-05,-1e-05,5
18484,19141,-0.00013000000000000002,-0.00016,-0.00016,-0.00011999999999999999,-5e-05,-0.00018999999999999998,2.9999999999999997e-05,-1e-05,5
18485,19142,-0.00013000000000000002,-0.00016,-0.00016,-0.00011999999999999999,-5e-05,-0.00018999999999999998,2.9999999999999997e-05,-1e-05,5
18486,19143,-0.00013000000000000002,-0.00016,-0.00016,-0.00011999999999999999,-5e-05,-0.00018999999999999998,2.9999999999999997e-05,-1e-05,5
18487,19144,-0.00013000000000000002,-0.00016,-0.00016,-0.00011999999999999999,-5e-05,-0.00018999999999999998,2.9999999999999997e-05,-1e-05,5
18488,19145,-0.00013000000000000002,-0.00016,-0.00016,-0.00011999999999999999,-5e-05,-0.00018999999999999998,2.9999999999999997e-05,-1e-05,5
18489,19146,-0.00013000000000000002,-0.00016,-0.00016,-0.00011999999999999999,-5e-05,-0.00018999999999999998,2.9999999999999997e-05,-1e-05,5
18490,19147,-0.00013000000000000002,-0.00016,-0.00016,-0.00011999999999999999,-5e-05,-0.00018999999999999998,2.9999999999999997e-05,-1e-05,5
18491,19148,-0.00013000000000000002,-0.00016,-0.00016,-0.00011999999999999999,-5e-05,-0.00018999999999999998,2.9999999999999997e-05,-1e-05,5
18492,19149,-0.00013000000000000002,-0.00016,-0.00016,-0.00011999999999999999,-5e-05,-0.00018999999999999998,2.9999999999999997e-05,-1e-05,5
18493,19150,-2.9999999999999997e-05,9e-05,-5e-05,-9e-05,-8e-05,5.9999999999999995e-05,-1e-05,-2.9999999999999997e-05,5
18494,19151,-4e-05,-0.00022,-0.00045,-0.00043,-0.00047999999999999996,0.0,1e-05,1e-05,5
18495,19152,-4e-05,-0.00022,-0.00045,-0.00043,-0.00047999999999999996,0.0,1e-05,1e-05,5
18496,19153,-4e-05,-0.00022,-0.00045,-0.00043,-0.00047999999999999996,0.0,1e-05,1e-05,5
18497,19154,-4e-05,-0.00022,-0.00045,-0.00043,-0.00047999999999999996,0.0,1e-05,1e-05,5
18498,19155,-4e-05,-0.00022,-0.00045,-0.00043,-0.00047999999999999996,0.0,1e-05,1e-05,5
18499,19156,-4e-05,-0.00022,-0.00045,-0.00043,-0.00047999999999999996,0.0,1e-05,1e-05,5
18500,19157,-4e-05,-0.00022,-0.00045,-0.00043,-0.00047999999999999996,0.0,1e-05,1e-05,5
18501,19158,-4e-05,-0.00022,-0.00045,-0.00043,-0.00047999999999999996,0.0,1e-05,1e-05,5
18502,19159,-4e-05,-0.00022,-0.00045,-0.00043,-0.00047999999999999996,0.0,1e-05,1e-05,5
18503,19160,-4e-05,-0.00022,-0.00045,-0.00043,-0.00047999999999999996,0.0,1e-05,1e-05,5
18504,19161,-4e-05,-0.00022,-0.00045,-0.00043,-0.00047999999999999996,0.0,1e-05,1e-05,5
18505,19162,-4e-05,-0.00022,-0.00045,-0.00043,-0.00047999999999999996,0.0,1e-05,1e-05,5
18506,19163,-4e-05,-0.00022,-0.00045,-0.00043,-0.00047999999999999996,0.0,1e-05,1e-05,5
18507,19164,-4e-05,-0.00022,-0.00045,-0.00043,-0.00047999999999999996,0.0,1e-05,1e-05,5
18508,19165,-4e-05,-0.00022,-0.00045,-0.00043,-0.00047999999999999996,0.0,1e-05,1e-05,5
18509,19166,-4e-05,-0.00022,-0.00045,-0.00043,-0.00047999999999999996,0.0,1e-05,1e-05,5
18510,19167,-4e-05,-0.00022,-0.00045,-0.00043,-0.00047999999999999996,0.0,1e-05,1e-05,5
18511,19168,-4e-05,-0.00022,-0.00045,-0.00043,-0.00047999999999999996,0.0,1e-05,1e-05,5
18512,19169,-4e-05,-0.00022,-0.00045,-0.00043,-0.00047999999999999996,0.0,1e-05,1e-05,5
18513,19170,-4e-05,-0.00022,-0.00045,-0.00043,-0.00047999999999999996,0.0,1e-05,1e-05,5
18514,19171,-4e-05,-0.00022,-0.00045,-0.00043,-0.00047999999999999996,0.0,1e-05,1e-05,5
18515,19172,-0.00011,2e-05,1e-05,0.00011,-1e-05,-2e-05,-7e-05,-0.00013000000000000002,5
18516,19173,-2e-05,-1e-05,0.0,4e-05,5.9999999999999995e-05,1e-05,-4e-05,-5.9999999999999995e-05,5
18517,19174,-2e-05,-1e-05,0.0,4e-05,5.9999999999999995e-05,1e-05,-4e-05,-5.9999999999999995e-05,5
18518,19175,-2e-05,-1e-05,0.0,4e-05,5.9999999999999995e-05,1e-05,-4e-05,-5.9999999999999995e-05,5
18519,19176,-2e-05,-1e-05,0.0,4e-05,5.9999999999999995e-05,1e-05,-4e-05,-5.9999999999999995e-05,5
18520,19177,-2e-05,-1e-05,0.0,4e-05,5.9999999999999995e-05,1e-05,-4e-05,-5.9999999999999995e-05,5
18521,19178,-2e-05,-1e-05,0.0,4e-05,5.9999999999999995e-05,1e-05,-4e-05,-5.9999999999999995e-05,5
18522,19179,-2e-05,-1e-05,0.0,4e-05,5.9999999999999995e-05,1e-05,-4e-05,-5.9999999999999995e-05,5
18523,19180,-2e-05,-1e-05,0.0,4e-05,5.9999999999999995e-05,1e-05,-4e-05,-5.9999999999999995e-05,5
18524,19181,-2e-05,-1e-05,0.0,4e-05,5.9999999999999995e-05,1e-05,-4e-05,-5.9999999999999995e-05,5
18525,19182,-2e-05,-1e-05,0.0,4e-05,5.9999999999999995e-05,1e-05,-4e-05,-5.9999999999999995e-05,5
18526,19183,-2e-05,-1e-05,0.0,4e-05,5.9999999999999995e-05,1e-05,-4e-05,-5.9999999999999995e-05,5
18527,19184,-2e-05,-1e-05,0.0,4e-05,5.9999999999999995e-05,1e-05,-4e-05,-5.9999999999999995e-05,5
18528,19185,-2e-05,-1e-05,0.0,4e-05,5.9999999999999995e-05,1e-05,-4e-05,-5.9999999999999995e-05,5
18529,19186,-2e-05,-1e-05,0.0,4e-05,5.9999999999999995e-05,1e-05,-4e-05,-5.9999999999999995e-05,5
18530,19188,2e-05,-4e-05,1e-05,0.0,-0.00018999999999999998,0.0,-2.9999999999999997e-05,2e-05,5
18531,19189,2e-05,-4e-05,1e-05,0.0,-0.00018999999999999998,0.0,-2.9999999999999997e-05,2e-05,5
18532,19190,2e-05,-4e-05,1e-05,0.0,-0.00018999999999999998,0.0,-2.9999999999999997e-05,2e-05,5
18533,19191,2e-05,-4e-05,1e-05,0.0,-0.00018999999999999998,0.0,-2.9999999999999997e-05,2e-05,5
18534,19192,2e-05,-4e-05,1e-05,0.0,-0.00018999999999999998,0.0,-2.9999999999999997e-05,2e-05,5
18535,19193,2e-05,-4e-05,1e-05,0.0,-0.00018999999999999998,0.0,-2.9999999999999997e-05,2e-05,5
18536,19194,2e-05,-4e-05,1e-05,0.0,-0.00018999999999999998,0.0,-2.9999999999999997e-05,2e-05,5
18537,19195,0.00011,-1e-05,0.00021,0.00066,0.0002,4e-05,-5.9999999999999995e-05,5.9999999999999995e-05,5
18538,19196,0.00011,-1e-05,0.00021,0.00066,0.0002,4e-05,-5.9999999999999995e-05,5.9999999999999995e-05,5
18539,19197,0.00011,-1e-05,0.00021,0.00066,0.0002,4e-05,-5.9999999999999995e-05,5.9999999999999995e-05,5
18540,19198,0.00011,-1e-05,0.00021,0.00066,0.0002,4e-05,-5.9999999999999995e-05,5.9999999999999995e-05,5
18541,19199,0.00011,-1e-05,0.00021,0.00066,0.0002,4e-05,-5.9999999999999995e-05,5.9999999999999995e-05,5
18542,19200,0.00011,-1e-05,0.00021,0.00066,0.0002,4e-05,-5.9999999999999995e-05,5.9999999999999995e-05,5
18543,19201,0.00011,-1e-05,0.00021,0.00066,0.0002,4e-05,-5.9999999999999995e-05,5.9999999999999995e-05,5
18544,19202,0.00011,-1e-05,0.00021,0.00066,0.0002,4e-05,-5.9999999999999995e-05,5.9999999999999995e-05,5
18545,19203,0.00011,-1e-05,0.00021,0.00066,0.0002,4e-05,-5.9999999999999995e-05,5.9999999999999995e-05,5
18546,19204,0.00011,-1e-05,0.00021,0.00066,0.0002,4e-05,-5.9999999999999995e-05,5.9999999999999995e-05,5
18547,19205,0.00011,-1e-05,0.00021,0.00066,0.0002,4e-05,-5.9999999999999995e-05,5.9999999999999995e-05,5
18548,19206,0.00011,-1e-05,0.00021,0.00066,0.0002,4e-05,-5.9999999999999995e-05,5.9999999999999995e-05,5
18549,19207,0.00011,-1e-05,0.00021,0.00066,0.0002,4e-05,-5.9999999999999995e-05,5.9999999999999995e-05,5
18550,19208,0.00011,-1e-05,0.00021,0.00066,0.0002,4e-05,-5.9999999999999995e-05,5.9999999999999995e-05,5
18551,19209,0.00011,-1e-05,0.00021,0.00066,0.0002,4e-05,-5.9999999999999995e-05,5.9999999999999995e-05,5
18552,19210,-5e-05,-2.9999999999999997e-05,-7e-05,-0.0002,-2e-05,0.00021,0.00021,-2e-05,5
18553,19211,2.9999999999999997e-05,0.00011,2.9999999999999997e-05,2e-05,0.00016999999999999999,-2e-05,-1e-05,0.0,5
18554,19212,2.9999999999999997e-05,0.00011,2.9999999999999997e-05,2e-05,0.00016999999999999999,-2e-05,-1e-05,0.0,5
18555,19213,2.9999999999999997e-05,0.00011,2.9999999999999997e-05,2e-05,0.00016999999999999999,-2e-05,-1e-05,0.0,5
18556,19214,2.9999999999999997e-05,0.00011,2.9999999999999997e-05,2e-05,0.00016999999999999999,-2e-05,-1e-05,0.0,5
18557,19215,2.9999999999999997e-05,0.00011,2.9999999999999997e-05,2e-05,0.00016999999999999999,-2e-05,-1e-05,0.0,5
18558,19216,2.9999999999999997e-05,0.00011,2.9999999999999997e-05,2e-05,0.00016999999999999999,-2e-05,-1e-05,0.0,5
18559,19217,2.9999999999999997e-05,0.00011,2.9999999999999997e-05,2e-05,0.00016999999999999999,-2e-05,-1e-05,0.0,5
18560,19218,2.9999999999999997e-05,0.00011,2.9999999999999997e-05,2e-05,0.00016999999999999999,-2e-05,-1e-05,0.0,5
18561,19219,2.9999999999999997e-05,0.00011,2.9999999999999997e-05,2e-05,0.00016999999999999999,-2e-05,-1e-05,0.0,5
18562,19220,2.9999999999999997e-05,0.00011,2.9999999999999997e-05,2e-05,0.00016999999999999999,-2e-05,-1e-05,0.0,5
18563,19221,2.9999999999999997e-05,0.00011,2.9999999999999997e-05,2e-05,0.00016999999999999999,-2e-05,-1e-05,0.0,5
18564,19222,2.9999999999999997e-05,0.00011,2.9999999999999997e-05,2e-05,0.00016999999999999999,-2e-05,-1e-05,0.0,5
18565,19223,2.9999999999999997e-05,0.00011,2.9999999999999997e-05,2e-05,0.00016999999999999999,-2e-05,-1e-05,0.0,5
18566,19224,2.9999999999999997e-05,0.00011,2.9999999999999997e-05,2e-05,0.00016999999999999999,-2e-05,-1e-05,0.0,5
18567,19225,2.9999999999999997e-05,0.00011,2.9999999999999997e-05,2e-05,0.00016999999999999999,-2e-05,-1e-05,0.0,5
18568,19226,2.9999999999999997e-05,0.00011,2.9999999999999997e-05,2e-05,0.00016999999999999999,-2e-05,-1e-05,0.0,5
18569,19227,2.9999999999999997e-05,0.00011,2.9999999999999997e-05,2e-05,0.00016999999999999999,-2e-05,-1e-05,0.0,5
18570,19228,2.9999999999999997e-05,0.00011,2.9999999999999997e-05,2e-05,0.00016999999999999999,-2e-05,-1e-05,0.0,5
18571,19229,2.9999999999999997e-05,0.00011,2.9999999999999997e-05,2e-05,0.00016999999999999999,-2e-05,-1e-05,0.0,5
18572,19230,2.9999999999999997e-05,0.00011,2.9999999999999997e-05,2e-05,0.00016999999999999999,-2e-05,-1e-05,0.0,5
18573,19231,2.9999999999999997e-05,0.00011,2.9999999999999997e-05,2e-05,0.00016999999999999999,-2e-05,-1e-05,0.0,5
18574,19232,2.9999999999999997e-05,0.00011,2.9999999999999997e-05,2e-05,0.00016999999999999999,-2e-05,-1e-05,0.0,5
18575,19233,7e-05,-2.9999999999999997e-05,-4e-05,-0.00026000000000000003,-7e-05,0.0001,7e-05,7e-05,5
18576,19234,7e-05,-2.9999999999999997e-05,-4e-05,-0.00026000000000000003,-7e-05,0.0001,7e-05,7e-05,5
18577,19235,7e-05,-2.9999999999999997e-05,-4e-05,-0.00026000000000000003,-7e-05,0.0001,7e-05,7e-05,5
18578,19236,7e-05,-2.9999999999999997e-05,-4e-05,-0.00026000000000000003,-7e-05,0.0001,7e-05,7e-05,5
18579,19238,7e-05,-2.9999999999999997e-05,-4e-05,-0.00026000000000000003,-7e-05,0.0001,7e-05,7e-05,5
18580,19239,7e-05,-2.9999999999999997e-05,-4e-05,-0.00026000000000000003,-7e-05,0.0001,7e-05,7e-05,5
18581,19240,7e-05,-2.9999999999999997e-05,-4e-05,-0.00026000000000000003,-7e-05,0.0001,7e-05,7e-05,5
18582,19241,7e-05,-2.9999999999999997e-05,-4e-05,-0.00026000000000000003,-7e-05,0.0001,7e-05,7e-05,5
18583,19242,7e-05,-2.9999999999999997e-05,-4e-05,-0.00026000000000000003,-7e-05,0.0001,7e-05,7e-05,5
18584,19243,7e-05,-2.9999999999999997e-05,-4e-05,-0.00026000000000000003,-7e-05,0.0001,7e-05,7e-05,5
18585,19244,7e-05,-2.9999999999999997e-05,-4e-05,-0.00026000000000000003,-7e-05,0.0001,7e-05,7e-05,5
18586,19245,7e-05,-2.9999999999999997e-05,-4e-05,-0.00026000000000000003,-7e-05,0.0001,7e-05,7e-05,5
18587,19246,7e-05,-2.9999999999999997e-05,-4e-05,-0.00026000000000000003,-7e-05,0.0001,7e-05,7e-05,5
18588,19247,7e-05,-2.9999999999999997e-05,-4e-05,-0.00026000000000000003,-7e-05,0.0001,7e-05,7e-05,5
18589,19248,7e-05,-2.9999999999999997e-05,-4e-05,-0.00026000000000000003,-7e-05,0.0001,7e-05,7e-05,5
18590,19249,7e-05,-2.9999999999999997e-05,-4e-05,-0.00026000000000000003,-7e-05,0.0001,7e-05,7e-05,5
18591,19250,7e-05,-2.9999999999999997e-05,-4e-05,-0.00026000000000000003,-7e-05,0.0001,7e-05,7e-05,5
18592,19251,7e-05,-2.9999999999999997e-05,-4e-05,-0.00026000000000000003,-7e-05,0.0001,7e-05,7e-05,5
18593,19252,7e-05,-2.9999999999999997e-05,-4e-05,-0.00026000000000000003,-7e-05,0.0001,7e-05,7e-05,5
18594,19253,7e-05,-2.9999999999999997e-05,-4e-05,-0.00026000000000000003,-7e-05,0.0001,7e-05,7e-05,5
18595,19254,7e-05,-2.9999999999999997e-05,-4e-05,-0.00026000000000000003,-7e-05,0.0001,7e-05,7e-05,5
18596,19255,7e-05,-2.9999999999999997e-05,-4e-05,-0.00026000000000000003,-7e-05,0.0001,7e-05,7e-05,5
18597,19256,7e-05,-2.9999999999999997e-05,-4e-05,-0.00026000000000000003,-7e-05,0.0001,7e-05,7e-05,5
18598,19257,7e-05,-2.9999999999999997e-05,-4e-05,-0.00026000000000000003,-7e-05,0.0001,7e-05,7e-05,5
18599,19258,7e-05,-2.9999999999999997e-05,-4e-05,-0.00026000000000000003,-7e-05,0.0001,7e-05,7e-05,5
18600,19259,7e-05,-2.9999999999999997e-05,-4e-05,-0.00026000000000000003,-7e-05,0.0001,7e-05,7e-05,5
18601,19260,7e-05,-2.9999999999999997e-05,-4e-05,-0.00026000000000000003,-7e-05,0.0001,7e-05,7e-05,5
18602,19261,7e-05,-2.9999999999999997e-05,-4e-05,-0.00026000000000000003,-7e-05,0.0001,7e-05,7e-05,5
18603,19262,7e-05,-2.9999999999999997e-05,-4e-05,-0.00026000000000000003,-7e-05,0.0001,7e-05,7e-05,5
18604,19263,7e-05,-2.9999999999999997e-05,-4e-05,-0.00026000000000000003,-7e-05,0.0001,7e-05,7e-05,5
18605,19264,-5e-05,0.0,2.9999999999999997e-05,0.00029,0.00018,-9e-05,-7e-05,-8e-05,5
18606,19265,4e-05,7e-05,8e-05,-0.0001,-2.9999999999999997e-05,2.9999999999999997e-05,-5.9999999999999995e-05,-2e-05,5
18607,19266,4e-05,7e-05,8e-05,-0.0001,-2.9999999999999997e-05,2.9999999999999997e-05,-5.9999999999999995e-05,-2e-05,5
18608,19267,4e-05,7e-05,8e-05,-0.0001,-2.9999999999999997e-05,2.9999999999999997e-05,-5.9999999999999995e-05,-2e-05,5
18609,19268,4e-05,7e-05,8e-05,-0.0001,-2.9999999999999997e-05,2.9999999999999997e-05,-5.9999999999999995e-05,-2e-05,5
18610,19269,4e-05,7e-05,8e-05,-0.0001,-2.9999999999999997e-05,2.9999999999999997e-05,-5.9999999999999995e-05,-2e-05,5
18611,19270,1e-05,0.00015,9e-05,2.9999999999999997e-05,-0.00011,0.0,-1e-05,-2e-05,5
18612,19271,1e-05,-2e-05,4e-05,-0.00025,-0.00036,-0.0002,-0.00013000000000000002,-8e-05,5
18613,19272,1e-05,-2e-05,4e-05,-0.00025,-0.00036,-0.0002,-0.00013000000000000002,-8e-05,5
18614,19273,1e-05,-2e-05,4e-05,-0.00025,-0.00036,-0.0002,-0.00013000000000000002,-8e-05,5
18615,19274,1e-05,-2e-05,4e-05,-0.00025,-0.00036,-0.0002,-0.00013000000000000002,-8e-05,5
18616,19275,1e-05,-2e-05,4e-05,-0.00025,-0.00036,-0.0002,-0.00013000000000000002,-8e-05,5
18617,19276,1e-05,-2e-05,4e-05,-0.00025,-0.00036,-0.0002,-0.00013000000000000002,-8e-05,5
18618,19277,1e-05,-2e-05,4e-05,-0.00025,-0.00036,-0.0002,-0.00013000000000000002,-8e-05,5
18619,19278,1e-05,-2e-05,4e-05,-0.00025,-0.00036,-0.0002,-0.00013000000000000002,-8e-05,5
18620,19279,1e-05,-2e-05,4e-05,-0.00025,-0.00036,-0.0002,-0.00013000000000000002,-8e-05,5
18621,19280,1e-05,-2e-05,4e-05,-0.00025,-0.00036,-0.0002,-0.00013000000000000002,-8e-05,5
18622,19281,1e-05,-2e-05,4e-05,-0.00025,-0.00036,-0.0002,-0.00013000000000000002,-8e-05,5
18623,19282,1e-05,-2e-05,4e-05,-0.00025,-0.00036,-0.0002,-0.00013000000000000002,-8e-05,5
18624,19283,1e-05,-2e-05,4e-05,-0.00025,-0.00036,-0.0002,-0.00013000000000000002,-8e-05,5
18625,19284,1e-05,-2e-05,4e-05,-0.00025,-0.00036,-0.0002,-0.00013000000000000002,-8e-05,5
18626,19285,1e-05,-2e-05,4e-05,-0.00025,-0.00036,-0.0002,-0.00013000000000000002,-8e-05,5
18627,19286,1e-05,-2e-05,4e-05,-0.00025,-0.00036,-0.0002,-0.00013000000000000002,-8e-05,5
18628,19288,1e-05,-2e-05,4e-05,-0.00025,-0.00036,-0.0002,-0.00013000000000000002,-8e-05,5
18629,19289,1e-05,-2e-05,4e-05,-0.00025,-0.00036,-0.0002,-0.00013000000000000002,-8e-05,5
18630,19290,1e-05,-2e-05,4e-05,-0.00025,-0.00036,-0.0002,-0.00013000000000000002,-8e-05,5
18631,19291,1e-05,-2e-05,4e-05,-0.00025,-0.00036,-0.0002,-0.00013000000000000002,-8e-05,5
18632,19292,1e-05,-2e-05,4e-05,-0.00025,-0.00036,-0.0002,-0.00013000000000000002,-8e-05,5
18633,19293,1e-05,-2e-05,4e-05,-0.00025,-0.00036,-0.0002,-0.00013000000000000002,-8e-05,5
18634,19294,-5.9999999999999995e-05,5e-05,0.00016999999999999999,0.00018,8e-05,0.00015,9e-05,-2e-05,5
18635,19295,-5.9999999999999995e-05,5e-05,0.00016999999999999999,0.00018,8e-05,0.00015,9e-05,-2e-05,5
18636,19296,-5.9999999999999995e-05,5e-05,0.00016999999999999999,0.00018,8e-05,0.00015,9e-05,-2e-05,5
18637,19297,-5.9999999999999995e-05,5e-05,0.00016999999999999999,0.00018,8e-05,0.00015,9e-05,-2e-05,5
18638,19298,-5.9999999999999995e-05,5e-05,0.00016999999999999999,0.00018,8e-05,0.00015,9e-05,-2e-05,5
18639,19299,-5.9999999999999995e-05,5e-05,0.00016999999999999999,0.00018,8e-05,0.00015,9e-05,-2e-05,5
18640,19300,-5.9999999999999995e-05,5e-05,0.00016999999999999999,0.00018,8e-05,0.00015,9e-05,-2e-05,5
18641,19301,-5.9999999999999995e-05,5e-05,0.00016999999999999999,0.00018,8e-05,0.00015,9e-05,-2e-05,5
18642,19302,-5.9999999999999995e-05,5e-05,0.00016999999999999999,0.00018,8e-05,0.00015,9e-05,-2e-05,5
18643,19303,-5.9999999999999995e-05,5e-05,0.00016999999999999999,0.00018,8e-05,0.00015,9e-05,-2e-05,5
18644,19304,-5.9999999999999995e-05,5e-05,0.00016999999999999999,0.00018,8e-05,0.00015,9e-05,-2e-05,5
18645,19305,-5.9999999999999995e-05,5e-05,0.00016999999999999999,0.00018,8e-05,0.00015,9e-05,-2e-05,5
18646,19306,-5.9999999999999995e-05,5e-05,0.00016999999999999999,0.00018,8e-05,0.00015,9e-05,-2e-05,5
18647,19307,-5.9999999999999995e-05,5e-05,0.00016999999999999999,0.00018,8e-05,0.00015,9e-05,-2e-05,5
18648,19308,-5.9999999999999995e-05,5e-05,0.00016999999999999999,0.00018,8e-05,0.00015,9e-05,-2e-05,5
18649,19309,-5.9999999999999995e-05,5e-05,0.00016999999999999999,0.00018,8e-05,0.00015,9e-05,-2e-05,5
18650,19310,-5.9999999999999995e-05,5e-05,0.00016999999999999999,0.00018,8e-05,0.00015,9e-05,-2e-05,5
18651,19311,-5.9999999999999995e-05,5e-05,0.00016999999999999999,0.00018,8e-05,0.00015,9e-05,-2e-05,5
18652,19312,-5.9999999999999995e-05,5e-05,0.00016999999999999999,0.00018,8e-05,0.00015,9e-05,-2e-05,5
18653,19313,-5.9999999999999995e-05,5e-05,0.00016999999999999999,0.00018,8e-05,0.00015,9e-05,-2e-05,5
18654,19314,-5.9999999999999995e-05,5e-05,0.00016999999999999999,0.00018,8e-05,0.00015,9e-05,-2e-05,5
18655,19315,1e-05,8e-05,0.0002,0.00022999999999999998,0.00033999999999999997,4e-05,-8e-05,4e-05,5
18656,19316,-7e-05,4e-05,4e-05,-0.00036,0.0,-1e-05,-2.9999999999999997e-05,0.0,5
18657,19317,-7e-05,4e-05,4e-05,-0.00036,0.0,-1e-05,-2.9999999999999997e-05,0.0,5
18658,19318,-7e-05,4e-05,4e-05,-0.00036,0.0,-1e-05,-2.9999999999999997e-05,0.0,5
18659,19319,-7e-05,4e-05,4e-05,-0.00036,0.0,-1e-05,-2.9999999999999997e-05,0.0,5
18660,19320,-7e-05,4e-05,4e-05,-0.00036,0.0,-1e-05,-2.9999999999999997e-05,0.0,5
18661,19321,-7e-05,4e-05,4e-05,-0.00036,0.0,-1e-05,-2.9999999999999997e-05,0.0,5
18662,19322,-7e-05,4e-05,4e-05,-0.00036,0.0,-1e-05,-2.9999999999999997e-05,0.0,5
18663,19323,-7e-05,4e-05,4e-05,-0.00036,0.0,-1e-05,-2.9999999999999997e-05,0.0,5
18664,19324,-7e-05,4e-05,4e-05,-0.00036,0.0,-1e-05,-2.9999999999999997e-05,0.0,5
18665,19325,-7e-05,4e-05,4e-05,-0.00036,0.0,-1e-05,-2.9999999999999997e-05,0.0,5
18666,19326,-7e-05,4e-05,4e-05,-0.00036,0.0,-1e-05,-2.9999999999999997e-05,0.0,5
18667,19327,-7e-05,4e-05,4e-05,-0.00036,0.0,-1e-05,-2.9999999999999997e-05,0.0,5
18668,19328,-7e-05,4e-05,4e-05,-0.00036,0.0,-1e-05,-2.9999999999999997e-05,0.0,5
18669,19329,-7e-05,4e-05,4e-05,-0.00036,0.0,-1e-05,-2.9999999999999997e-05,0.0,5
18670,19330,-2.9999999999999997e-05,8e-05,0.00016999999999999999,-0.00011999999999999999,0.00025,1e-05,-4e-05,-1e-05,5
18671,19331,-5e-05,-2.9999999999999997e-05,-0.00016,2e-05,-2.9999999999999997e-05,7e-05,-5.9999999999999995e-05,-0.00015,5
18672,19332,-5e-05,-2.9999999999999997e-05,-0.00016,2e-05,-2.9999999999999997e-05,7e-05,-5.9999999999999995e-05,-0.00015,5
18673,19333,-5e-05,-2.9999999999999997e-05,-0.00016,2e-05,-2.9999999999999997e-05,7e-05,-5.9999999999999995e-05,-0.00015,5
18674,19334,-5e-05,-2.9999999999999997e-05,-0.00016,2e-05,-2.9999999999999997e-05,7e-05,-5.9999999999999995e-05,-0.00015,5
18675,19335,-5e-05,-2.9999999999999997e-05,-0.00016,2e-05,-2.9999999999999997e-05,7e-05,-5.9999999999999995e-05,-0.00015,5
18676,19336,-5e-05,-2.9999999999999997e-05,-0.00016,2e-05,-2.9999999999999997e-05,7e-05,-5.9999999999999995e-05,-0.00015,5
18677,19338,-5e-05,-2.9999999999999997e-05,-0.00016,2e-05,-2.9999999999999997e-05,7e-05,-5.9999999999999995e-05,-0.00015,5
18678,19339,-5e-05,-2.9999999999999997e-05,-0.00016,2e-05,-2.9999999999999997e-05,7e-05,-5.9999999999999995e-05,-0.00015,5
18679,19340,-5e-05,-2.9999999999999997e-05,-0.00016,2e-05,-2.9999999999999997e-05,7e-05,-5.9999999999999995e-05,-0.00015,5
18680,19341,-5e-05,-2.9999999999999997e-05,-0.00016,2e-05,-2.9999999999999997e-05,7e-05,-5.9999999999999995e-05,-0.00015,5
18681,19342,-5e-05,-2.9999999999999997e-05,-0.00016,2e-05,-2.9999999999999997e-05,7e-05,-5.9999999999999995e-05,-0.00015,5
18682,19343,-5e-05,-2.9999999999999997e-05,-0.00016,2e-05,-2.9999999999999997e-05,7e-05,-5.9999999999999995e-05,-0.00015,5
18683,19344,-5e-05,-2.9999999999999997e-05,-0.00016,2e-05,-2.9999999999999997e-05,7e-05,-5.9999999999999995e-05,-0.00015,5
18684,19345,-5e-05,-2.9999999999999997e-05,-0.00016,2e-05,-2.9999999999999997e-05,7e-05,-5.9999999999999995e-05,-0.00015,5
18685,19346,-5e-05,-2.9999999999999997e-05,-0.00016,2e-05,-2.9999999999999997e-05,7e-05,-5.9999999999999995e-05,-0.00015,5
18686,19347,-5e-05,-2.9999999999999997e-05,-0.00016,2e-05,-2.9999999999999997e-05,7e-05,-5.9999999999999995e-05,-0.00015,5
18687,19348,-5e-05,-2.9999999999999997e-05,-0.00016,2e-05,-2.9999999999999997e-05,7e-05,-5.9999999999999995e-05,-0.00015,5
18688,19349,-5e-05,-2.9999999999999997e-05,-0.00016,2e-05,-2.9999999999999997e-05,7e-05,-5.9999999999999995e-05,-0.00015,5
18689,19350,-5e-05,-2.9999999999999997e-05,-0.00016,2e-05,-2.9999999999999997e-05,7e-05,-5.9999999999999995e-05,-0.00015,5
18690,19351,-5e-05,-2.9999999999999997e-05,-0.00016,2e-05,-2.9999999999999997e-05,7e-05,-5.9999999999999995e-05,-0.00015,5
18691,19352,-5e-05,-2.9999999999999997e-05,-0.00016,2e-05,-2.9999999999999997e-05,7e-05,-5.9999999999999995e-05,-0.00015,5
18692,19353,-5e-05,-2.9999999999999997e-05,-0.00016,2e-05,-2.9999999999999997e-05,7e-05,-5.9999999999999995e-05,-0.00015,5
18693,19354,-5e-05,-2.9999999999999997e-05,-0.00016,2e-05,-2.9999999999999997e-05,7e-05,-5.9999999999999995e-05,-0.00015,5
18694,19355,-5e-05,-2.9999999999999997e-05,-0.00016,2e-05,-2.9999999999999997e-05,7e-05,-5.9999999999999995e-05,-0.00015,5
18695,19356,-5e-05,-2.9999999999999997e-05,-0.00016,2e-05,-2.9999999999999997e-05,7e-05,-5.9999999999999995e-05,-0.00015,5
18696,19357,-5e-05,-2.9999999999999997e-05,-0.00016,2e-05,-2.9999999999999997e-05,7e-05,-5.9999999999999995e-05,-0.00015,5
18697,19358,-5e-05,-2.9999999999999997e-05,-0.00016,2e-05,-2.9999999999999997e-05,7e-05,-5.9999999999999995e-05,-0.00015,5
18698,19359,-5e-05,-2.9999999999999997e-05,-0.00016,2e-05,-2.9999999999999997e-05,7e-05,-5.9999999999999995e-05,-0.00015,5
18699,19360,5.9999999999999995e-05,0.0,-4e-05,-0.00015,-0.0001,2.9999999999999997e-05,-2e-05,5e-05,5
18700,19361,5.9999999999999995e-05,0.0,-4e-05,-0.00015,-0.0001,2.9999999999999997e-05,-2e-05,5e-05,5
18701,19362,5.9999999999999995e-05,0.0,-4e-05,-0.00015,-0.0001,2.9999999999999997e-05,-2e-05,5e-05,5
18702,19363,5.9999999999999995e-05,0.0,-4e-05,-0.00015,-0.0001,2.9999999999999997e-05,-2e-05,5e-05,5
18703,19364,5.9999999999999995e-05,0.0,-4e-05,-0.00015,-0.0001,2.9999999999999997e-05,-2e-05,5e-05,5
18704,19365,5.9999999999999995e-05,0.0,-4e-05,-0.00015,-0.0001,2.9999999999999997e-05,-2e-05,5e-05,5
18705,19366,5.9999999999999995e-05,0.0,-4e-05,-0.00015,-0.0001,2.9999999999999997e-05,-2e-05,5e-05,5
18706,19367,5.9999999999999995e-05,0.0,-4e-05,-0.00015,-0.0001,2.9999999999999997e-05,-2e-05,5e-05,5
18707,19368,5.9999999999999995e-05,0.0,-4e-05,-0.00015,-0.0001,2.9999999999999997e-05,-2e-05,5e-05,5
18708,19369,2e-05,0.0,-4e-05,-0.00021,-5e-05,-7e-05,5e-05,4e-05,5
18709,19370,-7e-05,-0.00011,-0.00011999999999999999,7e-05,-0.00015,-1e-05,7e-05,-4e-05,5
18710,19371,4e-05,2e-05,0.0,0.00028,0.00016,5e-05,5e-05,2.9999999999999997e-05,5
18711,19372,4e-05,2e-05,0.0,0.00028,0.00016,5e-05,5e-05,2.9999999999999997e-05,5
18712,19373,4e-05,2e-05,0.0,0.00028,0.00016,5e-05,5e-05,2.9999999999999997e-05,5
18713,19374,4e-05,2e-05,0.0,0.00028,0.00016,5e-05,5e-05,2.9999999999999997e-05,5
18714,19375,4e-05,2e-05,0.0,0.00028,0.00016,5e-05,5e-05,2.9999999999999997e-05,5
18715,19376,4e-05,2e-05,0.0,0.00028,0.00016,5e-05,5e-05,2.9999999999999997e-05,5
18716,19377,4e-05,2e-05,0.0,0.00028,0.00016,5e-05,5e-05,2.9999999999999997e-05,5
18717,19378,4e-05,2e-05,0.0,0.00028,0.00016,5e-05,5e-05,2.9999999999999997e-05,5
18718,19379,4e-05,2e-05,0.0,0.00028,0.00016,5e-05,5e-05,2.9999999999999997e-05,5
18719,19380,4e-05,2e-05,0.0,0.00028,0.00016,5e-05,5e-05,2.9999999999999997e-05,5
18720,19381,4e-05,2e-05,0.0,0.00028,0.00016,5e-05,5e-05,2.9999999999999997e-05,5
18721,19382,4e-05,2e-05,0.0,0.00028,0.00016,5e-05,5e-05,2.9999999999999997e-05,5
18722,19383,4e-05,2e-05,0.0,0.00028,0.00016,5e-05,5e-05,2.9999999999999997e-05,5
18723,19384,4e-05,2e-05,0.0,0.00028,0.00016,5e-05,5e-05,2.9999999999999997e-05,5
18724,19385,4e-05,2e-05,0.0,0.00028,0.00016,5e-05,5e-05,2.9999999999999997e-05,5
18725,19386,4e-05,2e-05,0.0,0.00028,0.00016,5e-05,5e-05,2.9999999999999997e-05,5
18726,19389,4e-05,2e-05,0.0,0.00028,0.00016,5e-05,5e-05,2.9999999999999997e-05,5
18727,19390,4e-05,2e-05,0.0,0.00028,0.00016,5e-05,5e-05,2.9999999999999997e-05,5
18728,19391,4e-05,2e-05,0.0,0.00028,0.00016,5e-05,5e-05,2.9999999999999997e-05,5
18729,19392,4e-05,2e-05,0.0,0.00028,0.00016,5e-05,5e-05,2.9999999999999997e-05,5
18730,19393,4e-05,2e-05,0.0,0.00028,0.00016,5e-05,5e-05,2.9999999999999997e-05,5
18731,19394,4e-05,2e-05,0.0,0.00028,0.00016,5e-05,5e-05,2.9999999999999997e-05,5
18732,19395,4e-05,2e-05,0.0,0.00028,0.00016,5e-05,5e-05,2.9999999999999997e-05,5
18733,19396,4e-05,2e-05,0.0,0.00028,0.00016,5e-05,5e-05,2.9999999999999997e-05,5
18734,19397,4e-05,2e-05,0.0,0.00028,0.00016,5e-05,5e-05,2.9999999999999997e-05,5
18735,19398,-5.9999999999999995e-05,-2.9999999999999997e-05,-7e-05,0.0,-5.9999999999999995e-05,-0.00011,5e-05,0.0,5
18736,19399,-5.9999999999999995e-05,-2.9999999999999997e-05,-7e-05,0.0,-5.9999999999999995e-05,-0.00011,5e-05,0.0,5
18737,19400,-5.9999999999999995e-05,-2.9999999999999997e-05,-7e-05,0.0,-5.9999999999999995e-05,-0.00011,5e-05,0.0,5
18738,19401,-5.9999999999999995e-05,-2.9999999999999997e-05,-7e-05,0.0,-5.9999999999999995e-05,-0.00011,5e-05,0.0,5
18739,19402,-5.9999999999999995e-05,-2.9999999999999997e-05,-7e-05,0.0,-5.9999999999999995e-05,-0.00011,5e-05,0.0,5
18740,19403,-5.9999999999999995e-05,-2.9999999999999997e-05,-7e-05,0.0,-5.9999999999999995e-05,-0.00011,5e-05,0.0,5
18741,19404,-5.9999999999999995e-05,-2.9999999999999997e-05,-7e-05,0.0,-5.9999999999999995e-05,-0.00011,5e-05,0.0,5
18742,19405,-5.9999999999999995e-05,-2.9999999999999997e-05,-7e-05,0.0,-5.9999999999999995e-05,-0.00011,5e-05,0.0,5
18743,19406,-5.9999999999999995e-05,-2.9999999999999997e-05,-7e-05,0.0,-5.9999999999999995e-05,-0.00011,5e-05,0.0,5
18744,19407,-5.9999999999999995e-05,-2.9999999999999997e-05,-7e-05,0.0,-5.9999999999999995e-05,-0.00011,5e-05,0.0,5
18745,19408,-5.9999999999999995e-05,-2.9999999999999997e-05,-7e-05,0.0,-5.9999999999999995e-05,-0.00011,5e-05,0.0,5
18746,19409,-5.9999999999999995e-05,-2.9999999999999997e-05,-7e-05,0.0,-5.9999999999999995e-05,-0.00011,5e-05,0.0,5
18747,19410,-5.9999999999999995e-05,-2.9999999999999997e-05,-7e-05,0.0,-5.9999999999999995e-05,-0.00011,5e-05,0.0,5
18748,19411,-5.9999999999999995e-05,-2.9999999999999997e-05,-7e-05,0.0,-5.9999999999999995e-05,-0.00011,5e-05,0.0,5
18749,19412,-5.9999999999999995e-05,-2.9999999999999997e-05,-7e-05,0.0,-5.9999999999999995e-05,-0.00011,5e-05,0.0,5
18750,19413,-5.9999999999999995e-05,-2.9999999999999997e-05,-7e-05,0.0,-5.9999999999999995e-05,-0.00011,5e-05,0.0,5
18751,19414,-5.9999999999999995e-05,-2.9999999999999997e-05,-7e-05,0.0,-5.9999999999999995e-05,-0.00011,5e-05,0.0,5
18752,19415,-5.9999999999999995e-05,-2.9999999999999997e-05,-7e-05,0.0,-5.9999999999999995e-05,-0.00011,5e-05,0.0,5
18753,19416,-5.9999999999999995e-05,-2.9999999999999997e-05,-7e-05,0.0,-5.9999999999999995e-05,-0.00011,5e-05,0.0,5
18754,19417,-5.9999999999999995e-05,-2.9999999999999997e-05,-7e-05,0.0,-5.9999999999999995e-05,-0.00011,5e-05,0.0,5
18755,19418,-5.9999999999999995e-05,-2.9999999999999997e-05,-7e-05,0.0,-5.9999999999999995e-05,-0.00011,5e-05,0.0,5
18756,19419,-5.9999999999999995e-05,-2.9999999999999997e-05,-7e-05,0.0,-5.9999999999999995e-05,-0.00011,5e-05,0.0,5
18757,19420,-2.9999999999999997e-05,-2.9999999999999997e-05,-2.9999999999999997e-05,-0.00054,-5.9999999999999995e-05,0.00021,2.9999999999999997e-05,1e-05,5
18758,19421,-2.9999999999999997e-05,-2.9999999999999997e-05,-2.9999999999999997e-05,-0.00054,-5.9999999999999995e-05,0.00021,2.9999999999999997e-05,1e-05,5
18759,19422,-2.9999999999999997e-05,-2.9999999999999997e-05,-2.9999999999999997e-05,-0.00054,-5.9999999999999995e-05,0.00021,2.9999999999999997e-05,1e-05,5
18760,19423,-2.9999999999999997e-05,-2.9999999999999997e-05,-2.9999999999999997e-05,-0.00054,-5.9999999999999995e-05,0.00021,2.9999999999999997e-05,1e-05,5
18761,19424,-2.9999999999999997e-05,-2.9999999999999997e-05,-2.9999999999999997e-05,-0.00054,-5.9999999999999995e-05,0.00021,2.9999999999999997e-05,1e-05,5
18762,19425,-2.9999999999999997e-05,-2.9999999999999997e-05,-2.9999999999999997e-05,-0.00054,-5.9999999999999995e-05,0.00021,2.9999999999999997e-05,1e-05,5
18763,19426,-2.9999999999999997e-05,-2.9999999999999997e-05,-2.9999999999999997e-05,-0.00054,-5.9999999999999995e-05,0.00021,2.9999999999999997e-05,1e-05,5
18764,19427,7e-05,4e-05,2.9999999999999997e-05,7e-05,-0.00016999999999999999,2.9999999999999997e-05,7e-05,0.00015,5
18765,19428,7e-05,4e-05,2.9999999999999997e-05,7e-05,-0.00016999999999999999,2.9999999999999997e-05,7e-05,0.00015,5
18766,19429,7e-05,4e-05,2.9999999999999997e-05,7e-05,-0.00016999999999999999,2.9999999999999997e-05,7e-05,0.00015,5
18767,19430,7e-05,4e-05,2.9999999999999997e-05,7e-05,-0.00016999999999999999,2.9999999999999997e-05,7e-05,0.00015,5
18768,19431,7e-05,4e-05,2.9999999999999997e-05,7e-05,-0.00016999999999999999,2.9999999999999997e-05,7e-05,0.00015,5
18769,19432,7e-05,4e-05,2.9999999999999997e-05,7e-05,-0.00016999999999999999,2.9999999999999997e-05,7e-05,0.00015,5
18770,19433,7e-05,4e-05,2.9999999999999997e-05,7e-05,-0.00016999999999999999,2.9999999999999997e-05,7e-05,0.00015,5
18771,19434,7e-05,4e-05,2.9999999999999997e-05,7e-05,-0.00016999999999999999,2.9999999999999997e-05,7e-05,0.00015,5
18772,19435,7e-05,4e-05,2.9999999999999997e-05,7e-05,-0.00016999999999999999,2.9999999999999997e-05,7e-05,0.00015,5
18773,19436,7e-05,4e-05,2.9999999999999997e-05,7e-05,-0.00016999999999999999,2.9999999999999997e-05,7e-05,0.00015,5
18774,19438,7e-05,4e-05,2.9999999999999997e-05,7e-05,-0.00016999999999999999,2.9999999999999997e-05,7e-05,0.00015,5
18775,19439,7e-05,4e-05,2.9999999999999997e-05,7e-05,-0.00016999999999999999,2.9999999999999997e-05,7e-05,0.00015,5
18776,19440,7e-05,4e-05,2.9999999999999997e-05,7e-05,-0.00016999999999999999,2.9999999999999997e-05,7e-05,0.00015,5
18777,19441,7e-05,4e-05,2.9999999999999997e-05,7e-05,-0.00016999999999999999,2.9999999999999997e-05,7e-05,0.00015,5
18778,19442,7e-05,4e-05,2.9999999999999997e-05,7e-05,-0.00016999999999999999,2.9999999999999997e-05,7e-05,0.00015,5
18779,19443,7e-05,4e-05,2.9999999999999997e-05,7e-05,-0.00016999999999999999,2.9999999999999997e-05,7e-05,0.00015,5
18780,19444,7e-05,4e-05,2.9999999999999997e-05,7e-05,-0.00016999999999999999,2.9999999999999997e-05,7e-05,0.00015,5
18781,19445,7e-05,4e-05,2.9999999999999997e-05,7e-05,-0.00016999999999999999,2.9999999999999997e-05,7e-05,0.00015,5
18782,19446,7e-05,4e-05,2.9999999999999997e-05,7e-05,-0.00016999999999999999,2.9999999999999997e-05,7e-05,0.00015,5
18783,19447,7e-05,4e-05,2.9999999999999997e-05,7e-05,-0.00016999999999999999,2.9999999999999997e-05,7e-05,0.00015,5
18784,19448,7e-05,4e-05,2.9999999999999997e-05,7e-05,-0.00016999999999999999,2.9999999999999997e-05,7e-05,0.00015,5
18785,19449,7e-05,4e-05,2.9999999999999997e-05,7e-05,-0.00016999999999999999,2.9999999999999997e-05,7e-05,0.00015,5
18786,19450,-8e-05,-0.00011999999999999999,-0.00013000000000000002,-0.00014,-0.00025,-4e-05,-4e-05,-2e-05,5
18787,19451,-0.00011,-7e-05,-7e-05,0.0001,7e-05,-7e-05,-0.00011999999999999999,-8e-05,5
18788,19452,-0.00011,-7e-05,-7e-05,0.0001,7e-05,-7e-05,-0.00011999999999999999,-8e-05,5
18789,19453,-0.00011,-7e-05,-7e-05,0.0001,7e-05,-7e-05,-0.00011999999999999999,-8e-05,5
18790,19455,-0.00011,-7e-05,-7e-05,0.0001,7e-05,-7e-05,-0.00011999999999999999,-8e-05,5
18791,19456,-0.00011,-7e-05,-7e-05,0.0001,7e-05,-7e-05,-0.00011999999999999999,-8e-05,5
18792,19457,-0.00011,-7e-05,-7e-05,0.0001,7e-05,-7e-05,-0.00011999999999999999,-8e-05,5
18793,19458,-0.00011,-7e-05,-7e-05,0.0001,7e-05,-7e-05,-0.00011999999999999999,-8e-05,5
18794,19459,-0.00011,-7e-05,-7e-05,0.0001,7e-05,-7e-05,-0.00011999999999999999,-8e-05,5
18795,19460,-0.00011,-7e-05,-7e-05,0.0001,7e-05,-7e-05,-0.00011999999999999999,-8e-05,5
18796,19461,-0.00011,-7e-05,-7e-05,0.0001,7e-05,-7e-05,-0.00011999999999999999,-8e-05,5
18797,19462,-0.00011,-7e-05,-7e-05,0.0001,7e-05,-7e-05,-0.00011999999999999999,-8e-05,5
18798,19463,-0.00011,-7e-05,-7e-05,0.0001,7e-05,-7e-05,-0.00011999999999999999,-8e-05,5
18799,19464,-0.00011,-7e-05,-7e-05,0.0001,7e-05,-7e-05,-0.00011999999999999999,-8e-05,5
18800,19465,-0.00011,-7e-05,-7e-05,0.0001,7e-05,-7e-05,-0.00011999999999999999,-8e-05,5
18801,19466,-0.00011,-7e-05,-7e-05,0.0001,7e-05,-7e-05,-0.00011999999999999999,-8e-05,5
18802,19467,-0.00011,-7e-05,-7e-05,0.0001,7e-05,-7e-05,-0.00011999999999999999,-8e-05,5
18803,19468,-0.00011,-7e-05,-7e-05,0.0001,7e-05,-7e-05,-0.00011999999999999999,-8e-05,5
18804,19469,-0.00011,-7e-05,-7e-05,0.0001,7e-05,-7e-05,-0.00011999999999999999,-8e-05,5
18805,19470,-0.00011,-7e-05,-7e-05,0.0001,7e-05,-7e-05,-0.00011999999999999999,-8e-05,5
18806,19471,-0.00011,-7e-05,-7e-05,0.0001,7e-05,-7e-05,-0.00011999999999999999,-8e-05,5
18807,19472,-4e-05,-1e-05,-0.00014,-0.00018,-0.00025,0.00011,9e-05,4e-05,5
18808,19473,2e-05,-2e-05,8e-05,2.9999999999999997e-05,-7e-05,1e-05,-5.9999999999999995e-05,-2e-05,5
18809,19474,2e-05,-2e-05,8e-05,2.9999999999999997e-05,-7e-05,1e-05,-5.9999999999999995e-05,-2e-05,5
18810,19475,2e-05,-2e-05,8e-05,2.9999999999999997e-05,-7e-05,1e-05,-5.9999999999999995e-05,-2e-05,5
18811,19476,2e-05,-2e-05,8e-05,2.9999999999999997e-05,-7e-05,1e-05,-5.9999999999999995e-05,-2e-05,5
18812,19477,2e-05,-2e-05,8e-05,2.9999999999999997e-05,-7e-05,1e-05,-5.9999999999999995e-05,-2e-05,5
18813,19478,2e-05,-2e-05,8e-05,2.9999999999999997e-05,-7e-05,1e-05,-5.9999999999999995e-05,-2e-05,5
18814,19479,2e-05,-2e-05,8e-05,2.9999999999999997e-05,-7e-05,1e-05,-5.9999999999999995e-05,-2e-05,5
18815,19480,2e-05,-2e-05,8e-05,2.9999999999999997e-05,-7e-05,1e-05,-5.9999999999999995e-05,-2e-05,5
18816,19481,2e-05,-2e-05,8e-05,2.9999999999999997e-05,-7e-05,1e-05,-5.9999999999999995e-05,-2e-05,5
18817,19482,2e-05,-2e-05,8e-05,2.9999999999999997e-05,-7e-05,1e-05,-5.9999999999999995e-05,-2e-05,5
18818,19483,2e-05,-2e-05,8e-05,2.9999999999999997e-05,-7e-05,1e-05,-5.9999999999999995e-05,-2e-05,5
18819,19484,2e-05,-2e-05,8e-05,2.9999999999999997e-05,-7e-05,1e-05,-5.9999999999999995e-05,-2e-05,5
18820,19485,2e-05,-2e-05,8e-05,2.9999999999999997e-05,-7e-05,1e-05,-5.9999999999999995e-05,-2e-05,5
18821,19487,1e-05,0.00011,0.00013000000000000002,-5e-05,1e-05,0.00013000000000000002,5e-05,2e-05,5
18822,19489,2e-05,-4e-05,-0.0001,-2.9999999999999997e-05,-0.00011999999999999999,-0.00013000000000000002,0.0,0.0,5
18823,19490,2e-05,-4e-05,-0.0001,-2.9999999999999997e-05,-0.00011999999999999999,-0.00013000000000000002,0.0,0.0,5
18824,19491,2e-05,-4e-05,-0.0001,-2.9999999999999997e-05,-0.00011999999999999999,-0.00013000000000000002,0.0,0.0,5
18825,19492,2e-05,-4e-05,-0.0001,-2.9999999999999997e-05,-0.00011999999999999999,-0.00013000000000000002,0.0,0.0,5
18826,19493,2e-05,-4e-05,-0.0001,-2.9999999999999997e-05,-0.00011999999999999999,-0.00013000000000000002,0.0,0.0,5
18827,19494,2e-05,-4e-05,-0.0001,-2.9999999999999997e-05,-0.00011999999999999999,-0.00013000000000000002,0.0,0.0,5
18828,19495,2e-05,-4e-05,-0.0001,-2.9999999999999997e-05,-0.00011999999999999999,-0.00013000000000000002,0.0,0.0,5
18829,19496,2e-05,-4e-05,-0.0001,-2.9999999999999997e-05,-0.00011999999999999999,-0.00013000000000000002,0.0,0.0,5
18830,19497,2e-05,-4e-05,-0.0001,-2.9999999999999997e-05,-0.00011999999999999999,-0.00013000000000000002,0.0,0.0,5
18831,19498,2e-05,-4e-05,-0.0001,-2.9999999999999997e-05,-0.00011999999999999999,-0.00013000000000000002,0.0,0.0,5
18832,19499,2e-05,-4e-05,-0.0001,-2.9999999999999997e-05,-0.00011999999999999999,-0.00013000000000000002,0.0,0.0,5
18833,19500,2e-05,-4e-05,-0.0001,-2.9999999999999997e-05,-0.00011999999999999999,-0.00013000000000000002,0.0,0.0,5
18834,19501,2e-05,-4e-05,-0.0001,-2.9999999999999997e-05,-0.00011999999999999999,-0.00013000000000000002,0.0,0.0,5
18835,19502,2e-05,-4e-05,-0.0001,-2.9999999999999997e-05,-0.00011999999999999999,-0.00013000000000000002,0.0,0.0,5
18836,19503,2e-05,-4e-05,-0.0001,-2.9999999999999997e-05,-0.00011999999999999999,-0.00013000000000000002,0.0,0.0,5
18837,19504,2e-05,-4e-05,-0.0001,-2.9999999999999997e-05,-0.00011999999999999999,-0.00013000000000000002,0.0,0.0,5
18838,19505,2e-05,-4e-05,-0.0001,-2.9999999999999997e-05,-0.00011999999999999999,-0.00013000000000000002,0.0,0.0,5
18839,19506,2e-05,-4e-05,-0.0001,-2.9999999999999997e-05,-0.00011999999999999999,-0.00013000000000000002,0.0,0.0,5
18840,19507,2e-05,-4e-05,-0.0001,-2.9999999999999997e-05,-0.00011999999999999999,-0.00013000000000000002,0.0,0.0,5
18841,19508,2e-05,-4e-05,-0.0001,-2.9999999999999997e-05,-0.00011999999999999999,-0.00013000000000000002,0.0,0.0,5
18842,19509,2e-05,-4e-05,-0.0001,-2.9999999999999997e-05,-0.00011999999999999999,-0.00013000000000000002,0.0,0.0,5
18843,19510,-5.9999999999999995e-05,-7e-05,1e-05,-0.00016,-5e-05,-0.00023999999999999998,0.0,-1e-05,5
18844,19511,-4e-05,-8e-05,-1e-05,-2.9999999999999997e-05,-0.00014,-2e-05,-2e-05,-9e-05,5
18845,19512,-4e-05,-8e-05,-1e-05,-2.9999999999999997e-05,-0.00014,-2e-05,-2e-05,-9e-05,5
18846,19513,-4e-05,-8e-05,-1e-05,-2.9999999999999997e-05,-0.00014,-2e-05,-2e-05,-9e-05,5
18847,19514,-4e-05,-8e-05,-1e-05,-2.9999999999999997e-05,-0.00014,-2e-05,-2e-05,-9e-05,5
18848,19515,-4e-05,-8e-05,-1e-05,-2.9999999999999997e-05,-0.00014,-2e-05,-2e-05,-9e-05,5
18849,19516,-4e-05,-8e-05,-1e-05,-2.9999999999999997e-05,-0.00014,-2e-05,-2e-05,-9e-05,5
18850,19517,-4e-05,-8e-05,-1e-05,-2.9999999999999997e-05,-0.00014,-2e-05,-2e-05,-9e-05,5
18851,19518,-4e-05,-8e-05,-1e-05,-2.9999999999999997e-05,-0.00014,-2e-05,-2e-05,-9e-05,5
18852,19519,-4e-05,-8e-05,-1e-05,-2.9999999999999997e-05,-0.00014,-2e-05,-2e-05,-9e-05,5
18853,19520,-4e-05,-8e-05,-1e-05,-2.9999999999999997e-05,-0.00014,-2e-05,-2e-05,-9e-05,5
18854,19521,-4e-05,-8e-05,-1e-05,-2.9999999999999997e-05,-0.00014,-2e-05,-2e-05,-9e-05,5
18855,19522,-4e-05,-8e-05,-1e-05,-2.9999999999999997e-05,-0.00014,-2e-05,-2e-05,-9e-05,5
18856,19523,-4e-05,-8e-05,-1e-05,-2.9999999999999997e-05,-0.00014,-2e-05,-2e-05,-9e-05,5
18857,19524,-4e-05,-8e-05,-1e-05,-2.9999999999999997e-05,-0.00014,-2e-05,-2e-05,-9e-05,5
18858,19525,-4e-05,-8e-05,-1e-05,-2.9999999999999997e-05,-0.00014,-2e-05,-2e-05,-9e-05,5
18859,19526,-4e-05,-8e-05,-1e-05,-2.9999999999999997e-05,-0.00014,-2e-05,-2e-05,-9e-05,5
18860,19527,-4e-05,-8e-05,-1e-05,-2.9999999999999997e-05,-0.00014,-2e-05,-2e-05,-9e-05,5
18861,19528,-4e-05,-8e-05,-1e-05,-2.9999999999999997e-05,-0.00014,-2e-05,-2e-05,-9e-05,5
18862,19529,-4e-05,-8e-05,-1e-05,-2.9999999999999997e-05,-0.00014,-2e-05,-2e-05,-9e-05,5
18863,19530,-4e-05,-8e-05,-1e-05,-2.9999999999999997e-05,-0.00014,-2e-05,-2e-05,-9e-05,5
18864,19531,-4e-05,-8e-05,-1e-05,-2.9999999999999997e-05,-0.00014,-2e-05,-2e-05,-9e-05,5
18865,19532,-1e-05,9e-05,0.0001,7e-05,2e-05,-0.00011999999999999999,-2e-05,-1e-05,5
18866,19533,-7e-05,-7e-05,-0.00014,-0.00016999999999999999,-0.00011,-0.00016,0.0,-5.9999999999999995e-05,5
18867,19534,-7e-05,-7e-05,-0.00014,-0.00016999999999999999,-0.00011,-0.00016,0.0,-5.9999999999999995e-05,5
18868,19535,-7e-05,-7e-05,-0.00014,-0.00016999999999999999,-0.00011,-0.00016,0.0,-5.9999999999999995e-05,5
18869,19536,-7e-05,-7e-05,-0.00014,-0.00016999999999999999,-0.00011,-0.00016,0.0,-5.9999999999999995e-05,5
18870,19538,-7e-05,-7e-05,-0.00014,-0.00016999999999999999,-0.00011,-0.00016,0.0,-5.9999999999999995e-05,5
18871,19539,-7e-05,-7e-05,-0.00014,-0.00016999999999999999,-0.00011,-0.00016,0.0,-5.9999999999999995e-05,5
18872,19540,-7e-05,-7e-05,-0.00014,-0.00016999999999999999,-0.00011,-0.00016,0.0,-5.9999999999999995e-05,5
18873,19541,-7e-05,-7e-05,-0.00014,-0.00016999999999999999,-0.00011,-0.00016,0.0,-5.9999999999999995e-05,5
18874,19542,-7e-05,-7e-05,-0.00014,-0.00016999999999999999,-0.00011,-0.00016,0.0,-5.9999999999999995e-05,5
18875,19543,-7e-05,-7e-05,-0.00014,-0.00016999999999999999,-0.00011,-0.00016,0.0,-5.9999999999999995e-05,5
18876,19544,-7e-05,-7e-05,-0.00014,-0.00016999999999999999,-0.00011,-0.00016,0.0,-5.9999999999999995e-05,5
18877,19545,-7e-05,-7e-05,-0.00014,-0.00016999999999999999,-0.00011,-0.00016,0.0,-5.9999999999999995e-05,5
18878,19546,5.9999999999999995e-05,-5.9999999999999995e-05,-2e-05,0.00014,-2.9999999999999997e-05,0.0001,5.9999999999999995e-05,7e-05,5
18879,19547,-9e-05,-2e-05,2e-05,2e-05,2.9999999999999997e-05,5e-05,0.00011,7e-05,5
18880,19548,-9e-05,-2e-05,2e-05,2e-05,2.9999999999999997e-05,5e-05,0.00011,7e-05,5
18881,19549,-9e-05,-2e-05,2e-05,2e-05,2.9999999999999997e-05,5e-05,0.00011,7e-05,5
18882,19550,-9e-05,-2e-05,2e-05,2e-05,2.9999999999999997e-05,5e-05,0.00011,7e-05,5
18883,19551,-9e-05,-2e-05,2e-05,2e-05,2.9999999999999997e-05,5e-05,0.00011,7e-05,5
18884,19552,-9e-05,-2e-05,2e-05,2e-05,2.9999999999999997e-05,5e-05,0.00011,7e-05,5
18885,19553,-9e-05,-2e-05,2e-05,2e-05,2.9999999999999997e-05,5e-05,0.00011,7e-05,5
18886,19554,-9e-05,-2e-05,2e-05,2e-05,2.9999999999999997e-05,5e-05,0.00011,7e-05,5
18887,19555,-9e-05,-2e-05,2e-05,2e-05,2.9999999999999997e-05,5e-05,0.00011,7e-05,5
18888,19556,-9e-05,-2e-05,2e-05,2e-05,2.9999999999999997e-05,5e-05,0.00011,7e-05,5
18889,19557,-9e-05,-2e-05,2e-05,2e-05,2.9999999999999997e-05,5e-05,0.00011,7e-05,5
18890,19558,-9e-05,-2e-05,2e-05,2e-05,2.9999999999999997e-05,5e-05,0.00011,7e-05,5
18891,19559,-9e-05,-2e-05,2e-05,2e-05,2.9999999999999997e-05,5e-05,0.00011,7e-05,5
18892,19560,-9e-05,-2e-05,2e-05,2e-05,2.9999999999999997e-05,5e-05,0.00011,7e-05,5
18893,19561,-9e-05,-2e-05,2e-05,2e-05,2.9999999999999997e-05,5e-05,0.00011,7e-05,5
18894,19562,-9e-05,-2e-05,2e-05,2e-05,2.9999999999999997e-05,5e-05,0.00011,7e-05,5
18895,19563,-9e-05,-2e-05,2e-05,2e-05,2.9999999999999997e-05,5e-05,0.00011,7e-05,5
18896,19564,-9e-05,-2e-05,2e-05,2e-05,2.9999999999999997e-05,5e-05,0.00011,7e-05,5
18897,19565,-9e-05,-2e-05,2e-05,2e-05,2.9999999999999997e-05,5e-05,0.00011,7e-05,5
18898,19566,-9e-05,-2e-05,2e-05,2e-05,2.9999999999999997e-05,5e-05,0.00011,7e-05,5
18899,19567,-9e-05,-2e-05,2e-05,2e-05,2.9999999999999997e-05,5e-05,0.00011,7e-05,5
18900,19568,-9e-05,-2e-05,2e-05,2e-05,2.9999999999999997e-05,5e-05,0.00011,7e-05,5
18901,19569,-9e-05,-2e-05,2e-05,2e-05,2.9999999999999997e-05,5e-05,0.00011,7e-05,5
18902,19570,-9e-05,-2e-05,2e-05,2e-05,2.9999999999999997e-05,5e-05,0.00011,7e-05,5
18903,19571,-0.0001,-9e-05,2.9999999999999997e-05,-0.00018,-7e-05,0.0,-9e-05,-9e-05,5
18904,19572,-0.0001,-9e-05,2.9999999999999997e-05,-0.00018,-7e-05,0.0,-9e-05,-9e-05,5
18905,19573,-0.0001,-9e-05,2.9999999999999997e-05,-0.00018,-7e-05,0.0,-9e-05,-9e-05,5
18906,19574,-0.0001,-9e-05,2.9999999999999997e-05,-0.00018,-7e-05,0.0,-9e-05,-9e-05,5
18907,19575,-0.0001,-9e-05,2.9999999999999997e-05,-0.00018,-7e-05,0.0,-9e-05,-9e-05,5
18908,19576,-0.0001,-9e-05,2.9999999999999997e-05,-0.00018,-7e-05,0.0,-9e-05,-9e-05,5
18909,19577,-0.0001,-9e-05,2.9999999999999997e-05,-0.00018,-7e-05,0.0,-9e-05,-9e-05,5
18910,19578,-0.0001,-9e-05,2.9999999999999997e-05,-0.00018,-7e-05,0.0,-9e-05,-9e-05,5
18911,19579,-0.0001,-9e-05,2.9999999999999997e-05,-0.00018,-7e-05,0.0,-9e-05,-9e-05,5
18912,19580,-0.0001,-9e-05,2.9999999999999997e-05,-0.00018,-7e-05,0.0,-9e-05,-9e-05,5
18913,19581,-0.0001,-9e-05,2.9999999999999997e-05,-0.00018,-7e-05,0.0,-9e-05,-9e-05,5
18914,19582,-0.0001,-9e-05,2.9999999999999997e-05,-0.00018,-7e-05,0.0,-9e-05,-9e-05,5
18915,19583,-0.0001,-9e-05,2.9999999999999997e-05,-0.00018,-7e-05,0.0,-9e-05,-9e-05,5
18916,19584,-0.0001,-9e-05,2.9999999999999997e-05,-0.00018,-7e-05,0.0,-9e-05,-9e-05,5
18917,19585,-0.0001,-9e-05,2.9999999999999997e-05,-0.00018,-7e-05,0.0,-9e-05,-9e-05,5
18918,19586,-0.0001,-9e-05,2.9999999999999997e-05,-0.00018,-7e-05,0.0,-9e-05,-9e-05,5
18919,19588,-0.0001,-9e-05,2.9999999999999997e-05,-0.00018,-7e-05,0.0,-9e-05,-9e-05,5
18920,19589,-0.0001,-9e-05,2.9999999999999997e-05,-0.00018,-7e-05,0.0,-9e-05,-9e-05,5
18921,19590,-0.0001,-9e-05,2.9999999999999997e-05,-0.00018,-7e-05,0.0,-9e-05,-9e-05,5
18922,19591,-0.0001,-9e-05,2.9999999999999997e-05,-0.00018,-7e-05,0.0,-9e-05,-9e-05,5
18923,19592,4e-05,-2.9999999999999997e-05,1e-05,-0.00011999999999999999,-8e-05,0.00013000000000000002,1e-05,-1e-05,5
18924,19593,5.9999999999999995e-05,2e-05,0.0,8e-05,0.00049,0.0001,-2.9999999999999997e-05,1e-05,5
18925,19594,5.9999999999999995e-05,2e-05,0.0,8e-05,0.00049,0.0001,-2.9999999999999997e-05,1e-05,5
18926,19595,5.9999999999999995e-05,2e-05,0.0,8e-05,0.00049,0.0001,-2.9999999999999997e-05,1e-05,5
18927,19596,5.9999999999999995e-05,2e-05,0.0,8e-05,0.00049,0.0001,-2.9999999999999997e-05,1e-05,5
18928,19597,5.9999999999999995e-05,2e-05,0.0,8e-05,0.00049,0.0001,-2.9999999999999997e-05,1e-05,5
18929,19598,5.9999999999999995e-05,2e-05,0.0,8e-05,0.00049,0.0001,-2.9999999999999997e-05,1e-05,5
18930,19599,5.9999999999999995e-05,2e-05,0.0,8e-05,0.00049,0.0001,-2.9999999999999997e-05,1e-05,5
18931,19600,5.9999999999999995e-05,2e-05,0.0,8e-05,0.00049,0.0001,-2.9999999999999997e-05,1e-05,5
18932,19601,5.9999999999999995e-05,2e-05,0.0,8e-05,0.00049,0.0001,-2.9999999999999997e-05,1e-05,5
18933,19602,5.9999999999999995e-05,2e-05,0.0,8e-05,0.00049,0.0001,-2.9999999999999997e-05,1e-05,5
18934,19603,5.9999999999999995e-05,2e-05,0.0,8e-05,0.00049,0.0001,-2.9999999999999997e-05,1e-05,5
18935,19604,5.9999999999999995e-05,2e-05,0.0,8e-05,0.00049,0.0001,-2.9999999999999997e-05,1e-05,5
18936,19605,5.9999999999999995e-05,2e-05,0.0,8e-05,0.00049,0.0001,-2.9999999999999997e-05,1e-05,5
18937,19606,-0.00011,-9e-05,-0.0001,0.0,-2.9999999999999997e-05,-5.9999999999999995e-05,0.0,-0.0001,5
18938,19607,-0.00011,-9e-05,-0.0001,0.0,-2.9999999999999997e-05,-5.9999999999999995e-05,0.0,-0.0001,5
18939,19608,-0.00011,-9e-05,-0.0001,0.0,-2.9999999999999997e-05,-5.9999999999999995e-05,0.0,-0.0001,5
18940,19609,-0.00011,-9e-05,-0.0001,0.0,-2.9999999999999997e-05,-5.9999999999999995e-05,0.0,-0.0001,5
18941,19610,-0.00011,-9e-05,-0.0001,0.0,-2.9999999999999997e-05,-5.9999999999999995e-05,0.0,-0.0001,5
18942,19611,-0.00011,-9e-05,-0.0001,0.0,-2.9999999999999997e-05,-5.9999999999999995e-05,0.0,-0.0001,5
18943,19612,-0.00011,-9e-05,-0.0001,0.0,-2.9999999999999997e-05,-5.9999999999999995e-05,0.0,-0.0001,5
18944,19613,-0.00011,-9e-05,-0.0001,0.0,-2.9999999999999997e-05,-5.9999999999999995e-05,0.0,-0.0001,5
18945,19614,2.9999999999999997e-05,0.0,1e-05,0.0005,5.9999999999999995e-05,2e-05,4e-05,0.0001,5
18946,19615,2.9999999999999997e-05,0.0,1e-05,0.0005,5.9999999999999995e-05,2e-05,4e-05,0.0001,5
18947,19616,2.9999999999999997e-05,0.0,1e-05,0.0005,5.9999999999999995e-05,2e-05,4e-05,0.0001,5
18948,19617,2.9999999999999997e-05,0.0,1e-05,0.0005,5.9999999999999995e-05,2e-05,4e-05,0.0001,5
18949,19618,2.9999999999999997e-05,0.0,1e-05,0.0005,5.9999999999999995e-05,2e-05,4e-05,0.0001,5
18950,19619,2.9999999999999997e-05,0.0,1e-05,0.0005,5.9999999999999995e-05,2e-05,4e-05,0.0001,5
18951,19620,2.9999999999999997e-05,0.0,1e-05,0.0005,5.9999999999999995e-05,2e-05,4e-05,0.0001,5
18952,19621,2.9999999999999997e-05,0.0,1e-05,0.0005,5.9999999999999995e-05,2e-05,4e-05,0.0001,5
18953,19622,2.9999999999999997e-05,0.0,1e-05,0.0005,5.9999999999999995e-05,2e-05,4e-05,0.0001,5
18954,19623,2.9999999999999997e-05,0.0,1e-05,0.0005,5.9999999999999995e-05,2e-05,4e-05,0.0001,5
18955,19624,2.9999999999999997e-05,0.0,1e-05,0.0005,5.9999999999999995e-05,2e-05,4e-05,0.0001,5
18956,19625,2.9999999999999997e-05,0.0,1e-05,0.0005,5.9999999999999995e-05,2e-05,4e-05,0.0001,5
18957,19626,2.9999999999999997e-05,0.0,1e-05,0.0005,5.9999999999999995e-05,2e-05,4e-05,0.0001,5
18958,19627,2.9999999999999997e-05,0.0,1e-05,0.0005,5.9999999999999995e-05,2e-05,4e-05,0.0001,5
18959,19628,2.9999999999999997e-05,0.0,1e-05,0.0005,5.9999999999999995e-05,2e-05,4e-05,0.0001,5
18960,19629,2.9999999999999997e-05,0.0,1e-05,0.0005,5.9999999999999995e-05,2e-05,4e-05,0.0001,5
18961,19630,1e-05,8e-05,5e-05,-0.00025,-0.00014,-2e-05,4e-05,-2e-05,5
18962,19631,1e-05,0.00011999999999999999,0.00016999999999999999,0.00063,0.00032,2.9999999999999997e-05,-5.9999999999999995e-05,-5e-05,5
18963,19632,2e-05,-8e-05,-2e-05,0.00026000000000000003,0.00025,0.00011999999999999999,-7e-05,-2.9999999999999997e-05,5
18964,19633,2e-05,-8e-05,-2e-05,0.00026000000000000003,0.00025,0.00011999999999999999,-7e-05,-2.9999999999999997e-05,5
18965,19634,2e-05,-8e-05,-2e-05,0.00026000000000000003,0.00025,0.00011999999999999999,-7e-05,-2.9999999999999997e-05,5
18966,19635,2e-05,-8e-05,-2e-05,0.00026000000000000003,0.00025,0.00011999999999999999,-7e-05,-2.9999999999999997e-05,5
18967,19636,2e-05,-8e-05,-2e-05,0.00026000000000000003,0.00025,0.00011999999999999999,-7e-05,-2.9999999999999997e-05,5
18968,19638,2e-05,-8e-05,-2e-05,0.00026000000000000003,0.00025,0.00011999999999999999,-7e-05,-2.9999999999999997e-05,5
18969,19639,2e-05,-8e-05,-2e-05,0.00026000000000000003,0.00025,0.00011999999999999999,-7e-05,-2.9999999999999997e-05,5
18970,19640,2e-05,-8e-05,-2e-05,0.00026000000000000003,0.00025,0.00011999999999999999,-7e-05,-2.9999999999999997e-05,5
18971,19641,2e-05,-8e-05,-2e-05,0.00026000000000000003,0.00025,0.00011999999999999999,-7e-05,-2.9999999999999997e-05,5
18972,19642,2e-05,-8e-05,-2e-05,0.00026000000000000003,0.00025,0.00011999999999999999,-7e-05,-2.9999999999999997e-05,5
18973,19643,2e-05,-8e-05,-2e-05,0.00026000000000000003,0.00025,0.00011999999999999999,-7e-05,-2.9999999999999997e-05,5
18974,19644,2e-05,-8e-05,-2e-05,0.00026000000000000003,0.00025,0.00011999999999999999,-7e-05,-2.9999999999999997e-05,5
18975,19645,2e-05,-8e-05,-2e-05,0.00026000000000000003,0.00025,0.00011999999999999999,-7e-05,-2.9999999999999997e-05,5
18976,19646,2e-05,-8e-05,-2e-05,0.00026000000000000003,0.00025,0.00011999999999999999,-7e-05,-2.9999999999999997e-05,5
18977,19647,2e-05,-8e-05,-2e-05,0.00026000000000000003,0.00025,0.00011999999999999999,-7e-05,-2.9999999999999997e-05,5
18978,19648,2e-05,-8e-05,-2e-05,0.00026000000000000003,0.00025,0.00011999999999999999,-7e-05,-2.9999999999999997e-05,5
18979,19649,2e-05,-8e-05,-2e-05,0.00026000000000000003,0.00025,0.00011999999999999999,-7e-05,-2.9999999999999997e-05,5
18980,19650,2e-05,-8e-05,-2e-05,0.00026000000000000003,0.00025,0.00011999999999999999,-7e-05,-2.9999999999999997e-05,5
18981,19651,2e-05,-8e-05,-2e-05,0.00026000000000000003,0.00025,0.00011999999999999999,-7e-05,-2.9999999999999997e-05,5
18982,19652,2e-05,-8e-05,-2e-05,0.00026000000000000003,0.00025,0.00011999999999999999,-7e-05,-2.9999999999999997e-05,5
18983,19653,1e-05,0.0,2e-05,-0.00018,-0.00028,-2.9999999999999997e-05,0.0,-2e-05,5
18984,19654,0.0,9e-05,1e-05,-0.00029,-0.0001,-4e-05,-2e-05,-2.9999999999999997e-05,5
18985,19655,0.0,9e-05,1e-05,-0.00029,-0.0001,-4e-05,-2e-05,-2.9999999999999997e-05,5
18986,19656,0.0,9e-05,1e-05,-0.00029,-0.0001,-4e-05,-2e-05,-2.9999999999999997e-05,5
18987,19657,0.0,9e-05,1e-05,-0.00029,-0.0001,-4e-05,-2e-05,-2.9999999999999997e-05,5
18988,19658,0.0,9e-05,1e-05,-0.00029,-0.0001,-4e-05,-2e-05,-2.9999999999999997e-05,5
18989,19659,0.0,9e-05,1e-05,-0.00029,-0.0001,-4e-05,-2e-05,-2.9999999999999997e-05,5
18990,19660,0.0,9e-05,1e-05,-0.00029,-0.0001,-4e-05,-2e-05,-2.9999999999999997e-05,5
18991,19661,0.0,9e-05,1e-05,-0.00029,-0.0001,-4e-05,-2e-05,-2.9999999999999997e-05,5
18992,19662,0.0,9e-05,1e-05,-0.00029,-0.0001,-4e-05,-2e-05,-2.9999999999999997e-05,5
18993,19663,0.0,9e-05,1e-05,-0.00029,-0.0001,-4e-05,-2e-05,-2.9999999999999997e-05,5
18994,19664,0.0,9e-05,1e-05,-0.00029,-0.0001,-4e-05,-2e-05,-2.9999999999999997e-05,5
18995,19665,0.0,9e-05,1e-05,-0.00029,-0.0001,-4e-05,-2e-05,-2.9999999999999997e-05,5
18996,19666,-8e-05,-0.0001,-5e-05,-0.0003,-0.00011,2e-05,-5e-05,-5e-05,5
18997,19667,-8e-05,-0.0001,-5e-05,-0.0003,-0.00011,2e-05,-5e-05,-5e-05,5
18998,19668,-8e-05,-0.0001,-5e-05,-0.0003,-0.00011,2e-05,-5e-05,-5e-05,5
18999,19669,-8e-05,-0.0001,-5e-05,-0.0003,-0.00011,2e-05,-5e-05,-5e-05,5
19000,19670,-8e-05,-0.0001,-5e-05,-0.0003,-0.00011,2e-05,-5e-05,-5e-05,5
19001,19671,-8e-05,-0.0001,-5e-05,-0.0003,-0.00011,2e-05,-5e-05,-5e-05,5
19002,19672,-8e-05,-0.0001,-5e-05,-0.0003,-0.00011,2e-05,-5e-05,-5e-05,5
19003,19673,-8e-05,-0.0001,-5e-05,-0.0003,-0.00011,2e-05,-5e-05,-5e-05,5
19004,19674,-8e-05,-0.0001,-5e-05,-0.0003,-0.00011,2e-05,-5e-05,-5e-05,5
19005,19675,0.0001,0.00011999999999999999,7e-05,-0.00022999999999999998,5e-05,-5e-05,4e-05,2e-05,5
19006,19676,0.0001,0.00011999999999999999,7e-05,-0.00022999999999999998,5e-05,-5e-05,4e-05,2e-05,5
19007,19677,0.0001,0.00011999999999999999,7e-05,-0.00022999999999999998,5e-05,-5e-05,4e-05,2e-05,5
19008,19678,0.0001,0.00011999999999999999,7e-05,-0.00022999999999999998,5e-05,-5e-05,4e-05,2e-05,5
19009,19679,0.0001,0.00011999999999999999,7e-05,-0.00022999999999999998,5e-05,-5e-05,4e-05,2e-05,5
19010,19680,0.0001,0.00011999999999999999,7e-05,-0.00022999999999999998,5e-05,-5e-05,4e-05,2e-05,5
19011,19681,0.0001,0.00011999999999999999,7e-05,-0.00022999999999999998,5e-05,-5e-05,4e-05,2e-05,5
19012,19682,0.0001,0.00011999999999999999,7e-05,-0.00022999999999999998,5e-05,-5e-05,4e-05,2e-05,5
19013,19683,0.0001,0.00011999999999999999,7e-05,-0.00022999999999999998,5e-05,-5e-05,4e-05,2e-05,5
19014,19684,0.0001,0.00011999999999999999,7e-05,-0.00022999999999999998,5e-05,-5e-05,4e-05,2e-05,5
19015,19685,0.0001,0.00011999999999999999,7e-05,-0.00022999999999999998,5e-05,-5e-05,4e-05,2e-05,5
19016,19686,0.0001,0.00011999999999999999,7e-05,-0.00022999999999999998,5e-05,-5e-05,4e-05,2e-05,5
19017,19688,0.0001,0.00011999999999999999,7e-05,-0.00022999999999999998,5e-05,-5e-05,4e-05,2e-05,5
19018,19689,0.0001,0.00011999999999999999,7e-05,-0.00022999999999999998,5e-05,-5e-05,4e-05,2e-05,5
19019,19690,0.0001,0.00011999999999999999,7e-05,-0.00022999999999999998,5e-05,-5e-05,4e-05,2e-05,5
19020,19691,0.0001,0.00011999999999999999,7e-05,-0.00022999999999999998,5e-05,-5e-05,4e-05,2e-05,5
19021,19692,0.0001,0.00011999999999999999,7e-05,-0.00022999999999999998,5e-05,-5e-05,4e-05,2e-05,5
19022,19693,0.0001,0.00011999999999999999,7e-05,-0.00022999999999999998,5e-05,-5e-05,4e-05,2e-05,5
19023,19694,0.0001,0.00011999999999999999,7e-05,-0.00022999999999999998,5e-05,-5e-05,4e-05,2e-05,5
19024,19695,0.0001,0.00011999999999999999,7e-05,-0.00022999999999999998,5e-05,-5e-05,4e-05,2e-05,5
19025,19696,0.0001,0.00011999999999999999,7e-05,-0.00022999999999999998,5e-05,-5e-05,4e-05,2e-05,5
19026,19697,2.9999999999999997e-05,-1e-05,-1e-05,-0.00022,0.00026000000000000003,-5e-05,-2.9999999999999997e-05,-5.9999999999999995e-05,5
19027,19698,2.9999999999999997e-05,-1e-05,-1e-05,-0.00022,0.00026000000000000003,-5e-05,-2.9999999999999997e-05,-5.9999999999999995e-05,5
19028,19699,-8e-05,-0.00018999999999999998,-0.00033999999999999997,0.00015,-9e-05,-0.00011,-2.9999999999999997e-05,-2e-05,5
19029,19700,-8e-05,-0.00018999999999999998,-0.00033999999999999997,0.00015,-9e-05,-0.00011,-2.9999999999999997e-05,-2e-05,5
19030,19701,-8e-05,-0.00018999999999999998,-0.00033999999999999997,0.00015,-9e-05,-0.00011,-2.9999999999999997e-05,-2e-05,5
19031,19702,-8e-05,-0.00018999999999999998,-0.00033999999999999997,0.00015,-9e-05,-0.00011,-2.9999999999999997e-05,-2e-05,5
19032,19703,-8e-05,-0.00018999999999999998,-0.00033999999999999997,0.00015,-9e-05,-0.00011,-2.9999999999999997e-05,-2e-05,5
