,time,channel1,channel2,channel3,channel4,channel5,channel6,channel7,channel8,class
20753,21733,0.00011,-5.9999999999999995e-05,0.0005200000000000001,0.0012,0.00021,-0.00015,-9e-05,-2e-05,5
20754,21734,0.00011,-5.9999999999999995e-05,0.0005200000000000001,0.0012,0.00021,-0.00015,-9e-05,-2e-05,5
20755,21735,0.00011,-5.9999999999999995e-05,0.0005200000000000001,0.0012,0.00021,-0.00015,-9e-05,-2e-05,5
20756,21736,0.00011,-5.9999999999999995e-05,0.0005200000000000001,0.0012,0.00021,-0.00015,-9e-05,-2e-05,5
20757,21738,0.00011,-5.9999999999999995e-05,0.0005200000000000001,0.0012,0.00021,-0.00015,-9e-05,-2e-05,5
20758,21739,0.00011,-5.9999999999999995e-05,0.0005200000000000001,0.0012,0.00021,-0.00015,-9e-05,-2e-05,5
20759,21740,0.00011,-5.9999999999999995e-05,0.0005200000000000001,0.0012,0.00021,-0.00015,-9e-05,-2e-05,5
20760,21741,0.00011,-5.9999999999999995e-05,0.0005200000000000001,0.0012,0.00021,-0.00015,-9e-05,-2e-05,5
20761,21742,0.00011,-5.9999999999999995e-05,0.0005200000000000001,0.0012,0.00021,-0.00015,-9e-05,-2e-05,5
20762,21743,0.00031,-5e-05,0.00062,0.00018999999999999998,-0.00058,-9e-05,-4e-05,-5e-05,5
20763,21744,0.00031,-5e-05,0.00062,0.00018999999999999998,-0.00058,-9e-05,-4e-05,-5e-05,5
20764,21745,0.00031,-5e-05,0.00062,0.00018999999999999998,-0.00058,-9e-05,-4e-05,-5e-05,5
20765,21746,0.00031,-5e-05,0.00062,0.00018999999999999998,-0.00058,-9e-05,-4e-05,-5e-05,5
20766,21747,0.00031,-5e-05,0.00062,0.00018999999999999998,-0.00058,-9e-05,-4e-05,-5e-05,5
20767,21748,0.00031,-5e-05,0.00062,0.00018999999999999998,-0.00058,-9e-05,-4e-05,-5e-05,5
20768,21749,0.00031,-5e-05,0.00062,0.00018999999999999998,-0.00058,-9e-05,-4e-05,-5e-05,5
20769,21750,8e-05,0.0,-0.00029,-0.00035,4e-05,0.00015,5.9999999999999995e-05,-5e-05,5
20770,21751,8e-05,0.0,-0.00029,-0.00035,4e-05,0.00015,5.9999999999999995e-05,-5e-05,5
20771,21752,8e-05,0.0,-0.00029,-0.00035,4e-05,0.00015,5.9999999999999995e-05,-5e-05,5
20772,21753,8e-05,0.0,-0.00029,-0.00035,4e-05,0.00015,5.9999999999999995e-05,-5e-05,5
20773,21754,8e-05,0.0,-0.00029,-0.00035,4e-05,0.00015,5.9999999999999995e-05,-5e-05,5
20774,21755,8e-05,0.0,-0.00029,-0.00035,4e-05,0.00015,5.9999999999999995e-05,-5e-05,5
20775,21756,8e-05,0.0,-0.00029,-0.00035,4e-05,0.00015,5.9999999999999995e-05,-5e-05,5
20776,21757,8e-05,0.0,-0.00029,-0.00035,4e-05,0.00015,5.9999999999999995e-05,-5e-05,5
20777,21758,8e-05,0.0,-0.00029,-0.00035,4e-05,0.00015,5.9999999999999995e-05,-5e-05,5
20778,21759,8e-05,0.0,-0.00029,-0.00035,4e-05,0.00015,5.9999999999999995e-05,-5e-05,5
20779,21760,8e-05,0.0,-0.00029,-0.00035,4e-05,0.00015,5.9999999999999995e-05,-5e-05,5
20780,21761,8e-05,0.0,-0.00029,-0.00035,4e-05,0.00015,5.9999999999999995e-05,-5e-05,5
20781,21762,8e-05,0.0,-0.00029,-0.00035,4e-05,0.00015,5.9999999999999995e-05,-5e-05,5
20782,21763,8e-05,0.0,-0.00029,-0.00035,4e-05,0.00015,5.9999999999999995e-05,-5e-05,5
20783,21764,8e-05,0.0,-0.00029,-0.00035,4e-05,0.00015,5.9999999999999995e-05,-5e-05,5
20784,21765,8e-05,0.0,-0.00029,-0.00035,4e-05,0.00015,5.9999999999999995e-05,-5e-05,5
20785,21766,-0.00016999999999999999,-4e-05,-0.0007599999999999999,-0.00022,-0.00014,-9e-05,0.0,-0.00013000000000000002,5
20786,21767,-0.00014,0.00011,-9e-05,0.00018,-0.0001,-9e-05,-4e-05,-2.9999999999999997e-05,5
20787,21768,-0.00014,0.00011,-9e-05,0.00018,-0.0001,-9e-05,-4e-05,-2.9999999999999997e-05,5
20788,21769,-0.00014,0.00011,-9e-05,0.00018,-0.0001,-9e-05,-4e-05,-2.9999999999999997e-05,5
20789,21770,-0.00014,0.00011,-9e-05,0.00018,-0.0001,-9e-05,-4e-05,-2.9999999999999997e-05,5
20790,21771,-0.00014,0.00011,-9e-05,0.00018,-0.0001,-9e-05,-4e-05,-2.9999999999999997e-05,5
20791,21772,-0.00014,0.00011,-9e-05,0.00018,-0.0001,-9e-05,-4e-05,-2.9999999999999997e-05,5
20792,21773,-0.00014,0.00011,-9e-05,0.00018,-0.0001,-9e-05,-4e-05,-2.9999999999999997e-05,5
20793,21774,-0.00014,0.00011,-9e-05,0.00018,-0.0001,-9e-05,-4e-05,-2.9999999999999997e-05,5
20794,21775,-0.00014,0.00011,-9e-05,0.00018,-0.0001,-9e-05,-4e-05,-2.9999999999999997e-05,5
20795,21776,-0.00014,0.00011,-9e-05,0.00018,-0.0001,-9e-05,-4e-05,-2.9999999999999997e-05,5
20796,21777,-0.00014,0.00011,-9e-05,0.00018,-0.0001,-9e-05,-4e-05,-2.9999999999999997e-05,5
20797,21778,-0.00014,0.00011,-9e-05,0.00018,-0.0001,-9e-05,-4e-05,-2.9999999999999997e-05,5
20798,21779,-0.00014,0.00011,-9e-05,0.00018,-0.0001,-9e-05,-4e-05,-2.9999999999999997e-05,5
20799,21780,-0.00014,0.00011,-9e-05,0.00018,-0.0001,-9e-05,-4e-05,-2.9999999999999997e-05,5
20800,21781,-0.00014,0.00011,-9e-05,0.00018,-0.0001,-9e-05,-4e-05,-2.9999999999999997e-05,5
20801,21782,-0.00014,0.00011,-9e-05,0.00018,-0.0001,-9e-05,-4e-05,-2.9999999999999997e-05,5
20802,21783,-0.00014,0.00011,-9e-05,0.00018,-0.0001,-9e-05,-4e-05,-2.9999999999999997e-05,5
20803,21784,-0.00014,0.00011,-9e-05,0.00018,-0.0001,-9e-05,-4e-05,-2.9999999999999997e-05,5
20804,21785,-0.00014,0.00011,-9e-05,0.00018,-0.0001,-9e-05,-4e-05,-2.9999999999999997e-05,5
20805,21786,-0.00014,0.00011,-9e-05,0.00018,-0.0001,-9e-05,-4e-05,-2.9999999999999997e-05,5
20806,21788,-0.00014,0.00011,-9e-05,0.00018,-0.0001,-9e-05,-4e-05,-2.9999999999999997e-05,5
20807,21789,-9e-05,-8e-05,0.00039,0.00053,0.00016999999999999999,-5e-05,-2.9999999999999997e-05,2e-05,5
20808,21790,-0.00026000000000000003,0.00033999999999999997,0.00056,-0.00054,0.00028,0.00023999999999999998,0.00014,0.00014,5
20809,21791,-0.00026000000000000003,0.00033999999999999997,0.00056,-0.00054,0.00028,0.00023999999999999998,0.00014,0.00014,5
20810,21792,-0.00026000000000000003,0.00033999999999999997,0.00056,-0.00054,0.00028,0.00023999999999999998,0.00014,0.00014,5
20811,21793,-0.00026000000000000003,0.00033999999999999997,0.00056,-0.00054,0.00028,0.00023999999999999998,0.00014,0.00014,5
20812,21794,-0.00026000000000000003,0.00033999999999999997,0.00056,-0.00054,0.00028,0.00023999999999999998,0.00014,0.00014,5
20813,21795,-0.00026000000000000003,0.00033999999999999997,0.00056,-0.00054,0.00028,0.00023999999999999998,0.00014,0.00014,5
20814,21796,-0.00026000000000000003,0.00033999999999999997,0.00056,-0.00054,0.00028,0.00023999999999999998,0.00014,0.00014,5
20815,21797,-0.00026000000000000003,0.00033999999999999997,0.00056,-0.00054,0.00028,0.00023999999999999998,0.00014,0.00014,5
20816,21798,-0.00026000000000000003,0.00033999999999999997,0.00056,-0.00054,0.00028,0.00023999999999999998,0.00014,0.00014,5
20817,21799,-0.00026000000000000003,0.00033999999999999997,0.00056,-0.00054,0.00028,0.00023999999999999998,0.00014,0.00014,5
20818,21800,-0.00026000000000000003,0.00033999999999999997,0.00056,-0.00054,0.00028,0.00023999999999999998,0.00014,0.00014,5
20819,21801,-0.00026000000000000003,0.00033999999999999997,0.00056,-0.00054,0.00028,0.00023999999999999998,0.00014,0.00014,5
20820,21802,-0.00026000000000000003,0.00033999999999999997,0.00056,-0.00054,0.00028,0.00023999999999999998,0.00014,0.00014,5
20821,21803,-0.00027,-0.00018999999999999998,0.0,-0.00119,-0.00041,-0.00016999999999999999,-0.00011999999999999999,-4e-05,5
20822,21804,-0.00027,-0.00018999999999999998,0.0,-0.00119,-0.00041,-0.00016999999999999999,-0.00011999999999999999,-4e-05,5
20823,21805,-0.00027,-0.00018999999999999998,0.0,-0.00119,-0.00041,-0.00016999999999999999,-0.00011999999999999999,-4e-05,5
20824,21806,-0.00027,-0.00018999999999999998,0.0,-0.00119,-0.00041,-0.00016999999999999999,-0.00011999999999999999,-4e-05,5
20825,21807,-0.00027,-0.00018999999999999998,0.0,-0.00119,-0.00041,-0.00016999999999999999,-0.00011999999999999999,-4e-05,5
20826,21808,-0.00027,-0.00018999999999999998,0.0,-0.00119,-0.00041,-0.00016999999999999999,-0.00011999999999999999,-4e-05,5
20827,21809,0.00027,2.9999999999999997e-05,-7e-05,0.0011,0.00055,7e-05,0.0,-5e-05,5
20828,21810,-8e-05,0.00018,0.00066,-0.00086,-0.00011,8e-05,8e-05,0.00011,5
20829,21811,-8e-05,0.00018,0.00066,-0.00086,-0.00011,8e-05,8e-05,0.00011,5
20830,21812,-8e-05,0.00018,0.00066,-0.00086,-0.00011,8e-05,8e-05,0.00011,5
20831,21813,-8e-05,0.00018,0.00066,-0.00086,-0.00011,8e-05,8e-05,0.00011,5
20832,21814,-8e-05,0.00018,0.00066,-0.00086,-0.00011,8e-05,8e-05,0.00011,5
20833,21815,-8e-05,0.00018,0.00066,-0.00086,-0.00011,8e-05,8e-05,0.00011,5
20834,21816,-8e-05,0.00018,0.00066,-0.00086,-0.00011,8e-05,8e-05,0.00011,5
20835,21817,-8e-05,0.00018,0.00066,-0.00086,-0.00011,8e-05,8e-05,0.00011,5
20836,21818,-8e-05,0.00018,0.00066,-0.00086,-0.00011,8e-05,8e-05,0.00011,5
20837,21819,-8e-05,0.00018,0.00066,-0.00086,-0.00011,8e-05,8e-05,0.00011,5
20838,21820,-8e-05,0.00018,0.00066,-0.00086,-0.00011,8e-05,8e-05,0.00011,5
20839,21821,-8e-05,0.00018,0.00066,-0.00086,-0.00011,8e-05,8e-05,0.00011,5
20840,21822,-8e-05,0.00018,0.00066,-0.00086,-0.00011,8e-05,8e-05,0.00011,5
20841,21823,-8e-05,0.00018,0.00066,-0.00086,-0.00011,8e-05,8e-05,0.00011,5
20842,21824,-8e-05,0.00018,0.00066,-0.00086,-0.00011,8e-05,8e-05,0.00011,5
20843,21825,-8e-05,0.00018,0.00066,-0.00086,-0.00011,8e-05,8e-05,0.00011,5
20844,21826,-8e-05,0.00018,0.00066,-0.00086,-0.00011,8e-05,8e-05,0.00011,5
20845,21827,-8e-05,0.00018,0.00066,-0.00086,-0.00011,8e-05,8e-05,0.00011,5
20846,21828,-8e-05,0.00018,0.00066,-0.00086,-0.00011,8e-05,8e-05,0.00011,5
20847,21829,-8e-05,0.00018,0.00066,-0.00086,-0.00011,8e-05,8e-05,0.00011,5
20848,21830,-8e-05,0.00018,0.00066,-0.00086,-0.00011,8e-05,8e-05,0.00011,5
20849,21831,-8e-05,0.00018,0.00066,-0.00086,-0.00011,8e-05,8e-05,0.00011,5
20850,21832,-8e-05,0.00018,0.00066,-0.00086,-0.00011,8e-05,8e-05,0.00011,5
20851,21833,-0.00028,-0.00016,-0.00044,0.00021,-1e-05,0.00025,8e-05,-0.00018,5
20852,21834,-0.00028,-0.00016,-0.00044,0.00021,-1e-05,0.00025,8e-05,-0.00018,5
20853,21835,0.00022999999999999998,0.00022,5.9999999999999995e-05,-7e-05,-0.00014,4e-05,5e-05,4e-05,5
20854,21836,0.00022999999999999998,0.00022,5.9999999999999995e-05,-7e-05,-0.00014,4e-05,5e-05,4e-05,5
20855,21839,0.00022999999999999998,0.00022,5.9999999999999995e-05,-7e-05,-0.00014,4e-05,5e-05,4e-05,5
20856,21840,0.00022999999999999998,0.00022,5.9999999999999995e-05,-7e-05,-0.00014,4e-05,5e-05,4e-05,5
20857,21841,0.00022999999999999998,0.00022,5.9999999999999995e-05,-7e-05,-0.00014,4e-05,5e-05,4e-05,5
20858,21842,0.00022999999999999998,0.00022,5.9999999999999995e-05,-7e-05,-0.00014,4e-05,5e-05,4e-05,5
20859,21843,0.00022999999999999998,0.00022,5.9999999999999995e-05,-7e-05,-0.00014,4e-05,5e-05,4e-05,5
20860,21844,0.00022999999999999998,0.00022,5.9999999999999995e-05,-7e-05,-0.00014,4e-05,5e-05,4e-05,5
20861,21845,0.00022999999999999998,0.00022,5.9999999999999995e-05,-7e-05,-0.00014,4e-05,5e-05,4e-05,5
20862,21846,0.00022999999999999998,0.00022,5.9999999999999995e-05,-7e-05,-0.00014,4e-05,5e-05,4e-05,5
20863,21847,0.00022999999999999998,0.00022,5.9999999999999995e-05,-7e-05,-0.00014,4e-05,5e-05,4e-05,5
20864,21848,7e-05,-0.0001,-0.00027,-0.00011999999999999999,-0.00047000000000000004,0.00011,-5.9999999999999995e-05,-2.9999999999999997e-05,5
20865,21849,7e-05,-0.0001,-0.00027,-0.00011999999999999999,-0.00047000000000000004,0.00011,-5.9999999999999995e-05,-2.9999999999999997e-05,5
20866,21850,-0.00033999999999999997,0.00013000000000000002,0.0006,0.00028,0.00018999999999999998,-5.9999999999999995e-05,-2e-05,-4e-05,5
20867,21851,-0.00033999999999999997,0.00013000000000000002,0.0006,0.00028,0.00018999999999999998,-5.9999999999999995e-05,-2e-05,-4e-05,5
20868,21852,-0.00033999999999999997,0.00013000000000000002,0.0006,0.00028,0.00018999999999999998,-5.9999999999999995e-05,-2e-05,-4e-05,5
20869,21853,-0.00033999999999999997,0.00013000000000000002,0.0006,0.00028,0.00018999999999999998,-5.9999999999999995e-05,-2e-05,-4e-05,5
20870,21854,-0.00033999999999999997,0.00013000000000000002,0.0006,0.00028,0.00018999999999999998,-5.9999999999999995e-05,-2e-05,-4e-05,5
20871,21855,-0.00033999999999999997,0.00013000000000000002,0.0006,0.00028,0.00018999999999999998,-5.9999999999999995e-05,-2e-05,-4e-05,5
20872,21856,-0.00033999999999999997,0.00013000000000000002,0.0006,0.00028,0.00018999999999999998,-5.9999999999999995e-05,-2e-05,-4e-05,5
20873,21857,-0.00033999999999999997,0.00013000000000000002,0.0006,0.00028,0.00018999999999999998,-5.9999999999999995e-05,-2e-05,-4e-05,5
20874,21858,-0.00033999999999999997,0.00013000000000000002,0.0006,0.00028,0.00018999999999999998,-5.9999999999999995e-05,-2e-05,-4e-05,5
20875,21859,-0.00033999999999999997,0.00013000000000000002,0.0006,0.00028,0.00018999999999999998,-5.9999999999999995e-05,-2e-05,-4e-05,5
20876,21860,-0.00033999999999999997,0.00013000000000000002,0.0006,0.00028,0.00018999999999999998,-5.9999999999999995e-05,-2e-05,-4e-05,5
20877,21861,-0.00033999999999999997,0.00013000000000000002,0.0006,0.00028,0.00018999999999999998,-5.9999999999999995e-05,-2e-05,-4e-05,5
20878,21862,-0.00033999999999999997,0.00013000000000000002,0.0006,0.00028,0.00018999999999999998,-5.9999999999999995e-05,-2e-05,-4e-05,5
20879,21863,5e-05,-9e-05,2e-05,0.00042,-0.00036,-0.00023999999999999998,-5.9999999999999995e-05,4e-05,5
20880,21864,5e-05,-9e-05,2e-05,0.00042,-0.00036,-0.00023999999999999998,-5.9999999999999995e-05,4e-05,5
20881,21865,5e-05,-9e-05,2e-05,0.00042,-0.00036,-0.00023999999999999998,-5.9999999999999995e-05,4e-05,5
20882,21866,5e-05,-9e-05,2e-05,0.00042,-0.00036,-0.00023999999999999998,-5.9999999999999995e-05,4e-05,5
20883,21867,5e-05,-9e-05,2e-05,0.00042,-0.00036,-0.00023999999999999998,-5.9999999999999995e-05,4e-05,5
20884,21868,5e-05,-9e-05,2e-05,0.00042,-0.00036,-0.00023999999999999998,-5.9999999999999995e-05,4e-05,5
20885,21869,-0.00022999999999999998,5.9999999999999995e-05,0.00018999999999999998,0.00023999999999999998,-0.00044,-5.9999999999999995e-05,-0.00013000000000000002,-4e-05,5
20886,21870,2.9999999999999997e-05,-0.00023999999999999998,-0.00036,0.00061,0.0005099999999999999,0.00011,2e-05,2e-05,5
20887,21871,2.9999999999999997e-05,-0.00023999999999999998,-0.00036,0.00061,0.0005099999999999999,0.00011,2e-05,2e-05,5
20888,21872,2.9999999999999997e-05,-0.00023999999999999998,-0.00036,0.00061,0.0005099999999999999,0.00011,2e-05,2e-05,5
20889,21873,2.9999999999999997e-05,-0.00023999999999999998,-0.00036,0.00061,0.0005099999999999999,0.00011,2e-05,2e-05,5
20890,21874,2.9999999999999997e-05,-0.00023999999999999998,-0.00036,0.00061,0.0005099999999999999,0.00011,2e-05,2e-05,5
20891,21875,2.9999999999999997e-05,-0.00023999999999999998,-0.00036,0.00061,0.0005099999999999999,0.00011,2e-05,2e-05,5
20892,21876,2.9999999999999997e-05,-0.00023999999999999998,-0.00036,0.00061,0.0005099999999999999,0.00011,2e-05,2e-05,5
20893,21877,2.9999999999999997e-05,-0.00023999999999999998,-0.00036,0.00061,0.0005099999999999999,0.00011,2e-05,2e-05,5
20894,21878,2.9999999999999997e-05,-0.00023999999999999998,-0.00036,0.00061,0.0005099999999999999,0.00011,2e-05,2e-05,5
20895,21879,2.9999999999999997e-05,-0.00023999999999999998,-0.00036,0.00061,0.0005099999999999999,0.00011,2e-05,2e-05,5
20896,21880,2.9999999999999997e-05,-0.00023999999999999998,-0.00036,0.00061,0.0005099999999999999,0.00011,2e-05,2e-05,5
20897,21881,2.9999999999999997e-05,-0.00023999999999999998,-0.00036,0.00061,0.0005099999999999999,0.00011,2e-05,2e-05,5
20898,21882,2.9999999999999997e-05,-0.00023999999999999998,-0.00036,0.00061,0.0005099999999999999,0.00011,2e-05,2e-05,5
20899,21883,2.9999999999999997e-05,-0.00023999999999999998,-0.00036,0.00061,0.0005099999999999999,0.00011,2e-05,2e-05,5
20900,21884,2.9999999999999997e-05,-0.00023999999999999998,-0.00036,0.00061,0.0005099999999999999,0.00011,2e-05,2e-05,5
20901,21885,2.9999999999999997e-05,-0.00023999999999999998,-0.00036,0.00061,0.0005099999999999999,0.00011,2e-05,2e-05,5
20902,21886,2.9999999999999997e-05,-0.00023999999999999998,-0.00036,0.00061,0.0005099999999999999,0.00011,2e-05,2e-05,5
20903,21889,2.9999999999999997e-05,-0.00018999999999999998,-0.00029,-0.0007099999999999999,0.00082,0.00011999999999999999,5e-05,-2e-05,5
20904,21890,2.9999999999999997e-05,-0.00018999999999999998,-0.00029,-0.0007099999999999999,0.00082,0.00011999999999999999,5e-05,-2e-05,5
20905,21891,2.9999999999999997e-05,-0.00018999999999999998,-0.00029,-0.0007099999999999999,0.00082,0.00011999999999999999,5e-05,-2e-05,5
20906,21892,2.9999999999999997e-05,-0.00018999999999999998,-0.00029,-0.0007099999999999999,0.00082,0.00011999999999999999,5e-05,-2e-05,5
20907,21893,2.9999999999999997e-05,-0.00018999999999999998,-0.00029,-0.0007099999999999999,0.00082,0.00011999999999999999,5e-05,-2e-05,5
20908,21894,2.9999999999999997e-05,-0.00018999999999999998,-0.00029,-0.0007099999999999999,0.00082,0.00011999999999999999,5e-05,-2e-05,5
20909,21895,2.9999999999999997e-05,-0.00018999999999999998,-0.00029,-0.0007099999999999999,0.00082,0.00011999999999999999,5e-05,-2e-05,5
20910,21896,2.9999999999999997e-05,-0.00018999999999999998,-0.00029,-0.0007099999999999999,0.00082,0.00011999999999999999,5e-05,-2e-05,5
20911,21897,2.9999999999999997e-05,-0.00018999999999999998,-0.00029,-0.0007099999999999999,0.00082,0.00011999999999999999,5e-05,-2e-05,5
20912,21898,2.9999999999999997e-05,-0.00018999999999999998,-0.00029,-0.0007099999999999999,0.00082,0.00011999999999999999,5e-05,-2e-05,5
20913,21899,2.9999999999999997e-05,-0.00018999999999999998,-0.00029,-0.0007099999999999999,0.00082,0.00011999999999999999,5e-05,-2e-05,5
20914,21900,2.9999999999999997e-05,-0.00018999999999999998,-0.00029,-0.0007099999999999999,0.00082,0.00011999999999999999,5e-05,-2e-05,5
20915,21901,2.9999999999999997e-05,-0.00018999999999999998,-0.00029,-0.0007099999999999999,0.00082,0.00011999999999999999,5e-05,-2e-05,5
20916,21902,2.9999999999999997e-05,-0.00018999999999999998,-0.00029,-0.0007099999999999999,0.00082,0.00011999999999999999,5e-05,-2e-05,5
20917,21903,2.9999999999999997e-05,-0.00018999999999999998,-0.00029,-0.0007099999999999999,0.00082,0.00011999999999999999,5e-05,-2e-05,5
20918,21904,2.9999999999999997e-05,-0.00018999999999999998,-0.00029,-0.0007099999999999999,0.00082,0.00011999999999999999,5e-05,-2e-05,5
20919,21905,2.9999999999999997e-05,-0.00018999999999999998,-0.00029,-0.0007099999999999999,0.00082,0.00011999999999999999,5e-05,-2e-05,5
20920,21906,2.9999999999999997e-05,-0.00018999999999999998,-0.00029,-0.0007099999999999999,0.00082,0.00011999999999999999,5e-05,-2e-05,5
20921,21907,2.9999999999999997e-05,-0.00018999999999999998,-0.00029,-0.0007099999999999999,0.00082,0.00011999999999999999,5e-05,-2e-05,5
20922,21908,-1e-05,0.00014,0.0002,-0.00058,-0.0001,-0.00016,0.0,-2e-05,5
20923,21909,-1e-05,0.00014,0.0002,-0.00058,-0.0001,-0.00016,0.0,-2e-05,5
20924,21910,0.00018,0.00023999999999999998,0.00013000000000000002,0.0005200000000000001,-0.00011999999999999999,5e-05,4e-05,-0.0001,5
20925,21911,0.00018,0.00023999999999999998,0.00013000000000000002,0.0005200000000000001,-0.00011999999999999999,5e-05,4e-05,-0.0001,5
20926,21912,0.00018,0.00023999999999999998,0.00013000000000000002,0.0005200000000000001,-0.00011999999999999999,5e-05,4e-05,-0.0001,5
20927,21913,0.00018,0.00023999999999999998,0.00013000000000000002,0.0005200000000000001,-0.00011999999999999999,5e-05,4e-05,-0.0001,5
20928,21914,0.00018,0.00023999999999999998,0.00013000000000000002,0.0005200000000000001,-0.00011999999999999999,5e-05,4e-05,-0.0001,5
20929,21915,0.00018,0.00023999999999999998,0.00013000000000000002,0.0005200000000000001,-0.00011999999999999999,5e-05,4e-05,-0.0001,5
20930,21916,0.00018,0.00023999999999999998,0.00013000000000000002,0.0005200000000000001,-0.00011999999999999999,5e-05,4e-05,-0.0001,5
20931,21917,0.00018,0.00023999999999999998,0.00013000000000000002,0.0005200000000000001,-0.00011999999999999999,5e-05,4e-05,-0.0001,5
20932,21918,0.00018,0.00023999999999999998,0.00013000000000000002,0.0005200000000000001,-0.00011999999999999999,5e-05,4e-05,-0.0001,5
20933,21919,0.00018,0.00023999999999999998,0.00013000000000000002,0.0005200000000000001,-0.00011999999999999999,5e-05,4e-05,-0.0001,5
20934,21920,0.00018,0.00023999999999999998,0.00013000000000000002,0.0005200000000000001,-0.00011999999999999999,5e-05,4e-05,-0.0001,5
20935,21921,0.00018,0.00023999999999999998,0.00013000000000000002,0.0005200000000000001,-0.00011999999999999999,5e-05,4e-05,-0.0001,5
20936,21922,-0.00044,-0.0005099999999999999,-0.00098,-0.00054,2e-05,-0.00029,-0.0002,-0.0001,5
20937,21923,-0.00044,-0.0005099999999999999,-0.00098,-0.00054,2e-05,-0.00029,-0.0002,-0.0001,5
20938,21924,-0.00044,-0.0005099999999999999,-0.00098,-0.00054,2e-05,-0.00029,-0.0002,-0.0001,5
20939,21925,-0.00044,-0.0005099999999999999,-0.00098,-0.00054,2e-05,-0.00029,-0.0002,-0.0001,5
20940,21926,-0.00044,-0.0005099999999999999,-0.00098,-0.00054,2e-05,-0.00029,-0.0002,-0.0001,5
20941,21927,-0.00044,-0.0005099999999999999,-0.00098,-0.00054,2e-05,-0.00029,-0.0002,-0.0001,5
20942,21928,-0.00044,-0.0005099999999999999,-0.00098,-0.00054,2e-05,-0.00029,-0.0002,-0.0001,5
20943,21929,-0.00044,-0.0005099999999999999,-0.00098,-0.00054,2e-05,-0.00029,-0.0002,-0.0001,5
20944,21930,-0.00044,-0.0005099999999999999,-0.00098,-0.00054,2e-05,-0.00029,-0.0002,-0.0001,5
20945,21931,-0.00044,-0.0005099999999999999,-0.00098,-0.00054,2e-05,-0.00029,-0.0002,-0.0001,5
20946,21932,2e-05,0.00014,0.0,-0.00055,-0.00059,-0.00018999999999999998,-4e-05,5e-05,5
20947,21933,2e-05,0.00014,0.0,-0.00055,-0.00059,-0.00018999999999999998,-4e-05,5e-05,5
20948,21934,2e-05,0.00014,0.0,-0.00055,-0.00059,-0.00018999999999999998,-4e-05,5e-05,5
20949,21935,2e-05,0.00014,0.0,-0.00055,-0.00059,-0.00018999999999999998,-4e-05,5e-05,5
20950,21936,2e-05,0.00014,0.0,-0.00055,-0.00059,-0.00018999999999999998,-4e-05,5e-05,5
20951,21938,2e-05,0.00014,0.0,-0.00055,-0.00059,-0.00018999999999999998,-4e-05,5e-05,5
20952,21939,2e-05,0.00014,0.0,-0.00055,-0.00059,-0.00018999999999999998,-4e-05,5e-05,5
20953,21940,2e-05,0.00014,0.0,-0.00055,-0.00059,-0.00018999999999999998,-4e-05,5e-05,5
20954,21941,2e-05,0.00014,0.0,-0.00055,-0.00059,-0.00018999999999999998,-4e-05,5e-05,5
20955,21942,2e-05,0.00014,0.0,-0.00055,-0.00059,-0.00018999999999999998,-4e-05,5e-05,5
20956,21943,2e-05,0.00014,0.0,-0.00055,-0.00059,-0.00018999999999999998,-4e-05,5e-05,5
20957,21944,2e-05,0.00014,0.0,-0.00055,-0.00059,-0.00018999999999999998,-4e-05,5e-05,5
20958,21945,2e-05,0.00014,0.0,-0.00055,-0.00059,-0.00018999999999999998,-4e-05,5e-05,5
20959,21946,-0.00013000000000000002,-2.9999999999999997e-05,-2.9999999999999997e-05,0.00054,-0.00016,-4e-05,-2.9999999999999997e-05,2e-05,5
20960,21947,-0.00013000000000000002,-2.9999999999999997e-05,-2.9999999999999997e-05,0.00054,-0.00016,-4e-05,-2.9999999999999997e-05,2e-05,5
20961,21948,-0.00013000000000000002,-2.9999999999999997e-05,-2.9999999999999997e-05,0.00054,-0.00016,-4e-05,-2.9999999999999997e-05,2e-05,5
20962,21949,-0.00013000000000000002,-2.9999999999999997e-05,-2.9999999999999997e-05,0.00054,-0.00016,-4e-05,-2.9999999999999997e-05,2e-05,5
20963,21950,-0.00013000000000000002,-2.9999999999999997e-05,-2.9999999999999997e-05,0.00054,-0.00016,-4e-05,-2.9999999999999997e-05,2e-05,5
20964,21951,-0.00013000000000000002,-2.9999999999999997e-05,-2.9999999999999997e-05,0.00054,-0.00016,-4e-05,-2.9999999999999997e-05,2e-05,5
20965,21952,-0.00013000000000000002,-2.9999999999999997e-05,-2.9999999999999997e-05,0.00054,-0.00016,-4e-05,-2.9999999999999997e-05,2e-05,5
20966,21953,-0.00021,-5e-05,-8e-05,-0.00056,-0.00022999999999999998,0.00014,1e-05,-2e-05,5
20967,21955,-0.00021,-5e-05,-8e-05,-0.00056,-0.00022999999999999998,0.00014,1e-05,-2e-05,5
20968,21956,-0.00021,-5e-05,-8e-05,-0.00056,-0.00022999999999999998,0.00014,1e-05,-2e-05,5
20969,21957,-0.00021,-5e-05,-8e-05,-0.00056,-0.00022999999999999998,0.00014,1e-05,-2e-05,5
20970,21958,-0.00021,-5e-05,-8e-05,-0.00056,-0.00022999999999999998,0.00014,1e-05,-2e-05,5
20971,21959,-0.00021,-5e-05,-8e-05,-0.00056,-0.00022999999999999998,0.00014,1e-05,-2e-05,5
20972,21960,-0.00021,-5e-05,-8e-05,-0.00056,-0.00022999999999999998,0.00014,1e-05,-2e-05,5
20973,21961,-0.00021,-5e-05,-8e-05,-0.00056,-0.00022999999999999998,0.00014,1e-05,-2e-05,5
20974,21962,-0.00021,-5e-05,-8e-05,-0.00056,-0.00022999999999999998,0.00014,1e-05,-2e-05,5
20975,21963,-0.00021,-5e-05,-8e-05,-0.00056,-0.00022999999999999998,0.00014,1e-05,-2e-05,5
20976,21964,-0.00021,-5e-05,-8e-05,-0.00056,-0.00022999999999999998,0.00014,1e-05,-2e-05,5
20977,21965,-0.00021,-5e-05,-8e-05,-0.00056,-0.00022999999999999998,0.00014,1e-05,-2e-05,5
20978,21966,-0.00021,-5e-05,-8e-05,-0.00056,-0.00022999999999999998,0.00014,1e-05,-2e-05,5
20979,21967,-0.00021,-5e-05,-8e-05,-0.00056,-0.00022999999999999998,0.00014,1e-05,-2e-05,5
20980,21968,0.0002,0.00016999999999999999,0.00037,-0.0005,-0.00011,-0.00014,-2e-05,9e-05,5
20981,21969,0.0002,0.00016999999999999999,0.00037,-0.0005,-0.00011,-0.00014,-2e-05,9e-05,5
20982,21970,0.0002,0.00042,0.00065,0.0001,0.00033999999999999997,-7e-05,5e-05,4e-05,5
20983,21971,0.0002,0.00042,0.00065,0.0001,0.00033999999999999997,-7e-05,5e-05,4e-05,5
20984,21972,0.0002,0.00042,0.00065,0.0001,0.00033999999999999997,-7e-05,5e-05,4e-05,5
20985,21973,0.0002,0.00042,0.00065,0.0001,0.00033999999999999997,-7e-05,5e-05,4e-05,5
20986,21974,0.0002,0.00042,0.00065,0.0001,0.00033999999999999997,-7e-05,5e-05,4e-05,5
20987,21975,0.0002,0.00042,0.00065,0.0001,0.00033999999999999997,-7e-05,5e-05,4e-05,5
20988,21976,0.0002,0.00042,0.00065,0.0001,0.00033999999999999997,-7e-05,5e-05,4e-05,5
20989,21977,0.0002,0.00042,0.00065,0.0001,0.00033999999999999997,-7e-05,5e-05,4e-05,5
20990,21978,0.0002,0.00042,0.00065,0.0001,0.00033999999999999997,-7e-05,5e-05,4e-05,5
20991,21979,0.0002,0.00042,0.00065,0.0001,0.00033999999999999997,-7e-05,5e-05,4e-05,5
20992,21980,0.0002,0.00042,0.00065,0.0001,0.00033999999999999997,-7e-05,5e-05,4e-05,5
20993,21981,0.0002,0.00042,0.00065,0.0001,0.00033999999999999997,-7e-05,5e-05,4e-05,5
20994,21982,0.0002,0.00042,0.00065,0.0001,0.00033999999999999997,-7e-05,5e-05,4e-05,5
20995,21983,0.00028,-0.00037,-0.00044,0.0012699999999999999,-8e-05,-4e-05,-0.0001,-2e-05,5
20996,21984,0.00028,-0.00037,-0.00044,0.0012699999999999999,-8e-05,-4e-05,-0.0001,-2e-05,5
20997,21985,0.00028,-0.00037,-0.00044,0.0012699999999999999,-8e-05,-4e-05,-0.0001,-2e-05,5
20998,21986,0.00028,-0.00037,-0.00044,0.0012699999999999999,-8e-05,-4e-05,-0.0001,-2e-05,5
20999,21988,0.00028,-0.00037,-0.00044,0.0012699999999999999,-8e-05,-4e-05,-0.0001,-2e-05,5
21000,21989,0.00028,-0.00037,-0.00044,0.0012699999999999999,-8e-05,-4e-05,-0.0001,-2e-05,5
21001,21990,-0.00018999999999999998,0.0,-0.00042,-0.00026000000000000003,-0.00041,-0.00016,-9e-05,-0.00022999999999999998,5
21002,21991,-0.00018999999999999998,0.0,-0.00042,-0.00026000000000000003,-0.00041,-0.00016,-9e-05,-0.00022999999999999998,5
21003,21992,-0.00018999999999999998,0.0,-0.00042,-0.00026000000000000003,-0.00041,-0.00016,-9e-05,-0.00022999999999999998,5
21004,21993,-0.00018999999999999998,0.0,-0.00042,-0.00026000000000000003,-0.00041,-0.00016,-9e-05,-0.00022999999999999998,5
21005,21994,-0.00018999999999999998,0.0,-0.00042,-0.00026000000000000003,-0.00041,-0.00016,-9e-05,-0.00022999999999999998,5
21006,21995,-0.00018999999999999998,0.0,-0.00042,-0.00026000000000000003,-0.00041,-0.00016,-9e-05,-0.00022999999999999998,5
21007,21996,-0.00018999999999999998,0.0,-0.00042,-0.00026000000000000003,-0.00041,-0.00016,-9e-05,-0.00022999999999999998,5
21008,21997,-0.00018999999999999998,0.0,-0.00042,-0.00026000000000000003,-0.00041,-0.00016,-9e-05,-0.00022999999999999998,5
21009,21998,-0.00018999999999999998,0.0,-0.00042,-0.00026000000000000003,-0.00041,-0.00016,-9e-05,-0.00022999999999999998,5
21010,21999,-0.00018999999999999998,0.0,-0.00042,-0.00026000000000000003,-0.00041,-0.00016,-9e-05,-0.00022999999999999998,5
21011,22000,-0.00018999999999999998,0.0,-0.00042,-0.00026000000000000003,-0.00041,-0.00016,-9e-05,-0.00022999999999999998,5
21012,22001,-0.00018999999999999998,0.0,-0.00042,-0.00026000000000000003,-0.00041,-0.00016,-9e-05,-0.00022999999999999998,5
21013,22002,-0.00018999999999999998,0.0,-0.00042,-0.00026000000000000003,-0.00041,-0.00016,-9e-05,-0.00022999999999999998,5
21014,22003,-0.00018999999999999998,0.0,-0.00042,-0.00026000000000000003,-0.00041,-0.00016,-9e-05,-0.00022999999999999998,5
21015,22004,-0.00018999999999999998,0.0,-0.00042,-0.00026000000000000003,-0.00041,-0.00016,-9e-05,-0.00022999999999999998,5
21016,22005,-0.00018999999999999998,0.0,-0.00042,-0.00026000000000000003,-0.00041,-0.00016,-9e-05,-0.00022999999999999998,5
21017,22006,0.00026000000000000003,-5.9999999999999995e-05,-8e-05,-0.00032,-0.00018,-2e-05,-5e-05,-8e-05,5
21018,22007,2.9999999999999997e-05,0.00018999999999999998,0.00037999999999999997,0.0002,-0.00049,0.00018999999999999998,9e-05,0.00011,5
21019,22008,-0.00016,-0.00023999999999999998,-0.00032,-0.00056,0.00022,-2e-05,-2e-05,5e-05,5
21020,22009,-0.00016,-0.00023999999999999998,-0.00032,-0.00056,0.00022,-2e-05,-2e-05,5e-05,5
21021,22010,-0.00016,-0.00023999999999999998,-0.00032,-0.00056,0.00022,-2e-05,-2e-05,5e-05,5
21022,22011,-0.00016,-0.00023999999999999998,-0.00032,-0.00056,0.00022,-2e-05,-2e-05,5e-05,5
21023,22012,-0.00016,-0.00023999999999999998,-0.00032,-0.00056,0.00022,-2e-05,-2e-05,5e-05,5
21024,22013,-0.00016,-0.00023999999999999998,-0.00032,-0.00056,0.00022,-2e-05,-2e-05,5e-05,5
21025,22014,-0.00016,-0.00023999999999999998,-0.00032,-0.00056,0.00022,-2e-05,-2e-05,5e-05,5
21026,22015,-0.00016,-0.00023999999999999998,-0.00032,-0.00056,0.00022,-2e-05,-2e-05,5e-05,5
21027,22016,-0.00016,-0.00023999999999999998,-0.00032,-0.00056,0.00022,-2e-05,-2e-05,5e-05,5
21028,22017,-0.00016,-0.00023999999999999998,-0.00032,-0.00056,0.00022,-2e-05,-2e-05,5e-05,5
21029,22018,-0.00016,-0.00023999999999999998,-0.00032,-0.00056,0.00022,-2e-05,-2e-05,5e-05,5
21030,22019,-0.00016,-0.00023999999999999998,-0.00032,-0.00056,0.00022,-2e-05,-2e-05,5e-05,5
21031,22020,-0.00016,-0.00023999999999999998,-0.00032,-0.00056,0.00022,-2e-05,-2e-05,5e-05,5
21032,22021,-0.00016,-0.00023999999999999998,-0.00032,-0.00056,0.00022,-2e-05,-2e-05,5e-05,5
21033,22022,-0.00016,-0.00023999999999999998,-0.00032,-0.00056,0.00022,-2e-05,-2e-05,5e-05,5
21034,22023,-0.00016,-0.00023999999999999998,-0.00032,-0.00056,0.00022,-2e-05,-2e-05,5e-05,5
21035,22025,-0.00016,-0.00023999999999999998,-0.00032,-0.00056,0.00022,-2e-05,-2e-05,5e-05,5
21036,22026,-0.00016,-0.00023999999999999998,-0.00032,-0.00056,0.00022,-2e-05,-2e-05,5e-05,5
21037,22027,-0.00016,-0.00023999999999999998,-0.00032,-0.00056,0.00022,-2e-05,-2e-05,5e-05,5
21038,22028,0.00018,0.00027,0.00065,0.0007700000000000001,0.0009599999999999999,0.00067,0.0003,0.0002,5
21039,22029,0.00018,0.00027,0.00065,0.0007700000000000001,0.0009599999999999999,0.00067,0.0003,0.0002,5
21040,22030,2e-05,5.9999999999999995e-05,0.00018999999999999998,0.00029,5.9999999999999995e-05,-2.9999999999999997e-05,2.9999999999999997e-05,-2.9999999999999997e-05,5
21041,22031,2e-05,5.9999999999999995e-05,0.00018999999999999998,0.00029,5.9999999999999995e-05,-2.9999999999999997e-05,2.9999999999999997e-05,-2.9999999999999997e-05,5
21042,22032,2e-05,5.9999999999999995e-05,0.00018999999999999998,0.00029,5.9999999999999995e-05,-2.9999999999999997e-05,2.9999999999999997e-05,-2.9999999999999997e-05,5
21043,22033,2e-05,5.9999999999999995e-05,0.00018999999999999998,0.00029,5.9999999999999995e-05,-2.9999999999999997e-05,2.9999999999999997e-05,-2.9999999999999997e-05,5
21044,22034,2e-05,5.9999999999999995e-05,0.00018999999999999998,0.00029,5.9999999999999995e-05,-2.9999999999999997e-05,2.9999999999999997e-05,-2.9999999999999997e-05,5
21045,22035,2e-05,5.9999999999999995e-05,0.00018999999999999998,0.00029,5.9999999999999995e-05,-2.9999999999999997e-05,2.9999999999999997e-05,-2.9999999999999997e-05,5
21046,22036,2e-05,5.9999999999999995e-05,0.00018999999999999998,0.00029,5.9999999999999995e-05,-2.9999999999999997e-05,2.9999999999999997e-05,-2.9999999999999997e-05,5
21047,22038,2e-05,5.9999999999999995e-05,0.00018999999999999998,0.00029,5.9999999999999995e-05,-2.9999999999999997e-05,2.9999999999999997e-05,-2.9999999999999997e-05,5
21048,22039,2e-05,5.9999999999999995e-05,0.00018999999999999998,0.00029,5.9999999999999995e-05,-2.9999999999999997e-05,2.9999999999999997e-05,-2.9999999999999997e-05,5
21049,22040,2e-05,5.9999999999999995e-05,0.00018999999999999998,0.00029,5.9999999999999995e-05,-2.9999999999999997e-05,2.9999999999999997e-05,-2.9999999999999997e-05,5
21050,22041,2e-05,5.9999999999999995e-05,0.00018999999999999998,0.00029,5.9999999999999995e-05,-2.9999999999999997e-05,2.9999999999999997e-05,-2.9999999999999997e-05,5
21051,22042,2e-05,5.9999999999999995e-05,0.00018999999999999998,0.00029,5.9999999999999995e-05,-2.9999999999999997e-05,2.9999999999999997e-05,-2.9999999999999997e-05,5
21052,22043,-5e-05,8e-05,-0.00011,0.00033,0.00013000000000000002,0.00013000000000000002,5e-05,5.9999999999999995e-05,5
21053,22044,-5e-05,8e-05,-0.00011,0.00033,0.00013000000000000002,0.00013000000000000002,5e-05,5.9999999999999995e-05,5
21054,22045,-5e-05,8e-05,-0.00011,0.00033,0.00013000000000000002,0.00013000000000000002,5e-05,5.9999999999999995e-05,5
21055,22046,-5e-05,8e-05,-0.00011,0.00033,0.00013000000000000002,0.00013000000000000002,5e-05,5.9999999999999995e-05,5
21056,22047,-5e-05,8e-05,-0.00011,0.00033,0.00013000000000000002,0.00013000000000000002,5e-05,5.9999999999999995e-05,5
21057,22048,-5e-05,8e-05,-0.00011,0.00033,0.00013000000000000002,0.00013000000000000002,5e-05,5.9999999999999995e-05,5
21058,22049,-5e-05,-0.0003,-0.00064,-0.00114,-0.00062,-0.00016,-0.00011999999999999999,-8e-05,5
21059,22050,-1e-05,0.0,0.00013000000000000002,0.0008300000000000001,9e-05,5.9999999999999995e-05,2.9999999999999997e-05,2.9999999999999997e-05,5
21060,22051,-1e-05,0.0,0.00013000000000000002,0.0008300000000000001,9e-05,5.9999999999999995e-05,2.9999999999999997e-05,2.9999999999999997e-05,5
21061,22052,-1e-05,0.0,0.00013000000000000002,0.0008300000000000001,9e-05,5.9999999999999995e-05,2.9999999999999997e-05,2.9999999999999997e-05,5
21062,22053,-1e-05,0.0,0.00013000000000000002,0.0008300000000000001,9e-05,5.9999999999999995e-05,2.9999999999999997e-05,2.9999999999999997e-05,5
21063,22054,-1e-05,0.0,0.00013000000000000002,0.0008300000000000001,9e-05,5.9999999999999995e-05,2.9999999999999997e-05,2.9999999999999997e-05,5
21064,22055,-1e-05,0.0,0.00013000000000000002,0.0008300000000000001,9e-05,5.9999999999999995e-05,2.9999999999999997e-05,2.9999999999999997e-05,5
21065,22056,-1e-05,0.0,0.00013000000000000002,0.0008300000000000001,9e-05,5.9999999999999995e-05,2.9999999999999997e-05,2.9999999999999997e-05,5
21066,22057,-1e-05,0.0,0.00013000000000000002,0.0008300000000000001,9e-05,5.9999999999999995e-05,2.9999999999999997e-05,2.9999999999999997e-05,5
21067,22058,-1e-05,0.0,0.00013000000000000002,0.0008300000000000001,9e-05,5.9999999999999995e-05,2.9999999999999997e-05,2.9999999999999997e-05,5
21068,22059,-1e-05,0.0,0.00013000000000000002,0.0008300000000000001,9e-05,5.9999999999999995e-05,2.9999999999999997e-05,2.9999999999999997e-05,5
21069,22060,-1e-05,0.0,0.00013000000000000002,0.0008300000000000001,9e-05,5.9999999999999995e-05,2.9999999999999997e-05,2.9999999999999997e-05,5
21070,22061,-1e-05,0.0,0.00013000000000000002,0.0008300000000000001,9e-05,5.9999999999999995e-05,2.9999999999999997e-05,2.9999999999999997e-05,5
21071,22062,-1e-05,0.0,0.00013000000000000002,0.0008300000000000001,9e-05,5.9999999999999995e-05,2.9999999999999997e-05,2.9999999999999997e-05,5
21072,22063,-1e-05,0.0,0.00013000000000000002,0.0008300000000000001,9e-05,5.9999999999999995e-05,2.9999999999999997e-05,2.9999999999999997e-05,5
21073,22064,-1e-05,0.0,0.00013000000000000002,0.0008300000000000001,9e-05,5.9999999999999995e-05,2.9999999999999997e-05,2.9999999999999997e-05,5
21074,22065,-1e-05,0.0,0.00013000000000000002,0.0008300000000000001,9e-05,5.9999999999999995e-05,2.9999999999999997e-05,2.9999999999999997e-05,5
21075,22066,-2e-05,0.00065,0.0012699999999999999,0.0006,-0.00049,2e-05,0.00011,8e-05,5
21076,22067,0.00018999999999999998,-8e-05,0.00016,0.00108,0.0001,0.00039,-2e-05,5e-05,5
21077,22068,0.00018999999999999998,-8e-05,0.00016,0.00108,0.0001,0.00039,-2e-05,5e-05,5
21078,22069,0.00018999999999999998,-8e-05,0.00016,0.00108,0.0001,0.00039,-2e-05,5e-05,5
21079,22070,0.00018999999999999998,-8e-05,0.00016,0.00108,0.0001,0.00039,-2e-05,5e-05,5
21080,22071,0.00018999999999999998,-8e-05,0.00016,0.00108,0.0001,0.00039,-2e-05,5e-05,5
21081,22072,0.00018999999999999998,-8e-05,0.00016,0.00108,0.0001,0.00039,-2e-05,5e-05,5
21082,22073,0.00018999999999999998,-8e-05,0.00016,0.00108,0.0001,0.00039,-2e-05,5e-05,5
21083,22074,0.00018999999999999998,-8e-05,0.00016,0.00108,0.0001,0.00039,-2e-05,5e-05,5
21084,22075,0.00018999999999999998,-8e-05,0.00016,0.00108,0.0001,0.00039,-2e-05,5e-05,5
21085,22076,0.00018999999999999998,-8e-05,0.00016,0.00108,0.0001,0.00039,-2e-05,5e-05,5
21086,22077,0.00018999999999999998,-8e-05,0.00016,0.00108,0.0001,0.00039,-2e-05,5e-05,5
21087,22078,0.00018999999999999998,-8e-05,0.00016,0.00108,0.0001,0.00039,-2e-05,5e-05,5
21088,22079,0.00018999999999999998,-8e-05,0.00016,0.00108,0.0001,0.00039,-2e-05,5e-05,5
21089,22080,0.00018999999999999998,-8e-05,0.00016,0.00108,0.0001,0.00039,-2e-05,5e-05,5
21090,22081,0.00018999999999999998,-8e-05,0.00016,0.00108,0.0001,0.00039,-2e-05,5e-05,5
21091,22082,0.00018999999999999998,-8e-05,0.00016,0.00108,0.0001,0.00039,-2e-05,5e-05,5
21092,22083,0.00018999999999999998,-8e-05,0.00016,0.00108,0.0001,0.00039,-2e-05,5e-05,5
21093,22084,0.00018999999999999998,-8e-05,0.00016,0.00108,0.0001,0.00039,-2e-05,5e-05,5
21094,22085,0.00018999999999999998,-8e-05,0.00016,0.00108,0.0001,0.00039,-2e-05,5e-05,5
21095,22086,0.00018999999999999998,-8e-05,0.00016,0.00108,0.0001,0.00039,-2e-05,5e-05,5
21096,22088,0.00018999999999999998,-8e-05,0.00016,0.00108,0.0001,0.00039,-2e-05,5e-05,5
21097,22089,-0.00016,0.00013000000000000002,0.00036,0.00043,-0.0005,-0.0003,-9e-05,0.0,5
21098,22090,0.00035,0.00014,0.00055,0.00011,-0.00023999999999999998,-0.00022,-1e-05,0.00015,5
21099,22091,0.00035,0.00014,0.00055,0.00011,-0.00023999999999999998,-0.00022,-1e-05,0.00015,5
21100,22092,0.00035,0.00014,0.00055,0.00011,-0.00023999999999999998,-0.00022,-1e-05,0.00015,5
21101,22093,0.00035,0.00014,0.00055,0.00011,-0.00023999999999999998,-0.00022,-1e-05,0.00015,5
21102,22094,0.00035,0.00014,0.00055,0.00011,-0.00023999999999999998,-0.00022,-1e-05,0.00015,5
21103,22095,0.00035,0.00014,0.00055,0.00011,-0.00023999999999999998,-0.00022,-1e-05,0.00015,5
21104,22096,0.00035,0.00014,0.00055,0.00011,-0.00023999999999999998,-0.00022,-1e-05,0.00015,5
21105,22097,0.00035,0.00014,0.00055,0.00011,-0.00023999999999999998,-0.00022,-1e-05,0.00015,5
21106,22098,0.00035,0.00014,0.00055,0.00011,-0.00023999999999999998,-0.00022,-1e-05,0.00015,5
21107,22099,0.00035,0.00014,0.00055,0.00011,-0.00023999999999999998,-0.00022,-1e-05,0.00015,5
21108,22100,0.00035,0.00014,0.00055,0.00011,-0.00023999999999999998,-0.00022,-1e-05,0.00015,5
21109,22101,0.00035,0.00014,0.00055,0.00011,-0.00023999999999999998,-0.00022,-1e-05,0.00015,5
21110,22102,-0.00022999999999999998,-0.00018999999999999998,-0.00016,-0.00098,0.0,0.00016,0.0,-0.00018999999999999998,5
21111,22103,-0.00022999999999999998,-0.00018999999999999998,-0.00016,-0.00098,0.0,0.00016,0.0,-0.00018999999999999998,5
21112,22104,-0.00022999999999999998,-0.00018999999999999998,-0.00016,-0.00098,0.0,0.00016,0.0,-0.00018999999999999998,5
21113,22105,-0.00022999999999999998,-0.00018999999999999998,-0.00016,-0.00098,0.0,0.00016,0.0,-0.00018999999999999998,5
21114,22106,-0.00022999999999999998,-0.00018999999999999998,-0.00016,-0.00098,0.0,0.00016,0.0,-0.00018999999999999998,5
21115,22107,-0.00022999999999999998,-0.00018999999999999998,-0.00016,-0.00098,0.0,0.00016,0.0,-0.00018999999999999998,5
21116,22108,-0.00022999999999999998,-0.00018999999999999998,-0.00016,-0.00098,0.0,0.00016,0.0,-0.00018999999999999998,5
21117,22109,-0.00022999999999999998,-0.00018999999999999998,-0.00016,-0.00098,0.0,0.00016,0.0,-0.00018999999999999998,5
21118,22110,-0.00022999999999999998,-0.00018999999999999998,-0.00016,-0.00098,0.0,0.00016,0.0,-0.00018999999999999998,5
21119,22111,0.00018,-4e-05,-0.00028,-1e-05,2e-05,-5.9999999999999995e-05,-5.9999999999999995e-05,-2.9999999999999997e-05,5
21120,22112,0.00018,-4e-05,-0.00028,-1e-05,2e-05,-5.9999999999999995e-05,-5.9999999999999995e-05,-2.9999999999999997e-05,5
21121,22113,0.00018,-4e-05,-0.00028,-1e-05,2e-05,-5.9999999999999995e-05,-5.9999999999999995e-05,-2.9999999999999997e-05,5
21122,22114,0.00018,-4e-05,-0.00028,-1e-05,2e-05,-5.9999999999999995e-05,-5.9999999999999995e-05,-2.9999999999999997e-05,5
21123,22115,0.00018,-4e-05,-0.00028,-1e-05,2e-05,-5.9999999999999995e-05,-5.9999999999999995e-05,-2.9999999999999997e-05,5
21124,22116,0.00018,-4e-05,-0.00028,-1e-05,2e-05,-5.9999999999999995e-05,-5.9999999999999995e-05,-2.9999999999999997e-05,5
21125,22117,0.00018,-4e-05,-0.00028,-1e-05,2e-05,-5.9999999999999995e-05,-5.9999999999999995e-05,-2.9999999999999997e-05,5
21126,22118,0.00018,-4e-05,-0.00028,-1e-05,2e-05,-5.9999999999999995e-05,-5.9999999999999995e-05,-2.9999999999999997e-05,5
21127,22119,0.00018,-4e-05,-0.00028,-1e-05,2e-05,-5.9999999999999995e-05,-5.9999999999999995e-05,-2.9999999999999997e-05,5
21128,22120,0.00018,-4e-05,-0.00028,-1e-05,2e-05,-5.9999999999999995e-05,-5.9999999999999995e-05,-2.9999999999999997e-05,5
21129,22121,0.00018,-4e-05,-0.00028,-1e-05,2e-05,-5.9999999999999995e-05,-5.9999999999999995e-05,-2.9999999999999997e-05,5
21130,22122,0.00018,-4e-05,-0.00028,-1e-05,2e-05,-5.9999999999999995e-05,-5.9999999999999995e-05,-2.9999999999999997e-05,5
21131,22123,0.00018,-4e-05,-0.00028,-1e-05,2e-05,-5.9999999999999995e-05,-5.9999999999999995e-05,-2.9999999999999997e-05,5
21132,22124,0.00018,-4e-05,-0.00028,-1e-05,2e-05,-5.9999999999999995e-05,-5.9999999999999995e-05,-2.9999999999999997e-05,5
21133,22125,0.00018,-4e-05,-0.00028,-1e-05,2e-05,-5.9999999999999995e-05,-5.9999999999999995e-05,-2.9999999999999997e-05,5
21134,22126,-1e-05,4e-05,0.00044,0.00044,-4e-05,-0.00028,-0.00011999999999999999,-4e-05,5
21135,22127,-0.00026000000000000003,-0.00025,-0.00078,-0.00122,-0.00033,0.0001,7e-05,-8e-05,5
21136,22128,-0.00026000000000000003,-0.00025,-0.00078,-0.00122,-0.00033,0.0001,7e-05,-8e-05,5
21137,22129,-0.00026000000000000003,-0.00025,-0.00078,-0.00122,-0.00033,0.0001,7e-05,-8e-05,5
21138,22130,-0.00026000000000000003,-0.00025,-0.00078,-0.00122,-0.00033,0.0001,7e-05,-8e-05,5
21139,22131,-0.00026000000000000003,-0.00025,-0.00078,-0.00122,-0.00033,0.0001,7e-05,-8e-05,5
21140,22132,-0.00026000000000000003,-0.00025,-0.00078,-0.00122,-0.00033,0.0001,7e-05,-8e-05,5
21141,22133,-0.00026000000000000003,-0.00025,-0.00078,-0.00122,-0.00033,0.0001,7e-05,-8e-05,5
21142,22134,-0.00026000000000000003,-0.00025,-0.00078,-0.00122,-0.00033,0.0001,7e-05,-8e-05,5
21143,22135,-0.00026000000000000003,-0.00025,-0.00078,-0.00122,-0.00033,0.0001,7e-05,-8e-05,5
21144,22136,-0.00026000000000000003,-0.00025,-0.00078,-0.00122,-0.00033,0.0001,7e-05,-8e-05,5
21145,22138,-0.00026000000000000003,-0.00025,-0.00078,-0.00122,-0.00033,0.0001,7e-05,-8e-05,5
21146,22139,-0.00026000000000000003,-0.00025,-0.00078,-0.00122,-0.00033,0.0001,7e-05,-8e-05,5
21147,22140,-0.00026000000000000003,-0.00025,-0.00078,-0.00122,-0.00033,0.0001,7e-05,-8e-05,5
21148,22141,-0.00026000000000000003,-0.00025,-0.00078,-0.00122,-0.00033,0.0001,7e-05,-8e-05,5
21149,22142,-0.00026000000000000003,-0.00025,-0.00078,-0.00122,-0.00033,0.0001,7e-05,-8e-05,5
21150,22143,-0.00026000000000000003,-0.00025,-0.00078,-0.00122,-0.00033,0.0001,7e-05,-8e-05,5
21151,22144,-0.00026000000000000003,-0.00025,-0.00078,-0.00122,-0.00033,0.0001,7e-05,-8e-05,5
21152,22145,-0.00026000000000000003,-0.00025,-0.00078,-0.00122,-0.00033,0.0001,7e-05,-8e-05,5
21153,22146,-0.00026000000000000003,-0.00025,-0.00078,-0.00122,-0.00033,0.0001,7e-05,-8e-05,5
21154,22147,-0.00026000000000000003,-0.00025,-0.00078,-0.00122,-0.00033,0.0001,7e-05,-8e-05,5
21155,22148,-0.00026000000000000003,-0.00025,-0.00078,-0.00122,-0.00033,0.0001,7e-05,-8e-05,5
21156,22149,-0.00018,0.00011,0.00032,-0.00026000000000000003,-0.0001,2e-05,2.9999999999999997e-05,-4e-05,5
21157,22150,0.00014,-0.00027,-0.00018999999999999998,0.0011300000000000001,-2.9999999999999997e-05,-0.00016,-7e-05,8e-05,5
21158,22151,0.00014,-0.00027,-0.00018999999999999998,0.0011300000000000001,-2.9999999999999997e-05,-0.00016,-7e-05,8e-05,5
21159,22152,0.00014,-0.00027,-0.00018999999999999998,0.0011300000000000001,-2.9999999999999997e-05,-0.00016,-7e-05,8e-05,5
21160,22153,0.00014,-0.00027,-0.00018999999999999998,0.0011300000000000001,-2.9999999999999997e-05,-0.00016,-7e-05,8e-05,5
21161,22154,0.00014,-0.00027,-0.00018999999999999998,0.0011300000000000001,-2.9999999999999997e-05,-0.00016,-7e-05,8e-05,5
21162,22155,0.00014,-0.00027,-0.00018999999999999998,0.0011300000000000001,-2.9999999999999997e-05,-0.00016,-7e-05,8e-05,5
21163,22156,0.00014,-0.00027,-0.00018999999999999998,0.0011300000000000001,-2.9999999999999997e-05,-0.00016,-7e-05,8e-05,5
21164,22157,0.00014,-0.00027,-0.00018999999999999998,0.0011300000000000001,-2.9999999999999997e-05,-0.00016,-7e-05,8e-05,5
21165,22158,0.00014,-0.00027,-0.00018999999999999998,0.0011300000000000001,-2.9999999999999997e-05,-0.00016,-7e-05,8e-05,5
21166,22159,0.00014,-0.00027,-0.00018999999999999998,0.0011300000000000001,-2.9999999999999997e-05,-0.00016,-7e-05,8e-05,5
21167,22160,0.00014,-0.00027,-0.00018999999999999998,0.0011300000000000001,-2.9999999999999997e-05,-0.00016,-7e-05,8e-05,5
21168,22161,0.00014,-0.00027,-0.00018999999999999998,0.0011300000000000001,-2.9999999999999997e-05,-0.00016,-7e-05,8e-05,5
21169,22162,-0.00011,-0.00011,-0.00036,-0.0006,-1e-05,-8e-05,-0.00011999999999999999,-2.9999999999999997e-05,5
21170,22163,-0.00011,-0.00011,-0.00036,-0.0006,-1e-05,-8e-05,-0.00011999999999999999,-2.9999999999999997e-05,5
21171,22164,-0.00011,-0.00011,-0.00036,-0.0006,-1e-05,-8e-05,-0.00011999999999999999,-2.9999999999999997e-05,5
21172,22165,-0.00011,-0.00011,-0.00036,-0.0006,-1e-05,-8e-05,-0.00011999999999999999,-2.9999999999999997e-05,5
21173,22166,-0.00011,-0.00011,-0.00036,-0.0006,-1e-05,-8e-05,-0.00011999999999999999,-2.9999999999999997e-05,5
21174,22167,-0.00011,-0.00011,-0.00036,-0.0006,-1e-05,-8e-05,-0.00011999999999999999,-2.9999999999999997e-05,5
21175,22168,-0.00011,-0.00011,-0.00036,-0.0006,-1e-05,-8e-05,-0.00011999999999999999,-2.9999999999999997e-05,5
21176,22169,-0.00011,-0.00011,-0.00036,-0.0006,-1e-05,-8e-05,-0.00011999999999999999,-2.9999999999999997e-05,5
21177,22170,-0.00011,-0.00011,-0.00036,-0.0006,-1e-05,-8e-05,-0.00011999999999999999,-2.9999999999999997e-05,5
21178,22171,-0.00016,-2.9999999999999997e-05,-0.0004,0.0,-0.00045,-0.00015,-2.9999999999999997e-05,-0.00013000000000000002,5
21179,22172,-0.00016,-2.9999999999999997e-05,-0.0004,0.0,-0.00045,-0.00015,-2.9999999999999997e-05,-0.00013000000000000002,5
21180,22173,-0.00016,-2.9999999999999997e-05,-0.0004,0.0,-0.00045,-0.00015,-2.9999999999999997e-05,-0.00013000000000000002,5
21181,22174,-0.00016,-2.9999999999999997e-05,-0.0004,0.0,-0.00045,-0.00015,-2.9999999999999997e-05,-0.00013000000000000002,5
21182,22175,-0.00016,-2.9999999999999997e-05,-0.0004,0.0,-0.00045,-0.00015,-2.9999999999999997e-05,-0.00013000000000000002,5
21183,22176,-0.00016,-2.9999999999999997e-05,-0.0004,0.0,-0.00045,-0.00015,-2.9999999999999997e-05,-0.00013000000000000002,5
21184,22177,-0.00016,-2.9999999999999997e-05,-0.0004,0.0,-0.00045,-0.00015,-2.9999999999999997e-05,-0.00013000000000000002,5
21185,22178,-0.00016,-2.9999999999999997e-05,-0.0004,0.0,-0.00045,-0.00015,-2.9999999999999997e-05,-0.00013000000000000002,5
21186,22179,-0.00016,-2.9999999999999997e-05,-0.0004,0.0,-0.00045,-0.00015,-2.9999999999999997e-05,-0.00013000000000000002,5
21187,22180,-0.00016,-2.9999999999999997e-05,-0.0004,0.0,-0.00045,-0.00015,-2.9999999999999997e-05,-0.00013000000000000002,5
21188,22181,-0.00016,-2.9999999999999997e-05,-0.0004,0.0,-0.00045,-0.00015,-2.9999999999999997e-05,-0.00013000000000000002,5
21189,22182,-0.00016,-2.9999999999999997e-05,-0.0004,0.0,-0.00045,-0.00015,-2.9999999999999997e-05,-0.00013000000000000002,5
21190,22183,-0.00016,-2.9999999999999997e-05,-0.0004,0.0,-0.00045,-0.00015,-2.9999999999999997e-05,-0.00013000000000000002,5
21191,22184,-0.00016,-2.9999999999999997e-05,-0.0004,0.0,-0.00045,-0.00015,-2.9999999999999997e-05,-0.00013000000000000002,5
21192,22185,-0.00016,-2.9999999999999997e-05,-0.0004,0.0,-0.00045,-0.00015,-2.9999999999999997e-05,-0.00013000000000000002,5
21193,22186,-5.9999999999999995e-05,0.00014,-0.00037999999999999997,-0.00036,-0.00022999999999999998,4e-05,2e-05,2.9999999999999997e-05,5
21194,22188,-2.9999999999999997e-05,-2e-05,0.00029,-0.00037,-0.0003,-5.9999999999999995e-05,-9e-05,0.0,5
21195,22189,-2.9999999999999997e-05,-2e-05,0.00029,-0.00037,-0.0003,-5.9999999999999995e-05,-9e-05,0.0,5
21196,22190,-2.9999999999999997e-05,-2e-05,0.00029,-0.00037,-0.0003,-5.9999999999999995e-05,-9e-05,0.0,5
21197,22191,-2.9999999999999997e-05,-2e-05,0.00029,-0.00037,-0.0003,-5.9999999999999995e-05,-9e-05,0.0,5
21198,22192,-2.9999999999999997e-05,-2e-05,0.00029,-0.00037,-0.0003,-5.9999999999999995e-05,-9e-05,0.0,5
21199,22193,-2.9999999999999997e-05,-2e-05,0.00029,-0.00037,-0.0003,-5.9999999999999995e-05,-9e-05,0.0,5
21200,22194,-2.9999999999999997e-05,-2e-05,0.00029,-0.00037,-0.0003,-5.9999999999999995e-05,-9e-05,0.0,5
21201,22195,-2.9999999999999997e-05,-2e-05,0.00029,-0.00037,-0.0003,-5.9999999999999995e-05,-9e-05,0.0,5
21202,22196,-2.9999999999999997e-05,-2e-05,0.00029,-0.00037,-0.0003,-5.9999999999999995e-05,-9e-05,0.0,5
21203,22197,-2.9999999999999997e-05,-2e-05,0.00029,-0.00037,-0.0003,-5.9999999999999995e-05,-9e-05,0.0,5
21204,22198,-2.9999999999999997e-05,-2e-05,0.00029,-0.00037,-0.0003,-5.9999999999999995e-05,-9e-05,0.0,5
21205,22199,-2.9999999999999997e-05,-2e-05,0.00029,-0.00037,-0.0003,-5.9999999999999995e-05,-9e-05,0.0,5
21206,22200,-2.9999999999999997e-05,-2e-05,0.00029,-0.00037,-0.0003,-5.9999999999999995e-05,-9e-05,0.0,5
21207,22201,-2.9999999999999997e-05,-2e-05,0.00029,-0.00037,-0.0003,-5.9999999999999995e-05,-9e-05,0.0,5
21208,22202,-2.9999999999999997e-05,-2e-05,0.00029,-0.00037,-0.0003,-5.9999999999999995e-05,-9e-05,0.0,5
21209,22203,-2.9999999999999997e-05,-2e-05,0.00029,-0.00037,-0.0003,-5.9999999999999995e-05,-9e-05,0.0,5
21210,22204,-2.9999999999999997e-05,-2e-05,0.00029,-0.00037,-0.0003,-5.9999999999999995e-05,-9e-05,0.0,5
21211,22205,-2.9999999999999997e-05,-2e-05,0.00029,-0.00037,-0.0003,-5.9999999999999995e-05,-9e-05,0.0,5
21212,22206,-2.9999999999999997e-05,-2e-05,0.00029,-0.00037,-0.0003,-5.9999999999999995e-05,-9e-05,0.0,5
21213,22207,-2.9999999999999997e-05,-2e-05,0.00029,-0.00037,-0.0003,-5.9999999999999995e-05,-9e-05,0.0,5
21214,22208,9e-05,4e-05,-0.00013000000000000002,-0.00047000000000000004,0.0002,-9e-05,2.9999999999999997e-05,2.9999999999999997e-05,5
21215,22209,-0.00011999999999999999,-0.00011,-0.00016,-0.00067,0.00027,0.00014,4e-05,0.0,5
21216,22210,0.00031,0.00031,0.00062,-4e-05,-0.00033,-2.9999999999999997e-05,2.9999999999999997e-05,0.0,5
21217,22211,0.00031,0.00031,0.00062,-4e-05,-0.00033,-2.9999999999999997e-05,2.9999999999999997e-05,0.0,5
21218,22212,0.00031,0.00031,0.00062,-4e-05,-0.00033,-2.9999999999999997e-05,2.9999999999999997e-05,0.0,5
21219,22213,0.00031,0.00031,0.00062,-4e-05,-0.00033,-2.9999999999999997e-05,2.9999999999999997e-05,0.0,5
21220,22214,0.00031,0.00031,0.00062,-4e-05,-0.00033,-2.9999999999999997e-05,2.9999999999999997e-05,0.0,5
21221,22215,0.00031,0.00031,0.00062,-4e-05,-0.00033,-2.9999999999999997e-05,2.9999999999999997e-05,0.0,5
21222,22216,0.00031,0.00031,0.00062,-4e-05,-0.00033,-2.9999999999999997e-05,2.9999999999999997e-05,0.0,5
21223,22217,0.00031,0.00031,0.00062,-4e-05,-0.00033,-2.9999999999999997e-05,2.9999999999999997e-05,0.0,5
21224,22218,0.00031,0.00031,0.00062,-4e-05,-0.00033,-2.9999999999999997e-05,2.9999999999999997e-05,0.0,5
21225,22219,0.00031,0.00031,0.00062,-4e-05,-0.00033,-2.9999999999999997e-05,2.9999999999999997e-05,0.0,5
21226,22220,0.00031,0.00031,0.00062,-4e-05,-0.00033,-2.9999999999999997e-05,2.9999999999999997e-05,0.0,5
21227,22221,0.00031,0.00031,0.00062,-4e-05,-0.00033,-2.9999999999999997e-05,2.9999999999999997e-05,0.0,5
21228,22222,0.00058,8e-05,0.00028,0.00065,0.0,-5.9999999999999995e-05,2.9999999999999997e-05,0.00011,5
21229,22223,0.00058,8e-05,0.00028,0.00065,0.0,-5.9999999999999995e-05,2.9999999999999997e-05,0.00011,5
21230,22224,0.00058,8e-05,0.00028,0.00065,0.0,-5.9999999999999995e-05,2.9999999999999997e-05,0.00011,5
21231,22225,0.00058,8e-05,0.00028,0.00065,0.0,-5.9999999999999995e-05,2.9999999999999997e-05,0.00011,5
21232,22226,0.00058,8e-05,0.00028,0.00065,0.0,-5.9999999999999995e-05,2.9999999999999997e-05,0.00011,5
21233,22227,0.00058,8e-05,0.00028,0.00065,0.0,-5.9999999999999995e-05,2.9999999999999997e-05,0.00011,5
21234,22228,0.00058,8e-05,0.00028,0.00065,0.0,-5.9999999999999995e-05,2.9999999999999997e-05,0.00011,5
21235,22229,0.00058,8e-05,0.00028,0.00065,0.0,-5.9999999999999995e-05,2.9999999999999997e-05,0.00011,5
21236,22230,0.00058,8e-05,0.00028,0.00065,0.0,-5.9999999999999995e-05,2.9999999999999997e-05,0.00011,5
21237,22231,0.0001,2e-05,0.00018,0.00023999999999999998,0.0005099999999999999,-0.00011,-7e-05,2.9999999999999997e-05,5
21238,22232,0.0001,2e-05,0.00018,0.00023999999999999998,0.0005099999999999999,-0.00011,-7e-05,2.9999999999999997e-05,5
21239,22233,0.0001,2e-05,0.00018,0.00023999999999999998,0.0005099999999999999,-0.00011,-7e-05,2.9999999999999997e-05,5
21240,22234,0.0001,2e-05,0.00018,0.00023999999999999998,0.0005099999999999999,-0.00011,-7e-05,2.9999999999999997e-05,5
21241,22235,0.0001,2e-05,0.00018,0.00023999999999999998,0.0005099999999999999,-0.00011,-7e-05,2.9999999999999997e-05,5
21242,22236,0.0001,2e-05,0.00018,0.00023999999999999998,0.0005099999999999999,-0.00011,-7e-05,2.9999999999999997e-05,5
21243,22238,0.0001,2e-05,0.00018,0.00023999999999999998,0.0005099999999999999,-0.00011,-7e-05,2.9999999999999997e-05,5
21244,22239,0.0001,2e-05,0.00018,0.00023999999999999998,0.0005099999999999999,-0.00011,-7e-05,2.9999999999999997e-05,5
21245,22240,0.0001,2e-05,0.00018,0.00023999999999999998,0.0005099999999999999,-0.00011,-7e-05,2.9999999999999997e-05,5
21246,22241,0.0001,2e-05,0.00018,0.00023999999999999998,0.0005099999999999999,-0.00011,-7e-05,2.9999999999999997e-05,5
21247,22242,0.0001,2e-05,0.00018,0.00023999999999999998,0.0005099999999999999,-0.00011,-7e-05,2.9999999999999997e-05,5
21248,22243,0.0001,2e-05,0.00018,0.00023999999999999998,0.0005099999999999999,-0.00011,-7e-05,2.9999999999999997e-05,5
21249,22244,0.0001,2e-05,0.00018,0.00023999999999999998,0.0005099999999999999,-0.00011,-7e-05,2.9999999999999997e-05,5
21250,22245,0.0001,2e-05,0.00018,0.00023999999999999998,0.0005099999999999999,-0.00011,-7e-05,2.9999999999999997e-05,5
21251,22246,-0.00033999999999999997,-0.00045,-0.00091,-0.00061,-5e-05,-0.00013000000000000002,-7e-05,-0.00015,5
21252,22247,0.0003,-8e-05,-0.00042,-7e-05,-0.00018999999999999998,-5e-05,-4e-05,4e-05,5
21253,22248,-0.00032,0.00032,5.9999999999999995e-05,-0.00022,-2.9999999999999997e-05,0.00014,5.9999999999999995e-05,-2.9999999999999997e-05,5
21254,22249,-0.00032,0.00032,5.9999999999999995e-05,-0.00022,-2.9999999999999997e-05,0.00014,5.9999999999999995e-05,-2.9999999999999997e-05,5
21255,22250,-0.00032,0.00032,5.9999999999999995e-05,-0.00022,-2.9999999999999997e-05,0.00014,5.9999999999999995e-05,-2.9999999999999997e-05,5
21256,22251,-0.00032,0.00032,5.9999999999999995e-05,-0.00022,-2.9999999999999997e-05,0.00014,5.9999999999999995e-05,-2.9999999999999997e-05,5
21257,22252,-0.00032,0.00032,5.9999999999999995e-05,-0.00022,-2.9999999999999997e-05,0.00014,5.9999999999999995e-05,-2.9999999999999997e-05,5
21258,22253,-0.00032,0.00032,5.9999999999999995e-05,-0.00022,-2.9999999999999997e-05,0.00014,5.9999999999999995e-05,-2.9999999999999997e-05,5
21259,22254,-0.00032,0.00032,5.9999999999999995e-05,-0.00022,-2.9999999999999997e-05,0.00014,5.9999999999999995e-05,-2.9999999999999997e-05,5
21260,22255,-0.00032,0.00032,5.9999999999999995e-05,-0.00022,-2.9999999999999997e-05,0.00014,5.9999999999999995e-05,-2.9999999999999997e-05,5
21261,22256,-0.00032,0.00032,5.9999999999999995e-05,-0.00022,-2.9999999999999997e-05,0.00014,5.9999999999999995e-05,-2.9999999999999997e-05,5
21262,22257,-0.00032,0.00032,5.9999999999999995e-05,-0.00022,-2.9999999999999997e-05,0.00014,5.9999999999999995e-05,-2.9999999999999997e-05,5
21263,22258,-0.00032,0.00032,5.9999999999999995e-05,-0.00022,-2.9999999999999997e-05,0.00014,5.9999999999999995e-05,-2.9999999999999997e-05,5
21264,22259,-0.00032,0.00032,5.9999999999999995e-05,-0.00022,-2.9999999999999997e-05,0.00014,5.9999999999999995e-05,-2.9999999999999997e-05,5
21265,22260,-0.00032,0.00032,5.9999999999999995e-05,-0.00022,-2.9999999999999997e-05,0.00014,5.9999999999999995e-05,-2.9999999999999997e-05,5
21266,22261,-0.00032,0.00032,5.9999999999999995e-05,-0.00022,-2.9999999999999997e-05,0.00014,5.9999999999999995e-05,-2.9999999999999997e-05,5
21267,22262,-0.00032,0.00032,5.9999999999999995e-05,-0.00022,-2.9999999999999997e-05,0.00014,5.9999999999999995e-05,-2.9999999999999997e-05,5
21268,22263,-0.00032,0.00032,5.9999999999999995e-05,-0.00022,-2.9999999999999997e-05,0.00014,5.9999999999999995e-05,-2.9999999999999997e-05,5
21269,22264,-0.00032,0.00032,5.9999999999999995e-05,-0.00022,-2.9999999999999997e-05,0.00014,5.9999999999999995e-05,-2.9999999999999997e-05,5
21270,22265,-0.00032,0.00032,5.9999999999999995e-05,-0.00022,-2.9999999999999997e-05,0.00014,5.9999999999999995e-05,-2.9999999999999997e-05,5
21271,22266,-0.00032,0.00032,5.9999999999999995e-05,-0.00022,-2.9999999999999997e-05,0.00014,5.9999999999999995e-05,-2.9999999999999997e-05,5
21272,22267,-0.00032,0.00032,5.9999999999999995e-05,-0.00022,-2.9999999999999997e-05,0.00014,5.9999999999999995e-05,-2.9999999999999997e-05,5
21273,22268,-0.00016,5.9999999999999995e-05,-2.9999999999999997e-05,-0.00011999999999999999,-0.00018999999999999998,-0.00018,1e-05,9e-05,5
21274,22269,-0.00016,5.9999999999999995e-05,-2.9999999999999997e-05,-0.00011999999999999999,-0.00018999999999999998,-0.00018,1e-05,9e-05,5
21275,22270,-0.00027,-0.00062,-0.00079,-0.00119,-0.00074,-5e-05,-2.9999999999999997e-05,-0.00011999999999999999,5
21276,22271,-0.00027,-0.00062,-0.00079,-0.00119,-0.00074,-5e-05,-2.9999999999999997e-05,-0.00011999999999999999,5
21277,22272,-0.00027,-0.00062,-0.00079,-0.00119,-0.00074,-5e-05,-2.9999999999999997e-05,-0.00011999999999999999,5
21278,22273,-0.00027,-0.00062,-0.00079,-0.00119,-0.00074,-5e-05,-2.9999999999999997e-05,-0.00011999999999999999,5
21279,22274,-0.00027,-0.00062,-0.00079,-0.00119,-0.00074,-5e-05,-2.9999999999999997e-05,-0.00011999999999999999,5
21280,22275,-0.00027,-0.00062,-0.00079,-0.00119,-0.00074,-5e-05,-2.9999999999999997e-05,-0.00011999999999999999,5
21281,22276,-0.00027,-0.00062,-0.00079,-0.00119,-0.00074,-5e-05,-2.9999999999999997e-05,-0.00011999999999999999,5
21282,22277,-0.00027,-0.00062,-0.00079,-0.00119,-0.00074,-5e-05,-2.9999999999999997e-05,-0.00011999999999999999,5
21283,22278,-0.00027,-0.00062,-0.00079,-0.00119,-0.00074,-5e-05,-2.9999999999999997e-05,-0.00011999999999999999,5
21284,22279,-0.00027,-0.00062,-0.00079,-0.00119,-0.00074,-5e-05,-2.9999999999999997e-05,-0.00011999999999999999,5
21285,22280,-0.00027,-0.00062,-0.00079,-0.00119,-0.00074,-5e-05,-2.9999999999999997e-05,-0.00011999999999999999,5
21286,22281,-0.00027,-0.00062,-0.00079,-0.00119,-0.00074,-5e-05,-2.9999999999999997e-05,-0.00011999999999999999,5
21287,22282,-0.00042,-0.00022999999999999998,-0.00037999999999999997,-0.00013000000000000002,9e-05,7e-05,4e-05,-1e-05,5
21288,22283,-0.00042,-0.00022999999999999998,-0.00037999999999999997,-0.00013000000000000002,9e-05,7e-05,4e-05,-1e-05,5
21289,22284,-0.00042,-0.00022999999999999998,-0.00037999999999999997,-0.00013000000000000002,9e-05,7e-05,4e-05,-1e-05,5
21290,22285,-0.00042,-0.00022999999999999998,-0.00037999999999999997,-0.00013000000000000002,9e-05,7e-05,4e-05,-1e-05,5
21291,22286,-0.00042,-0.00022999999999999998,-0.00037999999999999997,-0.00013000000000000002,9e-05,7e-05,4e-05,-1e-05,5
21292,22288,-0.00042,-0.00022999999999999998,-0.00037999999999999997,-0.00013000000000000002,9e-05,7e-05,4e-05,-1e-05,5
21293,22289,-0.00042,-0.00022999999999999998,-0.00037999999999999997,-0.00013000000000000002,9e-05,7e-05,4e-05,-1e-05,5
21294,22290,-0.00042,-0.00022999999999999998,-0.00037999999999999997,-0.00013000000000000002,9e-05,7e-05,4e-05,-1e-05,5
21295,22291,8e-05,0.00014,0.00039,0.0009199999999999999,0.00018,-9e-05,2e-05,-1e-05,5
21296,22292,8e-05,0.00014,0.00039,0.0009199999999999999,0.00018,-9e-05,2e-05,-1e-05,5
21297,22293,8e-05,0.00014,0.00039,0.0009199999999999999,0.00018,-9e-05,2e-05,-1e-05,5
21298,22294,8e-05,0.00014,0.00039,0.0009199999999999999,0.00018,-9e-05,2e-05,-1e-05,5
21299,22295,8e-05,0.00014,0.00039,0.0009199999999999999,0.00018,-9e-05,2e-05,-1e-05,5
21300,22296,8e-05,0.00014,0.00039,0.0009199999999999999,0.00018,-9e-05,2e-05,-1e-05,5
21301,22297,8e-05,0.00014,0.00039,0.0009199999999999999,0.00018,-9e-05,2e-05,-1e-05,5
21302,22298,8e-05,0.00014,0.00039,0.0009199999999999999,0.00018,-9e-05,2e-05,-1e-05,5
21303,22299,8e-05,0.00014,0.00039,0.0009199999999999999,0.00018,-9e-05,2e-05,-1e-05,5
21304,22300,8e-05,0.00014,0.00039,0.0009199999999999999,0.00018,-9e-05,2e-05,-1e-05,5
21305,22301,8e-05,0.00014,0.00039,0.0009199999999999999,0.00018,-9e-05,2e-05,-1e-05,5
21306,22302,8e-05,0.00014,0.00039,0.0009199999999999999,0.00018,-9e-05,2e-05,-1e-05,5
21307,22303,8e-05,0.00014,0.00039,0.0009199999999999999,0.00018,-9e-05,2e-05,-1e-05,5
21308,22304,8e-05,0.00014,0.00039,0.0009199999999999999,0.00018,-9e-05,2e-05,-1e-05,5
21309,22305,-2e-05,-0.00033999999999999997,-0.00073,-0.00018,0.00013000000000000002,5e-05,-7e-05,-0.00014,5
21310,22308,-2e-05,-0.00033999999999999997,-0.00073,-0.00018,0.00013000000000000002,5e-05,-7e-05,-0.00014,5
21311,22309,-2e-05,-0.00033999999999999997,-0.00073,-0.00018,0.00013000000000000002,5e-05,-7e-05,-0.00014,5
21312,22310,1e-05,4e-05,5e-05,-0.0006900000000000001,-7e-05,0.0003,0.00015,2e-05,5
21313,22311,1e-05,4e-05,5e-05,-0.0006900000000000001,-7e-05,0.0003,0.00015,2e-05,5
21314,22312,1e-05,4e-05,5e-05,-0.0006900000000000001,-7e-05,0.0003,0.00015,2e-05,5
21315,22313,1e-05,4e-05,5e-05,-0.0006900000000000001,-7e-05,0.0003,0.00015,2e-05,5
21316,22314,1e-05,4e-05,5e-05,-0.0006900000000000001,-7e-05,0.0003,0.00015,2e-05,5
21317,22315,1e-05,4e-05,5e-05,-0.0006900000000000001,-7e-05,0.0003,0.00015,2e-05,5
21318,22316,1e-05,4e-05,5e-05,-0.0006900000000000001,-7e-05,0.0003,0.00015,2e-05,5
21319,22317,1e-05,4e-05,5e-05,-0.0006900000000000001,-7e-05,0.0003,0.00015,2e-05,5
21320,22318,1e-05,4e-05,5e-05,-0.0006900000000000001,-7e-05,0.0003,0.00015,2e-05,5
21321,22319,1e-05,4e-05,5e-05,-0.0006900000000000001,-7e-05,0.0003,0.00015,2e-05,5
21322,22320,1e-05,4e-05,5e-05,-0.0006900000000000001,-7e-05,0.0003,0.00015,2e-05,5
21323,22321,1e-05,4e-05,5e-05,-0.0006900000000000001,-7e-05,0.0003,0.00015,2e-05,5
21324,22322,1e-05,4e-05,5e-05,-0.0006900000000000001,-7e-05,0.0003,0.00015,2e-05,5
21325,22323,1e-05,4e-05,5e-05,-0.0006900000000000001,-7e-05,0.0003,0.00015,2e-05,5
21326,22324,1e-05,4e-05,5e-05,-0.0006900000000000001,-7e-05,0.0003,0.00015,2e-05,5
21327,22325,1e-05,4e-05,5e-05,-0.0006900000000000001,-7e-05,0.0003,0.00015,2e-05,5
21328,22326,1e-05,4e-05,5e-05,-0.0006900000000000001,-7e-05,0.0003,0.00015,2e-05,5
21329,22327,1e-05,4e-05,5e-05,-0.0006900000000000001,-7e-05,0.0003,0.00015,2e-05,5
21330,22328,5e-05,0.00037999999999999997,0.00086,5.9999999999999995e-05,0.00014,-2e-05,4e-05,0.00013000000000000002,5
21331,22329,0.0002,4e-05,0.00028,-0.00031,-9e-05,-0.00022999999999999998,-0.00014,-9e-05,5
21332,22330,0.00011999999999999999,0.00016,0.00032,0.0012699999999999999,0.0010199999999999999,0.0002,5.9999999999999995e-05,-1e-05,5
21333,22331,0.00011999999999999999,0.00016,0.00032,0.0012699999999999999,0.0010199999999999999,0.0002,5.9999999999999995e-05,-1e-05,5
21334,22332,0.00011999999999999999,0.00016,0.00032,0.0012699999999999999,0.0010199999999999999,0.0002,5.9999999999999995e-05,-1e-05,5
21335,22333,0.00011999999999999999,0.00016,0.00032,0.0012699999999999999,0.0010199999999999999,0.0002,5.9999999999999995e-05,-1e-05,5
21336,22334,0.00011999999999999999,0.00016,0.00032,0.0012699999999999999,0.0010199999999999999,0.0002,5.9999999999999995e-05,-1e-05,5
21337,22335,0.00011999999999999999,0.00016,0.00032,0.0012699999999999999,0.0010199999999999999,0.0002,5.9999999999999995e-05,-1e-05,5
21338,22336,0.00011999999999999999,0.00016,0.00032,0.0012699999999999999,0.0010199999999999999,0.0002,5.9999999999999995e-05,-1e-05,5
21339,22338,0.00011999999999999999,0.00016,0.00032,0.0012699999999999999,0.0010199999999999999,0.0002,5.9999999999999995e-05,-1e-05,5
21340,22339,0.00011999999999999999,0.00016,0.00032,0.0012699999999999999,0.0010199999999999999,0.0002,5.9999999999999995e-05,-1e-05,5
21341,22340,0.00011999999999999999,0.00016,0.00032,0.0012699999999999999,0.0010199999999999999,0.0002,5.9999999999999995e-05,-1e-05,5
21342,22341,0.00011999999999999999,0.00016,0.00032,0.0012699999999999999,0.0010199999999999999,0.0002,5.9999999999999995e-05,-1e-05,5
21343,22342,7e-05,1e-05,-0.00022,-0.00016,-0.00033999999999999997,-0.00014,-1e-05,-2.9999999999999997e-05,5
21344,22343,7e-05,1e-05,-0.00022,-0.00016,-0.00033999999999999997,-0.00014,-1e-05,-2.9999999999999997e-05,5
21345,22344,7e-05,1e-05,-0.00022,-0.00016,-0.00033999999999999997,-0.00014,-1e-05,-2.9999999999999997e-05,5
21346,22345,7e-05,1e-05,-0.00022,-0.00016,-0.00033999999999999997,-0.00014,-1e-05,-2.9999999999999997e-05,5
21347,22346,7e-05,1e-05,-0.00022,-0.00016,-0.00033999999999999997,-0.00014,-1e-05,-2.9999999999999997e-05,5
21348,22347,7e-05,1e-05,-0.00022,-0.00016,-0.00033999999999999997,-0.00014,-1e-05,-2.9999999999999997e-05,5
21349,22348,7e-05,1e-05,-0.00022,-0.00016,-0.00033999999999999997,-0.00014,-1e-05,-2.9999999999999997e-05,5
21350,22349,7e-05,1e-05,-0.00022,-0.00016,-0.00033999999999999997,-0.00014,-1e-05,-2.9999999999999997e-05,5
21351,22350,7e-05,1e-05,-0.00022,-0.00016,-0.00033999999999999997,-0.00014,-1e-05,-2.9999999999999997e-05,5
21352,22351,7e-05,1e-05,-0.00022,-0.00016,-0.00033999999999999997,-0.00014,-1e-05,-2.9999999999999997e-05,5
21353,22352,7e-05,1e-05,-0.00022,-0.00016,-0.00033999999999999997,-0.00014,-1e-05,-2.9999999999999997e-05,5
21354,22353,7e-05,1e-05,-0.00022,-0.00016,-0.00033999999999999997,-0.00014,-1e-05,-2.9999999999999997e-05,5
21355,22354,7e-05,1e-05,-0.00022,-0.00016,-0.00033999999999999997,-0.00014,-1e-05,-2.9999999999999997e-05,5
21356,22355,7e-05,1e-05,-0.00022,-0.00016,-0.00033999999999999997,-0.00014,-1e-05,-2.9999999999999997e-05,5
21357,22356,7e-05,1e-05,-0.00022,-0.00016,-0.00033999999999999997,-0.00014,-1e-05,-2.9999999999999997e-05,5
21358,22357,7e-05,1e-05,-0.00022,-0.00016,-0.00033999999999999997,-0.00014,-1e-05,-2.9999999999999997e-05,5
21359,22358,-0.00033,0.0001,0.00045999999999999996,0.0003,-0.00027,0.00013000000000000002,0.00011,0.00018,5
21360,22359,-0.00033,0.0001,0.00045999999999999996,0.0003,-0.00027,0.00013000000000000002,0.00011,0.00018,5
21361,22360,-0.00033,0.0001,0.00045999999999999996,0.0003,-0.00027,0.00013000000000000002,0.00011,0.00018,5
21362,22361,-0.00033,0.0001,0.00045999999999999996,0.0003,-0.00027,0.00013000000000000002,0.00011,0.00018,5
21363,22362,-0.00033,0.0001,0.00045999999999999996,0.0003,-0.00027,0.00013000000000000002,0.00011,0.00018,5
21364,22363,-0.00033,0.0001,0.00045999999999999996,0.0003,-0.00027,0.00013000000000000002,0.00011,0.00018,5
21365,22364,-0.00033,0.0001,0.00045999999999999996,0.0003,-0.00027,0.00013000000000000002,0.00011,0.00018,5
21366,22365,-0.00033,0.0001,0.00045999999999999996,0.0003,-0.00027,0.00013000000000000002,0.00011,0.00018,5
21367,22366,7e-05,0.00018,0.00055,0.0012699999999999999,4e-05,0.00022999999999999998,9e-05,-0.00011999999999999999,5
21368,22367,7e-05,-0.00029,-0.00016999999999999999,-7e-05,-0.0002,2e-05,-2.9999999999999997e-05,-8e-05,5
21369,22368,7e-05,-0.00029,-0.00016999999999999999,-7e-05,-0.0002,2e-05,-2.9999999999999997e-05,-8e-05,5
21370,22369,7e-05,-0.00029,-0.00016999999999999999,-7e-05,-0.0002,2e-05,-2.9999999999999997e-05,-8e-05,5
21371,22370,7e-05,-0.00029,-0.00016999999999999999,-7e-05,-0.0002,2e-05,-2.9999999999999997e-05,-8e-05,5
21372,22371,7e-05,-0.00029,-0.00016999999999999999,-7e-05,-0.0002,2e-05,-2.9999999999999997e-05,-8e-05,5
21373,22372,7e-05,-0.00029,-0.00016999999999999999,-7e-05,-0.0002,2e-05,-2.9999999999999997e-05,-8e-05,5
21374,22373,7e-05,-0.00029,-0.00016999999999999999,-7e-05,-0.0002,2e-05,-2.9999999999999997e-05,-8e-05,5
21375,22374,7e-05,-0.00029,-0.00016999999999999999,-7e-05,-0.0002,2e-05,-2.9999999999999997e-05,-8e-05,5
21376,22375,7e-05,-0.00029,-0.00016999999999999999,-7e-05,-0.0002,2e-05,-2.9999999999999997e-05,-8e-05,5
21377,22376,7e-05,-0.00029,-0.00016999999999999999,-7e-05,-0.0002,2e-05,-2.9999999999999997e-05,-8e-05,5
21378,22377,7e-05,-0.00029,-0.00016999999999999999,-7e-05,-0.0002,2e-05,-2.9999999999999997e-05,-8e-05,5
21379,22378,7e-05,-0.00029,-0.00016999999999999999,-7e-05,-0.0002,2e-05,-2.9999999999999997e-05,-8e-05,5
21380,22379,7e-05,-0.00029,-0.00016999999999999999,-7e-05,-0.0002,2e-05,-2.9999999999999997e-05,-8e-05,5
21381,22380,7e-05,-0.00029,-0.00016999999999999999,-7e-05,-0.0002,2e-05,-2.9999999999999997e-05,-8e-05,5
21382,22381,7e-05,-0.00029,-0.00016999999999999999,-7e-05,-0.0002,2e-05,-2.9999999999999997e-05,-8e-05,5
21383,22382,7e-05,-0.00029,-0.00016999999999999999,-7e-05,-0.0002,2e-05,-2.9999999999999997e-05,-8e-05,5
21384,22383,7e-05,-0.00029,-0.00016999999999999999,-7e-05,-0.0002,2e-05,-2.9999999999999997e-05,-8e-05,5
21385,22384,7e-05,-0.00029,-0.00016999999999999999,-7e-05,-0.0002,2e-05,-2.9999999999999997e-05,-8e-05,5
21386,22385,7e-05,-0.00029,-0.00016999999999999999,-7e-05,-0.0002,2e-05,-2.9999999999999997e-05,-8e-05,5
21387,22386,7e-05,-0.00029,-0.00016999999999999999,-7e-05,-0.0002,2e-05,-2.9999999999999997e-05,-8e-05,5
21388,22389,-0.00013000000000000002,-7e-05,-0.00025,0.00057,-0.00022999999999999998,0.00011,-9e-05,-4e-05,5
21389,22390,0.00033,0.00031,0.00055,-0.0001,0.00074,2e-05,-1e-05,4e-05,5
21390,22391,0.00033,0.00031,0.00055,-0.0001,0.00074,2e-05,-1e-05,4e-05,5
21391,22392,0.00033,0.00031,0.00055,-0.0001,0.00074,2e-05,-1e-05,4e-05,5
21392,22393,0.00033,0.00031,0.00055,-0.0001,0.00074,2e-05,-1e-05,4e-05,5
21393,22394,0.00033,0.00031,0.00055,-0.0001,0.00074,2e-05,-1e-05,4e-05,5
21394,22395,0.00033,0.00031,0.00055,-0.0001,0.00074,2e-05,-1e-05,4e-05,5
21395,22396,0.00033,0.00031,0.00055,-0.0001,0.00074,2e-05,-1e-05,4e-05,5
21396,22397,0.00033,0.00031,0.00055,-0.0001,0.00074,2e-05,-1e-05,4e-05,5
21397,22398,0.00033,0.00031,0.00055,-0.0001,0.00074,2e-05,-1e-05,4e-05,5
21398,22399,0.00033,0.00031,0.00055,-0.0001,0.00074,2e-05,-1e-05,4e-05,5
21399,22400,0.00033,0.00031,0.00055,-0.0001,0.00074,2e-05,-1e-05,4e-05,5
21400,22401,0.00033,0.00031,0.00055,-0.0001,0.00074,2e-05,-1e-05,4e-05,5
21401,22402,0.00016,-2e-05,0.00025,-0.00025,-0.00018999999999999998,5e-05,1e-05,2e-05,5
21402,22403,0.00016,-2e-05,0.00025,-0.00025,-0.00018999999999999998,5e-05,1e-05,2e-05,5
21403,22404,0.00016,-2e-05,0.00025,-0.00025,-0.00018999999999999998,5e-05,1e-05,2e-05,5
21404,22405,0.00016,-2e-05,0.00025,-0.00025,-0.00018999999999999998,5e-05,1e-05,2e-05,5
21405,22406,0.00016,-2e-05,0.00025,-0.00025,-0.00018999999999999998,5e-05,1e-05,2e-05,5
21406,22407,0.00016,-2e-05,0.00025,-0.00025,-0.00018999999999999998,5e-05,1e-05,2e-05,5
21407,22408,0.00016,-2e-05,0.00025,-0.00025,-0.00018999999999999998,5e-05,1e-05,2e-05,5
21408,22409,0.00016,-2e-05,0.00025,-0.00025,-0.00018999999999999998,5e-05,1e-05,2e-05,5
21409,22410,0.00016,-2e-05,0.00025,-0.00025,-0.00018999999999999998,5e-05,1e-05,2e-05,5
21410,22411,-0.00043,-0.00023999999999999998,-0.00029,-0.00045,0.00014,-5.9999999999999995e-05,-4e-05,-5.9999999999999995e-05,5
21411,22412,-0.00043,-0.00023999999999999998,-0.00029,-0.00045,0.00014,-5.9999999999999995e-05,-4e-05,-5.9999999999999995e-05,5
21412,22413,-0.00043,-0.00023999999999999998,-0.00029,-0.00045,0.00014,-5.9999999999999995e-05,-4e-05,-5.9999999999999995e-05,5
21413,22414,-0.00043,-0.00023999999999999998,-0.00029,-0.00045,0.00014,-5.9999999999999995e-05,-4e-05,-5.9999999999999995e-05,5
21414,22415,-0.00043,-0.00023999999999999998,-0.00029,-0.00045,0.00014,-5.9999999999999995e-05,-4e-05,-5.9999999999999995e-05,5
21415,22416,-0.00043,-0.00023999999999999998,-0.00029,-0.00045,0.00014,-5.9999999999999995e-05,-4e-05,-5.9999999999999995e-05,5
21416,22417,-0.00043,-0.00023999999999999998,-0.00029,-0.00045,0.00014,-5.9999999999999995e-05,-4e-05,-5.9999999999999995e-05,5
21417,22418,-0.00043,-0.00023999999999999998,-0.00029,-0.00045,0.00014,-5.9999999999999995e-05,-4e-05,-5.9999999999999995e-05,5
21418,22419,-0.00043,-0.00023999999999999998,-0.00029,-0.00045,0.00014,-5.9999999999999995e-05,-4e-05,-5.9999999999999995e-05,5
21419,22420,-0.00043,-0.00023999999999999998,-0.00029,-0.00045,0.00014,-5.9999999999999995e-05,-4e-05,-5.9999999999999995e-05,5
21420,22421,-0.00043,-0.00023999999999999998,-0.00029,-0.00045,0.00014,-5.9999999999999995e-05,-4e-05,-5.9999999999999995e-05,5
21421,22422,-0.00043,-0.00023999999999999998,-0.00029,-0.00045,0.00014,-5.9999999999999995e-05,-4e-05,-5.9999999999999995e-05,5
21422,22423,-0.00043,-0.00023999999999999998,-0.00029,-0.00045,0.00014,-5.9999999999999995e-05,-4e-05,-5.9999999999999995e-05,5
21423,22424,-0.00043,-0.00023999999999999998,-0.00029,-0.00045,0.00014,-5.9999999999999995e-05,-4e-05,-5.9999999999999995e-05,5
21424,22425,-0.00043,-0.00023999999999999998,-0.00029,-0.00045,0.00014,-5.9999999999999995e-05,-4e-05,-5.9999999999999995e-05,5
21425,22426,0.00014,0.00022,0.00033,1e-05,-5.9999999999999995e-05,7e-05,8e-05,7e-05,5
21426,22427,-5e-05,0.00011999999999999999,5.9999999999999995e-05,-0.0007700000000000001,-0.0001,0.0,2.9999999999999997e-05,5e-05,5
21427,22428,-5e-05,0.00011999999999999999,5.9999999999999995e-05,-0.0007700000000000001,-0.0001,0.0,2.9999999999999997e-05,5e-05,5
21428,22429,-5e-05,0.00011999999999999999,5.9999999999999995e-05,-0.0007700000000000001,-0.0001,0.0,2.9999999999999997e-05,5e-05,5
21429,22430,-5e-05,0.00011999999999999999,5.9999999999999995e-05,-0.0007700000000000001,-0.0001,0.0,2.9999999999999997e-05,5e-05,5
21430,22431,-5e-05,0.00011999999999999999,5.9999999999999995e-05,-0.0007700000000000001,-0.0001,0.0,2.9999999999999997e-05,5e-05,5
21431,22432,-5e-05,0.00011999999999999999,5.9999999999999995e-05,-0.0007700000000000001,-0.0001,0.0,2.9999999999999997e-05,5e-05,5
21432,22433,-5e-05,0.00011999999999999999,5.9999999999999995e-05,-0.0007700000000000001,-0.0001,0.0,2.9999999999999997e-05,5e-05,5
21433,22434,-5e-05,0.00011999999999999999,5.9999999999999995e-05,-0.0007700000000000001,-0.0001,0.0,2.9999999999999997e-05,5e-05,5
21434,22435,-5e-05,0.00011999999999999999,5.9999999999999995e-05,-0.0007700000000000001,-0.0001,0.0,2.9999999999999997e-05,5e-05,5
21435,22436,-5e-05,0.00011999999999999999,5.9999999999999995e-05,-0.0007700000000000001,-0.0001,0.0,2.9999999999999997e-05,5e-05,5
21436,22438,-5e-05,0.00011999999999999999,5.9999999999999995e-05,-0.0007700000000000001,-0.0001,0.0,2.9999999999999997e-05,5e-05,5
21437,22439,-5e-05,0.00011999999999999999,5.9999999999999995e-05,-0.0007700000000000001,-0.0001,0.0,2.9999999999999997e-05,5e-05,5
21438,22440,-5e-05,0.00011999999999999999,5.9999999999999995e-05,-0.0007700000000000001,-0.0001,0.0,2.9999999999999997e-05,5e-05,5
21439,22441,-5e-05,0.00011999999999999999,5.9999999999999995e-05,-0.0007700000000000001,-0.0001,0.0,2.9999999999999997e-05,5e-05,5
21440,22442,-5e-05,0.00011999999999999999,5.9999999999999995e-05,-0.0007700000000000001,-0.0001,0.0,2.9999999999999997e-05,5e-05,5
21441,22443,-5e-05,0.00011999999999999999,5.9999999999999995e-05,-0.0007700000000000001,-0.0001,0.0,2.9999999999999997e-05,5e-05,5
21442,22444,-5e-05,0.00011999999999999999,5.9999999999999995e-05,-0.0007700000000000001,-0.0001,0.0,2.9999999999999997e-05,5e-05,5
21443,22445,-5e-05,0.00011999999999999999,5.9999999999999995e-05,-0.0007700000000000001,-0.0001,0.0,2.9999999999999997e-05,5e-05,5
21444,22446,-5e-05,0.00011999999999999999,5.9999999999999995e-05,-0.0007700000000000001,-0.0001,0.0,2.9999999999999997e-05,5e-05,5
21445,22447,-5e-05,0.00011999999999999999,5.9999999999999995e-05,-0.0007700000000000001,-0.0001,0.0,2.9999999999999997e-05,5e-05,5
21446,22448,-5e-05,0.00011999999999999999,5.9999999999999995e-05,-0.0007700000000000001,-0.0001,0.0,2.9999999999999997e-05,5e-05,5
21447,22449,-5e-05,-0.00011999999999999999,0.0001,0.0009199999999999999,9e-05,-5e-05,-5.9999999999999995e-05,-8e-05,5
21448,22450,7e-05,-9e-05,-0.00039,-0.00035,-0.0008,-0.00021,-0.00011999999999999999,-5.9999999999999995e-05,5
21449,22451,7e-05,-9e-05,-0.00039,-0.00035,-0.0008,-0.00021,-0.00011999999999999999,-5.9999999999999995e-05,5
21450,22452,7e-05,-9e-05,-0.00039,-0.00035,-0.0008,-0.00021,-0.00011999999999999999,-5.9999999999999995e-05,5
21451,22453,7e-05,-9e-05,-0.00039,-0.00035,-0.0008,-0.00021,-0.00011999999999999999,-5.9999999999999995e-05,5
21452,22454,7e-05,-9e-05,-0.00039,-0.00035,-0.0008,-0.00021,-0.00011999999999999999,-5.9999999999999995e-05,5
21453,22455,7e-05,-9e-05,-0.00039,-0.00035,-0.0008,-0.00021,-0.00011999999999999999,-5.9999999999999995e-05,5
21454,22456,7e-05,-9e-05,-0.00039,-0.00035,-0.0008,-0.00021,-0.00011999999999999999,-5.9999999999999995e-05,5
21455,22457,7e-05,-9e-05,-0.00039,-0.00035,-0.0008,-0.00021,-0.00011999999999999999,-5.9999999999999995e-05,5
21456,22458,7e-05,-9e-05,-0.00039,-0.00035,-0.0008,-0.00021,-0.00011999999999999999,-5.9999999999999995e-05,5
21457,22459,7e-05,-9e-05,-0.00039,-0.00035,-0.0008,-0.00021,-0.00011999999999999999,-5.9999999999999995e-05,5
21458,22460,7e-05,-9e-05,-0.00039,-0.00035,-0.0008,-0.00021,-0.00011999999999999999,-5.9999999999999995e-05,5
21459,22461,7e-05,-9e-05,-0.00039,-0.00035,-0.0008,-0.00021,-0.00011999999999999999,-5.9999999999999995e-05,5
21460,22462,0.00015,-2.9999999999999997e-05,-0.0005,-0.00081,-0.00011999999999999999,-0.0003,-1e-05,5.9999999999999995e-05,5
21461,22463,0.00015,-2.9999999999999997e-05,-0.0005,-0.00081,-0.00011999999999999999,-0.0003,-1e-05,5.9999999999999995e-05,5
21462,22464,0.00015,-2.9999999999999997e-05,-0.0005,-0.00081,-0.00011999999999999999,-0.0003,-1e-05,5.9999999999999995e-05,5
21463,22465,0.00015,-2.9999999999999997e-05,-0.0005,-0.00081,-0.00011999999999999999,-0.0003,-1e-05,5.9999999999999995e-05,5
21464,22466,0.00015,-2.9999999999999997e-05,-0.0005,-0.00081,-0.00011999999999999999,-0.0003,-1e-05,5.9999999999999995e-05,5
21465,22467,0.00015,-2.9999999999999997e-05,-0.0005,-0.00081,-0.00011999999999999999,-0.0003,-1e-05,5.9999999999999995e-05,5
21466,22468,0.00015,-2.9999999999999997e-05,-0.0005,-0.00081,-0.00011999999999999999,-0.0003,-1e-05,5.9999999999999995e-05,5
21467,22469,0.00015,-2.9999999999999997e-05,-0.0005,-0.00081,-0.00011999999999999999,-0.0003,-1e-05,5.9999999999999995e-05,5
21468,22470,0.00014,0.00018999999999999998,0.00037,0.0,0.00059,0.00013000000000000002,-4e-05,2.9999999999999997e-05,5
21469,22471,-5e-05,0.00022999999999999998,0.00022,0.00053,-0.00028,-9e-05,-8e-05,-0.00014,5
21470,22472,-5e-05,0.00022999999999999998,0.00022,0.00053,-0.00028,-9e-05,-8e-05,-0.00014,5
21471,22473,-5e-05,0.00022999999999999998,0.00022,0.00053,-0.00028,-9e-05,-8e-05,-0.00014,5
21472,22474,-5e-05,0.00022999999999999998,0.00022,0.00053,-0.00028,-9e-05,-8e-05,-0.00014,5
21473,22475,-5e-05,0.00022999999999999998,0.00022,0.00053,-0.00028,-9e-05,-8e-05,-0.00014,5
21474,22476,-5e-05,0.00022999999999999998,0.00022,0.00053,-0.00028,-9e-05,-8e-05,-0.00014,5
21475,22477,-5e-05,0.00022999999999999998,0.00022,0.00053,-0.00028,-9e-05,-8e-05,-0.00014,5
21476,22478,-5e-05,0.00022999999999999998,0.00022,0.00053,-0.00028,-9e-05,-8e-05,-0.00014,5
21477,22479,-5e-05,0.00022999999999999998,0.00022,0.00053,-0.00028,-9e-05,-8e-05,-0.00014,5
21478,22480,-5e-05,0.00022999999999999998,0.00022,0.00053,-0.00028,-9e-05,-8e-05,-0.00014,5
21479,22481,-5e-05,0.00022999999999999998,0.00022,0.00053,-0.00028,-9e-05,-8e-05,-0.00014,5
21480,22482,-5e-05,0.00022999999999999998,0.00022,0.00053,-0.00028,-9e-05,-8e-05,-0.00014,5
21481,22483,-5e-05,0.00022999999999999998,0.00022,0.00053,-0.00028,-9e-05,-8e-05,-0.00014,5
21482,22484,-5e-05,0.00022999999999999998,0.00022,0.00053,-0.00028,-9e-05,-8e-05,-0.00014,5
21483,22485,-5e-05,0.00022999999999999998,0.00022,0.00053,-0.00028,-9e-05,-8e-05,-0.00014,5
21484,22486,-0.00011999999999999999,-0.00015,-5e-05,-0.00032,0.00016,-0.00018999999999999998,-0.0001,5e-05,5
21485,22488,0.0002,-0.00015,-0.0006900000000000001,-0.00099,-2e-05,9e-05,-5.9999999999999995e-05,-5e-05,5
21486,22489,0.0002,-0.00015,-0.0006900000000000001,-0.00099,-2e-05,9e-05,-5.9999999999999995e-05,-5e-05,5
21487,22490,0.0002,-0.00015,-0.0006900000000000001,-0.00099,-2e-05,9e-05,-5.9999999999999995e-05,-5e-05,5
21488,22491,0.0002,-0.00015,-0.0006900000000000001,-0.00099,-2e-05,9e-05,-5.9999999999999995e-05,-5e-05,5
21489,22492,0.0002,-0.00015,-0.0006900000000000001,-0.00099,-2e-05,9e-05,-5.9999999999999995e-05,-5e-05,5
21490,22493,0.0002,-0.00015,-0.0006900000000000001,-0.00099,-2e-05,9e-05,-5.9999999999999995e-05,-5e-05,5
21491,22494,0.0002,-0.00015,-0.0006900000000000001,-0.00099,-2e-05,9e-05,-5.9999999999999995e-05,-5e-05,5
21492,22495,0.0002,-0.00015,-0.0006900000000000001,-0.00099,-2e-05,9e-05,-5.9999999999999995e-05,-5e-05,5
21493,22496,0.0002,-0.00015,-0.0006900000000000001,-0.00099,-2e-05,9e-05,-5.9999999999999995e-05,-5e-05,5
21494,22497,0.0002,-0.00015,-0.0006900000000000001,-0.00099,-2e-05,9e-05,-5.9999999999999995e-05,-5e-05,5
21495,22498,0.0002,-0.00015,-0.0006900000000000001,-0.00099,-2e-05,9e-05,-5.9999999999999995e-05,-5e-05,5
21496,22499,0.0002,-0.00015,-0.0006900000000000001,-0.00099,-2e-05,9e-05,-5.9999999999999995e-05,-5e-05,5
21497,22500,0.0002,-0.00015,-0.0006900000000000001,-0.00099,-2e-05,9e-05,-5.9999999999999995e-05,-5e-05,5
21498,22501,0.0002,-0.00015,-0.0006900000000000001,-0.00099,-2e-05,9e-05,-5.9999999999999995e-05,-5e-05,5
21499,22502,0.0002,-0.00015,-0.0006900000000000001,-0.00099,-2e-05,9e-05,-5.9999999999999995e-05,-5e-05,5
21500,22503,0.0002,-0.00015,-0.0006900000000000001,-0.00099,-2e-05,9e-05,-5.9999999999999995e-05,-5e-05,5
21501,22504,0.0002,-0.00015,-0.0006900000000000001,-0.00099,-2e-05,9e-05,-5.9999999999999995e-05,-5e-05,5
21502,22505,0.0002,-0.00015,-0.0006900000000000001,-0.00099,-2e-05,9e-05,-5.9999999999999995e-05,-5e-05,5
21503,22506,0.0002,-0.00015,-0.0006900000000000001,-0.00099,-2e-05,9e-05,-5.9999999999999995e-05,-5e-05,5
21504,22507,0.0002,-0.00015,-0.0006900000000000001,-0.00099,-2e-05,9e-05,-5.9999999999999995e-05,-5e-05,5
21505,22508,0.00011,0.00022,0.00037999999999999997,0.0007099999999999999,0.00011,2.9999999999999997e-05,8e-05,0.0,5
21506,22509,0.00015,-0.00011999999999999999,-0.00028,0.00015,0.00079,0.0,-4e-05,2.9999999999999997e-05,5
21507,22510,5e-05,-2.9999999999999997e-05,2e-05,0.0007599999999999999,-0.00016999999999999999,4e-05,-2.9999999999999997e-05,7e-05,5
21508,22511,5e-05,-2.9999999999999997e-05,2e-05,0.0007599999999999999,-0.00016999999999999999,4e-05,-2.9999999999999997e-05,7e-05,5
21509,22512,5e-05,-2.9999999999999997e-05,2e-05,0.0007599999999999999,-0.00016999999999999999,4e-05,-2.9999999999999997e-05,7e-05,5
21510,22513,5e-05,-2.9999999999999997e-05,2e-05,0.0007599999999999999,-0.00016999999999999999,4e-05,-2.9999999999999997e-05,7e-05,5
21511,22514,5e-05,-2.9999999999999997e-05,2e-05,0.0007599999999999999,-0.00016999999999999999,4e-05,-2.9999999999999997e-05,7e-05,5
21512,22515,5e-05,-2.9999999999999997e-05,2e-05,0.0007599999999999999,-0.00016999999999999999,4e-05,-2.9999999999999997e-05,7e-05,5
21513,22516,5e-05,-2.9999999999999997e-05,2e-05,0.0007599999999999999,-0.00016999999999999999,4e-05,-2.9999999999999997e-05,7e-05,5
21514,22517,5e-05,-2.9999999999999997e-05,2e-05,0.0007599999999999999,-0.00016999999999999999,4e-05,-2.9999999999999997e-05,7e-05,5
21515,22518,5e-05,-2.9999999999999997e-05,2e-05,0.0007599999999999999,-0.00016999999999999999,4e-05,-2.9999999999999997e-05,7e-05,5
21516,22519,5e-05,-2.9999999999999997e-05,2e-05,0.0007599999999999999,-0.00016999999999999999,4e-05,-2.9999999999999997e-05,7e-05,5
21517,22520,5e-05,-2.9999999999999997e-05,2e-05,0.0007599999999999999,-0.00016999999999999999,4e-05,-2.9999999999999997e-05,7e-05,5
21518,22521,5e-05,-2.9999999999999997e-05,2e-05,0.0007599999999999999,-0.00016999999999999999,4e-05,-2.9999999999999997e-05,7e-05,5
21519,22522,0.0,0.00016,1e-05,-0.0006799999999999999,0.00033,-0.00014,-1e-05,4e-05,5
21520,22523,0.0,0.00016,1e-05,-0.0006799999999999999,0.00033,-0.00014,-1e-05,4e-05,5
21521,22524,0.0,0.00016,1e-05,-0.0006799999999999999,0.00033,-0.00014,-1e-05,4e-05,5
21522,22525,0.0,0.00016,1e-05,-0.0006799999999999999,0.00033,-0.00014,-1e-05,4e-05,5
21523,22526,0.0,0.00016,1e-05,-0.0006799999999999999,0.00033,-0.00014,-1e-05,4e-05,5
21524,22527,0.0,0.00016,1e-05,-0.0006799999999999999,0.00033,-0.00014,-1e-05,4e-05,5
21525,22528,0.0,0.00016,1e-05,-0.0006799999999999999,0.00033,-0.00014,-1e-05,4e-05,5
21526,22529,0.0,0.00016,1e-05,-0.0006799999999999999,0.00033,-0.00014,-1e-05,4e-05,5
21527,22530,0.0,0.00016,1e-05,-0.0006799999999999999,0.00033,-0.00014,-1e-05,4e-05,5
21528,22531,5.9999999999999995e-05,1e-05,0.00013000000000000002,0.0002,-5.9999999999999995e-05,5e-05,0.0001,0.0,5
21529,22532,5.9999999999999995e-05,1e-05,0.00013000000000000002,0.0002,-5.9999999999999995e-05,5e-05,0.0001,0.0,5
21530,22533,5.9999999999999995e-05,1e-05,0.00013000000000000002,0.0002,-5.9999999999999995e-05,5e-05,0.0001,0.0,5
21531,22534,5.9999999999999995e-05,1e-05,0.00013000000000000002,0.0002,-5.9999999999999995e-05,5e-05,0.0001,0.0,5
21532,22535,5.9999999999999995e-05,1e-05,0.00013000000000000002,0.0002,-5.9999999999999995e-05,5e-05,0.0001,0.0,5
21533,22536,5.9999999999999995e-05,1e-05,0.00013000000000000002,0.0002,-5.9999999999999995e-05,5e-05,0.0001,0.0,5
21534,22538,5.9999999999999995e-05,1e-05,0.00013000000000000002,0.0002,-5.9999999999999995e-05,5e-05,0.0001,0.0,5
21535,22539,5.9999999999999995e-05,1e-05,0.00013000000000000002,0.0002,-5.9999999999999995e-05,5e-05,0.0001,0.0,5
21536,22540,5.9999999999999995e-05,1e-05,0.00013000000000000002,0.0002,-5.9999999999999995e-05,5e-05,0.0001,0.0,5
21537,22541,5.9999999999999995e-05,1e-05,0.00013000000000000002,0.0002,-5.9999999999999995e-05,5e-05,0.0001,0.0,5
21538,22542,5.9999999999999995e-05,1e-05,0.00013000000000000002,0.0002,-5.9999999999999995e-05,5e-05,0.0001,0.0,5
21539,22543,5.9999999999999995e-05,1e-05,0.00013000000000000002,0.0002,-5.9999999999999995e-05,5e-05,0.0001,0.0,5
21540,22544,5.9999999999999995e-05,1e-05,0.00013000000000000002,0.0002,-5.9999999999999995e-05,5e-05,0.0001,0.0,5
21541,22545,5.9999999999999995e-05,1e-05,0.00013000000000000002,0.0002,-5.9999999999999995e-05,5e-05,0.0001,0.0,5
21542,22546,-0.0002,-4e-05,0.00016999999999999999,0.00027,-1e-05,-0.00011,-2.9999999999999997e-05,-5e-05,5
21543,22547,0.00027,0.00016,0.00023999999999999998,-2.9999999999999997e-05,-0.00015,-0.00018999999999999998,-0.00011,4e-05,5
21544,22548,0.0,2.9999999999999997e-05,-0.0001,-0.00086,-4e-05,-0.00011999999999999999,-5.9999999999999995e-05,-2e-05,5
21545,22549,0.0,2.9999999999999997e-05,-0.0001,-0.00086,-4e-05,-0.00011999999999999999,-5.9999999999999995e-05,-2e-05,5
21546,22550,0.0,2.9999999999999997e-05,-0.0001,-0.00086,-4e-05,-0.00011999999999999999,-5.9999999999999995e-05,-2e-05,5
21547,22551,0.0,2.9999999999999997e-05,-0.0001,-0.00086,-4e-05,-0.00011999999999999999,-5.9999999999999995e-05,-2e-05,5
21548,22552,0.0,2.9999999999999997e-05,-0.0001,-0.00086,-4e-05,-0.00011999999999999999,-5.9999999999999995e-05,-2e-05,5
21549,22553,0.0,2.9999999999999997e-05,-0.0001,-0.00086,-4e-05,-0.00011999999999999999,-5.9999999999999995e-05,-2e-05,5
21550,22554,0.0,2.9999999999999997e-05,-0.0001,-0.00086,-4e-05,-0.00011999999999999999,-5.9999999999999995e-05,-2e-05,5
21551,22555,0.0,2.9999999999999997e-05,-0.0001,-0.00086,-4e-05,-0.00011999999999999999,-5.9999999999999995e-05,-2e-05,5
21552,22556,0.0,2.9999999999999997e-05,-0.0001,-0.00086,-4e-05,-0.00011999999999999999,-5.9999999999999995e-05,-2e-05,5
21553,22557,0.0,2.9999999999999997e-05,-0.0001,-0.00086,-4e-05,-0.00011999999999999999,-5.9999999999999995e-05,-2e-05,5
21554,22558,0.0,2.9999999999999997e-05,-0.0001,-0.00086,-4e-05,-0.00011999999999999999,-5.9999999999999995e-05,-2e-05,5
21555,22559,0.0,2.9999999999999997e-05,-0.0001,-0.00086,-4e-05,-0.00011999999999999999,-5.9999999999999995e-05,-2e-05,5
21556,22560,0.0,2.9999999999999997e-05,-0.0001,-0.00086,-4e-05,-0.00011999999999999999,-5.9999999999999995e-05,-2e-05,5
21557,22561,0.0,2.9999999999999997e-05,-0.0001,-0.00086,-4e-05,-0.00011999999999999999,-5.9999999999999995e-05,-2e-05,5
21558,22562,0.0,2.9999999999999997e-05,-0.0001,-0.00086,-4e-05,-0.00011999999999999999,-5.9999999999999995e-05,-2e-05,5
21559,22563,0.0,2.9999999999999997e-05,-0.0001,-0.00086,-4e-05,-0.00011999999999999999,-5.9999999999999995e-05,-2e-05,5
21560,22564,0.0,2.9999999999999997e-05,-0.0001,-0.00086,-4e-05,-0.00011999999999999999,-5.9999999999999995e-05,-2e-05,5
21561,22565,0.0,2.9999999999999997e-05,-0.0001,-0.00086,-4e-05,-0.00011999999999999999,-5.9999999999999995e-05,-2e-05,5
21562,22566,0.0,2.9999999999999997e-05,-0.0001,-0.00086,-4e-05,-0.00011999999999999999,-5.9999999999999995e-05,-2e-05,5
21563,22567,0.0,2.9999999999999997e-05,-0.0001,-0.00086,-4e-05,-0.00011999999999999999,-5.9999999999999995e-05,-2e-05,5
21564,22568,0.00014,-0.0002,-0.00023999999999999998,0.0009,0.00058,4e-05,-4e-05,-5e-05,5
21565,22569,0.00014,-0.0002,-0.00023999999999999998,0.0009,0.00058,4e-05,-4e-05,-5e-05,5
21566,22570,-0.00014,-0.00027,-0.00036,5.9999999999999995e-05,0.00036,-7e-05,-5.9999999999999995e-05,-9e-05,5
21567,22571,-0.00014,-0.00027,-0.00036,5.9999999999999995e-05,0.00036,-7e-05,-5.9999999999999995e-05,-9e-05,5
21568,22572,-0.00014,-0.00027,-0.00036,5.9999999999999995e-05,0.00036,-7e-05,-5.9999999999999995e-05,-9e-05,5
21569,22573,-0.00014,-0.00027,-0.00036,5.9999999999999995e-05,0.00036,-7e-05,-5.9999999999999995e-05,-9e-05,5
21570,22574,-0.00014,-0.00027,-0.00036,5.9999999999999995e-05,0.00036,-7e-05,-5.9999999999999995e-05,-9e-05,5
21571,22575,-0.00014,-0.00027,-0.00036,5.9999999999999995e-05,0.00036,-7e-05,-5.9999999999999995e-05,-9e-05,5
21572,22576,-0.00014,-0.00027,-0.00036,5.9999999999999995e-05,0.00036,-7e-05,-5.9999999999999995e-05,-9e-05,5
21573,22577,-0.00014,-0.00027,-0.00036,5.9999999999999995e-05,0.00036,-7e-05,-5.9999999999999995e-05,-9e-05,5
21574,22578,-0.00014,-0.00027,-0.00036,5.9999999999999995e-05,0.00036,-7e-05,-5.9999999999999995e-05,-9e-05,5
21575,22579,-0.00014,-0.00027,-0.00036,5.9999999999999995e-05,0.00036,-7e-05,-5.9999999999999995e-05,-9e-05,5
21576,22580,-0.00014,-0.00027,-0.00036,5.9999999999999995e-05,0.00036,-7e-05,-5.9999999999999995e-05,-9e-05,5
21577,22581,-0.00014,-0.00027,-0.00036,5.9999999999999995e-05,0.00036,-7e-05,-5.9999999999999995e-05,-9e-05,5
21578,22582,-0.00014,-0.00027,-0.00036,5.9999999999999995e-05,0.00036,-7e-05,-5.9999999999999995e-05,-9e-05,5
21579,22583,-0.00014,-0.00027,-0.00036,5.9999999999999995e-05,0.00036,-7e-05,-5.9999999999999995e-05,-9e-05,5
21580,22584,-0.00014,-0.00027,-0.00036,5.9999999999999995e-05,0.00036,-7e-05,-5.9999999999999995e-05,-9e-05,5
21581,22585,-0.00014,-0.00027,-0.00036,5.9999999999999995e-05,0.00036,-7e-05,-5.9999999999999995e-05,-9e-05,5
21582,22586,-0.00014,-0.00027,-0.00036,5.9999999999999995e-05,0.00036,-7e-05,-5.9999999999999995e-05,-9e-05,5
21583,22588,-0.00014,-0.00027,-0.00036,5.9999999999999995e-05,0.00036,-7e-05,-5.9999999999999995e-05,-9e-05,5
21584,22590,-0.00014,-0.00027,-0.00036,5.9999999999999995e-05,0.00036,-7e-05,-5.9999999999999995e-05,-9e-05,5
21585,22591,0.00032,-1e-05,-0.00018,-0.00128,-0.00078,0.00015,-5.9999999999999995e-05,4e-05,5
21586,22592,-5e-05,1e-05,0.00037,0.0010400000000000001,0.00018,2.9999999999999997e-05,7e-05,0.0,5
21587,22593,5.9999999999999995e-05,2.9999999999999997e-05,0.00018,0.00049,0.00033999999999999997,0.00022,8e-05,4e-05,5
21588,22594,5.9999999999999995e-05,2.9999999999999997e-05,0.00018,0.00049,0.00033999999999999997,0.00022,8e-05,4e-05,5
21589,22595,5.9999999999999995e-05,2.9999999999999997e-05,0.00018,0.00049,0.00033999999999999997,0.00022,8e-05,4e-05,5
21590,22596,5.9999999999999995e-05,2.9999999999999997e-05,0.00018,0.00049,0.00033999999999999997,0.00022,8e-05,4e-05,5
21591,22597,5.9999999999999995e-05,2.9999999999999997e-05,0.00018,0.00049,0.00033999999999999997,0.00022,8e-05,4e-05,5
21592,22598,5.9999999999999995e-05,2.9999999999999997e-05,0.00018,0.00049,0.00033999999999999997,0.00022,8e-05,4e-05,5
21593,22599,5.9999999999999995e-05,2.9999999999999997e-05,0.00018,0.00049,0.00033999999999999997,0.00022,8e-05,4e-05,5
21594,22600,5.9999999999999995e-05,2.9999999999999997e-05,0.00018,0.00049,0.00033999999999999997,0.00022,8e-05,4e-05,5
21595,22601,5.9999999999999995e-05,2.9999999999999997e-05,0.00018,0.00049,0.00033999999999999997,0.00022,8e-05,4e-05,5
21596,22602,5.9999999999999995e-05,2.9999999999999997e-05,0.00018,0.00049,0.00033999999999999997,0.00022,8e-05,4e-05,5
21597,22603,5.9999999999999995e-05,2.9999999999999997e-05,0.00018,0.00049,0.00033999999999999997,0.00022,8e-05,4e-05,5
21598,22604,5.9999999999999995e-05,2.9999999999999997e-05,0.00018,0.00049,0.00033999999999999997,0.00022,8e-05,4e-05,5
21599,22605,1e-05,0.00022,0.00022,-7e-05,-0.00031,0.00037999999999999997,0.00015,2.9999999999999997e-05,5
21600,22606,1e-05,0.00022,0.00022,-7e-05,-0.00031,0.00037999999999999997,0.00015,2.9999999999999997e-05,5
21601,22607,1e-05,0.00022,0.00022,-7e-05,-0.00031,0.00037999999999999997,0.00015,2.9999999999999997e-05,5
21602,22608,1e-05,0.00022,0.00022,-7e-05,-0.00031,0.00037999999999999997,0.00015,2.9999999999999997e-05,5
21603,22609,1e-05,0.00022,0.00022,-7e-05,-0.00031,0.00037999999999999997,0.00015,2.9999999999999997e-05,5
21604,22610,1e-05,0.00022,0.00022,-7e-05,-0.00031,0.00037999999999999997,0.00015,2.9999999999999997e-05,5
21605,22611,1e-05,0.00022,0.00022,-7e-05,-0.00031,0.00037999999999999997,0.00015,2.9999999999999997e-05,5
21606,22612,-0.00033,0.00014,0.00023999999999999998,-0.00028,0.00021,0.00013000000000000002,-1e-05,-2e-05,5
21607,22613,-0.00033,0.00014,0.00023999999999999998,-0.00028,0.00021,0.00013000000000000002,-1e-05,-2e-05,5
21608,22614,-0.00033,0.00014,0.00023999999999999998,-0.00028,0.00021,0.00013000000000000002,-1e-05,-2e-05,5
21609,22615,-0.00033,0.00014,0.00023999999999999998,-0.00028,0.00021,0.00013000000000000002,-1e-05,-2e-05,5
21610,22616,-0.00033,0.00014,0.00023999999999999998,-0.00028,0.00021,0.00013000000000000002,-1e-05,-2e-05,5
21611,22617,-0.00033,0.00014,0.00023999999999999998,-0.00028,0.00021,0.00013000000000000002,-1e-05,-2e-05,5
21612,22618,-0.00033,0.00014,0.00023999999999999998,-0.00028,0.00021,0.00013000000000000002,-1e-05,-2e-05,5
21613,22619,-0.00033,0.00014,0.00023999999999999998,-0.00028,0.00021,0.00013000000000000002,-1e-05,-2e-05,5
21614,22620,-0.00033,0.00014,0.00023999999999999998,-0.00028,0.00021,0.00013000000000000002,-1e-05,-2e-05,5
21615,22621,-0.00033,0.00014,0.00023999999999999998,-0.00028,0.00021,0.00013000000000000002,-1e-05,-2e-05,5
21616,22622,-0.00033,0.00014,0.00023999999999999998,-0.00028,0.00021,0.00013000000000000002,-1e-05,-2e-05,5
21617,22623,-0.00033,0.00014,0.00023999999999999998,-0.00028,0.00021,0.00013000000000000002,-1e-05,-2e-05,5
21618,22624,-0.00033,0.00014,0.00023999999999999998,-0.00028,0.00021,0.00013000000000000002,-1e-05,-2e-05,5
21619,22625,-0.00033,0.00014,0.00023999999999999998,-0.00028,0.00021,0.00013000000000000002,-1e-05,-2e-05,5
21620,22626,-0.00033,0.00014,0.00023999999999999998,-0.00028,0.00021,0.00013000000000000002,-1e-05,-2e-05,5
21621,22627,-8e-05,8e-05,-0.00014,-0.00039,-0.00011999999999999999,0.00013000000000000002,4e-05,-4e-05,5
21622,22628,-8e-05,8e-05,-0.00014,-0.00039,-0.00011999999999999999,0.00013000000000000002,4e-05,-4e-05,5
21623,22629,-8e-05,8e-05,-0.00014,-0.00039,-0.00011999999999999999,0.00013000000000000002,4e-05,-4e-05,5
21624,22630,-8e-05,8e-05,-0.00014,-0.00039,-0.00011999999999999999,0.00013000000000000002,4e-05,-4e-05,5
21625,22631,-8e-05,8e-05,-0.00014,-0.00039,-0.00011999999999999999,0.00013000000000000002,4e-05,-4e-05,5
21626,22632,-8e-05,8e-05,-0.00014,-0.00039,-0.00011999999999999999,0.00013000000000000002,4e-05,-4e-05,5
21627,22633,-8e-05,8e-05,-0.00014,-0.00039,-0.00011999999999999999,0.00013000000000000002,4e-05,-4e-05,5
21628,22634,-8e-05,8e-05,-0.00014,-0.00039,-0.00011999999999999999,0.00013000000000000002,4e-05,-4e-05,5
21629,22635,-8e-05,8e-05,-0.00014,-0.00039,-0.00011999999999999999,0.00013000000000000002,4e-05,-4e-05,5
21630,22636,0.0004,-8e-05,5.9999999999999995e-05,5.9999999999999995e-05,-0.00025,-0.00018,1e-05,0.00016999999999999999,5
21631,22638,0.0004,-8e-05,5.9999999999999995e-05,5.9999999999999995e-05,-0.00025,-0.00018,1e-05,0.00016999999999999999,5
21632,22640,0.0004,-8e-05,5.9999999999999995e-05,5.9999999999999995e-05,-0.00025,-0.00018,1e-05,0.00016999999999999999,5
21633,22641,0.0004,-8e-05,5.9999999999999995e-05,5.9999999999999995e-05,-0.00025,-0.00018,1e-05,0.00016999999999999999,5
21634,22642,0.0004,-8e-05,5.9999999999999995e-05,5.9999999999999995e-05,-0.00025,-0.00018,1e-05,0.00016999999999999999,5
21635,22643,0.0004,-8e-05,5.9999999999999995e-05,5.9999999999999995e-05,-0.00025,-0.00018,1e-05,0.00016999999999999999,5
21636,22644,0.0004,-8e-05,5.9999999999999995e-05,5.9999999999999995e-05,-0.00025,-0.00018,1e-05,0.00016999999999999999,5
21637,22645,0.0004,-8e-05,5.9999999999999995e-05,5.9999999999999995e-05,-0.00025,-0.00018,1e-05,0.00016999999999999999,5
21638,22646,0.0004,-8e-05,5.9999999999999995e-05,5.9999999999999995e-05,-0.00025,-0.00018,1e-05,0.00016999999999999999,5
21639,22647,0.0004,-8e-05,5.9999999999999995e-05,5.9999999999999995e-05,-0.00025,-0.00018,1e-05,0.00016999999999999999,5
21640,22648,0.0004,-8e-05,5.9999999999999995e-05,5.9999999999999995e-05,-0.00025,-0.00018,1e-05,0.00016999999999999999,5
21641,22649,0.0004,-8e-05,5.9999999999999995e-05,5.9999999999999995e-05,-0.00025,-0.00018,1e-05,0.00016999999999999999,5
21642,22650,0.0004,-8e-05,5.9999999999999995e-05,5.9999999999999995e-05,-0.00025,-0.00018,1e-05,0.00016999999999999999,5
21643,22651,7e-05,9e-05,0.00022999999999999998,0.00047999999999999996,-0.00026000000000000003,-0.0001,5e-05,-8e-05,5
21644,22652,1e-05,-0.00016,-0.00022999999999999998,-5.9999999999999995e-05,-4e-05,-0.00033,-0.00013000000000000002,-2.9999999999999997e-05,5
21645,22653,1e-05,-0.00016,-0.00022999999999999998,-5.9999999999999995e-05,-4e-05,-0.00033,-0.00013000000000000002,-2.9999999999999997e-05,5
21646,22654,1e-05,-0.00016,-0.00022999999999999998,-5.9999999999999995e-05,-4e-05,-0.00033,-0.00013000000000000002,-2.9999999999999997e-05,5
21647,22655,1e-05,-0.00016,-0.00022999999999999998,-5.9999999999999995e-05,-4e-05,-0.00033,-0.00013000000000000002,-2.9999999999999997e-05,5
21648,22656,1e-05,-0.00016,-0.00022999999999999998,-5.9999999999999995e-05,-4e-05,-0.00033,-0.00013000000000000002,-2.9999999999999997e-05,5
21649,22657,1e-05,-0.00016,-0.00022999999999999998,-5.9999999999999995e-05,-4e-05,-0.00033,-0.00013000000000000002,-2.9999999999999997e-05,5
21650,22658,1e-05,-0.00016,-0.00022999999999999998,-5.9999999999999995e-05,-4e-05,-0.00033,-0.00013000000000000002,-2.9999999999999997e-05,5
21651,22659,1e-05,-0.00016,-0.00022999999999999998,-5.9999999999999995e-05,-4e-05,-0.00033,-0.00013000000000000002,-2.9999999999999997e-05,5
21652,22660,1e-05,-0.00016,-0.00022999999999999998,-5.9999999999999995e-05,-4e-05,-0.00033,-0.00013000000000000002,-2.9999999999999997e-05,5
21653,22661,1e-05,-0.00016,-0.00022999999999999998,-5.9999999999999995e-05,-4e-05,-0.00033,-0.00013000000000000002,-2.9999999999999997e-05,5
21654,22662,1e-05,-0.00016,-0.00022999999999999998,-5.9999999999999995e-05,-4e-05,-0.00033,-0.00013000000000000002,-2.9999999999999997e-05,5
21655,22663,1e-05,-0.00016,-0.00022999999999999998,-5.9999999999999995e-05,-4e-05,-0.00033,-0.00013000000000000002,-2.9999999999999997e-05,5
21656,22664,1e-05,-0.00016,-0.00022999999999999998,-5.9999999999999995e-05,-4e-05,-0.00033,-0.00013000000000000002,-2.9999999999999997e-05,5
21657,22665,1e-05,-0.00016,-0.00022999999999999998,-5.9999999999999995e-05,-4e-05,-0.00033,-0.00013000000000000002,-2.9999999999999997e-05,5
21658,22666,0.0001,0.00018,0.00032,-0.00036,-0.00013000000000000002,0.00033,0.00011,9e-05,5
21659,22667,-7e-05,-1e-05,-0.00022999999999999998,-0.00043,-0.00055,-1e-05,2e-05,-4e-05,5
21660,22668,-7e-05,-1e-05,-0.00022999999999999998,-0.00043,-0.00055,-1e-05,2e-05,-4e-05,5
21661,22669,-7e-05,-1e-05,-0.00022999999999999998,-0.00043,-0.00055,-1e-05,2e-05,-4e-05,5
21662,22670,-7e-05,-1e-05,-0.00022999999999999998,-0.00043,-0.00055,-1e-05,2e-05,-4e-05,5
21663,22671,-7e-05,-1e-05,-0.00022999999999999998,-0.00043,-0.00055,-1e-05,2e-05,-4e-05,5
21664,22672,-7e-05,-1e-05,-0.00022999999999999998,-0.00043,-0.00055,-1e-05,2e-05,-4e-05,5
21665,22673,-7e-05,-1e-05,-0.00022999999999999998,-0.00043,-0.00055,-1e-05,2e-05,-4e-05,5
21666,22674,-7e-05,-1e-05,-0.00022999999999999998,-0.00043,-0.00055,-1e-05,2e-05,-4e-05,5
21667,22675,-7e-05,-1e-05,-0.00022999999999999998,-0.00043,-0.00055,-1e-05,2e-05,-4e-05,5
21668,22676,-7e-05,-1e-05,-0.00022999999999999998,-0.00043,-0.00055,-1e-05,2e-05,-4e-05,5
21669,22677,-7e-05,-1e-05,-0.00022999999999999998,-0.00043,-0.00055,-1e-05,2e-05,-4e-05,5
21670,22678,-7e-05,-1e-05,-0.00022999999999999998,-0.00043,-0.00055,-1e-05,2e-05,-4e-05,5
21671,22679,-7e-05,-1e-05,-0.00022999999999999998,-0.00043,-0.00055,-1e-05,2e-05,-4e-05,5
21672,22680,-7e-05,-1e-05,-0.00022999999999999998,-0.00043,-0.00055,-1e-05,2e-05,-4e-05,5
21673,22681,-7e-05,-1e-05,-0.00022999999999999998,-0.00043,-0.00055,-1e-05,2e-05,-4e-05,5
21674,22682,-7e-05,-1e-05,-0.00022999999999999998,-0.00043,-0.00055,-1e-05,2e-05,-4e-05,5
21675,22683,-7e-05,-1e-05,-0.00022999999999999998,-0.00043,-0.00055,-1e-05,2e-05,-4e-05,5
21676,22684,-7e-05,-1e-05,-0.00022999999999999998,-0.00043,-0.00055,-1e-05,2e-05,-4e-05,5
21677,22685,-7e-05,-1e-05,-0.00022999999999999998,-0.00043,-0.00055,-1e-05,2e-05,-4e-05,5
21678,22686,-7e-05,-1e-05,-0.00022999999999999998,-0.00043,-0.00055,-1e-05,2e-05,-4e-05,5
21679,22688,-7e-05,-1e-05,-0.00022999999999999998,-0.00043,-0.00055,-1e-05,2e-05,-4e-05,5
21680,22689,-0.00037,-0.00042,-0.0007099999999999999,0.00043,0.00022,-0.00016,-5.9999999999999995e-05,-0.00015,5
21681,22690,-0.00037,-0.00042,-0.0007099999999999999,0.00043,0.00022,-0.00016,-5.9999999999999995e-05,-0.00015,5
21682,22691,-0.00037,-0.00042,-0.0007099999999999999,0.00043,0.00022,-0.00016,-5.9999999999999995e-05,-0.00015,5
21683,22692,-0.00037,-0.00042,-0.0007099999999999999,0.00043,0.00022,-0.00016,-5.9999999999999995e-05,-0.00015,5
21684,22693,-0.00037,-0.00042,-0.0007099999999999999,0.00043,0.00022,-0.00016,-5.9999999999999995e-05,-0.00015,5
21685,22694,0.00045999999999999996,0.00032,0.00065,-2.9999999999999997e-05,-0.0002,-1e-05,-5e-05,8e-05,5
21686,22695,-0.00049,-0.00033999999999999997,-0.00047999999999999996,0.0012699999999999999,0.00061,0.00022999999999999998,2.9999999999999997e-05,-0.00018,5
21687,22696,-0.00049,-0.00033999999999999997,-0.00047999999999999996,0.0012699999999999999,0.00061,0.00022999999999999998,2.9999999999999997e-05,-0.00018,5
21688,22697,-0.00049,-0.00033999999999999997,-0.00047999999999999996,0.0012699999999999999,0.00061,0.00022999999999999998,2.9999999999999997e-05,-0.00018,5
21689,22698,-0.00049,-0.00033999999999999997,-0.00047999999999999996,0.0012699999999999999,0.00061,0.00022999999999999998,2.9999999999999997e-05,-0.00018,5
21690,22699,-0.00049,-0.00033999999999999997,-0.00047999999999999996,0.0012699999999999999,0.00061,0.00022999999999999998,2.9999999999999997e-05,-0.00018,5
21691,22700,-0.00049,-0.00033999999999999997,-0.00047999999999999996,0.0012699999999999999,0.00061,0.00022999999999999998,2.9999999999999997e-05,-0.00018,5
21692,22701,-0.00049,-0.00033999999999999997,-0.00047999999999999996,0.0012699999999999999,0.00061,0.00022999999999999998,2.9999999999999997e-05,-0.00018,5
21693,22702,-0.00049,-0.00033999999999999997,-0.00047999999999999996,0.0012699999999999999,0.00061,0.00022999999999999998,2.9999999999999997e-05,-0.00018,5
21694,22703,-0.00049,-0.00033999999999999997,-0.00047999999999999996,0.0012699999999999999,0.00061,0.00022999999999999998,2.9999999999999997e-05,-0.00018,5
21695,22704,-0.00049,-0.00033999999999999997,-0.00047999999999999996,0.0012699999999999999,0.00061,0.00022999999999999998,2.9999999999999997e-05,-0.00018,5
21696,22705,-0.00049,-0.00033999999999999997,-0.00047999999999999996,0.0012699999999999999,0.00061,0.00022999999999999998,2.9999999999999997e-05,-0.00018,5
21697,22706,-0.00049,-0.00033999999999999997,-0.00047999999999999996,0.0012699999999999999,0.00061,0.00022999999999999998,2.9999999999999997e-05,-0.00018,5
21698,22707,-0.00049,-0.00033999999999999997,-0.00047999999999999996,0.0012699999999999999,0.00061,0.00022999999999999998,2.9999999999999997e-05,-0.00018,5
21699,22708,-0.00049,-0.00033999999999999997,-0.00047999999999999996,0.0012699999999999999,0.00061,0.00022999999999999998,2.9999999999999997e-05,-0.00018,5
21700,22709,-0.00049,-0.00033999999999999997,-0.00047999999999999996,0.0012699999999999999,0.00061,0.00022999999999999998,2.9999999999999997e-05,-0.00018,5
21701,22710,-0.00049,-0.00033999999999999997,-0.00047999999999999996,0.0012699999999999999,0.00061,0.00022999999999999998,2.9999999999999997e-05,-0.00018,5
21702,22711,-0.00018999999999999998,0.00011,0.00011999999999999999,-0.00047000000000000004,-0.00029,-0.00013000000000000002,-1e-05,2e-05,5
21703,22712,4e-05,7e-05,0.00039,-0.00022999999999999998,-0.00044,-0.00016999999999999999,-1e-05,8e-05,5
21704,22713,4e-05,7e-05,0.00039,-0.00022999999999999998,-0.00044,-0.00016999999999999999,-1e-05,8e-05,5
21705,22714,4e-05,7e-05,0.00039,-0.00022999999999999998,-0.00044,-0.00016999999999999999,-1e-05,8e-05,5
21706,22715,4e-05,7e-05,0.00039,-0.00022999999999999998,-0.00044,-0.00016999999999999999,-1e-05,8e-05,5
21707,22716,4e-05,7e-05,0.00039,-0.00022999999999999998,-0.00044,-0.00016999999999999999,-1e-05,8e-05,5
21708,22717,4e-05,7e-05,0.00039,-0.00022999999999999998,-0.00044,-0.00016999999999999999,-1e-05,8e-05,5
21709,22718,4e-05,7e-05,0.00039,-0.00022999999999999998,-0.00044,-0.00016999999999999999,-1e-05,8e-05,5
21710,22719,4e-05,7e-05,0.00039,-0.00022999999999999998,-0.00044,-0.00016999999999999999,-1e-05,8e-05,5
21711,22720,4e-05,7e-05,0.00039,-0.00022999999999999998,-0.00044,-0.00016999999999999999,-1e-05,8e-05,5
21712,22721,4e-05,7e-05,0.00039,-0.00022999999999999998,-0.00044,-0.00016999999999999999,-1e-05,8e-05,5
21713,22722,4e-05,7e-05,0.00039,-0.00022999999999999998,-0.00044,-0.00016999999999999999,-1e-05,8e-05,5
21714,22723,4e-05,7e-05,0.00039,-0.00022999999999999998,-0.00044,-0.00016999999999999999,-1e-05,8e-05,5
21715,22724,4e-05,7e-05,0.00039,-0.00022999999999999998,-0.00044,-0.00016999999999999999,-1e-05,8e-05,5
21716,22725,2e-05,1e-05,0.00043,0.00062,0.00042,5.9999999999999995e-05,4e-05,8e-05,5
21717,22726,2e-05,1e-05,0.00043,0.00062,0.00042,5.9999999999999995e-05,4e-05,8e-05,5
21718,22727,2e-05,1e-05,0.00043,0.00062,0.00042,5.9999999999999995e-05,4e-05,8e-05,5
21719,22728,2e-05,1e-05,0.00043,0.00062,0.00042,5.9999999999999995e-05,4e-05,8e-05,5
21720,22729,2e-05,1e-05,0.00043,0.00062,0.00042,5.9999999999999995e-05,4e-05,8e-05,5
21721,22730,2e-05,1e-05,0.00043,0.00062,0.00042,5.9999999999999995e-05,4e-05,8e-05,5
21722,22731,2e-05,1e-05,0.00043,0.00062,0.00042,5.9999999999999995e-05,4e-05,8e-05,5
21723,22732,1e-05,5e-05,8e-05,0.00037999999999999997,0.00029,0.00011,-5e-05,-8e-05,5
21724,22733,1e-05,5e-05,8e-05,0.00037999999999999997,0.00029,0.00011,-5e-05,-8e-05,5
21725,22734,1e-05,5e-05,8e-05,0.00037999999999999997,0.00029,0.00011,-5e-05,-8e-05,5
21726,22735,1e-05,5e-05,8e-05,0.00037999999999999997,0.00029,0.00011,-5e-05,-8e-05,5
21727,22736,1e-05,5e-05,8e-05,0.00037999999999999997,0.00029,0.00011,-5e-05,-8e-05,5
21728,22738,1e-05,5e-05,8e-05,0.00037999999999999997,0.00029,0.00011,-5e-05,-8e-05,5
21729,22739,1e-05,5e-05,8e-05,0.00037999999999999997,0.00029,0.00011,-5e-05,-8e-05,5
21730,22740,1e-05,5e-05,8e-05,0.00037999999999999997,0.00029,0.00011,-5e-05,-8e-05,5
21731,22741,1e-05,5e-05,8e-05,0.00037999999999999997,0.00029,0.00011,-5e-05,-8e-05,5
21732,22742,1e-05,5e-05,8e-05,0.00037999999999999997,0.00029,0.00011,-5e-05,-8e-05,5
21733,22743,1e-05,5e-05,8e-05,0.00037999999999999997,0.00029,0.00011,-5e-05,-8e-05,5
21734,22744,1e-05,5e-05,8e-05,0.00037999999999999997,0.00029,0.00011,-5e-05,-8e-05,5
21735,22745,1e-05,5e-05,8e-05,0.00037999999999999997,0.00029,0.00011,-5e-05,-8e-05,5
21736,22746,1e-05,5e-05,8e-05,0.00037999999999999997,0.00029,0.00011,-5e-05,-8e-05,5
21737,22747,1e-05,5e-05,8e-05,0.00037999999999999997,0.00029,0.00011,-5e-05,-8e-05,5
21738,22748,-0.00065,-0.00031,0.00011,0.00063,-4e-05,0.00037,5e-05,-4e-05,5
21739,22749,-0.00065,-0.00031,0.00011,0.00063,-4e-05,0.00037,5e-05,-4e-05,5
21740,22750,-0.00065,-0.00031,0.00011,0.00063,-4e-05,0.00037,5e-05,-4e-05,5
21741,22751,-0.00065,-0.00031,0.00011,0.00063,-4e-05,0.00037,5e-05,-4e-05,5
21742,22752,-0.00065,-0.00031,0.00011,0.00063,-4e-05,0.00037,5e-05,-4e-05,5
21743,22753,-0.00065,-0.00031,0.00011,0.00063,-4e-05,0.00037,5e-05,-4e-05,5
21744,22754,-0.00065,-0.00031,0.00011,0.00063,-4e-05,0.00037,5e-05,-4e-05,5
21745,22755,-0.00065,-0.00031,0.00011,0.00063,-4e-05,0.00037,5e-05,-4e-05,5
21746,22756,0.00033,0.00027,0.00039,0.00013000000000000002,-2.9999999999999997e-05,-0.00018,-2.9999999999999997e-05,5.9999999999999995e-05,5
21747,22757,0.00033,0.00027,0.00039,0.00013000000000000002,-2.9999999999999997e-05,-0.00018,-2.9999999999999997e-05,5.9999999999999995e-05,5
21748,22758,0.00033,0.00027,0.00039,0.00013000000000000002,-2.9999999999999997e-05,-0.00018,-2.9999999999999997e-05,5.9999999999999995e-05,5
21749,22759,0.00033,0.00027,0.00039,0.00013000000000000002,-2.9999999999999997e-05,-0.00018,-2.9999999999999997e-05,5.9999999999999995e-05,5
21750,22760,0.00033,0.00027,0.00039,0.00013000000000000002,-2.9999999999999997e-05,-0.00018,-2.9999999999999997e-05,5.9999999999999995e-05,5
21751,22761,0.00033,0.00027,0.00039,0.00013000000000000002,-2.9999999999999997e-05,-0.00018,-2.9999999999999997e-05,5.9999999999999995e-05,5
21752,22762,0.00033,0.00027,0.00039,0.00013000000000000002,-2.9999999999999997e-05,-0.00018,-2.9999999999999997e-05,5.9999999999999995e-05,5
21753,22763,0.00033,0.00027,0.00039,0.00013000000000000002,-2.9999999999999997e-05,-0.00018,-2.9999999999999997e-05,5.9999999999999995e-05,5
21754,22764,0.00033,0.00027,0.00039,0.00013000000000000002,-2.9999999999999997e-05,-0.00018,-2.9999999999999997e-05,5.9999999999999995e-05,5
21755,22765,0.00033,0.00027,0.00039,0.00013000000000000002,-2.9999999999999997e-05,-0.00018,-2.9999999999999997e-05,5.9999999999999995e-05,5
21756,22766,0.00033,0.00027,0.00039,0.00013000000000000002,-2.9999999999999997e-05,-0.00018,-2.9999999999999997e-05,5.9999999999999995e-05,5
21757,22767,0.00033,0.00027,0.00039,0.00013000000000000002,-2.9999999999999997e-05,-0.00018,-2.9999999999999997e-05,5.9999999999999995e-05,5
21758,22768,0.00033,0.00027,0.00039,0.00013000000000000002,-2.9999999999999997e-05,-0.00018,-2.9999999999999997e-05,5.9999999999999995e-05,5
21759,22769,0.00033,0.00027,0.00039,0.00013000000000000002,-2.9999999999999997e-05,-0.00018,-2.9999999999999997e-05,5.9999999999999995e-05,5
21760,22770,0.00033,0.00027,0.00039,0.00013000000000000002,-2.9999999999999997e-05,-0.00018,-2.9999999999999997e-05,5.9999999999999995e-05,5
21761,22771,-2e-05,1e-05,5.9999999999999995e-05,0.00014,-0.00032,-0.00026000000000000003,-5e-05,0.0,5
21762,22772,-2e-05,1e-05,5.9999999999999995e-05,0.00014,-0.00032,-0.00026000000000000003,-5e-05,0.0,5
21763,22774,0.0,0.0002,0.00058,0.00036,0.00065,0.00011999999999999999,-7e-05,-1e-05,5
21764,22775,-1e-05,7e-05,0.00047999999999999996,-0.00056,0.00022,0.00018999999999999998,5.9999999999999995e-05,4e-05,5
21765,22776,-1e-05,7e-05,0.00047999999999999996,-0.00056,0.00022,0.00018999999999999998,5.9999999999999995e-05,4e-05,5
21766,22777,-1e-05,7e-05,0.00047999999999999996,-0.00056,0.00022,0.00018999999999999998,5.9999999999999995e-05,4e-05,5
21767,22778,-1e-05,7e-05,0.00047999999999999996,-0.00056,0.00022,0.00018999999999999998,5.9999999999999995e-05,4e-05,5
21768,22779,-1e-05,7e-05,0.00047999999999999996,-0.00056,0.00022,0.00018999999999999998,5.9999999999999995e-05,4e-05,5
21769,22780,-1e-05,7e-05,0.00047999999999999996,-0.00056,0.00022,0.00018999999999999998,5.9999999999999995e-05,4e-05,5
21770,22781,-1e-05,7e-05,0.00047999999999999996,-0.00056,0.00022,0.00018999999999999998,5.9999999999999995e-05,4e-05,5
21771,22782,-1e-05,7e-05,0.00047999999999999996,-0.00056,0.00022,0.00018999999999999998,5.9999999999999995e-05,4e-05,5
21772,22783,-1e-05,7e-05,0.00047999999999999996,-0.00056,0.00022,0.00018999999999999998,5.9999999999999995e-05,4e-05,5
21773,22784,-1e-05,7e-05,0.00047999999999999996,-0.00056,0.00022,0.00018999999999999998,5.9999999999999995e-05,4e-05,5
21774,22785,-1e-05,7e-05,0.00047999999999999996,-0.00056,0.00022,0.00018999999999999998,5.9999999999999995e-05,4e-05,5
21775,22786,-4e-05,2.9999999999999997e-05,0.00015,-0.00063,-0.00018,-8e-05,-7e-05,-0.00018,5
21776,22788,-4e-05,2.9999999999999997e-05,0.00015,-0.00063,-0.00018,-8e-05,-7e-05,-0.00018,5
21777,22789,-4e-05,2.9999999999999997e-05,0.00015,-0.00063,-0.00018,-8e-05,-7e-05,-0.00018,5
21778,22790,-4e-05,2.9999999999999997e-05,0.00015,-0.00063,-0.00018,-8e-05,-7e-05,-0.00018,5
21779,22791,-4e-05,2.9999999999999997e-05,0.00015,-0.00063,-0.00018,-8e-05,-7e-05,-0.00018,5
21780,22792,8e-05,2e-05,-0.00022,-0.0006,-0.00018999999999999998,-9e-05,-0.00011999999999999999,-2.9999999999999997e-05,5
21781,22793,8e-05,2e-05,-0.00022,-0.0006,-0.00018999999999999998,-9e-05,-0.00011999999999999999,-2.9999999999999997e-05,5
21782,22794,8e-05,2e-05,-0.00022,-0.0006,-0.00018999999999999998,-9e-05,-0.00011999999999999999,-2.9999999999999997e-05,5
21783,22795,8e-05,2e-05,-0.00022,-0.0006,-0.00018999999999999998,-9e-05,-0.00011999999999999999,-2.9999999999999997e-05,5
21784,22796,8e-05,2e-05,-0.00022,-0.0006,-0.00018999999999999998,-9e-05,-0.00011999999999999999,-2.9999999999999997e-05,5
21785,22797,8e-05,2e-05,-0.00022,-0.0006,-0.00018999999999999998,-9e-05,-0.00011999999999999999,-2.9999999999999997e-05,5
21786,22798,8e-05,2e-05,-0.00022,-0.0006,-0.00018999999999999998,-9e-05,-0.00011999999999999999,-2.9999999999999997e-05,5
21787,22799,8e-05,2e-05,-0.00022,-0.0006,-0.00018999999999999998,-9e-05,-0.00011999999999999999,-2.9999999999999997e-05,5
21788,22800,8e-05,2e-05,-0.00022,-0.0006,-0.00018999999999999998,-9e-05,-0.00011999999999999999,-2.9999999999999997e-05,5
21789,22801,8e-05,2e-05,-0.00022,-0.0006,-0.00018999999999999998,-9e-05,-0.00011999999999999999,-2.9999999999999997e-05,5
21790,22802,8e-05,2e-05,-0.00022,-0.0006,-0.00018999999999999998,-9e-05,-0.00011999999999999999,-2.9999999999999997e-05,5
21791,22803,8e-05,2e-05,-0.00022,-0.0006,-0.00018999999999999998,-9e-05,-0.00011999999999999999,-2.9999999999999997e-05,5
21792,22804,8e-05,2e-05,-0.00022,-0.0006,-0.00018999999999999998,-9e-05,-0.00011999999999999999,-2.9999999999999997e-05,5
21793,22805,8e-05,2e-05,-0.00022,-0.0006,-0.00018999999999999998,-9e-05,-0.00011999999999999999,-2.9999999999999997e-05,5
21794,22806,8e-05,2e-05,-0.00022,-0.0006,-0.00018999999999999998,-9e-05,-0.00011999999999999999,-2.9999999999999997e-05,5
21795,22807,8e-05,2e-05,-0.00022,-0.0006,-0.00018999999999999998,-9e-05,-0.00011999999999999999,-2.9999999999999997e-05,5
21796,22808,0.00026000000000000003,-0.00013000000000000002,-0.00042,-0.00091,-0.00018,-0.00011,0.0,8e-05,5
21797,22809,0.00026000000000000003,-0.00013000000000000002,-0.00042,-0.00091,-0.00018,-0.00011,0.0,8e-05,5
21798,22810,-5.9999999999999995e-05,-7e-05,-7e-05,0.0005,0.00057,-5.9999999999999995e-05,-4e-05,-2e-05,5
21799,22811,-5.9999999999999995e-05,-7e-05,-7e-05,0.0005,0.00057,-5.9999999999999995e-05,-4e-05,-2e-05,5
21800,22812,-5.9999999999999995e-05,-7e-05,-7e-05,0.0005,0.00057,-5.9999999999999995e-05,-4e-05,-2e-05,5
21801,22813,-5.9999999999999995e-05,-7e-05,-7e-05,0.0005,0.00057,-5.9999999999999995e-05,-4e-05,-2e-05,5
21802,22814,-5.9999999999999995e-05,-7e-05,-7e-05,0.0005,0.00057,-5.9999999999999995e-05,-4e-05,-2e-05,5
21803,22815,-5.9999999999999995e-05,-7e-05,-7e-05,0.0005,0.00057,-5.9999999999999995e-05,-4e-05,-2e-05,5
21804,22816,-5.9999999999999995e-05,-7e-05,-7e-05,0.0005,0.00057,-5.9999999999999995e-05,-4e-05,-2e-05,5
21805,22817,-5.9999999999999995e-05,-7e-05,-7e-05,0.0005,0.00057,-5.9999999999999995e-05,-4e-05,-2e-05,5
21806,22818,-5.9999999999999995e-05,-7e-05,-7e-05,0.0005,0.00057,-5.9999999999999995e-05,-4e-05,-2e-05,5
21807,22819,-5.9999999999999995e-05,-7e-05,-7e-05,0.0005,0.00057,-5.9999999999999995e-05,-4e-05,-2e-05,5
21808,22820,-5.9999999999999995e-05,-7e-05,-7e-05,0.0005,0.00057,-5.9999999999999995e-05,-4e-05,-2e-05,5
21809,22821,-5.9999999999999995e-05,-7e-05,-7e-05,0.0005,0.00057,-5.9999999999999995e-05,-4e-05,-2e-05,5
21810,22822,-5.9999999999999995e-05,-7e-05,-7e-05,0.0005,0.00057,-5.9999999999999995e-05,-4e-05,-2e-05,5
21811,22823,-5.9999999999999995e-05,-7e-05,-7e-05,0.0005,0.00057,-5.9999999999999995e-05,-4e-05,-2e-05,5
21812,22824,-5.9999999999999995e-05,-7e-05,-7e-05,0.0005,0.00057,-5.9999999999999995e-05,-4e-05,-2e-05,5
21813,22825,-5.9999999999999995e-05,-7e-05,-7e-05,0.0005,0.00057,-5.9999999999999995e-05,-4e-05,-2e-05,5
21814,22826,-5.9999999999999995e-05,-7e-05,-7e-05,0.0005,0.00057,-5.9999999999999995e-05,-4e-05,-2e-05,5
21815,22827,-5.9999999999999995e-05,-7e-05,-7e-05,0.0005,0.00057,-5.9999999999999995e-05,-4e-05,-2e-05,5
21816,22828,-5.9999999999999995e-05,-7e-05,-7e-05,0.0005,0.00057,-5.9999999999999995e-05,-4e-05,-2e-05,5
21817,22829,-5.9999999999999995e-05,-7e-05,-7e-05,0.0005,0.00057,-5.9999999999999995e-05,-4e-05,-2e-05,5
21818,22830,-5.9999999999999995e-05,-7e-05,-7e-05,0.0005,0.00057,-5.9999999999999995e-05,-4e-05,-2e-05,5
21819,22831,0.00014,1e-05,8e-05,0.00011999999999999999,0.00011999999999999999,-2.9999999999999997e-05,2.9999999999999997e-05,5e-05,5
21820,22832,5e-05,5.9999999999999995e-05,-0.0002,-0.00021,-9e-05,-0.00031,-5e-05,4e-05,5
21821,22833,5e-05,5.9999999999999995e-05,-0.0002,-0.00021,-9e-05,-0.00031,-5e-05,4e-05,5
21822,22834,5e-05,5.9999999999999995e-05,-0.0002,-0.00021,-9e-05,-0.00031,-5e-05,4e-05,5
21823,22835,5e-05,5.9999999999999995e-05,-0.0002,-0.00021,-9e-05,-0.00031,-5e-05,4e-05,5
21824,22836,5e-05,5.9999999999999995e-05,-0.0002,-0.00021,-9e-05,-0.00031,-5e-05,4e-05,5
21825,22838,5e-05,5.9999999999999995e-05,-0.0002,-0.00021,-9e-05,-0.00031,-5e-05,4e-05,5
21826,22839,5e-05,5.9999999999999995e-05,-0.0002,-0.00021,-9e-05,-0.00031,-5e-05,4e-05,5
21827,22840,5e-05,5.9999999999999995e-05,-0.0002,-0.00021,-9e-05,-0.00031,-5e-05,4e-05,5
21828,22841,5e-05,5.9999999999999995e-05,-0.0002,-0.00021,-9e-05,-0.00031,-5e-05,4e-05,5
21829,22842,5e-05,5.9999999999999995e-05,-0.0002,-0.00021,-9e-05,-0.00031,-5e-05,4e-05,5
21830,22843,5e-05,5.9999999999999995e-05,-0.0002,-0.00021,-9e-05,-0.00031,-5e-05,4e-05,5
21831,22844,5e-05,5.9999999999999995e-05,-0.0002,-0.00021,-9e-05,-0.00031,-5e-05,4e-05,5
21832,22845,0.00022999999999999998,0.00011,2e-05,0.00011,0.00018,-7e-05,-4e-05,5e-05,5
21833,22846,0.00022999999999999998,0.00011,2e-05,0.00011,0.00018,-7e-05,-4e-05,5e-05,5
21834,22847,0.00022999999999999998,0.00011,2e-05,0.00011,0.00018,-7e-05,-4e-05,5e-05,5
21835,22848,0.00022999999999999998,0.00011,2e-05,0.00011,0.00018,-7e-05,-4e-05,5e-05,5
21836,22849,0.00022999999999999998,0.00011,2e-05,0.00011,0.00018,-7e-05,-4e-05,5e-05,5
21837,22850,0.00022999999999999998,0.00011,2e-05,0.00011,0.00018,-7e-05,-4e-05,5e-05,5
21838,22851,0.00022999999999999998,0.00011,2e-05,0.00011,0.00018,-7e-05,-4e-05,5e-05,5
21839,22852,-0.00014,-0.00015,-0.00018999999999999998,-0.00033,-8e-05,2e-05,-2e-05,-7e-05,5
21840,22853,-0.00014,-0.00015,-0.00018999999999999998,-0.00033,-8e-05,2e-05,-2e-05,-7e-05,5
21841,22854,-0.00014,-0.00015,-0.00018999999999999998,-0.00033,-8e-05,2e-05,-2e-05,-7e-05,5
21842,22855,-0.00014,-0.00015,-0.00018999999999999998,-0.00033,-8e-05,2e-05,-2e-05,-7e-05,5
21843,22856,-0.00014,-0.00015,-0.00018999999999999998,-0.00033,-8e-05,2e-05,-2e-05,-7e-05,5
21844,22857,-0.00014,-0.00015,-0.00018999999999999998,-0.00033,-8e-05,2e-05,-2e-05,-7e-05,5
21845,22858,-0.00014,-0.00015,-0.00018999999999999998,-0.00033,-8e-05,2e-05,-2e-05,-7e-05,5
