,time,channel1,channel2,channel3,channel4,channel5,channel6,channel7,channel8,class
21191,22094,-0.00014,-5e-05,0.0,7e-05,7e-05,5e-05,-2e-05,-5.9999999999999995e-05,5
21192,22095,-5e-05,-1e-05,-4e-05,-1e-05,0.00029,5e-05,-1e-05,-4e-05,5
21193,22096,-5e-05,-1e-05,-4e-05,-1e-05,0.00029,5e-05,-1e-05,-4e-05,5
21194,22097,-5e-05,-1e-05,-4e-05,-1e-05,0.00029,5e-05,-1e-05,-4e-05,5
21195,22098,-5e-05,-1e-05,-4e-05,-1e-05,0.00029,5e-05,-1e-05,-4e-05,5
21196,22099,-5e-05,-1e-05,-4e-05,-1e-05,0.00029,5e-05,-1e-05,-4e-05,5
21197,22100,-5e-05,-1e-05,-4e-05,-1e-05,0.00029,5e-05,-1e-05,-4e-05,5
21198,22101,-5e-05,-1e-05,-4e-05,-1e-05,0.00029,5e-05,-1e-05,-4e-05,5
21199,22102,-5e-05,-1e-05,-4e-05,-1e-05,0.00029,5e-05,-1e-05,-4e-05,5
21200,22103,-5e-05,-1e-05,-4e-05,-1e-05,0.00029,5e-05,-1e-05,-4e-05,5
21201,22104,-5e-05,-1e-05,-4e-05,-1e-05,0.00029,5e-05,-1e-05,-4e-05,5
21202,22105,-5e-05,-1e-05,-4e-05,-1e-05,0.00029,5e-05,-1e-05,-4e-05,5
21203,22106,-5e-05,-1e-05,-4e-05,-1e-05,0.00029,5e-05,-1e-05,-4e-05,5
21204,22107,-5e-05,-1e-05,-4e-05,-1e-05,0.00029,5e-05,-1e-05,-4e-05,5
21205,22108,-5e-05,-1e-05,-4e-05,-1e-05,0.00029,5e-05,-1e-05,-4e-05,5
21206,22109,-5e-05,-1e-05,-4e-05,-1e-05,0.00029,5e-05,-1e-05,-4e-05,5
21207,22110,-5e-05,-1e-05,-4e-05,-1e-05,0.00029,5e-05,-1e-05,-4e-05,5
21208,22111,-0.00011,1e-05,7e-05,-2.9999999999999997e-05,0.0005099999999999999,4e-05,1e-05,-2e-05,5
21209,22112,-0.00011,1e-05,7e-05,-2.9999999999999997e-05,0.0005099999999999999,4e-05,1e-05,-2e-05,5
21210,22113,0.0,-4e-05,-8e-05,0.00025,-2.9999999999999997e-05,-2.9999999999999997e-05,-4e-05,-1e-05,5
21211,22114,0.0,-4e-05,-8e-05,0.00025,-2.9999999999999997e-05,-2.9999999999999997e-05,-4e-05,-1e-05,5
21212,22115,0.0,-4e-05,-8e-05,0.00025,-2.9999999999999997e-05,-2.9999999999999997e-05,-4e-05,-1e-05,5
21213,22116,0.0,-4e-05,-8e-05,0.00025,-2.9999999999999997e-05,-2.9999999999999997e-05,-4e-05,-1e-05,5
21214,22117,0.0,-4e-05,-8e-05,0.00025,-2.9999999999999997e-05,-2.9999999999999997e-05,-4e-05,-1e-05,5
21215,22118,0.0,-4e-05,-8e-05,0.00025,-2.9999999999999997e-05,-2.9999999999999997e-05,-4e-05,-1e-05,5
21216,22119,0.0,-4e-05,-8e-05,0.00025,-2.9999999999999997e-05,-2.9999999999999997e-05,-4e-05,-1e-05,5
21217,22120,0.0,-4e-05,-8e-05,0.00025,-2.9999999999999997e-05,-2.9999999999999997e-05,-4e-05,-1e-05,5
21218,22121,0.0,-4e-05,-8e-05,0.00025,-2.9999999999999997e-05,-2.9999999999999997e-05,-4e-05,-1e-05,5
21219,22122,0.0,-4e-05,-8e-05,0.00025,-2.9999999999999997e-05,-2.9999999999999997e-05,-4e-05,-1e-05,5
21220,22123,0.0,-4e-05,-8e-05,0.00025,-2.9999999999999997e-05,-2.9999999999999997e-05,-4e-05,-1e-05,5
21221,22124,0.0,-4e-05,-8e-05,0.00025,-2.9999999999999997e-05,-2.9999999999999997e-05,-4e-05,-1e-05,5
21222,22125,0.0,-4e-05,-8e-05,0.00025,-2.9999999999999997e-05,-2.9999999999999997e-05,-4e-05,-1e-05,5
21223,22126,0.0,-4e-05,-8e-05,0.00025,-2.9999999999999997e-05,-2.9999999999999997e-05,-4e-05,-1e-05,5
21224,22127,0.0,-4e-05,-8e-05,0.00025,-2.9999999999999997e-05,-2.9999999999999997e-05,-4e-05,-1e-05,5
21225,22128,0.0,-4e-05,-8e-05,0.00025,-2.9999999999999997e-05,-2.9999999999999997e-05,-4e-05,-1e-05,5
21226,22129,0.0,-4e-05,-8e-05,0.00025,-2.9999999999999997e-05,-2.9999999999999997e-05,-4e-05,-1e-05,5
21227,22130,0.0,-4e-05,-8e-05,0.00025,-2.9999999999999997e-05,-2.9999999999999997e-05,-4e-05,-1e-05,5
21228,22131,0.0,-4e-05,-8e-05,0.00025,-2.9999999999999997e-05,-2.9999999999999997e-05,-4e-05,-1e-05,5
21229,22132,0.0,-4e-05,-8e-05,0.00025,-2.9999999999999997e-05,-2.9999999999999997e-05,-4e-05,-1e-05,5
21230,22133,0.0,-4e-05,-8e-05,0.00025,-2.9999999999999997e-05,-2.9999999999999997e-05,-4e-05,-1e-05,5
21231,22134,-1e-05,-2.9999999999999997e-05,-5.9999999999999995e-05,-0.00018999999999999998,-0.00033999999999999997,-9e-05,0.0,-7e-05,5
21232,22135,-1e-05,-2.9999999999999997e-05,-5.9999999999999995e-05,-0.00018999999999999998,-0.00033999999999999997,-9e-05,0.0,-7e-05,5
21233,22137,0.00022,-2e-05,-2e-05,-0.00036,-0.00018,-0.00011999999999999999,1e-05,0.00018,5
21234,22139,0.00022,-2e-05,-2e-05,-0.00036,-0.00018,-0.00011999999999999999,1e-05,0.00018,5
21235,22140,0.00022,-2e-05,-2e-05,-0.00036,-0.00018,-0.00011999999999999999,1e-05,0.00018,5
21236,22141,0.00022,-2e-05,-2e-05,-0.00036,-0.00018,-0.00011999999999999999,1e-05,0.00018,5
21237,22142,0.00022,-2e-05,-2e-05,-0.00036,-0.00018,-0.00011999999999999999,1e-05,0.00018,5
21238,22143,0.00022,-2e-05,-2e-05,-0.00036,-0.00018,-0.00011999999999999999,1e-05,0.00018,5
21239,22144,0.00022,-2e-05,-2e-05,-0.00036,-0.00018,-0.00011999999999999999,1e-05,0.00018,5
21240,22145,0.00022,-2e-05,-2e-05,-0.00036,-0.00018,-0.00011999999999999999,1e-05,0.00018,5
21241,22146,0.00022,-2e-05,-2e-05,-0.00036,-0.00018,-0.00011999999999999999,1e-05,0.00018,5
21242,22147,-0.00022999999999999998,-2.9999999999999997e-05,0.0,0.00037,0.00043,7e-05,-5.9999999999999995e-05,-0.00026000000000000003,5
21243,22148,0.00011999999999999999,2e-05,-4e-05,-0.00061,-0.00066,-0.0001,2.9999999999999997e-05,0.0001,5
21244,22149,0.00011999999999999999,2e-05,-4e-05,-0.00061,-0.00066,-0.0001,2.9999999999999997e-05,0.0001,5
21245,22150,0.00011999999999999999,2e-05,-4e-05,-0.00061,-0.00066,-0.0001,2.9999999999999997e-05,0.0001,5
21246,22151,0.00011999999999999999,2e-05,-4e-05,-0.00061,-0.00066,-0.0001,2.9999999999999997e-05,0.0001,5
21247,22152,0.00011999999999999999,2e-05,-4e-05,-0.00061,-0.00066,-0.0001,2.9999999999999997e-05,0.0001,5
21248,22153,0.00011999999999999999,2e-05,-4e-05,-0.00061,-0.00066,-0.0001,2.9999999999999997e-05,0.0001,5
21249,22154,0.00011999999999999999,2e-05,-4e-05,-0.00061,-0.00066,-0.0001,2.9999999999999997e-05,0.0001,5
21250,22155,0.00011999999999999999,2e-05,-4e-05,-0.00061,-0.00066,-0.0001,2.9999999999999997e-05,0.0001,5
21251,22156,0.0,5e-05,2.9999999999999997e-05,-0.0001,-0.00055,-2.9999999999999997e-05,2.9999999999999997e-05,0.0,5
21252,22157,0.0,5e-05,2.9999999999999997e-05,-0.0001,-0.00055,-2.9999999999999997e-05,2.9999999999999997e-05,0.0,5
21253,22158,0.0,5e-05,2.9999999999999997e-05,-0.0001,-0.00055,-2.9999999999999997e-05,2.9999999999999997e-05,0.0,5
21254,22159,0.0,5e-05,2.9999999999999997e-05,-0.0001,-0.00055,-2.9999999999999997e-05,2.9999999999999997e-05,0.0,5
21255,22160,0.0,5e-05,2.9999999999999997e-05,-0.0001,-0.00055,-2.9999999999999997e-05,2.9999999999999997e-05,0.0,5
21256,22161,0.0,5e-05,2.9999999999999997e-05,-0.0001,-0.00055,-2.9999999999999997e-05,2.9999999999999997e-05,0.0,5
21257,22162,0.0,5e-05,2.9999999999999997e-05,-0.0001,-0.00055,-2.9999999999999997e-05,2.9999999999999997e-05,0.0,5
21258,22163,0.0,5e-05,2.9999999999999997e-05,-0.0001,-0.00055,-2.9999999999999997e-05,2.9999999999999997e-05,0.0,5
21259,22164,0.0,5e-05,2.9999999999999997e-05,-0.0001,-0.00055,-2.9999999999999997e-05,2.9999999999999997e-05,0.0,5
21260,22166,0.0,5e-05,2.9999999999999997e-05,-0.0001,-0.00055,-2.9999999999999997e-05,2.9999999999999997e-05,0.0,5
21261,22167,0.0,5e-05,2.9999999999999997e-05,-0.0001,-0.00055,-2.9999999999999997e-05,2.9999999999999997e-05,0.0,5
21262,22168,0.0,5e-05,2.9999999999999997e-05,-0.0001,-0.00055,-2.9999999999999997e-05,2.9999999999999997e-05,0.0,5
21263,22169,0.0,5e-05,2.9999999999999997e-05,-0.0001,-0.00055,-2.9999999999999997e-05,2.9999999999999997e-05,0.0,5
21264,22170,0.0,5e-05,2.9999999999999997e-05,-0.0001,-0.00055,-2.9999999999999997e-05,2.9999999999999997e-05,0.0,5
21265,22171,-7e-05,2e-05,0.00013000000000000002,0.00025,0.00035,5e-05,0.0,0.0,5
21266,22172,-7e-05,2e-05,0.00013000000000000002,0.00025,0.00035,5e-05,0.0,0.0,5
21267,22173,-0.0001,2.9999999999999997e-05,5e-05,-5e-05,2.9999999999999997e-05,4e-05,-1e-05,-7e-05,5
21268,22174,-0.0001,2.9999999999999997e-05,5e-05,-5e-05,2.9999999999999997e-05,4e-05,-1e-05,-7e-05,5
21269,22175,-0.0001,2.9999999999999997e-05,5e-05,-5e-05,2.9999999999999997e-05,4e-05,-1e-05,-7e-05,5
21270,22176,-0.0001,2.9999999999999997e-05,5e-05,-5e-05,2.9999999999999997e-05,4e-05,-1e-05,-7e-05,5
21271,22177,-0.0001,2.9999999999999997e-05,5e-05,-5e-05,2.9999999999999997e-05,4e-05,-1e-05,-7e-05,5
21272,22178,-0.0001,2.9999999999999997e-05,5e-05,-5e-05,2.9999999999999997e-05,4e-05,-1e-05,-7e-05,5
21273,22179,-0.0001,2.9999999999999997e-05,5e-05,-5e-05,2.9999999999999997e-05,4e-05,-1e-05,-7e-05,5
21274,22180,-0.0001,2.9999999999999997e-05,5e-05,-5e-05,2.9999999999999997e-05,4e-05,-1e-05,-7e-05,5
21275,22181,-0.0001,2.9999999999999997e-05,5e-05,-5e-05,2.9999999999999997e-05,4e-05,-1e-05,-7e-05,5
21276,22182,-0.0001,2.9999999999999997e-05,5e-05,-5e-05,2.9999999999999997e-05,4e-05,-1e-05,-7e-05,5
21277,22183,-0.0001,2.9999999999999997e-05,5e-05,-5e-05,2.9999999999999997e-05,4e-05,-1e-05,-7e-05,5
21278,22184,-0.0001,2.9999999999999997e-05,5e-05,-5e-05,2.9999999999999997e-05,4e-05,-1e-05,-7e-05,5
21279,22185,-0.0001,2.9999999999999997e-05,5e-05,-5e-05,2.9999999999999997e-05,4e-05,-1e-05,-7e-05,5
21280,22187,-0.0001,2.9999999999999997e-05,5e-05,-5e-05,2.9999999999999997e-05,4e-05,-1e-05,-7e-05,5
21281,22189,-0.0001,2.9999999999999997e-05,5e-05,-5e-05,2.9999999999999997e-05,4e-05,-1e-05,-7e-05,5
21282,22190,-0.0001,2.9999999999999997e-05,5e-05,-5e-05,2.9999999999999997e-05,4e-05,-1e-05,-7e-05,5
21283,22191,-0.0001,2.9999999999999997e-05,5e-05,-5e-05,2.9999999999999997e-05,4e-05,-1e-05,-7e-05,5
21284,22192,-0.0001,2.9999999999999997e-05,5e-05,-5e-05,2.9999999999999997e-05,4e-05,-1e-05,-7e-05,5
21285,22193,-0.0001,2.9999999999999997e-05,5e-05,-5e-05,2.9999999999999997e-05,4e-05,-1e-05,-7e-05,5
21286,22194,-8e-05,1e-05,1e-05,0.00016,-0.00032,-1e-05,2e-05,4e-05,5
21287,22195,0.00011999999999999999,5.9999999999999995e-05,0.00011999999999999999,0.00039,0.00025,-1e-05,-4e-05,-5.9999999999999995e-05,5
21288,22196,0.00011999999999999999,5.9999999999999995e-05,0.00011999999999999999,0.00039,0.00025,-1e-05,-4e-05,-5.9999999999999995e-05,5
21289,22197,0.00011999999999999999,5.9999999999999995e-05,0.00011999999999999999,0.00039,0.00025,-1e-05,-4e-05,-5.9999999999999995e-05,5
21290,22198,0.00011999999999999999,5.9999999999999995e-05,0.00011999999999999999,0.00039,0.00025,-1e-05,-4e-05,-5.9999999999999995e-05,5
21291,22199,0.00011999999999999999,5.9999999999999995e-05,0.00011999999999999999,0.00039,0.00025,-1e-05,-4e-05,-5.9999999999999995e-05,5
21292,22200,0.00011999999999999999,5.9999999999999995e-05,0.00011999999999999999,0.00039,0.00025,-1e-05,-4e-05,-5.9999999999999995e-05,5
21293,22201,0.00011999999999999999,5.9999999999999995e-05,0.00011999999999999999,0.00039,0.00025,-1e-05,-4e-05,-5.9999999999999995e-05,5
21294,22202,0.00011999999999999999,5.9999999999999995e-05,0.00011999999999999999,0.00039,0.00025,-1e-05,-4e-05,-5.9999999999999995e-05,5
21295,22203,0.00011999999999999999,5.9999999999999995e-05,0.00011999999999999999,0.00039,0.00025,-1e-05,-4e-05,-5.9999999999999995e-05,5
21296,22204,0.00011999999999999999,5.9999999999999995e-05,0.00011999999999999999,0.00039,0.00025,-1e-05,-4e-05,-5.9999999999999995e-05,5
21297,22205,0.00011999999999999999,5.9999999999999995e-05,0.00011999999999999999,0.00039,0.00025,-1e-05,-4e-05,-5.9999999999999995e-05,5
21298,22206,0.00011999999999999999,5.9999999999999995e-05,0.00011999999999999999,0.00039,0.00025,-1e-05,-4e-05,-5.9999999999999995e-05,5
21299,22207,9e-05,-2e-05,0.0,-0.00015,-9e-05,1e-05,-2e-05,-2.9999999999999997e-05,5
21300,22208,9e-05,-2e-05,0.0,-0.00015,-9e-05,1e-05,-2e-05,-2.9999999999999997e-05,5
21301,22209,9e-05,-2e-05,0.0,-0.00015,-9e-05,1e-05,-2e-05,-2.9999999999999997e-05,5
21302,22210,9e-05,-2e-05,0.0,-0.00015,-9e-05,1e-05,-2e-05,-2.9999999999999997e-05,5
21303,22211,9e-05,-2e-05,0.0,-0.00015,-9e-05,1e-05,-2e-05,-2.9999999999999997e-05,5
21304,22213,9e-05,-2e-05,0.0,-0.00015,-9e-05,1e-05,-2e-05,-2.9999999999999997e-05,5
21305,22214,9e-05,-2e-05,0.0,-0.00015,-9e-05,1e-05,-2e-05,-2.9999999999999997e-05,5
21306,22215,9e-05,-2e-05,0.0,-0.00015,-9e-05,1e-05,-2e-05,-2.9999999999999997e-05,5
21307,22216,-0.00016,1e-05,2.9999999999999997e-05,-0.00011999999999999999,-0.0001,-9e-05,-2e-05,-4e-05,5
21308,22217,-0.00016,1e-05,2.9999999999999997e-05,-0.00011999999999999999,-0.0001,-9e-05,-2e-05,-4e-05,5
21309,22218,-0.00016,1e-05,2.9999999999999997e-05,-0.00011999999999999999,-0.0001,-9e-05,-2e-05,-4e-05,5
21310,22219,-0.00016,1e-05,2.9999999999999997e-05,-0.00011999999999999999,-0.0001,-9e-05,-2e-05,-4e-05,5
21311,22220,-0.00016,1e-05,2.9999999999999997e-05,-0.00011999999999999999,-0.0001,-9e-05,-2e-05,-4e-05,5
21312,22221,-0.00016,1e-05,2.9999999999999997e-05,-0.00011999999999999999,-0.0001,-9e-05,-2e-05,-4e-05,5
21313,22222,-0.00016,1e-05,2.9999999999999997e-05,-0.00011999999999999999,-0.0001,-9e-05,-2e-05,-4e-05,5
21314,22223,-0.00016,1e-05,2.9999999999999997e-05,-0.00011999999999999999,-0.0001,-9e-05,-2e-05,-4e-05,5
21315,22224,-0.00016,1e-05,2.9999999999999997e-05,-0.00011999999999999999,-0.0001,-9e-05,-2e-05,-4e-05,5
21316,22225,-0.00016,1e-05,2.9999999999999997e-05,-0.00011999999999999999,-0.0001,-9e-05,-2e-05,-4e-05,5
21317,22226,-0.00016,1e-05,2.9999999999999997e-05,-0.00011999999999999999,-0.0001,-9e-05,-2e-05,-4e-05,5
21318,22227,-0.00016,1e-05,2.9999999999999997e-05,-0.00011999999999999999,-0.0001,-9e-05,-2e-05,-4e-05,5
21319,22228,-0.00016,1e-05,2.9999999999999997e-05,-0.00011999999999999999,-0.0001,-9e-05,-2e-05,-4e-05,5
21320,22229,-0.00016,1e-05,2.9999999999999997e-05,-0.00011999999999999999,-0.0001,-9e-05,-2e-05,-4e-05,5
21321,22230,-0.00016,1e-05,2.9999999999999997e-05,-0.00011999999999999999,-0.0001,-9e-05,-2e-05,-4e-05,5
21322,22231,7e-05,-2.9999999999999997e-05,-9e-05,5.9999999999999995e-05,0.00033999999999999997,0.0,-4e-05,-2e-05,5
21323,22232,7e-05,-2.9999999999999997e-05,-9e-05,5.9999999999999995e-05,0.00033999999999999997,0.0,-4e-05,-2e-05,5
21324,22233,-0.00011999999999999999,2.9999999999999997e-05,5.9999999999999995e-05,-0.00025,7e-05,1e-05,2.9999999999999997e-05,-8e-05,5
21325,22234,-0.00011999999999999999,2.9999999999999997e-05,5.9999999999999995e-05,-0.00025,7e-05,1e-05,2.9999999999999997e-05,-8e-05,5
21326,22235,-0.00011999999999999999,2.9999999999999997e-05,5.9999999999999995e-05,-0.00025,7e-05,1e-05,2.9999999999999997e-05,-8e-05,5
21327,22237,-0.00011999999999999999,2.9999999999999997e-05,5.9999999999999995e-05,-0.00025,7e-05,1e-05,2.9999999999999997e-05,-8e-05,5
21328,22239,-0.00011999999999999999,2.9999999999999997e-05,5.9999999999999995e-05,-0.00025,7e-05,1e-05,2.9999999999999997e-05,-8e-05,5
21329,22240,-0.00011999999999999999,2.9999999999999997e-05,5.9999999999999995e-05,-0.00025,7e-05,1e-05,2.9999999999999997e-05,-8e-05,5
21330,22241,-0.00011999999999999999,2.9999999999999997e-05,5.9999999999999995e-05,-0.00025,7e-05,1e-05,2.9999999999999997e-05,-8e-05,5
21331,22242,-0.00011999999999999999,2.9999999999999997e-05,5.9999999999999995e-05,-0.00025,7e-05,1e-05,2.9999999999999997e-05,-8e-05,5
21332,22243,-0.00011999999999999999,2.9999999999999997e-05,5.9999999999999995e-05,-0.00025,7e-05,1e-05,2.9999999999999997e-05,-8e-05,5
21333,22244,-0.00011999999999999999,2.9999999999999997e-05,5.9999999999999995e-05,-0.00025,7e-05,1e-05,2.9999999999999997e-05,-8e-05,5
21334,22245,-0.00011999999999999999,2.9999999999999997e-05,5.9999999999999995e-05,-0.00025,7e-05,1e-05,2.9999999999999997e-05,-8e-05,5
21335,22246,-0.00011999999999999999,2.9999999999999997e-05,5.9999999999999995e-05,-0.00025,7e-05,1e-05,2.9999999999999997e-05,-8e-05,5
21336,22247,-0.00011999999999999999,2.9999999999999997e-05,5.9999999999999995e-05,-0.00025,7e-05,1e-05,2.9999999999999997e-05,-8e-05,5
21337,22248,-0.00011999999999999999,2.9999999999999997e-05,5.9999999999999995e-05,-0.00025,7e-05,1e-05,2.9999999999999997e-05,-8e-05,5
21338,22249,-0.00011999999999999999,2.9999999999999997e-05,5.9999999999999995e-05,-0.00025,7e-05,1e-05,2.9999999999999997e-05,-8e-05,5
21339,22250,-0.00011999999999999999,2.9999999999999997e-05,5.9999999999999995e-05,-0.00025,7e-05,1e-05,2.9999999999999997e-05,-8e-05,5
21340,22251,-0.00011999999999999999,2.9999999999999997e-05,5.9999999999999995e-05,-0.00025,7e-05,1e-05,2.9999999999999997e-05,-8e-05,5
21341,22252,-0.00011999999999999999,2.9999999999999997e-05,5.9999999999999995e-05,-0.00025,7e-05,1e-05,2.9999999999999997e-05,-8e-05,5
21342,22253,-0.00011999999999999999,2.9999999999999997e-05,5.9999999999999995e-05,-0.00025,7e-05,1e-05,2.9999999999999997e-05,-8e-05,5
21343,22254,-8e-05,-5e-05,-9e-05,0.00032,-7e-05,2e-05,5e-05,-2e-05,5
21344,22255,-5e-05,-5e-05,-9e-05,0.00013000000000000002,0.0002,-2e-05,-2.9999999999999997e-05,0.0,5
21345,22256,-5e-05,-5e-05,-9e-05,0.00013000000000000002,0.0002,-2e-05,-2.9999999999999997e-05,0.0,5
21346,22257,-5e-05,-5e-05,-9e-05,0.00013000000000000002,0.0002,-2e-05,-2.9999999999999997e-05,0.0,5
21347,22258,-5e-05,-5e-05,-9e-05,0.00013000000000000002,0.0002,-2e-05,-2.9999999999999997e-05,0.0,5
21348,22259,-5e-05,-5e-05,-9e-05,0.00013000000000000002,0.0002,-2e-05,-2.9999999999999997e-05,0.0,5
21349,22260,-5e-05,-5e-05,-9e-05,0.00013000000000000002,0.0002,-2e-05,-2.9999999999999997e-05,0.0,5
21350,22261,-5e-05,-5e-05,-9e-05,0.00013000000000000002,0.0002,-2e-05,-2.9999999999999997e-05,0.0,5
21351,22262,-5e-05,-5e-05,-9e-05,0.00013000000000000002,0.0002,-2e-05,-2.9999999999999997e-05,0.0,5
21352,22263,-5e-05,-5e-05,-9e-05,0.00013000000000000002,0.0002,-2e-05,-2.9999999999999997e-05,0.0,5
21353,22264,-5e-05,-5e-05,-9e-05,0.00013000000000000002,0.0002,-2e-05,-2.9999999999999997e-05,0.0,5
21354,22265,-5e-05,-5e-05,-9e-05,0.00013000000000000002,0.0002,-2e-05,-2.9999999999999997e-05,0.0,5
21355,22266,-5e-05,-5e-05,-9e-05,0.00013000000000000002,0.0002,-2e-05,-2.9999999999999997e-05,0.0,5
21356,22267,8e-05,1e-05,-9e-05,-0.00022,-0.00013000000000000002,-7e-05,-5e-05,-5e-05,5
21357,22268,8e-05,1e-05,-9e-05,-0.00022,-0.00013000000000000002,-7e-05,-5e-05,-5e-05,5
21358,22269,8e-05,1e-05,-9e-05,-0.00022,-0.00013000000000000002,-7e-05,-5e-05,-5e-05,5
21359,22270,8e-05,1e-05,-9e-05,-0.00022,-0.00013000000000000002,-7e-05,-5e-05,-5e-05,5
21360,22271,8e-05,1e-05,-9e-05,-0.00022,-0.00013000000000000002,-7e-05,-5e-05,-5e-05,5
21361,22272,8e-05,1e-05,-9e-05,-0.00022,-0.00013000000000000002,-7e-05,-5e-05,-5e-05,5
21362,22273,8e-05,1e-05,-9e-05,-0.00022,-0.00013000000000000002,-7e-05,-5e-05,-5e-05,5
21363,22274,8e-05,1e-05,-9e-05,-0.00022,-0.00013000000000000002,-7e-05,-5e-05,-5e-05,5
21364,22275,8e-05,1e-05,-9e-05,-0.00022,-0.00013000000000000002,-7e-05,-5e-05,-5e-05,5
21365,22276,-5.9999999999999995e-05,-2e-05,-4e-05,0.00013000000000000002,-0.00013000000000000002,-8e-05,-1e-05,5.9999999999999995e-05,5
21366,22277,-5.9999999999999995e-05,-2e-05,-4e-05,0.00013000000000000002,-0.00013000000000000002,-8e-05,-1e-05,5.9999999999999995e-05,5
21367,22278,-5.9999999999999995e-05,-2e-05,-4e-05,0.00013000000000000002,-0.00013000000000000002,-8e-05,-1e-05,5.9999999999999995e-05,5
21368,22279,-5.9999999999999995e-05,-2e-05,-4e-05,0.00013000000000000002,-0.00013000000000000002,-8e-05,-1e-05,5.9999999999999995e-05,5
21369,22280,-5.9999999999999995e-05,-2e-05,-4e-05,0.00013000000000000002,-0.00013000000000000002,-8e-05,-1e-05,5.9999999999999995e-05,5
21370,22281,-5.9999999999999995e-05,-2e-05,-4e-05,0.00013000000000000002,-0.00013000000000000002,-8e-05,-1e-05,5.9999999999999995e-05,5
21371,22282,-5.9999999999999995e-05,-2e-05,-4e-05,0.00013000000000000002,-0.00013000000000000002,-8e-05,-1e-05,5.9999999999999995e-05,5
21372,22283,-5.9999999999999995e-05,-2e-05,-4e-05,0.00013000000000000002,-0.00013000000000000002,-8e-05,-1e-05,5.9999999999999995e-05,5
21373,22284,-5.9999999999999995e-05,-2e-05,-4e-05,0.00013000000000000002,-0.00013000000000000002,-8e-05,-1e-05,5.9999999999999995e-05,5
21374,22285,-5.9999999999999995e-05,-2e-05,-4e-05,0.00013000000000000002,-0.00013000000000000002,-8e-05,-1e-05,5.9999999999999995e-05,5
21375,22287,-5.9999999999999995e-05,-2e-05,-4e-05,0.00013000000000000002,-0.00013000000000000002,-8e-05,-1e-05,5.9999999999999995e-05,5
21376,22290,-5.9999999999999995e-05,-2e-05,-4e-05,0.00013000000000000002,-0.00013000000000000002,-8e-05,-1e-05,5.9999999999999995e-05,5
21377,22291,2e-05,-5.9999999999999995e-05,-7e-05,-0.00014,-5e-05,0.00015,2e-05,-1e-05,5
21378,22292,2e-05,-5.9999999999999995e-05,-7e-05,-0.00014,-5e-05,0.00015,2e-05,-1e-05,5
21379,22293,-0.00016999999999999999,-2.9999999999999997e-05,-5e-05,-9e-05,-1e-05,8e-05,-2e-05,-4e-05,5
21380,22294,-0.00016999999999999999,-2.9999999999999997e-05,-5e-05,-9e-05,-1e-05,8e-05,-2e-05,-4e-05,5
21381,22295,-0.00016999999999999999,-2.9999999999999997e-05,-5e-05,-9e-05,-1e-05,8e-05,-2e-05,-4e-05,5
21382,22296,-0.00016999999999999999,-2.9999999999999997e-05,-5e-05,-9e-05,-1e-05,8e-05,-2e-05,-4e-05,5
21383,22297,-0.00016999999999999999,-2.9999999999999997e-05,-5e-05,-9e-05,-1e-05,8e-05,-2e-05,-4e-05,5
21384,22298,-0.00016999999999999999,-2.9999999999999997e-05,-5e-05,-9e-05,-1e-05,8e-05,-2e-05,-4e-05,5
21385,22299,-0.00016999999999999999,-2.9999999999999997e-05,-5e-05,-9e-05,-1e-05,8e-05,-2e-05,-4e-05,5
21386,22300,-0.00016999999999999999,-2.9999999999999997e-05,-5e-05,-9e-05,-1e-05,8e-05,-2e-05,-4e-05,5
21387,22301,-0.00016999999999999999,-2.9999999999999997e-05,-5e-05,-9e-05,-1e-05,8e-05,-2e-05,-4e-05,5
21388,22302,-0.00016999999999999999,-2.9999999999999997e-05,-5e-05,-9e-05,-1e-05,8e-05,-2e-05,-4e-05,5
21389,22303,-0.00016999999999999999,-2.9999999999999997e-05,-5e-05,-9e-05,-1e-05,8e-05,-2e-05,-4e-05,5
21390,22304,-0.00016999999999999999,-2.9999999999999997e-05,-5e-05,-9e-05,-1e-05,8e-05,-2e-05,-4e-05,5
21391,22305,-0.00016999999999999999,-2.9999999999999997e-05,-5e-05,-9e-05,-1e-05,8e-05,-2e-05,-4e-05,5
21392,22306,-0.00016999999999999999,-2.9999999999999997e-05,-5e-05,-9e-05,-1e-05,8e-05,-2e-05,-4e-05,5
21393,22307,-0.00016999999999999999,-2.9999999999999997e-05,-5e-05,-9e-05,-1e-05,8e-05,-2e-05,-4e-05,5
21394,22308,-0.00016999999999999999,-2.9999999999999997e-05,-5e-05,-9e-05,-1e-05,8e-05,-2e-05,-4e-05,5
21395,22309,-0.00016999999999999999,-2.9999999999999997e-05,-5e-05,-9e-05,-1e-05,8e-05,-2e-05,-4e-05,5
21396,22310,-0.00016999999999999999,-2.9999999999999997e-05,-5e-05,-9e-05,-1e-05,8e-05,-2e-05,-4e-05,5
21397,22311,-0.00016999999999999999,-2.9999999999999997e-05,-5e-05,-9e-05,-1e-05,8e-05,-2e-05,-4e-05,5
21398,22312,-0.00016999999999999999,-2.9999999999999997e-05,-5e-05,-9e-05,-1e-05,8e-05,-2e-05,-4e-05,5
21399,22313,-0.00016999999999999999,-2.9999999999999997e-05,-5e-05,-9e-05,-1e-05,8e-05,-2e-05,-4e-05,5
21400,22314,-5.9999999999999995e-05,2.9999999999999997e-05,-2e-05,-0.00011,-0.00018,-5.9999999999999995e-05,-2.9999999999999997e-05,-5.9999999999999995e-05,5
21401,22315,-5.9999999999999995e-05,2.9999999999999997e-05,-2e-05,-0.00011,-0.00018,-5.9999999999999995e-05,-2.9999999999999997e-05,-5.9999999999999995e-05,5
21402,22316,-0.00011,-0.0001,-2e-05,0.0,0.0,2e-05,-1e-05,-4e-05,5
21403,22317,-0.00011,-0.0001,-2e-05,0.0,0.0,2e-05,-1e-05,-4e-05,5
21404,22318,-0.00011,-0.0001,-2e-05,0.0,0.0,2e-05,-1e-05,-4e-05,5
21405,22319,-0.00011,-0.0001,-2e-05,0.0,0.0,2e-05,-1e-05,-4e-05,5
21406,22320,-0.00011,-0.0001,-2e-05,0.0,0.0,2e-05,-1e-05,-4e-05,5
21407,22321,-0.00011,-0.0001,-2e-05,0.0,0.0,2e-05,-1e-05,-4e-05,5
21408,22322,-0.00011,-0.0001,-2e-05,0.0,0.0,2e-05,-1e-05,-4e-05,5
21409,22323,-0.00011,-0.0001,-2e-05,0.0,0.0,2e-05,-1e-05,-4e-05,5
21410,22324,-0.00011,-0.0001,-2e-05,0.0,0.0,2e-05,-1e-05,-4e-05,5
21411,22325,-0.00011,-0.0001,-2e-05,0.0,0.0,2e-05,-1e-05,-4e-05,5
21412,22326,-0.00011,-0.0001,-2e-05,0.0,0.0,2e-05,-1e-05,-4e-05,5
21413,22327,-0.00011,-0.0001,-2e-05,0.0,0.0,2e-05,-1e-05,-4e-05,5
21414,22328,-0.00014,-0.00011999999999999999,-0.00011,7e-05,-2.9999999999999997e-05,-2e-05,-4e-05,-4e-05,5
21415,22329,-0.00014,-0.00011999999999999999,-0.00011,7e-05,-2.9999999999999997e-05,-2e-05,-4e-05,-4e-05,5
21416,22330,-0.00014,-0.00011999999999999999,-0.00011,7e-05,-2.9999999999999997e-05,-2e-05,-4e-05,-4e-05,5
21417,22331,-0.00014,-0.00011999999999999999,-0.00011,7e-05,-2.9999999999999997e-05,-2e-05,-4e-05,-4e-05,5
21418,22332,-0.00014,-0.00011999999999999999,-0.00011,7e-05,-2.9999999999999997e-05,-2e-05,-4e-05,-4e-05,5
21419,22333,-0.00014,-0.00011999999999999999,-0.00011,7e-05,-2.9999999999999997e-05,-2e-05,-4e-05,-4e-05,5
21420,22334,-0.00014,-0.00011999999999999999,-0.00011,7e-05,-2.9999999999999997e-05,-2e-05,-4e-05,-4e-05,5
21421,22335,-0.00014,-0.00011999999999999999,-0.00011,7e-05,-2.9999999999999997e-05,-2e-05,-4e-05,-4e-05,5
21422,22337,0.0001,4e-05,0.00011999999999999999,0.00033999999999999997,1e-05,-9e-05,-2.9999999999999997e-05,1e-05,5
21423,22339,0.0001,4e-05,0.00011999999999999999,0.00033999999999999997,1e-05,-9e-05,-2.9999999999999997e-05,1e-05,5
21424,22340,0.0001,4e-05,0.00011999999999999999,0.00033999999999999997,1e-05,-9e-05,-2.9999999999999997e-05,1e-05,5
21425,22341,0.0001,4e-05,0.00011999999999999999,0.00033999999999999997,1e-05,-9e-05,-2.9999999999999997e-05,1e-05,5
21426,22342,0.0001,4e-05,0.00011999999999999999,0.00033999999999999997,1e-05,-9e-05,-2.9999999999999997e-05,1e-05,5
21427,22343,0.0001,4e-05,0.00011999999999999999,0.00033999999999999997,1e-05,-9e-05,-2.9999999999999997e-05,1e-05,5
21428,22344,0.0001,4e-05,0.00011999999999999999,0.00033999999999999997,1e-05,-9e-05,-2.9999999999999997e-05,1e-05,5
21429,22345,0.0001,4e-05,0.00011999999999999999,0.00033999999999999997,1e-05,-9e-05,-2.9999999999999997e-05,1e-05,5
21430,22346,0.0001,4e-05,0.00011999999999999999,0.00033999999999999997,1e-05,-9e-05,-2.9999999999999997e-05,1e-05,5
21431,22347,0.0001,4e-05,0.00011999999999999999,0.00033999999999999997,1e-05,-9e-05,-2.9999999999999997e-05,1e-05,5
21432,22348,0.0001,4e-05,0.00011999999999999999,0.00033999999999999997,1e-05,-9e-05,-2.9999999999999997e-05,1e-05,5
21433,22349,0.0001,4e-05,0.00011999999999999999,0.00033999999999999997,1e-05,-9e-05,-2.9999999999999997e-05,1e-05,5
21434,22350,0.0001,4e-05,0.00011999999999999999,0.00033999999999999997,1e-05,-9e-05,-2.9999999999999997e-05,1e-05,5
21435,22351,7e-05,2e-05,5e-05,0.0004,0.00025,0.0,-2.9999999999999997e-05,5e-05,5
21436,22352,7e-05,2e-05,5e-05,0.0004,0.00025,0.0,-2.9999999999999997e-05,5e-05,5
21437,22353,-1e-05,-5e-05,4e-05,1e-05,-0.00016,7e-05,2.9999999999999997e-05,-1e-05,5
21438,22354,-1e-05,-5e-05,4e-05,1e-05,-0.00016,7e-05,2.9999999999999997e-05,-1e-05,5
21439,22355,-1e-05,-5e-05,4e-05,1e-05,-0.00016,7e-05,2.9999999999999997e-05,-1e-05,5
21440,22356,-1e-05,-5e-05,4e-05,1e-05,-0.00016,7e-05,2.9999999999999997e-05,-1e-05,5
21441,22357,-1e-05,-5e-05,4e-05,1e-05,-0.00016,7e-05,2.9999999999999997e-05,-1e-05,5
21442,22358,-1e-05,-5e-05,4e-05,1e-05,-0.00016,7e-05,2.9999999999999997e-05,-1e-05,5
21443,22359,-1e-05,-5e-05,4e-05,1e-05,-0.00016,7e-05,2.9999999999999997e-05,-1e-05,5
21444,22360,-1e-05,-5e-05,4e-05,1e-05,-0.00016,7e-05,2.9999999999999997e-05,-1e-05,5
21445,22361,-1e-05,-5e-05,4e-05,1e-05,-0.00016,7e-05,2.9999999999999997e-05,-1e-05,5
21446,22362,-1e-05,-5e-05,4e-05,1e-05,-0.00016,7e-05,2.9999999999999997e-05,-1e-05,5
21447,22363,-1e-05,-5e-05,4e-05,1e-05,-0.00016,7e-05,2.9999999999999997e-05,-1e-05,5
21448,22364,-1e-05,-5e-05,4e-05,1e-05,-0.00016,7e-05,2.9999999999999997e-05,-1e-05,5
21449,22365,-1e-05,-5e-05,4e-05,1e-05,-0.00016,7e-05,2.9999999999999997e-05,-1e-05,5
21450,22366,-1e-05,-5e-05,4e-05,1e-05,-0.00016,7e-05,2.9999999999999997e-05,-1e-05,5
21451,22367,-1e-05,-5e-05,4e-05,1e-05,-0.00016,7e-05,2.9999999999999997e-05,-1e-05,5
21452,22368,-1e-05,-5e-05,4e-05,1e-05,-0.00016,7e-05,2.9999999999999997e-05,-1e-05,5
21453,22369,-1e-05,-5e-05,4e-05,1e-05,-0.00016,7e-05,2.9999999999999997e-05,-1e-05,5
21454,22370,-1e-05,-5e-05,4e-05,1e-05,-0.00016,7e-05,2.9999999999999997e-05,-1e-05,5
21455,22371,-1e-05,-5e-05,4e-05,1e-05,-0.00016,7e-05,2.9999999999999997e-05,-1e-05,5
21456,22372,-1e-05,-5e-05,4e-05,1e-05,-0.00016,7e-05,2.9999999999999997e-05,-1e-05,5
21457,22373,-1e-05,-5e-05,4e-05,1e-05,-0.00016,7e-05,2.9999999999999997e-05,-1e-05,5
21458,22374,-1e-05,-9e-05,-0.00014,-0.00016,-8e-05,9e-05,0.0,-4e-05,5
21459,22375,0.0,1e-05,2e-05,0.0,-4e-05,-5e-05,0.0,0.0,5
21460,22376,0.0,1e-05,2e-05,0.0,-4e-05,-5e-05,0.0,0.0,5
21461,22377,0.0,1e-05,2e-05,0.0,-4e-05,-5e-05,0.0,0.0,5
21462,22378,0.0,1e-05,2e-05,0.0,-4e-05,-5e-05,0.0,0.0,5
21463,22379,0.0,1e-05,2e-05,0.0,-4e-05,-5e-05,0.0,0.0,5
21464,22380,0.0,1e-05,2e-05,0.0,-4e-05,-5e-05,0.0,0.0,5
21465,22381,0.0,1e-05,2e-05,0.0,-4e-05,-5e-05,0.0,0.0,5
21466,22382,0.0,1e-05,2e-05,0.0,-4e-05,-5e-05,0.0,0.0,5
21467,22383,0.0,1e-05,2e-05,0.0,-4e-05,-5e-05,0.0,0.0,5
21468,22384,0.0,1e-05,2e-05,0.0,-4e-05,-5e-05,0.0,0.0,5
21469,22385,0.0,1e-05,2e-05,0.0,-4e-05,-5e-05,0.0,0.0,5
21470,22386,0.0,1e-05,2e-05,0.0,-4e-05,-5e-05,0.0,0.0,5
21471,22389,-4e-05,2.9999999999999997e-05,5.9999999999999995e-05,-0.00018,-9e-05,-8e-05,-1e-05,1e-05,5
21472,22390,-4e-05,2.9999999999999997e-05,5.9999999999999995e-05,-0.00018,-9e-05,-8e-05,-1e-05,1e-05,5
21473,22391,-4e-05,2.9999999999999997e-05,5.9999999999999995e-05,-0.00018,-9e-05,-8e-05,-1e-05,1e-05,5
21474,22392,-4e-05,2.9999999999999997e-05,5.9999999999999995e-05,-0.00018,-9e-05,-8e-05,-1e-05,1e-05,5
21475,22393,-4e-05,2.9999999999999997e-05,5.9999999999999995e-05,-0.00018,-9e-05,-8e-05,-1e-05,1e-05,5
21476,22394,-4e-05,2.9999999999999997e-05,5.9999999999999995e-05,-0.00018,-9e-05,-8e-05,-1e-05,1e-05,5
21477,22395,-4e-05,2.9999999999999997e-05,5.9999999999999995e-05,-0.00018,-9e-05,-8e-05,-1e-05,1e-05,5
21478,22396,0.0,0.0,1e-05,-0.00018,-8e-05,-1e-05,1e-05,-5.9999999999999995e-05,5
21479,22397,0.0,0.0,1e-05,-0.00018,-8e-05,-1e-05,1e-05,-5.9999999999999995e-05,5
21480,22398,0.0,0.0,1e-05,-0.00018,-8e-05,-1e-05,1e-05,-5.9999999999999995e-05,5
21481,22399,0.0,0.0,1e-05,-0.00018,-8e-05,-1e-05,1e-05,-5.9999999999999995e-05,5
21482,22400,0.0,0.0,1e-05,-0.00018,-8e-05,-1e-05,1e-05,-5.9999999999999995e-05,5
21483,22401,0.0,0.0,1e-05,-0.00018,-8e-05,-1e-05,1e-05,-5.9999999999999995e-05,5
21484,22402,0.0,0.0,1e-05,-0.00018,-8e-05,-1e-05,1e-05,-5.9999999999999995e-05,5
21485,22403,0.0,0.0,1e-05,-0.00018,-8e-05,-1e-05,1e-05,-5.9999999999999995e-05,5
21486,22404,0.0,0.0,1e-05,-0.00018,-8e-05,-1e-05,1e-05,-5.9999999999999995e-05,5
21487,22405,0.0,0.0,1e-05,-0.00018,-8e-05,-1e-05,1e-05,-5.9999999999999995e-05,5
21488,22406,0.0,0.0,1e-05,-0.00018,-8e-05,-1e-05,1e-05,-5.9999999999999995e-05,5
21489,22407,0.0,0.0,1e-05,-0.00018,-8e-05,-1e-05,1e-05,-5.9999999999999995e-05,5
21490,22408,0.0,0.0,1e-05,-0.00018,-8e-05,-1e-05,1e-05,-5.9999999999999995e-05,5
21491,22409,0.0,0.0,1e-05,-0.00018,-8e-05,-1e-05,1e-05,-5.9999999999999995e-05,5
21492,22410,0.0,0.0,1e-05,-0.00018,-8e-05,-1e-05,1e-05,-5.9999999999999995e-05,5
21493,22411,0.0,5e-05,4e-05,-0.0001,-0.00027,-5e-05,-2.9999999999999997e-05,-1e-05,5
21494,22412,0.0,5e-05,4e-05,-0.0001,-0.00027,-5e-05,-2.9999999999999997e-05,-1e-05,5
21495,22413,-1e-05,-5.9999999999999995e-05,-0.00011999999999999999,-0.00013000000000000002,-5.9999999999999995e-05,-2e-05,-2.9999999999999997e-05,-2.9999999999999997e-05,5
21496,22414,-1e-05,-5.9999999999999995e-05,-0.00011999999999999999,-0.00013000000000000002,-5.9999999999999995e-05,-2e-05,-2.9999999999999997e-05,-2.9999999999999997e-05,5
21497,22415,-1e-05,-5.9999999999999995e-05,-0.00011999999999999999,-0.00013000000000000002,-5.9999999999999995e-05,-2e-05,-2.9999999999999997e-05,-2.9999999999999997e-05,5
21498,22416,-1e-05,-5.9999999999999995e-05,-0.00011999999999999999,-0.00013000000000000002,-5.9999999999999995e-05,-2e-05,-2.9999999999999997e-05,-2.9999999999999997e-05,5
21499,22417,-1e-05,-5.9999999999999995e-05,-0.00011999999999999999,-0.00013000000000000002,-5.9999999999999995e-05,-2e-05,-2.9999999999999997e-05,-2.9999999999999997e-05,5
21500,22418,-1e-05,-5.9999999999999995e-05,-0.00011999999999999999,-0.00013000000000000002,-5.9999999999999995e-05,-2e-05,-2.9999999999999997e-05,-2.9999999999999997e-05,5
21501,22419,-1e-05,-5.9999999999999995e-05,-0.00011999999999999999,-0.00013000000000000002,-5.9999999999999995e-05,-2e-05,-2.9999999999999997e-05,-2.9999999999999997e-05,5
21502,22420,-1e-05,-5.9999999999999995e-05,-0.00011999999999999999,-0.00013000000000000002,-5.9999999999999995e-05,-2e-05,-2.9999999999999997e-05,-2.9999999999999997e-05,5
21503,22421,-1e-05,-5.9999999999999995e-05,-0.00011999999999999999,-0.00013000000000000002,-5.9999999999999995e-05,-2e-05,-2.9999999999999997e-05,-2.9999999999999997e-05,5
21504,22422,-1e-05,-5.9999999999999995e-05,-0.00011999999999999999,-0.00013000000000000002,-5.9999999999999995e-05,-2e-05,-2.9999999999999997e-05,-2.9999999999999997e-05,5
21505,22423,-1e-05,-5.9999999999999995e-05,-0.00011999999999999999,-0.00013000000000000002,-5.9999999999999995e-05,-2e-05,-2.9999999999999997e-05,-2.9999999999999997e-05,5
21506,22424,-1e-05,-5.9999999999999995e-05,-0.00011999999999999999,-0.00013000000000000002,-5.9999999999999995e-05,-2e-05,-2.9999999999999997e-05,-2.9999999999999997e-05,5
21507,22425,-1e-05,-5.9999999999999995e-05,-0.00011999999999999999,-0.00013000000000000002,-5.9999999999999995e-05,-2e-05,-2.9999999999999997e-05,-2.9999999999999997e-05,5
21508,22426,-1e-05,-5.9999999999999995e-05,-0.00011999999999999999,-0.00013000000000000002,-5.9999999999999995e-05,-2e-05,-2.9999999999999997e-05,-2.9999999999999997e-05,5
21509,22427,-1e-05,-5.9999999999999995e-05,-0.00011999999999999999,-0.00013000000000000002,-5.9999999999999995e-05,-2e-05,-2.9999999999999997e-05,-2.9999999999999997e-05,5
21510,22428,-1e-05,-5.9999999999999995e-05,-0.00011999999999999999,-0.00013000000000000002,-5.9999999999999995e-05,-2e-05,-2.9999999999999997e-05,-2.9999999999999997e-05,5
21511,22429,-1e-05,-5.9999999999999995e-05,-0.00011999999999999999,-0.00013000000000000002,-5.9999999999999995e-05,-2e-05,-2.9999999999999997e-05,-2.9999999999999997e-05,5
21512,22430,-1e-05,-5.9999999999999995e-05,-0.00011999999999999999,-0.00013000000000000002,-5.9999999999999995e-05,-2e-05,-2.9999999999999997e-05,-2.9999999999999997e-05,5
21513,22431,-1e-05,-5.9999999999999995e-05,-0.00011999999999999999,-0.00013000000000000002,-5.9999999999999995e-05,-2e-05,-2.9999999999999997e-05,-2.9999999999999997e-05,5
21514,22432,-1e-05,-5.9999999999999995e-05,-0.00011999999999999999,-0.00013000000000000002,-5.9999999999999995e-05,-2e-05,-2.9999999999999997e-05,-2.9999999999999997e-05,5
21515,22433,-1e-05,-5.9999999999999995e-05,-0.00011999999999999999,-0.00013000000000000002,-5.9999999999999995e-05,-2e-05,-2.9999999999999997e-05,-2.9999999999999997e-05,5
21516,22434,-2.9999999999999997e-05,0.0,4e-05,0.0005099999999999999,0.0008699999999999999,5.9999999999999995e-05,-1e-05,-7e-05,5
21517,22435,0.00018,7e-05,-5.9999999999999995e-05,0.0001,0.00014,-4e-05,-1e-05,5.9999999999999995e-05,5
21518,22436,0.00018,7e-05,-5.9999999999999995e-05,0.0001,0.00014,-4e-05,-1e-05,5.9999999999999995e-05,5
21519,22439,0.00018,7e-05,-5.9999999999999995e-05,0.0001,0.00014,-4e-05,-1e-05,5.9999999999999995e-05,5
21520,22440,0.00018,7e-05,-5.9999999999999995e-05,0.0001,0.00014,-4e-05,-1e-05,5.9999999999999995e-05,5
21521,22441,0.00018,7e-05,-5.9999999999999995e-05,0.0001,0.00014,-4e-05,-1e-05,5.9999999999999995e-05,5
21522,22442,0.00018,7e-05,-5.9999999999999995e-05,0.0001,0.00014,-4e-05,-1e-05,5.9999999999999995e-05,5
21523,22443,0.00018,7e-05,-5.9999999999999995e-05,0.0001,0.00014,-4e-05,-1e-05,5.9999999999999995e-05,5
21524,22444,0.00018,7e-05,-5.9999999999999995e-05,0.0001,0.00014,-4e-05,-1e-05,5.9999999999999995e-05,5
21525,22445,0.00018,7e-05,-5.9999999999999995e-05,0.0001,0.00014,-4e-05,-1e-05,5.9999999999999995e-05,5
21526,22446,0.00018,7e-05,-5.9999999999999995e-05,0.0001,0.00014,-4e-05,-1e-05,5.9999999999999995e-05,5
21527,22447,0.00018,7e-05,-5.9999999999999995e-05,0.0001,0.00014,-4e-05,-1e-05,5.9999999999999995e-05,5
21528,22448,1e-05,-0.00014,-9e-05,-0.00053,-0.00043,-0.00016999999999999999,-7e-05,-4e-05,5
21529,22449,1e-05,-0.00014,-9e-05,-0.00053,-0.00043,-0.00016999999999999999,-7e-05,-4e-05,5
21530,22450,1e-05,-0.00014,-9e-05,-0.00053,-0.00043,-0.00016999999999999999,-7e-05,-4e-05,5
21531,22451,1e-05,-0.00014,-9e-05,-0.00053,-0.00043,-0.00016999999999999999,-7e-05,-4e-05,5
21532,22452,1e-05,-0.00014,-9e-05,-0.00053,-0.00043,-0.00016999999999999999,-7e-05,-4e-05,5
21533,22453,1e-05,-0.00014,-9e-05,-0.00053,-0.00043,-0.00016999999999999999,-7e-05,-4e-05,5
21534,22454,1e-05,-0.00014,-9e-05,-0.00053,-0.00043,-0.00016999999999999999,-7e-05,-4e-05,5
21535,22455,1e-05,-0.00014,-9e-05,-0.00053,-0.00043,-0.00016999999999999999,-7e-05,-4e-05,5
21536,22456,0.00016,2.9999999999999997e-05,-5e-05,-0.00011999999999999999,-0.00015,-8e-05,1e-05,0.0001,5
21537,22457,0.00016,2.9999999999999997e-05,-5e-05,-0.00011999999999999999,-0.00015,-8e-05,1e-05,0.0001,5
21538,22458,0.00016,2.9999999999999997e-05,-5e-05,-0.00011999999999999999,-0.00015,-8e-05,1e-05,0.0001,5
21539,22459,0.00016,2.9999999999999997e-05,-5e-05,-0.00011999999999999999,-0.00015,-8e-05,1e-05,0.0001,5
21540,22460,0.00016,2.9999999999999997e-05,-5e-05,-0.00011999999999999999,-0.00015,-8e-05,1e-05,0.0001,5
21541,22461,0.00016,2.9999999999999997e-05,-5e-05,-0.00011999999999999999,-0.00015,-8e-05,1e-05,0.0001,5
21542,22462,0.00016,2.9999999999999997e-05,-5e-05,-0.00011999999999999999,-0.00015,-8e-05,1e-05,0.0001,5
21543,22463,0.00016,2.9999999999999997e-05,-5e-05,-0.00011999999999999999,-0.00015,-8e-05,1e-05,0.0001,5
21544,22464,0.00016,2.9999999999999997e-05,-5e-05,-0.00011999999999999999,-0.00015,-8e-05,1e-05,0.0001,5
21545,22465,0.00016,2.9999999999999997e-05,-5e-05,-0.00011999999999999999,-0.00015,-8e-05,1e-05,0.0001,5
21546,22466,0.00016,2.9999999999999997e-05,-5e-05,-0.00011999999999999999,-0.00015,-8e-05,1e-05,0.0001,5
21547,22467,0.00016,2.9999999999999997e-05,-5e-05,-0.00011999999999999999,-0.00015,-8e-05,1e-05,0.0001,5
21548,22468,0.00016,2.9999999999999997e-05,-5e-05,-0.00011999999999999999,-0.00015,-8e-05,1e-05,0.0001,5
21549,22469,0.00016,2.9999999999999997e-05,-5e-05,-0.00011999999999999999,-0.00015,-8e-05,1e-05,0.0001,5
21550,22470,0.00016,2.9999999999999997e-05,-5e-05,-0.00011999999999999999,-0.00015,-8e-05,1e-05,0.0001,5
21551,22471,-0.00013000000000000002,1e-05,4e-05,0.00018999999999999998,-4e-05,5.9999999999999995e-05,1e-05,-2.9999999999999997e-05,5
21552,22472,-0.00013000000000000002,1e-05,4e-05,0.00018999999999999998,-4e-05,5.9999999999999995e-05,1e-05,-2.9999999999999997e-05,5
21553,22473,0.0,-2.9999999999999997e-05,1e-05,9e-05,-5e-05,-5e-05,0.0,2.9999999999999997e-05,5
21554,22474,0.0,-2.9999999999999997e-05,1e-05,9e-05,-5e-05,-5e-05,0.0,2.9999999999999997e-05,5
21555,22475,0.0,-2.9999999999999997e-05,1e-05,9e-05,-5e-05,-5e-05,0.0,2.9999999999999997e-05,5
21556,22476,0.0,-2.9999999999999997e-05,1e-05,9e-05,-5e-05,-5e-05,0.0,2.9999999999999997e-05,5
21557,22478,0.0,-2.9999999999999997e-05,1e-05,9e-05,-5e-05,-5e-05,0.0,2.9999999999999997e-05,5
21558,22479,0.0,-2.9999999999999997e-05,1e-05,9e-05,-5e-05,-5e-05,0.0,2.9999999999999997e-05,5
21559,22480,0.0,-2.9999999999999997e-05,1e-05,9e-05,-5e-05,-5e-05,0.0,2.9999999999999997e-05,5
21560,22481,0.0,-2.9999999999999997e-05,1e-05,9e-05,-5e-05,-5e-05,0.0,2.9999999999999997e-05,5
21561,22482,0.0,-2.9999999999999997e-05,1e-05,9e-05,-5e-05,-5e-05,0.0,2.9999999999999997e-05,5
21562,22483,0.0,-2.9999999999999997e-05,1e-05,9e-05,-5e-05,-5e-05,0.0,2.9999999999999997e-05,5
21563,22484,0.0,-2.9999999999999997e-05,1e-05,9e-05,-5e-05,-5e-05,0.0,2.9999999999999997e-05,5
21564,22485,0.0,-2.9999999999999997e-05,1e-05,9e-05,-5e-05,-5e-05,0.0,2.9999999999999997e-05,5
21565,22487,0.0,-2.9999999999999997e-05,1e-05,9e-05,-5e-05,-5e-05,0.0,2.9999999999999997e-05,5
21566,22489,0.0,-2.9999999999999997e-05,1e-05,9e-05,-5e-05,-5e-05,0.0,2.9999999999999997e-05,5
21567,22490,0.0,-2.9999999999999997e-05,1e-05,9e-05,-5e-05,-5e-05,0.0,2.9999999999999997e-05,5
21568,22491,0.0,-2.9999999999999997e-05,1e-05,9e-05,-5e-05,-5e-05,0.0,2.9999999999999997e-05,5
21569,22492,0.0,-2.9999999999999997e-05,1e-05,9e-05,-5e-05,-5e-05,0.0,2.9999999999999997e-05,5
21570,22493,0.0,-2.9999999999999997e-05,1e-05,9e-05,-5e-05,-5e-05,0.0,2.9999999999999997e-05,5
21571,22494,9e-05,5e-05,5e-05,-8e-05,-5e-05,2.9999999999999997e-05,2e-05,5e-05,5
21572,22495,-2.9999999999999997e-05,2e-05,5.9999999999999995e-05,-0.00014,-7e-05,2e-05,2e-05,0.0,5
21573,22496,-2.9999999999999997e-05,2e-05,5.9999999999999995e-05,-0.00014,-7e-05,2e-05,2e-05,0.0,5
21574,22497,-2.9999999999999997e-05,2e-05,5.9999999999999995e-05,-0.00014,-7e-05,2e-05,2e-05,0.0,5
21575,22498,-2.9999999999999997e-05,2e-05,5.9999999999999995e-05,-0.00014,-7e-05,2e-05,2e-05,0.0,5
21576,22499,-2.9999999999999997e-05,2e-05,5.9999999999999995e-05,-0.00014,-7e-05,2e-05,2e-05,0.0,5
21577,22500,-2.9999999999999997e-05,2e-05,5.9999999999999995e-05,-0.00014,-7e-05,2e-05,2e-05,0.0,5
21578,22501,-2.9999999999999997e-05,2e-05,5.9999999999999995e-05,-0.00014,-7e-05,2e-05,2e-05,0.0,5
21579,22502,-2.9999999999999997e-05,2e-05,5.9999999999999995e-05,-0.00014,-7e-05,2e-05,2e-05,0.0,5
21580,22503,-2.9999999999999997e-05,2e-05,5.9999999999999995e-05,-0.00014,-7e-05,2e-05,2e-05,0.0,5
21581,22504,-2.9999999999999997e-05,2e-05,5.9999999999999995e-05,-0.00014,-7e-05,2e-05,2e-05,0.0,5
21582,22505,-2.9999999999999997e-05,2e-05,5.9999999999999995e-05,-0.00014,-7e-05,2e-05,2e-05,0.0,5
21583,22506,-2.9999999999999997e-05,2e-05,5.9999999999999995e-05,-0.00014,-7e-05,2e-05,2e-05,0.0,5
21584,22507,-4e-05,-2e-05,-7e-05,-0.00018999999999999998,-0.0001,-2e-05,0.0,0.0,5
21585,22508,-4e-05,-2e-05,-7e-05,-0.00018999999999999998,-0.0001,-2e-05,0.0,0.0,5
21586,22509,-4e-05,-2e-05,-7e-05,-0.00018999999999999998,-0.0001,-2e-05,0.0,0.0,5
21587,22510,-4e-05,-2e-05,-7e-05,-0.00018999999999999998,-0.0001,-2e-05,0.0,0.0,5
21588,22511,-4e-05,-2e-05,-7e-05,-0.00018999999999999998,-0.0001,-2e-05,0.0,0.0,5
21589,22512,-4e-05,-2e-05,-7e-05,-0.00018999999999999998,-0.0001,-2e-05,0.0,0.0,5
21590,22513,-4e-05,-2e-05,-7e-05,-0.00018999999999999998,-0.0001,-2e-05,0.0,0.0,5
21591,22514,-4e-05,-2e-05,-7e-05,-0.00018999999999999998,-0.0001,-2e-05,0.0,0.0,5
21592,22515,-4e-05,-2e-05,-7e-05,-0.00018999999999999998,-0.0001,-2e-05,0.0,0.0,5
21593,22516,-0.00011,-2e-05,-2e-05,1e-05,0.00027,5e-05,0.0,-8e-05,5
21594,22518,-0.00011,-2e-05,-2e-05,1e-05,0.00027,5e-05,0.0,-8e-05,5
21595,22519,-0.00011,-2e-05,-2e-05,1e-05,0.00027,5e-05,0.0,-8e-05,5
21596,22520,-0.00011,-2e-05,-2e-05,1e-05,0.00027,5e-05,0.0,-8e-05,5
21597,22521,-0.00011,-2e-05,-2e-05,1e-05,0.00027,5e-05,0.0,-8e-05,5
21598,22522,-0.00011,-2e-05,-2e-05,1e-05,0.00027,5e-05,0.0,-8e-05,5
21599,22523,-0.00011,-2e-05,-2e-05,1e-05,0.00027,5e-05,0.0,-8e-05,5
21600,22524,-0.00011,-2e-05,-2e-05,1e-05,0.00027,5e-05,0.0,-8e-05,5
21601,22525,-0.00011,-2e-05,-2e-05,1e-05,0.00027,5e-05,0.0,-8e-05,5
21602,22526,-0.00011,-2e-05,-2e-05,1e-05,0.00027,5e-05,0.0,-8e-05,5
21603,22527,-0.00011,-2e-05,-2e-05,1e-05,0.00027,5e-05,0.0,-8e-05,5
21604,22528,-0.00011,-2e-05,-2e-05,1e-05,0.00027,5e-05,0.0,-8e-05,5
21605,22529,-0.00011,-2e-05,-2e-05,1e-05,0.00027,5e-05,0.0,-8e-05,5
21606,22530,-0.00011,-2e-05,-2e-05,1e-05,0.00027,5e-05,0.0,-8e-05,5
21607,22531,0.0,7e-05,0.0001,-0.00032,-0.0002,1e-05,0.0,-4e-05,5
21608,22532,0.0,7e-05,0.0001,-0.00032,-0.0002,1e-05,0.0,-4e-05,5
21609,22533,-0.00011999999999999999,-0.00011999999999999999,-0.00018,0.00011999999999999999,-9e-05,4e-05,-2e-05,-8e-05,5
21610,22534,-0.00011999999999999999,-0.00011999999999999999,-0.00018,0.00011999999999999999,-9e-05,4e-05,-2e-05,-8e-05,5
21611,22535,-0.00011999999999999999,-0.00011999999999999999,-0.00018,0.00011999999999999999,-9e-05,4e-05,-2e-05,-8e-05,5
21612,22536,-0.00011999999999999999,-0.00011999999999999999,-0.00018,0.00011999999999999999,-9e-05,4e-05,-2e-05,-8e-05,5
21613,22538,-0.00011999999999999999,-0.00011999999999999999,-0.00018,0.00011999999999999999,-9e-05,4e-05,-2e-05,-8e-05,5
21614,22539,-0.00011999999999999999,-0.00011999999999999999,-0.00018,0.00011999999999999999,-9e-05,4e-05,-2e-05,-8e-05,5
21615,22540,-0.00011999999999999999,-0.00011999999999999999,-0.00018,0.00011999999999999999,-9e-05,4e-05,-2e-05,-8e-05,5
21616,22541,-0.00011999999999999999,-0.00011999999999999999,-0.00018,0.00011999999999999999,-9e-05,4e-05,-2e-05,-8e-05,5
21617,22542,-0.00011999999999999999,-0.00011999999999999999,-0.00018,0.00011999999999999999,-9e-05,4e-05,-2e-05,-8e-05,5
21618,22543,-0.00011999999999999999,-0.00011999999999999999,-0.00018,0.00011999999999999999,-9e-05,4e-05,-2e-05,-8e-05,5
21619,22544,-0.00011999999999999999,-0.00011999999999999999,-0.00018,0.00011999999999999999,-9e-05,4e-05,-2e-05,-8e-05,5
21620,22545,-0.00011999999999999999,-0.00011999999999999999,-0.00018,0.00011999999999999999,-9e-05,4e-05,-2e-05,-8e-05,5
21621,22546,-0.00011999999999999999,-0.00011999999999999999,-0.00018,0.00011999999999999999,-9e-05,4e-05,-2e-05,-8e-05,5
21622,22547,-0.00011999999999999999,-0.00011999999999999999,-0.00018,0.00011999999999999999,-9e-05,4e-05,-2e-05,-8e-05,5
21623,22548,-0.00011999999999999999,-0.00011999999999999999,-0.00018,0.00011999999999999999,-9e-05,4e-05,-2e-05,-8e-05,5
21624,22549,-0.00011999999999999999,-0.00011999999999999999,-0.00018,0.00011999999999999999,-9e-05,4e-05,-2e-05,-8e-05,5
21625,22550,-0.00011999999999999999,-0.00011999999999999999,-0.00018,0.00011999999999999999,-9e-05,4e-05,-2e-05,-8e-05,5
21626,22551,-0.00011999999999999999,-0.00011999999999999999,-0.00018,0.00011999999999999999,-9e-05,4e-05,-2e-05,-8e-05,5
21627,22552,-0.00011999999999999999,-0.00011999999999999999,-0.00018,0.00011999999999999999,-9e-05,4e-05,-2e-05,-8e-05,5
21628,22553,-0.00011999999999999999,-0.00011999999999999999,-0.00018,0.00011999999999999999,-9e-05,4e-05,-2e-05,-8e-05,5
21629,22554,-2e-05,0.0,-2e-05,7e-05,-8e-05,-0.0001,-4e-05,-5e-05,5
21630,22555,-8e-05,2.9999999999999997e-05,8e-05,-0.00031,-0.00018999999999999998,-5e-05,-1e-05,2.9999999999999997e-05,5
21631,22556,-8e-05,2.9999999999999997e-05,8e-05,-0.00031,-0.00018999999999999998,-5e-05,-1e-05,2.9999999999999997e-05,5
21632,22557,-8e-05,2.9999999999999997e-05,8e-05,-0.00031,-0.00018999999999999998,-5e-05,-1e-05,2.9999999999999997e-05,5
21633,22558,-8e-05,2.9999999999999997e-05,8e-05,-0.00031,-0.00018999999999999998,-5e-05,-1e-05,2.9999999999999997e-05,5
21634,22559,-8e-05,2.9999999999999997e-05,8e-05,-0.00031,-0.00018999999999999998,-5e-05,-1e-05,2.9999999999999997e-05,5
21635,22560,-8e-05,2.9999999999999997e-05,8e-05,-0.00031,-0.00018999999999999998,-5e-05,-1e-05,2.9999999999999997e-05,5
21636,22561,-8e-05,2.9999999999999997e-05,8e-05,-0.00031,-0.00018999999999999998,-5e-05,-1e-05,2.9999999999999997e-05,5
21637,22562,-8e-05,2.9999999999999997e-05,8e-05,-0.00031,-0.00018999999999999998,-5e-05,-1e-05,2.9999999999999997e-05,5
21638,22563,-8e-05,2.9999999999999997e-05,8e-05,-0.00031,-0.00018999999999999998,-5e-05,-1e-05,2.9999999999999997e-05,5
21639,22564,-8e-05,2.9999999999999997e-05,8e-05,-0.00031,-0.00018999999999999998,-5e-05,-1e-05,2.9999999999999997e-05,5
21640,22565,-8e-05,2.9999999999999997e-05,8e-05,-0.00031,-0.00018999999999999998,-5e-05,-1e-05,2.9999999999999997e-05,5
21641,22566,-8e-05,2.9999999999999997e-05,8e-05,-0.00031,-0.00018999999999999998,-5e-05,-1e-05,2.9999999999999997e-05,5
21642,22567,-8e-05,2.9999999999999997e-05,8e-05,-0.00031,-0.00018999999999999998,-5e-05,-1e-05,2.9999999999999997e-05,5
21643,22568,4e-05,4e-05,2e-05,7e-05,0.00016,-4e-05,0.0,2e-05,5
21644,22569,4e-05,4e-05,2e-05,7e-05,0.00016,-4e-05,0.0,2e-05,5
21645,22570,4e-05,4e-05,2e-05,7e-05,0.00016,-4e-05,0.0,2e-05,5
21646,22571,4e-05,4e-05,2e-05,7e-05,0.00016,-4e-05,0.0,2e-05,5
21647,22572,4e-05,4e-05,2e-05,7e-05,0.00016,-4e-05,0.0,2e-05,5
21648,22573,4e-05,4e-05,2e-05,7e-05,0.00016,-4e-05,0.0,2e-05,5
21649,22574,4e-05,4e-05,2e-05,7e-05,0.00016,-4e-05,0.0,2e-05,5
21650,22575,4e-05,4e-05,2e-05,7e-05,0.00016,-4e-05,0.0,2e-05,5
21651,22576,-4e-05,-7e-05,-0.00018999999999999998,-2.9999999999999997e-05,2e-05,1e-05,1e-05,-5.9999999999999995e-05,5
21652,22577,-4e-05,-7e-05,-0.00018999999999999998,-2.9999999999999997e-05,2e-05,1e-05,1e-05,-5.9999999999999995e-05,5
21653,22578,-4e-05,-7e-05,-0.00018999999999999998,-2.9999999999999997e-05,2e-05,1e-05,1e-05,-5.9999999999999995e-05,5
21654,22579,-4e-05,-7e-05,-0.00018999999999999998,-2.9999999999999997e-05,2e-05,1e-05,1e-05,-5.9999999999999995e-05,5
21655,22580,-4e-05,-7e-05,-0.00018999999999999998,-2.9999999999999997e-05,2e-05,1e-05,1e-05,-5.9999999999999995e-05,5
21656,22581,-4e-05,-7e-05,-0.00018999999999999998,-2.9999999999999997e-05,2e-05,1e-05,1e-05,-5.9999999999999995e-05,5
21657,22582,-4e-05,-7e-05,-0.00018999999999999998,-2.9999999999999997e-05,2e-05,1e-05,1e-05,-5.9999999999999995e-05,5
21658,22583,-4e-05,-7e-05,-0.00018999999999999998,-2.9999999999999997e-05,2e-05,1e-05,1e-05,-5.9999999999999995e-05,5
21659,22584,-4e-05,-7e-05,-0.00018999999999999998,-2.9999999999999997e-05,2e-05,1e-05,1e-05,-5.9999999999999995e-05,5
21660,22585,-4e-05,-7e-05,-0.00018999999999999998,-2.9999999999999997e-05,2e-05,1e-05,1e-05,-5.9999999999999995e-05,5
21661,22586,-4e-05,-7e-05,-0.00018999999999999998,-2.9999999999999997e-05,2e-05,1e-05,1e-05,-5.9999999999999995e-05,5
21662,22588,-4e-05,-7e-05,-0.00018999999999999998,-2.9999999999999997e-05,2e-05,1e-05,1e-05,-5.9999999999999995e-05,5
21663,22589,-4e-05,-7e-05,-0.00018999999999999998,-2.9999999999999997e-05,2e-05,1e-05,1e-05,-5.9999999999999995e-05,5
21664,22590,-4e-05,-7e-05,-0.00018999999999999998,-2.9999999999999997e-05,2e-05,1e-05,1e-05,-5.9999999999999995e-05,5
21665,22591,-0.0001,-4e-05,-1e-05,5e-05,-4e-05,0.0,-2e-05,8e-05,5
21666,22592,-0.0001,-4e-05,-1e-05,5e-05,-4e-05,0.0,-2e-05,8e-05,5
21667,22593,4e-05,2e-05,7e-05,9e-05,-0.00018,4e-05,2e-05,5.9999999999999995e-05,5
21668,22594,4e-05,2e-05,7e-05,9e-05,-0.00018,4e-05,2e-05,5.9999999999999995e-05,5
21669,22595,4e-05,2e-05,7e-05,9e-05,-0.00018,4e-05,2e-05,5.9999999999999995e-05,5
21670,22596,4e-05,2e-05,7e-05,9e-05,-0.00018,4e-05,2e-05,5.9999999999999995e-05,5
21671,22597,4e-05,2e-05,7e-05,9e-05,-0.00018,4e-05,2e-05,5.9999999999999995e-05,5
21672,22598,4e-05,2e-05,7e-05,9e-05,-0.00018,4e-05,2e-05,5.9999999999999995e-05,5
21673,22599,4e-05,2e-05,7e-05,9e-05,-0.00018,4e-05,2e-05,5.9999999999999995e-05,5
21674,22600,4e-05,2e-05,7e-05,9e-05,-0.00018,4e-05,2e-05,5.9999999999999995e-05,5
21675,22601,4e-05,2e-05,7e-05,9e-05,-0.00018,4e-05,2e-05,5.9999999999999995e-05,5
21676,22602,4e-05,2e-05,7e-05,9e-05,-0.00018,4e-05,2e-05,5.9999999999999995e-05,5
21677,22603,4e-05,2e-05,7e-05,9e-05,-0.00018,4e-05,2e-05,5.9999999999999995e-05,5
21678,22604,4e-05,2e-05,7e-05,9e-05,-0.00018,4e-05,2e-05,5.9999999999999995e-05,5
21679,22605,4e-05,2e-05,7e-05,9e-05,-0.00018,4e-05,2e-05,5.9999999999999995e-05,5
21680,22606,4e-05,2e-05,7e-05,9e-05,-0.00018,4e-05,2e-05,5.9999999999999995e-05,5
21681,22607,4e-05,2e-05,7e-05,9e-05,-0.00018,4e-05,2e-05,5.9999999999999995e-05,5
21682,22608,4e-05,2e-05,7e-05,9e-05,-0.00018,4e-05,2e-05,5.9999999999999995e-05,5
21683,22609,4e-05,2e-05,7e-05,9e-05,-0.00018,4e-05,2e-05,5.9999999999999995e-05,5
21684,22610,4e-05,2e-05,7e-05,9e-05,-0.00018,4e-05,2e-05,5.9999999999999995e-05,5
21685,22611,4e-05,2e-05,7e-05,9e-05,-0.00018,4e-05,2e-05,5.9999999999999995e-05,5
21686,22612,4e-05,2e-05,7e-05,9e-05,-0.00018,4e-05,2e-05,5.9999999999999995e-05,5
21687,22613,4e-05,2e-05,7e-05,9e-05,-0.00018,4e-05,2e-05,5.9999999999999995e-05,5
21688,22614,-5.9999999999999995e-05,-5.9999999999999995e-05,-1e-05,0.00022,0.00035,0.00016,5e-05,-2.9999999999999997e-05,5
21689,22615,1e-05,1e-05,5e-05,-0.00015,5.9999999999999995e-05,-7e-05,-5.9999999999999995e-05,-5e-05,5
21690,22618,1e-05,1e-05,5e-05,-0.00015,5.9999999999999995e-05,-7e-05,-5.9999999999999995e-05,-5e-05,5
21691,22619,1e-05,1e-05,5e-05,-0.00015,5.9999999999999995e-05,-7e-05,-5.9999999999999995e-05,-5e-05,5
21692,22620,1e-05,1e-05,5e-05,-0.00015,5.9999999999999995e-05,-7e-05,-5.9999999999999995e-05,-5e-05,5
21693,22621,1e-05,1e-05,5e-05,-0.00015,5.9999999999999995e-05,-7e-05,-5.9999999999999995e-05,-5e-05,5
21694,22622,1e-05,1e-05,5e-05,-0.00015,5.9999999999999995e-05,-7e-05,-5.9999999999999995e-05,-5e-05,5
21695,22623,1e-05,1e-05,5e-05,-0.00015,5.9999999999999995e-05,-7e-05,-5.9999999999999995e-05,-5e-05,5
21696,22624,1e-05,1e-05,5e-05,-0.00015,5.9999999999999995e-05,-7e-05,-5.9999999999999995e-05,-5e-05,5
21697,22625,1e-05,1e-05,5e-05,-0.00015,5.9999999999999995e-05,-7e-05,-5.9999999999999995e-05,-5e-05,5
21698,22626,1e-05,1e-05,5e-05,-0.00015,5.9999999999999995e-05,-7e-05,-5.9999999999999995e-05,-5e-05,5
21699,22627,1e-05,1e-05,5e-05,-0.00015,5.9999999999999995e-05,-7e-05,-5.9999999999999995e-05,-5e-05,5
21700,22628,1e-05,1e-05,5e-05,-0.00015,5.9999999999999995e-05,-7e-05,-5.9999999999999995e-05,-5e-05,5
21701,22629,1e-05,1e-05,5e-05,-0.00015,5.9999999999999995e-05,-7e-05,-5.9999999999999995e-05,-5e-05,5
21702,22630,1e-05,1e-05,5e-05,-0.00015,5.9999999999999995e-05,-7e-05,-5.9999999999999995e-05,-5e-05,5
21703,22631,1e-05,1e-05,5e-05,-0.00015,5.9999999999999995e-05,-7e-05,-5.9999999999999995e-05,-5e-05,5
21704,22632,1e-05,1e-05,5e-05,-0.00015,5.9999999999999995e-05,-7e-05,-5.9999999999999995e-05,-5e-05,5
21705,22633,1e-05,1e-05,5e-05,-0.00015,5.9999999999999995e-05,-7e-05,-5.9999999999999995e-05,-5e-05,5
21706,22634,1e-05,1e-05,5e-05,-0.00015,5.9999999999999995e-05,-7e-05,-5.9999999999999995e-05,-5e-05,5
21707,22635,1e-05,1e-05,5e-05,-0.00015,5.9999999999999995e-05,-7e-05,-5.9999999999999995e-05,-5e-05,5
21708,22636,-0.00023999999999999998,-0.00011999999999999999,-4e-05,7e-05,-7e-05,5.9999999999999995e-05,-1e-05,-9e-05,5
21709,22640,2.9999999999999997e-05,5e-05,4e-05,-0.00021,-9e-05,4e-05,1e-05,-5.9999999999999995e-05,5
21710,22641,2.9999999999999997e-05,5e-05,4e-05,-0.00021,-9e-05,4e-05,1e-05,-5.9999999999999995e-05,5
21711,22642,2.9999999999999997e-05,5e-05,4e-05,-0.00021,-9e-05,4e-05,1e-05,-5.9999999999999995e-05,5
21712,22643,2.9999999999999997e-05,5e-05,4e-05,-0.00021,-9e-05,4e-05,1e-05,-5.9999999999999995e-05,5
21713,22644,2.9999999999999997e-05,5e-05,4e-05,-0.00021,-9e-05,4e-05,1e-05,-5.9999999999999995e-05,5
21714,22645,2.9999999999999997e-05,5e-05,4e-05,-0.00021,-9e-05,4e-05,1e-05,-5.9999999999999995e-05,5
21715,22646,2.9999999999999997e-05,5e-05,4e-05,-0.00021,-9e-05,4e-05,1e-05,-5.9999999999999995e-05,5
21716,22647,2.9999999999999997e-05,5e-05,4e-05,-0.00021,-9e-05,4e-05,1e-05,-5.9999999999999995e-05,5
21717,22648,2.9999999999999997e-05,5e-05,4e-05,-0.00021,-9e-05,4e-05,1e-05,-5.9999999999999995e-05,5
21718,22649,2.9999999999999997e-05,5e-05,4e-05,-0.00021,-9e-05,4e-05,1e-05,-5.9999999999999995e-05,5
21719,22650,2.9999999999999997e-05,5e-05,4e-05,-0.00021,-9e-05,4e-05,1e-05,-5.9999999999999995e-05,5
21720,22651,0.00011,2e-05,-5.9999999999999995e-05,-0.00022999999999999998,-9e-05,-8e-05,0.0,-2e-05,5
21721,22652,0.00011,2e-05,-5.9999999999999995e-05,-0.00022999999999999998,-9e-05,-8e-05,0.0,-2e-05,5
21722,22653,0.0,-4e-05,-0.00011,0.0001,2.9999999999999997e-05,2.9999999999999997e-05,-2e-05,1e-05,5
21723,22654,0.0,-4e-05,-0.00011,0.0001,2.9999999999999997e-05,2.9999999999999997e-05,-2e-05,1e-05,5
21724,22655,0.0,-4e-05,-0.00011,0.0001,2.9999999999999997e-05,2.9999999999999997e-05,-2e-05,1e-05,5
21725,22656,0.0,-4e-05,-0.00011,0.0001,2.9999999999999997e-05,2.9999999999999997e-05,-2e-05,1e-05,5
21726,22657,0.0,-4e-05,-0.00011,0.0001,2.9999999999999997e-05,2.9999999999999997e-05,-2e-05,1e-05,5
21727,22658,0.0,-4e-05,-0.00011,0.0001,2.9999999999999997e-05,2.9999999999999997e-05,-2e-05,1e-05,5
21728,22659,0.0,-4e-05,-0.00011,0.0001,2.9999999999999997e-05,2.9999999999999997e-05,-2e-05,1e-05,5
21729,22660,0.0,-4e-05,-0.00011,0.0001,2.9999999999999997e-05,2.9999999999999997e-05,-2e-05,1e-05,5
21730,22661,0.0,-4e-05,-0.00011,0.0001,2.9999999999999997e-05,2.9999999999999997e-05,-2e-05,1e-05,5
21731,22662,0.0,-4e-05,-0.00011,0.0001,2.9999999999999997e-05,2.9999999999999997e-05,-2e-05,1e-05,5
21732,22663,0.0,-4e-05,-0.00011,0.0001,2.9999999999999997e-05,2.9999999999999997e-05,-2e-05,1e-05,5
21733,22664,0.0,-4e-05,-0.00011,0.0001,2.9999999999999997e-05,2.9999999999999997e-05,-2e-05,1e-05,5
21734,22665,0.0,-4e-05,-0.00011,0.0001,2.9999999999999997e-05,2.9999999999999997e-05,-2e-05,1e-05,5
21735,22666,0.0,-4e-05,-0.00011,0.0001,2.9999999999999997e-05,2.9999999999999997e-05,-2e-05,1e-05,5
21736,22667,0.0,-4e-05,-0.00011,0.0001,2.9999999999999997e-05,2.9999999999999997e-05,-2e-05,1e-05,5
21737,22668,0.0,-4e-05,-0.00011,0.0001,2.9999999999999997e-05,2.9999999999999997e-05,-2e-05,1e-05,5
21738,22669,0.0,-4e-05,-0.00011,0.0001,2.9999999999999997e-05,2.9999999999999997e-05,-2e-05,1e-05,5
21739,22670,0.0,-4e-05,-0.00011,0.0001,2.9999999999999997e-05,2.9999999999999997e-05,-2e-05,1e-05,5
21740,22671,0.0,-4e-05,-0.00011,0.0001,2.9999999999999997e-05,2.9999999999999997e-05,-2e-05,1e-05,5
21741,22672,0.0,-4e-05,-0.00011,0.0001,2.9999999999999997e-05,2.9999999999999997e-05,-2e-05,1e-05,5
21742,22673,0.0,-4e-05,-0.00011,0.0001,2.9999999999999997e-05,2.9999999999999997e-05,-2e-05,1e-05,5
21743,22674,5e-05,2.9999999999999997e-05,4e-05,0.00026000000000000003,0.00018999999999999998,2e-05,0.0,1e-05,5
21744,22675,1e-05,-7e-05,-0.00014,0.0,0.00013000000000000002,-5e-05,-2.9999999999999997e-05,0.0,5
21745,22677,1e-05,-7e-05,-0.00014,0.0,0.00013000000000000002,-5e-05,-2.9999999999999997e-05,0.0,5
21746,22678,1e-05,-7e-05,-0.00014,0.0,0.00013000000000000002,-5e-05,-2.9999999999999997e-05,0.0,5
21747,22679,1e-05,-7e-05,-0.00014,0.0,0.00013000000000000002,-5e-05,-2.9999999999999997e-05,0.0,5
21748,22680,1e-05,-7e-05,-0.00014,0.0,0.00013000000000000002,-5e-05,-2.9999999999999997e-05,0.0,5
21749,22681,1e-05,-7e-05,-0.00014,0.0,0.00013000000000000002,-5e-05,-2.9999999999999997e-05,0.0,5
21750,22682,1e-05,-7e-05,-0.00014,0.0,0.00013000000000000002,-5e-05,-2.9999999999999997e-05,0.0,5
21751,22683,1e-05,-7e-05,-0.00014,0.0,0.00013000000000000002,-5e-05,-2.9999999999999997e-05,0.0,5
21752,22684,1e-05,-7e-05,-0.00014,0.0,0.00013000000000000002,-5e-05,-2.9999999999999997e-05,0.0,5
21753,22685,1e-05,-7e-05,-0.00014,0.0,0.00013000000000000002,-5e-05,-2.9999999999999997e-05,0.0,5
21754,22686,1e-05,-7e-05,-0.00014,0.0,0.00013000000000000002,-5e-05,-2.9999999999999997e-05,0.0,5
21755,22689,1e-05,-7e-05,-0.00014,0.0,0.00013000000000000002,-5e-05,-2.9999999999999997e-05,0.0,5
21756,22690,1e-05,-7e-05,-0.00014,0.0,0.00013000000000000002,-5e-05,-2.9999999999999997e-05,0.0,5
21757,22691,1e-05,-7e-05,-0.00014,0.0,0.00013000000000000002,-5e-05,-2.9999999999999997e-05,0.0,5
21758,22692,1e-05,-7e-05,-0.00014,0.0,0.00013000000000000002,-5e-05,-2.9999999999999997e-05,0.0,5
21759,22693,1e-05,-7e-05,-0.00014,0.0,0.00013000000000000002,-5e-05,-2.9999999999999997e-05,0.0,5
21760,22694,1e-05,-7e-05,-0.00014,0.0,0.00013000000000000002,-5e-05,-2.9999999999999997e-05,0.0,5
21761,22695,1e-05,-7e-05,-0.00014,0.0,0.00013000000000000002,-5e-05,-2.9999999999999997e-05,0.0,5
21762,22696,1e-05,-2e-05,4e-05,0.00011,-1e-05,-2e-05,-2.9999999999999997e-05,-2.9999999999999997e-05,5
21763,22697,1e-05,-2e-05,4e-05,0.00011,-1e-05,-2e-05,-2.9999999999999997e-05,-2.9999999999999997e-05,5
21764,22698,-0.0002,-2e-05,0.00011,-0.00033,-0.0005,-0.00011999999999999999,1e-05,2e-05,5
21765,22699,-0.0002,-2e-05,0.00011,-0.00033,-0.0005,-0.00011999999999999999,1e-05,2e-05,5
21766,22700,-0.0002,-2e-05,0.00011,-0.00033,-0.0005,-0.00011999999999999999,1e-05,2e-05,5
21767,22701,-0.0002,-2e-05,0.00011,-0.00033,-0.0005,-0.00011999999999999999,1e-05,2e-05,5
21768,22702,-0.0002,-2e-05,0.00011,-0.00033,-0.0005,-0.00011999999999999999,1e-05,2e-05,5
21769,22703,-0.0002,-2e-05,0.00011,-0.00033,-0.0005,-0.00011999999999999999,1e-05,2e-05,5
21770,22704,-0.0002,-2e-05,0.00011,-0.00033,-0.0005,-0.00011999999999999999,1e-05,2e-05,5
21771,22705,-0.0002,-2e-05,0.00011,-0.00033,-0.0005,-0.00011999999999999999,1e-05,2e-05,5
21772,22706,-0.0002,-2e-05,0.00011,-0.00033,-0.0005,-0.00011999999999999999,1e-05,2e-05,5
21773,22707,-0.0002,-2e-05,0.00011,-0.00033,-0.0005,-0.00011999999999999999,1e-05,2e-05,5
21774,22708,-0.0002,-2e-05,0.00011,-0.00033,-0.0005,-0.00011999999999999999,1e-05,2e-05,5
21775,22709,-0.0002,-2e-05,0.00011,-0.00033,-0.0005,-0.00011999999999999999,1e-05,2e-05,5
21776,22710,-0.0002,-2e-05,0.00011,-0.00033,-0.0005,-0.00011999999999999999,1e-05,2e-05,5
21777,22711,-0.0002,-2e-05,0.00011,-0.00033,-0.0005,-0.00011999999999999999,1e-05,2e-05,5
21778,22712,2.9999999999999997e-05,2.9999999999999997e-05,1e-05,-1e-05,-5.9999999999999995e-05,-5e-05,-2e-05,-2e-05,5
21779,22713,2.9999999999999997e-05,4e-05,0.0,-4e-05,-0.00018999999999999998,-2.9999999999999997e-05,0.0,-1e-05,5
21780,22714,2.9999999999999997e-05,4e-05,0.0,-4e-05,-0.00018999999999999998,-2.9999999999999997e-05,0.0,-1e-05,5
21781,22715,2.9999999999999997e-05,4e-05,0.0,-4e-05,-0.00018999999999999998,-2.9999999999999997e-05,0.0,-1e-05,5
21782,22716,2.9999999999999997e-05,4e-05,0.0,-4e-05,-0.00018999999999999998,-2.9999999999999997e-05,0.0,-1e-05,5
21783,22717,2.9999999999999997e-05,4e-05,0.0,-4e-05,-0.00018999999999999998,-2.9999999999999997e-05,0.0,-1e-05,5
21784,22718,2.9999999999999997e-05,4e-05,0.0,-4e-05,-0.00018999999999999998,-2.9999999999999997e-05,0.0,-1e-05,5
21785,22719,2.9999999999999997e-05,4e-05,0.0,-4e-05,-0.00018999999999999998,-2.9999999999999997e-05,0.0,-1e-05,5
21786,22720,2.9999999999999997e-05,4e-05,0.0,-4e-05,-0.00018999999999999998,-2.9999999999999997e-05,0.0,-1e-05,5
21787,22721,2.9999999999999997e-05,4e-05,0.0,-4e-05,-0.00018999999999999998,-2.9999999999999997e-05,0.0,-1e-05,5
21788,22722,2.9999999999999997e-05,4e-05,0.0,-4e-05,-0.00018999999999999998,-2.9999999999999997e-05,0.0,-1e-05,5
21789,22723,2.9999999999999997e-05,4e-05,0.0,-4e-05,-0.00018999999999999998,-2.9999999999999997e-05,0.0,-1e-05,5
21790,22724,2.9999999999999997e-05,4e-05,0.0,-4e-05,-0.00018999999999999998,-2.9999999999999997e-05,0.0,-1e-05,5
21791,22725,2.9999999999999997e-05,4e-05,0.0,-4e-05,-0.00018999999999999998,-2.9999999999999997e-05,0.0,-1e-05,5
21792,22726,2.9999999999999997e-05,4e-05,0.0,-4e-05,-0.00018999999999999998,-2.9999999999999997e-05,0.0,-1e-05,5
21793,22727,2.9999999999999997e-05,4e-05,0.0,-4e-05,-0.00018999999999999998,-2.9999999999999997e-05,0.0,-1e-05,5
21794,22728,2.9999999999999997e-05,4e-05,0.0,-4e-05,-0.00018999999999999998,-2.9999999999999997e-05,0.0,-1e-05,5
21795,22729,2.9999999999999997e-05,4e-05,0.0,-4e-05,-0.00018999999999999998,-2.9999999999999997e-05,0.0,-1e-05,5
21796,22730,2.9999999999999997e-05,4e-05,0.0,-4e-05,-0.00018999999999999998,-2.9999999999999997e-05,0.0,-1e-05,5
21797,22731,2.9999999999999997e-05,4e-05,0.0,-4e-05,-0.00018999999999999998,-2.9999999999999997e-05,0.0,-1e-05,5
21798,22732,2.9999999999999997e-05,4e-05,0.0,-4e-05,-0.00018999999999999998,-2.9999999999999997e-05,0.0,-1e-05,5
21799,22733,2.9999999999999997e-05,4e-05,0.0,-4e-05,-0.00018999999999999998,-2.9999999999999997e-05,0.0,-1e-05,5
21800,22734,-5e-05,-2e-05,1e-05,-2.9999999999999997e-05,4e-05,-2.9999999999999997e-05,1e-05,-1e-05,5
21801,22735,-1e-05,-1e-05,2e-05,0.00018,0.00036,-5e-05,-2.9999999999999997e-05,-5.9999999999999995e-05,5
21802,22737,-1e-05,-1e-05,2e-05,0.00018,0.00036,-5e-05,-2.9999999999999997e-05,-5.9999999999999995e-05,5
21803,22740,-1e-05,-1e-05,2e-05,0.00018,0.00036,-5e-05,-2.9999999999999997e-05,-5.9999999999999995e-05,5
21804,22741,-1e-05,-1e-05,2e-05,0.00018,0.00036,-5e-05,-2.9999999999999997e-05,-5.9999999999999995e-05,5
21805,22742,-1e-05,-1e-05,2e-05,0.00018,0.00036,-5e-05,-2.9999999999999997e-05,-5.9999999999999995e-05,5
21806,22743,-1e-05,-1e-05,2e-05,0.00018,0.00036,-5e-05,-2.9999999999999997e-05,-5.9999999999999995e-05,5
21807,22744,-1e-05,-1e-05,2e-05,0.00018,0.00036,-5e-05,-2.9999999999999997e-05,-5.9999999999999995e-05,5
21808,22745,-1e-05,-1e-05,2e-05,0.00018,0.00036,-5e-05,-2.9999999999999997e-05,-5.9999999999999995e-05,5
21809,22746,-1e-05,-1e-05,2e-05,0.00018,0.00036,-5e-05,-2.9999999999999997e-05,-5.9999999999999995e-05,5
21810,22747,-1e-05,-1e-05,2e-05,0.00018,0.00036,-5e-05,-2.9999999999999997e-05,-5.9999999999999995e-05,5
21811,22748,-1e-05,-1e-05,2e-05,0.00018,0.00036,-5e-05,-2.9999999999999997e-05,-5.9999999999999995e-05,5
21812,22749,-1e-05,-1e-05,2e-05,0.00018,0.00036,-5e-05,-2.9999999999999997e-05,-5.9999999999999995e-05,5
21813,22750,-1e-05,-1e-05,2e-05,0.00018,0.00036,-5e-05,-2.9999999999999997e-05,-5.9999999999999995e-05,5
21814,22751,-1e-05,-1e-05,2e-05,0.00018,0.00036,-5e-05,-2.9999999999999997e-05,-5.9999999999999995e-05,5
21815,22752,-1e-05,-1e-05,2e-05,0.00018,0.00036,-5e-05,-2.9999999999999997e-05,-5.9999999999999995e-05,5
21816,22753,-1e-05,-1e-05,2e-05,0.00018,0.00036,-5e-05,-2.9999999999999997e-05,-5.9999999999999995e-05,5
21817,22754,-1e-05,-1e-05,2e-05,0.00018,0.00036,-5e-05,-2.9999999999999997e-05,-5.9999999999999995e-05,5
21818,22755,-1e-05,-1e-05,2e-05,0.00018,0.00036,-5e-05,-2.9999999999999997e-05,-5.9999999999999995e-05,5
21819,22756,1e-05,-1e-05,0.0,-7e-05,2e-05,-5.9999999999999995e-05,-2.9999999999999997e-05,4e-05,5
21820,22757,1e-05,-1e-05,0.0,-7e-05,2e-05,-5.9999999999999995e-05,-2.9999999999999997e-05,4e-05,5
21821,22758,1e-05,-1e-05,0.0,-7e-05,2e-05,-5.9999999999999995e-05,-2.9999999999999997e-05,4e-05,5
21822,22759,-2.9999999999999997e-05,-4e-05,4e-05,0.0,0.0,0.00025,5.9999999999999995e-05,0.0,5
21823,22760,-2.9999999999999997e-05,-4e-05,4e-05,0.0,0.0,0.00025,5.9999999999999995e-05,0.0,5
21824,22761,-2.9999999999999997e-05,-4e-05,4e-05,0.0,0.0,0.00025,5.9999999999999995e-05,0.0,5
21825,22762,-2.9999999999999997e-05,-4e-05,4e-05,0.0,0.0,0.00025,5.9999999999999995e-05,0.0,5
21826,22763,-2.9999999999999997e-05,-4e-05,4e-05,0.0,0.0,0.00025,5.9999999999999995e-05,0.0,5
21827,22764,-2.9999999999999997e-05,-4e-05,4e-05,0.0,0.0,0.00025,5.9999999999999995e-05,0.0,5
21828,22765,-2.9999999999999997e-05,-4e-05,4e-05,0.0,0.0,0.00025,5.9999999999999995e-05,0.0,5
21829,22766,-2.9999999999999997e-05,-4e-05,4e-05,0.0,0.0,0.00025,5.9999999999999995e-05,0.0,5
21830,22767,-2.9999999999999997e-05,-4e-05,4e-05,0.0,0.0,0.00025,5.9999999999999995e-05,0.0,5
21831,22768,-2.9999999999999997e-05,-4e-05,4e-05,0.0,0.0,0.00025,5.9999999999999995e-05,0.0,5
21832,22769,-2.9999999999999997e-05,-4e-05,4e-05,0.0,0.0,0.00025,5.9999999999999995e-05,0.0,5
21833,22770,-2.9999999999999997e-05,-4e-05,4e-05,0.0,0.0,0.00025,5.9999999999999995e-05,0.0,5
21834,22771,5e-05,1e-05,-2.9999999999999997e-05,-0.00011999999999999999,-8e-05,-2.9999999999999997e-05,-1e-05,-1e-05,5
21835,22772,-2.9999999999999997e-05,-1e-05,-7e-05,-7e-05,-0.00021,-4e-05,-2.9999999999999997e-05,-2e-05,5
21836,22773,-2.9999999999999997e-05,-1e-05,-7e-05,-7e-05,-0.00021,-4e-05,-2.9999999999999997e-05,-2e-05,5
21837,22774,-2.9999999999999997e-05,-1e-05,-7e-05,-7e-05,-0.00021,-4e-05,-2.9999999999999997e-05,-2e-05,5
21838,22775,-2.9999999999999997e-05,-1e-05,-7e-05,-7e-05,-0.00021,-4e-05,-2.9999999999999997e-05,-2e-05,5
21839,22776,-2.9999999999999997e-05,-1e-05,-7e-05,-7e-05,-0.00021,-4e-05,-2.9999999999999997e-05,-2e-05,5
21840,22777,0.00011,0.0,7e-05,0.00016999999999999999,8e-05,-1e-05,2e-05,-1e-05,5
21841,22779,0.00011,0.0,7e-05,0.00016999999999999999,8e-05,-1e-05,2e-05,-1e-05,5
21842,22780,0.00011,0.0,7e-05,0.00016999999999999999,8e-05,-1e-05,2e-05,-1e-05,5
21843,22781,0.00011,0.0,7e-05,0.00016999999999999999,8e-05,-1e-05,2e-05,-1e-05,5
21844,22782,0.00011,0.0,7e-05,0.00016999999999999999,8e-05,-1e-05,2e-05,-1e-05,5
21845,22783,0.00011,0.0,7e-05,0.00016999999999999999,8e-05,-1e-05,2e-05,-1e-05,5
21846,22784,0.00011,0.0,7e-05,0.00016999999999999999,8e-05,-1e-05,2e-05,-1e-05,5
21847,22785,0.00011,0.0,7e-05,0.00016999999999999999,8e-05,-1e-05,2e-05,-1e-05,5
21848,22786,0.00011,0.0,7e-05,0.00016999999999999999,8e-05,-1e-05,2e-05,-1e-05,5
21849,22789,0.00011,0.0,7e-05,0.00016999999999999999,8e-05,-1e-05,2e-05,-1e-05,5
21850,22790,0.00011,0.0,7e-05,0.00016999999999999999,8e-05,-1e-05,2e-05,-1e-05,5
21851,22791,0.00011,0.0,7e-05,0.00016999999999999999,8e-05,-1e-05,2e-05,-1e-05,5
21852,22792,0.00011,0.0,7e-05,0.00016999999999999999,8e-05,-1e-05,2e-05,-1e-05,5
21853,22793,0.00011,0.0,7e-05,0.00016999999999999999,8e-05,-1e-05,2e-05,-1e-05,5
21854,22794,2e-05,-2.9999999999999997e-05,5e-05,-9e-05,-7e-05,-2.9999999999999997e-05,-4e-05,-8e-05,5
21855,22795,-0.00011,-2.9999999999999997e-05,-2.9999999999999997e-05,-7e-05,0.00011999999999999999,-5e-05,-1e-05,-1e-05,5
21856,22797,-0.00011,-2.9999999999999997e-05,-2.9999999999999997e-05,-7e-05,0.00011999999999999999,-5e-05,-1e-05,-1e-05,5
21857,22798,-0.00011,-2.9999999999999997e-05,-2.9999999999999997e-05,-7e-05,0.00011999999999999999,-5e-05,-1e-05,-1e-05,5
21858,22799,-0.00011,-2.9999999999999997e-05,-2.9999999999999997e-05,-7e-05,0.00011999999999999999,-5e-05,-1e-05,-1e-05,5
21859,22800,-0.00011,-2.9999999999999997e-05,-2.9999999999999997e-05,-7e-05,0.00011999999999999999,-5e-05,-1e-05,-1e-05,5
21860,22801,-0.00011,-2.9999999999999997e-05,-2.9999999999999997e-05,-7e-05,0.00011999999999999999,-5e-05,-1e-05,-1e-05,5
21861,22802,-0.00011,-2.9999999999999997e-05,-2.9999999999999997e-05,-7e-05,0.00011999999999999999,-5e-05,-1e-05,-1e-05,5
21862,22803,-0.00011,-2.9999999999999997e-05,-2.9999999999999997e-05,-7e-05,0.00011999999999999999,-5e-05,-1e-05,-1e-05,5
21863,22804,-0.00011,-2.9999999999999997e-05,-2.9999999999999997e-05,-7e-05,0.00011999999999999999,-5e-05,-1e-05,-1e-05,5
21864,22805,-0.00011,-2.9999999999999997e-05,-2.9999999999999997e-05,-7e-05,0.00011999999999999999,-5e-05,-1e-05,-1e-05,5
21865,22806,-0.00011,-2.9999999999999997e-05,-2.9999999999999997e-05,-7e-05,0.00011999999999999999,-5e-05,-1e-05,-1e-05,5
21866,22807,-0.00011,-2.9999999999999997e-05,-2.9999999999999997e-05,-7e-05,0.00011999999999999999,-5e-05,-1e-05,-1e-05,5
21867,22808,-0.00011,-2.9999999999999997e-05,-2.9999999999999997e-05,-7e-05,0.00011999999999999999,-5e-05,-1e-05,-1e-05,5
21868,22809,-0.00011,-2.9999999999999997e-05,-2.9999999999999997e-05,-7e-05,0.00011999999999999999,-5e-05,-1e-05,-1e-05,5
21869,22810,-0.00011,-2.9999999999999997e-05,-2.9999999999999997e-05,-7e-05,0.00011999999999999999,-5e-05,-1e-05,-1e-05,5
21870,22811,-0.00011,-2.9999999999999997e-05,-2.9999999999999997e-05,-7e-05,0.00011999999999999999,-5e-05,-1e-05,-1e-05,5
21871,22812,-0.00011,-2.9999999999999997e-05,-2.9999999999999997e-05,-7e-05,0.00011999999999999999,-5e-05,-1e-05,-1e-05,5
21872,22813,-0.00011,-2.9999999999999997e-05,-2.9999999999999997e-05,-7e-05,0.00011999999999999999,-5e-05,-1e-05,-1e-05,5
21873,22814,-0.00011,-2.9999999999999997e-05,-2.9999999999999997e-05,-7e-05,0.00011999999999999999,-5e-05,-1e-05,-1e-05,5
21874,22815,-0.00011,-2.9999999999999997e-05,-2.9999999999999997e-05,-7e-05,0.00011999999999999999,-5e-05,-1e-05,-1e-05,5
21875,22816,-2.9999999999999997e-05,4e-05,5.9999999999999995e-05,0.00042,-1e-05,-2e-05,0.0,-4e-05,5
21876,22817,-2.9999999999999997e-05,4e-05,5.9999999999999995e-05,0.00042,-1e-05,-2e-05,0.0,-4e-05,5
21877,22818,-5e-05,1e-05,-5.9999999999999995e-05,-2e-05,-4e-05,-2e-05,-5.9999999999999995e-05,-5.9999999999999995e-05,5
21878,22819,-5e-05,1e-05,-5.9999999999999995e-05,-2e-05,-4e-05,-2e-05,-5.9999999999999995e-05,-5.9999999999999995e-05,5
21879,22820,-5e-05,1e-05,-5.9999999999999995e-05,-2e-05,-4e-05,-2e-05,-5.9999999999999995e-05,-5.9999999999999995e-05,5
21880,22821,-5e-05,1e-05,-5.9999999999999995e-05,-2e-05,-4e-05,-2e-05,-5.9999999999999995e-05,-5.9999999999999995e-05,5
21881,22822,-5e-05,1e-05,-5.9999999999999995e-05,-2e-05,-4e-05,-2e-05,-5.9999999999999995e-05,-5.9999999999999995e-05,5
21882,22823,-5e-05,1e-05,-5.9999999999999995e-05,-2e-05,-4e-05,-2e-05,-5.9999999999999995e-05,-5.9999999999999995e-05,5
21883,22824,-5e-05,1e-05,-5.9999999999999995e-05,-2e-05,-4e-05,-2e-05,-5.9999999999999995e-05,-5.9999999999999995e-05,5
21884,22825,-5e-05,1e-05,-5.9999999999999995e-05,-2e-05,-4e-05,-2e-05,-5.9999999999999995e-05,-5.9999999999999995e-05,5
21885,22826,-5e-05,1e-05,-5.9999999999999995e-05,-2e-05,-4e-05,-2e-05,-5.9999999999999995e-05,-5.9999999999999995e-05,5
21886,22827,-5e-05,1e-05,-5.9999999999999995e-05,-2e-05,-4e-05,-2e-05,-5.9999999999999995e-05,-5.9999999999999995e-05,5
21887,22828,-5e-05,1e-05,-5.9999999999999995e-05,-2e-05,-4e-05,-2e-05,-5.9999999999999995e-05,-5.9999999999999995e-05,5
21888,22829,-5e-05,1e-05,-5.9999999999999995e-05,-2e-05,-4e-05,-2e-05,-5.9999999999999995e-05,-5.9999999999999995e-05,5
21889,22830,8e-05,2e-05,-2e-05,2.9999999999999997e-05,5e-05,5.9999999999999995e-05,0.0,4e-05,5
21890,22831,-0.0001,-5.9999999999999995e-05,7e-05,-0.00016999999999999999,0.00013000000000000002,4e-05,-2e-05,5e-05,5
21891,22832,-0.0001,-5.9999999999999995e-05,7e-05,-0.00016999999999999999,0.00013000000000000002,4e-05,-2e-05,5e-05,5
21892,22833,-0.0001,-5.9999999999999995e-05,7e-05,-0.00016999999999999999,0.00013000000000000002,4e-05,-2e-05,5e-05,5
21893,22834,-0.0001,-5.9999999999999995e-05,7e-05,-0.00016999999999999999,0.00013000000000000002,4e-05,-2e-05,5e-05,5
21894,22835,-0.0001,-5.9999999999999995e-05,7e-05,-0.00016999999999999999,0.00013000000000000002,4e-05,-2e-05,5e-05,5
21895,22836,-0.0001,-5.9999999999999995e-05,7e-05,-0.00016999999999999999,0.00013000000000000002,4e-05,-2e-05,5e-05,5
21896,22839,0.0,-5e-05,-8e-05,-2.9999999999999997e-05,-4e-05,-1e-05,-2e-05,-1e-05,5
21897,22840,0.0,-5e-05,-8e-05,-2.9999999999999997e-05,-4e-05,-1e-05,-2e-05,-1e-05,5
21898,22841,0.0,-5e-05,-8e-05,-2.9999999999999997e-05,-4e-05,-1e-05,-2e-05,-1e-05,5
21899,22842,0.0,-5e-05,-8e-05,-2.9999999999999997e-05,-4e-05,-1e-05,-2e-05,-1e-05,5
21900,22843,0.0,-5e-05,-8e-05,-2.9999999999999997e-05,-4e-05,-1e-05,-2e-05,-1e-05,5
21901,22844,0.0,-5e-05,-8e-05,-2.9999999999999997e-05,-4e-05,-1e-05,-2e-05,-1e-05,5
21902,22845,0.0,-5e-05,-8e-05,-2.9999999999999997e-05,-4e-05,-1e-05,-2e-05,-1e-05,5
21903,22846,0.0,-5e-05,-8e-05,-2.9999999999999997e-05,-4e-05,-1e-05,-2e-05,-1e-05,5
21904,22847,0.0,-5e-05,-8e-05,-2.9999999999999997e-05,-4e-05,-1e-05,-2e-05,-1e-05,5
21905,22848,0.0,-5e-05,-8e-05,-2.9999999999999997e-05,-4e-05,-1e-05,-2e-05,-1e-05,5
21906,22849,0.0,-5e-05,-8e-05,-2.9999999999999997e-05,-4e-05,-1e-05,-2e-05,-1e-05,5
21907,22850,0.0,-5e-05,-8e-05,-2.9999999999999997e-05,-4e-05,-1e-05,-2e-05,-1e-05,5
21908,22851,0.0,-5e-05,-8e-05,-2.9999999999999997e-05,-4e-05,-1e-05,-2e-05,-1e-05,5
21909,22852,0.0,-5e-05,-8e-05,-2.9999999999999997e-05,-4e-05,-1e-05,-2e-05,-1e-05,5
21910,22853,0.0,-5e-05,-8e-05,-2.9999999999999997e-05,-4e-05,-1e-05,-2e-05,-1e-05,5
21911,22854,9e-05,7e-05,-2.9999999999999997e-05,-8e-05,-2.9999999999999997e-05,0.0,2.9999999999999997e-05,4e-05,5
21912,22855,-9e-05,-9e-05,-2.9999999999999997e-05,0.00011999999999999999,0.0001,-2.9999999999999997e-05,-2.9999999999999997e-05,-2e-05,5
21913,22856,-9e-05,-9e-05,-2.9999999999999997e-05,0.00011999999999999999,0.0001,-2.9999999999999997e-05,-2.9999999999999997e-05,-2e-05,5
21914,22857,-9e-05,-9e-05,-2.9999999999999997e-05,0.00011999999999999999,0.0001,-2.9999999999999997e-05,-2.9999999999999997e-05,-2e-05,5
21915,22858,-9e-05,-9e-05,-2.9999999999999997e-05,0.00011999999999999999,0.0001,-2.9999999999999997e-05,-2.9999999999999997e-05,-2e-05,5
21916,22859,-9e-05,-9e-05,-2.9999999999999997e-05,0.00011999999999999999,0.0001,-2.9999999999999997e-05,-2.9999999999999997e-05,-2e-05,5
21917,22860,-9e-05,-9e-05,-2.9999999999999997e-05,0.00011999999999999999,0.0001,-2.9999999999999997e-05,-2.9999999999999997e-05,-2e-05,5
21918,22861,-9e-05,-9e-05,-2.9999999999999997e-05,0.00011999999999999999,0.0001,-2.9999999999999997e-05,-2.9999999999999997e-05,-2e-05,5
21919,22862,-9e-05,-9e-05,-2.9999999999999997e-05,0.00011999999999999999,0.0001,-2.9999999999999997e-05,-2.9999999999999997e-05,-2e-05,5
21920,22863,-9e-05,-9e-05,-2.9999999999999997e-05,0.00011999999999999999,0.0001,-2.9999999999999997e-05,-2.9999999999999997e-05,-2e-05,5
21921,22864,-9e-05,-9e-05,-2.9999999999999997e-05,0.00011999999999999999,0.0001,-2.9999999999999997e-05,-2.9999999999999997e-05,-2e-05,5
21922,22865,-9e-05,-9e-05,-2.9999999999999997e-05,0.00011999999999999999,0.0001,-2.9999999999999997e-05,-2.9999999999999997e-05,-2e-05,5
21923,22866,-9e-05,-9e-05,-2.9999999999999997e-05,0.00011999999999999999,0.0001,-2.9999999999999997e-05,-2.9999999999999997e-05,-2e-05,5
21924,22867,-9e-05,-9e-05,-2.9999999999999997e-05,0.00011999999999999999,0.0001,-2.9999999999999997e-05,-2.9999999999999997e-05,-2e-05,5
21925,22868,-9e-05,-9e-05,-2.9999999999999997e-05,0.00011999999999999999,0.0001,-2.9999999999999997e-05,-2.9999999999999997e-05,-2e-05,5
21926,22869,-9e-05,-9e-05,-2.9999999999999997e-05,0.00011999999999999999,0.0001,-2.9999999999999997e-05,-2.9999999999999997e-05,-2e-05,5
21927,22870,-9e-05,-9e-05,-2.9999999999999997e-05,0.00011999999999999999,0.0001,-2.9999999999999997e-05,-2.9999999999999997e-05,-2e-05,5
21928,22871,-9e-05,-9e-05,-2.9999999999999997e-05,0.00011999999999999999,0.0001,-2.9999999999999997e-05,-2.9999999999999997e-05,-2e-05,5
21929,22872,-9e-05,-9e-05,-2.9999999999999997e-05,0.00011999999999999999,0.0001,-2.9999999999999997e-05,-2.9999999999999997e-05,-2e-05,5
21930,22873,-9e-05,-9e-05,-2.9999999999999997e-05,0.00011999999999999999,0.0001,-2.9999999999999997e-05,-2.9999999999999997e-05,-2e-05,5
21931,22874,-9e-05,-9e-05,-2.9999999999999997e-05,0.00011999999999999999,0.0001,-2.9999999999999997e-05,-2.9999999999999997e-05,-2e-05,5
21932,22875,-9e-05,-9e-05,-2.9999999999999997e-05,0.00011999999999999999,0.0001,-2.9999999999999997e-05,-2.9999999999999997e-05,-2e-05,5
21933,22876,2.9999999999999997e-05,-2e-05,1e-05,-7e-05,-0.00016999999999999999,5.9999999999999995e-05,2e-05,4e-05,5
21934,22877,2.9999999999999997e-05,-2e-05,1e-05,-7e-05,-0.00016999999999999999,5.9999999999999995e-05,2e-05,4e-05,5
21935,22878,5e-05,8e-05,0.00014,0.00025,5.9999999999999995e-05,2.9999999999999997e-05,2e-05,2.9999999999999997e-05,5
21936,22879,5e-05,8e-05,0.00014,0.00025,5.9999999999999995e-05,2.9999999999999997e-05,2e-05,2.9999999999999997e-05,5
21937,22880,5e-05,8e-05,0.00014,0.00025,5.9999999999999995e-05,2.9999999999999997e-05,2e-05,2.9999999999999997e-05,5
21938,22881,5e-05,8e-05,0.00014,0.00025,5.9999999999999995e-05,2.9999999999999997e-05,2e-05,2.9999999999999997e-05,5
21939,22882,5e-05,8e-05,0.00014,0.00025,5.9999999999999995e-05,2.9999999999999997e-05,2e-05,2.9999999999999997e-05,5
21940,22883,5e-05,8e-05,0.00014,0.00025,5.9999999999999995e-05,2.9999999999999997e-05,2e-05,2.9999999999999997e-05,5
21941,22884,5e-05,8e-05,0.00014,0.00025,5.9999999999999995e-05,2.9999999999999997e-05,2e-05,2.9999999999999997e-05,5
21942,22885,5e-05,8e-05,0.00014,0.00025,5.9999999999999995e-05,2.9999999999999997e-05,2e-05,2.9999999999999997e-05,5
21943,22886,5e-05,8e-05,0.00014,0.00025,5.9999999999999995e-05,2.9999999999999997e-05,2e-05,2.9999999999999997e-05,5
21944,22890,5e-05,8e-05,0.00014,0.00025,5.9999999999999995e-05,2.9999999999999997e-05,2e-05,2.9999999999999997e-05,5
21945,22891,1e-05,0.0,-4e-05,-4e-05,1e-05,0.0,2e-05,2.9999999999999997e-05,5
21946,22892,1e-05,0.0,-4e-05,-4e-05,1e-05,0.0,2e-05,2.9999999999999997e-05,5
21947,22893,1e-05,0.0,-4e-05,-4e-05,1e-05,0.0,2e-05,2.9999999999999997e-05,5
21948,22894,1e-05,0.0,-4e-05,-4e-05,1e-05,0.0,2e-05,2.9999999999999997e-05,5
21949,22895,1e-05,0.0,-4e-05,-4e-05,1e-05,0.0,2e-05,2.9999999999999997e-05,5
21950,22896,1e-05,0.0,-4e-05,-4e-05,1e-05,0.0,2e-05,2.9999999999999997e-05,5
21951,22897,-8e-05,-7e-05,0.0,0.00016999999999999999,0.0003,-8e-05,-2.9999999999999997e-05,-4e-05,5
21952,22898,-8e-05,-7e-05,0.0,0.00016999999999999999,0.0003,-8e-05,-2.9999999999999997e-05,-4e-05,5
21953,22899,-8e-05,-7e-05,0.0,0.00016999999999999999,0.0003,-8e-05,-2.9999999999999997e-05,-4e-05,5
21954,22900,-8e-05,-7e-05,0.0,0.00016999999999999999,0.0003,-8e-05,-2.9999999999999997e-05,-4e-05,5
21955,22901,-8e-05,-7e-05,0.0,0.00016999999999999999,0.0003,-8e-05,-2.9999999999999997e-05,-4e-05,5
21956,22902,-8e-05,-7e-05,0.0,0.00016999999999999999,0.0003,-8e-05,-2.9999999999999997e-05,-4e-05,5
21957,22903,-8e-05,-7e-05,0.0,0.00016999999999999999,0.0003,-8e-05,-2.9999999999999997e-05,-4e-05,5
21958,22904,-8e-05,-7e-05,0.0,0.00016999999999999999,0.0003,-8e-05,-2.9999999999999997e-05,-4e-05,5
21959,22905,-8e-05,-7e-05,0.0,0.00016999999999999999,0.0003,-8e-05,-2.9999999999999997e-05,-4e-05,5
21960,22906,-8e-05,-7e-05,0.0,0.00016999999999999999,0.0003,-8e-05,-2.9999999999999997e-05,-4e-05,5
21961,22907,-8e-05,-7e-05,0.0,0.00016999999999999999,0.0003,-8e-05,-2.9999999999999997e-05,-4e-05,5
21962,22908,-8e-05,-7e-05,0.0,0.00016999999999999999,0.0003,-8e-05,-2.9999999999999997e-05,-4e-05,5
21963,22909,-8e-05,-7e-05,0.0,0.00016999999999999999,0.0003,-8e-05,-2.9999999999999997e-05,-4e-05,5
21964,22910,-8e-05,-7e-05,0.0,0.00016999999999999999,0.0003,-8e-05,-2.9999999999999997e-05,-4e-05,5
21965,22911,-8e-05,-7e-05,0.0,0.00016999999999999999,0.0003,-8e-05,-2.9999999999999997e-05,-4e-05,5
21966,22912,-8e-05,-7e-05,0.0,0.00016999999999999999,0.0003,-8e-05,-2.9999999999999997e-05,-4e-05,5
21967,22913,-8e-05,-7e-05,0.0,0.00016999999999999999,0.0003,-8e-05,-2.9999999999999997e-05,-4e-05,5
21968,22914,-4e-05,-2.9999999999999997e-05,1e-05,0.00025,0.00037,-5e-05,-7e-05,-0.00021,5
21969,22915,-0.00015,-2e-05,2e-05,0.0002,0.00016,4e-05,2.9999999999999997e-05,-9e-05,5
21970,22916,-0.00015,-2e-05,2e-05,0.0002,0.00016,4e-05,2.9999999999999997e-05,-9e-05,5
21971,22917,-0.00015,-2e-05,2e-05,0.0002,0.00016,4e-05,2.9999999999999997e-05,-9e-05,5
21972,22918,-0.00015,-2e-05,2e-05,0.0002,0.00016,4e-05,2.9999999999999997e-05,-9e-05,5
21973,22919,-0.00015,-2e-05,2e-05,0.0002,0.00016,4e-05,2.9999999999999997e-05,-9e-05,5
21974,22920,-0.00015,-2e-05,2e-05,0.0002,0.00016,4e-05,2.9999999999999997e-05,-9e-05,5
21975,22921,-0.00015,-2e-05,2e-05,0.0002,0.00016,4e-05,2.9999999999999997e-05,-9e-05,5
21976,22922,-0.00015,-2e-05,2e-05,0.0002,0.00016,4e-05,2.9999999999999997e-05,-9e-05,5
21977,22923,-0.00015,-2e-05,2e-05,0.0002,0.00016,4e-05,2.9999999999999997e-05,-9e-05,5
21978,22924,-0.00015,-2e-05,2e-05,0.0002,0.00016,4e-05,2.9999999999999997e-05,-9e-05,5
21979,22925,-0.00015,-2e-05,2e-05,0.0002,0.00016,4e-05,2.9999999999999997e-05,-9e-05,5
21980,22926,-0.00015,-2e-05,2e-05,0.0002,0.00016,4e-05,2.9999999999999997e-05,-9e-05,5
21981,22927,-0.00015,-2e-05,2e-05,0.0002,0.00016,4e-05,2.9999999999999997e-05,-9e-05,5
21982,22928,-0.00015,-2e-05,2e-05,0.0002,0.00016,4e-05,2.9999999999999997e-05,-9e-05,5
21983,22929,-0.00015,-2e-05,2e-05,0.0002,0.00016,4e-05,2.9999999999999997e-05,-9e-05,5
21984,22930,-0.00015,-2e-05,2e-05,0.0002,0.00016,4e-05,2.9999999999999997e-05,-9e-05,5
21985,22931,-0.00015,-2e-05,2e-05,0.0002,0.00016,4e-05,2.9999999999999997e-05,-9e-05,5
21986,22932,-0.00015,-2e-05,2e-05,0.0002,0.00016,4e-05,2.9999999999999997e-05,-9e-05,5
21987,22933,-0.00015,-2e-05,2e-05,0.0002,0.00016,4e-05,2.9999999999999997e-05,-9e-05,5
21988,22934,-0.00015,-2e-05,2e-05,0.0002,0.00016,4e-05,2.9999999999999997e-05,-9e-05,5
21989,22935,-0.00015,-2e-05,2e-05,0.0002,0.00016,4e-05,2.9999999999999997e-05,-9e-05,5
21990,22937,8e-05,-7e-05,-0.00028,-0.00029,-0.00018999999999999998,-5e-05,0.0,2.9999999999999997e-05,5
21991,22940,0.00011,1e-05,-0.0001,-5e-05,-0.00015,-4e-05,-5e-05,2e-05,5
21992,22941,0.00011,1e-05,-0.0001,-5e-05,-0.00015,-4e-05,-5e-05,2e-05,5
21993,22942,0.00011,1e-05,-0.0001,-5e-05,-0.00015,-4e-05,-5e-05,2e-05,5
21994,22943,0.00011,1e-05,-0.0001,-5e-05,-0.00015,-4e-05,-5e-05,2e-05,5
21995,22944,0.00011,1e-05,-0.0001,-5e-05,-0.00015,-4e-05,-5e-05,2e-05,5
21996,22945,0.00011,1e-05,-0.0001,-5e-05,-0.00015,-4e-05,-5e-05,2e-05,5
21997,22946,0.00011,1e-05,-0.0001,-5e-05,-0.00015,-4e-05,-5e-05,2e-05,5
21998,22947,0.00011,1e-05,-0.0001,-5e-05,-0.00015,-4e-05,-5e-05,2e-05,5
21999,22948,0.00011,1e-05,-0.0001,-5e-05,-0.00015,-4e-05,-5e-05,2e-05,5
22000,22949,0.00011,1e-05,-0.0001,-5e-05,-0.00015,-4e-05,-5e-05,2e-05,5
22001,22950,0.00011,1e-05,-0.0001,-5e-05,-0.00015,-4e-05,-5e-05,2e-05,5
22002,22951,1e-05,2e-05,-2.9999999999999997e-05,-0.00018,-0.00016999999999999999,-2e-05,-1e-05,2.9999999999999997e-05,5
22003,22952,1e-05,2e-05,-2.9999999999999997e-05,-0.00018,-0.00016999999999999999,-2e-05,-1e-05,2.9999999999999997e-05,5
22004,22953,1e-05,2e-05,-2.9999999999999997e-05,-0.00018,-0.00016999999999999999,-2e-05,-1e-05,2.9999999999999997e-05,5
22005,22954,1e-05,2e-05,-2.9999999999999997e-05,-0.00018,-0.00016999999999999999,-2e-05,-1e-05,2.9999999999999997e-05,5
22006,22955,1e-05,2e-05,-2.9999999999999997e-05,-0.00018,-0.00016999999999999999,-2e-05,-1e-05,2.9999999999999997e-05,5
22007,22956,1e-05,2e-05,-2.9999999999999997e-05,-0.00018,-0.00016999999999999999,-2e-05,-1e-05,2.9999999999999997e-05,5
22008,22957,9e-05,8e-05,-1e-05,-0.00018,-0.00041,5.9999999999999995e-05,8e-05,0.00011999999999999999,5
22009,22958,9e-05,8e-05,-1e-05,-0.00018,-0.00041,5.9999999999999995e-05,8e-05,0.00011999999999999999,5
22010,22959,9e-05,8e-05,-1e-05,-0.00018,-0.00041,5.9999999999999995e-05,8e-05,0.00011999999999999999,5
22011,22960,9e-05,8e-05,-1e-05,-0.00018,-0.00041,5.9999999999999995e-05,8e-05,0.00011999999999999999,5
22012,22961,9e-05,8e-05,-1e-05,-0.00018,-0.00041,5.9999999999999995e-05,8e-05,0.00011999999999999999,5
22013,22962,9e-05,8e-05,-1e-05,-0.00018,-0.00041,5.9999999999999995e-05,8e-05,0.00011999999999999999,5
22014,22963,9e-05,8e-05,-1e-05,-0.00018,-0.00041,5.9999999999999995e-05,8e-05,0.00011999999999999999,5
22015,22964,9e-05,8e-05,-1e-05,-0.00018,-0.00041,5.9999999999999995e-05,8e-05,0.00011999999999999999,5
22016,22965,9e-05,8e-05,-1e-05,-0.00018,-0.00041,5.9999999999999995e-05,8e-05,0.00011999999999999999,5
22017,22966,9e-05,8e-05,-1e-05,-0.00018,-0.00041,5.9999999999999995e-05,8e-05,0.00011999999999999999,5
22018,22967,9e-05,8e-05,-1e-05,-0.00018,-0.00041,5.9999999999999995e-05,8e-05,0.00011999999999999999,5
22019,22968,9e-05,8e-05,-1e-05,-0.00018,-0.00041,5.9999999999999995e-05,8e-05,0.00011999999999999999,5
22020,22969,9e-05,8e-05,-1e-05,-0.00018,-0.00041,5.9999999999999995e-05,8e-05,0.00011999999999999999,5
22021,22970,9e-05,8e-05,-1e-05,-0.00018,-0.00041,5.9999999999999995e-05,8e-05,0.00011999999999999999,5
22022,22971,9e-05,8e-05,-1e-05,-0.00018,-0.00041,5.9999999999999995e-05,8e-05,0.00011999999999999999,5
22023,22972,9e-05,8e-05,-1e-05,-0.00018,-0.00041,5.9999999999999995e-05,8e-05,0.00011999999999999999,5
22024,22973,9e-05,8e-05,-1e-05,-0.00018,-0.00041,5.9999999999999995e-05,8e-05,0.00011999999999999999,5
22025,22974,-5e-05,-1e-05,7e-05,0.0001,4e-05,-1e-05,-2.9999999999999997e-05,4e-05,5
22026,22975,1e-05,-1e-05,0.0001,-0.00011,2e-05,0.0001,-2e-05,-0.00011,5
22027,22976,1e-05,-1e-05,0.0001,-0.00011,2e-05,0.0001,-2e-05,-0.00011,5
22028,22977,1e-05,-1e-05,0.0001,-0.00011,2e-05,0.0001,-2e-05,-0.00011,5
22029,22978,1e-05,-1e-05,0.0001,-0.00011,2e-05,0.0001,-2e-05,-0.00011,5
22030,22979,1e-05,-1e-05,0.0001,-0.00011,2e-05,0.0001,-2e-05,-0.00011,5
22031,22980,1e-05,-1e-05,0.0001,-0.00011,2e-05,0.0001,-2e-05,-0.00011,5
22032,22981,1e-05,-1e-05,0.0001,-0.00011,2e-05,0.0001,-2e-05,-0.00011,5
22033,22982,1e-05,-1e-05,0.0001,-0.00011,2e-05,0.0001,-2e-05,-0.00011,5
22034,22983,1e-05,-1e-05,0.0001,-0.00011,2e-05,0.0001,-2e-05,-0.00011,5
22035,22984,1e-05,-1e-05,0.0001,-0.00011,2e-05,0.0001,-2e-05,-0.00011,5
22036,22985,1e-05,-1e-05,0.0001,-0.00011,2e-05,0.0001,-2e-05,-0.00011,5
22037,22986,1e-05,-1e-05,0.0001,-0.00011,2e-05,0.0001,-2e-05,-0.00011,5
22038,22989,1e-05,-1e-05,0.0001,-0.00011,2e-05,0.0001,-2e-05,-0.00011,5
22039,22990,1e-05,-1e-05,0.0001,-0.00011,2e-05,0.0001,-2e-05,-0.00011,5
22040,22991,1e-05,-1e-05,0.0001,-0.00011,2e-05,0.0001,-2e-05,-0.00011,5
22041,22992,1e-05,-1e-05,0.0001,-0.00011,2e-05,0.0001,-2e-05,-0.00011,5
22042,22993,1e-05,-1e-05,0.0001,-0.00011,2e-05,0.0001,-2e-05,-0.00011,5
22043,22994,1e-05,-1e-05,0.0001,-0.00011,2e-05,0.0001,-2e-05,-0.00011,5
22044,22995,1e-05,-1e-05,0.0001,-0.00011,2e-05,0.0001,-2e-05,-0.00011,5
22045,22996,-5.9999999999999995e-05,-5.9999999999999995e-05,-5e-05,-0.0001,1e-05,-2.9999999999999997e-05,-5e-05,-5e-05,5
22046,22997,-5.9999999999999995e-05,-5.9999999999999995e-05,-5e-05,-0.0001,1e-05,-2.9999999999999997e-05,-5e-05,-5e-05,5
22047,22998,9e-05,4e-05,0.0001,0.00037999999999999997,0.00027,-8e-05,-1e-05,0.0001,5
22048,22999,9e-05,4e-05,0.0001,0.00037999999999999997,0.00027,-8e-05,-1e-05,0.0001,5
22049,23000,9e-05,4e-05,0.0001,0.00037999999999999997,0.00027,-8e-05,-1e-05,0.0001,5
22050,23001,9e-05,4e-05,0.0001,0.00037999999999999997,0.00027,-8e-05,-1e-05,0.0001,5
22051,23002,9e-05,4e-05,0.0001,0.00037999999999999997,0.00027,-8e-05,-1e-05,0.0001,5
22052,23003,9e-05,4e-05,0.0001,0.00037999999999999997,0.00027,-8e-05,-1e-05,0.0001,5
22053,23004,9e-05,4e-05,0.0001,0.00037999999999999997,0.00027,-8e-05,-1e-05,0.0001,5
22054,23005,9e-05,4e-05,0.0001,0.00037999999999999997,0.00027,-8e-05,-1e-05,0.0001,5
22055,23006,9e-05,4e-05,0.0001,0.00037999999999999997,0.00027,-8e-05,-1e-05,0.0001,5
22056,23007,9e-05,4e-05,0.0001,0.00037999999999999997,0.00027,-8e-05,-1e-05,0.0001,5
22057,23008,9e-05,4e-05,0.0001,0.00037999999999999997,0.00027,-8e-05,-1e-05,0.0001,5
22058,23009,9e-05,4e-05,0.0001,0.00037999999999999997,0.00027,-8e-05,-1e-05,0.0001,5
22059,23010,4e-05,5.9999999999999995e-05,5.9999999999999995e-05,-0.00028,-0.0002,-9e-05,-2e-05,-5.9999999999999995e-05,5
22060,23011,-4e-05,0.0,-0.00011999999999999999,-0.00028,-0.00016,-5e-05,-1e-05,-2.9999999999999997e-05,5
22061,23012,-4e-05,0.0,-0.00011999999999999999,-0.00028,-0.00016,-5e-05,-1e-05,-2.9999999999999997e-05,5
22062,23013,-4e-05,0.0,-0.00011999999999999999,-0.00028,-0.00016,-5e-05,-1e-05,-2.9999999999999997e-05,5
22063,23014,-4e-05,0.0,-0.00011999999999999999,-0.00028,-0.00016,-5e-05,-1e-05,-2.9999999999999997e-05,5
22064,23015,-4e-05,0.0,-0.00011999999999999999,-0.00028,-0.00016,-5e-05,-1e-05,-2.9999999999999997e-05,5
22065,23016,-4e-05,0.0,-0.00011999999999999999,-0.00028,-0.00016,-5e-05,-1e-05,-2.9999999999999997e-05,5
22066,23017,-7e-05,-7e-05,-5e-05,-0.00015,-0.00011999999999999999,-9e-05,-4e-05,-5.9999999999999995e-05,5
22067,23018,-7e-05,-7e-05,-5e-05,-0.00015,-0.00011999999999999999,-9e-05,-4e-05,-5.9999999999999995e-05,5
22068,23019,-7e-05,-7e-05,-5e-05,-0.00015,-0.00011999999999999999,-9e-05,-4e-05,-5.9999999999999995e-05,5
22069,23020,-7e-05,-7e-05,-5e-05,-0.00015,-0.00011999999999999999,-9e-05,-4e-05,-5.9999999999999995e-05,5
22070,23021,-7e-05,-7e-05,-5e-05,-0.00015,-0.00011999999999999999,-9e-05,-4e-05,-5.9999999999999995e-05,5
22071,23022,-7e-05,-7e-05,-5e-05,-0.00015,-0.00011999999999999999,-9e-05,-4e-05,-5.9999999999999995e-05,5
22072,23023,-7e-05,-7e-05,-5e-05,-0.00015,-0.00011999999999999999,-9e-05,-4e-05,-5.9999999999999995e-05,5
22073,23024,-7e-05,-7e-05,-5e-05,-0.00015,-0.00011999999999999999,-9e-05,-4e-05,-5.9999999999999995e-05,5
22074,23025,-7e-05,-7e-05,-5e-05,-0.00015,-0.00011999999999999999,-9e-05,-4e-05,-5.9999999999999995e-05,5
22075,23026,-7e-05,-7e-05,-5e-05,-0.00015,-0.00011999999999999999,-9e-05,-4e-05,-5.9999999999999995e-05,5
22076,23027,-7e-05,-7e-05,-5e-05,-0.00015,-0.00011999999999999999,-9e-05,-4e-05,-5.9999999999999995e-05,5
22077,23028,-7e-05,-7e-05,-5e-05,-0.00015,-0.00011999999999999999,-9e-05,-4e-05,-5.9999999999999995e-05,5
22078,23029,-7e-05,-7e-05,-5e-05,-0.00015,-0.00011999999999999999,-9e-05,-4e-05,-5.9999999999999995e-05,5
22079,23030,-7e-05,-7e-05,-5e-05,-0.00015,-0.00011999999999999999,-9e-05,-4e-05,-5.9999999999999995e-05,5
22080,23031,-7e-05,-7e-05,-5e-05,-0.00015,-0.00011999999999999999,-9e-05,-4e-05,-5.9999999999999995e-05,5
22081,23032,-7e-05,-7e-05,-5e-05,-0.00015,-0.00011999999999999999,-9e-05,-4e-05,-5.9999999999999995e-05,5
22082,23033,-7e-05,-7e-05,-5e-05,-0.00015,-0.00011999999999999999,-9e-05,-4e-05,-5.9999999999999995e-05,5
22083,23034,2.9999999999999997e-05,5e-05,8e-05,0.00026000000000000003,4e-05,5e-05,2.9999999999999997e-05,-1e-05,5
22084,23035,5.9999999999999995e-05,7e-05,5.9999999999999995e-05,0.00021,0.00028,5.9999999999999995e-05,2e-05,1e-05,5
22085,23037,5.9999999999999995e-05,7e-05,5.9999999999999995e-05,0.00021,0.00028,5.9999999999999995e-05,2e-05,1e-05,5
22086,23040,5.9999999999999995e-05,7e-05,5.9999999999999995e-05,0.00021,0.00028,5.9999999999999995e-05,2e-05,1e-05,5
22087,23041,5.9999999999999995e-05,7e-05,5.9999999999999995e-05,0.00021,0.00028,5.9999999999999995e-05,2e-05,1e-05,5
22088,23042,5.9999999999999995e-05,7e-05,5.9999999999999995e-05,0.00021,0.00028,5.9999999999999995e-05,2e-05,1e-05,5
22089,23043,5.9999999999999995e-05,7e-05,5.9999999999999995e-05,0.00021,0.00028,5.9999999999999995e-05,2e-05,1e-05,5
22090,23044,5.9999999999999995e-05,7e-05,5.9999999999999995e-05,0.00021,0.00028,5.9999999999999995e-05,2e-05,1e-05,5
22091,23045,5.9999999999999995e-05,7e-05,5.9999999999999995e-05,0.00021,0.00028,5.9999999999999995e-05,2e-05,1e-05,5
22092,23046,5.9999999999999995e-05,7e-05,5.9999999999999995e-05,0.00021,0.00028,5.9999999999999995e-05,2e-05,1e-05,5
22093,23047,5.9999999999999995e-05,7e-05,5.9999999999999995e-05,0.00021,0.00028,5.9999999999999995e-05,2e-05,1e-05,5
22094,23048,5.9999999999999995e-05,7e-05,5.9999999999999995e-05,0.00021,0.00028,5.9999999999999995e-05,2e-05,1e-05,5
22095,23049,5.9999999999999995e-05,7e-05,5.9999999999999995e-05,0.00021,0.00028,5.9999999999999995e-05,2e-05,1e-05,5
22096,23050,5.9999999999999995e-05,7e-05,5.9999999999999995e-05,0.00021,0.00028,5.9999999999999995e-05,2e-05,1e-05,5
22097,23051,5.9999999999999995e-05,7e-05,5.9999999999999995e-05,0.00021,0.00028,5.9999999999999995e-05,2e-05,1e-05,5
22098,23052,5.9999999999999995e-05,7e-05,5.9999999999999995e-05,0.00021,0.00028,5.9999999999999995e-05,2e-05,1e-05,5
22099,23053,5.9999999999999995e-05,7e-05,5.9999999999999995e-05,0.00021,0.00028,5.9999999999999995e-05,2e-05,1e-05,5
22100,23054,5.9999999999999995e-05,7e-05,5.9999999999999995e-05,0.00021,0.00028,5.9999999999999995e-05,2e-05,1e-05,5
22101,23055,5.9999999999999995e-05,7e-05,5.9999999999999995e-05,0.00021,0.00028,5.9999999999999995e-05,2e-05,1e-05,5
22102,23056,-5.9999999999999995e-05,5e-05,-5e-05,-0.00011999999999999999,0.00011,-2.9999999999999997e-05,-1e-05,-1e-05,5
22103,23057,-5.9999999999999995e-05,5e-05,-5e-05,-0.00011999999999999999,0.00011,-2.9999999999999997e-05,-1e-05,-1e-05,5
22104,23058,-4e-05,-5.9999999999999995e-05,0.0,8e-05,7e-05,2e-05,-1e-05,-4e-05,5
22105,23059,-4e-05,-5.9999999999999995e-05,0.0,8e-05,7e-05,2e-05,-1e-05,-4e-05,5
22106,23060,-4e-05,-5.9999999999999995e-05,0.0,8e-05,7e-05,2e-05,-1e-05,-4e-05,5
22107,23061,-4e-05,-5.9999999999999995e-05,0.0,8e-05,7e-05,2e-05,-1e-05,-4e-05,5
22108,23062,-4e-05,-5.9999999999999995e-05,0.0,8e-05,7e-05,2e-05,-1e-05,-4e-05,5
22109,23063,-4e-05,-5.9999999999999995e-05,0.0,8e-05,7e-05,2e-05,-1e-05,-4e-05,5
22110,23064,-4e-05,-5.9999999999999995e-05,0.0,8e-05,7e-05,2e-05,-1e-05,-4e-05,5
22111,23065,-4e-05,-5.9999999999999995e-05,0.0,8e-05,7e-05,2e-05,-1e-05,-4e-05,5
22112,23066,-4e-05,-5.9999999999999995e-05,0.0,8e-05,7e-05,2e-05,-1e-05,-4e-05,5
22113,23067,-4e-05,-5.9999999999999995e-05,0.0,8e-05,7e-05,2e-05,-1e-05,-4e-05,5
22114,23068,-4e-05,-5.9999999999999995e-05,0.0,8e-05,7e-05,2e-05,-1e-05,-4e-05,5
22115,23069,-4e-05,-5.9999999999999995e-05,0.0,8e-05,7e-05,2e-05,-1e-05,-4e-05,5
22116,23070,-4e-05,-5.9999999999999995e-05,0.0,8e-05,7e-05,2e-05,-1e-05,-4e-05,5
22117,23071,-5.9999999999999995e-05,-0.00015,-7e-05,-0.00018999999999999998,-8e-05,1e-05,1e-05,4e-05,5
22118,23072,-5.9999999999999995e-05,-0.00015,-7e-05,-0.00018999999999999998,-8e-05,1e-05,1e-05,4e-05,5
22119,23073,-5.9999999999999995e-05,-0.00015,-7e-05,-0.00018999999999999998,-8e-05,1e-05,1e-05,4e-05,5
22120,23074,-5.9999999999999995e-05,-0.00015,-7e-05,-0.00018999999999999998,-8e-05,1e-05,1e-05,4e-05,5
22121,23075,-5.9999999999999995e-05,-0.00015,-7e-05,-0.00018999999999999998,-8e-05,1e-05,1e-05,4e-05,5
22122,23076,-5.9999999999999995e-05,-0.00015,-7e-05,-0.00018999999999999998,-8e-05,1e-05,1e-05,4e-05,5
22123,23077,-0.0001,1e-05,-2e-05,-2e-05,-2e-05,-4e-05,-4e-05,-2.9999999999999997e-05,5
22124,23078,-0.0001,1e-05,-2e-05,-2e-05,-2e-05,-4e-05,-4e-05,-2.9999999999999997e-05,5
22125,23079,-0.0001,1e-05,-2e-05,-2e-05,-2e-05,-4e-05,-4e-05,-2.9999999999999997e-05,5
22126,23080,-0.0001,1e-05,-2e-05,-2e-05,-2e-05,-4e-05,-4e-05,-2.9999999999999997e-05,5
22127,23081,-0.0001,1e-05,-2e-05,-2e-05,-2e-05,-4e-05,-4e-05,-2.9999999999999997e-05,5
22128,23082,-0.0001,1e-05,-2e-05,-2e-05,-2e-05,-4e-05,-4e-05,-2.9999999999999997e-05,5
22129,23083,-0.0001,1e-05,-2e-05,-2e-05,-2e-05,-4e-05,-4e-05,-2.9999999999999997e-05,5
22130,23084,-0.0001,1e-05,-2e-05,-2e-05,-2e-05,-4e-05,-4e-05,-2.9999999999999997e-05,5
22131,23085,-0.0001,1e-05,-2e-05,-2e-05,-2e-05,-4e-05,-4e-05,-2.9999999999999997e-05,5
22132,23086,-0.0001,1e-05,-2e-05,-2e-05,-2e-05,-4e-05,-4e-05,-2.9999999999999997e-05,5
22133,23089,-0.0001,1e-05,-2e-05,-2e-05,-2e-05,-4e-05,-4e-05,-2.9999999999999997e-05,5
22134,23090,-0.0001,1e-05,-2e-05,-2e-05,-2e-05,-4e-05,-4e-05,-2.9999999999999997e-05,5
22135,23091,-0.0001,1e-05,-2e-05,-2e-05,-2e-05,-4e-05,-4e-05,-2.9999999999999997e-05,5
22136,23092,-0.0001,1e-05,-2e-05,-2e-05,-2e-05,-4e-05,-4e-05,-2.9999999999999997e-05,5
22137,23093,-0.0001,1e-05,-2e-05,-2e-05,-2e-05,-4e-05,-4e-05,-2.9999999999999997e-05,5
22138,23094,8e-05,8e-05,0.00014,0.00011,-0.0003,0.0,1e-05,-2e-05,5
22139,23095,-0.00015,-0.00015,-0.00013000000000000002,-0.00033,-0.00041,-8e-05,-2.9999999999999997e-05,-2.9999999999999997e-05,5
22140,23096,-0.00015,-0.00015,-0.00013000000000000002,-0.00033,-0.00041,-8e-05,-2.9999999999999997e-05,-2.9999999999999997e-05,5
22141,23097,-0.00015,-0.00015,-0.00013000000000000002,-0.00033,-0.00041,-8e-05,-2.9999999999999997e-05,-2.9999999999999997e-05,5
22142,23098,-0.00015,-0.00015,-0.00013000000000000002,-0.00033,-0.00041,-8e-05,-2.9999999999999997e-05,-2.9999999999999997e-05,5
22143,23099,-0.00015,-0.00015,-0.00013000000000000002,-0.00033,-0.00041,-8e-05,-2.9999999999999997e-05,-2.9999999999999997e-05,5
22144,23100,-0.00015,-0.00015,-0.00013000000000000002,-0.00033,-0.00041,-8e-05,-2.9999999999999997e-05,-2.9999999999999997e-05,5
22145,23101,-0.00015,-0.00015,-0.00013000000000000002,-0.00033,-0.00041,-8e-05,-2.9999999999999997e-05,-2.9999999999999997e-05,5
22146,23102,-0.00015,-0.00015,-0.00013000000000000002,-0.00033,-0.00041,-8e-05,-2.9999999999999997e-05,-2.9999999999999997e-05,5
22147,23103,-0.00015,-0.00015,-0.00013000000000000002,-0.00033,-0.00041,-8e-05,-2.9999999999999997e-05,-2.9999999999999997e-05,5
22148,23104,-0.00015,-0.00015,-0.00013000000000000002,-0.00033,-0.00041,-8e-05,-2.9999999999999997e-05,-2.9999999999999997e-05,5
22149,23105,-0.00015,-0.00015,-0.00013000000000000002,-0.00033,-0.00041,-8e-05,-2.9999999999999997e-05,-2.9999999999999997e-05,5
22150,23106,-0.00015,-0.00015,-0.00013000000000000002,-0.00033,-0.00041,-8e-05,-2.9999999999999997e-05,-2.9999999999999997e-05,5
22151,23107,-0.00015,-0.00015,-0.00013000000000000002,-0.00033,-0.00041,-8e-05,-2.9999999999999997e-05,-2.9999999999999997e-05,5
22152,23108,-0.00015,-0.00015,-0.00013000000000000002,-0.00033,-0.00041,-8e-05,-2.9999999999999997e-05,-2.9999999999999997e-05,5
22153,23109,-0.00015,-0.00015,-0.00013000000000000002,-0.00033,-0.00041,-8e-05,-2.9999999999999997e-05,-2.9999999999999997e-05,5
22154,23110,-0.00015,-0.00015,-0.00013000000000000002,-0.00033,-0.00041,-8e-05,-2.9999999999999997e-05,-2.9999999999999997e-05,5
22155,23111,-0.00015,-0.00015,-0.00013000000000000002,-0.00033,-0.00041,-8e-05,-2.9999999999999997e-05,-2.9999999999999997e-05,5
22156,23112,-0.00015,-0.00015,-0.00013000000000000002,-0.00033,-0.00041,-8e-05,-2.9999999999999997e-05,-2.9999999999999997e-05,5
22157,23113,-0.00015,-0.00015,-0.00013000000000000002,-0.00033,-0.00041,-8e-05,-2.9999999999999997e-05,-2.9999999999999997e-05,5
22158,23114,-0.00015,-0.00015,-0.00013000000000000002,-0.00033,-0.00041,-8e-05,-2.9999999999999997e-05,-2.9999999999999997e-05,5
22159,23115,-0.00015,-0.00015,-0.00013000000000000002,-0.00033,-0.00041,-8e-05,-2.9999999999999997e-05,-2.9999999999999997e-05,5
22160,23116,4e-05,-1e-05,-2e-05,2.9999999999999997e-05,-8e-05,5.9999999999999995e-05,-1e-05,8e-05,5
22161,23117,4e-05,-1e-05,-2e-05,2.9999999999999997e-05,-8e-05,5.9999999999999995e-05,-1e-05,8e-05,5
22162,23118,1e-05,9e-05,4e-05,-0.00018999999999999998,-0.00011999999999999999,-4e-05,1e-05,0.00011,5
22163,23119,1e-05,9e-05,4e-05,-0.00018999999999999998,-0.00011999999999999999,-4e-05,1e-05,0.00011,5
22164,23120,1e-05,9e-05,4e-05,-0.00018999999999999998,-0.00011999999999999999,-4e-05,1e-05,0.00011,5
22165,23121,1e-05,9e-05,4e-05,-0.00018999999999999998,-0.00011999999999999999,-4e-05,1e-05,0.00011,5
22166,23122,1e-05,9e-05,4e-05,-0.00018999999999999998,-0.00011999999999999999,-4e-05,1e-05,0.00011,5
22167,23123,1e-05,9e-05,4e-05,-0.00018999999999999998,-0.00011999999999999999,-4e-05,1e-05,0.00011,5
22168,23124,1e-05,9e-05,4e-05,-0.00018999999999999998,-0.00011999999999999999,-4e-05,1e-05,0.00011,5
22169,23125,1e-05,9e-05,4e-05,-0.00018999999999999998,-0.00011999999999999999,-4e-05,1e-05,0.00011,5
22170,23126,1e-05,9e-05,4e-05,-0.00018999999999999998,-0.00011999999999999999,-4e-05,1e-05,0.00011,5
22171,23127,1e-05,9e-05,4e-05,-0.00018999999999999998,-0.00011999999999999999,-4e-05,1e-05,0.00011,5
22172,23128,1e-05,9e-05,4e-05,-0.00018999999999999998,-0.00011999999999999999,-4e-05,1e-05,0.00011,5
22173,23129,1e-05,9e-05,4e-05,-0.00018999999999999998,-0.00011999999999999999,-4e-05,1e-05,0.00011,5
22174,23130,0.0,-5e-05,8e-05,0.00053,-7e-05,0.0001,5e-05,1e-05,5
22175,23131,0.0,-5e-05,8e-05,0.00053,-7e-05,0.0001,5e-05,1e-05,5
22176,23132,0.0,-5e-05,8e-05,0.00053,-7e-05,0.0001,5e-05,1e-05,5
22177,23133,0.0,-5e-05,8e-05,0.00053,-7e-05,0.0001,5e-05,1e-05,5
22178,23134,0.0,-5e-05,8e-05,0.00053,-7e-05,0.0001,5e-05,1e-05,5
22179,23135,0.0,-5e-05,8e-05,0.00053,-7e-05,0.0001,5e-05,1e-05,5
22180,23136,0.0,-5e-05,8e-05,0.00053,-7e-05,0.0001,5e-05,1e-05,5
22181,23139,4e-05,-8e-05,-8e-05,-4e-05,0.00011,1e-05,-2e-05,4e-05,5
22182,23141,4e-05,-8e-05,-8e-05,-4e-05,0.00011,1e-05,-2e-05,4e-05,5
22183,23142,4e-05,-8e-05,-8e-05,-4e-05,0.00011,1e-05,-2e-05,4e-05,5
22184,23143,4e-05,-8e-05,-8e-05,-4e-05,0.00011,1e-05,-2e-05,4e-05,5
22185,23144,4e-05,-8e-05,-8e-05,-4e-05,0.00011,1e-05,-2e-05,4e-05,5
22186,23145,4e-05,-8e-05,-8e-05,-4e-05,0.00011,1e-05,-2e-05,4e-05,5
22187,23146,4e-05,-8e-05,-8e-05,-4e-05,0.00011,1e-05,-2e-05,4e-05,5
22188,23147,4e-05,-8e-05,-8e-05,-4e-05,0.00011,1e-05,-2e-05,4e-05,5
22189,23148,4e-05,-8e-05,-8e-05,-4e-05,0.00011,1e-05,-2e-05,4e-05,5
22190,23149,4e-05,-8e-05,-8e-05,-4e-05,0.00011,1e-05,-2e-05,4e-05,5
22191,23150,4e-05,-8e-05,-8e-05,-4e-05,0.00011,1e-05,-2e-05,4e-05,5
22192,23151,4e-05,-8e-05,-8e-05,-4e-05,0.00011,1e-05,-2e-05,4e-05,5
22193,23152,4e-05,-8e-05,-8e-05,-4e-05,0.00011,1e-05,-2e-05,4e-05,5
22194,23153,4e-05,-8e-05,-8e-05,-4e-05,0.00011,1e-05,-2e-05,4e-05,5
22195,23154,7e-05,0.0,-4e-05,-2e-05,9e-05,-5.9999999999999995e-05,-2e-05,1e-05,5
22196,23155,-0.00011,1e-05,0.0,-0.00013000000000000002,-0.00011,2e-05,-1e-05,2.9999999999999997e-05,5
22197,23156,-2.9999999999999997e-05,-4e-05,0.0,0.00028,0.00022999999999999998,7e-05,2.9999999999999997e-05,1e-05,5
22198,23157,-2.9999999999999997e-05,-4e-05,0.0,0.00028,0.00022999999999999998,7e-05,2.9999999999999997e-05,1e-05,5
22199,23158,-2.9999999999999997e-05,-4e-05,0.0,0.00028,0.00022999999999999998,7e-05,2.9999999999999997e-05,1e-05,5
22200,23159,-2.9999999999999997e-05,-4e-05,0.0,0.00028,0.00022999999999999998,7e-05,2.9999999999999997e-05,1e-05,5
22201,23160,-2.9999999999999997e-05,-4e-05,0.0,0.00028,0.00022999999999999998,7e-05,2.9999999999999997e-05,1e-05,5
22202,23161,-2.9999999999999997e-05,-4e-05,0.0,0.00028,0.00022999999999999998,7e-05,2.9999999999999997e-05,1e-05,5
22203,23162,-2.9999999999999997e-05,-4e-05,0.0,0.00028,0.00022999999999999998,7e-05,2.9999999999999997e-05,1e-05,5
22204,23163,-2.9999999999999997e-05,-4e-05,0.0,0.00028,0.00022999999999999998,7e-05,2.9999999999999997e-05,1e-05,5
22205,23164,-2.9999999999999997e-05,-4e-05,0.0,0.00028,0.00022999999999999998,7e-05,2.9999999999999997e-05,1e-05,5
22206,23165,-2.9999999999999997e-05,-4e-05,0.0,0.00028,0.00022999999999999998,7e-05,2.9999999999999997e-05,1e-05,5
22207,23166,-2.9999999999999997e-05,-4e-05,0.0,0.00028,0.00022999999999999998,7e-05,2.9999999999999997e-05,1e-05,5
22208,23167,-2.9999999999999997e-05,-4e-05,0.0,0.00028,0.00022999999999999998,7e-05,2.9999999999999997e-05,1e-05,5
22209,23168,-2.9999999999999997e-05,-4e-05,0.0,0.00028,0.00022999999999999998,7e-05,2.9999999999999997e-05,1e-05,5
22210,23169,-2.9999999999999997e-05,-4e-05,0.0,0.00028,0.00022999999999999998,7e-05,2.9999999999999997e-05,1e-05,5
22211,23170,-2.9999999999999997e-05,-4e-05,0.0,0.00028,0.00022999999999999998,7e-05,2.9999999999999997e-05,1e-05,5
22212,23171,-2.9999999999999997e-05,-4e-05,0.0,0.00028,0.00022999999999999998,7e-05,2.9999999999999997e-05,1e-05,5
22213,23172,-2.9999999999999997e-05,-4e-05,0.0,0.00028,0.00022999999999999998,7e-05,2.9999999999999997e-05,1e-05,5
22214,23173,-2.9999999999999997e-05,-4e-05,0.0,0.00028,0.00022999999999999998,7e-05,2.9999999999999997e-05,1e-05,5
22215,23174,-2.9999999999999997e-05,-4e-05,0.0,0.00028,0.00022999999999999998,7e-05,2.9999999999999997e-05,1e-05,5
22216,23175,-2.9999999999999997e-05,-4e-05,0.0,0.00028,0.00022999999999999998,7e-05,2.9999999999999997e-05,1e-05,5
22217,23176,-8e-05,0.0,5e-05,5e-05,0.00023999999999999998,4e-05,0.0,-2e-05,5
22218,23177,-8e-05,0.0,5e-05,5e-05,0.00023999999999999998,4e-05,0.0,-2e-05,5
22219,23178,0.00011999999999999999,2.9999999999999997e-05,-2e-05,-0.00011,-0.00015,-2e-05,-2.9999999999999997e-05,2e-05,5
22220,23179,0.00011999999999999999,2.9999999999999997e-05,-2e-05,-0.00011,-0.00015,-2e-05,-2.9999999999999997e-05,2e-05,5
22221,23180,0.00011999999999999999,2.9999999999999997e-05,-2e-05,-0.00011,-0.00015,-2e-05,-2.9999999999999997e-05,2e-05,5
22222,23181,0.00011999999999999999,2.9999999999999997e-05,-2e-05,-0.00011,-0.00015,-2e-05,-2.9999999999999997e-05,2e-05,5
22223,23182,0.00011999999999999999,2.9999999999999997e-05,-2e-05,-0.00011,-0.00015,-2e-05,-2.9999999999999997e-05,2e-05,5
22224,23183,0.00011999999999999999,2.9999999999999997e-05,-2e-05,-0.00011,-0.00015,-2e-05,-2.9999999999999997e-05,2e-05,5
22225,23184,0.00011999999999999999,2.9999999999999997e-05,-2e-05,-0.00011,-0.00015,-2e-05,-2.9999999999999997e-05,2e-05,5
22226,23185,0.00011999999999999999,2.9999999999999997e-05,-2e-05,-0.00011,-0.00015,-2e-05,-2.9999999999999997e-05,2e-05,5
22227,23186,0.00011999999999999999,2.9999999999999997e-05,-2e-05,-0.00011,-0.00015,-2e-05,-2.9999999999999997e-05,2e-05,5
22228,23188,0.00011999999999999999,2.9999999999999997e-05,-2e-05,-0.00011,-0.00015,-2e-05,-2.9999999999999997e-05,2e-05,5
22229,23190,0.00011999999999999999,2.9999999999999997e-05,-2e-05,-0.00011,-0.00015,-2e-05,-2.9999999999999997e-05,2e-05,5
22230,23191,5.9999999999999995e-05,5e-05,0.00014,0.00028,0.00027,-2e-05,-2.9999999999999997e-05,-5e-05,5
22231,23192,5.9999999999999995e-05,5e-05,0.00014,0.00028,0.00027,-2e-05,-2.9999999999999997e-05,-5e-05,5
22232,23193,5.9999999999999995e-05,5e-05,0.00014,0.00028,0.00027,-2e-05,-2.9999999999999997e-05,-5e-05,5
22233,23194,5.9999999999999995e-05,5e-05,0.00014,0.00028,0.00027,-2e-05,-2.9999999999999997e-05,-5e-05,5
22234,23195,5.9999999999999995e-05,5e-05,0.00014,0.00028,0.00027,-2e-05,-2.9999999999999997e-05,-5e-05,5
22235,23196,5.9999999999999995e-05,5e-05,0.00014,0.00028,0.00027,-2e-05,-2.9999999999999997e-05,-5e-05,5
22236,23197,5.9999999999999995e-05,5e-05,0.00014,0.00028,0.00027,-2e-05,-2.9999999999999997e-05,-5e-05,5
22237,23198,5.9999999999999995e-05,5e-05,0.00014,0.00028,0.00027,-2e-05,-2.9999999999999997e-05,-5e-05,5
22238,23199,-5.9999999999999995e-05,-5e-05,-4e-05,0.00014,0.0001,0.0001,2.9999999999999997e-05,-2.9999999999999997e-05,5
22239,23200,-5.9999999999999995e-05,-5e-05,-4e-05,0.00014,0.0001,0.0001,2.9999999999999997e-05,-2.9999999999999997e-05,5
22240,23201,-5.9999999999999995e-05,-5e-05,-4e-05,0.00014,0.0001,0.0001,2.9999999999999997e-05,-2.9999999999999997e-05,5
22241,23202,-5.9999999999999995e-05,-5e-05,-4e-05,0.00014,0.0001,0.0001,2.9999999999999997e-05,-2.9999999999999997e-05,5
22242,23203,-5.9999999999999995e-05,-5e-05,-4e-05,0.00014,0.0001,0.0001,2.9999999999999997e-05,-2.9999999999999997e-05,5
22243,23204,-5.9999999999999995e-05,-5e-05,-4e-05,0.00014,0.0001,0.0001,2.9999999999999997e-05,-2.9999999999999997e-05,5
22244,23205,-5.9999999999999995e-05,-5e-05,-4e-05,0.00014,0.0001,0.0001,2.9999999999999997e-05,-2.9999999999999997e-05,5
22245,23206,-5.9999999999999995e-05,-5e-05,-4e-05,0.00014,0.0001,0.0001,2.9999999999999997e-05,-2.9999999999999997e-05,5
22246,23207,-5.9999999999999995e-05,-5e-05,-4e-05,0.00014,0.0001,0.0001,2.9999999999999997e-05,-2.9999999999999997e-05,5
22247,23208,-5.9999999999999995e-05,-5e-05,-4e-05,0.00014,0.0001,0.0001,2.9999999999999997e-05,-2.9999999999999997e-05,5
22248,23209,-5.9999999999999995e-05,-5e-05,-4e-05,0.00014,0.0001,0.0001,2.9999999999999997e-05,-2.9999999999999997e-05,5
22249,23210,-5.9999999999999995e-05,-5e-05,-4e-05,0.00014,0.0001,0.0001,2.9999999999999997e-05,-2.9999999999999997e-05,5
22250,23211,-5.9999999999999995e-05,-5e-05,-4e-05,0.00014,0.0001,0.0001,2.9999999999999997e-05,-2.9999999999999997e-05,5
22251,23212,-5.9999999999999995e-05,-5e-05,-4e-05,0.00014,0.0001,0.0001,2.9999999999999997e-05,-2.9999999999999997e-05,5
22252,23213,-5.9999999999999995e-05,-5e-05,-4e-05,0.00014,0.0001,0.0001,2.9999999999999997e-05,-2.9999999999999997e-05,5
22253,23214,0.0,-2e-05,-9e-05,-0.00015,0.00014,-5e-05,-2e-05,-1e-05,5
22254,23215,4e-05,-2.9999999999999997e-05,2e-05,9e-05,0.00011,-7e-05,-4e-05,-2.9999999999999997e-05,5
22255,23216,4e-05,-2.9999999999999997e-05,2e-05,9e-05,0.00011,-7e-05,-4e-05,-2.9999999999999997e-05,5
22256,23217,4e-05,-2.9999999999999997e-05,2e-05,9e-05,0.00011,-7e-05,-4e-05,-2.9999999999999997e-05,5
22257,23218,4e-05,-2.9999999999999997e-05,2e-05,9e-05,0.00011,-7e-05,-4e-05,-2.9999999999999997e-05,5
22258,23219,4e-05,-2.9999999999999997e-05,2e-05,9e-05,0.00011,-7e-05,-4e-05,-2.9999999999999997e-05,5
22259,23220,4e-05,-2.9999999999999997e-05,2e-05,9e-05,0.00011,-7e-05,-4e-05,-2.9999999999999997e-05,5
22260,23221,4e-05,-2.9999999999999997e-05,2e-05,9e-05,0.00011,-7e-05,-4e-05,-2.9999999999999997e-05,5
22261,23222,4e-05,-2.9999999999999997e-05,2e-05,9e-05,0.00011,-7e-05,-4e-05,-2.9999999999999997e-05,5
22262,23223,4e-05,-2.9999999999999997e-05,2e-05,9e-05,0.00011,-7e-05,-4e-05,-2.9999999999999997e-05,5
22263,23224,4e-05,-2.9999999999999997e-05,2e-05,9e-05,0.00011,-7e-05,-4e-05,-2.9999999999999997e-05,5
22264,23225,4e-05,-2.9999999999999997e-05,2e-05,9e-05,0.00011,-7e-05,-4e-05,-2.9999999999999997e-05,5
22265,23226,4e-05,-2.9999999999999997e-05,2e-05,9e-05,0.00011,-7e-05,-4e-05,-2.9999999999999997e-05,5
22266,23227,4e-05,-2.9999999999999997e-05,2e-05,9e-05,0.00011,-7e-05,-4e-05,-2.9999999999999997e-05,5
22267,23228,4e-05,-2.9999999999999997e-05,2e-05,9e-05,0.00011,-7e-05,-4e-05,-2.9999999999999997e-05,5
22268,23229,4e-05,-2.9999999999999997e-05,2e-05,9e-05,0.00011,-7e-05,-4e-05,-2.9999999999999997e-05,5
22269,23230,4e-05,-2.9999999999999997e-05,2e-05,9e-05,0.00011,-7e-05,-4e-05,-2.9999999999999997e-05,5
22270,23231,4e-05,-2.9999999999999997e-05,2e-05,9e-05,0.00011,-7e-05,-4e-05,-2.9999999999999997e-05,5
22271,23232,4e-05,-2.9999999999999997e-05,2e-05,9e-05,0.00011,-7e-05,-4e-05,-2.9999999999999997e-05,5
22272,23233,4e-05,-2.9999999999999997e-05,2e-05,9e-05,0.00011,-7e-05,-4e-05,-2.9999999999999997e-05,5
22273,23234,4e-05,-2.9999999999999997e-05,2e-05,9e-05,0.00011,-7e-05,-4e-05,-2.9999999999999997e-05,5
22274,23235,4e-05,-2.9999999999999997e-05,2e-05,9e-05,0.00011,-7e-05,-4e-05,-2.9999999999999997e-05,5
22275,23236,-0.00014,-4e-05,-2e-05,-0.0001,0.00014,-2e-05,-1e-05,-5e-05,5
22276,23239,0.00013000000000000002,7e-05,0.0,-0.00014,-1e-05,-2e-05,2e-05,2e-05,5
22277,23240,0.00013000000000000002,7e-05,0.0,-0.00014,-1e-05,-2e-05,2e-05,2e-05,5
22278,23241,0.00013000000000000002,7e-05,0.0,-0.00014,-1e-05,-2e-05,2e-05,2e-05,5
22279,23242,0.00013000000000000002,7e-05,0.0,-0.00014,-1e-05,-2e-05,2e-05,2e-05,5
22280,23243,0.00013000000000000002,7e-05,0.0,-0.00014,-1e-05,-2e-05,2e-05,2e-05,5
22281,23244,0.00013000000000000002,7e-05,0.0,-0.00014,-1e-05,-2e-05,2e-05,2e-05,5
22282,23245,0.00013000000000000002,7e-05,0.0,-0.00014,-1e-05,-2e-05,2e-05,2e-05,5
22283,23246,0.00013000000000000002,7e-05,0.0,-0.00014,-1e-05,-2e-05,2e-05,2e-05,5
22284,23247,0.00013000000000000002,7e-05,0.0,-0.00014,-1e-05,-2e-05,2e-05,2e-05,5
22285,23248,0.00013000000000000002,7e-05,0.0,-0.00014,-1e-05,-2e-05,2e-05,2e-05,5
22286,23249,0.00013000000000000002,7e-05,0.0,-0.00014,-1e-05,-2e-05,2e-05,2e-05,5
22287,23250,-0.00022,-5.9999999999999995e-05,-5e-05,-2.9999999999999997e-05,1e-05,-1e-05,-2.9999999999999997e-05,-0.00011,5
22288,23251,-0.00022,-5.9999999999999995e-05,-5e-05,-2.9999999999999997e-05,1e-05,-1e-05,-2.9999999999999997e-05,-0.00011,5
22289,23252,-0.00022,-5.9999999999999995e-05,-5e-05,-2.9999999999999997e-05,1e-05,-1e-05,-2.9999999999999997e-05,-0.00011,5
22290,23253,-0.00022,-5.9999999999999995e-05,-5e-05,-2.9999999999999997e-05,1e-05,-1e-05,-2.9999999999999997e-05,-0.00011,5
22291,23254,-0.00022,-5.9999999999999995e-05,-5e-05,-2.9999999999999997e-05,1e-05,-1e-05,-2.9999999999999997e-05,-0.00011,5
22292,23255,-0.00022,-5.9999999999999995e-05,-5e-05,-2.9999999999999997e-05,1e-05,-1e-05,-2.9999999999999997e-05,-0.00011,5
22293,23256,-0.00022,-5.9999999999999995e-05,-5e-05,-2.9999999999999997e-05,1e-05,-1e-05,-2.9999999999999997e-05,-0.00011,5
22294,23257,-0.00022,-5.9999999999999995e-05,-5e-05,-2.9999999999999997e-05,1e-05,-1e-05,-2.9999999999999997e-05,-0.00011,5
22295,23258,-0.00022,-5.9999999999999995e-05,-5e-05,-2.9999999999999997e-05,1e-05,-1e-05,-2.9999999999999997e-05,-0.00011,5
22296,23259,2e-05,1e-05,-2.9999999999999997e-05,-5e-05,-5e-05,-5.9999999999999995e-05,-1e-05,-1e-05,5
22297,23260,2e-05,1e-05,-2.9999999999999997e-05,-5e-05,-5e-05,-5.9999999999999995e-05,-1e-05,-1e-05,5
22298,23261,2e-05,1e-05,-2.9999999999999997e-05,-5e-05,-5e-05,-5.9999999999999995e-05,-1e-05,-1e-05,5
22299,23262,2e-05,1e-05,-2.9999999999999997e-05,-5e-05,-5e-05,-5.9999999999999995e-05,-1e-05,-1e-05,5
22300,23263,2e-05,1e-05,-2.9999999999999997e-05,-5e-05,-5e-05,-5.9999999999999995e-05,-1e-05,-1e-05,5
22301,23264,2e-05,1e-05,-2.9999999999999997e-05,-5e-05,-5e-05,-5.9999999999999995e-05,-1e-05,-1e-05,5
22302,23265,2e-05,1e-05,-2.9999999999999997e-05,-5e-05,-5e-05,-5.9999999999999995e-05,-1e-05,-1e-05,5
22303,23266,2e-05,1e-05,-2.9999999999999997e-05,-5e-05,-5e-05,-5.9999999999999995e-05,-1e-05,-1e-05,5
22304,23267,2e-05,1e-05,-2.9999999999999997e-05,-5e-05,-5e-05,-5.9999999999999995e-05,-1e-05,-1e-05,5
22305,23268,2e-05,1e-05,-2.9999999999999997e-05,-5e-05,-5e-05,-5.9999999999999995e-05,-1e-05,-1e-05,5
22306,23269,2e-05,1e-05,-2.9999999999999997e-05,-5e-05,-5e-05,-5.9999999999999995e-05,-1e-05,-1e-05,5
22307,23270,2e-05,1e-05,-2.9999999999999997e-05,-5e-05,-5e-05,-5.9999999999999995e-05,-1e-05,-1e-05,5
22308,23271,2e-05,1e-05,-2.9999999999999997e-05,-5e-05,-5e-05,-5.9999999999999995e-05,-1e-05,-1e-05,5
22309,23272,2e-05,1e-05,-2.9999999999999997e-05,-5e-05,-5e-05,-5.9999999999999995e-05,-1e-05,-1e-05,5
22310,23273,2e-05,1e-05,-2.9999999999999997e-05,-5e-05,-5e-05,-5.9999999999999995e-05,-1e-05,-1e-05,5
22311,23274,7e-05,0.0,-8e-05,-0.00018,-0.00022999999999999998,-5.9999999999999995e-05,-2.9999999999999997e-05,2.9999999999999997e-05,5
22312,23275,-5e-05,1e-05,5e-05,5e-05,5.9999999999999995e-05,2e-05,-2.9999999999999997e-05,-2e-05,5
22313,23276,-5e-05,1e-05,5e-05,5e-05,5.9999999999999995e-05,2e-05,-2.9999999999999997e-05,-2e-05,5
22314,23277,-5e-05,1e-05,5e-05,5e-05,5.9999999999999995e-05,2e-05,-2.9999999999999997e-05,-2e-05,5
22315,23278,-5e-05,1e-05,5e-05,5e-05,5.9999999999999995e-05,2e-05,-2.9999999999999997e-05,-2e-05,5
22316,23279,-5e-05,1e-05,5e-05,5e-05,5.9999999999999995e-05,2e-05,-2.9999999999999997e-05,-2e-05,5
22317,23280,-5e-05,1e-05,5e-05,5e-05,5.9999999999999995e-05,2e-05,-2.9999999999999997e-05,-2e-05,5
22318,23281,-5e-05,1e-05,5e-05,5e-05,5.9999999999999995e-05,2e-05,-2.9999999999999997e-05,-2e-05,5
22319,23282,-5e-05,1e-05,5e-05,5e-05,5.9999999999999995e-05,2e-05,-2.9999999999999997e-05,-2e-05,5
22320,23283,-5e-05,1e-05,5e-05,5e-05,5.9999999999999995e-05,2e-05,-2.9999999999999997e-05,-2e-05,5
22321,23284,-5e-05,1e-05,5e-05,5e-05,5.9999999999999995e-05,2e-05,-2.9999999999999997e-05,-2e-05,5
22322,23285,-5e-05,1e-05,5e-05,5e-05,5.9999999999999995e-05,2e-05,-2.9999999999999997e-05,-2e-05,5
22323,23286,-5e-05,1e-05,5e-05,5e-05,5.9999999999999995e-05,2e-05,-2.9999999999999997e-05,-2e-05,5
22324,23289,-5e-05,1e-05,5e-05,5e-05,5.9999999999999995e-05,2e-05,-2.9999999999999997e-05,-2e-05,5
22325,23290,-5e-05,1e-05,5e-05,5e-05,5.9999999999999995e-05,2e-05,-2.9999999999999997e-05,-2e-05,5
22326,23291,-5e-05,1e-05,5e-05,5e-05,5.9999999999999995e-05,2e-05,-2.9999999999999997e-05,-2e-05,5
22327,23292,-5e-05,1e-05,5e-05,5e-05,5.9999999999999995e-05,2e-05,-2.9999999999999997e-05,-2e-05,5
22328,23293,-5e-05,1e-05,5e-05,5e-05,5.9999999999999995e-05,2e-05,-2.9999999999999997e-05,-2e-05,5
22329,23294,-5e-05,1e-05,5e-05,5e-05,5.9999999999999995e-05,2e-05,-2.9999999999999997e-05,-2e-05,5
22330,23295,-5e-05,1e-05,5e-05,5e-05,5.9999999999999995e-05,2e-05,-2.9999999999999997e-05,-2e-05,5
22331,23296,7e-05,1e-05,-1e-05,-0.00016,-0.00026000000000000003,-7e-05,-2.9999999999999997e-05,1e-05,5
22332,23297,7e-05,1e-05,-1e-05,-0.00016,-0.00026000000000000003,-7e-05,-2.9999999999999997e-05,1e-05,5
22333,23298,9e-05,0.00011,-1e-05,-0.00047999999999999996,-0.00047000000000000004,-7e-05,2e-05,4e-05,5
22334,23299,9e-05,0.00011,-1e-05,-0.00047999999999999996,-0.00047000000000000004,-7e-05,2e-05,4e-05,5
22335,23300,9e-05,0.00011,-1e-05,-0.00047999999999999996,-0.00047000000000000004,-7e-05,2e-05,4e-05,5
22336,23301,9e-05,0.00011,-1e-05,-0.00047999999999999996,-0.00047000000000000004,-7e-05,2e-05,4e-05,5
22337,23302,9e-05,0.00011,-1e-05,-0.00047999999999999996,-0.00047000000000000004,-7e-05,2e-05,4e-05,5
22338,23303,9e-05,0.00011,-1e-05,-0.00047999999999999996,-0.00047000000000000004,-7e-05,2e-05,4e-05,5
22339,23304,9e-05,0.00011,-1e-05,-0.00047999999999999996,-0.00047000000000000004,-7e-05,2e-05,4e-05,5
22340,23305,9e-05,0.00011,-1e-05,-0.00047999999999999996,-0.00047000000000000004,-7e-05,2e-05,4e-05,5
22341,23306,9e-05,0.00011,-1e-05,-0.00047999999999999996,-0.00047000000000000004,-7e-05,2e-05,4e-05,5
22342,23307,9e-05,0.00011,-1e-05,-0.00047999999999999996,-0.00047000000000000004,-7e-05,2e-05,4e-05,5
22343,23308,9e-05,0.00011,-1e-05,-0.00047999999999999996,-0.00047000000000000004,-7e-05,2e-05,4e-05,5
22344,23309,9e-05,0.00011,-1e-05,-0.00047999999999999996,-0.00047000000000000004,-7e-05,2e-05,4e-05,5
22345,23310,-5e-05,-0.0001,-5.9999999999999995e-05,0.00023999999999999998,0.00016999999999999999,1e-05,-2e-05,-2.9999999999999997e-05,5
22346,23311,-5e-05,-0.0001,-5.9999999999999995e-05,0.00023999999999999998,0.00016999999999999999,1e-05,-2e-05,-2.9999999999999997e-05,5
22347,23312,-5e-05,-0.0001,-5.9999999999999995e-05,0.00023999999999999998,0.00016999999999999999,1e-05,-2e-05,-2.9999999999999997e-05,5
22348,23313,-5e-05,-0.0001,-5.9999999999999995e-05,0.00023999999999999998,0.00016999999999999999,1e-05,-2e-05,-2.9999999999999997e-05,5
22349,23314,-5e-05,-0.0001,-5.9999999999999995e-05,0.00023999999999999998,0.00016999999999999999,1e-05,-2e-05,-2.9999999999999997e-05,5
22350,23315,-5e-05,-0.0001,-5.9999999999999995e-05,0.00023999999999999998,0.00016999999999999999,1e-05,-2e-05,-2.9999999999999997e-05,5
22351,23316,-5e-05,-0.0001,-5.9999999999999995e-05,0.00023999999999999998,0.00016999999999999999,1e-05,-2e-05,-2.9999999999999997e-05,5
22352,23317,-5e-05,-0.0001,-5.9999999999999995e-05,0.00023999999999999998,0.00016999999999999999,1e-05,-2e-05,-2.9999999999999997e-05,5
22353,23318,-5e-05,-0.0001,-5.9999999999999995e-05,0.00023999999999999998,0.00016999999999999999,1e-05,-2e-05,-2.9999999999999997e-05,5
22354,23319,1e-05,0.0,-1e-05,-0.00043,-0.00014,-2e-05,-5e-05,-5e-05,5
22355,23320,1e-05,0.0,-1e-05,-0.00043,-0.00014,-2e-05,-5e-05,-5e-05,5
22356,23321,1e-05,0.0,-1e-05,-0.00043,-0.00014,-2e-05,-5e-05,-5e-05,5
22357,23322,1e-05,0.0,-1e-05,-0.00043,-0.00014,-2e-05,-5e-05,-5e-05,5
22358,23323,1e-05,0.0,-1e-05,-0.00043,-0.00014,-2e-05,-5e-05,-5e-05,5
22359,23324,1e-05,0.0,-1e-05,-0.00043,-0.00014,-2e-05,-5e-05,-5e-05,5
22360,23325,1e-05,0.0,-1e-05,-0.00043,-0.00014,-2e-05,-5e-05,-5e-05,5
22361,23326,1e-05,0.0,-1e-05,-0.00043,-0.00014,-2e-05,-5e-05,-5e-05,5
22362,23327,1e-05,0.0,-1e-05,-0.00043,-0.00014,-2e-05,-5e-05,-5e-05,5
22363,23328,1e-05,0.0,-1e-05,-0.00043,-0.00014,-2e-05,-5e-05,-5e-05,5
22364,23329,1e-05,0.0,-1e-05,-0.00043,-0.00014,-2e-05,-5e-05,-5e-05,5
22365,23330,1e-05,0.0,-1e-05,-0.00043,-0.00014,-2e-05,-5e-05,-5e-05,5
22366,23331,1e-05,0.0,-1e-05,-0.00043,-0.00014,-2e-05,-5e-05,-5e-05,5
22367,23332,1e-05,0.0,-1e-05,-0.00043,-0.00014,-2e-05,-5e-05,-5e-05,5
22368,23333,1e-05,0.0,-1e-05,-0.00043,-0.00014,-2e-05,-5e-05,-5e-05,5
