,time,channel1,channel2,channel3,channel4,channel5,channel6,channel7,channel8,class
16629,17502,0.00021,-0.00023999999999999998,0.00033,0.0010400000000000001,0.0007099999999999999,0.00022999999999999998,2.9999999999999997e-05,-2e-05,5
16630,17503,0.00021,-0.00023999999999999998,0.00033,0.0010400000000000001,0.0007099999999999999,0.00022999999999999998,2.9999999999999997e-05,-2e-05,5
16631,17504,0.00021,-0.00023999999999999998,0.00033,0.0010400000000000001,0.0007099999999999999,0.00022999999999999998,2.9999999999999997e-05,-2e-05,5
16632,17505,0.00021,-0.00023999999999999998,0.00033,0.0010400000000000001,0.0007099999999999999,0.00022999999999999998,2.9999999999999997e-05,-2e-05,5
16633,17506,0.00021,-0.00023999999999999998,0.00033,0.0010400000000000001,0.0007099999999999999,0.00022999999999999998,2.9999999999999997e-05,-2e-05,5
16634,17507,0.00021,-0.00023999999999999998,0.00033,0.0010400000000000001,0.0007099999999999999,0.00022999999999999998,2.9999999999999997e-05,-2e-05,5
16635,17508,0.00021,-0.00023999999999999998,0.00033,0.0010400000000000001,0.0007099999999999999,0.00022999999999999998,2.9999999999999997e-05,-2e-05,5
16636,17509,0.00021,-0.00023999999999999998,0.00033,0.0010400000000000001,0.0007099999999999999,0.00022999999999999998,2.9999999999999997e-05,-2e-05,5
16637,17510,0.00021,-0.00023999999999999998,0.00033,0.0010400000000000001,0.0007099999999999999,0.00022999999999999998,2.9999999999999997e-05,-2e-05,5
16638,17511,-0.0003,-0.00039,-0.00041,-0.00037999999999999997,-0.00031,-0.0001,-4e-05,-7e-05,5
16639,17512,-0.0003,-0.00039,-0.00041,-0.00037999999999999997,-0.00031,-0.0001,-4e-05,-7e-05,5
16640,17513,-0.0003,-0.00039,-0.00041,-0.00037999999999999997,-0.00031,-0.0001,-4e-05,-7e-05,5
16641,17514,-0.0003,-0.00039,-0.00041,-0.00037999999999999997,-0.00031,-0.0001,-4e-05,-7e-05,5
16642,17515,-0.0003,-0.00039,-0.00041,-0.00037999999999999997,-0.00031,-0.0001,-4e-05,-7e-05,5
16643,17516,-0.0003,-0.00039,-0.00041,-0.00037999999999999997,-0.00031,-0.0001,-4e-05,-7e-05,5
16644,17517,-0.0003,-0.00039,-0.00041,-0.00037999999999999997,-0.00031,-0.0001,-4e-05,-7e-05,5
16645,17518,-0.0003,-0.00039,-0.00041,-0.00037999999999999997,-0.00031,-0.0001,-4e-05,-7e-05,5
16646,17519,-0.00018,-0.0002,-0.00018999999999999998,-0.00054,-0.0005,2.9999999999999997e-05,2e-05,-2.9999999999999997e-05,5
16647,17520,-0.00018,-0.0002,-0.00018999999999999998,-0.00054,-0.0005,2.9999999999999997e-05,2e-05,-2.9999999999999997e-05,5
16648,17521,-0.00018,-0.0002,-0.00018999999999999998,-0.00054,-0.0005,2.9999999999999997e-05,2e-05,-2.9999999999999997e-05,5
16649,17522,-0.00018,-0.0002,-0.00018999999999999998,-0.00054,-0.0005,2.9999999999999997e-05,2e-05,-2.9999999999999997e-05,5
16650,17523,-0.00018,-0.0002,-0.00018999999999999998,-0.00054,-0.0005,2.9999999999999997e-05,2e-05,-2.9999999999999997e-05,5
16651,17524,-0.00018,-0.0002,-0.00018999999999999998,-0.00054,-0.0005,2.9999999999999997e-05,2e-05,-2.9999999999999997e-05,5
16652,17525,-0.00018,-0.0002,-0.00018999999999999998,-0.00054,-0.0005,2.9999999999999997e-05,2e-05,-2.9999999999999997e-05,5
16653,17526,-0.00018,-0.0002,-0.00018999999999999998,-0.00054,-0.0005,2.9999999999999997e-05,2e-05,-2.9999999999999997e-05,5
16654,17527,-0.00018,-0.0002,-0.00018999999999999998,-0.00054,-0.0005,2.9999999999999997e-05,2e-05,-2.9999999999999997e-05,5
16655,17528,-0.00018,-0.0002,-0.00018999999999999998,-0.00054,-0.0005,2.9999999999999997e-05,2e-05,-2.9999999999999997e-05,5
16656,17529,-0.00018,-0.0002,-0.00018999999999999998,-0.00054,-0.0005,2.9999999999999997e-05,2e-05,-2.9999999999999997e-05,5
16657,17530,-0.00018,-0.0002,-0.00018999999999999998,-0.00054,-0.0005,2.9999999999999997e-05,2e-05,-2.9999999999999997e-05,5
16658,17531,-0.00018,-0.0002,-0.00018999999999999998,-0.00054,-0.0005,2.9999999999999997e-05,2e-05,-2.9999999999999997e-05,5
16659,17532,-0.00018,-0.0002,-0.00018999999999999998,-0.00054,-0.0005,2.9999999999999997e-05,2e-05,-2.9999999999999997e-05,5
16660,17533,-0.00018,-0.0002,-0.00018999999999999998,-0.00054,-0.0005,2.9999999999999997e-05,2e-05,-2.9999999999999997e-05,5
16661,17534,8e-05,-2e-05,-0.00011,-0.00047999999999999996,-0.00078,-5.9999999999999995e-05,-1e-05,1e-05,5
16662,17535,-0.0001,-5e-05,0.00022999999999999998,-0.00029,0.00026000000000000003,-2e-05,2.9999999999999997e-05,-2.9999999999999997e-05,5
16663,17536,-0.00013000000000000002,-0.00016,-0.00031,-0.00039,0.00029,0.0002,7e-05,5.9999999999999995e-05,5
16664,17538,-0.00013000000000000002,-0.00016,-0.00031,-0.00039,0.00029,0.0002,7e-05,5.9999999999999995e-05,5
16665,17539,-0.00013000000000000002,-0.00016,-0.00031,-0.00039,0.00029,0.0002,7e-05,5.9999999999999995e-05,5
16666,17540,-0.00013000000000000002,-0.00016,-0.00031,-0.00039,0.00029,0.0002,7e-05,5.9999999999999995e-05,5
16667,17541,-0.00013000000000000002,-0.00016,-0.00031,-0.00039,0.00029,0.0002,7e-05,5.9999999999999995e-05,5
16668,17542,-0.00013000000000000002,-0.00016,-0.00031,-0.00039,0.00029,0.0002,7e-05,5.9999999999999995e-05,5
16669,17543,-0.00013000000000000002,-0.00016,-0.00031,-0.00039,0.00029,0.0002,7e-05,5.9999999999999995e-05,5
16670,17544,-0.00013000000000000002,-0.00016,-0.00031,-0.00039,0.00029,0.0002,7e-05,5.9999999999999995e-05,5
16671,17545,-0.00013000000000000002,-0.00016,-0.00031,-0.00039,0.00029,0.0002,7e-05,5.9999999999999995e-05,5
16672,17546,-0.00013000000000000002,-0.00016,-0.00031,-0.00039,0.00029,0.0002,7e-05,5.9999999999999995e-05,5
16673,17547,-0.00013000000000000002,-0.00016,-0.00031,-0.00039,0.00029,0.0002,7e-05,5.9999999999999995e-05,5
16674,17548,-0.00013000000000000002,-0.00016,-0.00031,-0.00039,0.00029,0.0002,7e-05,5.9999999999999995e-05,5
16675,17549,-0.00013000000000000002,-0.00016,-0.00031,-0.00039,0.00029,0.0002,7e-05,5.9999999999999995e-05,5
16676,17550,-0.00013000000000000002,-0.00016,-0.00031,-0.00039,0.00029,0.0002,7e-05,5.9999999999999995e-05,5
16677,17551,-0.00013000000000000002,-0.00016,-0.00031,-0.00039,0.00029,0.0002,7e-05,5.9999999999999995e-05,5
16678,17552,-0.00013000000000000002,-0.00016,-0.00031,-0.00039,0.00029,0.0002,7e-05,5.9999999999999995e-05,5
16679,17553,-0.00013000000000000002,-0.00016,-0.00031,-0.00039,0.00029,0.0002,7e-05,5.9999999999999995e-05,5
16680,17554,-0.00013000000000000002,-0.00016,-0.00031,-0.00039,0.00029,0.0002,7e-05,5.9999999999999995e-05,5
16681,17555,-0.00013000000000000002,-0.00016,-0.00031,-0.00039,0.00029,0.0002,7e-05,5.9999999999999995e-05,5
16682,17556,0.00022999999999999998,0.00016,-0.0001,-0.00059,-0.00085,-0.00029,-0.0001,-5.9999999999999995e-05,5
16683,17557,-0.00016999999999999999,-8e-05,-0.00033,0.00033,0.00033999999999999997,-5.9999999999999995e-05,-0.00014,-8e-05,5
16684,17558,-2e-05,0.00021,0.00033999999999999997,0.00047999999999999996,0.0006,0.00028,0.00014,2.9999999999999997e-05,5
16685,17559,-2e-05,0.00021,0.00033999999999999997,0.00047999999999999996,0.0006,0.00028,0.00014,2.9999999999999997e-05,5
16686,17560,-2e-05,0.00021,0.00033999999999999997,0.00047999999999999996,0.0006,0.00028,0.00014,2.9999999999999997e-05,5
16687,17561,-2e-05,0.00021,0.00033999999999999997,0.00047999999999999996,0.0006,0.00028,0.00014,2.9999999999999997e-05,5
16688,17562,-2e-05,0.00021,0.00033999999999999997,0.00047999999999999996,0.0006,0.00028,0.00014,2.9999999999999997e-05,5
16689,17563,-2e-05,0.00021,0.00033999999999999997,0.00047999999999999996,0.0006,0.00028,0.00014,2.9999999999999997e-05,5
16690,17564,-2e-05,0.00021,0.00033999999999999997,0.00047999999999999996,0.0006,0.00028,0.00014,2.9999999999999997e-05,5
16691,17565,-2e-05,0.00021,0.00033999999999999997,0.00047999999999999996,0.0006,0.00028,0.00014,2.9999999999999997e-05,5
16692,17566,-2e-05,0.00021,0.00033999999999999997,0.00047999999999999996,0.0006,0.00028,0.00014,2.9999999999999997e-05,5
16693,17567,-2e-05,0.00021,0.00033999999999999997,0.00047999999999999996,0.0006,0.00028,0.00014,2.9999999999999997e-05,5
16694,17568,-2e-05,0.00021,0.00033999999999999997,0.00047999999999999996,0.0006,0.00028,0.00014,2.9999999999999997e-05,5
16695,17569,-2e-05,0.00021,0.00033999999999999997,0.00047999999999999996,0.0006,0.00028,0.00014,2.9999999999999997e-05,5
16696,17570,-2e-05,0.00021,0.00033999999999999997,0.00047999999999999996,0.0006,0.00028,0.00014,2.9999999999999997e-05,5
16697,17571,7e-05,-7e-05,7e-05,0.00057,0.00062,4e-05,-2e-05,-2.9999999999999997e-05,5
16698,17572,7e-05,-7e-05,7e-05,0.00057,0.00062,4e-05,-2e-05,-2.9999999999999997e-05,5
16699,17573,7e-05,-7e-05,7e-05,0.00057,0.00062,4e-05,-2e-05,-2.9999999999999997e-05,5
16700,17574,7e-05,-7e-05,7e-05,0.00057,0.00062,4e-05,-2e-05,-2.9999999999999997e-05,5
16701,17575,7e-05,-7e-05,7e-05,0.00057,0.00062,4e-05,-2e-05,-2.9999999999999997e-05,5
16702,17576,7e-05,-7e-05,7e-05,0.00057,0.00062,4e-05,-2e-05,-2.9999999999999997e-05,5
16703,17577,7e-05,-7e-05,7e-05,0.00057,0.00062,4e-05,-2e-05,-2.9999999999999997e-05,5
16704,17578,7e-05,-7e-05,7e-05,0.00057,0.00062,4e-05,-2e-05,-2.9999999999999997e-05,5
16705,17579,0.00014,0.00029,0.00022,0.00018,-0.00053,-0.00022999999999999998,-0.0001,1e-05,5
16706,17580,-8e-05,2e-05,0.00022999999999999998,0.0005,0.00047999999999999996,0.00022,2.9999999999999997e-05,-2e-05,5
16707,17581,-8e-05,2e-05,0.00022999999999999998,0.0005,0.00047999999999999996,0.00022,2.9999999999999997e-05,-2e-05,5
16708,17582,-8e-05,2e-05,0.00022999999999999998,0.0005,0.00047999999999999996,0.00022,2.9999999999999997e-05,-2e-05,5
16709,17583,-8e-05,2e-05,0.00022999999999999998,0.0005,0.00047999999999999996,0.00022,2.9999999999999997e-05,-2e-05,5
16710,17584,-8e-05,2e-05,0.00022999999999999998,0.0005,0.00047999999999999996,0.00022,2.9999999999999997e-05,-2e-05,5
16711,17585,-8e-05,2e-05,0.00022999999999999998,0.0005,0.00047999999999999996,0.00022,2.9999999999999997e-05,-2e-05,5
16712,17586,-8e-05,2e-05,0.00022999999999999998,0.0005,0.00047999999999999996,0.00022,2.9999999999999997e-05,-2e-05,5
16713,17588,-8e-05,2e-05,0.00022999999999999998,0.0005,0.00047999999999999996,0.00022,2.9999999999999997e-05,-2e-05,5
16714,17589,-8e-05,2e-05,0.00022999999999999998,0.0005,0.00047999999999999996,0.00022,2.9999999999999997e-05,-2e-05,5
16715,17590,-8e-05,2e-05,0.00022999999999999998,0.0005,0.00047999999999999996,0.00022,2.9999999999999997e-05,-2e-05,5
16716,17591,-8e-05,2e-05,0.00022999999999999998,0.0005,0.00047999999999999996,0.00022,2.9999999999999997e-05,-2e-05,5
16717,17592,-8e-05,2e-05,0.00022999999999999998,0.0005,0.00047999999999999996,0.00022,2.9999999999999997e-05,-2e-05,5
16718,17593,-8e-05,2e-05,0.00022999999999999998,0.0005,0.00047999999999999996,0.00022,2.9999999999999997e-05,-2e-05,5
16719,17594,5.9999999999999995e-05,-1e-05,-0.00037999999999999997,-0.00027,-2e-05,-0.00036,-0.00014,-2e-05,5
16720,17595,5.9999999999999995e-05,-1e-05,-0.00037999999999999997,-0.00027,-2e-05,-0.00036,-0.00014,-2e-05,5
16721,17596,0.00022,0.00022999999999999998,0.00022999999999999998,0.00042,-0.00033999999999999997,8e-05,0.0001,0.00013000000000000002,5
16722,17597,0.00022,0.00022999999999999998,0.00022999999999999998,0.00042,-0.00033999999999999997,8e-05,0.0001,0.00013000000000000002,5
16723,17598,0.00022,0.00022999999999999998,0.00022999999999999998,0.00042,-0.00033999999999999997,8e-05,0.0001,0.00013000000000000002,5
16724,17599,0.00022,0.00022999999999999998,0.00022999999999999998,0.00042,-0.00033999999999999997,8e-05,0.0001,0.00013000000000000002,5
16725,17600,0.00022,0.00022999999999999998,0.00022999999999999998,0.00042,-0.00033999999999999997,8e-05,0.0001,0.00013000000000000002,5
16726,17601,0.00022,0.00022999999999999998,0.00022999999999999998,0.00042,-0.00033999999999999997,8e-05,0.0001,0.00013000000000000002,5
16727,17602,0.00022,0.00022999999999999998,0.00022999999999999998,0.00042,-0.00033999999999999997,8e-05,0.0001,0.00013000000000000002,5
16728,17603,0.00022,0.00022999999999999998,0.00022999999999999998,0.00042,-0.00033999999999999997,8e-05,0.0001,0.00013000000000000002,5
16729,17604,0.00022,0.00022999999999999998,0.00022999999999999998,0.00042,-0.00033999999999999997,8e-05,0.0001,0.00013000000000000002,5
16730,17605,0.00022,0.00022999999999999998,0.00022999999999999998,0.00042,-0.00033999999999999997,8e-05,0.0001,0.00013000000000000002,5
16731,17606,0.00022,0.00022999999999999998,0.00022999999999999998,0.00042,-0.00033999999999999997,8e-05,0.0001,0.00013000000000000002,5
16732,17607,0.00022,0.00022999999999999998,0.00022999999999999998,0.00042,-0.00033999999999999997,8e-05,0.0001,0.00013000000000000002,5
16733,17608,0.00022,0.00022999999999999998,0.00022999999999999998,0.00042,-0.00033999999999999997,8e-05,0.0001,0.00013000000000000002,5
16734,17609,0.00022,0.00022999999999999998,0.00022999999999999998,0.00042,-0.00033999999999999997,8e-05,0.0001,0.00013000000000000002,5
16735,17610,0.00022,0.00022999999999999998,0.00022999999999999998,0.00042,-0.00033999999999999997,8e-05,0.0001,0.00013000000000000002,5
16736,17611,0.00022,0.00022999999999999998,0.00022999999999999998,0.00042,-0.00033999999999999997,8e-05,0.0001,0.00013000000000000002,5
16737,17613,0.00022,0.00022999999999999998,0.00022999999999999998,0.00042,-0.00033999999999999997,8e-05,0.0001,0.00013000000000000002,5
16738,17614,0.00022,0.00022999999999999998,0.00022999999999999998,0.00042,-0.00033999999999999997,8e-05,0.0001,0.00013000000000000002,5
16739,17615,0.00022,0.00022999999999999998,0.00022999999999999998,0.00042,-0.00033999999999999997,8e-05,0.0001,0.00013000000000000002,5
16740,17616,-0.00016999999999999999,-0.00026000000000000003,0.0003,0.00085,0.00044,0.00015,-4e-05,-8e-05,5
16741,17617,7e-05,0.00016,0.00022999999999999998,0.00021,-8e-05,-2e-05,2e-05,5e-05,5
16742,17618,-0.00016,-0.00011,-0.00043,1e-05,0.00011,-0.00015,-2.9999999999999997e-05,-4e-05,5
16743,17619,-0.00016,-0.00011,-0.00043,1e-05,0.00011,-0.00015,-2.9999999999999997e-05,-4e-05,5
16744,17620,-0.00016,-0.00011,-0.00043,1e-05,0.00011,-0.00015,-2.9999999999999997e-05,-4e-05,5
16745,17621,-0.00016,-0.00011,-0.00043,1e-05,0.00011,-0.00015,-2.9999999999999997e-05,-4e-05,5
16746,17622,-0.00016,-0.00011,-0.00043,1e-05,0.00011,-0.00015,-2.9999999999999997e-05,-4e-05,5
16747,17623,-0.00016,-0.00011,-0.00043,1e-05,0.00011,-0.00015,-2.9999999999999997e-05,-4e-05,5
16748,17624,-0.00016,-0.00011,-0.00043,1e-05,0.00011,-0.00015,-2.9999999999999997e-05,-4e-05,5
16749,17625,-0.00016,-0.00011,-0.00043,1e-05,0.00011,-0.00015,-2.9999999999999997e-05,-4e-05,5
16750,17626,-0.00016,-0.00011,-0.00043,1e-05,0.00011,-0.00015,-2.9999999999999997e-05,-4e-05,5
16751,17627,-0.00016,-0.00011,-0.00043,1e-05,0.00011,-0.00015,-2.9999999999999997e-05,-4e-05,5
16752,17628,-0.00016,-0.00011,-0.00043,1e-05,0.00011,-0.00015,-2.9999999999999997e-05,-4e-05,5
16753,17629,-0.00016,-0.00011,-0.00043,1e-05,0.00011,-0.00015,-2.9999999999999997e-05,-4e-05,5
16754,17630,2.9999999999999997e-05,-8e-05,-0.0001,-0.00047000000000000004,-0.00047999999999999996,1e-05,5e-05,1e-05,5
16755,17631,2.9999999999999997e-05,-8e-05,-0.0001,-0.00047000000000000004,-0.00047999999999999996,1e-05,5e-05,1e-05,5
16756,17632,2.9999999999999997e-05,-8e-05,-0.0001,-0.00047000000000000004,-0.00047999999999999996,1e-05,5e-05,1e-05,5
16757,17633,2.9999999999999997e-05,-8e-05,-0.0001,-0.00047000000000000004,-0.00047999999999999996,1e-05,5e-05,1e-05,5
16758,17634,2.9999999999999997e-05,-8e-05,-0.0001,-0.00047000000000000004,-0.00047999999999999996,1e-05,5e-05,1e-05,5
16759,17635,2.9999999999999997e-05,-8e-05,-0.0001,-0.00047000000000000004,-0.00047999999999999996,1e-05,5e-05,1e-05,5
16760,17636,2.9999999999999997e-05,-8e-05,-0.0001,-0.00047000000000000004,-0.00047999999999999996,1e-05,5e-05,1e-05,5
16761,17639,-5e-05,4e-05,0.0001,-0.00098,-0.00065,-0.0002,-7e-05,-4e-05,5
16762,17640,-5e-05,4e-05,0.0001,-0.00098,-0.00065,-0.0002,-7e-05,-4e-05,5
16763,17641,-5e-05,4e-05,0.0001,-0.00098,-0.00065,-0.0002,-7e-05,-4e-05,5
16764,17642,-5e-05,4e-05,0.0001,-0.00098,-0.00065,-0.0002,-7e-05,-4e-05,5
16765,17643,-5e-05,4e-05,0.0001,-0.00098,-0.00065,-0.0002,-7e-05,-4e-05,5
16766,17644,-5e-05,4e-05,0.0001,-0.00098,-0.00065,-0.0002,-7e-05,-4e-05,5
16767,17645,-5e-05,4e-05,0.0001,-0.00098,-0.00065,-0.0002,-7e-05,-4e-05,5
16768,17646,-5e-05,4e-05,0.0001,-0.00098,-0.00065,-0.0002,-7e-05,-4e-05,5
16769,17647,-5e-05,4e-05,0.0001,-0.00098,-0.00065,-0.0002,-7e-05,-4e-05,5
16770,17648,-5e-05,4e-05,0.0001,-0.00098,-0.00065,-0.0002,-7e-05,-4e-05,5
16771,17649,-5e-05,4e-05,0.0001,-0.00098,-0.00065,-0.0002,-7e-05,-4e-05,5
16772,17650,-5e-05,4e-05,0.0001,-0.00098,-0.00065,-0.0002,-7e-05,-4e-05,5
16773,17651,-5e-05,4e-05,0.0001,-0.00098,-0.00065,-0.0002,-7e-05,-4e-05,5
16774,17652,-5e-05,4e-05,0.0001,-0.00098,-0.00065,-0.0002,-7e-05,-4e-05,5
16775,17653,-5e-05,4e-05,0.0001,-0.00098,-0.00065,-0.0002,-7e-05,-4e-05,5
16776,17654,-0.00016,-0.0001,-5e-05,0.00036,0.0005200000000000001,0.00026000000000000003,2e-05,-2.9999999999999997e-05,5
16777,17655,-0.0001,-0.00013000000000000002,-0.00015,-0.00049,-0.00031,-0.0001,-9e-05,-8e-05,5
16778,17656,-0.0001,-0.00013000000000000002,-0.00015,-0.00049,-0.00031,-0.0001,-9e-05,-8e-05,5
16779,17657,-0.0001,-0.00013000000000000002,-0.00015,-0.00049,-0.00031,-0.0001,-9e-05,-8e-05,5
16780,17658,-0.0001,-0.00013000000000000002,-0.00015,-0.00049,-0.00031,-0.0001,-9e-05,-8e-05,5
16781,17659,-0.0001,-0.00013000000000000002,-0.00015,-0.00049,-0.00031,-0.0001,-9e-05,-8e-05,5
16782,17660,-0.0001,-0.00013000000000000002,-0.00015,-0.00049,-0.00031,-0.0001,-9e-05,-8e-05,5
16783,17661,-0.0001,-0.00013000000000000002,-0.00015,-0.00049,-0.00031,-0.0001,-9e-05,-8e-05,5
16784,17662,-0.0001,-0.00013000000000000002,-0.00015,-0.00049,-0.00031,-0.0001,-9e-05,-8e-05,5
16785,17663,-0.0001,-0.00013000000000000002,-0.00015,-0.00049,-0.00031,-0.0001,-9e-05,-8e-05,5
16786,17664,-0.0001,-0.00013000000000000002,-0.00015,-0.00049,-0.00031,-0.0001,-9e-05,-8e-05,5
16787,17665,-0.0001,-0.00013000000000000002,-0.00015,-0.00049,-0.00031,-0.0001,-9e-05,-8e-05,5
16788,17666,-0.0001,-0.00013000000000000002,-0.00015,-0.00049,-0.00031,-0.0001,-9e-05,-8e-05,5
16789,17667,-0.0001,-0.00013000000000000002,-0.00015,-0.00049,-0.00031,-0.0001,-9e-05,-8e-05,5
16790,17668,-0.0001,-0.00013000000000000002,-0.00015,-0.00049,-0.00031,-0.0001,-9e-05,-8e-05,5
16791,17669,-0.0001,-0.00013000000000000002,-0.00015,-0.00049,-0.00031,-0.0001,-9e-05,-8e-05,5
16792,17670,-0.0001,-0.00013000000000000002,-0.00015,-0.00049,-0.00031,-0.0001,-9e-05,-8e-05,5
16793,17671,-0.0001,-0.00013000000000000002,-0.00015,-0.00049,-0.00031,-0.0001,-9e-05,-8e-05,5
16794,17672,-0.0001,-0.00013000000000000002,-0.00015,-0.00049,-0.00031,-0.0001,-9e-05,-8e-05,5
16795,17673,-0.0001,-0.00013000000000000002,-0.00015,-0.00049,-0.00031,-0.0001,-9e-05,-8e-05,5
16796,17674,-0.0001,-0.00013000000000000002,-0.00015,-0.00049,-0.00031,-0.0001,-9e-05,-8e-05,5
16797,17675,-0.0001,-0.00013000000000000002,-0.00015,-0.00049,-0.00031,-0.0001,-9e-05,-8e-05,5
16798,17676,-7e-05,2e-05,0.0001,-9e-05,-8e-05,-0.00022,-0.00018,-0.00011,5
16799,17677,-7e-05,2e-05,0.0001,-9e-05,-8e-05,-0.00022,-0.00018,-0.00011,5
16800,17678,0.00041,0.00026000000000000003,0.0,-0.00037,4e-05,5.9999999999999995e-05,7e-05,8e-05,5
16801,17679,0.00041,0.00026000000000000003,0.0,-0.00037,4e-05,5.9999999999999995e-05,7e-05,8e-05,5
16802,17680,0.00041,0.00026000000000000003,0.0,-0.00037,4e-05,5.9999999999999995e-05,7e-05,8e-05,5
16803,17681,0.00041,0.00026000000000000003,0.0,-0.00037,4e-05,5.9999999999999995e-05,7e-05,8e-05,5
16804,17682,0.00041,0.00026000000000000003,0.0,-0.00037,4e-05,5.9999999999999995e-05,7e-05,8e-05,5
16805,17683,0.00041,0.00026000000000000003,0.0,-0.00037,4e-05,5.9999999999999995e-05,7e-05,8e-05,5
16806,17684,0.00041,0.00026000000000000003,0.0,-0.00037,4e-05,5.9999999999999995e-05,7e-05,8e-05,5
16807,17685,0.00041,0.00026000000000000003,0.0,-0.00037,4e-05,5.9999999999999995e-05,7e-05,8e-05,5
16808,17686,0.00041,0.00026000000000000003,0.0,-0.00037,4e-05,5.9999999999999995e-05,7e-05,8e-05,5
16809,17688,0.00041,0.00026000000000000003,0.0,-0.00037,4e-05,5.9999999999999995e-05,7e-05,8e-05,5
16810,17689,0.00041,0.00026000000000000003,0.0,-0.00037,4e-05,5.9999999999999995e-05,7e-05,8e-05,5
16811,17690,5.9999999999999995e-05,0.00033999999999999997,0.00025,0.00053,0.0008900000000000001,-0.00014,4e-05,-1e-05,5
16812,17691,5.9999999999999995e-05,0.00033999999999999997,0.00025,0.00053,0.0008900000000000001,-0.00014,4e-05,-1e-05,5
16813,17692,5.9999999999999995e-05,0.00033999999999999997,0.00025,0.00053,0.0008900000000000001,-0.00014,4e-05,-1e-05,5
16814,17693,5.9999999999999995e-05,0.00033999999999999997,0.00025,0.00053,0.0008900000000000001,-0.00014,4e-05,-1e-05,5
16815,17694,5.9999999999999995e-05,0.00033999999999999997,0.00025,0.00053,0.0008900000000000001,-0.00014,4e-05,-1e-05,5
16816,17695,5.9999999999999995e-05,0.00033999999999999997,0.00025,0.00053,0.0008900000000000001,-0.00014,4e-05,-1e-05,5
16817,17696,5.9999999999999995e-05,0.00033999999999999997,0.00025,0.00053,0.0008900000000000001,-0.00014,4e-05,-1e-05,5
16818,17697,5.9999999999999995e-05,0.00033999999999999997,0.00025,0.00053,0.0008900000000000001,-0.00014,4e-05,-1e-05,5
16819,17698,-0.00028,-0.00022999999999999998,-0.00022999999999999998,0.00016999999999999999,0.0006,7e-05,-2e-05,-4e-05,5
16820,17699,5e-05,9e-05,0.00035,-0.00047999999999999996,-0.0005,-0.0001,-1e-05,5.9999999999999995e-05,5
16821,17700,5e-05,9e-05,0.00035,-0.00047999999999999996,-0.0005,-0.0001,-1e-05,5.9999999999999995e-05,5
16822,17701,5e-05,9e-05,0.00035,-0.00047999999999999996,-0.0005,-0.0001,-1e-05,5.9999999999999995e-05,5
16823,17702,5e-05,9e-05,0.00035,-0.00047999999999999996,-0.0005,-0.0001,-1e-05,5.9999999999999995e-05,5
16824,17703,5e-05,9e-05,0.00035,-0.00047999999999999996,-0.0005,-0.0001,-1e-05,5.9999999999999995e-05,5
16825,17704,5e-05,9e-05,0.00035,-0.00047999999999999996,-0.0005,-0.0001,-1e-05,5.9999999999999995e-05,5
16826,17705,5e-05,9e-05,0.00035,-0.00047999999999999996,-0.0005,-0.0001,-1e-05,5.9999999999999995e-05,5
16827,17706,5e-05,9e-05,0.00035,-0.00047999999999999996,-0.0005,-0.0001,-1e-05,5.9999999999999995e-05,5
16828,17707,5e-05,9e-05,0.00035,-0.00047999999999999996,-0.0005,-0.0001,-1e-05,5.9999999999999995e-05,5
16829,17708,5e-05,9e-05,0.00035,-0.00047999999999999996,-0.0005,-0.0001,-1e-05,5.9999999999999995e-05,5
16830,17709,5e-05,9e-05,0.00035,-0.00047999999999999996,-0.0005,-0.0001,-1e-05,5.9999999999999995e-05,5
16831,17710,5e-05,9e-05,0.00035,-0.00047999999999999996,-0.0005,-0.0001,-1e-05,5.9999999999999995e-05,5
16832,17711,5e-05,9e-05,0.00035,-0.00047999999999999996,-0.0005,-0.0001,-1e-05,5.9999999999999995e-05,5
16833,17712,5e-05,9e-05,0.00035,-0.00047999999999999996,-0.0005,-0.0001,-1e-05,5.9999999999999995e-05,5
16834,17713,5e-05,9e-05,0.00035,-0.00047999999999999996,-0.0005,-0.0001,-1e-05,5.9999999999999995e-05,5
16835,17714,-0.00011999999999999999,-0.00039,-0.00065,-0.0009699999999999999,-0.00055,-0.00016,-0.00021,-0.00016,5
16836,17715,0.00011999999999999999,0.00018,0.00037999999999999997,0.00057,-0.00039,-8e-05,5.9999999999999995e-05,1e-05,5
16837,17716,-9e-05,-2e-05,5.9999999999999995e-05,0.00022999999999999998,5.9999999999999995e-05,2.9999999999999997e-05,-5.9999999999999995e-05,-2e-05,5
16838,17717,-9e-05,-2e-05,5.9999999999999995e-05,0.00022999999999999998,5.9999999999999995e-05,2.9999999999999997e-05,-5.9999999999999995e-05,-2e-05,5
16839,17718,-9e-05,-2e-05,5.9999999999999995e-05,0.00022999999999999998,5.9999999999999995e-05,2.9999999999999997e-05,-5.9999999999999995e-05,-2e-05,5
16840,17719,-9e-05,-2e-05,5.9999999999999995e-05,0.00022999999999999998,5.9999999999999995e-05,2.9999999999999997e-05,-5.9999999999999995e-05,-2e-05,5
16841,17720,-9e-05,-2e-05,5.9999999999999995e-05,0.00022999999999999998,5.9999999999999995e-05,2.9999999999999997e-05,-5.9999999999999995e-05,-2e-05,5
16842,17721,-9e-05,-2e-05,5.9999999999999995e-05,0.00022999999999999998,5.9999999999999995e-05,2.9999999999999997e-05,-5.9999999999999995e-05,-2e-05,5
16843,17722,-9e-05,-2e-05,5.9999999999999995e-05,0.00022999999999999998,5.9999999999999995e-05,2.9999999999999997e-05,-5.9999999999999995e-05,-2e-05,5
16844,17723,-9e-05,-2e-05,5.9999999999999995e-05,0.00022999999999999998,5.9999999999999995e-05,2.9999999999999997e-05,-5.9999999999999995e-05,-2e-05,5
16845,17724,-9e-05,-2e-05,5.9999999999999995e-05,0.00022999999999999998,5.9999999999999995e-05,2.9999999999999997e-05,-5.9999999999999995e-05,-2e-05,5
16846,17725,-9e-05,-2e-05,5.9999999999999995e-05,0.00022999999999999998,5.9999999999999995e-05,2.9999999999999997e-05,-5.9999999999999995e-05,-2e-05,5
16847,17726,-9e-05,-2e-05,5.9999999999999995e-05,0.00022999999999999998,5.9999999999999995e-05,2.9999999999999997e-05,-5.9999999999999995e-05,-2e-05,5
16848,17727,-9e-05,-2e-05,5.9999999999999995e-05,0.00022999999999999998,5.9999999999999995e-05,2.9999999999999997e-05,-5.9999999999999995e-05,-2e-05,5
16849,17728,-9e-05,-2e-05,5.9999999999999995e-05,0.00022999999999999998,5.9999999999999995e-05,2.9999999999999997e-05,-5.9999999999999995e-05,-2e-05,5
16850,17729,-9e-05,-2e-05,5.9999999999999995e-05,0.00022999999999999998,5.9999999999999995e-05,2.9999999999999997e-05,-5.9999999999999995e-05,-2e-05,5
16851,17730,-9e-05,-2e-05,5.9999999999999995e-05,0.00022999999999999998,5.9999999999999995e-05,2.9999999999999997e-05,-5.9999999999999995e-05,-2e-05,5
16852,17731,-9e-05,-2e-05,5.9999999999999995e-05,0.00022999999999999998,5.9999999999999995e-05,2.9999999999999997e-05,-5.9999999999999995e-05,-2e-05,5
16853,17732,-9e-05,-2e-05,5.9999999999999995e-05,0.00022999999999999998,5.9999999999999995e-05,2.9999999999999997e-05,-5.9999999999999995e-05,-2e-05,5
16854,17733,-9e-05,-2e-05,5.9999999999999995e-05,0.00022999999999999998,5.9999999999999995e-05,2.9999999999999997e-05,-5.9999999999999995e-05,-2e-05,5
16855,17734,-9e-05,-2e-05,5.9999999999999995e-05,0.00022999999999999998,5.9999999999999995e-05,2.9999999999999997e-05,-5.9999999999999995e-05,-2e-05,5
16856,17735,-9e-05,-2e-05,5.9999999999999995e-05,0.00022999999999999998,5.9999999999999995e-05,2.9999999999999997e-05,-5.9999999999999995e-05,-2e-05,5
16857,17736,-9e-05,-2e-05,5.9999999999999995e-05,0.00022999999999999998,5.9999999999999995e-05,2.9999999999999997e-05,-5.9999999999999995e-05,-2e-05,5
16858,17739,-9e-05,-2e-05,0.00022999999999999998,0.00074,-0.0001,-0.00022999999999999998,-0.00016999999999999999,-9e-05,5
16859,17740,-2e-05,-7e-05,-0.00018,-0.00059,-0.00018999999999999998,5.9999999999999995e-05,-1e-05,0.0,5
16860,17741,-2e-05,-7e-05,-0.00018,-0.00059,-0.00018999999999999998,5.9999999999999995e-05,-1e-05,0.0,5
16861,17742,-2e-05,-7e-05,-0.00018,-0.00059,-0.00018999999999999998,5.9999999999999995e-05,-1e-05,0.0,5
16862,17743,-2e-05,-7e-05,-0.00018,-0.00059,-0.00018999999999999998,5.9999999999999995e-05,-1e-05,0.0,5
16863,17744,-2e-05,-7e-05,-0.00018,-0.00059,-0.00018999999999999998,5.9999999999999995e-05,-1e-05,0.0,5
16864,17745,-2e-05,-7e-05,-0.00018,-0.00059,-0.00018999999999999998,5.9999999999999995e-05,-1e-05,0.0,5
16865,17746,-2e-05,-7e-05,-0.00018,-0.00059,-0.00018999999999999998,5.9999999999999995e-05,-1e-05,0.0,5
16866,17747,-2e-05,-7e-05,-0.00018,-0.00059,-0.00018999999999999998,5.9999999999999995e-05,-1e-05,0.0,5
16867,17748,-2e-05,-7e-05,-0.00018,-0.00059,-0.00018999999999999998,5.9999999999999995e-05,-1e-05,0.0,5
16868,17749,-2e-05,-7e-05,-0.00018,-0.00059,-0.00018999999999999998,5.9999999999999995e-05,-1e-05,0.0,5
16869,17750,-7e-05,1e-05,0.00011,8e-05,5.9999999999999995e-05,0.00014,0.00016,0.00011,5
16870,17751,-7e-05,1e-05,0.00011,8e-05,5.9999999999999995e-05,0.00014,0.00016,0.00011,5
16871,17752,-7e-05,1e-05,0.00011,8e-05,5.9999999999999995e-05,0.00014,0.00016,0.00011,5
16872,17753,-7e-05,1e-05,0.00011,8e-05,5.9999999999999995e-05,0.00014,0.00016,0.00011,5
16873,17754,-7e-05,1e-05,0.00011,8e-05,5.9999999999999995e-05,0.00014,0.00016,0.00011,5
16874,17755,-7e-05,1e-05,0.00011,8e-05,5.9999999999999995e-05,0.00014,0.00016,0.00011,5
16875,17756,-7e-05,1e-05,0.00011,8e-05,5.9999999999999995e-05,0.00014,0.00016,0.00011,5
16876,17757,-7e-05,1e-05,0.00011,8e-05,5.9999999999999995e-05,0.00014,0.00016,0.00011,5
16877,17758,-7e-05,1e-05,0.00011,8e-05,5.9999999999999995e-05,0.00014,0.00016,0.00011,5
16878,17759,-0.0006,-0.00054,-0.00016,0.00028,-0.00011,2.9999999999999997e-05,-5.9999999999999995e-05,-0.00016999999999999999,5
16879,17760,-0.0006,-0.00054,-0.00016,0.00028,-0.00011,2.9999999999999997e-05,-5.9999999999999995e-05,-0.00016999999999999999,5
16880,17761,-0.0006,-0.00054,-0.00016,0.00028,-0.00011,2.9999999999999997e-05,-5.9999999999999995e-05,-0.00016999999999999999,5
16881,17762,-0.0006,-0.00054,-0.00016,0.00028,-0.00011,2.9999999999999997e-05,-5.9999999999999995e-05,-0.00016999999999999999,5
16882,17763,-0.0006,-0.00054,-0.00016,0.00028,-0.00011,2.9999999999999997e-05,-5.9999999999999995e-05,-0.00016999999999999999,5
16883,17764,-0.0006,-0.00054,-0.00016,0.00028,-0.00011,2.9999999999999997e-05,-5.9999999999999995e-05,-0.00016999999999999999,5
16884,17765,-0.0006,-0.00054,-0.00016,0.00028,-0.00011,2.9999999999999997e-05,-5.9999999999999995e-05,-0.00016999999999999999,5
16885,17766,-0.0006,-0.00054,-0.00016,0.00028,-0.00011,2.9999999999999997e-05,-5.9999999999999995e-05,-0.00016999999999999999,5
16886,17767,-0.0006,-0.00054,-0.00016,0.00028,-0.00011,2.9999999999999997e-05,-5.9999999999999995e-05,-0.00016999999999999999,5
16887,17768,-0.0006,-0.00054,-0.00016,0.00028,-0.00011,2.9999999999999997e-05,-5.9999999999999995e-05,-0.00016999999999999999,5
16888,17769,-0.0006,-0.00054,-0.00016,0.00028,-0.00011,2.9999999999999997e-05,-5.9999999999999995e-05,-0.00016999999999999999,5
16889,17770,-0.0006,-0.00054,-0.00016,0.00028,-0.00011,2.9999999999999997e-05,-5.9999999999999995e-05,-0.00016999999999999999,5
16890,17771,-0.0006,-0.00054,-0.00016,0.00028,-0.00011,2.9999999999999997e-05,-5.9999999999999995e-05,-0.00016999999999999999,5
16891,17772,-0.0006,-0.00054,-0.00016,0.00028,-0.00011,2.9999999999999997e-05,-5.9999999999999995e-05,-0.00016999999999999999,5
16892,17773,-0.0006,-0.00054,-0.00016,0.00028,-0.00011,2.9999999999999997e-05,-5.9999999999999995e-05,-0.00016999999999999999,5
16893,17774,4e-05,-0.00022,-0.00015,0.00037999999999999997,-5.9999999999999995e-05,-5e-05,8e-05,-2e-05,5
16894,17775,5e-05,0.00014,0.00021,0.00045,4e-05,-2.9999999999999997e-05,-2e-05,2e-05,5
16895,17776,-0.00013000000000000002,-0.00011999999999999999,-0.0004,-0.00036,-0.00074,-0.0003,-0.00016,-0.00013000000000000002,5
16896,17777,-0.00013000000000000002,-0.00011999999999999999,-0.0004,-0.00036,-0.00074,-0.0003,-0.00016,-0.00013000000000000002,5
16897,17778,-0.00013000000000000002,-0.00011999999999999999,-0.0004,-0.00036,-0.00074,-0.0003,-0.00016,-0.00013000000000000002,5
16898,17779,-0.00013000000000000002,-0.00011999999999999999,-0.0004,-0.00036,-0.00074,-0.0003,-0.00016,-0.00013000000000000002,5
16899,17780,-0.00013000000000000002,-0.00011999999999999999,-0.0004,-0.00036,-0.00074,-0.0003,-0.00016,-0.00013000000000000002,5
16900,17781,-0.00013000000000000002,-0.00011999999999999999,-0.0004,-0.00036,-0.00074,-0.0003,-0.00016,-0.00013000000000000002,5
16901,17782,-0.00013000000000000002,-0.00011999999999999999,-0.0004,-0.00036,-0.00074,-0.0003,-0.00016,-0.00013000000000000002,5
16902,17783,-0.00013000000000000002,-0.00011999999999999999,-0.0004,-0.00036,-0.00074,-0.0003,-0.00016,-0.00013000000000000002,5
16903,17784,-0.00013000000000000002,-0.00011999999999999999,-0.0004,-0.00036,-0.00074,-0.0003,-0.00016,-0.00013000000000000002,5
16904,17785,-0.00013000000000000002,-0.00011999999999999999,-0.0004,-0.00036,-0.00074,-0.0003,-0.00016,-0.00013000000000000002,5
16905,17786,-0.00013000000000000002,-0.00011999999999999999,-0.0004,-0.00036,-0.00074,-0.0003,-0.00016,-0.00013000000000000002,5
16906,17789,-0.00013000000000000002,-0.00011999999999999999,-0.0004,-0.00036,-0.00074,-0.0003,-0.00016,-0.00013000000000000002,5
16907,17790,-0.00013000000000000002,-0.00011999999999999999,-0.0004,-0.00036,-0.00074,-0.0003,-0.00016,-0.00013000000000000002,5
16908,17791,-0.00013000000000000002,-0.00011999999999999999,-0.0004,-0.00036,-0.00074,-0.0003,-0.00016,-0.00013000000000000002,5
16909,17792,-0.00013000000000000002,-0.00011999999999999999,-0.0004,-0.00036,-0.00074,-0.0003,-0.00016,-0.00013000000000000002,5
16910,17793,-0.00013000000000000002,-0.00011999999999999999,-0.0004,-0.00036,-0.00074,-0.0003,-0.00016,-0.00013000000000000002,5
16911,17794,-0.00013000000000000002,-0.00011999999999999999,-0.0004,-0.00036,-0.00074,-0.0003,-0.00016,-0.00013000000000000002,5
16912,17795,-0.00013000000000000002,-0.00011999999999999999,-0.0004,-0.00036,-0.00074,-0.0003,-0.00016,-0.00013000000000000002,5
16913,17796,-0.00035,-0.00037999999999999997,0.0,-0.00047999999999999996,-0.00037999999999999997,0.0001,-0.00018999999999999998,-0.00016999999999999999,5
16914,17797,9e-05,0.00011999999999999999,0.00025,0.00033999999999999997,0.0008900000000000001,0.00041,0.00022,0.00015,5
16915,17798,2e-05,0.00015,-2e-05,0.00063,0.00041,0.00011999999999999999,2e-05,1e-05,5
16916,17799,2e-05,0.00015,-2e-05,0.00063,0.00041,0.00011999999999999999,2e-05,1e-05,5
16917,17800,2e-05,0.00015,-2e-05,0.00063,0.00041,0.00011999999999999999,2e-05,1e-05,5
16918,17801,2e-05,0.00015,-2e-05,0.00063,0.00041,0.00011999999999999999,2e-05,1e-05,5
16919,17802,2e-05,0.00015,-2e-05,0.00063,0.00041,0.00011999999999999999,2e-05,1e-05,5
16920,17803,2e-05,0.00015,-2e-05,0.00063,0.00041,0.00011999999999999999,2e-05,1e-05,5
16921,17804,2e-05,0.00015,-2e-05,0.00063,0.00041,0.00011999999999999999,2e-05,1e-05,5
16922,17805,2e-05,0.00015,-2e-05,0.00063,0.00041,0.00011999999999999999,2e-05,1e-05,5
16923,17806,2e-05,0.00015,-2e-05,0.00063,0.00041,0.00011999999999999999,2e-05,1e-05,5
16924,17807,2e-05,0.00015,-2e-05,0.00063,0.00041,0.00011999999999999999,2e-05,1e-05,5
16925,17808,2e-05,0.00015,-2e-05,0.00063,0.00041,0.00011999999999999999,2e-05,1e-05,5
16926,17809,2e-05,0.00015,-2e-05,0.00063,0.00041,0.00011999999999999999,2e-05,1e-05,5
16927,17810,8e-05,0.00016999999999999999,0.00028,0.00026000000000000003,-0.00041,0.00011,0.0,2.9999999999999997e-05,5
16928,17811,8e-05,0.00016999999999999999,0.00028,0.00026000000000000003,-0.00041,0.00011,0.0,2.9999999999999997e-05,5
16929,17812,8e-05,0.00016999999999999999,0.00028,0.00026000000000000003,-0.00041,0.00011,0.0,2.9999999999999997e-05,5
16930,17813,8e-05,0.00016999999999999999,0.00028,0.00026000000000000003,-0.00041,0.00011,0.0,2.9999999999999997e-05,5
16931,17814,8e-05,0.00016999999999999999,0.00028,0.00026000000000000003,-0.00041,0.00011,0.0,2.9999999999999997e-05,5
16932,17815,8e-05,0.00016999999999999999,0.00028,0.00026000000000000003,-0.00041,0.00011,0.0,2.9999999999999997e-05,5
16933,17816,8e-05,0.00016999999999999999,0.00028,0.00026000000000000003,-0.00041,0.00011,0.0,2.9999999999999997e-05,5
16934,17817,8e-05,0.00016999999999999999,0.00028,0.00026000000000000003,-0.00041,0.00011,0.0,2.9999999999999997e-05,5
16935,17818,8e-05,0.00016999999999999999,0.00028,0.00026000000000000003,-0.00041,0.00011,0.0,2.9999999999999997e-05,5
16936,17819,0.00018999999999999998,0.00018,-8e-05,-0.00047000000000000004,-0.00037,-0.0002,-0.00014,-2.9999999999999997e-05,5
16937,17820,0.00018999999999999998,0.00018,-8e-05,-0.00047000000000000004,-0.00037,-0.0002,-0.00014,-2.9999999999999997e-05,5
16938,17821,0.00018999999999999998,0.00018,-8e-05,-0.00047000000000000004,-0.00037,-0.0002,-0.00014,-2.9999999999999997e-05,5
16939,17822,0.00018999999999999998,0.00018,-8e-05,-0.00047000000000000004,-0.00037,-0.0002,-0.00014,-2.9999999999999997e-05,5
16940,17823,0.00018999999999999998,0.00018,-8e-05,-0.00047000000000000004,-0.00037,-0.0002,-0.00014,-2.9999999999999997e-05,5
16941,17824,0.00018999999999999998,0.00018,-8e-05,-0.00047000000000000004,-0.00037,-0.0002,-0.00014,-2.9999999999999997e-05,5
16942,17825,0.00018999999999999998,0.00018,-8e-05,-0.00047000000000000004,-0.00037,-0.0002,-0.00014,-2.9999999999999997e-05,5
16943,17826,0.00018999999999999998,0.00018,-8e-05,-0.00047000000000000004,-0.00037,-0.0002,-0.00014,-2.9999999999999997e-05,5
16944,17827,0.00018999999999999998,0.00018,-8e-05,-0.00047000000000000004,-0.00037,-0.0002,-0.00014,-2.9999999999999997e-05,5
16945,17828,0.00018999999999999998,0.00018,-8e-05,-0.00047000000000000004,-0.00037,-0.0002,-0.00014,-2.9999999999999997e-05,5
16946,17829,0.00018999999999999998,0.00018,-8e-05,-0.00047000000000000004,-0.00037,-0.0002,-0.00014,-2.9999999999999997e-05,5
16947,17830,0.00018999999999999998,0.00018,-8e-05,-0.00047000000000000004,-0.00037,-0.0002,-0.00014,-2.9999999999999997e-05,5
16948,17831,0.00018999999999999998,0.00018,-8e-05,-0.00047000000000000004,-0.00037,-0.0002,-0.00014,-2.9999999999999997e-05,5
16949,17832,0.00018999999999999998,0.00018,-8e-05,-0.00047000000000000004,-0.00037,-0.0002,-0.00014,-2.9999999999999997e-05,5
16950,17833,0.00018999999999999998,0.00018,-8e-05,-0.00047000000000000004,-0.00037,-0.0002,-0.00014,-2.9999999999999997e-05,5
16951,17834,9e-05,-5e-05,-0.00018,-0.00022,-0.0003,-2.9999999999999997e-05,-8e-05,-4e-05,5
16952,17835,1e-05,-0.00011,0.00011999999999999999,0.00033999999999999997,0.0001,-0.00011999999999999999,-8e-05,-5e-05,5
16953,17836,1e-05,-0.00011,0.00011999999999999999,0.00033999999999999997,0.0001,-0.00011999999999999999,-8e-05,-5e-05,5
16954,17839,1e-05,-0.00011,0.00011999999999999999,0.00033999999999999997,0.0001,-0.00011999999999999999,-8e-05,-5e-05,5
16955,17840,1e-05,-0.00011,0.00011999999999999999,0.00033999999999999997,0.0001,-0.00011999999999999999,-8e-05,-5e-05,5
16956,17841,1e-05,-0.00011,0.00011999999999999999,0.00033999999999999997,0.0001,-0.00011999999999999999,-8e-05,-5e-05,5
16957,17842,1e-05,-0.00011,0.00011999999999999999,0.00033999999999999997,0.0001,-0.00011999999999999999,-8e-05,-5e-05,5
16958,17843,1e-05,-0.00011,0.00011999999999999999,0.00033999999999999997,0.0001,-0.00011999999999999999,-8e-05,-5e-05,5
16959,17844,1e-05,-0.00011,0.00011999999999999999,0.00033999999999999997,0.0001,-0.00011999999999999999,-8e-05,-5e-05,5
16960,17845,1e-05,-0.00011,0.00011999999999999999,0.00033999999999999997,0.0001,-0.00011999999999999999,-8e-05,-5e-05,5
16961,17846,1e-05,-0.00011,0.00011999999999999999,0.00033999999999999997,0.0001,-0.00011999999999999999,-8e-05,-5e-05,5
16962,17847,1e-05,-0.00011,0.00011999999999999999,0.00033999999999999997,0.0001,-0.00011999999999999999,-8e-05,-5e-05,5
16963,17848,1e-05,-0.00011,0.00011999999999999999,0.00033999999999999997,0.0001,-0.00011999999999999999,-8e-05,-5e-05,5
16964,17849,1e-05,-0.00011,0.00011999999999999999,0.00033999999999999997,0.0001,-0.00011999999999999999,-8e-05,-5e-05,5
16965,17850,1e-05,-0.00011,0.00011999999999999999,0.00033999999999999997,0.0001,-0.00011999999999999999,-8e-05,-5e-05,5
16966,17851,1e-05,-0.00011,0.00011999999999999999,0.00033999999999999997,0.0001,-0.00011999999999999999,-8e-05,-5e-05,5
16967,17852,1e-05,-0.00011,0.00011999999999999999,0.00033999999999999997,0.0001,-0.00011999999999999999,-8e-05,-5e-05,5
16968,17853,1e-05,-0.00011,0.00011999999999999999,0.00033999999999999997,0.0001,-0.00011999999999999999,-8e-05,-5e-05,5
16969,17854,1e-05,-0.00011,0.00011999999999999999,0.00033999999999999997,0.0001,-0.00011999999999999999,-8e-05,-5e-05,5
16970,17855,1e-05,-0.00011,0.00011999999999999999,0.00033999999999999997,0.0001,-0.00011999999999999999,-8e-05,-5e-05,5
16971,17856,-0.0001,-2e-05,-0.00016999999999999999,-7e-05,-0.00047999999999999996,-0.00011,-4e-05,-1e-05,5
16972,17857,-0.00011999999999999999,-8e-05,-5e-05,-0.00013000000000000002,-0.00029,-0.00011999999999999999,-2.9999999999999997e-05,-5.9999999999999995e-05,5
16973,17858,0.00015,0.00022999999999999998,2e-05,2e-05,7e-05,1e-05,0.00011,5.9999999999999995e-05,5
16974,17859,0.00015,0.00022999999999999998,2e-05,2e-05,7e-05,1e-05,0.00011,5.9999999999999995e-05,5
16975,17860,0.00015,0.00022999999999999998,2e-05,2e-05,7e-05,1e-05,0.00011,5.9999999999999995e-05,5
16976,17861,0.00015,0.00022999999999999998,2e-05,2e-05,7e-05,1e-05,0.00011,5.9999999999999995e-05,5
16977,17862,0.00015,0.00022999999999999998,2e-05,2e-05,7e-05,1e-05,0.00011,5.9999999999999995e-05,5
16978,17863,0.00015,0.00022999999999999998,2e-05,2e-05,7e-05,1e-05,0.00011,5.9999999999999995e-05,5
16979,17864,0.00015,0.00022999999999999998,2e-05,2e-05,7e-05,1e-05,0.00011,5.9999999999999995e-05,5
16980,17865,0.00015,0.00022999999999999998,2e-05,2e-05,7e-05,1e-05,0.00011,5.9999999999999995e-05,5
16981,17866,0.00015,0.00022999999999999998,2e-05,2e-05,7e-05,1e-05,0.00011,5.9999999999999995e-05,5
16982,17867,0.00015,0.00022999999999999998,2e-05,2e-05,7e-05,1e-05,0.00011,5.9999999999999995e-05,5
16983,17868,0.00015,0.00022999999999999998,2e-05,2e-05,7e-05,1e-05,0.00011,5.9999999999999995e-05,5
16984,17869,0.00015,0.00022999999999999998,2e-05,2e-05,7e-05,1e-05,0.00011,5.9999999999999995e-05,5
16985,17870,-0.00018,-0.00026000000000000003,-0.00047999999999999996,-0.0008,4e-05,7e-05,5.9999999999999995e-05,-1e-05,5
16986,17871,-0.00018,-0.00026000000000000003,-0.00047999999999999996,-0.0008,4e-05,7e-05,5.9999999999999995e-05,-1e-05,5
16987,17872,-0.00018,-0.00026000000000000003,-0.00047999999999999996,-0.0008,4e-05,7e-05,5.9999999999999995e-05,-1e-05,5
16988,17873,-0.00018,-0.00026000000000000003,-0.00047999999999999996,-0.0008,4e-05,7e-05,5.9999999999999995e-05,-1e-05,5
16989,17874,-0.00018,-0.00026000000000000003,-0.00047999999999999996,-0.0008,4e-05,7e-05,5.9999999999999995e-05,-1e-05,5
16990,17875,-0.00018,-0.00026000000000000003,-0.00047999999999999996,-0.0008,4e-05,7e-05,5.9999999999999995e-05,-1e-05,5
16991,17876,-0.00018,-0.00026000000000000003,-0.00047999999999999996,-0.0008,4e-05,7e-05,5.9999999999999995e-05,-1e-05,5
16992,17877,-0.00018,-0.00026000000000000003,-0.00047999999999999996,-0.0008,4e-05,7e-05,5.9999999999999995e-05,-1e-05,5
16993,17878,-0.00018,-0.00026000000000000003,-0.00047999999999999996,-0.0008,4e-05,7e-05,5.9999999999999995e-05,-1e-05,5
16994,17879,0.00043,0.0004,0.00091,0.0012699999999999999,0.0007,0.00036,0.00013000000000000002,0.00015,5
16995,17880,0.00043,0.0004,0.00091,0.0012699999999999999,0.0007,0.00036,0.00013000000000000002,0.00015,5
16996,17881,0.00043,0.0004,0.00091,0.0012699999999999999,0.0007,0.00036,0.00013000000000000002,0.00015,5
16997,17882,0.00043,0.0004,0.00091,0.0012699999999999999,0.0007,0.00036,0.00013000000000000002,0.00015,5
16998,17883,0.00043,0.0004,0.00091,0.0012699999999999999,0.0007,0.00036,0.00013000000000000002,0.00015,5
16999,17884,0.00043,0.0004,0.00091,0.0012699999999999999,0.0007,0.00036,0.00013000000000000002,0.00015,5
17000,17885,0.00043,0.0004,0.00091,0.0012699999999999999,0.0007,0.00036,0.00013000000000000002,0.00015,5
17001,17886,0.00043,0.0004,0.00091,0.0012699999999999999,0.0007,0.00036,0.00013000000000000002,0.00015,5
17002,17888,0.00043,0.0004,0.00091,0.0012699999999999999,0.0007,0.00036,0.00013000000000000002,0.00015,5
17003,17890,0.00043,0.0004,0.00091,0.0012699999999999999,0.0007,0.00036,0.00013000000000000002,0.00015,5
17004,17891,0.00043,0.0004,0.00091,0.0012699999999999999,0.0007,0.00036,0.00013000000000000002,0.00015,5
17005,17892,0.00043,0.0004,0.00091,0.0012699999999999999,0.0007,0.00036,0.00013000000000000002,0.00015,5
17006,17893,0.00043,0.0004,0.00091,0.0012699999999999999,0.0007,0.00036,0.00013000000000000002,0.00015,5
17007,17894,-0.00011,0.00035,-7e-05,0.00056,1e-05,-0.00022999999999999998,-5e-05,0.0,5
17008,17895,-0.00011,0.00035,-7e-05,0.00056,1e-05,-0.00022999999999999998,-5e-05,0.0,5
17009,17896,8e-05,0.00011,0.00058,0.00119,0.0009400000000000001,0.0005200000000000001,0.00018999999999999998,0.00011,5
17010,17897,-0.00015,-0.0003,-0.00047000000000000004,-0.0012,-0.0009699999999999999,-0.00033999999999999997,-0.00011,-8e-05,5
17011,17898,-0.00015,-0.0003,-0.00047000000000000004,-0.0012,-0.0009699999999999999,-0.00033999999999999997,-0.00011,-8e-05,5
17012,17899,-0.00015,-0.0003,-0.00047000000000000004,-0.0012,-0.0009699999999999999,-0.00033999999999999997,-0.00011,-8e-05,5
17013,17900,-0.00015,-0.0003,-0.00047000000000000004,-0.0012,-0.0009699999999999999,-0.00033999999999999997,-0.00011,-8e-05,5
17014,17901,-0.00015,-0.0003,-0.00047000000000000004,-0.0012,-0.0009699999999999999,-0.00033999999999999997,-0.00011,-8e-05,5
17015,17902,-0.00015,-0.0003,-0.00047000000000000004,-0.0012,-0.0009699999999999999,-0.00033999999999999997,-0.00011,-8e-05,5
17016,17903,-0.00015,-0.0003,-0.00047000000000000004,-0.0012,-0.0009699999999999999,-0.00033999999999999997,-0.00011,-8e-05,5
17017,17904,-0.00015,-0.0003,-0.00047000000000000004,-0.0012,-0.0009699999999999999,-0.00033999999999999997,-0.00011,-8e-05,5
17018,17905,-0.00015,-0.0003,-0.00047000000000000004,-0.0012,-0.0009699999999999999,-0.00033999999999999997,-0.00011,-8e-05,5
17019,17906,-0.00015,-0.0003,-0.00047000000000000004,-0.0012,-0.0009699999999999999,-0.00033999999999999997,-0.00011,-8e-05,5
17020,17907,-0.00015,-0.0003,-0.00047000000000000004,-0.0012,-0.0009699999999999999,-0.00033999999999999997,-0.00011,-8e-05,5
17021,17908,-0.00015,-0.0003,-0.00047000000000000004,-0.0012,-0.0009699999999999999,-0.00033999999999999997,-0.00011,-8e-05,5
17022,17909,-0.00015,-0.0003,-0.00047000000000000004,-0.0012,-0.0009699999999999999,-0.00033999999999999997,-0.00011,-8e-05,5
17023,17910,-0.00015,-0.0003,-0.00047000000000000004,-0.0012,-0.0009699999999999999,-0.00033999999999999997,-0.00011,-8e-05,5
17024,17911,-0.00015,-0.0003,-0.00047000000000000004,-0.0012,-0.0009699999999999999,-0.00033999999999999997,-0.00011,-8e-05,5
17025,17913,-0.00015,-0.0003,-0.00047000000000000004,-0.0012,-0.0009699999999999999,-0.00033999999999999997,-0.00011,-8e-05,5
17026,17914,-0.00015,-0.0003,-0.00047000000000000004,-0.0012,-0.0009699999999999999,-0.00033999999999999997,-0.00011,-8e-05,5
17027,17915,-0.00015,-0.0003,-0.00047000000000000004,-0.0012,-0.0009699999999999999,-0.00033999999999999997,-0.00011,-8e-05,5
17028,17916,2.9999999999999997e-05,-0.00011,-0.00013000000000000002,-0.00049,-0.00029,0.00016999999999999999,-5.9999999999999995e-05,-4e-05,5
17029,17917,0.00011999999999999999,0.00028,0.00041,0.0007099999999999999,0.00049,1e-05,-7e-05,4e-05,5
17030,17918,-2.9999999999999997e-05,-2.9999999999999997e-05,-4e-05,0.00047000000000000004,0.00032,5.9999999999999995e-05,-2.9999999999999997e-05,-2e-05,5
17031,17919,-2.9999999999999997e-05,-2.9999999999999997e-05,-4e-05,0.00047000000000000004,0.00032,5.9999999999999995e-05,-2.9999999999999997e-05,-2e-05,5
17032,17920,-2.9999999999999997e-05,-2.9999999999999997e-05,-4e-05,0.00047000000000000004,0.00032,5.9999999999999995e-05,-2.9999999999999997e-05,-2e-05,5
17033,17921,-2.9999999999999997e-05,-2.9999999999999997e-05,-4e-05,0.00047000000000000004,0.00032,5.9999999999999995e-05,-2.9999999999999997e-05,-2e-05,5
17034,17922,-2.9999999999999997e-05,-2.9999999999999997e-05,-4e-05,0.00047000000000000004,0.00032,5.9999999999999995e-05,-2.9999999999999997e-05,-2e-05,5
17035,17923,-2.9999999999999997e-05,-2.9999999999999997e-05,-4e-05,0.00047000000000000004,0.00032,5.9999999999999995e-05,-2.9999999999999997e-05,-2e-05,5
17036,17924,-2.9999999999999997e-05,-2.9999999999999997e-05,-4e-05,0.00047000000000000004,0.00032,5.9999999999999995e-05,-2.9999999999999997e-05,-2e-05,5
17037,17925,-2.9999999999999997e-05,-2.9999999999999997e-05,-4e-05,0.00047000000000000004,0.00032,5.9999999999999995e-05,-2.9999999999999997e-05,-2e-05,5
17038,17926,-2.9999999999999997e-05,-2.9999999999999997e-05,-4e-05,0.00047000000000000004,0.00032,5.9999999999999995e-05,-2.9999999999999997e-05,-2e-05,5
17039,17927,-2.9999999999999997e-05,-2.9999999999999997e-05,-4e-05,0.00047000000000000004,0.00032,5.9999999999999995e-05,-2.9999999999999997e-05,-2e-05,5
17040,17928,-2.9999999999999997e-05,-2.9999999999999997e-05,-4e-05,0.00047000000000000004,0.00032,5.9999999999999995e-05,-2.9999999999999997e-05,-2e-05,5
17041,17929,-2.9999999999999997e-05,-2.9999999999999997e-05,-4e-05,0.00047000000000000004,0.00032,5.9999999999999995e-05,-2.9999999999999997e-05,-2e-05,5
17042,17930,-2.9999999999999997e-05,-2.9999999999999997e-05,-4e-05,0.00047000000000000004,0.00032,5.9999999999999995e-05,-2.9999999999999997e-05,-2e-05,5
17043,17931,-2.9999999999999997e-05,-2.9999999999999997e-05,-4e-05,0.00047000000000000004,0.00032,5.9999999999999995e-05,-2.9999999999999997e-05,-2e-05,5
17044,17932,-2.9999999999999997e-05,-2.9999999999999997e-05,-4e-05,0.00047000000000000004,0.00032,5.9999999999999995e-05,-2.9999999999999997e-05,-2e-05,5
17045,17933,-2.9999999999999997e-05,-2.9999999999999997e-05,-4e-05,0.00047000000000000004,0.00032,5.9999999999999995e-05,-2.9999999999999997e-05,-2e-05,5
17046,17934,-2.9999999999999997e-05,-2.9999999999999997e-05,-4e-05,0.00047000000000000004,0.00032,5.9999999999999995e-05,-2.9999999999999997e-05,-2e-05,5
17047,17935,-2.9999999999999997e-05,-2.9999999999999997e-05,-4e-05,0.00047000000000000004,0.00032,5.9999999999999995e-05,-2.9999999999999997e-05,-2e-05,5
17048,17936,-2.9999999999999997e-05,-2.9999999999999997e-05,-4e-05,0.00047000000000000004,0.00032,5.9999999999999995e-05,-2.9999999999999997e-05,-2e-05,5
17049,17939,-2.9999999999999997e-05,4e-05,0.00013000000000000002,9e-05,-0.00027,0.00013000000000000002,8e-05,5e-05,5
17050,17940,-7e-05,-2e-05,2.9999999999999997e-05,0.00028,0.0004,-9e-05,-2.9999999999999997e-05,-5e-05,5
17051,17941,-0.00018999999999999998,-8e-05,-0.0001,7e-05,0.00011,-0.0001,-4e-05,0.0,5
17052,17942,-0.00018999999999999998,-8e-05,-0.0001,7e-05,0.00011,-0.0001,-4e-05,0.0,5
17053,17943,-0.00018999999999999998,-8e-05,-0.0001,7e-05,0.00011,-0.0001,-4e-05,0.0,5
17054,17944,-0.00018999999999999998,-8e-05,-0.0001,7e-05,0.00011,-0.0001,-4e-05,0.0,5
17055,17945,-0.00018999999999999998,-8e-05,-0.0001,7e-05,0.00011,-0.0001,-4e-05,0.0,5
17056,17946,-0.00018999999999999998,-8e-05,-0.0001,7e-05,0.00011,-0.0001,-4e-05,0.0,5
17057,17947,-0.00018999999999999998,-8e-05,-0.0001,7e-05,0.00011,-0.0001,-4e-05,0.0,5
17058,17948,-0.00018999999999999998,-8e-05,-0.0001,7e-05,0.00011,-0.0001,-4e-05,0.0,5
17059,17949,-0.00018999999999999998,-8e-05,-0.0001,7e-05,0.00011,-0.0001,-4e-05,0.0,5
17060,17950,-0.00018999999999999998,-8e-05,-0.0001,7e-05,0.00011,-0.0001,-4e-05,0.0,5
17061,17951,-0.00018999999999999998,-8e-05,-0.0001,7e-05,0.00011,-0.0001,-4e-05,0.0,5
17062,17952,-0.00018999999999999998,-8e-05,-0.0001,7e-05,0.00011,-0.0001,-4e-05,0.0,5
17063,17953,-0.00018999999999999998,-8e-05,-0.0001,7e-05,0.00011,-0.0001,-4e-05,0.0,5
17064,17954,5e-05,-9e-05,-1e-05,-0.00035,-0.00029,-0.00013000000000000002,1e-05,-1e-05,5
17065,17955,-7e-05,-2.9999999999999997e-05,-0.00016,-0.00026000000000000003,0.00036,-2e-05,-1e-05,-2e-05,5
17066,17956,-2.9999999999999997e-05,-7e-05,-5e-05,-0.00066,-0.00028,-2e-05,2.9999999999999997e-05,4e-05,5
17067,17957,-2.9999999999999997e-05,-7e-05,-5e-05,-0.00066,-0.00028,-2e-05,2.9999999999999997e-05,4e-05,5
17068,17958,-2.9999999999999997e-05,-7e-05,-5e-05,-0.00066,-0.00028,-2e-05,2.9999999999999997e-05,4e-05,5
17069,17959,-2.9999999999999997e-05,-7e-05,-5e-05,-0.00066,-0.00028,-2e-05,2.9999999999999997e-05,4e-05,5
17070,17960,-2.9999999999999997e-05,-7e-05,-5e-05,-0.00066,-0.00028,-2e-05,2.9999999999999997e-05,4e-05,5
17071,17961,-2.9999999999999997e-05,-7e-05,-5e-05,-0.00066,-0.00028,-2e-05,2.9999999999999997e-05,4e-05,5
17072,17962,-2.9999999999999997e-05,-7e-05,-5e-05,-0.00066,-0.00028,-2e-05,2.9999999999999997e-05,4e-05,5
17073,17963,-2.9999999999999997e-05,-7e-05,-5e-05,-0.00066,-0.00028,-2e-05,2.9999999999999997e-05,4e-05,5
17074,17964,-2.9999999999999997e-05,-7e-05,-5e-05,-0.00066,-0.00028,-2e-05,2.9999999999999997e-05,4e-05,5
17075,17965,-2.9999999999999997e-05,-7e-05,-5e-05,-0.00066,-0.00028,-2e-05,2.9999999999999997e-05,4e-05,5
17076,17966,-2.9999999999999997e-05,-7e-05,-5e-05,-0.00066,-0.00028,-2e-05,2.9999999999999997e-05,4e-05,5
17077,17967,-2.9999999999999997e-05,-7e-05,-5e-05,-0.00066,-0.00028,-2e-05,2.9999999999999997e-05,4e-05,5
17078,17968,-2.9999999999999997e-05,-7e-05,-5e-05,-0.00066,-0.00028,-2e-05,2.9999999999999997e-05,4e-05,5
17079,17969,-2.9999999999999997e-05,-7e-05,-5e-05,-0.00066,-0.00028,-2e-05,2.9999999999999997e-05,4e-05,5
17080,17970,-2.9999999999999997e-05,-7e-05,-5e-05,-0.00066,-0.00028,-2e-05,2.9999999999999997e-05,4e-05,5
17081,17971,-2.9999999999999997e-05,-7e-05,-5e-05,-0.00066,-0.00028,-2e-05,2.9999999999999997e-05,4e-05,5
17082,17972,-2.9999999999999997e-05,-7e-05,-5e-05,-0.00066,-0.00028,-2e-05,2.9999999999999997e-05,4e-05,5
17083,17973,-2.9999999999999997e-05,-7e-05,-5e-05,-0.00066,-0.00028,-2e-05,2.9999999999999997e-05,4e-05,5
17084,17974,-2.9999999999999997e-05,-7e-05,-5e-05,-0.00066,-0.00028,-2e-05,2.9999999999999997e-05,4e-05,5
17085,17975,-2.9999999999999997e-05,-7e-05,-5e-05,-0.00066,-0.00028,-2e-05,2.9999999999999997e-05,4e-05,5
17086,17976,-2.9999999999999997e-05,-7e-05,-5e-05,-0.00066,-0.00028,-2e-05,2.9999999999999997e-05,4e-05,5
17087,17977,0.0001,-5e-05,-0.00036,-0.00039,9e-05,4e-05,1e-05,-1e-05,5
17088,17978,0.0001,-5e-05,-0.00036,-0.00039,9e-05,4e-05,1e-05,-1e-05,5
17089,17979,-2e-05,0.00011999999999999999,0.0001,-0.00065,-0.00018,-0.00018,-0.0001,-8e-05,5
17090,17980,-2e-05,0.00011999999999999999,0.0001,-0.00065,-0.00018,-0.00018,-0.0001,-8e-05,5
17091,17981,-2e-05,0.00011999999999999999,0.0001,-0.00065,-0.00018,-0.00018,-0.0001,-8e-05,5
17092,17982,-2e-05,0.00011999999999999999,0.0001,-0.00065,-0.00018,-0.00018,-0.0001,-8e-05,5
17093,17983,-2e-05,0.00011999999999999999,0.0001,-0.00065,-0.00018,-0.00018,-0.0001,-8e-05,5
17094,17984,-2e-05,0.00011999999999999999,0.0001,-0.00065,-0.00018,-0.00018,-0.0001,-8e-05,5
17095,17985,-2e-05,0.00011999999999999999,0.0001,-0.00065,-0.00018,-0.00018,-0.0001,-8e-05,5
17096,17986,-2e-05,0.00011999999999999999,0.0001,-0.00065,-0.00018,-0.00018,-0.0001,-8e-05,5
17097,17988,-2e-05,0.00011999999999999999,0.0001,-0.00065,-0.00018,-0.00018,-0.0001,-8e-05,5
17098,17989,-2e-05,0.00011999999999999999,0.0001,-0.00065,-0.00018,-0.00018,-0.0001,-8e-05,5
17099,17990,-2e-05,0.00011999999999999999,0.0001,-0.00065,-0.00018,-0.00018,-0.0001,-8e-05,5
17100,17991,-2e-05,0.00011999999999999999,0.0001,-0.00065,-0.00018,-0.00018,-0.0001,-8e-05,5
17101,17992,-2e-05,0.00011999999999999999,0.0001,-0.00065,-0.00018,-0.00018,-0.0001,-8e-05,5
17102,17993,-2e-05,0.00011999999999999999,0.0001,-0.00065,-0.00018,-0.00018,-0.0001,-8e-05,5
17103,17994,-2e-05,0.00011999999999999999,0.0001,-0.00065,-0.00018,-0.00018,-0.0001,-8e-05,5
17104,17995,-2e-05,0.00011999999999999999,0.0001,-0.00065,-0.00018,-0.00018,-0.0001,-8e-05,5
17105,17996,-2e-05,0.00011999999999999999,0.0001,-0.00065,-0.00018,-0.00018,-0.0001,-8e-05,5
17106,17997,-2e-05,0.00011999999999999999,0.0001,-0.00065,-0.00018,-0.00018,-0.0001,-8e-05,5
17107,17998,-2e-05,0.00011999999999999999,0.0001,-0.00065,-0.00018,-0.00018,-0.0001,-8e-05,5
17108,17999,-0.00011999999999999999,-0.00011999999999999999,-5.9999999999999995e-05,-0.00055,5.9999999999999995e-05,7e-05,2.9999999999999997e-05,-1e-05,5
17109,18000,0.0,-7e-05,-0.00015,0.00067,-0.00081,-0.00037999999999999997,-0.00016999999999999999,-9e-05,5
17110,18001,-1e-05,1e-05,1e-05,0.0006,0.00033,-4e-05,-1e-05,-2e-05,5
17111,18002,-1e-05,1e-05,1e-05,0.0006,0.00033,-4e-05,-1e-05,-2e-05,5
17112,18003,-1e-05,1e-05,1e-05,0.0006,0.00033,-4e-05,-1e-05,-2e-05,5
17113,18004,-1e-05,1e-05,1e-05,0.0006,0.00033,-4e-05,-1e-05,-2e-05,5
17114,18005,-1e-05,1e-05,1e-05,0.0006,0.00033,-4e-05,-1e-05,-2e-05,5
17115,18006,-1e-05,1e-05,1e-05,0.0006,0.00033,-4e-05,-1e-05,-2e-05,5
17116,18007,-1e-05,1e-05,1e-05,0.0006,0.00033,-4e-05,-1e-05,-2e-05,5
17117,18008,-1e-05,1e-05,1e-05,0.0006,0.00033,-4e-05,-1e-05,-2e-05,5
17118,18009,-1e-05,1e-05,1e-05,0.0006,0.00033,-4e-05,-1e-05,-2e-05,5
17119,18010,-1e-05,1e-05,1e-05,0.0006,0.00033,-4e-05,-1e-05,-2e-05,5
17120,18011,-1e-05,1e-05,1e-05,0.0006,0.00033,-4e-05,-1e-05,-2e-05,5
17121,18012,-1e-05,1e-05,1e-05,0.0006,0.00033,-4e-05,-1e-05,-2e-05,5
17122,18013,-1e-05,1e-05,1e-05,0.0006,0.00033,-4e-05,-1e-05,-2e-05,5
17123,18014,-0.00044,-0.00014,-0.00011999999999999999,-0.0001,-0.00053,-4e-05,-0.00015,-0.0001,5
17124,18015,0.0003,5.9999999999999995e-05,-5e-05,-0.0006799999999999999,-0.00047000000000000004,-0.00016,-0.00018999999999999998,5.9999999999999995e-05,5
17125,18016,0.00011,1e-05,4e-05,0.00018999999999999998,0.00016999999999999999,0.00047999999999999996,0.00032,0.00016,5
17126,18017,0.00011,1e-05,4e-05,0.00018999999999999998,0.00016999999999999999,0.00047999999999999996,0.00032,0.00016,5
17127,18018,0.00011,1e-05,4e-05,0.00018999999999999998,0.00016999999999999999,0.00047999999999999996,0.00032,0.00016,5
17128,18019,0.00011,1e-05,4e-05,0.00018999999999999998,0.00016999999999999999,0.00047999999999999996,0.00032,0.00016,5
17129,18020,0.00011,1e-05,4e-05,0.00018999999999999998,0.00016999999999999999,0.00047999999999999996,0.00032,0.00016,5
17130,18021,0.00011,1e-05,4e-05,0.00018999999999999998,0.00016999999999999999,0.00047999999999999996,0.00032,0.00016,5
17131,18022,0.00011,1e-05,4e-05,0.00018999999999999998,0.00016999999999999999,0.00047999999999999996,0.00032,0.00016,5
17132,18023,0.00011,1e-05,4e-05,0.00018999999999999998,0.00016999999999999999,0.00047999999999999996,0.00032,0.00016,5
17133,18024,0.00011,1e-05,4e-05,0.00018999999999999998,0.00016999999999999999,0.00047999999999999996,0.00032,0.00016,5
17134,18025,0.00011,1e-05,4e-05,0.00018999999999999998,0.00016999999999999999,0.00047999999999999996,0.00032,0.00016,5
17135,18026,0.00011,1e-05,4e-05,0.00018999999999999998,0.00016999999999999999,0.00047999999999999996,0.00032,0.00016,5
17136,18027,0.00011,1e-05,4e-05,0.00018999999999999998,0.00016999999999999999,0.00047999999999999996,0.00032,0.00016,5
17137,18028,0.00011,1e-05,4e-05,0.00018999999999999998,0.00016999999999999999,0.00047999999999999996,0.00032,0.00016,5
17138,18029,0.00011,1e-05,4e-05,0.00018999999999999998,0.00016999999999999999,0.00047999999999999996,0.00032,0.00016,5
17139,18030,0.00011,1e-05,4e-05,0.00018999999999999998,0.00016999999999999999,0.00047999999999999996,0.00032,0.00016,5
17140,18031,0.00011,1e-05,4e-05,0.00018999999999999998,0.00016999999999999999,0.00047999999999999996,0.00032,0.00016,5
17141,18032,0.00011,1e-05,4e-05,0.00018999999999999998,0.00016999999999999999,0.00047999999999999996,0.00032,0.00016,5
17142,18033,0.00011,1e-05,4e-05,0.00018999999999999998,0.00016999999999999999,0.00047999999999999996,0.00032,0.00016,5
17143,18034,0.00011,1e-05,4e-05,0.00018999999999999998,0.00016999999999999999,0.00047999999999999996,0.00032,0.00016,5
17144,18035,0.00011,1e-05,4e-05,0.00018999999999999998,0.00016999999999999999,0.00047999999999999996,0.00032,0.00016,5
17145,18036,-0.00036,-9e-05,-8e-05,0.0006799999999999999,-0.00015,-0.00022999999999999998,-8e-05,-0.00013000000000000002,5
17146,18039,-0.00018,9e-05,-2.9999999999999997e-05,-0.0006900000000000001,2.9999999999999997e-05,-0.00035,-0.00011,-0.00013000000000000002,5
17147,18040,-0.00018,9e-05,-2.9999999999999997e-05,-0.0006900000000000001,2.9999999999999997e-05,-0.00035,-0.00011,-0.00013000000000000002,5
17148,18041,-0.00018,9e-05,-2.9999999999999997e-05,-0.0006900000000000001,2.9999999999999997e-05,-0.00035,-0.00011,-0.00013000000000000002,5
17149,18042,-0.00018,9e-05,-2.9999999999999997e-05,-0.0006900000000000001,2.9999999999999997e-05,-0.00035,-0.00011,-0.00013000000000000002,5
17150,18043,-0.00018,9e-05,-2.9999999999999997e-05,-0.0006900000000000001,2.9999999999999997e-05,-0.00035,-0.00011,-0.00013000000000000002,5
17151,18044,-0.00018,9e-05,-2.9999999999999997e-05,-0.0006900000000000001,2.9999999999999997e-05,-0.00035,-0.00011,-0.00013000000000000002,5
17152,18045,-0.00018,9e-05,-2.9999999999999997e-05,-0.0006900000000000001,2.9999999999999997e-05,-0.00035,-0.00011,-0.00013000000000000002,5
17153,18046,-0.00018,9e-05,-2.9999999999999997e-05,-0.0006900000000000001,2.9999999999999997e-05,-0.00035,-0.00011,-0.00013000000000000002,5
17154,18047,-0.00018,9e-05,-2.9999999999999997e-05,-0.0006900000000000001,2.9999999999999997e-05,-0.00035,-0.00011,-0.00013000000000000002,5
17155,18048,-0.00018,9e-05,-2.9999999999999997e-05,-0.0006900000000000001,2.9999999999999997e-05,-0.00035,-0.00011,-0.00013000000000000002,5
17156,18050,-0.00018,9e-05,-2.9999999999999997e-05,-0.0006900000000000001,2.9999999999999997e-05,-0.00035,-0.00011,-0.00013000000000000002,5
17157,18051,-0.00018,9e-05,-2.9999999999999997e-05,-0.0006900000000000001,2.9999999999999997e-05,-0.00035,-0.00011,-0.00013000000000000002,5
17158,18052,-0.00018,9e-05,-2.9999999999999997e-05,-0.0006900000000000001,2.9999999999999997e-05,-0.00035,-0.00011,-0.00013000000000000002,5
17159,18053,-0.00018,9e-05,-2.9999999999999997e-05,-0.0006900000000000001,2.9999999999999997e-05,-0.00035,-0.00011,-0.00013000000000000002,5
17160,18054,-0.00018,9e-05,-2.9999999999999997e-05,-0.0006900000000000001,2.9999999999999997e-05,-0.00035,-0.00011,-0.00013000000000000002,5
17161,18055,-0.00018,9e-05,-2.9999999999999997e-05,-0.0006900000000000001,2.9999999999999997e-05,-0.00035,-0.00011,-0.00013000000000000002,5
17162,18056,-0.00018,9e-05,-2.9999999999999997e-05,-0.0006900000000000001,2.9999999999999997e-05,-0.00035,-0.00011,-0.00013000000000000002,5
17163,18057,-0.00018,9e-05,-2.9999999999999997e-05,-0.0006900000000000001,2.9999999999999997e-05,-0.00035,-0.00011,-0.00013000000000000002,5
17164,18058,-0.00018,9e-05,-2.9999999999999997e-05,-0.0006900000000000001,2.9999999999999997e-05,-0.00035,-0.00011,-0.00013000000000000002,5
17165,18059,-5e-05,-9e-05,-0.00013000000000000002,-0.00023999999999999998,0.00011,0.00018,0.00016,1e-05,5
17166,18060,1e-05,0.00011,0.00033999999999999997,0.00058,0.00014,-1e-05,5e-05,2e-05,5
17167,18061,7e-05,-2.9999999999999997e-05,-0.00023999999999999998,-0.00023999999999999998,-5.9999999999999995e-05,0.0,-0.00011,0.0,5
17168,18062,7e-05,-2.9999999999999997e-05,-0.00023999999999999998,-0.00023999999999999998,-5.9999999999999995e-05,0.0,-0.00011,0.0,5
17169,18063,7e-05,-2.9999999999999997e-05,-0.00023999999999999998,-0.00023999999999999998,-5.9999999999999995e-05,0.0,-0.00011,0.0,5
17170,18064,7e-05,-2.9999999999999997e-05,-0.00023999999999999998,-0.00023999999999999998,-5.9999999999999995e-05,0.0,-0.00011,0.0,5
17171,18065,7e-05,-2.9999999999999997e-05,-0.00023999999999999998,-0.00023999999999999998,-5.9999999999999995e-05,0.0,-0.00011,0.0,5
17172,18066,7e-05,-2.9999999999999997e-05,-0.00023999999999999998,-0.00023999999999999998,-5.9999999999999995e-05,0.0,-0.00011,0.0,5
17173,18067,7e-05,-2.9999999999999997e-05,-0.00023999999999999998,-0.00023999999999999998,-5.9999999999999995e-05,0.0,-0.00011,0.0,5
17174,18068,7e-05,-2.9999999999999997e-05,-0.00023999999999999998,-0.00023999999999999998,-5.9999999999999995e-05,0.0,-0.00011,0.0,5
17175,18069,7e-05,-2.9999999999999997e-05,-0.00023999999999999998,-0.00023999999999999998,-5.9999999999999995e-05,0.0,-0.00011,0.0,5
17176,18070,7e-05,-2.9999999999999997e-05,-0.00023999999999999998,-0.00023999999999999998,-5.9999999999999995e-05,0.0,-0.00011,0.0,5
17177,18071,7e-05,-2.9999999999999997e-05,-0.00023999999999999998,-0.00023999999999999998,-5.9999999999999995e-05,0.0,-0.00011,0.0,5
17178,18072,7e-05,-2.9999999999999997e-05,-0.00023999999999999998,-0.00023999999999999998,-5.9999999999999995e-05,0.0,-0.00011,0.0,5
17179,18073,2e-05,-0.00014,-0.00011,1e-05,-0.0001,-4e-05,-7e-05,-5e-05,5
17180,18074,2e-05,-0.00014,-0.00011,1e-05,-0.0001,-4e-05,-7e-05,-5e-05,5
17181,18075,2e-05,-0.00014,-0.00011,1e-05,-0.0001,-4e-05,-7e-05,-5e-05,5
17182,18076,2e-05,-0.00014,-0.00011,1e-05,-0.0001,-4e-05,-7e-05,-5e-05,5
17183,18077,2e-05,-0.00014,-0.00011,1e-05,-0.0001,-4e-05,-7e-05,-5e-05,5
17184,18078,2e-05,-0.00014,-0.00011,1e-05,-0.0001,-4e-05,-7e-05,-5e-05,5
17185,18079,2e-05,-0.00014,-0.00011,1e-05,-0.0001,-4e-05,-7e-05,-5e-05,5
17186,18080,0.00013000000000000002,4e-05,-0.00018,-1e-05,-1e-05,4e-05,-7e-05,1e-05,5
17187,18081,0.00013000000000000002,4e-05,-0.00018,-1e-05,-1e-05,4e-05,-7e-05,1e-05,5
17188,18082,0.00013000000000000002,4e-05,-0.00018,-1e-05,-1e-05,4e-05,-7e-05,1e-05,5
17189,18083,0.00013000000000000002,4e-05,-0.00018,-1e-05,-1e-05,4e-05,-7e-05,1e-05,5
17190,18084,0.00013000000000000002,4e-05,-0.00018,-1e-05,-1e-05,4e-05,-7e-05,1e-05,5
17191,18085,0.00013000000000000002,4e-05,-0.00018,-1e-05,-1e-05,4e-05,-7e-05,1e-05,5
17192,18086,0.00013000000000000002,4e-05,-0.00018,-1e-05,-1e-05,4e-05,-7e-05,1e-05,5
17193,18088,0.00013000000000000002,4e-05,-0.00018,-1e-05,-1e-05,4e-05,-7e-05,1e-05,5
17194,18089,0.00013000000000000002,4e-05,-0.00018,-1e-05,-1e-05,4e-05,-7e-05,1e-05,5
17195,18090,0.00013000000000000002,4e-05,-0.00018,-1e-05,-1e-05,4e-05,-7e-05,1e-05,5
17196,18091,0.00013000000000000002,4e-05,-0.00018,-1e-05,-1e-05,4e-05,-7e-05,1e-05,5
17197,18092,0.00013000000000000002,4e-05,-0.00018,-1e-05,-1e-05,4e-05,-7e-05,1e-05,5
17198,18093,0.00013000000000000002,4e-05,-0.00018,-1e-05,-1e-05,4e-05,-7e-05,1e-05,5
17199,18094,0.00013000000000000002,4e-05,-0.00018,-1e-05,-1e-05,4e-05,-7e-05,1e-05,5
17200,18095,0.00013000000000000002,4e-05,-0.00018,-1e-05,-1e-05,4e-05,-7e-05,1e-05,5
17201,18096,-0.00018999999999999998,-0.00015,-0.00011999999999999999,-0.00041,-0.00041,-0.00016,-0.00016,-5.9999999999999995e-05,5
17202,18097,0.00011,0.00015,-1e-05,-0.00028,-0.00072,-7e-05,0.0,4e-05,5
17203,18098,-0.00016,0.0,4e-05,-0.00011,0.0001,-4e-05,-5.9999999999999995e-05,-8e-05,5
17204,18099,-0.00016,0.0,4e-05,-0.00011,0.0001,-4e-05,-5.9999999999999995e-05,-8e-05,5
17205,18100,-0.00016,0.0,4e-05,-0.00011,0.0001,-4e-05,-5.9999999999999995e-05,-8e-05,5
17206,18101,-0.00016,0.0,4e-05,-0.00011,0.0001,-4e-05,-5.9999999999999995e-05,-8e-05,5
17207,18102,-0.00016,0.0,4e-05,-0.00011,0.0001,-4e-05,-5.9999999999999995e-05,-8e-05,5
17208,18103,-0.00016,0.0,4e-05,-0.00011,0.0001,-4e-05,-5.9999999999999995e-05,-8e-05,5
17209,18104,-0.00016,0.0,4e-05,-0.00011,0.0001,-4e-05,-5.9999999999999995e-05,-8e-05,5
17210,18105,-0.00016,0.0,4e-05,-0.00011,0.0001,-4e-05,-5.9999999999999995e-05,-8e-05,5
17211,18106,-0.00016,0.0,4e-05,-0.00011,0.0001,-4e-05,-5.9999999999999995e-05,-8e-05,5
17212,18107,-0.00016,0.0,4e-05,-0.00011,0.0001,-4e-05,-5.9999999999999995e-05,-8e-05,5
17213,18108,-0.00016,0.0,4e-05,-0.00011,0.0001,-4e-05,-5.9999999999999995e-05,-8e-05,5
17214,18109,-0.00016,0.0,4e-05,-0.00011,0.0001,-4e-05,-5.9999999999999995e-05,-8e-05,5
17215,18110,-0.00016,0.0,4e-05,-0.00011,0.0001,-4e-05,-5.9999999999999995e-05,-8e-05,5
17216,18111,-0.00016,0.0,4e-05,-0.00011,0.0001,-4e-05,-5.9999999999999995e-05,-8e-05,5
17217,18112,-0.00016,0.0,4e-05,-0.00011,0.0001,-4e-05,-5.9999999999999995e-05,-8e-05,5
17218,18113,-0.00016,0.0,4e-05,-0.00011,0.0001,-4e-05,-5.9999999999999995e-05,-8e-05,5
17219,18114,-0.00016,0.0,4e-05,-0.00011,0.0001,-4e-05,-5.9999999999999995e-05,-8e-05,5
17220,18115,-0.00016,0.0,4e-05,-0.00011,0.0001,-4e-05,-5.9999999999999995e-05,-8e-05,5
17221,18116,-0.00016,0.0,4e-05,-0.00011,0.0001,-4e-05,-5.9999999999999995e-05,-8e-05,5
17222,18117,-0.00016,0.0,4e-05,-0.00011,0.0001,-4e-05,-5.9999999999999995e-05,-8e-05,5
17223,18118,-0.00016,0.0,4e-05,-0.00011,0.0001,-4e-05,-5.9999999999999995e-05,-8e-05,5
17224,18119,2e-05,2e-05,4e-05,0.00064,0.00022999999999999998,4e-05,2.9999999999999997e-05,5e-05,5
17225,18120,-8e-05,5.9999999999999995e-05,-0.00011999999999999999,-0.00045,-0.00042,-0.00013000000000000002,-5e-05,-4e-05,5
17226,18121,-5e-05,4e-05,0.0002,0.00057,5e-05,0.00023999999999999998,0.00014,5e-05,5
17227,18122,-5e-05,4e-05,0.0002,0.00057,5e-05,0.00023999999999999998,0.00014,5e-05,5
17228,18123,-5e-05,4e-05,0.0002,0.00057,5e-05,0.00023999999999999998,0.00014,5e-05,5
17229,18124,-5e-05,4e-05,0.0002,0.00057,5e-05,0.00023999999999999998,0.00014,5e-05,5
17230,18125,-5e-05,4e-05,0.0002,0.00057,5e-05,0.00023999999999999998,0.00014,5e-05,5
17231,18126,-5e-05,4e-05,0.0002,0.00057,5e-05,0.00023999999999999998,0.00014,5e-05,5
17232,18127,-5e-05,4e-05,0.0002,0.00057,5e-05,0.00023999999999999998,0.00014,5e-05,5
17233,18128,-5e-05,4e-05,0.0002,0.00057,5e-05,0.00023999999999999998,0.00014,5e-05,5
17234,18129,-5e-05,4e-05,0.0002,0.00057,5e-05,0.00023999999999999998,0.00014,5e-05,5
17235,18130,-5e-05,4e-05,0.0002,0.00057,5e-05,0.00023999999999999998,0.00014,5e-05,5
17236,18131,-5e-05,4e-05,0.0002,0.00057,5e-05,0.00023999999999999998,0.00014,5e-05,5
17237,18132,-5e-05,4e-05,0.0002,0.00057,5e-05,0.00023999999999999998,0.00014,5e-05,5
17238,18133,1e-05,-9e-05,-0.00015,0.00028,0.00075,-0.00029,-2e-05,-8e-05,5
17239,18134,1e-05,-9e-05,-0.00015,0.00028,0.00075,-0.00029,-2e-05,-8e-05,5
17240,18136,1e-05,-9e-05,-0.00015,0.00028,0.00075,-0.00029,-2e-05,-8e-05,5
17241,18137,1e-05,-9e-05,-0.00015,0.00028,0.00075,-0.00029,-2e-05,-8e-05,5
17242,18138,1e-05,-9e-05,-0.00015,0.00028,0.00075,-0.00029,-2e-05,-8e-05,5
17243,18139,1e-05,-9e-05,-0.00015,0.00028,0.00075,-0.00029,-2e-05,-8e-05,5
17244,18140,-2.9999999999999997e-05,2.9999999999999997e-05,-5e-05,-0.0005099999999999999,-0.00039,0.00029,0.0,1e-05,5
17245,18141,-2.9999999999999997e-05,2.9999999999999997e-05,-5e-05,-0.0005099999999999999,-0.00039,0.00029,0.0,1e-05,5
17246,18142,-2.9999999999999997e-05,2.9999999999999997e-05,-5e-05,-0.0005099999999999999,-0.00039,0.00029,0.0,1e-05,5
17247,18143,-2.9999999999999997e-05,2.9999999999999997e-05,-5e-05,-0.0005099999999999999,-0.00039,0.00029,0.0,1e-05,5
17248,18144,-2.9999999999999997e-05,2.9999999999999997e-05,-5e-05,-0.0005099999999999999,-0.00039,0.00029,0.0,1e-05,5
17249,18145,-2.9999999999999997e-05,2.9999999999999997e-05,-5e-05,-0.0005099999999999999,-0.00039,0.00029,0.0,1e-05,5
17250,18146,-2.9999999999999997e-05,2.9999999999999997e-05,-5e-05,-0.0005099999999999999,-0.00039,0.00029,0.0,1e-05,5
17251,18147,-2.9999999999999997e-05,2.9999999999999997e-05,-5e-05,-0.0005099999999999999,-0.00039,0.00029,0.0,1e-05,5
17252,18148,-2.9999999999999997e-05,2.9999999999999997e-05,-5e-05,-0.0005099999999999999,-0.00039,0.00029,0.0,1e-05,5
17253,18149,-2.9999999999999997e-05,2.9999999999999997e-05,-5e-05,-0.0005099999999999999,-0.00039,0.00029,0.0,1e-05,5
17254,18150,-2.9999999999999997e-05,2.9999999999999997e-05,-5e-05,-0.0005099999999999999,-0.00039,0.00029,0.0,1e-05,5
17255,18151,-2.9999999999999997e-05,2.9999999999999997e-05,-5e-05,-0.0005099999999999999,-0.00039,0.00029,0.0,1e-05,5
17256,18152,-2.9999999999999997e-05,2.9999999999999997e-05,-5e-05,-0.0005099999999999999,-0.00039,0.00029,0.0,1e-05,5
17257,18153,-2.9999999999999997e-05,2.9999999999999997e-05,-5e-05,-0.0005099999999999999,-0.00039,0.00029,0.0,1e-05,5
17258,18154,-2.9999999999999997e-05,2.9999999999999997e-05,-5e-05,-0.0005099999999999999,-0.00039,0.00029,0.0,1e-05,5
17259,18155,-2.9999999999999997e-05,2.9999999999999997e-05,-5e-05,-0.0005099999999999999,-0.00039,0.00029,0.0,1e-05,5
17260,18156,2.9999999999999997e-05,0.0,4e-05,0.0008300000000000001,0.00053,1e-05,5e-05,-5.9999999999999995e-05,5
17261,18157,-1e-05,4e-05,0.00018,-9e-05,-0.00037999999999999997,5e-05,-5.9999999999999995e-05,-2.9999999999999997e-05,5
17262,18158,-4e-05,-0.00021,-0.00011,-0.00078,-0.0006900000000000001,-0.00016999999999999999,-1e-05,-4e-05,5
17263,18159,-4e-05,-0.00021,-0.00011,-0.00078,-0.0006900000000000001,-0.00016999999999999999,-1e-05,-4e-05,5
17264,18160,-4e-05,-0.00021,-0.00011,-0.00078,-0.0006900000000000001,-0.00016999999999999999,-1e-05,-4e-05,5
17265,18161,-4e-05,-0.00021,-0.00011,-0.00078,-0.0006900000000000001,-0.00016999999999999999,-1e-05,-4e-05,5
17266,18162,-4e-05,-0.00021,-0.00011,-0.00078,-0.0006900000000000001,-0.00016999999999999999,-1e-05,-4e-05,5
17267,18163,-4e-05,-0.00021,-0.00011,-0.00078,-0.0006900000000000001,-0.00016999999999999999,-1e-05,-4e-05,5
17268,18164,-4e-05,-0.00021,-0.00011,-0.00078,-0.0006900000000000001,-0.00016999999999999999,-1e-05,-4e-05,5
17269,18165,-4e-05,-0.00021,-0.00011,-0.00078,-0.0006900000000000001,-0.00016999999999999999,-1e-05,-4e-05,5
17270,18166,-4e-05,-0.00021,-0.00011,-0.00078,-0.0006900000000000001,-0.00016999999999999999,-1e-05,-4e-05,5
17271,18167,-4e-05,-0.00021,-0.00011,-0.00078,-0.0006900000000000001,-0.00016999999999999999,-1e-05,-4e-05,5
17272,18168,-4e-05,-0.00021,-0.00011,-0.00078,-0.0006900000000000001,-0.00016999999999999999,-1e-05,-4e-05,5
17273,18169,-4e-05,-0.00021,-0.00011,-0.00078,-0.0006900000000000001,-0.00016999999999999999,-1e-05,-4e-05,5
17274,18170,-4e-05,-0.00021,-0.00011,-0.00078,-0.0006900000000000001,-0.00016999999999999999,-1e-05,-4e-05,5
17275,18171,-4e-05,-0.00021,-0.00011,-0.00078,-0.0006900000000000001,-0.00016999999999999999,-1e-05,-4e-05,5
17276,18172,-4e-05,-0.00021,-0.00011,-0.00078,-0.0006900000000000001,-0.00016999999999999999,-1e-05,-4e-05,5
17277,18173,-4e-05,-0.00021,-0.00011,-0.00078,-0.0006900000000000001,-0.00016999999999999999,-1e-05,-4e-05,5
17278,18174,-4e-05,-0.00021,-0.00011,-0.00078,-0.0006900000000000001,-0.00016999999999999999,-1e-05,-4e-05,5
17279,18175,-4e-05,-0.00021,-0.00011,-0.00078,-0.0006900000000000001,-0.00016999999999999999,-1e-05,-4e-05,5
17280,18176,-4e-05,-0.00021,-0.00011,-0.00078,-0.0006900000000000001,-0.00016999999999999999,-1e-05,-4e-05,5
17281,18177,-4e-05,-0.00021,-0.00011,-0.00078,-0.0006900000000000001,-0.00016999999999999999,-1e-05,-4e-05,5
17282,18178,-4e-05,-0.00021,-0.00011,-0.00078,-0.0006900000000000001,-0.00016999999999999999,-1e-05,-4e-05,5
17283,18179,4e-05,4e-05,0.00013000000000000002,-0.00049,-0.00021,5.9999999999999995e-05,9e-05,8e-05,5
17284,18180,-0.00032,0.00013000000000000002,0.00028,0.0008300000000000001,0.00047999999999999996,0.00018999999999999998,0.0001,2.9999999999999997e-05,5
17285,18181,0.00041,0.0003,0.00022,1e-05,-9e-05,-5e-05,-2e-05,0.00011,5
17286,18182,0.00041,0.0003,0.00022,1e-05,-9e-05,-5e-05,-2e-05,0.00011,5
17287,18183,0.00041,0.0003,0.00022,1e-05,-9e-05,-5e-05,-2e-05,0.00011,5
17288,18184,0.00041,0.0003,0.00022,1e-05,-9e-05,-5e-05,-2e-05,0.00011,5
17289,18185,0.00041,0.0003,0.00022,1e-05,-9e-05,-5e-05,-2e-05,0.00011,5
17290,18186,0.00041,0.0003,0.00022,1e-05,-9e-05,-5e-05,-2e-05,0.00011,5
17291,18188,0.00041,0.0003,0.00022,1e-05,-9e-05,-5e-05,-2e-05,0.00011,5
17292,18189,0.00041,0.0003,0.00022,1e-05,-9e-05,-5e-05,-2e-05,0.00011,5
17293,18190,0.00041,0.0003,0.00022,1e-05,-9e-05,-5e-05,-2e-05,0.00011,5
17294,18191,0.00041,0.0003,0.00022,1e-05,-9e-05,-5e-05,-2e-05,0.00011,5
17295,18192,0.00041,0.0003,0.00022,1e-05,-9e-05,-5e-05,-2e-05,0.00011,5
17296,18193,0.00022999999999999998,9e-05,0.0002,0.00018,0.0009,0.00041,0.0002,8e-05,5
17297,18194,0.00022999999999999998,9e-05,0.0002,0.00018,0.0009,0.00041,0.0002,8e-05,5
17298,18195,0.00022999999999999998,9e-05,0.0002,0.00018,0.0009,0.00041,0.0002,8e-05,5
17299,18196,0.00022999999999999998,9e-05,0.0002,0.00018,0.0009,0.00041,0.0002,8e-05,5
17300,18197,0.00022999999999999998,9e-05,0.0002,0.00018,0.0009,0.00041,0.0002,8e-05,5
17301,18198,0.00022999999999999998,9e-05,0.0002,0.00018,0.0009,0.00041,0.0002,8e-05,5
17302,18199,0.00022999999999999998,9e-05,0.0002,0.00018,0.0009,0.00041,0.0002,8e-05,5
17303,18200,-1e-05,-2.9999999999999997e-05,0.0001,0.00075,-8e-05,-0.00011,2.9999999999999997e-05,-2e-05,5
17304,18201,-1e-05,-2.9999999999999997e-05,0.0001,0.00075,-8e-05,-0.00011,2.9999999999999997e-05,-2e-05,5
17305,18202,-1e-05,-2.9999999999999997e-05,0.0001,0.00075,-8e-05,-0.00011,2.9999999999999997e-05,-2e-05,5
17306,18203,-1e-05,-2.9999999999999997e-05,0.0001,0.00075,-8e-05,-0.00011,2.9999999999999997e-05,-2e-05,5
17307,18204,-1e-05,-2.9999999999999997e-05,0.0001,0.00075,-8e-05,-0.00011,2.9999999999999997e-05,-2e-05,5
17308,18205,-1e-05,-2.9999999999999997e-05,0.0001,0.00075,-8e-05,-0.00011,2.9999999999999997e-05,-2e-05,5
17309,18206,-1e-05,-2.9999999999999997e-05,0.0001,0.00075,-8e-05,-0.00011,2.9999999999999997e-05,-2e-05,5
17310,18207,-1e-05,-2.9999999999999997e-05,0.0001,0.00075,-8e-05,-0.00011,2.9999999999999997e-05,-2e-05,5
17311,18208,-1e-05,-2.9999999999999997e-05,0.0001,0.00075,-8e-05,-0.00011,2.9999999999999997e-05,-2e-05,5
17312,18209,-1e-05,-2.9999999999999997e-05,0.0001,0.00075,-8e-05,-0.00011,2.9999999999999997e-05,-2e-05,5
17313,18210,-1e-05,-2.9999999999999997e-05,0.0001,0.00075,-8e-05,-0.00011,2.9999999999999997e-05,-2e-05,5
17314,18212,-1e-05,-2.9999999999999997e-05,0.0001,0.00075,-8e-05,-0.00011,2.9999999999999997e-05,-2e-05,5
17315,18213,-1e-05,-2.9999999999999997e-05,0.0001,0.00075,-8e-05,-0.00011,2.9999999999999997e-05,-2e-05,5
17316,18214,-1e-05,-2.9999999999999997e-05,0.0001,0.00075,-8e-05,-0.00011,2.9999999999999997e-05,-2e-05,5
17317,18215,-1e-05,-2.9999999999999997e-05,0.0001,0.00075,-8e-05,-0.00011,2.9999999999999997e-05,-2e-05,5
17318,18216,2e-05,0.00015,0.0,0.00032,0.0007599999999999999,0.00021,9e-05,5e-05,5
17319,18217,0.0,-5.9999999999999995e-05,5.9999999999999995e-05,-0.00031,-0.00033,-1e-05,-2e-05,-4e-05,5
17320,18218,-0.00015,-0.0002,-0.00014,0.0011300000000000001,9e-05,-0.00032,2.9999999999999997e-05,-9e-05,5
17321,18219,-0.00015,-0.0002,-0.00014,0.0011300000000000001,9e-05,-0.00032,2.9999999999999997e-05,-9e-05,5
17322,18220,-0.00015,-0.0002,-0.00014,0.0011300000000000001,9e-05,-0.00032,2.9999999999999997e-05,-9e-05,5
17323,18221,-0.00015,-0.0002,-0.00014,0.0011300000000000001,9e-05,-0.00032,2.9999999999999997e-05,-9e-05,5
17324,18222,-0.00015,-0.0002,-0.00014,0.0011300000000000001,9e-05,-0.00032,2.9999999999999997e-05,-9e-05,5
17325,18223,-0.00015,-0.0002,-0.00014,0.0011300000000000001,9e-05,-0.00032,2.9999999999999997e-05,-9e-05,5
17326,18224,-0.00015,-0.0002,-0.00014,0.0011300000000000001,9e-05,-0.00032,2.9999999999999997e-05,-9e-05,5
17327,18225,-0.00015,-0.0002,-0.00014,0.0011300000000000001,9e-05,-0.00032,2.9999999999999997e-05,-9e-05,5
17328,18226,-0.00015,-0.0002,-0.00014,0.0011300000000000001,9e-05,-0.00032,2.9999999999999997e-05,-9e-05,5
17329,18227,-0.00015,-0.0002,-0.00014,0.0011300000000000001,9e-05,-0.00032,2.9999999999999997e-05,-9e-05,5
17330,18228,-0.00015,-0.0002,-0.00014,0.0011300000000000001,9e-05,-0.00032,2.9999999999999997e-05,-9e-05,5
17331,18229,-0.00015,-0.0002,-0.00014,0.0011300000000000001,9e-05,-0.00032,2.9999999999999997e-05,-9e-05,5
17332,18230,-0.00015,-0.0002,-0.00014,0.0011300000000000001,9e-05,-0.00032,2.9999999999999997e-05,-9e-05,5
17333,18231,-0.00015,-0.0002,-0.00014,0.0011300000000000001,9e-05,-0.00032,2.9999999999999997e-05,-9e-05,5
17334,18232,-0.00015,-0.0002,-0.00014,0.0011300000000000001,9e-05,-0.00032,2.9999999999999997e-05,-9e-05,5
17335,18233,-0.00015,-0.0002,-0.00014,0.0011300000000000001,9e-05,-0.00032,2.9999999999999997e-05,-9e-05,5
17336,18234,-0.00015,-0.0002,-0.00014,0.0011300000000000001,9e-05,-0.00032,2.9999999999999997e-05,-9e-05,5
17337,18235,-0.00015,-0.0002,-0.00014,0.0011300000000000001,9e-05,-0.00032,2.9999999999999997e-05,-9e-05,5
17338,18236,-0.00015,-0.0002,-0.00014,0.0011300000000000001,9e-05,-0.00032,2.9999999999999997e-05,-9e-05,5
17339,18239,-2.9999999999999997e-05,0.00018999999999999998,0.00018999999999999998,0.0002,5.9999999999999995e-05,0.00018,2e-05,0.0,5
17340,18240,5e-05,-2e-05,-2e-05,0.00015,0.00018999999999999998,-0.00022999999999999998,-9e-05,-5e-05,5
17341,18241,-0.00015,-8e-05,-0.00011999999999999999,-0.00029,0.0003,-7e-05,-7e-05,-4e-05,5
17342,18242,-0.00015,-8e-05,-0.00011999999999999999,-0.00029,0.0003,-7e-05,-7e-05,-4e-05,5
17343,18243,-0.00015,-8e-05,-0.00011999999999999999,-0.00029,0.0003,-7e-05,-7e-05,-4e-05,5
17344,18244,-0.00015,-8e-05,-0.00011999999999999999,-0.00029,0.0003,-7e-05,-7e-05,-4e-05,5
17345,18245,-0.00015,-8e-05,-0.00011999999999999999,-0.00029,0.0003,-7e-05,-7e-05,-4e-05,5
17346,18246,-0.00015,-8e-05,-0.00011999999999999999,-0.00029,0.0003,-7e-05,-7e-05,-4e-05,5
17347,18247,-0.00015,-8e-05,-0.00011999999999999999,-0.00029,0.0003,-7e-05,-7e-05,-4e-05,5
17348,18248,-0.00015,-8e-05,-0.00011999999999999999,-0.00029,0.0003,-7e-05,-7e-05,-4e-05,5
17349,18249,-0.00015,-8e-05,-0.00011999999999999999,-0.00029,0.0003,-7e-05,-7e-05,-4e-05,5
17350,18250,-0.00015,-8e-05,-0.00011999999999999999,-0.00029,0.0003,-7e-05,-7e-05,-4e-05,5
17351,18251,-0.00015,-8e-05,-0.00011999999999999999,-0.00029,0.0003,-7e-05,-7e-05,-4e-05,5
17352,18252,-0.00015,-8e-05,-0.00011999999999999999,-0.00029,0.0003,-7e-05,-7e-05,-4e-05,5
17353,18253,-0.0001,-2e-05,0.00011,0.00054,0.0006,0.00022999999999999998,0.00015,-1e-05,5
17354,18254,-0.0001,-2e-05,0.00011,0.00054,0.0006,0.00022999999999999998,0.00015,-1e-05,5
17355,18255,-0.0001,-2e-05,0.00011,0.00054,0.0006,0.00022999999999999998,0.00015,-1e-05,5
17356,18256,-0.0001,-2e-05,0.00011,0.00054,0.0006,0.00022999999999999998,0.00015,-1e-05,5
17357,18257,-0.0001,-2e-05,0.00011,0.00054,0.0006,0.00022999999999999998,0.00015,-1e-05,5
17358,18258,-0.0001,-2e-05,0.00011,0.00054,0.0006,0.00022999999999999998,0.00015,-1e-05,5
17359,18259,-0.0001,-2e-05,0.00011,0.00054,0.0006,0.00022999999999999998,0.00015,-1e-05,5
17360,18260,0.00032,-9e-05,-8e-05,0.0004,0.00053,-0.00011999999999999999,8e-05,0.00015,5
17361,18261,0.00032,-9e-05,-8e-05,0.0004,0.00053,-0.00011999999999999999,8e-05,0.00015,5
17362,18262,0.00032,-9e-05,-8e-05,0.0004,0.00053,-0.00011999999999999999,8e-05,0.00015,5
17363,18263,0.00032,-9e-05,-8e-05,0.0004,0.00053,-0.00011999999999999999,8e-05,0.00015,5
17364,18264,0.00032,-9e-05,-8e-05,0.0004,0.00053,-0.00011999999999999999,8e-05,0.00015,5
17365,18265,0.00032,-9e-05,-8e-05,0.0004,0.00053,-0.00011999999999999999,8e-05,0.00015,5
17366,18266,0.00032,-9e-05,-8e-05,0.0004,0.00053,-0.00011999999999999999,8e-05,0.00015,5
17367,18267,0.00032,-9e-05,-8e-05,0.0004,0.00053,-0.00011999999999999999,8e-05,0.00015,5
17368,18268,0.00032,-9e-05,-8e-05,0.0004,0.00053,-0.00011999999999999999,8e-05,0.00015,5
17369,18269,0.00032,-9e-05,-8e-05,0.0004,0.00053,-0.00011999999999999999,8e-05,0.00015,5
17370,18270,0.00032,-9e-05,-8e-05,0.0004,0.00053,-0.00011999999999999999,8e-05,0.00015,5
17371,18271,0.00032,-9e-05,-8e-05,0.0004,0.00053,-0.00011999999999999999,8e-05,0.00015,5
17372,18272,0.00032,-9e-05,-8e-05,0.0004,0.00053,-0.00011999999999999999,8e-05,0.00015,5
17373,18273,0.00032,-9e-05,-8e-05,0.0004,0.00053,-0.00011999999999999999,8e-05,0.00015,5
17374,18274,0.00032,-9e-05,-8e-05,0.0004,0.00053,-0.00011999999999999999,8e-05,0.00015,5
17375,18275,0.00032,-9e-05,-8e-05,0.0004,0.00053,-0.00011999999999999999,8e-05,0.00015,5
17376,18276,0.0005,0.00043,0.00023999999999999998,0.00018,-0.00022,-0.00011,0.0,0.0001,5
17377,18277,0.0005,0.00043,0.00023999999999999998,0.00018,-0.00022,-0.00011,0.0,0.0001,5
17378,18278,-0.00033999999999999997,-7e-05,0.00014,0.00058,0.0003,0.00013000000000000002,-0.00013000000000000002,-0.00015,5
17379,18279,-0.00033999999999999997,-7e-05,0.00014,0.00058,0.0003,0.00013000000000000002,-0.00013000000000000002,-0.00015,5
17380,18280,-0.00033999999999999997,-7e-05,0.00014,0.00058,0.0003,0.00013000000000000002,-0.00013000000000000002,-0.00015,5
17381,18281,-0.00033999999999999997,-7e-05,0.00014,0.00058,0.0003,0.00013000000000000002,-0.00013000000000000002,-0.00015,5
17382,18282,-0.00033999999999999997,-7e-05,0.00014,0.00058,0.0003,0.00013000000000000002,-0.00013000000000000002,-0.00015,5
17383,18283,-0.00033999999999999997,-7e-05,0.00014,0.00058,0.0003,0.00013000000000000002,-0.00013000000000000002,-0.00015,5
17384,18284,-0.00033999999999999997,-7e-05,0.00014,0.00058,0.0003,0.00013000000000000002,-0.00013000000000000002,-0.00015,5
17385,18285,-0.00033999999999999997,-7e-05,0.00014,0.00058,0.0003,0.00013000000000000002,-0.00013000000000000002,-0.00015,5
17386,18286,-0.00033999999999999997,-7e-05,0.00014,0.00058,0.0003,0.00013000000000000002,-0.00013000000000000002,-0.00015,5
17387,18288,-0.00033999999999999997,-7e-05,0.00014,0.00058,0.0003,0.00013000000000000002,-0.00013000000000000002,-0.00015,5
17388,18289,-0.00033999999999999997,-7e-05,0.00014,0.00058,0.0003,0.00013000000000000002,-0.00013000000000000002,-0.00015,5
17389,18290,-0.00033999999999999997,-7e-05,0.00014,0.00058,0.0003,0.00013000000000000002,-0.00013000000000000002,-0.00015,5
17390,18291,-0.00033999999999999997,-7e-05,0.00014,0.00058,0.0003,0.00013000000000000002,-0.00013000000000000002,-0.00015,5
17391,18292,-0.00033999999999999997,-7e-05,0.00014,0.00058,0.0003,0.00013000000000000002,-0.00013000000000000002,-0.00015,5
17392,18293,-0.00033999999999999997,-7e-05,0.00014,0.00058,0.0003,0.00013000000000000002,-0.00013000000000000002,-0.00015,5
17393,18294,-0.00033999999999999997,-7e-05,0.00014,0.00058,0.0003,0.00013000000000000002,-0.00013000000000000002,-0.00015,5
17394,18295,-0.00033999999999999997,-7e-05,0.00014,0.00058,0.0003,0.00013000000000000002,-0.00013000000000000002,-0.00015,5
17395,18296,-0.00033999999999999997,-7e-05,0.00014,0.00058,0.0003,0.00013000000000000002,-0.00013000000000000002,-0.00015,5
17396,18297,-0.00033999999999999997,-7e-05,0.00014,0.00058,0.0003,0.00013000000000000002,-0.00013000000000000002,-0.00015,5
17397,18298,-0.00033999999999999997,-7e-05,0.00014,0.00058,0.0003,0.00013000000000000002,-0.00013000000000000002,-0.00015,5
17398,18299,-0.00022,-0.0001,-0.00026000000000000003,-0.00047999999999999996,-0.00055,-0.00026000000000000003,-0.00023999999999999998,-9e-05,5
17399,18300,0.00015,9e-05,0.0002,0.00045,0.00018999999999999998,0.00014,-5.9999999999999995e-05,-2e-05,5
17400,18301,-8e-05,-5.9999999999999995e-05,5.9999999999999995e-05,-0.0004,-7e-05,-2e-05,-5.9999999999999995e-05,1e-05,5
17401,18302,-8e-05,-5.9999999999999995e-05,5.9999999999999995e-05,-0.0004,-7e-05,-2e-05,-5.9999999999999995e-05,1e-05,5
17402,18303,-8e-05,-5.9999999999999995e-05,5.9999999999999995e-05,-0.0004,-7e-05,-2e-05,-5.9999999999999995e-05,1e-05,5
17403,18304,-8e-05,-5.9999999999999995e-05,5.9999999999999995e-05,-0.0004,-7e-05,-2e-05,-5.9999999999999995e-05,1e-05,5
17404,18305,-8e-05,-5.9999999999999995e-05,5.9999999999999995e-05,-0.0004,-7e-05,-2e-05,-5.9999999999999995e-05,1e-05,5
17405,18306,-8e-05,-5.9999999999999995e-05,5.9999999999999995e-05,-0.0004,-7e-05,-2e-05,-5.9999999999999995e-05,1e-05,5
17406,18307,-8e-05,-5.9999999999999995e-05,5.9999999999999995e-05,-0.0004,-7e-05,-2e-05,-5.9999999999999995e-05,1e-05,5
17407,18308,-8e-05,-5.9999999999999995e-05,5.9999999999999995e-05,-0.0004,-7e-05,-2e-05,-5.9999999999999995e-05,1e-05,5
17408,18309,-8e-05,-5.9999999999999995e-05,5.9999999999999995e-05,-0.0004,-7e-05,-2e-05,-5.9999999999999995e-05,1e-05,5
17409,18310,-8e-05,-5.9999999999999995e-05,5.9999999999999995e-05,-0.0004,-7e-05,-2e-05,-5.9999999999999995e-05,1e-05,5
17410,18311,-8e-05,-5.9999999999999995e-05,5.9999999999999995e-05,-0.0004,-7e-05,-2e-05,-5.9999999999999995e-05,1e-05,5
17411,18312,-8e-05,-5.9999999999999995e-05,5.9999999999999995e-05,-0.0004,-7e-05,-2e-05,-5.9999999999999995e-05,1e-05,5
17412,18313,-8e-05,-5.9999999999999995e-05,5.9999999999999995e-05,-0.0004,-7e-05,-2e-05,-5.9999999999999995e-05,1e-05,5
17413,18314,0.00018,-0.00018999999999999998,-9e-05,0.00035,-0.00026000000000000003,-4e-05,-0.00016,-0.00011,5
17414,18315,0.00018,-0.00018999999999999998,-9e-05,0.00035,-0.00026000000000000003,-4e-05,-0.00016,-0.00011,5
17415,18316,0.00018,-0.00018999999999999998,-9e-05,0.00035,-0.00026000000000000003,-4e-05,-0.00016,-0.00011,5
17416,18317,0.00018,-0.00018999999999999998,-9e-05,0.00035,-0.00026000000000000003,-4e-05,-0.00016,-0.00011,5
17417,18318,0.00018,-0.00018999999999999998,-9e-05,0.00035,-0.00026000000000000003,-4e-05,-0.00016,-0.00011,5
17418,18319,0.00018,-0.00018999999999999998,-9e-05,0.00035,-0.00026000000000000003,-4e-05,-0.00016,-0.00011,5
17419,18320,-1e-05,8e-05,0.00033999999999999997,0.0007099999999999999,0.00091,0.00027,5e-05,0.00011999999999999999,5
17420,18321,-1e-05,8e-05,0.00033999999999999997,0.0007099999999999999,0.00091,0.00027,5e-05,0.00011999999999999999,5
17421,18322,-1e-05,8e-05,0.00033999999999999997,0.0007099999999999999,0.00091,0.00027,5e-05,0.00011999999999999999,5
17422,18323,-1e-05,8e-05,0.00033999999999999997,0.0007099999999999999,0.00091,0.00027,5e-05,0.00011999999999999999,5
17423,18324,-1e-05,8e-05,0.00033999999999999997,0.0007099999999999999,0.00091,0.00027,5e-05,0.00011999999999999999,5
17424,18325,-1e-05,8e-05,0.00033999999999999997,0.0007099999999999999,0.00091,0.00027,5e-05,0.00011999999999999999,5
17425,18326,-1e-05,8e-05,0.00033999999999999997,0.0007099999999999999,0.00091,0.00027,5e-05,0.00011999999999999999,5
17426,18327,-1e-05,8e-05,0.00033999999999999997,0.0007099999999999999,0.00091,0.00027,5e-05,0.00011999999999999999,5
17427,18328,-1e-05,8e-05,0.00033999999999999997,0.0007099999999999999,0.00091,0.00027,5e-05,0.00011999999999999999,5
17428,18329,-1e-05,8e-05,0.00033999999999999997,0.0007099999999999999,0.00091,0.00027,5e-05,0.00011999999999999999,5
17429,18330,-1e-05,8e-05,0.00033999999999999997,0.0007099999999999999,0.00091,0.00027,5e-05,0.00011999999999999999,5
17430,18331,-1e-05,8e-05,0.00033999999999999997,0.0007099999999999999,0.00091,0.00027,5e-05,0.00011999999999999999,5
17431,18332,-1e-05,8e-05,0.00033999999999999997,0.0007099999999999999,0.00091,0.00027,5e-05,0.00011999999999999999,5
17432,18333,-1e-05,8e-05,0.00033999999999999997,0.0007099999999999999,0.00091,0.00027,5e-05,0.00011999999999999999,5
17433,18334,-1e-05,8e-05,0.00033999999999999997,0.0007099999999999999,0.00091,0.00027,5e-05,0.00011999999999999999,5
17434,18335,-1e-05,8e-05,0.00033999999999999997,0.0007099999999999999,0.00091,0.00027,5e-05,0.00011999999999999999,5
17435,18337,-0.00022999999999999998,-0.0002,-0.00015,-0.00035,-0.00016,-8e-05,-0.00011,-0.0001,5
17436,18340,0.0,4e-05,9e-05,0.00025,-0.0002,-5.9999999999999995e-05,-5.9999999999999995e-05,-2e-05,5
17437,18341,0.0,4e-05,9e-05,0.00025,-0.0002,-5.9999999999999995e-05,-5.9999999999999995e-05,-2e-05,5
17438,18342,0.0,4e-05,9e-05,0.00025,-0.0002,-5.9999999999999995e-05,-5.9999999999999995e-05,-2e-05,5
17439,18343,0.0,4e-05,9e-05,0.00025,-0.0002,-5.9999999999999995e-05,-5.9999999999999995e-05,-2e-05,5
17440,18344,0.0,4e-05,9e-05,0.00025,-0.0002,-5.9999999999999995e-05,-5.9999999999999995e-05,-2e-05,5
17441,18345,0.0,4e-05,9e-05,0.00025,-0.0002,-5.9999999999999995e-05,-5.9999999999999995e-05,-2e-05,5
17442,18346,0.0,4e-05,9e-05,0.00025,-0.0002,-5.9999999999999995e-05,-5.9999999999999995e-05,-2e-05,5
17443,18347,0.0,4e-05,9e-05,0.00025,-0.0002,-5.9999999999999995e-05,-5.9999999999999995e-05,-2e-05,5
17444,18348,0.0,4e-05,9e-05,0.00025,-0.0002,-5.9999999999999995e-05,-5.9999999999999995e-05,-2e-05,5
17445,18349,0.0,4e-05,9e-05,0.00025,-0.0002,-5.9999999999999995e-05,-5.9999999999999995e-05,-2e-05,5
17446,18350,0.0,4e-05,9e-05,0.00025,-0.0002,-5.9999999999999995e-05,-5.9999999999999995e-05,-2e-05,5
17447,18351,0.0,4e-05,9e-05,0.00025,-0.0002,-5.9999999999999995e-05,-5.9999999999999995e-05,-2e-05,5
17448,18353,0.0,4e-05,9e-05,0.00025,-0.0002,-5.9999999999999995e-05,-5.9999999999999995e-05,-2e-05,5
17449,18354,0.0,4e-05,9e-05,0.00025,-0.0002,-5.9999999999999995e-05,-5.9999999999999995e-05,-2e-05,5
17450,18355,0.0,4e-05,9e-05,0.00025,-0.0002,-5.9999999999999995e-05,-5.9999999999999995e-05,-2e-05,5
17451,18356,0.0,4e-05,9e-05,0.00025,-0.0002,-5.9999999999999995e-05,-5.9999999999999995e-05,-2e-05,5
17452,18357,0.0,4e-05,9e-05,0.00025,-0.0002,-5.9999999999999995e-05,-5.9999999999999995e-05,-2e-05,5
17453,18358,0.0,4e-05,9e-05,0.00025,-0.0002,-5.9999999999999995e-05,-5.9999999999999995e-05,-2e-05,5
17454,18359,5.9999999999999995e-05,8e-05,-2e-05,0.0004,0.0005200000000000001,0.00013000000000000002,8e-05,2e-05,5
17455,18360,-5e-05,4e-05,-0.00015,-0.00045,5e-05,0.00016,0.00013000000000000002,-5.9999999999999995e-05,5
17456,18361,-5e-05,4e-05,-0.00015,-0.00045,5e-05,0.00016,0.00013000000000000002,-5.9999999999999995e-05,5
17457,18362,-5e-05,4e-05,-0.00015,-0.00045,5e-05,0.00016,0.00013000000000000002,-5.9999999999999995e-05,5
17458,18363,-5e-05,4e-05,-0.00015,-0.00045,5e-05,0.00016,0.00013000000000000002,-5.9999999999999995e-05,5
17459,18364,-5e-05,4e-05,-0.00015,-0.00045,5e-05,0.00016,0.00013000000000000002,-5.9999999999999995e-05,5
17460,18365,-5e-05,4e-05,-0.00015,-0.00045,5e-05,0.00016,0.00013000000000000002,-5.9999999999999995e-05,5
17461,18366,-5e-05,4e-05,-0.00015,-0.00045,5e-05,0.00016,0.00013000000000000002,-5.9999999999999995e-05,5
17462,18367,-5e-05,4e-05,-0.00015,-0.00045,5e-05,0.00016,0.00013000000000000002,-5.9999999999999995e-05,5
17463,18368,-5e-05,4e-05,-0.00015,-0.00045,5e-05,0.00016,0.00013000000000000002,-5.9999999999999995e-05,5
17464,18369,-5e-05,4e-05,-0.00015,-0.00045,5e-05,0.00016,0.00013000000000000002,-5.9999999999999995e-05,5
17465,18370,-5e-05,4e-05,-0.00015,-0.00045,5e-05,0.00016,0.00013000000000000002,-5.9999999999999995e-05,5
17466,18371,-5e-05,4e-05,-0.00015,-0.00045,5e-05,0.00016,0.00013000000000000002,-5.9999999999999995e-05,5
17467,18372,-5e-05,4e-05,-0.00015,-0.00045,5e-05,0.00016,0.00013000000000000002,-5.9999999999999995e-05,5
17468,18373,-0.00021,-0.00016999999999999999,0.00014,0.00108,0.00067,-0.00014,5.9999999999999995e-05,2e-05,5
17469,18374,-0.00021,-0.00016999999999999999,0.00014,0.00108,0.00067,-0.00014,5.9999999999999995e-05,2e-05,5
17470,18375,-0.00021,-0.00016999999999999999,0.00014,0.00108,0.00067,-0.00014,5.9999999999999995e-05,2e-05,5
17471,18376,-0.00021,-0.00016999999999999999,0.00014,0.00108,0.00067,-0.00014,5.9999999999999995e-05,2e-05,5
17472,18377,-0.00021,-0.00016999999999999999,0.00014,0.00108,0.00067,-0.00014,5.9999999999999995e-05,2e-05,5
17473,18378,-0.00021,-0.00016999999999999999,0.00014,0.00108,0.00067,-0.00014,5.9999999999999995e-05,2e-05,5
17474,18379,-0.00021,-0.00016999999999999999,0.00014,0.00108,0.00067,-0.00014,5.9999999999999995e-05,2e-05,5
17475,18380,-0.00021,-0.00016999999999999999,0.00014,0.00108,0.00067,-0.00014,5.9999999999999995e-05,2e-05,5
17476,18381,9e-05,0.00025,-0.00011999999999999999,-0.0006799999999999999,-0.00016999999999999999,-2.9999999999999997e-05,-0.00016999999999999999,-7e-05,5
17477,18382,9e-05,0.00025,-0.00011999999999999999,-0.0006799999999999999,-0.00016999999999999999,-2.9999999999999997e-05,-0.00016999999999999999,-7e-05,5
17478,18383,9e-05,0.00025,-0.00011999999999999999,-0.0006799999999999999,-0.00016999999999999999,-2.9999999999999997e-05,-0.00016999999999999999,-7e-05,5
17479,18384,9e-05,0.00025,-0.00011999999999999999,-0.0006799999999999999,-0.00016999999999999999,-2.9999999999999997e-05,-0.00016999999999999999,-7e-05,5
17480,18385,9e-05,0.00025,-0.00011999999999999999,-0.0006799999999999999,-0.00016999999999999999,-2.9999999999999997e-05,-0.00016999999999999999,-7e-05,5
17481,18386,9e-05,0.00025,-0.00011999999999999999,-0.0006799999999999999,-0.00016999999999999999,-2.9999999999999997e-05,-0.00016999999999999999,-7e-05,5
17482,18388,9e-05,0.00025,-0.00011999999999999999,-0.0006799999999999999,-0.00016999999999999999,-2.9999999999999997e-05,-0.00016999999999999999,-7e-05,5
17483,18389,9e-05,0.00025,-0.00011999999999999999,-0.0006799999999999999,-0.00016999999999999999,-2.9999999999999997e-05,-0.00016999999999999999,-7e-05,5
17484,18390,9e-05,0.00025,-0.00011999999999999999,-0.0006799999999999999,-0.00016999999999999999,-2.9999999999999997e-05,-0.00016999999999999999,-7e-05,5
17485,18391,9e-05,0.00025,-0.00011999999999999999,-0.0006799999999999999,-0.00016999999999999999,-2.9999999999999997e-05,-0.00016999999999999999,-7e-05,5
17486,18392,9e-05,0.00025,-0.00011999999999999999,-0.0006799999999999999,-0.00016999999999999999,-2.9999999999999997e-05,-0.00016999999999999999,-7e-05,5
17487,18393,9e-05,0.00025,-0.00011999999999999999,-0.0006799999999999999,-0.00016999999999999999,-2.9999999999999997e-05,-0.00016999999999999999,-7e-05,5
17488,18394,9e-05,0.00025,-0.00011999999999999999,-0.0006799999999999999,-0.00016999999999999999,-2.9999999999999997e-05,-0.00016999999999999999,-7e-05,5
17489,18395,9e-05,0.00025,-0.00011999999999999999,-0.0006799999999999999,-0.00016999999999999999,-2.9999999999999997e-05,-0.00016999999999999999,-7e-05,5
17490,18396,9e-05,0.00025,-0.00011999999999999999,-0.0006799999999999999,-0.00016999999999999999,-2.9999999999999997e-05,-0.00016999999999999999,-7e-05,5
17491,18397,0.00011,-4e-05,-0.00014,0.0001,0.00022,-2e-05,2e-05,2.9999999999999997e-05,5
17492,18398,0.00011,-4e-05,-0.00014,0.0001,0.00022,-2e-05,2e-05,2.9999999999999997e-05,5
17493,18399,4e-05,-2e-05,5e-05,0.00079,-0.00018999999999999998,-0.00016,-8e-05,0.0,5
17494,18400,4e-05,-2e-05,5e-05,0.00079,-0.00018999999999999998,-0.00016,-8e-05,0.0,5
17495,18401,4e-05,-2e-05,5e-05,0.00079,-0.00018999999999999998,-0.00016,-8e-05,0.0,5
17496,18402,4e-05,-2e-05,5e-05,0.00079,-0.00018999999999999998,-0.00016,-8e-05,0.0,5
17497,18403,4e-05,-2e-05,5e-05,0.00079,-0.00018999999999999998,-0.00016,-8e-05,0.0,5
17498,18404,4e-05,-2e-05,5e-05,0.00079,-0.00018999999999999998,-0.00016,-8e-05,0.0,5
17499,18405,4e-05,-2e-05,5e-05,0.00079,-0.00018999999999999998,-0.00016,-8e-05,0.0,5
17500,18406,4e-05,-2e-05,5e-05,0.00079,-0.00018999999999999998,-0.00016,-8e-05,0.0,5
17501,18407,4e-05,-2e-05,5e-05,0.00079,-0.00018999999999999998,-0.00016,-8e-05,0.0,5
17502,18408,4e-05,-2e-05,5e-05,0.00079,-0.00018999999999999998,-0.00016,-8e-05,0.0,5
17503,18409,4e-05,-2e-05,5e-05,0.00079,-0.00018999999999999998,-0.00016,-8e-05,0.0,5
17504,18410,4e-05,-2e-05,5e-05,0.00079,-0.00018999999999999998,-0.00016,-8e-05,0.0,5
17505,18411,4e-05,-2e-05,5e-05,0.00079,-0.00018999999999999998,-0.00016,-8e-05,0.0,5
17506,18412,4e-05,-2e-05,5e-05,0.00079,-0.00018999999999999998,-0.00016,-8e-05,0.0,5
17507,18413,4e-05,-2e-05,5e-05,0.00079,-0.00018999999999999998,-0.00016,-8e-05,0.0,5
17508,18414,4e-05,-2e-05,5e-05,0.00079,-0.00018999999999999998,-0.00016,-8e-05,0.0,5
17509,18415,4e-05,-2e-05,5e-05,0.00079,-0.00018999999999999998,-0.00016,-8e-05,0.0,5
17510,18416,4e-05,-2e-05,5e-05,0.00079,-0.00018999999999999998,-0.00016,-8e-05,0.0,5
17511,18417,4e-05,-2e-05,5e-05,0.00079,-0.00018999999999999998,-0.00016,-8e-05,0.0,5
17512,18418,4e-05,-2e-05,5e-05,0.00079,-0.00018999999999999998,-0.00016,-8e-05,0.0,5
17513,18419,-2e-05,-5.9999999999999995e-05,-7e-05,-0.00022,5.9999999999999995e-05,8e-05,-1e-05,2e-05,5
17514,18420,0.0002,0.00014,-2e-05,0.00023999999999999998,2e-05,8e-05,0.0,2e-05,5
17515,18421,-0.00026000000000000003,-0.00023999999999999998,-0.0001,-0.00022,0.00016999999999999999,0.0,2e-05,-2e-05,5
17516,18422,-0.00026000000000000003,-0.00023999999999999998,-0.0001,-0.00022,0.00016999999999999999,0.0,2e-05,-2e-05,5
17517,18423,-0.00026000000000000003,-0.00023999999999999998,-0.0001,-0.00022,0.00016999999999999999,0.0,2e-05,-2e-05,5
17518,18424,-0.00026000000000000003,-0.00023999999999999998,-0.0001,-0.00022,0.00016999999999999999,0.0,2e-05,-2e-05,5
17519,18425,-0.00026000000000000003,-0.00023999999999999998,-0.0001,-0.00022,0.00016999999999999999,0.0,2e-05,-2e-05,5
17520,18426,-0.00026000000000000003,-0.00023999999999999998,-0.0001,-0.00022,0.00016999999999999999,0.0,2e-05,-2e-05,5
17521,18427,-0.00026000000000000003,-0.00023999999999999998,-0.0001,-0.00022,0.00016999999999999999,0.0,2e-05,-2e-05,5
17522,18428,-0.00026000000000000003,-0.00023999999999999998,-0.0001,-0.00022,0.00016999999999999999,0.0,2e-05,-2e-05,5
17523,18429,-0.00026000000000000003,-0.00023999999999999998,-0.0001,-0.00022,0.00016999999999999999,0.0,2e-05,-2e-05,5
17524,18430,-0.00026000000000000003,-0.00023999999999999998,-0.0001,-0.00022,0.00016999999999999999,0.0,2e-05,-2e-05,5
17525,18431,-0.00026000000000000003,-0.00023999999999999998,-0.0001,-0.00022,0.00016999999999999999,0.0,2e-05,-2e-05,5
17526,18432,0.00028,0.00015,5e-05,9e-05,-0.00011,-0.00016,-7e-05,-5e-05,5
17527,18433,-0.00011999999999999999,-2.9999999999999997e-05,-0.00014,-0.00013000000000000002,0.00011999999999999999,-0.00016,-0.00011,-8e-05,5
17528,18434,-0.00011999999999999999,-2.9999999999999997e-05,-0.00014,-0.00013000000000000002,0.00011999999999999999,-0.00016,-0.00011,-8e-05,5
17529,18435,-0.00011999999999999999,-2.9999999999999997e-05,-0.00014,-0.00013000000000000002,0.00011999999999999999,-0.00016,-0.00011,-8e-05,5
17530,18436,-0.00011999999999999999,-2.9999999999999997e-05,-0.00014,-0.00013000000000000002,0.00011999999999999999,-0.00016,-0.00011,-8e-05,5
17531,18439,-0.00011999999999999999,-2.9999999999999997e-05,-0.00014,-0.00013000000000000002,0.00011999999999999999,-0.00016,-0.00011,-8e-05,5
17532,18440,-0.00011999999999999999,-2.9999999999999997e-05,-0.00014,-0.00013000000000000002,0.00011999999999999999,-0.00016,-0.00011,-8e-05,5
17533,18441,0.0001,-2e-05,5.9999999999999995e-05,1e-05,-0.00023999999999999998,-2.9999999999999997e-05,2.9999999999999997e-05,8e-05,5
17534,18442,2.9999999999999997e-05,5.9999999999999995e-05,0.00015,-9e-05,-2e-05,8e-05,2.9999999999999997e-05,-2e-05,5
17535,18443,2.9999999999999997e-05,5.9999999999999995e-05,0.00015,-9e-05,-2e-05,8e-05,2.9999999999999997e-05,-2e-05,5
17536,18444,2.9999999999999997e-05,5.9999999999999995e-05,0.00015,-9e-05,-2e-05,8e-05,2.9999999999999997e-05,-2e-05,5
17537,18445,2.9999999999999997e-05,5.9999999999999995e-05,0.00015,-9e-05,-2e-05,8e-05,2.9999999999999997e-05,-2e-05,5
17538,18446,2.9999999999999997e-05,5.9999999999999995e-05,0.00015,-9e-05,-2e-05,8e-05,2.9999999999999997e-05,-2e-05,5
17539,18447,2.9999999999999997e-05,5.9999999999999995e-05,0.00015,-9e-05,-2e-05,8e-05,2.9999999999999997e-05,-2e-05,5
17540,18448,2.9999999999999997e-05,5.9999999999999995e-05,0.00015,-9e-05,-2e-05,8e-05,2.9999999999999997e-05,-2e-05,5
17541,18449,2.9999999999999997e-05,5.9999999999999995e-05,0.00015,-9e-05,-2e-05,8e-05,2.9999999999999997e-05,-2e-05,5
17542,18450,2.9999999999999997e-05,5.9999999999999995e-05,0.00015,-9e-05,-2e-05,8e-05,2.9999999999999997e-05,-2e-05,5
17543,18451,2.9999999999999997e-05,5.9999999999999995e-05,0.00015,-9e-05,-2e-05,8e-05,2.9999999999999997e-05,-2e-05,5
17544,18452,2.9999999999999997e-05,5.9999999999999995e-05,0.00015,-9e-05,-2e-05,8e-05,2.9999999999999997e-05,-2e-05,5
17545,18453,2.9999999999999997e-05,5.9999999999999995e-05,0.00015,-9e-05,-2e-05,8e-05,2.9999999999999997e-05,-2e-05,5
17546,18454,2.9999999999999997e-05,5.9999999999999995e-05,0.00015,-9e-05,-2e-05,8e-05,2.9999999999999997e-05,-2e-05,5
17547,18455,2.9999999999999997e-05,5.9999999999999995e-05,0.00015,-9e-05,-2e-05,8e-05,2.9999999999999997e-05,-2e-05,5
17548,18456,-0.00014,-2e-05,-7e-05,-0.00035,-7e-05,2e-05,9e-05,0.0,5
17549,18457,0.00018999999999999998,0.00011,-1e-05,-0.00065,-0.00075,-0.00016999999999999999,-4e-05,-2.9999999999999997e-05,5
17550,18458,1e-05,-5e-05,-0.00018999999999999998,-1e-05,-0.00021,-2.9999999999999997e-05,2.9999999999999997e-05,-5e-05,5
17551,18459,1e-05,-5e-05,-0.00018999999999999998,-1e-05,-0.00021,-2.9999999999999997e-05,2.9999999999999997e-05,-5e-05,5
17552,18460,1e-05,-5e-05,-0.00018999999999999998,-1e-05,-0.00021,-2.9999999999999997e-05,2.9999999999999997e-05,-5e-05,5
17553,18461,1e-05,-5e-05,-0.00018999999999999998,-1e-05,-0.00021,-2.9999999999999997e-05,2.9999999999999997e-05,-5e-05,5
17554,18462,1e-05,-5e-05,-0.00018999999999999998,-1e-05,-0.00021,-2.9999999999999997e-05,2.9999999999999997e-05,-5e-05,5
17555,18463,1e-05,-5e-05,-0.00018999999999999998,-1e-05,-0.00021,-2.9999999999999997e-05,2.9999999999999997e-05,-5e-05,5
17556,18464,1e-05,-5e-05,-0.00018999999999999998,-1e-05,-0.00021,-2.9999999999999997e-05,2.9999999999999997e-05,-5e-05,5
17557,18465,1e-05,-5e-05,-0.00018999999999999998,-1e-05,-0.00021,-2.9999999999999997e-05,2.9999999999999997e-05,-5e-05,5
17558,18466,1e-05,-5e-05,-0.00018999999999999998,-1e-05,-0.00021,-2.9999999999999997e-05,2.9999999999999997e-05,-5e-05,5
17559,18467,1e-05,-5e-05,-0.00018999999999999998,-1e-05,-0.00021,-2.9999999999999997e-05,2.9999999999999997e-05,-5e-05,5
17560,18468,1e-05,-5e-05,-0.00018999999999999998,-1e-05,-0.00021,-2.9999999999999997e-05,2.9999999999999997e-05,-5e-05,5
17561,18469,1e-05,-5e-05,-0.00018999999999999998,-1e-05,-0.00021,-2.9999999999999997e-05,2.9999999999999997e-05,-5e-05,5
17562,18470,1e-05,-5e-05,-0.00018999999999999998,-1e-05,-0.00021,-2.9999999999999997e-05,2.9999999999999997e-05,-5e-05,5
17563,18471,1e-05,-5e-05,-0.00018999999999999998,-1e-05,-0.00021,-2.9999999999999997e-05,2.9999999999999997e-05,-5e-05,5
17564,18472,1e-05,-5e-05,-0.00018999999999999998,-1e-05,-0.00021,-2.9999999999999997e-05,2.9999999999999997e-05,-5e-05,5
17565,18473,1e-05,-5e-05,-0.00018999999999999998,-1e-05,-0.00021,-2.9999999999999997e-05,2.9999999999999997e-05,-5e-05,5
17566,18474,1e-05,-5e-05,-0.00018999999999999998,-1e-05,-0.00021,-2.9999999999999997e-05,2.9999999999999997e-05,-5e-05,5
17567,18475,1e-05,-5e-05,-0.00018999999999999998,-1e-05,-0.00021,-2.9999999999999997e-05,2.9999999999999997e-05,-5e-05,5
17568,18476,1e-05,-5e-05,-0.00018999999999999998,-1e-05,-0.00021,-2.9999999999999997e-05,2.9999999999999997e-05,-5e-05,5
17569,18477,1e-05,-5e-05,-0.00018999999999999998,-1e-05,-0.00021,-2.9999999999999997e-05,2.9999999999999997e-05,-5e-05,5
17570,18478,1e-05,-5e-05,-0.00018999999999999998,-1e-05,-0.00021,-2.9999999999999997e-05,2.9999999999999997e-05,-5e-05,5
17571,18479,-9e-05,0.00018,0.00022999999999999998,0.00033,-0.0006799999999999999,-0.00021,1e-05,-2e-05,5
17572,18480,-2.9999999999999997e-05,5e-05,1e-05,0.00073,0.00022999999999999998,-5.9999999999999995e-05,0.0,-2.9999999999999997e-05,5
17573,18481,-2.9999999999999997e-05,5e-05,1e-05,0.00073,0.00022999999999999998,-5.9999999999999995e-05,0.0,-2.9999999999999997e-05,5
17574,18482,-2.9999999999999997e-05,5e-05,1e-05,0.00073,0.00022999999999999998,-5.9999999999999995e-05,0.0,-2.9999999999999997e-05,5
17575,18483,-2.9999999999999997e-05,5e-05,1e-05,0.00073,0.00022999999999999998,-5.9999999999999995e-05,0.0,-2.9999999999999997e-05,5
17576,18484,-2.9999999999999997e-05,5e-05,1e-05,0.00073,0.00022999999999999998,-5.9999999999999995e-05,0.0,-2.9999999999999997e-05,5
17577,18485,-2.9999999999999997e-05,5e-05,1e-05,0.00073,0.00022999999999999998,-5.9999999999999995e-05,0.0,-2.9999999999999997e-05,5
17578,18486,-2.9999999999999997e-05,5e-05,1e-05,0.00073,0.00022999999999999998,-5.9999999999999995e-05,0.0,-2.9999999999999997e-05,5
17579,18488,-2.9999999999999997e-05,5e-05,1e-05,0.00073,0.00022999999999999998,-5.9999999999999995e-05,0.0,-2.9999999999999997e-05,5
17580,18489,-2.9999999999999997e-05,5e-05,1e-05,0.00073,0.00022999999999999998,-5.9999999999999995e-05,0.0,-2.9999999999999997e-05,5
17581,18490,-2.9999999999999997e-05,5e-05,1e-05,0.00073,0.00022999999999999998,-5.9999999999999995e-05,0.0,-2.9999999999999997e-05,5
17582,18491,-2.9999999999999997e-05,5e-05,1e-05,0.00073,0.00022999999999999998,-5.9999999999999995e-05,0.0,-2.9999999999999997e-05,5
17583,18492,2e-05,5e-05,1e-05,-0.0005099999999999999,-0.0002,1e-05,2e-05,0.0,5
17584,18493,2e-05,5e-05,1e-05,-0.0005099999999999999,-0.0002,1e-05,2e-05,0.0,5
17585,18494,2e-05,5e-05,1e-05,-0.0005099999999999999,-0.0002,1e-05,2e-05,0.0,5
17586,18495,2e-05,5e-05,1e-05,-0.0005099999999999999,-0.0002,1e-05,2e-05,0.0,5
17587,18496,2e-05,5e-05,1e-05,-0.0005099999999999999,-0.0002,1e-05,2e-05,0.0,5
17588,18497,2e-05,5e-05,1e-05,-0.0005099999999999999,-0.0002,1e-05,2e-05,0.0,5
17589,18498,2e-05,5e-05,1e-05,-0.0005099999999999999,-0.0002,1e-05,2e-05,0.0,5
17590,18499,2e-05,5e-05,1e-05,-0.0005099999999999999,-0.0002,1e-05,2e-05,0.0,5
17591,18500,2e-05,5e-05,1e-05,-0.0005099999999999999,-0.0002,1e-05,2e-05,0.0,5
17592,18501,2e-05,-5e-05,0.00011999999999999999,0.0006,0.00079,0.00028,-5.9999999999999995e-05,4e-05,5
17593,18502,4e-05,4e-05,-0.00011,5e-05,-0.00045,-0.00016,0.0,-1e-05,5
17594,18503,4e-05,4e-05,-0.00011,5e-05,-0.00045,-0.00016,0.0,-1e-05,5
17595,18504,4e-05,4e-05,-0.00011,5e-05,-0.00045,-0.00016,0.0,-1e-05,5
17596,18505,4e-05,4e-05,-0.00011,5e-05,-0.00045,-0.00016,0.0,-1e-05,5
17597,18506,4e-05,4e-05,-0.00011,5e-05,-0.00045,-0.00016,0.0,-1e-05,5
17598,18507,4e-05,4e-05,-0.00011,5e-05,-0.00045,-0.00016,0.0,-1e-05,5
17599,18508,4e-05,4e-05,-0.00011,5e-05,-0.00045,-0.00016,0.0,-1e-05,5
17600,18509,4e-05,4e-05,-0.00011,5e-05,-0.00045,-0.00016,0.0,-1e-05,5
17601,18510,4e-05,4e-05,-0.00011,5e-05,-0.00045,-0.00016,0.0,-1e-05,5
17602,18511,4e-05,4e-05,-0.00011,5e-05,-0.00045,-0.00016,0.0,-1e-05,5
17603,18512,4e-05,4e-05,-0.00011,5e-05,-0.00045,-0.00016,0.0,-1e-05,5
17604,18513,4e-05,4e-05,-0.00011,5e-05,-0.00045,-0.00016,0.0,-1e-05,5
17605,18514,4e-05,4e-05,-0.00011,5e-05,-0.00045,-0.00016,0.0,-1e-05,5
17606,18515,4e-05,4e-05,-0.00011,5e-05,-0.00045,-0.00016,0.0,-1e-05,5
17607,18516,-0.00016999999999999999,-4e-05,8e-05,-7e-05,0.00029,7e-05,-0.0001,-2.9999999999999997e-05,5
17608,18517,-1e-05,-0.0001,-0.00035,-0.00045,-0.00022999999999999998,-7e-05,-5e-05,-1e-05,5
17609,18518,2.9999999999999997e-05,-0.00013000000000000002,7e-05,-0.00039,-0.00021,-5.9999999999999995e-05,0.00014,2e-05,5
17610,18519,2.9999999999999997e-05,-0.00013000000000000002,7e-05,-0.00039,-0.00021,-5.9999999999999995e-05,0.00014,2e-05,5
17611,18520,2.9999999999999997e-05,-0.00013000000000000002,7e-05,-0.00039,-0.00021,-5.9999999999999995e-05,0.00014,2e-05,5
17612,18521,2.9999999999999997e-05,-0.00013000000000000002,7e-05,-0.00039,-0.00021,-5.9999999999999995e-05,0.00014,2e-05,5
17613,18522,2.9999999999999997e-05,-0.00013000000000000002,7e-05,-0.00039,-0.00021,-5.9999999999999995e-05,0.00014,2e-05,5
17614,18523,2.9999999999999997e-05,-0.00013000000000000002,7e-05,-0.00039,-0.00021,-5.9999999999999995e-05,0.00014,2e-05,5
17615,18524,2.9999999999999997e-05,-0.00013000000000000002,7e-05,-0.00039,-0.00021,-5.9999999999999995e-05,0.00014,2e-05,5
17616,18525,2.9999999999999997e-05,-0.00013000000000000002,7e-05,-0.00039,-0.00021,-5.9999999999999995e-05,0.00014,2e-05,5
17617,18526,2.9999999999999997e-05,-0.00013000000000000002,7e-05,-0.00039,-0.00021,-5.9999999999999995e-05,0.00014,2e-05,5
17618,18527,2.9999999999999997e-05,-0.00013000000000000002,7e-05,-0.00039,-0.00021,-5.9999999999999995e-05,0.00014,2e-05,5
17619,18528,2.9999999999999997e-05,-0.00013000000000000002,7e-05,-0.00039,-0.00021,-5.9999999999999995e-05,0.00014,2e-05,5
17620,18529,2.9999999999999997e-05,-0.00013000000000000002,7e-05,-0.00039,-0.00021,-5.9999999999999995e-05,0.00014,2e-05,5
17621,18531,2.9999999999999997e-05,-0.00013000000000000002,7e-05,-0.00039,-0.00021,-5.9999999999999995e-05,0.00014,2e-05,5
17622,18532,2.9999999999999997e-05,-0.00013000000000000002,7e-05,-0.00039,-0.00021,-5.9999999999999995e-05,0.00014,2e-05,5
17623,18533,2.9999999999999997e-05,-0.00013000000000000002,7e-05,-0.00039,-0.00021,-5.9999999999999995e-05,0.00014,2e-05,5
17624,18534,2.9999999999999997e-05,-0.00013000000000000002,7e-05,-0.00039,-0.00021,-5.9999999999999995e-05,0.00014,2e-05,5
17625,18535,2.9999999999999997e-05,-0.00013000000000000002,7e-05,-0.00039,-0.00021,-5.9999999999999995e-05,0.00014,2e-05,5
17626,18536,2.9999999999999997e-05,-0.00013000000000000002,7e-05,-0.00039,-0.00021,-5.9999999999999995e-05,0.00014,2e-05,5
17627,18539,2.9999999999999997e-05,-0.00013000000000000002,7e-05,-0.00039,-0.00021,-5.9999999999999995e-05,0.00014,2e-05,5
17628,18540,-0.0001,-9e-05,9e-05,0.00011999999999999999,-7e-05,0.0001,2e-05,2.9999999999999997e-05,5
17629,18541,-0.0002,4e-05,-7e-05,-0.0009400000000000001,-0.00029,4e-05,-0.00013000000000000002,-9e-05,5
17630,18542,-0.0002,4e-05,-7e-05,-0.0009400000000000001,-0.00029,4e-05,-0.00013000000000000002,-9e-05,5
17631,18543,-0.0002,4e-05,-7e-05,-0.0009400000000000001,-0.00029,4e-05,-0.00013000000000000002,-9e-05,5
17632,18544,-0.0002,4e-05,-7e-05,-0.0009400000000000001,-0.00029,4e-05,-0.00013000000000000002,-9e-05,5
17633,18545,-0.0002,4e-05,-7e-05,-0.0009400000000000001,-0.00029,4e-05,-0.00013000000000000002,-9e-05,5
17634,18546,-0.0002,4e-05,-7e-05,-0.0009400000000000001,-0.00029,4e-05,-0.00013000000000000002,-9e-05,5
17635,18547,-0.0002,4e-05,-7e-05,-0.0009400000000000001,-0.00029,4e-05,-0.00013000000000000002,-9e-05,5
17636,18548,-0.0002,4e-05,-7e-05,-0.0009400000000000001,-0.00029,4e-05,-0.00013000000000000002,-9e-05,5
17637,18549,-0.0002,4e-05,-7e-05,-0.0009400000000000001,-0.00029,4e-05,-0.00013000000000000002,-9e-05,5
17638,18550,-0.0002,4e-05,-7e-05,-0.0009400000000000001,-0.00029,4e-05,-0.00013000000000000002,-9e-05,5
17639,18551,-0.0002,4e-05,-7e-05,-0.0009400000000000001,-0.00029,4e-05,-0.00013000000000000002,-9e-05,5
17640,18552,-0.0002,4e-05,-7e-05,-0.0009400000000000001,-0.00029,4e-05,-0.00013000000000000002,-9e-05,5
17641,18553,-4e-05,-0.00011999999999999999,-0.00013000000000000002,-0.00031,-0.00033,-4e-05,-5e-05,-2.9999999999999997e-05,5
17642,18554,-4e-05,-0.00011999999999999999,-0.00013000000000000002,-0.00031,-0.00033,-4e-05,-5e-05,-2.9999999999999997e-05,5
17643,18555,-4e-05,-0.00011999999999999999,-0.00013000000000000002,-0.00031,-0.00033,-4e-05,-5e-05,-2.9999999999999997e-05,5
17644,18556,-4e-05,-0.00011999999999999999,-0.00013000000000000002,-0.00031,-0.00033,-4e-05,-5e-05,-2.9999999999999997e-05,5
17645,18557,-4e-05,-0.00011999999999999999,-0.00013000000000000002,-0.00031,-0.00033,-4e-05,-5e-05,-2.9999999999999997e-05,5
17646,18558,-4e-05,-0.00011999999999999999,-0.00013000000000000002,-0.00031,-0.00033,-4e-05,-5e-05,-2.9999999999999997e-05,5
17647,18559,-4e-05,-0.00011999999999999999,-0.00013000000000000002,-0.00031,-0.00033,-4e-05,-5e-05,-2.9999999999999997e-05,5
17648,18560,-4e-05,-0.00011999999999999999,-0.00013000000000000002,-0.00031,-0.00033,-4e-05,-5e-05,-2.9999999999999997e-05,5
17649,18561,2e-05,-5e-05,0.00018999999999999998,0.00093,0.00045999999999999996,8e-05,-2.9999999999999997e-05,-5.9999999999999995e-05,5
17650,18562,5e-05,-7e-05,-2.9999999999999997e-05,-0.00075,-5.9999999999999995e-05,2.9999999999999997e-05,1e-05,-5e-05,5
17651,18563,5e-05,-7e-05,-2.9999999999999997e-05,-0.00075,-5.9999999999999995e-05,2.9999999999999997e-05,1e-05,-5e-05,5
17652,18564,5e-05,-7e-05,-2.9999999999999997e-05,-0.00075,-5.9999999999999995e-05,2.9999999999999997e-05,1e-05,-5e-05,5
17653,18565,5e-05,-7e-05,-2.9999999999999997e-05,-0.00075,-5.9999999999999995e-05,2.9999999999999997e-05,1e-05,-5e-05,5
17654,18566,5e-05,-7e-05,-2.9999999999999997e-05,-0.00075,-5.9999999999999995e-05,2.9999999999999997e-05,1e-05,-5e-05,5
17655,18567,5e-05,-7e-05,-2.9999999999999997e-05,-0.00075,-5.9999999999999995e-05,2.9999999999999997e-05,1e-05,-5e-05,5
17656,18568,5e-05,-7e-05,-2.9999999999999997e-05,-0.00075,-5.9999999999999995e-05,2.9999999999999997e-05,1e-05,-5e-05,5
17657,18569,5e-05,-7e-05,-2.9999999999999997e-05,-0.00075,-5.9999999999999995e-05,2.9999999999999997e-05,1e-05,-5e-05,5
17658,18570,5e-05,-7e-05,-2.9999999999999997e-05,-0.00075,-5.9999999999999995e-05,2.9999999999999997e-05,1e-05,-5e-05,5
17659,18571,5e-05,-7e-05,-2.9999999999999997e-05,-0.00075,-5.9999999999999995e-05,2.9999999999999997e-05,1e-05,-5e-05,5
17660,18572,5e-05,-7e-05,-2.9999999999999997e-05,-0.00075,-5.9999999999999995e-05,2.9999999999999997e-05,1e-05,-5e-05,5
17661,18573,5e-05,-7e-05,-2.9999999999999997e-05,-0.00075,-5.9999999999999995e-05,2.9999999999999997e-05,1e-05,-5e-05,5
17662,18574,5e-05,-7e-05,-2.9999999999999997e-05,-0.00075,-5.9999999999999995e-05,2.9999999999999997e-05,1e-05,-5e-05,5
17663,18575,5e-05,-7e-05,-2.9999999999999997e-05,-0.00075,-5.9999999999999995e-05,2.9999999999999997e-05,1e-05,-5e-05,5
17664,18576,2e-05,0.00015,0.0001,0.00058,0.00018999999999999998,-7e-05,-0.00013000000000000002,8e-05,5
17665,18577,-2.9999999999999997e-05,-5e-05,-9e-05,-0.00115,-0.00036,0.00011999999999999999,0.0,-4e-05,5
17666,18578,5e-05,-0.00011,-0.00015,0.00026000000000000003,0.0002,9e-05,-1e-05,-5e-05,5
17667,18579,5e-05,-0.00011,-0.00015,0.00026000000000000003,0.0002,9e-05,-1e-05,-5e-05,5
17668,18580,5e-05,-0.00011,-0.00015,0.00026000000000000003,0.0002,9e-05,-1e-05,-5e-05,5
17669,18581,5e-05,-0.00011,-0.00015,0.00026000000000000003,0.0002,9e-05,-1e-05,-5e-05,5
17670,18582,5e-05,-0.00011,-0.00015,0.00026000000000000003,0.0002,9e-05,-1e-05,-5e-05,5
17671,18583,5e-05,-0.00011,-0.00015,0.00026000000000000003,0.0002,9e-05,-1e-05,-5e-05,5
17672,18584,5e-05,-0.00011,-0.00015,0.00026000000000000003,0.0002,9e-05,-1e-05,-5e-05,5
17673,18585,5e-05,-0.00011,-0.00015,0.00026000000000000003,0.0002,9e-05,-1e-05,-5e-05,5
17674,18586,5e-05,-0.00011,-0.00015,0.00026000000000000003,0.0002,9e-05,-1e-05,-5e-05,5
17675,18588,5e-05,-0.00011,-0.00015,0.00026000000000000003,0.0002,9e-05,-1e-05,-5e-05,5
17676,18590,5e-05,-0.00011,-0.00015,0.00026000000000000003,0.0002,9e-05,-1e-05,-5e-05,5
17677,18591,5e-05,-0.00011,-0.00015,0.00026000000000000003,0.0002,9e-05,-1e-05,-5e-05,5
17678,18592,5e-05,-0.00011,-0.00015,0.00026000000000000003,0.0002,9e-05,-1e-05,-5e-05,5
17679,18593,5e-05,-0.00011,-0.00015,0.00026000000000000003,0.0002,9e-05,-1e-05,-5e-05,5
17680,18594,5e-05,-0.00011,-0.00015,0.00026000000000000003,0.0002,9e-05,-1e-05,-5e-05,5
17681,18595,5e-05,-0.00011,-0.00015,0.00026000000000000003,0.0002,9e-05,-1e-05,-5e-05,5
17682,18596,5e-05,-0.00011,-0.00015,0.00026000000000000003,0.0002,9e-05,-1e-05,-5e-05,5
17683,18599,5e-05,-0.00011,-0.00015,0.00026000000000000003,0.0002,9e-05,-1e-05,-5e-05,5
17684,18600,0.00011,0.00016999999999999999,-1e-05,-0.00045,-0.0008,-0.00018999999999999998,-1e-05,-2e-05,5
17685,18601,-1e-05,1e-05,-5e-05,-0.00035,0.00039,0.00016999999999999999,-2.9999999999999997e-05,2.9999999999999997e-05,5
17686,18602,-1e-05,1e-05,-5e-05,-0.00035,0.00039,0.00016999999999999999,-2.9999999999999997e-05,2.9999999999999997e-05,5
17687,18603,-1e-05,1e-05,-5e-05,-0.00035,0.00039,0.00016999999999999999,-2.9999999999999997e-05,2.9999999999999997e-05,5
17688,18604,-1e-05,1e-05,-5e-05,-0.00035,0.00039,0.00016999999999999999,-2.9999999999999997e-05,2.9999999999999997e-05,5
17689,18605,-1e-05,1e-05,-5e-05,-0.00035,0.00039,0.00016999999999999999,-2.9999999999999997e-05,2.9999999999999997e-05,5
17690,18606,-1e-05,1e-05,-5e-05,-0.00035,0.00039,0.00016999999999999999,-2.9999999999999997e-05,2.9999999999999997e-05,5
17691,18607,-1e-05,1e-05,-5e-05,-0.00035,0.00039,0.00016999999999999999,-2.9999999999999997e-05,2.9999999999999997e-05,5
17692,18608,-1e-05,1e-05,-5e-05,-0.00035,0.00039,0.00016999999999999999,-2.9999999999999997e-05,2.9999999999999997e-05,5
17693,18609,-1e-05,1e-05,-5e-05,-0.00035,0.00039,0.00016999999999999999,-2.9999999999999997e-05,2.9999999999999997e-05,5
17694,18610,-1e-05,1e-05,-5e-05,-0.00035,0.00039,0.00016999999999999999,-2.9999999999999997e-05,2.9999999999999997e-05,5
17695,18611,-1e-05,1e-05,-5e-05,-0.00035,0.00039,0.00016999999999999999,-2.9999999999999997e-05,2.9999999999999997e-05,5
17696,18612,5e-05,-0.00016999999999999999,5.9999999999999995e-05,0.00085,0.00082,8e-05,5e-05,-2e-05,5
17697,18613,-0.00022,-4e-05,0.0,0.00063,0.00036,5.9999999999999995e-05,-0.0001,-8e-05,5
17698,18614,-0.00022,-4e-05,0.0,0.00063,0.00036,5.9999999999999995e-05,-0.0001,-8e-05,5
17699,18615,-0.00022,-4e-05,0.0,0.00063,0.00036,5.9999999999999995e-05,-0.0001,-8e-05,5
17700,18616,-0.00022,-4e-05,0.0,0.00063,0.00036,5.9999999999999995e-05,-0.0001,-8e-05,5
17701,18617,-0.00022,-4e-05,0.0,0.00063,0.00036,5.9999999999999995e-05,-0.0001,-8e-05,5
17702,18618,-0.00022,-4e-05,0.0,0.00063,0.00036,5.9999999999999995e-05,-0.0001,-8e-05,5
17703,18619,-0.00022,-4e-05,0.0,0.00063,0.00036,5.9999999999999995e-05,-0.0001,-8e-05,5
17704,18620,-0.00022,-4e-05,0.0,0.00063,0.00036,5.9999999999999995e-05,-0.0001,-8e-05,5
17705,18621,-0.00011,-1e-05,0.00018,-0.00018,-0.00011999999999999999,-8e-05,5e-05,4e-05,5
17706,18622,5e-05,-4e-05,-0.00033,-0.00037999999999999997,-0.00045999999999999996,-0.00016,-7e-05,-5e-05,5
17707,18623,5e-05,-4e-05,-0.00033,-0.00037999999999999997,-0.00045999999999999996,-0.00016,-7e-05,-5e-05,5
17708,18624,5e-05,-4e-05,-0.00033,-0.00037999999999999997,-0.00045999999999999996,-0.00016,-7e-05,-5e-05,5
17709,18625,5e-05,-4e-05,-0.00033,-0.00037999999999999997,-0.00045999999999999996,-0.00016,-7e-05,-5e-05,5
17710,18626,5e-05,-4e-05,-0.00033,-0.00037999999999999997,-0.00045999999999999996,-0.00016,-7e-05,-5e-05,5
17711,18627,5e-05,-4e-05,-0.00033,-0.00037999999999999997,-0.00045999999999999996,-0.00016,-7e-05,-5e-05,5
17712,18628,5e-05,-4e-05,-0.00033,-0.00037999999999999997,-0.00045999999999999996,-0.00016,-7e-05,-5e-05,5
17713,18629,5e-05,-4e-05,-0.00033,-0.00037999999999999997,-0.00045999999999999996,-0.00016,-7e-05,-5e-05,5
17714,18630,5e-05,-4e-05,-0.00033,-0.00037999999999999997,-0.00045999999999999996,-0.00016,-7e-05,-5e-05,5
17715,18631,5e-05,-4e-05,-0.00033,-0.00037999999999999997,-0.00045999999999999996,-0.00016,-7e-05,-5e-05,5
17716,18632,5e-05,-4e-05,-0.00033,-0.00037999999999999997,-0.00045999999999999996,-0.00016,-7e-05,-5e-05,5
17717,18633,5e-05,-4e-05,-0.00033,-0.00037999999999999997,-0.00045999999999999996,-0.00016,-7e-05,-5e-05,5
17718,18634,5e-05,-4e-05,-0.00033,-0.00037999999999999997,-0.00045999999999999996,-0.00016,-7e-05,-5e-05,5
17719,18635,5e-05,-4e-05,-0.00033,-0.00037999999999999997,-0.00045999999999999996,-0.00016,-7e-05,-5e-05,5
17720,18637,0.00018,0.00018,0.0002,0.00042,0.00053,0.0002,0.00016999999999999999,0.00015,5
17721,18640,-0.0002,5.9999999999999995e-05,0.00039,0.00082,0.0004,0.0,2e-05,1e-05,5
17722,18641,-0.0002,5.9999999999999995e-05,0.00039,0.00082,0.0004,0.0,2e-05,1e-05,5
17723,18642,-0.0002,5.9999999999999995e-05,0.00039,0.00082,0.0004,0.0,2e-05,1e-05,5
17724,18643,-0.0002,5.9999999999999995e-05,0.00039,0.00082,0.0004,0.0,2e-05,1e-05,5
