,time,channel1,channel2,channel3,channel4,channel5,channel6,channel7,channel8,class
22521,23231,0.0006900000000000001,0.0,0.00025,0.00013000000000000002,-5.9999999999999995e-05,0.0,1e-05,5e-05,5
22522,23232,0.0006900000000000001,0.0,0.00025,0.00013000000000000002,-5.9999999999999995e-05,0.0,1e-05,5e-05,5
22523,23233,0.0006900000000000001,0.0,0.00025,0.00013000000000000002,-5.9999999999999995e-05,0.0,1e-05,5e-05,5
22524,23234,0.0006900000000000001,0.0,0.00025,0.00013000000000000002,-5.9999999999999995e-05,0.0,1e-05,5e-05,5
22525,23235,0.0006900000000000001,0.0,0.00025,0.00013000000000000002,-5.9999999999999995e-05,0.0,1e-05,5e-05,5
22526,23236,0.0006900000000000001,0.0,0.00025,0.00013000000000000002,-5.9999999999999995e-05,0.0,1e-05,5e-05,5
22527,23239,0.0006900000000000001,0.0,0.00025,0.00013000000000000002,-5.9999999999999995e-05,0.0,1e-05,5e-05,5
22528,23240,0.0006900000000000001,0.0,0.00025,0.00013000000000000002,-5.9999999999999995e-05,0.0,1e-05,5e-05,5
22529,23241,0.0006900000000000001,0.0,0.00025,0.00013000000000000002,-5.9999999999999995e-05,0.0,1e-05,5e-05,5
22530,23242,0.0006900000000000001,0.0,0.00025,0.00013000000000000002,-5.9999999999999995e-05,0.0,1e-05,5e-05,5
22531,23243,0.0006900000000000001,0.0,0.00025,0.00013000000000000002,-5.9999999999999995e-05,0.0,1e-05,5e-05,5
22532,23244,0.0006900000000000001,0.0,0.00025,0.00013000000000000002,-5.9999999999999995e-05,0.0,1e-05,5e-05,5
22533,23245,0.0006900000000000001,0.0,0.00025,0.00013000000000000002,-5.9999999999999995e-05,0.0,1e-05,5e-05,5
22534,23246,0.0006900000000000001,0.0,0.00025,0.00013000000000000002,-5.9999999999999995e-05,0.0,1e-05,5e-05,5
22535,23247,0.0006900000000000001,0.0,0.00025,0.00013000000000000002,-5.9999999999999995e-05,0.0,1e-05,5e-05,5
22536,23248,0.0006900000000000001,0.0,0.00025,0.00013000000000000002,-5.9999999999999995e-05,0.0,1e-05,5e-05,5
22537,23249,0.0006900000000000001,0.0,0.00025,0.00013000000000000002,-5.9999999999999995e-05,0.0,1e-05,5e-05,5
22538,23250,0.0006900000000000001,0.0,0.00025,0.00013000000000000002,-5.9999999999999995e-05,0.0,1e-05,5e-05,5
22539,23251,0.0006900000000000001,0.0,0.00025,0.00013000000000000002,-5.9999999999999995e-05,0.0,1e-05,5e-05,5
22540,23252,0.0006900000000000001,0.0,0.00025,0.00013000000000000002,-5.9999999999999995e-05,0.0,1e-05,5e-05,5
22541,23253,0.0006900000000000001,0.0,0.00025,0.00013000000000000002,-5.9999999999999995e-05,0.0,1e-05,5e-05,5
22542,23254,0.0006900000000000001,0.0,0.00025,0.00013000000000000002,-5.9999999999999995e-05,0.0,1e-05,5e-05,5
22543,23255,0.0006900000000000001,0.0,0.00025,0.00013000000000000002,-5.9999999999999995e-05,0.0,1e-05,5e-05,5
22544,23256,0.0006900000000000001,0.0,0.00025,0.00013000000000000002,-5.9999999999999995e-05,0.0,1e-05,5e-05,5
22545,23257,0.0006900000000000001,0.0,0.00025,0.00013000000000000002,-5.9999999999999995e-05,0.0,1e-05,5e-05,5
22546,23258,0.0006900000000000001,0.0,0.00025,0.00013000000000000002,-5.9999999999999995e-05,0.0,1e-05,5e-05,5
22547,23259,0.0006900000000000001,0.0,0.00025,0.00013000000000000002,-5.9999999999999995e-05,0.0,1e-05,5e-05,5
22548,23260,0.0006900000000000001,0.0,0.00025,0.00013000000000000002,-5.9999999999999995e-05,0.0,1e-05,5e-05,5
22549,23261,5e-05,0.00011999999999999999,8e-05,0.00021,8e-05,2e-05,5.9999999999999995e-05,0.0003,5
22550,23262,-0.00015,2.9999999999999997e-05,0.00026000000000000003,-0.00018999999999999998,-0.00032,7e-05,-2.9999999999999997e-05,0.00039,5
22551,23263,-0.00016999999999999999,-0.00018999999999999998,-0.00015,-7e-05,0.00011,-2.9999999999999997e-05,-2.9999999999999997e-05,0.0001,5
22552,23264,-0.00016999999999999999,-0.00018999999999999998,-0.00015,-7e-05,0.00011,-2.9999999999999997e-05,-2.9999999999999997e-05,0.0001,5
22553,23265,-0.00016999999999999999,-0.00018999999999999998,-0.00015,-7e-05,0.00011,-2.9999999999999997e-05,-2.9999999999999997e-05,0.0001,5
22554,23266,0.0005,0.00011,-0.00022999999999999998,-1e-05,-0.00018999999999999998,-5.9999999999999995e-05,1e-05,2e-05,5
22555,23267,-9e-05,0.00015,4e-05,0.00045,4e-05,0.00011999999999999999,5.9999999999999995e-05,0.0005099999999999999,5
22556,23268,-9e-05,0.00015,4e-05,0.00045,4e-05,0.00011999999999999999,5.9999999999999995e-05,0.0005099999999999999,5
22557,23269,-9e-05,0.00015,4e-05,0.00045,4e-05,0.00011999999999999999,5.9999999999999995e-05,0.0005099999999999999,5
22558,23270,-9e-05,0.00015,4e-05,0.00045,4e-05,0.00011999999999999999,5.9999999999999995e-05,0.0005099999999999999,5
22559,23271,-9e-05,0.00015,4e-05,0.00045,4e-05,0.00011999999999999999,5.9999999999999995e-05,0.0005099999999999999,5
22560,23272,-9e-05,0.00015,4e-05,0.00045,4e-05,0.00011999999999999999,5.9999999999999995e-05,0.0005099999999999999,5
22561,23273,-9e-05,0.00015,4e-05,0.00045,4e-05,0.00011999999999999999,5.9999999999999995e-05,0.0005099999999999999,5
22562,23274,-9e-05,0.00015,4e-05,0.00045,4e-05,0.00011999999999999999,5.9999999999999995e-05,0.0005099999999999999,5
22563,23275,-9e-05,0.00015,4e-05,0.00045,4e-05,0.00011999999999999999,5.9999999999999995e-05,0.0005099999999999999,5
22564,23276,-9e-05,0.00015,4e-05,0.00045,4e-05,0.00011999999999999999,5.9999999999999995e-05,0.0005099999999999999,5
22565,23277,-9e-05,0.00015,4e-05,0.00045,4e-05,0.00011999999999999999,5.9999999999999995e-05,0.0005099999999999999,5
22566,23278,-9e-05,0.00015,4e-05,0.00045,4e-05,0.00011999999999999999,5.9999999999999995e-05,0.0005099999999999999,5
22567,23279,-9e-05,0.00015,4e-05,0.00045,4e-05,0.00011999999999999999,5.9999999999999995e-05,0.0005099999999999999,5
22568,23280,-9e-05,0.00015,4e-05,0.00045,4e-05,0.00011999999999999999,5.9999999999999995e-05,0.0005099999999999999,5
22569,23281,-9e-05,0.00015,4e-05,0.00045,4e-05,0.00011999999999999999,5.9999999999999995e-05,0.0005099999999999999,5
22570,23282,-9e-05,0.00015,4e-05,0.00045,4e-05,0.00011999999999999999,5.9999999999999995e-05,0.0005099999999999999,5
22571,23283,-9e-05,0.00015,4e-05,0.00045,4e-05,0.00011999999999999999,5.9999999999999995e-05,0.0005099999999999999,5
22572,23284,-9e-05,0.00015,4e-05,0.00045,4e-05,0.00011999999999999999,5.9999999999999995e-05,0.0005099999999999999,5
22573,23285,-9e-05,0.00015,4e-05,0.00045,4e-05,0.00011999999999999999,5.9999999999999995e-05,0.0005099999999999999,5
22574,23286,-9e-05,0.00015,4e-05,0.00045,4e-05,0.00011999999999999999,5.9999999999999995e-05,0.0005099999999999999,5
22575,23289,0.00016999999999999999,2.9999999999999997e-05,-0.00021,-0.00021,-0.00044,1e-05,4e-05,-0.00033999999999999997,5
22576,23290,-0.00059,-5.9999999999999995e-05,-0.00015,5.9999999999999995e-05,0.00018,-4e-05,-4e-05,-0.00011999999999999999,5
22577,23291,-0.00059,-5.9999999999999995e-05,-0.00015,5.9999999999999995e-05,0.00018,-4e-05,-4e-05,-0.00011999999999999999,5
22578,23292,-0.00059,-5.9999999999999995e-05,-0.00015,5.9999999999999995e-05,0.00018,-4e-05,-4e-05,-0.00011999999999999999,5
22579,23293,-0.00059,-5.9999999999999995e-05,-0.00015,5.9999999999999995e-05,0.00018,-4e-05,-4e-05,-0.00011999999999999999,5
22580,23294,-0.00059,-5.9999999999999995e-05,-0.00015,5.9999999999999995e-05,0.00018,-4e-05,-4e-05,-0.00011999999999999999,5
22581,23295,-0.00059,-5.9999999999999995e-05,-0.00015,5.9999999999999995e-05,0.00018,-4e-05,-4e-05,-0.00011999999999999999,5
22582,23296,-0.00059,-5.9999999999999995e-05,-0.00015,5.9999999999999995e-05,0.00018,-4e-05,-4e-05,-0.00011999999999999999,5
22583,23297,-0.00059,-5.9999999999999995e-05,-0.00015,5.9999999999999995e-05,0.00018,-4e-05,-4e-05,-0.00011999999999999999,5
22584,23298,-0.00059,-5.9999999999999995e-05,-0.00015,5.9999999999999995e-05,0.00018,-4e-05,-4e-05,-0.00011999999999999999,5
22585,23299,-0.00059,-5.9999999999999995e-05,-0.00015,5.9999999999999995e-05,0.00018,-4e-05,-4e-05,-0.00011999999999999999,5
22586,23300,-0.00059,-5.9999999999999995e-05,-0.00015,5.9999999999999995e-05,0.00018,-4e-05,-4e-05,-0.00011999999999999999,5
22587,23301,-0.00059,-5.9999999999999995e-05,-0.00015,5.9999999999999995e-05,0.00018,-4e-05,-4e-05,-0.00011999999999999999,5
22588,23302,-0.00059,-5.9999999999999995e-05,-0.00015,5.9999999999999995e-05,0.00018,-4e-05,-4e-05,-0.00011999999999999999,5
22589,23303,-0.00059,-5.9999999999999995e-05,-0.00015,5.9999999999999995e-05,0.00018,-4e-05,-4e-05,-0.00011999999999999999,5
22590,23304,-0.00059,-5.9999999999999995e-05,-0.00015,5.9999999999999995e-05,0.00018,-4e-05,-4e-05,-0.00011999999999999999,5
22591,23305,-0.00059,-5.9999999999999995e-05,-0.00015,5.9999999999999995e-05,0.00018,-4e-05,-4e-05,-0.00011999999999999999,5
22592,23306,-0.00059,-5.9999999999999995e-05,-0.00015,5.9999999999999995e-05,0.00018,-4e-05,-4e-05,-0.00011999999999999999,5
22593,23307,-0.00059,-5.9999999999999995e-05,-0.00015,5.9999999999999995e-05,0.00018,-4e-05,-4e-05,-0.00011999999999999999,5
22594,23308,-0.00059,-5.9999999999999995e-05,-0.00015,5.9999999999999995e-05,0.00018,-4e-05,-4e-05,-0.00011999999999999999,5
22595,23309,-0.00059,-5.9999999999999995e-05,-0.00015,5.9999999999999995e-05,0.00018,-4e-05,-4e-05,-0.00011999999999999999,5
22596,23310,-0.00059,-5.9999999999999995e-05,-0.00015,5.9999999999999995e-05,0.00018,-4e-05,-4e-05,-0.00011999999999999999,5
22597,23311,-0.00025,-5e-05,-0.00029,-0.00014,-0.0002,-2e-05,1e-05,-0.00013000000000000002,5
22598,23312,-0.00015,-0.00029,-5e-05,-0.00047000000000000004,-0.00033,-0.00013000000000000002,-5.9999999999999995e-05,-0.00061,5
22599,23313,-0.00015,-0.00029,-5e-05,-0.00047000000000000004,-0.00033,-0.00013000000000000002,-5.9999999999999995e-05,-0.00061,5
22600,23314,-0.00015,-0.00029,-5e-05,-0.00047000000000000004,-0.00033,-0.00013000000000000002,-5.9999999999999995e-05,-0.00061,5
22601,23315,-0.00015,-0.00029,-5e-05,-0.00047000000000000004,-0.00033,-0.00013000000000000002,-5.9999999999999995e-05,-0.00061,5
22602,23316,-0.00015,-0.00029,-5e-05,-0.00047000000000000004,-0.00033,-0.00013000000000000002,-5.9999999999999995e-05,-0.00061,5
22603,23317,-0.00015,-0.00029,-5e-05,-0.00047000000000000004,-0.00033,-0.00013000000000000002,-5.9999999999999995e-05,-0.00061,5
22604,23318,-0.00015,-0.00029,-5e-05,-0.00047000000000000004,-0.00033,-0.00013000000000000002,-5.9999999999999995e-05,-0.00061,5
22605,23319,-0.00015,-0.00029,-5e-05,-0.00047000000000000004,-0.00033,-0.00013000000000000002,-5.9999999999999995e-05,-0.00061,5
22606,23320,-0.00015,-0.00029,-5e-05,-0.00047000000000000004,-0.00033,-0.00013000000000000002,-5.9999999999999995e-05,-0.00061,5
22607,23321,-0.00015,-0.00029,-5e-05,-0.00047000000000000004,-0.00033,-0.00013000000000000002,-5.9999999999999995e-05,-0.00061,5
22608,23322,-0.00015,-0.00029,-5e-05,-0.00047000000000000004,-0.00033,-0.00013000000000000002,-5.9999999999999995e-05,-0.00061,5
22609,23323,-0.00015,-0.00029,-5e-05,-0.00047000000000000004,-0.00033,-0.00013000000000000002,-5.9999999999999995e-05,-0.00061,5
22610,23324,-0.00015,-0.00029,-5e-05,-0.00047000000000000004,-0.00033,-0.00013000000000000002,-5.9999999999999995e-05,-0.00061,5
22611,23325,-0.00015,-0.00029,-5e-05,-0.00047000000000000004,-0.00033,-0.00013000000000000002,-5.9999999999999995e-05,-0.00061,5
22612,23326,-0.00015,-0.00029,-5e-05,-0.00047000000000000004,-0.00033,-0.00013000000000000002,-5.9999999999999995e-05,-0.00061,5
22613,23327,-0.00015,-0.00029,-5e-05,-0.00047000000000000004,-0.00033,-0.00013000000000000002,-5.9999999999999995e-05,-0.00061,5
22614,23328,-0.00015,-0.00029,-5e-05,-0.00047000000000000004,-0.00033,-0.00013000000000000002,-5.9999999999999995e-05,-0.00061,5
22615,23329,-0.00015,-0.00029,-5e-05,-0.00047000000000000004,-0.00033,-0.00013000000000000002,-5.9999999999999995e-05,-0.00061,5
22616,23330,-0.00015,-0.00029,-5e-05,-0.00047000000000000004,-0.00033,-0.00013000000000000002,-5.9999999999999995e-05,-0.00061,5
22617,23331,-0.00015,-0.00029,-5e-05,-0.00047000000000000004,-0.00033,-0.00013000000000000002,-5.9999999999999995e-05,-0.00061,5
22618,23332,-0.00015,-0.00029,-5e-05,-0.00047000000000000004,-0.00033,-0.00013000000000000002,-5.9999999999999995e-05,-0.00061,5
22619,23333,-0.00015,-0.00029,-5e-05,-0.00047000000000000004,-0.00033,-0.00013000000000000002,-5.9999999999999995e-05,-0.00061,5
22620,23334,-0.00015,-0.00029,-5e-05,-0.00047000000000000004,-0.00033,-0.00013000000000000002,-5.9999999999999995e-05,-0.00061,5
22621,23335,-0.00015,-0.00029,-5e-05,-0.00047000000000000004,-0.00033,-0.00013000000000000002,-5.9999999999999995e-05,-0.00061,5
22622,23336,-0.00015,-0.00029,-5e-05,-0.00047000000000000004,-0.00033,-0.00013000000000000002,-5.9999999999999995e-05,-0.00061,5
22623,23339,-0.00015,-0.00029,-5e-05,-0.00047000000000000004,-0.00033,-0.00013000000000000002,-5.9999999999999995e-05,-0.00061,5
22624,23340,-0.00015,-0.00029,-5e-05,-0.00047000000000000004,-0.00033,-0.00013000000000000002,-5.9999999999999995e-05,-0.00061,5
22625,23341,-0.00015,-0.00029,-5e-05,-0.00047000000000000004,-0.00033,-0.00013000000000000002,-5.9999999999999995e-05,-0.00061,5
22626,23342,-0.00015,-0.00029,-5e-05,-0.00047000000000000004,-0.00033,-0.00013000000000000002,-5.9999999999999995e-05,-0.00061,5
22627,23343,-0.00015,-0.00029,-5e-05,-0.00047000000000000004,-0.00033,-0.00013000000000000002,-5.9999999999999995e-05,-0.00061,5
22628,23344,-0.00015,-0.00029,-5e-05,-0.00047000000000000004,-0.00033,-0.00013000000000000002,-5.9999999999999995e-05,-0.00061,5
22629,23345,-0.00015,-0.00029,-5e-05,-0.00047000000000000004,-0.00033,-0.00013000000000000002,-5.9999999999999995e-05,-0.00061,5
22630,23346,-0.00015,-0.00029,-5e-05,-0.00047000000000000004,-0.00033,-0.00013000000000000002,-5.9999999999999995e-05,-0.00061,5
22631,23347,-0.00015,-0.00029,-5e-05,-0.00047000000000000004,-0.00033,-0.00013000000000000002,-5.9999999999999995e-05,-0.00061,5
22632,23348,-0.00015,-0.00029,-5e-05,-0.00047000000000000004,-0.00033,-0.00013000000000000002,-5.9999999999999995e-05,-0.00061,5
22633,23349,-0.00015,-0.00029,-5e-05,-0.00047000000000000004,-0.00033,-0.00013000000000000002,-5.9999999999999995e-05,-0.00061,5
22634,23350,-0.00031,5e-05,-8e-05,-0.00025,2.9999999999999997e-05,7e-05,8e-05,0.0006,5
22635,23351,0.00032,-0.00011,-0.00011,0.00023999999999999998,0.00042,-9e-05,-0.0001,0.00015,5
22636,23352,-0.00013000000000000002,-2e-05,5e-05,0.00033999999999999997,0.0003,7e-05,1e-05,0.00015,5
22637,23353,-0.00013000000000000002,-2e-05,5e-05,0.00033999999999999997,0.0003,7e-05,1e-05,0.00015,5
22638,23354,-0.00013000000000000002,-2e-05,5e-05,0.00033999999999999997,0.0003,7e-05,1e-05,0.00015,5
22639,23355,-0.00013000000000000002,-2e-05,5e-05,0.00033999999999999997,0.0003,7e-05,1e-05,0.00015,5
22640,23356,-0.00013000000000000002,-2e-05,5e-05,0.00033999999999999997,0.0003,7e-05,1e-05,0.00015,5
22641,23357,-0.00013000000000000002,-2e-05,5e-05,0.00033999999999999997,0.0003,7e-05,1e-05,0.00015,5
22642,23358,-0.00013000000000000002,-2e-05,5e-05,0.00033999999999999997,0.0003,7e-05,1e-05,0.00015,5
22643,23359,-0.00013000000000000002,-2e-05,5e-05,0.00033999999999999997,0.0003,7e-05,1e-05,0.00015,5
22644,23360,-0.00013000000000000002,-2e-05,5e-05,0.00033999999999999997,0.0003,7e-05,1e-05,0.00015,5
22645,23361,-0.00013000000000000002,-2e-05,5e-05,0.00033999999999999997,0.0003,7e-05,1e-05,0.00015,5
22646,23362,-0.00013000000000000002,-2e-05,5e-05,0.00033999999999999997,0.0003,7e-05,1e-05,0.00015,5
22647,23363,-0.00013000000000000002,-2e-05,5e-05,0.00033999999999999997,0.0003,7e-05,1e-05,0.00015,5
22648,23364,-0.00013000000000000002,-2e-05,5e-05,0.00033999999999999997,0.0003,7e-05,1e-05,0.00015,5
22649,23365,-0.00013000000000000002,-2e-05,5e-05,0.00033999999999999997,0.0003,7e-05,1e-05,0.00015,5
22650,23366,-0.00013000000000000002,-2e-05,5e-05,0.00033999999999999997,0.0003,7e-05,1e-05,0.00015,5
22651,23367,-0.00013000000000000002,-2e-05,5e-05,0.00033999999999999997,0.0003,7e-05,1e-05,0.00015,5
22652,23368,-0.00013000000000000002,-2e-05,5e-05,0.00033999999999999997,0.0003,7e-05,1e-05,0.00015,5
22653,23369,-0.00013000000000000002,-2e-05,5e-05,0.00033999999999999997,0.0003,7e-05,1e-05,0.00015,5
22654,23370,-0.00013000000000000002,-2e-05,5e-05,0.00033999999999999997,0.0003,7e-05,1e-05,0.00015,5
22655,23371,-0.00013000000000000002,-2e-05,5e-05,0.00033999999999999997,0.0003,7e-05,1e-05,0.00015,5
22656,23372,0.00011,0.00023999999999999998,0.00011,0.00016999999999999999,-7e-05,-9e-05,0.00011999999999999999,0.00042,5
22657,23373,-0.00022,-0.00015,-1e-05,-7e-05,1e-05,4e-05,2.9999999999999997e-05,-0.00037,5
22658,23374,0.00022,0.00016999999999999999,0.00011,-0.0005099999999999999,-0.0001,2.9999999999999997e-05,4e-05,-5.9999999999999995e-05,5
22659,23375,0.00022,0.00016999999999999999,0.00011,-0.0005099999999999999,-0.0001,2.9999999999999997e-05,4e-05,-5.9999999999999995e-05,5
22660,23376,0.00022,0.00016999999999999999,0.00011,-0.0005099999999999999,-0.0001,2.9999999999999997e-05,4e-05,-5.9999999999999995e-05,5
22661,23377,5.9999999999999995e-05,0.00023999999999999998,0.00011,0.00016,2e-05,2e-05,4e-05,0.00032,5
22662,23378,5.9999999999999995e-05,0.00023999999999999998,0.00011,0.00016,2e-05,2e-05,4e-05,0.00032,5
22663,23379,5.9999999999999995e-05,0.00023999999999999998,0.00011,0.00016,2e-05,2e-05,4e-05,0.00032,5
22664,23380,5.9999999999999995e-05,0.00023999999999999998,0.00011,0.00016,2e-05,2e-05,4e-05,0.00032,5
22665,23381,5.9999999999999995e-05,0.00023999999999999998,0.00011,0.00016,2e-05,2e-05,4e-05,0.00032,5
22666,23382,5.9999999999999995e-05,0.00023999999999999998,0.00011,0.00016,2e-05,2e-05,4e-05,0.00032,5
22667,23383,5.9999999999999995e-05,0.00023999999999999998,0.00011,0.00016,2e-05,2e-05,4e-05,0.00032,5
22668,23384,5.9999999999999995e-05,0.00023999999999999998,0.00011,0.00016,2e-05,2e-05,4e-05,0.00032,5
22669,23385,5.9999999999999995e-05,0.00023999999999999998,0.00011,0.00016,2e-05,2e-05,4e-05,0.00032,5
22670,23386,5.9999999999999995e-05,0.00023999999999999998,0.00011,0.00016,2e-05,2e-05,4e-05,0.00032,5
22671,23389,5.9999999999999995e-05,0.00023999999999999998,0.00011,0.00016,2e-05,2e-05,4e-05,0.00032,5
22672,23390,5.9999999999999995e-05,0.00023999999999999998,0.00011,0.00016,2e-05,2e-05,4e-05,0.00032,5
22673,23391,5.9999999999999995e-05,0.00023999999999999998,0.00011,0.00016,2e-05,2e-05,4e-05,0.00032,5
22674,23392,5.9999999999999995e-05,0.00023999999999999998,0.00011,0.00016,2e-05,2e-05,4e-05,0.00032,5
22675,23393,5.9999999999999995e-05,0.00023999999999999998,0.00011,0.00016,2e-05,2e-05,4e-05,0.00032,5
22676,23394,-0.00021,-2e-05,2e-05,-5e-05,-0.0002,-5e-05,-0.00013000000000000002,-0.00023999999999999998,5
22677,23395,0.00016,-0.0001,-2e-05,-7e-05,-5e-05,-5e-05,2.9999999999999997e-05,-0.00011999999999999999,5
22678,23396,0.00016,-0.0001,-2e-05,-7e-05,-5e-05,-5e-05,2.9999999999999997e-05,-0.00011999999999999999,5
22679,23397,0.00016,-0.0001,-2e-05,-7e-05,-5e-05,-5e-05,2.9999999999999997e-05,-0.00011999999999999999,5
22680,23398,0.00016,-0.0001,-2e-05,-7e-05,-5e-05,-5e-05,2.9999999999999997e-05,-0.00011999999999999999,5
22681,23399,0.00016,-0.0001,-2e-05,-7e-05,-5e-05,-5e-05,2.9999999999999997e-05,-0.00011999999999999999,5
22682,23400,0.00016,-0.0001,-2e-05,-7e-05,-5e-05,-5e-05,2.9999999999999997e-05,-0.00011999999999999999,5
22683,23401,0.00016,-0.0001,-2e-05,-7e-05,-5e-05,-5e-05,2.9999999999999997e-05,-0.00011999999999999999,5
22684,23402,0.00016,-0.0001,-2e-05,-7e-05,-5e-05,-5e-05,2.9999999999999997e-05,-0.00011999999999999999,5
22685,23403,0.00016,-0.0001,-2e-05,-7e-05,-5e-05,-5e-05,2.9999999999999997e-05,-0.00011999999999999999,5
22686,23404,0.00016,-0.0001,-2e-05,-7e-05,-5e-05,-5e-05,2.9999999999999997e-05,-0.00011999999999999999,5
22687,23405,0.00016,-0.0001,-2e-05,-7e-05,-5e-05,-5e-05,2.9999999999999997e-05,-0.00011999999999999999,5
22688,23406,0.00016,-0.0001,-2e-05,-7e-05,-5e-05,-5e-05,2.9999999999999997e-05,-0.00011999999999999999,5
22689,23407,0.00016,-0.0001,-2e-05,-7e-05,-5e-05,-5e-05,2.9999999999999997e-05,-0.00011999999999999999,5
22690,23408,0.00016,-0.0001,-2e-05,-7e-05,-5e-05,-5e-05,2.9999999999999997e-05,-0.00011999999999999999,5
22691,23409,0.00053,0.0,2.9999999999999997e-05,7e-05,-0.00022999999999999998,-9e-05,-2.9999999999999997e-05,0.00016,5
22692,23410,0.00027,0.00014,5e-05,-0.00015,0.00036,-5e-05,-5.9999999999999995e-05,-5e-05,5
22693,23411,0.00027,0.00014,5e-05,-0.00015,0.00036,-5e-05,-5.9999999999999995e-05,-5e-05,5
22694,23412,0.00027,0.00014,5e-05,-0.00015,0.00036,-5e-05,-5.9999999999999995e-05,-5e-05,5
22695,23413,0.00027,0.00014,5e-05,-0.00015,0.00036,-5e-05,-5.9999999999999995e-05,-5e-05,5
22696,23414,0.00027,0.00014,5e-05,-0.00015,0.00036,-5e-05,-5.9999999999999995e-05,-5e-05,5
22697,23415,0.00027,0.00014,5e-05,-0.00015,0.00036,-5e-05,-5.9999999999999995e-05,-5e-05,5
22698,23416,0.00027,0.00014,5e-05,-0.00015,0.00036,-5e-05,-5.9999999999999995e-05,-5e-05,5
22699,23417,0.00027,0.00014,5e-05,-0.00015,0.00036,-5e-05,-5.9999999999999995e-05,-5e-05,5
22700,23418,0.00027,0.00014,5e-05,-0.00015,0.00036,-5e-05,-5.9999999999999995e-05,-5e-05,5
22701,23419,0.00027,0.00014,5e-05,-0.00015,0.00036,-5e-05,-5.9999999999999995e-05,-5e-05,5
22702,23420,0.00027,0.00014,5e-05,-0.00015,0.00036,-5e-05,-5.9999999999999995e-05,-5e-05,5
22703,23421,0.00027,0.00014,5e-05,-0.00015,0.00036,-5e-05,-5.9999999999999995e-05,-5e-05,5
22704,23422,0.00027,0.00014,5e-05,-0.00015,0.00036,-5e-05,-5.9999999999999995e-05,-5e-05,5
22705,23423,7e-05,-0.00013000000000000002,-0.00021,0.00022,0.00021,5.9999999999999995e-05,2.9999999999999997e-05,0.00022999999999999998,5
22706,23424,7e-05,-0.00013000000000000002,-0.00021,0.00022,0.00021,5.9999999999999995e-05,2.9999999999999997e-05,0.00022999999999999998,5
22707,23425,7e-05,-0.00013000000000000002,-0.00021,0.00022,0.00021,5.9999999999999995e-05,2.9999999999999997e-05,0.00022999999999999998,5
22708,23426,7e-05,-0.00013000000000000002,-0.00021,0.00022,0.00021,5.9999999999999995e-05,2.9999999999999997e-05,0.00022999999999999998,5
22709,23427,7e-05,-0.00013000000000000002,-0.00021,0.00022,0.00021,5.9999999999999995e-05,2.9999999999999997e-05,0.00022999999999999998,5
22710,23428,7e-05,-0.00013000000000000002,-0.00021,0.00022,0.00021,5.9999999999999995e-05,2.9999999999999997e-05,0.00022999999999999998,5
22711,23429,7e-05,-0.00013000000000000002,-0.00021,0.00022,0.00021,5.9999999999999995e-05,2.9999999999999997e-05,0.00022999999999999998,5
22712,23430,7e-05,-0.00013000000000000002,-0.00021,0.00022,0.00021,5.9999999999999995e-05,2.9999999999999997e-05,0.00022999999999999998,5
22713,23431,2e-05,2.9999999999999997e-05,-0.00016,0.0,-0.00021,-4e-05,2.9999999999999997e-05,5e-05,5
22714,23432,2e-05,2.9999999999999997e-05,-0.00016,0.0,-0.00021,-4e-05,2.9999999999999997e-05,5e-05,5
22715,23433,2e-05,2.9999999999999997e-05,-0.00016,0.0,-0.00021,-4e-05,2.9999999999999997e-05,5e-05,5
22716,23434,2e-05,2.9999999999999997e-05,-0.00016,0.0,-0.00021,-4e-05,2.9999999999999997e-05,5e-05,5
22717,23435,2e-05,2.9999999999999997e-05,-0.00016,0.0,-0.00021,-4e-05,2.9999999999999997e-05,5e-05,5
22718,23436,2e-05,2.9999999999999997e-05,-0.00016,0.0,-0.00021,-4e-05,2.9999999999999997e-05,5e-05,5
22719,23438,2e-05,2.9999999999999997e-05,-0.00016,0.0,-0.00021,-4e-05,2.9999999999999997e-05,5e-05,5
22720,23439,2e-05,2.9999999999999997e-05,-0.00016,0.0,-0.00021,-4e-05,2.9999999999999997e-05,5e-05,5
22721,23440,2e-05,2.9999999999999997e-05,-0.00016,0.0,-0.00021,-4e-05,2.9999999999999997e-05,5e-05,5
22722,23441,2e-05,2.9999999999999997e-05,-0.00016,0.0,-0.00021,-4e-05,2.9999999999999997e-05,5e-05,5
22723,23442,2e-05,2.9999999999999997e-05,-0.00016,0.0,-0.00021,-4e-05,2.9999999999999997e-05,5e-05,5
22724,23443,2e-05,2.9999999999999997e-05,-0.00016,0.0,-0.00021,-4e-05,2.9999999999999997e-05,5e-05,5
22725,23444,2e-05,2.9999999999999997e-05,-0.00016,0.0,-0.00021,-4e-05,2.9999999999999997e-05,5e-05,5
22726,23445,2e-05,2.9999999999999997e-05,-0.00016,0.0,-0.00021,-4e-05,2.9999999999999997e-05,5e-05,5
22727,23446,2e-05,2.9999999999999997e-05,-0.00016,0.0,-0.00021,-4e-05,2.9999999999999997e-05,5e-05,5
22728,23447,2e-05,2.9999999999999997e-05,-0.00016,0.0,-0.00021,-4e-05,2.9999999999999997e-05,5e-05,5
22729,23448,2e-05,2.9999999999999997e-05,-0.00016,0.0,-0.00021,-4e-05,2.9999999999999997e-05,5e-05,5
22730,23449,2e-05,2.9999999999999997e-05,-0.00016,0.0,-0.00021,-4e-05,2.9999999999999997e-05,5e-05,5
22731,23450,2e-05,2.9999999999999997e-05,-0.00016,0.0,-0.00021,-4e-05,2.9999999999999997e-05,5e-05,5
22732,23451,2e-05,2.9999999999999997e-05,-0.00016,0.0,-0.00021,-4e-05,2.9999999999999997e-05,5e-05,5
22733,23452,2e-05,2.9999999999999997e-05,-0.00016,0.0,-0.00021,-4e-05,2.9999999999999997e-05,5e-05,5
22734,23453,2e-05,2.9999999999999997e-05,-0.00016,0.0,-0.00021,-4e-05,2.9999999999999997e-05,5e-05,5
22735,23454,-0.00033,-0.00025,-0.00011999999999999999,-9e-05,-8e-05,-5.9999999999999995e-05,-5e-05,0.00014,5
22736,23455,-9e-05,0.00014,1e-05,0.00027,-0.00015,0.0,1e-05,-0.00026000000000000003,5
22737,23456,-9e-05,0.00014,1e-05,0.00027,-0.00015,0.0,1e-05,-0.00026000000000000003,5
22738,23457,-9e-05,0.00014,1e-05,0.00027,-0.00015,0.0,1e-05,-0.00026000000000000003,5
22739,23458,-9e-05,0.00014,1e-05,0.00027,-0.00015,0.0,1e-05,-0.00026000000000000003,5
22740,23459,-9e-05,0.00014,1e-05,0.00027,-0.00015,0.0,1e-05,-0.00026000000000000003,5
22741,23460,-9e-05,0.00014,1e-05,0.00027,-0.00015,0.0,1e-05,-0.00026000000000000003,5
22742,23461,-9e-05,0.00014,1e-05,0.00027,-0.00015,0.0,1e-05,-0.00026000000000000003,5
22743,23462,-9e-05,0.00014,1e-05,0.00027,-0.00015,0.0,1e-05,-0.00026000000000000003,5
22744,23463,-9e-05,0.00014,1e-05,0.00027,-0.00015,0.0,1e-05,-0.00026000000000000003,5
22745,23464,-9e-05,0.00014,1e-05,0.00027,-0.00015,0.0,1e-05,-0.00026000000000000003,5
22746,23465,-9e-05,0.00014,1e-05,0.00027,-0.00015,0.0,1e-05,-0.00026000000000000003,5
22747,23466,-9e-05,0.00014,1e-05,0.00027,-0.00015,0.0,1e-05,-0.00026000000000000003,5
22748,23467,-9e-05,0.00014,1e-05,0.00027,-0.00015,0.0,1e-05,-0.00026000000000000003,5
22749,23468,-9e-05,0.00014,1e-05,0.00027,-0.00015,0.0,1e-05,-0.00026000000000000003,5
22750,23469,-9e-05,0.00014,1e-05,0.00027,-0.00015,0.0,1e-05,-0.00026000000000000003,5
22751,23470,-9e-05,0.00014,1e-05,0.00027,-0.00015,0.0,1e-05,-0.00026000000000000003,5
22752,23471,-9e-05,0.00014,1e-05,0.00027,-0.00015,0.0,1e-05,-0.00026000000000000003,5
22753,23472,-9e-05,0.00014,1e-05,0.00027,-0.00015,0.0,1e-05,-0.00026000000000000003,5
22754,23473,-9e-05,0.00014,1e-05,0.00027,-0.00015,0.0,1e-05,-0.00026000000000000003,5
22755,23474,-9e-05,0.00014,1e-05,0.00027,-0.00015,0.0,1e-05,-0.00026000000000000003,5
22756,23475,-9e-05,0.00014,1e-05,0.00027,-0.00015,0.0,1e-05,-0.00026000000000000003,5
22757,23476,7e-05,0.0001,9e-05,8e-05,0.0001,5e-05,2e-05,5e-05,5
22758,23477,7e-05,0.0001,9e-05,8e-05,0.0001,5e-05,2e-05,5e-05,5
22759,23478,-0.00013000000000000002,5e-05,0.00029,0.00021,-5.9999999999999995e-05,-1e-05,-5e-05,-0.00031,5
22760,23479,-0.00013000000000000002,5e-05,0.00029,0.00021,-5.9999999999999995e-05,-1e-05,-5e-05,-0.00031,5
22761,23480,-0.00013000000000000002,5e-05,0.00029,0.00021,-5.9999999999999995e-05,-1e-05,-5e-05,-0.00031,5
22762,23481,-0.00013000000000000002,5e-05,0.00029,0.00021,-5.9999999999999995e-05,-1e-05,-5e-05,-0.00031,5
22763,23482,-0.00013000000000000002,5e-05,0.00029,0.00021,-5.9999999999999995e-05,-1e-05,-5e-05,-0.00031,5
22764,23483,-0.00013000000000000002,5e-05,0.00029,0.00021,-5.9999999999999995e-05,-1e-05,-5e-05,-0.00031,5
22765,23484,-0.00013000000000000002,5e-05,0.00029,0.00021,-5.9999999999999995e-05,-1e-05,-5e-05,-0.00031,5
22766,23485,-0.00013000000000000002,5e-05,0.00029,0.00021,-5.9999999999999995e-05,-1e-05,-5e-05,-0.00031,5
22767,23486,-0.00013000000000000002,5e-05,0.00029,0.00021,-5.9999999999999995e-05,-1e-05,-5e-05,-0.00031,5
22768,23488,-0.00013000000000000002,5e-05,0.00029,0.00021,-5.9999999999999995e-05,-1e-05,-5e-05,-0.00031,5
22769,23489,-0.00013000000000000002,5e-05,0.00029,0.00021,-5.9999999999999995e-05,-1e-05,-5e-05,-0.00031,5
22770,23490,-0.00013000000000000002,5e-05,0.00029,0.00021,-5.9999999999999995e-05,-1e-05,-5e-05,-0.00031,5
22771,23491,0.00022,0.00018999999999999998,0.00011999999999999999,0.00053,0.0,-2e-05,0.0,-0.00045999999999999996,5
22772,23492,0.00022,0.00018999999999999998,0.00011999999999999999,0.00053,0.0,-2e-05,0.0,-0.00045999999999999996,5
22773,23493,2.9999999999999997e-05,7e-05,0.00016,-8e-05,4e-05,5e-05,4e-05,0.00022999999999999998,5
22774,23494,2.9999999999999997e-05,7e-05,0.00016,-8e-05,4e-05,5e-05,4e-05,0.00022999999999999998,5
22775,23495,2.9999999999999997e-05,7e-05,0.00016,-8e-05,4e-05,5e-05,4e-05,0.00022999999999999998,5
22776,23496,2.9999999999999997e-05,7e-05,0.00016,-8e-05,4e-05,5e-05,4e-05,0.00022999999999999998,5
22777,23497,2.9999999999999997e-05,7e-05,0.00016,-8e-05,4e-05,5e-05,4e-05,0.00022999999999999998,5
22778,23498,2.9999999999999997e-05,7e-05,0.00016,-8e-05,4e-05,5e-05,4e-05,0.00022999999999999998,5
22779,23499,2.9999999999999997e-05,7e-05,0.00016,-8e-05,4e-05,5e-05,4e-05,0.00022999999999999998,5
22780,23500,2.9999999999999997e-05,7e-05,0.00016,-8e-05,4e-05,5e-05,4e-05,0.00022999999999999998,5
22781,23501,2.9999999999999997e-05,7e-05,0.00016,-8e-05,4e-05,5e-05,4e-05,0.00022999999999999998,5
22782,23502,2.9999999999999997e-05,7e-05,0.00016,-8e-05,4e-05,5e-05,4e-05,0.00022999999999999998,5
22783,23503,2.9999999999999997e-05,7e-05,0.00016,-8e-05,4e-05,5e-05,4e-05,0.00022999999999999998,5
22784,23504,2.9999999999999997e-05,7e-05,0.00016,-8e-05,4e-05,5e-05,4e-05,0.00022999999999999998,5
22785,23505,2.9999999999999997e-05,7e-05,0.00016,-8e-05,4e-05,5e-05,4e-05,0.00022999999999999998,5
22786,23506,2.9999999999999997e-05,7e-05,0.00016,-8e-05,4e-05,5e-05,4e-05,0.00022999999999999998,5
22787,23507,0.00054,-5.9999999999999995e-05,0.00026000000000000003,0.00045,2e-05,-4e-05,-2e-05,-0.00047000000000000004,5
22788,23508,0.00018999999999999998,0.00013000000000000002,0.0001,0.00016,1e-05,5.9999999999999995e-05,2.9999999999999997e-05,-0.00022,5
22789,23509,0.00018999999999999998,0.00013000000000000002,0.0001,0.00016,1e-05,5.9999999999999995e-05,2.9999999999999997e-05,-0.00022,5
22790,23510,0.00018999999999999998,0.00013000000000000002,0.0001,0.00016,1e-05,5.9999999999999995e-05,2.9999999999999997e-05,-0.00022,5
22791,23511,0.00018999999999999998,0.00013000000000000002,0.0001,0.00016,1e-05,5.9999999999999995e-05,2.9999999999999997e-05,-0.00022,5
22792,23512,0.00018999999999999998,0.00013000000000000002,0.0001,0.00016,1e-05,5.9999999999999995e-05,2.9999999999999997e-05,-0.00022,5
22793,23513,0.00018999999999999998,0.00013000000000000002,0.0001,0.00016,1e-05,5.9999999999999995e-05,2.9999999999999997e-05,-0.00022,5
22794,23514,0.00018999999999999998,0.00013000000000000002,0.0001,0.00016,1e-05,5.9999999999999995e-05,2.9999999999999997e-05,-0.00022,5
22795,23515,0.00018999999999999998,0.00013000000000000002,0.0001,0.00016,1e-05,5.9999999999999995e-05,2.9999999999999997e-05,-0.00022,5
22796,23516,0.00018999999999999998,0.00013000000000000002,0.0001,0.00016,1e-05,5.9999999999999995e-05,2.9999999999999997e-05,-0.00022,5
22797,23517,0.00018999999999999998,0.00013000000000000002,0.0001,0.00016,1e-05,5.9999999999999995e-05,2.9999999999999997e-05,-0.00022,5
22798,23518,0.00018999999999999998,0.00013000000000000002,0.0001,0.00016,1e-05,5.9999999999999995e-05,2.9999999999999997e-05,-0.00022,5
22799,23519,0.00018999999999999998,0.00013000000000000002,0.0001,0.00016,1e-05,5.9999999999999995e-05,2.9999999999999997e-05,-0.00022,5
22800,23520,0.00018999999999999998,0.00013000000000000002,0.0001,0.00016,1e-05,5.9999999999999995e-05,2.9999999999999997e-05,-0.00022,5
22801,23521,0.00018999999999999998,0.00013000000000000002,0.0001,0.00016,1e-05,5.9999999999999995e-05,2.9999999999999997e-05,-0.00022,5
22802,23522,0.00018999999999999998,0.00013000000000000002,0.0001,0.00016,1e-05,5.9999999999999995e-05,2.9999999999999997e-05,-0.00022,5
22803,23523,0.00018999999999999998,0.00013000000000000002,0.0001,0.00016,1e-05,5.9999999999999995e-05,2.9999999999999997e-05,-0.00022,5
22804,23524,0.00018999999999999998,0.00013000000000000002,0.0001,0.00016,1e-05,5.9999999999999995e-05,2.9999999999999997e-05,-0.00022,5
22805,23525,0.00018999999999999998,0.00013000000000000002,0.0001,0.00016,1e-05,5.9999999999999995e-05,2.9999999999999997e-05,-0.00022,5
22806,23526,0.00018999999999999998,0.00013000000000000002,0.0001,0.00016,1e-05,5.9999999999999995e-05,2.9999999999999997e-05,-0.00022,5
22807,23527,0.00018999999999999998,0.00013000000000000002,0.0001,0.00016,1e-05,5.9999999999999995e-05,2.9999999999999997e-05,-0.00022,5
22808,23528,0.00018999999999999998,0.00013000000000000002,0.0001,0.00016,1e-05,5.9999999999999995e-05,2.9999999999999997e-05,-0.00022,5
22809,23529,0.00018999999999999998,0.00013000000000000002,0.0001,0.00016,1e-05,5.9999999999999995e-05,2.9999999999999997e-05,-0.00022,5
22810,23530,0.00018999999999999998,0.00013000000000000002,0.0001,0.00016,1e-05,5.9999999999999995e-05,2.9999999999999997e-05,-0.00022,5
22811,23531,0.00018999999999999998,0.00013000000000000002,0.0001,0.00016,1e-05,5.9999999999999995e-05,2.9999999999999997e-05,-0.00022,5
22812,23532,0.00018999999999999998,0.00013000000000000002,0.0001,0.00016,1e-05,5.9999999999999995e-05,2.9999999999999997e-05,-0.00022,5
22813,23533,0.00018999999999999998,0.00013000000000000002,0.0001,0.00016,1e-05,5.9999999999999995e-05,2.9999999999999997e-05,-0.00022,5
22814,23534,0.00018999999999999998,0.00013000000000000002,0.0001,0.00016,1e-05,5.9999999999999995e-05,2.9999999999999997e-05,-0.00022,5
22815,23535,0.00018999999999999998,0.00013000000000000002,0.0001,0.00016,1e-05,5.9999999999999995e-05,2.9999999999999997e-05,-0.00022,5
22816,23536,0.00018999999999999998,0.00013000000000000002,0.0001,0.00016,1e-05,5.9999999999999995e-05,2.9999999999999997e-05,-0.00022,5
22817,23539,5e-05,-2.9999999999999997e-05,-8e-05,-0.00027,0.00016999999999999999,2e-05,4e-05,1e-05,5
22818,23540,5e-05,-2.9999999999999997e-05,-8e-05,-0.00027,0.00016999999999999999,2e-05,4e-05,1e-05,5
22819,23541,5e-05,-2.9999999999999997e-05,-8e-05,-0.00027,0.00016999999999999999,2e-05,4e-05,1e-05,5
22820,23542,5e-05,-2.9999999999999997e-05,-8e-05,-0.00027,0.00016999999999999999,2e-05,4e-05,1e-05,5
22821,23543,5e-05,-2.9999999999999997e-05,-8e-05,-0.00027,0.00016999999999999999,2e-05,4e-05,1e-05,5
22822,23544,5e-05,-2.9999999999999997e-05,-8e-05,-0.00027,0.00016999999999999999,2e-05,4e-05,1e-05,5
22823,23545,5e-05,-2.9999999999999997e-05,-8e-05,-0.00027,0.00016999999999999999,2e-05,4e-05,1e-05,5
22824,23546,5e-05,-2.9999999999999997e-05,-8e-05,-0.00027,0.00016999999999999999,2e-05,4e-05,1e-05,5
22825,23547,5e-05,-2.9999999999999997e-05,-8e-05,-0.00027,0.00016999999999999999,2e-05,4e-05,1e-05,5
22826,23548,5e-05,-2.9999999999999997e-05,-8e-05,-0.00027,0.00016999999999999999,2e-05,4e-05,1e-05,5
22827,23549,5e-05,-2.9999999999999997e-05,-8e-05,-0.00027,0.00016999999999999999,2e-05,4e-05,1e-05,5
22828,23550,5e-05,-2.9999999999999997e-05,-8e-05,-0.00027,0.00016999999999999999,2e-05,4e-05,1e-05,5
22829,23551,5e-05,-2.9999999999999997e-05,-8e-05,-0.00027,0.00016999999999999999,2e-05,4e-05,1e-05,5
22830,23552,-0.00056,0.0,0.00016999999999999999,2e-05,-5e-05,0.0,1e-05,0.00022,5
22831,23553,-0.00056,0.0,0.00016999999999999999,2e-05,-5e-05,0.0,1e-05,0.00022,5
22832,23554,-0.00056,0.0,0.00016999999999999999,2e-05,-5e-05,0.0,1e-05,0.00022,5
22833,23555,-0.00056,0.0,0.00016999999999999999,2e-05,-5e-05,0.0,1e-05,0.00022,5
22834,23556,-0.00056,0.0,0.00016999999999999999,2e-05,-5e-05,0.0,1e-05,0.00022,5
22835,23557,-0.00056,0.0,0.00016999999999999999,2e-05,-5e-05,0.0,1e-05,0.00022,5
22836,23558,-0.00056,0.0,0.00016999999999999999,2e-05,-5e-05,0.0,1e-05,0.00022,5
22837,23559,-0.00056,0.0,0.00016999999999999999,2e-05,-5e-05,0.0,1e-05,0.00022,5
22838,23560,-0.00056,0.0,0.00016999999999999999,2e-05,-5e-05,0.0,1e-05,0.00022,5
22839,23561,-0.00056,0.0,0.00016999999999999999,2e-05,-5e-05,0.0,1e-05,0.00022,5
22840,23562,-0.00056,0.0,0.00016999999999999999,2e-05,-5e-05,0.0,1e-05,0.00022,5
22841,23563,-0.00056,0.0,0.00016999999999999999,2e-05,-5e-05,0.0,1e-05,0.00022,5
22842,23564,-0.00056,0.0,0.00016999999999999999,2e-05,-5e-05,0.0,1e-05,0.00022,5
22843,23565,-0.00056,0.0,0.00016999999999999999,2e-05,-5e-05,0.0,1e-05,0.00022,5
22844,23566,-0.00056,0.0,0.00016999999999999999,2e-05,-5e-05,0.0,1e-05,0.00022,5
22845,23567,-7e-05,-5e-05,5.9999999999999995e-05,0.00041,0.00025,5.9999999999999995e-05,2e-05,0.00054,5
22846,23568,-5e-05,-5.9999999999999995e-05,-0.00016,-0.0007099999999999999,-0.00033999999999999997,-0.00011999999999999999,-4e-05,2e-05,5
22847,23569,-0.00039,-5.9999999999999995e-05,4e-05,1e-05,-0.00021,-5.9999999999999995e-05,-5.9999999999999995e-05,-0.00045999999999999996,5
22848,23570,-0.00039,-5.9999999999999995e-05,4e-05,1e-05,-0.00021,-5.9999999999999995e-05,-5.9999999999999995e-05,-0.00045999999999999996,5
22849,23571,-0.00039,-5.9999999999999995e-05,4e-05,1e-05,-0.00021,-5.9999999999999995e-05,-5.9999999999999995e-05,-0.00045999999999999996,5
22850,23572,-0.00039,-5.9999999999999995e-05,4e-05,1e-05,-0.00021,-5.9999999999999995e-05,-5.9999999999999995e-05,-0.00045999999999999996,5
22851,23573,-0.00039,-5.9999999999999995e-05,4e-05,1e-05,-0.00021,-5.9999999999999995e-05,-5.9999999999999995e-05,-0.00045999999999999996,5
22852,23574,-0.00039,-5.9999999999999995e-05,4e-05,1e-05,-0.00021,-5.9999999999999995e-05,-5.9999999999999995e-05,-0.00045999999999999996,5
22853,23575,-0.00039,-5.9999999999999995e-05,4e-05,1e-05,-0.00021,-5.9999999999999995e-05,-5.9999999999999995e-05,-0.00045999999999999996,5
22854,23576,-0.00039,-5.9999999999999995e-05,4e-05,1e-05,-0.00021,-5.9999999999999995e-05,-5.9999999999999995e-05,-0.00045999999999999996,5
22855,23577,-0.00039,-5.9999999999999995e-05,4e-05,1e-05,-0.00021,-5.9999999999999995e-05,-5.9999999999999995e-05,-0.00045999999999999996,5
22856,23578,-0.00039,-5.9999999999999995e-05,4e-05,1e-05,-0.00021,-5.9999999999999995e-05,-5.9999999999999995e-05,-0.00045999999999999996,5
22857,23579,-0.00039,-5.9999999999999995e-05,4e-05,1e-05,-0.00021,-5.9999999999999995e-05,-5.9999999999999995e-05,-0.00045999999999999996,5
22858,23580,-0.00039,-5.9999999999999995e-05,4e-05,1e-05,-0.00021,-5.9999999999999995e-05,-5.9999999999999995e-05,-0.00045999999999999996,5
22859,23581,-0.00039,-5.9999999999999995e-05,4e-05,1e-05,-0.00021,-5.9999999999999995e-05,-5.9999999999999995e-05,-0.00045999999999999996,5
22860,23582,-0.00039,-5.9999999999999995e-05,4e-05,1e-05,-0.00021,-5.9999999999999995e-05,-5.9999999999999995e-05,-0.00045999999999999996,5
22861,23583,-0.00039,-5.9999999999999995e-05,4e-05,1e-05,-0.00021,-5.9999999999999995e-05,-5.9999999999999995e-05,-0.00045999999999999996,5
22862,23584,-0.00039,-5.9999999999999995e-05,4e-05,1e-05,-0.00021,-5.9999999999999995e-05,-5.9999999999999995e-05,-0.00045999999999999996,5
22863,23585,-0.00039,-5.9999999999999995e-05,4e-05,1e-05,-0.00021,-5.9999999999999995e-05,-5.9999999999999995e-05,-0.00045999999999999996,5
22864,23586,-0.00039,-5.9999999999999995e-05,4e-05,1e-05,-0.00021,-5.9999999999999995e-05,-5.9999999999999995e-05,-0.00045999999999999996,5
22865,23588,-0.00039,-5.9999999999999995e-05,4e-05,1e-05,-0.00021,-5.9999999999999995e-05,-5.9999999999999995e-05,-0.00045999999999999996,5
22866,23589,-0.00039,-5.9999999999999995e-05,4e-05,1e-05,-0.00021,-5.9999999999999995e-05,-5.9999999999999995e-05,-0.00045999999999999996,5
22867,23590,0.00016999999999999999,-1e-05,0.0,0.00014,-1e-05,-5.9999999999999995e-05,0.0,0.00021,5
22868,23591,-0.00023999999999999998,-0.0001,-0.00027,-0.00033999999999999997,-0.00021,-9e-05,0.0,-0.0007099999999999999,5
22869,23592,-0.00023999999999999998,-0.0001,-0.00027,-0.00033999999999999997,-0.00021,-9e-05,0.0,-0.0007099999999999999,5
22870,23593,-0.00023999999999999998,-0.0001,-0.00027,-0.00033999999999999997,-0.00021,-9e-05,0.0,-0.0007099999999999999,5
22871,23594,-0.00023999999999999998,-0.0001,-0.00027,-0.00033999999999999997,-0.00021,-9e-05,0.0,-0.0007099999999999999,5
22872,23595,-0.00023999999999999998,-0.0001,-0.00027,-0.00033999999999999997,-0.00021,-9e-05,0.0,-0.0007099999999999999,5
22873,23596,-0.00023999999999999998,-0.0001,-0.00027,-0.00033999999999999997,-0.00021,-9e-05,0.0,-0.0007099999999999999,5
22874,23597,-0.00023999999999999998,-0.0001,-0.00027,-0.00033999999999999997,-0.00021,-9e-05,0.0,-0.0007099999999999999,5
22875,23598,-0.00023999999999999998,-0.0001,-0.00027,-0.00033999999999999997,-0.00021,-9e-05,0.0,-0.0007099999999999999,5
22876,23599,-0.00023999999999999998,-0.0001,-0.00027,-0.00033999999999999997,-0.00021,-9e-05,0.0,-0.0007099999999999999,5
22877,23600,-0.00023999999999999998,-0.0001,-0.00027,-0.00033999999999999997,-0.00021,-9e-05,0.0,-0.0007099999999999999,5
22878,23601,-0.00023999999999999998,-0.0001,-0.00027,-0.00033999999999999997,-0.00021,-9e-05,0.0,-0.0007099999999999999,5
22879,23602,-0.00023999999999999998,-0.0001,-0.00027,-0.00033999999999999997,-0.00021,-9e-05,0.0,-0.0007099999999999999,5
22880,23603,-0.00023999999999999998,-0.0001,-0.00027,-0.00033999999999999997,-0.00021,-9e-05,0.0,-0.0007099999999999999,5
22881,23604,-0.00023999999999999998,-0.0001,-0.00027,-0.00033999999999999997,-0.00021,-9e-05,0.0,-0.0007099999999999999,5
22882,23605,-0.00023999999999999998,-0.0001,-0.00027,-0.00033999999999999997,-0.00021,-9e-05,0.0,-0.0007099999999999999,5
22883,23606,-0.00023999999999999998,-0.0001,-0.00027,-0.00033999999999999997,-0.00021,-9e-05,0.0,-0.0007099999999999999,5
22884,23607,-0.00023999999999999998,-0.0001,-0.00027,-0.00033999999999999997,-0.00021,-9e-05,0.0,-0.0007099999999999999,5
22885,23608,-0.00023999999999999998,-0.0001,-0.00027,-0.00033999999999999997,-0.00021,-9e-05,0.0,-0.0007099999999999999,5
22886,23609,-0.00023999999999999998,-0.0001,-0.00027,-0.00033999999999999997,-0.00021,-9e-05,0.0,-0.0007099999999999999,5
22887,23610,-0.00023999999999999998,-0.0001,-0.00027,-0.00033999999999999997,-0.00021,-9e-05,0.0,-0.0007099999999999999,5
22888,23611,-0.00023999999999999998,-0.0001,-0.00027,-0.00033999999999999997,-0.00021,-9e-05,0.0,-0.0007099999999999999,5
22889,23612,-0.00023999999999999998,-0.0001,-0.00027,-0.00033999999999999997,-0.00021,-9e-05,0.0,-0.0007099999999999999,5
22890,23613,-0.00023999999999999998,-0.0001,-0.00027,-0.00033999999999999997,-0.00021,-9e-05,0.0,-0.0007099999999999999,5
22891,23614,-0.00023999999999999998,-0.0001,-0.00027,-0.00033999999999999997,-0.00021,-9e-05,0.0,-0.0007099999999999999,5
22892,23615,-0.00023999999999999998,-0.0001,-0.00027,-0.00033999999999999997,-0.00021,-9e-05,0.0,-0.0007099999999999999,5
22893,23616,-0.00023999999999999998,-0.0001,-0.00027,-0.00033999999999999997,-0.00021,-9e-05,0.0,-0.0007099999999999999,5
22894,23617,-0.00023999999999999998,-0.0001,-0.00027,-0.00033999999999999997,-0.00021,-9e-05,0.0,-0.0007099999999999999,5
22895,23618,-0.00023999999999999998,-0.0001,-0.00027,-0.00033999999999999997,-0.00021,-9e-05,0.0,-0.0007099999999999999,5
22896,23619,-0.00041,-2e-05,-0.00022999999999999998,-0.00039,7e-05,2e-05,-2.9999999999999997e-05,0.00031,5
22897,23620,0.00081,0.0001,-4e-05,-0.00023999999999999998,0.0,-2e-05,-4e-05,0.00033,5
22898,23621,0.00081,0.0001,-4e-05,-0.00023999999999999998,0.0,-2e-05,-4e-05,0.00033,5
22899,23622,0.00081,0.0001,-4e-05,-0.00023999999999999998,0.0,-2e-05,-4e-05,0.00033,5
22900,23623,0.00081,0.0001,-4e-05,-0.00023999999999999998,0.0,-2e-05,-4e-05,0.00033,5
22901,23624,0.00081,0.0001,-4e-05,-0.00023999999999999998,0.0,-2e-05,-4e-05,0.00033,5
22902,23625,0.00081,0.0001,-4e-05,-0.00023999999999999998,0.0,-2e-05,-4e-05,0.00033,5
22903,23626,0.00081,0.0001,-4e-05,-0.00023999999999999998,0.0,-2e-05,-4e-05,0.00033,5
22904,23627,-0.00043,-0.00016,5e-05,0.00031,0.00035,5e-05,-1e-05,-0.00028,5
22905,23628,0.00016999999999999999,-5e-05,0.0,-0.00022,-0.0003,-1e-05,1e-05,-5.9999999999999995e-05,5
22906,23629,0.00016999999999999999,-5e-05,0.0,-0.00022,-0.0003,-1e-05,1e-05,-5.9999999999999995e-05,5
22907,23630,0.00016999999999999999,-5e-05,0.0,-0.00022,-0.0003,-1e-05,1e-05,-5.9999999999999995e-05,5
22908,23631,0.00016999999999999999,-5e-05,0.0,-0.00022,-0.0003,-1e-05,1e-05,-5.9999999999999995e-05,5
22909,23632,0.00016999999999999999,-5e-05,0.0,-0.00022,-0.0003,-1e-05,1e-05,-5.9999999999999995e-05,5
22910,23633,0.00016999999999999999,-5e-05,0.0,-0.00022,-0.0003,-1e-05,1e-05,-5.9999999999999995e-05,5
22911,23634,0.00016999999999999999,-5e-05,0.0,-0.00022,-0.0003,-1e-05,1e-05,-5.9999999999999995e-05,5
22912,23635,0.00016999999999999999,-5e-05,0.0,-0.00022,-0.0003,-1e-05,1e-05,-5.9999999999999995e-05,5
22913,23636,0.00016999999999999999,-5e-05,0.0,-0.00022,-0.0003,-1e-05,1e-05,-5.9999999999999995e-05,5
22914,23639,0.00016999999999999999,-5e-05,0.0,-0.00022,-0.0003,-1e-05,1e-05,-5.9999999999999995e-05,5
22915,23640,0.00016999999999999999,-5e-05,0.0,-0.00022,-0.0003,-1e-05,1e-05,-5.9999999999999995e-05,5
22916,23641,0.00016999999999999999,-5e-05,0.0,-0.00022,-0.0003,-1e-05,1e-05,-5.9999999999999995e-05,5
22917,23642,0.00016999999999999999,-5e-05,0.0,-0.00022,-0.0003,-1e-05,1e-05,-5.9999999999999995e-05,5
22918,23643,0.00016999999999999999,-5e-05,0.0,-0.00022,-0.0003,-1e-05,1e-05,-5.9999999999999995e-05,5
22919,23644,0.00016999999999999999,-5e-05,0.0,-0.00022,-0.0003,-1e-05,1e-05,-5.9999999999999995e-05,5
22920,23645,0.00016999999999999999,-5e-05,0.0,-0.00022,-0.0003,-1e-05,1e-05,-5.9999999999999995e-05,5
22921,23646,0.00016999999999999999,-5e-05,0.0,-0.00022,-0.0003,-1e-05,1e-05,-5.9999999999999995e-05,5
22922,23647,0.00016999999999999999,-5e-05,0.0,-0.00022,-0.0003,-1e-05,1e-05,-5.9999999999999995e-05,5
22923,23648,0.00016999999999999999,-5e-05,0.0,-0.00022,-0.0003,-1e-05,1e-05,-5.9999999999999995e-05,5
22924,23649,0.00037999999999999997,-4e-05,-0.00018,0.00013000000000000002,2.9999999999999997e-05,7e-05,4e-05,-0.00015,5
22925,23650,0.00037999999999999997,-4e-05,-0.00018,0.00013000000000000002,2.9999999999999997e-05,7e-05,4e-05,-0.00015,5
22926,23651,-0.00059,-0.0001,5.9999999999999995e-05,-9e-05,0.0001,1e-05,-2.9999999999999997e-05,0.00058,5
22927,23652,-0.00059,-0.0001,5.9999999999999995e-05,-9e-05,0.0001,1e-05,-2.9999999999999997e-05,0.00058,5
22928,23653,-0.00059,-0.0001,5.9999999999999995e-05,-9e-05,0.0001,1e-05,-2.9999999999999997e-05,0.00058,5
22929,23654,-0.00059,-0.0001,5.9999999999999995e-05,-9e-05,0.0001,1e-05,-2.9999999999999997e-05,0.00058,5
22930,23655,-0.00059,-0.0001,5.9999999999999995e-05,-9e-05,0.0001,1e-05,-2.9999999999999997e-05,0.00058,5
22931,23656,-0.00059,-0.0001,5.9999999999999995e-05,-9e-05,0.0001,1e-05,-2.9999999999999997e-05,0.00058,5
22932,23657,-0.00059,-0.0001,5.9999999999999995e-05,-9e-05,0.0001,1e-05,-2.9999999999999997e-05,0.00058,5
22933,23658,-0.00059,-0.0001,5.9999999999999995e-05,-9e-05,0.0001,1e-05,-2.9999999999999997e-05,0.00058,5
22934,23659,-0.00059,-0.0001,5.9999999999999995e-05,-9e-05,0.0001,1e-05,-2.9999999999999997e-05,0.00058,5
22935,23660,-0.00059,-0.0001,5.9999999999999995e-05,-9e-05,0.0001,1e-05,-2.9999999999999997e-05,0.00058,5
22936,23661,-0.00059,-0.0001,5.9999999999999995e-05,-9e-05,0.0001,1e-05,-2.9999999999999997e-05,0.00058,5
22937,23662,-0.00059,-0.0001,5.9999999999999995e-05,-9e-05,0.0001,1e-05,-2.9999999999999997e-05,0.00058,5
22938,23663,-0.00059,-0.0001,5.9999999999999995e-05,-9e-05,0.0001,1e-05,-2.9999999999999997e-05,0.00058,5
22939,23664,-0.00059,-0.0001,5.9999999999999995e-05,-9e-05,0.0001,1e-05,-2.9999999999999997e-05,0.00058,5
22940,23665,-0.00059,-0.0001,5.9999999999999995e-05,-9e-05,0.0001,1e-05,-2.9999999999999997e-05,0.00058,5
22941,23666,-0.00059,-0.0001,5.9999999999999995e-05,-9e-05,0.0001,1e-05,-2.9999999999999997e-05,0.00058,5
22942,23667,-0.00059,-0.0001,5.9999999999999995e-05,-9e-05,0.0001,1e-05,-2.9999999999999997e-05,0.00058,5
22943,23668,-0.00059,-0.0001,5.9999999999999995e-05,-9e-05,0.0001,1e-05,-2.9999999999999997e-05,0.00058,5
22944,23669,-0.00059,-0.0001,5.9999999999999995e-05,-9e-05,0.0001,1e-05,-2.9999999999999997e-05,0.00058,5
22945,23670,-0.00059,-0.0001,5.9999999999999995e-05,-9e-05,0.0001,1e-05,-2.9999999999999997e-05,0.00058,5
22946,23671,-0.00059,-0.0001,5.9999999999999995e-05,-9e-05,0.0001,1e-05,-2.9999999999999997e-05,0.00058,5
22947,23672,-0.00059,-0.0001,5.9999999999999995e-05,-9e-05,0.0001,1e-05,-2.9999999999999997e-05,0.00058,5
22948,23673,0.00018999999999999998,2e-05,8e-05,0.00016999999999999999,0.0,7e-05,1e-05,4e-05,5
22949,23674,0.00018999999999999998,2e-05,8e-05,0.00016999999999999999,0.0,7e-05,1e-05,4e-05,5
22950,23675,0.00018999999999999998,2e-05,8e-05,0.00016999999999999999,0.0,7e-05,1e-05,4e-05,5
22951,23676,0.00018999999999999998,2e-05,8e-05,0.00016999999999999999,0.0,7e-05,1e-05,4e-05,5
22952,23677,0.00018999999999999998,2e-05,8e-05,0.00016999999999999999,0.0,7e-05,1e-05,4e-05,5
22953,23678,0.00018999999999999998,2e-05,8e-05,0.00016999999999999999,0.0,7e-05,1e-05,4e-05,5
22954,23683,0.00018999999999999998,2e-05,8e-05,0.00016999999999999999,0.0,7e-05,1e-05,4e-05,5
22955,23684,0.00018999999999999998,2e-05,8e-05,0.00016999999999999999,0.0,7e-05,1e-05,4e-05,5
22956,23685,0.00018999999999999998,2e-05,8e-05,0.00016999999999999999,0.0,7e-05,1e-05,4e-05,5
22957,23686,0.00018,2.9999999999999997e-05,-0.00026000000000000003,-0.00011,1e-05,5.9999999999999995e-05,2.9999999999999997e-05,0.00011,5
22958,23688,0.00018,2.9999999999999997e-05,-0.00026000000000000003,-0.00011,1e-05,5.9999999999999995e-05,2.9999999999999997e-05,0.00011,5
22959,23689,0.00018,2.9999999999999997e-05,-0.00026000000000000003,-0.00011,1e-05,5.9999999999999995e-05,2.9999999999999997e-05,0.00011,5
22960,23690,0.00018,2.9999999999999997e-05,-0.00026000000000000003,-0.00011,1e-05,5.9999999999999995e-05,2.9999999999999997e-05,0.00011,5
22961,23691,0.00018,2.9999999999999997e-05,-0.00026000000000000003,-0.00011,1e-05,5.9999999999999995e-05,2.9999999999999997e-05,0.00011,5
22962,23692,0.00018,2.9999999999999997e-05,-0.00026000000000000003,-0.00011,1e-05,5.9999999999999995e-05,2.9999999999999997e-05,0.00011,5
22963,23693,0.00018,2.9999999999999997e-05,-0.00026000000000000003,-0.00011,1e-05,5.9999999999999995e-05,2.9999999999999997e-05,0.00011,5
22964,23694,0.00018,2.9999999999999997e-05,-0.00026000000000000003,-0.00011,1e-05,5.9999999999999995e-05,2.9999999999999997e-05,0.00011,5
22965,23695,0.00018,2.9999999999999997e-05,-0.00026000000000000003,-0.00011,1e-05,5.9999999999999995e-05,2.9999999999999997e-05,0.00011,5
22966,23696,0.00018,2.9999999999999997e-05,-0.00026000000000000003,-0.00011,1e-05,5.9999999999999995e-05,2.9999999999999997e-05,0.00011,5
22967,23697,0.00018,2.9999999999999997e-05,-0.00026000000000000003,-0.00011,1e-05,5.9999999999999995e-05,2.9999999999999997e-05,0.00011,5
22968,23698,0.00018,2.9999999999999997e-05,-0.00026000000000000003,-0.00011,1e-05,5.9999999999999995e-05,2.9999999999999997e-05,0.00011,5
22969,23699,0.00018,2.9999999999999997e-05,-0.00026000000000000003,-0.00011,1e-05,5.9999999999999995e-05,2.9999999999999997e-05,0.00011,5
22970,23700,0.00026000000000000003,0.0,-7e-05,8e-05,-0.00025,-4e-05,0.0,0.00021,5
22971,23701,0.00026000000000000003,0.0,-7e-05,8e-05,-0.00025,-4e-05,0.0,0.00021,5
22972,23702,0.00026000000000000003,0.0,-7e-05,8e-05,-0.00025,-4e-05,0.0,0.00021,5
22973,23703,0.00026000000000000003,0.0,-7e-05,8e-05,-0.00025,-4e-05,0.0,0.00021,5
22974,23704,0.00026000000000000003,0.0,-7e-05,8e-05,-0.00025,-4e-05,0.0,0.00021,5
22975,23705,0.00026000000000000003,0.0,-7e-05,8e-05,-0.00025,-4e-05,0.0,0.00021,5
22976,23706,0.00026000000000000003,0.0,-7e-05,8e-05,-0.00025,-4e-05,0.0,0.00021,5
22977,23707,0.00026000000000000003,0.0,-7e-05,8e-05,-0.00025,-4e-05,0.0,0.00021,5
22978,23708,0.00026000000000000003,0.0,-7e-05,8e-05,-0.00025,-4e-05,0.0,0.00021,5
22979,23709,0.00016999999999999999,0.00011999999999999999,0.00018999999999999998,1e-05,2.9999999999999997e-05,-1e-05,-2.9999999999999997e-05,0.0,5
22980,23710,-0.00043,-8e-05,-5.9999999999999995e-05,0.00036,2e-05,-2.9999999999999997e-05,-2.9999999999999997e-05,0.0001,5
22981,23711,-0.00043,-8e-05,-5.9999999999999995e-05,0.00036,2e-05,-2.9999999999999997e-05,-2.9999999999999997e-05,0.0001,5
22982,23712,-0.00043,-8e-05,-5.9999999999999995e-05,0.00036,2e-05,-2.9999999999999997e-05,-2.9999999999999997e-05,0.0001,5
22983,23713,-0.00043,-8e-05,-5.9999999999999995e-05,0.00036,2e-05,-2.9999999999999997e-05,-2.9999999999999997e-05,0.0001,5
22984,23714,-0.00043,-8e-05,-5.9999999999999995e-05,0.00036,2e-05,-2.9999999999999997e-05,-2.9999999999999997e-05,0.0001,5
22985,23715,-0.00043,-8e-05,-5.9999999999999995e-05,0.00036,2e-05,-2.9999999999999997e-05,-2.9999999999999997e-05,0.0001,5
22986,23716,-0.00043,-8e-05,-5.9999999999999995e-05,0.00036,2e-05,-2.9999999999999997e-05,-2.9999999999999997e-05,0.0001,5
22987,23717,-0.00043,-8e-05,-5.9999999999999995e-05,0.00036,2e-05,-2.9999999999999997e-05,-2.9999999999999997e-05,0.0001,5
22988,23718,-0.00043,-8e-05,-5.9999999999999995e-05,0.00036,2e-05,-2.9999999999999997e-05,-2.9999999999999997e-05,0.0001,5
22989,23719,-0.00043,-8e-05,-5.9999999999999995e-05,0.00036,2e-05,-2.9999999999999997e-05,-2.9999999999999997e-05,0.0001,5
22990,23720,-0.00043,-8e-05,-5.9999999999999995e-05,0.00036,2e-05,-2.9999999999999997e-05,-2.9999999999999997e-05,0.0001,5
22991,23721,-0.00043,-8e-05,-5.9999999999999995e-05,0.00036,2e-05,-2.9999999999999997e-05,-2.9999999999999997e-05,0.0001,5
22992,23722,-0.00043,-8e-05,-5.9999999999999995e-05,0.00036,2e-05,-2.9999999999999997e-05,-2.9999999999999997e-05,0.0001,5
22993,23723,-0.00043,-8e-05,-5.9999999999999995e-05,0.00036,2e-05,-2.9999999999999997e-05,-2.9999999999999997e-05,0.0001,5
22994,23724,-0.00043,-8e-05,-5.9999999999999995e-05,0.00036,2e-05,-2.9999999999999997e-05,-2.9999999999999997e-05,0.0001,5
22995,23725,-0.00043,-8e-05,-5.9999999999999995e-05,0.00036,2e-05,-2.9999999999999997e-05,-2.9999999999999997e-05,0.0001,5
22996,23726,-0.00043,-8e-05,-5.9999999999999995e-05,0.00036,2e-05,-2.9999999999999997e-05,-2.9999999999999997e-05,0.0001,5
22997,23727,-0.00043,-8e-05,-5.9999999999999995e-05,0.00036,2e-05,-2.9999999999999997e-05,-2.9999999999999997e-05,0.0001,5
22998,23728,-0.00043,-8e-05,-5.9999999999999995e-05,0.00036,2e-05,-2.9999999999999997e-05,-2.9999999999999997e-05,0.0001,5
22999,23729,-0.00043,-8e-05,-5.9999999999999995e-05,0.00036,2e-05,-2.9999999999999997e-05,-2.9999999999999997e-05,0.0001,5
23000,23730,-0.00043,-8e-05,-5.9999999999999995e-05,0.00036,2e-05,-2.9999999999999997e-05,-2.9999999999999997e-05,0.0001,5
23001,23731,-0.00045,-0.00014,-7e-05,7e-05,-0.00011,-5e-05,-2.9999999999999997e-05,9e-05,5
23002,23732,0.00029,0.00011,-2e-05,-0.00039,-2e-05,1e-05,4e-05,0.0007,5
23003,23733,1e-05,-8e-05,-0.00011,-0.00018999999999999998,0.0,4e-05,-2.9999999999999997e-05,0.00014,5
23004,23734,1e-05,-8e-05,-0.00011,-0.00018999999999999998,0.0,4e-05,-2.9999999999999997e-05,0.00014,5
23005,23735,1e-05,-8e-05,-0.00011,-0.00018999999999999998,0.0,4e-05,-2.9999999999999997e-05,0.00014,5
23006,23736,1e-05,-8e-05,-0.00011,-0.00018999999999999998,0.0,4e-05,-2.9999999999999997e-05,0.00014,5
23007,23738,1e-05,-8e-05,-0.00011,-0.00018999999999999998,0.0,4e-05,-2.9999999999999997e-05,0.00014,5
23008,23739,1e-05,-8e-05,-0.00011,-0.00018999999999999998,0.0,4e-05,-2.9999999999999997e-05,0.00014,5
23009,23740,1e-05,-8e-05,-0.00011,-0.00018999999999999998,0.0,4e-05,-2.9999999999999997e-05,0.00014,5
23010,23741,1e-05,-8e-05,-0.00011,-0.00018999999999999998,0.0,4e-05,-2.9999999999999997e-05,0.00014,5
23011,23742,1e-05,-8e-05,-0.00011,-0.00018999999999999998,0.0,4e-05,-2.9999999999999997e-05,0.00014,5
23012,23743,1e-05,-8e-05,-0.00011,-0.00018999999999999998,0.0,4e-05,-2.9999999999999997e-05,0.00014,5
23013,23744,1e-05,-8e-05,-0.00011,-0.00018999999999999998,0.0,4e-05,-2.9999999999999997e-05,0.00014,5
23014,23745,1e-05,-8e-05,-0.00011,-0.00018999999999999998,0.0,4e-05,-2.9999999999999997e-05,0.00014,5
23015,23746,1e-05,-8e-05,-0.00011,-0.00018999999999999998,0.0,4e-05,-2.9999999999999997e-05,0.00014,5
23016,23747,1e-05,-8e-05,-0.00011,-0.00018999999999999998,0.0,4e-05,-2.9999999999999997e-05,0.00014,5
23017,23748,1e-05,-8e-05,-0.00011,-0.00018999999999999998,0.0,4e-05,-2.9999999999999997e-05,0.00014,5
23018,23749,1e-05,-8e-05,-0.00011,-0.00018999999999999998,0.0,4e-05,-2.9999999999999997e-05,0.00014,5
23019,23750,1e-05,-8e-05,-0.00011,-0.00018999999999999998,0.0,4e-05,-2.9999999999999997e-05,0.00014,5
23020,23751,1e-05,-8e-05,-0.00011,-0.00018999999999999998,0.0,4e-05,-2.9999999999999997e-05,0.00014,5
23021,23752,1e-05,-8e-05,-0.00011,-0.00018999999999999998,0.0,4e-05,-2.9999999999999997e-05,0.00014,5
23022,23753,1e-05,-8e-05,-0.00011,-0.00018999999999999998,0.0,4e-05,-2.9999999999999997e-05,0.00014,5
23023,23754,0.0005099999999999999,9e-05,5e-05,0.00018999999999999998,0.00039,-7e-05,-1e-05,4e-05,5
23024,23755,-0.00036,1e-05,1e-05,0.00011999999999999999,2e-05,2.9999999999999997e-05,-1e-05,-0.00016999999999999999,5
23025,23756,-0.00036,1e-05,1e-05,0.00011999999999999999,2e-05,2.9999999999999997e-05,-1e-05,-0.00016999999999999999,5
23026,23757,-0.00036,1e-05,1e-05,0.00011999999999999999,2e-05,2.9999999999999997e-05,-1e-05,-0.00016999999999999999,5
23027,23758,-0.00036,1e-05,1e-05,0.00011999999999999999,2e-05,2.9999999999999997e-05,-1e-05,-0.00016999999999999999,5
23028,23759,-0.00036,1e-05,1e-05,0.00011999999999999999,2e-05,2.9999999999999997e-05,-1e-05,-0.00016999999999999999,5
23029,23760,-0.00036,1e-05,1e-05,0.00011999999999999999,2e-05,2.9999999999999997e-05,-1e-05,-0.00016999999999999999,5
23030,23761,-0.00036,1e-05,1e-05,0.00011999999999999999,2e-05,2.9999999999999997e-05,-1e-05,-0.00016999999999999999,5
23031,23762,-0.00036,1e-05,1e-05,0.00011999999999999999,2e-05,2.9999999999999997e-05,-1e-05,-0.00016999999999999999,5
23032,23763,-0.00036,1e-05,1e-05,0.00011999999999999999,2e-05,2.9999999999999997e-05,-1e-05,-0.00016999999999999999,5
23033,23764,-0.00036,1e-05,1e-05,0.00011999999999999999,2e-05,2.9999999999999997e-05,-1e-05,-0.00016999999999999999,5
23034,23765,-0.00036,1e-05,1e-05,0.00011999999999999999,2e-05,2.9999999999999997e-05,-1e-05,-0.00016999999999999999,5
23035,23766,-0.00036,1e-05,1e-05,0.00011999999999999999,2e-05,2.9999999999999997e-05,-1e-05,-0.00016999999999999999,5
23036,23767,-0.00036,1e-05,1e-05,0.00011999999999999999,2e-05,2.9999999999999997e-05,-1e-05,-0.00016999999999999999,5
23037,23768,-0.00036,1e-05,1e-05,0.00011999999999999999,2e-05,2.9999999999999997e-05,-1e-05,-0.00016999999999999999,5
23038,23769,-0.00015,5e-05,0.0001,0.00065,-8e-05,0.0,1e-05,-0.00057,5
23039,23770,0.00016999999999999999,8e-05,0.00035,0.00013000000000000002,5.9999999999999995e-05,-1e-05,2.9999999999999997e-05,-0.00013000000000000002,5
23040,23771,0.00016999999999999999,8e-05,0.00035,0.00013000000000000002,5.9999999999999995e-05,-1e-05,2.9999999999999997e-05,-0.00013000000000000002,5
23041,23772,0.00016999999999999999,8e-05,0.00035,0.00013000000000000002,5.9999999999999995e-05,-1e-05,2.9999999999999997e-05,-0.00013000000000000002,5
23042,23773,0.00016999999999999999,8e-05,0.00035,0.00013000000000000002,5.9999999999999995e-05,-1e-05,2.9999999999999997e-05,-0.00013000000000000002,5
23043,23774,0.00016999999999999999,8e-05,0.00035,0.00013000000000000002,5.9999999999999995e-05,-1e-05,2.9999999999999997e-05,-0.00013000000000000002,5
23044,23775,0.00016999999999999999,8e-05,0.00035,0.00013000000000000002,5.9999999999999995e-05,-1e-05,2.9999999999999997e-05,-0.00013000000000000002,5
23045,23776,0.00016999999999999999,8e-05,0.00035,0.00013000000000000002,5.9999999999999995e-05,-1e-05,2.9999999999999997e-05,-0.00013000000000000002,5
23046,23777,0.00016999999999999999,8e-05,0.00035,0.00013000000000000002,5.9999999999999995e-05,-1e-05,2.9999999999999997e-05,-0.00013000000000000002,5
23047,23778,0.00016999999999999999,8e-05,0.00035,0.00013000000000000002,5.9999999999999995e-05,-1e-05,2.9999999999999997e-05,-0.00013000000000000002,5
23048,23779,0.00016999999999999999,8e-05,0.00035,0.00013000000000000002,5.9999999999999995e-05,-1e-05,2.9999999999999997e-05,-0.00013000000000000002,5
23049,23780,0.00016999999999999999,8e-05,0.00035,0.00013000000000000002,5.9999999999999995e-05,-1e-05,2.9999999999999997e-05,-0.00013000000000000002,5
23050,23781,0.00016999999999999999,8e-05,0.00035,0.00013000000000000002,5.9999999999999995e-05,-1e-05,2.9999999999999997e-05,-0.00013000000000000002,5
23051,23782,0.00016999999999999999,8e-05,0.00035,0.00013000000000000002,5.9999999999999995e-05,-1e-05,2.9999999999999997e-05,-0.00013000000000000002,5
23052,23783,0.00016999999999999999,8e-05,0.00035,0.00013000000000000002,5.9999999999999995e-05,-1e-05,2.9999999999999997e-05,-0.00013000000000000002,5
23053,23784,0.00016999999999999999,8e-05,0.00035,0.00013000000000000002,5.9999999999999995e-05,-1e-05,2.9999999999999997e-05,-0.00013000000000000002,5
23054,23785,0.00016999999999999999,8e-05,0.00035,0.00013000000000000002,5.9999999999999995e-05,-1e-05,2.9999999999999997e-05,-0.00013000000000000002,5
23055,23786,0.00016999999999999999,8e-05,0.00035,0.00013000000000000002,5.9999999999999995e-05,-1e-05,2.9999999999999997e-05,-0.00013000000000000002,5
23056,23788,0.00016999999999999999,8e-05,0.00035,0.00013000000000000002,5.9999999999999995e-05,-1e-05,2.9999999999999997e-05,-0.00013000000000000002,5
23057,23789,0.00016999999999999999,8e-05,0.00035,0.00013000000000000002,5.9999999999999995e-05,-1e-05,2.9999999999999997e-05,-0.00013000000000000002,5
23058,23790,0.00016999999999999999,8e-05,0.00035,0.00013000000000000002,5.9999999999999995e-05,-1e-05,2.9999999999999997e-05,-0.00013000000000000002,5
23059,23791,0.00016,0.0,0.00015,0.0002,-0.00018999999999999998,7e-05,-4e-05,-0.00036,5
23060,23792,0.00016,0.0,0.00015,0.0002,-0.00018999999999999998,7e-05,-4e-05,-0.00036,5
23061,23793,-4e-05,-5e-05,-0.00015,5e-05,-5.9999999999999995e-05,-5.9999999999999995e-05,0.0,0.00028,5
23062,23794,-4e-05,-5e-05,-0.00015,5e-05,-5.9999999999999995e-05,-5.9999999999999995e-05,0.0,0.00028,5
23063,23795,-4e-05,-5e-05,-0.00015,5e-05,-5.9999999999999995e-05,-5.9999999999999995e-05,0.0,0.00028,5
23064,23796,-4e-05,-5e-05,-0.00015,5e-05,-5.9999999999999995e-05,-5.9999999999999995e-05,0.0,0.00028,5
23065,23797,-4e-05,-5e-05,-0.00015,5e-05,-5.9999999999999995e-05,-5.9999999999999995e-05,0.0,0.00028,5
23066,23798,-4e-05,-5e-05,-0.00015,5e-05,-5.9999999999999995e-05,-5.9999999999999995e-05,0.0,0.00028,5
23067,23799,-4e-05,-5e-05,-0.00015,5e-05,-5.9999999999999995e-05,-5.9999999999999995e-05,0.0,0.00028,5
23068,23800,-4e-05,-5e-05,-0.00015,5e-05,-5.9999999999999995e-05,-5.9999999999999995e-05,0.0,0.00028,5
23069,23801,-4e-05,-5e-05,-0.00015,5e-05,-5.9999999999999995e-05,-5.9999999999999995e-05,0.0,0.00028,5
23070,23802,-4e-05,-5e-05,-0.00015,5e-05,-5.9999999999999995e-05,-5.9999999999999995e-05,0.0,0.00028,5
23071,23803,-4e-05,-5e-05,-0.00015,5e-05,-5.9999999999999995e-05,-5.9999999999999995e-05,0.0,0.00028,5
23072,23804,-4e-05,-5e-05,-0.00015,5e-05,-5.9999999999999995e-05,-5.9999999999999995e-05,0.0,0.00028,5
23073,23805,-4e-05,-5e-05,-0.00015,5e-05,-5.9999999999999995e-05,-5.9999999999999995e-05,0.0,0.00028,5
23074,23806,-4e-05,-5e-05,-0.00015,5e-05,-5.9999999999999995e-05,-5.9999999999999995e-05,0.0,0.00028,5
23075,23807,-4e-05,-5e-05,-0.00015,5e-05,-5.9999999999999995e-05,-5.9999999999999995e-05,0.0,0.00028,5
23076,23808,-4e-05,-5e-05,-0.00015,5e-05,-5.9999999999999995e-05,-5.9999999999999995e-05,0.0,0.00028,5
23077,23809,-4e-05,-5e-05,-0.00015,5e-05,-5.9999999999999995e-05,-5.9999999999999995e-05,0.0,0.00028,5
23078,23810,-4e-05,-5e-05,-0.00015,5e-05,-5.9999999999999995e-05,-5.9999999999999995e-05,0.0,0.00028,5
23079,23811,-4e-05,-5e-05,-0.00015,5e-05,-5.9999999999999995e-05,-5.9999999999999995e-05,0.0,0.00028,5
23080,23812,-4e-05,-5e-05,-0.00015,5e-05,-5.9999999999999995e-05,-5.9999999999999995e-05,0.0,0.00028,5
23081,23813,-4e-05,-5e-05,-0.00015,5e-05,-5.9999999999999995e-05,-5.9999999999999995e-05,0.0,0.00028,5
23082,23814,-7e-05,-0.00013000000000000002,-7e-05,-0.00011999999999999999,0.0,0.0,-1e-05,-0.00014,5
23083,23815,-7e-05,-0.00013000000000000002,-7e-05,-0.00011999999999999999,0.0,0.0,-1e-05,-0.00014,5
23084,23816,-0.00041,7e-05,0.00015,0.00023999999999999998,-7e-05,5.9999999999999995e-05,5e-05,0.00018,5
23085,23817,-0.00041,7e-05,0.00015,0.00023999999999999998,-7e-05,5.9999999999999995e-05,5e-05,0.00018,5
23086,23818,-0.00041,7e-05,0.00015,0.00023999999999999998,-7e-05,5.9999999999999995e-05,5e-05,0.00018,5
23087,23819,-0.00041,7e-05,0.00015,0.00023999999999999998,-7e-05,5.9999999999999995e-05,5e-05,0.00018,5
23088,23820,-0.00041,7e-05,0.00015,0.00023999999999999998,-7e-05,5.9999999999999995e-05,5e-05,0.00018,5
23089,23821,-0.00041,7e-05,0.00015,0.00023999999999999998,-7e-05,5.9999999999999995e-05,5e-05,0.00018,5
23090,23822,-0.00041,7e-05,0.00015,0.00023999999999999998,-7e-05,5.9999999999999995e-05,5e-05,0.00018,5
23091,23823,-0.00041,7e-05,0.00015,0.00023999999999999998,-7e-05,5.9999999999999995e-05,5e-05,0.00018,5
23092,23824,-0.00041,7e-05,0.00015,0.00023999999999999998,-7e-05,5.9999999999999995e-05,5e-05,0.00018,5
23093,23825,-0.00041,7e-05,0.00015,0.00023999999999999998,-7e-05,5.9999999999999995e-05,5e-05,0.00018,5
23094,23826,-0.00041,7e-05,0.00015,0.00023999999999999998,-7e-05,5.9999999999999995e-05,5e-05,0.00018,5
23095,23827,-0.00041,7e-05,0.00015,0.00023999999999999998,-7e-05,5.9999999999999995e-05,5e-05,0.00018,5
23096,23828,-0.00041,7e-05,0.00015,0.00023999999999999998,-7e-05,5.9999999999999995e-05,5e-05,0.00018,5
23097,23829,-0.00041,7e-05,0.00015,0.00023999999999999998,-7e-05,5.9999999999999995e-05,5e-05,0.00018,5
23098,23830,-0.00041,7e-05,0.00015,0.00023999999999999998,-7e-05,5.9999999999999995e-05,5e-05,0.00018,5
23099,23831,-0.00041,7e-05,0.00015,0.00023999999999999998,-7e-05,5.9999999999999995e-05,5e-05,0.00018,5
23100,23832,-0.00041,7e-05,0.00015,0.00023999999999999998,-7e-05,5.9999999999999995e-05,5e-05,0.00018,5
23101,23833,-0.00041,7e-05,0.00015,0.00023999999999999998,-7e-05,5.9999999999999995e-05,5e-05,0.00018,5
23102,23834,-0.00041,7e-05,0.00015,0.00023999999999999998,-7e-05,5.9999999999999995e-05,5e-05,0.00018,5
23103,23835,-0.00041,7e-05,0.00015,0.00023999999999999998,-7e-05,5.9999999999999995e-05,5e-05,0.00018,5
23104,23836,-0.00041,7e-05,0.00015,0.00023999999999999998,-7e-05,5.9999999999999995e-05,5e-05,0.00018,5
23105,23838,-0.00011,7e-05,5.9999999999999995e-05,-0.0002,0.00033999999999999997,-2e-05,0.0,-4e-05,5
23106,23839,-0.00011,7e-05,5.9999999999999995e-05,-0.0002,0.00033999999999999997,-2e-05,0.0,-4e-05,5
23107,23840,-0.00011,7e-05,5.9999999999999995e-05,-0.0002,0.00033999999999999997,-2e-05,0.0,-4e-05,5
23108,23841,-0.00011,7e-05,5.9999999999999995e-05,-0.0002,0.00033999999999999997,-2e-05,0.0,-4e-05,5
23109,23842,0.00027,5.9999999999999995e-05,0.00014,0.00022,0.00016,-2.9999999999999997e-05,-7e-05,-0.00043,5
23110,23843,0.00027,5.9999999999999995e-05,0.00014,0.00022,0.00016,-2.9999999999999997e-05,-7e-05,-0.00043,5
23111,23844,0.00027,5.9999999999999995e-05,0.00014,0.00022,0.00016,-2.9999999999999997e-05,-7e-05,-0.00043,5
23112,23845,0.00027,5.9999999999999995e-05,0.00014,0.00022,0.00016,-2.9999999999999997e-05,-7e-05,-0.00043,5
23113,23846,0.00027,5.9999999999999995e-05,0.00014,0.00022,0.00016,-2.9999999999999997e-05,-7e-05,-0.00043,5
23114,23847,0.00027,5.9999999999999995e-05,0.00014,0.00022,0.00016,-2.9999999999999997e-05,-7e-05,-0.00043,5
23115,23848,0.00027,5.9999999999999995e-05,0.00014,0.00022,0.00016,-2.9999999999999997e-05,-7e-05,-0.00043,5
23116,23849,0.00027,5.9999999999999995e-05,0.00014,0.00022,0.00016,-2.9999999999999997e-05,-7e-05,-0.00043,5
23117,23850,0.00027,5.9999999999999995e-05,0.00014,0.00022,0.00016,-2.9999999999999997e-05,-7e-05,-0.00043,5
23118,23851,0.00047999999999999996,2.9999999999999997e-05,5e-05,0.00033,-0.00015,-5e-05,5e-05,1e-05,5
23119,23852,0.00047999999999999996,2.9999999999999997e-05,5e-05,0.00033,-0.00015,-5e-05,5e-05,1e-05,5
23120,23853,0.00041,5.9999999999999995e-05,7e-05,-0.0001,-8e-05,2.9999999999999997e-05,-5.9999999999999995e-05,-0.00011,5
23121,23854,0.00041,5.9999999999999995e-05,7e-05,-0.0001,-8e-05,2.9999999999999997e-05,-5.9999999999999995e-05,-0.00011,5
23122,23855,0.00041,5.9999999999999995e-05,7e-05,-0.0001,-8e-05,2.9999999999999997e-05,-5.9999999999999995e-05,-0.00011,5
23123,23856,0.00041,5.9999999999999995e-05,7e-05,-0.0001,-8e-05,2.9999999999999997e-05,-5.9999999999999995e-05,-0.00011,5
23124,23857,0.00041,5.9999999999999995e-05,7e-05,-0.0001,-8e-05,2.9999999999999997e-05,-5.9999999999999995e-05,-0.00011,5
23125,23858,0.00041,5.9999999999999995e-05,7e-05,-0.0001,-8e-05,2.9999999999999997e-05,-5.9999999999999995e-05,-0.00011,5
23126,23859,0.00041,5.9999999999999995e-05,7e-05,-0.0001,-8e-05,2.9999999999999997e-05,-5.9999999999999995e-05,-0.00011,5
23127,23860,0.00041,5.9999999999999995e-05,7e-05,-0.0001,-8e-05,2.9999999999999997e-05,-5.9999999999999995e-05,-0.00011,5
23128,23861,0.00041,5.9999999999999995e-05,7e-05,-0.0001,-8e-05,2.9999999999999997e-05,-5.9999999999999995e-05,-0.00011,5
23129,23862,0.00041,5.9999999999999995e-05,7e-05,-0.0001,-8e-05,2.9999999999999997e-05,-5.9999999999999995e-05,-0.00011,5
23130,23863,0.00041,5.9999999999999995e-05,7e-05,-0.0001,-8e-05,2.9999999999999997e-05,-5.9999999999999995e-05,-0.00011,5
23131,23864,0.00041,5.9999999999999995e-05,7e-05,-0.0001,-8e-05,2.9999999999999997e-05,-5.9999999999999995e-05,-0.00011,5
23132,23865,0.00041,5.9999999999999995e-05,7e-05,-0.0001,-8e-05,2.9999999999999997e-05,-5.9999999999999995e-05,-0.00011,5
23133,23866,2e-05,0.0,-5e-05,-0.00033,-0.00022999999999999998,-1e-05,-5e-05,-2.9999999999999997e-05,5
23134,23867,2e-05,0.0,-5e-05,-0.00033,-0.00022999999999999998,-1e-05,-5e-05,-2.9999999999999997e-05,5
23135,23868,2e-05,0.0,-5e-05,-0.00033,-0.00022999999999999998,-1e-05,-5e-05,-2.9999999999999997e-05,5
23136,23869,2e-05,0.0,-5e-05,-0.00033,-0.00022999999999999998,-1e-05,-5e-05,-2.9999999999999997e-05,5
23137,23870,2e-05,0.0,-5e-05,-0.00033,-0.00022999999999999998,-1e-05,-5e-05,-2.9999999999999997e-05,5
23138,23871,2e-05,0.0,-5e-05,-0.00033,-0.00022999999999999998,-1e-05,-5e-05,-2.9999999999999997e-05,5
23139,23872,5.9999999999999995e-05,-5.9999999999999995e-05,-0.0002,-0.00026000000000000003,-0.00028,-9e-05,-5e-05,-0.00045,5
23140,23873,5.9999999999999995e-05,-5.9999999999999995e-05,-0.0002,-0.00026000000000000003,-0.00028,-9e-05,-5e-05,-0.00045,5
23141,23874,5.9999999999999995e-05,-5.9999999999999995e-05,-0.0002,-0.00026000000000000003,-0.00028,-9e-05,-5e-05,-0.00045,5
23142,23875,5.9999999999999995e-05,-5.9999999999999995e-05,-0.0002,-0.00026000000000000003,-0.00028,-9e-05,-5e-05,-0.00045,5
23143,23876,5.9999999999999995e-05,-5.9999999999999995e-05,-0.0002,-0.00026000000000000003,-0.00028,-9e-05,-5e-05,-0.00045,5
23144,23877,5.9999999999999995e-05,-5.9999999999999995e-05,-0.0002,-0.00026000000000000003,-0.00028,-9e-05,-5e-05,-0.00045,5
23145,23878,5.9999999999999995e-05,-5.9999999999999995e-05,-0.0002,-0.00026000000000000003,-0.00028,-9e-05,-5e-05,-0.00045,5
23146,23879,5.9999999999999995e-05,-5.9999999999999995e-05,-0.0002,-0.00026000000000000003,-0.00028,-9e-05,-5e-05,-0.00045,5
23147,23880,5.9999999999999995e-05,-5.9999999999999995e-05,-0.0002,-0.00026000000000000003,-0.00028,-9e-05,-5e-05,-0.00045,5
23148,23881,5.9999999999999995e-05,-5.9999999999999995e-05,-0.0002,-0.00026000000000000003,-0.00028,-9e-05,-5e-05,-0.00045,5
23149,23882,5.9999999999999995e-05,-5.9999999999999995e-05,-0.0002,-0.00026000000000000003,-0.00028,-9e-05,-5e-05,-0.00045,5
23150,23883,5.9999999999999995e-05,-5.9999999999999995e-05,-0.0002,-0.00026000000000000003,-0.00028,-9e-05,-5e-05,-0.00045,5
23151,23884,5.9999999999999995e-05,-5.9999999999999995e-05,-0.0002,-0.00026000000000000003,-0.00028,-9e-05,-5e-05,-0.00045,5
23152,23885,5.9999999999999995e-05,-5.9999999999999995e-05,-0.0002,-0.00026000000000000003,-0.00028,-9e-05,-5e-05,-0.00045,5
23153,23886,5.9999999999999995e-05,-5.9999999999999995e-05,-0.0002,-0.00026000000000000003,-0.00028,-9e-05,-5e-05,-0.00045,5
23154,23888,5.9999999999999995e-05,-5.9999999999999995e-05,-0.0002,-0.00026000000000000003,-0.00028,-9e-05,-5e-05,-0.00045,5
23155,23889,5.9999999999999995e-05,-5.9999999999999995e-05,-0.0002,-0.00026000000000000003,-0.00028,-9e-05,-5e-05,-0.00045,5
23156,23890,5.9999999999999995e-05,-5.9999999999999995e-05,-0.0002,-0.00026000000000000003,-0.00028,-9e-05,-5e-05,-0.00045,5
23157,23891,5.9999999999999995e-05,-5.9999999999999995e-05,-0.0002,-0.00026000000000000003,-0.00028,-9e-05,-5e-05,-0.00045,5
23158,23892,5.9999999999999995e-05,-5.9999999999999995e-05,-0.0002,-0.00026000000000000003,-0.00028,-9e-05,-5e-05,-0.00045,5
23159,23893,5.9999999999999995e-05,-5.9999999999999995e-05,-0.0002,-0.00026000000000000003,-0.00028,-9e-05,-5e-05,-0.00045,5
23160,23894,5.9999999999999995e-05,-5.9999999999999995e-05,-0.0002,-0.00026000000000000003,-0.00028,-9e-05,-5e-05,-0.00045,5
23161,23895,5.9999999999999995e-05,-5.9999999999999995e-05,-0.0002,-0.00026000000000000003,-0.00028,-9e-05,-5e-05,-0.00045,5
23162,23896,5.9999999999999995e-05,-5.9999999999999995e-05,-0.0002,-0.00026000000000000003,-0.00028,-9e-05,-5e-05,-0.00045,5
23163,23897,-8e-05,-7e-05,-8e-05,7e-05,0.00028,1e-05,2e-05,2.9999999999999997e-05,5
23164,23898,2e-05,-7e-05,-0.00011,-0.0002,-7e-05,-5e-05,-5e-05,5.9999999999999995e-05,5
23165,23899,2e-05,-7e-05,-0.00011,-0.0002,-7e-05,-5e-05,-5e-05,5.9999999999999995e-05,5
23166,23900,2e-05,-7e-05,-0.00011,-0.0002,-7e-05,-5e-05,-5e-05,5.9999999999999995e-05,5
23167,23901,2e-05,-7e-05,-0.00011,-0.0002,-7e-05,-5e-05,-5e-05,5.9999999999999995e-05,5
23168,23902,2e-05,-7e-05,-0.00011,-0.0002,-7e-05,-5e-05,-5e-05,5.9999999999999995e-05,5
23169,23903,2e-05,-7e-05,-0.00011,-0.0002,-7e-05,-5e-05,-5e-05,5.9999999999999995e-05,5
23170,23904,2e-05,-7e-05,-0.00011,-0.0002,-7e-05,-5e-05,-5e-05,5.9999999999999995e-05,5
23171,23905,2e-05,-7e-05,-0.00011,-0.0002,-7e-05,-5e-05,-5e-05,5.9999999999999995e-05,5
23172,23906,2e-05,-7e-05,-0.00011,-0.0002,-7e-05,-5e-05,-5e-05,5.9999999999999995e-05,5
23173,23907,2e-05,-7e-05,-0.00011,-0.0002,-7e-05,-5e-05,-5e-05,5.9999999999999995e-05,5
23174,23908,2e-05,-7e-05,-0.00011,-0.0002,-7e-05,-5e-05,-5e-05,5.9999999999999995e-05,5
23175,23909,2e-05,-7e-05,-0.00011,-0.0002,-7e-05,-5e-05,-5e-05,5.9999999999999995e-05,5
23176,23910,2e-05,-7e-05,-0.00011,-0.0002,-7e-05,-5e-05,-5e-05,5.9999999999999995e-05,5
23177,23911,2e-05,-7e-05,-0.00011,-0.0002,-7e-05,-5e-05,-5e-05,5.9999999999999995e-05,5
23178,23912,-0.0003,1e-05,-8e-05,-0.0003,-0.00011999999999999999,-1e-05,2e-05,7e-05,5
23179,23913,-0.0003,1e-05,-8e-05,-0.0003,-0.00011999999999999999,-1e-05,2e-05,7e-05,5
23180,23914,-0.0003,1e-05,-8e-05,-0.0003,-0.00011999999999999999,-1e-05,2e-05,7e-05,5
23181,23915,-0.0003,1e-05,-8e-05,-0.0003,-0.00011999999999999999,-1e-05,2e-05,7e-05,5
23182,23916,-0.0003,1e-05,-8e-05,-0.0003,-0.00011999999999999999,-1e-05,2e-05,7e-05,5
23183,23917,-0.0003,1e-05,-8e-05,-0.0003,-0.00011999999999999999,-1e-05,2e-05,7e-05,5
23184,23918,-0.0003,1e-05,-8e-05,-0.0003,-0.00011999999999999999,-1e-05,2e-05,7e-05,5
23185,23919,-0.0003,1e-05,-8e-05,-0.0003,-0.00011999999999999999,-1e-05,2e-05,7e-05,5
23186,23920,-0.0003,1e-05,-8e-05,-0.0003,-0.00011999999999999999,-1e-05,2e-05,7e-05,5
23187,23921,-0.0003,1e-05,-8e-05,-0.0003,-0.00011999999999999999,-1e-05,2e-05,7e-05,5
23188,23922,-0.0003,1e-05,-8e-05,-0.0003,-0.00011999999999999999,-1e-05,2e-05,7e-05,5
23189,23923,-0.0003,1e-05,-8e-05,-0.0003,-0.00011999999999999999,-1e-05,2e-05,7e-05,5
23190,23924,-0.0003,1e-05,-8e-05,-0.0003,-0.00011999999999999999,-1e-05,2e-05,7e-05,5
23191,23925,-0.0003,1e-05,-8e-05,-0.0003,-0.00011999999999999999,-1e-05,2e-05,7e-05,5
23192,23926,-4e-05,-5.9999999999999995e-05,-0.00011999999999999999,-0.00016,-0.0001,-5.9999999999999995e-05,-2e-05,-0.0004,5
23193,23927,-0.00014,-2e-05,-5e-05,-0.0002,-8e-05,-4e-05,-2e-05,0.00016999999999999999,5
23194,23928,-0.00014,-2e-05,-5e-05,-0.0002,-8e-05,-4e-05,-2e-05,0.00016999999999999999,5
23195,23929,-0.00014,-2e-05,-5e-05,-0.0002,-8e-05,-4e-05,-2e-05,0.00016999999999999999,5
23196,23930,-0.00014,-2e-05,-5e-05,-0.0002,-8e-05,-4e-05,-2e-05,0.00016999999999999999,5
23197,23931,-0.00014,-2e-05,-5e-05,-0.0002,-8e-05,-4e-05,-2e-05,0.00016999999999999999,5
23198,23932,-0.00011999999999999999,-2.9999999999999997e-05,-0.00021,-0.00016999999999999999,-5e-05,-2.9999999999999997e-05,2e-05,-0.00026000000000000003,5
23199,23933,-0.00011999999999999999,-2.9999999999999997e-05,-0.00021,-0.00016999999999999999,-5e-05,-2.9999999999999997e-05,2e-05,-0.00026000000000000003,5
23200,23934,-0.00011999999999999999,-2.9999999999999997e-05,-0.00021,-0.00016999999999999999,-5e-05,-2.9999999999999997e-05,2e-05,-0.00026000000000000003,5
23201,23935,-0.00011999999999999999,-2.9999999999999997e-05,-0.00021,-0.00016999999999999999,-5e-05,-2.9999999999999997e-05,2e-05,-0.00026000000000000003,5
23202,23936,-0.00011999999999999999,-2.9999999999999997e-05,-0.00021,-0.00016999999999999999,-5e-05,-2.9999999999999997e-05,2e-05,-0.00026000000000000003,5
23203,23938,-0.00011999999999999999,-2.9999999999999997e-05,-0.00021,-0.00016999999999999999,-5e-05,-2.9999999999999997e-05,2e-05,-0.00026000000000000003,5
23204,23939,-0.00011999999999999999,-2.9999999999999997e-05,-0.00021,-0.00016999999999999999,-5e-05,-2.9999999999999997e-05,2e-05,-0.00026000000000000003,5
23205,23940,-0.00011999999999999999,-2.9999999999999997e-05,-0.00021,-0.00016999999999999999,-5e-05,-2.9999999999999997e-05,2e-05,-0.00026000000000000003,5
23206,23941,-0.00011999999999999999,-2.9999999999999997e-05,-0.00021,-0.00016999999999999999,-5e-05,-2.9999999999999997e-05,2e-05,-0.00026000000000000003,5
23207,23942,-0.00011999999999999999,-2.9999999999999997e-05,-0.00021,-0.00016999999999999999,-5e-05,-2.9999999999999997e-05,2e-05,-0.00026000000000000003,5
23208,23943,-0.00011999999999999999,-2.9999999999999997e-05,-0.00021,-0.00016999999999999999,-5e-05,-2.9999999999999997e-05,2e-05,-0.00026000000000000003,5
23209,23944,-0.00011999999999999999,-2.9999999999999997e-05,-0.00021,-0.00016999999999999999,-5e-05,-2.9999999999999997e-05,2e-05,-0.00026000000000000003,5
23210,23945,-0.00011999999999999999,-2.9999999999999997e-05,-0.00021,-0.00016999999999999999,-5e-05,-2.9999999999999997e-05,2e-05,-0.00026000000000000003,5
23211,23946,-0.00011999999999999999,-2.9999999999999997e-05,-0.00021,-0.00016999999999999999,-5e-05,-2.9999999999999997e-05,2e-05,-0.00026000000000000003,5
23212,23947,-0.00011999999999999999,-2.9999999999999997e-05,-0.00021,-0.00016999999999999999,-5e-05,-2.9999999999999997e-05,2e-05,-0.00026000000000000003,5
23213,23948,-0.00011999999999999999,-2.9999999999999997e-05,-0.00021,-0.00016999999999999999,-5e-05,-2.9999999999999997e-05,2e-05,-0.00026000000000000003,5
23214,23949,-0.00033999999999999997,-4e-05,1e-05,-0.00016,-0.00016,-1e-05,-5.9999999999999995e-05,-5e-05,5
23215,23950,0.00011,-2.9999999999999997e-05,-5.9999999999999995e-05,-0.00029,-0.00014,-4e-05,5.9999999999999995e-05,0.0007,5
23216,23951,0.00011,-2.9999999999999997e-05,-5.9999999999999995e-05,-0.00029,-0.00014,-4e-05,5.9999999999999995e-05,0.0007,5
23217,23952,0.00011,-2.9999999999999997e-05,-5.9999999999999995e-05,-0.00029,-0.00014,-4e-05,5.9999999999999995e-05,0.0007,5
23218,23953,0.00011,-2.9999999999999997e-05,-5.9999999999999995e-05,-0.00029,-0.00014,-4e-05,5.9999999999999995e-05,0.0007,5
23219,23954,0.00011,-2.9999999999999997e-05,-5.9999999999999995e-05,-0.00029,-0.00014,-4e-05,5.9999999999999995e-05,0.0007,5
23220,23955,0.00011,-2.9999999999999997e-05,-5.9999999999999995e-05,-0.00029,-0.00014,-4e-05,5.9999999999999995e-05,0.0007,5
23221,23956,0.00011,-2.9999999999999997e-05,-5.9999999999999995e-05,-0.00029,-0.00014,-4e-05,5.9999999999999995e-05,0.0007,5
23222,23957,0.00011,-2.9999999999999997e-05,-5.9999999999999995e-05,-0.00029,-0.00014,-4e-05,5.9999999999999995e-05,0.0007,5
23223,23958,0.00011,-2.9999999999999997e-05,-5.9999999999999995e-05,-0.00029,-0.00014,-4e-05,5.9999999999999995e-05,0.0007,5
23224,23959,0.00011,-2.9999999999999997e-05,-5.9999999999999995e-05,-0.00029,-0.00014,-4e-05,5.9999999999999995e-05,0.0007,5
23225,23960,0.00011,-2.9999999999999997e-05,-5.9999999999999995e-05,-0.00029,-0.00014,-4e-05,5.9999999999999995e-05,0.0007,5
23226,23961,0.00011,-2.9999999999999997e-05,-5.9999999999999995e-05,-0.00029,-0.00014,-4e-05,5.9999999999999995e-05,0.0007,5
23227,23962,0.00011,-2.9999999999999997e-05,-5.9999999999999995e-05,-0.00029,-0.00014,-4e-05,5.9999999999999995e-05,0.0007,5
23228,23963,0.00011,-2.9999999999999997e-05,-5.9999999999999995e-05,-0.00029,-0.00014,-4e-05,5.9999999999999995e-05,0.0007,5
23229,23964,0.00011,-2.9999999999999997e-05,-5.9999999999999995e-05,-0.00029,-0.00014,-4e-05,5.9999999999999995e-05,0.0007,5
23230,23965,0.00011,-2.9999999999999997e-05,-5.9999999999999995e-05,-0.00029,-0.00014,-4e-05,5.9999999999999995e-05,0.0007,5
23231,23966,0.00011,-2.9999999999999997e-05,-5.9999999999999995e-05,-0.00029,-0.00014,-4e-05,5.9999999999999995e-05,0.0007,5
23232,23967,0.00011,-2.9999999999999997e-05,-5.9999999999999995e-05,-0.00029,-0.00014,-4e-05,5.9999999999999995e-05,0.0007,5
23233,23968,0.00011,-2.9999999999999997e-05,-5.9999999999999995e-05,-0.00029,-0.00014,-4e-05,5.9999999999999995e-05,0.0007,5
23234,23969,0.00011,-2.9999999999999997e-05,-5.9999999999999995e-05,-0.00029,-0.00014,-4e-05,5.9999999999999995e-05,0.0007,5
23235,23970,0.00011,-2.9999999999999997e-05,-5.9999999999999995e-05,-0.00029,-0.00014,-4e-05,5.9999999999999995e-05,0.0007,5
23236,23971,0.00011,-2.9999999999999997e-05,-5.9999999999999995e-05,-0.00029,-0.00014,-4e-05,5.9999999999999995e-05,0.0007,5
23237,23972,0.00011,-2.9999999999999997e-05,-5.9999999999999995e-05,-0.00029,-0.00014,-4e-05,5.9999999999999995e-05,0.0007,5
23238,23973,0.00011,-2.9999999999999997e-05,-5.9999999999999995e-05,-0.00029,-0.00014,-4e-05,5.9999999999999995e-05,0.0007,5
23239,23974,0.00011,-2.9999999999999997e-05,-5.9999999999999995e-05,-0.00029,-0.00014,-4e-05,5.9999999999999995e-05,0.0007,5
23240,23975,0.00011,-2.9999999999999997e-05,-5.9999999999999995e-05,-0.00029,-0.00014,-4e-05,5.9999999999999995e-05,0.0007,5
23241,23976,0.00011,-2.9999999999999997e-05,-5.9999999999999995e-05,-0.00029,-0.00014,-4e-05,5.9999999999999995e-05,0.0007,5
23242,23977,0.00011,-2.9999999999999997e-05,-5.9999999999999995e-05,-0.00029,-0.00014,-4e-05,5.9999999999999995e-05,0.0007,5
23243,23978,0.00011,-2.9999999999999997e-05,-5.9999999999999995e-05,-0.00029,-0.00014,-4e-05,5.9999999999999995e-05,0.0007,5
23244,23979,0.00011,-2.9999999999999997e-05,-5.9999999999999995e-05,-0.00029,-0.00014,-4e-05,5.9999999999999995e-05,0.0007,5
23245,23980,0.00011,-2.9999999999999997e-05,-5.9999999999999995e-05,-0.00029,-0.00014,-4e-05,5.9999999999999995e-05,0.0007,5
23246,23981,0.00011,-2.9999999999999997e-05,-5.9999999999999995e-05,-0.00029,-0.00014,-4e-05,5.9999999999999995e-05,0.0007,5
23247,23982,0.00011,-2.9999999999999997e-05,-5.9999999999999995e-05,-0.00029,-0.00014,-4e-05,5.9999999999999995e-05,0.0007,5
23248,23983,0.00011,-2.9999999999999997e-05,-5.9999999999999995e-05,-0.00029,-0.00014,-4e-05,5.9999999999999995e-05,0.0007,5
23249,23984,0.00011,-2.9999999999999997e-05,-5.9999999999999995e-05,-0.00029,-0.00014,-4e-05,5.9999999999999995e-05,0.0007,5
23250,23985,0.00011,-2.9999999999999997e-05,-5.9999999999999995e-05,-0.00029,-0.00014,-4e-05,5.9999999999999995e-05,0.0007,5
23251,23986,0.00011,-2.9999999999999997e-05,-5.9999999999999995e-05,-0.00029,-0.00014,-4e-05,5.9999999999999995e-05,0.0007,5
23252,23988,-0.00064,-5.9999999999999995e-05,2.9999999999999997e-05,-0.00016999999999999999,-0.00018,1e-05,-9e-05,-0.00014,5
23253,23989,4e-05,-2e-05,2e-05,0.00047999999999999996,0.00035,5.9999999999999995e-05,5.9999999999999995e-05,0.00037999999999999997,5
23254,23990,-4e-05,8e-05,0.00016,0.00036,0.00018,0.0,2e-05,0.00013000000000000002,5
23255,23991,-4e-05,8e-05,0.00016,0.00036,0.00018,0.0,2e-05,0.00013000000000000002,5
23256,23992,-4e-05,8e-05,0.00016,0.00036,0.00018,0.0,2e-05,0.00013000000000000002,5
23257,23993,-4e-05,8e-05,0.00016,0.00036,0.00018,0.0,2e-05,0.00013000000000000002,5
23258,23994,-4e-05,8e-05,0.00016,0.00036,0.00018,0.0,2e-05,0.00013000000000000002,5
23259,23995,-4e-05,8e-05,0.00016,0.00036,0.00018,0.0,2e-05,0.00013000000000000002,5
23260,23996,-4e-05,8e-05,0.00016,0.00036,0.00018,0.0,2e-05,0.00013000000000000002,5
23261,23997,-4e-05,8e-05,0.00016,0.00036,0.00018,0.0,2e-05,0.00013000000000000002,5
23262,23998,-4e-05,8e-05,0.00016,0.00036,0.00018,0.0,2e-05,0.00013000000000000002,5
23263,23999,-4e-05,8e-05,0.00016,0.00036,0.00018,0.0,2e-05,0.00013000000000000002,5
23264,24000,-4e-05,8e-05,0.00016,0.00036,0.00018,0.0,2e-05,0.00013000000000000002,5
23265,24001,-4e-05,8e-05,0.00016,0.00036,0.00018,0.0,2e-05,0.00013000000000000002,5
23266,24002,-4e-05,8e-05,0.00016,0.00036,0.00018,0.0,2e-05,0.00013000000000000002,5
23267,24003,-4e-05,8e-05,0.00016,0.00036,0.00018,0.0,2e-05,0.00013000000000000002,5
23268,24004,-4e-05,8e-05,0.00016,0.00036,0.00018,0.0,2e-05,0.00013000000000000002,5
23269,24005,-4e-05,8e-05,0.00016,0.00036,0.00018,0.0,2e-05,0.00013000000000000002,5
23270,24006,-4e-05,8e-05,0.00016,0.00036,0.00018,0.0,2e-05,0.00013000000000000002,5
23271,24007,-4e-05,8e-05,0.00016,0.00036,0.00018,0.0,2e-05,0.00013000000000000002,5
23272,24008,-4e-05,8e-05,0.00016,0.00036,0.00018,0.0,2e-05,0.00013000000000000002,5
23273,24009,0.0,2e-05,-2.9999999999999997e-05,-0.00023999999999999998,-0.00016999999999999999,-2.9999999999999997e-05,-8e-05,-0.00045999999999999996,5
23274,24010,-0.00016,-0.00011,-5e-05,0.0003,-8e-05,-2.9999999999999997e-05,-1e-05,0.00028,5
23275,24011,0.00074,5.9999999999999995e-05,2.9999999999999997e-05,0.00018999999999999998,-9e-05,-5e-05,-1e-05,0.00022,5
23276,24012,0.00074,5.9999999999999995e-05,2.9999999999999997e-05,0.00018999999999999998,-9e-05,-5e-05,-1e-05,0.00022,5
23277,24013,0.00074,5.9999999999999995e-05,2.9999999999999997e-05,0.00018999999999999998,-9e-05,-5e-05,-1e-05,0.00022,5
23278,24014,0.00074,5.9999999999999995e-05,2.9999999999999997e-05,0.00018999999999999998,-9e-05,-5e-05,-1e-05,0.00022,5
23279,24015,0.00074,5.9999999999999995e-05,2.9999999999999997e-05,0.00018999999999999998,-9e-05,-5e-05,-1e-05,0.00022,5
23280,24016,0.00074,5.9999999999999995e-05,2.9999999999999997e-05,0.00018999999999999998,-9e-05,-5e-05,-1e-05,0.00022,5
23281,24017,0.00074,5.9999999999999995e-05,2.9999999999999997e-05,0.00018999999999999998,-9e-05,-5e-05,-1e-05,0.00022,5
23282,24018,0.00074,5.9999999999999995e-05,2.9999999999999997e-05,0.00018999999999999998,-9e-05,-5e-05,-1e-05,0.00022,5
23283,24019,0.00074,5.9999999999999995e-05,2.9999999999999997e-05,0.00018999999999999998,-9e-05,-5e-05,-1e-05,0.00022,5
23284,24020,0.00074,5.9999999999999995e-05,2.9999999999999997e-05,0.00018999999999999998,-9e-05,-5e-05,-1e-05,0.00022,5
23285,24021,0.00074,5.9999999999999995e-05,2.9999999999999997e-05,0.00018999999999999998,-9e-05,-5e-05,-1e-05,0.00022,5
23286,24022,0.00074,5.9999999999999995e-05,2.9999999999999997e-05,0.00018999999999999998,-9e-05,-5e-05,-1e-05,0.00022,5
23287,24023,0.00074,5.9999999999999995e-05,2.9999999999999997e-05,0.00018999999999999998,-9e-05,-5e-05,-1e-05,0.00022,5
23288,24024,0.00074,5.9999999999999995e-05,2.9999999999999997e-05,0.00018999999999999998,-9e-05,-5e-05,-1e-05,0.00022,5
23289,24025,0.00074,5.9999999999999995e-05,2.9999999999999997e-05,0.00018999999999999998,-9e-05,-5e-05,-1e-05,0.00022,5
23290,24026,0.00074,5.9999999999999995e-05,2.9999999999999997e-05,0.00018999999999999998,-9e-05,-5e-05,-1e-05,0.00022,5
23291,24027,0.00074,5.9999999999999995e-05,2.9999999999999997e-05,0.00018999999999999998,-9e-05,-5e-05,-1e-05,0.00022,5
23292,24028,0.00074,5.9999999999999995e-05,2.9999999999999997e-05,0.00018999999999999998,-9e-05,-5e-05,-1e-05,0.00022,5
23293,24029,0.00074,5.9999999999999995e-05,2.9999999999999997e-05,0.00018999999999999998,-9e-05,-5e-05,-1e-05,0.00022,5
23294,24030,0.00074,5.9999999999999995e-05,2.9999999999999997e-05,0.00018999999999999998,-9e-05,-5e-05,-1e-05,0.00022,5
23295,24031,0.00074,5.9999999999999995e-05,2.9999999999999997e-05,0.00018999999999999998,-9e-05,-5e-05,-1e-05,0.00022,5
23296,24032,-0.0005200000000000001,-2.9999999999999997e-05,-2.9999999999999997e-05,-0.00031,-0.00033999999999999997,-2.9999999999999997e-05,1e-05,0.00033,5
23297,24033,-0.00037,5e-05,8e-05,-5e-05,0.00025,0.0,-2e-05,-0.00018999999999999998,5
23298,24034,-0.00037,5e-05,8e-05,-5e-05,0.00025,0.0,-2e-05,-0.00018999999999999998,5
23299,24035,-0.00037,5e-05,8e-05,-5e-05,0.00025,0.0,-2e-05,-0.00018999999999999998,5
23300,24036,-0.00037,5e-05,8e-05,-5e-05,0.00025,0.0,-2e-05,-0.00018999999999999998,5
23301,24038,-0.00037,5e-05,8e-05,-5e-05,0.00025,0.0,-2e-05,-0.00018999999999999998,5
23302,24039,-0.00037,5e-05,8e-05,-5e-05,0.00025,0.0,-2e-05,-0.00018999999999999998,5
23303,24040,-0.00037,5e-05,8e-05,-5e-05,0.00025,0.0,-2e-05,-0.00018999999999999998,5
23304,24041,-0.00037,5e-05,8e-05,-5e-05,0.00025,0.0,-2e-05,-0.00018999999999999998,5
23305,24042,-0.00037,5e-05,8e-05,-5e-05,0.00025,0.0,-2e-05,-0.00018999999999999998,5
23306,24043,-0.00037,5e-05,8e-05,-5e-05,0.00025,0.0,-2e-05,-0.00018999999999999998,5
23307,24044,-0.00037,5e-05,8e-05,-5e-05,0.00025,0.0,-2e-05,-0.00018999999999999998,5
23308,24045,-0.00011,-7e-05,-0.00011999999999999999,-0.00013000000000000002,1e-05,-2.9999999999999997e-05,-2e-05,-5.9999999999999995e-05,5
23309,24046,-0.00011,-7e-05,-0.00011999999999999999,-0.00013000000000000002,1e-05,-2.9999999999999997e-05,-2e-05,-5.9999999999999995e-05,5
23310,24047,-0.00011,-7e-05,-0.00011999999999999999,-0.00013000000000000002,1e-05,-2.9999999999999997e-05,-2e-05,-5.9999999999999995e-05,5
23311,24048,-0.00011,-7e-05,-0.00011999999999999999,-0.00013000000000000002,1e-05,-2.9999999999999997e-05,-2e-05,-5.9999999999999995e-05,5
23312,24049,-0.00011,-7e-05,-0.00011999999999999999,-0.00013000000000000002,1e-05,-2.9999999999999997e-05,-2e-05,-5.9999999999999995e-05,5
23313,24050,-0.00011,-7e-05,-0.00011999999999999999,-0.00013000000000000002,1e-05,-2.9999999999999997e-05,-2e-05,-5.9999999999999995e-05,5
23314,24051,-0.00011,-7e-05,-0.00011999999999999999,-0.00013000000000000002,1e-05,-2.9999999999999997e-05,-2e-05,-5.9999999999999995e-05,5
23315,24052,-0.00011,-7e-05,-0.00011999999999999999,-0.00013000000000000002,1e-05,-2.9999999999999997e-05,-2e-05,-5.9999999999999995e-05,5
23316,24053,-0.00011,-7e-05,-0.00011999999999999999,-0.00013000000000000002,1e-05,-2.9999999999999997e-05,-2e-05,-5.9999999999999995e-05,5
23317,24054,-0.00011,-7e-05,-0.00011999999999999999,-0.00013000000000000002,1e-05,-2.9999999999999997e-05,-2e-05,-5.9999999999999995e-05,5
23318,24055,-0.00011,-7e-05,-0.00011999999999999999,-0.00013000000000000002,1e-05,-2.9999999999999997e-05,-2e-05,-5.9999999999999995e-05,5
23319,24056,-0.00011,-7e-05,-0.00011999999999999999,-0.00013000000000000002,1e-05,-2.9999999999999997e-05,-2e-05,-5.9999999999999995e-05,5
23320,24057,-0.00011,-7e-05,-0.00011999999999999999,-0.00013000000000000002,1e-05,-2.9999999999999997e-05,-2e-05,-5.9999999999999995e-05,5
23321,24058,-0.00011,-7e-05,-0.00011999999999999999,-0.00013000000000000002,1e-05,-2.9999999999999997e-05,-2e-05,-5.9999999999999995e-05,5
23322,24059,-0.00011,-7e-05,-0.00011999999999999999,-0.00013000000000000002,1e-05,-2.9999999999999997e-05,-2e-05,-5.9999999999999995e-05,5
23323,24060,-0.00011,-7e-05,-0.00011999999999999999,-0.00013000000000000002,1e-05,-2.9999999999999997e-05,-2e-05,-5.9999999999999995e-05,5
23324,24061,0.00035,-0.00027,-0.00018999999999999998,-0.00014,0.0,5e-05,5.9999999999999995e-05,0.0007,5
23325,24062,0.00035,-0.00027,-0.00018999999999999998,-0.00014,0.0,5e-05,5.9999999999999995e-05,0.0007,5
23326,24063,0.00035,-0.00027,-0.00018999999999999998,-0.00014,0.0,5e-05,5.9999999999999995e-05,0.0007,5
23327,24064,0.00035,-0.00027,-0.00018999999999999998,-0.00014,0.0,5e-05,5.9999999999999995e-05,0.0007,5
23328,24065,0.00035,-0.00027,-0.00018999999999999998,-0.00014,0.0,5e-05,5.9999999999999995e-05,0.0007,5
23329,24066,0.00035,-0.00027,-0.00018999999999999998,-0.00014,0.0,5e-05,5.9999999999999995e-05,0.0007,5
23330,24067,0.00035,-0.00027,-0.00018999999999999998,-0.00014,0.0,5e-05,5.9999999999999995e-05,0.0007,5
23331,24068,0.00035,-0.00027,-0.00018999999999999998,-0.00014,0.0,5e-05,5.9999999999999995e-05,0.0007,5
23332,24069,0.00045999999999999996,2.9999999999999997e-05,0.00014,-5.9999999999999995e-05,8e-05,1e-05,-4e-05,-0.0002,5
23333,24070,-0.0001,-2e-05,2.9999999999999997e-05,0.00047000000000000004,0.00016999999999999999,2.9999999999999997e-05,-2.9999999999999997e-05,-8e-05,5
23334,24071,-0.0001,-2e-05,2.9999999999999997e-05,0.00047000000000000004,0.00016999999999999999,2.9999999999999997e-05,-2.9999999999999997e-05,-8e-05,5
23335,24072,-0.0001,-2e-05,2.9999999999999997e-05,0.00047000000000000004,0.00016999999999999999,2.9999999999999997e-05,-2.9999999999999997e-05,-8e-05,5
23336,24073,-0.0001,-2e-05,2.9999999999999997e-05,0.00047000000000000004,0.00016999999999999999,2.9999999999999997e-05,-2.9999999999999997e-05,-8e-05,5
23337,24074,-0.0001,-2e-05,2.9999999999999997e-05,0.00047000000000000004,0.00016999999999999999,2.9999999999999997e-05,-2.9999999999999997e-05,-8e-05,5
23338,24075,-0.0001,-2e-05,2.9999999999999997e-05,0.00047000000000000004,0.00016999999999999999,2.9999999999999997e-05,-2.9999999999999997e-05,-8e-05,5
23339,24076,-0.0001,-2e-05,2.9999999999999997e-05,0.00047000000000000004,0.00016999999999999999,2.9999999999999997e-05,-2.9999999999999997e-05,-8e-05,5
23340,24077,-0.0001,-2e-05,2.9999999999999997e-05,0.00047000000000000004,0.00016999999999999999,2.9999999999999997e-05,-2.9999999999999997e-05,-8e-05,5
23341,24078,-0.0001,-2e-05,2.9999999999999997e-05,0.00047000000000000004,0.00016999999999999999,2.9999999999999997e-05,-2.9999999999999997e-05,-8e-05,5
23342,24079,-0.0001,-2e-05,2.9999999999999997e-05,0.00047000000000000004,0.00016999999999999999,2.9999999999999997e-05,-2.9999999999999997e-05,-8e-05,5
23343,24080,-0.0001,-2e-05,2.9999999999999997e-05,0.00047000000000000004,0.00016999999999999999,2.9999999999999997e-05,-2.9999999999999997e-05,-8e-05,5
23344,24081,-0.0001,-2e-05,2.9999999999999997e-05,0.00047000000000000004,0.00016999999999999999,2.9999999999999997e-05,-2.9999999999999997e-05,-8e-05,5
23345,24082,-0.0001,-2e-05,2.9999999999999997e-05,0.00047000000000000004,0.00016999999999999999,2.9999999999999997e-05,-2.9999999999999997e-05,-8e-05,5
23346,24083,-0.0001,-2e-05,2.9999999999999997e-05,0.00047000000000000004,0.00016999999999999999,2.9999999999999997e-05,-2.9999999999999997e-05,-8e-05,5
23347,24084,-0.0001,-2e-05,2.9999999999999997e-05,0.00047000000000000004,0.00016999999999999999,2.9999999999999997e-05,-2.9999999999999997e-05,-8e-05,5
23348,24085,-0.0001,-2e-05,2.9999999999999997e-05,0.00047000000000000004,0.00016999999999999999,2.9999999999999997e-05,-2.9999999999999997e-05,-8e-05,5
23349,24086,-0.0001,-2e-05,2.9999999999999997e-05,0.00047000000000000004,0.00016999999999999999,2.9999999999999997e-05,-2.9999999999999997e-05,-8e-05,5
23350,24088,-0.0001,-2e-05,2.9999999999999997e-05,0.00047000000000000004,0.00016999999999999999,2.9999999999999997e-05,-2.9999999999999997e-05,-8e-05,5
23351,24089,-0.0001,-2e-05,2.9999999999999997e-05,0.00047000000000000004,0.00016999999999999999,2.9999999999999997e-05,-2.9999999999999997e-05,-8e-05,5
23352,24090,-0.0001,-2e-05,2.9999999999999997e-05,0.00047000000000000004,0.00016999999999999999,2.9999999999999997e-05,-2.9999999999999997e-05,-8e-05,5
23353,24091,-0.0001,-2e-05,2.9999999999999997e-05,0.00047000000000000004,0.00016999999999999999,2.9999999999999997e-05,-2.9999999999999997e-05,-8e-05,5
23354,24092,0.00022999999999999998,-7e-05,0.00013000000000000002,0.0001,-5.9999999999999995e-05,2e-05,1e-05,-0.00037999999999999997,5
23355,24093,-4e-05,5.9999999999999995e-05,0.0001,0.00013000000000000002,-0.0001,-2e-05,-1e-05,5e-05,5
23356,24094,-4e-05,5.9999999999999995e-05,0.0001,0.00013000000000000002,-0.0001,-2e-05,-1e-05,5e-05,5
23357,24095,-4e-05,5.9999999999999995e-05,0.0001,0.00013000000000000002,-0.0001,-2e-05,-1e-05,5e-05,5
23358,24096,-4e-05,5.9999999999999995e-05,0.0001,0.00013000000000000002,-0.0001,-2e-05,-1e-05,5e-05,5
23359,24097,-4e-05,5.9999999999999995e-05,0.0001,0.00013000000000000002,-0.0001,-2e-05,-1e-05,5e-05,5
23360,24098,-4e-05,5.9999999999999995e-05,0.0001,0.00013000000000000002,-0.0001,-2e-05,-1e-05,5e-05,5
23361,24099,-4e-05,5.9999999999999995e-05,0.0001,0.00013000000000000002,-0.0001,-2e-05,-1e-05,5e-05,5
23362,24100,-4e-05,5.9999999999999995e-05,0.0001,0.00013000000000000002,-0.0001,-2e-05,-1e-05,5e-05,5
23363,24101,-4e-05,5.9999999999999995e-05,0.0001,0.00013000000000000002,-0.0001,-2e-05,-1e-05,5e-05,5
23364,24102,-4e-05,5.9999999999999995e-05,0.0001,0.00013000000000000002,-0.0001,-2e-05,-1e-05,5e-05,5
23365,24103,-4e-05,5.9999999999999995e-05,0.0001,0.00013000000000000002,-0.0001,-2e-05,-1e-05,5e-05,5
23366,24104,-4e-05,5.9999999999999995e-05,0.0001,0.00013000000000000002,-0.0001,-2e-05,-1e-05,5e-05,5
23367,24105,-4e-05,5.9999999999999995e-05,0.0001,0.00013000000000000002,-0.0001,-2e-05,-1e-05,5e-05,5
23368,24106,-4e-05,5.9999999999999995e-05,0.0001,0.00013000000000000002,-0.0001,-2e-05,-1e-05,5e-05,5
23369,24107,-4e-05,5.9999999999999995e-05,0.0001,0.00013000000000000002,-0.0001,-2e-05,-1e-05,5e-05,5
23370,24108,-4e-05,5.9999999999999995e-05,0.0001,0.00013000000000000002,-0.0001,-2e-05,-1e-05,5e-05,5
23371,24109,-4e-05,5.9999999999999995e-05,0.0001,0.00013000000000000002,-0.0001,-2e-05,-1e-05,5e-05,5
23372,24110,-4e-05,5.9999999999999995e-05,0.0001,0.00013000000000000002,-0.0001,-2e-05,-1e-05,5e-05,5
23373,24111,-4e-05,5.9999999999999995e-05,0.0001,0.00013000000000000002,-0.0001,-2e-05,-1e-05,5e-05,5
23374,24112,-4e-05,5.9999999999999995e-05,0.0001,0.00013000000000000002,-0.0001,-2e-05,-1e-05,5e-05,5
23375,24113,-4e-05,5.9999999999999995e-05,0.0001,0.00013000000000000002,-0.0001,-2e-05,-1e-05,5e-05,5
23376,24114,0.00028,4e-05,-4e-05,0.00018,-1e-05,2e-05,-5e-05,-0.00016999999999999999,5
23377,24115,0.00028,4e-05,-4e-05,0.00018,-1e-05,2e-05,-5e-05,-0.00016999999999999999,5
23378,24116,-0.00013000000000000002,5e-05,-5e-05,-0.00021,-0.00011,2e-05,2.9999999999999997e-05,-0.00011999999999999999,5
23379,24117,-0.00013000000000000002,5e-05,-5e-05,-0.00021,-0.00011,2e-05,2.9999999999999997e-05,-0.00011999999999999999,5
23380,24118,-0.00013000000000000002,5e-05,-5e-05,-0.00021,-0.00011,2e-05,2.9999999999999997e-05,-0.00011999999999999999,5
23381,24119,-0.00013000000000000002,5e-05,-5e-05,-0.00021,-0.00011,2e-05,2.9999999999999997e-05,-0.00011999999999999999,5
23382,24120,-0.00013000000000000002,5e-05,-5e-05,-0.00021,-0.00011,2e-05,2.9999999999999997e-05,-0.00011999999999999999,5
23383,24121,-0.00013000000000000002,5e-05,-5e-05,-0.00021,-0.00011,2e-05,2.9999999999999997e-05,-0.00011999999999999999,5
23384,24122,-0.00013000000000000002,5e-05,-5e-05,-0.00021,-0.00011,2e-05,2.9999999999999997e-05,-0.00011999999999999999,5
23385,24123,-0.00013000000000000002,5e-05,-5e-05,-0.00021,-0.00011,2e-05,2.9999999999999997e-05,-0.00011999999999999999,5
23386,24124,-0.00013000000000000002,5e-05,-5e-05,-0.00021,-0.00011,2e-05,2.9999999999999997e-05,-0.00011999999999999999,5
23387,24125,-0.00013000000000000002,5e-05,-5e-05,-0.00021,-0.00011,2e-05,2.9999999999999997e-05,-0.00011999999999999999,5
23388,24126,-0.00013000000000000002,5e-05,-5e-05,-0.00021,-0.00011,2e-05,2.9999999999999997e-05,-0.00011999999999999999,5
23389,24127,-0.00013000000000000002,5e-05,-5e-05,-0.00021,-0.00011,2e-05,2.9999999999999997e-05,-0.00011999999999999999,5
23390,24128,-0.00013000000000000002,5e-05,-5e-05,-0.00021,-0.00011,2e-05,2.9999999999999997e-05,-0.00011999999999999999,5
23391,24129,0.00022999999999999998,5e-05,0.0001,-8e-05,-0.00033999999999999997,-7e-05,0.0,0.00062,5
23392,24130,-0.00037999999999999997,2.9999999999999997e-05,1e-05,-0.00032,-5e-05,-5e-05,-8e-05,0.00028,5
23393,24131,-0.00037999999999999997,2.9999999999999997e-05,1e-05,-0.00032,-5e-05,-5e-05,-8e-05,0.00028,5
23394,24132,-0.00037999999999999997,2.9999999999999997e-05,1e-05,-0.00032,-5e-05,-5e-05,-8e-05,0.00028,5
23395,24133,-0.00037999999999999997,2.9999999999999997e-05,1e-05,-0.00032,-5e-05,-5e-05,-8e-05,0.00028,5
23396,24134,-0.00037999999999999997,2.9999999999999997e-05,1e-05,-0.00032,-5e-05,-5e-05,-8e-05,0.00028,5
23397,24135,-0.00037999999999999997,2.9999999999999997e-05,1e-05,-0.00032,-5e-05,-5e-05,-8e-05,0.00028,5
23398,24136,-0.00037999999999999997,2.9999999999999997e-05,1e-05,-0.00032,-5e-05,-5e-05,-8e-05,0.00028,5
23399,24138,-0.00037999999999999997,2.9999999999999997e-05,1e-05,-0.00032,-5e-05,-5e-05,-8e-05,0.00028,5
23400,24139,-0.00037999999999999997,2.9999999999999997e-05,1e-05,-0.00032,-5e-05,-5e-05,-8e-05,0.00028,5
23401,24140,-0.00037999999999999997,2.9999999999999997e-05,1e-05,-0.00032,-5e-05,-5e-05,-8e-05,0.00028,5
23402,24141,-0.00037999999999999997,2.9999999999999997e-05,1e-05,-0.00032,-5e-05,-5e-05,-8e-05,0.00028,5
23403,24142,-0.00037999999999999997,2.9999999999999997e-05,1e-05,-0.00032,-5e-05,-5e-05,-8e-05,0.00028,5
23404,24143,-0.00037999999999999997,2.9999999999999997e-05,1e-05,-0.00032,-5e-05,-5e-05,-8e-05,0.00028,5
23405,24144,-0.00037999999999999997,2.9999999999999997e-05,1e-05,-0.00032,-5e-05,-5e-05,-8e-05,0.00028,5
23406,24145,-0.00037999999999999997,2.9999999999999997e-05,1e-05,-0.00032,-5e-05,-5e-05,-8e-05,0.00028,5
23407,24146,-0.00037999999999999997,2.9999999999999997e-05,1e-05,-0.00032,-5e-05,-5e-05,-8e-05,0.00028,5
23408,24147,-0.00037999999999999997,2.9999999999999997e-05,1e-05,-0.00032,-5e-05,-5e-05,-8e-05,0.00028,5
23409,24148,-0.00037999999999999997,2.9999999999999997e-05,1e-05,-0.00032,-5e-05,-5e-05,-8e-05,0.00028,5
23410,24149,-0.00037999999999999997,2.9999999999999997e-05,1e-05,-0.00032,-5e-05,-5e-05,-8e-05,0.00028,5
23411,24150,-0.00037999999999999997,2.9999999999999997e-05,1e-05,-0.00032,-5e-05,-5e-05,-8e-05,0.00028,5
23412,24151,4e-05,-9e-05,-0.00018999999999999998,-9e-05,2e-05,-8e-05,-2.9999999999999997e-05,-0.00015,5
23413,24152,4e-05,-9e-05,-0.00018999999999999998,-9e-05,2e-05,-8e-05,-2.9999999999999997e-05,-0.00015,5
23414,24153,-0.00035,7e-05,0.0,0.00025,0.00013000000000000002,1e-05,-4e-05,-0.00026000000000000003,5
23415,24154,-0.00035,7e-05,0.0,0.00025,0.00013000000000000002,1e-05,-4e-05,-0.00026000000000000003,5
23416,24155,-0.00035,7e-05,0.0,0.00025,0.00013000000000000002,1e-05,-4e-05,-0.00026000000000000003,5
23417,24156,-0.00035,7e-05,0.0,0.00025,0.00013000000000000002,1e-05,-4e-05,-0.00026000000000000003,5
23418,24157,-0.00035,7e-05,0.0,0.00025,0.00013000000000000002,1e-05,-4e-05,-0.00026000000000000003,5
23419,24158,-0.00035,7e-05,0.0,0.00025,0.00013000000000000002,1e-05,-4e-05,-0.00026000000000000003,5
23420,24159,-0.00035,7e-05,0.0,0.00025,0.00013000000000000002,1e-05,-4e-05,-0.00026000000000000003,5
23421,24160,-0.00035,7e-05,0.0,0.00025,0.00013000000000000002,1e-05,-4e-05,-0.00026000000000000003,5
23422,24161,-0.00035,7e-05,0.0,0.00025,0.00013000000000000002,1e-05,-4e-05,-0.00026000000000000003,5
23423,24162,-0.00035,7e-05,0.0,0.00025,0.00013000000000000002,1e-05,-4e-05,-0.00026000000000000003,5
23424,24163,-0.00035,7e-05,0.0,0.00025,0.00013000000000000002,1e-05,-4e-05,-0.00026000000000000003,5
23425,24164,-0.00035,7e-05,0.0,0.00025,0.00013000000000000002,1e-05,-4e-05,-0.00026000000000000003,5
23426,24165,-0.00035,7e-05,0.0,0.00025,0.00013000000000000002,1e-05,-4e-05,-0.00026000000000000003,5
23427,24166,-0.00035,7e-05,0.0,0.00025,0.00013000000000000002,1e-05,-4e-05,-0.00026000000000000003,5
23428,24167,-0.00035,7e-05,0.0,0.00025,0.00013000000000000002,1e-05,-4e-05,-0.00026000000000000003,5
23429,24168,-0.00035,7e-05,0.0,0.00025,0.00013000000000000002,1e-05,-4e-05,-0.00026000000000000003,5
23430,24169,-0.00035,7e-05,0.0,0.00025,0.00013000000000000002,1e-05,-4e-05,-0.00026000000000000003,5
23431,24170,-0.00035,7e-05,0.0,0.00025,0.00013000000000000002,1e-05,-4e-05,-0.00026000000000000003,5
23432,24171,-0.00035,7e-05,0.0,0.00025,0.00013000000000000002,1e-05,-4e-05,-0.00026000000000000003,5
23433,24172,-0.00035,7e-05,0.0,0.00025,0.00013000000000000002,1e-05,-4e-05,-0.00026000000000000003,5
23434,24173,-0.00035,7e-05,0.0,0.00025,0.00013000000000000002,1e-05,-4e-05,-0.00026000000000000003,5
23435,24174,0.00011,0.00016,0.00022999999999999998,-0.00014,-8e-05,0.0,2e-05,-0.00081,5
23436,24175,0.00011,0.00016,0.00022999999999999998,-0.00014,-8e-05,0.0,2e-05,-0.00081,5
23437,24176,0.00018999999999999998,5.9999999999999995e-05,-8e-05,-0.00027,-0.00011,-2.9999999999999997e-05,-2e-05,2.9999999999999997e-05,5
23438,24177,0.00018999999999999998,5.9999999999999995e-05,-8e-05,-0.00027,-0.00011,-2.9999999999999997e-05,-2e-05,2.9999999999999997e-05,5
23439,24178,0.00018999999999999998,5.9999999999999995e-05,-8e-05,-0.00027,-0.00011,-2.9999999999999997e-05,-2e-05,2.9999999999999997e-05,5
23440,24179,0.00018999999999999998,5.9999999999999995e-05,-8e-05,-0.00027,-0.00011,-2.9999999999999997e-05,-2e-05,2.9999999999999997e-05,5
23441,24180,0.00018999999999999998,5.9999999999999995e-05,-8e-05,-0.00027,-0.00011,-2.9999999999999997e-05,-2e-05,2.9999999999999997e-05,5
23442,24181,0.00018999999999999998,5.9999999999999995e-05,-8e-05,-0.00027,-0.00011,-2.9999999999999997e-05,-2e-05,2.9999999999999997e-05,5
23443,24182,0.00018999999999999998,5.9999999999999995e-05,-8e-05,-0.00027,-0.00011,-2.9999999999999997e-05,-2e-05,2.9999999999999997e-05,5
23444,24183,0.00018999999999999998,5.9999999999999995e-05,-8e-05,-0.00027,-0.00011,-2.9999999999999997e-05,-2e-05,2.9999999999999997e-05,5
23445,24184,0.00018999999999999998,5.9999999999999995e-05,-8e-05,-0.00027,-0.00011,-2.9999999999999997e-05,-2e-05,2.9999999999999997e-05,5
23446,24185,0.00018999999999999998,5.9999999999999995e-05,-8e-05,-0.00027,-0.00011,-2.9999999999999997e-05,-2e-05,2.9999999999999997e-05,5
23447,24186,0.00018999999999999998,5.9999999999999995e-05,-8e-05,-0.00027,-0.00011,-2.9999999999999997e-05,-2e-05,2.9999999999999997e-05,5
23448,24188,0.00018999999999999998,5.9999999999999995e-05,-8e-05,-0.00027,-0.00011,-2.9999999999999997e-05,-2e-05,2.9999999999999997e-05,5
23449,24189,2.9999999999999997e-05,-0.00011,-0.00033999999999999997,-0.00045999999999999996,2e-05,-2e-05,4e-05,0.0010199999999999999,5
23450,24190,2.9999999999999997e-05,-0.00011,-0.00033999999999999997,-0.00045999999999999996,2e-05,-2e-05,4e-05,0.0010199999999999999,5
23451,24191,2.9999999999999997e-05,-0.00011,-0.00033999999999999997,-0.00045999999999999996,2e-05,-2e-05,4e-05,0.0010199999999999999,5
23452,24192,2.9999999999999997e-05,-0.00011,-0.00033999999999999997,-0.00045999999999999996,2e-05,-2e-05,4e-05,0.0010199999999999999,5
23453,24193,2.9999999999999997e-05,-0.00011,-0.00033999999999999997,-0.00045999999999999996,2e-05,-2e-05,4e-05,0.0010199999999999999,5
23454,24194,2.9999999999999997e-05,-0.00011,-0.00033999999999999997,-0.00045999999999999996,2e-05,-2e-05,4e-05,0.0010199999999999999,5
23455,24195,2.9999999999999997e-05,-0.00011,-0.00033999999999999997,-0.00045999999999999996,2e-05,-2e-05,4e-05,0.0010199999999999999,5
23456,24196,2.9999999999999997e-05,-0.00011,-0.00033999999999999997,-0.00045999999999999996,2e-05,-2e-05,4e-05,0.0010199999999999999,5
23457,24197,2.9999999999999997e-05,-0.00011,-0.00033999999999999997,-0.00045999999999999996,2e-05,-2e-05,4e-05,0.0010199999999999999,5
23458,24198,2.9999999999999997e-05,-0.00011,-0.00033999999999999997,-0.00045999999999999996,2e-05,-2e-05,4e-05,0.0010199999999999999,5
23459,24199,2.9999999999999997e-05,-0.00011,-0.00033999999999999997,-0.00045999999999999996,2e-05,-2e-05,4e-05,0.0010199999999999999,5
23460,24200,2.9999999999999997e-05,-0.00011,-0.00033999999999999997,-0.00045999999999999996,2e-05,-2e-05,4e-05,0.0010199999999999999,5
23461,24201,2.9999999999999997e-05,-0.00011,-0.00033999999999999997,-0.00045999999999999996,2e-05,-2e-05,4e-05,0.0010199999999999999,5
23462,24202,-9e-05,-2e-05,5.9999999999999995e-05,2.9999999999999997e-05,0.00022,1e-05,-5e-05,-0.00018,5
23463,24203,-9e-05,-2e-05,5.9999999999999995e-05,2.9999999999999997e-05,0.00022,1e-05,-5e-05,-0.00018,5
23464,24204,-9e-05,-2e-05,5.9999999999999995e-05,2.9999999999999997e-05,0.00022,1e-05,-5e-05,-0.00018,5
23465,24205,-9e-05,-2e-05,5.9999999999999995e-05,2.9999999999999997e-05,0.00022,1e-05,-5e-05,-0.00018,5
23466,24206,-9e-05,-2e-05,5.9999999999999995e-05,2.9999999999999997e-05,0.00022,1e-05,-5e-05,-0.00018,5
23467,24207,-9e-05,-2e-05,5.9999999999999995e-05,2.9999999999999997e-05,0.00022,1e-05,-5e-05,-0.00018,5
23468,24208,-9e-05,-2e-05,5.9999999999999995e-05,2.9999999999999997e-05,0.00022,1e-05,-5e-05,-0.00018,5
23469,24209,-9e-05,-2e-05,5.9999999999999995e-05,2.9999999999999997e-05,0.00022,1e-05,-5e-05,-0.00018,5
23470,24210,-9e-05,-2e-05,5.9999999999999995e-05,2.9999999999999997e-05,0.00022,1e-05,-5e-05,-0.00018,5
23471,24211,2.9999999999999997e-05,0.00011999999999999999,0.00011,0.00056,0.00036,7e-05,5e-05,-0.00032,5
23472,24212,2.9999999999999997e-05,0.00011999999999999999,0.00011,0.00056,0.00036,7e-05,5e-05,-0.00032,5
23473,24213,-0.00011,-7e-05,9e-05,0.00015,-0.00016999999999999999,-4e-05,-4e-05,-0.00032,5
23474,24214,-0.00011,-7e-05,9e-05,0.00015,-0.00016999999999999999,-4e-05,-4e-05,-0.00032,5
23475,24215,-0.00011,-7e-05,9e-05,0.00015,-0.00016999999999999999,-4e-05,-4e-05,-0.00032,5
23476,24216,-0.00011,-7e-05,9e-05,0.00015,-0.00016999999999999999,-4e-05,-4e-05,-0.00032,5
23477,24217,-0.00011,-7e-05,9e-05,0.00015,-0.00016999999999999999,-4e-05,-4e-05,-0.00032,5
23478,24218,-0.00011,-7e-05,9e-05,0.00015,-0.00016999999999999999,-4e-05,-4e-05,-0.00032,5
23479,24219,-0.00011,-7e-05,9e-05,0.00015,-0.00016999999999999999,-4e-05,-4e-05,-0.00032,5
23480,24220,-0.00011,-7e-05,9e-05,0.00015,-0.00016999999999999999,-4e-05,-4e-05,-0.00032,5
23481,24221,-0.00011,-7e-05,9e-05,0.00015,-0.00016999999999999999,-4e-05,-4e-05,-0.00032,5
23482,24222,-0.00011,-7e-05,9e-05,0.00015,-0.00016999999999999999,-4e-05,-4e-05,-0.00032,5
23483,24223,-0.00011,-7e-05,9e-05,0.00015,-0.00016999999999999999,-4e-05,-4e-05,-0.00032,5
23484,24224,-0.00011,-7e-05,9e-05,0.00015,-0.00016999999999999999,-4e-05,-4e-05,-0.00032,5
23485,24225,-0.00025,7e-05,5.9999999999999995e-05,0.00013000000000000002,0.00023999999999999998,-1e-05,-2e-05,4e-05,5
23486,24226,-0.00025,7e-05,5.9999999999999995e-05,0.00013000000000000002,0.00023999999999999998,-1e-05,-2e-05,4e-05,5
23487,24227,-0.00025,7e-05,5.9999999999999995e-05,0.00013000000000000002,0.00023999999999999998,-1e-05,-2e-05,4e-05,5
23488,24228,-0.00025,7e-05,5.9999999999999995e-05,0.00013000000000000002,0.00023999999999999998,-1e-05,-2e-05,4e-05,5
23489,24229,-0.00025,7e-05,5.9999999999999995e-05,0.00013000000000000002,0.00023999999999999998,-1e-05,-2e-05,4e-05,5
23490,24230,-0.00025,7e-05,5.9999999999999995e-05,0.00013000000000000002,0.00023999999999999998,-1e-05,-2e-05,4e-05,5
23491,24231,-0.00025,7e-05,5.9999999999999995e-05,0.00013000000000000002,0.00023999999999999998,-1e-05,-2e-05,4e-05,5
23492,24232,-0.00025,7e-05,5.9999999999999995e-05,0.00013000000000000002,0.00023999999999999998,-1e-05,-2e-05,4e-05,5
23493,24233,-0.00025,7e-05,5.9999999999999995e-05,0.00013000000000000002,0.00023999999999999998,-1e-05,-2e-05,4e-05,5
23494,24234,0.00015,-4e-05,5e-05,-0.00031,-0.00011,1e-05,2e-05,5.9999999999999995e-05,5
23495,24235,0.00015,-4e-05,5e-05,-0.00031,-0.00011,1e-05,2e-05,5.9999999999999995e-05,5
23496,24236,0.00015,-4e-05,5e-05,-0.00031,-0.00011,1e-05,2e-05,5.9999999999999995e-05,5
23497,24238,0.00015,-4e-05,5e-05,-0.00031,-0.00011,1e-05,2e-05,5.9999999999999995e-05,5
23498,24239,0.00015,-4e-05,5e-05,-0.00031,-0.00011,1e-05,2e-05,5.9999999999999995e-05,5
23499,24240,0.00015,-4e-05,5e-05,-0.00031,-0.00011,1e-05,2e-05,5.9999999999999995e-05,5
23500,24241,0.00015,-4e-05,5e-05,-0.00031,-0.00011,1e-05,2e-05,5.9999999999999995e-05,5
23501,24242,0.00015,-4e-05,5e-05,-0.00031,-0.00011,1e-05,2e-05,5.9999999999999995e-05,5
23502,24243,0.00015,-4e-05,5e-05,-0.00031,-0.00011,1e-05,2e-05,5.9999999999999995e-05,5
23503,24244,0.00015,-4e-05,5e-05,-0.00031,-0.00011,1e-05,2e-05,5.9999999999999995e-05,5
23504,24245,0.00015,-4e-05,5e-05,-0.00031,-0.00011,1e-05,2e-05,5.9999999999999995e-05,5
23505,24246,0.00015,-4e-05,5e-05,-0.00031,-0.00011,1e-05,2e-05,5.9999999999999995e-05,5
23506,24247,0.00015,-4e-05,5e-05,-0.00031,-0.00011,1e-05,2e-05,5.9999999999999995e-05,5
23507,24248,0.00015,-4e-05,5e-05,-0.00031,-0.00011,1e-05,2e-05,5.9999999999999995e-05,5
23508,24249,0.00015,-4e-05,5e-05,-0.00031,-0.00011,1e-05,2e-05,5.9999999999999995e-05,5
23509,24250,0.00015,-4e-05,5e-05,-0.00031,-0.00011,1e-05,2e-05,5.9999999999999995e-05,5
23510,24251,0.00015,-4e-05,5e-05,-0.00031,-0.00011,1e-05,2e-05,5.9999999999999995e-05,5
23511,24252,0.00015,-4e-05,5e-05,-0.00031,-0.00011,1e-05,2e-05,5.9999999999999995e-05,5
23512,24253,0.00015,-4e-05,5e-05,-0.00031,-0.00011,1e-05,2e-05,5.9999999999999995e-05,5
23513,24254,0.00015,-4e-05,5e-05,-0.00031,-0.00011,1e-05,2e-05,5.9999999999999995e-05,5
23514,24255,0.00015,-4e-05,5e-05,-0.00031,-0.00011,1e-05,2e-05,5.9999999999999995e-05,5
23515,24256,0.00015,-4e-05,5e-05,-0.00031,-0.00011,1e-05,2e-05,5.9999999999999995e-05,5
23516,24257,0.00015,-4e-05,5e-05,-0.00031,-0.00011,1e-05,2e-05,5.9999999999999995e-05,5
23517,24258,0.00015,-4e-05,5e-05,-0.00031,-0.00011,1e-05,2e-05,5.9999999999999995e-05,5
23518,24259,0.00015,-4e-05,5e-05,-0.00031,-0.00011,1e-05,2e-05,5.9999999999999995e-05,5
23519,24260,0.00015,-4e-05,5e-05,-0.00031,-0.00011,1e-05,2e-05,5.9999999999999995e-05,5
23520,24261,0.00015,-4e-05,5e-05,-0.00031,-0.00011,1e-05,2e-05,5.9999999999999995e-05,5
23521,24262,0.00015,-4e-05,5e-05,-0.00031,-0.00011,1e-05,2e-05,5.9999999999999995e-05,5
23522,24263,0.00015,-4e-05,5e-05,-0.00031,-0.00011,1e-05,2e-05,5.9999999999999995e-05,5
23523,24264,7e-05,-1e-05,2e-05,0.00014,-9e-05,2.9999999999999997e-05,-1e-05,-4e-05,5
23524,24265,-8e-05,-2e-05,0.0,0.00013000000000000002,0.00011,0.0,-2e-05,-0.00037999999999999997,5
23525,24266,-8e-05,-2e-05,0.0,0.00013000000000000002,0.00011,0.0,-2e-05,-0.00037999999999999997,5
23526,24267,-8e-05,-2e-05,0.0,0.00013000000000000002,0.00011,0.0,-2e-05,-0.00037999999999999997,5
23527,24268,-8e-05,-2e-05,0.0,0.00013000000000000002,0.00011,0.0,-2e-05,-0.00037999999999999997,5
23528,24269,-8e-05,-2e-05,0.0,0.00013000000000000002,0.00011,0.0,-2e-05,-0.00037999999999999997,5
23529,24270,-8e-05,-2e-05,0.0,0.00013000000000000002,0.00011,0.0,-2e-05,-0.00037999999999999997,5
23530,24271,-0.00056,-0.00021,-0.00028,-0.0007700000000000001,-0.00049,-7e-05,-5.9999999999999995e-05,-0.00042,5
23531,24272,-0.00056,-0.00021,-0.00028,-0.0007700000000000001,-0.00049,-7e-05,-5.9999999999999995e-05,-0.00042,5
23532,24273,-0.00056,-0.00021,-0.00028,-0.0007700000000000001,-0.00049,-7e-05,-5.9999999999999995e-05,-0.00042,5
23533,24274,-0.00056,-0.00021,-0.00028,-0.0007700000000000001,-0.00049,-7e-05,-5.9999999999999995e-05,-0.00042,5
23534,24275,-0.00056,-0.00021,-0.00028,-0.0007700000000000001,-0.00049,-7e-05,-5.9999999999999995e-05,-0.00042,5
23535,24276,-0.00056,-0.00021,-0.00028,-0.0007700000000000001,-0.00049,-7e-05,-5.9999999999999995e-05,-0.00042,5
23536,24277,-0.00056,-0.00021,-0.00028,-0.0007700000000000001,-0.00049,-7e-05,-5.9999999999999995e-05,-0.00042,5
23537,24278,-0.00056,-0.00021,-0.00028,-0.0007700000000000001,-0.00049,-7e-05,-5.9999999999999995e-05,-0.00042,5
23538,24279,-0.00056,-0.00021,-0.00028,-0.0007700000000000001,-0.00049,-7e-05,-5.9999999999999995e-05,-0.00042,5
23539,24280,-0.00056,-0.00021,-0.00028,-0.0007700000000000001,-0.00049,-7e-05,-5.9999999999999995e-05,-0.00042,5
23540,24281,-0.00056,-0.00021,-0.00028,-0.0007700000000000001,-0.00049,-7e-05,-5.9999999999999995e-05,-0.00042,5
23541,24282,-0.00056,-0.00021,-0.00028,-0.0007700000000000001,-0.00049,-7e-05,-5.9999999999999995e-05,-0.00042,5
23542,24283,-0.00056,-0.00021,-0.00028,-0.0007700000000000001,-0.00049,-7e-05,-5.9999999999999995e-05,-0.00042,5
23543,24284,-0.00056,-0.00021,-0.00028,-0.0007700000000000001,-0.00049,-7e-05,-5.9999999999999995e-05,-0.00042,5
23544,24285,-0.00056,-0.00021,-0.00028,-0.0007700000000000001,-0.00049,-7e-05,-5.9999999999999995e-05,-0.00042,5
23545,24286,-0.00056,-0.00021,-0.00028,-0.0007700000000000001,-0.00049,-7e-05,-5.9999999999999995e-05,-0.00042,5
23546,24288,0.0,-8e-05,-0.00018999999999999998,-0.0002,-0.00021,-5e-05,-2e-05,-0.0003,5
23547,24289,0.0,-8e-05,-0.00018999999999999998,-0.0002,-0.00021,-5e-05,-2e-05,-0.0003,5
23548,24290,0.0,-8e-05,-0.00018999999999999998,-0.0002,-0.00021,-5e-05,-2e-05,-0.0003,5
23549,24291,0.0,-8e-05,-0.00018999999999999998,-0.0002,-0.00021,-5e-05,-2e-05,-0.0003,5
23550,24292,0.0,-8e-05,-0.00018999999999999998,-0.0002,-0.00021,-5e-05,-2e-05,-0.0003,5
23551,24293,0.0,-8e-05,-0.00018999999999999998,-0.0002,-0.00021,-5e-05,-2e-05,-0.0003,5
23552,24294,4e-05,-0.00011,-0.00021,-0.00031,-0.00016999999999999999,-5.9999999999999995e-05,-5e-05,-5e-05,5
23553,24295,4e-05,-0.00011,-0.00021,-0.00031,-0.00016999999999999999,-5.9999999999999995e-05,-5e-05,-5e-05,5
23554,24296,4e-05,-0.00011,-0.00021,-0.00031,-0.00016999999999999999,-5.9999999999999995e-05,-5e-05,-5e-05,5
23555,24297,4e-05,-0.00011,-0.00021,-0.00031,-0.00016999999999999999,-5.9999999999999995e-05,-5e-05,-5e-05,5
23556,24298,4e-05,-0.00011,-0.00021,-0.00031,-0.00016999999999999999,-5.9999999999999995e-05,-5e-05,-5e-05,5
23557,24299,4e-05,-0.00011,-0.00021,-0.00031,-0.00016999999999999999,-5.9999999999999995e-05,-5e-05,-5e-05,5
23558,24300,4e-05,-0.00011,-0.00021,-0.00031,-0.00016999999999999999,-5.9999999999999995e-05,-5e-05,-5e-05,5
23559,24301,4e-05,-0.00011,-0.00021,-0.00031,-0.00016999999999999999,-5.9999999999999995e-05,-5e-05,-5e-05,5
23560,24302,4e-05,-0.00011,-0.00021,-0.00031,-0.00016999999999999999,-5.9999999999999995e-05,-5e-05,-5e-05,5
23561,24303,4e-05,-0.00011,-0.00021,-0.00031,-0.00016999999999999999,-5.9999999999999995e-05,-5e-05,-5e-05,5
23562,24304,4e-05,-0.00011,-0.00021,-0.00031,-0.00016999999999999999,-5.9999999999999995e-05,-5e-05,-5e-05,5
23563,24305,4e-05,-0.00011,-0.00021,-0.00031,-0.00016999999999999999,-5.9999999999999995e-05,-5e-05,-5e-05,5
23564,24306,4e-05,-0.00011,-0.00021,-0.00031,-0.00016999999999999999,-5.9999999999999995e-05,-5e-05,-5e-05,5
23565,24307,4e-05,-0.00011,-0.00021,-0.00031,-0.00016999999999999999,-5.9999999999999995e-05,-5e-05,-5e-05,5
23566,24308,4e-05,-0.00011,-0.00021,-0.00031,-0.00016999999999999999,-5.9999999999999995e-05,-5e-05,-5e-05,5
23567,24309,0.00011999999999999999,1e-05,2e-05,0.00022,0.0001,2.9999999999999997e-05,-2.9999999999999997e-05,0.00018,5
23568,24310,0.00011999999999999999,1e-05,2e-05,0.00022,0.0001,2.9999999999999997e-05,-2.9999999999999997e-05,0.00018,5
23569,24311,0.00022999999999999998,0.0,-5e-05,-8e-05,4e-05,-1e-05,1e-05,0.00016,5
23570,24312,0.00022999999999999998,0.0,-5e-05,-8e-05,4e-05,-1e-05,1e-05,0.00016,5
23571,24313,0.00022999999999999998,0.0,-5e-05,-8e-05,4e-05,-1e-05,1e-05,0.00016,5
23572,24314,0.00022999999999999998,0.0,-5e-05,-8e-05,4e-05,-1e-05,1e-05,0.00016,5
23573,24315,0.00022999999999999998,0.0,-5e-05,-8e-05,4e-05,-1e-05,1e-05,0.00016,5
23574,24316,0.00022999999999999998,0.0,-5e-05,-8e-05,4e-05,-1e-05,1e-05,0.00016,5
23575,24317,0.00022999999999999998,0.0,-5e-05,-8e-05,4e-05,-1e-05,1e-05,0.00016,5
23576,24318,0.00022999999999999998,0.0,-5e-05,-8e-05,4e-05,-1e-05,1e-05,0.00016,5
23577,24319,0.00022999999999999998,0.0,-5e-05,-8e-05,4e-05,-1e-05,1e-05,0.00016,5
23578,24320,0.00022999999999999998,0.0,-5e-05,-8e-05,4e-05,-1e-05,1e-05,0.00016,5
23579,24321,0.00022999999999999998,0.0,-5e-05,-8e-05,4e-05,-1e-05,1e-05,0.00016,5
23580,24322,0.00022999999999999998,0.0,-5e-05,-8e-05,4e-05,-1e-05,1e-05,0.00016,5
23581,24323,0.00022999999999999998,0.0,-5e-05,-8e-05,4e-05,-1e-05,1e-05,0.00016,5
23582,24324,0.00022999999999999998,0.0,-5e-05,-8e-05,4e-05,-1e-05,1e-05,0.00016,5
23583,24325,0.00022999999999999998,0.0,-5e-05,-8e-05,4e-05,-1e-05,1e-05,0.00016,5
23584,24326,0.00022999999999999998,0.0,-5e-05,-8e-05,4e-05,-1e-05,1e-05,0.00016,5
23585,24327,0.00022999999999999998,0.0,-5e-05,-8e-05,4e-05,-1e-05,1e-05,0.00016,5
23586,24328,0.00022999999999999998,0.0,-5e-05,-8e-05,4e-05,-1e-05,1e-05,0.00016,5
23587,24329,0.00022999999999999998,0.0,-5e-05,-8e-05,4e-05,-1e-05,1e-05,0.00016,5
23588,24330,0.00022999999999999998,0.0,-5e-05,-8e-05,4e-05,-1e-05,1e-05,0.00016,5
23589,24331,0.00022999999999999998,0.0,-5e-05,-8e-05,4e-05,-1e-05,1e-05,0.00016,5
23590,24332,0.00022999999999999998,0.0,-5e-05,-8e-05,4e-05,-1e-05,1e-05,0.00016,5
23591,24333,0.00022999999999999998,0.0,-5e-05,-8e-05,4e-05,-1e-05,1e-05,0.00016,5
23592,24334,0.00022999999999999998,0.0,-5e-05,-8e-05,4e-05,-1e-05,1e-05,0.00016,5
23593,24335,0.00022999999999999998,0.0,-5e-05,-8e-05,4e-05,-1e-05,1e-05,0.00016,5
23594,24336,0.00022999999999999998,0.0,-5e-05,-8e-05,4e-05,-1e-05,1e-05,0.00016,5
23595,24338,0.00022999999999999998,0.0,-5e-05,-8e-05,4e-05,-1e-05,1e-05,0.00016,5
23596,24339,-0.00022,-0.00014,-8e-05,0.00025,0.00031,4e-05,-2e-05,0.00011,5
