,time,channel1,channel2,channel3,channel4,channel5,channel6,channel7,channel8,class
20592,21190,-2.9999999999999997e-05,-0.0001,-5e-05,-0.00018,-0.0001,4e-05,-1e-05,-2e-05,5
20593,21191,2.9999999999999997e-05,8e-05,2e-05,0.00055,0.00033999999999999997,0.00013000000000000002,2.9999999999999997e-05,2e-05,5
20594,21192,-2.9999999999999997e-05,0.0,-8e-05,-0.0002,-0.00037999999999999997,5.9999999999999995e-05,4e-05,-2.9999999999999997e-05,5
20595,21193,-2.9999999999999997e-05,0.0,-8e-05,-0.0002,-0.00037999999999999997,5.9999999999999995e-05,4e-05,-2.9999999999999997e-05,5
20596,21194,-2.9999999999999997e-05,0.0,-8e-05,-0.0002,-0.00037999999999999997,5.9999999999999995e-05,4e-05,-2.9999999999999997e-05,5
20597,21195,-2.9999999999999997e-05,0.0,-8e-05,-0.0002,-0.00037999999999999997,5.9999999999999995e-05,4e-05,-2.9999999999999997e-05,5
20598,21196,-2.9999999999999997e-05,0.0,-8e-05,-0.0002,-0.00037999999999999997,5.9999999999999995e-05,4e-05,-2.9999999999999997e-05,5
20599,21197,-2.9999999999999997e-05,0.0,-8e-05,-0.0002,-0.00037999999999999997,5.9999999999999995e-05,4e-05,-2.9999999999999997e-05,5
20600,21198,-2.9999999999999997e-05,0.0,-8e-05,-0.0002,-0.00037999999999999997,5.9999999999999995e-05,4e-05,-2.9999999999999997e-05,5
20601,21199,-2.9999999999999997e-05,0.0,-8e-05,-0.0002,-0.00037999999999999997,5.9999999999999995e-05,4e-05,-2.9999999999999997e-05,5
20602,21200,-2.9999999999999997e-05,0.0,-8e-05,-0.0002,-0.00037999999999999997,5.9999999999999995e-05,4e-05,-2.9999999999999997e-05,5
20603,21201,-2.9999999999999997e-05,0.0,-8e-05,-0.0002,-0.00037999999999999997,5.9999999999999995e-05,4e-05,-2.9999999999999997e-05,5
20604,21202,-2.9999999999999997e-05,0.0,-8e-05,-0.0002,-0.00037999999999999997,5.9999999999999995e-05,4e-05,-2.9999999999999997e-05,5
20605,21203,-2.9999999999999997e-05,0.0,-8e-05,-0.0002,-0.00037999999999999997,5.9999999999999995e-05,4e-05,-2.9999999999999997e-05,5
20606,21204,-2.9999999999999997e-05,0.0,-8e-05,-0.0002,-0.00037999999999999997,5.9999999999999995e-05,4e-05,-2.9999999999999997e-05,5
20607,21205,-2.9999999999999997e-05,0.0,-8e-05,-0.0002,-0.00037999999999999997,5.9999999999999995e-05,4e-05,-2.9999999999999997e-05,5
20608,21206,-2.9999999999999997e-05,0.0,-8e-05,-0.0002,-0.00037999999999999997,5.9999999999999995e-05,4e-05,-2.9999999999999997e-05,5
20609,21207,-2.9999999999999997e-05,0.0,-8e-05,-0.0002,-0.00037999999999999997,5.9999999999999995e-05,4e-05,-2.9999999999999997e-05,5
20610,21208,-2.9999999999999997e-05,0.0,-8e-05,-0.0002,-0.00037999999999999997,5.9999999999999995e-05,4e-05,-2.9999999999999997e-05,5
20611,21209,-2.9999999999999997e-05,0.0,-8e-05,-0.0002,-0.00037999999999999997,5.9999999999999995e-05,4e-05,-2.9999999999999997e-05,5
20612,21210,-2.9999999999999997e-05,0.0,-8e-05,-0.0002,-0.00037999999999999997,5.9999999999999995e-05,4e-05,-2.9999999999999997e-05,5
20613,21211,-2.9999999999999997e-05,0.0,-8e-05,-0.0002,-0.00037999999999999997,5.9999999999999995e-05,4e-05,-2.9999999999999997e-05,5
20614,21212,-2.9999999999999997e-05,0.0,-8e-05,-0.0002,-0.00037999999999999997,5.9999999999999995e-05,4e-05,-2.9999999999999997e-05,5
20615,21213,-2.9999999999999997e-05,0.0,-8e-05,-0.0002,-0.00037999999999999997,5.9999999999999995e-05,4e-05,-2.9999999999999997e-05,5
20616,21214,-4e-05,-0.0001,-0.00036,0.0008,-0.00058,-0.00016,-4e-05,-2.9999999999999997e-05,5
20617,21215,-4e-05,-0.0001,-0.00036,0.0008,-0.00058,-0.00016,-4e-05,-2.9999999999999997e-05,5
20618,21216,-4e-05,-0.0001,-0.00036,0.0008,-0.00058,-0.00016,-4e-05,-2.9999999999999997e-05,5
20619,21217,-4e-05,-0.0001,-0.00036,0.0008,-0.00058,-0.00016,-4e-05,-2.9999999999999997e-05,5
20620,21218,-4e-05,-0.0001,-0.00036,0.0008,-0.00058,-0.00016,-4e-05,-2.9999999999999997e-05,5
20621,21219,-4e-05,-0.0001,-0.00036,0.0008,-0.00058,-0.00016,-4e-05,-2.9999999999999997e-05,5
20622,21220,-4e-05,-0.0001,-0.00036,0.0008,-0.00058,-0.00016,-4e-05,-2.9999999999999997e-05,5
20623,21221,-4e-05,-0.0001,-0.00036,0.0008,-0.00058,-0.00016,-4e-05,-2.9999999999999997e-05,5
20624,21222,-4e-05,-0.0001,-0.00036,0.0008,-0.00058,-0.00016,-4e-05,-2.9999999999999997e-05,5
20625,21223,-4e-05,-0.0001,-0.00036,0.0008,-0.00058,-0.00016,-4e-05,-2.9999999999999997e-05,5
20626,21224,-4e-05,-0.0001,-0.00036,0.0008,-0.00058,-0.00016,-4e-05,-2.9999999999999997e-05,5
20627,21225,-4e-05,-0.0001,-0.00036,0.0008,-0.00058,-0.00016,-4e-05,-2.9999999999999997e-05,5
20628,21226,-4e-05,-0.0001,-0.00036,0.0008,-0.00058,-0.00016,-4e-05,-2.9999999999999997e-05,5
20629,21227,-4e-05,-0.0001,-0.00036,0.0008,-0.00058,-0.00016,-4e-05,-2.9999999999999997e-05,5
20630,21228,1e-05,5e-05,0.00011,0.00013000000000000002,0.00029,2e-05,0.0,1e-05,5
20631,21229,1e-05,5e-05,0.00011,0.00013000000000000002,0.00029,2e-05,0.0,1e-05,5
20632,21230,1e-05,5e-05,0.00011,0.00013000000000000002,0.00029,2e-05,0.0,1e-05,5
20633,21231,1e-05,5e-05,0.00011,0.00013000000000000002,0.00029,2e-05,0.0,1e-05,5
20634,21232,1e-05,5e-05,0.00011,0.00013000000000000002,0.00029,2e-05,0.0,1e-05,5
20635,21233,1e-05,5e-05,0.00011,0.00013000000000000002,0.00029,2e-05,0.0,1e-05,5
20636,21234,1e-05,5e-05,0.00011,0.00013000000000000002,0.00029,2e-05,0.0,1e-05,5
20637,21235,1e-05,5e-05,0.00011,0.00013000000000000002,0.00029,2e-05,0.0,1e-05,5
20638,21236,-5e-05,-0.00013000000000000002,-0.0001,-0.00033999999999999997,-2.9999999999999997e-05,1e-05,-5.9999999999999995e-05,-8e-05,5
20639,21238,-0.0001,0.00011,-9e-05,-0.0004,2e-05,-5.9999999999999995e-05,-1e-05,-2.9999999999999997e-05,5
20640,21239,-0.0001,0.00011,-9e-05,-0.0004,2e-05,-5.9999999999999995e-05,-1e-05,-2.9999999999999997e-05,5
20641,21240,-0.0001,0.00011,-9e-05,-0.0004,2e-05,-5.9999999999999995e-05,-1e-05,-2.9999999999999997e-05,5
20642,21241,-0.0001,0.00011,-9e-05,-0.0004,2e-05,-5.9999999999999995e-05,-1e-05,-2.9999999999999997e-05,5
20643,21242,-0.0001,0.00011,-9e-05,-0.0004,2e-05,-5.9999999999999995e-05,-1e-05,-2.9999999999999997e-05,5
20644,21243,-0.0001,0.00011,-9e-05,-0.0004,2e-05,-5.9999999999999995e-05,-1e-05,-2.9999999999999997e-05,5
20645,21244,-0.0001,0.00011,-9e-05,-0.0004,2e-05,-5.9999999999999995e-05,-1e-05,-2.9999999999999997e-05,5
20646,21245,-0.0001,0.00011,-9e-05,-0.0004,2e-05,-5.9999999999999995e-05,-1e-05,-2.9999999999999997e-05,5
20647,21246,-0.0001,0.00011,-9e-05,-0.0004,2e-05,-5.9999999999999995e-05,-1e-05,-2.9999999999999997e-05,5
20648,21247,-0.0001,0.00011,-9e-05,-0.0004,2e-05,-5.9999999999999995e-05,-1e-05,-2.9999999999999997e-05,5
20649,21248,-0.0001,0.00011,-9e-05,-0.0004,2e-05,-5.9999999999999995e-05,-1e-05,-2.9999999999999997e-05,5
20650,21249,-0.0001,0.00011,-9e-05,-0.0004,2e-05,-5.9999999999999995e-05,-1e-05,-2.9999999999999997e-05,5
20651,21250,-0.0001,0.00011,-9e-05,-0.0004,2e-05,-5.9999999999999995e-05,-1e-05,-2.9999999999999997e-05,5
20652,21251,-1e-05,0.00011,-4e-05,0.00029,0.00018,2e-05,-4e-05,-4e-05,5
20653,21252,0.0,-2e-05,0.00013000000000000002,-0.00016999999999999999,-0.00032,-2e-05,1e-05,1e-05,5
20654,21253,0.0,-2e-05,0.00013000000000000002,-0.00016999999999999999,-0.00032,-2e-05,1e-05,1e-05,5
20655,21254,0.0,-2e-05,0.00013000000000000002,-0.00016999999999999999,-0.00032,-2e-05,1e-05,1e-05,5
20656,21255,0.0,-2e-05,0.00013000000000000002,-0.00016999999999999999,-0.00032,-2e-05,1e-05,1e-05,5
20657,21256,0.0,-2e-05,0.00013000000000000002,-0.00016999999999999999,-0.00032,-2e-05,1e-05,1e-05,5
20658,21257,0.0,-2e-05,0.00013000000000000002,-0.00016999999999999999,-0.00032,-2e-05,1e-05,1e-05,5
20659,21258,0.0,-2e-05,0.00013000000000000002,-0.00016999999999999999,-0.00032,-2e-05,1e-05,1e-05,5
20660,21259,0.0,-2e-05,0.00013000000000000002,-0.00016999999999999999,-0.00032,-2e-05,1e-05,1e-05,5
20661,21260,0.0,-2e-05,0.00013000000000000002,-0.00016999999999999999,-0.00032,-2e-05,1e-05,1e-05,5
20662,21261,0.0,-2e-05,0.00013000000000000002,-0.00016999999999999999,-0.00032,-2e-05,1e-05,1e-05,5
20663,21262,0.0,-2e-05,0.00013000000000000002,-0.00016999999999999999,-0.00032,-2e-05,1e-05,1e-05,5
20664,21263,0.0,-2e-05,0.00013000000000000002,-0.00016999999999999999,-0.00032,-2e-05,1e-05,1e-05,5
20665,21264,0.0,-2e-05,0.00013000000000000002,-0.00016999999999999999,-0.00032,-2e-05,1e-05,1e-05,5
20666,21265,0.0,-2e-05,0.00013000000000000002,-0.00016999999999999999,-0.00032,-2e-05,1e-05,1e-05,5
20667,21266,0.0,-2e-05,0.00013000000000000002,-0.00016999999999999999,-0.00032,-2e-05,1e-05,1e-05,5
20668,21267,0.0,-2e-05,0.00013000000000000002,-0.00016999999999999999,-0.00032,-2e-05,1e-05,1e-05,5
20669,21268,0.0,-2e-05,0.00013000000000000002,-0.00016999999999999999,-0.00032,-2e-05,1e-05,1e-05,5
20670,21269,0.0,-2e-05,0.00013000000000000002,-0.00016999999999999999,-0.00032,-2e-05,1e-05,1e-05,5
20671,21270,0.0,-2e-05,0.00013000000000000002,-0.00016999999999999999,-0.00032,-2e-05,1e-05,1e-05,5
20672,21271,0.0,-2e-05,0.00013000000000000002,-0.00016999999999999999,-0.00032,-2e-05,1e-05,1e-05,5
20673,21272,0.0,-2e-05,0.00013000000000000002,-0.00016999999999999999,-0.00032,-2e-05,1e-05,1e-05,5
20674,21273,0.0,-2e-05,0.00013000000000000002,-0.00016999999999999999,-0.00032,-2e-05,1e-05,1e-05,5
20675,21274,2.9999999999999997e-05,2.9999999999999997e-05,-2e-05,-0.00035,-0.00029,-7e-05,-2.9999999999999997e-05,1e-05,5
20676,21275,0.0,-1e-05,8e-05,0.0002,0.00049,0.00016999999999999999,1e-05,0.0,5
20677,21276,0.0,-1e-05,8e-05,0.0002,0.00049,0.00016999999999999999,1e-05,0.0,5
20678,21277,0.0,-1e-05,8e-05,0.0002,0.00049,0.00016999999999999999,1e-05,0.0,5
20679,21278,0.0,-1e-05,8e-05,0.0002,0.00049,0.00016999999999999999,1e-05,0.0,5
20680,21279,0.0,-1e-05,8e-05,0.0002,0.00049,0.00016999999999999999,1e-05,0.0,5
20681,21280,0.0,-1e-05,8e-05,0.0002,0.00049,0.00016999999999999999,1e-05,0.0,5
20682,21281,0.0,-1e-05,8e-05,0.0002,0.00049,0.00016999999999999999,1e-05,0.0,5
20683,21282,0.0,-1e-05,8e-05,0.0002,0.00049,0.00016999999999999999,1e-05,0.0,5
20684,21283,0.0,-1e-05,8e-05,0.0002,0.00049,0.00016999999999999999,1e-05,0.0,5
20685,21284,0.0,-1e-05,8e-05,0.0002,0.00049,0.00016999999999999999,1e-05,0.0,5
20686,21285,0.0,-1e-05,8e-05,0.0002,0.00049,0.00016999999999999999,1e-05,0.0,5
20687,21286,0.0,-1e-05,8e-05,0.0002,0.00049,0.00016999999999999999,1e-05,0.0,5
20688,21288,0.0,-1e-05,8e-05,0.0002,0.00049,0.00016999999999999999,1e-05,0.0,5
20689,21289,0.0,-1e-05,8e-05,0.0002,0.00049,0.00016999999999999999,1e-05,0.0,5
20690,21290,0.0,-1e-05,8e-05,0.0002,0.00049,0.00016999999999999999,1e-05,0.0,5
20691,21291,0.0,-1e-05,8e-05,0.0002,0.00049,0.00016999999999999999,1e-05,0.0,5
20692,21292,0.0,-1e-05,8e-05,0.0002,0.00049,0.00016999999999999999,1e-05,0.0,5
20693,21293,0.0,-1e-05,8e-05,0.0002,0.00049,0.00016999999999999999,1e-05,0.0,5
20694,21294,0.0,-1e-05,8e-05,0.0002,0.00049,0.00016999999999999999,1e-05,0.0,5
20695,21295,0.0,-1e-05,8e-05,0.0002,0.00049,0.00016999999999999999,1e-05,0.0,5
20696,21296,0.0,-1e-05,8e-05,0.0002,0.00049,0.00016999999999999999,1e-05,0.0,5
20697,21297,2.9999999999999997e-05,-2e-05,-0.00011,-0.00032,-0.00107,-0.00021,0.0,1e-05,5
20698,21298,-5.9999999999999995e-05,-0.00013000000000000002,-0.00018999999999999998,-9e-05,0.00021,-0.00013000000000000002,-0.00011,-7e-05,5
20699,21299,-5.9999999999999995e-05,-0.00013000000000000002,-0.00018999999999999998,-9e-05,0.00021,-0.00013000000000000002,-0.00011,-7e-05,5
20700,21300,-5.9999999999999995e-05,-0.00013000000000000002,-0.00018999999999999998,-9e-05,0.00021,-0.00013000000000000002,-0.00011,-7e-05,5
20701,21301,-5.9999999999999995e-05,-0.00013000000000000002,-0.00018999999999999998,-9e-05,0.00021,-0.00013000000000000002,-0.00011,-7e-05,5
20702,21302,-5.9999999999999995e-05,-0.00013000000000000002,-0.00018999999999999998,-9e-05,0.00021,-0.00013000000000000002,-0.00011,-7e-05,5
20703,21303,-5.9999999999999995e-05,-0.00013000000000000002,-0.00018999999999999998,-9e-05,0.00021,-0.00013000000000000002,-0.00011,-7e-05,5
20704,21304,-5.9999999999999995e-05,-0.00013000000000000002,-0.00018999999999999998,-9e-05,0.00021,-0.00013000000000000002,-0.00011,-7e-05,5
20705,21305,-5.9999999999999995e-05,-0.00013000000000000002,-0.00018999999999999998,-9e-05,0.00021,-0.00013000000000000002,-0.00011,-7e-05,5
20706,21306,-5.9999999999999995e-05,-0.00013000000000000002,-0.00018999999999999998,-9e-05,0.00021,-0.00013000000000000002,-0.00011,-7e-05,5
20707,21307,-5.9999999999999995e-05,-0.00013000000000000002,-0.00018999999999999998,-9e-05,0.00021,-0.00013000000000000002,-0.00011,-7e-05,5
20708,21308,-5.9999999999999995e-05,-0.00013000000000000002,-0.00018999999999999998,-9e-05,0.00021,-0.00013000000000000002,-0.00011,-7e-05,5
20709,21309,-5.9999999999999995e-05,-0.00013000000000000002,-0.00018999999999999998,-9e-05,0.00021,-0.00013000000000000002,-0.00011,-7e-05,5
20710,21310,-5.9999999999999995e-05,-0.00013000000000000002,-0.00018999999999999998,-9e-05,0.00021,-0.00013000000000000002,-0.00011,-7e-05,5
20711,21311,-7e-05,-7e-05,4e-05,7e-05,-2e-05,-1e-05,-5.9999999999999995e-05,-5.9999999999999995e-05,5
20712,21312,5.9999999999999995e-05,-8e-05,0.00018999999999999998,-0.00014,2.9999999999999997e-05,0.00027,0.00011999999999999999,7e-05,5
20713,21313,5.9999999999999995e-05,-8e-05,0.00018999999999999998,-0.00014,2.9999999999999997e-05,0.00027,0.00011999999999999999,7e-05,5
20714,21314,5.9999999999999995e-05,-8e-05,0.00018999999999999998,-0.00014,2.9999999999999997e-05,0.00027,0.00011999999999999999,7e-05,5
20715,21315,5.9999999999999995e-05,-8e-05,0.00018999999999999998,-0.00014,2.9999999999999997e-05,0.00027,0.00011999999999999999,7e-05,5
20716,21316,5.9999999999999995e-05,-8e-05,0.00018999999999999998,-0.00014,2.9999999999999997e-05,0.00027,0.00011999999999999999,7e-05,5
20717,21317,5.9999999999999995e-05,-8e-05,0.00018999999999999998,-0.00014,2.9999999999999997e-05,0.00027,0.00011999999999999999,7e-05,5
20718,21318,5.9999999999999995e-05,-8e-05,0.00018999999999999998,-0.00014,2.9999999999999997e-05,0.00027,0.00011999999999999999,7e-05,5
20719,21319,5.9999999999999995e-05,-8e-05,0.00018999999999999998,-0.00014,2.9999999999999997e-05,0.00027,0.00011999999999999999,7e-05,5
20720,21320,5.9999999999999995e-05,-8e-05,0.00018999999999999998,-0.00014,2.9999999999999997e-05,0.00027,0.00011999999999999999,7e-05,5
20721,21321,5.9999999999999995e-05,-8e-05,0.00018999999999999998,-0.00014,2.9999999999999997e-05,0.00027,0.00011999999999999999,7e-05,5
20722,21322,5.9999999999999995e-05,-8e-05,0.00018999999999999998,-0.00014,2.9999999999999997e-05,0.00027,0.00011999999999999999,7e-05,5
20723,21323,5.9999999999999995e-05,-8e-05,0.00018999999999999998,-0.00014,2.9999999999999997e-05,0.00027,0.00011999999999999999,7e-05,5
20724,21324,5.9999999999999995e-05,-8e-05,0.00018999999999999998,-0.00014,2.9999999999999997e-05,0.00027,0.00011999999999999999,7e-05,5
20725,21325,5.9999999999999995e-05,-8e-05,0.00018999999999999998,-0.00014,2.9999999999999997e-05,0.00027,0.00011999999999999999,7e-05,5
20726,21326,5.9999999999999995e-05,-8e-05,0.00018999999999999998,-0.00014,2.9999999999999997e-05,0.00027,0.00011999999999999999,7e-05,5
20727,21327,5.9999999999999995e-05,-8e-05,0.00018999999999999998,-0.00014,2.9999999999999997e-05,0.00027,0.00011999999999999999,7e-05,5
20728,21328,5.9999999999999995e-05,-8e-05,0.00018999999999999998,-0.00014,2.9999999999999997e-05,0.00027,0.00011999999999999999,7e-05,5
20729,21329,5.9999999999999995e-05,-8e-05,0.00018999999999999998,-0.00014,2.9999999999999997e-05,0.00027,0.00011999999999999999,7e-05,5
20730,21330,5.9999999999999995e-05,-8e-05,0.00018999999999999998,-0.00014,2.9999999999999997e-05,0.00027,0.00011999999999999999,7e-05,5
20731,21331,5.9999999999999995e-05,-8e-05,0.00018999999999999998,-0.00014,2.9999999999999997e-05,0.00027,0.00011999999999999999,7e-05,5
20732,21332,5.9999999999999995e-05,-8e-05,0.00018999999999999998,-0.00014,2.9999999999999997e-05,0.00027,0.00011999999999999999,7e-05,5
20733,21333,5.9999999999999995e-05,-8e-05,0.00018999999999999998,-0.00014,2.9999999999999997e-05,0.00027,0.00011999999999999999,7e-05,5
20734,21334,2.9999999999999997e-05,0.00013000000000000002,0.00015,0.00014,-0.0005200000000000001,-8e-05,-5e-05,1e-05,5
20735,21335,2.9999999999999997e-05,0.00013000000000000002,0.00015,0.00014,-0.0005200000000000001,-8e-05,-5e-05,1e-05,5
20736,21336,2.9999999999999997e-05,0.00013000000000000002,0.00015,0.00014,-0.0005200000000000001,-8e-05,-5e-05,1e-05,5
20737,21338,2.9999999999999997e-05,0.00013000000000000002,0.00015,0.00014,-0.0005200000000000001,-8e-05,-5e-05,1e-05,5
20738,21339,2.9999999999999997e-05,0.00013000000000000002,0.00015,0.00014,-0.0005200000000000001,-8e-05,-5e-05,1e-05,5
20739,21340,2.9999999999999997e-05,0.00013000000000000002,0.00015,0.00014,-0.0005200000000000001,-8e-05,-5e-05,1e-05,5
20740,21341,2.9999999999999997e-05,0.00013000000000000002,0.00015,0.00014,-0.0005200000000000001,-8e-05,-5e-05,1e-05,5
20741,21342,2.9999999999999997e-05,0.00013000000000000002,0.00015,0.00014,-0.0005200000000000001,-8e-05,-5e-05,1e-05,5
20742,21343,2.9999999999999997e-05,0.00013000000000000002,0.00015,0.00014,-0.0005200000000000001,-8e-05,-5e-05,1e-05,5
20743,21344,2.9999999999999997e-05,0.00013000000000000002,0.00015,0.00014,-0.0005200000000000001,-8e-05,-5e-05,1e-05,5
20744,21345,2.9999999999999997e-05,0.00013000000000000002,0.00015,0.00014,-0.0005200000000000001,-8e-05,-5e-05,1e-05,5
20745,21346,2.9999999999999997e-05,0.00013000000000000002,0.00015,0.00014,-0.0005200000000000001,-8e-05,-5e-05,1e-05,5
20746,21347,2.9999999999999997e-05,0.00013000000000000002,0.00015,0.00014,-0.0005200000000000001,-8e-05,-5e-05,1e-05,5
20747,21348,2.9999999999999997e-05,0.00013000000000000002,0.00015,0.00014,-0.0005200000000000001,-8e-05,-5e-05,1e-05,5
20748,21349,2.9999999999999997e-05,0.00013000000000000002,0.00015,0.00014,-0.0005200000000000001,-8e-05,-5e-05,1e-05,5
20749,21350,2.9999999999999997e-05,0.00013000000000000002,0.00015,0.00014,-0.0005200000000000001,-8e-05,-5e-05,1e-05,5
20750,21351,2.9999999999999997e-05,0.00013000000000000002,0.00015,0.00014,-0.0005200000000000001,-8e-05,-5e-05,1e-05,5
20751,21352,2.9999999999999997e-05,0.00013000000000000002,0.00015,0.00014,-0.0005200000000000001,-8e-05,-5e-05,1e-05,5
20752,21353,2.9999999999999997e-05,0.00013000000000000002,0.00015,0.00014,-0.0005200000000000001,-8e-05,-5e-05,1e-05,5
20753,21354,2.9999999999999997e-05,0.00013000000000000002,0.00015,0.00014,-0.0005200000000000001,-8e-05,-5e-05,1e-05,5
20754,21355,2.9999999999999997e-05,0.00013000000000000002,0.00015,0.00014,-0.0005200000000000001,-8e-05,-5e-05,1e-05,5
20755,21356,2.9999999999999997e-05,0.00013000000000000002,0.00015,0.00014,-0.0005200000000000001,-8e-05,-5e-05,1e-05,5
20756,21357,-5e-05,1e-05,-4e-05,0.00037,0.00029,0.0,-5.9999999999999995e-05,-8e-05,5
20757,21358,2.9999999999999997e-05,2e-05,-5e-05,-1e-05,0.00031,-2e-05,-2e-05,1e-05,5
20758,21359,2.9999999999999997e-05,2e-05,-5e-05,-1e-05,0.00031,-2e-05,-2e-05,1e-05,5
20759,21360,2.9999999999999997e-05,2e-05,-5e-05,-1e-05,0.00031,-2e-05,-2e-05,1e-05,5
20760,21361,2.9999999999999997e-05,2e-05,-5e-05,-1e-05,0.00031,-2e-05,-2e-05,1e-05,5
20761,21362,2.9999999999999997e-05,2e-05,-5e-05,-1e-05,0.00031,-2e-05,-2e-05,1e-05,5
20762,21363,2.9999999999999997e-05,2e-05,-5e-05,-1e-05,0.00031,-2e-05,-2e-05,1e-05,5
20763,21364,2.9999999999999997e-05,2e-05,-5e-05,-1e-05,0.00031,-2e-05,-2e-05,1e-05,5
20764,21365,2.9999999999999997e-05,2e-05,-5e-05,-1e-05,0.00031,-2e-05,-2e-05,1e-05,5
20765,21366,2.9999999999999997e-05,2e-05,-5e-05,-1e-05,0.00031,-2e-05,-2e-05,1e-05,5
20766,21367,2.9999999999999997e-05,2e-05,-5e-05,-1e-05,0.00031,-2e-05,-2e-05,1e-05,5
20767,21368,2.9999999999999997e-05,2e-05,-5e-05,-1e-05,0.00031,-2e-05,-2e-05,1e-05,5
20768,21369,2.9999999999999997e-05,2e-05,-5e-05,-1e-05,0.00031,-2e-05,-2e-05,1e-05,5
20769,21370,2.9999999999999997e-05,2e-05,-5e-05,-1e-05,0.00031,-2e-05,-2e-05,1e-05,5
20770,21371,-1e-05,-1e-05,-0.00011999999999999999,-0.00037999999999999997,0.0008,-5e-05,-4e-05,-2.9999999999999997e-05,5
20771,21372,-1e-05,-0.00016999999999999999,-1e-05,-0.00045999999999999996,-0.00022999999999999998,5e-05,1e-05,-2e-05,5
20772,21373,-1e-05,-0.00016999999999999999,-1e-05,-0.00045999999999999996,-0.00022999999999999998,5e-05,1e-05,-2e-05,5
20773,21374,-1e-05,-0.00016999999999999999,-1e-05,-0.00045999999999999996,-0.00022999999999999998,5e-05,1e-05,-2e-05,5
20774,21375,-1e-05,-0.00016999999999999999,-1e-05,-0.00045999999999999996,-0.00022999999999999998,5e-05,1e-05,-2e-05,5
20775,21376,-1e-05,-0.00016999999999999999,-1e-05,-0.00045999999999999996,-0.00022999999999999998,5e-05,1e-05,-2e-05,5
20776,21377,-1e-05,-0.00016999999999999999,-1e-05,-0.00045999999999999996,-0.00022999999999999998,5e-05,1e-05,-2e-05,5
20777,21378,-1e-05,-0.00016999999999999999,-1e-05,-0.00045999999999999996,-0.00022999999999999998,5e-05,1e-05,-2e-05,5
20778,21379,-1e-05,-0.00016999999999999999,-1e-05,-0.00045999999999999996,-0.00022999999999999998,5e-05,1e-05,-2e-05,5
20779,21380,-1e-05,-0.00016999999999999999,-1e-05,-0.00045999999999999996,-0.00022999999999999998,5e-05,1e-05,-2e-05,5
20780,21381,-1e-05,-0.00016999999999999999,-1e-05,-0.00045999999999999996,-0.00022999999999999998,5e-05,1e-05,-2e-05,5
20781,21382,-1e-05,-0.00016999999999999999,-1e-05,-0.00045999999999999996,-0.00022999999999999998,5e-05,1e-05,-2e-05,5
20782,21383,-1e-05,-0.00016999999999999999,-1e-05,-0.00045999999999999996,-0.00022999999999999998,5e-05,1e-05,-2e-05,5
20783,21384,-1e-05,-0.00016999999999999999,-1e-05,-0.00045999999999999996,-0.00022999999999999998,5e-05,1e-05,-2e-05,5
20784,21385,-1e-05,-0.00016999999999999999,-1e-05,-0.00045999999999999996,-0.00022999999999999998,5e-05,1e-05,-2e-05,5
20785,21386,-1e-05,-0.00016999999999999999,-1e-05,-0.00045999999999999996,-0.00022999999999999998,5e-05,1e-05,-2e-05,5
20786,21388,-1e-05,-0.00016999999999999999,-1e-05,-0.00045999999999999996,-0.00022999999999999998,5e-05,1e-05,-2e-05,5
20787,21389,-1e-05,-0.00016999999999999999,-1e-05,-0.00045999999999999996,-0.00022999999999999998,5e-05,1e-05,-2e-05,5
20788,21390,-1e-05,-0.00016999999999999999,-1e-05,-0.00045999999999999996,-0.00022999999999999998,5e-05,1e-05,-2e-05,5
20789,21391,-1e-05,-0.00016999999999999999,-1e-05,-0.00045999999999999996,-0.00022999999999999998,5e-05,1e-05,-2e-05,5
20790,21392,-1e-05,-0.00016999999999999999,-1e-05,-0.00045999999999999996,-0.00022999999999999998,5e-05,1e-05,-2e-05,5
20791,21393,-1e-05,-0.00016999999999999999,-1e-05,-0.00045999999999999996,-0.00022999999999999998,5e-05,1e-05,-2e-05,5
20792,21394,2e-05,2.9999999999999997e-05,-4e-05,-0.00026000000000000003,0.00022,1e-05,-9e-05,-2.9999999999999997e-05,5
20793,21395,-2e-05,2.9999999999999997e-05,-2e-05,-0.0003,-0.00057,-7e-05,0.0,-1e-05,5
20794,21396,-2e-05,2.9999999999999997e-05,-2e-05,-0.0003,-0.00057,-7e-05,0.0,-1e-05,5
20795,21397,-2e-05,2.9999999999999997e-05,-2e-05,-0.0003,-0.00057,-7e-05,0.0,-1e-05,5
20796,21398,-2e-05,2.9999999999999997e-05,-2e-05,-0.0003,-0.00057,-7e-05,0.0,-1e-05,5
20797,21399,-2e-05,2.9999999999999997e-05,-2e-05,-0.0003,-0.00057,-7e-05,0.0,-1e-05,5
20798,21400,-2e-05,2.9999999999999997e-05,-2e-05,-0.0003,-0.00057,-7e-05,0.0,-1e-05,5
20799,21401,-2e-05,2.9999999999999997e-05,-2e-05,-0.0003,-0.00057,-7e-05,0.0,-1e-05,5
20800,21402,-2e-05,2.9999999999999997e-05,-2e-05,-0.0003,-0.00057,-7e-05,0.0,-1e-05,5
20801,21403,-2e-05,2.9999999999999997e-05,-2e-05,-0.0003,-0.00057,-7e-05,0.0,-1e-05,5
20802,21404,-2e-05,2.9999999999999997e-05,-2e-05,-0.0003,-0.00057,-7e-05,0.0,-1e-05,5
20803,21405,-2e-05,2.9999999999999997e-05,-2e-05,-0.0003,-0.00057,-7e-05,0.0,-1e-05,5
20804,21406,-2e-05,2.9999999999999997e-05,-2e-05,-0.0003,-0.00057,-7e-05,0.0,-1e-05,5
20805,21407,-2e-05,2.9999999999999997e-05,-2e-05,-0.0003,-0.00057,-7e-05,0.0,-1e-05,5
20806,21408,-2e-05,2.9999999999999997e-05,-2e-05,-0.0003,-0.00057,-7e-05,0.0,-1e-05,5
20807,21409,-2e-05,2.9999999999999997e-05,-2e-05,-0.0003,-0.00057,-7e-05,0.0,-1e-05,5
20808,21410,-2e-05,2.9999999999999997e-05,-2e-05,-0.0003,-0.00057,-7e-05,0.0,-1e-05,5
20809,21411,-2e-05,2.9999999999999997e-05,-2e-05,-0.0003,-0.00057,-7e-05,0.0,-1e-05,5
20810,21412,-2e-05,2.9999999999999997e-05,-2e-05,-0.0003,-0.00057,-7e-05,0.0,-1e-05,5
20811,21413,-2e-05,2.9999999999999997e-05,-2e-05,-0.0003,-0.00057,-7e-05,0.0,-1e-05,5
20812,21414,-2e-05,2.9999999999999997e-05,-2e-05,-0.0003,-0.00057,-7e-05,0.0,-1e-05,5
20813,21415,-2e-05,2.9999999999999997e-05,-2e-05,-0.0003,-0.00057,-7e-05,0.0,-1e-05,5
20814,21416,-2e-05,2.9999999999999997e-05,-2e-05,-0.0003,-0.00057,-7e-05,0.0,-1e-05,5
20815,21417,-5.9999999999999995e-05,-9e-05,-0.00013000000000000002,-0.0007,-0.00036,1e-05,-1e-05,-2e-05,5
20816,21418,0.0,5.9999999999999995e-05,2.9999999999999997e-05,7e-05,0.00023999999999999998,-0.00016,-2e-05,0.0,5
20817,21419,0.0,5.9999999999999995e-05,2.9999999999999997e-05,7e-05,0.00023999999999999998,-0.00016,-2e-05,0.0,5
20818,21420,0.0,5.9999999999999995e-05,2.9999999999999997e-05,7e-05,0.00023999999999999998,-0.00016,-2e-05,0.0,5
20819,21421,0.0,5.9999999999999995e-05,2.9999999999999997e-05,7e-05,0.00023999999999999998,-0.00016,-2e-05,0.0,5
20820,21422,0.0,5.9999999999999995e-05,2.9999999999999997e-05,7e-05,0.00023999999999999998,-0.00016,-2e-05,0.0,5
20821,21423,0.0,5.9999999999999995e-05,2.9999999999999997e-05,7e-05,0.00023999999999999998,-0.00016,-2e-05,0.0,5
20822,21424,0.0,5.9999999999999995e-05,2.9999999999999997e-05,7e-05,0.00023999999999999998,-0.00016,-2e-05,0.0,5
20823,21425,0.0,5.9999999999999995e-05,2.9999999999999997e-05,7e-05,0.00023999999999999998,-0.00016,-2e-05,0.0,5
20824,21426,0.0,5.9999999999999995e-05,2.9999999999999997e-05,7e-05,0.00023999999999999998,-0.00016,-2e-05,0.0,5
20825,21427,0.0,5.9999999999999995e-05,2.9999999999999997e-05,7e-05,0.00023999999999999998,-0.00016,-2e-05,0.0,5
20826,21428,0.0,5.9999999999999995e-05,2.9999999999999997e-05,7e-05,0.00023999999999999998,-0.00016,-2e-05,0.0,5
20827,21429,0.0,5.9999999999999995e-05,2.9999999999999997e-05,7e-05,0.00023999999999999998,-0.00016,-2e-05,0.0,5
20828,21430,0.0,5.9999999999999995e-05,2.9999999999999997e-05,7e-05,0.00023999999999999998,-0.00016,-2e-05,0.0,5
20829,21431,-4e-05,-4e-05,-0.00014,-0.00027,0.00014,0.0001,7e-05,-1e-05,5
20830,21432,-4e-05,0.0,-4e-05,-0.00025,0.00011999999999999999,2e-05,-2.9999999999999997e-05,-7e-05,5
20831,21433,-4e-05,0.0,-4e-05,-0.00025,0.00011999999999999999,2e-05,-2.9999999999999997e-05,-7e-05,5
20832,21434,-4e-05,0.0,-4e-05,-0.00025,0.00011999999999999999,2e-05,-2.9999999999999997e-05,-7e-05,5
20833,21435,-4e-05,0.0,-4e-05,-0.00025,0.00011999999999999999,2e-05,-2.9999999999999997e-05,-7e-05,5
20834,21436,-4e-05,0.0,-4e-05,-0.00025,0.00011999999999999999,2e-05,-2.9999999999999997e-05,-7e-05,5
20835,21438,-4e-05,0.0,-4e-05,-0.00025,0.00011999999999999999,2e-05,-2.9999999999999997e-05,-7e-05,5
20836,21439,-4e-05,0.0,-4e-05,-0.00025,0.00011999999999999999,2e-05,-2.9999999999999997e-05,-7e-05,5
20837,21440,-4e-05,0.0,-4e-05,-0.00025,0.00011999999999999999,2e-05,-2.9999999999999997e-05,-7e-05,5
20838,21441,-4e-05,0.0,-4e-05,-0.00025,0.00011999999999999999,2e-05,-2.9999999999999997e-05,-7e-05,5
20839,21442,-4e-05,0.0,-4e-05,-0.00025,0.00011999999999999999,2e-05,-2.9999999999999997e-05,-7e-05,5
20840,21443,-4e-05,0.0,-4e-05,-0.00025,0.00011999999999999999,2e-05,-2.9999999999999997e-05,-7e-05,5
20841,21444,-4e-05,0.0,-4e-05,-0.00025,0.00011999999999999999,2e-05,-2.9999999999999997e-05,-7e-05,5
20842,21445,-4e-05,0.0,-4e-05,-0.00025,0.00011999999999999999,2e-05,-2.9999999999999997e-05,-7e-05,5
20843,21446,-4e-05,0.0,-4e-05,-0.00025,0.00011999999999999999,2e-05,-2.9999999999999997e-05,-7e-05,5
20844,21447,-4e-05,0.0,-4e-05,-0.00025,0.00011999999999999999,2e-05,-2.9999999999999997e-05,-7e-05,5
20845,21448,-4e-05,0.0,-4e-05,-0.00025,0.00011999999999999999,2e-05,-2.9999999999999997e-05,-7e-05,5
20846,21449,-4e-05,0.0,-4e-05,-0.00025,0.00011999999999999999,2e-05,-2.9999999999999997e-05,-7e-05,5
20847,21450,-4e-05,0.0,-4e-05,-0.00025,0.00011999999999999999,2e-05,-2.9999999999999997e-05,-7e-05,5
20848,21451,-4e-05,0.0,-4e-05,-0.00025,0.00011999999999999999,2e-05,-2.9999999999999997e-05,-7e-05,5
20849,21452,-4e-05,0.0,-4e-05,-0.00025,0.00011999999999999999,2e-05,-2.9999999999999997e-05,-7e-05,5
20850,21453,-4e-05,0.0,-4e-05,-0.00025,0.00011999999999999999,2e-05,-2.9999999999999997e-05,-7e-05,5
20851,21454,-5e-05,2e-05,2e-05,-8e-05,0.00063,5.9999999999999995e-05,-2e-05,-2.9999999999999997e-05,5
20852,21455,-5e-05,2e-05,2e-05,-8e-05,0.00063,5.9999999999999995e-05,-2e-05,-2.9999999999999997e-05,5
20853,21456,-5e-05,2e-05,2e-05,-8e-05,0.00063,5.9999999999999995e-05,-2e-05,-2.9999999999999997e-05,5
20854,21457,-5e-05,2e-05,2e-05,-8e-05,0.00063,5.9999999999999995e-05,-2e-05,-2.9999999999999997e-05,5
20855,21458,-5e-05,2e-05,2e-05,-8e-05,0.00063,5.9999999999999995e-05,-2e-05,-2.9999999999999997e-05,5
20856,21459,-5e-05,2e-05,2e-05,-8e-05,0.00063,5.9999999999999995e-05,-2e-05,-2.9999999999999997e-05,5
20857,21460,-5e-05,2e-05,2e-05,-8e-05,0.00063,5.9999999999999995e-05,-2e-05,-2.9999999999999997e-05,5
20858,21461,-5e-05,2e-05,2e-05,-8e-05,0.00063,5.9999999999999995e-05,-2e-05,-2.9999999999999997e-05,5
20859,21462,-5e-05,2e-05,2e-05,-8e-05,0.00063,5.9999999999999995e-05,-2e-05,-2.9999999999999997e-05,5
20860,21463,-5e-05,2e-05,2e-05,-8e-05,0.00063,5.9999999999999995e-05,-2e-05,-2.9999999999999997e-05,5
20861,21464,-5e-05,2e-05,2e-05,-8e-05,0.00063,5.9999999999999995e-05,-2e-05,-2.9999999999999997e-05,5
20862,21465,-5e-05,2e-05,2e-05,-8e-05,0.00063,5.9999999999999995e-05,-2e-05,-2.9999999999999997e-05,5
20863,21466,-5e-05,2e-05,2e-05,-8e-05,0.00063,5.9999999999999995e-05,-2e-05,-2.9999999999999997e-05,5
20864,21467,-5e-05,2e-05,2e-05,-8e-05,0.00063,5.9999999999999995e-05,-2e-05,-2.9999999999999997e-05,5
20865,21468,-5e-05,2e-05,2e-05,-8e-05,0.00063,5.9999999999999995e-05,-2e-05,-2.9999999999999997e-05,5
20866,21469,-5e-05,2e-05,2e-05,-8e-05,0.00063,5.9999999999999995e-05,-2e-05,-2.9999999999999997e-05,5
20867,21470,-5e-05,2e-05,2e-05,-8e-05,0.00063,5.9999999999999995e-05,-2e-05,-2.9999999999999997e-05,5
20868,21471,-5e-05,2e-05,2e-05,-8e-05,0.00063,5.9999999999999995e-05,-2e-05,-2.9999999999999997e-05,5
20869,21472,-5e-05,2e-05,2e-05,-8e-05,0.00063,5.9999999999999995e-05,-2e-05,-2.9999999999999997e-05,5
20870,21473,-5e-05,2e-05,2e-05,-8e-05,0.00063,5.9999999999999995e-05,-2e-05,-2.9999999999999997e-05,5
20871,21474,-5e-05,2e-05,2e-05,-8e-05,0.00063,5.9999999999999995e-05,-2e-05,-2.9999999999999997e-05,5
20872,21475,-5e-05,2e-05,2e-05,-8e-05,0.00063,5.9999999999999995e-05,-2e-05,-2.9999999999999997e-05,5
20873,21476,-5e-05,2e-05,2e-05,-8e-05,0.00063,5.9999999999999995e-05,-2e-05,-2.9999999999999997e-05,5
20874,21477,0.0,-0.0001,2e-05,0.00011999999999999999,-0.00029,0.0,-1e-05,-2.9999999999999997e-05,5
20875,21478,2e-05,7e-05,0.00011,0.00035,-0.0005099999999999999,8e-05,4e-05,2.9999999999999997e-05,5
20876,21479,2e-05,7e-05,0.00011,0.00035,-0.0005099999999999999,8e-05,4e-05,2.9999999999999997e-05,5
20877,21480,2e-05,7e-05,0.00011,0.00035,-0.0005099999999999999,8e-05,4e-05,2.9999999999999997e-05,5
20878,21481,2e-05,7e-05,0.00011,0.00035,-0.0005099999999999999,8e-05,4e-05,2.9999999999999997e-05,5
20879,21482,2e-05,7e-05,0.00011,0.00035,-0.0005099999999999999,8e-05,4e-05,2.9999999999999997e-05,5
20880,21483,2e-05,7e-05,0.00011,0.00035,-0.0005099999999999999,8e-05,4e-05,2.9999999999999997e-05,5
20881,21484,2e-05,7e-05,0.00011,0.00035,-0.0005099999999999999,8e-05,4e-05,2.9999999999999997e-05,5
20882,21485,2e-05,7e-05,0.00011,0.00035,-0.0005099999999999999,8e-05,4e-05,2.9999999999999997e-05,5
20883,21486,2e-05,7e-05,0.00011,0.00035,-0.0005099999999999999,8e-05,4e-05,2.9999999999999997e-05,5
20884,21488,2e-05,7e-05,0.00011,0.00035,-0.0005099999999999999,8e-05,4e-05,2.9999999999999997e-05,5
20885,21489,2e-05,7e-05,0.00011,0.00035,-0.0005099999999999999,8e-05,4e-05,2.9999999999999997e-05,5
20886,21490,2e-05,7e-05,0.00011,0.00035,-0.0005099999999999999,8e-05,4e-05,2.9999999999999997e-05,5
20887,21491,-2e-05,1e-05,4e-05,0.00018,0.00011999999999999999,0.0,-2.9999999999999997e-05,-5e-05,5
20888,21492,-4e-05,-5e-05,-0.00013000000000000002,-0.00016,-0.00031,1e-05,2.9999999999999997e-05,2e-05,5
20889,21493,-4e-05,-5e-05,-0.00013000000000000002,-0.00016,-0.00031,1e-05,2.9999999999999997e-05,2e-05,5
20890,21494,-4e-05,-5e-05,-0.00013000000000000002,-0.00016,-0.00031,1e-05,2.9999999999999997e-05,2e-05,5
20891,21495,-4e-05,-5e-05,-0.00013000000000000002,-0.00016,-0.00031,1e-05,2.9999999999999997e-05,2e-05,5
20892,21496,-4e-05,-5e-05,-0.00013000000000000002,-0.00016,-0.00031,1e-05,2.9999999999999997e-05,2e-05,5
20893,21498,-4e-05,-5e-05,-0.00013000000000000002,-0.00016,-0.00031,1e-05,2.9999999999999997e-05,2e-05,5
20894,21499,-4e-05,-5e-05,-0.00013000000000000002,-0.00016,-0.00031,1e-05,2.9999999999999997e-05,2e-05,5
20895,21500,-4e-05,-5e-05,-0.00013000000000000002,-0.00016,-0.00031,1e-05,2.9999999999999997e-05,2e-05,5
20896,21501,-4e-05,-5e-05,-0.00013000000000000002,-0.00016,-0.00031,1e-05,2.9999999999999997e-05,2e-05,5
20897,21502,-4e-05,-5e-05,-0.00013000000000000002,-0.00016,-0.00031,1e-05,2.9999999999999997e-05,2e-05,5
20898,21503,-4e-05,-5e-05,-0.00013000000000000002,-0.00016,-0.00031,1e-05,2.9999999999999997e-05,2e-05,5
20899,21504,-4e-05,-5e-05,-0.00013000000000000002,-0.00016,-0.00031,1e-05,2.9999999999999997e-05,2e-05,5
20900,21505,-4e-05,-5e-05,-0.00013000000000000002,-0.00016,-0.00031,1e-05,2.9999999999999997e-05,2e-05,5
20901,21506,-4e-05,-5e-05,-0.00013000000000000002,-0.00016,-0.00031,1e-05,2.9999999999999997e-05,2e-05,5
20902,21507,-4e-05,-5e-05,-0.00013000000000000002,-0.00016,-0.00031,1e-05,2.9999999999999997e-05,2e-05,5
20903,21508,-4e-05,-5e-05,-0.00013000000000000002,-0.00016,-0.00031,1e-05,2.9999999999999997e-05,2e-05,5
20904,21509,-4e-05,-5e-05,-0.00013000000000000002,-0.00016,-0.00031,1e-05,2.9999999999999997e-05,2e-05,5
20905,21510,-4e-05,-5e-05,-0.00013000000000000002,-0.00016,-0.00031,1e-05,2.9999999999999997e-05,2e-05,5
20906,21511,-4e-05,-5e-05,-0.00013000000000000002,-0.00016,-0.00031,1e-05,2.9999999999999997e-05,2e-05,5
20907,21512,-4e-05,-5e-05,-0.00013000000000000002,-0.00016,-0.00031,1e-05,2.9999999999999997e-05,2e-05,5
20908,21513,-4e-05,-5e-05,-0.00013000000000000002,-0.00016,-0.00031,1e-05,2.9999999999999997e-05,2e-05,5
20909,21514,-1e-05,1e-05,5e-05,0.00041,0.0005099999999999999,5e-05,2e-05,-2e-05,5
20910,21515,-1e-05,1e-05,5e-05,0.00041,0.0005099999999999999,5e-05,2e-05,-2e-05,5
20911,21516,-1e-05,1e-05,5e-05,0.00041,0.0005099999999999999,5e-05,2e-05,-2e-05,5
20912,21517,-1e-05,1e-05,5e-05,0.00041,0.0005099999999999999,5e-05,2e-05,-2e-05,5
20913,21518,-1e-05,1e-05,5e-05,0.00041,0.0005099999999999999,5e-05,2e-05,-2e-05,5
20914,21519,-1e-05,1e-05,5e-05,0.00041,0.0005099999999999999,5e-05,2e-05,-2e-05,5
20915,21520,-1e-05,1e-05,5e-05,0.00041,0.0005099999999999999,5e-05,2e-05,-2e-05,5
20916,21521,-1e-05,1e-05,5e-05,0.00041,0.0005099999999999999,5e-05,2e-05,-2e-05,5
20917,21522,-1e-05,1e-05,5e-05,0.00041,0.0005099999999999999,5e-05,2e-05,-2e-05,5
20918,21523,-1e-05,1e-05,5e-05,0.00041,0.0005099999999999999,5e-05,2e-05,-2e-05,5
20919,21524,-1e-05,1e-05,5e-05,0.00041,0.0005099999999999999,5e-05,2e-05,-2e-05,5
20920,21525,-1e-05,1e-05,5e-05,0.00041,0.0005099999999999999,5e-05,2e-05,-2e-05,5
20921,21526,-1e-05,1e-05,5e-05,0.00041,0.0005099999999999999,5e-05,2e-05,-2e-05,5
20922,21527,-1e-05,1e-05,5e-05,0.00041,0.0005099999999999999,5e-05,2e-05,-2e-05,5
20923,21528,-1e-05,1e-05,5e-05,0.00041,0.0005099999999999999,5e-05,2e-05,-2e-05,5
20924,21529,-1e-05,1e-05,5e-05,0.00041,0.0005099999999999999,5e-05,2e-05,-2e-05,5
20925,21530,-1e-05,1e-05,5e-05,0.00041,0.0005099999999999999,5e-05,2e-05,-2e-05,5
20926,21531,-1e-05,1e-05,5e-05,0.00041,0.0005099999999999999,5e-05,2e-05,-2e-05,5
20927,21532,-1e-05,1e-05,5e-05,0.00041,0.0005099999999999999,5e-05,2e-05,-2e-05,5
20928,21533,-1e-05,1e-05,5e-05,0.00041,0.0005099999999999999,5e-05,2e-05,-2e-05,5
20929,21534,-1e-05,1e-05,5e-05,0.00041,0.0005099999999999999,5e-05,2e-05,-2e-05,5
20930,21535,-1e-05,1e-05,5e-05,0.00041,0.0005099999999999999,5e-05,2e-05,-2e-05,5
20931,21536,-1e-05,1e-05,5e-05,0.00041,0.0005099999999999999,5e-05,2e-05,-2e-05,5
20932,21538,-2e-05,-5e-05,-0.0002,-0.0001,0.00041,-2.9999999999999997e-05,-4e-05,-4e-05,5
20933,21539,-2e-05,-5e-05,-0.0002,-0.0001,0.00041,-2.9999999999999997e-05,-4e-05,-4e-05,5
20934,21540,-2e-05,-5e-05,-0.0002,-0.0001,0.00041,-2.9999999999999997e-05,-4e-05,-4e-05,5
20935,21541,-2e-05,-5e-05,-0.0002,-0.0001,0.00041,-2.9999999999999997e-05,-4e-05,-4e-05,5
20936,21542,-2e-05,-5e-05,-0.0002,-0.0001,0.00041,-2.9999999999999997e-05,-4e-05,-4e-05,5
20937,21543,-2e-05,-5e-05,-0.0002,-0.0001,0.00041,-2.9999999999999997e-05,-4e-05,-4e-05,5
20938,21544,-2e-05,-5e-05,-0.0002,-0.0001,0.00041,-2.9999999999999997e-05,-4e-05,-4e-05,5
20939,21545,-2e-05,-5e-05,-0.0002,-0.0001,0.00041,-2.9999999999999997e-05,-4e-05,-4e-05,5
20940,21546,-2e-05,-5e-05,-0.0002,-0.0001,0.00041,-2.9999999999999997e-05,-4e-05,-4e-05,5
20941,21547,-2e-05,-5e-05,-0.0002,-0.0001,0.00041,-2.9999999999999997e-05,-4e-05,-4e-05,5
20942,21548,-2e-05,-5e-05,-0.0002,-0.0001,0.00041,-2.9999999999999997e-05,-4e-05,-4e-05,5
20943,21549,-2e-05,-5e-05,-0.0002,-0.0001,0.00041,-2.9999999999999997e-05,-4e-05,-4e-05,5
20944,21550,-2e-05,-5e-05,-0.0002,-0.0001,0.00041,-2.9999999999999997e-05,-4e-05,-4e-05,5
20945,21551,2.9999999999999997e-05,-5.9999999999999995e-05,-0.00015,-0.00011999999999999999,5.9999999999999995e-05,-0.00013000000000000002,-2.9999999999999997e-05,-2e-05,5
20946,21552,7e-05,8e-05,0.00022,-2e-05,-0.0003,-9e-05,2e-05,5e-05,5
20947,21553,7e-05,8e-05,0.00022,-2e-05,-0.0003,-9e-05,2e-05,5e-05,5
20948,21554,7e-05,8e-05,0.00022,-2e-05,-0.0003,-9e-05,2e-05,5e-05,5
20949,21555,7e-05,8e-05,0.00022,-2e-05,-0.0003,-9e-05,2e-05,5e-05,5
20950,21556,7e-05,8e-05,0.00022,-2e-05,-0.0003,-9e-05,2e-05,5e-05,5
20951,21557,7e-05,8e-05,0.00022,-2e-05,-0.0003,-9e-05,2e-05,5e-05,5
20952,21558,7e-05,8e-05,0.00022,-2e-05,-0.0003,-9e-05,2e-05,5e-05,5
20953,21559,7e-05,8e-05,0.00022,-2e-05,-0.0003,-9e-05,2e-05,5e-05,5
20954,21560,7e-05,8e-05,0.00022,-2e-05,-0.0003,-9e-05,2e-05,5e-05,5
20955,21561,7e-05,8e-05,0.00022,-2e-05,-0.0003,-9e-05,2e-05,5e-05,5
20956,21562,7e-05,8e-05,0.00022,-2e-05,-0.0003,-9e-05,2e-05,5e-05,5
20957,21563,7e-05,8e-05,0.00022,-2e-05,-0.0003,-9e-05,2e-05,5e-05,5
20958,21564,7e-05,8e-05,0.00022,-2e-05,-0.0003,-9e-05,2e-05,5e-05,5
20959,21565,7e-05,8e-05,0.00022,-2e-05,-0.0003,-9e-05,2e-05,5e-05,5
20960,21566,7e-05,8e-05,0.00022,-2e-05,-0.0003,-9e-05,2e-05,5e-05,5
20961,21567,7e-05,8e-05,0.00022,-2e-05,-0.0003,-9e-05,2e-05,5e-05,5
20962,21568,7e-05,8e-05,0.00022,-2e-05,-0.0003,-9e-05,2e-05,5e-05,5
20963,21569,7e-05,8e-05,0.00022,-2e-05,-0.0003,-9e-05,2e-05,5e-05,5
20964,21570,7e-05,8e-05,0.00022,-2e-05,-0.0003,-9e-05,2e-05,5e-05,5
20965,21571,7e-05,8e-05,0.00022,-2e-05,-0.0003,-9e-05,2e-05,5e-05,5
20966,21572,7e-05,8e-05,0.00022,-2e-05,-0.0003,-9e-05,2e-05,5e-05,5
20967,21573,7e-05,8e-05,0.00022,-2e-05,-0.0003,-9e-05,2e-05,5e-05,5
20968,21574,-2e-05,-8e-05,-2.9999999999999997e-05,0.00028,0.00018999999999999998,-4e-05,5.9999999999999995e-05,0.0,5
20969,21575,-2.9999999999999997e-05,2e-05,4e-05,-0.00036,-0.00033,4e-05,-2e-05,-4e-05,5
20970,21576,-2.9999999999999997e-05,2e-05,4e-05,-0.00036,-0.00033,4e-05,-2e-05,-4e-05,5
20971,21577,-2.9999999999999997e-05,2e-05,4e-05,-0.00036,-0.00033,4e-05,-2e-05,-4e-05,5
20972,21578,-2.9999999999999997e-05,2e-05,4e-05,-0.00036,-0.00033,4e-05,-2e-05,-4e-05,5
20973,21579,-2.9999999999999997e-05,2e-05,4e-05,-0.00036,-0.00033,4e-05,-2e-05,-4e-05,5
20974,21580,-2.9999999999999997e-05,2e-05,4e-05,-0.00036,-0.00033,4e-05,-2e-05,-4e-05,5
20975,21581,-2.9999999999999997e-05,2e-05,4e-05,-0.00036,-0.00033,4e-05,-2e-05,-4e-05,5
20976,21582,-2.9999999999999997e-05,2e-05,4e-05,-0.00036,-0.00033,4e-05,-2e-05,-4e-05,5
20977,21583,-2.9999999999999997e-05,2e-05,4e-05,-0.00036,-0.00033,4e-05,-2e-05,-4e-05,5
20978,21584,-2.9999999999999997e-05,2e-05,4e-05,-0.00036,-0.00033,4e-05,-2e-05,-4e-05,5
20979,21585,-2.9999999999999997e-05,2e-05,4e-05,-0.00036,-0.00033,4e-05,-2e-05,-4e-05,5
20980,21586,-2.9999999999999997e-05,2e-05,4e-05,-0.00036,-0.00033,4e-05,-2e-05,-4e-05,5
20981,21588,-2.9999999999999997e-05,2e-05,4e-05,-0.00036,-0.00033,4e-05,-2e-05,-4e-05,5
20982,21589,-2.9999999999999997e-05,2e-05,4e-05,-0.00036,-0.00033,4e-05,-2e-05,-4e-05,5
20983,21590,-2.9999999999999997e-05,2e-05,4e-05,-0.00036,-0.00033,4e-05,-2e-05,-4e-05,5
20984,21591,-2.9999999999999997e-05,2e-05,4e-05,-0.00036,-0.00033,4e-05,-2e-05,-4e-05,5
20985,21592,-2.9999999999999997e-05,2e-05,4e-05,-0.00036,-0.00033,4e-05,-2e-05,-4e-05,5
20986,21593,-2.9999999999999997e-05,2e-05,4e-05,-0.00036,-0.00033,4e-05,-2e-05,-4e-05,5
20987,21594,-2.9999999999999997e-05,2e-05,4e-05,-0.00036,-0.00033,4e-05,-2e-05,-4e-05,5
20988,21595,-2.9999999999999997e-05,2e-05,4e-05,-0.00036,-0.00033,4e-05,-2e-05,-4e-05,5
20989,21596,-2.9999999999999997e-05,2e-05,4e-05,-0.00036,-0.00033,4e-05,-2e-05,-4e-05,5
20990,21597,-1e-05,0.00016,4e-05,1e-05,0.0,-5e-05,1e-05,-1e-05,5
20991,21598,0.0,-0.00014,-5.9999999999999995e-05,-0.00011,7e-05,2.9999999999999997e-05,-1e-05,0.0,5
20992,21599,0.0,-0.00014,-5.9999999999999995e-05,-0.00011,7e-05,2.9999999999999997e-05,-1e-05,0.0,5
20993,21600,0.0,-0.00014,-5.9999999999999995e-05,-0.00011,7e-05,2.9999999999999997e-05,-1e-05,0.0,5
20994,21601,0.0,-0.00014,-5.9999999999999995e-05,-0.00011,7e-05,2.9999999999999997e-05,-1e-05,0.0,5
20995,21602,0.0,-0.00014,-5.9999999999999995e-05,-0.00011,7e-05,2.9999999999999997e-05,-1e-05,0.0,5
20996,21603,0.0,-0.00014,-5.9999999999999995e-05,-0.00011,7e-05,2.9999999999999997e-05,-1e-05,0.0,5
20997,21604,0.0,-0.00014,-5.9999999999999995e-05,-0.00011,7e-05,2.9999999999999997e-05,-1e-05,0.0,5
20998,21605,0.0,-0.00014,-5.9999999999999995e-05,-0.00011,7e-05,2.9999999999999997e-05,-1e-05,0.0,5
20999,21606,0.0,-0.00014,-5.9999999999999995e-05,-0.00011,7e-05,2.9999999999999997e-05,-1e-05,0.0,5
21000,21607,0.0,-0.00014,-5.9999999999999995e-05,-0.00011,7e-05,2.9999999999999997e-05,-1e-05,0.0,5
21001,21608,0.0,-0.00014,-5.9999999999999995e-05,-0.00011,7e-05,2.9999999999999997e-05,-1e-05,0.0,5
21002,21609,0.0,-0.00014,-5.9999999999999995e-05,-0.00011,7e-05,2.9999999999999997e-05,-1e-05,0.0,5
21003,21610,0.0,-0.00014,-5.9999999999999995e-05,-0.00011,7e-05,2.9999999999999997e-05,-1e-05,0.0,5
21004,21611,2e-05,-7e-05,2e-05,-1e-05,0.00043,1e-05,2e-05,2.9999999999999997e-05,5
21005,21612,-2.9999999999999997e-05,-1e-05,-5.9999999999999995e-05,-0.00023999999999999998,0.00025,-0.0001,-8e-05,-5e-05,5
21006,21613,-2.9999999999999997e-05,-1e-05,-5.9999999999999995e-05,-0.00023999999999999998,0.00025,-0.0001,-8e-05,-5e-05,5
21007,21614,-2.9999999999999997e-05,-1e-05,-5.9999999999999995e-05,-0.00023999999999999998,0.00025,-0.0001,-8e-05,-5e-05,5
21008,21615,-2.9999999999999997e-05,-1e-05,-5.9999999999999995e-05,-0.00023999999999999998,0.00025,-0.0001,-8e-05,-5e-05,5
21009,21616,-2.9999999999999997e-05,-1e-05,-5.9999999999999995e-05,-0.00023999999999999998,0.00025,-0.0001,-8e-05,-5e-05,5
21010,21617,-2.9999999999999997e-05,-1e-05,-5.9999999999999995e-05,-0.00023999999999999998,0.00025,-0.0001,-8e-05,-5e-05,5
21011,21618,-2.9999999999999997e-05,-1e-05,-5.9999999999999995e-05,-0.00023999999999999998,0.00025,-0.0001,-8e-05,-5e-05,5
21012,21619,-2.9999999999999997e-05,-1e-05,-5.9999999999999995e-05,-0.00023999999999999998,0.00025,-0.0001,-8e-05,-5e-05,5
21013,21620,-2.9999999999999997e-05,-1e-05,-5.9999999999999995e-05,-0.00023999999999999998,0.00025,-0.0001,-8e-05,-5e-05,5
21014,21621,-2.9999999999999997e-05,-1e-05,-5.9999999999999995e-05,-0.00023999999999999998,0.00025,-0.0001,-8e-05,-5e-05,5
21015,21622,-2.9999999999999997e-05,-1e-05,-5.9999999999999995e-05,-0.00023999999999999998,0.00025,-0.0001,-8e-05,-5e-05,5
21016,21623,-2.9999999999999997e-05,-1e-05,-5.9999999999999995e-05,-0.00023999999999999998,0.00025,-0.0001,-8e-05,-5e-05,5
21017,21624,-2.9999999999999997e-05,-1e-05,-5.9999999999999995e-05,-0.00023999999999999998,0.00025,-0.0001,-8e-05,-5e-05,5
21018,21625,-2.9999999999999997e-05,-1e-05,-5.9999999999999995e-05,-0.00023999999999999998,0.00025,-0.0001,-8e-05,-5e-05,5
21019,21626,-2.9999999999999997e-05,-1e-05,-5.9999999999999995e-05,-0.00023999999999999998,0.00025,-0.0001,-8e-05,-5e-05,5
21020,21627,-2.9999999999999997e-05,-1e-05,-5.9999999999999995e-05,-0.00023999999999999998,0.00025,-0.0001,-8e-05,-5e-05,5
21021,21628,-2.9999999999999997e-05,-1e-05,-5.9999999999999995e-05,-0.00023999999999999998,0.00025,-0.0001,-8e-05,-5e-05,5
21022,21629,-2.9999999999999997e-05,-1e-05,-5.9999999999999995e-05,-0.00023999999999999998,0.00025,-0.0001,-8e-05,-5e-05,5
21023,21630,-2.9999999999999997e-05,-1e-05,-5.9999999999999995e-05,-0.00023999999999999998,0.00025,-0.0001,-8e-05,-5e-05,5
21024,21631,-2.9999999999999997e-05,-1e-05,-5.9999999999999995e-05,-0.00023999999999999998,0.00025,-0.0001,-8e-05,-5e-05,5
21025,21632,-2.9999999999999997e-05,-1e-05,-5.9999999999999995e-05,-0.00023999999999999998,0.00025,-0.0001,-8e-05,-5e-05,5
21026,21633,-2.9999999999999997e-05,-1e-05,-5.9999999999999995e-05,-0.00023999999999999998,0.00025,-0.0001,-8e-05,-5e-05,5
21027,21634,-1e-05,-7e-05,-0.0001,-0.00041,-2e-05,-5e-05,-1e-05,-1e-05,5
21028,21635,-1e-05,-7e-05,-0.0001,-0.00041,-2e-05,-5e-05,-1e-05,-1e-05,5
21029,21636,-1e-05,-7e-05,-0.0001,-0.00041,-2e-05,-5e-05,-1e-05,-1e-05,5
21030,21639,-1e-05,-7e-05,-0.0001,-0.00041,-2e-05,-5e-05,-1e-05,-1e-05,5
21031,21640,-1e-05,-7e-05,-0.0001,-0.00041,-2e-05,-5e-05,-1e-05,-1e-05,5
21032,21641,-1e-05,-7e-05,-0.0001,-0.00041,-2e-05,-5e-05,-1e-05,-1e-05,5
21033,21642,-1e-05,-7e-05,-0.0001,-0.00041,-2e-05,-5e-05,-1e-05,-1e-05,5
21034,21643,-1e-05,-7e-05,-0.0001,-0.00041,-2e-05,-5e-05,-1e-05,-1e-05,5
21035,21644,-1e-05,-7e-05,-0.0001,-0.00041,-2e-05,-5e-05,-1e-05,-1e-05,5
21036,21645,-1e-05,-7e-05,-0.0001,-0.00041,-2e-05,-5e-05,-1e-05,-1e-05,5
21037,21646,-1e-05,-7e-05,-0.0001,-0.00041,-2e-05,-5e-05,-1e-05,-1e-05,5
21038,21647,-1e-05,-7e-05,-0.0001,-0.00041,-2e-05,-5e-05,-1e-05,-1e-05,5
21039,21648,-1e-05,-7e-05,-0.0001,-0.00041,-2e-05,-5e-05,-1e-05,-1e-05,5
21040,21649,-1e-05,-7e-05,-0.0001,-0.00041,-2e-05,-5e-05,-1e-05,-1e-05,5
21041,21650,-1e-05,-7e-05,-0.0001,-0.00041,-2e-05,-5e-05,-1e-05,-1e-05,5
21042,21651,-1e-05,-7e-05,-0.0001,-0.00041,-2e-05,-5e-05,-1e-05,-1e-05,5
21043,21652,-1e-05,-7e-05,-0.0001,-0.00041,-2e-05,-5e-05,-1e-05,-1e-05,5
21044,21653,-1e-05,-7e-05,-0.0001,-0.00041,-2e-05,-5e-05,-1e-05,-1e-05,5
21045,21654,-1e-05,-7e-05,-0.0001,-0.00041,-2e-05,-5e-05,-1e-05,-1e-05,5
21046,21655,-1e-05,-7e-05,-0.0001,-0.00041,-2e-05,-5e-05,-1e-05,-1e-05,5
21047,21656,-1e-05,-7e-05,-0.0001,-0.00041,-2e-05,-5e-05,-1e-05,-1e-05,5
21048,21657,-1e-05,0.0,0.00013000000000000002,0.0005200000000000001,5.9999999999999995e-05,0.0,-4e-05,-2e-05,5
21049,21658,0.0,5.9999999999999995e-05,0.00021,0.00054,0.00026000000000000003,0.00018,2.9999999999999997e-05,1e-05,5
21050,21659,0.0,5.9999999999999995e-05,0.00021,0.00054,0.00026000000000000003,0.00018,2.9999999999999997e-05,1e-05,5
21051,21660,0.0,5.9999999999999995e-05,0.00021,0.00054,0.00026000000000000003,0.00018,2.9999999999999997e-05,1e-05,5
21052,21661,0.0,5.9999999999999995e-05,0.00021,0.00054,0.00026000000000000003,0.00018,2.9999999999999997e-05,1e-05,5
21053,21662,0.0,5.9999999999999995e-05,0.00021,0.00054,0.00026000000000000003,0.00018,2.9999999999999997e-05,1e-05,5
21054,21663,0.0,5.9999999999999995e-05,0.00021,0.00054,0.00026000000000000003,0.00018,2.9999999999999997e-05,1e-05,5
21055,21664,0.0,5.9999999999999995e-05,0.00021,0.00054,0.00026000000000000003,0.00018,2.9999999999999997e-05,1e-05,5
21056,21665,0.0,5.9999999999999995e-05,0.00021,0.00054,0.00026000000000000003,0.00018,2.9999999999999997e-05,1e-05,5
21057,21666,0.0,5.9999999999999995e-05,0.00021,0.00054,0.00026000000000000003,0.00018,2.9999999999999997e-05,1e-05,5
21058,21667,0.0,5.9999999999999995e-05,0.00021,0.00054,0.00026000000000000003,0.00018,2.9999999999999997e-05,1e-05,5
21059,21668,0.0,5.9999999999999995e-05,0.00021,0.00054,0.00026000000000000003,0.00018,2.9999999999999997e-05,1e-05,5
21060,21669,0.0,5.9999999999999995e-05,0.00021,0.00054,0.00026000000000000003,0.00018,2.9999999999999997e-05,1e-05,5
21061,21670,0.0,5.9999999999999995e-05,0.00021,0.00054,0.00026000000000000003,0.00018,2.9999999999999997e-05,1e-05,5
21062,21671,0.0,-2e-05,-7e-05,-0.00031,-0.0005200000000000001,-5e-05,-1e-05,-1e-05,5
21063,21672,0.0,4e-05,-5.9999999999999995e-05,0.00013000000000000002,0.00022999999999999998,-4e-05,0.0,-2e-05,5
21064,21673,0.0,4e-05,-5.9999999999999995e-05,0.00013000000000000002,0.00022999999999999998,-4e-05,0.0,-2e-05,5
21065,21674,0.0,4e-05,-5.9999999999999995e-05,0.00013000000000000002,0.00022999999999999998,-4e-05,0.0,-2e-05,5
21066,21675,0.0,4e-05,-5.9999999999999995e-05,0.00013000000000000002,0.00022999999999999998,-4e-05,0.0,-2e-05,5
21067,21676,0.0,4e-05,-5.9999999999999995e-05,0.00013000000000000002,0.00022999999999999998,-4e-05,0.0,-2e-05,5
21068,21677,0.0,4e-05,-5.9999999999999995e-05,0.00013000000000000002,0.00022999999999999998,-4e-05,0.0,-2e-05,5
21069,21678,0.0,4e-05,-5.9999999999999995e-05,0.00013000000000000002,0.00022999999999999998,-4e-05,0.0,-2e-05,5
21070,21679,0.0,4e-05,-5.9999999999999995e-05,0.00013000000000000002,0.00022999999999999998,-4e-05,0.0,-2e-05,5
21071,21680,0.0,4e-05,-5.9999999999999995e-05,0.00013000000000000002,0.00022999999999999998,-4e-05,0.0,-2e-05,5
21072,21681,0.0,4e-05,-5.9999999999999995e-05,0.00013000000000000002,0.00022999999999999998,-4e-05,0.0,-2e-05,5
21073,21682,0.0,4e-05,-5.9999999999999995e-05,0.00013000000000000002,0.00022999999999999998,-4e-05,0.0,-2e-05,5
21074,21683,0.0,4e-05,-5.9999999999999995e-05,0.00013000000000000002,0.00022999999999999998,-4e-05,0.0,-2e-05,5
21075,21684,0.0,4e-05,-5.9999999999999995e-05,0.00013000000000000002,0.00022999999999999998,-4e-05,0.0,-2e-05,5
21076,21685,0.0,4e-05,-5.9999999999999995e-05,0.00013000000000000002,0.00022999999999999998,-4e-05,0.0,-2e-05,5
21077,21686,0.0,4e-05,-5.9999999999999995e-05,0.00013000000000000002,0.00022999999999999998,-4e-05,0.0,-2e-05,5
21078,21688,0.0,4e-05,-5.9999999999999995e-05,0.00013000000000000002,0.00022999999999999998,-4e-05,0.0,-2e-05,5
21079,21689,0.0,4e-05,-5.9999999999999995e-05,0.00013000000000000002,0.00022999999999999998,-4e-05,0.0,-2e-05,5
21080,21690,0.0,4e-05,-5.9999999999999995e-05,0.00013000000000000002,0.00022999999999999998,-4e-05,0.0,-2e-05,5
21081,21691,0.0,4e-05,-5.9999999999999995e-05,0.00013000000000000002,0.00022999999999999998,-4e-05,0.0,-2e-05,5
21082,21692,0.0,4e-05,-5.9999999999999995e-05,0.00013000000000000002,0.00022999999999999998,-4e-05,0.0,-2e-05,5
21083,21693,-1e-05,-4e-05,-1e-05,-0.00047000000000000004,-0.00018,0.0,-5e-05,-2.9999999999999997e-05,5
21084,21694,-1e-05,-4e-05,-1e-05,-0.00047000000000000004,-0.00018,0.0,-5e-05,-2.9999999999999997e-05,5
21085,21695,-5e-05,-1e-05,2e-05,-7e-05,-0.00018999999999999998,-5e-05,1e-05,-1e-05,5
21086,21696,-5e-05,-1e-05,2e-05,-7e-05,-0.00018999999999999998,-5e-05,1e-05,-1e-05,5
21087,21697,-5e-05,-1e-05,2e-05,-7e-05,-0.00018999999999999998,-5e-05,1e-05,-1e-05,5
21088,21698,-5e-05,-1e-05,2e-05,-7e-05,-0.00018999999999999998,-5e-05,1e-05,-1e-05,5
21089,21699,-5e-05,-1e-05,2e-05,-7e-05,-0.00018999999999999998,-5e-05,1e-05,-1e-05,5
21090,21700,-5e-05,-1e-05,2e-05,-7e-05,-0.00018999999999999998,-5e-05,1e-05,-1e-05,5
21091,21701,-5e-05,-1e-05,2e-05,-7e-05,-0.00018999999999999998,-5e-05,1e-05,-1e-05,5
21092,21702,-5e-05,-1e-05,2e-05,-7e-05,-0.00018999999999999998,-5e-05,1e-05,-1e-05,5
21093,21703,-5e-05,-1e-05,2e-05,-7e-05,-0.00018999999999999998,-5e-05,1e-05,-1e-05,5
21094,21704,-5e-05,-1e-05,2e-05,-7e-05,-0.00018999999999999998,-5e-05,1e-05,-1e-05,5
21095,21705,-5e-05,-1e-05,2e-05,-7e-05,-0.00018999999999999998,-5e-05,1e-05,-1e-05,5
21096,21706,-5e-05,-1e-05,2e-05,-7e-05,-0.00018999999999999998,-5e-05,1e-05,-1e-05,5
21097,21707,-5e-05,-1e-05,2e-05,-7e-05,-0.00018999999999999998,-5e-05,1e-05,-1e-05,5
21098,21708,-5e-05,-1e-05,2e-05,-7e-05,-0.00018999999999999998,-5e-05,1e-05,-1e-05,5
21099,21709,-5e-05,-1e-05,2e-05,-7e-05,-0.00018999999999999998,-5e-05,1e-05,-1e-05,5
21100,21710,-5e-05,-1e-05,2e-05,-7e-05,-0.00018999999999999998,-5e-05,1e-05,-1e-05,5
21101,21711,-5e-05,-1e-05,2e-05,-7e-05,-0.00018999999999999998,-5e-05,1e-05,-1e-05,5
21102,21712,-5e-05,-1e-05,2e-05,-7e-05,-0.00018999999999999998,-5e-05,1e-05,-1e-05,5
21103,21713,-5e-05,-1e-05,2e-05,-7e-05,-0.00018999999999999998,-5e-05,1e-05,-1e-05,5
21104,21714,-5e-05,-1e-05,2e-05,-7e-05,-0.00018999999999999998,-5e-05,1e-05,-1e-05,5
21105,21715,-5e-05,-1e-05,2e-05,-7e-05,-0.00018999999999999998,-5e-05,1e-05,-1e-05,5
21106,21716,-5e-05,-1e-05,2e-05,-7e-05,-0.00018999999999999998,-5e-05,1e-05,-1e-05,5
21107,21717,-1e-05,-2.9999999999999997e-05,-0.00014,-0.00016999999999999999,-0.00033,-5.9999999999999995e-05,-2.9999999999999997e-05,-2.9999999999999997e-05,5
21108,21718,1e-05,-5e-05,2.9999999999999997e-05,-0.00013000000000000002,0.00014,-1e-05,2e-05,0.0,5
21109,21719,1e-05,-5e-05,2.9999999999999997e-05,-0.00013000000000000002,0.00014,-1e-05,2e-05,0.0,5
21110,21720,1e-05,-5e-05,2.9999999999999997e-05,-0.00013000000000000002,0.00014,-1e-05,2e-05,0.0,5
21111,21721,1e-05,-5e-05,2.9999999999999997e-05,-0.00013000000000000002,0.00014,-1e-05,2e-05,0.0,5
21112,21722,1e-05,-5e-05,2.9999999999999997e-05,-0.00013000000000000002,0.00014,-1e-05,2e-05,0.0,5
21113,21723,1e-05,-5e-05,2.9999999999999997e-05,-0.00013000000000000002,0.00014,-1e-05,2e-05,0.0,5
21114,21724,1e-05,-5e-05,2.9999999999999997e-05,-0.00013000000000000002,0.00014,-1e-05,2e-05,0.0,5
21115,21725,1e-05,-5e-05,2.9999999999999997e-05,-0.00013000000000000002,0.00014,-1e-05,2e-05,0.0,5
21116,21726,1e-05,-5e-05,2.9999999999999997e-05,-0.00013000000000000002,0.00014,-1e-05,2e-05,0.0,5
21117,21727,1e-05,-5e-05,2.9999999999999997e-05,-0.00013000000000000002,0.00014,-1e-05,2e-05,0.0,5
21118,21728,1e-05,-5e-05,2.9999999999999997e-05,-0.00013000000000000002,0.00014,-1e-05,2e-05,0.0,5
21119,21729,1e-05,-5e-05,2.9999999999999997e-05,-0.00013000000000000002,0.00014,-1e-05,2e-05,0.0,5
21120,21730,1e-05,-5e-05,2.9999999999999997e-05,-0.00013000000000000002,0.00014,-1e-05,2e-05,0.0,5
21121,21731,-1e-05,-7e-05,-5e-05,-4e-05,0.00014,0.00011,0.0,0.0,5
21122,21732,5.9999999999999995e-05,2e-05,2.9999999999999997e-05,-0.00032,-0.00033999999999999997,-2e-05,1e-05,2.9999999999999997e-05,5
21123,21733,5.9999999999999995e-05,2e-05,2.9999999999999997e-05,-0.00032,-0.00033999999999999997,-2e-05,1e-05,2.9999999999999997e-05,5
21124,21734,5.9999999999999995e-05,2e-05,2.9999999999999997e-05,-0.00032,-0.00033999999999999997,-2e-05,1e-05,2.9999999999999997e-05,5
21125,21735,5.9999999999999995e-05,2e-05,2.9999999999999997e-05,-0.00032,-0.00033999999999999997,-2e-05,1e-05,2.9999999999999997e-05,5
21126,21736,5.9999999999999995e-05,2e-05,2.9999999999999997e-05,-0.00032,-0.00033999999999999997,-2e-05,1e-05,2.9999999999999997e-05,5
21127,21738,5.9999999999999995e-05,2e-05,2.9999999999999997e-05,-0.00032,-0.00033999999999999997,-2e-05,1e-05,2.9999999999999997e-05,5
21128,21739,5.9999999999999995e-05,2e-05,2.9999999999999997e-05,-0.00032,-0.00033999999999999997,-2e-05,1e-05,2.9999999999999997e-05,5
21129,21740,5.9999999999999995e-05,2e-05,2.9999999999999997e-05,-0.00032,-0.00033999999999999997,-2e-05,1e-05,2.9999999999999997e-05,5
21130,21741,5.9999999999999995e-05,2e-05,2.9999999999999997e-05,-0.00032,-0.00033999999999999997,-2e-05,1e-05,2.9999999999999997e-05,5
21131,21742,5.9999999999999995e-05,2e-05,2.9999999999999997e-05,-0.00032,-0.00033999999999999997,-2e-05,1e-05,2.9999999999999997e-05,5
21132,21743,5.9999999999999995e-05,2e-05,2.9999999999999997e-05,-0.00032,-0.00033999999999999997,-2e-05,1e-05,2.9999999999999997e-05,5
21133,21744,5.9999999999999995e-05,2e-05,2.9999999999999997e-05,-0.00032,-0.00033999999999999997,-2e-05,1e-05,2.9999999999999997e-05,5
21134,21745,5.9999999999999995e-05,2e-05,2.9999999999999997e-05,-0.00032,-0.00033999999999999997,-2e-05,1e-05,2.9999999999999997e-05,5
21135,21746,5.9999999999999995e-05,2e-05,2.9999999999999997e-05,-0.00032,-0.00033999999999999997,-2e-05,1e-05,2.9999999999999997e-05,5
21136,21747,5.9999999999999995e-05,2e-05,2.9999999999999997e-05,-0.00032,-0.00033999999999999997,-2e-05,1e-05,2.9999999999999997e-05,5
21137,21748,5.9999999999999995e-05,2e-05,2.9999999999999997e-05,-0.00032,-0.00033999999999999997,-2e-05,1e-05,2.9999999999999997e-05,5
21138,21749,5.9999999999999995e-05,2e-05,2.9999999999999997e-05,-0.00032,-0.00033999999999999997,-2e-05,1e-05,2.9999999999999997e-05,5
21139,21750,5.9999999999999995e-05,2e-05,2.9999999999999997e-05,-0.00032,-0.00033999999999999997,-2e-05,1e-05,2.9999999999999997e-05,5
21140,21751,5.9999999999999995e-05,2e-05,2.9999999999999997e-05,-0.00032,-0.00033999999999999997,-2e-05,1e-05,2.9999999999999997e-05,5
21141,21752,5.9999999999999995e-05,2e-05,2.9999999999999997e-05,-0.00032,-0.00033999999999999997,-2e-05,1e-05,2.9999999999999997e-05,5
21142,21753,5.9999999999999995e-05,2e-05,2.9999999999999997e-05,-0.00032,-0.00033999999999999997,-2e-05,1e-05,2.9999999999999997e-05,5
21143,21754,-5e-05,-0.00014,-0.00022,-1e-05,-0.00047000000000000004,-5.9999999999999995e-05,-2.9999999999999997e-05,0.0,5
21144,21755,-5e-05,-0.00014,-0.00022,-1e-05,-0.00047000000000000004,-5.9999999999999995e-05,-2.9999999999999997e-05,0.0,5
21145,21756,-5e-05,-0.00014,-0.00022,-1e-05,-0.00047000000000000004,-5.9999999999999995e-05,-2.9999999999999997e-05,0.0,5
21146,21757,-5e-05,-0.00014,-0.00022,-1e-05,-0.00047000000000000004,-5.9999999999999995e-05,-2.9999999999999997e-05,0.0,5
21147,21758,-5e-05,-0.00014,-0.00022,-1e-05,-0.00047000000000000004,-5.9999999999999995e-05,-2.9999999999999997e-05,0.0,5
21148,21759,-5e-05,-0.00014,-0.00022,-1e-05,-0.00047000000000000004,-5.9999999999999995e-05,-2.9999999999999997e-05,0.0,5
21149,21760,-5e-05,-0.00014,-0.00022,-1e-05,-0.00047000000000000004,-5.9999999999999995e-05,-2.9999999999999997e-05,0.0,5
21150,21761,-5e-05,-0.00014,-0.00022,-1e-05,-0.00047000000000000004,-5.9999999999999995e-05,-2.9999999999999997e-05,0.0,5
21151,21762,-5e-05,-0.00014,-0.00022,-1e-05,-0.00047000000000000004,-5.9999999999999995e-05,-2.9999999999999997e-05,0.0,5
21152,21763,-5e-05,-0.00014,-0.00022,-1e-05,-0.00047000000000000004,-5.9999999999999995e-05,-2.9999999999999997e-05,0.0,5
21153,21764,-5e-05,-0.00014,-0.00022,-1e-05,-0.00047000000000000004,-5.9999999999999995e-05,-2.9999999999999997e-05,0.0,5
21154,21765,-5e-05,-0.00014,-0.00022,-1e-05,-0.00047000000000000004,-5.9999999999999995e-05,-2.9999999999999997e-05,0.0,5
21155,21766,-5e-05,-0.00014,-0.00022,-1e-05,-0.00047000000000000004,-5.9999999999999995e-05,-2.9999999999999997e-05,0.0,5
21156,21767,-5e-05,-0.00014,-0.00022,-1e-05,-0.00047000000000000004,-5.9999999999999995e-05,-2.9999999999999997e-05,0.0,5
21157,21768,-5e-05,-0.00014,-0.00022,-1e-05,-0.00047000000000000004,-5.9999999999999995e-05,-2.9999999999999997e-05,0.0,5
21158,21769,-5e-05,-0.00014,-0.00022,-1e-05,-0.00047000000000000004,-5.9999999999999995e-05,-2.9999999999999997e-05,0.0,5
21159,21770,-5e-05,-0.00014,-0.00022,-1e-05,-0.00047000000000000004,-5.9999999999999995e-05,-2.9999999999999997e-05,0.0,5
21160,21771,-5e-05,-0.00014,-0.00022,-1e-05,-0.00047000000000000004,-5.9999999999999995e-05,-2.9999999999999997e-05,0.0,5
21161,21772,-5e-05,-0.00014,-0.00022,-1e-05,-0.00047000000000000004,-5.9999999999999995e-05,-2.9999999999999997e-05,0.0,5
21162,21773,-5e-05,-0.00014,-0.00022,-1e-05,-0.00047000000000000004,-5.9999999999999995e-05,-2.9999999999999997e-05,0.0,5
21163,21774,-5e-05,-0.00014,-0.00022,-1e-05,-0.00047000000000000004,-5.9999999999999995e-05,-2.9999999999999997e-05,0.0,5
21164,21775,-5e-05,-0.00014,-0.00022,-1e-05,-0.00047000000000000004,-5.9999999999999995e-05,-2.9999999999999997e-05,0.0,5
21165,21776,-5e-05,-0.00014,-0.00022,-1e-05,-0.00047000000000000004,-5.9999999999999995e-05,-2.9999999999999997e-05,0.0,5
21166,21777,2e-05,4e-05,1e-05,0.00025,0.00049,5e-05,-4e-05,1e-05,5
21167,21778,0.0,2.9999999999999997e-05,-1e-05,-0.00016,8e-05,5.9999999999999995e-05,0.0,-1e-05,5
21168,21779,0.0,2.9999999999999997e-05,-1e-05,-0.00016,8e-05,5.9999999999999995e-05,0.0,-1e-05,5
21169,21780,0.0,2.9999999999999997e-05,-1e-05,-0.00016,8e-05,5.9999999999999995e-05,0.0,-1e-05,5
21170,21781,0.0,2.9999999999999997e-05,-1e-05,-0.00016,8e-05,5.9999999999999995e-05,0.0,-1e-05,5
21171,21782,0.0,2.9999999999999997e-05,-1e-05,-0.00016,8e-05,5.9999999999999995e-05,0.0,-1e-05,5
21172,21783,0.0,2.9999999999999997e-05,-1e-05,-0.00016,8e-05,5.9999999999999995e-05,0.0,-1e-05,5
21173,21784,0.0,2.9999999999999997e-05,-1e-05,-0.00016,8e-05,5.9999999999999995e-05,0.0,-1e-05,5
21174,21785,0.0,2.9999999999999997e-05,-1e-05,-0.00016,8e-05,5.9999999999999995e-05,0.0,-1e-05,5
21175,21786,0.0,2.9999999999999997e-05,-1e-05,-0.00016,8e-05,5.9999999999999995e-05,0.0,-1e-05,5
21176,21788,0.0,2.9999999999999997e-05,-1e-05,-0.00016,8e-05,5.9999999999999995e-05,0.0,-1e-05,5
21177,21789,0.0,2.9999999999999997e-05,-1e-05,-0.00016,8e-05,5.9999999999999995e-05,0.0,-1e-05,5
21178,21790,0.0,2.9999999999999997e-05,-1e-05,-0.00016,8e-05,5.9999999999999995e-05,0.0,-1e-05,5
21179,21791,-7e-05,-0.0001,2e-05,0.00026000000000000003,0.00033999999999999997,-2.9999999999999997e-05,-2.9999999999999997e-05,-1e-05,5
21180,21792,-2e-05,-5.9999999999999995e-05,-4e-05,0.0002,0.00039,2e-05,-1e-05,-2e-05,5
21181,21793,-2e-05,-5.9999999999999995e-05,-4e-05,0.0002,0.00039,2e-05,-1e-05,-2e-05,5
21182,21794,-2e-05,-5.9999999999999995e-05,-4e-05,0.0002,0.00039,2e-05,-1e-05,-2e-05,5
21183,21795,-2e-05,-5.9999999999999995e-05,-4e-05,0.0002,0.00039,2e-05,-1e-05,-2e-05,5
21184,21796,-2e-05,-5.9999999999999995e-05,-4e-05,0.0002,0.00039,2e-05,-1e-05,-2e-05,5
21185,21797,-2e-05,-5.9999999999999995e-05,-4e-05,0.0002,0.00039,2e-05,-1e-05,-2e-05,5
21186,21798,-2e-05,-5.9999999999999995e-05,-4e-05,0.0002,0.00039,2e-05,-1e-05,-2e-05,5
21187,21799,-2e-05,-5.9999999999999995e-05,-4e-05,0.0002,0.00039,2e-05,-1e-05,-2e-05,5
21188,21800,-2e-05,-5.9999999999999995e-05,-4e-05,0.0002,0.00039,2e-05,-1e-05,-2e-05,5
21189,21801,-2e-05,-5.9999999999999995e-05,-4e-05,0.0002,0.00039,2e-05,-1e-05,-2e-05,5
21190,21802,-2e-05,-5.9999999999999995e-05,-4e-05,0.0002,0.00039,2e-05,-1e-05,-2e-05,5
21191,21803,-2e-05,-5.9999999999999995e-05,-4e-05,0.0002,0.00039,2e-05,-1e-05,-2e-05,5
21192,21804,-2e-05,-5.9999999999999995e-05,-4e-05,0.0002,0.00039,2e-05,-1e-05,-2e-05,5
21193,21805,-2e-05,-5.9999999999999995e-05,-4e-05,0.0002,0.00039,2e-05,-1e-05,-2e-05,5
21194,21806,-2e-05,-5.9999999999999995e-05,-4e-05,0.0002,0.00039,2e-05,-1e-05,-2e-05,5
21195,21807,-2e-05,-5.9999999999999995e-05,-4e-05,0.0002,0.00039,2e-05,-1e-05,-2e-05,5
21196,21808,-2e-05,-5.9999999999999995e-05,-4e-05,0.0002,0.00039,2e-05,-1e-05,-2e-05,5
21197,21809,-2e-05,-5.9999999999999995e-05,-4e-05,0.0002,0.00039,2e-05,-1e-05,-2e-05,5
21198,21810,-2e-05,-5.9999999999999995e-05,-4e-05,0.0002,0.00039,2e-05,-1e-05,-2e-05,5
21199,21811,-2e-05,-5.9999999999999995e-05,-4e-05,0.0002,0.00039,2e-05,-1e-05,-2e-05,5
21200,21812,-2e-05,-5.9999999999999995e-05,-4e-05,0.0002,0.00039,2e-05,-1e-05,-2e-05,5
21201,21813,-2e-05,-5.9999999999999995e-05,-4e-05,0.0002,0.00039,2e-05,-1e-05,-2e-05,5
21202,21814,-4e-05,9e-05,-0.0001,-0.00025,-5e-05,1e-05,-2e-05,-4e-05,5
21203,21815,-4e-05,9e-05,-0.0001,-0.00025,-5e-05,1e-05,-2e-05,-4e-05,5
21204,21816,-4e-05,9e-05,-0.0001,-0.00025,-5e-05,1e-05,-2e-05,-4e-05,5
21205,21817,-4e-05,9e-05,-0.0001,-0.00025,-5e-05,1e-05,-2e-05,-4e-05,5
21206,21818,-4e-05,9e-05,-0.0001,-0.00025,-5e-05,1e-05,-2e-05,-4e-05,5
21207,21819,-4e-05,9e-05,-0.0001,-0.00025,-5e-05,1e-05,-2e-05,-4e-05,5
21208,21820,-4e-05,9e-05,-0.0001,-0.00025,-5e-05,1e-05,-2e-05,-4e-05,5
21209,21821,-4e-05,9e-05,-0.0001,-0.00025,-5e-05,1e-05,-2e-05,-4e-05,5
21210,21822,-4e-05,9e-05,-0.0001,-0.00025,-5e-05,1e-05,-2e-05,-4e-05,5
21211,21823,-4e-05,9e-05,-0.0001,-0.00025,-5e-05,1e-05,-2e-05,-4e-05,5
21212,21824,-4e-05,9e-05,-0.0001,-0.00025,-5e-05,1e-05,-2e-05,-4e-05,5
21213,21825,-4e-05,9e-05,-0.0001,-0.00025,-5e-05,1e-05,-2e-05,-4e-05,5
21214,21826,-4e-05,9e-05,-0.0001,-0.00025,-5e-05,1e-05,-2e-05,-4e-05,5
21215,21827,-4e-05,9e-05,-0.0001,-0.00025,-5e-05,1e-05,-2e-05,-4e-05,5
21216,21828,-4e-05,9e-05,-0.0001,-0.00025,-5e-05,1e-05,-2e-05,-4e-05,5
21217,21829,-4e-05,9e-05,-0.0001,-0.00025,-5e-05,1e-05,-2e-05,-4e-05,5
21218,21830,-4e-05,9e-05,-0.0001,-0.00025,-5e-05,1e-05,-2e-05,-4e-05,5
21219,21831,-4e-05,9e-05,-0.0001,-0.00025,-5e-05,1e-05,-2e-05,-4e-05,5
21220,21832,-4e-05,9e-05,-0.0001,-0.00025,-5e-05,1e-05,-2e-05,-4e-05,5
21221,21833,-4e-05,9e-05,-0.0001,-0.00025,-5e-05,1e-05,-2e-05,-4e-05,5
21222,21834,-4e-05,9e-05,-0.0001,-0.00025,-5e-05,1e-05,-2e-05,-4e-05,5
21223,21835,-4e-05,9e-05,-0.0001,-0.00025,-5e-05,1e-05,-2e-05,-4e-05,5
21224,21836,-4e-05,9e-05,-0.0001,-0.00025,-5e-05,1e-05,-2e-05,-4e-05,5
21225,21838,1e-05,5.9999999999999995e-05,2.9999999999999997e-05,0.0007,5e-05,9e-05,-2.9999999999999997e-05,-1e-05,5
21226,21839,1e-05,5.9999999999999995e-05,2.9999999999999997e-05,0.0007,5e-05,9e-05,-2.9999999999999997e-05,-1e-05,5
21227,21840,1e-05,5.9999999999999995e-05,2.9999999999999997e-05,0.0007,5e-05,9e-05,-2.9999999999999997e-05,-1e-05,5
21228,21841,1e-05,5.9999999999999995e-05,2.9999999999999997e-05,0.0007,5e-05,9e-05,-2.9999999999999997e-05,-1e-05,5
21229,21842,1e-05,5.9999999999999995e-05,2.9999999999999997e-05,0.0007,5e-05,9e-05,-2.9999999999999997e-05,-1e-05,5
21230,21843,1e-05,5.9999999999999995e-05,2.9999999999999997e-05,0.0007,5e-05,9e-05,-2.9999999999999997e-05,-1e-05,5
21231,21844,1e-05,5.9999999999999995e-05,2.9999999999999997e-05,0.0007,5e-05,9e-05,-2.9999999999999997e-05,-1e-05,5
21232,21845,1e-05,5.9999999999999995e-05,2.9999999999999997e-05,0.0007,5e-05,9e-05,-2.9999999999999997e-05,-1e-05,5
21233,21846,1e-05,5.9999999999999995e-05,2.9999999999999997e-05,0.0007,5e-05,9e-05,-2.9999999999999997e-05,-1e-05,5
21234,21847,1e-05,5.9999999999999995e-05,2.9999999999999997e-05,0.0007,5e-05,9e-05,-2.9999999999999997e-05,-1e-05,5
21235,21848,1e-05,5.9999999999999995e-05,2.9999999999999997e-05,0.0007,5e-05,9e-05,-2.9999999999999997e-05,-1e-05,5
21236,21849,1e-05,5.9999999999999995e-05,2.9999999999999997e-05,0.0007,5e-05,9e-05,-2.9999999999999997e-05,-1e-05,5
21237,21850,1e-05,5.9999999999999995e-05,2.9999999999999997e-05,0.0007,5e-05,9e-05,-2.9999999999999997e-05,-1e-05,5
21238,21851,-5.9999999999999995e-05,1e-05,-0.0002,-0.00047000000000000004,-0.00011999999999999999,-4e-05,-2.9999999999999997e-05,-2e-05,5
21239,21852,-9e-05,-0.0001,-0.00022999999999999998,-0.00031,-8e-05,-4e-05,-5e-05,-4e-05,5
21240,21853,-9e-05,-0.0001,-0.00022999999999999998,-0.00031,-8e-05,-4e-05,-5e-05,-4e-05,5
21241,21854,-9e-05,-0.0001,-0.00022999999999999998,-0.00031,-8e-05,-4e-05,-5e-05,-4e-05,5
21242,21855,-9e-05,-0.0001,-0.00022999999999999998,-0.00031,-8e-05,-4e-05,-5e-05,-4e-05,5
21243,21856,-9e-05,-0.0001,-0.00022999999999999998,-0.00031,-8e-05,-4e-05,-5e-05,-4e-05,5
21244,21857,-9e-05,-0.0001,-0.00022999999999999998,-0.00031,-8e-05,-4e-05,-5e-05,-4e-05,5
21245,21858,-9e-05,-0.0001,-0.00022999999999999998,-0.00031,-8e-05,-4e-05,-5e-05,-4e-05,5
21246,21859,-9e-05,-0.0001,-0.00022999999999999998,-0.00031,-8e-05,-4e-05,-5e-05,-4e-05,5
21247,21860,-9e-05,-0.0001,-0.00022999999999999998,-0.00031,-8e-05,-4e-05,-5e-05,-4e-05,5
21248,21861,-9e-05,-0.0001,-0.00022999999999999998,-0.00031,-8e-05,-4e-05,-5e-05,-4e-05,5
21249,21862,-9e-05,-0.0001,-0.00022999999999999998,-0.00031,-8e-05,-4e-05,-5e-05,-4e-05,5
21250,21863,-9e-05,-0.0001,-0.00022999999999999998,-0.00031,-8e-05,-4e-05,-5e-05,-4e-05,5
21251,21864,-9e-05,-0.0001,-0.00022999999999999998,-0.00031,-8e-05,-4e-05,-5e-05,-4e-05,5
21252,21865,-9e-05,-0.0001,-0.00022999999999999998,-0.00031,-8e-05,-4e-05,-5e-05,-4e-05,5
21253,21866,-9e-05,-0.0001,-0.00022999999999999998,-0.00031,-8e-05,-4e-05,-5e-05,-4e-05,5
21254,21867,-9e-05,-0.0001,-0.00022999999999999998,-0.00031,-8e-05,-4e-05,-5e-05,-4e-05,5
21255,21868,-9e-05,-0.0001,-0.00022999999999999998,-0.00031,-8e-05,-4e-05,-5e-05,-4e-05,5
21256,21869,-9e-05,-0.0001,-0.00022999999999999998,-0.00031,-8e-05,-4e-05,-5e-05,-4e-05,5
21257,21870,-9e-05,-0.0001,-0.00022999999999999998,-0.00031,-8e-05,-4e-05,-5e-05,-4e-05,5
21258,21871,-9e-05,-0.0001,-0.00022999999999999998,-0.00031,-8e-05,-4e-05,-5e-05,-4e-05,5
21259,21872,-9e-05,-0.0001,-0.00022999999999999998,-0.00031,-8e-05,-4e-05,-5e-05,-4e-05,5
21260,21873,-9e-05,-0.0001,-0.00022999999999999998,-0.00031,-8e-05,-4e-05,-5e-05,-4e-05,5
21261,21874,1e-05,-2e-05,8e-05,1e-05,-9e-05,-2e-05,-1e-05,1e-05,5
21262,21875,1e-05,-2e-05,8e-05,1e-05,-9e-05,-2e-05,-1e-05,1e-05,5
21263,21876,1e-05,-2e-05,8e-05,1e-05,-9e-05,-2e-05,-1e-05,1e-05,5
21264,21877,1e-05,-2e-05,8e-05,1e-05,-9e-05,-2e-05,-1e-05,1e-05,5
21265,21878,1e-05,-2e-05,8e-05,1e-05,-9e-05,-2e-05,-1e-05,1e-05,5
21266,21879,1e-05,-2e-05,8e-05,1e-05,-9e-05,-2e-05,-1e-05,1e-05,5
21267,21880,1e-05,-2e-05,8e-05,1e-05,-9e-05,-2e-05,-1e-05,1e-05,5
21268,21881,1e-05,-2e-05,8e-05,1e-05,-9e-05,-2e-05,-1e-05,1e-05,5
21269,21882,1e-05,-2e-05,8e-05,1e-05,-9e-05,-2e-05,-1e-05,1e-05,5
21270,21883,1e-05,-2e-05,8e-05,1e-05,-9e-05,-2e-05,-1e-05,1e-05,5
21271,21884,1e-05,-2e-05,8e-05,1e-05,-9e-05,-2e-05,-1e-05,1e-05,5
21272,21885,1e-05,-2e-05,8e-05,1e-05,-9e-05,-2e-05,-1e-05,1e-05,5
21273,21886,1e-05,-2e-05,8e-05,1e-05,-9e-05,-2e-05,-1e-05,1e-05,5
21274,21888,1e-05,-2e-05,8e-05,1e-05,-9e-05,-2e-05,-1e-05,1e-05,5
21275,21889,1e-05,-2e-05,8e-05,1e-05,-9e-05,-2e-05,-1e-05,1e-05,5
21276,21890,1e-05,-2e-05,8e-05,1e-05,-9e-05,-2e-05,-1e-05,1e-05,5
21277,21891,1e-05,-2e-05,8e-05,1e-05,-9e-05,-2e-05,-1e-05,1e-05,5
21278,21892,1e-05,-2e-05,8e-05,1e-05,-9e-05,-2e-05,-1e-05,1e-05,5
21279,21893,1e-05,-2e-05,8e-05,1e-05,-9e-05,-2e-05,-1e-05,1e-05,5
21280,21894,1e-05,-2e-05,8e-05,1e-05,-9e-05,-2e-05,-1e-05,1e-05,5
21281,21895,1e-05,-2e-05,8e-05,1e-05,-9e-05,-2e-05,-1e-05,1e-05,5
21282,21896,1e-05,-2e-05,8e-05,1e-05,-9e-05,-2e-05,-1e-05,1e-05,5
21283,21897,0.0,2e-05,0.00011,0.00023999999999999998,0.00014,0.0001,2.9999999999999997e-05,0.0,5
21284,21898,5e-05,2e-05,-1e-05,0.00016,-0.00013000000000000002,5.9999999999999995e-05,2.9999999999999997e-05,2.9999999999999997e-05,5
21285,21899,5e-05,2e-05,-1e-05,0.00016,-0.00013000000000000002,5.9999999999999995e-05,2.9999999999999997e-05,2.9999999999999997e-05,5
21286,21900,5e-05,2e-05,-1e-05,0.00016,-0.00013000000000000002,5.9999999999999995e-05,2.9999999999999997e-05,2.9999999999999997e-05,5
21287,21901,5e-05,2e-05,-1e-05,0.00016,-0.00013000000000000002,5.9999999999999995e-05,2.9999999999999997e-05,2.9999999999999997e-05,5
21288,21902,5e-05,2e-05,-1e-05,0.00016,-0.00013000000000000002,5.9999999999999995e-05,2.9999999999999997e-05,2.9999999999999997e-05,5
21289,21903,5e-05,2e-05,-1e-05,0.00016,-0.00013000000000000002,5.9999999999999995e-05,2.9999999999999997e-05,2.9999999999999997e-05,5
21290,21904,5e-05,2e-05,-1e-05,0.00016,-0.00013000000000000002,5.9999999999999995e-05,2.9999999999999997e-05,2.9999999999999997e-05,5
21291,21905,5e-05,2e-05,-1e-05,0.00016,-0.00013000000000000002,5.9999999999999995e-05,2.9999999999999997e-05,2.9999999999999997e-05,5
21292,21906,5e-05,2e-05,-1e-05,0.00016,-0.00013000000000000002,5.9999999999999995e-05,2.9999999999999997e-05,2.9999999999999997e-05,5
21293,21907,5e-05,2e-05,-1e-05,0.00016,-0.00013000000000000002,5.9999999999999995e-05,2.9999999999999997e-05,2.9999999999999997e-05,5
21294,21908,5e-05,2e-05,-1e-05,0.00016,-0.00013000000000000002,5.9999999999999995e-05,2.9999999999999997e-05,2.9999999999999997e-05,5
21295,21909,5e-05,2e-05,-1e-05,0.00016,-0.00013000000000000002,5.9999999999999995e-05,2.9999999999999997e-05,2.9999999999999997e-05,5
21296,21910,5e-05,2e-05,-1e-05,0.00016,-0.00013000000000000002,5.9999999999999995e-05,2.9999999999999997e-05,2.9999999999999997e-05,5
21297,21911,-2e-05,-9e-05,-0.00014,-0.0005,-5.9999999999999995e-05,-9e-05,-1e-05,-2e-05,5
21298,21912,2e-05,2.9999999999999997e-05,0.00016999999999999999,0.00074,-0.00032,5e-05,5e-05,0.0,5
21299,21913,2e-05,2.9999999999999997e-05,0.00016999999999999999,0.00074,-0.00032,5e-05,5e-05,0.0,5
21300,21914,2e-05,2.9999999999999997e-05,0.00016999999999999999,0.00074,-0.00032,5e-05,5e-05,0.0,5
21301,21915,2e-05,2.9999999999999997e-05,0.00016999999999999999,0.00074,-0.00032,5e-05,5e-05,0.0,5
21302,21916,2e-05,2.9999999999999997e-05,0.00016999999999999999,0.00074,-0.00032,5e-05,5e-05,0.0,5
21303,21917,2e-05,2.9999999999999997e-05,0.00016999999999999999,0.00074,-0.00032,5e-05,5e-05,0.0,5
21304,21918,2e-05,2.9999999999999997e-05,0.00016999999999999999,0.00074,-0.00032,5e-05,5e-05,0.0,5
21305,21919,-2.9999999999999997e-05,2e-05,2e-05,-0.00014,0.00013000000000000002,-2e-05,-1e-05,-2.9999999999999997e-05,5
21306,21920,-2.9999999999999997e-05,2e-05,2e-05,-0.00014,0.00013000000000000002,-2e-05,-1e-05,-2.9999999999999997e-05,5
21307,21921,-2.9999999999999997e-05,2e-05,2e-05,-0.00014,0.00013000000000000002,-2e-05,-1e-05,-2.9999999999999997e-05,5
21308,21922,-2.9999999999999997e-05,2e-05,2e-05,-0.00014,0.00013000000000000002,-2e-05,-1e-05,-2.9999999999999997e-05,5
21309,21923,-2.9999999999999997e-05,2e-05,2e-05,-0.00014,0.00013000000000000002,-2e-05,-1e-05,-2.9999999999999997e-05,5
21310,21924,-2.9999999999999997e-05,2e-05,2e-05,-0.00014,0.00013000000000000002,-2e-05,-1e-05,-2.9999999999999997e-05,5
21311,21925,-2.9999999999999997e-05,2e-05,2e-05,-0.00014,0.00013000000000000002,-2e-05,-1e-05,-2.9999999999999997e-05,5
21312,21926,-2.9999999999999997e-05,2e-05,2e-05,-0.00014,0.00013000000000000002,-2e-05,-1e-05,-2.9999999999999997e-05,5
21313,21927,-2.9999999999999997e-05,2e-05,2e-05,-0.00014,0.00013000000000000002,-2e-05,-1e-05,-2.9999999999999997e-05,5
21314,21928,-2.9999999999999997e-05,2e-05,2e-05,-0.00014,0.00013000000000000002,-2e-05,-1e-05,-2.9999999999999997e-05,5
21315,21929,-2.9999999999999997e-05,2e-05,2e-05,-0.00014,0.00013000000000000002,-2e-05,-1e-05,-2.9999999999999997e-05,5
21316,21930,-2.9999999999999997e-05,2e-05,2e-05,-0.00014,0.00013000000000000002,-2e-05,-1e-05,-2.9999999999999997e-05,5
21317,21931,-2.9999999999999997e-05,2e-05,2e-05,-0.00014,0.00013000000000000002,-2e-05,-1e-05,-2.9999999999999997e-05,5
21318,21932,-2.9999999999999997e-05,2e-05,2e-05,-0.00014,0.00013000000000000002,-2e-05,-1e-05,-2.9999999999999997e-05,5
21319,21933,-2.9999999999999997e-05,2e-05,2e-05,-0.00014,0.00013000000000000002,-2e-05,-1e-05,-2.9999999999999997e-05,5
21320,21934,1e-05,0.0,2e-05,7e-05,-0.00058,-0.00016,-8e-05,-2.9999999999999997e-05,5
21321,21935,1e-05,0.0,2e-05,7e-05,-0.00058,-0.00016,-8e-05,-2.9999999999999997e-05,5
21322,21936,1e-05,0.0,2e-05,7e-05,-0.00058,-0.00016,-8e-05,-2.9999999999999997e-05,5
21323,21938,1e-05,0.0,2e-05,7e-05,-0.00058,-0.00016,-8e-05,-2.9999999999999997e-05,5
21324,21939,1e-05,0.0,2e-05,7e-05,-0.00058,-0.00016,-8e-05,-2.9999999999999997e-05,5
21325,21940,1e-05,0.0,2e-05,7e-05,-0.00058,-0.00016,-8e-05,-2.9999999999999997e-05,5
21326,21941,1e-05,0.0,2e-05,7e-05,-0.00058,-0.00016,-8e-05,-2.9999999999999997e-05,5
21327,21942,1e-05,0.0,2e-05,7e-05,-0.00058,-0.00016,-8e-05,-2.9999999999999997e-05,5
21328,21943,1e-05,0.0,2e-05,7e-05,-0.00058,-0.00016,-8e-05,-2.9999999999999997e-05,5
21329,21944,1e-05,0.0,2e-05,7e-05,-0.00058,-0.00016,-8e-05,-2.9999999999999997e-05,5
21330,21945,1e-05,0.0,2e-05,7e-05,-0.00058,-0.00016,-8e-05,-2.9999999999999997e-05,5
21331,21946,1e-05,0.0,2e-05,7e-05,-0.00058,-0.00016,-8e-05,-2.9999999999999997e-05,5
21332,21947,1e-05,0.0,2e-05,7e-05,-0.00058,-0.00016,-8e-05,-2.9999999999999997e-05,5
21333,21948,1e-05,0.0,2e-05,7e-05,-0.00058,-0.00016,-8e-05,-2.9999999999999997e-05,5
21334,21949,1e-05,0.0,2e-05,7e-05,-0.00058,-0.00016,-8e-05,-2.9999999999999997e-05,5
21335,21950,1e-05,0.0,2e-05,7e-05,-0.00058,-0.00016,-8e-05,-2.9999999999999997e-05,5
21336,21951,1e-05,0.0,2e-05,7e-05,-0.00058,-0.00016,-8e-05,-2.9999999999999997e-05,5
21337,21952,1e-05,0.0,2e-05,7e-05,-0.00058,-0.00016,-8e-05,-2.9999999999999997e-05,5
21338,21953,1e-05,0.0,2e-05,7e-05,-0.00058,-0.00016,-8e-05,-2.9999999999999997e-05,5
21339,21954,1e-05,0.0,2e-05,7e-05,-0.00058,-0.00016,-8e-05,-2.9999999999999997e-05,5
21340,21955,1e-05,0.0,2e-05,7e-05,-0.00058,-0.00016,-8e-05,-2.9999999999999997e-05,5
21341,21956,1e-05,0.0,2e-05,7e-05,-0.00058,-0.00016,-8e-05,-2.9999999999999997e-05,5
21342,21957,-2e-05,-0.00015,-0.00016,-7e-05,-0.00014,1e-05,1e-05,-1e-05,5
21343,21958,-2e-05,-1e-05,0.00016,-4e-05,0.00061,-4e-05,0.0,-2.9999999999999997e-05,5
21344,21959,-2e-05,-1e-05,0.00016,-4e-05,0.00061,-4e-05,0.0,-2.9999999999999997e-05,5
21345,21960,-2e-05,-1e-05,0.00016,-4e-05,0.00061,-4e-05,0.0,-2.9999999999999997e-05,5
21346,21961,-2e-05,-1e-05,0.00016,-4e-05,0.00061,-4e-05,0.0,-2.9999999999999997e-05,5
21347,21962,-2e-05,-1e-05,0.00016,-4e-05,0.00061,-4e-05,0.0,-2.9999999999999997e-05,5
21348,21963,-2e-05,-1e-05,0.00016,-4e-05,0.00061,-4e-05,0.0,-2.9999999999999997e-05,5
21349,21964,-2e-05,-1e-05,0.00016,-4e-05,0.00061,-4e-05,0.0,-2.9999999999999997e-05,5
21350,21965,-2e-05,-1e-05,0.00016,-4e-05,0.00061,-4e-05,0.0,-2.9999999999999997e-05,5
21351,21966,-2e-05,-1e-05,0.00016,-4e-05,0.00061,-4e-05,0.0,-2.9999999999999997e-05,5
21352,21967,-2e-05,-1e-05,0.00016,-4e-05,0.00061,-4e-05,0.0,-2.9999999999999997e-05,5
21353,21968,-2e-05,-1e-05,0.00016,-4e-05,0.00061,-4e-05,0.0,-2.9999999999999997e-05,5
21354,21969,-2e-05,-1e-05,0.00016,-4e-05,0.00061,-4e-05,0.0,-2.9999999999999997e-05,5
21355,21970,-2e-05,-1e-05,0.00016,-4e-05,0.00061,-4e-05,0.0,-2.9999999999999997e-05,5
21356,21971,-2e-05,-5e-05,4e-05,5.9999999999999995e-05,-0.0009,-5e-05,-1e-05,-2.9999999999999997e-05,5
21357,21972,-2e-05,-5e-05,4e-05,5.9999999999999995e-05,-0.0009,-5e-05,-1e-05,-2.9999999999999997e-05,5
21358,21973,-2e-05,-5e-05,4e-05,5.9999999999999995e-05,-0.0009,-5e-05,-1e-05,-2.9999999999999997e-05,5
21359,21974,-2e-05,-5e-05,4e-05,5.9999999999999995e-05,-0.0009,-5e-05,-1e-05,-2.9999999999999997e-05,5
21360,21975,-2e-05,-5e-05,4e-05,5.9999999999999995e-05,-0.0009,-5e-05,-1e-05,-2.9999999999999997e-05,5
21361,21976,-2e-05,-5e-05,4e-05,5.9999999999999995e-05,-0.0009,-5e-05,-1e-05,-2.9999999999999997e-05,5
21362,21977,-2e-05,-5e-05,4e-05,5.9999999999999995e-05,-0.0009,-5e-05,-1e-05,-2.9999999999999997e-05,5
21363,21978,-2e-05,-5e-05,4e-05,5.9999999999999995e-05,-0.0009,-5e-05,-1e-05,-2.9999999999999997e-05,5
21364,21979,1e-05,-0.00021,-5.9999999999999995e-05,-0.00013000000000000002,-0.0008300000000000001,-0.00021,-1e-05,2e-05,5
21365,21980,1e-05,-0.00021,-5.9999999999999995e-05,-0.00013000000000000002,-0.0008300000000000001,-0.00021,-1e-05,2e-05,5
21366,21981,1e-05,-0.00021,-5.9999999999999995e-05,-0.00013000000000000002,-0.0008300000000000001,-0.00021,-1e-05,2e-05,5
21367,21982,1e-05,-0.00021,-5.9999999999999995e-05,-0.00013000000000000002,-0.0008300000000000001,-0.00021,-1e-05,2e-05,5
21368,21983,1e-05,-0.00021,-5.9999999999999995e-05,-0.00013000000000000002,-0.0008300000000000001,-0.00021,-1e-05,2e-05,5
21369,21984,1e-05,-0.00021,-5.9999999999999995e-05,-0.00013000000000000002,-0.0008300000000000001,-0.00021,-1e-05,2e-05,5
21370,21985,1e-05,-0.00021,-5.9999999999999995e-05,-0.00013000000000000002,-0.0008300000000000001,-0.00021,-1e-05,2e-05,5
21371,21986,1e-05,-0.00021,-5.9999999999999995e-05,-0.00013000000000000002,-0.0008300000000000001,-0.00021,-1e-05,2e-05,5
21372,21988,1e-05,-0.00021,-5.9999999999999995e-05,-0.00013000000000000002,-0.0008300000000000001,-0.00021,-1e-05,2e-05,5
21373,21989,1e-05,-0.00021,-5.9999999999999995e-05,-0.00013000000000000002,-0.0008300000000000001,-0.00021,-1e-05,2e-05,5
21374,21990,1e-05,-0.00021,-5.9999999999999995e-05,-0.00013000000000000002,-0.0008300000000000001,-0.00021,-1e-05,2e-05,5
21375,21991,1e-05,-0.00021,-5.9999999999999995e-05,-0.00013000000000000002,-0.0008300000000000001,-0.00021,-1e-05,2e-05,5
21376,21992,1e-05,-0.00021,-5.9999999999999995e-05,-0.00013000000000000002,-0.0008300000000000001,-0.00021,-1e-05,2e-05,5
21377,21993,1e-05,-0.00021,-5.9999999999999995e-05,-0.00013000000000000002,-0.0008300000000000001,-0.00021,-1e-05,2e-05,5
21378,21994,-2e-05,0.0,-9e-05,-0.00025,0.00016999999999999999,-1e-05,-1e-05,-1e-05,5
21379,21995,-2e-05,0.0,-9e-05,-0.00025,0.00016999999999999999,-1e-05,-1e-05,-1e-05,5
21380,21996,-1e-05,2.9999999999999997e-05,-7e-05,-2.9999999999999997e-05,-5.9999999999999995e-05,-5.9999999999999995e-05,-4e-05,-4e-05,5
21381,21997,-1e-05,2.9999999999999997e-05,-7e-05,-2.9999999999999997e-05,-5.9999999999999995e-05,-5.9999999999999995e-05,-4e-05,-4e-05,5
21382,21998,-1e-05,2.9999999999999997e-05,-7e-05,-2.9999999999999997e-05,-5.9999999999999995e-05,-5.9999999999999995e-05,-4e-05,-4e-05,5
21383,21999,-1e-05,2.9999999999999997e-05,-7e-05,-2.9999999999999997e-05,-5.9999999999999995e-05,-5.9999999999999995e-05,-4e-05,-4e-05,5
21384,22000,-1e-05,2.9999999999999997e-05,-7e-05,-2.9999999999999997e-05,-5.9999999999999995e-05,-5.9999999999999995e-05,-4e-05,-4e-05,5
21385,22001,-1e-05,2.9999999999999997e-05,-7e-05,-2.9999999999999997e-05,-5.9999999999999995e-05,-5.9999999999999995e-05,-4e-05,-4e-05,5
21386,22002,-1e-05,2.9999999999999997e-05,-7e-05,-2.9999999999999997e-05,-5.9999999999999995e-05,-5.9999999999999995e-05,-4e-05,-4e-05,5
21387,22003,-1e-05,2.9999999999999997e-05,-7e-05,-2.9999999999999997e-05,-5.9999999999999995e-05,-5.9999999999999995e-05,-4e-05,-4e-05,5
21388,22004,-1e-05,2.9999999999999997e-05,-7e-05,-2.9999999999999997e-05,-5.9999999999999995e-05,-5.9999999999999995e-05,-4e-05,-4e-05,5
21389,22005,-1e-05,2.9999999999999997e-05,-7e-05,-2.9999999999999997e-05,-5.9999999999999995e-05,-5.9999999999999995e-05,-4e-05,-4e-05,5
21390,22006,-1e-05,2.9999999999999997e-05,-7e-05,-2.9999999999999997e-05,-5.9999999999999995e-05,-5.9999999999999995e-05,-4e-05,-4e-05,5
21391,22007,-1e-05,2.9999999999999997e-05,-7e-05,-2.9999999999999997e-05,-5.9999999999999995e-05,-5.9999999999999995e-05,-4e-05,-4e-05,5
21392,22008,-1e-05,2.9999999999999997e-05,-7e-05,-2.9999999999999997e-05,-5.9999999999999995e-05,-5.9999999999999995e-05,-4e-05,-4e-05,5
21393,22009,-1e-05,2.9999999999999997e-05,-7e-05,-2.9999999999999997e-05,-5.9999999999999995e-05,-5.9999999999999995e-05,-4e-05,-4e-05,5
21394,22010,-1e-05,2.9999999999999997e-05,-7e-05,-2.9999999999999997e-05,-5.9999999999999995e-05,-5.9999999999999995e-05,-4e-05,-4e-05,5
21395,22011,-1e-05,2.9999999999999997e-05,-7e-05,-2.9999999999999997e-05,-5.9999999999999995e-05,-5.9999999999999995e-05,-4e-05,-4e-05,5
21396,22013,-1e-05,2.9999999999999997e-05,-7e-05,-2.9999999999999997e-05,-5.9999999999999995e-05,-5.9999999999999995e-05,-4e-05,-4e-05,5
21397,22014,-1e-05,2.9999999999999997e-05,-7e-05,-2.9999999999999997e-05,-5.9999999999999995e-05,-5.9999999999999995e-05,-4e-05,-4e-05,5
21398,22015,-1e-05,2.9999999999999997e-05,-7e-05,-2.9999999999999997e-05,-5.9999999999999995e-05,-5.9999999999999995e-05,-4e-05,-4e-05,5
21399,22016,-1e-05,2.9999999999999997e-05,-7e-05,-2.9999999999999997e-05,-5.9999999999999995e-05,-5.9999999999999995e-05,-4e-05,-4e-05,5
21400,22017,-1e-05,-5e-05,-9e-05,-0.00013000000000000002,-0.00011999999999999999,-5e-05,-2.9999999999999997e-05,-2e-05,5
21401,22018,1e-05,5e-05,5e-05,0.00015,-2e-05,-9e-05,-1e-05,-2e-05,5
21402,22019,1e-05,5e-05,5e-05,0.00015,-2e-05,-9e-05,-1e-05,-2e-05,5
21403,22020,1e-05,5e-05,5e-05,0.00015,-2e-05,-9e-05,-1e-05,-2e-05,5
21404,22021,1e-05,5e-05,5e-05,0.00015,-2e-05,-9e-05,-1e-05,-2e-05,5
21405,22022,1e-05,5e-05,5e-05,0.00015,-2e-05,-9e-05,-1e-05,-2e-05,5
21406,22023,1e-05,5e-05,5e-05,0.00015,-2e-05,-9e-05,-1e-05,-2e-05,5
21407,22024,1e-05,5e-05,5e-05,0.00015,-2e-05,-9e-05,-1e-05,-2e-05,5
21408,22025,1e-05,5e-05,5e-05,0.00015,-2e-05,-9e-05,-1e-05,-2e-05,5
21409,22026,1e-05,5e-05,5e-05,0.00015,-2e-05,-9e-05,-1e-05,-2e-05,5
21410,22027,1e-05,5e-05,5e-05,0.00015,-2e-05,-9e-05,-1e-05,-2e-05,5
21411,22028,1e-05,5e-05,5e-05,0.00015,-2e-05,-9e-05,-1e-05,-2e-05,5
21412,22029,1e-05,5e-05,5e-05,0.00015,-2e-05,-9e-05,-1e-05,-2e-05,5
21413,22030,-5e-05,-5e-05,-2.9999999999999997e-05,-0.00011,0.00011999999999999999,5e-05,-2.9999999999999997e-05,-5e-05,5
21414,22031,5e-05,8e-05,7e-05,9e-05,-0.00045999999999999996,5.9999999999999995e-05,2e-05,2.9999999999999997e-05,5
21415,22032,5e-05,8e-05,7e-05,9e-05,-0.00045999999999999996,5.9999999999999995e-05,2e-05,2.9999999999999997e-05,5
21416,22033,5e-05,8e-05,7e-05,9e-05,-0.00045999999999999996,5.9999999999999995e-05,2e-05,2.9999999999999997e-05,5
21417,22034,5e-05,8e-05,7e-05,9e-05,-0.00045999999999999996,5.9999999999999995e-05,2e-05,2.9999999999999997e-05,5
21418,22035,5e-05,8e-05,7e-05,9e-05,-0.00045999999999999996,5.9999999999999995e-05,2e-05,2.9999999999999997e-05,5
21419,22036,5e-05,8e-05,7e-05,9e-05,-0.00045999999999999996,5.9999999999999995e-05,2e-05,2.9999999999999997e-05,5
21420,22038,5e-05,8e-05,7e-05,9e-05,-0.00045999999999999996,5.9999999999999995e-05,2e-05,2.9999999999999997e-05,5
21421,22039,-5e-05,-0.00022999999999999998,-0.00016,0.0002,-2e-05,-8e-05,-4e-05,-4e-05,5
21422,22040,-5e-05,-0.00022999999999999998,-0.00016,0.0002,-2e-05,-8e-05,-4e-05,-4e-05,5
21423,22041,-5e-05,-0.00022999999999999998,-0.00016,0.0002,-2e-05,-8e-05,-4e-05,-4e-05,5
21424,22042,-5e-05,-0.00022999999999999998,-0.00016,0.0002,-2e-05,-8e-05,-4e-05,-4e-05,5
21425,22043,-5e-05,-0.00022999999999999998,-0.00016,0.0002,-2e-05,-8e-05,-4e-05,-4e-05,5
21426,22044,-5e-05,-0.00022999999999999998,-0.00016,0.0002,-2e-05,-8e-05,-4e-05,-4e-05,5
21427,22045,-5e-05,-0.00022999999999999998,-0.00016,0.0002,-2e-05,-8e-05,-4e-05,-4e-05,5
21428,22046,-5e-05,-0.00022999999999999998,-0.00016,0.0002,-2e-05,-8e-05,-4e-05,-4e-05,5
21429,22047,-5e-05,-0.00022999999999999998,-0.00016,0.0002,-2e-05,-8e-05,-4e-05,-4e-05,5
21430,22048,-5e-05,-0.00022999999999999998,-0.00016,0.0002,-2e-05,-8e-05,-4e-05,-4e-05,5
21431,22049,-5e-05,-0.00022999999999999998,-0.00016,0.0002,-2e-05,-8e-05,-4e-05,-4e-05,5
21432,22050,-5e-05,-0.00022999999999999998,-0.00016,0.0002,-2e-05,-8e-05,-4e-05,-4e-05,5
21433,22051,-5e-05,-0.00022999999999999998,-0.00016,0.0002,-2e-05,-8e-05,-4e-05,-4e-05,5
21434,22052,-5e-05,-0.00022999999999999998,-0.00016,0.0002,-2e-05,-8e-05,-4e-05,-4e-05,5
21435,22053,-5e-05,-0.00022999999999999998,-0.00016,0.0002,-2e-05,-8e-05,-4e-05,-4e-05,5
21436,22054,2e-05,0.00011999999999999999,0.00013000000000000002,0.00026000000000000003,0.00088,0.00011999999999999999,5e-05,2e-05,5
21437,22055,1e-05,0.00016999999999999999,0.0002,0.00031,1e-05,0.00021,0.00015,5e-05,5
21438,22056,1e-05,0.00016999999999999999,0.0002,0.00031,1e-05,0.00021,0.00015,5e-05,5
21439,22057,1e-05,0.00016999999999999999,0.0002,0.00031,1e-05,0.00021,0.00015,5e-05,5
21440,22058,1e-05,0.00016999999999999999,0.0002,0.00031,1e-05,0.00021,0.00015,5e-05,5
21441,22059,1e-05,0.00016999999999999999,0.0002,0.00031,1e-05,0.00021,0.00015,5e-05,5
21442,22060,1e-05,0.00016999999999999999,0.0002,0.00031,1e-05,0.00021,0.00015,5e-05,5
21443,22061,1e-05,0.00016999999999999999,0.0002,0.00031,1e-05,0.00021,0.00015,5e-05,5
21444,22062,1e-05,0.00016999999999999999,0.0002,0.00031,1e-05,0.00021,0.00015,5e-05,5
21445,22063,1e-05,0.00016999999999999999,0.0002,0.00031,1e-05,0.00021,0.00015,5e-05,5
21446,22064,1e-05,0.00016999999999999999,0.0002,0.00031,1e-05,0.00021,0.00015,5e-05,5
21447,22065,1e-05,0.00016999999999999999,0.0002,0.00031,1e-05,0.00021,0.00015,5e-05,5
21448,22066,1e-05,0.00016999999999999999,0.0002,0.00031,1e-05,0.00021,0.00015,5e-05,5
21449,22067,1e-05,0.00016999999999999999,0.0002,0.00031,1e-05,0.00021,0.00015,5e-05,5
21450,22068,1e-05,0.00016999999999999999,0.0002,0.00031,1e-05,0.00021,0.00015,5e-05,5
21451,22069,1e-05,0.00016999999999999999,0.0002,0.00031,1e-05,0.00021,0.00015,5e-05,5
21452,22070,1e-05,0.00016999999999999999,0.0002,0.00031,1e-05,0.00021,0.00015,5e-05,5
21453,22071,1e-05,0.00016999999999999999,0.0002,0.00031,1e-05,0.00021,0.00015,5e-05,5
21454,22072,1e-05,0.00016999999999999999,0.0002,0.00031,1e-05,0.00021,0.00015,5e-05,5
21455,22073,1e-05,0.00016999999999999999,0.0002,0.00031,1e-05,0.00021,0.00015,5e-05,5
21456,22074,1e-05,0.00016999999999999999,0.0002,0.00031,1e-05,0.00021,0.00015,5e-05,5
21457,22075,1e-05,0.00016999999999999999,0.0002,0.00031,1e-05,0.00021,0.00015,5e-05,5
21458,22076,1e-05,0.00016999999999999999,0.0002,0.00031,1e-05,0.00021,0.00015,5e-05,5
21459,22077,-2.9999999999999997e-05,-5e-05,-8e-05,-8e-05,0.00044,5.9999999999999995e-05,-1e-05,-1e-05,5
21460,22078,-5e-05,7e-05,-0.00011,-0.00045,0.00057,5e-05,2e-05,-2.9999999999999997e-05,5
21461,22079,-5e-05,7e-05,-0.00011,-0.00045,0.00057,5e-05,2e-05,-2.9999999999999997e-05,5
21462,22080,-5e-05,7e-05,-0.00011,-0.00045,0.00057,5e-05,2e-05,-2.9999999999999997e-05,5
21463,22081,-5e-05,7e-05,-0.00011,-0.00045,0.00057,5e-05,2e-05,-2.9999999999999997e-05,5
21464,22082,-5e-05,7e-05,-0.00011,-0.00045,0.00057,5e-05,2e-05,-2.9999999999999997e-05,5
21465,22083,-5e-05,7e-05,-0.00011,-0.00045,0.00057,5e-05,2e-05,-2.9999999999999997e-05,5
21466,22084,-5e-05,7e-05,-0.00011,-0.00045,0.00057,5e-05,2e-05,-2.9999999999999997e-05,5
21467,22085,-5e-05,7e-05,-0.00011,-0.00045,0.00057,5e-05,2e-05,-2.9999999999999997e-05,5
21468,22086,-5e-05,7e-05,-0.00011,-0.00045,0.00057,5e-05,2e-05,-2.9999999999999997e-05,5
21469,22088,-5e-05,7e-05,-0.00011,-0.00045,0.00057,5e-05,2e-05,-2.9999999999999997e-05,5
21470,22089,-5e-05,7e-05,-0.00011,-0.00045,0.00057,5e-05,2e-05,-2.9999999999999997e-05,5
21471,22090,-5e-05,7e-05,-0.00011,-0.00045,0.00057,5e-05,2e-05,-2.9999999999999997e-05,5
21472,22091,-4e-05,-8e-05,-0.00014,-0.00033,0.00014,-0.00015,-2e-05,-1e-05,5
21473,22092,-4e-05,-8e-05,-0.00014,-0.00033,0.00014,-0.00015,-2e-05,-1e-05,5
21474,22093,-4e-05,-8e-05,-0.00014,-0.00033,0.00014,-0.00015,-2e-05,-1e-05,5
21475,22094,-4e-05,-8e-05,-0.00014,-0.00033,0.00014,-0.00015,-2e-05,-1e-05,5
21476,22095,-4e-05,-8e-05,-0.00014,-0.00033,0.00014,-0.00015,-2e-05,-1e-05,5
21477,22096,-4e-05,-8e-05,-0.00014,-0.00033,0.00014,-0.00015,-2e-05,-1e-05,5
21478,22097,-4e-05,-8e-05,-0.00014,-0.00033,0.00014,-0.00015,-2e-05,-1e-05,5
21479,22098,-4e-05,-8e-05,-0.00014,-0.00033,0.00014,-0.00015,-2e-05,-1e-05,5
21480,22099,-1e-05,-4e-05,-0.00011,-0.00027,-0.00053,-8e-05,-5.9999999999999995e-05,-2e-05,5
21481,22100,-1e-05,-4e-05,-0.00011,-0.00027,-0.00053,-8e-05,-5.9999999999999995e-05,-2e-05,5
21482,22101,-1e-05,-4e-05,-0.00011,-0.00027,-0.00053,-8e-05,-5.9999999999999995e-05,-2e-05,5
21483,22102,-1e-05,-4e-05,-0.00011,-0.00027,-0.00053,-8e-05,-5.9999999999999995e-05,-2e-05,5
21484,22103,-1e-05,-4e-05,-0.00011,-0.00027,-0.00053,-8e-05,-5.9999999999999995e-05,-2e-05,5
21485,22104,-1e-05,-4e-05,-0.00011,-0.00027,-0.00053,-8e-05,-5.9999999999999995e-05,-2e-05,5
21486,22105,-1e-05,-4e-05,-0.00011,-0.00027,-0.00053,-8e-05,-5.9999999999999995e-05,-2e-05,5
21487,22106,-1e-05,-4e-05,-0.00011,-0.00027,-0.00053,-8e-05,-5.9999999999999995e-05,-2e-05,5
21488,22107,-1e-05,-4e-05,-0.00011,-0.00027,-0.00053,-8e-05,-5.9999999999999995e-05,-2e-05,5
21489,22108,-1e-05,-4e-05,-0.00011,-0.00027,-0.00053,-8e-05,-5.9999999999999995e-05,-2e-05,5
21490,22109,-1e-05,-4e-05,-0.00011,-0.00027,-0.00053,-8e-05,-5.9999999999999995e-05,-2e-05,5
21491,22110,-1e-05,-4e-05,-0.00011,-0.00027,-0.00053,-8e-05,-5.9999999999999995e-05,-2e-05,5
21492,22111,-1e-05,-4e-05,-0.00011,-0.00027,-0.00053,-8e-05,-5.9999999999999995e-05,-2e-05,5
21493,22112,-1e-05,-4e-05,-0.00011,-0.00027,-0.00053,-8e-05,-5.9999999999999995e-05,-2e-05,5
21494,22113,-1e-05,-4e-05,-0.00011,-0.00027,-0.00053,-8e-05,-5.9999999999999995e-05,-2e-05,5
21495,22114,2.9999999999999997e-05,7e-05,-2e-05,-0.00037,-0.0001,9e-05,1e-05,0.0,5
21496,22115,0.0,-2e-05,-0.00011999999999999999,4e-05,-0.0002,-7e-05,-4e-05,1e-05,5
21497,22116,0.0,-2e-05,-0.00011999999999999999,4e-05,-0.0002,-7e-05,-4e-05,1e-05,5
21498,22117,0.0,-2e-05,-0.00011999999999999999,4e-05,-0.0002,-7e-05,-4e-05,1e-05,5
21499,22118,0.0,-2e-05,-0.00011999999999999999,4e-05,-0.0002,-7e-05,-4e-05,1e-05,5
21500,22119,0.0,-2e-05,-0.00011999999999999999,4e-05,-0.0002,-7e-05,-4e-05,1e-05,5
21501,22120,0.0,-2e-05,-0.00011999999999999999,4e-05,-0.0002,-7e-05,-4e-05,1e-05,5
21502,22121,0.0,-2e-05,-0.00011999999999999999,4e-05,-0.0002,-7e-05,-4e-05,1e-05,5
21503,22122,0.0,-2e-05,-0.00011999999999999999,4e-05,-0.0002,-7e-05,-4e-05,1e-05,5
21504,22123,0.0,-2e-05,-0.00011999999999999999,4e-05,-0.0002,-7e-05,-4e-05,1e-05,5
21505,22124,0.0,-2e-05,-0.00011999999999999999,4e-05,-0.0002,-7e-05,-4e-05,1e-05,5
21506,22125,0.0,-2e-05,-0.00011999999999999999,4e-05,-0.0002,-7e-05,-4e-05,1e-05,5
21507,22126,0.0,-2e-05,-0.00011999999999999999,4e-05,-0.0002,-7e-05,-4e-05,1e-05,5
21508,22127,0.0,-2e-05,-0.00011999999999999999,4e-05,-0.0002,-7e-05,-4e-05,1e-05,5
21509,22128,0.0,-2e-05,-0.00011999999999999999,4e-05,-0.0002,-7e-05,-4e-05,1e-05,5
21510,22129,0.0,-2e-05,-0.00011999999999999999,4e-05,-0.0002,-7e-05,-4e-05,1e-05,5
21511,22130,0.0,-2e-05,-0.00011999999999999999,4e-05,-0.0002,-7e-05,-4e-05,1e-05,5
21512,22131,0.0,-2e-05,-0.00011999999999999999,4e-05,-0.0002,-7e-05,-4e-05,1e-05,5
21513,22132,0.0,-2e-05,-0.00011999999999999999,4e-05,-0.0002,-7e-05,-4e-05,1e-05,5
21514,22133,0.0,-2e-05,-0.00011999999999999999,4e-05,-0.0002,-7e-05,-4e-05,1e-05,5
21515,22134,0.0,-2e-05,-0.00011999999999999999,4e-05,-0.0002,-7e-05,-4e-05,1e-05,5
21516,22135,0.0,-2e-05,-0.00011999999999999999,4e-05,-0.0002,-7e-05,-4e-05,1e-05,5
21517,22136,0.0,-2e-05,-0.00011999999999999999,4e-05,-0.0002,-7e-05,-4e-05,1e-05,5
21518,22138,-1e-05,1e-05,5e-05,-2.9999999999999997e-05,-0.00041,4e-05,-1e-05,-1e-05,5
21519,22139,-1e-05,1e-05,5e-05,-2.9999999999999997e-05,-0.00041,4e-05,-1e-05,-1e-05,5
21520,22140,-1e-05,1e-05,5e-05,-2.9999999999999997e-05,-0.00041,4e-05,-1e-05,-1e-05,5
21521,22141,-1e-05,1e-05,5e-05,-2.9999999999999997e-05,-0.00041,4e-05,-1e-05,-1e-05,5
21522,22142,-1e-05,1e-05,5e-05,-2.9999999999999997e-05,-0.00041,4e-05,-1e-05,-1e-05,5
21523,22143,-1e-05,1e-05,5e-05,-2.9999999999999997e-05,-0.00041,4e-05,-1e-05,-1e-05,5
21524,22144,-1e-05,1e-05,5e-05,-2.9999999999999997e-05,-0.00041,4e-05,-1e-05,-1e-05,5
21525,22145,-1e-05,1e-05,5e-05,-2.9999999999999997e-05,-0.00041,4e-05,-1e-05,-1e-05,5
21526,22146,-1e-05,1e-05,5e-05,-2.9999999999999997e-05,-0.00041,4e-05,-1e-05,-1e-05,5
21527,22147,-1e-05,1e-05,5e-05,-2.9999999999999997e-05,-0.00041,4e-05,-1e-05,-1e-05,5
21528,22148,-1e-05,1e-05,5e-05,-2.9999999999999997e-05,-0.00041,4e-05,-1e-05,-1e-05,5
21529,22149,-1e-05,1e-05,5e-05,-2.9999999999999997e-05,-0.00041,4e-05,-1e-05,-1e-05,5
21530,22150,-1e-05,1e-05,5e-05,-2.9999999999999997e-05,-0.00041,4e-05,-1e-05,-1e-05,5
21531,22151,-4e-05,-5e-05,-5.9999999999999995e-05,-0.00044,-5e-05,-0.0001,-2.9999999999999997e-05,-2.9999999999999997e-05,5
21532,22152,-4e-05,-5e-05,-5.9999999999999995e-05,-0.00044,-5e-05,-0.0001,-2.9999999999999997e-05,-2.9999999999999997e-05,5
21533,22153,-4e-05,-5e-05,-5.9999999999999995e-05,-0.00044,-5e-05,-0.0001,-2.9999999999999997e-05,-2.9999999999999997e-05,5
21534,22154,-4e-05,-5e-05,-5.9999999999999995e-05,-0.00044,-5e-05,-0.0001,-2.9999999999999997e-05,-2.9999999999999997e-05,5
21535,22155,-4e-05,-5e-05,-5.9999999999999995e-05,-0.00044,-5e-05,-0.0001,-2.9999999999999997e-05,-2.9999999999999997e-05,5
21536,22156,-4e-05,-5e-05,-5.9999999999999995e-05,-0.00044,-5e-05,-0.0001,-2.9999999999999997e-05,-2.9999999999999997e-05,5
21537,22157,-4e-05,-5e-05,-5.9999999999999995e-05,-0.00044,-5e-05,-0.0001,-2.9999999999999997e-05,-2.9999999999999997e-05,5
21538,22158,-4e-05,-5e-05,-5.9999999999999995e-05,-0.00044,-5e-05,-0.0001,-2.9999999999999997e-05,-2.9999999999999997e-05,5
21539,22159,4e-05,0.00011999999999999999,0.00011999999999999999,0.00011999999999999999,0.00016,2e-05,-2.9999999999999997e-05,1e-05,5
21540,22160,4e-05,0.00011999999999999999,0.00011999999999999999,0.00011999999999999999,0.00016,2e-05,-2.9999999999999997e-05,1e-05,5
21541,22161,4e-05,0.00011999999999999999,0.00011999999999999999,0.00011999999999999999,0.00016,2e-05,-2.9999999999999997e-05,1e-05,5
21542,22162,4e-05,0.00011999999999999999,0.00011999999999999999,0.00011999999999999999,0.00016,2e-05,-2.9999999999999997e-05,1e-05,5
21543,22163,4e-05,0.00011999999999999999,0.00011999999999999999,0.00011999999999999999,0.00016,2e-05,-2.9999999999999997e-05,1e-05,5
21544,22164,4e-05,0.00011999999999999999,0.00011999999999999999,0.00011999999999999999,0.00016,2e-05,-2.9999999999999997e-05,1e-05,5
21545,22165,4e-05,0.00011999999999999999,0.00011999999999999999,0.00011999999999999999,0.00016,2e-05,-2.9999999999999997e-05,1e-05,5
21546,22166,4e-05,0.00011999999999999999,0.00011999999999999999,0.00011999999999999999,0.00016,2e-05,-2.9999999999999997e-05,1e-05,5
21547,22167,4e-05,0.00011999999999999999,0.00011999999999999999,0.00011999999999999999,0.00016,2e-05,-2.9999999999999997e-05,1e-05,5
21548,22168,4e-05,0.00011999999999999999,0.00011999999999999999,0.00011999999999999999,0.00016,2e-05,-2.9999999999999997e-05,1e-05,5
21549,22169,4e-05,0.00011999999999999999,0.00011999999999999999,0.00011999999999999999,0.00016,2e-05,-2.9999999999999997e-05,1e-05,5
21550,22170,4e-05,0.00011999999999999999,0.00011999999999999999,0.00011999999999999999,0.00016,2e-05,-2.9999999999999997e-05,1e-05,5
21551,22171,4e-05,0.00011999999999999999,0.00011999999999999999,0.00011999999999999999,0.00016,2e-05,-2.9999999999999997e-05,1e-05,5
21552,22172,4e-05,0.00011999999999999999,0.00011999999999999999,0.00011999999999999999,0.00016,2e-05,-2.9999999999999997e-05,1e-05,5
21553,22173,4e-05,0.00011999999999999999,0.00011999999999999999,0.00011999999999999999,0.00016,2e-05,-2.9999999999999997e-05,1e-05,5
21554,22174,-2.9999999999999997e-05,-1e-05,-5e-05,-9e-05,2.9999999999999997e-05,-9e-05,-5e-05,-5.9999999999999995e-05,5
21555,22175,0.0,9e-05,5.9999999999999995e-05,-2e-05,-0.00022,8e-05,5e-05,1e-05,5
21556,22176,0.0,9e-05,5.9999999999999995e-05,-2e-05,-0.00022,8e-05,5e-05,1e-05,5
21557,22177,0.0,9e-05,5.9999999999999995e-05,-2e-05,-0.00022,8e-05,5e-05,1e-05,5
21558,22178,0.0,9e-05,5.9999999999999995e-05,-2e-05,-0.00022,8e-05,5e-05,1e-05,5
21559,22179,0.0,9e-05,5.9999999999999995e-05,-2e-05,-0.00022,8e-05,5e-05,1e-05,5
21560,22180,0.0,9e-05,5.9999999999999995e-05,-2e-05,-0.00022,8e-05,5e-05,1e-05,5
21561,22181,0.0,9e-05,5.9999999999999995e-05,-2e-05,-0.00022,8e-05,5e-05,1e-05,5
21562,22182,0.0,9e-05,5.9999999999999995e-05,-2e-05,-0.00022,8e-05,5e-05,1e-05,5
21563,22183,0.0,9e-05,5.9999999999999995e-05,-2e-05,-0.00022,8e-05,5e-05,1e-05,5
21564,22184,0.0,9e-05,5.9999999999999995e-05,-2e-05,-0.00022,8e-05,5e-05,1e-05,5
21565,22185,0.0,9e-05,5.9999999999999995e-05,-2e-05,-0.00022,8e-05,5e-05,1e-05,5
21566,22186,0.0,9e-05,5.9999999999999995e-05,-2e-05,-0.00022,8e-05,5e-05,1e-05,5
21567,22188,0.0,9e-05,5.9999999999999995e-05,-2e-05,-0.00022,8e-05,5e-05,1e-05,5
21568,22189,0.0,9e-05,5.9999999999999995e-05,-2e-05,-0.00022,8e-05,5e-05,1e-05,5
21569,22190,0.0,9e-05,5.9999999999999995e-05,-2e-05,-0.00022,8e-05,5e-05,1e-05,5
21570,22191,0.0,9e-05,5.9999999999999995e-05,-2e-05,-0.00022,8e-05,5e-05,1e-05,5
21571,22192,0.0,9e-05,5.9999999999999995e-05,-2e-05,-0.00022,8e-05,5e-05,1e-05,5
21572,22193,0.0,9e-05,5.9999999999999995e-05,-2e-05,-0.00022,8e-05,5e-05,1e-05,5
21573,22194,0.0,9e-05,5.9999999999999995e-05,-2e-05,-0.00022,8e-05,5e-05,1e-05,5
21574,22195,0.0,9e-05,5.9999999999999995e-05,-2e-05,-0.00022,8e-05,5e-05,1e-05,5
21575,22196,0.0,9e-05,5.9999999999999995e-05,-2e-05,-0.00022,8e-05,5e-05,1e-05,5
21576,22197,-5e-05,2e-05,5e-05,-2e-05,-0.0005099999999999999,-5e-05,-2.9999999999999997e-05,-2e-05,5
21577,22198,-5e-05,-0.0001,-2e-05,0.00018,0.00037999999999999997,0.0,-2.9999999999999997e-05,0.0,5
21578,22199,-5e-05,-0.0001,-2e-05,0.00018,0.00037999999999999997,0.0,-2.9999999999999997e-05,0.0,5
21579,22200,-5e-05,-0.0001,-2e-05,0.00018,0.00037999999999999997,0.0,-2.9999999999999997e-05,0.0,5
21580,22201,-5e-05,-0.0001,-2e-05,0.00018,0.00037999999999999997,0.0,-2.9999999999999997e-05,0.0,5
21581,22202,-5e-05,-0.0001,-2e-05,0.00018,0.00037999999999999997,0.0,-2.9999999999999997e-05,0.0,5
21582,22203,-5e-05,-0.0001,-2e-05,0.00018,0.00037999999999999997,0.0,-2.9999999999999997e-05,0.0,5
21583,22204,-5e-05,-0.0001,-2e-05,0.00018,0.00037999999999999997,0.0,-2.9999999999999997e-05,0.0,5
21584,22205,-5e-05,-0.0001,-2e-05,0.00018,0.00037999999999999997,0.0,-2.9999999999999997e-05,0.0,5
21585,22206,-5e-05,-0.0001,-2e-05,0.00018,0.00037999999999999997,0.0,-2.9999999999999997e-05,0.0,5
21586,22207,-5e-05,-0.0001,-2e-05,0.00018,0.00037999999999999997,0.0,-2.9999999999999997e-05,0.0,5
21587,22208,-5e-05,-0.0001,-2e-05,0.00018,0.00037999999999999997,0.0,-2.9999999999999997e-05,0.0,5
21588,22209,-5e-05,-0.0001,-2e-05,0.00018,0.00037999999999999997,0.0,-2.9999999999999997e-05,0.0,5
21589,22210,-1e-05,2.9999999999999997e-05,-4e-05,-0.00057,-0.0006900000000000001,-2.9999999999999997e-05,1e-05,-1e-05,5
21590,22211,-1e-05,2e-05,0.00018,0.00072,-4e-05,0.00011999999999999999,1e-05,0.0,5
21591,22212,-1e-05,2e-05,0.00018,0.00072,-4e-05,0.00011999999999999999,1e-05,0.0,5
21592,22213,-1e-05,2e-05,0.00018,0.00072,-4e-05,0.00011999999999999999,1e-05,0.0,5
21593,22214,-1e-05,2e-05,0.00018,0.00072,-4e-05,0.00011999999999999999,1e-05,0.0,5
21594,22215,-1e-05,2e-05,0.00018,0.00072,-4e-05,0.00011999999999999999,1e-05,0.0,5
21595,22216,-1e-05,2e-05,0.00018,0.00072,-4e-05,0.00011999999999999999,1e-05,0.0,5
21596,22217,-1e-05,2e-05,0.00018,0.00072,-4e-05,0.00011999999999999999,1e-05,0.0,5
21597,22218,-1e-05,2e-05,0.00018,0.00072,-4e-05,0.00011999999999999999,1e-05,0.0,5
21598,22219,-2e-05,-0.00014,-1e-05,-0.00026000000000000003,0.00022999999999999998,0.0,-1e-05,-1e-05,5
21599,22220,-2e-05,-0.00014,-1e-05,-0.00026000000000000003,0.00022999999999999998,0.0,-1e-05,-1e-05,5
21600,22221,-2e-05,-0.00014,-1e-05,-0.00026000000000000003,0.00022999999999999998,0.0,-1e-05,-1e-05,5
21601,22222,-2e-05,-0.00014,-1e-05,-0.00026000000000000003,0.00022999999999999998,0.0,-1e-05,-1e-05,5
21602,22223,-2e-05,-0.00014,-1e-05,-0.00026000000000000003,0.00022999999999999998,0.0,-1e-05,-1e-05,5
21603,22224,-2e-05,-0.00014,-1e-05,-0.00026000000000000003,0.00022999999999999998,0.0,-1e-05,-1e-05,5
21604,22225,-2e-05,-0.00014,-1e-05,-0.00026000000000000003,0.00022999999999999998,0.0,-1e-05,-1e-05,5
21605,22226,-2e-05,-0.00014,-1e-05,-0.00026000000000000003,0.00022999999999999998,0.0,-1e-05,-1e-05,5
21606,22227,-2e-05,-0.00014,-1e-05,-0.00026000000000000003,0.00022999999999999998,0.0,-1e-05,-1e-05,5
21607,22228,-2e-05,-0.00014,-1e-05,-0.00026000000000000003,0.00022999999999999998,0.0,-1e-05,-1e-05,5
21608,22229,-2e-05,-0.00014,-1e-05,-0.00026000000000000003,0.00022999999999999998,0.0,-1e-05,-1e-05,5
21609,22230,-2e-05,-0.00014,-1e-05,-0.00026000000000000003,0.00022999999999999998,0.0,-1e-05,-1e-05,5
21610,22231,-2e-05,-0.00014,-1e-05,-0.00026000000000000003,0.00022999999999999998,0.0,-1e-05,-1e-05,5
21611,22232,-2e-05,-0.00014,-1e-05,-0.00026000000000000003,0.00022999999999999998,0.0,-1e-05,-1e-05,5
21612,22233,-2e-05,-0.00014,-1e-05,-0.00026000000000000003,0.00022999999999999998,0.0,-1e-05,-1e-05,5
21613,22234,-1e-05,-2.9999999999999997e-05,-0.0001,-0.0004,-0.00066,-0.00016,-5e-05,-2e-05,5
21614,22235,1e-05,-1e-05,-2.9999999999999997e-05,-0.00014,-0.00023999999999999998,4e-05,4e-05,1e-05,5
21615,22236,1e-05,-1e-05,-2.9999999999999997e-05,-0.00014,-0.00023999999999999998,4e-05,4e-05,1e-05,5
21616,22238,1e-05,-1e-05,-2.9999999999999997e-05,-0.00014,-0.00023999999999999998,4e-05,4e-05,1e-05,5
21617,22239,1e-05,-1e-05,-2.9999999999999997e-05,-0.00014,-0.00023999999999999998,4e-05,4e-05,1e-05,5
21618,22240,1e-05,-1e-05,-2.9999999999999997e-05,-0.00014,-0.00023999999999999998,4e-05,4e-05,1e-05,5
21619,22241,1e-05,-1e-05,-2.9999999999999997e-05,-0.00014,-0.00023999999999999998,4e-05,4e-05,1e-05,5
21620,22242,1e-05,-1e-05,-2.9999999999999997e-05,-0.00014,-0.00023999999999999998,4e-05,4e-05,1e-05,5
21621,22243,1e-05,-1e-05,-2.9999999999999997e-05,-0.00014,-0.00023999999999999998,4e-05,4e-05,1e-05,5
21622,22244,1e-05,-1e-05,-2.9999999999999997e-05,-0.00014,-0.00023999999999999998,4e-05,4e-05,1e-05,5
21623,22245,1e-05,-1e-05,-2.9999999999999997e-05,-0.00014,-0.00023999999999999998,4e-05,4e-05,1e-05,5
21624,22246,1e-05,-1e-05,-2.9999999999999997e-05,-0.00014,-0.00023999999999999998,4e-05,4e-05,1e-05,5
21625,22247,1e-05,-1e-05,-2.9999999999999997e-05,-0.00014,-0.00023999999999999998,4e-05,4e-05,1e-05,5
21626,22248,1e-05,-1e-05,-2.9999999999999997e-05,-0.00014,-0.00023999999999999998,4e-05,4e-05,1e-05,5
21627,22249,1e-05,-1e-05,-2.9999999999999997e-05,-0.00014,-0.00023999999999999998,4e-05,4e-05,1e-05,5
21628,22250,1e-05,-1e-05,-2.9999999999999997e-05,-0.00014,-0.00023999999999999998,4e-05,4e-05,1e-05,5
21629,22251,1e-05,-1e-05,-2.9999999999999997e-05,-0.00014,-0.00023999999999999998,4e-05,4e-05,1e-05,5
21630,22252,1e-05,-1e-05,-2.9999999999999997e-05,-0.00014,-0.00023999999999999998,4e-05,4e-05,1e-05,5
21631,22253,1e-05,-1e-05,-2.9999999999999997e-05,-0.00014,-0.00023999999999999998,4e-05,4e-05,1e-05,5
21632,22254,1e-05,-1e-05,-2.9999999999999997e-05,-0.00014,-0.00023999999999999998,4e-05,4e-05,1e-05,5
21633,22255,1e-05,-1e-05,-2.9999999999999997e-05,-0.00014,-0.00023999999999999998,4e-05,4e-05,1e-05,5
21634,22256,1e-05,-1e-05,-2.9999999999999997e-05,-0.00014,-0.00023999999999999998,4e-05,4e-05,1e-05,5
21635,22257,-1e-05,-7e-05,-9e-05,-7e-05,0.0004,-9e-05,-4e-05,-1e-05,5
21636,22258,-2e-05,1e-05,1e-05,-4e-05,0.00016,0.0,-1e-05,-2e-05,5
21637,22259,-2e-05,1e-05,1e-05,-4e-05,0.00016,0.0,-1e-05,-2e-05,5
21638,22260,-2e-05,1e-05,1e-05,-4e-05,0.00016,0.0,-1e-05,-2e-05,5
21639,22261,-2e-05,1e-05,1e-05,-4e-05,0.00016,0.0,-1e-05,-2e-05,5
21640,22262,-2e-05,1e-05,1e-05,-4e-05,0.00016,0.0,-1e-05,-2e-05,5
21641,22263,-2e-05,1e-05,1e-05,-4e-05,0.00016,0.0,-1e-05,-2e-05,5
21642,22264,-2e-05,1e-05,1e-05,-4e-05,0.00016,0.0,-1e-05,-2e-05,5
21643,22265,-2e-05,1e-05,1e-05,-4e-05,0.00016,0.0,-1e-05,-2e-05,5
21644,22266,-2e-05,1e-05,1e-05,-4e-05,0.00016,0.0,-1e-05,-2e-05,5
21645,22267,-2e-05,1e-05,1e-05,-4e-05,0.00016,0.0,-1e-05,-2e-05,5
21646,22268,-2e-05,1e-05,1e-05,-4e-05,0.00016,0.0,-1e-05,-2e-05,5
21647,22269,-2e-05,1e-05,1e-05,-4e-05,0.00016,0.0,-1e-05,-2e-05,5
21648,22270,-2e-05,1e-05,1e-05,-4e-05,0.00016,0.0,-1e-05,-2e-05,5
21649,22271,-2e-05,1e-05,1e-05,-4e-05,0.00016,0.0,-1e-05,-2e-05,5
21650,22272,-2e-05,1e-05,1e-05,-4e-05,0.00016,0.0,-1e-05,-2e-05,5
21651,22273,-2e-05,1e-05,1e-05,-4e-05,0.00016,0.0,-1e-05,-2e-05,5
21652,22274,-2e-05,1e-05,1e-05,-4e-05,0.00016,0.0,-1e-05,-2e-05,5
21653,22275,-2e-05,1e-05,1e-05,-4e-05,0.00016,0.0,-1e-05,-2e-05,5
21654,22276,-2e-05,1e-05,1e-05,-4e-05,0.00016,0.0,-1e-05,-2e-05,5
21655,22277,-2e-05,1e-05,1e-05,-4e-05,0.00016,0.0,-1e-05,-2e-05,5
21656,22278,-2e-05,1e-05,1e-05,-4e-05,0.00016,0.0,-1e-05,-2e-05,5
21657,22279,1e-05,5e-05,7e-05,0.00011999999999999999,0.00022999999999999998,1e-05,1e-05,2e-05,5
21658,22280,-4e-05,5e-05,5.9999999999999995e-05,-2.9999999999999997e-05,0.00011,-5.9999999999999995e-05,-5.9999999999999995e-05,-5.9999999999999995e-05,5
21659,22281,-4e-05,5e-05,5.9999999999999995e-05,-2.9999999999999997e-05,0.00011,-5.9999999999999995e-05,-5.9999999999999995e-05,-5.9999999999999995e-05,5
21660,22282,-4e-05,5e-05,5.9999999999999995e-05,-2.9999999999999997e-05,0.00011,-5.9999999999999995e-05,-5.9999999999999995e-05,-5.9999999999999995e-05,5
21661,22283,-4e-05,5e-05,5.9999999999999995e-05,-2.9999999999999997e-05,0.00011,-5.9999999999999995e-05,-5.9999999999999995e-05,-5.9999999999999995e-05,5
21662,22284,-4e-05,5e-05,5.9999999999999995e-05,-2.9999999999999997e-05,0.00011,-5.9999999999999995e-05,-5.9999999999999995e-05,-5.9999999999999995e-05,5
21663,22285,-4e-05,5e-05,5.9999999999999995e-05,-2.9999999999999997e-05,0.00011,-5.9999999999999995e-05,-5.9999999999999995e-05,-5.9999999999999995e-05,5
21664,22286,-4e-05,5e-05,5.9999999999999995e-05,-2.9999999999999997e-05,0.00011,-5.9999999999999995e-05,-5.9999999999999995e-05,-5.9999999999999995e-05,5
21665,22288,-4e-05,5e-05,5.9999999999999995e-05,-2.9999999999999997e-05,0.00011,-5.9999999999999995e-05,-5.9999999999999995e-05,-5.9999999999999995e-05,5
21666,22289,-4e-05,5e-05,5.9999999999999995e-05,-2.9999999999999997e-05,0.00011,-5.9999999999999995e-05,-5.9999999999999995e-05,-5.9999999999999995e-05,5
21667,22290,-4e-05,5e-05,5.9999999999999995e-05,-2.9999999999999997e-05,0.00011,-5.9999999999999995e-05,-5.9999999999999995e-05,-5.9999999999999995e-05,5
21668,22291,-4e-05,5e-05,5.9999999999999995e-05,-2.9999999999999997e-05,0.00011,-5.9999999999999995e-05,-5.9999999999999995e-05,-5.9999999999999995e-05,5
21669,22292,-4e-05,5e-05,5.9999999999999995e-05,-2.9999999999999997e-05,0.00011,-5.9999999999999995e-05,-5.9999999999999995e-05,-5.9999999999999995e-05,5
21670,22293,4e-05,0.00011,7e-05,-0.00011,0.00039,8e-05,5e-05,0.0,5
21671,22294,4e-05,0.00011,7e-05,-0.00011,0.00039,8e-05,5e-05,0.0,5
21672,22295,4e-05,0.00011,7e-05,-0.00011,0.00039,8e-05,5e-05,0.0,5
21673,22296,4e-05,0.00011,7e-05,-0.00011,0.00039,8e-05,5e-05,0.0,5
21674,22297,4e-05,0.00011,7e-05,-0.00011,0.00039,8e-05,5e-05,0.0,5
21675,22298,4e-05,0.00011,7e-05,-0.00011,0.00039,8e-05,5e-05,0.0,5
21676,22299,4e-05,0.00011,7e-05,-0.00011,0.00039,8e-05,5e-05,0.0,5
21677,22300,4e-05,0.00011,7e-05,-0.00011,0.00039,8e-05,5e-05,0.0,5
21678,22301,4e-05,0.00011,7e-05,-0.00011,0.00039,8e-05,5e-05,0.0,5
21679,22302,0.0,2e-05,-4e-05,-0.00035,-0.0006799999999999999,-0.00011,-5e-05,1e-05,5
21680,22303,0.0,2e-05,-4e-05,-0.00035,-0.0006799999999999999,-0.00011,-5e-05,1e-05,5
21681,22304,0.0,2e-05,-4e-05,-0.00035,-0.0006799999999999999,-0.00011,-5e-05,1e-05,5
21682,22305,0.0,2e-05,-4e-05,-0.00035,-0.0006799999999999999,-0.00011,-5e-05,1e-05,5
21683,22306,0.0,2e-05,-4e-05,-0.00035,-0.0006799999999999999,-0.00011,-5e-05,1e-05,5
21684,22307,0.0,2e-05,-4e-05,-0.00035,-0.0006799999999999999,-0.00011,-5e-05,1e-05,5
21685,22308,0.0,2e-05,-4e-05,-0.00035,-0.0006799999999999999,-0.00011,-5e-05,1e-05,5
21686,22309,0.0,2e-05,-4e-05,-0.00035,-0.0006799999999999999,-0.00011,-5e-05,1e-05,5
21687,22310,0.0,2e-05,-4e-05,-0.00035,-0.0006799999999999999,-0.00011,-5e-05,1e-05,5
21688,22311,0.0,2e-05,-4e-05,-0.00035,-0.0006799999999999999,-0.00011,-5e-05,1e-05,5
21689,22312,0.0,2e-05,-4e-05,-0.00035,-0.0006799999999999999,-0.00011,-5e-05,1e-05,5
21690,22313,0.0,2e-05,-4e-05,-0.00035,-0.0006799999999999999,-0.00011,-5e-05,1e-05,5
21691,22314,0.0,2e-05,-4e-05,-0.00035,-0.0006799999999999999,-0.00011,-5e-05,1e-05,5
21692,22315,0.0,2e-05,-4e-05,-0.00035,-0.0006799999999999999,-0.00011,-5e-05,1e-05,5
21693,22316,0.0,2e-05,-4e-05,-0.00035,-0.0006799999999999999,-0.00011,-5e-05,1e-05,5
21694,22317,-4e-05,-8e-05,-0.00014,-5e-05,0.0,1e-05,2.9999999999999997e-05,-2.9999999999999997e-05,5
21695,22318,2.9999999999999997e-05,1e-05,-2.9999999999999997e-05,-5e-05,0.00035,2e-05,2e-05,4e-05,5
21696,22319,1e-05,-5e-05,4e-05,9e-05,5.9999999999999995e-05,-2.9999999999999997e-05,-2e-05,-4e-05,5
21697,22320,1e-05,-5e-05,4e-05,9e-05,5.9999999999999995e-05,-2.9999999999999997e-05,-2e-05,-4e-05,5
21698,22321,1e-05,-5e-05,4e-05,9e-05,5.9999999999999995e-05,-2.9999999999999997e-05,-2e-05,-4e-05,5
21699,22322,1e-05,-5e-05,4e-05,9e-05,5.9999999999999995e-05,-2.9999999999999997e-05,-2e-05,-4e-05,5
21700,22323,1e-05,-5e-05,4e-05,9e-05,5.9999999999999995e-05,-2.9999999999999997e-05,-2e-05,-4e-05,5
21701,22324,1e-05,-5e-05,4e-05,9e-05,5.9999999999999995e-05,-2.9999999999999997e-05,-2e-05,-4e-05,5
21702,22325,1e-05,-5e-05,4e-05,9e-05,5.9999999999999995e-05,-2.9999999999999997e-05,-2e-05,-4e-05,5
21703,22326,1e-05,-5e-05,4e-05,9e-05,5.9999999999999995e-05,-2.9999999999999997e-05,-2e-05,-4e-05,5
21704,22327,1e-05,-5e-05,4e-05,9e-05,5.9999999999999995e-05,-2.9999999999999997e-05,-2e-05,-4e-05,5
21705,22328,1e-05,-5e-05,4e-05,9e-05,5.9999999999999995e-05,-2.9999999999999997e-05,-2e-05,-4e-05,5
21706,22329,1e-05,-5e-05,4e-05,9e-05,5.9999999999999995e-05,-2.9999999999999997e-05,-2e-05,-4e-05,5
21707,22330,1e-05,-5e-05,4e-05,9e-05,5.9999999999999995e-05,-2.9999999999999997e-05,-2e-05,-4e-05,5
21708,22331,1e-05,-5e-05,4e-05,9e-05,5.9999999999999995e-05,-2.9999999999999997e-05,-2e-05,-4e-05,5
21709,22332,1e-05,-5e-05,4e-05,9e-05,5.9999999999999995e-05,-2.9999999999999997e-05,-2e-05,-4e-05,5
21710,22333,1e-05,-5e-05,4e-05,9e-05,5.9999999999999995e-05,-2.9999999999999997e-05,-2e-05,-4e-05,5
21711,22334,1e-05,-5e-05,4e-05,9e-05,5.9999999999999995e-05,-2.9999999999999997e-05,-2e-05,-4e-05,5
21712,22335,1e-05,-5e-05,4e-05,9e-05,5.9999999999999995e-05,-2.9999999999999997e-05,-2e-05,-4e-05,5
21713,22336,1e-05,-5e-05,4e-05,9e-05,5.9999999999999995e-05,-2.9999999999999997e-05,-2e-05,-4e-05,5
21714,22338,1e-05,-5e-05,4e-05,9e-05,5.9999999999999995e-05,-2.9999999999999997e-05,-2e-05,-4e-05,5
21715,22339,1e-05,-2e-05,5e-05,0.0004,0.00088,0.0,-4e-05,-1e-05,5
21716,22340,1e-05,-2e-05,5e-05,0.0004,0.00088,0.0,-4e-05,-1e-05,5
21717,22341,2e-05,0.0,0.0,0.0002,-0.00013000000000000002,0.00016,5e-05,2e-05,5
21718,22342,2e-05,0.0,0.0,0.0002,-0.00013000000000000002,0.00016,5e-05,2e-05,5
21719,22343,2e-05,0.0,0.0,0.0002,-0.00013000000000000002,0.00016,5e-05,2e-05,5
21720,22344,2e-05,0.0,0.0,0.0002,-0.00013000000000000002,0.00016,5e-05,2e-05,5
21721,22345,2e-05,0.0,0.0,0.0002,-0.00013000000000000002,0.00016,5e-05,2e-05,5
21722,22346,2e-05,0.0,0.0,0.0002,-0.00013000000000000002,0.00016,5e-05,2e-05,5
21723,22347,2e-05,0.0,0.0,0.0002,-0.00013000000000000002,0.00016,5e-05,2e-05,5
21724,22348,2e-05,0.0,0.0,0.0002,-0.00013000000000000002,0.00016,5e-05,2e-05,5
21725,22349,2e-05,0.0,0.0,0.0002,-0.00013000000000000002,0.00016,5e-05,2e-05,5
21726,22350,2e-05,0.0,0.0,0.0002,-0.00013000000000000002,0.00016,5e-05,2e-05,5
21727,22351,2e-05,0.0,0.0,0.0002,-0.00013000000000000002,0.00016,5e-05,2e-05,5
21728,22352,2e-05,0.0,0.0,0.0002,-0.00013000000000000002,0.00016,5e-05,2e-05,5
21729,22353,2e-05,0.0,0.0,-0.00016999999999999999,-0.00033999999999999997,2.9999999999999997e-05,2e-05,0.0,5
21730,22354,2e-05,0.0,0.0,-0.00016999999999999999,-0.00033999999999999997,2.9999999999999997e-05,2e-05,0.0,5
21731,22355,2e-05,0.0,0.0,-0.00016999999999999999,-0.00033999999999999997,2.9999999999999997e-05,2e-05,0.0,5
21732,22356,2e-05,0.0,0.0,-0.00016999999999999999,-0.00033999999999999997,2.9999999999999997e-05,2e-05,0.0,5
21733,22357,2e-05,0.0,0.0,-0.00016999999999999999,-0.00033999999999999997,2.9999999999999997e-05,2e-05,0.0,5
21734,22358,2e-05,0.0,0.0,-0.00016999999999999999,-0.00033999999999999997,2.9999999999999997e-05,2e-05,0.0,5
21735,22359,2e-05,0.0,0.0,-0.00016999999999999999,-0.00033999999999999997,2.9999999999999997e-05,2e-05,0.0,5
21736,22360,2e-05,0.0,0.0,-0.00016999999999999999,-0.00033999999999999997,2.9999999999999997e-05,2e-05,0.0,5
21737,22361,2e-05,0.0,0.0,-0.00016999999999999999,-0.00033999999999999997,2.9999999999999997e-05,2e-05,0.0,5
21738,22362,-2.9999999999999997e-05,-0.00022,-9e-05,-0.00011,0.0001,1e-05,-5e-05,-2e-05,5
21739,22363,-2.9999999999999997e-05,-0.00022,-9e-05,-0.00011,0.0001,1e-05,-5e-05,-2e-05,5
21740,22364,-2.9999999999999997e-05,-0.00022,-9e-05,-0.00011,0.0001,1e-05,-5e-05,-2e-05,5
21741,22365,-2.9999999999999997e-05,-0.00022,-9e-05,-0.00011,0.0001,1e-05,-5e-05,-2e-05,5
21742,22366,-2.9999999999999997e-05,-0.00022,-9e-05,-0.00011,0.0001,1e-05,-5e-05,-2e-05,5
21743,22367,-2.9999999999999997e-05,-0.00022,-9e-05,-0.00011,0.0001,1e-05,-5e-05,-2e-05,5
21744,22368,-2.9999999999999997e-05,-0.00022,-9e-05,-0.00011,0.0001,1e-05,-5e-05,-2e-05,5
21745,22369,-2.9999999999999997e-05,-0.00022,-9e-05,-0.00011,0.0001,1e-05,-5e-05,-2e-05,5
21746,22370,-2.9999999999999997e-05,-0.00022,-9e-05,-0.00011,0.0001,1e-05,-5e-05,-2e-05,5
21747,22371,-2.9999999999999997e-05,-0.00022,-9e-05,-0.00011,0.0001,1e-05,-5e-05,-2e-05,5
21748,22372,-2.9999999999999997e-05,-0.00022,-9e-05,-0.00011,0.0001,1e-05,-5e-05,-2e-05,5
21749,22373,-2.9999999999999997e-05,-0.00022,-9e-05,-0.00011,0.0001,1e-05,-5e-05,-2e-05,5
21750,22374,-2.9999999999999997e-05,-0.00022,-9e-05,-0.00011,0.0001,1e-05,-5e-05,-2e-05,5
21751,22375,-2.9999999999999997e-05,-0.00022,-9e-05,-0.00011,0.0001,1e-05,-5e-05,-2e-05,5
21752,22376,-2.9999999999999997e-05,-0.00022,-9e-05,-0.00011,0.0001,1e-05,-5e-05,-2e-05,5
21753,22377,1e-05,-2e-05,9e-05,-2.9999999999999997e-05,-7e-05,-4e-05,-1e-05,1e-05,5
21754,22378,0.0,5.9999999999999995e-05,1e-05,0.00014,0.00041,0.00011999999999999999,5.9999999999999995e-05,2.9999999999999997e-05,5
21755,22379,0.0,5.9999999999999995e-05,1e-05,0.00014,0.00041,0.00011999999999999999,5.9999999999999995e-05,2.9999999999999997e-05,5
21756,22380,0.0,5.9999999999999995e-05,1e-05,0.00014,0.00041,0.00011999999999999999,5.9999999999999995e-05,2.9999999999999997e-05,5
21757,22381,0.0,5.9999999999999995e-05,1e-05,0.00014,0.00041,0.00011999999999999999,5.9999999999999995e-05,2.9999999999999997e-05,5
21758,22382,0.0,5.9999999999999995e-05,1e-05,0.00014,0.00041,0.00011999999999999999,5.9999999999999995e-05,2.9999999999999997e-05,5
21759,22383,0.0,5.9999999999999995e-05,1e-05,0.00014,0.00041,0.00011999999999999999,5.9999999999999995e-05,2.9999999999999997e-05,5
21760,22384,0.0,5.9999999999999995e-05,1e-05,0.00014,0.00041,0.00011999999999999999,5.9999999999999995e-05,2.9999999999999997e-05,5
21761,22385,0.0,5.9999999999999995e-05,1e-05,0.00014,0.00041,0.00011999999999999999,5.9999999999999995e-05,2.9999999999999997e-05,5
21762,22386,0.0,5.9999999999999995e-05,1e-05,0.00014,0.00041,0.00011999999999999999,5.9999999999999995e-05,2.9999999999999997e-05,5
21763,22388,0.0,5.9999999999999995e-05,1e-05,0.00014,0.00041,0.00011999999999999999,5.9999999999999995e-05,2.9999999999999997e-05,5
21764,22389,0.0,5.9999999999999995e-05,1e-05,0.00014,0.00041,0.00011999999999999999,5.9999999999999995e-05,2.9999999999999997e-05,5
21765,22390,0.0,5.9999999999999995e-05,1e-05,0.00014,0.00041,0.00011999999999999999,5.9999999999999995e-05,2.9999999999999997e-05,5
21766,22391,0.0,5.9999999999999995e-05,1e-05,0.00014,0.00041,0.00011999999999999999,5.9999999999999995e-05,2.9999999999999997e-05,5
21767,22392,0.0,5.9999999999999995e-05,1e-05,0.00014,0.00041,0.00011999999999999999,5.9999999999999995e-05,2.9999999999999997e-05,5
21768,22393,0.0,5.9999999999999995e-05,1e-05,0.00014,0.00041,0.00011999999999999999,5.9999999999999995e-05,2.9999999999999997e-05,5
21769,22394,0.0,5.9999999999999995e-05,1e-05,0.00014,0.00041,0.00011999999999999999,5.9999999999999995e-05,2.9999999999999997e-05,5
21770,22395,0.0,5.9999999999999995e-05,1e-05,0.00014,0.00041,0.00011999999999999999,5.9999999999999995e-05,2.9999999999999997e-05,5
21771,22396,0.0,5.9999999999999995e-05,1e-05,0.00014,0.00041,0.00011999999999999999,5.9999999999999995e-05,2.9999999999999997e-05,5
21772,22397,0.0,5.9999999999999995e-05,1e-05,0.00014,0.00041,0.00011999999999999999,5.9999999999999995e-05,2.9999999999999997e-05,5
21773,22398,0.0,5.9999999999999995e-05,1e-05,0.00014,0.00041,0.00011999999999999999,5.9999999999999995e-05,2.9999999999999997e-05,5
21774,22399,0.0,5.9999999999999995e-05,1e-05,0.00014,0.00041,0.00011999999999999999,5.9999999999999995e-05,2.9999999999999997e-05,5
21775,22400,0.0,5.9999999999999995e-05,1e-05,0.00014,0.00041,0.00011999999999999999,5.9999999999999995e-05,2.9999999999999997e-05,5
21776,22401,0.0,5.9999999999999995e-05,1e-05,0.00014,0.00041,0.00011999999999999999,5.9999999999999995e-05,2.9999999999999997e-05,5
21777,22402,0.0,5.9999999999999995e-05,1e-05,0.00014,0.00041,0.00011999999999999999,5.9999999999999995e-05,2.9999999999999997e-05,5
21778,22403,0.0,5.9999999999999995e-05,1e-05,0.00014,0.00041,0.00011999999999999999,5.9999999999999995e-05,2.9999999999999997e-05,5
21779,22404,0.0,5.9999999999999995e-05,1e-05,0.00014,0.00041,0.00011999999999999999,5.9999999999999995e-05,2.9999999999999997e-05,5
21780,22405,0.0,5.9999999999999995e-05,1e-05,0.00014,0.00041,0.00011999999999999999,5.9999999999999995e-05,2.9999999999999997e-05,5
21781,22406,0.0,5.9999999999999995e-05,1e-05,0.00014,0.00041,0.00011999999999999999,5.9999999999999995e-05,2.9999999999999997e-05,5
21782,22407,-1e-05,-0.00011999999999999999,-0.00011,0.00025,0.0003,-5e-05,-4e-05,-2e-05,5
21783,22408,2e-05,5e-05,4e-05,0.00029,2e-05,-0.00013000000000000002,0.0,-2e-05,5
21784,22409,2e-05,5e-05,4e-05,0.00029,2e-05,-0.00013000000000000002,0.0,-2e-05,5
21785,22410,2e-05,5e-05,4e-05,0.00029,2e-05,-0.00013000000000000002,0.0,-2e-05,5
21786,22411,2e-05,5e-05,4e-05,0.00029,2e-05,-0.00013000000000000002,0.0,-2e-05,5
21787,22412,2e-05,5e-05,4e-05,0.00029,2e-05,-0.00013000000000000002,0.0,-2e-05,5
21788,22413,0.0,7e-05,2e-05,-0.00014,-0.00022999999999999998,-4e-05,-2.9999999999999997e-05,0.0,5
21789,22414,-2e-05,-0.0002,-5e-05,-0.00011999999999999999,5.9999999999999995e-05,-2.9999999999999997e-05,-4e-05,-4e-05,5
21790,22415,-2e-05,-0.0002,-5e-05,-0.00011999999999999999,5.9999999999999995e-05,-2.9999999999999997e-05,-4e-05,-4e-05,5
