,time,channel1,channel2,channel3,channel4,channel5,channel6,channel7,channel8,class
18523,19119,1e-05,7e-05,5e-05,0.00021,-0.00023999999999999998,-5e-05,2e-05,2e-05,5
18524,19120,1e-05,7e-05,5e-05,0.00021,-0.00023999999999999998,-5e-05,2e-05,2e-05,5
18525,19121,1e-05,7e-05,5e-05,0.00021,-0.00023999999999999998,-5e-05,2e-05,2e-05,5
18526,19122,1e-05,7e-05,5e-05,0.00021,-0.00023999999999999998,-5e-05,2e-05,2e-05,5
18527,19123,1e-05,7e-05,5e-05,0.00021,-0.00023999999999999998,-5e-05,2e-05,2e-05,5
18528,19124,1e-05,7e-05,5e-05,0.00021,-0.00023999999999999998,-5e-05,2e-05,2e-05,5
18529,19125,1e-05,7e-05,5e-05,0.00021,-0.00023999999999999998,-5e-05,2e-05,2e-05,5
18530,19126,1e-05,7e-05,5e-05,0.00021,-0.00023999999999999998,-5e-05,2e-05,2e-05,5
18531,19127,1e-05,7e-05,5e-05,0.00021,-0.00023999999999999998,-5e-05,2e-05,2e-05,5
18532,19128,1e-05,7e-05,5e-05,0.00021,-0.00023999999999999998,-5e-05,2e-05,2e-05,5
18533,19129,1e-05,7e-05,5e-05,0.00021,-0.00023999999999999998,-5e-05,2e-05,2e-05,5
18534,19130,1e-05,7e-05,5e-05,0.00021,-0.00023999999999999998,-5e-05,2e-05,2e-05,5
18535,19131,1e-05,7e-05,5e-05,0.00021,-0.00023999999999999998,-5e-05,2e-05,2e-05,5
18536,19132,1e-05,7e-05,5e-05,0.00021,-0.00023999999999999998,-5e-05,2e-05,2e-05,5
18537,19133,1e-05,7e-05,5e-05,0.00021,-0.00023999999999999998,-5e-05,2e-05,2e-05,5
18538,19134,1e-05,7e-05,5e-05,0.00021,-0.00023999999999999998,-5e-05,2e-05,2e-05,5
18539,19135,1e-05,7e-05,5e-05,0.00021,-0.00023999999999999998,-5e-05,2e-05,2e-05,5
18540,19136,1e-05,7e-05,5e-05,0.00021,-0.00023999999999999998,-5e-05,2e-05,2e-05,5
18541,19138,-2e-05,-7e-05,-0.00014,-0.00074,-0.00055,-0.00011,-7e-05,4e-05,5
18542,19139,2.9999999999999997e-05,-2.9999999999999997e-05,-0.00014,-0.00074,0.00021,-4e-05,-5e-05,-9e-05,5
18543,19140,2.9999999999999997e-05,-2.9999999999999997e-05,-0.00014,-0.00074,0.00021,-4e-05,-5e-05,-9e-05,5
18544,19141,2.9999999999999997e-05,-2.9999999999999997e-05,-0.00014,-0.00074,0.00021,-4e-05,-5e-05,-9e-05,5
18545,19142,2.9999999999999997e-05,-2.9999999999999997e-05,-0.00014,-0.00074,0.00021,-4e-05,-5e-05,-9e-05,5
18546,19143,2.9999999999999997e-05,-2.9999999999999997e-05,-0.00014,-0.00074,0.00021,-4e-05,-5e-05,-9e-05,5
18547,19144,2.9999999999999997e-05,-2.9999999999999997e-05,-0.00014,-0.00074,0.00021,-4e-05,-5e-05,-9e-05,5
18548,19145,2.9999999999999997e-05,-2.9999999999999997e-05,-0.00014,-0.00074,0.00021,-4e-05,-5e-05,-9e-05,5
18549,19146,2.9999999999999997e-05,-2.9999999999999997e-05,-0.00014,-0.00074,0.00021,-4e-05,-5e-05,-9e-05,5
18550,19147,2.9999999999999997e-05,-2.9999999999999997e-05,-0.00014,-0.00074,0.00021,-4e-05,-5e-05,-9e-05,5
18551,19148,2.9999999999999997e-05,-2.9999999999999997e-05,-0.00014,-0.00074,0.00021,-4e-05,-5e-05,-9e-05,5
18552,19149,2.9999999999999997e-05,-2.9999999999999997e-05,-0.00014,-0.00074,0.00021,-4e-05,-5e-05,-9e-05,5
18553,19150,2.9999999999999997e-05,-2.9999999999999997e-05,-0.00014,-0.00074,0.00021,-4e-05,-5e-05,-9e-05,5
18554,19151,5e-05,5.9999999999999995e-05,8e-05,0.00013000000000000002,-2e-05,-8e-05,-1e-05,7e-05,5
18555,19152,5e-05,5.9999999999999995e-05,8e-05,0.00013000000000000002,-2e-05,-8e-05,-1e-05,7e-05,5
18556,19153,5e-05,5.9999999999999995e-05,8e-05,0.00013000000000000002,-2e-05,-8e-05,-1e-05,7e-05,5
18557,19154,5e-05,5.9999999999999995e-05,8e-05,0.00013000000000000002,-2e-05,-8e-05,-1e-05,7e-05,5
18558,19155,5e-05,5.9999999999999995e-05,8e-05,0.00013000000000000002,-2e-05,-8e-05,-1e-05,7e-05,5
18559,19156,5e-05,5.9999999999999995e-05,8e-05,0.00013000000000000002,-2e-05,-8e-05,-1e-05,7e-05,5
18560,19157,5e-05,5.9999999999999995e-05,8e-05,0.00013000000000000002,-2e-05,-8e-05,-1e-05,7e-05,5
18561,19158,5e-05,5.9999999999999995e-05,8e-05,0.00013000000000000002,-2e-05,-8e-05,-1e-05,7e-05,5
18562,19159,5e-05,5.9999999999999995e-05,8e-05,0.00013000000000000002,-2e-05,-8e-05,-1e-05,7e-05,5
18563,19160,-1e-05,-2.9999999999999997e-05,-2.9999999999999997e-05,0.0005099999999999999,-0.00014,-8e-05,-2e-05,0.00015,5
18564,19161,-1e-05,-2.9999999999999997e-05,-2.9999999999999997e-05,0.0005099999999999999,-0.00014,-8e-05,-2e-05,0.00015,5
18565,19162,-1e-05,-2.9999999999999997e-05,-2.9999999999999997e-05,0.0005099999999999999,-0.00014,-8e-05,-2e-05,0.00015,5
18566,19163,-1e-05,-2.9999999999999997e-05,-2.9999999999999997e-05,0.0005099999999999999,-0.00014,-8e-05,-2e-05,0.00015,5
18567,19164,-1e-05,-2.9999999999999997e-05,-2.9999999999999997e-05,0.0005099999999999999,-0.00014,-8e-05,-2e-05,0.00015,5
18568,19165,-1e-05,-2.9999999999999997e-05,-2.9999999999999997e-05,0.0005099999999999999,-0.00014,-8e-05,-2e-05,0.00015,5
18569,19166,-1e-05,-2.9999999999999997e-05,-2.9999999999999997e-05,0.0005099999999999999,-0.00014,-8e-05,-2e-05,0.00015,5
18570,19167,-1e-05,-2.9999999999999997e-05,-2.9999999999999997e-05,0.0005099999999999999,-0.00014,-8e-05,-2e-05,0.00015,5
18571,19168,-1e-05,-2.9999999999999997e-05,-2.9999999999999997e-05,0.0005099999999999999,-0.00014,-8e-05,-2e-05,0.00015,5
18572,19169,-1e-05,-2.9999999999999997e-05,-2.9999999999999997e-05,0.0005099999999999999,-0.00014,-8e-05,-2e-05,0.00015,5
18573,19170,-1e-05,-2.9999999999999997e-05,-2.9999999999999997e-05,0.0005099999999999999,-0.00014,-8e-05,-2e-05,0.00015,5
18574,19171,-1e-05,-2.9999999999999997e-05,-2.9999999999999997e-05,0.0005099999999999999,-0.00014,-8e-05,-2e-05,0.00015,5
18575,19172,-1e-05,-2.9999999999999997e-05,-2.9999999999999997e-05,0.0005099999999999999,-0.00014,-8e-05,-2e-05,0.00015,5
18576,19173,-1e-05,-2.9999999999999997e-05,-2.9999999999999997e-05,0.0005099999999999999,-0.00014,-8e-05,-2e-05,0.00015,5
18577,19174,-1e-05,-2.9999999999999997e-05,-2.9999999999999997e-05,0.0005099999999999999,-0.00014,-8e-05,-2e-05,0.00015,5
18578,19175,-7e-05,4e-05,-1e-05,0.00047999999999999996,-4e-05,8e-05,1e-05,-5e-05,5
18579,19176,-7e-05,4e-05,-1e-05,0.00047999999999999996,-4e-05,8e-05,1e-05,-5e-05,5
18580,19177,8e-05,-5.9999999999999995e-05,-7e-05,-0.00026000000000000003,-0.00028,-4e-05,0.0,5.9999999999999995e-05,5
18581,19178,8e-05,-5.9999999999999995e-05,-7e-05,-0.00026000000000000003,-0.00028,-4e-05,0.0,5.9999999999999995e-05,5
18582,19179,8e-05,-5.9999999999999995e-05,-7e-05,-0.00026000000000000003,-0.00028,-4e-05,0.0,5.9999999999999995e-05,5
18583,19180,8e-05,-5.9999999999999995e-05,-7e-05,-0.00026000000000000003,-0.00028,-4e-05,0.0,5.9999999999999995e-05,5
18584,19181,8e-05,-5.9999999999999995e-05,-7e-05,-0.00026000000000000003,-0.00028,-4e-05,0.0,5.9999999999999995e-05,5
18585,19182,8e-05,-5.9999999999999995e-05,-7e-05,-0.00026000000000000003,-0.00028,-4e-05,0.0,5.9999999999999995e-05,5
18586,19183,8e-05,-5.9999999999999995e-05,-7e-05,-0.00026000000000000003,-0.00028,-4e-05,0.0,5.9999999999999995e-05,5
18587,19184,8e-05,-5.9999999999999995e-05,-7e-05,-0.00026000000000000003,-0.00028,-4e-05,0.0,5.9999999999999995e-05,5
18588,19185,8e-05,-5.9999999999999995e-05,-7e-05,-0.00026000000000000003,-0.00028,-4e-05,0.0,5.9999999999999995e-05,5
18589,19186,8e-05,-5.9999999999999995e-05,-7e-05,-0.00026000000000000003,-0.00028,-4e-05,0.0,5.9999999999999995e-05,5
18590,19188,8e-05,-5.9999999999999995e-05,-7e-05,-0.00026000000000000003,-0.00028,-4e-05,0.0,5.9999999999999995e-05,5
18591,19189,8e-05,-5.9999999999999995e-05,-7e-05,-0.00026000000000000003,-0.00028,-4e-05,0.0,5.9999999999999995e-05,5
18592,19190,8e-05,-5.9999999999999995e-05,-7e-05,-0.00026000000000000003,-0.00028,-4e-05,0.0,5.9999999999999995e-05,5
18593,19191,8e-05,-5.9999999999999995e-05,-7e-05,-0.00026000000000000003,-0.00028,-4e-05,0.0,5.9999999999999995e-05,5
18594,19192,8e-05,-5.9999999999999995e-05,-7e-05,-0.00026000000000000003,-0.00028,-4e-05,0.0,5.9999999999999995e-05,5
18595,19193,8e-05,-5.9999999999999995e-05,-7e-05,-0.00026000000000000003,-0.00028,-4e-05,0.0,5.9999999999999995e-05,5
18596,19194,8e-05,-5.9999999999999995e-05,-7e-05,-0.00026000000000000003,-0.00028,-4e-05,0.0,5.9999999999999995e-05,5
18597,19195,8e-05,-5.9999999999999995e-05,-7e-05,-0.00026000000000000003,-0.00028,-4e-05,0.0,5.9999999999999995e-05,5
18598,19196,8e-05,-5.9999999999999995e-05,-7e-05,-0.00026000000000000003,-0.00028,-4e-05,0.0,5.9999999999999995e-05,5
18599,19197,8e-05,-5.9999999999999995e-05,-7e-05,-0.00026000000000000003,-0.00028,-4e-05,0.0,5.9999999999999995e-05,5
18600,19198,0.00013000000000000002,0.00015,0.00021,0.00031,0.00032,0.00016999999999999999,0.00014,0.00011,5
18601,19199,-4e-05,8e-05,0.00021,0.0002,-0.00065,-9e-05,-1e-05,-0.00011,5
18602,19200,-4e-05,8e-05,0.00021,0.0002,-0.00065,-9e-05,-1e-05,-0.00011,5
18603,19201,-4e-05,8e-05,0.00021,0.0002,-0.00065,-9e-05,-1e-05,-0.00011,5
18604,19202,-4e-05,8e-05,0.00021,0.0002,-0.00065,-9e-05,-1e-05,-0.00011,5
18605,19203,-4e-05,8e-05,0.00021,0.0002,-0.00065,-9e-05,-1e-05,-0.00011,5
18606,19204,-4e-05,8e-05,0.00021,0.0002,-0.00065,-9e-05,-1e-05,-0.00011,5
18607,19205,-4e-05,8e-05,0.00021,0.0002,-0.00065,-9e-05,-1e-05,-0.00011,5
18608,19206,-4e-05,8e-05,0.00021,0.0002,-0.00065,-9e-05,-1e-05,-0.00011,5
18609,19207,-4e-05,8e-05,0.00021,0.0002,-0.00065,-9e-05,-1e-05,-0.00011,5
18610,19208,-4e-05,8e-05,0.00021,0.0002,-0.00065,-9e-05,-1e-05,-0.00011,5
18611,19209,-4e-05,8e-05,0.00021,0.0002,-0.00065,-9e-05,-1e-05,-0.00011,5
18612,19210,-4e-05,8e-05,0.00021,0.0002,-0.00065,-9e-05,-1e-05,-0.00011,5
18613,19211,-5e-05,-0.0001,-7e-05,-0.00029,-0.00039,2e-05,-5e-05,-5e-05,5
18614,19213,-5e-05,-0.0001,-7e-05,-0.00029,-0.00039,2e-05,-5e-05,-5e-05,5
18615,19214,-5e-05,-0.0001,-7e-05,-0.00029,-0.00039,2e-05,-5e-05,-5e-05,5
18616,19215,-5e-05,-0.0001,-7e-05,-0.00029,-0.00039,2e-05,-5e-05,-5e-05,5
18617,19216,-5e-05,-0.0001,-7e-05,-0.00029,-0.00039,2e-05,-5e-05,-5e-05,5
18618,19217,-5e-05,-0.0001,-7e-05,-0.00029,-0.00039,2e-05,-5e-05,-5e-05,5
18619,19218,-5e-05,-0.0001,-7e-05,-0.00029,-0.00039,2e-05,-5e-05,-5e-05,5
18620,19219,-5e-05,-0.0001,-7e-05,-0.00029,-0.00039,2e-05,-5e-05,-5e-05,5
18621,19220,5e-05,2e-05,2e-05,0.00022,0.00016,2.9999999999999997e-05,5e-05,1e-05,5
18622,19221,5e-05,2e-05,2e-05,0.00022,0.00016,2.9999999999999997e-05,5e-05,1e-05,5
18623,19222,5e-05,2e-05,2e-05,0.00022,0.00016,2.9999999999999997e-05,5e-05,1e-05,5
18624,19223,5e-05,2e-05,2e-05,0.00022,0.00016,2.9999999999999997e-05,5e-05,1e-05,5
18625,19224,5e-05,2e-05,2e-05,0.00022,0.00016,2.9999999999999997e-05,5e-05,1e-05,5
18626,19225,5e-05,2e-05,2e-05,0.00022,0.00016,2.9999999999999997e-05,5e-05,1e-05,5
18627,19226,5e-05,2e-05,2e-05,0.00022,0.00016,2.9999999999999997e-05,5e-05,1e-05,5
18628,19227,5e-05,2e-05,2e-05,0.00022,0.00016,2.9999999999999997e-05,5e-05,1e-05,5
18629,19228,5e-05,2e-05,2e-05,0.00022,0.00016,2.9999999999999997e-05,5e-05,1e-05,5
18630,19229,5e-05,2e-05,2e-05,0.00022,0.00016,2.9999999999999997e-05,5e-05,1e-05,5
18631,19230,5e-05,2e-05,2e-05,0.00022,0.00016,2.9999999999999997e-05,5e-05,1e-05,5
18632,19231,5e-05,2e-05,2e-05,0.00022,0.00016,2.9999999999999997e-05,5e-05,1e-05,5
18633,19232,5e-05,2e-05,2e-05,0.00022,0.00016,2.9999999999999997e-05,5e-05,1e-05,5
18634,19233,5e-05,2e-05,2e-05,0.00022,0.00016,2.9999999999999997e-05,5e-05,1e-05,5
18635,19234,5e-05,2e-05,2e-05,0.00022,0.00016,2.9999999999999997e-05,5e-05,1e-05,5
18636,19235,2e-05,4e-05,0.00011999999999999999,8e-05,7e-05,0.00016,8e-05,0.00014,5
18637,19236,2e-05,4e-05,0.00011999999999999999,8e-05,7e-05,0.00016,8e-05,0.00014,5
18638,19238,4e-05,7e-05,0.00011,-0.00032,0.00016,0.00011,5e-05,0.00021,5
18639,19239,4e-05,7e-05,0.00011,-0.00032,0.00016,0.00011,5e-05,0.00021,5
18640,19240,4e-05,7e-05,0.00011,-0.00032,0.00016,0.00011,5e-05,0.00021,5
18641,19241,4e-05,7e-05,0.00011,-0.00032,0.00016,0.00011,5e-05,0.00021,5
18642,19242,4e-05,7e-05,0.00011,-0.00032,0.00016,0.00011,5e-05,0.00021,5
18643,19243,4e-05,7e-05,0.00011,-0.00032,0.00016,0.00011,5e-05,0.00021,5
18644,19244,4e-05,7e-05,0.00011,-0.00032,0.00016,0.00011,5e-05,0.00021,5
18645,19245,4e-05,7e-05,0.00011,-0.00032,0.00016,0.00011,5e-05,0.00021,5
18646,19246,4e-05,7e-05,0.00011,-0.00032,0.00016,0.00011,5e-05,0.00021,5
18647,19247,4e-05,7e-05,0.00011,-0.00032,0.00016,0.00011,5e-05,0.00021,5
18648,19248,4e-05,7e-05,0.00011,-0.00032,0.00016,0.00011,5e-05,0.00021,5
18649,19249,4e-05,7e-05,0.00011,-0.00032,0.00016,0.00011,5e-05,0.00021,5
18650,19250,4e-05,7e-05,0.00011,-0.00032,0.00016,0.00011,5e-05,0.00021,5
18651,19251,4e-05,7e-05,0.00011,-0.00032,0.00016,0.00011,5e-05,0.00021,5
18652,19252,4e-05,7e-05,0.00011,-0.00032,0.00016,0.00011,5e-05,0.00021,5
18653,19253,4e-05,7e-05,0.00011,-0.00032,0.00016,0.00011,5e-05,0.00021,5
18654,19254,4e-05,7e-05,0.00011,-0.00032,0.00016,0.00011,5e-05,0.00021,5
18655,19255,4e-05,7e-05,0.00011,-0.00032,0.00016,0.00011,5e-05,0.00021,5
18656,19256,4e-05,7e-05,0.00011,-0.00032,0.00016,0.00011,5e-05,0.00021,5
18657,19257,4e-05,7e-05,0.00011,-0.00032,0.00016,0.00011,5e-05,0.00021,5
18658,19258,-0.00014,-0.00016,-0.00021,-0.0002,0.00016999999999999999,-0.00011999999999999999,-7e-05,-1e-05,5
18659,19259,-0.00023999999999999998,-4e-05,4e-05,-0.0001,0.00029,0.0,-1e-05,-0.00016,5
18660,19260,-0.00023999999999999998,-4e-05,4e-05,-0.0001,0.00029,0.0,-1e-05,-0.00016,5
18661,19261,-0.00023999999999999998,-4e-05,4e-05,-0.0001,0.00029,0.0,-1e-05,-0.00016,5
18662,19262,-0.00023999999999999998,-4e-05,4e-05,-0.0001,0.00029,0.0,-1e-05,-0.00016,5
18663,19263,-0.00023999999999999998,-4e-05,4e-05,-0.0001,0.00029,0.0,-1e-05,-0.00016,5
18664,19264,-0.00023999999999999998,-4e-05,4e-05,-0.0001,0.00029,0.0,-1e-05,-0.00016,5
18665,19265,-0.00023999999999999998,-4e-05,4e-05,-0.0001,0.00029,0.0,-1e-05,-0.00016,5
18666,19266,-0.00023999999999999998,-4e-05,4e-05,-0.0001,0.00029,0.0,-1e-05,-0.00016,5
18667,19267,-0.00023999999999999998,-4e-05,4e-05,-0.0001,0.00029,0.0,-1e-05,-0.00016,5
18668,19268,-0.00023999999999999998,-4e-05,4e-05,-0.0001,0.00029,0.0,-1e-05,-0.00016,5
18669,19269,-0.00023999999999999998,-4e-05,4e-05,-0.0001,0.00029,0.0,-1e-05,-0.00016,5
18670,19270,-0.00023999999999999998,-4e-05,4e-05,-0.0001,0.00029,0.0,-1e-05,-0.00016,5
18671,19271,-0.00026000000000000003,-2e-05,-2.9999999999999997e-05,-0.00033,7e-05,-4e-05,-1e-05,-0.00026000000000000003,5
18672,19272,-0.00026000000000000003,-2e-05,-2.9999999999999997e-05,-0.00033,7e-05,-4e-05,-1e-05,-0.00026000000000000003,5
18673,19273,-0.00026000000000000003,-2e-05,-2.9999999999999997e-05,-0.00033,7e-05,-4e-05,-1e-05,-0.00026000000000000003,5
18674,19274,-0.00026000000000000003,-2e-05,-2.9999999999999997e-05,-0.00033,7e-05,-4e-05,-1e-05,-0.00026000000000000003,5
18675,19275,-0.00026000000000000003,-2e-05,-2.9999999999999997e-05,-0.00033,7e-05,-4e-05,-1e-05,-0.00026000000000000003,5
18676,19276,-0.00026000000000000003,-2e-05,-2.9999999999999997e-05,-0.00033,7e-05,-4e-05,-1e-05,-0.00026000000000000003,5
18677,19277,-0.00026000000000000003,-2e-05,-2.9999999999999997e-05,-0.00033,7e-05,-4e-05,-1e-05,-0.00026000000000000003,5
18678,19278,-0.00026000000000000003,-2e-05,-2.9999999999999997e-05,-0.00033,7e-05,-4e-05,-1e-05,-0.00026000000000000003,5
18679,19279,-0.00026000000000000003,-2e-05,-2.9999999999999997e-05,-0.00033,7e-05,-4e-05,-1e-05,-0.00026000000000000003,5
18680,19280,-7e-05,-0.00014,-0.00018999999999999998,-0.00033,-0.00014,-5e-05,-7e-05,0.0,5
18681,19281,-7e-05,-0.00014,-0.00018999999999999998,-0.00033,-0.00014,-5e-05,-7e-05,0.0,5
18682,19282,-7e-05,-0.00014,-0.00018999999999999998,-0.00033,-0.00014,-5e-05,-7e-05,0.0,5
18683,19283,-7e-05,-0.00014,-0.00018999999999999998,-0.00033,-0.00014,-5e-05,-7e-05,0.0,5
18684,19284,-7e-05,-0.00014,-0.00018999999999999998,-0.00033,-0.00014,-5e-05,-7e-05,0.0,5
18685,19285,-7e-05,-0.00014,-0.00018999999999999998,-0.00033,-0.00014,-5e-05,-7e-05,0.0,5
18686,19286,-7e-05,-0.00014,-0.00018999999999999998,-0.00033,-0.00014,-5e-05,-7e-05,0.0,5
18687,19288,-7e-05,-0.00014,-0.00018999999999999998,-0.00033,-0.00014,-5e-05,-7e-05,0.0,5
18688,19289,-7e-05,-0.00014,-0.00018999999999999998,-0.00033,-0.00014,-5e-05,-7e-05,0.0,5
18689,19290,-7e-05,-0.00014,-0.00018999999999999998,-0.00033,-0.00014,-5e-05,-7e-05,0.0,5
18690,19291,-7e-05,-0.00014,-0.00018999999999999998,-0.00033,-0.00014,-5e-05,-7e-05,0.0,5
18691,19292,-7e-05,-0.00014,-0.00018999999999999998,-0.00033,-0.00014,-5e-05,-7e-05,0.0,5
18692,19293,-7e-05,-0.00014,-0.00018999999999999998,-0.00033,-0.00014,-5e-05,-7e-05,0.0,5
18693,19294,-7e-05,-0.00014,-0.00018999999999999998,-0.00033,-0.00014,-5e-05,-7e-05,0.0,5
18694,19295,7e-05,0.0,-8e-05,-0.00011999999999999999,-0.00079,-0.00022999999999999998,-2e-05,-2e-05,5
18695,19296,7e-05,0.0,-8e-05,-0.00011999999999999999,-0.00079,-0.00022999999999999998,-2e-05,-2e-05,5
18696,19297,5e-05,7e-05,0.00016999999999999999,0.0011099999999999999,0.00086,0.00011,2.9999999999999997e-05,5e-05,5
18697,19298,5e-05,7e-05,0.00016999999999999999,0.0011099999999999999,0.00086,0.00011,2.9999999999999997e-05,5e-05,5
18698,19299,5e-05,7e-05,0.00016999999999999999,0.0011099999999999999,0.00086,0.00011,2.9999999999999997e-05,5e-05,5
18699,19300,5e-05,7e-05,0.00016999999999999999,0.0011099999999999999,0.00086,0.00011,2.9999999999999997e-05,5e-05,5
18700,19301,5e-05,7e-05,0.00016999999999999999,0.0011099999999999999,0.00086,0.00011,2.9999999999999997e-05,5e-05,5
18701,19302,5e-05,7e-05,0.00016999999999999999,0.0011099999999999999,0.00086,0.00011,2.9999999999999997e-05,5e-05,5
18702,19303,5e-05,7e-05,0.00016999999999999999,0.0011099999999999999,0.00086,0.00011,2.9999999999999997e-05,5e-05,5
18703,19304,5e-05,7e-05,0.00016999999999999999,0.0011099999999999999,0.00086,0.00011,2.9999999999999997e-05,5e-05,5
18704,19305,5e-05,7e-05,0.00016999999999999999,0.0011099999999999999,0.00086,0.00011,2.9999999999999997e-05,5e-05,5
18705,19306,5e-05,7e-05,0.00016999999999999999,0.0011099999999999999,0.00086,0.00011,2.9999999999999997e-05,5e-05,5
18706,19307,5e-05,7e-05,0.00016999999999999999,0.0011099999999999999,0.00086,0.00011,2.9999999999999997e-05,5e-05,5
18707,19308,5e-05,7e-05,0.00016999999999999999,0.0011099999999999999,0.00086,0.00011,2.9999999999999997e-05,5e-05,5
18708,19309,5e-05,7e-05,0.00016999999999999999,0.0011099999999999999,0.00086,0.00011,2.9999999999999997e-05,5e-05,5
18709,19310,5e-05,7e-05,0.00016999999999999999,0.0011099999999999999,0.00086,0.00011,2.9999999999999997e-05,5e-05,5
18710,19311,5e-05,7e-05,0.00016999999999999999,0.0011099999999999999,0.00086,0.00011,2.9999999999999997e-05,5e-05,5
18711,19312,5e-05,7e-05,0.00016999999999999999,0.0011099999999999999,0.00086,0.00011,2.9999999999999997e-05,5e-05,5
18712,19313,5e-05,7e-05,0.00016999999999999999,0.0011099999999999999,0.00086,0.00011,2.9999999999999997e-05,5e-05,5
18713,19314,5e-05,7e-05,0.00016999999999999999,0.0011099999999999999,0.00086,0.00011,2.9999999999999997e-05,5e-05,5
18714,19315,5e-05,7e-05,0.00016999999999999999,0.0011099999999999999,0.00086,0.00011,2.9999999999999997e-05,5e-05,5
18715,19316,5e-05,7e-05,0.00016999999999999999,0.0011099999999999999,0.00086,0.00011,2.9999999999999997e-05,5e-05,5
18716,19317,-0.00011999999999999999,-0.00018,-0.00026000000000000003,-0.0006,-0.00022,-0.00022,-8e-05,-7e-05,5
18717,19318,2.9999999999999997e-05,-2.9999999999999997e-05,2e-05,5.9999999999999995e-05,0.00022999999999999998,-1e-05,-4e-05,-4e-05,5
18718,19319,2.9999999999999997e-05,-4e-05,-0.0001,-0.00021,1e-05,-1e-05,1e-05,1e-05,5
18719,19320,2.9999999999999997e-05,-4e-05,-0.0001,-0.00021,1e-05,-1e-05,1e-05,1e-05,5
18720,19321,2.9999999999999997e-05,-4e-05,-0.0001,-0.00021,1e-05,-1e-05,1e-05,1e-05,5
18721,19322,2.9999999999999997e-05,-4e-05,-0.0001,-0.00021,1e-05,-1e-05,1e-05,1e-05,5
18722,19323,2.9999999999999997e-05,-4e-05,-0.0001,-0.00021,1e-05,-1e-05,1e-05,1e-05,5
18723,19324,2.9999999999999997e-05,-4e-05,-0.0001,-0.00021,1e-05,-1e-05,1e-05,1e-05,5
18724,19325,2.9999999999999997e-05,-4e-05,-0.0001,-0.00021,1e-05,-1e-05,1e-05,1e-05,5
18725,19326,2.9999999999999997e-05,-4e-05,-0.0001,-0.00021,1e-05,-1e-05,1e-05,1e-05,5
18726,19327,2.9999999999999997e-05,-4e-05,-0.0001,-0.00021,1e-05,-1e-05,1e-05,1e-05,5
18727,19328,2.9999999999999997e-05,-4e-05,-0.0001,-0.00021,1e-05,-1e-05,1e-05,1e-05,5
18728,19330,2.9999999999999997e-05,-4e-05,-0.0001,-0.00021,1e-05,-1e-05,1e-05,1e-05,5
18729,19331,-4e-05,-2e-05,-2e-05,0.00036,0.00047000000000000004,-4e-05,-5e-05,-2e-05,5
18730,19332,-4e-05,-2e-05,-2e-05,0.00036,0.00047000000000000004,-4e-05,-5e-05,-2e-05,5
18731,19333,-4e-05,-2e-05,-2e-05,0.00036,0.00047000000000000004,-4e-05,-5e-05,-2e-05,5
18732,19334,-4e-05,-2e-05,-2e-05,0.00036,0.00047000000000000004,-4e-05,-5e-05,-2e-05,5
18733,19335,-4e-05,-2e-05,-2e-05,0.00036,0.00047000000000000004,-4e-05,-5e-05,-2e-05,5
18734,19336,-4e-05,-2e-05,-2e-05,0.00036,0.00047000000000000004,-4e-05,-5e-05,-2e-05,5
18735,19338,-4e-05,-2e-05,-2e-05,0.00036,0.00047000000000000004,-4e-05,-5e-05,-2e-05,5
18736,19339,-4e-05,-2e-05,-2e-05,0.00036,0.00047000000000000004,-4e-05,-5e-05,-2e-05,5
18737,19340,-5e-05,-0.0001,-0.00016,-0.00026000000000000003,5.9999999999999995e-05,0.0,-2.9999999999999997e-05,-7e-05,5
18738,19341,-5e-05,-0.0001,-0.00016,-0.00026000000000000003,5.9999999999999995e-05,0.0,-2.9999999999999997e-05,-7e-05,5
18739,19342,-5e-05,-0.0001,-0.00016,-0.00026000000000000003,5.9999999999999995e-05,0.0,-2.9999999999999997e-05,-7e-05,5
18740,19343,-5e-05,-0.0001,-0.00016,-0.00026000000000000003,5.9999999999999995e-05,0.0,-2.9999999999999997e-05,-7e-05,5
18741,19344,-5e-05,-0.0001,-0.00016,-0.00026000000000000003,5.9999999999999995e-05,0.0,-2.9999999999999997e-05,-7e-05,5
18742,19345,-5e-05,-0.0001,-0.00016,-0.00026000000000000003,5.9999999999999995e-05,0.0,-2.9999999999999997e-05,-7e-05,5
18743,19346,-5e-05,-0.0001,-0.00016,-0.00026000000000000003,5.9999999999999995e-05,0.0,-2.9999999999999997e-05,-7e-05,5
18744,19347,-5e-05,-0.0001,-0.00016,-0.00026000000000000003,5.9999999999999995e-05,0.0,-2.9999999999999997e-05,-7e-05,5
18745,19348,-5e-05,-0.0001,-0.00016,-0.00026000000000000003,5.9999999999999995e-05,0.0,-2.9999999999999997e-05,-7e-05,5
18746,19349,-5e-05,-0.0001,-0.00016,-0.00026000000000000003,5.9999999999999995e-05,0.0,-2.9999999999999997e-05,-7e-05,5
18747,19350,-5e-05,-0.0001,-0.00016,-0.00026000000000000003,5.9999999999999995e-05,0.0,-2.9999999999999997e-05,-7e-05,5
18748,19351,-5e-05,-0.0001,-0.00016,-0.00026000000000000003,5.9999999999999995e-05,0.0,-2.9999999999999997e-05,-7e-05,5
18749,19352,-5e-05,-0.0001,-0.00016,-0.00026000000000000003,5.9999999999999995e-05,0.0,-2.9999999999999997e-05,-7e-05,5
18750,19353,-5e-05,-0.0001,-0.00016,-0.00026000000000000003,5.9999999999999995e-05,0.0,-2.9999999999999997e-05,-7e-05,5
18751,19354,-5e-05,-0.0001,-0.00016,-0.00026000000000000003,5.9999999999999995e-05,0.0,-2.9999999999999997e-05,-7e-05,5
18752,19355,-2.9999999999999997e-05,-9e-05,-0.00016,-0.00033,-0.0005,-0.00016999999999999999,-0.0001,-5.9999999999999995e-05,5
18753,19356,-2.9999999999999997e-05,-9e-05,-0.00016,-0.00033,-0.0005,-0.00016999999999999999,-0.0001,-5.9999999999999995e-05,5
18754,19357,5.9999999999999995e-05,5e-05,1e-05,-0.00044,-0.0005099999999999999,-1e-05,5.9999999999999995e-05,1e-05,5
18755,19358,5.9999999999999995e-05,5e-05,1e-05,-0.00044,-0.0005099999999999999,-1e-05,5.9999999999999995e-05,1e-05,5
18756,19359,5.9999999999999995e-05,5e-05,1e-05,-0.00044,-0.0005099999999999999,-1e-05,5.9999999999999995e-05,1e-05,5
18757,19360,5.9999999999999995e-05,5e-05,1e-05,-0.00044,-0.0005099999999999999,-1e-05,5.9999999999999995e-05,1e-05,5
18758,19361,5.9999999999999995e-05,5e-05,1e-05,-0.00044,-0.0005099999999999999,-1e-05,5.9999999999999995e-05,1e-05,5
18759,19362,5.9999999999999995e-05,5e-05,1e-05,-0.00044,-0.0005099999999999999,-1e-05,5.9999999999999995e-05,1e-05,5
18760,19363,5.9999999999999995e-05,5e-05,1e-05,-0.00044,-0.0005099999999999999,-1e-05,5.9999999999999995e-05,1e-05,5
18761,19364,5.9999999999999995e-05,5e-05,1e-05,-0.00044,-0.0005099999999999999,-1e-05,5.9999999999999995e-05,1e-05,5
18762,19365,5.9999999999999995e-05,5e-05,1e-05,-0.00044,-0.0005099999999999999,-1e-05,5.9999999999999995e-05,1e-05,5
18763,19366,5.9999999999999995e-05,5e-05,1e-05,-0.00044,-0.0005099999999999999,-1e-05,5.9999999999999995e-05,1e-05,5
18764,19367,5.9999999999999995e-05,5e-05,1e-05,-0.00044,-0.0005099999999999999,-1e-05,5.9999999999999995e-05,1e-05,5
18765,19368,5.9999999999999995e-05,5e-05,1e-05,-0.00044,-0.0005099999999999999,-1e-05,5.9999999999999995e-05,1e-05,5
18766,19369,5.9999999999999995e-05,5e-05,1e-05,-0.00044,-0.0005099999999999999,-1e-05,5.9999999999999995e-05,1e-05,5
18767,19370,5.9999999999999995e-05,5e-05,1e-05,-0.00044,-0.0005099999999999999,-1e-05,5.9999999999999995e-05,1e-05,5
18768,19371,5.9999999999999995e-05,5e-05,1e-05,-0.00044,-0.0005099999999999999,-1e-05,5.9999999999999995e-05,1e-05,5
18769,19372,5.9999999999999995e-05,5e-05,1e-05,-0.00044,-0.0005099999999999999,-1e-05,5.9999999999999995e-05,1e-05,5
18770,19373,5.9999999999999995e-05,5e-05,1e-05,-0.00044,-0.0005099999999999999,-1e-05,5.9999999999999995e-05,1e-05,5
18771,19374,5.9999999999999995e-05,5e-05,1e-05,-0.00044,-0.0005099999999999999,-1e-05,5.9999999999999995e-05,1e-05,5
18772,19375,5.9999999999999995e-05,5e-05,1e-05,-0.00044,-0.0005099999999999999,-1e-05,5.9999999999999995e-05,1e-05,5
18773,19376,5.9999999999999995e-05,5e-05,1e-05,-0.00044,-0.0005099999999999999,-1e-05,5.9999999999999995e-05,1e-05,5
18774,19377,5.9999999999999995e-05,5e-05,1e-05,-0.00044,-0.0005099999999999999,-1e-05,5.9999999999999995e-05,1e-05,5
18775,19378,-2e-05,2e-05,-4e-05,-0.00062,0.00011999999999999999,0.0,2e-05,-5e-05,5
18776,19379,1e-05,2e-05,-4e-05,-0.00063,-0.00032,0.00011999999999999999,8e-05,-4e-05,5
18777,19380,1e-05,2e-05,-4e-05,-0.00063,-0.00032,0.00011999999999999999,8e-05,-4e-05,5
18778,19381,1e-05,2e-05,-4e-05,-0.00063,-0.00032,0.00011999999999999999,8e-05,-4e-05,5
18779,19382,1e-05,2e-05,-4e-05,-0.00063,-0.00032,0.00011999999999999999,8e-05,-4e-05,5
18780,19383,1e-05,2e-05,-4e-05,-0.00063,-0.00032,0.00011999999999999999,8e-05,-4e-05,5
18781,19384,1e-05,2e-05,-4e-05,-0.00063,-0.00032,0.00011999999999999999,8e-05,-4e-05,5
18782,19385,1e-05,2e-05,-4e-05,-0.00063,-0.00032,0.00011999999999999999,8e-05,-4e-05,5
18783,19386,1e-05,2e-05,-4e-05,-0.00063,-0.00032,0.00011999999999999999,8e-05,-4e-05,5
18784,19388,1e-05,2e-05,-4e-05,-0.00063,-0.00032,0.00011999999999999999,8e-05,-4e-05,5
18785,19389,1e-05,2e-05,-4e-05,-0.00063,-0.00032,0.00011999999999999999,8e-05,-4e-05,5
18786,19390,1e-05,2e-05,-4e-05,-0.00063,-0.00032,0.00011999999999999999,8e-05,-4e-05,5
18787,19391,1e-05,2e-05,-4e-05,-0.00063,-0.00032,0.00011999999999999999,8e-05,-4e-05,5
18788,19392,2.9999999999999997e-05,-2e-05,-2e-05,5e-05,8e-05,4e-05,-5e-05,-4e-05,5
18789,19393,2.9999999999999997e-05,-2e-05,-2e-05,5e-05,8e-05,4e-05,-5e-05,-4e-05,5
18790,19394,2.9999999999999997e-05,-2e-05,-2e-05,5e-05,8e-05,4e-05,-5e-05,-4e-05,5
18791,19395,2.9999999999999997e-05,-2e-05,-2e-05,5e-05,8e-05,4e-05,-5e-05,-4e-05,5
18792,19396,2.9999999999999997e-05,-2e-05,-2e-05,5e-05,8e-05,4e-05,-5e-05,-4e-05,5
18793,19397,2.9999999999999997e-05,-2e-05,-2e-05,5e-05,8e-05,4e-05,-5e-05,-4e-05,5
18794,19398,2.9999999999999997e-05,-2e-05,-2e-05,5e-05,8e-05,4e-05,-5e-05,-4e-05,5
18795,19399,2.9999999999999997e-05,-2e-05,-2e-05,5e-05,8e-05,4e-05,-5e-05,-4e-05,5
18796,19400,-8e-05,-8e-05,-2e-05,-0.00037999999999999997,-0.00029,-9e-05,-8e-05,-9e-05,5
18797,19401,-8e-05,-8e-05,-2e-05,-0.00037999999999999997,-0.00029,-9e-05,-8e-05,-9e-05,5
18798,19402,-8e-05,-8e-05,-2e-05,-0.00037999999999999997,-0.00029,-9e-05,-8e-05,-9e-05,5
18799,19403,-8e-05,-8e-05,-2e-05,-0.00037999999999999997,-0.00029,-9e-05,-8e-05,-9e-05,5
18800,19404,-8e-05,-8e-05,-2e-05,-0.00037999999999999997,-0.00029,-9e-05,-8e-05,-9e-05,5
18801,19405,-8e-05,-8e-05,-2e-05,-0.00037999999999999997,-0.00029,-9e-05,-8e-05,-9e-05,5
18802,19406,-8e-05,-8e-05,-2e-05,-0.00037999999999999997,-0.00029,-9e-05,-8e-05,-9e-05,5
18803,19407,-8e-05,-8e-05,-2e-05,-0.00037999999999999997,-0.00029,-9e-05,-8e-05,-9e-05,5
18804,19408,-8e-05,-8e-05,-2e-05,-0.00037999999999999997,-0.00029,-9e-05,-8e-05,-9e-05,5
18805,19409,-8e-05,-8e-05,-2e-05,-0.00037999999999999997,-0.00029,-9e-05,-8e-05,-9e-05,5
18806,19410,-8e-05,-8e-05,-2e-05,-0.00037999999999999997,-0.00029,-9e-05,-8e-05,-9e-05,5
18807,19411,-8e-05,-8e-05,-2e-05,-0.00037999999999999997,-0.00029,-9e-05,-8e-05,-9e-05,5
18808,19412,-8e-05,-8e-05,-2e-05,-0.00037999999999999997,-0.00029,-9e-05,-8e-05,-9e-05,5
18809,19413,-8e-05,-8e-05,-2e-05,-0.00037999999999999997,-0.00029,-9e-05,-8e-05,-9e-05,5
18810,19414,-8e-05,-8e-05,-2e-05,-0.00037999999999999997,-0.00029,-9e-05,-8e-05,-9e-05,5
18811,19415,7e-05,7e-05,7e-05,-0.0002,7e-05,8e-05,0.00013000000000000002,0.00013000000000000002,5
18812,19416,7e-05,7e-05,7e-05,-0.0002,7e-05,8e-05,0.00013000000000000002,0.00013000000000000002,5
18813,19417,-2e-05,-4e-05,-1e-05,0.00043,2.9999999999999997e-05,1e-05,-4e-05,5e-05,5
18814,19418,-2e-05,-4e-05,-1e-05,0.00043,2.9999999999999997e-05,1e-05,-4e-05,5e-05,5
18815,19419,-2e-05,-4e-05,-1e-05,0.00043,2.9999999999999997e-05,1e-05,-4e-05,5e-05,5
18816,19420,-2e-05,-4e-05,-1e-05,0.00043,2.9999999999999997e-05,1e-05,-4e-05,5e-05,5
18817,19421,-2e-05,-4e-05,-1e-05,0.00043,2.9999999999999997e-05,1e-05,-4e-05,5e-05,5
18818,19422,-2e-05,-4e-05,-1e-05,0.00043,2.9999999999999997e-05,1e-05,-4e-05,5e-05,5
18819,19424,-2e-05,-4e-05,-1e-05,0.00043,2.9999999999999997e-05,1e-05,-4e-05,5e-05,5
18820,19425,-2e-05,-4e-05,-1e-05,0.00043,2.9999999999999997e-05,1e-05,-4e-05,5e-05,5
18821,19426,-2e-05,-4e-05,-1e-05,0.00043,2.9999999999999997e-05,1e-05,-4e-05,5e-05,5
18822,19427,-2e-05,-4e-05,-1e-05,0.00043,2.9999999999999997e-05,1e-05,-4e-05,5e-05,5
18823,19428,-2e-05,-4e-05,-1e-05,0.00043,2.9999999999999997e-05,1e-05,-4e-05,5e-05,5
18824,19429,-2e-05,-4e-05,-1e-05,0.00043,2.9999999999999997e-05,1e-05,-4e-05,5e-05,5
18825,19430,-2e-05,-4e-05,-1e-05,0.00043,2.9999999999999997e-05,1e-05,-4e-05,5e-05,5
18826,19431,-2e-05,-4e-05,-1e-05,0.00043,2.9999999999999997e-05,1e-05,-4e-05,5e-05,5
18827,19432,-2e-05,-4e-05,-1e-05,0.00043,2.9999999999999997e-05,1e-05,-4e-05,5e-05,5
18828,19433,-2e-05,-4e-05,-1e-05,0.00043,2.9999999999999997e-05,1e-05,-4e-05,5e-05,5
18829,19434,-2e-05,-4e-05,-1e-05,0.00043,2.9999999999999997e-05,1e-05,-4e-05,5e-05,5
18830,19435,-2e-05,-4e-05,-1e-05,0.00043,2.9999999999999997e-05,1e-05,-4e-05,5e-05,5
18831,19436,-2e-05,-4e-05,-1e-05,0.00043,2.9999999999999997e-05,1e-05,-4e-05,5e-05,5
18832,19438,0.0,-7e-05,-0.00016999999999999999,-0.00025,-0.00028,-8e-05,-5e-05,-2e-05,5
18833,19439,1e-05,2e-05,5.9999999999999995e-05,0.00031,-0.00037,-0.00029,-0.0001,2e-05,5
18834,19440,1e-05,2e-05,5.9999999999999995e-05,0.00031,-0.00037,-0.00029,-0.0001,2e-05,5
18835,19441,1e-05,2e-05,5.9999999999999995e-05,0.00031,-0.00037,-0.00029,-0.0001,2e-05,5
18836,19442,1e-05,2e-05,5.9999999999999995e-05,0.00031,-0.00037,-0.00029,-0.0001,2e-05,5
18837,19443,1e-05,2e-05,5.9999999999999995e-05,0.00031,-0.00037,-0.00029,-0.0001,2e-05,5
18838,19444,1e-05,2e-05,5.9999999999999995e-05,0.00031,-0.00037,-0.00029,-0.0001,2e-05,5
18839,19445,1e-05,2e-05,5.9999999999999995e-05,0.00031,-0.00037,-0.00029,-0.0001,2e-05,5
18840,19446,1e-05,2e-05,5.9999999999999995e-05,0.00031,-0.00037,-0.00029,-0.0001,2e-05,5
18841,19447,1e-05,2e-05,5.9999999999999995e-05,0.00031,-0.00037,-0.00029,-0.0001,2e-05,5
18842,19448,1e-05,2e-05,5.9999999999999995e-05,0.00031,-0.00037,-0.00029,-0.0001,2e-05,5
18843,19449,1e-05,2e-05,5.9999999999999995e-05,0.00031,-0.00037,-0.00029,-0.0001,2e-05,5
18844,19450,1e-05,2e-05,5.9999999999999995e-05,0.00031,-0.00037,-0.00029,-0.0001,2e-05,5
18845,19451,1e-05,2e-05,5.9999999999999995e-05,0.00031,-0.00037,-0.00029,-0.0001,2e-05,5
18846,19452,1e-05,2e-05,5.9999999999999995e-05,0.00031,-0.00037,-0.00029,-0.0001,2e-05,5
18847,19453,1e-05,2e-05,5.9999999999999995e-05,0.00031,-0.00037,-0.00029,-0.0001,2e-05,5
18848,19454,1e-05,2e-05,5.9999999999999995e-05,0.00031,-0.00037,-0.00029,-0.0001,2e-05,5
18849,19455,1e-05,2e-05,5.9999999999999995e-05,0.00031,-0.00037,-0.00029,-0.0001,2e-05,5
18850,19456,1e-05,2e-05,5.9999999999999995e-05,0.00031,-0.00037,-0.00029,-0.0001,2e-05,5
18851,19457,1e-05,2e-05,5.9999999999999995e-05,0.00031,-0.00037,-0.00029,-0.0001,2e-05,5
18852,19458,1e-05,2e-05,5.9999999999999995e-05,0.00031,-0.00037,-0.00029,-0.0001,2e-05,5
18853,19459,1e-05,2e-05,5.9999999999999995e-05,0.00031,-0.00037,-0.00029,-0.0001,2e-05,5
18854,19460,2e-05,0.0,2e-05,0.00059,-0.00016999999999999999,-5e-05,-2.9999999999999997e-05,-1e-05,5
18855,19461,2e-05,0.0,2e-05,0.00059,-0.00016999999999999999,-5e-05,-2.9999999999999997e-05,-1e-05,5
18856,19462,-1e-05,-1e-05,1e-05,-2e-05,0.00011999999999999999,2e-05,0.0,-2.9999999999999997e-05,5
18857,19463,-1e-05,-1e-05,1e-05,-2e-05,0.00011999999999999999,2e-05,0.0,-2.9999999999999997e-05,5
18858,19464,-1e-05,-1e-05,1e-05,-2e-05,0.00011999999999999999,2e-05,0.0,-2.9999999999999997e-05,5
18859,19465,-1e-05,-1e-05,1e-05,-2e-05,0.00011999999999999999,2e-05,0.0,-2.9999999999999997e-05,5
18860,19466,-1e-05,-1e-05,1e-05,-2e-05,0.00011999999999999999,2e-05,0.0,-2.9999999999999997e-05,5
18861,19467,-1e-05,-1e-05,1e-05,-2e-05,0.00011999999999999999,2e-05,0.0,-2.9999999999999997e-05,5
18862,19468,-1e-05,-1e-05,1e-05,-2e-05,0.00011999999999999999,2e-05,0.0,-2.9999999999999997e-05,5
18863,19469,-1e-05,-1e-05,1e-05,-2e-05,0.00011999999999999999,2e-05,0.0,-2.9999999999999997e-05,5
18864,19470,-1e-05,-1e-05,1e-05,-2e-05,0.00011999999999999999,2e-05,0.0,-2.9999999999999997e-05,5
18865,19471,-1e-05,-1e-05,1e-05,-2e-05,0.00011999999999999999,2e-05,0.0,-2.9999999999999997e-05,5
18866,19472,-1e-05,-1e-05,1e-05,-2e-05,0.00011999999999999999,2e-05,0.0,-2.9999999999999997e-05,5
18867,19473,-1e-05,-1e-05,1e-05,-2e-05,0.00011999999999999999,2e-05,0.0,-2.9999999999999997e-05,5
18868,19474,-1e-05,-1e-05,1e-05,-2e-05,0.00011999999999999999,2e-05,0.0,-2.9999999999999997e-05,5
18869,19475,7e-05,5.9999999999999995e-05,8e-05,2e-05,-0.00016,2.9999999999999997e-05,2.9999999999999997e-05,1e-05,5
18870,19476,7e-05,5.9999999999999995e-05,8e-05,2e-05,-0.00016,2.9999999999999997e-05,2.9999999999999997e-05,1e-05,5
18871,19477,-5e-05,-0.00011,-0.00016999999999999999,4e-05,0.00075,0.00011999999999999999,-2e-05,5e-05,5
18872,19478,-5e-05,-0.00011,-0.00016999999999999999,4e-05,0.00075,0.00011999999999999999,-2e-05,5e-05,5
18873,19479,-5e-05,-0.00011,-0.00016999999999999999,4e-05,0.00075,0.00011999999999999999,-2e-05,5e-05,5
18874,19480,-5e-05,-0.00011,-0.00016999999999999999,4e-05,0.00075,0.00011999999999999999,-2e-05,5e-05,5
18875,19481,-5e-05,-0.00011,-0.00016999999999999999,4e-05,0.00075,0.00011999999999999999,-2e-05,5e-05,5
18876,19482,-5e-05,-0.00011,-0.00016999999999999999,4e-05,0.00075,0.00011999999999999999,-2e-05,5e-05,5
18877,19483,-5e-05,-0.00011,-0.00016999999999999999,4e-05,0.00075,0.00011999999999999999,-2e-05,5e-05,5
18878,19484,-5e-05,-0.00011,-0.00016999999999999999,4e-05,0.00075,0.00011999999999999999,-2e-05,5e-05,5
18879,19485,-5e-05,-0.00011,-0.00016999999999999999,4e-05,0.00075,0.00011999999999999999,-2e-05,5e-05,5
18880,19486,-5e-05,-0.00011,-0.00016999999999999999,4e-05,0.00075,0.00011999999999999999,-2e-05,5e-05,5
18881,19488,-5e-05,-0.00011,-0.00016999999999999999,4e-05,0.00075,0.00011999999999999999,-2e-05,5e-05,5
18882,19489,-5e-05,-0.00011,-0.00016999999999999999,4e-05,0.00075,0.00011999999999999999,-2e-05,5e-05,5
18883,19490,-5e-05,-0.00011,-0.00016999999999999999,4e-05,0.00075,0.00011999999999999999,-2e-05,5e-05,5
18884,19491,-5e-05,-0.00011,-0.00016999999999999999,4e-05,0.00075,0.00011999999999999999,-2e-05,5e-05,5
18885,19492,-5e-05,-0.00011,-0.00016999999999999999,4e-05,0.00075,0.00011999999999999999,-2e-05,5e-05,5
18886,19493,-5e-05,-0.00011,-0.00016999999999999999,4e-05,0.00075,0.00011999999999999999,-2e-05,5e-05,5
18887,19494,-5e-05,-0.00011,-0.00016999999999999999,4e-05,0.00075,0.00011999999999999999,-2e-05,5e-05,5
18888,19495,-5e-05,-0.00011,-0.00016999999999999999,4e-05,0.00075,0.00011999999999999999,-2e-05,5e-05,5
18889,19496,-5e-05,-0.00011,-0.00016999999999999999,4e-05,0.00075,0.00011999999999999999,-2e-05,5e-05,5
18890,19497,-5e-05,-0.00011,-0.00016999999999999999,4e-05,0.00075,0.00011999999999999999,-2e-05,5e-05,5
18891,19498,-2.9999999999999997e-05,-5e-05,2e-05,0.0,9e-05,-5.9999999999999995e-05,-5.9999999999999995e-05,-2.9999999999999997e-05,5
18892,19499,5e-05,0.00014,0.00021,-0.00028,0.00054,0.00029,4e-05,7e-05,5
18893,19500,5e-05,0.00014,0.00021,-0.00028,0.00054,0.00029,4e-05,7e-05,5
18894,19501,5e-05,0.00014,0.00021,-0.00028,0.00054,0.00029,4e-05,7e-05,5
18895,19502,5e-05,0.00014,0.00021,-0.00028,0.00054,0.00029,4e-05,7e-05,5
18896,19503,5e-05,0.00014,0.00021,-0.00028,0.00054,0.00029,4e-05,7e-05,5
18897,19504,5e-05,0.00014,0.00021,-0.00028,0.00054,0.00029,4e-05,7e-05,5
18898,19505,5e-05,0.00014,0.00021,-0.00028,0.00054,0.00029,4e-05,7e-05,5
18899,19506,5e-05,0.00014,0.00021,-0.00028,0.00054,0.00029,4e-05,7e-05,5
18900,19507,5e-05,0.00014,0.00021,-0.00028,0.00054,0.00029,4e-05,7e-05,5
18901,19508,5e-05,0.00014,0.00021,-0.00028,0.00054,0.00029,4e-05,7e-05,5
18902,19509,5e-05,0.00014,0.00021,-0.00028,0.00054,0.00029,4e-05,7e-05,5
18903,19510,5e-05,0.00014,0.00021,-0.00028,0.00054,0.00029,4e-05,7e-05,5
18904,19511,5e-05,0.00014,0.00021,-0.00028,0.00054,0.00029,4e-05,7e-05,5
18905,19512,5e-05,0.00014,0.00021,-0.00028,0.00054,0.00029,4e-05,7e-05,5
18906,19513,5e-05,0.00014,0.00021,-0.00028,0.00054,0.00029,4e-05,7e-05,5
18907,19514,5e-05,0.00014,0.00021,-0.00028,0.00054,0.00029,4e-05,7e-05,5
18908,19515,5e-05,0.00014,0.00021,-0.00028,0.00054,0.00029,4e-05,7e-05,5
18909,19516,5e-05,0.00014,0.00021,-0.00028,0.00054,0.00029,4e-05,7e-05,5
18910,19517,5e-05,0.00014,0.00021,-0.00028,0.00054,0.00029,4e-05,7e-05,5
18911,19518,5e-05,0.00014,0.00021,-0.00028,0.00054,0.00029,4e-05,7e-05,5
18912,19519,5e-05,0.00014,0.00021,-0.00028,0.00054,0.00029,4e-05,7e-05,5
18913,19520,-5.9999999999999995e-05,-4e-05,2.9999999999999997e-05,0.00018999999999999998,-0.00015,2e-05,2e-05,0.00011999999999999999,5
18914,19521,-5.9999999999999995e-05,-4e-05,2.9999999999999997e-05,0.00018999999999999998,-0.00015,2e-05,2e-05,0.00011999999999999999,5
18915,19522,7e-05,-5e-05,-9e-05,-0.00047999999999999996,-0.00043,-0.00011999999999999999,-2.9999999999999997e-05,-1e-05,5
18916,19523,7e-05,-5e-05,-9e-05,-0.00047999999999999996,-0.00043,-0.00011999999999999999,-2.9999999999999997e-05,-1e-05,5
18917,19524,7e-05,-5e-05,-9e-05,-0.00047999999999999996,-0.00043,-0.00011999999999999999,-2.9999999999999997e-05,-1e-05,5
18918,19525,7e-05,-5e-05,-9e-05,-0.00047999999999999996,-0.00043,-0.00011999999999999999,-2.9999999999999997e-05,-1e-05,5
18919,19526,7e-05,-5e-05,-9e-05,-0.00047999999999999996,-0.00043,-0.00011999999999999999,-2.9999999999999997e-05,-1e-05,5
18920,19527,7e-05,-5e-05,-9e-05,-0.00047999999999999996,-0.00043,-0.00011999999999999999,-2.9999999999999997e-05,-1e-05,5
18921,19528,7e-05,-5e-05,-9e-05,-0.00047999999999999996,-0.00043,-0.00011999999999999999,-2.9999999999999997e-05,-1e-05,5
18922,19529,7e-05,-5e-05,-9e-05,-0.00047999999999999996,-0.00043,-0.00011999999999999999,-2.9999999999999997e-05,-1e-05,5
18923,19530,7e-05,-5e-05,-9e-05,-0.00047999999999999996,-0.00043,-0.00011999999999999999,-2.9999999999999997e-05,-1e-05,5
18924,19531,7e-05,-5e-05,-9e-05,-0.00047999999999999996,-0.00043,-0.00011999999999999999,-2.9999999999999997e-05,-1e-05,5
18925,19532,7e-05,-5e-05,-9e-05,-0.00047999999999999996,-0.00043,-0.00011999999999999999,-2.9999999999999997e-05,-1e-05,5
18926,19533,7e-05,-5e-05,-9e-05,-0.00047999999999999996,-0.00043,-0.00011999999999999999,-2.9999999999999997e-05,-1e-05,5
18927,19534,-0.00016999999999999999,-9e-05,-0.00014,-0.0001,0.00056,4e-05,0.0,-0.00013000000000000002,5
18928,19535,2.9999999999999997e-05,0.00015,0.0002,0.00022,0.00011,9e-05,2e-05,2e-05,5
18929,19536,2.9999999999999997e-05,0.00015,0.0002,0.00022,0.00011,9e-05,2e-05,2e-05,5
18930,19538,2.9999999999999997e-05,0.00015,0.0002,0.00022,0.00011,9e-05,2e-05,2e-05,5
18931,19539,2.9999999999999997e-05,0.00015,0.0002,0.00022,0.00011,9e-05,2e-05,2e-05,5
18932,19540,2.9999999999999997e-05,0.00015,0.0002,0.00022,0.00011,9e-05,2e-05,2e-05,5
18933,19541,-4e-05,-9e-05,-0.00016,0.00016,0.0002,4e-05,1e-05,-8e-05,5
18934,19542,-4e-05,-9e-05,-0.00016,0.00016,0.0002,4e-05,1e-05,-8e-05,5
18935,19543,-4e-05,-9e-05,-0.00016,0.00016,0.0002,4e-05,1e-05,-8e-05,5
18936,19544,-4e-05,-9e-05,-0.00016,0.00016,0.0002,4e-05,1e-05,-8e-05,5
18937,19545,-4e-05,-9e-05,-0.00016,0.00016,0.0002,4e-05,1e-05,-8e-05,5
18938,19546,-4e-05,-9e-05,-0.00016,0.00016,0.0002,4e-05,1e-05,-8e-05,5
18939,19547,-4e-05,-9e-05,-0.00016,0.00016,0.0002,4e-05,1e-05,-8e-05,5
18940,19548,-4e-05,-9e-05,-0.00016,0.00016,0.0002,4e-05,1e-05,-8e-05,5
18941,19549,-4e-05,-9e-05,-0.00016,0.00016,0.0002,4e-05,1e-05,-8e-05,5
18942,19550,-4e-05,-9e-05,-0.00016,0.00016,0.0002,4e-05,1e-05,-8e-05,5
18943,19551,-4e-05,-9e-05,-0.00016,0.00016,0.0002,4e-05,1e-05,-8e-05,5
18944,19552,-4e-05,-9e-05,-0.00016,0.00016,0.0002,4e-05,1e-05,-8e-05,5
18945,19553,-4e-05,-9e-05,-0.00016,0.00016,0.0002,4e-05,1e-05,-8e-05,5
18946,19554,-4e-05,-9e-05,-0.00016,0.00016,0.0002,4e-05,1e-05,-8e-05,5
18947,19555,-4e-05,-9e-05,-0.00016,0.00016,0.0002,4e-05,1e-05,-8e-05,5
18948,19556,-4e-05,-9e-05,-0.00016,0.00016,0.0002,4e-05,1e-05,-8e-05,5
18949,19557,-4e-05,-9e-05,-0.00016,0.00016,0.0002,4e-05,1e-05,-8e-05,5
18950,19558,2.9999999999999997e-05,-5.9999999999999995e-05,-0.00018999999999999998,-0.00031,-0.00033,-0.0001,-5e-05,-2.9999999999999997e-05,5
18951,19559,-0.00013000000000000002,-4e-05,-9e-05,-0.00044,-0.00031,-0.00011,-5.9999999999999995e-05,-5e-05,5
18952,19560,-0.00013000000000000002,-4e-05,-9e-05,-0.00044,-0.00031,-0.00011,-5.9999999999999995e-05,-5e-05,5
18953,19561,-0.00013000000000000002,-4e-05,-9e-05,-0.00044,-0.00031,-0.00011,-5.9999999999999995e-05,-5e-05,5
18954,19562,-0.00013000000000000002,-4e-05,-9e-05,-0.00044,-0.00031,-0.00011,-5.9999999999999995e-05,-5e-05,5
18955,19563,-0.00013000000000000002,-4e-05,-9e-05,-0.00044,-0.00031,-0.00011,-5.9999999999999995e-05,-5e-05,5
18956,19564,-0.00013000000000000002,-4e-05,-9e-05,-0.00044,-0.00031,-0.00011,-5.9999999999999995e-05,-5e-05,5
18957,19565,-0.00013000000000000002,-4e-05,-9e-05,-0.00044,-0.00031,-0.00011,-5.9999999999999995e-05,-5e-05,5
18958,19566,-0.00013000000000000002,-4e-05,-9e-05,-0.00044,-0.00031,-0.00011,-5.9999999999999995e-05,-5e-05,5
18959,19567,-0.00013000000000000002,-4e-05,-9e-05,-0.00044,-0.00031,-0.00011,-5.9999999999999995e-05,-5e-05,5
18960,19568,-0.00013000000000000002,-4e-05,-9e-05,-0.00044,-0.00031,-0.00011,-5.9999999999999995e-05,-5e-05,5
18961,19569,-0.00013000000000000002,-4e-05,-9e-05,-0.00044,-0.00031,-0.00011,-5.9999999999999995e-05,-5e-05,5
18962,19570,-0.00013000000000000002,-4e-05,-9e-05,-0.00044,-0.00031,-0.00011,-5.9999999999999995e-05,-5e-05,5
18963,19571,-0.00013000000000000002,-4e-05,-9e-05,-0.00044,-0.00031,-0.00011,-5.9999999999999995e-05,-5e-05,5
18964,19572,-0.00013000000000000002,-4e-05,-9e-05,-0.00044,-0.00031,-0.00011,-5.9999999999999995e-05,-5e-05,5
18965,19573,-0.00013000000000000002,-4e-05,-9e-05,-0.00044,-0.00031,-0.00011,-5.9999999999999995e-05,-5e-05,5
18966,19574,-0.00013000000000000002,-4e-05,-9e-05,-0.00044,-0.00031,-0.00011,-5.9999999999999995e-05,-5e-05,5
18967,19575,-0.00013000000000000002,-4e-05,-9e-05,-0.00044,-0.00031,-0.00011,-5.9999999999999995e-05,-5e-05,5
18968,19576,-0.00013000000000000002,-4e-05,-9e-05,-0.00044,-0.00031,-0.00011,-5.9999999999999995e-05,-5e-05,5
18969,19577,-0.00013000000000000002,-4e-05,-9e-05,-0.00044,-0.00031,-0.00011,-5.9999999999999995e-05,-5e-05,5
18970,19578,-0.00013000000000000002,-4e-05,-9e-05,-0.00044,-0.00031,-0.00011,-5.9999999999999995e-05,-5e-05,5
18971,19579,-0.00013000000000000002,-4e-05,-9e-05,-0.00044,-0.00031,-0.00011,-5.9999999999999995e-05,-5e-05,5
18972,19580,-1e-05,-2e-05,-2e-05,-9e-05,-0.00047999999999999996,2.9999999999999997e-05,4e-05,2.9999999999999997e-05,5
18973,19581,-1e-05,-2e-05,-2e-05,-9e-05,-0.00047999999999999996,2.9999999999999997e-05,4e-05,2.9999999999999997e-05,5
18974,19582,5.9999999999999995e-05,5e-05,0.00011,0.00056,0.00022,2e-05,0.0,-2.9999999999999997e-05,5
18975,19583,5.9999999999999995e-05,5e-05,0.00011,0.00056,0.00022,2e-05,0.0,-2.9999999999999997e-05,5
18976,19584,5.9999999999999995e-05,5e-05,0.00011,0.00056,0.00022,2e-05,0.0,-2.9999999999999997e-05,5
18977,19585,5.9999999999999995e-05,5e-05,0.00011,0.00056,0.00022,2e-05,0.0,-2.9999999999999997e-05,5
18978,19586,5.9999999999999995e-05,5e-05,0.00011,0.00056,0.00022,2e-05,0.0,-2.9999999999999997e-05,5
18979,19588,5.9999999999999995e-05,5e-05,0.00011,0.00056,0.00022,2e-05,0.0,-2.9999999999999997e-05,5
18980,19589,5.9999999999999995e-05,5e-05,0.00011,0.00056,0.00022,2e-05,0.0,-2.9999999999999997e-05,5
18981,19590,5.9999999999999995e-05,5e-05,0.00011,0.00056,0.00022,2e-05,0.0,-2.9999999999999997e-05,5
18982,19591,5.9999999999999995e-05,5e-05,0.00011,0.00056,0.00022,2e-05,0.0,-2.9999999999999997e-05,5
18983,19592,5.9999999999999995e-05,5e-05,0.00011,0.00056,0.00022,2e-05,0.0,-2.9999999999999997e-05,5
18984,19593,5.9999999999999995e-05,5e-05,0.00011,0.00056,0.00022,2e-05,0.0,-2.9999999999999997e-05,5
18985,19594,5.9999999999999995e-05,5e-05,0.00011,0.00056,0.00022,2e-05,0.0,-2.9999999999999997e-05,5
18986,19595,0.0,-2e-05,-9e-05,-0.00053,0.00031,0.00018999999999999998,4e-05,1e-05,5
18987,19596,0.0,-2e-05,-9e-05,-0.00053,0.00031,0.00018999999999999998,4e-05,1e-05,5
18988,19597,0.00016,9e-05,0.0001,0.00011999999999999999,-0.00025,-5e-05,2e-05,2e-05,5
18989,19598,0.00016,9e-05,0.0001,0.00011999999999999999,-0.00025,-5e-05,2e-05,2e-05,5
18990,19599,0.00016,9e-05,0.0001,0.00011999999999999999,-0.00025,-5e-05,2e-05,2e-05,5
18991,19600,0.00016,9e-05,0.0001,0.00011999999999999999,-0.00025,-5e-05,2e-05,2e-05,5
18992,19601,0.00016,9e-05,0.0001,0.00011999999999999999,-0.00025,-5e-05,2e-05,2e-05,5
18993,19602,0.00016,9e-05,0.0001,0.00011999999999999999,-0.00025,-5e-05,2e-05,2e-05,5
18994,19603,0.00016,9e-05,0.0001,0.00011999999999999999,-0.00025,-5e-05,2e-05,2e-05,5
18995,19604,0.00016,9e-05,0.0001,0.00011999999999999999,-0.00025,-5e-05,2e-05,2e-05,5
18996,19605,0.00016,9e-05,0.0001,0.00011999999999999999,-0.00025,-5e-05,2e-05,2e-05,5
18997,19606,0.00016,9e-05,0.0001,0.00011999999999999999,-0.00025,-5e-05,2e-05,2e-05,5
18998,19607,0.00016,9e-05,0.0001,0.00011999999999999999,-0.00025,-5e-05,2e-05,2e-05,5
18999,19608,0.00016,9e-05,0.0001,0.00011999999999999999,-0.00025,-5e-05,2e-05,2e-05,5
19000,19609,0.00016,9e-05,0.0001,0.00011999999999999999,-0.00025,-5e-05,2e-05,2e-05,5
19001,19610,0.00016,9e-05,0.0001,0.00011999999999999999,-0.00025,-5e-05,2e-05,2e-05,5
19002,19611,0.00016,9e-05,0.0001,0.00011999999999999999,-0.00025,-5e-05,2e-05,2e-05,5
19003,19612,0.00016,9e-05,0.0001,0.00011999999999999999,-0.00025,-5e-05,2e-05,2e-05,5
19004,19613,0.00016,9e-05,0.0001,0.00011999999999999999,-0.00025,-5e-05,2e-05,2e-05,5
19005,19614,0.00016,9e-05,0.0001,0.00011999999999999999,-0.00025,-5e-05,2e-05,2e-05,5
19006,19615,0.00016,9e-05,0.0001,0.00011999999999999999,-0.00025,-5e-05,2e-05,2e-05,5
19007,19616,0.00016,9e-05,0.0001,0.00011999999999999999,-0.00025,-5e-05,2e-05,2e-05,5
19008,19617,-4e-05,-0.00011,-0.00016,-8e-05,0.0,-0.00013000000000000002,-0.00011,-5e-05,5
19009,19618,-4e-05,-0.00011,-0.00016,-8e-05,0.0,-0.00013000000000000002,-0.00011,-5e-05,5
19010,19619,-4e-05,-0.00011,-0.00016,-8e-05,0.0,-0.00013000000000000002,-0.00011,-5e-05,5
19011,19620,-4e-05,-0.00011,-0.00016,-8e-05,0.0,-0.00013000000000000002,-0.00011,-5e-05,5
19012,19621,-4e-05,-0.00011,-0.00016,-8e-05,0.0,-0.00013000000000000002,-0.00011,-5e-05,5
19013,19622,-4e-05,-0.00011,-0.00016,-8e-05,0.0,-0.00013000000000000002,-0.00011,-5e-05,5
19014,19623,-4e-05,-0.00011,-0.00016,-8e-05,0.0,-0.00013000000000000002,-0.00011,-5e-05,5
19015,19624,-0.00013000000000000002,-0.00013000000000000002,-0.00011,0.00018,0.00041,2e-05,-2.9999999999999997e-05,-2.9999999999999997e-05,5
19016,19625,-0.00013000000000000002,-0.00013000000000000002,-0.00011,0.00018,0.00041,2e-05,-2.9999999999999997e-05,-2.9999999999999997e-05,5
19017,19626,-0.00013000000000000002,-0.00013000000000000002,-0.00011,0.00018,0.00041,2e-05,-2.9999999999999997e-05,-2.9999999999999997e-05,5
19018,19627,-0.00013000000000000002,-0.00013000000000000002,-0.00011,0.00018,0.00041,2e-05,-2.9999999999999997e-05,-2.9999999999999997e-05,5
19019,19628,-0.00013000000000000002,-0.00013000000000000002,-0.00011,0.00018,0.00041,2e-05,-2.9999999999999997e-05,-2.9999999999999997e-05,5
19020,19629,-0.00013000000000000002,-0.00013000000000000002,-0.00011,0.00018,0.00041,2e-05,-2.9999999999999997e-05,-2.9999999999999997e-05,5
19021,19630,-0.00013000000000000002,-0.00013000000000000002,-0.00011,0.00018,0.00041,2e-05,-2.9999999999999997e-05,-2.9999999999999997e-05,5
19022,19631,-0.00013000000000000002,-0.00013000000000000002,-0.00011,0.00018,0.00041,2e-05,-2.9999999999999997e-05,-2.9999999999999997e-05,5
19023,19632,-0.00013000000000000002,-0.00013000000000000002,-0.00011,0.00018,0.00041,2e-05,-2.9999999999999997e-05,-2.9999999999999997e-05,5
19024,19633,-0.00013000000000000002,-0.00013000000000000002,-0.00011,0.00018,0.00041,2e-05,-2.9999999999999997e-05,-2.9999999999999997e-05,5
19025,19634,-0.00013000000000000002,-0.00013000000000000002,-0.00011,0.00018,0.00041,2e-05,-2.9999999999999997e-05,-2.9999999999999997e-05,5
19026,19635,-0.00013000000000000002,-0.00013000000000000002,-0.00011,0.00018,0.00041,2e-05,-2.9999999999999997e-05,-2.9999999999999997e-05,5
19027,19636,-0.00013000000000000002,-0.00013000000000000002,-0.00011,0.00018,0.00041,2e-05,-2.9999999999999997e-05,-2.9999999999999997e-05,5
19028,19638,-0.00013000000000000002,-0.00013000000000000002,-0.00011,0.00018,0.00041,2e-05,-2.9999999999999997e-05,-2.9999999999999997e-05,5
19029,19639,-0.00013000000000000002,-0.00013000000000000002,-0.00011,0.00018,0.00041,2e-05,-2.9999999999999997e-05,-2.9999999999999997e-05,5
19030,19640,-5e-05,-8e-05,-5.9999999999999995e-05,-0.0001,5.9999999999999995e-05,-0.0001,-9e-05,-5.9999999999999995e-05,5
19031,19641,-5e-05,-8e-05,-5.9999999999999995e-05,-0.0001,5.9999999999999995e-05,-0.0001,-9e-05,-5.9999999999999995e-05,5
19032,19642,-5.9999999999999995e-05,-2e-05,-2e-05,8e-05,-1e-05,-0.00018999999999999998,-2.9999999999999997e-05,-9e-05,5
19033,19643,-5.9999999999999995e-05,-2e-05,-2e-05,8e-05,-1e-05,-0.00018999999999999998,-2.9999999999999997e-05,-9e-05,5
19034,19644,-5.9999999999999995e-05,-2e-05,-2e-05,8e-05,-1e-05,-0.00018999999999999998,-2.9999999999999997e-05,-9e-05,5
19035,19645,-5.9999999999999995e-05,-2e-05,-2e-05,8e-05,-1e-05,-0.00018999999999999998,-2.9999999999999997e-05,-9e-05,5
19036,19646,-5.9999999999999995e-05,-2e-05,-2e-05,8e-05,-1e-05,-0.00018999999999999998,-2.9999999999999997e-05,-9e-05,5
19037,19647,-5.9999999999999995e-05,-2e-05,-2e-05,8e-05,-1e-05,-0.00018999999999999998,-2.9999999999999997e-05,-9e-05,5
19038,19648,-5.9999999999999995e-05,-2e-05,-2e-05,8e-05,-1e-05,-0.00018999999999999998,-2.9999999999999997e-05,-9e-05,5
19039,19649,-5.9999999999999995e-05,-2e-05,-2e-05,8e-05,-1e-05,-0.00018999999999999998,-2.9999999999999997e-05,-9e-05,5
19040,19650,-5.9999999999999995e-05,-2e-05,-2e-05,8e-05,-1e-05,-0.00018999999999999998,-2.9999999999999997e-05,-9e-05,5
19041,19651,-5.9999999999999995e-05,-2e-05,-2e-05,8e-05,-1e-05,-0.00018999999999999998,-2.9999999999999997e-05,-9e-05,5
19042,19652,-5.9999999999999995e-05,-2e-05,-2e-05,8e-05,-1e-05,-0.00018999999999999998,-2.9999999999999997e-05,-9e-05,5
19043,19653,-5.9999999999999995e-05,-2e-05,-2e-05,8e-05,-1e-05,-0.00018999999999999998,-2.9999999999999997e-05,-9e-05,5
19044,19654,-5.9999999999999995e-05,-2e-05,-2e-05,8e-05,-1e-05,-0.00018999999999999998,-2.9999999999999997e-05,-9e-05,5
19045,19655,-2.9999999999999997e-05,0.0,5e-05,0.0004,-0.00025,-4e-05,-4e-05,-4e-05,5
19046,19656,-2.9999999999999997e-05,0.0,5e-05,0.0004,-0.00025,-4e-05,-4e-05,-4e-05,5
19047,19657,-2.9999999999999997e-05,0.0,5e-05,0.0004,-0.00025,-4e-05,-4e-05,-4e-05,5
19048,19658,-2.9999999999999997e-05,0.0,5e-05,0.0004,-0.00025,-4e-05,-4e-05,-4e-05,5
19049,19659,-2.9999999999999997e-05,0.0,5e-05,0.0004,-0.00025,-4e-05,-4e-05,-4e-05,5
19050,19660,-2.9999999999999997e-05,0.0,5e-05,0.0004,-0.00025,-4e-05,-4e-05,-4e-05,5
19051,19661,-2.9999999999999997e-05,0.0,5e-05,0.0004,-0.00025,-4e-05,-4e-05,-4e-05,5
19052,19662,-2.9999999999999997e-05,0.0,5e-05,0.0004,-0.00025,-4e-05,-4e-05,-4e-05,5
19053,19663,-2.9999999999999997e-05,0.0,5e-05,0.0004,-0.00025,-4e-05,-4e-05,-4e-05,5
19054,19664,-2.9999999999999997e-05,0.0,5e-05,0.0004,-0.00025,-4e-05,-4e-05,-4e-05,5
19055,19665,-2.9999999999999997e-05,0.0,5e-05,0.0004,-0.00025,-4e-05,-4e-05,-4e-05,5
19056,19666,-2.9999999999999997e-05,0.0,5e-05,0.0004,-0.00025,-4e-05,-4e-05,-4e-05,5
19057,19667,-2.9999999999999997e-05,0.0,5e-05,0.0004,-0.00025,-4e-05,-4e-05,-4e-05,5
19058,19668,-2.9999999999999997e-05,0.0,5e-05,0.0004,-0.00025,-4e-05,-4e-05,-4e-05,5
19059,19669,0.00011,0.00014,0.0003,0.00081,0.00093,0.00047000000000000004,0.00013000000000000002,8e-05,5
19060,19670,0.00011,0.00014,0.0003,0.00081,0.00093,0.00047000000000000004,0.00013000000000000002,8e-05,5
19061,19671,0.00011,0.00014,0.0003,0.00081,0.00093,0.00047000000000000004,0.00013000000000000002,8e-05,5
19062,19672,0.00011,0.00014,0.0003,0.00081,0.00093,0.00047000000000000004,0.00013000000000000002,8e-05,5
19063,19673,0.00011,0.00014,0.0003,0.00081,0.00093,0.00047000000000000004,0.00013000000000000002,8e-05,5
19064,19674,0.00011,0.00014,0.0003,0.00081,0.00093,0.00047000000000000004,0.00013000000000000002,8e-05,5
19065,19675,0.00011,0.00014,0.0003,0.00081,0.00093,0.00047000000000000004,0.00013000000000000002,8e-05,5
19066,19676,0.00011,0.00014,0.0003,0.00081,0.00093,0.00047000000000000004,0.00013000000000000002,8e-05,5
19067,19677,0.0,-2.9999999999999997e-05,-8e-05,-0.0004,-0.0006,-0.00011999999999999999,-4e-05,-2e-05,5
19068,19678,4e-05,2e-05,1e-05,-0.00016,0.0004,0.00011,5e-05,1e-05,5
19069,19679,-4e-05,-2.9999999999999997e-05,0.0,5e-05,0.00035,1e-05,-2e-05,-5.9999999999999995e-05,5
19070,19680,-4e-05,-2.9999999999999997e-05,0.0,5e-05,0.00035,1e-05,-2e-05,-5.9999999999999995e-05,5
19071,19681,-4e-05,-2.9999999999999997e-05,0.0,5e-05,0.00035,1e-05,-2e-05,-5.9999999999999995e-05,5
19072,19682,-4e-05,-2.9999999999999997e-05,0.0,5e-05,0.00035,1e-05,-2e-05,-5.9999999999999995e-05,5
19073,19683,-4e-05,-2.9999999999999997e-05,0.0,5e-05,0.00035,1e-05,-2e-05,-5.9999999999999995e-05,5
19074,19684,-4e-05,-2.9999999999999997e-05,0.0,5e-05,0.00035,1e-05,-2e-05,-5.9999999999999995e-05,5
19075,19685,-4e-05,-2.9999999999999997e-05,0.0,5e-05,0.00035,1e-05,-2e-05,-5.9999999999999995e-05,5
19076,19686,-4e-05,-2.9999999999999997e-05,0.0,5e-05,0.00035,1e-05,-2e-05,-5.9999999999999995e-05,5
19077,19688,-4e-05,-2.9999999999999997e-05,0.0,5e-05,0.00035,1e-05,-2e-05,-5.9999999999999995e-05,5
19078,19689,-4e-05,-2.9999999999999997e-05,0.0,5e-05,0.00035,1e-05,-2e-05,-5.9999999999999995e-05,5
19079,19690,-4e-05,-2.9999999999999997e-05,0.0,5e-05,0.00035,1e-05,-2e-05,-5.9999999999999995e-05,5
19080,19691,-4e-05,-2.9999999999999997e-05,0.0,5e-05,0.00035,1e-05,-2e-05,-5.9999999999999995e-05,5
19081,19692,-4e-05,-2.9999999999999997e-05,0.0,5e-05,0.00035,1e-05,-2e-05,-5.9999999999999995e-05,5
19082,19693,-4e-05,-2.9999999999999997e-05,0.0,5e-05,0.00035,1e-05,-2e-05,-5.9999999999999995e-05,5
19083,19694,-4e-05,-2.9999999999999997e-05,0.0,5e-05,0.00035,1e-05,-2e-05,-5.9999999999999995e-05,5
19084,19695,-4e-05,-2.9999999999999997e-05,0.0,5e-05,0.00035,1e-05,-2e-05,-5.9999999999999995e-05,5
19085,19696,-4e-05,-2.9999999999999997e-05,0.0,5e-05,0.00035,1e-05,-2e-05,-5.9999999999999995e-05,5
19086,19697,-4e-05,-2.9999999999999997e-05,0.0,5e-05,0.00035,1e-05,-2e-05,-5.9999999999999995e-05,5
19087,19698,-4e-05,-2.9999999999999997e-05,0.0,5e-05,0.00035,1e-05,-2e-05,-5.9999999999999995e-05,5
19088,19699,-4e-05,-2.9999999999999997e-05,0.0,5e-05,0.00035,1e-05,-2e-05,-5.9999999999999995e-05,5
19089,19700,-5e-05,-2.9999999999999997e-05,-2e-05,0.0004,0.00064,2.9999999999999997e-05,1e-05,0.0,5
19090,19701,-5e-05,-2.9999999999999997e-05,-2e-05,0.0004,0.00064,2.9999999999999997e-05,1e-05,0.0,5
19091,19702,-5e-05,-9e-05,-0.0002,-0.00018,-0.00025,-7e-05,-5.9999999999999995e-05,1e-05,5
19092,19703,-5e-05,-9e-05,-0.0002,-0.00018,-0.00025,-7e-05,-5.9999999999999995e-05,1e-05,5
19093,19704,-5e-05,-9e-05,-0.0002,-0.00018,-0.00025,-7e-05,-5.9999999999999995e-05,1e-05,5
19094,19705,-5e-05,-9e-05,-0.0002,-0.00018,-0.00025,-7e-05,-5.9999999999999995e-05,1e-05,5
19095,19706,-5e-05,-9e-05,-0.0002,-0.00018,-0.00025,-7e-05,-5.9999999999999995e-05,1e-05,5
19096,19707,-5e-05,-9e-05,-0.0002,-0.00018,-0.00025,-7e-05,-5.9999999999999995e-05,1e-05,5
19097,19708,-5e-05,-9e-05,-0.0002,-0.00018,-0.00025,-7e-05,-5.9999999999999995e-05,1e-05,5
19098,19709,-5e-05,-9e-05,-0.0002,-0.00018,-0.00025,-7e-05,-5.9999999999999995e-05,1e-05,5
19099,19710,-5e-05,-9e-05,-0.0002,-0.00018,-0.00025,-7e-05,-5.9999999999999995e-05,1e-05,5
19100,19711,-5e-05,-9e-05,-0.0002,-0.00018,-0.00025,-7e-05,-5.9999999999999995e-05,1e-05,5
19101,19712,-5e-05,-9e-05,-0.0002,-0.00018,-0.00025,-7e-05,-5.9999999999999995e-05,1e-05,5
19102,19713,-5e-05,-9e-05,-0.0002,-0.00018,-0.00025,-7e-05,-5.9999999999999995e-05,1e-05,5
19103,19714,0.00018,0.00022,0.00033999999999999997,0.0010199999999999999,0.00049,0.00039,0.00021,0.00011,5
19104,19715,0.00018,0.00022,0.00033999999999999997,0.0010199999999999999,0.00049,0.00039,0.00021,0.00011,5
19105,19716,0.00018,0.00022,0.00033999999999999997,0.0010199999999999999,0.00049,0.00039,0.00021,0.00011,5
19106,19717,0.00018,0.00022,0.00033999999999999997,0.0010199999999999999,0.00049,0.00039,0.00021,0.00011,5
19107,19718,0.00018,0.00022,0.00033999999999999997,0.0010199999999999999,0.00049,0.00039,0.00021,0.00011,5
19108,19719,0.00018,0.00022,0.00033999999999999997,0.0010199999999999999,0.00049,0.00039,0.00021,0.00011,5
19109,19720,0.00018,0.00022,0.00033999999999999997,0.0010199999999999999,0.00049,0.00039,0.00021,0.00011,5
19110,19721,-5.9999999999999995e-05,-2.9999999999999997e-05,-8e-05,-0.00063,-0.00018999999999999998,-0.00013000000000000002,-4e-05,-4e-05,5
19111,19722,-5.9999999999999995e-05,-2.9999999999999997e-05,-8e-05,-0.00063,-0.00018999999999999998,-0.00013000000000000002,-4e-05,-4e-05,5
19112,19723,-5.9999999999999995e-05,-2.9999999999999997e-05,-8e-05,-0.00063,-0.00018999999999999998,-0.00013000000000000002,-4e-05,-4e-05,5
19113,19724,-5.9999999999999995e-05,-2.9999999999999997e-05,-8e-05,-0.00063,-0.00018999999999999998,-0.00013000000000000002,-4e-05,-4e-05,5
19114,19725,-5.9999999999999995e-05,-2.9999999999999997e-05,-8e-05,-0.00063,-0.00018999999999999998,-0.00013000000000000002,-4e-05,-4e-05,5
19115,19726,-5.9999999999999995e-05,-2.9999999999999997e-05,-8e-05,-0.00063,-0.00018999999999999998,-0.00013000000000000002,-4e-05,-4e-05,5
19116,19727,-5.9999999999999995e-05,-2.9999999999999997e-05,-8e-05,-0.00063,-0.00018999999999999998,-0.00013000000000000002,-4e-05,-4e-05,5
19117,19728,-5.9999999999999995e-05,-2.9999999999999997e-05,-8e-05,-0.00063,-0.00018999999999999998,-0.00013000000000000002,-4e-05,-4e-05,5
19118,19729,-5.9999999999999995e-05,-2.9999999999999997e-05,-8e-05,-0.00063,-0.00018999999999999998,-0.00013000000000000002,-4e-05,-4e-05,5
19119,19730,-5.9999999999999995e-05,-2.9999999999999997e-05,-8e-05,-0.00063,-0.00018999999999999998,-0.00013000000000000002,-4e-05,-4e-05,5
19120,19731,-5.9999999999999995e-05,-2.9999999999999997e-05,-8e-05,-0.00063,-0.00018999999999999998,-0.00013000000000000002,-4e-05,-4e-05,5
19121,19732,-5.9999999999999995e-05,-2.9999999999999997e-05,-8e-05,-0.00063,-0.00018999999999999998,-0.00013000000000000002,-4e-05,-4e-05,5
19122,19733,-5.9999999999999995e-05,-2.9999999999999997e-05,-8e-05,-0.00063,-0.00018999999999999998,-0.00013000000000000002,-4e-05,-4e-05,5
19123,19734,-5.9999999999999995e-05,-2.9999999999999997e-05,-8e-05,-0.00063,-0.00018999999999999998,-0.00013000000000000002,-4e-05,-4e-05,5
19124,19735,-5.9999999999999995e-05,-2.9999999999999997e-05,-8e-05,-0.00063,-0.00018999999999999998,-0.00013000000000000002,-4e-05,-4e-05,5
19125,19736,-5.9999999999999995e-05,-2.9999999999999997e-05,-8e-05,-0.00063,-0.00018999999999999998,-0.00013000000000000002,-4e-05,-4e-05,5
19126,19738,2e-05,-7e-05,-0.00014,-0.00085,-0.0005,-0.00013000000000000002,-7e-05,-1e-05,5
19127,19739,2.9999999999999997e-05,0.00011999999999999999,0.00026000000000000003,0.00011,-0.00025,5.9999999999999995e-05,-2e-05,1e-05,5
19128,19740,2.9999999999999997e-05,0.00011999999999999999,0.00026000000000000003,0.00011,-0.00025,5.9999999999999995e-05,-2e-05,1e-05,5
19129,19741,2.9999999999999997e-05,0.00011999999999999999,0.00026000000000000003,0.00011,-0.00025,5.9999999999999995e-05,-2e-05,1e-05,5
19130,19742,2.9999999999999997e-05,0.00011999999999999999,0.00026000000000000003,0.00011,-0.00025,5.9999999999999995e-05,-2e-05,1e-05,5
19131,19743,2.9999999999999997e-05,0.00011999999999999999,0.00026000000000000003,0.00011,-0.00025,5.9999999999999995e-05,-2e-05,1e-05,5
19132,19744,2.9999999999999997e-05,0.00011999999999999999,0.00026000000000000003,0.00011,-0.00025,5.9999999999999995e-05,-2e-05,1e-05,5
19133,19745,2.9999999999999997e-05,0.00011999999999999999,0.00026000000000000003,0.00011,-0.00025,5.9999999999999995e-05,-2e-05,1e-05,5
19134,19746,2.9999999999999997e-05,0.00011999999999999999,0.00026000000000000003,0.00011,-0.00025,5.9999999999999995e-05,-2e-05,1e-05,5
19135,19747,2.9999999999999997e-05,0.00011999999999999999,0.00026000000000000003,0.00011,-0.00025,5.9999999999999995e-05,-2e-05,1e-05,5
19136,19748,2.9999999999999997e-05,0.00011999999999999999,0.00026000000000000003,0.00011,-0.00025,5.9999999999999995e-05,-2e-05,1e-05,5
19137,19749,2.9999999999999997e-05,0.00011999999999999999,0.00026000000000000003,0.00011,-0.00025,5.9999999999999995e-05,-2e-05,1e-05,5
19138,19750,2.9999999999999997e-05,0.00011999999999999999,0.00026000000000000003,0.00011,-0.00025,5.9999999999999995e-05,-2e-05,1e-05,5
19139,19751,2.9999999999999997e-05,0.00011999999999999999,0.00026000000000000003,0.00011,-0.00025,5.9999999999999995e-05,-2e-05,1e-05,5
19140,19752,2.9999999999999997e-05,0.00011999999999999999,0.00026000000000000003,0.00011,-0.00025,5.9999999999999995e-05,-2e-05,1e-05,5
19141,19753,2.9999999999999997e-05,0.00011999999999999999,0.00026000000000000003,0.00011,-0.00025,5.9999999999999995e-05,-2e-05,1e-05,5
19142,19754,2.9999999999999997e-05,0.00011999999999999999,0.00026000000000000003,0.00011,-0.00025,5.9999999999999995e-05,-2e-05,1e-05,5
19143,19755,2.9999999999999997e-05,0.00011999999999999999,0.00026000000000000003,0.00011,-0.00025,5.9999999999999995e-05,-2e-05,1e-05,5
19144,19756,2.9999999999999997e-05,0.00011999999999999999,0.00026000000000000003,0.00011,-0.00025,5.9999999999999995e-05,-2e-05,1e-05,5
19145,19757,2.9999999999999997e-05,0.00011999999999999999,0.00026000000000000003,0.00011,-0.00025,5.9999999999999995e-05,-2e-05,1e-05,5
19146,19758,2.9999999999999997e-05,0.00011999999999999999,0.00026000000000000003,0.00011,-0.00025,5.9999999999999995e-05,-2e-05,1e-05,5
19147,19759,2.9999999999999997e-05,0.00011999999999999999,0.00026000000000000003,0.00011,-0.00025,5.9999999999999995e-05,-2e-05,1e-05,5
19148,19760,-5e-05,-4e-05,-8e-05,-7e-05,-0.00014,-0.00013000000000000002,-7e-05,-8e-05,5
19149,19761,-5e-05,-4e-05,-8e-05,-7e-05,-0.00014,-0.00013000000000000002,-7e-05,-8e-05,5
19150,19762,-7e-05,-8e-05,-0.00015,-0.0005,-0.00044,-0.00018,-9e-05,-9e-05,5
19151,19763,-7e-05,-8e-05,-0.00015,-0.0005,-0.00044,-0.00018,-9e-05,-9e-05,5
19152,19764,-7e-05,-8e-05,-0.00015,-0.0005,-0.00044,-0.00018,-9e-05,-9e-05,5
19153,19765,-7e-05,-8e-05,-0.00015,-0.0005,-0.00044,-0.00018,-9e-05,-9e-05,5
19154,19766,-7e-05,-8e-05,-0.00015,-0.0005,-0.00044,-0.00018,-9e-05,-9e-05,5
19155,19767,-7e-05,-8e-05,-0.00015,-0.0005,-0.00044,-0.00018,-9e-05,-9e-05,5
19156,19768,-7e-05,-8e-05,-0.00015,-0.0005,-0.00044,-0.00018,-9e-05,-9e-05,5
19157,19769,-7e-05,-8e-05,-0.00015,-0.0005,-0.00044,-0.00018,-9e-05,-9e-05,5
19158,19770,-7e-05,-8e-05,-0.00015,-0.0005,-0.00044,-0.00018,-9e-05,-9e-05,5
19159,19771,-7e-05,-8e-05,-0.00015,-0.0005,-0.00044,-0.00018,-9e-05,-9e-05,5
19160,19772,-7e-05,-8e-05,-0.00015,-0.0005,-0.00044,-0.00018,-9e-05,-9e-05,5
19161,19773,-7e-05,-8e-05,-0.00015,-0.0005,-0.00044,-0.00018,-9e-05,-9e-05,5
19162,19774,9e-05,7e-05,2e-05,-0.0006799999999999999,-0.0005200000000000001,-9e-05,-2e-05,8e-05,5
19163,19776,9e-05,7e-05,2e-05,-0.0006799999999999999,-0.0005200000000000001,-9e-05,-2e-05,8e-05,5
19164,19777,9e-05,7e-05,2e-05,-0.0006799999999999999,-0.0005200000000000001,-9e-05,-2e-05,8e-05,5
19165,19778,9e-05,7e-05,2e-05,-0.0006799999999999999,-0.0005200000000000001,-9e-05,-2e-05,8e-05,5
19166,19779,9e-05,7e-05,2e-05,-0.0006799999999999999,-0.0005200000000000001,-9e-05,-2e-05,8e-05,5
19167,19780,9e-05,7e-05,2e-05,-0.0006799999999999999,-0.0005200000000000001,-9e-05,-2e-05,8e-05,5
19168,19781,9e-05,7e-05,2e-05,-0.0006799999999999999,-0.0005200000000000001,-9e-05,-2e-05,8e-05,5
19169,19782,5.9999999999999995e-05,2e-05,5e-05,0.00037,0.00029,0.00013000000000000002,9e-05,9e-05,5
19170,19783,5.9999999999999995e-05,2e-05,5e-05,0.00037,0.00029,0.00013000000000000002,9e-05,9e-05,5
19171,19784,5.9999999999999995e-05,2e-05,5e-05,0.00037,0.00029,0.00013000000000000002,9e-05,9e-05,5
19172,19785,5.9999999999999995e-05,2e-05,5e-05,0.00037,0.00029,0.00013000000000000002,9e-05,9e-05,5
19173,19786,5.9999999999999995e-05,2e-05,5e-05,0.00037,0.00029,0.00013000000000000002,9e-05,9e-05,5
19174,19788,5.9999999999999995e-05,2e-05,5e-05,0.00037,0.00029,0.00013000000000000002,9e-05,9e-05,5
19175,19789,5.9999999999999995e-05,2e-05,5e-05,0.00037,0.00029,0.00013000000000000002,9e-05,9e-05,5
19176,19790,5.9999999999999995e-05,2e-05,5e-05,0.00037,0.00029,0.00013000000000000002,9e-05,9e-05,5
19177,19791,5.9999999999999995e-05,2e-05,5e-05,0.00037,0.00029,0.00013000000000000002,9e-05,9e-05,5
19178,19792,5.9999999999999995e-05,2e-05,5e-05,0.00037,0.00029,0.00013000000000000002,9e-05,9e-05,5
19179,19793,5.9999999999999995e-05,2e-05,5e-05,0.00037,0.00029,0.00013000000000000002,9e-05,9e-05,5
19180,19794,5.9999999999999995e-05,2e-05,5e-05,0.00037,0.00029,0.00013000000000000002,9e-05,9e-05,5
19181,19795,5.9999999999999995e-05,2e-05,5e-05,0.00037,0.00029,0.00013000000000000002,9e-05,9e-05,5
19182,19796,5.9999999999999995e-05,2e-05,5e-05,0.00037,0.00029,0.00013000000000000002,9e-05,9e-05,5
19183,19797,5.9999999999999995e-05,2e-05,5e-05,0.00037,0.00029,0.00013000000000000002,9e-05,9e-05,5
19184,19798,-0.00011,-0.00011999999999999999,-0.00018,-0.00032,-0.00045,-0.00018999999999999998,-7e-05,5.9999999999999995e-05,5
19185,19799,8e-05,5.9999999999999995e-05,1e-05,-0.00057,-0.00049,0.0,4e-05,5.9999999999999995e-05,5
19186,19800,8e-05,5.9999999999999995e-05,1e-05,-0.00057,-0.00049,0.0,4e-05,5.9999999999999995e-05,5
19187,19801,8e-05,5.9999999999999995e-05,1e-05,-0.00057,-0.00049,0.0,4e-05,5.9999999999999995e-05,5
19188,19802,8e-05,5.9999999999999995e-05,1e-05,-0.00057,-0.00049,0.0,4e-05,5.9999999999999995e-05,5
19189,19803,8e-05,5.9999999999999995e-05,1e-05,-0.00057,-0.00049,0.0,4e-05,5.9999999999999995e-05,5
19190,19804,8e-05,5.9999999999999995e-05,1e-05,-0.00057,-0.00049,0.0,4e-05,5.9999999999999995e-05,5
19191,19805,8e-05,5.9999999999999995e-05,1e-05,-0.00057,-0.00049,0.0,4e-05,5.9999999999999995e-05,5
19192,19806,8e-05,5.9999999999999995e-05,1e-05,-0.00057,-0.00049,0.0,4e-05,5.9999999999999995e-05,5
19193,19807,8e-05,5.9999999999999995e-05,1e-05,-0.00057,-0.00049,0.0,4e-05,5.9999999999999995e-05,5
19194,19808,8e-05,5.9999999999999995e-05,1e-05,-0.00057,-0.00049,0.0,4e-05,5.9999999999999995e-05,5
19195,19809,8e-05,5.9999999999999995e-05,1e-05,-0.00057,-0.00049,0.0,4e-05,5.9999999999999995e-05,5
19196,19810,8e-05,5.9999999999999995e-05,1e-05,-0.00057,-0.00049,0.0,4e-05,5.9999999999999995e-05,5
19197,19811,8e-05,5.9999999999999995e-05,1e-05,-0.00057,-0.00049,0.0,4e-05,5.9999999999999995e-05,5
19198,19812,8e-05,5.9999999999999995e-05,1e-05,-0.00057,-0.00049,0.0,4e-05,5.9999999999999995e-05,5
19199,19813,8e-05,5.9999999999999995e-05,1e-05,-0.00057,-0.00049,0.0,4e-05,5.9999999999999995e-05,5
19200,19814,8e-05,5.9999999999999995e-05,1e-05,-0.00057,-0.00049,0.0,4e-05,5.9999999999999995e-05,5
19201,19815,8e-05,5.9999999999999995e-05,1e-05,-0.00057,-0.00049,0.0,4e-05,5.9999999999999995e-05,5
19202,19816,8e-05,5.9999999999999995e-05,1e-05,-0.00057,-0.00049,0.0,4e-05,5.9999999999999995e-05,5
19203,19817,8e-05,5.9999999999999995e-05,1e-05,-0.00057,-0.00049,0.0,4e-05,5.9999999999999995e-05,5
19204,19818,8e-05,5.9999999999999995e-05,1e-05,-0.00057,-0.00049,0.0,4e-05,5.9999999999999995e-05,5
19205,19819,8e-05,5.9999999999999995e-05,1e-05,-0.00057,-0.00049,0.0,4e-05,5.9999999999999995e-05,5
19206,19820,-4e-05,-5e-05,-5.9999999999999995e-05,7e-05,0.0005,0.00011999999999999999,0.0,-8e-05,5
19207,19821,-4e-05,-5e-05,-5.9999999999999995e-05,7e-05,0.0005,0.00011999999999999999,0.0,-8e-05,5
19208,19822,-4e-05,0.0,1e-05,-9e-05,-0.00032,-9e-05,-5e-05,-2e-05,5
19209,19823,-4e-05,0.0,1e-05,-9e-05,-0.00032,-9e-05,-5e-05,-2e-05,5
19210,19824,-4e-05,0.0,1e-05,-9e-05,-0.00032,-9e-05,-5e-05,-2e-05,5
19211,19825,-4e-05,0.0,1e-05,-9e-05,-0.00032,-9e-05,-5e-05,-2e-05,5
19212,19826,-4e-05,0.0,1e-05,-9e-05,-0.00032,-9e-05,-5e-05,-2e-05,5
19213,19827,-4e-05,0.0,1e-05,-9e-05,-0.00032,-9e-05,-5e-05,-2e-05,5
19214,19828,-4e-05,0.0,1e-05,-9e-05,-0.00032,-9e-05,-5e-05,-2e-05,5
19215,19829,-4e-05,0.0,1e-05,-9e-05,-0.00032,-9e-05,-5e-05,-2e-05,5
19216,19830,-4e-05,0.0,1e-05,-9e-05,-0.00032,-9e-05,-5e-05,-2e-05,5
19217,19831,-4e-05,0.0,1e-05,-9e-05,-0.00032,-9e-05,-5e-05,-2e-05,5
19218,19832,-4e-05,0.0,1e-05,-9e-05,-0.00032,-9e-05,-5e-05,-2e-05,5
19219,19833,-4e-05,0.0,1e-05,-9e-05,-0.00032,-9e-05,-5e-05,-2e-05,5
19220,19834,2.9999999999999997e-05,-2.9999999999999997e-05,-2e-05,0.00053,0.00045999999999999996,-1e-05,-2.9999999999999997e-05,-8e-05,5
19221,19835,-4e-05,-2.9999999999999997e-05,0.0,8e-05,2.9999999999999997e-05,-1e-05,0.0,-7e-05,5
19222,19836,-4e-05,-2.9999999999999997e-05,0.0,8e-05,2.9999999999999997e-05,-1e-05,0.0,-7e-05,5
19223,19838,-4e-05,-2.9999999999999997e-05,0.0,8e-05,2.9999999999999997e-05,-1e-05,0.0,-7e-05,5
19224,19839,-4e-05,-2.9999999999999997e-05,0.0,8e-05,2.9999999999999997e-05,-1e-05,0.0,-7e-05,5
19225,19840,-4e-05,-2.9999999999999997e-05,0.0,8e-05,2.9999999999999997e-05,-1e-05,0.0,-7e-05,5
19226,19841,1e-05,5.9999999999999995e-05,5e-05,-1e-05,-0.0001,0.0,5e-05,2e-05,5
19227,19842,1e-05,5.9999999999999995e-05,5e-05,-1e-05,-0.0001,0.0,5e-05,2e-05,5
19228,19843,1e-05,5.9999999999999995e-05,5e-05,-1e-05,-0.0001,0.0,5e-05,2e-05,5
19229,19844,1e-05,5.9999999999999995e-05,5e-05,-1e-05,-0.0001,0.0,5e-05,2e-05,5
19230,19845,1e-05,5.9999999999999995e-05,5e-05,-1e-05,-0.0001,0.0,5e-05,2e-05,5
19231,19846,1e-05,5.9999999999999995e-05,5e-05,-1e-05,-0.0001,0.0,5e-05,2e-05,5
19232,19847,1e-05,5.9999999999999995e-05,5e-05,-1e-05,-0.0001,0.0,5e-05,2e-05,5
19233,19848,1e-05,5.9999999999999995e-05,5e-05,-1e-05,-0.0001,0.0,5e-05,2e-05,5
19234,19849,1e-05,5.9999999999999995e-05,5e-05,-1e-05,-0.0001,0.0,5e-05,2e-05,5
19235,19850,1e-05,5.9999999999999995e-05,5e-05,-1e-05,-0.0001,0.0,5e-05,2e-05,5
19236,19851,1e-05,5.9999999999999995e-05,5e-05,-1e-05,-0.0001,0.0,5e-05,2e-05,5
19237,19852,1e-05,5.9999999999999995e-05,5e-05,-1e-05,-0.0001,0.0,5e-05,2e-05,5
19238,19853,1e-05,5.9999999999999995e-05,5e-05,-1e-05,-0.0001,0.0,5e-05,2e-05,5
19239,19854,1e-05,5.9999999999999995e-05,5e-05,-1e-05,-0.0001,0.0,5e-05,2e-05,5
19240,19855,1e-05,5.9999999999999995e-05,5e-05,-1e-05,-0.0001,0.0,5e-05,2e-05,5
19241,19856,1e-05,5.9999999999999995e-05,5e-05,-1e-05,-0.0001,0.0,5e-05,2e-05,5
19242,19857,1e-05,5.9999999999999995e-05,5e-05,-1e-05,-0.0001,0.0,5e-05,2e-05,5
19243,19858,-4e-05,1e-05,2e-05,-0.00025,-0.00022,-2.9999999999999997e-05,-0.00013000000000000002,-2e-05,5
19244,19859,8e-05,0.0,4e-05,0.0009699999999999999,0.00063,0.00013000000000000002,0.0,2.9999999999999997e-05,5
19245,19860,8e-05,0.0,4e-05,0.0009699999999999999,0.00063,0.00013000000000000002,0.0,2.9999999999999997e-05,5
19246,19861,8e-05,0.0,4e-05,0.0009699999999999999,0.00063,0.00013000000000000002,0.0,2.9999999999999997e-05,5
19247,19862,8e-05,0.0,4e-05,0.0009699999999999999,0.00063,0.00013000000000000002,0.0,2.9999999999999997e-05,5
19248,19863,8e-05,0.0,4e-05,0.0009699999999999999,0.00063,0.00013000000000000002,0.0,2.9999999999999997e-05,5
19249,19864,8e-05,0.0,4e-05,0.0009699999999999999,0.00063,0.00013000000000000002,0.0,2.9999999999999997e-05,5
19250,19865,8e-05,0.0,4e-05,0.0009699999999999999,0.00063,0.00013000000000000002,0.0,2.9999999999999997e-05,5
19251,19866,8e-05,0.0,4e-05,0.0009699999999999999,0.00063,0.00013000000000000002,0.0,2.9999999999999997e-05,5
19252,19867,8e-05,0.0,4e-05,0.0009699999999999999,0.00063,0.00013000000000000002,0.0,2.9999999999999997e-05,5
19253,19868,8e-05,0.0,4e-05,0.0009699999999999999,0.00063,0.00013000000000000002,0.0,2.9999999999999997e-05,5
19254,19869,8e-05,0.0,4e-05,0.0009699999999999999,0.00063,0.00013000000000000002,0.0,2.9999999999999997e-05,5
19255,19870,8e-05,0.0,4e-05,0.0009699999999999999,0.00063,0.00013000000000000002,0.0,2.9999999999999997e-05,5
19256,19871,8e-05,0.0,4e-05,0.0009699999999999999,0.00063,0.00013000000000000002,0.0,2.9999999999999997e-05,5
19257,19872,8e-05,0.0,4e-05,0.0009699999999999999,0.00063,0.00013000000000000002,0.0,2.9999999999999997e-05,5
19258,19873,8e-05,0.0,4e-05,0.0009699999999999999,0.00063,0.00013000000000000002,0.0,2.9999999999999997e-05,5
19259,19874,8e-05,0.0,4e-05,0.0009699999999999999,0.00063,0.00013000000000000002,0.0,2.9999999999999997e-05,5
19260,19875,8e-05,0.0,4e-05,0.0009699999999999999,0.00063,0.00013000000000000002,0.0,2.9999999999999997e-05,5
19261,19876,8e-05,0.0,4e-05,0.0009699999999999999,0.00063,0.00013000000000000002,0.0,2.9999999999999997e-05,5
19262,19877,8e-05,0.0,4e-05,0.0009699999999999999,0.00063,0.00013000000000000002,0.0,2.9999999999999997e-05,5
19263,19878,8e-05,0.0,4e-05,0.0009699999999999999,0.00063,0.00013000000000000002,0.0,2.9999999999999997e-05,5
19264,19879,8e-05,0.0,4e-05,0.0009699999999999999,0.00063,0.00013000000000000002,0.0,2.9999999999999997e-05,5
19265,19880,-1e-05,-5e-05,-2.9999999999999997e-05,-5e-05,0.00026000000000000003,9e-05,5e-05,0.0,5
19266,19881,-1e-05,-5e-05,-2.9999999999999997e-05,-5e-05,0.00026000000000000003,9e-05,5e-05,0.0,5
19267,19882,-5e-05,-2.9999999999999997e-05,1e-05,0.0005,5.9999999999999995e-05,-1e-05,-1e-05,-2.9999999999999997e-05,5
19268,19883,-5e-05,-2.9999999999999997e-05,1e-05,0.0005,5.9999999999999995e-05,-1e-05,-1e-05,-2.9999999999999997e-05,5
19269,19884,-5e-05,-2.9999999999999997e-05,1e-05,0.0005,5.9999999999999995e-05,-1e-05,-1e-05,-2.9999999999999997e-05,5
19270,19885,-5e-05,-2.9999999999999997e-05,1e-05,0.0005,5.9999999999999995e-05,-1e-05,-1e-05,-2.9999999999999997e-05,5
19271,19886,-5e-05,-2.9999999999999997e-05,1e-05,0.0005,5.9999999999999995e-05,-1e-05,-1e-05,-2.9999999999999997e-05,5
19272,19888,-5e-05,-2.9999999999999997e-05,1e-05,0.0005,5.9999999999999995e-05,-1e-05,-1e-05,-2.9999999999999997e-05,5
19273,19889,-5e-05,-2.9999999999999997e-05,1e-05,0.0005,5.9999999999999995e-05,-1e-05,-1e-05,-2.9999999999999997e-05,5
19274,19890,-5e-05,-2.9999999999999997e-05,1e-05,0.0005,5.9999999999999995e-05,-1e-05,-1e-05,-2.9999999999999997e-05,5
19275,19891,-5e-05,-2.9999999999999997e-05,1e-05,0.0005,5.9999999999999995e-05,-1e-05,-1e-05,-2.9999999999999997e-05,5
19276,19892,-5e-05,-2.9999999999999997e-05,1e-05,0.0005,5.9999999999999995e-05,-1e-05,-1e-05,-2.9999999999999997e-05,5
19277,19893,-5e-05,-2.9999999999999997e-05,1e-05,0.0005,5.9999999999999995e-05,-1e-05,-1e-05,-2.9999999999999997e-05,5
19278,19894,-5.9999999999999995e-05,-7e-05,-0.00011999999999999999,-0.00028,-0.00025,-8e-05,-7e-05,-2e-05,5
19279,19895,2.9999999999999997e-05,0.0,2e-05,-0.00066,0.00023999999999999998,4e-05,4e-05,0.0,5
19280,19896,2.9999999999999997e-05,0.0,2e-05,-0.00066,0.00023999999999999998,4e-05,4e-05,0.0,5
19281,19897,2.9999999999999997e-05,0.0,2e-05,-0.00066,0.00023999999999999998,4e-05,4e-05,0.0,5
19282,19898,2.9999999999999997e-05,0.0,2e-05,-0.00066,0.00023999999999999998,4e-05,4e-05,0.0,5
19283,19899,2.9999999999999997e-05,0.0,2e-05,-0.00066,0.00023999999999999998,4e-05,4e-05,0.0,5
19284,19900,2.9999999999999997e-05,0.0,2e-05,-0.00066,0.00023999999999999998,4e-05,4e-05,0.0,5
19285,19901,-2e-05,-4e-05,-0.00011,-0.00049,-0.00018999999999999998,-0.0001,-4e-05,-5.9999999999999995e-05,5
19286,19902,-2e-05,-4e-05,-0.00011,-0.00049,-0.00018999999999999998,-0.0001,-4e-05,-5.9999999999999995e-05,5
19287,19903,-2e-05,-4e-05,-0.00011,-0.00049,-0.00018999999999999998,-0.0001,-4e-05,-5.9999999999999995e-05,5
19288,19904,-2e-05,-4e-05,-0.00011,-0.00049,-0.00018999999999999998,-0.0001,-4e-05,-5.9999999999999995e-05,5
19289,19905,-2e-05,-4e-05,-0.00011,-0.00049,-0.00018999999999999998,-0.0001,-4e-05,-5.9999999999999995e-05,5
19290,19906,-2e-05,-4e-05,-0.00011,-0.00049,-0.00018999999999999998,-0.0001,-4e-05,-5.9999999999999995e-05,5
19291,19907,-2e-05,-4e-05,-0.00011,-0.00049,-0.00018999999999999998,-0.0001,-4e-05,-5.9999999999999995e-05,5
19292,19908,-2e-05,-4e-05,-0.00011,-0.00049,-0.00018999999999999998,-0.0001,-4e-05,-5.9999999999999995e-05,5
19293,19909,-2e-05,-4e-05,-0.00011,-0.00049,-0.00018999999999999998,-0.0001,-4e-05,-5.9999999999999995e-05,5
19294,19910,-2e-05,-4e-05,-0.00011,-0.00049,-0.00018999999999999998,-0.0001,-4e-05,-5.9999999999999995e-05,5
19295,19911,-2e-05,-4e-05,-0.00011,-0.00049,-0.00018999999999999998,-0.0001,-4e-05,-5.9999999999999995e-05,5
19296,19912,-2e-05,-4e-05,-0.00011,-0.00049,-0.00018999999999999998,-0.0001,-4e-05,-5.9999999999999995e-05,5
19297,19913,-2e-05,-4e-05,-0.00011,-0.00049,-0.00018999999999999998,-0.0001,-4e-05,-5.9999999999999995e-05,5
19298,19914,-2e-05,-4e-05,-0.00011,-0.00049,-0.00018999999999999998,-0.0001,-4e-05,-5.9999999999999995e-05,5
19299,19915,-2e-05,-4e-05,-0.00011,-0.00049,-0.00018999999999999998,-0.0001,-4e-05,-5.9999999999999995e-05,5
19300,19916,-2e-05,-4e-05,-0.00011,-0.00049,-0.00018999999999999998,-0.0001,-4e-05,-5.9999999999999995e-05,5
19301,19917,-2e-05,-4e-05,-0.00011,-0.00049,-0.00018999999999999998,-0.0001,-4e-05,-5.9999999999999995e-05,5
19302,19918,-4e-05,-1e-05,8e-05,0.00056,2.9999999999999997e-05,4e-05,2.9999999999999997e-05,2e-05,5
19303,19919,-4e-05,-1e-05,8e-05,0.00056,2.9999999999999997e-05,4e-05,2.9999999999999997e-05,2e-05,5
19304,19920,-4e-05,-1e-05,8e-05,0.00056,2.9999999999999997e-05,4e-05,2.9999999999999997e-05,2e-05,5
19305,19921,-4e-05,-1e-05,8e-05,0.00056,2.9999999999999997e-05,4e-05,2.9999999999999997e-05,2e-05,5
19306,19922,-4e-05,-1e-05,8e-05,0.00056,2.9999999999999997e-05,4e-05,2.9999999999999997e-05,2e-05,5
19307,19923,-4e-05,-1e-05,8e-05,0.00056,2.9999999999999997e-05,4e-05,2.9999999999999997e-05,2e-05,5
19308,19924,-4e-05,-1e-05,8e-05,0.00056,2.9999999999999997e-05,4e-05,2.9999999999999997e-05,2e-05,5
19309,19925,-9e-05,-4e-05,-7e-05,-0.00018999999999999998,-0.00018,-4e-05,-1e-05,-5e-05,5
19310,19926,-9e-05,-4e-05,-7e-05,-0.00018999999999999998,-0.00018,-4e-05,-1e-05,-5e-05,5
19311,19927,-9e-05,-4e-05,-7e-05,-0.00018999999999999998,-0.00018,-4e-05,-1e-05,-5e-05,5
19312,19928,-9e-05,-4e-05,-7e-05,-0.00018999999999999998,-0.00018,-4e-05,-1e-05,-5e-05,5
19313,19929,-9e-05,-4e-05,-7e-05,-0.00018999999999999998,-0.00018,-4e-05,-1e-05,-5e-05,5
19314,19930,-9e-05,-4e-05,-7e-05,-0.00018999999999999998,-0.00018,-4e-05,-1e-05,-5e-05,5
19315,19931,-9e-05,-4e-05,-7e-05,-0.00018999999999999998,-0.00018,-4e-05,-1e-05,-5e-05,5
19316,19932,-9e-05,-4e-05,-7e-05,-0.00018999999999999998,-0.00018,-4e-05,-1e-05,-5e-05,5
19317,19933,-9e-05,-4e-05,-7e-05,-0.00018999999999999998,-0.00018,-4e-05,-1e-05,-5e-05,5
19318,19934,-9e-05,-4e-05,-7e-05,-0.00018999999999999998,-0.00018,-4e-05,-1e-05,-5e-05,5
19319,19935,-9e-05,-4e-05,-7e-05,-0.00018999999999999998,-0.00018,-4e-05,-1e-05,-5e-05,5
19320,19936,-9e-05,-4e-05,-7e-05,-0.00018999999999999998,-0.00018,-4e-05,-1e-05,-5e-05,5
19321,19938,-9e-05,-4e-05,-7e-05,-0.00018999999999999998,-0.00018,-4e-05,-1e-05,-5e-05,5
19322,19939,-9e-05,-4e-05,-7e-05,-0.00018999999999999998,-0.00018,-4e-05,-1e-05,-5e-05,5
19323,19940,2e-05,-2.9999999999999997e-05,-4e-05,0.00079,0.0002,0.0,-1e-05,-0.0001,5
19324,19941,2e-05,-2.9999999999999997e-05,-4e-05,0.00079,0.0002,0.0,-1e-05,-0.0001,5
19325,19942,0.0,-4e-05,-0.00013000000000000002,-0.00027,-0.00033,-2e-05,-2e-05,-2e-05,5
19326,19943,0.0,-4e-05,-0.00013000000000000002,-0.00027,-0.00033,-2e-05,-2e-05,-2e-05,5
19327,19944,0.0,-4e-05,-0.00013000000000000002,-0.00027,-0.00033,-2e-05,-2e-05,-2e-05,5
19328,19945,0.0,-4e-05,-0.00013000000000000002,-0.00027,-0.00033,-2e-05,-2e-05,-2e-05,5
19329,19946,0.0,-4e-05,-0.00013000000000000002,-0.00027,-0.00033,-2e-05,-2e-05,-2e-05,5
19330,19947,0.0,-4e-05,-0.00013000000000000002,-0.00027,-0.00033,-2e-05,-2e-05,-2e-05,5
19331,19948,0.0,-4e-05,-0.00013000000000000002,-0.00027,-0.00033,-2e-05,-2e-05,-2e-05,5
19332,19949,0.0,-4e-05,-0.00013000000000000002,-0.00027,-0.00033,-2e-05,-2e-05,-2e-05,5
19333,19950,0.0,-4e-05,-0.00013000000000000002,-0.00027,-0.00033,-2e-05,-2e-05,-2e-05,5
19334,19951,0.0,-4e-05,-0.00013000000000000002,-0.00027,-0.00033,-2e-05,-2e-05,-2e-05,5
19335,19952,0.0,-4e-05,-0.00013000000000000002,-0.00027,-0.00033,-2e-05,-2e-05,-2e-05,5
19336,19953,0.0,-4e-05,-0.00013000000000000002,-0.00027,-0.00033,-2e-05,-2e-05,-2e-05,5
19337,19954,-1e-05,1e-05,1e-05,0.00029,0.00022999999999999998,-4e-05,0.0,-2.9999999999999997e-05,5
19338,19955,-1e-05,1e-05,1e-05,0.00029,0.00022999999999999998,-4e-05,0.0,-2.9999999999999997e-05,5
19339,19956,-1e-05,1e-05,1e-05,0.00029,0.00022999999999999998,-4e-05,0.0,-2.9999999999999997e-05,5
19340,19957,-1e-05,1e-05,1e-05,0.00029,0.00022999999999999998,-4e-05,0.0,-2.9999999999999997e-05,5
19341,19958,-1e-05,1e-05,1e-05,0.00029,0.00022999999999999998,-4e-05,0.0,-2.9999999999999997e-05,5
19342,19959,-1e-05,1e-05,1e-05,0.00029,0.00022999999999999998,-4e-05,0.0,-2.9999999999999997e-05,5
19343,19960,-1e-05,1e-05,1e-05,0.00029,0.00022999999999999998,-4e-05,0.0,-2.9999999999999997e-05,5
19344,19961,-1e-05,1e-05,1e-05,0.00029,0.00022999999999999998,-4e-05,0.0,-2.9999999999999997e-05,5
19345,19962,-1e-05,1e-05,1e-05,0.00029,0.00022999999999999998,-4e-05,0.0,-2.9999999999999997e-05,5
19346,19963,-1e-05,1e-05,1e-05,0.00029,0.00022999999999999998,-4e-05,0.0,-2.9999999999999997e-05,5
19347,19964,-1e-05,1e-05,1e-05,0.00029,0.00022999999999999998,-4e-05,0.0,-2.9999999999999997e-05,5
19348,19965,-1e-05,1e-05,1e-05,0.00029,0.00022999999999999998,-4e-05,0.0,-2.9999999999999997e-05,5
19349,19966,-1e-05,1e-05,1e-05,0.00029,0.00022999999999999998,-4e-05,0.0,-2.9999999999999997e-05,5
19350,19967,-1e-05,1e-05,1e-05,0.00029,0.00022999999999999998,-4e-05,0.0,-2.9999999999999997e-05,5
19351,19968,-1e-05,1e-05,1e-05,0.00029,0.00022999999999999998,-4e-05,0.0,-2.9999999999999997e-05,5
19352,19969,-1e-05,1e-05,1e-05,0.00029,0.00022999999999999998,-4e-05,0.0,-2.9999999999999997e-05,5
19353,19970,2.9999999999999997e-05,2.9999999999999997e-05,8e-05,0.00014,-0.00032,-0.00015,-2e-05,1e-05,5
19354,19971,2.9999999999999997e-05,2.9999999999999997e-05,8e-05,0.00014,-0.00032,-0.00015,-2e-05,1e-05,5
19355,19972,2.9999999999999997e-05,2.9999999999999997e-05,8e-05,0.00014,-0.00032,-0.00015,-2e-05,1e-05,5
19356,19973,2.9999999999999997e-05,2.9999999999999997e-05,8e-05,0.00014,-0.00032,-0.00015,-2e-05,1e-05,5
19357,19974,2.9999999999999997e-05,2.9999999999999997e-05,8e-05,0.00014,-0.00032,-0.00015,-2e-05,1e-05,5
19358,19975,2.9999999999999997e-05,2.9999999999999997e-05,8e-05,0.00014,-0.00032,-0.00015,-2e-05,1e-05,5
19359,19976,2.9999999999999997e-05,2.9999999999999997e-05,8e-05,0.00014,-0.00032,-0.00015,-2e-05,1e-05,5
19360,19977,2.9999999999999997e-05,2.9999999999999997e-05,8e-05,0.00014,-0.00032,-0.00015,-2e-05,1e-05,5
19361,19978,-7e-05,-5e-05,-0.00011999999999999999,-0.00016999999999999999,-0.00031,-0.00011,-5.9999999999999995e-05,-2e-05,5
19362,19979,1e-05,1e-05,-4e-05,2e-05,0.00011,7e-05,4e-05,2.9999999999999997e-05,5
19363,19980,1e-05,1e-05,-4e-05,2e-05,0.00011,7e-05,4e-05,2.9999999999999997e-05,5
19364,19981,1e-05,1e-05,-4e-05,2e-05,0.00011,7e-05,4e-05,2.9999999999999997e-05,5
19365,19982,1e-05,1e-05,-4e-05,2e-05,0.00011,7e-05,4e-05,2.9999999999999997e-05,5
19366,19983,1e-05,1e-05,-4e-05,2e-05,0.00011,7e-05,4e-05,2.9999999999999997e-05,5
19367,19984,1e-05,1e-05,-4e-05,2e-05,0.00011,7e-05,4e-05,2.9999999999999997e-05,5
19368,19985,1e-05,1e-05,-4e-05,2e-05,0.00011,7e-05,4e-05,2.9999999999999997e-05,5
19369,19986,1e-05,1e-05,-4e-05,2e-05,0.00011,7e-05,4e-05,2.9999999999999997e-05,5
19370,19988,1e-05,1e-05,-4e-05,2e-05,0.00011,7e-05,4e-05,2.9999999999999997e-05,5
19371,19989,1e-05,1e-05,-4e-05,2e-05,0.00011,7e-05,4e-05,2.9999999999999997e-05,5
19372,19990,1e-05,1e-05,-4e-05,2e-05,0.00011,7e-05,4e-05,2.9999999999999997e-05,5
19373,19991,1e-05,1e-05,-4e-05,2e-05,0.00011,7e-05,4e-05,2.9999999999999997e-05,5
19374,19992,1e-05,1e-05,-4e-05,2e-05,0.00011,7e-05,4e-05,2.9999999999999997e-05,5
19375,19993,1e-05,1e-05,-4e-05,2e-05,0.00011,7e-05,4e-05,2.9999999999999997e-05,5
19376,19994,1e-05,1e-05,-4e-05,2e-05,0.00011,7e-05,4e-05,2.9999999999999997e-05,5
19377,19995,1e-05,1e-05,-4e-05,2e-05,0.00011,7e-05,4e-05,2.9999999999999997e-05,5
19378,19996,1e-05,1e-05,-4e-05,2e-05,0.00011,7e-05,4e-05,2.9999999999999997e-05,5
19379,19997,1e-05,1e-05,-4e-05,2e-05,0.00011,7e-05,4e-05,2.9999999999999997e-05,5
19380,19998,1e-05,1e-05,-4e-05,2e-05,0.00011,7e-05,4e-05,2.9999999999999997e-05,5
19381,19999,1e-05,1e-05,-4e-05,2e-05,0.00011,7e-05,4e-05,2.9999999999999997e-05,5
19382,20000,5e-05,2.9999999999999997e-05,1e-05,0.00021,0.0007599999999999999,0.00022,0.0001,5e-05,5
19383,20001,5e-05,2.9999999999999997e-05,1e-05,0.00021,0.0007599999999999999,0.00022,0.0001,5e-05,5
19384,20002,-5e-05,-2.9999999999999997e-05,-0.00011,-0.00033,-0.00022,-0.00011999999999999999,-5.9999999999999995e-05,-7e-05,5
19385,20003,-5e-05,-2.9999999999999997e-05,-0.00011,-0.00033,-0.00022,-0.00011999999999999999,-5.9999999999999995e-05,-7e-05,5
19386,20004,-5e-05,-2.9999999999999997e-05,-0.00011,-0.00033,-0.00022,-0.00011999999999999999,-5.9999999999999995e-05,-7e-05,5
19387,20005,-5e-05,-2.9999999999999997e-05,-0.00011,-0.00033,-0.00022,-0.00011999999999999999,-5.9999999999999995e-05,-7e-05,5
19388,20006,-5e-05,-2.9999999999999997e-05,-0.00011,-0.00033,-0.00022,-0.00011999999999999999,-5.9999999999999995e-05,-7e-05,5
19389,20007,-5e-05,-2.9999999999999997e-05,-0.00011,-0.00033,-0.00022,-0.00011999999999999999,-5.9999999999999995e-05,-7e-05,5
19390,20008,-5e-05,-2.9999999999999997e-05,-0.00011,-0.00033,-0.00022,-0.00011999999999999999,-5.9999999999999995e-05,-7e-05,5
19391,20009,-5e-05,-2.9999999999999997e-05,-0.00011,-0.00033,-0.00022,-0.00011999999999999999,-5.9999999999999995e-05,-7e-05,5
19392,20010,-5e-05,-2.9999999999999997e-05,-0.00011,-0.00033,-0.00022,-0.00011999999999999999,-5.9999999999999995e-05,-7e-05,5
19393,20011,-5e-05,-2.9999999999999997e-05,-0.00011,-0.00033,-0.00022,-0.00011999999999999999,-5.9999999999999995e-05,-7e-05,5
19394,20012,-5e-05,-2.9999999999999997e-05,-0.00011,-0.00033,-0.00022,-0.00011999999999999999,-5.9999999999999995e-05,-7e-05,5
19395,20013,-5e-05,-2.9999999999999997e-05,-0.00011,-0.00033,-0.00022,-0.00011999999999999999,-5.9999999999999995e-05,-7e-05,5
19396,20014,4e-05,5e-05,7e-05,-0.00045,-0.00042,-4e-05,0.0,-1e-05,5
19397,20015,4e-05,5e-05,7e-05,-0.00045,-0.00042,-4e-05,0.0,-1e-05,5
19398,20016,4e-05,5e-05,7e-05,-0.00045,-0.00042,-4e-05,0.0,-1e-05,5
19399,20017,4e-05,5e-05,7e-05,-0.00045,-0.00042,-4e-05,0.0,-1e-05,5
19400,20018,4e-05,5e-05,7e-05,-0.00045,-0.00042,-4e-05,0.0,-1e-05,5
19401,20019,4e-05,5e-05,7e-05,-0.00045,-0.00042,-4e-05,0.0,-1e-05,5
19402,20020,4e-05,5e-05,7e-05,-0.00045,-0.00042,-4e-05,0.0,-1e-05,5
19403,20021,4e-05,5e-05,7e-05,-0.00045,-0.00042,-4e-05,0.0,-1e-05,5
19404,20022,4e-05,5e-05,7e-05,-0.00045,-0.00042,-4e-05,0.0,-1e-05,5
19405,20023,-1e-05,-1e-05,5e-05,-0.00021,-0.00047000000000000004,-1e-05,0.0,2e-05,5
19406,20024,-1e-05,-1e-05,5e-05,-0.00021,-0.00047000000000000004,-1e-05,0.0,2e-05,5
19407,20025,-1e-05,-1e-05,5e-05,-0.00021,-0.00047000000000000004,-1e-05,0.0,2e-05,5
19408,20026,-1e-05,-1e-05,5e-05,-0.00021,-0.00047000000000000004,-1e-05,0.0,2e-05,5
19409,20027,-1e-05,-1e-05,5e-05,-0.00021,-0.00047000000000000004,-1e-05,0.0,2e-05,5
19410,20028,-1e-05,-1e-05,5e-05,-0.00021,-0.00047000000000000004,-1e-05,0.0,2e-05,5
19411,20029,-1e-05,-1e-05,5e-05,-0.00021,-0.00047000000000000004,-1e-05,0.0,2e-05,5
19412,20030,-1e-05,-1e-05,5e-05,-0.00021,-0.00047000000000000004,-1e-05,0.0,2e-05,5
19413,20032,-1e-05,-1e-05,5e-05,-0.00021,-0.00047000000000000004,-1e-05,0.0,2e-05,5
19414,20034,-1e-05,-1e-05,5e-05,-0.00021,-0.00047000000000000004,-1e-05,0.0,2e-05,5
19415,20035,-1e-05,-1e-05,5e-05,-0.00021,-0.00047000000000000004,-1e-05,0.0,2e-05,5
19416,20043,-4e-05,-9e-05,-8e-05,-0.00015,-0.00018,-0.00015,-5.9999999999999995e-05,-9e-05,5
19417,20044,-4e-05,-9e-05,-8e-05,-0.00015,-0.00018,-0.00015,-5.9999999999999995e-05,-9e-05,5
19418,20045,-4e-05,-9e-05,-8e-05,-0.00015,-0.00018,-0.00015,-5.9999999999999995e-05,-9e-05,5
19419,20046,-4e-05,-9e-05,-8e-05,-0.00015,-0.00018,-0.00015,-5.9999999999999995e-05,-9e-05,5
19420,20047,-4e-05,-9e-05,-8e-05,-0.00015,-0.00018,-0.00015,-5.9999999999999995e-05,-9e-05,5
19421,20048,-4e-05,-9e-05,-8e-05,-0.00015,-0.00018,-0.00015,-5.9999999999999995e-05,-9e-05,5
19422,20049,-4e-05,-9e-05,-8e-05,-0.00015,-0.00018,-0.00015,-5.9999999999999995e-05,-9e-05,5
19423,20050,-4e-05,-9e-05,-8e-05,-0.00015,-0.00018,-0.00015,-5.9999999999999995e-05,-9e-05,5
19424,20051,-4e-05,-9e-05,-8e-05,-0.00015,-0.00018,-0.00015,-5.9999999999999995e-05,-9e-05,5
19425,20052,-4e-05,-9e-05,-8e-05,-0.00015,-0.00018,-0.00015,-5.9999999999999995e-05,-9e-05,5
19426,20053,-4e-05,-9e-05,-8e-05,-0.00015,-0.00018,-0.00015,-5.9999999999999995e-05,-9e-05,5
19427,20054,-4e-05,-9e-05,-8e-05,-0.00015,-0.00018,-0.00015,-5.9999999999999995e-05,-9e-05,5
19428,20055,-4e-05,-9e-05,-8e-05,-0.00015,-0.00018,-0.00015,-5.9999999999999995e-05,-9e-05,5
19429,20056,-4e-05,-9e-05,-8e-05,-0.00015,-0.00018,-0.00015,-5.9999999999999995e-05,-9e-05,5
19430,20057,-4e-05,-9e-05,-8e-05,-0.00015,-0.00018,-0.00015,-5.9999999999999995e-05,-9e-05,5
19431,20058,-4e-05,-9e-05,-8e-05,-0.00015,-0.00018,-0.00015,-5.9999999999999995e-05,-9e-05,5
19432,20059,-4e-05,-9e-05,-8e-05,-0.00015,-0.00018,-0.00015,-5.9999999999999995e-05,-9e-05,5
19433,20060,5.9999999999999995e-05,5e-05,-1e-05,-5.9999999999999995e-05,-5.9999999999999995e-05,4e-05,5.9999999999999995e-05,5.9999999999999995e-05,5
19434,20061,5.9999999999999995e-05,5e-05,-1e-05,-5.9999999999999995e-05,-5.9999999999999995e-05,4e-05,5.9999999999999995e-05,5.9999999999999995e-05,5
19435,20062,-2.9999999999999997e-05,0.0,2.9999999999999997e-05,4e-05,-2e-05,-1e-05,0.0,-1e-05,5
19436,20063,-2.9999999999999997e-05,0.0,2.9999999999999997e-05,4e-05,-2e-05,-1e-05,0.0,-1e-05,5
19437,20064,-2.9999999999999997e-05,0.0,2.9999999999999997e-05,4e-05,-2e-05,-1e-05,0.0,-1e-05,5
19438,20065,-2.9999999999999997e-05,0.0,2.9999999999999997e-05,4e-05,-2e-05,-1e-05,0.0,-1e-05,5
19439,20066,-2.9999999999999997e-05,0.0,2.9999999999999997e-05,4e-05,-2e-05,-1e-05,0.0,-1e-05,5
19440,20067,-2.9999999999999997e-05,0.0,2.9999999999999997e-05,4e-05,-2e-05,-1e-05,0.0,-1e-05,5
19441,20068,-2.9999999999999997e-05,0.0,2.9999999999999997e-05,4e-05,-2e-05,-1e-05,0.0,-1e-05,5
19442,20069,-2.9999999999999997e-05,0.0,2.9999999999999997e-05,4e-05,-2e-05,-1e-05,0.0,-1e-05,5
19443,20070,-2.9999999999999997e-05,0.0,2.9999999999999997e-05,4e-05,-2e-05,-1e-05,0.0,-1e-05,5
19444,20071,-2.9999999999999997e-05,0.0,2.9999999999999997e-05,4e-05,-2e-05,-1e-05,0.0,-1e-05,5
19445,20072,-2.9999999999999997e-05,0.0,2.9999999999999997e-05,4e-05,-2e-05,-1e-05,0.0,-1e-05,5
19446,20073,-2.9999999999999997e-05,0.0,2.9999999999999997e-05,4e-05,-2e-05,-1e-05,0.0,-1e-05,5
19447,20074,4e-05,-4e-05,-0.00016999999999999999,-0.00059,-0.00025,-7e-05,-5e-05,-1e-05,5
19448,20075,4e-05,-4e-05,-0.00016999999999999999,-0.00059,-0.00025,-7e-05,-5e-05,-1e-05,5
19449,20076,4e-05,-4e-05,-0.00016999999999999999,-0.00059,-0.00025,-7e-05,-5e-05,-1e-05,5
19450,20077,4e-05,-4e-05,-0.00016999999999999999,-0.00059,-0.00025,-7e-05,-5e-05,-1e-05,5
19451,20078,4e-05,-4e-05,-0.00016999999999999999,-0.00059,-0.00025,-7e-05,-5e-05,-1e-05,5
19452,20079,4e-05,-4e-05,-0.00016999999999999999,-0.00059,-0.00025,-7e-05,-5e-05,-1e-05,5
19453,20080,4e-05,-4e-05,-0.00016999999999999999,-0.00059,-0.00025,-7e-05,-5e-05,-1e-05,5
19454,20081,4e-05,-4e-05,-0.00016999999999999999,-0.00059,-0.00025,-7e-05,-5e-05,-1e-05,5
19455,20082,4e-05,-4e-05,-0.00016999999999999999,-0.00059,-0.00025,-7e-05,-5e-05,-1e-05,5
19456,20083,0.0001,0.00011,0.00016999999999999999,0.00025,0.00066,0.00029,0.00011,7e-05,5
19457,20084,0.0001,0.00011,0.00016999999999999999,0.00025,0.00066,0.00029,0.00011,7e-05,5
19458,20085,0.0001,0.00011,0.00016999999999999999,0.00025,0.00066,0.00029,0.00011,7e-05,5
19459,20086,0.0001,0.00011,0.00016999999999999999,0.00025,0.00066,0.00029,0.00011,7e-05,5
19460,20088,0.0001,0.00011,0.00016999999999999999,0.00025,0.00066,0.00029,0.00011,7e-05,5
19461,20089,0.0001,0.00011,0.00016999999999999999,0.00025,0.00066,0.00029,0.00011,7e-05,5
19462,20090,0.0001,0.00011,0.00016999999999999999,0.00025,0.00066,0.00029,0.00011,7e-05,5
19463,20091,0.0001,0.00011,0.00016999999999999999,0.00025,0.00066,0.00029,0.00011,7e-05,5
19464,20092,0.0001,0.00011,0.00016999999999999999,0.00025,0.00066,0.00029,0.00011,7e-05,5
19465,20093,0.0001,0.00011,0.00016999999999999999,0.00025,0.00066,0.00029,0.00011,7e-05,5
19466,20094,0.0001,0.00011,0.00016999999999999999,0.00025,0.00066,0.00029,0.00011,7e-05,5
19467,20095,0.0001,0.00011,0.00016999999999999999,0.00025,0.00066,0.00029,0.00011,7e-05,5
19468,20096,0.0001,0.00011,0.00016999999999999999,0.00025,0.00066,0.00029,0.00011,7e-05,5
19469,20097,0.0001,0.00011,0.00016999999999999999,0.00025,0.00066,0.00029,0.00011,7e-05,5
19470,20098,-4e-05,2.9999999999999997e-05,8e-05,-0.00015,-0.00029,4e-05,0.0,0.0,5
19471,20099,-2e-05,-5e-05,-4e-05,-0.00026000000000000003,-2e-05,-2.9999999999999997e-05,-1e-05,-4e-05,5
19472,20100,-2e-05,-5e-05,-4e-05,-0.00026000000000000003,-2e-05,-2.9999999999999997e-05,-1e-05,-4e-05,5
19473,20101,-2e-05,-5e-05,-4e-05,-0.00026000000000000003,-2e-05,-2.9999999999999997e-05,-1e-05,-4e-05,5
19474,20102,-2e-05,-5e-05,-4e-05,-0.00026000000000000003,-2e-05,-2.9999999999999997e-05,-1e-05,-4e-05,5
19475,20103,-2e-05,-5e-05,-4e-05,-0.00026000000000000003,-2e-05,-2.9999999999999997e-05,-1e-05,-4e-05,5
19476,20104,-2e-05,-5e-05,-4e-05,-0.00026000000000000003,-2e-05,-2.9999999999999997e-05,-1e-05,-4e-05,5
19477,20105,-2e-05,-5e-05,-4e-05,-0.00026000000000000003,-2e-05,-2.9999999999999997e-05,-1e-05,-4e-05,5
19478,20106,-2e-05,-5e-05,-4e-05,-0.00026000000000000003,-2e-05,-2.9999999999999997e-05,-1e-05,-4e-05,5
19479,20107,-2e-05,-5e-05,-4e-05,-0.00026000000000000003,-2e-05,-2.9999999999999997e-05,-1e-05,-4e-05,5
19480,20108,-2e-05,-5e-05,-4e-05,-0.00026000000000000003,-2e-05,-2.9999999999999997e-05,-1e-05,-4e-05,5
19481,20109,-2e-05,-5e-05,-4e-05,-0.00026000000000000003,-2e-05,-2.9999999999999997e-05,-1e-05,-4e-05,5
19482,20110,-2e-05,-5e-05,-4e-05,-0.00026000000000000003,-2e-05,-2.9999999999999997e-05,-1e-05,-4e-05,5
19483,20111,-2e-05,-5e-05,-4e-05,-0.00026000000000000003,-2e-05,-2.9999999999999997e-05,-1e-05,-4e-05,5
19484,20112,-2e-05,-5e-05,-4e-05,-0.00026000000000000003,-2e-05,-2.9999999999999997e-05,-1e-05,-4e-05,5
19485,20113,-2e-05,-5e-05,-4e-05,-0.00026000000000000003,-2e-05,-2.9999999999999997e-05,-1e-05,-4e-05,5
19486,20114,-2e-05,-5e-05,-4e-05,-0.00026000000000000003,-2e-05,-2.9999999999999997e-05,-1e-05,-4e-05,5
19487,20115,-2e-05,-5e-05,-4e-05,-0.00026000000000000003,-2e-05,-2.9999999999999997e-05,-1e-05,-4e-05,5
19488,20116,-2e-05,-5e-05,-4e-05,-0.00026000000000000003,-2e-05,-2.9999999999999997e-05,-1e-05,-4e-05,5
19489,20117,-2e-05,-5e-05,-4e-05,-0.00026000000000000003,-2e-05,-2.9999999999999997e-05,-1e-05,-4e-05,5
19490,20118,-2e-05,-5e-05,-4e-05,-0.00026000000000000003,-2e-05,-2.9999999999999997e-05,-1e-05,-4e-05,5
19491,20119,-2e-05,-5e-05,-4e-05,-0.00026000000000000003,-2e-05,-2.9999999999999997e-05,-1e-05,-4e-05,5
19492,20120,-1e-05,-2e-05,0.0,-5e-05,-0.0002,-2.9999999999999997e-05,-2.9999999999999997e-05,-2.9999999999999997e-05,5
19493,20121,-1e-05,-2e-05,0.0,-5e-05,-0.0002,-2.9999999999999997e-05,-2.9999999999999997e-05,-2.9999999999999997e-05,5
19494,20122,-0.00011999999999999999,-0.00018999999999999998,-0.00025,-0.0006799999999999999,-0.00044,-0.0002,-0.0001,-5e-05,5
19495,20123,-0.00011999999999999999,-0.00018999999999999998,-0.00025,-0.0006799999999999999,-0.00044,-0.0002,-0.0001,-5e-05,5
19496,20124,-0.00011999999999999999,-0.00018999999999999998,-0.00025,-0.0006799999999999999,-0.00044,-0.0002,-0.0001,-5e-05,5
19497,20125,-0.00011999999999999999,-0.00018999999999999998,-0.00025,-0.0006799999999999999,-0.00044,-0.0002,-0.0001,-5e-05,5
19498,20126,-0.00011999999999999999,-0.00018999999999999998,-0.00025,-0.0006799999999999999,-0.00044,-0.0002,-0.0001,-5e-05,5
19499,20127,-0.00011999999999999999,-0.00018999999999999998,-0.00025,-0.0006799999999999999,-0.00044,-0.0002,-0.0001,-5e-05,5
19500,20128,-0.00011999999999999999,-0.00018999999999999998,-0.00025,-0.0006799999999999999,-0.00044,-0.0002,-0.0001,-5e-05,5
19501,20129,-0.00011999999999999999,-0.00018999999999999998,-0.00025,-0.0006799999999999999,-0.00044,-0.0002,-0.0001,-5e-05,5
19502,20130,-0.00011999999999999999,-0.00018999999999999998,-0.00025,-0.0006799999999999999,-0.00044,-0.0002,-0.0001,-5e-05,5
19503,20131,-0.00011999999999999999,-0.00018999999999999998,-0.00025,-0.0006799999999999999,-0.00044,-0.0002,-0.0001,-5e-05,5
19504,20132,-0.00011999999999999999,-0.00018999999999999998,-0.00025,-0.0006799999999999999,-0.00044,-0.0002,-0.0001,-5e-05,5
19505,20133,-0.00011999999999999999,-0.00018999999999999998,-0.00025,-0.0006799999999999999,-0.00044,-0.0002,-0.0001,-5e-05,5
19506,20134,-2e-05,-4e-05,-4e-05,0.0002,0.00021,1e-05,-4e-05,2e-05,5
19507,20135,-2e-05,-4e-05,-4e-05,0.0002,0.00021,1e-05,-4e-05,2e-05,5
19508,20136,-2e-05,-4e-05,-4e-05,0.0002,0.00021,1e-05,-4e-05,2e-05,5
19509,20138,-2e-05,-4e-05,-4e-05,0.0002,0.00021,1e-05,-4e-05,2e-05,5
19510,20139,-2e-05,-4e-05,-4e-05,0.0002,0.00021,1e-05,-4e-05,2e-05,5
19511,20140,-2e-05,-4e-05,-4e-05,0.0002,0.00021,1e-05,-4e-05,2e-05,5
19512,20141,-2e-05,-4e-05,-4e-05,0.0002,0.00021,1e-05,-4e-05,2e-05,5
19513,20142,-2e-05,-4e-05,-4e-05,0.0002,0.00021,1e-05,-4e-05,2e-05,5
19514,20143,-5.9999999999999995e-05,-0.00011999999999999999,-0.00016999999999999999,-5e-05,0.00022999999999999998,-8e-05,-0.0001,-8e-05,5
19515,20144,-5.9999999999999995e-05,-0.00011999999999999999,-0.00016999999999999999,-5e-05,0.00022999999999999998,-8e-05,-0.0001,-8e-05,5
19516,20145,-5.9999999999999995e-05,-0.00011999999999999999,-0.00016999999999999999,-5e-05,0.00022999999999999998,-8e-05,-0.0001,-8e-05,5
19517,20146,-5.9999999999999995e-05,-0.00011999999999999999,-0.00016999999999999999,-5e-05,0.00022999999999999998,-8e-05,-0.0001,-8e-05,5
19518,20147,-5.9999999999999995e-05,-0.00011999999999999999,-0.00016999999999999999,-5e-05,0.00022999999999999998,-8e-05,-0.0001,-8e-05,5
19519,20148,-5.9999999999999995e-05,-0.00011999999999999999,-0.00016999999999999999,-5e-05,0.00022999999999999998,-8e-05,-0.0001,-8e-05,5
19520,20149,-5.9999999999999995e-05,-0.00011999999999999999,-0.00016999999999999999,-5e-05,0.00022999999999999998,-8e-05,-0.0001,-8e-05,5
19521,20150,-5.9999999999999995e-05,-0.00011999999999999999,-0.00016999999999999999,-5e-05,0.00022999999999999998,-8e-05,-0.0001,-8e-05,5
19522,20151,-5.9999999999999995e-05,-0.00011999999999999999,-0.00016999999999999999,-5e-05,0.00022999999999999998,-8e-05,-0.0001,-8e-05,5
19523,20152,-5.9999999999999995e-05,-0.00011999999999999999,-0.00016999999999999999,-5e-05,0.00022999999999999998,-8e-05,-0.0001,-8e-05,5
19524,20153,-5.9999999999999995e-05,-0.00011999999999999999,-0.00016999999999999999,-5e-05,0.00022999999999999998,-8e-05,-0.0001,-8e-05,5
19525,20154,-5.9999999999999995e-05,-0.00011999999999999999,-0.00016999999999999999,-5e-05,0.00022999999999999998,-8e-05,-0.0001,-8e-05,5
19526,20155,-5.9999999999999995e-05,-0.00011999999999999999,-0.00016999999999999999,-5e-05,0.00022999999999999998,-8e-05,-0.0001,-8e-05,5
19527,20156,-5.9999999999999995e-05,-0.00011999999999999999,-0.00016999999999999999,-5e-05,0.00022999999999999998,-8e-05,-0.0001,-8e-05,5
19528,20157,-5.9999999999999995e-05,-0.00011999999999999999,-0.00016999999999999999,-5e-05,0.00022999999999999998,-8e-05,-0.0001,-8e-05,5
19529,20158,-5e-05,-5e-05,-1e-05,0.00018,-2e-05,-1e-05,-2.9999999999999997e-05,-2.9999999999999997e-05,5
19530,20159,4e-05,1e-05,0.0,0.00018999999999999998,0.00041,5.9999999999999995e-05,5.9999999999999995e-05,5.9999999999999995e-05,5
19531,20160,4e-05,1e-05,0.0,0.00018999999999999998,0.00041,5.9999999999999995e-05,5.9999999999999995e-05,5.9999999999999995e-05,5
19532,20161,4e-05,1e-05,0.0,0.00018999999999999998,0.00041,5.9999999999999995e-05,5.9999999999999995e-05,5.9999999999999995e-05,5
19533,20162,4e-05,1e-05,0.0,0.00018999999999999998,0.00041,5.9999999999999995e-05,5.9999999999999995e-05,5.9999999999999995e-05,5
19534,20163,4e-05,1e-05,0.0,0.00018999999999999998,0.00041,5.9999999999999995e-05,5.9999999999999995e-05,5.9999999999999995e-05,5
19535,20164,4e-05,1e-05,0.0,0.00018999999999999998,0.00041,5.9999999999999995e-05,5.9999999999999995e-05,5.9999999999999995e-05,5
19536,20165,4e-05,1e-05,0.0,0.00018999999999999998,0.00041,5.9999999999999995e-05,5.9999999999999995e-05,5.9999999999999995e-05,5
19537,20166,4e-05,1e-05,0.0,0.00018999999999999998,0.00041,5.9999999999999995e-05,5.9999999999999995e-05,5.9999999999999995e-05,5
19538,20167,4e-05,1e-05,0.0,0.00018999999999999998,0.00041,5.9999999999999995e-05,5.9999999999999995e-05,5.9999999999999995e-05,5
19539,20168,4e-05,1e-05,0.0,0.00018999999999999998,0.00041,5.9999999999999995e-05,5.9999999999999995e-05,5.9999999999999995e-05,5
19540,20169,4e-05,1e-05,0.0,0.00018999999999999998,0.00041,5.9999999999999995e-05,5.9999999999999995e-05,5.9999999999999995e-05,5
19541,20170,4e-05,1e-05,0.0,0.00018999999999999998,0.00041,5.9999999999999995e-05,5.9999999999999995e-05,5.9999999999999995e-05,5
19542,20171,4e-05,1e-05,0.0,0.00018999999999999998,0.00041,5.9999999999999995e-05,5.9999999999999995e-05,5.9999999999999995e-05,5
19543,20172,4e-05,1e-05,0.0,0.00018999999999999998,0.00041,5.9999999999999995e-05,5.9999999999999995e-05,5.9999999999999995e-05,5
19544,20173,4e-05,1e-05,0.0,0.00018999999999999998,0.00041,5.9999999999999995e-05,5.9999999999999995e-05,5.9999999999999995e-05,5
19545,20174,4e-05,1e-05,0.0,0.00018999999999999998,0.00041,5.9999999999999995e-05,5.9999999999999995e-05,5.9999999999999995e-05,5
19546,20175,4e-05,1e-05,0.0,0.00018999999999999998,0.00041,5.9999999999999995e-05,5.9999999999999995e-05,5.9999999999999995e-05,5
19547,20176,4e-05,1e-05,0.0,0.00018999999999999998,0.00041,5.9999999999999995e-05,5.9999999999999995e-05,5.9999999999999995e-05,5
19548,20177,4e-05,1e-05,0.0,0.00018999999999999998,0.00041,5.9999999999999995e-05,5.9999999999999995e-05,5.9999999999999995e-05,5
19549,20178,4e-05,1e-05,0.0,0.00018999999999999998,0.00041,5.9999999999999995e-05,5.9999999999999995e-05,5.9999999999999995e-05,5
19550,20179,4e-05,1e-05,0.0,0.00018999999999999998,0.00041,5.9999999999999995e-05,5.9999999999999995e-05,5.9999999999999995e-05,5
19551,20180,1e-05,1e-05,4e-05,0.00029,7e-05,2.9999999999999997e-05,1e-05,-2e-05,5
19552,20181,1e-05,1e-05,4e-05,0.00029,7e-05,2.9999999999999997e-05,1e-05,-2e-05,5
19553,20182,2e-05,7e-05,0.0002,0.00082,0.00026000000000000003,0.0001,-5.9999999999999995e-05,7e-05,5
19554,20183,2e-05,7e-05,0.0002,0.00082,0.00026000000000000003,0.0001,-5.9999999999999995e-05,7e-05,5
19555,20184,2e-05,7e-05,0.0002,0.00082,0.00026000000000000003,0.0001,-5.9999999999999995e-05,7e-05,5
19556,20185,2e-05,7e-05,0.0002,0.00082,0.00026000000000000003,0.0001,-5.9999999999999995e-05,7e-05,5
19557,20186,2e-05,7e-05,0.0002,0.00082,0.00026000000000000003,0.0001,-5.9999999999999995e-05,7e-05,5
19558,20188,2e-05,7e-05,0.0002,0.00082,0.00026000000000000003,0.0001,-5.9999999999999995e-05,7e-05,5
19559,20189,2e-05,7e-05,0.0002,0.00082,0.00026000000000000003,0.0001,-5.9999999999999995e-05,7e-05,5
19560,20190,2e-05,7e-05,0.0002,0.00082,0.00026000000000000003,0.0001,-5.9999999999999995e-05,7e-05,5
19561,20191,2e-05,7e-05,0.0002,0.00082,0.00026000000000000003,0.0001,-5.9999999999999995e-05,7e-05,5
19562,20192,2e-05,7e-05,0.0002,0.00082,0.00026000000000000003,0.0001,-5.9999999999999995e-05,7e-05,5
19563,20193,2e-05,7e-05,0.0002,0.00082,0.00026000000000000003,0.0001,-5.9999999999999995e-05,7e-05,5
19564,20194,2e-05,2.9999999999999997e-05,0.00011999999999999999,0.00029,0.00026000000000000003,9e-05,5e-05,2.9999999999999997e-05,5
19565,20195,2e-05,2.9999999999999997e-05,0.00011999999999999999,0.00029,0.00026000000000000003,9e-05,5e-05,2.9999999999999997e-05,5
19566,20196,2e-05,2.9999999999999997e-05,0.00011999999999999999,0.00029,0.00026000000000000003,9e-05,5e-05,2.9999999999999997e-05,5
19567,20197,2e-05,2.9999999999999997e-05,0.00011999999999999999,0.00029,0.00026000000000000003,9e-05,5e-05,2.9999999999999997e-05,5
19568,20198,2e-05,2.9999999999999997e-05,0.00011999999999999999,0.00029,0.00026000000000000003,9e-05,5e-05,2.9999999999999997e-05,5
19569,20199,2e-05,2.9999999999999997e-05,0.00011999999999999999,0.00029,0.00026000000000000003,9e-05,5e-05,2.9999999999999997e-05,5
19570,20200,2e-05,2.9999999999999997e-05,0.00011999999999999999,0.00029,0.00026000000000000003,9e-05,5e-05,2.9999999999999997e-05,5
19571,20201,2e-05,2.9999999999999997e-05,0.00011999999999999999,0.00029,0.00026000000000000003,9e-05,5e-05,2.9999999999999997e-05,5
19572,20202,2e-05,2.9999999999999997e-05,0.00011999999999999999,0.00029,0.00026000000000000003,9e-05,5e-05,2.9999999999999997e-05,5
19573,20203,9e-05,0.00018999999999999998,0.0002,0.0006799999999999999,-0.00031,0.00011999999999999999,0.00013000000000000002,7e-05,5
19574,20204,9e-05,0.00018999999999999998,0.0002,0.0006799999999999999,-0.00031,0.00011999999999999999,0.00013000000000000002,7e-05,5
19575,20205,9e-05,0.00018999999999999998,0.0002,0.0006799999999999999,-0.00031,0.00011999999999999999,0.00013000000000000002,7e-05,5
19576,20206,9e-05,0.00018999999999999998,0.0002,0.0006799999999999999,-0.00031,0.00011999999999999999,0.00013000000000000002,7e-05,5
19577,20207,9e-05,0.00018999999999999998,0.0002,0.0006799999999999999,-0.00031,0.00011999999999999999,0.00013000000000000002,7e-05,5
19578,20208,9e-05,0.00018999999999999998,0.0002,0.0006799999999999999,-0.00031,0.00011999999999999999,0.00013000000000000002,7e-05,5
19579,20209,9e-05,0.00018999999999999998,0.0002,0.0006799999999999999,-0.00031,0.00011999999999999999,0.00013000000000000002,7e-05,5
19580,20210,9e-05,0.00018999999999999998,0.0002,0.0006799999999999999,-0.00031,0.00011999999999999999,0.00013000000000000002,7e-05,5
19581,20211,9e-05,0.00018999999999999998,0.0002,0.0006799999999999999,-0.00031,0.00011999999999999999,0.00013000000000000002,7e-05,5
19582,20212,9e-05,0.00018999999999999998,0.0002,0.0006799999999999999,-0.00031,0.00011999999999999999,0.00013000000000000002,7e-05,5
19583,20213,9e-05,0.00018999999999999998,0.0002,0.0006799999999999999,-0.00031,0.00011999999999999999,0.00013000000000000002,7e-05,5
19584,20214,9e-05,0.00018999999999999998,0.0002,0.0006799999999999999,-0.00031,0.00011999999999999999,0.00013000000000000002,7e-05,5
19585,20215,9e-05,0.00018999999999999998,0.0002,0.0006799999999999999,-0.00031,0.00011999999999999999,0.00013000000000000002,7e-05,5
19586,20216,9e-05,0.00018999999999999998,0.0002,0.0006799999999999999,-0.00031,0.00011999999999999999,0.00013000000000000002,7e-05,5
19587,20217,-2e-05,-5e-05,-0.00011,-0.00022999999999999998,-0.00041,-0.00013000000000000002,-4e-05,-2e-05,5
19588,20218,-4e-05,-1e-05,2.9999999999999997e-05,-5.9999999999999995e-05,-0.00027,-4e-05,-2.9999999999999997e-05,-2.9999999999999997e-05,5
19589,20219,-5e-05,-7e-05,-4e-05,-0.0001,0.00016,-2e-05,-1e-05,-2.9999999999999997e-05,5
19590,20220,-5e-05,-7e-05,-4e-05,-0.0001,0.00016,-2e-05,-1e-05,-2.9999999999999997e-05,5
19591,20221,-5e-05,-7e-05,-4e-05,-0.0001,0.00016,-2e-05,-1e-05,-2.9999999999999997e-05,5
19592,20222,-5e-05,-7e-05,-4e-05,-0.0001,0.00016,-2e-05,-1e-05,-2.9999999999999997e-05,5
19593,20223,-5e-05,-7e-05,-4e-05,-0.0001,0.00016,-2e-05,-1e-05,-2.9999999999999997e-05,5
19594,20224,-5e-05,-7e-05,-4e-05,-0.0001,0.00016,-2e-05,-1e-05,-2.9999999999999997e-05,5
19595,20225,-5e-05,-7e-05,-4e-05,-0.0001,0.00016,-2e-05,-1e-05,-2.9999999999999997e-05,5
19596,20226,-5e-05,-7e-05,-4e-05,-0.0001,0.00016,-2e-05,-1e-05,-2.9999999999999997e-05,5
19597,20227,-5e-05,-7e-05,-4e-05,-0.0001,0.00016,-2e-05,-1e-05,-2.9999999999999997e-05,5
19598,20228,-5e-05,-7e-05,-4e-05,-0.0001,0.00016,-2e-05,-1e-05,-2.9999999999999997e-05,5
19599,20229,-5e-05,-7e-05,-4e-05,-0.0001,0.00016,-2e-05,-1e-05,-2.9999999999999997e-05,5
19600,20230,-5e-05,-7e-05,-4e-05,-0.0001,0.00016,-2e-05,-1e-05,-2.9999999999999997e-05,5
19601,20231,-5e-05,-7e-05,-4e-05,-0.0001,0.00016,-2e-05,-1e-05,-2.9999999999999997e-05,5
19602,20232,-5e-05,-7e-05,-4e-05,-0.0001,0.00016,-2e-05,-1e-05,-2.9999999999999997e-05,5
19603,20233,-5e-05,-7e-05,-4e-05,-0.0001,0.00016,-2e-05,-1e-05,-2.9999999999999997e-05,5
19604,20234,-5e-05,-7e-05,-4e-05,-0.0001,0.00016,-2e-05,-1e-05,-2.9999999999999997e-05,5
19605,20235,-5e-05,-7e-05,-4e-05,-0.0001,0.00016,-2e-05,-1e-05,-2.9999999999999997e-05,5
19606,20236,-5e-05,-7e-05,-4e-05,-0.0001,0.00016,-2e-05,-1e-05,-2.9999999999999997e-05,5
19607,20238,-5e-05,-7e-05,-4e-05,-0.0001,0.00016,-2e-05,-1e-05,-2.9999999999999997e-05,5
19608,20239,-5e-05,-7e-05,-4e-05,-0.0001,0.00016,-2e-05,-1e-05,-2.9999999999999997e-05,5
19609,20240,-5e-05,-7e-05,-4e-05,-0.0001,0.00016,-2e-05,-1e-05,-2.9999999999999997e-05,5
19610,20241,-5e-05,-7e-05,-4e-05,-0.0001,0.00016,-2e-05,-1e-05,-2.9999999999999997e-05,5
19611,20242,-5e-05,-7e-05,-4e-05,-0.0001,0.00016,-2e-05,-1e-05,-2.9999999999999997e-05,5
19612,20243,-5e-05,-7e-05,-4e-05,-0.0001,0.00016,-2e-05,-1e-05,-2.9999999999999997e-05,5
19613,20244,-5e-05,-7e-05,-4e-05,-0.0001,0.00016,-2e-05,-1e-05,-2.9999999999999997e-05,5
19614,20245,-5e-05,-7e-05,-4e-05,-0.0001,0.00016,-2e-05,-1e-05,-2.9999999999999997e-05,5
19615,20246,-5e-05,-7e-05,-4e-05,-0.0001,0.00016,-2e-05,-1e-05,-2.9999999999999997e-05,5
19616,20247,-5e-05,-7e-05,-4e-05,-0.0001,0.00016,-2e-05,-1e-05,-2.9999999999999997e-05,5
19617,20248,-5e-05,-7e-05,-4e-05,-0.0001,0.00016,-2e-05,-1e-05,-2.9999999999999997e-05,5
19618,20249,-5e-05,-7e-05,-4e-05,-0.0001,0.00016,-2e-05,-1e-05,-2.9999999999999997e-05,5
19619,20250,-5e-05,-7e-05,-4e-05,-0.0001,0.00016,-2e-05,-1e-05,-2.9999999999999997e-05,5
19620,20251,-5e-05,-7e-05,-4e-05,-0.0001,0.00016,-2e-05,-1e-05,-2.9999999999999997e-05,5
19621,20252,-5e-05,-7e-05,-4e-05,-0.0001,0.00016,-2e-05,-1e-05,-2.9999999999999997e-05,5
19622,20253,-5e-05,-7e-05,-4e-05,-0.0001,0.00016,-2e-05,-1e-05,-2.9999999999999997e-05,5
19623,20254,-5e-05,-7e-05,-4e-05,-0.0001,0.00016,-2e-05,-1e-05,-2.9999999999999997e-05,5
19624,20255,-5e-05,-7e-05,-4e-05,-0.0001,0.00016,-2e-05,-1e-05,-2.9999999999999997e-05,5
19625,20256,-2.9999999999999997e-05,-4e-05,-5.9999999999999995e-05,-0.00018,-0.00033999999999999997,-9e-05,-1e-05,-8e-05,5
19626,20257,-2.9999999999999997e-05,-7e-05,-8e-05,0.00032,-0.00016,-0.00015,-5e-05,-2.9999999999999997e-05,5
19627,20258,-5e-05,-7e-05,-0.00011999999999999999,-8e-05,0.0003,-2.9999999999999997e-05,-5e-05,2.9999999999999997e-05,5
19628,20259,-5e-05,-7e-05,-0.00011999999999999999,-8e-05,0.0003,-2.9999999999999997e-05,-5e-05,2.9999999999999997e-05,5
19629,20260,-5e-05,-7e-05,-0.00011999999999999999,-8e-05,0.0003,-2.9999999999999997e-05,-5e-05,2.9999999999999997e-05,5
19630,20261,-5e-05,-7e-05,-0.00011999999999999999,-8e-05,0.0003,-2.9999999999999997e-05,-5e-05,2.9999999999999997e-05,5
19631,20262,-5e-05,-7e-05,-0.00011999999999999999,-8e-05,0.0003,-2.9999999999999997e-05,-5e-05,2.9999999999999997e-05,5
19632,20263,-1e-05,-2e-05,-0.00011,-0.00041,-0.00015,-1e-05,-2e-05,1e-05,5
19633,20264,-1e-05,-2e-05,-0.00011,-0.00041,-0.00015,-1e-05,-2e-05,1e-05,5
19634,20265,-1e-05,-2e-05,-0.00011,-0.00041,-0.00015,-1e-05,-2e-05,1e-05,5
19635,20266,-1e-05,-2e-05,-0.00011,-0.00041,-0.00015,-1e-05,-2e-05,1e-05,5
19636,20267,-1e-05,-2e-05,-0.00011,-0.00041,-0.00015,-1e-05,-2e-05,1e-05,5
19637,20268,-1e-05,-2e-05,-0.00011,-0.00041,-0.00015,-1e-05,-2e-05,1e-05,5
19638,20269,-1e-05,-2e-05,-0.00011,-0.00041,-0.00015,-1e-05,-2e-05,1e-05,5
19639,20270,-1e-05,-2e-05,-0.00011,-0.00041,-0.00015,-1e-05,-2e-05,1e-05,5
19640,20271,-1e-05,-2e-05,-0.00011,-0.00041,-0.00015,-1e-05,-2e-05,1e-05,5
19641,20272,-1e-05,-2e-05,-0.00011,-0.00041,-0.00015,-1e-05,-2e-05,1e-05,5
19642,20273,-1e-05,-2e-05,-0.00011,-0.00041,-0.00015,-1e-05,-2e-05,1e-05,5
19643,20274,-1e-05,-2e-05,-0.00011,-0.00041,-0.00015,-1e-05,-2e-05,1e-05,5
19644,20275,-1e-05,-2e-05,-0.00011,-0.00041,-0.00015,-1e-05,-2e-05,1e-05,5
19645,20276,-1e-05,-2e-05,-0.00011,-0.00041,-0.00015,-1e-05,-2e-05,1e-05,5
19646,20277,-5e-05,-4e-05,0.0,-0.00014,0.00036,-1e-05,-5e-05,-4e-05,5
19647,20278,2.9999999999999997e-05,0.0,2e-05,0.00011,-5e-05,5e-05,1e-05,2e-05,5
19648,20279,-7e-05,-8e-05,-0.0001,-0.00047000000000000004,-4e-05,-0.00011,-8e-05,-9e-05,5
19649,20280,-7e-05,-8e-05,-0.0001,-0.00047000000000000004,-4e-05,-0.00011,-8e-05,-9e-05,5
19650,20281,-7e-05,-8e-05,-0.0001,-0.00047000000000000004,-4e-05,-0.00011,-8e-05,-9e-05,5
19651,20282,-7e-05,-8e-05,-0.0001,-0.00047000000000000004,-4e-05,-0.00011,-8e-05,-9e-05,5
19652,20283,-7e-05,-8e-05,-0.0001,-0.00047000000000000004,-4e-05,-0.00011,-8e-05,-9e-05,5
19653,20284,-7e-05,-8e-05,-0.0001,-0.00047000000000000004,-4e-05,-0.00011,-8e-05,-9e-05,5
19654,20285,-7e-05,-8e-05,-0.0001,-0.00047000000000000004,-4e-05,-0.00011,-8e-05,-9e-05,5
19655,20286,-7e-05,-8e-05,-0.0001,-0.00047000000000000004,-4e-05,-0.00011,-8e-05,-9e-05,5
19656,20288,-7e-05,-8e-05,-0.0001,-0.00047000000000000004,-4e-05,-0.00011,-8e-05,-9e-05,5
19657,20289,-7e-05,-8e-05,-0.0001,-0.00047000000000000004,-4e-05,-0.00011,-8e-05,-9e-05,5
19658,20290,-7e-05,-8e-05,-0.0001,-0.00047000000000000004,-4e-05,-0.00011,-8e-05,-9e-05,5
19659,20291,-7e-05,-8e-05,-0.0001,-0.00047000000000000004,-4e-05,-0.00011,-8e-05,-9e-05,5
19660,20292,-7e-05,-8e-05,-0.0001,-0.00047000000000000004,-4e-05,-0.00011,-8e-05,-9e-05,5
19661,20293,-7e-05,-8e-05,-0.0001,-0.00047000000000000004,-4e-05,-0.00011,-8e-05,-9e-05,5
19662,20294,-7e-05,-8e-05,-0.0001,-0.00047000000000000004,-4e-05,-0.00011,-8e-05,-9e-05,5
19663,20295,-7e-05,-8e-05,-0.0001,-0.00047000000000000004,-4e-05,-0.00011,-8e-05,-9e-05,5
19664,20296,-7e-05,-8e-05,-0.0001,-0.00047000000000000004,-4e-05,-0.00011,-8e-05,-9e-05,5
19665,20297,-7e-05,-8e-05,-0.0001,-0.00047000000000000004,-4e-05,-0.00011,-8e-05,-9e-05,5
19666,20298,-7e-05,-8e-05,-0.0001,-0.00047000000000000004,-4e-05,-0.00011,-8e-05,-9e-05,5
19667,20299,-7e-05,-8e-05,-0.0001,-0.00047000000000000004,-4e-05,-0.00011,-8e-05,-9e-05,5
19668,20300,2e-05,8e-05,4e-05,-0.0001,-0.00028,-2.9999999999999997e-05,2e-05,2e-05,5
19669,20301,2e-05,8e-05,4e-05,-0.0001,-0.00028,-2.9999999999999997e-05,2e-05,2e-05,5
19670,20302,7e-05,5e-05,0.00015,0.00045999999999999996,0.00028,-0.0001,-1e-05,7e-05,5
19671,20303,7e-05,5e-05,0.00015,0.00045999999999999996,0.00028,-0.0001,-1e-05,7e-05,5
19672,20304,7e-05,5e-05,0.00015,0.00045999999999999996,0.00028,-0.0001,-1e-05,7e-05,5
19673,20305,7e-05,5e-05,0.00015,0.00045999999999999996,0.00028,-0.0001,-1e-05,7e-05,5
19674,20306,7e-05,5e-05,0.00015,0.00045999999999999996,0.00028,-0.0001,-1e-05,7e-05,5
19675,20307,7e-05,5e-05,0.00015,0.00045999999999999996,0.00028,-0.0001,-1e-05,7e-05,5
19676,20308,7e-05,5e-05,0.00015,0.00045999999999999996,0.00028,-0.0001,-1e-05,7e-05,5
19677,20309,7e-05,5e-05,0.00015,0.00045999999999999996,0.00028,-0.0001,-1e-05,7e-05,5
19678,20310,7e-05,5e-05,0.00015,0.00045999999999999996,0.00028,-0.0001,-1e-05,7e-05,5
19679,20311,7e-05,5e-05,0.00015,0.00045999999999999996,0.00028,-0.0001,-1e-05,7e-05,5
19680,20312,7e-05,5e-05,0.00015,0.00045999999999999996,0.00028,-0.0001,-1e-05,7e-05,5
19681,20313,7e-05,5e-05,0.00015,0.00045999999999999996,0.00028,-0.0001,-1e-05,7e-05,5
19682,20314,2.9999999999999997e-05,-2e-05,7e-05,0.00018999999999999998,5.9999999999999995e-05,0.0,0.0,-5e-05,5
19683,20315,2.9999999999999997e-05,-2e-05,7e-05,0.00018999999999999998,5.9999999999999995e-05,0.0,0.0,-5e-05,5
19684,20316,2.9999999999999997e-05,-2e-05,7e-05,0.00018999999999999998,5.9999999999999995e-05,0.0,0.0,-5e-05,5
19685,20317,2.9999999999999997e-05,-2e-05,7e-05,0.00018999999999999998,5.9999999999999995e-05,0.0,0.0,-5e-05,5
19686,20318,2.9999999999999997e-05,-2e-05,7e-05,0.00018999999999999998,5.9999999999999995e-05,0.0,0.0,-5e-05,5
19687,20319,2.9999999999999997e-05,-2e-05,7e-05,0.00018999999999999998,5.9999999999999995e-05,0.0,0.0,-5e-05,5
19688,20320,2.9999999999999997e-05,-2e-05,7e-05,0.00018999999999999998,5.9999999999999995e-05,0.0,0.0,-5e-05,5
19689,20321,2.9999999999999997e-05,-2e-05,7e-05,0.00018999999999999998,5.9999999999999995e-05,0.0,0.0,-5e-05,5
19690,20322,2.9999999999999997e-05,-2e-05,7e-05,0.00018999999999999998,5.9999999999999995e-05,0.0,0.0,-5e-05,5
19691,20323,-8e-05,0.0,1e-05,0.00013000000000000002,2.9999999999999997e-05,1e-05,-0.00011999999999999999,-8e-05,5
19692,20324,-8e-05,0.0,1e-05,0.00013000000000000002,2.9999999999999997e-05,1e-05,-0.00011999999999999999,-8e-05,5
19693,20325,-8e-05,0.0,1e-05,0.00013000000000000002,2.9999999999999997e-05,1e-05,-0.00011999999999999999,-8e-05,5
19694,20326,-8e-05,0.0,1e-05,0.00013000000000000002,2.9999999999999997e-05,1e-05,-0.00011999999999999999,-8e-05,5
19695,20327,-8e-05,0.0,1e-05,0.00013000000000000002,2.9999999999999997e-05,1e-05,-0.00011999999999999999,-8e-05,5
19696,20328,-8e-05,0.0,1e-05,0.00013000000000000002,2.9999999999999997e-05,1e-05,-0.00011999999999999999,-8e-05,5
19697,20329,-8e-05,0.0,1e-05,0.00013000000000000002,2.9999999999999997e-05,1e-05,-0.00011999999999999999,-8e-05,5
19698,20330,-8e-05,0.0,1e-05,0.00013000000000000002,2.9999999999999997e-05,1e-05,-0.00011999999999999999,-8e-05,5
19699,20331,-8e-05,0.0,1e-05,0.00013000000000000002,2.9999999999999997e-05,1e-05,-0.00011999999999999999,-8e-05,5
19700,20332,-8e-05,0.0,1e-05,0.00013000000000000002,2.9999999999999997e-05,1e-05,-0.00011999999999999999,-8e-05,5
19701,20333,-8e-05,0.0,1e-05,0.00013000000000000002,2.9999999999999997e-05,1e-05,-0.00011999999999999999,-8e-05,5
19702,20334,-8e-05,0.0,1e-05,0.00013000000000000002,2.9999999999999997e-05,1e-05,-0.00011999999999999999,-8e-05,5
19703,20335,-8e-05,0.0,1e-05,0.00013000000000000002,2.9999999999999997e-05,1e-05,-0.00011999999999999999,-8e-05,5
19704,20336,-8e-05,0.0,1e-05,0.00013000000000000002,2.9999999999999997e-05,1e-05,-0.00011999999999999999,-8e-05,5
19705,20338,-2.9999999999999997e-05,-2.9999999999999997e-05,-8e-05,-2.9999999999999997e-05,-8e-05,-4e-05,-2e-05,-2.9999999999999997e-05,5
19706,20339,4e-05,5e-05,7e-05,-0.00016,0.00025,0.0003,0.00016,2.9999999999999997e-05,5
19707,20340,4e-05,5e-05,7e-05,-0.00016,0.00025,0.0003,0.00016,2.9999999999999997e-05,5
19708,20341,4e-05,5e-05,7e-05,-0.00016,0.00025,0.0003,0.00016,2.9999999999999997e-05,5
19709,20342,4e-05,5e-05,7e-05,-0.00016,0.00025,0.0003,0.00016,2.9999999999999997e-05,5
19710,20343,4e-05,5e-05,7e-05,-0.00016,0.00025,0.0003,0.00016,2.9999999999999997e-05,5
19711,20344,4e-05,5e-05,7e-05,-0.00016,0.00025,0.0003,0.00016,2.9999999999999997e-05,5
19712,20345,4e-05,5e-05,7e-05,-0.00016,0.00025,0.0003,0.00016,2.9999999999999997e-05,5
19713,20346,4e-05,5e-05,7e-05,-0.00016,0.00025,0.0003,0.00016,2.9999999999999997e-05,5
19714,20347,4e-05,5e-05,7e-05,-0.00016,0.00025,0.0003,0.00016,2.9999999999999997e-05,5
19715,20348,4e-05,5e-05,7e-05,-0.00016,0.00025,0.0003,0.00016,2.9999999999999997e-05,5
19716,20349,4e-05,5e-05,7e-05,-0.00016,0.00025,0.0003,0.00016,2.9999999999999997e-05,5
19717,20350,4e-05,5e-05,7e-05,-0.00016,0.00025,0.0003,0.00016,2.9999999999999997e-05,5
19718,20351,4e-05,5e-05,7e-05,-0.00016,0.00025,0.0003,0.00016,2.9999999999999997e-05,5
19719,20352,4e-05,5e-05,7e-05,-0.00016,0.00025,0.0003,0.00016,2.9999999999999997e-05,5
19720,20353,4e-05,5e-05,7e-05,-0.00016,0.00025,0.0003,0.00016,2.9999999999999997e-05,5
19721,20354,4e-05,5e-05,7e-05,-0.00016,0.00025,0.0003,0.00016,2.9999999999999997e-05,5
19722,20355,4e-05,5e-05,7e-05,-0.00016,0.00025,0.0003,0.00016,2.9999999999999997e-05,5
19723,20356,4e-05,5e-05,7e-05,-0.00016,0.00025,0.0003,0.00016,2.9999999999999997e-05,5
