,time,channel1,channel2,channel3,channel4,channel5,channel6,channel7,channel8,class
24080,24942,1e-05,-2.9999999999999997e-05,-0.00027,-0.0004,0.00033,0.00023999999999999998,8e-05,2.9999999999999997e-05,5
24081,24943,1e-05,-2.9999999999999997e-05,-0.00027,-0.0004,0.00033,0.00023999999999999998,8e-05,2.9999999999999997e-05,5
24082,24944,1e-05,-2.9999999999999997e-05,-0.00027,-0.0004,0.00033,0.00023999999999999998,8e-05,2.9999999999999997e-05,5
24083,24945,1e-05,-2.9999999999999997e-05,-0.00027,-0.0004,0.00033,0.00023999999999999998,8e-05,2.9999999999999997e-05,5
24084,24946,1e-05,-2.9999999999999997e-05,-0.00027,-0.0004,0.00033,0.00023999999999999998,8e-05,2.9999999999999997e-05,5
24085,24947,1e-05,-2.9999999999999997e-05,-0.00027,-0.0004,0.00033,0.00023999999999999998,8e-05,2.9999999999999997e-05,5
24086,24948,1e-05,-2.9999999999999997e-05,-0.00027,-0.0004,0.00033,0.00023999999999999998,8e-05,2.9999999999999997e-05,5
24087,24949,1e-05,-2.9999999999999997e-05,-0.00027,-0.0004,0.00033,0.00023999999999999998,8e-05,2.9999999999999997e-05,5
24088,24950,1e-05,-2.9999999999999997e-05,-0.00027,-0.0004,0.00033,0.00023999999999999998,8e-05,2.9999999999999997e-05,5
24089,24951,1e-05,0.00011999999999999999,0.00035,-9e-05,1e-05,2.9999999999999997e-05,-0.00014,-5.9999999999999995e-05,5
24090,24952,-5.9999999999999995e-05,-0.00016,-0.00036,0.00035,0.0006,0.0,-2e-05,-5e-05,5
24091,24953,4e-05,0.00018999999999999998,0.00065,0.00015,8e-05,4e-05,0.0,5e-05,5
24092,24954,4e-05,0.00018999999999999998,0.00065,0.00015,8e-05,4e-05,0.0,5e-05,5
24093,24955,4e-05,0.00018999999999999998,0.00065,0.00015,8e-05,4e-05,0.0,5e-05,5
24094,24956,4e-05,0.00018999999999999998,0.00065,0.00015,8e-05,4e-05,0.0,5e-05,5
24095,24957,4e-05,0.00018999999999999998,0.00065,0.00015,8e-05,4e-05,0.0,5e-05,5
24096,24958,4e-05,0.00018999999999999998,0.00065,0.00015,8e-05,4e-05,0.0,5e-05,5
24097,24959,4e-05,0.00018999999999999998,0.00065,0.00015,8e-05,4e-05,0.0,5e-05,5
24098,24960,4e-05,0.00018999999999999998,0.00065,0.00015,8e-05,4e-05,0.0,5e-05,5
24099,24961,4e-05,0.00018999999999999998,0.00065,0.00015,8e-05,4e-05,0.0,5e-05,5
24100,24962,4e-05,0.00018999999999999998,0.00065,0.00015,8e-05,4e-05,0.0,5e-05,5
24101,24963,4e-05,0.00018999999999999998,0.00065,0.00015,8e-05,4e-05,0.0,5e-05,5
24102,24964,4e-05,0.00018999999999999998,0.00065,0.00015,8e-05,4e-05,0.0,5e-05,5
24103,24965,4e-05,0.00018999999999999998,0.00065,0.00015,8e-05,4e-05,0.0,5e-05,5
24104,24966,4e-05,0.00018999999999999998,0.00065,0.00015,8e-05,4e-05,0.0,5e-05,5
24105,24967,4e-05,0.00018999999999999998,0.00065,0.00015,8e-05,4e-05,0.0,5e-05,5
24106,24968,4e-05,0.00018999999999999998,0.00065,0.00015,8e-05,4e-05,0.0,5e-05,5
24107,24969,4e-05,0.00018999999999999998,0.00065,0.00015,8e-05,4e-05,0.0,5e-05,5
24108,24970,4e-05,0.00018999999999999998,0.00065,0.00015,8e-05,4e-05,0.0,5e-05,5
24109,24971,4e-05,0.00018999999999999998,0.00065,0.00015,8e-05,4e-05,0.0,5e-05,5
24110,24972,4e-05,0.00018999999999999998,0.00065,0.00015,8e-05,4e-05,0.0,5e-05,5
24111,24973,4e-05,0.00018999999999999998,0.00065,0.00015,8e-05,4e-05,0.0,5e-05,5
24112,24974,1e-05,9e-05,0.00029,0.00021,-1e-05,-0.00028,-0.00016999999999999999,-0.0001,5
24113,24975,-9e-05,-7e-05,0.00045999999999999996,4e-05,-0.0002,-0.00022,-2.9999999999999997e-05,-7e-05,5
24114,24976,-9e-05,-7e-05,0.00045999999999999996,4e-05,-0.0002,-0.00022,-2.9999999999999997e-05,-7e-05,5
24115,24977,-9e-05,-7e-05,0.00045999999999999996,4e-05,-0.0002,-0.00022,-2.9999999999999997e-05,-7e-05,5
24116,24978,-9e-05,-7e-05,0.00045999999999999996,4e-05,-0.0002,-0.00022,-2.9999999999999997e-05,-7e-05,5
24117,24979,-9e-05,-7e-05,0.00045999999999999996,4e-05,-0.0002,-0.00022,-2.9999999999999997e-05,-7e-05,5
24118,24980,-9e-05,-7e-05,0.00045999999999999996,4e-05,-0.0002,-0.00022,-2.9999999999999997e-05,-7e-05,5
24119,24981,-9e-05,-7e-05,0.00045999999999999996,4e-05,-0.0002,-0.00022,-2.9999999999999997e-05,-7e-05,5
24120,24982,-9e-05,-7e-05,0.00045999999999999996,4e-05,-0.0002,-0.00022,-2.9999999999999997e-05,-7e-05,5
24121,24983,-9e-05,-7e-05,0.00045999999999999996,4e-05,-0.0002,-0.00022,-2.9999999999999997e-05,-7e-05,5
24122,24984,-9e-05,-7e-05,0.00045999999999999996,4e-05,-0.0002,-0.00022,-2.9999999999999997e-05,-7e-05,5
24123,24985,-9e-05,-7e-05,0.00045999999999999996,4e-05,-0.0002,-0.00022,-2.9999999999999997e-05,-7e-05,5
24124,24986,-9e-05,-7e-05,0.00045999999999999996,4e-05,-0.0002,-0.00022,-2.9999999999999997e-05,-7e-05,5
24125,24989,-9e-05,-7e-05,0.00045999999999999996,4e-05,-0.0002,-0.00022,-2.9999999999999997e-05,-7e-05,5
24126,24990,-9e-05,-7e-05,0.00045999999999999996,4e-05,-0.0002,-0.00022,-2.9999999999999997e-05,-7e-05,5
24127,24991,-9e-05,-7e-05,0.00045999999999999996,4e-05,-0.0002,-0.00022,-2.9999999999999997e-05,-7e-05,5
24128,24992,-9e-05,-7e-05,0.00045999999999999996,4e-05,-0.0002,-0.00022,-2.9999999999999997e-05,-7e-05,5
24129,24993,-9e-05,-7e-05,0.00045999999999999996,4e-05,-0.0002,-0.00022,-2.9999999999999997e-05,-7e-05,5
24130,24994,-9e-05,-7e-05,0.00045999999999999996,4e-05,-0.0002,-0.00022,-2.9999999999999997e-05,-7e-05,5
24131,24995,-5e-05,-0.00011999999999999999,-5.9999999999999995e-05,0.00013000000000000002,-0.00018999999999999998,-0.0001,-1e-05,-2e-05,5
24132,24996,-5e-05,-0.00011999999999999999,-5.9999999999999995e-05,0.00013000000000000002,-0.00018999999999999998,-0.0001,-1e-05,-2e-05,5
24133,24997,-5e-05,-0.00011999999999999999,-5.9999999999999995e-05,0.00013000000000000002,-0.00018999999999999998,-0.0001,-1e-05,-2e-05,5
24134,24998,-5e-05,-0.00011999999999999999,-5.9999999999999995e-05,0.00013000000000000002,-0.00018999999999999998,-0.0001,-1e-05,-2e-05,5
24135,24999,-5e-05,-0.00011999999999999999,-5.9999999999999995e-05,0.00013000000000000002,-0.00018999999999999998,-0.0001,-1e-05,-2e-05,5
24136,25000,-5e-05,-0.00011999999999999999,-5.9999999999999995e-05,0.00013000000000000002,-0.00018999999999999998,-0.0001,-1e-05,-2e-05,5
24137,25001,-5e-05,-0.00011999999999999999,-5.9999999999999995e-05,0.00013000000000000002,-0.00018999999999999998,-0.0001,-1e-05,-2e-05,5
24138,25002,-5e-05,-0.00011999999999999999,-5.9999999999999995e-05,0.00013000000000000002,-0.00018999999999999998,-0.0001,-1e-05,-2e-05,5
24139,25003,-5e-05,-0.00011999999999999999,-5.9999999999999995e-05,0.00013000000000000002,-0.00018999999999999998,-0.0001,-1e-05,-2e-05,5
24140,25004,1e-05,5e-05,-0.00014,2.9999999999999997e-05,-0.00025,-0.00025,-9e-05,-4e-05,5
24141,25005,1e-05,5e-05,-0.00014,2.9999999999999997e-05,-0.00025,-0.00025,-9e-05,-4e-05,5
24142,25006,1e-05,5e-05,-0.00014,2.9999999999999997e-05,-0.00025,-0.00025,-9e-05,-4e-05,5
24143,25007,1e-05,5e-05,-0.00014,2.9999999999999997e-05,-0.00025,-0.00025,-9e-05,-4e-05,5
24144,25008,1e-05,5e-05,-0.00014,2.9999999999999997e-05,-0.00025,-0.00025,-9e-05,-4e-05,5
24145,25009,1e-05,5e-05,-0.00014,2.9999999999999997e-05,-0.00025,-0.00025,-9e-05,-4e-05,5
24146,25010,1e-05,5e-05,-0.00014,2.9999999999999997e-05,-0.00025,-0.00025,-9e-05,-4e-05,5
24147,25011,1e-05,5e-05,-0.00014,2.9999999999999997e-05,-0.00025,-0.00025,-9e-05,-4e-05,5
24148,25012,1e-05,5e-05,-0.00014,2.9999999999999997e-05,-0.00025,-0.00025,-9e-05,-4e-05,5
24149,25013,1e-05,5e-05,-0.00014,2.9999999999999997e-05,-0.00025,-0.00025,-9e-05,-4e-05,5
24150,25014,1e-05,5e-05,-0.00014,2.9999999999999997e-05,-0.00025,-0.00025,-9e-05,-4e-05,5
24151,25015,1e-05,5e-05,-0.00014,2.9999999999999997e-05,-0.00025,-0.00025,-9e-05,-4e-05,5
24152,25016,1e-05,5e-05,-0.00014,2.9999999999999997e-05,-0.00025,-0.00025,-9e-05,-4e-05,5
24153,25017,1e-05,5e-05,-0.00014,2.9999999999999997e-05,-0.00025,-0.00025,-9e-05,-4e-05,5
24154,25018,-4e-05,-4e-05,-1e-05,-0.00011999999999999999,-0.00054,-9e-05,9e-05,-2.9999999999999997e-05,5
24155,25019,-5.9999999999999995e-05,-0.00023999999999999998,-0.00045999999999999996,-0.00032,0.00028,4e-05,-7e-05,-5e-05,5
24156,25020,-4e-05,-0.00028,-0.00072,-0.00061,-0.0009400000000000001,0.00018,0.00013000000000000002,0.0001,5
24157,25021,-4e-05,-0.00028,-0.00072,-0.00061,-0.0009400000000000001,0.00018,0.00013000000000000002,0.0001,5
24158,25022,-4e-05,-0.00028,-0.00072,-0.00061,-0.0009400000000000001,0.00018,0.00013000000000000002,0.0001,5
24159,25023,-4e-05,-0.00028,-0.00072,-0.00061,-0.0009400000000000001,0.00018,0.00013000000000000002,0.0001,5
24160,25024,-4e-05,-0.00028,-0.00072,-0.00061,-0.0009400000000000001,0.00018,0.00013000000000000002,0.0001,5
24161,25025,-4e-05,-0.00028,-0.00072,-0.00061,-0.0009400000000000001,0.00018,0.00013000000000000002,0.0001,5
24162,25026,-4e-05,-0.00028,-0.00072,-0.00061,-0.0009400000000000001,0.00018,0.00013000000000000002,0.0001,5
24163,25027,-4e-05,-0.00028,-0.00072,-0.00061,-0.0009400000000000001,0.00018,0.00013000000000000002,0.0001,5
24164,25028,-4e-05,-0.00028,-0.00072,-0.00061,-0.0009400000000000001,0.00018,0.00013000000000000002,0.0001,5
24165,25029,-4e-05,-0.00028,-0.00072,-0.00061,-0.0009400000000000001,0.00018,0.00013000000000000002,0.0001,5
24166,25030,-4e-05,-0.00028,-0.00072,-0.00061,-0.0009400000000000001,0.00018,0.00013000000000000002,0.0001,5
24167,25031,-4e-05,-0.00028,-0.00072,-0.00061,-0.0009400000000000001,0.00018,0.00013000000000000002,0.0001,5
24168,25033,-4e-05,-0.00028,-0.00072,-0.00061,-0.0009400000000000001,0.00018,0.00013000000000000002,0.0001,5
24169,25034,-4e-05,-0.00028,-0.00072,-0.00061,-0.0009400000000000001,0.00018,0.00013000000000000002,0.0001,5
24170,25035,-4e-05,-0.00028,-0.00072,-0.00061,-0.0009400000000000001,0.00018,0.00013000000000000002,0.0001,5
24171,25036,-4e-05,-0.00028,-0.00072,-0.00061,-0.0009400000000000001,0.00018,0.00013000000000000002,0.0001,5
24172,25039,-4e-05,-0.00028,-0.00072,-0.00061,-0.0009400000000000001,0.00018,0.00013000000000000002,0.0001,5
24173,25040,-4e-05,-0.00028,-0.00072,-0.00061,-0.0009400000000000001,0.00018,0.00013000000000000002,0.0001,5
24174,25041,4e-05,5e-05,8e-05,0.00042,0.00045999999999999996,0.00013000000000000002,0.00011999999999999999,8e-05,5
24175,25042,5e-05,0.00011,0.00035,0.0001,-0.00037999999999999997,-7e-05,-0.00011999999999999999,-5.9999999999999995e-05,5
24176,25043,-7e-05,-0.00021,-0.00056,-0.00011999999999999999,-0.00026000000000000003,-8e-05,-8e-05,-4e-05,5
24177,25044,-7e-05,-0.00021,-0.00056,-0.00011999999999999999,-0.00026000000000000003,-8e-05,-8e-05,-4e-05,5
24178,25045,-7e-05,-0.00021,-0.00056,-0.00011999999999999999,-0.00026000000000000003,-8e-05,-8e-05,-4e-05,5
24179,25046,-7e-05,-0.00021,-0.00056,-0.00011999999999999999,-0.00026000000000000003,-8e-05,-8e-05,-4e-05,5
24180,25047,-7e-05,-0.00021,-0.00056,-0.00011999999999999999,-0.00026000000000000003,-8e-05,-8e-05,-4e-05,5
24181,25048,-7e-05,-0.00021,-0.00056,-0.00011999999999999999,-0.00026000000000000003,-8e-05,-8e-05,-4e-05,5
24182,25049,-7e-05,-0.00021,-0.00056,-0.00011999999999999999,-0.00026000000000000003,-8e-05,-8e-05,-4e-05,5
24183,25050,-7e-05,-0.00021,-0.00056,-0.00011999999999999999,-0.00026000000000000003,-8e-05,-8e-05,-4e-05,5
24184,25051,-7e-05,-0.00021,-0.00056,-0.00011999999999999999,-0.00026000000000000003,-8e-05,-8e-05,-4e-05,5
24185,25052,-7e-05,-0.00021,-0.00056,-0.00011999999999999999,-0.00026000000000000003,-8e-05,-8e-05,-4e-05,5
24186,25053,-7e-05,-0.00021,-0.00056,-0.00011999999999999999,-0.00026000000000000003,-8e-05,-8e-05,-4e-05,5
24187,25054,-7e-05,-0.00021,-0.00056,-0.00011999999999999999,-0.00026000000000000003,-8e-05,-8e-05,-4e-05,5
24188,25055,-7e-05,-0.00021,-0.00056,-0.00011999999999999999,-0.00026000000000000003,-8e-05,-8e-05,-4e-05,5
24189,25056,-7e-05,-0.00021,-0.00056,-0.00011999999999999999,-0.00026000000000000003,-8e-05,-8e-05,-4e-05,5
24190,25057,-7e-05,-0.00021,-0.00056,-0.00011999999999999999,-0.00026000000000000003,-8e-05,-8e-05,-4e-05,5
24191,25058,-7e-05,-0.00021,-0.00056,-0.00011999999999999999,-0.00026000000000000003,-8e-05,-8e-05,-4e-05,5
24192,25059,-7e-05,-0.00021,-0.00056,-0.00011999999999999999,-0.00026000000000000003,-8e-05,-8e-05,-4e-05,5
24193,25060,-7e-05,-0.00021,-0.00056,-0.00011999999999999999,-0.00026000000000000003,-8e-05,-8e-05,-4e-05,5
24194,25061,-7e-05,-0.00021,-0.00056,-0.00011999999999999999,-0.00026000000000000003,-8e-05,-8e-05,-4e-05,5
24195,25062,-7e-05,-0.00021,-0.00056,-0.00011999999999999999,-0.00026000000000000003,-8e-05,-8e-05,-4e-05,5
24196,25063,-2.9999999999999997e-05,-2.9999999999999997e-05,-7e-05,-0.00011,-0.00022999999999999998,-0.00018999999999999998,5e-05,-1e-05,5
24197,25064,4e-05,-2e-05,-0.00015,-0.00042,-0.00023999999999999998,-4e-05,0.0,-2.9999999999999997e-05,5
24198,25065,1e-05,1e-05,-4e-05,0.00041,0.00022,5e-05,-1e-05,-2.9999999999999997e-05,5
24199,25066,1e-05,1e-05,-4e-05,0.00041,0.00022,5e-05,-1e-05,-2.9999999999999997e-05,5
24200,25067,1e-05,1e-05,-4e-05,0.00041,0.00022,5e-05,-1e-05,-2.9999999999999997e-05,5
24201,25068,1e-05,1e-05,-4e-05,0.00041,0.00022,5e-05,-1e-05,-2.9999999999999997e-05,5
24202,25069,1e-05,1e-05,-4e-05,0.00041,0.00022,5e-05,-1e-05,-2.9999999999999997e-05,5
24203,25070,1e-05,1e-05,-4e-05,0.00041,0.00022,5e-05,-1e-05,-2.9999999999999997e-05,5
24204,25071,5e-05,5e-05,1e-05,-0.00037999999999999997,-0.00033999999999999997,0.00011,5e-05,8e-05,5
24205,25072,0.00015,0.00032,0.00061,0.00042,5.9999999999999995e-05,0.0002,0.00023999999999999998,0.00022,5
24206,25073,1e-05,0.00016,0.00033,0.00036,-0.00011,-1e-05,-0.00011999999999999999,-8e-05,5
24207,25074,1e-05,0.00016,0.00033,0.00036,-0.00011,-1e-05,-0.00011999999999999999,-8e-05,5
24208,25075,1e-05,0.00016,0.00033,0.00036,-0.00011,-1e-05,-0.00011999999999999999,-8e-05,5
24209,25076,1e-05,0.00016,0.00033,0.00036,-0.00011,-1e-05,-0.00011999999999999999,-8e-05,5
24210,25077,1e-05,0.00016,0.00033,0.00036,-0.00011,-1e-05,-0.00011999999999999999,-8e-05,5
24211,25079,1e-05,0.00016,0.00033,0.00036,-0.00011,-1e-05,-0.00011999999999999999,-8e-05,5
24212,25080,1e-05,0.00016,0.00033,0.00036,-0.00011,-1e-05,-0.00011999999999999999,-8e-05,5
24213,25081,1e-05,0.00016,0.00033,0.00036,-0.00011,-1e-05,-0.00011999999999999999,-8e-05,5
24214,25082,1e-05,0.00016,0.00033,0.00036,-0.00011,-1e-05,-0.00011999999999999999,-8e-05,5
24215,25083,1e-05,0.00016,0.00033,0.00036,-0.00011,-1e-05,-0.00011999999999999999,-8e-05,5
24216,25084,1e-05,0.00016,0.00033,0.00036,-0.00011,-1e-05,-0.00011999999999999999,-8e-05,5
24217,25085,1e-05,0.00016,0.00033,0.00036,-0.00011,-1e-05,-0.00011999999999999999,-8e-05,5
24218,25086,1e-05,0.00016,0.00033,0.00036,-0.00011,-1e-05,-0.00011999999999999999,-8e-05,5
24219,25089,1e-05,0.00016,0.00033,0.00036,-0.00011,-1e-05,-0.00011999999999999999,-8e-05,5
24220,25090,1e-05,0.00016,0.00033,0.00036,-0.00011,-1e-05,-0.00011999999999999999,-8e-05,5
24221,25091,1e-05,0.00016,0.00033,0.00036,-0.00011,-1e-05,-0.00011999999999999999,-8e-05,5
24222,25092,1e-05,0.00016,0.00033,0.00036,-0.00011,-1e-05,-0.00011999999999999999,-8e-05,5
24223,25093,-1e-05,0.00011,0.00018999999999999998,0.0003,0.00018999999999999998,2.9999999999999997e-05,-0.0001,0.0,5
24224,25094,-1e-05,0.00011,0.00018999999999999998,0.0003,0.00018999999999999998,2.9999999999999997e-05,-0.0001,0.0,5
24225,25095,-5e-05,7e-05,0.00047999999999999996,0.00067,-5.9999999999999995e-05,-0.00014,-0.00015,-0.00011999999999999999,5
24226,25096,-5e-05,7e-05,0.00047999999999999996,0.00067,-5.9999999999999995e-05,-0.00014,-0.00015,-0.00011999999999999999,5
24227,25097,-5e-05,7e-05,0.00047999999999999996,0.00067,-5.9999999999999995e-05,-0.00014,-0.00015,-0.00011999999999999999,5
24228,25098,-5e-05,7e-05,0.00047999999999999996,0.00067,-5.9999999999999995e-05,-0.00014,-0.00015,-0.00011999999999999999,5
24229,25099,-5e-05,7e-05,0.00047999999999999996,0.00067,-5.9999999999999995e-05,-0.00014,-0.00015,-0.00011999999999999999,5
24230,25100,-5e-05,7e-05,0.00047999999999999996,0.00067,-5.9999999999999995e-05,-0.00014,-0.00015,-0.00011999999999999999,5
24231,25101,-5e-05,7e-05,0.00047999999999999996,0.00067,-5.9999999999999995e-05,-0.00014,-0.00015,-0.00011999999999999999,5
24232,25102,-5e-05,7e-05,0.00047999999999999996,0.00067,-5.9999999999999995e-05,-0.00014,-0.00015,-0.00011999999999999999,5
24233,25103,-5e-05,7e-05,0.00047999999999999996,0.00067,-5.9999999999999995e-05,-0.00014,-0.00015,-0.00011999999999999999,5
24234,25104,-5e-05,7e-05,0.00047999999999999996,0.00067,-5.9999999999999995e-05,-0.00014,-0.00015,-0.00011999999999999999,5
24235,25105,-5e-05,7e-05,0.00047999999999999996,0.00067,-5.9999999999999995e-05,-0.00014,-0.00015,-0.00011999999999999999,5
24236,25106,-5e-05,7e-05,0.00047999999999999996,0.00067,-5.9999999999999995e-05,-0.00014,-0.00015,-0.00011999999999999999,5
24237,25107,2.9999999999999997e-05,9e-05,0.00016999999999999999,-0.00032,-0.00032,-1e-05,0.0001,4e-05,5
24238,25108,2.9999999999999997e-05,9e-05,0.00016999999999999999,-0.00032,-0.00032,-1e-05,0.0001,4e-05,5
24239,25109,2.9999999999999997e-05,9e-05,0.00016999999999999999,-0.00032,-0.00032,-1e-05,0.0001,4e-05,5
24240,25110,2.9999999999999997e-05,9e-05,0.00016999999999999999,-0.00032,-0.00032,-1e-05,0.0001,4e-05,5
24241,25111,2.9999999999999997e-05,9e-05,0.00016999999999999999,-0.00032,-0.00032,-1e-05,0.0001,4e-05,5
24242,25112,2.9999999999999997e-05,9e-05,0.00016999999999999999,-0.00032,-0.00032,-1e-05,0.0001,4e-05,5
24243,25113,2.9999999999999997e-05,9e-05,0.00016999999999999999,-0.00032,-0.00032,-1e-05,0.0001,4e-05,5
24244,25114,2.9999999999999997e-05,9e-05,0.00016999999999999999,-0.00032,-0.00032,-1e-05,0.0001,4e-05,5
24245,25115,2.9999999999999997e-05,9e-05,0.00016999999999999999,-0.00032,-0.00032,-1e-05,0.0001,4e-05,5
24246,25116,-4e-05,-0.00011,-0.0002,7e-05,7e-05,2.9999999999999997e-05,-0.00011,-4e-05,5
24247,25117,-4e-05,-0.00011,-0.0002,7e-05,7e-05,2.9999999999999997e-05,-0.00011,-4e-05,5
24248,25118,-4e-05,-0.00011,-0.0002,7e-05,7e-05,2.9999999999999997e-05,-0.00011,-4e-05,5
24249,25119,-4e-05,-0.00011,-0.0002,7e-05,7e-05,2.9999999999999997e-05,-0.00011,-4e-05,5
24250,25120,-4e-05,-0.00011,-0.0002,7e-05,7e-05,2.9999999999999997e-05,-0.00011,-4e-05,5
24251,25121,-4e-05,-0.00011,-0.0002,7e-05,7e-05,2.9999999999999997e-05,-0.00011,-4e-05,5
24252,25122,-4e-05,-0.00011,-0.0002,7e-05,7e-05,2.9999999999999997e-05,-0.00011,-4e-05,5
24253,25123,-4e-05,-0.00011,-0.0002,7e-05,7e-05,2.9999999999999997e-05,-0.00011,-4e-05,5
24254,25124,-4e-05,-0.00011,-0.0002,7e-05,7e-05,2.9999999999999997e-05,-0.00011,-4e-05,5
24255,25125,-4e-05,-0.00011,-0.0002,7e-05,7e-05,2.9999999999999997e-05,-0.00011,-4e-05,5
24256,25126,-4e-05,-0.00011,-0.0002,7e-05,7e-05,2.9999999999999997e-05,-0.00011,-4e-05,5
24257,25127,-4e-05,-0.00011,-0.0002,7e-05,7e-05,2.9999999999999997e-05,-0.00011,-4e-05,5
24258,25128,-4e-05,-0.00011,-0.0002,7e-05,7e-05,2.9999999999999997e-05,-0.00011,-4e-05,5
24259,25129,-4e-05,-0.00011,-0.0002,7e-05,7e-05,2.9999999999999997e-05,-0.00011,-4e-05,5
24260,25130,-4e-05,-0.00011,-0.0002,7e-05,7e-05,2.9999999999999997e-05,-0.00011,-4e-05,5
24261,25131,-4e-05,-0.00011,-0.0002,7e-05,7e-05,2.9999999999999997e-05,-0.00011,-4e-05,5
24262,25132,0.00016,0.00036,0.0006799999999999999,0.00061,0.00081,0.00049,0.00013000000000000002,9e-05,5
24263,25133,0.00016,0.00036,0.0006799999999999999,0.00061,0.00081,0.00049,0.00013000000000000002,9e-05,5
24264,25134,0.00016,0.00036,0.0006799999999999999,0.00061,0.00081,0.00049,0.00013000000000000002,9e-05,5
24265,25135,0.00016,0.00036,0.0006799999999999999,0.00061,0.00081,0.00049,0.00013000000000000002,9e-05,5
24266,25136,0.00016,0.00036,0.0006799999999999999,0.00061,0.00081,0.00049,0.00013000000000000002,9e-05,5
24267,25139,0.00016,0.00036,0.0006799999999999999,0.00061,0.00081,0.00049,0.00013000000000000002,9e-05,5
24268,25140,0.00016,0.00036,0.0006799999999999999,0.00061,0.00081,0.00049,0.00013000000000000002,9e-05,5
24269,25141,0.00016,0.00036,0.0006799999999999999,0.00061,0.00081,0.00049,0.00013000000000000002,9e-05,5
24270,25142,0.00016,0.00036,0.0006799999999999999,0.00061,0.00081,0.00049,0.00013000000000000002,9e-05,5
24271,25143,0.00016,0.00036,0.0006799999999999999,0.00061,0.00081,0.00049,0.00013000000000000002,9e-05,5
24272,25144,0.00016,0.00036,0.0006799999999999999,0.00061,0.00081,0.00049,0.00013000000000000002,9e-05,5
24273,25145,0.00016,0.00036,0.0006799999999999999,0.00061,0.00081,0.00049,0.00013000000000000002,9e-05,5
24274,25146,0.00016,0.00036,0.0006799999999999999,0.00061,0.00081,0.00049,0.00013000000000000002,9e-05,5
24275,25147,0.00016,0.00036,0.0006799999999999999,0.00061,0.00081,0.00049,0.00013000000000000002,9e-05,5
24276,25148,0.00016,0.00036,0.0006799999999999999,0.00061,0.00081,0.00049,0.00013000000000000002,9e-05,5
24277,25149,0.00016,0.00036,0.0006799999999999999,0.00061,0.00081,0.00049,0.00013000000000000002,9e-05,5
24278,25150,0.00016,0.00036,0.0006799999999999999,0.00061,0.00081,0.00049,0.00013000000000000002,9e-05,5
24279,25151,0.00016,0.00036,0.0006799999999999999,0.00061,0.00081,0.00049,0.00013000000000000002,9e-05,5
24280,25152,0.00016,0.00036,0.0006799999999999999,0.00061,0.00081,0.00049,0.00013000000000000002,9e-05,5
24281,25153,-0.00016,-0.00037999999999999997,-0.0009599999999999999,-0.00098,-0.00065,-8e-05,4e-05,-1e-05,5
24282,25154,0.00011,0.00011,-2e-05,-0.00016,0.00053,0.00047999999999999996,0.00016,9e-05,5
24283,25155,2e-05,5e-05,0.00011,8e-05,-8e-05,-0.00011999999999999999,-1e-05,-1e-05,5
24284,25156,2e-05,5e-05,0.00011,8e-05,-8e-05,-0.00011999999999999999,-1e-05,-1e-05,5
24285,25158,2e-05,5e-05,0.00011,8e-05,-8e-05,-0.00011999999999999999,-1e-05,-1e-05,5
24286,25159,2e-05,5e-05,0.00011,8e-05,-8e-05,-0.00011999999999999999,-1e-05,-1e-05,5
24287,25160,2e-05,5e-05,0.00011,8e-05,-8e-05,-0.00011999999999999999,-1e-05,-1e-05,5
24288,25161,2e-05,5e-05,0.00011,8e-05,-8e-05,-0.00011999999999999999,-1e-05,-1e-05,5
24289,25162,2e-05,5e-05,0.00011,8e-05,-8e-05,-0.00011999999999999999,-1e-05,-1e-05,5
24290,25163,2e-05,5e-05,0.00011,8e-05,-8e-05,-0.00011999999999999999,-1e-05,-1e-05,5
24291,25164,2e-05,5e-05,0.00011,8e-05,-8e-05,-0.00011999999999999999,-1e-05,-1e-05,5
24292,25165,2e-05,5e-05,0.00011,8e-05,-8e-05,-0.00011999999999999999,-1e-05,-1e-05,5
24293,25166,2e-05,5e-05,0.00011,8e-05,-8e-05,-0.00011999999999999999,-1e-05,-1e-05,5
24294,25167,2e-05,5e-05,0.00011,8e-05,-8e-05,-0.00011999999999999999,-1e-05,-1e-05,5
24295,25168,2e-05,5e-05,0.00011,8e-05,-8e-05,-0.00011999999999999999,-1e-05,-1e-05,5
24296,25169,2e-05,5e-05,0.00011,8e-05,-8e-05,-0.00011999999999999999,-1e-05,-1e-05,5
24297,25170,2e-05,5e-05,0.00011,8e-05,-8e-05,-0.00011999999999999999,-1e-05,-1e-05,5
24298,25171,2e-05,5e-05,0.00011,8e-05,-8e-05,-0.00011999999999999999,-1e-05,-1e-05,5
24299,25172,2e-05,5e-05,0.00011,8e-05,-8e-05,-0.00011999999999999999,-1e-05,-1e-05,5
24300,25173,2e-05,5e-05,0.00011,8e-05,-8e-05,-0.00011999999999999999,-1e-05,-1e-05,5
24301,25174,2e-05,5e-05,0.00011,8e-05,-8e-05,-0.00011999999999999999,-1e-05,-1e-05,5
24302,25175,-2.9999999999999997e-05,-9e-05,-0.00027,-7e-05,0.0003,-0.00018999999999999998,2e-05,-9e-05,5
24303,25176,0.0,-2e-05,-5.9999999999999995e-05,-0.00053,-0.00022999999999999998,-0.00016,-5e-05,-1e-05,5
24304,25177,0.0,-2e-05,-5.9999999999999995e-05,-0.00053,-0.00022999999999999998,-0.00016,-5e-05,-1e-05,5
24305,25178,0.0,-2e-05,-5.9999999999999995e-05,-0.00053,-0.00022999999999999998,-0.00016,-5e-05,-1e-05,5
24306,25179,0.0,-2e-05,-5.9999999999999995e-05,-0.00053,-0.00022999999999999998,-0.00016,-5e-05,-1e-05,5
24307,25180,0.0,-2e-05,-5.9999999999999995e-05,-0.00053,-0.00022999999999999998,-0.00016,-5e-05,-1e-05,5
24308,25181,0.0,-2e-05,-5.9999999999999995e-05,-0.00053,-0.00022999999999999998,-0.00016,-5e-05,-1e-05,5
24309,25182,0.0,-2e-05,-5.9999999999999995e-05,-0.00053,-0.00022999999999999998,-0.00016,-5e-05,-1e-05,5
24310,25183,0.0,-2e-05,-5.9999999999999995e-05,-0.00053,-0.00022999999999999998,-0.00016,-5e-05,-1e-05,5
24311,25184,0.0,-2e-05,-5.9999999999999995e-05,-0.00053,-0.00022999999999999998,-0.00016,-5e-05,-1e-05,5
24312,25185,0.0,-2e-05,-5.9999999999999995e-05,-0.00053,-0.00022999999999999998,-0.00016,-5e-05,-1e-05,5
24313,25186,0.0,-2e-05,-5.9999999999999995e-05,-0.00053,-0.00022999999999999998,-0.00016,-5e-05,-1e-05,5
24314,25188,0.0,-2e-05,-5.9999999999999995e-05,-0.00053,-0.00022999999999999998,-0.00016,-5e-05,-1e-05,5
24315,25189,0.0,-2e-05,-5.9999999999999995e-05,-0.00053,-0.00022999999999999998,-0.00016,-5e-05,-1e-05,5
24316,25190,0.0,-2e-05,-5.9999999999999995e-05,-0.00053,-0.00022999999999999998,-0.00016,-5e-05,-1e-05,5
24317,25191,0.0,-2e-05,-5.9999999999999995e-05,-0.00053,-0.00022999999999999998,-0.00016,-5e-05,-1e-05,5
24318,25192,0.0,-2e-05,-5.9999999999999995e-05,-0.00053,-0.00022999999999999998,-0.00016,-5e-05,-1e-05,5
24319,25193,0.0,-2e-05,-5.9999999999999995e-05,-0.00053,-0.00022999999999999998,-0.00016,-5e-05,-1e-05,5
24320,25194,0.0,-2e-05,-5.9999999999999995e-05,-0.00053,-0.00022999999999999998,-0.00016,-5e-05,-1e-05,5
24321,25195,0.0,-2e-05,-5.9999999999999995e-05,-0.00053,-0.00022999999999999998,-0.00016,-5e-05,-1e-05,5
24322,25196,0.0,-2e-05,-5.9999999999999995e-05,-0.00053,-0.00022999999999999998,-0.00016,-5e-05,-1e-05,5
24323,25197,0.0,-2e-05,-5.9999999999999995e-05,-0.00053,-0.00022999999999999998,-0.00016,-5e-05,-1e-05,5
24324,25198,0.0,-2e-05,-5.9999999999999995e-05,-0.00053,-0.00022999999999999998,-0.00016,-5e-05,-1e-05,5
24325,25199,5e-05,-8e-05,-5e-05,-0.00032,-0.00015,8e-05,0.00028,9e-05,5
24326,25200,5e-05,-8e-05,-5e-05,-0.00032,-0.00015,8e-05,0.00028,9e-05,5
24327,25201,5e-05,-8e-05,-5e-05,-0.00032,-0.00015,8e-05,0.00028,9e-05,5
24328,25202,5e-05,-8e-05,-5e-05,-0.00032,-0.00015,8e-05,0.00028,9e-05,5
24329,25203,5e-05,-8e-05,-5e-05,-0.00032,-0.00015,8e-05,0.00028,9e-05,5
24330,25204,5e-05,-8e-05,-5e-05,-0.00032,-0.00015,8e-05,0.00028,9e-05,5
24331,25205,5e-05,-8e-05,-5e-05,-0.00032,-0.00015,8e-05,0.00028,9e-05,5
24332,25206,5e-05,-8e-05,-5e-05,-0.00032,-0.00015,8e-05,0.00028,9e-05,5
24333,25207,5e-05,-8e-05,-5e-05,-0.00032,-0.00015,8e-05,0.00028,9e-05,5
24334,25208,5e-05,-8e-05,-5e-05,-0.00032,-0.00015,8e-05,0.00028,9e-05,5
24335,25209,5e-05,-8e-05,-5e-05,-0.00032,-0.00015,8e-05,0.00028,9e-05,5
24336,25210,5e-05,-8e-05,-5e-05,-0.00032,-0.00015,8e-05,0.00028,9e-05,5
24337,25211,5e-05,-8e-05,-5e-05,-0.00032,-0.00015,8e-05,0.00028,9e-05,5
24338,25212,5e-05,-8e-05,-5e-05,-0.00032,-0.00015,8e-05,0.00028,9e-05,5
24339,25213,-0.00016,-0.0003,-0.00078,-0.0008,-4e-05,0.0003,-2.9999999999999997e-05,-5.9999999999999995e-05,5
24340,25214,-0.00016,-0.0003,-0.00078,-0.0008,-4e-05,0.0003,-2.9999999999999997e-05,-5.9999999999999995e-05,5
24341,25215,-0.00016,-0.0003,-0.00078,-0.0008,-4e-05,0.0003,-2.9999999999999997e-05,-5.9999999999999995e-05,5
24342,25216,-0.00016,-0.0003,-0.00078,-0.0008,-4e-05,0.0003,-2.9999999999999997e-05,-5.9999999999999995e-05,5
24343,25217,-0.00016,-0.0003,-0.00078,-0.0008,-4e-05,0.0003,-2.9999999999999997e-05,-5.9999999999999995e-05,5
24344,25218,-0.00016,-0.0003,-0.00078,-0.0008,-4e-05,0.0003,-2.9999999999999997e-05,-5.9999999999999995e-05,5
24345,25219,-0.00016,-0.0003,-0.00078,-0.0008,-4e-05,0.0003,-2.9999999999999997e-05,-5.9999999999999995e-05,5
24346,25220,-0.00016,-0.0003,-0.00078,-0.0008,-4e-05,0.0003,-2.9999999999999997e-05,-5.9999999999999995e-05,5
24347,25221,-0.00016,-0.0003,-0.00078,-0.0008,-4e-05,0.0003,-2.9999999999999997e-05,-5.9999999999999995e-05,5
24348,25222,-0.00016,-0.0003,-0.00078,-0.0008,-4e-05,0.0003,-2.9999999999999997e-05,-5.9999999999999995e-05,5
24349,25223,-0.00016,-0.0003,-0.00078,-0.0008,-4e-05,0.0003,-2.9999999999999997e-05,-5.9999999999999995e-05,5
24350,25224,-0.00016,-0.0003,-0.00078,-0.0008,-4e-05,0.0003,-2.9999999999999997e-05,-5.9999999999999995e-05,5
24351,25225,-0.00016,-0.0003,-0.00078,-0.0008,-4e-05,0.0003,-2.9999999999999997e-05,-5.9999999999999995e-05,5
24352,25226,-0.00016,-0.0003,-0.00078,-0.0008,-4e-05,0.0003,-2.9999999999999997e-05,-5.9999999999999995e-05,5
24353,25228,-0.00016,-0.0003,-0.00078,-0.0008,-4e-05,0.0003,-2.9999999999999997e-05,-5.9999999999999995e-05,5
24354,25229,-0.00016,-0.0003,-0.00078,-0.0008,-4e-05,0.0003,-2.9999999999999997e-05,-5.9999999999999995e-05,5
24355,25230,-0.00016,-0.0003,-0.00078,-0.0008,-4e-05,0.0003,-2.9999999999999997e-05,-5.9999999999999995e-05,5
24356,25231,-0.00016,-0.0003,-0.00078,-0.0008,-4e-05,0.0003,-2.9999999999999997e-05,-5.9999999999999995e-05,5
24357,25232,-0.00016,-0.0003,-0.00078,-0.0008,-4e-05,0.0003,-2.9999999999999997e-05,-5.9999999999999995e-05,5
24358,25233,-0.00016,-0.0003,-0.00078,-0.0008,-4e-05,0.0003,-2.9999999999999997e-05,-5.9999999999999995e-05,5
24359,25234,-0.00016,-0.0003,-0.00078,-0.0008,-4e-05,0.0003,-2.9999999999999997e-05,-5.9999999999999995e-05,5
24360,25235,0.0,-2.9999999999999997e-05,-2e-05,-0.00018999999999999998,-0.00023999999999999998,0.0,0.00013000000000000002,4e-05,5
24361,25236,-7e-05,1e-05,5e-05,0.00074,0.00073,-0.00023999999999999998,-0.00015,-0.00013000000000000002,5
24362,25238,-7e-05,1e-05,5e-05,0.00074,0.00073,-0.00023999999999999998,-0.00015,-0.00013000000000000002,5
24363,25239,-7e-05,1e-05,5e-05,0.00074,0.00073,-0.00023999999999999998,-0.00015,-0.00013000000000000002,5
24364,25240,-7e-05,1e-05,5e-05,0.00074,0.00073,-0.00023999999999999998,-0.00015,-0.00013000000000000002,5
24365,25241,-7e-05,1e-05,5e-05,0.00074,0.00073,-0.00023999999999999998,-0.00015,-0.00013000000000000002,5
24366,25242,-7e-05,1e-05,5e-05,0.00074,0.00073,-0.00023999999999999998,-0.00015,-0.00013000000000000002,5
24367,25243,-7e-05,1e-05,5e-05,0.00074,0.00073,-0.00023999999999999998,-0.00015,-0.00013000000000000002,5
24368,25244,-7e-05,1e-05,5e-05,0.00074,0.00073,-0.00023999999999999998,-0.00015,-0.00013000000000000002,5
24369,25245,-7e-05,1e-05,5e-05,0.00074,0.00073,-0.00023999999999999998,-0.00015,-0.00013000000000000002,5
24370,25246,-7e-05,1e-05,5e-05,0.00074,0.00073,-0.00023999999999999998,-0.00015,-0.00013000000000000002,5
24371,25247,-7e-05,1e-05,5e-05,0.00074,0.00073,-0.00023999999999999998,-0.00015,-0.00013000000000000002,5
24372,25248,-7e-05,1e-05,5e-05,0.00074,0.00073,-0.00023999999999999998,-0.00015,-0.00013000000000000002,5
24373,25249,-7e-05,1e-05,5e-05,0.00074,0.00073,-0.00023999999999999998,-0.00015,-0.00013000000000000002,5
24374,25250,-7e-05,-0.00014,-0.0002,-0.0004,4e-05,0.0,-5e-05,-2.9999999999999997e-05,5
24375,25251,1e-05,-8e-05,-0.00023999999999999998,-0.0006900000000000001,-0.00055,-0.00016,8e-05,9e-05,5
24376,25252,1e-05,-8e-05,-0.00023999999999999998,-0.0006900000000000001,-0.00055,-0.00016,8e-05,9e-05,5
24377,25253,1e-05,-8e-05,-0.00023999999999999998,-0.0006900000000000001,-0.00055,-0.00016,8e-05,9e-05,5
24378,25254,1e-05,-8e-05,-0.00023999999999999998,-0.0006900000000000001,-0.00055,-0.00016,8e-05,9e-05,5
24379,25255,1e-05,-8e-05,-0.00023999999999999998,-0.0006900000000000001,-0.00055,-0.00016,8e-05,9e-05,5
24380,25256,1e-05,-8e-05,-0.00023999999999999998,-0.0006900000000000001,-0.00055,-0.00016,8e-05,9e-05,5
24381,25257,1e-05,-8e-05,-0.00023999999999999998,-0.0006900000000000001,-0.00055,-0.00016,8e-05,9e-05,5
24382,25258,1e-05,-8e-05,-0.00023999999999999998,-0.0006900000000000001,-0.00055,-0.00016,8e-05,9e-05,5
24383,25259,1e-05,-8e-05,-0.00023999999999999998,-0.0006900000000000001,-0.00055,-0.00016,8e-05,9e-05,5
24384,25260,1e-05,-8e-05,-0.00023999999999999998,-0.0006900000000000001,-0.00055,-0.00016,8e-05,9e-05,5
24385,25261,1e-05,-8e-05,-0.00023999999999999998,-0.0006900000000000001,-0.00055,-0.00016,8e-05,9e-05,5
24386,25262,1e-05,-8e-05,-0.00023999999999999998,-0.0006900000000000001,-0.00055,-0.00016,8e-05,9e-05,5
24387,25263,1e-05,-8e-05,-0.00023999999999999998,-0.0006900000000000001,-0.00055,-0.00016,8e-05,9e-05,5
24388,25264,1e-05,-8e-05,-0.00023999999999999998,-0.0006900000000000001,-0.00055,-0.00016,8e-05,9e-05,5
24389,25265,1e-05,-8e-05,-0.00023999999999999998,-0.0006900000000000001,-0.00055,-0.00016,8e-05,9e-05,5
24390,25266,1e-05,-8e-05,-0.00023999999999999998,-0.0006900000000000001,-0.00055,-0.00016,8e-05,9e-05,5
24391,25267,1e-05,-8e-05,-0.00023999999999999998,-0.0006900000000000001,-0.00055,-0.00016,8e-05,9e-05,5
24392,25268,1e-05,-8e-05,-0.00023999999999999998,-0.0006900000000000001,-0.00055,-0.00016,8e-05,9e-05,5
24393,25269,1e-05,-8e-05,-0.00023999999999999998,-0.0006900000000000001,-0.00055,-0.00016,8e-05,9e-05,5
24394,25270,1e-05,-8e-05,-0.00023999999999999998,-0.0006900000000000001,-0.00055,-0.00016,8e-05,9e-05,5
24395,25271,1e-05,-8e-05,-0.00023999999999999998,-0.0006900000000000001,-0.00055,-0.00016,8e-05,9e-05,5
24396,25272,1e-05,-8e-05,-0.00023999999999999998,-0.0006900000000000001,-0.00055,-0.00016,8e-05,9e-05,5
24397,25273,4e-05,9e-05,0.00026000000000000003,0.0008300000000000001,-0.00018,4e-05,8e-05,4e-05,5
24398,25274,2e-05,2.9999999999999997e-05,0.00015,0.0004,0.0004,5.9999999999999995e-05,-2e-05,1e-05,5
24399,25275,2e-05,2.9999999999999997e-05,0.00015,0.0004,0.0004,5.9999999999999995e-05,-2e-05,1e-05,5
24400,25276,2e-05,2.9999999999999997e-05,0.00015,0.0004,0.0004,5.9999999999999995e-05,-2e-05,1e-05,5
24401,25277,2e-05,2.9999999999999997e-05,0.00015,0.0004,0.0004,5.9999999999999995e-05,-2e-05,1e-05,5
24402,25278,2e-05,2.9999999999999997e-05,0.00015,0.0004,0.0004,5.9999999999999995e-05,-2e-05,1e-05,5
24403,25279,2e-05,2.9999999999999997e-05,0.00015,0.0004,0.0004,5.9999999999999995e-05,-2e-05,1e-05,5
24404,25280,2e-05,2.9999999999999997e-05,0.00015,0.0004,0.0004,5.9999999999999995e-05,-2e-05,1e-05,5
24405,25281,2e-05,2.9999999999999997e-05,0.00015,0.0004,0.0004,5.9999999999999995e-05,-2e-05,1e-05,5
24406,25282,2e-05,2.9999999999999997e-05,0.00015,0.0004,0.0004,5.9999999999999995e-05,-2e-05,1e-05,5
24407,25283,2e-05,2.9999999999999997e-05,0.00015,0.0004,0.0004,5.9999999999999995e-05,-2e-05,1e-05,5
24408,25284,2e-05,2.9999999999999997e-05,0.00015,0.0004,0.0004,5.9999999999999995e-05,-2e-05,1e-05,5
24409,25285,2e-05,2.9999999999999997e-05,0.00015,0.0004,0.0004,5.9999999999999995e-05,-2e-05,1e-05,5
24410,25286,2e-05,2.9999999999999997e-05,0.00015,0.0004,0.0004,5.9999999999999995e-05,-2e-05,1e-05,5
24411,25288,2e-05,2.9999999999999997e-05,0.00015,0.0004,0.0004,5.9999999999999995e-05,-2e-05,1e-05,5
24412,25289,2e-05,2.9999999999999997e-05,0.00015,0.0004,0.0004,5.9999999999999995e-05,-2e-05,1e-05,5
24413,25290,2e-05,2.9999999999999997e-05,0.00015,0.0004,0.0004,5.9999999999999995e-05,-2e-05,1e-05,5
24414,25291,2e-05,2.9999999999999997e-05,0.00015,0.0004,0.0004,5.9999999999999995e-05,-2e-05,1e-05,5
24415,25292,2e-05,2.9999999999999997e-05,0.00015,0.0004,0.0004,5.9999999999999995e-05,-2e-05,1e-05,5
24416,25293,2e-05,2.9999999999999997e-05,0.00015,0.0004,0.0004,5.9999999999999995e-05,-2e-05,1e-05,5
24417,25294,2e-05,2.9999999999999997e-05,0.00015,0.0004,0.0004,5.9999999999999995e-05,-2e-05,1e-05,5
24418,25295,2e-05,2.9999999999999997e-05,0.00015,0.0004,0.0004,5.9999999999999995e-05,-2e-05,1e-05,5
24419,25296,-1e-05,-5e-05,-5e-05,-0.00016,-0.00011,-0.00033,2.9999999999999997e-05,-2e-05,5
24420,25297,-1e-05,-5e-05,-5e-05,-0.00016,-0.00011,-0.00033,2.9999999999999997e-05,-2e-05,5
24421,25298,-1e-05,-5e-05,-5e-05,-0.00016,-0.00011,-0.00033,2.9999999999999997e-05,-2e-05,5
24422,25299,-1e-05,-5e-05,-5e-05,-0.00016,-0.00011,-0.00033,2.9999999999999997e-05,-2e-05,5
24423,25300,-1e-05,-5e-05,-5e-05,-0.00016,-0.00011,-0.00033,2.9999999999999997e-05,-2e-05,5
24424,25301,-1e-05,-5e-05,-5e-05,-0.00016,-0.00011,-0.00033,2.9999999999999997e-05,-2e-05,5
24425,25302,-1e-05,-5e-05,-5e-05,-0.00016,-0.00011,-0.00033,2.9999999999999997e-05,-2e-05,5
24426,25303,-1e-05,-5e-05,-5e-05,-0.00016,-0.00011,-0.00033,2.9999999999999997e-05,-2e-05,5
24427,25304,-1e-05,-5e-05,-5e-05,-0.00016,-0.00011,-0.00033,2.9999999999999997e-05,-2e-05,5
24428,25305,-1e-05,-5e-05,-5e-05,-0.00016,-0.00011,-0.00033,2.9999999999999997e-05,-2e-05,5
24429,25306,-1e-05,-5e-05,-5e-05,-0.00016,-0.00011,-0.00033,2.9999999999999997e-05,-2e-05,5
24430,25308,-1e-05,-5e-05,-5e-05,-0.00016,-0.00011,-0.00033,2.9999999999999997e-05,-2e-05,5
24431,25309,-1e-05,-5e-05,-5e-05,-0.00016,-0.00011,-0.00033,2.9999999999999997e-05,-2e-05,5
24432,25310,-1e-05,-5e-05,-5e-05,-0.00016,-0.00011,-0.00033,2.9999999999999997e-05,-2e-05,5
24433,25311,-1e-05,-5e-05,-5e-05,-0.00016,-0.00011,-0.00033,2.9999999999999997e-05,-2e-05,5
24434,25312,-1e-05,-5e-05,-5e-05,-0.00016,-0.00011,-0.00033,2.9999999999999997e-05,-2e-05,5
24435,25313,-1e-05,-5e-05,-5e-05,-0.00016,-0.00011,-0.00033,2.9999999999999997e-05,-2e-05,5
24436,25314,-1e-05,-5e-05,-5e-05,-0.00016,-0.00011,-0.00033,2.9999999999999997e-05,-2e-05,5
24437,25315,-1e-05,-5e-05,-5e-05,-0.00016,-0.00011,-0.00033,2.9999999999999997e-05,-2e-05,5
24438,25316,-1e-05,-5e-05,-5e-05,-0.00016,-0.00011,-0.00033,2.9999999999999997e-05,-2e-05,5
24439,25317,-1e-05,-5e-05,-5e-05,-0.00016,-0.00011,-0.00033,2.9999999999999997e-05,-2e-05,5
24440,25318,2.9999999999999997e-05,9e-05,0.00011999999999999999,-8e-05,0.00021,2.9999999999999997e-05,-2.9999999999999997e-05,2e-05,5
24441,25319,5e-05,2.9999999999999997e-05,2e-05,0.00015,-0.00014,-2.9999999999999997e-05,0.00011,8e-05,5
24442,25320,5e-05,2.9999999999999997e-05,2e-05,0.00015,-0.00014,-2.9999999999999997e-05,0.00011,8e-05,5
24443,25321,5e-05,2.9999999999999997e-05,2e-05,0.00015,-0.00014,-2.9999999999999997e-05,0.00011,8e-05,5
24444,25322,5e-05,2.9999999999999997e-05,2e-05,0.00015,-0.00014,-2.9999999999999997e-05,0.00011,8e-05,5
24445,25323,5e-05,2.9999999999999997e-05,2e-05,0.00015,-0.00014,-2.9999999999999997e-05,0.00011,8e-05,5
24446,25324,5e-05,2.9999999999999997e-05,2e-05,0.00015,-0.00014,-2.9999999999999997e-05,0.00011,8e-05,5
24447,25325,5e-05,2.9999999999999997e-05,2e-05,0.00015,-0.00014,-2.9999999999999997e-05,0.00011,8e-05,5
24448,25326,5e-05,2.9999999999999997e-05,2e-05,0.00015,-0.00014,-2.9999999999999997e-05,0.00011,8e-05,5
24449,25327,5e-05,2.9999999999999997e-05,2e-05,0.00015,-0.00014,-2.9999999999999997e-05,0.00011,8e-05,5
24450,25328,5e-05,2.9999999999999997e-05,2e-05,0.00015,-0.00014,-2.9999999999999997e-05,0.00011,8e-05,5
24451,25329,5e-05,2.9999999999999997e-05,2e-05,0.00015,-0.00014,-2.9999999999999997e-05,0.00011,8e-05,5
24452,25330,5e-05,2.9999999999999997e-05,2e-05,0.00015,-0.00014,-2.9999999999999997e-05,0.00011,8e-05,5
24453,25331,5e-05,2.9999999999999997e-05,2e-05,0.00015,-0.00014,-2.9999999999999997e-05,0.00011,8e-05,5
24454,25332,5e-05,2.9999999999999997e-05,2e-05,0.00015,-0.00014,-2.9999999999999997e-05,0.00011,8e-05,5
24455,25333,5e-05,2.9999999999999997e-05,2e-05,0.00015,-0.00014,-2.9999999999999997e-05,0.00011,8e-05,5
24456,25334,5e-05,2.9999999999999997e-05,2e-05,0.00015,-0.00014,-2.9999999999999997e-05,0.00011,8e-05,5
24457,25335,5e-05,2.9999999999999997e-05,2e-05,0.00015,-0.00014,-2.9999999999999997e-05,0.00011,8e-05,5
24458,25336,5e-05,2.9999999999999997e-05,2e-05,0.00015,-0.00014,-2.9999999999999997e-05,0.00011,8e-05,5
24459,25339,5e-05,2.9999999999999997e-05,2e-05,0.00015,-0.00014,-2.9999999999999997e-05,0.00011,8e-05,5
24460,25340,5e-05,2.9999999999999997e-05,2e-05,0.00015,-0.00014,-2.9999999999999997e-05,0.00011,8e-05,5
24461,25341,-2.9999999999999997e-05,-2.9999999999999997e-05,8e-05,0.0005200000000000001,0.00031,-0.00011999999999999999,-0.00016,-7e-05,5
24462,25342,-9e-05,-0.00016,-0.00045999999999999996,-0.0005,-0.00042,-8e-05,1e-05,5e-05,5
24463,25343,-9e-05,-0.00016,-0.00045999999999999996,-0.0005,-0.00042,-8e-05,1e-05,5e-05,5
24464,25344,-9e-05,-0.00016,-0.00045999999999999996,-0.0005,-0.00042,-8e-05,1e-05,5e-05,5
24465,25345,-9e-05,-0.00016,-0.00045999999999999996,-0.0005,-0.00042,-8e-05,1e-05,5e-05,5
24466,25346,-9e-05,-0.00016,-0.00045999999999999996,-0.0005,-0.00042,-8e-05,1e-05,5e-05,5
24467,25347,-9e-05,-0.00016,-0.00045999999999999996,-0.0005,-0.00042,-8e-05,1e-05,5e-05,5
24468,25348,-9e-05,-0.00016,-0.00045999999999999996,-0.0005,-0.00042,-8e-05,1e-05,5e-05,5
24469,25349,-9e-05,-0.00016,-0.00045999999999999996,-0.0005,-0.00042,-8e-05,1e-05,5e-05,5
24470,25350,-9e-05,-0.00016,-0.00045999999999999996,-0.0005,-0.00042,-8e-05,1e-05,5e-05,5
24471,25351,-9e-05,-0.00016,-0.00045999999999999996,-0.0005,-0.00042,-8e-05,1e-05,5e-05,5
24472,25352,-9e-05,-0.00016,-0.00045999999999999996,-0.0005,-0.00042,-8e-05,1e-05,5e-05,5
24473,25353,-9e-05,-0.00016,-0.00045999999999999996,-0.0005,-0.00042,-8e-05,1e-05,5e-05,5
24474,25354,-9e-05,-0.00016,-0.00045999999999999996,-0.0005,-0.00042,-8e-05,1e-05,5e-05,5
24475,25355,-9e-05,-0.00016,-0.00045999999999999996,-0.0005,-0.00042,-8e-05,1e-05,5e-05,5
24476,25356,-9e-05,-0.00016,-0.00045999999999999996,-0.0005,-0.00042,-8e-05,1e-05,5e-05,5
24477,25357,-9e-05,-0.00016,-0.00045999999999999996,-0.0005,-0.00042,-8e-05,1e-05,5e-05,5
24478,25358,-9e-05,-0.00016,-0.00045999999999999996,-0.0005,-0.00042,-8e-05,1e-05,5e-05,5
24479,25359,-9e-05,-0.00016,-0.00045999999999999996,-0.0005,-0.00042,-8e-05,1e-05,5e-05,5
24480,25360,-9e-05,-0.00016,-0.00045999999999999996,-0.0005,-0.00042,-8e-05,1e-05,5e-05,5
24481,25361,-9e-05,-0.00016,-0.00045999999999999996,-0.0005,-0.00042,-8e-05,1e-05,5e-05,5
24482,25362,-9e-05,-0.00016,-0.00045999999999999996,-0.0005,-0.00042,-8e-05,1e-05,5e-05,5
24483,25363,-9e-05,-0.00016,-0.00045999999999999996,-0.0005,-0.00042,-8e-05,1e-05,5e-05,5
24484,25364,5e-05,0.0001,0.00013000000000000002,0.0,7e-05,-4e-05,4e-05,0.0,5
24485,25365,-4e-05,8e-05,0.00047999999999999996,0.00072,0.00011999999999999999,2e-05,-0.00016,-0.00011,5
24486,25366,-4e-05,8e-05,0.00047999999999999996,0.00072,0.00011999999999999999,2e-05,-0.00016,-0.00011,5
24487,25367,-4e-05,8e-05,0.00047999999999999996,0.00072,0.00011999999999999999,2e-05,-0.00016,-0.00011,5
24488,25368,-4e-05,8e-05,0.00047999999999999996,0.00072,0.00011999999999999999,2e-05,-0.00016,-0.00011,5
24489,25369,-4e-05,8e-05,0.00047999999999999996,0.00072,0.00011999999999999999,2e-05,-0.00016,-0.00011,5
24490,25370,-4e-05,8e-05,0.00047999999999999996,0.00072,0.00011999999999999999,2e-05,-0.00016,-0.00011,5
24491,25371,-4e-05,8e-05,0.00047999999999999996,0.00072,0.00011999999999999999,2e-05,-0.00016,-0.00011,5
24492,25372,-0.0001,-0.00011999999999999999,-1e-05,0.00022999999999999998,0.00013000000000000002,5e-05,-1e-05,0.0,5
24493,25373,-2.9999999999999997e-05,-2e-05,1e-05,-5e-05,-0.00022,-5.9999999999999995e-05,-7e-05,-7e-05,5
24494,25374,-2.9999999999999997e-05,-2e-05,1e-05,-5e-05,-0.00022,-5.9999999999999995e-05,-7e-05,-7e-05,5
24495,25375,-2.9999999999999997e-05,-2e-05,1e-05,-5e-05,-0.00022,-5.9999999999999995e-05,-7e-05,-7e-05,5
24496,25376,-2.9999999999999997e-05,-2e-05,1e-05,-5e-05,-0.00022,-5.9999999999999995e-05,-7e-05,-7e-05,5
24497,25378,-2.9999999999999997e-05,-2e-05,1e-05,-5e-05,-0.00022,-5.9999999999999995e-05,-7e-05,-7e-05,5
24498,25379,-2.9999999999999997e-05,-2e-05,1e-05,-5e-05,-0.00022,-5.9999999999999995e-05,-7e-05,-7e-05,5
24499,25380,-2.9999999999999997e-05,-2e-05,1e-05,-5e-05,-0.00022,-5.9999999999999995e-05,-7e-05,-7e-05,5
24500,25381,-2.9999999999999997e-05,-2e-05,1e-05,-5e-05,-0.00022,-5.9999999999999995e-05,-7e-05,-7e-05,5
24501,25382,-2.9999999999999997e-05,-2e-05,1e-05,-5e-05,-0.00022,-5.9999999999999995e-05,-7e-05,-7e-05,5
24502,25383,-2.9999999999999997e-05,-2e-05,1e-05,-5e-05,-0.00022,-5.9999999999999995e-05,-7e-05,-7e-05,5
24503,25384,-2.9999999999999997e-05,-2e-05,1e-05,-5e-05,-0.00022,-5.9999999999999995e-05,-7e-05,-7e-05,5
24504,25385,-2.9999999999999997e-05,-2e-05,1e-05,-5e-05,-0.00022,-5.9999999999999995e-05,-7e-05,-7e-05,5
24505,25386,-2.9999999999999997e-05,-2e-05,1e-05,-5e-05,-0.00022,-5.9999999999999995e-05,-7e-05,-7e-05,5
24506,25388,-2.9999999999999997e-05,-2e-05,1e-05,-5e-05,-0.00022,-5.9999999999999995e-05,-7e-05,-7e-05,5
24507,25389,-2.9999999999999997e-05,-2e-05,1e-05,-5e-05,-0.00022,-5.9999999999999995e-05,-7e-05,-7e-05,5
24508,25390,-2.9999999999999997e-05,-2e-05,1e-05,-5e-05,-0.00022,-5.9999999999999995e-05,-7e-05,-7e-05,5
24509,25391,-2.9999999999999997e-05,-2e-05,1e-05,-5e-05,-0.00022,-5.9999999999999995e-05,-7e-05,-7e-05,5
24510,25392,-2.9999999999999997e-05,-2e-05,1e-05,-5e-05,-0.00022,-5.9999999999999995e-05,-7e-05,-7e-05,5
24511,25393,5e-05,0.00018,0.00036,0.00025,0.00011,-7e-05,1e-05,7e-05,5
24512,25394,-2e-05,-0.00015,-0.00035,0.0002,-0.00033999999999999997,-2.9999999999999997e-05,-8e-05,-2e-05,5
24513,25395,-2e-05,-0.00015,-0.00035,0.0002,-0.00033999999999999997,-2.9999999999999997e-05,-8e-05,-2e-05,5
24514,25396,-2e-05,-0.00015,-0.00035,0.0002,-0.00033999999999999997,-2.9999999999999997e-05,-8e-05,-2e-05,5
24515,25398,-2e-05,-0.00015,-0.00035,0.0002,-0.00033999999999999997,-2.9999999999999997e-05,-8e-05,-2e-05,5
24516,25399,-2e-05,-0.00015,-0.00035,0.0002,-0.00033999999999999997,-2.9999999999999997e-05,-8e-05,-2e-05,5
24517,25400,-2e-05,-0.00015,-0.00035,0.0002,-0.00033999999999999997,-2.9999999999999997e-05,-8e-05,-2e-05,5
24518,25401,-2e-05,-0.00015,-0.00035,0.0002,-0.00033999999999999997,-2.9999999999999997e-05,-8e-05,-2e-05,5
24519,25402,-2e-05,-0.00015,-0.00035,0.0002,-0.00033999999999999997,-2.9999999999999997e-05,-8e-05,-2e-05,5
24520,25403,-2e-05,-0.00015,-0.00035,0.0002,-0.00033999999999999997,-2.9999999999999997e-05,-8e-05,-2e-05,5
24521,25404,-2e-05,-0.00015,-0.00035,0.0002,-0.00033999999999999997,-2.9999999999999997e-05,-8e-05,-2e-05,5
24522,25405,-2e-05,-0.00015,-0.00035,0.0002,-0.00033999999999999997,-2.9999999999999997e-05,-8e-05,-2e-05,5
24523,25406,-2e-05,-0.00015,-0.00035,0.0002,-0.00033999999999999997,-2.9999999999999997e-05,-8e-05,-2e-05,5
24524,25407,-2e-05,-0.00015,-0.00035,0.0002,-0.00033999999999999997,-2.9999999999999997e-05,-8e-05,-2e-05,5
24525,25408,-2e-05,-0.00015,-0.00035,0.0002,-0.00033999999999999997,-2.9999999999999997e-05,-8e-05,-2e-05,5
24526,25409,-2e-05,-0.00015,-0.00035,0.0002,-0.00033999999999999997,-2.9999999999999997e-05,-8e-05,-2e-05,5
24527,25410,-2e-05,-0.00015,-0.00035,0.0002,-0.00033999999999999997,-2.9999999999999997e-05,-8e-05,-2e-05,5
24528,25411,-2e-05,-0.00015,-0.00035,0.0002,-0.00033999999999999997,-2.9999999999999997e-05,-8e-05,-2e-05,5
24529,25412,-2e-05,-0.00015,-0.00035,0.0002,-0.00033999999999999997,-2.9999999999999997e-05,-8e-05,-2e-05,5
24530,25413,-2e-05,-0.00015,-0.00035,0.0002,-0.00033999999999999997,-2.9999999999999997e-05,-8e-05,-2e-05,5
24531,25414,-2e-05,-0.00015,-0.00035,0.0002,-0.00033999999999999997,-2.9999999999999997e-05,-8e-05,-2e-05,5
24532,25415,-5e-05,-0.00022999999999999998,-0.00059,-0.00086,-0.0004,-0.00027,-0.00018999999999999998,-0.00015,5
24533,25416,-8e-05,-2e-05,0.00018,-5e-05,-0.0001,-2.9999999999999997e-05,-0.00016,-0.0001,5
24534,25417,-8e-05,-2e-05,0.00018,-5e-05,-0.0001,-2.9999999999999997e-05,-0.00016,-0.0001,5
24535,25418,-8e-05,-2e-05,0.00018,-5e-05,-0.0001,-2.9999999999999997e-05,-0.00016,-0.0001,5
24536,25419,-8e-05,-2e-05,0.00018,-5e-05,-0.0001,-2.9999999999999997e-05,-0.00016,-0.0001,5
24537,25420,-8e-05,-2e-05,0.00018,-5e-05,-0.0001,-2.9999999999999997e-05,-0.00016,-0.0001,5
24538,25421,-8e-05,-2e-05,0.00018,-5e-05,-0.0001,-2.9999999999999997e-05,-0.00016,-0.0001,5
24539,25422,-8e-05,-2e-05,0.00018,-5e-05,-0.0001,-2.9999999999999997e-05,-0.00016,-0.0001,5
24540,25423,-8e-05,-2e-05,0.00018,-5e-05,-0.0001,-2.9999999999999997e-05,-0.00016,-0.0001,5
24541,25424,-8e-05,-2e-05,0.00018,-5e-05,-0.0001,-2.9999999999999997e-05,-0.00016,-0.0001,5
24542,25425,-8e-05,-2e-05,0.00018,-5e-05,-0.0001,-2.9999999999999997e-05,-0.00016,-0.0001,5
24543,25426,-8e-05,-2e-05,0.00018,-5e-05,-0.0001,-2.9999999999999997e-05,-0.00016,-0.0001,5
24544,25427,-8e-05,-2e-05,0.00018,-5e-05,-0.0001,-2.9999999999999997e-05,-0.00016,-0.0001,5
24545,25428,-8e-05,-2e-05,0.00018,-5e-05,-0.0001,-2.9999999999999997e-05,-0.00016,-0.0001,5
24546,25429,-8e-05,-2e-05,0.00018,-5e-05,-0.0001,-2.9999999999999997e-05,-0.00016,-0.0001,5
24547,25430,-8e-05,-2e-05,0.00018,-5e-05,-0.0001,-2.9999999999999997e-05,-0.00016,-0.0001,5
24548,25431,-8e-05,-2e-05,0.00018,-5e-05,-0.0001,-2.9999999999999997e-05,-0.00016,-0.0001,5
24549,25432,-8e-05,-2e-05,0.00018,-5e-05,-0.0001,-2.9999999999999997e-05,-0.00016,-0.0001,5
24550,25433,8e-05,0.00013000000000000002,9e-05,0.00039,0.00039,7e-05,1e-05,1e-05,5
24551,25434,8e-05,0.00013000000000000002,9e-05,0.00039,0.00039,7e-05,1e-05,1e-05,5
24552,25435,8e-05,0.00013000000000000002,9e-05,0.00039,0.00039,7e-05,1e-05,1e-05,5
24553,25436,8e-05,0.00013000000000000002,9e-05,0.00039,0.00039,7e-05,1e-05,1e-05,5
24554,25438,8e-05,0.00013000000000000002,9e-05,0.00039,0.00039,7e-05,1e-05,1e-05,5
24555,25440,8e-05,0.00013000000000000002,9e-05,0.00039,0.00039,7e-05,1e-05,1e-05,5
24556,25441,8e-05,0.00013000000000000002,9e-05,0.00039,0.00039,7e-05,1e-05,1e-05,5
24557,25442,8e-05,0.00013000000000000002,9e-05,0.00039,0.00039,7e-05,1e-05,1e-05,5
24558,25443,8e-05,0.00013000000000000002,9e-05,0.00039,0.00039,7e-05,1e-05,1e-05,5
24559,25444,8e-05,0.00013000000000000002,9e-05,0.00039,0.00039,7e-05,1e-05,1e-05,5
24560,25445,8e-05,0.00013000000000000002,9e-05,0.00039,0.00039,7e-05,1e-05,1e-05,5
24561,25446,8e-05,0.00013000000000000002,9e-05,0.00039,0.00039,7e-05,1e-05,1e-05,5
24562,25447,8e-05,0.00013000000000000002,9e-05,0.00039,0.00039,7e-05,1e-05,1e-05,5
24563,25448,8e-05,0.00013000000000000002,9e-05,0.00039,0.00039,7e-05,1e-05,1e-05,5
24564,25449,8e-05,0.00013000000000000002,9e-05,0.00039,0.00039,7e-05,1e-05,1e-05,5
24565,25450,8e-05,0.00013000000000000002,9e-05,0.00039,0.00039,7e-05,1e-05,1e-05,5
24566,25451,8e-05,0.00013000000000000002,9e-05,0.00039,0.00039,7e-05,1e-05,1e-05,5
24567,25452,8e-05,0.00013000000000000002,9e-05,0.00039,0.00039,7e-05,1e-05,1e-05,5
24568,25453,5.9999999999999995e-05,0.00018999999999999998,0.00026000000000000003,0.00027,4e-05,0.00021,8e-05,7e-05,5
24569,25454,0.0,-5.9999999999999995e-05,-8e-05,-7e-05,-0.00027,0.0,-2e-05,2.9999999999999997e-05,5
24570,25455,0.0,-5.9999999999999995e-05,-8e-05,-7e-05,-0.00027,0.0,-2e-05,2.9999999999999997e-05,5
24571,25456,0.0,-5.9999999999999995e-05,-8e-05,-7e-05,-0.00027,0.0,-2e-05,2.9999999999999997e-05,5
24572,25457,0.0,-5.9999999999999995e-05,-8e-05,-7e-05,-0.00027,0.0,-2e-05,2.9999999999999997e-05,5
24573,25458,0.0,-5.9999999999999995e-05,-8e-05,-7e-05,-0.00027,0.0,-2e-05,2.9999999999999997e-05,5
24574,25459,0.0,-5.9999999999999995e-05,-8e-05,-7e-05,-0.00027,0.0,-2e-05,2.9999999999999997e-05,5
24575,25460,0.0,-5.9999999999999995e-05,-8e-05,-7e-05,-0.00027,0.0,-2e-05,2.9999999999999997e-05,5
24576,25461,0.0,-5.9999999999999995e-05,-8e-05,-7e-05,-0.00027,0.0,-2e-05,2.9999999999999997e-05,5
24577,25462,0.0,-5.9999999999999995e-05,-8e-05,-7e-05,-0.00027,0.0,-2e-05,2.9999999999999997e-05,5
24578,25463,0.0,-5.9999999999999995e-05,-8e-05,-7e-05,-0.00027,0.0,-2e-05,2.9999999999999997e-05,5
24579,25464,0.0,-5.9999999999999995e-05,-8e-05,-7e-05,-0.00027,0.0,-2e-05,2.9999999999999997e-05,5
24580,25465,0.0,-5.9999999999999995e-05,-8e-05,-7e-05,-0.00027,0.0,-2e-05,2.9999999999999997e-05,5
24581,25466,0.0,-5.9999999999999995e-05,-8e-05,-7e-05,-0.00027,0.0,-2e-05,2.9999999999999997e-05,5
24582,25467,0.0,-5.9999999999999995e-05,-8e-05,-7e-05,-0.00027,0.0,-2e-05,2.9999999999999997e-05,5
24583,25468,0.0,-5.9999999999999995e-05,-8e-05,-7e-05,-0.00027,0.0,-2e-05,2.9999999999999997e-05,5
24584,25469,0.0,-5.9999999999999995e-05,-8e-05,-7e-05,-0.00027,0.0,-2e-05,2.9999999999999997e-05,5
24585,25470,0.0,-5.9999999999999995e-05,-8e-05,-7e-05,-0.00027,0.0,-2e-05,2.9999999999999997e-05,5
24586,25471,0.0,-5.9999999999999995e-05,-8e-05,-7e-05,-0.00027,0.0,-2e-05,2.9999999999999997e-05,5
24587,25472,0.0,-5.9999999999999995e-05,-8e-05,-7e-05,-0.00027,0.0,-2e-05,2.9999999999999997e-05,5
24588,25473,0.0,-5.9999999999999995e-05,-8e-05,-7e-05,-0.00027,0.0,-2e-05,2.9999999999999997e-05,5
24589,25474,0.0,-5.9999999999999995e-05,-8e-05,-7e-05,-0.00027,0.0,-2e-05,2.9999999999999997e-05,5
24590,25475,4e-05,5.9999999999999995e-05,0.0,-5e-05,0.00021,0.00011,5e-05,5.9999999999999995e-05,5
24591,25476,7e-05,0.00026000000000000003,0.00039,0.00027,0.00025,0.0001,7e-05,5.9999999999999995e-05,5
24592,25477,7e-05,0.00026000000000000003,0.00039,0.00027,0.00025,0.0001,7e-05,5.9999999999999995e-05,5
24593,25478,7e-05,0.00026000000000000003,0.00039,0.00027,0.00025,0.0001,7e-05,5.9999999999999995e-05,5
24594,25479,7e-05,0.00026000000000000003,0.00039,0.00027,0.00025,0.0001,7e-05,5.9999999999999995e-05,5
24595,25480,7e-05,0.00026000000000000003,0.00039,0.00027,0.00025,0.0001,7e-05,5.9999999999999995e-05,5
24596,25481,7e-05,0.00026000000000000003,0.00039,0.00027,0.00025,0.0001,7e-05,5.9999999999999995e-05,5
24597,25482,7e-05,0.00026000000000000003,0.00039,0.00027,0.00025,0.0001,7e-05,5.9999999999999995e-05,5
24598,25483,7e-05,0.00026000000000000003,0.00039,0.00027,0.00025,0.0001,7e-05,5.9999999999999995e-05,5
24599,25484,7e-05,0.00026000000000000003,0.00039,0.00027,0.00025,0.0001,7e-05,5.9999999999999995e-05,5
24600,25485,7e-05,0.00026000000000000003,0.00039,0.00027,0.00025,0.0001,7e-05,5.9999999999999995e-05,5
24601,25486,7e-05,0.00026000000000000003,0.00039,0.00027,0.00025,0.0001,7e-05,5.9999999999999995e-05,5
24602,25488,7e-05,0.00026000000000000003,0.00039,0.00027,0.00025,0.0001,7e-05,5.9999999999999995e-05,5
24603,25489,7e-05,0.00026000000000000003,0.00039,0.00027,0.00025,0.0001,7e-05,5.9999999999999995e-05,5
24604,25490,7e-05,0.00026000000000000003,0.00039,0.00027,0.00025,0.0001,7e-05,5.9999999999999995e-05,5
24605,25491,7e-05,0.00026000000000000003,0.00039,0.00027,0.00025,0.0001,7e-05,5.9999999999999995e-05,5
24606,25492,7e-05,0.00026000000000000003,0.00039,0.00027,0.00025,0.0001,7e-05,5.9999999999999995e-05,5
24607,25493,7e-05,0.00026000000000000003,0.00039,0.00027,0.00025,0.0001,7e-05,5.9999999999999995e-05,5
24608,25494,7e-05,0.00026000000000000003,0.00039,0.00027,0.00025,0.0001,7e-05,5.9999999999999995e-05,5
24609,25495,7e-05,0.00026000000000000003,0.00039,0.00027,0.00025,0.0001,7e-05,5.9999999999999995e-05,5
24610,25496,7e-05,0.00026000000000000003,0.00039,0.00027,0.00025,0.0001,7e-05,5.9999999999999995e-05,5
24611,25497,7e-05,0.00026000000000000003,0.00039,0.00027,0.00025,0.0001,7e-05,5.9999999999999995e-05,5
24612,25498,-0.00016,-0.00035,-0.0008699999999999999,-0.00079,-0.00037999999999999997,-0.00011,-9e-05,-0.00011,5
24613,25499,0.0001,0.00023999999999999998,0.00043,-5.9999999999999995e-05,0.0009199999999999999,0.00037999999999999997,0.00021,9e-05,5
24614,25500,0.0001,0.00023999999999999998,0.00043,-5.9999999999999995e-05,0.0009199999999999999,0.00037999999999999997,0.00021,9e-05,5
24615,25501,0.0001,0.00023999999999999998,0.00043,-5.9999999999999995e-05,0.0009199999999999999,0.00037999999999999997,0.00021,9e-05,5
24616,25502,0.0001,0.00023999999999999998,0.00043,-5.9999999999999995e-05,0.0009199999999999999,0.00037999999999999997,0.00021,9e-05,5
24617,25503,0.0001,0.00023999999999999998,0.00043,-5.9999999999999995e-05,0.0009199999999999999,0.00037999999999999997,0.00021,9e-05,5
24618,25504,0.0001,0.00023999999999999998,0.00043,-5.9999999999999995e-05,0.0009199999999999999,0.00037999999999999997,0.00021,9e-05,5
24619,25505,0.0001,0.00023999999999999998,0.00043,-5.9999999999999995e-05,0.0009199999999999999,0.00037999999999999997,0.00021,9e-05,5
24620,25506,0.0001,0.00023999999999999998,0.00043,-5.9999999999999995e-05,0.0009199999999999999,0.00037999999999999997,0.00021,9e-05,5
24621,25507,0.0001,0.00023999999999999998,0.00043,-5.9999999999999995e-05,0.0009199999999999999,0.00037999999999999997,0.00021,9e-05,5
24622,25508,0.0001,0.00023999999999999998,0.00043,-5.9999999999999995e-05,0.0009199999999999999,0.00037999999999999997,0.00021,9e-05,5
24623,25509,0.0001,0.00023999999999999998,0.00043,-5.9999999999999995e-05,0.0009199999999999999,0.00037999999999999997,0.00021,9e-05,5
24624,25510,0.0001,0.00023999999999999998,0.00043,-5.9999999999999995e-05,0.0009199999999999999,0.00037999999999999997,0.00021,9e-05,5
24625,25511,0.0001,0.00023999999999999998,0.00043,-5.9999999999999995e-05,0.0009199999999999999,0.00037999999999999997,0.00021,9e-05,5
24626,25512,0.0001,0.00023999999999999998,0.00043,-5.9999999999999995e-05,0.0009199999999999999,0.00037999999999999997,0.00021,9e-05,5
24627,25513,5.9999999999999995e-05,5.9999999999999995e-05,2e-05,0.0002,2.9999999999999997e-05,0.0001,2.9999999999999997e-05,2.9999999999999997e-05,5
24628,25514,-2e-05,-7e-05,-9e-05,-2.9999999999999997e-05,-0.00032,-8e-05,1e-05,-2e-05,5
24629,25515,-2e-05,-7e-05,-9e-05,-2.9999999999999997e-05,-0.00032,-8e-05,1e-05,-2e-05,5
24630,25516,-2e-05,-7e-05,-9e-05,-2.9999999999999997e-05,-0.00032,-8e-05,1e-05,-2e-05,5
24631,25517,-2e-05,-7e-05,-9e-05,-2.9999999999999997e-05,-0.00032,-8e-05,1e-05,-2e-05,5
24632,25518,-2e-05,-7e-05,-9e-05,-2.9999999999999997e-05,-0.00032,-8e-05,1e-05,-2e-05,5
24633,25519,-2e-05,-7e-05,-9e-05,-2.9999999999999997e-05,-0.00032,-8e-05,1e-05,-2e-05,5
24634,25520,-2e-05,-7e-05,-9e-05,-2.9999999999999997e-05,-0.00032,-8e-05,1e-05,-2e-05,5
24635,25521,-2e-05,-7e-05,-9e-05,-2.9999999999999997e-05,-0.00032,-8e-05,1e-05,-2e-05,5
24636,25522,-2e-05,-7e-05,-9e-05,-2.9999999999999997e-05,-0.00032,-8e-05,1e-05,-2e-05,5
24637,25523,-2e-05,-7e-05,-9e-05,-2.9999999999999997e-05,-0.00032,-8e-05,1e-05,-2e-05,5
24638,25524,-2e-05,-7e-05,-9e-05,-2.9999999999999997e-05,-0.00032,-8e-05,1e-05,-2e-05,5
24639,25525,-2e-05,-7e-05,-9e-05,-2.9999999999999997e-05,-0.00032,-8e-05,1e-05,-2e-05,5
24640,25526,-2e-05,-7e-05,-9e-05,-2.9999999999999997e-05,-0.00032,-8e-05,1e-05,-2e-05,5
24641,25527,-2e-05,-7e-05,-9e-05,-2.9999999999999997e-05,-0.00032,-8e-05,1e-05,-2e-05,5
24642,25528,-2e-05,-7e-05,-9e-05,-2.9999999999999997e-05,-0.00032,-8e-05,1e-05,-2e-05,5
24643,25529,-2e-05,-7e-05,-9e-05,-2.9999999999999997e-05,-0.00032,-8e-05,1e-05,-2e-05,5
24644,25530,-2e-05,-7e-05,-9e-05,-2.9999999999999997e-05,-0.00032,-8e-05,1e-05,-2e-05,5
24645,25531,-2e-05,-7e-05,-9e-05,-2.9999999999999997e-05,-0.00032,-8e-05,1e-05,-2e-05,5
24646,25532,-2e-05,-7e-05,-9e-05,-2.9999999999999997e-05,-0.00032,-8e-05,1e-05,-2e-05,5
24647,25533,-2e-05,-7e-05,-9e-05,-2.9999999999999997e-05,-0.00032,-8e-05,1e-05,-2e-05,5
24648,25534,-2e-05,-7e-05,-9e-05,-2.9999999999999997e-05,-0.00032,-8e-05,1e-05,-2e-05,5
24649,25535,-7e-05,-0.00013000000000000002,-0.00013000000000000002,0.00018999999999999998,-0.00022999999999999998,-2.9999999999999997e-05,-0.00013000000000000002,-8e-05,5
24650,25536,4e-05,-4e-05,-0.00022,-0.00072,9e-05,7e-05,0.00013000000000000002,7e-05,5
24651,25538,-2.9999999999999997e-05,-2.9999999999999997e-05,-0.0001,0.0001,0.0,-4e-05,-2.9999999999999997e-05,-1e-05,5
24652,25539,-2.9999999999999997e-05,-2.9999999999999997e-05,-0.0001,0.0001,0.0,-4e-05,-2.9999999999999997e-05,-1e-05,5
24653,25540,-2.9999999999999997e-05,-2.9999999999999997e-05,-0.0001,0.0001,0.0,-4e-05,-2.9999999999999997e-05,-1e-05,5
24654,25541,-2.9999999999999997e-05,-2.9999999999999997e-05,-0.0001,0.0001,0.0,-4e-05,-2.9999999999999997e-05,-1e-05,5
24655,25542,-2.9999999999999997e-05,-2.9999999999999997e-05,-0.0001,0.0001,0.0,-4e-05,-2.9999999999999997e-05,-1e-05,5
24656,25543,-2.9999999999999997e-05,-2.9999999999999997e-05,-0.0001,0.0001,0.0,-4e-05,-2.9999999999999997e-05,-1e-05,5
24657,25544,-2.9999999999999997e-05,-2.9999999999999997e-05,-0.0001,0.0001,0.0,-4e-05,-2.9999999999999997e-05,-1e-05,5
24658,25545,-2.9999999999999997e-05,-2.9999999999999997e-05,-0.0001,0.0001,0.0,-4e-05,-2.9999999999999997e-05,-1e-05,5
24659,25546,-2.9999999999999997e-05,-2.9999999999999997e-05,-0.0001,0.0001,0.0,-4e-05,-2.9999999999999997e-05,-1e-05,5
24660,25547,-2.9999999999999997e-05,-2.9999999999999997e-05,-0.0001,0.0001,0.0,-4e-05,-2.9999999999999997e-05,-1e-05,5
24661,25548,-2.9999999999999997e-05,-2.9999999999999997e-05,-0.0001,0.0001,0.0,-4e-05,-2.9999999999999997e-05,-1e-05,5
24662,25549,-2.9999999999999997e-05,-2.9999999999999997e-05,-0.0001,0.0001,0.0,-4e-05,-2.9999999999999997e-05,-1e-05,5
24663,25550,-2.9999999999999997e-05,-2.9999999999999997e-05,-0.0001,0.0001,0.0,-4e-05,-2.9999999999999997e-05,-1e-05,5
24664,25551,-2.9999999999999997e-05,-2.9999999999999997e-05,-0.0001,0.0001,0.0,-4e-05,-2.9999999999999997e-05,-1e-05,5
24665,25552,-7e-05,-0.00018999999999999998,-0.00025,-0.00037,-0.00042,-0.00037999999999999997,-5.9999999999999995e-05,-7e-05,5
24666,25553,-4e-05,0.0,0.00014,0.00036,-0.00011999999999999999,-1e-05,-8e-05,-4e-05,5
24667,25554,-4e-05,0.0,0.00014,0.00036,-0.00011999999999999999,-1e-05,-8e-05,-4e-05,5
24668,25555,-4e-05,0.0,0.00014,0.00036,-0.00011999999999999999,-1e-05,-8e-05,-4e-05,5
24669,25556,-4e-05,0.0,0.00014,0.00036,-0.00011999999999999999,-1e-05,-8e-05,-4e-05,5
24670,25557,-4e-05,0.0,0.00014,0.00036,-0.00011999999999999999,-1e-05,-8e-05,-4e-05,5
24671,25558,-4e-05,0.0,0.00014,0.00036,-0.00011999999999999999,-1e-05,-8e-05,-4e-05,5
24672,25559,-4e-05,0.0,0.00014,0.00036,-0.00011999999999999999,-1e-05,-8e-05,-4e-05,5
24673,25560,-4e-05,0.0,0.00014,0.00036,-0.00011999999999999999,-1e-05,-8e-05,-4e-05,5
24674,25561,-4e-05,0.0,0.00014,0.00036,-0.00011999999999999999,-1e-05,-8e-05,-4e-05,5
24675,25562,-4e-05,0.0,0.00014,0.00036,-0.00011999999999999999,-1e-05,-8e-05,-4e-05,5
24676,25563,-4e-05,0.0,0.00014,0.00036,-0.00011999999999999999,-1e-05,-8e-05,-4e-05,5
24677,25564,-4e-05,0.0,0.00014,0.00036,-0.00011999999999999999,-1e-05,-8e-05,-4e-05,5
24678,25565,-4e-05,0.0,0.00014,0.00036,-0.00011999999999999999,-1e-05,-8e-05,-4e-05,5
24679,25566,-4e-05,0.0,0.00014,0.00036,-0.00011999999999999999,-1e-05,-8e-05,-4e-05,5
24680,25567,-4e-05,0.0,0.00014,0.00036,-0.00011999999999999999,-1e-05,-8e-05,-4e-05,5
24681,25568,-4e-05,0.0,0.00014,0.00036,-0.00011999999999999999,-1e-05,-8e-05,-4e-05,5
24682,25569,-4e-05,0.0,0.00014,0.00036,-0.00011999999999999999,-1e-05,-8e-05,-4e-05,5
24683,25570,-4e-05,0.0,0.00014,0.00036,-0.00011999999999999999,-1e-05,-8e-05,-4e-05,5
24684,25571,-4e-05,0.0,0.00014,0.00036,-0.00011999999999999999,-1e-05,-8e-05,-4e-05,5
24685,25572,-4e-05,0.0,0.00014,0.00036,-0.00011999999999999999,-1e-05,-8e-05,-4e-05,5
24686,25573,-0.00015,-0.00037999999999999997,-0.00074,-0.00062,-0.0002,-0.00016999999999999999,7e-05,-5.9999999999999995e-05,5
24687,25574,-0.00015,-0.00037999999999999997,-0.00074,-0.00062,-0.0002,-0.00016999999999999999,7e-05,-5.9999999999999995e-05,5
24688,25575,-0.00015,-0.00037999999999999997,-0.00074,-0.00062,-0.0002,-0.00016999999999999999,7e-05,-5.9999999999999995e-05,5
24689,25576,-0.00015,-0.00037999999999999997,-0.00074,-0.00062,-0.0002,-0.00016999999999999999,7e-05,-5.9999999999999995e-05,5
24690,25577,-0.00015,-0.00037999999999999997,-0.00074,-0.00062,-0.0002,-0.00016999999999999999,7e-05,-5.9999999999999995e-05,5
24691,25578,-0.00015,-0.00037999999999999997,-0.00074,-0.00062,-0.0002,-0.00016999999999999999,7e-05,-5.9999999999999995e-05,5
24692,25579,-0.00015,-0.00037999999999999997,-0.00074,-0.00062,-0.0002,-0.00016999999999999999,7e-05,-5.9999999999999995e-05,5
24693,25580,-0.00015,-0.00037999999999999997,-0.00074,-0.00062,-0.0002,-0.00016999999999999999,7e-05,-5.9999999999999995e-05,5
24694,25581,-0.00015,-0.00037999999999999997,-0.00074,-0.00062,-0.0002,-0.00016999999999999999,7e-05,-5.9999999999999995e-05,5
24695,25582,-0.00015,-0.00037999999999999997,-0.00074,-0.00062,-0.0002,-0.00016999999999999999,7e-05,-5.9999999999999995e-05,5
24696,25583,-0.00015,-0.00037999999999999997,-0.00074,-0.00062,-0.0002,-0.00016999999999999999,7e-05,-5.9999999999999995e-05,5
24697,25584,-0.00015,-0.00037999999999999997,-0.00074,-0.00062,-0.0002,-0.00016999999999999999,7e-05,-5.9999999999999995e-05,5
24698,25585,-0.00015,-0.00037999999999999997,-0.00074,-0.00062,-0.0002,-0.00016999999999999999,7e-05,-5.9999999999999995e-05,5
24699,25586,-0.00015,-0.00037999999999999997,-0.00074,-0.00062,-0.0002,-0.00016999999999999999,7e-05,-5.9999999999999995e-05,5
24700,25588,-0.00015,-0.00037999999999999997,-0.00074,-0.00062,-0.0002,-0.00016999999999999999,7e-05,-5.9999999999999995e-05,5
24701,25590,-0.00015,-0.00037999999999999997,-0.00074,-0.00062,-0.0002,-0.00016999999999999999,7e-05,-5.9999999999999995e-05,5
24702,25591,-0.00015,-0.00037999999999999997,-0.00074,-0.00062,-0.0002,-0.00016999999999999999,7e-05,-5.9999999999999995e-05,5
24703,25592,-0.00015,-0.00037999999999999997,-0.00074,-0.00062,-0.0002,-0.00016999999999999999,7e-05,-5.9999999999999995e-05,5
24704,25593,-0.00015,-0.00037999999999999997,-0.00074,-0.00062,-0.0002,-0.00016999999999999999,7e-05,-5.9999999999999995e-05,5
24705,25594,-0.00015,-0.00037999999999999997,-0.00074,-0.00062,-0.0002,-0.00016999999999999999,7e-05,-5.9999999999999995e-05,5
24706,25595,-0.00015,-0.00037999999999999997,-0.00074,-0.00062,-0.0002,-0.00016999999999999999,7e-05,-5.9999999999999995e-05,5
24707,25596,0.0001,0.00026000000000000003,0.00056,0.00078,-0.00025,-0.0002,-2.9999999999999997e-05,4e-05,5
24708,25598,0.0001,0.00026000000000000003,0.00056,0.00078,-0.00025,-0.0002,-2.9999999999999997e-05,4e-05,5
24709,25599,0.0001,0.00026000000000000003,0.00056,0.00078,-0.00025,-0.0002,-2.9999999999999997e-05,4e-05,5
24710,25600,0.0001,0.00026000000000000003,0.00056,0.00078,-0.00025,-0.0002,-2.9999999999999997e-05,4e-05,5
24711,25601,0.0001,0.00026000000000000003,0.00056,0.00078,-0.00025,-0.0002,-2.9999999999999997e-05,4e-05,5
24712,25602,0.0001,0.00026000000000000003,0.00056,0.00078,-0.00025,-0.0002,-2.9999999999999997e-05,4e-05,5
24713,25603,0.0001,0.00026000000000000003,0.00056,0.00078,-0.00025,-0.0002,-2.9999999999999997e-05,4e-05,5
24714,25604,0.0001,0.00026000000000000003,0.00056,0.00078,-0.00025,-0.0002,-2.9999999999999997e-05,4e-05,5
24715,25605,0.0001,0.00026000000000000003,0.00056,0.00078,-0.00025,-0.0002,-2.9999999999999997e-05,4e-05,5
24716,25606,0.0001,0.00026000000000000003,0.00056,0.00078,-0.00025,-0.0002,-2.9999999999999997e-05,4e-05,5
24717,25607,0.0001,0.00026000000000000003,0.00056,0.00078,-0.00025,-0.0002,-2.9999999999999997e-05,4e-05,5
24718,25608,0.0001,0.00026000000000000003,0.00056,0.00078,-0.00025,-0.0002,-2.9999999999999997e-05,4e-05,5
24719,25609,0.0001,0.00026000000000000003,0.00056,0.00078,-0.00025,-0.0002,-2.9999999999999997e-05,4e-05,5
24720,25610,-2e-05,-0.00029,-0.00082,-0.00023999999999999998,0.00053,0.00062,0.0002,5.9999999999999995e-05,5
24721,25611,9e-05,0.00025,0.00049,-7e-05,8e-05,-1e-05,-9e-05,1e-05,5
24722,25612,9e-05,0.00025,0.00049,-7e-05,8e-05,-1e-05,-9e-05,1e-05,5
24723,25613,9e-05,0.00025,0.00049,-7e-05,8e-05,-1e-05,-9e-05,1e-05,5
24724,25614,9e-05,0.00025,0.00049,-7e-05,8e-05,-1e-05,-9e-05,1e-05,5
24725,25615,9e-05,0.00025,0.00049,-7e-05,8e-05,-1e-05,-9e-05,1e-05,5
24726,25616,9e-05,0.00025,0.00049,-7e-05,8e-05,-1e-05,-9e-05,1e-05,5
24727,25617,9e-05,0.00025,0.00049,-7e-05,8e-05,-1e-05,-9e-05,1e-05,5
24728,25618,9e-05,0.00025,0.00049,-7e-05,8e-05,-1e-05,-9e-05,1e-05,5
24729,25619,9e-05,0.00025,0.00049,-7e-05,8e-05,-1e-05,-9e-05,1e-05,5
24730,25620,9e-05,0.00025,0.00049,-7e-05,8e-05,-1e-05,-9e-05,1e-05,5
24731,25621,9e-05,0.00025,0.00049,-7e-05,8e-05,-1e-05,-9e-05,1e-05,5
24732,25622,9e-05,0.00025,0.00049,-7e-05,8e-05,-1e-05,-9e-05,1e-05,5
24733,25623,9e-05,0.00025,0.00049,-7e-05,8e-05,-1e-05,-9e-05,1e-05,5
24734,25624,9e-05,0.00025,0.00049,-7e-05,8e-05,-1e-05,-9e-05,1e-05,5
24735,25625,9e-05,0.00025,0.00049,-7e-05,8e-05,-1e-05,-9e-05,1e-05,5
24736,25626,9e-05,0.00025,0.00049,-7e-05,8e-05,-1e-05,-9e-05,1e-05,5
24737,25627,9e-05,0.00025,0.00049,-7e-05,8e-05,-1e-05,-9e-05,1e-05,5
24738,25628,9e-05,0.00025,0.00049,-7e-05,8e-05,-1e-05,-9e-05,1e-05,5
24739,25629,9e-05,0.00025,0.00049,-7e-05,8e-05,-1e-05,-9e-05,1e-05,5
24740,25630,9e-05,0.00025,0.00049,-7e-05,8e-05,-1e-05,-9e-05,1e-05,5
24741,25631,9e-05,0.00025,0.00049,-7e-05,8e-05,-1e-05,-9e-05,1e-05,5
24742,25632,9e-05,0.00025,0.00049,-7e-05,8e-05,-1e-05,-9e-05,1e-05,5
24743,25633,9e-05,0.00025,0.00049,-7e-05,8e-05,-1e-05,-9e-05,1e-05,5
24744,25634,9e-05,0.00025,0.00049,-7e-05,8e-05,-1e-05,-9e-05,1e-05,5
24745,25635,9e-05,0.00025,0.00049,-7e-05,8e-05,-1e-05,-9e-05,1e-05,5
24746,25636,9e-05,0.00025,0.00049,-7e-05,8e-05,-1e-05,-9e-05,1e-05,5
24747,25638,9e-05,0.00025,0.00049,-7e-05,8e-05,-1e-05,-9e-05,1e-05,5
24748,25639,9e-05,0.00025,0.00049,-7e-05,8e-05,-1e-05,-9e-05,1e-05,5
24749,25640,9e-05,0.00025,0.00049,-7e-05,8e-05,-1e-05,-9e-05,1e-05,5
24750,25641,0.0,8e-05,0.00032,0.00031,-0.00016999999999999999,0.00011,0.0,-1e-05,5
24751,25642,-0.00021,-0.00039,-0.00073,-0.0006900000000000001,0.00037,0.00023999999999999998,0.0,-0.00011,5
24752,25643,-0.00021,-0.00039,-0.00073,-0.0006900000000000001,0.00037,0.00023999999999999998,0.0,-0.00011,5
24753,25644,-0.00021,-0.00039,-0.00073,-0.0006900000000000001,0.00037,0.00023999999999999998,0.0,-0.00011,5
24754,25645,-0.00021,-0.00039,-0.00073,-0.0006900000000000001,0.00037,0.00023999999999999998,0.0,-0.00011,5
24755,25646,-0.00021,-0.00039,-0.00073,-0.0006900000000000001,0.00037,0.00023999999999999998,0.0,-0.00011,5
24756,25647,-0.00021,-0.00039,-0.00073,-0.0006900000000000001,0.00037,0.00023999999999999998,0.0,-0.00011,5
24757,25648,-0.00021,-0.00039,-0.00073,-0.0006900000000000001,0.00037,0.00023999999999999998,0.0,-0.00011,5
24758,25649,-0.00021,-0.00039,-0.00073,-0.0006900000000000001,0.00037,0.00023999999999999998,0.0,-0.00011,5
24759,25650,-0.00021,-0.00039,-0.00073,-0.0006900000000000001,0.00037,0.00023999999999999998,0.0,-0.00011,5
24760,25651,-0.00021,-0.00039,-0.00073,-0.0006900000000000001,0.00037,0.00023999999999999998,0.0,-0.00011,5
24761,25652,-0.00021,-0.00039,-0.00073,-0.0006900000000000001,0.00037,0.00023999999999999998,0.0,-0.00011,5
24762,25653,-0.00021,-0.00039,-0.00073,-0.0006900000000000001,0.00037,0.00023999999999999998,0.0,-0.00011,5
24763,25654,-0.00021,-0.00039,-0.00073,-0.0006900000000000001,0.00037,0.00023999999999999998,0.0,-0.00011,5
24764,25655,0.0,9e-05,0.00016,0.00013000000000000002,-0.00018,4e-05,0.00011999999999999999,1e-05,5
24765,25656,4e-05,0.0,-2.9999999999999997e-05,-0.00022999999999999998,-0.00018,-4e-05,0.0,1e-05,5
24766,25657,4e-05,0.0,-2.9999999999999997e-05,-0.00022999999999999998,-0.00018,-4e-05,0.0,1e-05,5
24767,25658,4e-05,0.0,-2.9999999999999997e-05,-0.00022999999999999998,-0.00018,-4e-05,0.0,1e-05,5
24768,25659,4e-05,0.0,-2.9999999999999997e-05,-0.00022999999999999998,-0.00018,-4e-05,0.0,1e-05,5
24769,25660,4e-05,0.0,-2.9999999999999997e-05,-0.00022999999999999998,-0.00018,-4e-05,0.0,1e-05,5
24770,25661,4e-05,0.0,-2.9999999999999997e-05,-0.00022999999999999998,-0.00018,-4e-05,0.0,1e-05,5
24771,25662,4e-05,0.0,-2.9999999999999997e-05,-0.00022999999999999998,-0.00018,-4e-05,0.0,1e-05,5
24772,25663,4e-05,0.0,-2.9999999999999997e-05,-0.00022999999999999998,-0.00018,-4e-05,0.0,1e-05,5
24773,25664,4e-05,0.0,-2.9999999999999997e-05,-0.00022999999999999998,-0.00018,-4e-05,0.0,1e-05,5
24774,25665,4e-05,0.0,-2.9999999999999997e-05,-0.00022999999999999998,-0.00018,-4e-05,0.0,1e-05,5
24775,25666,4e-05,0.0,-2.9999999999999997e-05,-0.00022999999999999998,-0.00018,-4e-05,0.0,1e-05,5
24776,25667,4e-05,0.0,-2.9999999999999997e-05,-0.00022999999999999998,-0.00018,-4e-05,0.0,1e-05,5
24777,25668,4e-05,0.0,-2.9999999999999997e-05,-0.00022999999999999998,-0.00018,-4e-05,0.0,1e-05,5
24778,25669,4e-05,0.0,-2.9999999999999997e-05,-0.00022999999999999998,-0.00018,-4e-05,0.0,1e-05,5
24779,25670,1e-05,0.00013000000000000002,0.00022999999999999998,0.00041,-0.0001,-0.00021,-4e-05,2e-05,5
24780,25671,2.9999999999999997e-05,8e-05,0.00013000000000000002,-0.00022,-2e-05,8e-05,9e-05,2.9999999999999997e-05,5
24781,25672,2.9999999999999997e-05,8e-05,0.00013000000000000002,-0.00022,-2e-05,8e-05,9e-05,2.9999999999999997e-05,5
24782,25673,2.9999999999999997e-05,8e-05,0.00013000000000000002,-0.00022,-2e-05,8e-05,9e-05,2.9999999999999997e-05,5
24783,25674,2.9999999999999997e-05,8e-05,0.00013000000000000002,-0.00022,-2e-05,8e-05,9e-05,2.9999999999999997e-05,5
24784,25675,2.9999999999999997e-05,8e-05,0.00013000000000000002,-0.00022,-2e-05,8e-05,9e-05,2.9999999999999997e-05,5
24785,25676,2.9999999999999997e-05,8e-05,0.00013000000000000002,-0.00022,-2e-05,8e-05,9e-05,2.9999999999999997e-05,5
24786,25677,2.9999999999999997e-05,8e-05,0.00013000000000000002,-0.00022,-2e-05,8e-05,9e-05,2.9999999999999997e-05,5
24787,25678,2.9999999999999997e-05,8e-05,0.00013000000000000002,-0.00022,-2e-05,8e-05,9e-05,2.9999999999999997e-05,5
24788,25679,2.9999999999999997e-05,8e-05,0.00013000000000000002,-0.00022,-2e-05,8e-05,9e-05,2.9999999999999997e-05,5
24789,25680,2.9999999999999997e-05,8e-05,0.00013000000000000002,-0.00022,-2e-05,8e-05,9e-05,2.9999999999999997e-05,5
24790,25681,2.9999999999999997e-05,8e-05,0.00013000000000000002,-0.00022,-2e-05,8e-05,9e-05,2.9999999999999997e-05,5
24791,25683,2.9999999999999997e-05,8e-05,0.00013000000000000002,-0.00022,-2e-05,8e-05,9e-05,2.9999999999999997e-05,5
24792,25684,2.9999999999999997e-05,8e-05,0.00013000000000000002,-0.00022,-2e-05,8e-05,9e-05,2.9999999999999997e-05,5
24793,25685,2.9999999999999997e-05,8e-05,0.00013000000000000002,-0.00022,-2e-05,8e-05,9e-05,2.9999999999999997e-05,5
24794,25686,2.9999999999999997e-05,8e-05,0.00013000000000000002,-0.00022,-2e-05,8e-05,9e-05,2.9999999999999997e-05,5
24795,25688,2.9999999999999997e-05,8e-05,0.00013000000000000002,-0.00022,-2e-05,8e-05,9e-05,2.9999999999999997e-05,5
24796,25689,2.9999999999999997e-05,8e-05,0.00013000000000000002,-0.00022,-2e-05,8e-05,9e-05,2.9999999999999997e-05,5
24797,25690,2.9999999999999997e-05,8e-05,0.00013000000000000002,-0.00022,-2e-05,8e-05,9e-05,2.9999999999999997e-05,5
24798,25691,2.9999999999999997e-05,8e-05,0.00013000000000000002,-0.00022,-2e-05,8e-05,9e-05,2.9999999999999997e-05,5
24799,25692,2.9999999999999997e-05,8e-05,0.00013000000000000002,-0.00022,-2e-05,8e-05,9e-05,2.9999999999999997e-05,5
24800,25693,-1e-05,1e-05,2e-05,0.00025,-0.0001,-0.00049,-7e-05,-5e-05,5
24801,25694,-1e-05,-1e-05,4e-05,8e-05,0.00011999999999999999,2e-05,-7e-05,0.0,5
24802,25695,-1e-05,-1e-05,4e-05,8e-05,0.00011999999999999999,2e-05,-7e-05,0.0,5
24803,25696,-1e-05,-1e-05,4e-05,8e-05,0.00011999999999999999,2e-05,-7e-05,0.0,5
24804,25697,-1e-05,-1e-05,4e-05,8e-05,0.00011999999999999999,2e-05,-7e-05,0.0,5
24805,25698,-1e-05,-1e-05,4e-05,8e-05,0.00011999999999999999,2e-05,-7e-05,0.0,5
24806,25699,-1e-05,-1e-05,4e-05,8e-05,0.00011999999999999999,2e-05,-7e-05,0.0,5
24807,25700,-1e-05,-1e-05,4e-05,8e-05,0.00011999999999999999,2e-05,-7e-05,0.0,5
24808,25701,-1e-05,-1e-05,4e-05,8e-05,0.00011999999999999999,2e-05,-7e-05,0.0,5
24809,25702,-1e-05,-1e-05,4e-05,8e-05,0.00011999999999999999,2e-05,-7e-05,0.0,5
24810,25703,-1e-05,-1e-05,4e-05,8e-05,0.00011999999999999999,2e-05,-7e-05,0.0,5
24811,25704,-1e-05,-1e-05,4e-05,8e-05,0.00011999999999999999,2e-05,-7e-05,0.0,5
24812,25705,-1e-05,-1e-05,4e-05,8e-05,0.00011999999999999999,2e-05,-7e-05,0.0,5
24813,25706,-1e-05,-1e-05,4e-05,8e-05,0.00011999999999999999,2e-05,-7e-05,0.0,5
24814,25707,-1e-05,-1e-05,4e-05,8e-05,0.00011999999999999999,2e-05,-7e-05,0.0,5
24815,25708,-1e-05,-1e-05,4e-05,8e-05,0.00011999999999999999,2e-05,-7e-05,0.0,5
24816,25709,-1e-05,-1e-05,4e-05,8e-05,0.00011999999999999999,2e-05,-7e-05,0.0,5
24817,25710,-1e-05,-1e-05,4e-05,8e-05,0.00011999999999999999,2e-05,-7e-05,0.0,5
24818,25711,-1e-05,-1e-05,4e-05,8e-05,0.00011999999999999999,2e-05,-7e-05,0.0,5
24819,25712,-1e-05,-1e-05,4e-05,8e-05,0.00011999999999999999,2e-05,-7e-05,0.0,5
24820,25713,-1e-05,-1e-05,4e-05,8e-05,0.00011999999999999999,2e-05,-7e-05,0.0,5
24821,25714,-1e-05,-1e-05,4e-05,8e-05,0.00011999999999999999,2e-05,-7e-05,0.0,5
24822,25715,-4e-05,1e-05,0.00011,-4e-05,5.9999999999999995e-05,-5e-05,-7e-05,-5e-05,5
24823,25716,-7e-05,-0.00011,-0.00023999999999999998,-0.00025,0.00021,0.00015,7e-05,0.0,5
24824,25717,-7e-05,-0.00011,-0.00023999999999999998,-0.00025,0.00021,0.00015,7e-05,0.0,5
24825,25718,-7e-05,-0.00011,-0.00023999999999999998,-0.00025,0.00021,0.00015,7e-05,0.0,5
24826,25719,-7e-05,-0.00011,-0.00023999999999999998,-0.00025,0.00021,0.00015,7e-05,0.0,5
24827,25720,-7e-05,-0.00011,-0.00023999999999999998,-0.00025,0.00021,0.00015,7e-05,0.0,5
24828,25721,-7e-05,-0.00011,-0.00023999999999999998,-0.00025,0.00021,0.00015,7e-05,0.0,5
24829,25722,-7e-05,-0.00011,-0.00023999999999999998,-0.00025,0.00021,0.00015,7e-05,0.0,5
24830,25723,-7e-05,-0.00011,-0.00023999999999999998,-0.00025,0.00021,0.00015,7e-05,0.0,5
24831,25724,-7e-05,-0.00011,-0.00023999999999999998,-0.00025,0.00021,0.00015,7e-05,0.0,5
24832,25725,-7e-05,-0.00011,-0.00023999999999999998,-0.00025,0.00021,0.00015,7e-05,0.0,5
24833,25726,-7e-05,-0.00011,-0.00023999999999999998,-0.00025,0.00021,0.00015,7e-05,0.0,5
24834,25727,-7e-05,-0.00011,-0.00023999999999999998,-0.00025,0.00021,0.00015,7e-05,0.0,5
24835,25729,-7e-05,-0.00011,-0.00023999999999999998,-0.00025,0.00021,0.00015,7e-05,0.0,5
24836,25730,-2e-05,1e-05,1e-05,-0.00025,8e-05,-2e-05,-7e-05,-1e-05,5
24837,25731,2e-05,0.00016,0.00044,0.0005,-5e-05,-0.00021,-1e-05,0.0,5
24838,25732,2e-05,0.00016,0.00044,0.0005,-5e-05,-0.00021,-1e-05,0.0,5
24839,25733,2e-05,0.00016,0.00044,0.0005,-5e-05,-0.00021,-1e-05,0.0,5
24840,25734,2e-05,0.00016,0.00044,0.0005,-5e-05,-0.00021,-1e-05,0.0,5
24841,25735,2e-05,0.00016,0.00044,0.0005,-5e-05,-0.00021,-1e-05,0.0,5
24842,25736,2e-05,0.00016,0.00044,0.0005,-5e-05,-0.00021,-1e-05,0.0,5
24843,25738,2e-05,0.00016,0.00044,0.0005,-5e-05,-0.00021,-1e-05,0.0,5
24844,25739,2e-05,0.00016,0.00044,0.0005,-5e-05,-0.00021,-1e-05,0.0,5
24845,25740,2e-05,0.00016,0.00044,0.0005,-5e-05,-0.00021,-1e-05,0.0,5
24846,25741,2e-05,0.00016,0.00044,0.0005,-5e-05,-0.00021,-1e-05,0.0,5
24847,25742,2e-05,0.00016,0.00044,0.0005,-5e-05,-0.00021,-1e-05,0.0,5
24848,25743,2e-05,0.00016,0.00044,0.0005,-5e-05,-0.00021,-1e-05,0.0,5
24849,25744,2e-05,0.00016,0.00044,0.0005,-5e-05,-0.00021,-1e-05,0.0,5
24850,25745,2e-05,0.00016,0.00044,0.0005,-5e-05,-0.00021,-1e-05,0.0,5
24851,25746,2e-05,0.00016,0.00044,0.0005,-5e-05,-0.00021,-1e-05,0.0,5
24852,25747,2e-05,0.00016,0.00044,0.0005,-5e-05,-0.00021,-1e-05,0.0,5
24853,25748,2e-05,0.00016,0.00044,0.0005,-5e-05,-0.00021,-1e-05,0.0,5
24854,25749,2e-05,0.00016,0.00044,0.0005,-5e-05,-0.00021,-1e-05,0.0,5
24855,25750,2e-05,0.00016,0.00044,0.0005,-5e-05,-0.00021,-1e-05,0.0,5
24856,25751,2e-05,0.00016,0.00044,0.0005,-5e-05,-0.00021,-1e-05,0.0,5
24857,25752,2e-05,0.00016,0.00044,0.0005,-5e-05,-0.00021,-1e-05,0.0,5
24858,25753,0.0,5e-05,0.00035,0.00045999999999999996,-0.0002,2e-05,-5.9999999999999995e-05,-1e-05,5
24859,25754,-5e-05,-9e-05,-0.00016,-0.00033999999999999997,-7e-05,-1e-05,-4e-05,-2e-05,5
24860,25755,-5e-05,-9e-05,-0.00016,-0.00033999999999999997,-7e-05,-1e-05,-4e-05,-2e-05,5
24861,25756,-5e-05,-9e-05,-0.00016,-0.00033999999999999997,-7e-05,-1e-05,-4e-05,-2e-05,5
24862,25757,-5e-05,-9e-05,-0.00016,-0.00033999999999999997,-7e-05,-1e-05,-4e-05,-2e-05,5
24863,25758,-5e-05,-9e-05,-0.00016,-0.00033999999999999997,-7e-05,-1e-05,-4e-05,-2e-05,5
24864,25759,-5e-05,-9e-05,-0.00016,-0.00033999999999999997,-7e-05,-1e-05,-4e-05,-2e-05,5
24865,25760,-5e-05,-9e-05,-0.00016,-0.00033999999999999997,-7e-05,-1e-05,-4e-05,-2e-05,5
24866,25761,-5e-05,-9e-05,-0.00016,-0.00033999999999999997,-7e-05,-1e-05,-4e-05,-2e-05,5
24867,25762,-5e-05,-9e-05,-0.00016,-0.00033999999999999997,-7e-05,-1e-05,-4e-05,-2e-05,5
24868,25763,-5e-05,-9e-05,-0.00016,-0.00033999999999999997,-7e-05,-1e-05,-4e-05,-2e-05,5
24869,25764,-5e-05,-9e-05,-0.00016,-0.00033999999999999997,-7e-05,-1e-05,-4e-05,-2e-05,5
24870,25765,-5e-05,-9e-05,-0.00016,-0.00033999999999999997,-7e-05,-1e-05,-4e-05,-2e-05,5
24871,25766,-5e-05,-9e-05,-0.00016,-0.00033999999999999997,-7e-05,-1e-05,-4e-05,-2e-05,5
24872,25767,-5e-05,-9e-05,-0.00016,-0.00033999999999999997,-7e-05,-1e-05,-4e-05,-2e-05,5
24873,25768,-5e-05,-9e-05,-0.00016,-0.00033999999999999997,-7e-05,-1e-05,-4e-05,-2e-05,5
24874,25769,-5e-05,-9e-05,-0.00016,-0.00033999999999999997,-7e-05,-1e-05,-4e-05,-2e-05,5
24875,25770,-5e-05,-9e-05,-0.00016,-0.00033999999999999997,-7e-05,-1e-05,-4e-05,-2e-05,5
24876,25771,-5e-05,-9e-05,-0.00016,-0.00033999999999999997,-7e-05,-1e-05,-4e-05,-2e-05,5
24877,25772,-5e-05,-9e-05,-0.00016,-0.00033999999999999997,-7e-05,-1e-05,-4e-05,-2e-05,5
24878,25773,-5e-05,-9e-05,-0.00016,-0.00033999999999999997,-7e-05,-1e-05,-4e-05,-2e-05,5
24879,25774,-5e-05,-9e-05,-0.00016,-0.00033999999999999997,-7e-05,-1e-05,-4e-05,-2e-05,5
24880,25775,2.9999999999999997e-05,5e-05,0.00015,-0.00016,8e-05,0.00016999999999999999,0.0001,8e-05,5
24881,25776,2.9999999999999997e-05,-1e-05,-0.00011999999999999999,-1e-05,-2e-05,0.0001,2e-05,2.9999999999999997e-05,5
24882,25777,2.9999999999999997e-05,-1e-05,-0.00011999999999999999,-1e-05,-2e-05,0.0001,2e-05,2.9999999999999997e-05,5
24883,25778,2.9999999999999997e-05,-1e-05,-0.00011999999999999999,-1e-05,-2e-05,0.0001,2e-05,2.9999999999999997e-05,5
24884,25779,2.9999999999999997e-05,-1e-05,-0.00011999999999999999,-1e-05,-2e-05,0.0001,2e-05,2.9999999999999997e-05,5
24885,25780,2.9999999999999997e-05,-1e-05,-0.00011999999999999999,-1e-05,-2e-05,0.0001,2e-05,2.9999999999999997e-05,5
24886,25781,2.9999999999999997e-05,-1e-05,-0.00011999999999999999,-1e-05,-2e-05,0.0001,2e-05,2.9999999999999997e-05,5
24887,25782,2.9999999999999997e-05,-1e-05,-0.00011999999999999999,-1e-05,-2e-05,0.0001,2e-05,2.9999999999999997e-05,5
24888,25783,2.9999999999999997e-05,-1e-05,-0.00011999999999999999,-1e-05,-2e-05,0.0001,2e-05,2.9999999999999997e-05,5
24889,25784,2.9999999999999997e-05,-1e-05,-0.00011999999999999999,-1e-05,-2e-05,0.0001,2e-05,2.9999999999999997e-05,5
24890,25785,2.9999999999999997e-05,-1e-05,-0.00011999999999999999,-1e-05,-2e-05,0.0001,2e-05,2.9999999999999997e-05,5
24891,25786,2.9999999999999997e-05,-1e-05,-0.00011999999999999999,-1e-05,-2e-05,0.0001,2e-05,2.9999999999999997e-05,5
24892,25788,2.9999999999999997e-05,-1e-05,-0.00011999999999999999,-1e-05,-2e-05,0.0001,2e-05,2.9999999999999997e-05,5
24893,25789,2.9999999999999997e-05,-1e-05,-0.00011999999999999999,-1e-05,-2e-05,0.0001,2e-05,2.9999999999999997e-05,5
24894,25790,-1e-05,2e-05,4e-05,5e-05,2e-05,-0.00015,-8e-05,-4e-05,5
24895,25791,2.9999999999999997e-05,5.9999999999999995e-05,0.00015,0.00023999999999999998,0.00026000000000000003,0.00016999999999999999,2e-05,2e-05,5
24896,25792,2.9999999999999997e-05,5.9999999999999995e-05,0.00015,0.00023999999999999998,0.00026000000000000003,0.00016999999999999999,2e-05,2e-05,5
24897,25793,2.9999999999999997e-05,5.9999999999999995e-05,0.00015,0.00023999999999999998,0.00026000000000000003,0.00016999999999999999,2e-05,2e-05,5
24898,25794,2.9999999999999997e-05,5.9999999999999995e-05,0.00015,0.00023999999999999998,0.00026000000000000003,0.00016999999999999999,2e-05,2e-05,5
24899,25795,2.9999999999999997e-05,5.9999999999999995e-05,0.00015,0.00023999999999999998,0.00026000000000000003,0.00016999999999999999,2e-05,2e-05,5
24900,25796,2.9999999999999997e-05,5.9999999999999995e-05,0.00015,0.00023999999999999998,0.00026000000000000003,0.00016999999999999999,2e-05,2e-05,5
24901,25797,2.9999999999999997e-05,5.9999999999999995e-05,0.00015,0.00023999999999999998,0.00026000000000000003,0.00016999999999999999,2e-05,2e-05,5
24902,25798,4e-05,0.0001,0.0002,0.00023999999999999998,0.00022,5.9999999999999995e-05,-5e-05,2e-05,5
24903,25799,4e-05,0.0001,0.0002,0.00023999999999999998,0.00022,5.9999999999999995e-05,-5e-05,2e-05,5
24904,25800,4e-05,0.0001,0.0002,0.00023999999999999998,0.00022,5.9999999999999995e-05,-5e-05,2e-05,5
24905,25801,4e-05,0.0001,0.0002,0.00023999999999999998,0.00022,5.9999999999999995e-05,-5e-05,2e-05,5
24906,25802,4e-05,0.0001,0.0002,0.00023999999999999998,0.00022,5.9999999999999995e-05,-5e-05,2e-05,5
24907,25803,4e-05,0.0001,0.0002,0.00023999999999999998,0.00022,5.9999999999999995e-05,-5e-05,2e-05,5
24908,25804,4e-05,0.0001,0.0002,0.00023999999999999998,0.00022,5.9999999999999995e-05,-5e-05,2e-05,5
24909,25805,4e-05,0.0001,0.0002,0.00023999999999999998,0.00022,5.9999999999999995e-05,-5e-05,2e-05,5
24910,25806,4e-05,0.0001,0.0002,0.00023999999999999998,0.00022,5.9999999999999995e-05,-5e-05,2e-05,5
24911,25807,4e-05,0.0001,0.0002,0.00023999999999999998,0.00022,5.9999999999999995e-05,-5e-05,2e-05,5
24912,25808,4e-05,0.0001,0.0002,0.00023999999999999998,0.00022,5.9999999999999995e-05,-5e-05,2e-05,5
24913,25809,4e-05,0.0001,0.0002,0.00023999999999999998,0.00022,5.9999999999999995e-05,-5e-05,2e-05,5
24914,25810,4e-05,0.0001,0.0002,0.00023999999999999998,0.00022,5.9999999999999995e-05,-5e-05,2e-05,5
24915,25811,4e-05,0.0001,0.0002,0.00023999999999999998,0.00022,5.9999999999999995e-05,-5e-05,2e-05,5
24916,25812,4e-05,0.0001,0.0002,0.00023999999999999998,0.00022,5.9999999999999995e-05,-5e-05,2e-05,5
24917,25813,4e-05,0.0001,0.0002,0.00023999999999999998,0.00022,5.9999999999999995e-05,-5e-05,2e-05,5
24918,25814,4e-05,0.0001,0.0002,0.00023999999999999998,0.00022,5.9999999999999995e-05,-5e-05,2e-05,5
24919,25815,4e-05,0.0001,0.0002,0.00023999999999999998,0.00022,5.9999999999999995e-05,-5e-05,2e-05,5
24920,25816,4e-05,0.0001,0.0002,0.00023999999999999998,0.00022,5.9999999999999995e-05,-5e-05,2e-05,5
24921,25817,4e-05,0.0001,0.0002,0.00023999999999999998,0.00022,5.9999999999999995e-05,-5e-05,2e-05,5
24922,25818,4e-05,0.0001,0.0002,0.00023999999999999998,0.00022,5.9999999999999995e-05,-5e-05,2e-05,5
24923,25819,4e-05,0.0001,0.0002,0.00023999999999999998,0.00022,5.9999999999999995e-05,-5e-05,2e-05,5
24924,25820,4e-05,0.0001,0.0002,0.00023999999999999998,0.00022,5.9999999999999995e-05,-5e-05,2e-05,5
24925,25821,-5e-05,-2e-05,0.00018,0.00023999999999999998,0.00033999999999999997,5e-05,4e-05,-4e-05,5
24926,25822,-2e-05,-0.00013000000000000002,-0.00022999999999999998,-0.00014,-0.0005,-0.00044,-8e-05,-5e-05,5
24927,25823,-2e-05,-0.00013000000000000002,-0.00022999999999999998,-0.00014,-0.0005,-0.00044,-8e-05,-5e-05,5
24928,25824,-2e-05,-0.00013000000000000002,-0.00022999999999999998,-0.00014,-0.0005,-0.00044,-8e-05,-5e-05,5
24929,25825,-2e-05,-0.00013000000000000002,-0.00022999999999999998,-0.00014,-0.0005,-0.00044,-8e-05,-5e-05,5
24930,25826,-2e-05,-0.00013000000000000002,-0.00022999999999999998,-0.00014,-0.0005,-0.00044,-8e-05,-5e-05,5
24931,25827,-2e-05,-0.00013000000000000002,-0.00022999999999999998,-0.00014,-0.0005,-0.00044,-8e-05,-5e-05,5
24932,25828,-2e-05,-0.00013000000000000002,-0.00022999999999999998,-0.00014,-0.0005,-0.00044,-8e-05,-5e-05,5
24933,25829,-2e-05,-0.00013000000000000002,-0.00022999999999999998,-0.00014,-0.0005,-0.00044,-8e-05,-5e-05,5
24934,25830,-2e-05,-0.00013000000000000002,-0.00022999999999999998,-0.00014,-0.0005,-0.00044,-8e-05,-5e-05,5
24935,25831,-2e-05,-0.00013000000000000002,-0.00022999999999999998,-0.00014,-0.0005,-0.00044,-8e-05,-5e-05,5
24936,25832,-2e-05,-0.00013000000000000002,-0.00022999999999999998,-0.00014,-0.0005,-0.00044,-8e-05,-5e-05,5
24937,25833,-2e-05,-0.00013000000000000002,-0.00022999999999999998,-0.00014,-0.0005,-0.00044,-8e-05,-5e-05,5
24938,25834,-2e-05,-0.00013000000000000002,-0.00022999999999999998,-0.00014,-0.0005,-0.00044,-8e-05,-5e-05,5
24939,25835,-2e-05,-0.00013000000000000002,-0.00022999999999999998,-0.00014,-0.0005,-0.00044,-8e-05,-5e-05,5
24940,25836,2e-05,5.9999999999999995e-05,0.00022999999999999998,0.00045,0.00047999999999999996,0.00011,5e-05,4e-05,5
24941,25838,5.9999999999999995e-05,0.00022,0.00057,0.00081,0.00026000000000000003,5e-05,2e-05,2.9999999999999997e-05,5
24942,25839,5.9999999999999995e-05,0.00022,0.00057,0.00081,0.00026000000000000003,5e-05,2e-05,2.9999999999999997e-05,5
24943,25840,5.9999999999999995e-05,0.00022,0.00057,0.00081,0.00026000000000000003,5e-05,2e-05,2.9999999999999997e-05,5
24944,25841,5.9999999999999995e-05,0.00022,0.00057,0.00081,0.00026000000000000003,5e-05,2e-05,2.9999999999999997e-05,5
24945,25842,5.9999999999999995e-05,0.00022,0.00057,0.00081,0.00026000000000000003,5e-05,2e-05,2.9999999999999997e-05,5
24946,25843,5.9999999999999995e-05,0.00022,0.00057,0.00081,0.00026000000000000003,5e-05,2e-05,2.9999999999999997e-05,5
24947,25844,5.9999999999999995e-05,0.00022,0.00057,0.00081,0.00026000000000000003,5e-05,2e-05,2.9999999999999997e-05,5
24948,25845,5.9999999999999995e-05,0.00022,0.00057,0.00081,0.00026000000000000003,5e-05,2e-05,2.9999999999999997e-05,5
24949,25846,5.9999999999999995e-05,0.00022,0.00057,0.00081,0.00026000000000000003,5e-05,2e-05,2.9999999999999997e-05,5
24950,25847,5.9999999999999995e-05,0.00022,0.00057,0.00081,0.00026000000000000003,5e-05,2e-05,2.9999999999999997e-05,5
24951,25848,5.9999999999999995e-05,0.00022,0.00057,0.00081,0.00026000000000000003,5e-05,2e-05,2.9999999999999997e-05,5
24952,25849,-7e-05,-0.00016999999999999999,-0.00045,-0.00021,-0.00031,9e-05,-1e-05,-4e-05,5
24953,25850,7e-05,0.00016999999999999999,0.00018,-0.00014,-5.9999999999999995e-05,4e-05,4e-05,5e-05,5
24954,25851,7e-05,0.00016999999999999999,0.00018,-0.00014,-5.9999999999999995e-05,4e-05,4e-05,5e-05,5
24955,25852,7e-05,0.00016999999999999999,0.00018,-0.00014,-5.9999999999999995e-05,4e-05,4e-05,5e-05,5
24956,25853,7e-05,0.00016999999999999999,0.00018,-0.00014,-5.9999999999999995e-05,4e-05,4e-05,5e-05,5
24957,25854,7e-05,0.00016999999999999999,0.00018,-0.00014,-5.9999999999999995e-05,4e-05,4e-05,5e-05,5
24958,25855,7e-05,0.00016999999999999999,0.00018,-0.00014,-5.9999999999999995e-05,4e-05,4e-05,5e-05,5
24959,25856,7e-05,0.00016999999999999999,0.00018,-0.00014,-5.9999999999999995e-05,4e-05,4e-05,5e-05,5
24960,25857,7e-05,0.00016999999999999999,0.00018,-0.00014,-5.9999999999999995e-05,4e-05,4e-05,5e-05,5
24961,25858,-2e-05,-2.9999999999999997e-05,-0.00014,-0.00042,-0.00061,-0.00015,-0.0001,-5e-05,5
24962,25859,-2e-05,-2.9999999999999997e-05,-0.00014,-0.00042,-0.00061,-0.00015,-0.0001,-5e-05,5
24963,25860,-2e-05,-2.9999999999999997e-05,-0.00014,-0.00042,-0.00061,-0.00015,-0.0001,-5e-05,5
24964,25861,-2e-05,-2.9999999999999997e-05,-0.00014,-0.00042,-0.00061,-0.00015,-0.0001,-5e-05,5
24965,25862,-2e-05,-2.9999999999999997e-05,-0.00014,-0.00042,-0.00061,-0.00015,-0.0001,-5e-05,5
24966,25863,-2e-05,-2.9999999999999997e-05,-0.00014,-0.00042,-0.00061,-0.00015,-0.0001,-5e-05,5
24967,25864,-2e-05,-2.9999999999999997e-05,-0.00014,-0.00042,-0.00061,-0.00015,-0.0001,-5e-05,5
24968,25865,-2e-05,-2.9999999999999997e-05,-0.00014,-0.00042,-0.00061,-0.00015,-0.0001,-5e-05,5
24969,25866,-2e-05,-2.9999999999999997e-05,-0.00014,-0.00042,-0.00061,-0.00015,-0.0001,-5e-05,5
24970,25867,-2e-05,-2.9999999999999997e-05,-0.00014,-0.00042,-0.00061,-0.00015,-0.0001,-5e-05,5
24971,25868,-2e-05,-2.9999999999999997e-05,-0.00014,-0.00042,-0.00061,-0.00015,-0.0001,-5e-05,5
24972,25869,-2e-05,-2.9999999999999997e-05,-0.00014,-0.00042,-0.00061,-0.00015,-0.0001,-5e-05,5
24973,25870,-2e-05,-2.9999999999999997e-05,-0.00014,-0.00042,-0.00061,-0.00015,-0.0001,-5e-05,5
24974,25871,-2e-05,-2.9999999999999997e-05,-0.00014,-0.00042,-0.00061,-0.00015,-0.0001,-5e-05,5
24975,25872,-2.9999999999999997e-05,-1e-05,0.00013000000000000002,0.00061,-0.00035,-0.00011,-2e-05,-2.9999999999999997e-05,5
24976,25873,-2.9999999999999997e-05,-1e-05,0.00013000000000000002,0.00061,-0.00035,-0.00011,-2e-05,-2.9999999999999997e-05,5
24977,25874,-5e-05,-8e-05,-0.00016999999999999999,-0.00022999999999999998,-5e-05,5.9999999999999995e-05,-8e-05,-4e-05,5
24978,25875,-5e-05,-8e-05,-0.00016999999999999999,-0.00022999999999999998,-5e-05,5.9999999999999995e-05,-8e-05,-4e-05,5
24979,25876,-5e-05,-8e-05,-0.00016999999999999999,-0.00022999999999999998,-5e-05,5.9999999999999995e-05,-8e-05,-4e-05,5
24980,25877,-5e-05,-8e-05,-0.00016999999999999999,-0.00022999999999999998,-5e-05,5.9999999999999995e-05,-8e-05,-4e-05,5
24981,25878,-5e-05,-8e-05,-0.00016999999999999999,-0.00022999999999999998,-5e-05,5.9999999999999995e-05,-8e-05,-4e-05,5
24982,25879,-5e-05,-8e-05,-0.00016999999999999999,-0.00022999999999999998,-5e-05,5.9999999999999995e-05,-8e-05,-4e-05,5
24983,25880,-5e-05,-8e-05,-0.00016999999999999999,-0.00022999999999999998,-5e-05,5.9999999999999995e-05,-8e-05,-4e-05,5
24984,25881,-5e-05,-8e-05,-0.00016999999999999999,-0.00022999999999999998,-5e-05,5.9999999999999995e-05,-8e-05,-4e-05,5
24985,25882,-5e-05,-8e-05,-0.00016999999999999999,-0.00022999999999999998,-5e-05,5.9999999999999995e-05,-8e-05,-4e-05,5
24986,25883,-5e-05,-8e-05,-0.00016999999999999999,-0.00022999999999999998,-5e-05,5.9999999999999995e-05,-8e-05,-4e-05,5
24987,25884,-5e-05,-8e-05,-0.00016999999999999999,-0.00022999999999999998,-5e-05,5.9999999999999995e-05,-8e-05,-4e-05,5
24988,25885,-5e-05,-8e-05,-0.00016999999999999999,-0.00022999999999999998,-5e-05,5.9999999999999995e-05,-8e-05,-4e-05,5
24989,25886,-5e-05,-8e-05,-0.00016999999999999999,-0.00022999999999999998,-5e-05,5.9999999999999995e-05,-8e-05,-4e-05,5
24990,25888,-5e-05,-8e-05,-0.00016999999999999999,-0.00022999999999999998,-5e-05,5.9999999999999995e-05,-8e-05,-4e-05,5
24991,25889,-5e-05,-8e-05,-0.00016999999999999999,-0.00022999999999999998,-5e-05,5.9999999999999995e-05,-8e-05,-4e-05,5
24992,25890,-5e-05,-8e-05,-0.00016999999999999999,-0.00022999999999999998,-5e-05,5.9999999999999995e-05,-8e-05,-4e-05,5
24993,25891,-5e-05,-8e-05,-0.00016999999999999999,-0.00022999999999999998,-5e-05,5.9999999999999995e-05,-8e-05,-4e-05,5
24994,25892,-5e-05,-8e-05,-0.00016999999999999999,-0.00022999999999999998,-5e-05,5.9999999999999995e-05,-8e-05,-4e-05,5
24995,25893,-5e-05,-8e-05,-0.00016999999999999999,-0.00022999999999999998,-5e-05,5.9999999999999995e-05,-8e-05,-4e-05,5
24996,25894,-5e-05,-8e-05,-0.00016999999999999999,-0.00022999999999999998,-5e-05,5.9999999999999995e-05,-8e-05,-4e-05,5
24997,25895,-5e-05,-8e-05,-0.00016999999999999999,-0.00022999999999999998,-5e-05,5.9999999999999995e-05,-8e-05,-4e-05,5
24998,25896,-2.9999999999999997e-05,-1e-05,1e-05,-0.00016,-0.00027,0.00023999999999999998,0.00029,0.00015,5
24999,25897,5.9999999999999995e-05,4e-05,0.00011,0.00041,0.00018,-5e-05,-9e-05,-5e-05,5
25000,25898,5.9999999999999995e-05,4e-05,0.00011,0.00041,0.00018,-5e-05,-9e-05,-5e-05,5
25001,25899,5.9999999999999995e-05,4e-05,0.00011,0.00041,0.00018,-5e-05,-9e-05,-5e-05,5
25002,25900,5.9999999999999995e-05,4e-05,0.00011,0.00041,0.00018,-5e-05,-9e-05,-5e-05,5
25003,25901,5.9999999999999995e-05,4e-05,0.00011,0.00041,0.00018,-5e-05,-9e-05,-5e-05,5
25004,25902,5.9999999999999995e-05,4e-05,0.00011,0.00041,0.00018,-5e-05,-9e-05,-5e-05,5
25005,25903,5.9999999999999995e-05,4e-05,0.00011,0.00041,0.00018,-5e-05,-9e-05,-5e-05,5
25006,25904,5.9999999999999995e-05,4e-05,0.00011,0.00041,0.00018,-5e-05,-9e-05,-5e-05,5
25007,25905,5.9999999999999995e-05,4e-05,0.00011,0.00041,0.00018,-5e-05,-9e-05,-5e-05,5
25008,25906,5.9999999999999995e-05,4e-05,0.00011,0.00041,0.00018,-5e-05,-9e-05,-5e-05,5
25009,25907,5.9999999999999995e-05,4e-05,0.00011,0.00041,0.00018,-5e-05,-9e-05,-5e-05,5
25010,25908,5.9999999999999995e-05,4e-05,0.00011,0.00041,0.00018,-5e-05,-9e-05,-5e-05,5
25011,25909,5.9999999999999995e-05,4e-05,0.00011,0.00041,0.00018,-5e-05,-9e-05,-5e-05,5
25012,25910,5.9999999999999995e-05,4e-05,0.00011,0.00041,0.00018,-5e-05,-9e-05,-5e-05,5
25013,25911,5.9999999999999995e-05,4e-05,0.00011,0.00041,0.00018,-5e-05,-9e-05,-5e-05,5
25014,25912,5.9999999999999995e-05,4e-05,0.00011,0.00041,0.00018,-5e-05,-9e-05,-5e-05,5
25015,25913,5.9999999999999995e-05,4e-05,0.00011,0.00041,0.00018,-5e-05,-9e-05,-5e-05,5
25016,25914,5.9999999999999995e-05,4e-05,0.00011,0.00041,0.00018,-5e-05,-9e-05,-5e-05,5
25017,25915,5.9999999999999995e-05,4e-05,0.00011,0.00041,0.00018,-5e-05,-9e-05,-5e-05,5
25018,25917,5.9999999999999995e-05,4e-05,0.00011,0.00041,0.00018,-5e-05,-9e-05,-5e-05,5
25019,25918,5.9999999999999995e-05,4e-05,0.00011,0.00041,0.00018,-5e-05,-9e-05,-5e-05,5
25020,25919,5.9999999999999995e-05,4e-05,0.00011,0.00041,0.00018,-5e-05,-9e-05,-5e-05,5
25021,25920,5.9999999999999995e-05,4e-05,0.00011,0.00041,0.00018,-5e-05,-9e-05,-5e-05,5
25022,25921,5.9999999999999995e-05,4e-05,0.00011,0.00041,0.00018,-5e-05,-9e-05,-5e-05,5
25023,25922,5.9999999999999995e-05,4e-05,0.00011,0.00041,0.00018,-5e-05,-9e-05,-5e-05,5
25024,25923,5.9999999999999995e-05,4e-05,0.00011,0.00041,0.00018,-5e-05,-9e-05,-5e-05,5
25025,25924,5.9999999999999995e-05,4e-05,0.00011,0.00041,0.00018,-5e-05,-9e-05,-5e-05,5
25026,25925,5.9999999999999995e-05,4e-05,0.00011,0.00041,0.00018,-5e-05,-9e-05,-5e-05,5
25027,25926,-2e-05,-2e-05,-8e-05,0.00014,7e-05,-5.9999999999999995e-05,-5.9999999999999995e-05,-4e-05,5
25028,25927,1e-05,2.9999999999999997e-05,-0.00011,-1e-05,0.0004,-4e-05,-0.0001,-2.9999999999999997e-05,5
25029,25928,1e-05,2.9999999999999997e-05,-0.00011,-1e-05,0.0004,-4e-05,-0.0001,-2.9999999999999997e-05,5
25030,25929,1e-05,2.9999999999999997e-05,-0.00011,-1e-05,0.0004,-4e-05,-0.0001,-2.9999999999999997e-05,5
25031,25930,1e-05,2.9999999999999997e-05,-0.00011,-1e-05,0.0004,-4e-05,-0.0001,-2.9999999999999997e-05,5
25032,25931,1e-05,2.9999999999999997e-05,-0.00011,-1e-05,0.0004,-4e-05,-0.0001,-2.9999999999999997e-05,5
25033,25932,1e-05,2.9999999999999997e-05,-0.00011,-1e-05,0.0004,-4e-05,-0.0001,-2.9999999999999997e-05,5
25034,25933,-2.9999999999999997e-05,-2e-05,1e-05,4e-05,-1e-05,1e-05,5e-05,-2e-05,5
25035,25934,-4e-05,-8e-05,-1e-05,-2e-05,0.00014,0.0001,-2.9999999999999997e-05,-4e-05,5
25036,25935,-4e-05,-8e-05,-1e-05,-2e-05,0.00014,0.0001,-2.9999999999999997e-05,-4e-05,5
25037,25936,-4e-05,-8e-05,-1e-05,-2e-05,0.00014,0.0001,-2.9999999999999997e-05,-4e-05,5
25038,25938,-4e-05,-8e-05,-1e-05,-2e-05,0.00014,0.0001,-2.9999999999999997e-05,-4e-05,5
25039,25939,-4e-05,-8e-05,-1e-05,-2e-05,0.00014,0.0001,-2.9999999999999997e-05,-4e-05,5
25040,25940,-4e-05,-8e-05,-1e-05,-2e-05,0.00014,0.0001,-2.9999999999999997e-05,-4e-05,5
25041,25941,-4e-05,-8e-05,-1e-05,-2e-05,0.00014,0.0001,-2.9999999999999997e-05,-4e-05,5
25042,25942,-4e-05,-8e-05,-1e-05,-2e-05,0.00014,0.0001,-2.9999999999999997e-05,-4e-05,5
25043,25943,-4e-05,-8e-05,-1e-05,-2e-05,0.00014,0.0001,-2.9999999999999997e-05,-4e-05,5
25044,25944,-4e-05,-8e-05,-1e-05,-2e-05,0.00014,0.0001,-2.9999999999999997e-05,-4e-05,5
25045,25945,-4e-05,-8e-05,-1e-05,-2e-05,0.00014,0.0001,-2.9999999999999997e-05,-4e-05,5
25046,25946,-4e-05,-8e-05,-1e-05,-2e-05,0.00014,0.0001,-2.9999999999999997e-05,-4e-05,5
25047,25947,-4e-05,-8e-05,-1e-05,-2e-05,0.00014,0.0001,-2.9999999999999997e-05,-4e-05,5
25048,25948,-4e-05,-8e-05,-1e-05,-2e-05,0.00014,0.0001,-2.9999999999999997e-05,-4e-05,5
25049,25949,-4e-05,-8e-05,-1e-05,-2e-05,0.00014,0.0001,-2.9999999999999997e-05,-4e-05,5
25050,25950,-4e-05,-8e-05,-1e-05,-2e-05,0.00014,0.0001,-2.9999999999999997e-05,-4e-05,5
25051,25951,-4e-05,-8e-05,-1e-05,-2e-05,0.00014,0.0001,-2.9999999999999997e-05,-4e-05,5
25052,25952,-4e-05,-8e-05,-1e-05,-2e-05,0.00014,0.0001,-2.9999999999999997e-05,-4e-05,5
25053,25953,-4e-05,-8e-05,-1e-05,-2e-05,0.00014,0.0001,-2.9999999999999997e-05,-4e-05,5
25054,25954,-4e-05,-8e-05,-1e-05,-2e-05,0.00014,0.0001,-2.9999999999999997e-05,-4e-05,5
25055,25955,-4e-05,-8e-05,-1e-05,-2e-05,0.00014,0.0001,-2.9999999999999997e-05,-4e-05,5
25056,25956,-4e-05,-8e-05,-1e-05,-2e-05,0.00014,0.0001,-2.9999999999999997e-05,-4e-05,5
25057,25957,2e-05,1e-05,-8e-05,-0.00036,-0.00016,-0.00015,-5.9999999999999995e-05,-4e-05,5
25058,25958,2.9999999999999997e-05,2.9999999999999997e-05,4e-05,-9e-05,-2.9999999999999997e-05,0.00011,7e-05,2.9999999999999997e-05,5
25059,25959,2.9999999999999997e-05,2.9999999999999997e-05,4e-05,-9e-05,-2.9999999999999997e-05,0.00011,7e-05,2.9999999999999997e-05,5
25060,25960,2.9999999999999997e-05,2.9999999999999997e-05,4e-05,-9e-05,-2.9999999999999997e-05,0.00011,7e-05,2.9999999999999997e-05,5
25061,25961,2.9999999999999997e-05,2.9999999999999997e-05,4e-05,-9e-05,-2.9999999999999997e-05,0.00011,7e-05,2.9999999999999997e-05,5
25062,25962,2.9999999999999997e-05,2.9999999999999997e-05,4e-05,-9e-05,-2.9999999999999997e-05,0.00011,7e-05,2.9999999999999997e-05,5
25063,25963,2.9999999999999997e-05,2.9999999999999997e-05,4e-05,-9e-05,-2.9999999999999997e-05,0.00011,7e-05,2.9999999999999997e-05,5
25064,25964,2.9999999999999997e-05,2.9999999999999997e-05,4e-05,-9e-05,-2.9999999999999997e-05,0.00011,7e-05,2.9999999999999997e-05,5
25065,25965,2.9999999999999997e-05,2.9999999999999997e-05,4e-05,-9e-05,-2.9999999999999997e-05,0.00011,7e-05,2.9999999999999997e-05,5
25066,25966,2.9999999999999997e-05,2.9999999999999997e-05,4e-05,-9e-05,-2.9999999999999997e-05,0.00011,7e-05,2.9999999999999997e-05,5
25067,25967,2.9999999999999997e-05,2.9999999999999997e-05,4e-05,-9e-05,-2.9999999999999997e-05,0.00011,7e-05,2.9999999999999997e-05,5
25068,25968,2.9999999999999997e-05,2.9999999999999997e-05,4e-05,-9e-05,-2.9999999999999997e-05,0.00011,7e-05,2.9999999999999997e-05,5
25069,25969,0.00011999999999999999,0.00018999999999999998,0.00022999999999999998,0.0001,-0.00029,5e-05,0.00014,0.0001,5
25070,25970,-9e-05,-0.00016,-0.00047000000000000004,-0.00021,0.0,0.0,-2e-05,-2.9999999999999997e-05,5
25071,25971,-9e-05,-0.00016,-0.00047000000000000004,-0.00021,0.0,0.0,-2e-05,-2.9999999999999997e-05,5
25072,25972,-9e-05,-0.00016,-0.00047000000000000004,-0.00021,0.0,0.0,-2e-05,-2.9999999999999997e-05,5
25073,25973,-9e-05,-0.00016,-0.00047000000000000004,-0.00021,0.0,0.0,-2e-05,-2.9999999999999997e-05,5
25074,25974,-9e-05,-0.00016,-0.00047000000000000004,-0.00021,0.0,0.0,-2e-05,-2.9999999999999997e-05,5
25075,25975,-9e-05,-0.00016,-0.00047000000000000004,-0.00021,0.0,0.0,-2e-05,-2.9999999999999997e-05,5
25076,25976,-9e-05,-0.00016,-0.00047000000000000004,-0.00021,0.0,0.0,-2e-05,-2.9999999999999997e-05,5
25077,25977,-9e-05,-0.00016,-0.00047000000000000004,-0.00021,0.0,0.0,-2e-05,-2.9999999999999997e-05,5
25078,25978,0.00011999999999999999,0.00023999999999999998,0.00055,0.00091,0.00059,0.00023999999999999998,2.9999999999999997e-05,5.9999999999999995e-05,5
25079,25979,0.00011999999999999999,0.00023999999999999998,0.00055,0.00091,0.00059,0.00023999999999999998,2.9999999999999997e-05,5.9999999999999995e-05,5
25080,25980,0.00011999999999999999,0.00023999999999999998,0.00055,0.00091,0.00059,0.00023999999999999998,2.9999999999999997e-05,5.9999999999999995e-05,5
25081,25981,0.00011999999999999999,0.00023999999999999998,0.00055,0.00091,0.00059,0.00023999999999999998,2.9999999999999997e-05,5.9999999999999995e-05,5
25082,25982,0.00011999999999999999,0.00023999999999999998,0.00055,0.00091,0.00059,0.00023999999999999998,2.9999999999999997e-05,5.9999999999999995e-05,5
25083,25983,0.00011999999999999999,0.00023999999999999998,0.00055,0.00091,0.00059,0.00023999999999999998,2.9999999999999997e-05,5.9999999999999995e-05,5
25084,25984,0.00011999999999999999,0.00023999999999999998,0.00055,0.00091,0.00059,0.00023999999999999998,2.9999999999999997e-05,5.9999999999999995e-05,5
25085,25985,0.00011999999999999999,0.00023999999999999998,0.00055,0.00091,0.00059,0.00023999999999999998,2.9999999999999997e-05,5.9999999999999995e-05,5
25086,25986,0.00011999999999999999,0.00023999999999999998,0.00055,0.00091,0.00059,0.00023999999999999998,2.9999999999999997e-05,5.9999999999999995e-05,5
25087,25988,0.00011999999999999999,0.00023999999999999998,0.00055,0.00091,0.00059,0.00023999999999999998,2.9999999999999997e-05,5.9999999999999995e-05,5
25088,25989,0.00011999999999999999,0.00023999999999999998,0.00055,0.00091,0.00059,0.00023999999999999998,2.9999999999999997e-05,5.9999999999999995e-05,5
25089,25990,0.00011999999999999999,0.00023999999999999998,0.00055,0.00091,0.00059,0.00023999999999999998,2.9999999999999997e-05,5.9999999999999995e-05,5
25090,25991,0.00011999999999999999,0.00023999999999999998,0.00055,0.00091,0.00059,0.00023999999999999998,2.9999999999999997e-05,5.9999999999999995e-05,5
25091,25992,0.00011999999999999999,0.00023999999999999998,0.00055,0.00091,0.00059,0.00023999999999999998,2.9999999999999997e-05,5.9999999999999995e-05,5
25092,25993,9e-05,0.00021,0.00042,0.00039,0.00043,5e-05,5.9999999999999995e-05,2.9999999999999997e-05,5
25093,25994,-0.00011,-0.00018,-0.00029,-0.0005200000000000001,-0.00033,-4e-05,-5e-05,-8e-05,5
25094,25995,-0.00011,-0.00018,-0.00029,-0.0005200000000000001,-0.00033,-4e-05,-5e-05,-8e-05,5
25095,25996,-0.00011,-0.00018,-0.00029,-0.0005200000000000001,-0.00033,-4e-05,-5e-05,-8e-05,5
25096,25997,-0.00011,-0.00018,-0.00029,-0.0005200000000000001,-0.00033,-4e-05,-5e-05,-8e-05,5
25097,25998,-0.00011,-0.00018,-0.00029,-0.0005200000000000001,-0.00033,-4e-05,-5e-05,-8e-05,5
25098,25999,-0.00011,-0.00018,-0.00029,-0.0005200000000000001,-0.00033,-4e-05,-5e-05,-8e-05,5
25099,26000,-0.00011,-0.00018,-0.00029,-0.0005200000000000001,-0.00033,-4e-05,-5e-05,-8e-05,5
25100,26001,-0.00011,-0.00018,-0.00029,-0.0005200000000000001,-0.00033,-4e-05,-5e-05,-8e-05,5
25101,26002,-0.00011,-0.00018,-0.00029,-0.0005200000000000001,-0.00033,-4e-05,-5e-05,-8e-05,5
25102,26003,-0.00011,-0.00018,-0.00029,-0.0005200000000000001,-0.00033,-4e-05,-5e-05,-8e-05,5
25103,26004,-0.00011,-0.00018,-0.00029,-0.0005200000000000001,-0.00033,-4e-05,-5e-05,-8e-05,5
25104,26005,-0.00011,-0.00018,-0.00029,-0.0005200000000000001,-0.00033,-4e-05,-5e-05,-8e-05,5
25105,26006,-0.00011,-0.00018,-0.00029,-0.0005200000000000001,-0.00033,-4e-05,-5e-05,-8e-05,5
25106,26007,-0.00011,-0.00018,-0.00029,-0.0005200000000000001,-0.00033,-4e-05,-5e-05,-8e-05,5
25107,26008,-0.00011,-0.00018,-0.00029,-0.0005200000000000001,-0.00033,-4e-05,-5e-05,-8e-05,5
25108,26009,-0.00011,-0.00018,-0.00029,-0.0005200000000000001,-0.00033,-4e-05,-5e-05,-8e-05,5
25109,26010,-0.00011,-0.00018,-0.00029,-0.0005200000000000001,-0.00033,-4e-05,-5e-05,-8e-05,5
25110,26012,-0.00011,-0.00018,-0.00029,-0.0005200000000000001,-0.00033,-4e-05,-5e-05,-8e-05,5
25111,26013,-0.00011,-0.00018,-0.00029,-0.0005200000000000001,-0.00033,-4e-05,-5e-05,-8e-05,5
25112,26014,-0.00011,-0.00018,-0.00029,-0.0005200000000000001,-0.00033,-4e-05,-5e-05,-8e-05,5
25113,26015,-0.00011,-0.00018,-0.00029,-0.0005200000000000001,-0.00033,-4e-05,-5e-05,-8e-05,5
25114,26016,-2e-05,-5e-05,-7e-05,0.0001,0.0001,0.0,-9e-05,-2e-05,5
25115,26017,-2e-05,-5e-05,-7e-05,-2.9999999999999997e-05,0.0,-0.00018,9e-05,4e-05,5
25116,26018,-2e-05,-5e-05,-7e-05,-2.9999999999999997e-05,0.0,-0.00018,9e-05,4e-05,5
25117,26019,-2e-05,-5e-05,-7e-05,-2.9999999999999997e-05,0.0,-0.00018,9e-05,4e-05,5
25118,26020,-2e-05,-5e-05,-7e-05,-2.9999999999999997e-05,0.0,-0.00018,9e-05,4e-05,5
25119,26021,-2e-05,-5e-05,-7e-05,-2.9999999999999997e-05,0.0,-0.00018,9e-05,4e-05,5
25120,26022,-2e-05,-5e-05,-7e-05,-2.9999999999999997e-05,0.0,-0.00018,9e-05,4e-05,5
25121,26023,-2e-05,-5e-05,-7e-05,-2.9999999999999997e-05,0.0,-0.00018,9e-05,4e-05,5
25122,26024,-2e-05,-5e-05,-7e-05,-2.9999999999999997e-05,0.0,-0.00018,9e-05,4e-05,5
25123,26025,-2e-05,-5e-05,-7e-05,-2.9999999999999997e-05,0.0,-0.00018,9e-05,4e-05,5
25124,26026,-2e-05,-5e-05,-7e-05,-2.9999999999999997e-05,0.0,-0.00018,9e-05,4e-05,5
25125,26027,-2e-05,-5e-05,-7e-05,-2.9999999999999997e-05,0.0,-0.00018,9e-05,4e-05,5
25126,26028,-2e-05,-5e-05,-7e-05,-2.9999999999999997e-05,0.0,-0.00018,9e-05,4e-05,5
25127,26029,-2e-05,4e-05,0.0002,0.00032,2e-05,0.0,-2e-05,-4e-05,5
25128,26030,-5e-05,-0.00014,-0.00035,-0.00037999999999999997,-0.00021,-2.9999999999999997e-05,-4e-05,-2.9999999999999997e-05,5
25129,26031,-5e-05,-0.00014,-0.00035,-0.00037999999999999997,-0.00021,-2.9999999999999997e-05,-4e-05,-2.9999999999999997e-05,5
25130,26032,-5e-05,-0.00014,-0.00035,-0.00037999999999999997,-0.00021,-2.9999999999999997e-05,-4e-05,-2.9999999999999997e-05,5
25131,26033,-5e-05,-0.00014,-0.00035,-0.00037999999999999997,-0.00021,-2.9999999999999997e-05,-4e-05,-2.9999999999999997e-05,5
25132,26034,-5e-05,-0.00014,-0.00035,-0.00037999999999999997,-0.00021,-2.9999999999999997e-05,-4e-05,-2.9999999999999997e-05,5
25133,26035,-5e-05,-0.00014,-0.00035,-0.00037999999999999997,-0.00021,-2.9999999999999997e-05,-4e-05,-2.9999999999999997e-05,5
25134,26036,-5e-05,-0.00014,-0.00035,-0.00037999999999999997,-0.00021,-2.9999999999999997e-05,-4e-05,-2.9999999999999997e-05,5
25135,26038,-4e-05,-0.00031,-0.00095,-0.00103,-0.00031,0.00016999999999999999,0.00018,7e-05,5
25136,26039,-4e-05,-0.00031,-0.00095,-0.00103,-0.00031,0.00016999999999999999,0.00018,7e-05,5
25137,26040,-4e-05,-0.00031,-0.00095,-0.00103,-0.00031,0.00016999999999999999,0.00018,7e-05,5
25138,26041,-4e-05,-0.00031,-0.00095,-0.00103,-0.00031,0.00016999999999999999,0.00018,7e-05,5
25139,26042,-4e-05,-0.00031,-0.00095,-0.00103,-0.00031,0.00016999999999999999,0.00018,7e-05,5
25140,26043,-4e-05,-0.00031,-0.00095,-0.00103,-0.00031,0.00016999999999999999,0.00018,7e-05,5
25141,26044,-4e-05,-0.00031,-0.00095,-0.00103,-0.00031,0.00016999999999999999,0.00018,7e-05,5
25142,26045,-4e-05,-0.00031,-0.00095,-0.00103,-0.00031,0.00016999999999999999,0.00018,7e-05,5
25143,26046,-4e-05,-0.00031,-0.00095,-0.00103,-0.00031,0.00016999999999999999,0.00018,7e-05,5
25144,26047,-4e-05,-0.00031,-0.00095,-0.00103,-0.00031,0.00016999999999999999,0.00018,7e-05,5
25145,26048,-4e-05,-0.00031,-0.00095,-0.00103,-0.00031,0.00016999999999999999,0.00018,7e-05,5
25146,26049,-4e-05,-0.00031,-0.00095,-0.00103,-0.00031,0.00016999999999999999,0.00018,7e-05,5
25147,26050,-4e-05,-0.00031,-0.00095,-0.00103,-0.00031,0.00016999999999999999,0.00018,7e-05,5
25148,26051,-4e-05,-0.00031,-0.00095,-0.00103,-0.00031,0.00016999999999999999,0.00018,7e-05,5
25149,26052,-4e-05,-0.00031,-0.00095,-0.00103,-0.00031,0.00016999999999999999,0.00018,7e-05,5
25150,26053,1e-05,8e-05,0.0,-4e-05,-0.00018999999999999998,-5.9999999999999995e-05,-1e-05,2e-05,5
25151,26054,4e-05,0.0001,0.00021,-0.00011999999999999999,-0.00022,7e-05,-5.9999999999999995e-05,-4e-05,5
25152,26055,4e-05,0.0001,0.00021,-0.00011999999999999999,-0.00022,7e-05,-5.9999999999999995e-05,-4e-05,5
25153,26056,4e-05,0.0001,0.00021,-0.00011999999999999999,-0.00022,7e-05,-5.9999999999999995e-05,-4e-05,5
25154,26057,4e-05,0.0001,0.00021,-0.00011999999999999999,-0.00022,7e-05,-5.9999999999999995e-05,-4e-05,5
25155,26058,4e-05,0.0001,0.00021,-0.00011999999999999999,-0.00022,7e-05,-5.9999999999999995e-05,-4e-05,5
25156,26059,4e-05,0.0001,0.00021,-0.00011999999999999999,-0.00022,7e-05,-5.9999999999999995e-05,-4e-05,5
25157,26060,4e-05,0.0001,0.00021,-0.00011999999999999999,-0.00022,7e-05,-5.9999999999999995e-05,-4e-05,5
25158,26061,4e-05,0.0001,0.00021,-0.00011999999999999999,-0.00022,7e-05,-5.9999999999999995e-05,-4e-05,5
25159,26062,4e-05,0.0001,0.00021,-0.00011999999999999999,-0.00022,7e-05,-5.9999999999999995e-05,-4e-05,5
25160,26063,4e-05,0.0001,0.00021,-0.00011999999999999999,-0.00022,7e-05,-5.9999999999999995e-05,-4e-05,5
25161,26064,4e-05,0.0001,0.00021,-0.00011999999999999999,-0.00022,7e-05,-5.9999999999999995e-05,-4e-05,5
25162,26065,4e-05,0.0001,0.00021,-0.00011999999999999999,-0.00022,7e-05,-5.9999999999999995e-05,-4e-05,5
25163,26066,4e-05,0.0001,0.00021,-0.00011999999999999999,-0.00022,7e-05,-5.9999999999999995e-05,-4e-05,5
25164,26067,4e-05,0.0001,0.00021,-0.00011999999999999999,-0.00022,7e-05,-5.9999999999999995e-05,-4e-05,5
25165,26068,4e-05,0.0001,0.00021,-0.00011999999999999999,-0.00022,7e-05,-5.9999999999999995e-05,-4e-05,5
25166,26069,4e-05,0.0001,0.00021,-0.00011999999999999999,-0.00022,7e-05,-5.9999999999999995e-05,-4e-05,5
25167,26070,4e-05,0.0001,0.00021,-0.00011999999999999999,-0.00022,7e-05,-5.9999999999999995e-05,-4e-05,5
25168,26071,4e-05,0.0001,0.00021,-0.00011999999999999999,-0.00022,7e-05,-5.9999999999999995e-05,-4e-05,5
25169,26072,4e-05,0.0001,0.00021,-0.00011999999999999999,-0.00022,7e-05,-5.9999999999999995e-05,-4e-05,5
25170,26073,4e-05,0.0001,0.00021,-0.00011999999999999999,-0.00022,7e-05,-5.9999999999999995e-05,-4e-05,5
25171,26074,4e-05,0.0001,0.00021,-0.00011999999999999999,-0.00022,7e-05,-5.9999999999999995e-05,-4e-05,5
25172,26075,4e-05,0.0001,0.00021,-0.00011999999999999999,-0.00022,7e-05,-5.9999999999999995e-05,-4e-05,5
25173,26076,-0.00011,-0.00028,-0.00073,-0.00056,-0.00054,-0.00022999999999999998,-0.00016999999999999999,-0.00015,5
25174,26077,-5e-05,-0.00013000000000000002,-0.00022,0.0,-0.00016999999999999999,2e-05,0.0001,2e-05,5
25175,26078,-5e-05,-0.00013000000000000002,-0.00022,0.0,-0.00016999999999999999,2e-05,0.0001,2e-05,5
25176,26079,-5e-05,-0.00013000000000000002,-0.00022,0.0,-0.00016999999999999999,2e-05,0.0001,2e-05,5
25177,26080,-5e-05,-0.00013000000000000002,-0.00022,0.0,-0.00016999999999999999,2e-05,0.0001,2e-05,5
25178,26081,-5e-05,-0.00013000000000000002,-0.00022,0.0,-0.00016999999999999999,2e-05,0.0001,2e-05,5
25179,26082,-5e-05,-0.00013000000000000002,-0.00022,0.0,-0.00016999999999999999,2e-05,0.0001,2e-05,5
25180,26083,-5e-05,-0.00013000000000000002,-0.00022,0.0,-0.00016999999999999999,2e-05,0.0001,2e-05,5
25181,26084,-5e-05,-0.00013000000000000002,-0.00022,0.0,-0.00016999999999999999,2e-05,0.0001,2e-05,5
25182,26085,-5e-05,-0.00013000000000000002,-0.00022,0.0,-0.00016999999999999999,2e-05,0.0001,2e-05,5
25183,26086,-5e-05,-0.00013000000000000002,-0.00022,0.0,-0.00016999999999999999,2e-05,0.0001,2e-05,5
25184,26088,-5e-05,-0.00013000000000000002,-0.00022,0.0,-0.00016999999999999999,2e-05,0.0001,2e-05,5
25185,26089,-5e-05,-0.00013000000000000002,-0.00022,0.0,-0.00016999999999999999,2e-05,0.0001,2e-05,5
25186,26090,-2.9999999999999997e-05,-0.00011,-0.00032,-0.00015,0.00027,-0.0001,-0.00018,-2.9999999999999997e-05,5
25187,26091,-2.9999999999999997e-05,-0.00011,-0.00032,-0.00015,0.00027,-0.0001,-0.00018,-2.9999999999999997e-05,5
25188,26092,-2.9999999999999997e-05,-0.00011,-0.00032,-0.00015,0.00027,-0.0001,-0.00018,-2.9999999999999997e-05,5
25189,26093,-2.9999999999999997e-05,-0.00011,-0.00032,-0.00015,0.00027,-0.0001,-0.00018,-2.9999999999999997e-05,5
25190,26094,-2.9999999999999997e-05,-0.00011,-0.00032,-0.00015,0.00027,-0.0001,-0.00018,-2.9999999999999997e-05,5
25191,26095,-2.9999999999999997e-05,-0.00011,-0.00032,-0.00015,0.00027,-0.0001,-0.00018,-2.9999999999999997e-05,5
25192,26096,-2.9999999999999997e-05,-0.00011,-0.00032,-0.00015,0.00027,-0.0001,-0.00018,-2.9999999999999997e-05,5
25193,26097,-2.9999999999999997e-05,-0.00011,-0.00032,-0.00015,0.00027,-0.0001,-0.00018,-2.9999999999999997e-05,5
25194,26098,-2.9999999999999997e-05,-0.00011,-0.00032,-0.00015,0.00027,-0.0001,-0.00018,-2.9999999999999997e-05,5
25195,26099,-2.9999999999999997e-05,-2.9999999999999997e-05,-1e-05,4e-05,1e-05,-0.0002,-2.9999999999999997e-05,-5.9999999999999995e-05,5
25196,26100,-2.9999999999999997e-05,-2.9999999999999997e-05,-1e-05,4e-05,1e-05,-0.0002,-2.9999999999999997e-05,-5.9999999999999995e-05,5
25197,26101,-2.9999999999999997e-05,-2.9999999999999997e-05,-1e-05,4e-05,1e-05,-0.0002,-2.9999999999999997e-05,-5.9999999999999995e-05,5
25198,26102,-2.9999999999999997e-05,-2.9999999999999997e-05,-1e-05,4e-05,1e-05,-0.0002,-2.9999999999999997e-05,-5.9999999999999995e-05,5
25199,26104,-2.9999999999999997e-05,-2.9999999999999997e-05,-1e-05,4e-05,1e-05,-0.0002,-2.9999999999999997e-05,-5.9999999999999995e-05,5
25200,26105,-2.9999999999999997e-05,-2.9999999999999997e-05,-1e-05,4e-05,1e-05,-0.0002,-2.9999999999999997e-05,-5.9999999999999995e-05,5
25201,26106,-2.9999999999999997e-05,-2.9999999999999997e-05,-1e-05,4e-05,1e-05,-0.0002,-2.9999999999999997e-05,-5.9999999999999995e-05,5
25202,26107,-2.9999999999999997e-05,-2.9999999999999997e-05,-1e-05,4e-05,1e-05,-0.0002,-2.9999999999999997e-05,-5.9999999999999995e-05,5
25203,26108,-2.9999999999999997e-05,-2.9999999999999997e-05,-1e-05,4e-05,1e-05,-0.0002,-2.9999999999999997e-05,-5.9999999999999995e-05,5
25204,26109,-2.9999999999999997e-05,-2.9999999999999997e-05,-1e-05,4e-05,1e-05,-0.0002,-2.9999999999999997e-05,-5.9999999999999995e-05,5
25205,26110,-2.9999999999999997e-05,-2.9999999999999997e-05,-1e-05,4e-05,1e-05,-0.0002,-2.9999999999999997e-05,-5.9999999999999995e-05,5
25206,26111,-2.9999999999999997e-05,-2.9999999999999997e-05,-1e-05,4e-05,1e-05,-0.0002,-2.9999999999999997e-05,-5.9999999999999995e-05,5
25207,26112,-2.9999999999999997e-05,-2.9999999999999997e-05,-1e-05,4e-05,1e-05,-0.0002,-2.9999999999999997e-05,-5.9999999999999995e-05,5
25208,26113,2e-05,5e-05,0.00018,0.00044,0.00011999999999999999,2.9999999999999997e-05,-7e-05,-5e-05,5
25209,26114,-8e-05,-0.00016,-0.00045,-0.00079,-0.0002,-2.9999999999999997e-05,-2.9999999999999997e-05,-4e-05,5
25210,26115,-8e-05,-0.00016,-0.00045,-0.00079,-0.0002,-2.9999999999999997e-05,-2.9999999999999997e-05,-4e-05,5
25211,26116,-8e-05,-0.00016,-0.00045,-0.00079,-0.0002,-2.9999999999999997e-05,-2.9999999999999997e-05,-4e-05,5
25212,26117,-8e-05,-0.00016,-0.00045,-0.00079,-0.0002,-2.9999999999999997e-05,-2.9999999999999997e-05,-4e-05,5
25213,26118,-8e-05,-0.00016,-0.00045,-0.00079,-0.0002,-2.9999999999999997e-05,-2.9999999999999997e-05,-4e-05,5
25214,26119,-8e-05,-0.00016,-0.00045,-0.00079,-0.0002,-2.9999999999999997e-05,-2.9999999999999997e-05,-4e-05,5
25215,26120,-8e-05,-0.00016,-0.00045,-0.00079,-0.0002,-2.9999999999999997e-05,-2.9999999999999997e-05,-4e-05,5
25216,26121,-8e-05,-0.00016,-0.00045,-0.00079,-0.0002,-2.9999999999999997e-05,-2.9999999999999997e-05,-4e-05,5
25217,26122,-8e-05,-0.00016,-0.00045,-0.00079,-0.0002,-2.9999999999999997e-05,-2.9999999999999997e-05,-4e-05,5
25218,26123,-8e-05,-0.00016,-0.00045,-0.00079,-0.0002,-2.9999999999999997e-05,-2.9999999999999997e-05,-4e-05,5
25219,26124,-8e-05,-0.00016,-0.00045,-0.00079,-0.0002,-2.9999999999999997e-05,-2.9999999999999997e-05,-4e-05,5
25220,26125,-8e-05,-0.00016,-0.00045,-0.00079,-0.0002,-2.9999999999999997e-05,-2.9999999999999997e-05,-4e-05,5
25221,26126,-8e-05,-0.00016,-0.00045,-0.00079,-0.0002,-2.9999999999999997e-05,-2.9999999999999997e-05,-4e-05,5
25222,26128,-8e-05,-0.00016,-0.00045,-0.00079,-0.0002,-2.9999999999999997e-05,-2.9999999999999997e-05,-4e-05,5
25223,26129,-8e-05,-0.00016,-0.00045,-0.00079,-0.0002,-2.9999999999999997e-05,-2.9999999999999997e-05,-4e-05,5
25224,26130,-8e-05,-0.00016,-0.00045,-0.00079,-0.0002,-2.9999999999999997e-05,-2.9999999999999997e-05,-4e-05,5
25225,26131,-8e-05,-0.00016,-0.00045,-0.00079,-0.0002,-2.9999999999999997e-05,-2.9999999999999997e-05,-4e-05,5
25226,26132,-8e-05,-0.00016,-0.00045,-0.00079,-0.0002,-2.9999999999999997e-05,-2.9999999999999997e-05,-4e-05,5
25227,26133,-8e-05,-0.00016,-0.00045,-0.00079,-0.0002,-2.9999999999999997e-05,-2.9999999999999997e-05,-4e-05,5
25228,26134,-8e-05,-0.00016,-0.00045,-0.00079,-0.0002,-2.9999999999999997e-05,-2.9999999999999997e-05,-4e-05,5
25229,26135,-8e-05,-0.00016,-0.00045,-0.00079,-0.0002,-2.9999999999999997e-05,-2.9999999999999997e-05,-4e-05,5
25230,26136,-4e-05,-4e-05,-0.00011,-0.00037999999999999997,-2e-05,4e-05,0.00011999999999999999,2.9999999999999997e-05,5
25231,26138,-2e-05,1e-05,5e-05,0.00011999999999999999,8e-05,-5e-05,-9e-05,-5.9999999999999995e-05,5
25232,26139,-2e-05,1e-05,5e-05,0.00011999999999999999,8e-05,-5e-05,-9e-05,-5.9999999999999995e-05,5
25233,26140,-2e-05,1e-05,5e-05,0.00011999999999999999,8e-05,-5e-05,-9e-05,-5.9999999999999995e-05,5
25234,26141,-2e-05,1e-05,5e-05,0.00011999999999999999,8e-05,-5e-05,-9e-05,-5.9999999999999995e-05,5
25235,26142,-2e-05,1e-05,5e-05,0.00011999999999999999,8e-05,-5e-05,-9e-05,-5.9999999999999995e-05,5
25236,26143,-2e-05,1e-05,5e-05,0.00011999999999999999,8e-05,-5e-05,-9e-05,-5.9999999999999995e-05,5
25237,26144,-2e-05,1e-05,5e-05,0.00011999999999999999,8e-05,-5e-05,-9e-05,-5.9999999999999995e-05,5
25238,26145,-2e-05,1e-05,5e-05,0.00011999999999999999,8e-05,-5e-05,-9e-05,-5.9999999999999995e-05,5
25239,26146,-2e-05,1e-05,5e-05,0.00011999999999999999,8e-05,-5e-05,-9e-05,-5.9999999999999995e-05,5
25240,26147,-2e-05,1e-05,5e-05,0.00011999999999999999,8e-05,-5e-05,-9e-05,-5.9999999999999995e-05,5
25241,26148,-2e-05,1e-05,5e-05,0.00011999999999999999,8e-05,-5e-05,-9e-05,-5.9999999999999995e-05,5
25242,26149,-2e-05,1e-05,5e-05,0.00011999999999999999,8e-05,-5e-05,-9e-05,-5.9999999999999995e-05,5
25243,26151,-2e-05,1e-05,5e-05,0.00011999999999999999,8e-05,-5e-05,-9e-05,-5.9999999999999995e-05,5
25244,26152,-2e-05,1e-05,5e-05,0.00011999999999999999,8e-05,-5e-05,-9e-05,-5.9999999999999995e-05,5
25245,26153,-2e-05,1e-05,5e-05,0.00011999999999999999,8e-05,-5e-05,-9e-05,-5.9999999999999995e-05,5
25246,26154,-2e-05,1e-05,5e-05,0.00011999999999999999,8e-05,-5e-05,-9e-05,-5.9999999999999995e-05,5
25247,26155,-2e-05,1e-05,5e-05,0.00011999999999999999,8e-05,-5e-05,-9e-05,-5.9999999999999995e-05,5
25248,26156,-2e-05,1e-05,5e-05,0.00011999999999999999,8e-05,-5e-05,-9e-05,-5.9999999999999995e-05,5
25249,26157,-2e-05,1e-05,5e-05,0.00011999999999999999,8e-05,-5e-05,-9e-05,-5.9999999999999995e-05,5
25250,26158,-2e-05,1e-05,5e-05,0.00011999999999999999,8e-05,-5e-05,-9e-05,-5.9999999999999995e-05,5
25251,26159,5.9999999999999995e-05,0.00013000000000000002,0.00035,0.00027,-9e-05,-0.00011,-4e-05,0.0,5
25252,26160,5.9999999999999995e-05,0.00013000000000000002,0.00035,0.00027,-9e-05,-0.00011,-4e-05,0.0,5
25253,26161,5.9999999999999995e-05,0.00013000000000000002,0.00035,0.00027,-9e-05,-0.00011,-4e-05,0.0,5
25254,26162,5.9999999999999995e-05,0.00013000000000000002,0.00035,0.00027,-9e-05,-0.00011,-4e-05,0.0,5
25255,26163,5.9999999999999995e-05,0.00013000000000000002,0.00035,0.00027,-9e-05,-0.00011,-4e-05,0.0,5
25256,26164,5.9999999999999995e-05,0.00013000000000000002,0.00035,0.00027,-9e-05,-0.00011,-4e-05,0.0,5
25257,26165,5.9999999999999995e-05,0.00013000000000000002,0.00035,0.00027,-9e-05,-0.00011,-4e-05,0.0,5
25258,26166,5.9999999999999995e-05,0.00013000000000000002,0.00035,0.00027,-9e-05,-0.00011,-4e-05,0.0,5
25259,26167,5.9999999999999995e-05,0.00013000000000000002,0.00035,0.00027,-9e-05,-0.00011,-4e-05,0.0,5
25260,26168,5.9999999999999995e-05,0.00013000000000000002,0.00035,0.00027,-9e-05,-0.00011,-4e-05,0.0,5
