,time,channel1,channel2,channel3,channel4,channel5,channel6,channel7,channel8,class
23477,24622,0.0009400000000000001,2.9999999999999997e-05,-5e-05,-0.0001,-0.0003,0.00013000000000000002,-0.00011999999999999999,0.00086,6
23478,24623,0.0009400000000000001,2.9999999999999997e-05,-5e-05,-0.0001,-0.0003,0.00013000000000000002,-0.00011999999999999999,0.00086,6
23479,24624,0.0009400000000000001,2.9999999999999997e-05,-5e-05,-0.0001,-0.0003,0.00013000000000000002,-0.00011999999999999999,0.00086,6
23480,24625,0.0009400000000000001,2.9999999999999997e-05,-5e-05,-0.0001,-0.0003,0.00013000000000000002,-0.00011999999999999999,0.00086,6
23481,24626,0.0009400000000000001,2.9999999999999997e-05,-5e-05,-0.0001,-0.0003,0.00013000000000000002,-0.00011999999999999999,0.00086,6
23482,24627,0.00036,-2.9999999999999997e-05,4e-05,-2e-05,-5e-05,-9e-05,2e-05,7e-05,6
23483,24628,0.00036,-2.9999999999999997e-05,4e-05,-2e-05,-5e-05,-9e-05,2e-05,7e-05,6
23484,24629,0.00036,-2.9999999999999997e-05,4e-05,-2e-05,-5e-05,-9e-05,2e-05,7e-05,6
23485,24630,0.00036,-2.9999999999999997e-05,4e-05,-2e-05,-5e-05,-9e-05,2e-05,7e-05,6
23486,24631,0.00036,-2.9999999999999997e-05,4e-05,-2e-05,-5e-05,-9e-05,2e-05,7e-05,6
23487,24632,0.00036,-2.9999999999999997e-05,4e-05,-2e-05,-5e-05,-9e-05,2e-05,7e-05,6
23488,24633,0.00036,-2.9999999999999997e-05,4e-05,-2e-05,-5e-05,-9e-05,2e-05,7e-05,6
23489,24634,0.00036,-2.9999999999999997e-05,4e-05,-2e-05,-5e-05,-9e-05,2e-05,7e-05,6
23490,24635,0.00036,-2.9999999999999997e-05,4e-05,-2e-05,-5e-05,-9e-05,2e-05,7e-05,6
23491,24636,0.00035,1e-05,1e-05,1e-05,-0.00011999999999999999,0.00023999999999999998,0.00033999999999999997,0.0005099999999999999,6
23492,24638,0.00035,1e-05,1e-05,1e-05,-0.00011999999999999999,0.00023999999999999998,0.00033999999999999997,0.0005099999999999999,6
23493,24639,0.00035,1e-05,1e-05,1e-05,-0.00011999999999999999,0.00023999999999999998,0.00033999999999999997,0.0005099999999999999,6
23494,24640,0.00035,1e-05,1e-05,1e-05,-0.00011999999999999999,0.00023999999999999998,0.00033999999999999997,0.0005099999999999999,6
23495,24641,0.00035,1e-05,1e-05,1e-05,-0.00011999999999999999,0.00023999999999999998,0.00033999999999999997,0.0005099999999999999,6
23496,24642,0.00035,1e-05,1e-05,1e-05,-0.00011999999999999999,0.00023999999999999998,0.00033999999999999997,0.0005099999999999999,6
23497,24643,0.00035,1e-05,1e-05,1e-05,-0.00011999999999999999,0.00023999999999999998,0.00033999999999999997,0.0005099999999999999,6
23498,24644,0.00035,1e-05,1e-05,1e-05,-0.00011999999999999999,0.00023999999999999998,0.00033999999999999997,0.0005099999999999999,6
23499,24645,0.00035,1e-05,1e-05,1e-05,-0.00011999999999999999,0.00023999999999999998,0.00033999999999999997,0.0005099999999999999,6
23500,24646,0.00035,1e-05,1e-05,1e-05,-0.00011999999999999999,0.00023999999999999998,0.00033999999999999997,0.0005099999999999999,6
23501,24647,0.00035,1e-05,1e-05,1e-05,-0.00011999999999999999,0.00023999999999999998,0.00033999999999999997,0.0005099999999999999,6
23502,24648,0.00035,1e-05,1e-05,1e-05,-0.00011999999999999999,0.00023999999999999998,0.00033999999999999997,0.0005099999999999999,6
23503,24649,0.00035,1e-05,1e-05,1e-05,-0.00011999999999999999,0.00023999999999999998,0.00033999999999999997,0.0005099999999999999,6
23504,24650,0.00035,1e-05,1e-05,1e-05,-0.00011999999999999999,0.00023999999999999998,0.00033999999999999997,0.0005099999999999999,6
23505,24651,1e-05,-9e-05,2e-05,-9e-05,-0.00022999999999999998,0.00011999999999999999,0.00032,0.00025,6
23506,24652,-0.0011300000000000001,-8e-05,4e-05,-0.0001,-9e-05,-1e-05,-0.00015,-0.00018999999999999998,6
23507,24653,-0.0011300000000000001,-8e-05,4e-05,-0.0001,-9e-05,-1e-05,-0.00015,-0.00018999999999999998,6
23508,24654,-0.0011300000000000001,-8e-05,4e-05,-0.0001,-9e-05,-1e-05,-0.00015,-0.00018999999999999998,6
23509,24655,-0.0011300000000000001,-8e-05,4e-05,-0.0001,-9e-05,-1e-05,-0.00015,-0.00018999999999999998,6
23510,24656,-0.0011300000000000001,-8e-05,4e-05,-0.0001,-9e-05,-1e-05,-0.00015,-0.00018999999999999998,6
23511,24657,-0.0011300000000000001,-8e-05,4e-05,-0.0001,-9e-05,-1e-05,-0.00015,-0.00018999999999999998,6
23512,24658,-0.0011300000000000001,-8e-05,4e-05,-0.0001,-9e-05,-1e-05,-0.00015,-0.00018999999999999998,6
23513,24659,-0.0011300000000000001,-8e-05,4e-05,-0.0001,-9e-05,-1e-05,-0.00015,-0.00018999999999999998,6
23514,24660,-0.0011300000000000001,-8e-05,4e-05,-0.0001,-9e-05,-1e-05,-0.00015,-0.00018999999999999998,6
23515,24661,-0.0011300000000000001,-8e-05,4e-05,-0.0001,-9e-05,-1e-05,-0.00015,-0.00018999999999999998,6
23516,24662,-0.0011300000000000001,-8e-05,4e-05,-0.0001,-9e-05,-1e-05,-0.00015,-0.00018999999999999998,6
23517,24663,-0.0011300000000000001,-8e-05,4e-05,-0.0001,-9e-05,-1e-05,-0.00015,-0.00018999999999999998,6
23518,24664,-0.0011300000000000001,-8e-05,4e-05,-0.0001,-9e-05,-1e-05,-0.00015,-0.00018999999999999998,6
23519,24665,-0.0011300000000000001,-8e-05,4e-05,-0.0001,-9e-05,-1e-05,-0.00015,-0.00018999999999999998,6
23520,24666,-0.0011300000000000001,-8e-05,4e-05,-0.0001,-9e-05,-1e-05,-0.00015,-0.00018999999999999998,6
23521,24667,-0.0011300000000000001,-8e-05,4e-05,-0.0001,-9e-05,-1e-05,-0.00015,-0.00018999999999999998,6
23522,24668,-0.0011300000000000001,-8e-05,4e-05,-0.0001,-9e-05,-1e-05,-0.00015,-0.00018999999999999998,6
23523,24669,-0.0011300000000000001,-8e-05,4e-05,-0.0001,-9e-05,-1e-05,-0.00015,-0.00018999999999999998,6
23524,24670,-0.0011300000000000001,-8e-05,4e-05,-0.0001,-9e-05,-1e-05,-0.00015,-0.00018999999999999998,6
23525,24671,-0.0011300000000000001,-8e-05,4e-05,-0.0001,-9e-05,-1e-05,-0.00015,-0.00018999999999999998,6
23526,24672,-0.0011300000000000001,-8e-05,4e-05,-0.0001,-9e-05,-1e-05,-0.00015,-0.00018999999999999998,6
23527,24673,0.00014,-2e-05,0.0,0.00011999999999999999,0.00018999999999999998,0.00025,2.9999999999999997e-05,0.00027,6
23528,24674,0.00014,-2e-05,0.0,0.00011999999999999999,0.00018999999999999998,0.00025,2.9999999999999997e-05,0.00027,6
23529,24675,-0.00049,-0.0002,-5e-05,-8e-05,5e-05,-9e-05,-5.9999999999999995e-05,-0.00028,6
23530,24676,-0.00049,-0.0002,-5e-05,-8e-05,5e-05,-9e-05,-5.9999999999999995e-05,-0.00028,6
23531,24677,-0.00049,-0.0002,-5e-05,-8e-05,5e-05,-9e-05,-5.9999999999999995e-05,-0.00028,6
23532,24678,-0.00049,-0.0002,-5e-05,-8e-05,5e-05,-9e-05,-5.9999999999999995e-05,-0.00028,6
23533,24679,-0.00049,-0.0002,-5e-05,-8e-05,5e-05,-9e-05,-5.9999999999999995e-05,-0.00028,6
23534,24680,-0.00049,-0.0002,-5e-05,-8e-05,5e-05,-9e-05,-5.9999999999999995e-05,-0.00028,6
23535,24681,-0.00049,-0.0002,-5e-05,-8e-05,5e-05,-9e-05,-5.9999999999999995e-05,-0.00028,6
23536,24682,-0.00049,-0.0002,-5e-05,-8e-05,5e-05,-9e-05,-5.9999999999999995e-05,-0.00028,6
23537,24683,-0.00049,-0.0002,-5e-05,-8e-05,5e-05,-9e-05,-5.9999999999999995e-05,-0.00028,6
23538,24684,-0.00049,-0.0002,-5e-05,-8e-05,5e-05,-9e-05,-5.9999999999999995e-05,-0.00028,6
23539,24685,-0.00049,-0.0002,-5e-05,-8e-05,5e-05,-9e-05,-5.9999999999999995e-05,-0.00028,6
23540,24686,-0.00049,-0.0002,-5e-05,-8e-05,5e-05,-9e-05,-5.9999999999999995e-05,-0.00028,6
23541,24688,2e-05,-2e-05,4e-05,-2e-05,5.9999999999999995e-05,0.00011999999999999999,-0.00013000000000000002,-1e-05,6
23542,24689,2e-05,-2e-05,4e-05,-2e-05,5.9999999999999995e-05,0.00011999999999999999,-0.00013000000000000002,-1e-05,6
23543,24690,2e-05,-2e-05,4e-05,-2e-05,5.9999999999999995e-05,0.00011999999999999999,-0.00013000000000000002,-1e-05,6
23544,24691,2e-05,-2e-05,4e-05,-2e-05,5.9999999999999995e-05,0.00011999999999999999,-0.00013000000000000002,-1e-05,6
23545,24692,2e-05,-2e-05,4e-05,-2e-05,5.9999999999999995e-05,0.00011999999999999999,-0.00013000000000000002,-1e-05,6
23546,24693,2e-05,-2e-05,4e-05,-2e-05,5.9999999999999995e-05,0.00011999999999999999,-0.00013000000000000002,-1e-05,6
23547,24694,2e-05,-2e-05,4e-05,-2e-05,5.9999999999999995e-05,0.00011999999999999999,-0.00013000000000000002,-1e-05,6
23548,24695,2e-05,-2e-05,4e-05,-2e-05,5.9999999999999995e-05,0.00011999999999999999,-0.00013000000000000002,-1e-05,6
23549,24696,-0.00014,-0.00025,-0.00014,-0.00011999999999999999,-0.00016,-0.00033,-0.00036,-0.0006900000000000001,6
23550,24697,-0.00014,-0.00025,-0.00014,-0.00011999999999999999,-0.00016,-0.00033,-0.00036,-0.0006900000000000001,6
23551,24698,-0.00014,-0.00025,-0.00014,-0.00011999999999999999,-0.00016,-0.00033,-0.00036,-0.0006900000000000001,6
23552,24699,-0.00014,-0.00025,-0.00014,-0.00011999999999999999,-0.00016,-0.00033,-0.00036,-0.0006900000000000001,6
23553,24700,-0.00014,-0.00025,-0.00014,-0.00011999999999999999,-0.00016,-0.00033,-0.00036,-0.0006900000000000001,6
23554,24701,-0.00014,-0.00025,-0.00014,-0.00011999999999999999,-0.00016,-0.00033,-0.00036,-0.0006900000000000001,6
23555,24702,-0.00014,-0.00025,-0.00014,-0.00011999999999999999,-0.00016,-0.00033,-0.00036,-0.0006900000000000001,6
23556,24703,-0.00014,-0.00025,-0.00014,-0.00011999999999999999,-0.00016,-0.00033,-0.00036,-0.0006900000000000001,6
23557,24704,-0.00014,-0.00025,-0.00014,-0.00011999999999999999,-0.00016,-0.00033,-0.00036,-0.0006900000000000001,6
23558,24705,-0.00014,-0.00025,-0.00014,-0.00011999999999999999,-0.00016,-0.00033,-0.00036,-0.0006900000000000001,6
23559,24706,-0.00014,-0.00025,-0.00014,-0.00011999999999999999,-0.00016,-0.00033,-0.00036,-0.0006900000000000001,6
23560,24707,-0.00014,-0.00025,-0.00014,-0.00011999999999999999,-0.00016,-0.00033,-0.00036,-0.0006900000000000001,6
23561,24708,-0.00014,-0.00025,-0.00014,-0.00011999999999999999,-0.00016,-0.00033,-0.00036,-0.0006900000000000001,6
23562,24709,-0.00014,-0.00025,-0.00014,-0.00011999999999999999,-0.00016,-0.00033,-0.00036,-0.0006900000000000001,6
23563,24710,-0.00014,-0.00025,-0.00014,-0.00011999999999999999,-0.00016,-0.00033,-0.00036,-0.0006900000000000001,6
23564,24711,-0.00035,-5e-05,-4e-05,0.0001,0.0001,0.00021,-0.0002,-0.00029,6
23565,24712,-0.00016,-0.00013000000000000002,5.9999999999999995e-05,4e-05,-0.0001,-0.00018,-1e-05,-8e-05,6
23566,24713,-0.00016,-0.00013000000000000002,5.9999999999999995e-05,4e-05,-0.0001,-0.00018,-1e-05,-8e-05,6
23567,24714,-0.00016,-0.00013000000000000002,5.9999999999999995e-05,4e-05,-0.0001,-0.00018,-1e-05,-8e-05,6
23568,24715,-0.00016,-0.00013000000000000002,5.9999999999999995e-05,4e-05,-0.0001,-0.00018,-1e-05,-8e-05,6
23569,24716,-0.00016,-0.00013000000000000002,5.9999999999999995e-05,4e-05,-0.0001,-0.00018,-1e-05,-8e-05,6
23570,24717,-0.00016,-0.00013000000000000002,5.9999999999999995e-05,4e-05,-0.0001,-0.00018,-1e-05,-8e-05,6
23571,24718,-0.00016,-0.00013000000000000002,5.9999999999999995e-05,4e-05,-0.0001,-0.00018,-1e-05,-8e-05,6
23572,24719,-0.00016,-0.00013000000000000002,5.9999999999999995e-05,4e-05,-0.0001,-0.00018,-1e-05,-8e-05,6
23573,24720,-0.00016,-0.00013000000000000002,5.9999999999999995e-05,4e-05,-0.0001,-0.00018,-1e-05,-8e-05,6
23574,24721,-0.00016,-0.00013000000000000002,5.9999999999999995e-05,4e-05,-0.0001,-0.00018,-1e-05,-8e-05,6
23575,24722,-0.00016,-0.00013000000000000002,5.9999999999999995e-05,4e-05,-0.0001,-0.00018,-1e-05,-8e-05,6
23576,24723,-0.00016,-0.00013000000000000002,5.9999999999999995e-05,4e-05,-0.0001,-0.00018,-1e-05,-8e-05,6
23577,24724,-0.00016,-0.00013000000000000002,5.9999999999999995e-05,4e-05,-0.0001,-0.00018,-1e-05,-8e-05,6
23578,24725,-0.00016,-0.00013000000000000002,5.9999999999999995e-05,4e-05,-0.0001,-0.00018,-1e-05,-8e-05,6
23579,24726,-0.00016,-0.00013000000000000002,5.9999999999999995e-05,4e-05,-0.0001,-0.00018,-1e-05,-8e-05,6
23580,24727,-0.00016,-0.00013000000000000002,5.9999999999999995e-05,4e-05,-0.0001,-0.00018,-1e-05,-8e-05,6
23581,24728,-0.00016,-0.00013000000000000002,5.9999999999999995e-05,4e-05,-0.0001,-0.00018,-1e-05,-8e-05,6
23582,24729,-0.00016,-0.00013000000000000002,5.9999999999999995e-05,4e-05,-0.0001,-0.00018,-1e-05,-8e-05,6
23583,24730,-0.00016,-0.00013000000000000002,5.9999999999999995e-05,4e-05,-0.0001,-0.00018,-1e-05,-8e-05,6
23584,24731,-0.00016,-0.00013000000000000002,5.9999999999999995e-05,4e-05,-0.0001,-0.00018,-1e-05,-8e-05,6
23585,24732,-0.00016,-0.00013000000000000002,5.9999999999999995e-05,4e-05,-0.0001,-0.00018,-1e-05,-8e-05,6
23586,24733,-0.00011,-2e-05,-2e-05,-0.00011999999999999999,-0.00021,-0.0001,-0.00013000000000000002,0.00016,6
23587,24734,-0.00011,-2e-05,-2e-05,-0.00011999999999999999,-0.00021,-0.0001,-0.00013000000000000002,0.00016,6
23588,24735,-0.00026000000000000003,5.9999999999999995e-05,0.0,9e-05,0.00014,0.00011,5.9999999999999995e-05,-0.00018999999999999998,6
23589,24736,-0.00026000000000000003,5.9999999999999995e-05,0.0,9e-05,0.00014,0.00011,5.9999999999999995e-05,-0.00018999999999999998,6
23590,24738,-0.00026000000000000003,5.9999999999999995e-05,0.0,9e-05,0.00014,0.00011,5.9999999999999995e-05,-0.00018999999999999998,6
23591,24739,-0.00026000000000000003,5.9999999999999995e-05,0.0,9e-05,0.00014,0.00011,5.9999999999999995e-05,-0.00018999999999999998,6
23592,24740,-0.00026000000000000003,5.9999999999999995e-05,0.0,9e-05,0.00014,0.00011,5.9999999999999995e-05,-0.00018999999999999998,6
23593,24741,-0.00026000000000000003,5.9999999999999995e-05,0.0,9e-05,0.00014,0.00011,5.9999999999999995e-05,-0.00018999999999999998,6
23594,24742,-0.00026000000000000003,5.9999999999999995e-05,0.0,9e-05,0.00014,0.00011,5.9999999999999995e-05,-0.00018999999999999998,6
23595,24743,-0.00026000000000000003,5.9999999999999995e-05,0.0,9e-05,0.00014,0.00011,5.9999999999999995e-05,-0.00018999999999999998,6
23596,24744,-0.00026000000000000003,5.9999999999999995e-05,0.0,9e-05,0.00014,0.00011,5.9999999999999995e-05,-0.00018999999999999998,6
23597,24745,-0.00026000000000000003,5.9999999999999995e-05,0.0,9e-05,0.00014,0.00011,5.9999999999999995e-05,-0.00018999999999999998,6
23598,24746,-0.00026000000000000003,5.9999999999999995e-05,0.0,9e-05,0.00014,0.00011,5.9999999999999995e-05,-0.00018999999999999998,6
23599,24747,0.0001,2e-05,5.9999999999999995e-05,5.9999999999999995e-05,0.00018999999999999998,0.00011,0.00016,0.00014,6
23600,24748,0.0001,2e-05,5.9999999999999995e-05,5.9999999999999995e-05,0.00018999999999999998,0.00011,0.00016,0.00014,6
23601,24749,0.0001,2e-05,5.9999999999999995e-05,5.9999999999999995e-05,0.00018999999999999998,0.00011,0.00016,0.00014,6
23602,24750,0.0001,2e-05,5.9999999999999995e-05,5.9999999999999995e-05,0.00018999999999999998,0.00011,0.00016,0.00014,6
23603,24751,0.0001,2e-05,5.9999999999999995e-05,5.9999999999999995e-05,0.00018999999999999998,0.00011,0.00016,0.00014,6
23604,24752,0.0001,2e-05,5.9999999999999995e-05,5.9999999999999995e-05,0.00018999999999999998,0.00011,0.00016,0.00014,6
23605,24753,0.0001,2e-05,5.9999999999999995e-05,5.9999999999999995e-05,0.00018999999999999998,0.00011,0.00016,0.00014,6
23606,24754,0.0001,2e-05,5.9999999999999995e-05,5.9999999999999995e-05,0.00018999999999999998,0.00011,0.00016,0.00014,6
23607,24755,0.0001,2e-05,5.9999999999999995e-05,5.9999999999999995e-05,0.00018999999999999998,0.00011,0.00016,0.00014,6
23608,24756,0.00013000000000000002,-2e-05,-4e-05,-4e-05,-2.9999999999999997e-05,0.00023999999999999998,0.00011,-4e-05,6
23609,24757,0.00013000000000000002,-2e-05,-4e-05,-4e-05,-2.9999999999999997e-05,0.00023999999999999998,0.00011,-4e-05,6
23610,24758,0.00013000000000000002,-2e-05,-4e-05,-4e-05,-2.9999999999999997e-05,0.00023999999999999998,0.00011,-4e-05,6
23611,24759,0.00013000000000000002,-2e-05,-4e-05,-4e-05,-2.9999999999999997e-05,0.00023999999999999998,0.00011,-4e-05,6
23612,24760,0.00013000000000000002,-2e-05,-4e-05,-4e-05,-2.9999999999999997e-05,0.00023999999999999998,0.00011,-4e-05,6
23613,24761,0.00013000000000000002,-2e-05,-4e-05,-4e-05,-2.9999999999999997e-05,0.00023999999999999998,0.00011,-4e-05,6
23614,24762,0.00013000000000000002,-2e-05,-4e-05,-4e-05,-2.9999999999999997e-05,0.00023999999999999998,0.00011,-4e-05,6
23615,24763,0.00013000000000000002,-2e-05,-4e-05,-4e-05,-2.9999999999999997e-05,0.00023999999999999998,0.00011,-4e-05,6
23616,24764,0.00013000000000000002,-2e-05,-4e-05,-4e-05,-2.9999999999999997e-05,0.00023999999999999998,0.00011,-4e-05,6
23617,24765,0.00013000000000000002,-2e-05,-4e-05,-4e-05,-2.9999999999999997e-05,0.00023999999999999998,0.00011,-4e-05,6
23618,24766,0.00013000000000000002,-2e-05,-4e-05,-4e-05,-2.9999999999999997e-05,0.00023999999999999998,0.00011,-4e-05,6
23619,24767,0.00013000000000000002,-2e-05,-4e-05,-4e-05,-2.9999999999999997e-05,0.00023999999999999998,0.00011,-4e-05,6
23620,24768,0.00013000000000000002,-2e-05,-4e-05,-4e-05,-2.9999999999999997e-05,0.00023999999999999998,0.00011,-4e-05,6
23621,24769,0.00013000000000000002,-2e-05,-4e-05,-4e-05,-2.9999999999999997e-05,0.00023999999999999998,0.00011,-4e-05,6
23622,24770,-0.00015,4e-05,2e-05,-2e-05,0.0,0.00023999999999999998,-2e-05,-0.00041,6
23623,24771,-0.00015,4e-05,2e-05,-2e-05,0.0,0.00023999999999999998,-2e-05,-0.00041,6
23624,24772,-0.00015,4e-05,2e-05,-2e-05,0.0,0.00023999999999999998,-2e-05,-0.00041,6
23625,24773,-0.00015,4e-05,2e-05,-2e-05,0.0,0.00023999999999999998,-2e-05,-0.00041,6
23626,24774,-0.00015,4e-05,2e-05,-2e-05,0.0,0.00023999999999999998,-2e-05,-0.00041,6
23627,24775,-0.00015,4e-05,2e-05,-2e-05,0.0,0.00023999999999999998,-2e-05,-0.00041,6
23628,24776,-0.00015,4e-05,2e-05,-2e-05,0.0,0.00023999999999999998,-2e-05,-0.00041,6
23629,24777,-0.00015,4e-05,2e-05,-2e-05,0.0,0.00023999999999999998,-2e-05,-0.00041,6
23630,24778,-8e-05,0.0002,9e-05,0.00013000000000000002,0.00016999999999999999,0.00029,2.9999999999999997e-05,-4e-05,6
23631,24779,-8e-05,0.0002,9e-05,0.00013000000000000002,0.00016999999999999999,0.00029,2.9999999999999997e-05,-4e-05,6
23632,24780,-8e-05,0.0002,9e-05,0.00013000000000000002,0.00016999999999999999,0.00029,2.9999999999999997e-05,-4e-05,6
23633,24781,-8e-05,0.0002,9e-05,0.00013000000000000002,0.00016999999999999999,0.00029,2.9999999999999997e-05,-4e-05,6
23634,24782,-8e-05,0.0002,9e-05,0.00013000000000000002,0.00016999999999999999,0.00029,2.9999999999999997e-05,-4e-05,6
23635,24783,-8e-05,0.0002,9e-05,0.00013000000000000002,0.00016999999999999999,0.00029,2.9999999999999997e-05,-4e-05,6
23636,24784,-8e-05,0.0002,9e-05,0.00013000000000000002,0.00016999999999999999,0.00029,2.9999999999999997e-05,-4e-05,6
23637,24785,-8e-05,0.0002,9e-05,0.00013000000000000002,0.00016999999999999999,0.00029,2.9999999999999997e-05,-4e-05,6
23638,24786,-8e-05,0.0002,9e-05,0.00013000000000000002,0.00016999999999999999,0.00029,2.9999999999999997e-05,-4e-05,6
23639,24788,-8e-05,0.0002,9e-05,0.00013000000000000002,0.00016999999999999999,0.00029,2.9999999999999997e-05,-4e-05,6
23640,24789,-8e-05,0.0002,9e-05,0.00013000000000000002,0.00016999999999999999,0.00029,2.9999999999999997e-05,-4e-05,6
23641,24790,-8e-05,0.0002,9e-05,0.00013000000000000002,0.00016999999999999999,0.00029,2.9999999999999997e-05,-4e-05,6
23642,24791,-8e-05,0.0002,9e-05,0.00013000000000000002,0.00016999999999999999,0.00029,2.9999999999999997e-05,-4e-05,6
23643,24792,-8e-05,0.0002,9e-05,0.00013000000000000002,0.00016999999999999999,0.00029,2.9999999999999997e-05,-4e-05,6
23644,24793,-9e-05,5e-05,-2e-05,9e-05,0.00029,8e-05,-0.00016,-0.00013000000000000002,6
23645,24794,-9e-05,5e-05,-2e-05,9e-05,0.00029,8e-05,-0.00016,-0.00013000000000000002,6
23646,24795,0.00022999999999999998,0.0001,2e-05,1e-05,-0.0001,-5e-05,1e-05,0.00014,6
23647,24796,0.00022999999999999998,0.0001,2e-05,1e-05,-0.0001,-5e-05,1e-05,0.00014,6
23648,24797,0.00022999999999999998,0.0001,2e-05,1e-05,-0.0001,-5e-05,1e-05,0.00014,6
23649,24798,0.00022999999999999998,0.0001,2e-05,1e-05,-0.0001,-5e-05,1e-05,0.00014,6
23650,24799,0.00022999999999999998,0.0001,2e-05,1e-05,-0.0001,-5e-05,1e-05,0.00014,6
23651,24800,0.00022999999999999998,0.0001,2e-05,1e-05,-0.0001,-5e-05,1e-05,0.00014,6
23652,24801,0.00022999999999999998,0.0001,2e-05,1e-05,-0.0001,-5e-05,1e-05,0.00014,6
23653,24802,0.00022999999999999998,0.0001,2e-05,1e-05,-0.0001,-5e-05,1e-05,0.00014,6
23654,24803,0.00022999999999999998,0.0001,2e-05,1e-05,-0.0001,-5e-05,1e-05,0.00014,6
23655,24804,0.00022999999999999998,0.0001,2e-05,1e-05,-0.0001,-5e-05,1e-05,0.00014,6
23656,24805,0.00022999999999999998,0.0001,2e-05,1e-05,-0.0001,-5e-05,1e-05,0.00014,6
23657,24806,0.00022999999999999998,0.0001,2e-05,1e-05,-0.0001,-5e-05,1e-05,0.00014,6
23658,24807,7e-05,-9e-05,-1e-05,-5e-05,-0.00015,-0.00016,0.00011999999999999999,5e-05,6
23659,24808,7e-05,-9e-05,-1e-05,-5e-05,-0.00015,-0.00016,0.00011999999999999999,5e-05,6
23660,24809,7e-05,-9e-05,-1e-05,-5e-05,-0.00015,-0.00016,0.00011999999999999999,5e-05,6
23661,24810,7e-05,-9e-05,-1e-05,-5e-05,-0.00015,-0.00016,0.00011999999999999999,5e-05,6
23662,24811,7e-05,-9e-05,-1e-05,-5e-05,-0.00015,-0.00016,0.00011999999999999999,5e-05,6
23663,24812,7e-05,-9e-05,-1e-05,-5e-05,-0.00015,-0.00016,0.00011999999999999999,5e-05,6
23664,24813,7e-05,-9e-05,-1e-05,-5e-05,-0.00015,-0.00016,0.00011999999999999999,5e-05,6
23665,24814,7e-05,-9e-05,-1e-05,-5e-05,-0.00015,-0.00016,0.00011999999999999999,5e-05,6
23666,24815,7e-05,-9e-05,-1e-05,-5e-05,-0.00015,-0.00016,0.00011999999999999999,5e-05,6
23667,24816,0.0,-5.9999999999999995e-05,-5e-05,-4e-05,-5e-05,-2e-05,-2e-05,-0.00061,6
23668,24817,0.0,-5.9999999999999995e-05,-5e-05,-4e-05,-5e-05,-2e-05,-2e-05,-0.00061,6
23669,24818,0.0,-5.9999999999999995e-05,-5e-05,-4e-05,-5e-05,-2e-05,-2e-05,-0.00061,6
23670,24819,0.0,-5.9999999999999995e-05,-5e-05,-4e-05,-5e-05,-2e-05,-2e-05,-0.00061,6
23671,24820,0.0,-5.9999999999999995e-05,-5e-05,-4e-05,-5e-05,-2e-05,-2e-05,-0.00061,6
23672,24821,0.0,-5.9999999999999995e-05,-5e-05,-4e-05,-5e-05,-2e-05,-2e-05,-0.00061,6
23673,24822,0.0,-5.9999999999999995e-05,-5e-05,-4e-05,-5e-05,-2e-05,-2e-05,-0.00061,6
23674,24823,0.0,-5.9999999999999995e-05,-5e-05,-4e-05,-5e-05,-2e-05,-2e-05,-0.00061,6
23675,24824,0.0,-5.9999999999999995e-05,-5e-05,-4e-05,-5e-05,-2e-05,-2e-05,-0.00061,6
23676,24825,0.0,-5.9999999999999995e-05,-5e-05,-4e-05,-5e-05,-2e-05,-2e-05,-0.00061,6
23677,24826,0.0,-5.9999999999999995e-05,-5e-05,-4e-05,-5e-05,-2e-05,-2e-05,-0.00061,6
23678,24827,0.0,-5.9999999999999995e-05,-5e-05,-4e-05,-5e-05,-2e-05,-2e-05,-0.00061,6
23679,24828,0.0,-5.9999999999999995e-05,-5e-05,-4e-05,-5e-05,-2e-05,-2e-05,-0.00061,6
23680,24829,0.0,-5.9999999999999995e-05,-5e-05,-4e-05,-5e-05,-2e-05,-2e-05,-0.00061,6
23681,24830,0.0,-5.9999999999999995e-05,-5e-05,-4e-05,-5e-05,-2e-05,-2e-05,-0.00061,6
23682,24831,5.9999999999999995e-05,-1e-05,-1e-05,-7e-05,-0.00011,-0.00027,-0.00011,0.00016999999999999999,6
23683,24832,-0.00016,2.9999999999999997e-05,0.00013000000000000002,0.00022,0.00035,0.00022999999999999998,2e-05,-7e-05,6
23684,24833,-0.00016,2.9999999999999997e-05,0.00013000000000000002,0.00022,0.00035,0.00022999999999999998,2e-05,-7e-05,6
23685,24834,-0.00016,2.9999999999999997e-05,0.00013000000000000002,0.00022,0.00035,0.00022999999999999998,2e-05,-7e-05,6
23686,24835,-0.00016,2.9999999999999997e-05,0.00013000000000000002,0.00022,0.00035,0.00022999999999999998,2e-05,-7e-05,6
23687,24836,-0.00016,2.9999999999999997e-05,0.00013000000000000002,0.00022,0.00035,0.00022999999999999998,2e-05,-7e-05,6
23688,24838,-0.00016,2.9999999999999997e-05,0.00013000000000000002,0.00022,0.00035,0.00022999999999999998,2e-05,-7e-05,6
23689,24839,-0.00016,2.9999999999999997e-05,0.00013000000000000002,0.00022,0.00035,0.00022999999999999998,2e-05,-7e-05,6
23690,24840,-0.00016,2.9999999999999997e-05,0.00013000000000000002,0.00022,0.00035,0.00022999999999999998,2e-05,-7e-05,6
23691,24841,-0.00016,2.9999999999999997e-05,0.00013000000000000002,0.00022,0.00035,0.00022999999999999998,2e-05,-7e-05,6
23692,24842,-0.00016,2.9999999999999997e-05,0.00013000000000000002,0.00022,0.00035,0.00022999999999999998,2e-05,-7e-05,6
23693,24843,-0.00016,2.9999999999999997e-05,0.00013000000000000002,0.00022,0.00035,0.00022999999999999998,2e-05,-7e-05,6
23694,24844,-0.00016,2.9999999999999997e-05,0.00013000000000000002,0.00022,0.00035,0.00022999999999999998,2e-05,-7e-05,6
23695,24845,-0.00016,2.9999999999999997e-05,0.00013000000000000002,0.00022,0.00035,0.00022999999999999998,2e-05,-7e-05,6
23696,24846,-0.00016,2.9999999999999997e-05,0.00013000000000000002,0.00022,0.00035,0.00022999999999999998,2e-05,-7e-05,6
23697,24847,-0.00016,2.9999999999999997e-05,0.00013000000000000002,0.00022,0.00035,0.00022999999999999998,2e-05,-7e-05,6
23698,24848,-0.00016,2.9999999999999997e-05,0.00013000000000000002,0.00022,0.00035,0.00022999999999999998,2e-05,-7e-05,6
23699,24849,-0.00016,2.9999999999999997e-05,0.00013000000000000002,0.00022,0.00035,0.00022999999999999998,2e-05,-7e-05,6
23700,24850,-0.00016,2.9999999999999997e-05,0.00013000000000000002,0.00022,0.00035,0.00022999999999999998,2e-05,-7e-05,6
23701,24851,-0.00016,2.9999999999999997e-05,0.00013000000000000002,0.00022,0.00035,0.00022999999999999998,2e-05,-7e-05,6
23702,24852,-0.00016,2.9999999999999997e-05,0.00013000000000000002,0.00022,0.00035,0.00022999999999999998,2e-05,-7e-05,6
23703,24853,-0.0007,-0.00016999999999999999,5e-05,5.9999999999999995e-05,-5.9999999999999995e-05,-5.9999999999999995e-05,0.00014,-8e-05,6
23704,24854,0.00045,0.00011,2e-05,-5.9999999999999995e-05,-0.00022,-0.0002,-0.00021,-0.0001,6
23705,24855,0.00029,-0.00015,-0.00011,-0.00011,-7e-05,-0.0002,0.00018999999999999998,0.0004,6
23706,24856,0.00029,-0.00015,-0.00011,-0.00011,-7e-05,-0.0002,0.00018999999999999998,0.0004,6
23707,24857,0.00029,-0.00015,-0.00011,-0.00011,-7e-05,-0.0002,0.00018999999999999998,0.0004,6
23708,24858,0.00029,-0.00015,-0.00011,-0.00011,-7e-05,-0.0002,0.00018999999999999998,0.0004,6
23709,24859,0.00029,-0.00015,-0.00011,-0.00011,-7e-05,-0.0002,0.00018999999999999998,0.0004,6
23710,24860,0.00029,-0.00015,-0.00011,-0.00011,-7e-05,-0.0002,0.00018999999999999998,0.0004,6
23711,24861,0.00029,-0.00015,-0.00011,-0.00011,-7e-05,-0.0002,0.00018999999999999998,0.0004,6
23712,24862,0.00029,-0.00015,-0.00011,-0.00011,-7e-05,-0.0002,0.00018999999999999998,0.0004,6
23713,24863,0.00029,-0.00015,-0.00011,-0.00011,-7e-05,-0.0002,0.00018999999999999998,0.0004,6
23714,24864,0.00029,-0.00015,-0.00011,-0.00011,-7e-05,-0.0002,0.00018999999999999998,0.0004,6
23715,24865,0.00029,-0.00015,-0.00011,-0.00011,-7e-05,-0.0002,0.00018999999999999998,0.0004,6
23716,24866,0.00029,-0.00015,-0.00011,-0.00011,-7e-05,-0.0002,0.00018999999999999998,0.0004,6
23717,24867,0.00029,-0.00015,-0.00011,-0.00011,-7e-05,-0.0002,0.00018999999999999998,0.0004,6
23718,24868,0.00029,-0.00015,-0.00011,-0.00011,-7e-05,-0.0002,0.00018999999999999998,0.0004,6
23719,24869,0.00029,-0.00015,-0.00011,-0.00011,-7e-05,-0.0002,0.00018999999999999998,0.0004,6
23720,24870,0.00029,-0.00015,-0.00011,-0.00011,-7e-05,-0.0002,0.00018999999999999998,0.0004,6
23721,24872,0.00029,-0.00015,-0.00011,-0.00011,-7e-05,-0.0002,0.00018999999999999998,0.0004,6
23722,24873,0.00029,-0.00015,-0.00011,-0.00011,-7e-05,-0.0002,0.00018999999999999998,0.0004,6
23723,24874,0.00029,-0.00015,-0.00011,-0.00011,-7e-05,-0.0002,0.00018999999999999998,0.0004,6
23724,24875,0.00063,0.00015,2e-05,-4e-05,-4e-05,5e-05,5e-05,0.00029,6
23725,24876,0.00063,0.00015,2e-05,-4e-05,-4e-05,5e-05,5e-05,0.00029,6
23726,24878,0.00063,0.00015,2e-05,-4e-05,-4e-05,5e-05,5e-05,0.00029,6
23727,24879,5.9999999999999995e-05,5e-05,0.0,-2.9999999999999997e-05,-0.00016999999999999999,-0.00033999999999999997,-0.00022999999999999998,-0.00026000000000000003,6
23728,24880,5.9999999999999995e-05,5e-05,0.0,-2.9999999999999997e-05,-0.00016999999999999999,-0.00033999999999999997,-0.00022999999999999998,-0.00026000000000000003,6
23729,24881,5.9999999999999995e-05,5e-05,0.0,-2.9999999999999997e-05,-0.00016999999999999999,-0.00033999999999999997,-0.00022999999999999998,-0.00026000000000000003,6
23730,24882,5.9999999999999995e-05,5e-05,0.0,-2.9999999999999997e-05,-0.00016999999999999999,-0.00033999999999999997,-0.00022999999999999998,-0.00026000000000000003,6
23731,24883,5.9999999999999995e-05,5e-05,0.0,-2.9999999999999997e-05,-0.00016999999999999999,-0.00033999999999999997,-0.00022999999999999998,-0.00026000000000000003,6
23732,24884,5.9999999999999995e-05,5e-05,0.0,-2.9999999999999997e-05,-0.00016999999999999999,-0.00033999999999999997,-0.00022999999999999998,-0.00026000000000000003,6
23733,24885,5.9999999999999995e-05,5e-05,0.0,-2.9999999999999997e-05,-0.00016999999999999999,-0.00033999999999999997,-0.00022999999999999998,-0.00026000000000000003,6
23734,24886,5.9999999999999995e-05,5e-05,0.0,-2.9999999999999997e-05,-0.00016999999999999999,-0.00033999999999999997,-0.00022999999999999998,-0.00026000000000000003,6
23735,24888,5.9999999999999995e-05,5e-05,0.0,-2.9999999999999997e-05,-0.00016999999999999999,-0.00033999999999999997,-0.00022999999999999998,-0.00026000000000000003,6
23736,24889,5.9999999999999995e-05,5e-05,0.0,-2.9999999999999997e-05,-0.00016999999999999999,-0.00033999999999999997,-0.00022999999999999998,-0.00026000000000000003,6
23737,24890,5.9999999999999995e-05,5e-05,0.0,-2.9999999999999997e-05,-0.00016999999999999999,-0.00033999999999999997,-0.00022999999999999998,-0.00026000000000000003,6
23738,24891,-0.00013000000000000002,-1e-05,-2e-05,-2.9999999999999997e-05,-2e-05,1e-05,-5e-05,-0.00011999999999999999,6
23739,24892,0.00013000000000000002,5.9999999999999995e-05,-4e-05,-5.9999999999999995e-05,1e-05,0.0,-0.00047000000000000004,5.9999999999999995e-05,6
23740,24893,0.00013000000000000002,5.9999999999999995e-05,-4e-05,-5.9999999999999995e-05,1e-05,0.0,-0.00047000000000000004,5.9999999999999995e-05,6
23741,24894,0.00013000000000000002,5.9999999999999995e-05,-4e-05,-5.9999999999999995e-05,1e-05,0.0,-0.00047000000000000004,5.9999999999999995e-05,6
23742,24895,0.00013000000000000002,5.9999999999999995e-05,-4e-05,-5.9999999999999995e-05,1e-05,0.0,-0.00047000000000000004,5.9999999999999995e-05,6
23743,24896,0.00013000000000000002,5.9999999999999995e-05,-4e-05,-5.9999999999999995e-05,1e-05,0.0,-0.00047000000000000004,5.9999999999999995e-05,6
23744,24897,0.00013000000000000002,5.9999999999999995e-05,-4e-05,-5.9999999999999995e-05,1e-05,0.0,-0.00047000000000000004,5.9999999999999995e-05,6
23745,24898,0.00013000000000000002,5.9999999999999995e-05,-4e-05,-5.9999999999999995e-05,1e-05,0.0,-0.00047000000000000004,5.9999999999999995e-05,6
23746,24899,0.00013000000000000002,5.9999999999999995e-05,-4e-05,-5.9999999999999995e-05,1e-05,0.0,-0.00047000000000000004,5.9999999999999995e-05,6
23747,24900,0.00013000000000000002,5.9999999999999995e-05,-4e-05,-5.9999999999999995e-05,1e-05,0.0,-0.00047000000000000004,5.9999999999999995e-05,6
23748,24901,0.00013000000000000002,5.9999999999999995e-05,-4e-05,-5.9999999999999995e-05,1e-05,0.0,-0.00047000000000000004,5.9999999999999995e-05,6
23749,24902,0.00013000000000000002,5.9999999999999995e-05,-4e-05,-5.9999999999999995e-05,1e-05,0.0,-0.00047000000000000004,5.9999999999999995e-05,6
23750,24903,0.00013000000000000002,5.9999999999999995e-05,-4e-05,-5.9999999999999995e-05,1e-05,0.0,-0.00047000000000000004,5.9999999999999995e-05,6
23751,24904,0.00013000000000000002,5.9999999999999995e-05,-4e-05,-5.9999999999999995e-05,1e-05,0.0,-0.00047000000000000004,5.9999999999999995e-05,6
23752,24905,0.00013000000000000002,5.9999999999999995e-05,-4e-05,-5.9999999999999995e-05,1e-05,0.0,-0.00047000000000000004,5.9999999999999995e-05,6
23753,24906,0.00013000000000000002,5.9999999999999995e-05,-4e-05,-5.9999999999999995e-05,1e-05,0.0,-0.00047000000000000004,5.9999999999999995e-05,6
23754,24907,0.00013000000000000002,5.9999999999999995e-05,-4e-05,-5.9999999999999995e-05,1e-05,0.0,-0.00047000000000000004,5.9999999999999995e-05,6
23755,24908,0.00013000000000000002,5.9999999999999995e-05,-4e-05,-5.9999999999999995e-05,1e-05,0.0,-0.00047000000000000004,5.9999999999999995e-05,6
23756,24909,0.00013000000000000002,5.9999999999999995e-05,-4e-05,-5.9999999999999995e-05,1e-05,0.0,-0.00047000000000000004,5.9999999999999995e-05,6
23757,24910,0.00013000000000000002,5.9999999999999995e-05,-4e-05,-5.9999999999999995e-05,1e-05,0.0,-0.00047000000000000004,5.9999999999999995e-05,6
23758,24911,0.00013000000000000002,5.9999999999999995e-05,-4e-05,-5.9999999999999995e-05,1e-05,0.0,-0.00047000000000000004,5.9999999999999995e-05,6
23759,24912,0.00013000000000000002,5.9999999999999995e-05,-4e-05,-5.9999999999999995e-05,1e-05,0.0,-0.00047000000000000004,5.9999999999999995e-05,6
23760,24913,-2e-05,1e-05,1e-05,-4e-05,-0.0001,-1e-05,7e-05,-0.00018,6
23761,24914,-2e-05,1e-05,1e-05,-4e-05,-0.0001,-1e-05,7e-05,-0.00018,6
23762,24915,0.00014,-8e-05,-4e-05,2.9999999999999997e-05,-0.00015,-0.00018,0.00018,0.00039,6
23763,24916,0.00014,-8e-05,-4e-05,2.9999999999999997e-05,-0.00015,-0.00018,0.00018,0.00039,6
23764,24917,0.00014,-8e-05,-4e-05,2.9999999999999997e-05,-0.00015,-0.00018,0.00018,0.00039,6
23765,24918,0.00014,-8e-05,-4e-05,2.9999999999999997e-05,-0.00015,-0.00018,0.00018,0.00039,6
23766,24919,0.00014,-8e-05,-4e-05,2.9999999999999997e-05,-0.00015,-0.00018,0.00018,0.00039,6
23767,24920,0.00014,-8e-05,-4e-05,2.9999999999999997e-05,-0.00015,-0.00018,0.00018,0.00039,6
23768,24921,0.00014,-8e-05,-4e-05,2.9999999999999997e-05,-0.00015,-0.00018,0.00018,0.00039,6
23769,24922,0.00014,-8e-05,-4e-05,2.9999999999999997e-05,-0.00015,-0.00018,0.00018,0.00039,6
23770,24923,0.00014,-8e-05,-4e-05,2.9999999999999997e-05,-0.00015,-0.00018,0.00018,0.00039,6
23771,24924,0.00014,-8e-05,-4e-05,2.9999999999999997e-05,-0.00015,-0.00018,0.00018,0.00039,6
23772,24925,0.00014,-8e-05,-4e-05,2.9999999999999997e-05,-0.00015,-0.00018,0.00018,0.00039,6
23773,24926,0.00014,-8e-05,-4e-05,2.9999999999999997e-05,-0.00015,-0.00018,0.00018,0.00039,6
23774,24927,0.00014,-8e-05,-4e-05,2.9999999999999997e-05,-0.00015,-0.00018,0.00018,0.00039,6
23775,24928,0.00014,-8e-05,-4e-05,2.9999999999999997e-05,-0.00015,-0.00018,0.00018,0.00039,6
23776,24929,0.00014,-8e-05,-4e-05,2.9999999999999997e-05,-0.00015,-0.00018,0.00018,0.00039,6
23777,24930,0.00014,-8e-05,-4e-05,2.9999999999999997e-05,-0.00015,-0.00018,0.00018,0.00039,6
23778,24931,0.00014,-8e-05,-4e-05,2.9999999999999997e-05,-0.00015,-0.00018,0.00018,0.00039,6
23779,24932,0.00014,-8e-05,-4e-05,2.9999999999999997e-05,-0.00015,-0.00018,0.00018,0.00039,6
23780,24933,0.00014,-8e-05,-4e-05,2.9999999999999997e-05,-0.00015,-0.00018,0.00018,0.00039,6
23781,24934,0.00014,-8e-05,-4e-05,2.9999999999999997e-05,-0.00015,-0.00018,0.00018,0.00039,6
23782,24935,-5e-05,0.00029,-2e-05,-8e-05,-7e-05,-5e-05,-0.0001,-0.00026000000000000003,6
23783,24936,-0.0004,-4e-05,4e-05,2.9999999999999997e-05,9e-05,0.00037999999999999997,0.00018,-0.00045,6
23784,24938,-0.00013000000000000002,7e-05,-1e-05,4e-05,0.00029,5e-05,0.00013000000000000002,-8e-05,6
23785,24939,-0.00013000000000000002,7e-05,-1e-05,4e-05,0.00029,5e-05,0.00013000000000000002,-8e-05,6
23786,24940,-0.00013000000000000002,7e-05,-1e-05,4e-05,0.00029,5e-05,0.00013000000000000002,-8e-05,6
23787,24941,-0.00013000000000000002,7e-05,-1e-05,4e-05,0.00029,5e-05,0.00013000000000000002,-8e-05,6
23788,24942,-0.00013000000000000002,7e-05,-1e-05,4e-05,0.00029,5e-05,0.00013000000000000002,-8e-05,6
23789,24943,-0.00013000000000000002,7e-05,-1e-05,4e-05,0.00029,5e-05,0.00013000000000000002,-8e-05,6
23790,24944,-0.00013000000000000002,7e-05,-1e-05,4e-05,0.00029,5e-05,0.00013000000000000002,-8e-05,6
23791,24945,-0.00013000000000000002,7e-05,-1e-05,4e-05,0.00029,5e-05,0.00013000000000000002,-8e-05,6
23792,24946,-0.00013000000000000002,7e-05,-1e-05,4e-05,0.00029,5e-05,0.00013000000000000002,-8e-05,6
23793,24947,-0.00013000000000000002,7e-05,-1e-05,4e-05,0.00029,5e-05,0.00013000000000000002,-8e-05,6
23794,24948,-0.00013000000000000002,7e-05,-1e-05,4e-05,0.00029,5e-05,0.00013000000000000002,-8e-05,6
23795,24949,-0.00013000000000000002,7e-05,-1e-05,4e-05,0.00029,5e-05,0.00013000000000000002,-8e-05,6
23796,24950,1e-05,-5.9999999999999995e-05,-8e-05,-5e-05,7e-05,0.0,9e-05,0.00011999999999999999,6
23797,24951,1e-05,-5.9999999999999995e-05,-8e-05,-5e-05,7e-05,0.0,9e-05,0.00011999999999999999,6
23798,24952,1e-05,-5.9999999999999995e-05,-8e-05,-5e-05,7e-05,0.0,9e-05,0.00011999999999999999,6
23799,24953,1e-05,-5.9999999999999995e-05,-8e-05,-5e-05,7e-05,0.0,9e-05,0.00011999999999999999,6
23800,24954,1e-05,-5.9999999999999995e-05,-8e-05,-5e-05,7e-05,0.0,9e-05,0.00011999999999999999,6
23801,24955,1e-05,-5.9999999999999995e-05,-8e-05,-5e-05,7e-05,0.0,9e-05,0.00011999999999999999,6
23802,24956,1e-05,-5.9999999999999995e-05,-8e-05,-5e-05,7e-05,0.0,9e-05,0.00011999999999999999,6
23803,24957,0.00018999999999999998,0.0,2.9999999999999997e-05,-2e-05,-0.00018999999999999998,-0.00011999999999999999,0.00011999999999999999,0.00021,6
23804,24958,0.00018999999999999998,0.0,2.9999999999999997e-05,-2e-05,-0.00018999999999999998,-0.00011999999999999999,0.00011999999999999999,0.00021,6
23805,24959,0.00018999999999999998,0.0,2.9999999999999997e-05,-2e-05,-0.00018999999999999998,-0.00011999999999999999,0.00011999999999999999,0.00021,6
23806,24960,0.00018999999999999998,0.0,2.9999999999999997e-05,-2e-05,-0.00018999999999999998,-0.00011999999999999999,0.00011999999999999999,0.00021,6
23807,24961,0.00018999999999999998,0.0,2.9999999999999997e-05,-2e-05,-0.00018999999999999998,-0.00011999999999999999,0.00011999999999999999,0.00021,6
23808,24962,0.00018999999999999998,0.0,2.9999999999999997e-05,-2e-05,-0.00018999999999999998,-0.00011999999999999999,0.00011999999999999999,0.00021,6
23809,24963,0.00018999999999999998,0.0,2.9999999999999997e-05,-2e-05,-0.00018999999999999998,-0.00011999999999999999,0.00011999999999999999,0.00021,6
23810,24965,0.00018999999999999998,0.0,2.9999999999999997e-05,-2e-05,-0.00018999999999999998,-0.00011999999999999999,0.00011999999999999999,0.00021,6
23811,24966,0.00018999999999999998,0.0,2.9999999999999997e-05,-2e-05,-0.00018999999999999998,-0.00011999999999999999,0.00011999999999999999,0.00021,6
23812,24967,0.00018999999999999998,0.0,2.9999999999999997e-05,-2e-05,-0.00018999999999999998,-0.00011999999999999999,0.00011999999999999999,0.00021,6
23813,24968,0.00018999999999999998,0.0,2.9999999999999997e-05,-2e-05,-0.00018999999999999998,-0.00011999999999999999,0.00011999999999999999,0.00021,6
23814,24969,0.00018999999999999998,0.0,2.9999999999999997e-05,-2e-05,-0.00018999999999999998,-0.00011999999999999999,0.00011999999999999999,0.00021,6
23815,24970,0.00018999999999999998,0.0,2.9999999999999997e-05,-2e-05,-0.00018999999999999998,-0.00011999999999999999,0.00011999999999999999,0.00021,6
23816,24971,0.00018999999999999998,0.0,2.9999999999999997e-05,-2e-05,-0.00018999999999999998,-0.00011999999999999999,0.00011999999999999999,0.00021,6
23817,24972,0.00018999999999999998,0.0,2.9999999999999997e-05,-2e-05,-0.00018999999999999998,-0.00011999999999999999,0.00011999999999999999,0.00021,6
23818,24973,0.00022,4e-05,0.0,-5.9999999999999995e-05,-0.00011999999999999999,9e-05,5e-05,-2.9999999999999997e-05,6
23819,24974,-0.00018,-1e-05,-2.9999999999999997e-05,-2e-05,5e-05,0.00013000000000000002,0.00018,0.00022,6
23820,24975,0.00047999999999999996,-0.00021,-4e-05,1e-05,1e-05,-2e-05,-0.00011999999999999999,-2e-05,6
23821,24976,0.00047999999999999996,-0.00021,-4e-05,1e-05,1e-05,-2e-05,-0.00011999999999999999,-2e-05,6
23822,24977,0.00047999999999999996,-0.00021,-4e-05,1e-05,1e-05,-2e-05,-0.00011999999999999999,-2e-05,6
23823,24978,0.00047999999999999996,-0.00021,-4e-05,1e-05,1e-05,-2e-05,-0.00011999999999999999,-2e-05,6
23824,24979,0.00047999999999999996,-0.00021,-4e-05,1e-05,1e-05,-2e-05,-0.00011999999999999999,-2e-05,6
23825,24980,0.00047999999999999996,-0.00021,-4e-05,1e-05,1e-05,-2e-05,-0.00011999999999999999,-2e-05,6
23826,24981,0.00047999999999999996,-0.00021,-4e-05,1e-05,1e-05,-2e-05,-0.00011999999999999999,-2e-05,6
23827,24982,0.00047999999999999996,-0.00021,-4e-05,1e-05,1e-05,-2e-05,-0.00011999999999999999,-2e-05,6
23828,24983,0.00047999999999999996,-0.00021,-4e-05,1e-05,1e-05,-2e-05,-0.00011999999999999999,-2e-05,6
23829,24984,0.00047999999999999996,-0.00021,-4e-05,1e-05,1e-05,-2e-05,-0.00011999999999999999,-2e-05,6
23830,24985,0.00047999999999999996,-0.00021,-4e-05,1e-05,1e-05,-2e-05,-0.00011999999999999999,-2e-05,6
23831,24986,0.00047999999999999996,-0.00021,-4e-05,1e-05,1e-05,-2e-05,-0.00011999999999999999,-2e-05,6
23832,24988,0.00047999999999999996,-0.00021,-4e-05,1e-05,1e-05,-2e-05,-0.00011999999999999999,-2e-05,6
23833,24989,0.00047999999999999996,-0.00021,-4e-05,1e-05,1e-05,-2e-05,-0.00011999999999999999,-2e-05,6
23834,24990,0.00047999999999999996,-0.00021,-4e-05,1e-05,1e-05,-2e-05,-0.00011999999999999999,-2e-05,6
23835,24991,0.00047999999999999996,-0.00021,-4e-05,1e-05,1e-05,-2e-05,-0.00011999999999999999,-2e-05,6
23836,24992,0.00047999999999999996,-0.00021,-4e-05,1e-05,1e-05,-2e-05,-0.00011999999999999999,-2e-05,6
23837,24993,0.00047999999999999996,-0.00021,-4e-05,1e-05,1e-05,-2e-05,-0.00011999999999999999,-2e-05,6
23838,24994,0.00047999999999999996,-0.00021,-4e-05,1e-05,1e-05,-2e-05,-0.00011999999999999999,-2e-05,6
23839,24995,0.00047999999999999996,-0.00021,-4e-05,1e-05,1e-05,-2e-05,-0.00011999999999999999,-2e-05,6
23840,24996,-0.00018,-1e-05,-7e-05,-5.9999999999999995e-05,8e-05,-0.00016,0.00016,0.00033999999999999997,6
23841,24997,-0.00045,-0.0002,-4e-05,-0.0001,-0.0002,-2e-05,-9e-05,-0.00062,6
23842,24998,-0.00045,-0.0002,-4e-05,-0.0001,-0.0002,-2e-05,-9e-05,-0.00062,6
23843,24999,-0.00045,-0.0002,-4e-05,-0.0001,-0.0002,-2e-05,-9e-05,-0.00062,6
23844,25000,-0.00045,-0.0002,-4e-05,-0.0001,-0.0002,-2e-05,-9e-05,-0.00062,6
23845,25001,-0.00045,-0.0002,-4e-05,-0.0001,-0.0002,-2e-05,-9e-05,-0.00062,6
23846,25002,-0.00045,-0.0002,-4e-05,-0.0001,-0.0002,-2e-05,-9e-05,-0.00062,6
23847,25003,-0.00045,-0.0002,-4e-05,-0.0001,-0.0002,-2e-05,-9e-05,-0.00062,6
23848,25004,-0.00045,-0.0002,-4e-05,-0.0001,-0.0002,-2e-05,-9e-05,-0.00062,6
23849,25005,-0.00045,-0.0002,-4e-05,-0.0001,-0.0002,-2e-05,-9e-05,-0.00062,6
23850,25006,-0.00045,-0.0002,-4e-05,-0.0001,-0.0002,-2e-05,-9e-05,-0.00062,6
23851,25007,-0.00045,-0.0002,-4e-05,-0.0001,-0.0002,-2e-05,-9e-05,-0.00062,6
23852,25008,-0.00045,-0.0002,-4e-05,-0.0001,-0.0002,-2e-05,-9e-05,-0.00062,6
23853,25009,-0.00045,-0.0002,-4e-05,-0.0001,-0.0002,-2e-05,-9e-05,-0.00062,6
23854,25010,-0.00045,-0.0002,-4e-05,-0.0001,-0.0002,-2e-05,-9e-05,-0.00062,6
23855,25011,0.00041,8e-05,1e-05,-2.9999999999999997e-05,-0.00025,-0.00025,-0.0001,0.00016999999999999999,6
23856,25012,0.00041,8e-05,1e-05,-2.9999999999999997e-05,-0.00025,-0.00025,-0.0001,0.00016999999999999999,6
23857,25013,0.0,9e-05,0.0,-2.9999999999999997e-05,4e-05,-0.0001,-9e-05,2e-05,6
23858,25014,0.0,9e-05,0.0,-2.9999999999999997e-05,4e-05,-0.0001,-9e-05,2e-05,6
23859,25015,0.0,9e-05,0.0,-2.9999999999999997e-05,4e-05,-0.0001,-9e-05,2e-05,6
23860,25016,0.0,9e-05,0.0,-2.9999999999999997e-05,4e-05,-0.0001,-9e-05,2e-05,6
23861,25017,0.0,9e-05,0.0,-2.9999999999999997e-05,4e-05,-0.0001,-9e-05,2e-05,6
23862,25018,0.0,9e-05,0.0,-2.9999999999999997e-05,4e-05,-0.0001,-9e-05,2e-05,6
23863,25019,0.0,9e-05,0.0,-2.9999999999999997e-05,4e-05,-0.0001,-9e-05,2e-05,6
23864,25020,0.0,9e-05,0.0,-2.9999999999999997e-05,4e-05,-0.0001,-9e-05,2e-05,6
23865,25021,0.0,9e-05,0.0,-2.9999999999999997e-05,4e-05,-0.0001,-9e-05,2e-05,6
23866,25022,0.0,9e-05,0.0,-2.9999999999999997e-05,4e-05,-0.0001,-9e-05,2e-05,6
23867,25023,0.0,9e-05,0.0,-2.9999999999999997e-05,4e-05,-0.0001,-9e-05,2e-05,6
23868,25024,0.0,9e-05,0.0,-2.9999999999999997e-05,4e-05,-0.0001,-9e-05,2e-05,6
23869,25025,0.0,9e-05,0.0,-2.9999999999999997e-05,4e-05,-0.0001,-9e-05,2e-05,6
23870,25026,0.0,9e-05,0.0,-2.9999999999999997e-05,4e-05,-0.0001,-9e-05,2e-05,6
23871,25027,0.0,9e-05,0.0,-2.9999999999999997e-05,4e-05,-0.0001,-9e-05,2e-05,6
23872,25028,0.0,9e-05,0.0,-2.9999999999999997e-05,4e-05,-0.0001,-9e-05,2e-05,6
23873,25029,0.0,9e-05,0.0,-2.9999999999999997e-05,4e-05,-0.0001,-9e-05,2e-05,6
23874,25030,0.0,9e-05,0.0,-2.9999999999999997e-05,4e-05,-0.0001,-9e-05,2e-05,6
23875,25031,0.0,9e-05,0.0,-2.9999999999999997e-05,4e-05,-0.0001,-9e-05,2e-05,6
23876,25033,-0.00033,-0.00013000000000000002,-1e-05,4e-05,0.00014,5.9999999999999995e-05,-1e-05,-7e-05,6
23877,25034,-0.00033,-0.00013000000000000002,-1e-05,4e-05,0.00014,5.9999999999999995e-05,-1e-05,-7e-05,6
23878,25035,0.00035,2.9999999999999997e-05,-5e-05,-2e-05,-0.0002,-0.00055,7e-05,0.0005,6
23879,25036,0.00035,2.9999999999999997e-05,-5e-05,-2e-05,-0.0002,-0.00055,7e-05,0.0005,6
23880,25038,0.00035,2.9999999999999997e-05,-5e-05,-2e-05,-0.0002,-0.00055,7e-05,0.0005,6
23881,25039,0.00035,2.9999999999999997e-05,-5e-05,-2e-05,-0.0002,-0.00055,7e-05,0.0005,6
23882,25040,0.00035,2.9999999999999997e-05,-5e-05,-2e-05,-0.0002,-0.00055,7e-05,0.0005,6
23883,25041,0.00035,2.9999999999999997e-05,-5e-05,-2e-05,-0.0002,-0.00055,7e-05,0.0005,6
23884,25042,0.00035,2.9999999999999997e-05,-5e-05,-2e-05,-0.0002,-0.00055,7e-05,0.0005,6
23885,25043,0.00035,2.9999999999999997e-05,-5e-05,-2e-05,-0.0002,-0.00055,7e-05,0.0005,6
23886,25044,0.00035,2.9999999999999997e-05,-5e-05,-2e-05,-0.0002,-0.00055,7e-05,0.0005,6
23887,25045,0.00035,2.9999999999999997e-05,-5e-05,-2e-05,-0.0002,-0.00055,7e-05,0.0005,6
23888,25046,0.00035,2.9999999999999997e-05,-5e-05,-2e-05,-0.0002,-0.00055,7e-05,0.0005,6
23889,25047,0.00035,2.9999999999999997e-05,-5e-05,-2e-05,-0.0002,-0.00055,7e-05,0.0005,6
23890,25048,0.00035,2.9999999999999997e-05,-5e-05,-2e-05,-0.0002,-0.00055,7e-05,0.0005,6
23891,25049,0.00035,2.9999999999999997e-05,-5e-05,-2e-05,-0.0002,-0.00055,7e-05,0.0005,6
23892,25050,0.00035,2.9999999999999997e-05,-5e-05,-2e-05,-0.0002,-0.00055,7e-05,0.0005,6
23893,25051,0.00035,2.9999999999999997e-05,-5e-05,-2e-05,-0.0002,-0.00055,7e-05,0.0005,6
23894,25052,0.00035,2.9999999999999997e-05,-5e-05,-2e-05,-0.0002,-0.00055,7e-05,0.0005,6
23895,25053,0.00035,2.9999999999999997e-05,-5e-05,-2e-05,-0.0002,-0.00055,7e-05,0.0005,6
23896,25054,0.00035,2.9999999999999997e-05,-5e-05,-2e-05,-0.0002,-0.00055,7e-05,0.0005,6
23897,25055,0.00035,2.9999999999999997e-05,-5e-05,-2e-05,-0.0002,-0.00055,7e-05,0.0005,6
23898,25056,0.00033,2.9999999999999997e-05,4e-05,2e-05,-9e-05,-2e-05,-1e-05,0.00027,6
23899,25057,0.00033,2.9999999999999997e-05,4e-05,2e-05,-9e-05,-2e-05,-1e-05,0.00027,6
23900,25058,-0.00061,-5.9999999999999995e-05,2e-05,2e-05,0.00016,9e-05,-2e-05,-0.0003,6
23901,25059,-0.00061,-5.9999999999999995e-05,2e-05,2e-05,0.00016,9e-05,-2e-05,-0.0003,6
23902,25060,-0.00061,-5.9999999999999995e-05,2e-05,2e-05,0.00016,9e-05,-2e-05,-0.0003,6
23903,25061,-0.00061,-5.9999999999999995e-05,2e-05,2e-05,0.00016,9e-05,-2e-05,-0.0003,6
23904,25062,-0.00061,-5.9999999999999995e-05,2e-05,2e-05,0.00016,9e-05,-2e-05,-0.0003,6
23905,25063,-0.00061,-5.9999999999999995e-05,2e-05,2e-05,0.00016,9e-05,-2e-05,-0.0003,6
23906,25064,-0.00061,-5.9999999999999995e-05,2e-05,2e-05,0.00016,9e-05,-2e-05,-0.0003,6
23907,25065,-0.00061,-5.9999999999999995e-05,2e-05,2e-05,0.00016,9e-05,-2e-05,-0.0003,6
23908,25066,-0.00061,-5.9999999999999995e-05,2e-05,2e-05,0.00016,9e-05,-2e-05,-0.0003,6
23909,25067,-0.00061,-5.9999999999999995e-05,2e-05,2e-05,0.00016,9e-05,-2e-05,-0.0003,6
23910,25068,-0.00061,-5.9999999999999995e-05,2e-05,2e-05,0.00016,9e-05,-2e-05,-0.0003,6
23911,25069,-0.00061,-5.9999999999999995e-05,2e-05,2e-05,0.00016,9e-05,-2e-05,-0.0003,6
23912,25070,-0.00061,-5.9999999999999995e-05,2e-05,2e-05,0.00016,9e-05,-2e-05,-0.0003,6
23913,25071,-9e-05,5.9999999999999995e-05,0.0,2e-05,0.00014,0.00016,-1e-05,-0.00025,6
23914,25072,-9e-05,5.9999999999999995e-05,0.0,2e-05,0.00014,0.00016,-1e-05,-0.00025,6
23915,25073,-9e-05,5.9999999999999995e-05,0.0,2e-05,0.00014,0.00016,-1e-05,-0.00025,6
23916,25074,-9e-05,5.9999999999999995e-05,0.0,2e-05,0.00014,0.00016,-1e-05,-0.00025,6
23917,25075,-9e-05,5.9999999999999995e-05,0.0,2e-05,0.00014,0.00016,-1e-05,-0.00025,6
23918,25076,-9e-05,5.9999999999999995e-05,0.0,2e-05,0.00014,0.00016,-1e-05,-0.00025,6
23919,25077,-0.00018999999999999998,0.0001,-8e-05,-8e-05,-0.00016999999999999999,0.00023999999999999998,0.00022999999999999998,-9e-05,6
23920,25078,-0.00018999999999999998,0.0001,-8e-05,-8e-05,-0.00016999999999999999,0.00023999999999999998,0.00022999999999999998,-9e-05,6
23921,25079,-0.00018999999999999998,0.0001,-8e-05,-8e-05,-0.00016999999999999999,0.00023999999999999998,0.00022999999999999998,-9e-05,6
23922,25080,-0.00018999999999999998,0.0001,-8e-05,-8e-05,-0.00016999999999999999,0.00023999999999999998,0.00022999999999999998,-9e-05,6
23923,25081,-0.00018999999999999998,0.0001,-8e-05,-8e-05,-0.00016999999999999999,0.00023999999999999998,0.00022999999999999998,-9e-05,6
23924,25082,-0.00018999999999999998,0.0001,-8e-05,-8e-05,-0.00016999999999999999,0.00023999999999999998,0.00022999999999999998,-9e-05,6
23925,25083,-0.00018999999999999998,0.0001,-8e-05,-8e-05,-0.00016999999999999999,0.00023999999999999998,0.00022999999999999998,-9e-05,6
23926,25084,-0.00018999999999999998,0.0001,-8e-05,-8e-05,-0.00016999999999999999,0.00023999999999999998,0.00022999999999999998,-9e-05,6
23927,25085,-0.00018999999999999998,0.0001,-8e-05,-8e-05,-0.00016999999999999999,0.00023999999999999998,0.00022999999999999998,-9e-05,6
23928,25086,-0.00018999999999999998,0.0001,-8e-05,-8e-05,-0.00016999999999999999,0.00023999999999999998,0.00022999999999999998,-9e-05,6
23929,25088,-0.00018999999999999998,0.0001,-8e-05,-8e-05,-0.00016999999999999999,0.00023999999999999998,0.00022999999999999998,-9e-05,6
23930,25089,-0.00018999999999999998,0.0001,-8e-05,-8e-05,-0.00016999999999999999,0.00023999999999999998,0.00022999999999999998,-9e-05,6
23931,25090,-0.00018999999999999998,0.0001,-8e-05,-8e-05,-0.00016999999999999999,0.00023999999999999998,0.00022999999999999998,-9e-05,6
23932,25091,-0.00018999999999999998,0.0001,-8e-05,-8e-05,-0.00016999999999999999,0.00023999999999999998,0.00022999999999999998,-9e-05,6
23933,25092,-0.00018999999999999998,0.0001,-8e-05,-8e-05,-0.00016999999999999999,0.00023999999999999998,0.00022999999999999998,-9e-05,6
23934,25093,-0.00016999999999999999,-1e-05,-2.9999999999999997e-05,-2e-05,-7e-05,0.00013000000000000002,0.0001,5e-05,6
23935,25094,-0.00016999999999999999,-1e-05,-2.9999999999999997e-05,-2e-05,-7e-05,0.00013000000000000002,0.0001,5e-05,6
23936,25095,-1e-05,0.0,4e-05,8e-05,-2.9999999999999997e-05,-8e-05,-0.00013000000000000002,-0.00026000000000000003,6
23937,25096,-1e-05,0.0,4e-05,8e-05,-2.9999999999999997e-05,-8e-05,-0.00013000000000000002,-0.00026000000000000003,6
23938,25097,-1e-05,0.0,4e-05,8e-05,-2.9999999999999997e-05,-8e-05,-0.00013000000000000002,-0.00026000000000000003,6
23939,25098,-1e-05,0.0,4e-05,8e-05,-2.9999999999999997e-05,-8e-05,-0.00013000000000000002,-0.00026000000000000003,6
23940,25099,-1e-05,0.0,4e-05,8e-05,-2.9999999999999997e-05,-8e-05,-0.00013000000000000002,-0.00026000000000000003,6
23941,25100,-1e-05,0.0,4e-05,8e-05,-2.9999999999999997e-05,-8e-05,-0.00013000000000000002,-0.00026000000000000003,6
23942,25101,-1e-05,0.0,4e-05,8e-05,-2.9999999999999997e-05,-8e-05,-0.00013000000000000002,-0.00026000000000000003,6
23943,25102,-1e-05,0.0,4e-05,8e-05,-2.9999999999999997e-05,-8e-05,-0.00013000000000000002,-0.00026000000000000003,6
23944,25103,-1e-05,0.0,4e-05,8e-05,-2.9999999999999997e-05,-8e-05,-0.00013000000000000002,-0.00026000000000000003,6
23945,25104,-1e-05,0.0,4e-05,8e-05,-2.9999999999999997e-05,-8e-05,-0.00013000000000000002,-0.00026000000000000003,6
23946,25105,-1e-05,0.0,4e-05,8e-05,-2.9999999999999997e-05,-8e-05,-0.00013000000000000002,-0.00026000000000000003,6
23947,25106,-1e-05,0.0,4e-05,8e-05,-2.9999999999999997e-05,-8e-05,-0.00013000000000000002,-0.00026000000000000003,6
23948,25107,-1e-05,0.0,4e-05,8e-05,-2.9999999999999997e-05,-8e-05,-0.00013000000000000002,-0.00026000000000000003,6
23949,25108,-1e-05,0.0,4e-05,8e-05,-2.9999999999999997e-05,-8e-05,-0.00013000000000000002,-0.00026000000000000003,6
23950,25109,-1e-05,0.0,4e-05,8e-05,-2.9999999999999997e-05,-8e-05,-0.00013000000000000002,-0.00026000000000000003,6
23951,25110,-1e-05,0.0,4e-05,8e-05,-2.9999999999999997e-05,-8e-05,-0.00013000000000000002,-0.00026000000000000003,6
23952,25111,-1e-05,0.0,4e-05,8e-05,-2.9999999999999997e-05,-8e-05,-0.00013000000000000002,-0.00026000000000000003,6
23953,25112,-1e-05,0.0,4e-05,8e-05,-2.9999999999999997e-05,-8e-05,-0.00013000000000000002,-0.00026000000000000003,6
23954,25113,-1e-05,0.0,4e-05,8e-05,-2.9999999999999997e-05,-8e-05,-0.00013000000000000002,-0.00026000000000000003,6
23955,25114,-1e-05,0.0,4e-05,8e-05,-2.9999999999999997e-05,-8e-05,-0.00013000000000000002,-0.00026000000000000003,6
23956,25115,-1e-05,0.0,4e-05,8e-05,-2.9999999999999997e-05,-8e-05,-0.00013000000000000002,-0.00026000000000000003,6
23957,25116,-7e-05,-0.00014,1e-05,7e-05,0.00015,2e-05,-0.00015,-0.00011999999999999999,6
23958,25117,-0.00032,-4e-05,-2e-05,-1e-05,0.00011,0.0001,-2e-05,-0.00061,6
23959,25118,-0.00032,-4e-05,-2e-05,-1e-05,0.00011,0.0001,-2e-05,-0.00061,6
23960,25119,-0.00032,-4e-05,-2e-05,-1e-05,0.00011,0.0001,-2e-05,-0.00061,6
23961,25120,-0.00032,-4e-05,-2e-05,-1e-05,0.00011,0.0001,-2e-05,-0.00061,6
23962,25121,-0.00032,-4e-05,-2e-05,-1e-05,0.00011,0.0001,-2e-05,-0.00061,6
23963,25122,-0.00032,-4e-05,-2e-05,-1e-05,0.00011,0.0001,-2e-05,-0.00061,6
23964,25123,-0.00032,-4e-05,-2e-05,-1e-05,0.00011,0.0001,-2e-05,-0.00061,6
23965,25124,-0.00032,-4e-05,-2e-05,-1e-05,0.00011,0.0001,-2e-05,-0.00061,6
23966,25125,-0.00032,-4e-05,-2e-05,-1e-05,0.00011,0.0001,-2e-05,-0.00061,6
23967,25126,-0.00032,-4e-05,-2e-05,-1e-05,0.00011,0.0001,-2e-05,-0.00061,6
23968,25127,-0.00032,-4e-05,-2e-05,-1e-05,0.00011,0.0001,-2e-05,-0.00061,6
23969,25128,-0.00032,-4e-05,-2e-05,-1e-05,0.00011,0.0001,-2e-05,-0.00061,6
23970,25129,-0.00032,-4e-05,-2e-05,-1e-05,0.00011,0.0001,-2e-05,-0.00061,6
23971,25130,-4e-05,0.00011,-1e-05,-2e-05,-0.00014,-0.00015,-0.0002,-9e-05,6
23972,25131,-4e-05,0.00011,-1e-05,-2e-05,-0.00014,-0.00015,-0.0002,-9e-05,6
23973,25132,-4e-05,0.00011,-1e-05,-2e-05,-0.00014,-0.00015,-0.0002,-9e-05,6
23974,25133,-4e-05,0.00011,-1e-05,-2e-05,-0.00014,-0.00015,-0.0002,-9e-05,6
23975,25134,-4e-05,0.00011,-1e-05,-2e-05,-0.00014,-0.00015,-0.0002,-9e-05,6
23976,25135,-4e-05,0.00011,-1e-05,-2e-05,-0.00014,-0.00015,-0.0002,-9e-05,6
23977,25136,-4e-05,0.00011,-1e-05,-2e-05,-0.00014,-0.00015,-0.0002,-9e-05,6
23978,25138,2e-05,-0.00013000000000000002,-2.9999999999999997e-05,-5.9999999999999995e-05,-0.0001,0.0,0.00032,0.00013000000000000002,6
23979,25139,2e-05,-0.00013000000000000002,-2.9999999999999997e-05,-5.9999999999999995e-05,-0.0001,0.0,0.00032,0.00013000000000000002,6
23980,25140,2e-05,-0.00013000000000000002,-2.9999999999999997e-05,-5.9999999999999995e-05,-0.0001,0.0,0.00032,0.00013000000000000002,6
23981,25141,2e-05,-0.00013000000000000002,-2.9999999999999997e-05,-5.9999999999999995e-05,-0.0001,0.0,0.00032,0.00013000000000000002,6
23982,25142,2e-05,-0.00013000000000000002,-2.9999999999999997e-05,-5.9999999999999995e-05,-0.0001,0.0,0.00032,0.00013000000000000002,6
23983,25143,2e-05,-0.00013000000000000002,-2.9999999999999997e-05,-5.9999999999999995e-05,-0.0001,0.0,0.00032,0.00013000000000000002,6
23984,25144,2e-05,-0.00013000000000000002,-2.9999999999999997e-05,-5.9999999999999995e-05,-0.0001,0.0,0.00032,0.00013000000000000002,6
23985,25145,2e-05,-0.00013000000000000002,-2.9999999999999997e-05,-5.9999999999999995e-05,-0.0001,0.0,0.00032,0.00013000000000000002,6
23986,25146,2e-05,-0.00013000000000000002,-2.9999999999999997e-05,-5.9999999999999995e-05,-0.0001,0.0,0.00032,0.00013000000000000002,6
23987,25147,2e-05,-0.00013000000000000002,-2.9999999999999997e-05,-5.9999999999999995e-05,-0.0001,0.0,0.00032,0.00013000000000000002,6
23988,25148,2e-05,-0.00013000000000000002,-2.9999999999999997e-05,-5.9999999999999995e-05,-0.0001,0.0,0.00032,0.00013000000000000002,6
23989,25149,2e-05,-0.00013000000000000002,-2.9999999999999997e-05,-5.9999999999999995e-05,-0.0001,0.0,0.00032,0.00013000000000000002,6
23990,25150,2e-05,-0.00013000000000000002,-2.9999999999999997e-05,-5.9999999999999995e-05,-0.0001,0.0,0.00032,0.00013000000000000002,6
23991,25151,2e-05,-0.00013000000000000002,-2.9999999999999997e-05,-5.9999999999999995e-05,-0.0001,0.0,0.00032,0.00013000000000000002,6
23992,25152,2e-05,-0.00013000000000000002,-2.9999999999999997e-05,-5.9999999999999995e-05,-0.0001,0.0,0.00032,0.00013000000000000002,6
23993,25153,0.00039,5e-05,1e-05,-2e-05,-0.00014,-0.00013000000000000002,2.9999999999999997e-05,0.0001,6
23994,25154,0.00039,5e-05,1e-05,-2e-05,-0.00014,-0.00013000000000000002,2.9999999999999997e-05,0.0001,6
23995,25155,9e-05,0.0002,1e-05,-7e-05,-0.00011,-1e-05,4e-05,0.0005099999999999999,6
23996,25156,9e-05,0.0002,1e-05,-7e-05,-0.00011,-1e-05,4e-05,0.0005099999999999999,6
23997,25157,9e-05,0.0002,1e-05,-7e-05,-0.00011,-1e-05,4e-05,0.0005099999999999999,6
23998,25158,9e-05,0.0002,1e-05,-7e-05,-0.00011,-1e-05,4e-05,0.0005099999999999999,6
23999,25159,9e-05,0.0002,1e-05,-7e-05,-0.00011,-1e-05,4e-05,0.0005099999999999999,6
24000,25160,9e-05,0.0002,1e-05,-7e-05,-0.00011,-1e-05,4e-05,0.0005099999999999999,6
24001,25161,9e-05,0.0002,1e-05,-7e-05,-0.00011,-1e-05,4e-05,0.0005099999999999999,6
24002,25162,9e-05,0.0002,1e-05,-7e-05,-0.00011,-1e-05,4e-05,0.0005099999999999999,6
24003,25163,9e-05,0.0002,1e-05,-7e-05,-0.00011,-1e-05,4e-05,0.0005099999999999999,6
24004,25164,9e-05,0.0002,1e-05,-7e-05,-0.00011,-1e-05,4e-05,0.0005099999999999999,6
24005,25165,9e-05,0.0002,1e-05,-7e-05,-0.00011,-1e-05,4e-05,0.0005099999999999999,6
24006,25166,9e-05,0.0002,1e-05,-7e-05,-0.00011,-1e-05,4e-05,0.0005099999999999999,6
24007,25167,9e-05,0.0002,1e-05,-7e-05,-0.00011,-1e-05,4e-05,0.0005099999999999999,6
24008,25168,9e-05,0.0002,1e-05,-7e-05,-0.00011,-1e-05,4e-05,0.0005099999999999999,6
24009,25169,9e-05,0.0002,1e-05,-7e-05,-0.00011,-1e-05,4e-05,0.0005099999999999999,6
24010,25170,9e-05,0.0002,1e-05,-7e-05,-0.00011,-1e-05,4e-05,0.0005099999999999999,6
24011,25171,9e-05,0.0002,1e-05,-7e-05,-0.00011,-1e-05,4e-05,0.0005099999999999999,6
24012,25172,9e-05,0.0002,1e-05,-7e-05,-0.00011,-1e-05,4e-05,0.0005099999999999999,6
24013,25173,9e-05,0.0002,1e-05,-7e-05,-0.00011,-1e-05,4e-05,0.0005099999999999999,6
24014,25174,9e-05,0.0002,1e-05,-7e-05,-0.00011,-1e-05,4e-05,0.0005099999999999999,6
24015,25175,0.00036,-0.00015,-7e-05,-2.9999999999999997e-05,0.0,-0.00016999999999999999,0.00026000000000000003,0.00014,6
24016,25176,0.00013000000000000002,4e-05,-2.9999999999999997e-05,0.0,5e-05,1e-05,2.9999999999999997e-05,0.00055,6
24017,25177,4e-05,4e-05,-2e-05,5.9999999999999995e-05,0.00022,-7e-05,-0.00014,0.0001,6
24018,25178,4e-05,4e-05,-2e-05,5.9999999999999995e-05,0.00022,-7e-05,-0.00014,0.0001,6
24019,25179,4e-05,4e-05,-2e-05,5.9999999999999995e-05,0.00022,-7e-05,-0.00014,0.0001,6
24020,25180,4e-05,4e-05,-2e-05,5.9999999999999995e-05,0.00022,-7e-05,-0.00014,0.0001,6
24021,25181,4e-05,4e-05,-2e-05,5.9999999999999995e-05,0.00022,-7e-05,-0.00014,0.0001,6
24022,25182,4e-05,4e-05,-2e-05,5.9999999999999995e-05,0.00022,-7e-05,-0.00014,0.0001,6
24023,25183,4e-05,4e-05,-2e-05,5.9999999999999995e-05,0.00022,-7e-05,-0.00014,0.0001,6
24024,25184,4e-05,4e-05,-2e-05,5.9999999999999995e-05,0.00022,-7e-05,-0.00014,0.0001,6
24025,25185,4e-05,4e-05,-2e-05,5.9999999999999995e-05,0.00022,-7e-05,-0.00014,0.0001,6
24026,25186,4e-05,4e-05,-2e-05,5.9999999999999995e-05,0.00022,-7e-05,-0.00014,0.0001,6
24027,25188,4e-05,4e-05,-2e-05,5.9999999999999995e-05,0.00022,-7e-05,-0.00014,0.0001,6
24028,25189,4e-05,4e-05,-2e-05,5.9999999999999995e-05,0.00022,-7e-05,-0.00014,0.0001,6
24029,25190,2e-05,5e-05,-2e-05,-4e-05,-0.00011999999999999999,-5e-05,0.00011999999999999999,1e-05,6
24030,25191,2e-05,5e-05,-2e-05,-4e-05,-0.00011999999999999999,-5e-05,0.00011999999999999999,1e-05,6
24031,25192,2e-05,5e-05,-2e-05,-4e-05,-0.00011999999999999999,-5e-05,0.00011999999999999999,1e-05,6
24032,25193,2e-05,5e-05,-2e-05,-4e-05,-0.00011999999999999999,-5e-05,0.00011999999999999999,1e-05,6
24033,25194,2e-05,5e-05,-2e-05,-4e-05,-0.00011999999999999999,-5e-05,0.00011999999999999999,1e-05,6
24034,25195,2e-05,5e-05,-2e-05,-4e-05,-0.00011999999999999999,-5e-05,0.00011999999999999999,1e-05,6
24035,25196,2e-05,5e-05,-2e-05,-4e-05,-0.00011999999999999999,-5e-05,0.00011999999999999999,1e-05,6
24036,25197,0.00018999999999999998,-0.00011,-5.9999999999999995e-05,0.0,0.00018,0.00036,-7e-05,8e-05,6
24037,25198,0.00018999999999999998,-0.00011,-5.9999999999999995e-05,0.0,0.00018,0.00036,-7e-05,8e-05,6
24038,25199,0.00018999999999999998,-0.00011,-5.9999999999999995e-05,0.0,0.00018,0.00036,-7e-05,8e-05,6
24039,25200,0.00018999999999999998,-0.00011,-5.9999999999999995e-05,0.0,0.00018,0.00036,-7e-05,8e-05,6
24040,25201,0.00018999999999999998,-0.00011,-5.9999999999999995e-05,0.0,0.00018,0.00036,-7e-05,8e-05,6
24041,25202,0.00018999999999999998,-0.00011,-5.9999999999999995e-05,0.0,0.00018,0.00036,-7e-05,8e-05,6
24042,25203,0.00018999999999999998,-0.00011,-5.9999999999999995e-05,0.0,0.00018,0.00036,-7e-05,8e-05,6
24043,25204,0.00018999999999999998,-0.00011,-5.9999999999999995e-05,0.0,0.00018,0.00036,-7e-05,8e-05,6
24044,25205,0.00018999999999999998,-0.00011,-5.9999999999999995e-05,0.0,0.00018,0.00036,-7e-05,8e-05,6
24045,25206,0.00018999999999999998,-0.00011,-5.9999999999999995e-05,0.0,0.00018,0.00036,-7e-05,8e-05,6
24046,25207,0.00018999999999999998,-0.00011,-5.9999999999999995e-05,0.0,0.00018,0.00036,-7e-05,8e-05,6
24047,25208,0.00018999999999999998,-0.00011,-5.9999999999999995e-05,0.0,0.00018,0.00036,-7e-05,8e-05,6
24048,25209,0.00018999999999999998,-0.00011,-5.9999999999999995e-05,0.0,0.00018,0.00036,-7e-05,8e-05,6
24049,25210,0.00018999999999999998,-0.00011,-5.9999999999999995e-05,0.0,0.00018,0.00036,-7e-05,8e-05,6
24050,25211,0.00018999999999999998,-0.00011,-5.9999999999999995e-05,0.0,0.00018,0.00036,-7e-05,8e-05,6
24051,25212,0.00018999999999999998,-0.00011,-5.9999999999999995e-05,0.0,0.00018,0.00036,-7e-05,8e-05,6
24052,25213,-0.00037999999999999997,-0.0001,-2.9999999999999997e-05,2.9999999999999997e-05,0.0,-5.9999999999999995e-05,0.00018999999999999998,0.00033999999999999997,6
24053,25214,-0.00037999999999999997,-0.0001,-2.9999999999999997e-05,2.9999999999999997e-05,0.0,-5.9999999999999995e-05,0.00018999999999999998,0.00033999999999999997,6
24054,25215,0.00021,4e-05,2e-05,-4e-05,-9e-05,-0.00011999999999999999,-5e-05,0.00013000000000000002,6
24055,25216,0.00021,4e-05,2e-05,-4e-05,-9e-05,-0.00011999999999999999,-5e-05,0.00013000000000000002,6
24056,25217,0.00021,4e-05,2e-05,-4e-05,-9e-05,-0.00011999999999999999,-5e-05,0.00013000000000000002,6
24057,25218,0.00021,4e-05,2e-05,-4e-05,-9e-05,-0.00011999999999999999,-5e-05,0.00013000000000000002,6
24058,25219,0.00021,4e-05,2e-05,-4e-05,-9e-05,-0.00011999999999999999,-5e-05,0.00013000000000000002,6
24059,25220,0.00021,4e-05,2e-05,-4e-05,-9e-05,-0.00011999999999999999,-5e-05,0.00013000000000000002,6
24060,25221,0.00021,4e-05,2e-05,-4e-05,-9e-05,-0.00011999999999999999,-5e-05,0.00013000000000000002,6
24061,25222,0.00021,4e-05,2e-05,-4e-05,-9e-05,-0.00011999999999999999,-5e-05,0.00013000000000000002,6
24062,25223,0.00021,4e-05,2e-05,-4e-05,-9e-05,-0.00011999999999999999,-5e-05,0.00013000000000000002,6
24063,25224,0.00021,4e-05,2e-05,-4e-05,-9e-05,-0.00011999999999999999,-5e-05,0.00013000000000000002,6
24064,25225,0.00021,4e-05,2e-05,-4e-05,-9e-05,-0.00011999999999999999,-5e-05,0.00013000000000000002,6
24065,25226,0.00021,4e-05,2e-05,-4e-05,-9e-05,-0.00011999999999999999,-5e-05,0.00013000000000000002,6
24066,25227,0.00021,4e-05,2e-05,-4e-05,-9e-05,-0.00011999999999999999,-5e-05,0.00013000000000000002,6
24067,25228,0.00021,4e-05,2e-05,-4e-05,-9e-05,-0.00011999999999999999,-5e-05,0.00013000000000000002,6
24068,25229,0.00021,4e-05,2e-05,-4e-05,-9e-05,-0.00011999999999999999,-5e-05,0.00013000000000000002,6
24069,25230,0.00021,4e-05,2e-05,-4e-05,-9e-05,-0.00011999999999999999,-5e-05,0.00013000000000000002,6
24070,25231,0.00021,4e-05,2e-05,-4e-05,-9e-05,-0.00011999999999999999,-5e-05,0.00013000000000000002,6
24071,25232,0.00021,4e-05,2e-05,-4e-05,-9e-05,-0.00011999999999999999,-5e-05,0.00013000000000000002,6
24072,25233,0.00021,4e-05,2e-05,-4e-05,-9e-05,-0.00011999999999999999,-5e-05,0.00013000000000000002,6
24073,25234,0.00021,4e-05,2e-05,-4e-05,-9e-05,-0.00011999999999999999,-5e-05,0.00013000000000000002,6
24074,25235,0.00026000000000000003,9e-05,-2.9999999999999997e-05,2e-05,9e-05,0.00018999999999999998,-4e-05,8e-05,6
24075,25236,-0.00016,-0.00015,-2.9999999999999997e-05,0.0,-5e-05,-8e-05,-0.00022,-7e-05,6
24076,25238,4e-05,4e-05,1e-05,2e-05,-2e-05,-0.00011,-5e-05,0.00035,6
24077,25239,4e-05,4e-05,1e-05,2e-05,-2e-05,-0.00011,-5e-05,0.00035,6
24078,25240,4e-05,4e-05,1e-05,2e-05,-2e-05,-0.00011,-5e-05,0.00035,6
24079,25241,4e-05,4e-05,1e-05,2e-05,-2e-05,-0.00011,-5e-05,0.00035,6
24080,25242,4e-05,4e-05,1e-05,2e-05,-2e-05,-0.00011,-5e-05,0.00035,6
24081,25243,4e-05,4e-05,1e-05,2e-05,-2e-05,-0.00011,-5e-05,0.00035,6
24082,25244,4e-05,4e-05,1e-05,2e-05,-2e-05,-0.00011,-5e-05,0.00035,6
24083,25245,4e-05,4e-05,1e-05,2e-05,-2e-05,-0.00011,-5e-05,0.00035,6
24084,25246,4e-05,4e-05,1e-05,2e-05,-2e-05,-0.00011,-5e-05,0.00035,6
24085,25247,4e-05,4e-05,1e-05,2e-05,-2e-05,-0.00011,-5e-05,0.00035,6
24086,25248,4e-05,4e-05,1e-05,2e-05,-2e-05,-0.00011,-5e-05,0.00035,6
24087,25249,4e-05,4e-05,1e-05,2e-05,-2e-05,-0.00011,-5e-05,0.00035,6
24088,25250,0.00022,0.00013000000000000002,-2.9999999999999997e-05,-5e-05,9e-05,0.00023999999999999998,-2.9999999999999997e-05,0.0,6
24089,25251,0.00022,0.00013000000000000002,-2.9999999999999997e-05,-5e-05,9e-05,0.00023999999999999998,-2.9999999999999997e-05,0.0,6
24090,25252,0.00022,0.00013000000000000002,-2.9999999999999997e-05,-5e-05,9e-05,0.00023999999999999998,-2.9999999999999997e-05,0.0,6
24091,25253,0.00022,0.00013000000000000002,-2.9999999999999997e-05,-5e-05,9e-05,0.00023999999999999998,-2.9999999999999997e-05,0.0,6
24092,25254,0.00022,0.00013000000000000002,-2.9999999999999997e-05,-5e-05,9e-05,0.00023999999999999998,-2.9999999999999997e-05,0.0,6
24093,25255,0.00022,0.00013000000000000002,-2.9999999999999997e-05,-5e-05,9e-05,0.00023999999999999998,-2.9999999999999997e-05,0.0,6
24094,25256,0.00022,0.00013000000000000002,-2.9999999999999997e-05,-5e-05,9e-05,0.00023999999999999998,-2.9999999999999997e-05,0.0,6
24095,25257,-0.00022999999999999998,1e-05,4e-05,-1e-05,-0.00016,-0.00015,-0.00028,-0.00028,6
24096,25258,-0.00022999999999999998,1e-05,4e-05,-1e-05,-0.00016,-0.00015,-0.00028,-0.00028,6
24097,25259,-0.00022999999999999998,1e-05,4e-05,-1e-05,-0.00016,-0.00015,-0.00028,-0.00028,6
24098,25260,-0.00022999999999999998,1e-05,4e-05,-1e-05,-0.00016,-0.00015,-0.00028,-0.00028,6
24099,25261,-0.00022999999999999998,1e-05,4e-05,-1e-05,-0.00016,-0.00015,-0.00028,-0.00028,6
24100,25262,-0.00022999999999999998,1e-05,4e-05,-1e-05,-0.00016,-0.00015,-0.00028,-0.00028,6
24101,25263,-0.00022999999999999998,1e-05,4e-05,-1e-05,-0.00016,-0.00015,-0.00028,-0.00028,6
24102,25264,-0.00022999999999999998,1e-05,4e-05,-1e-05,-0.00016,-0.00015,-0.00028,-0.00028,6
24103,25265,-0.00022999999999999998,1e-05,4e-05,-1e-05,-0.00016,-0.00015,-0.00028,-0.00028,6
24104,25266,-0.00022999999999999998,1e-05,4e-05,-1e-05,-0.00016,-0.00015,-0.00028,-0.00028,6
24105,25267,-0.00022999999999999998,1e-05,4e-05,-1e-05,-0.00016,-0.00015,-0.00028,-0.00028,6
24106,25268,-0.00022999999999999998,1e-05,4e-05,-1e-05,-0.00016,-0.00015,-0.00028,-0.00028,6
24107,25269,-0.00022999999999999998,1e-05,4e-05,-1e-05,-0.00016,-0.00015,-0.00028,-0.00028,6
24108,25270,-0.00022999999999999998,1e-05,4e-05,-1e-05,-0.00016,-0.00015,-0.00028,-0.00028,6
24109,25271,-0.00022999999999999998,1e-05,4e-05,-1e-05,-0.00016,-0.00015,-0.00028,-0.00028,6
24110,25272,-0.00022999999999999998,1e-05,4e-05,-1e-05,-0.00016,-0.00015,-0.00028,-0.00028,6
24111,25273,0.00029,-7e-05,-2.9999999999999997e-05,-2e-05,-1e-05,0.00029,0.00016,-0.00041,6
24112,25274,-0.00033,0.00014,-5e-05,-5.9999999999999995e-05,-0.00029,-0.00045999999999999996,-5e-05,-8e-05,6
24113,25275,0.0001,-0.00014,0.0,2.9999999999999997e-05,0.00027,-1e-05,-9e-05,0.00014,6
24114,25276,0.0001,-0.00014,0.0,2.9999999999999997e-05,0.00027,-1e-05,-9e-05,0.00014,6
24115,25277,0.0001,-0.00014,0.0,2.9999999999999997e-05,0.00027,-1e-05,-9e-05,0.00014,6
24116,25278,0.0001,-0.00014,0.0,2.9999999999999997e-05,0.00027,-1e-05,-9e-05,0.00014,6
24117,25279,0.0001,-0.00014,0.0,2.9999999999999997e-05,0.00027,-1e-05,-9e-05,0.00014,6
24118,25280,0.0001,-0.00014,0.0,2.9999999999999997e-05,0.00027,-1e-05,-9e-05,0.00014,6
24119,25281,0.0001,-0.00014,0.0,2.9999999999999997e-05,0.00027,-1e-05,-9e-05,0.00014,6
24120,25282,0.0001,-0.00014,0.0,2.9999999999999997e-05,0.00027,-1e-05,-9e-05,0.00014,6
24121,25283,0.0001,-0.00014,0.0,2.9999999999999997e-05,0.00027,-1e-05,-9e-05,0.00014,6
24122,25284,0.0001,-0.00014,0.0,2.9999999999999997e-05,0.00027,-1e-05,-9e-05,0.00014,6
24123,25285,0.0001,-0.00014,0.0,2.9999999999999997e-05,0.00027,-1e-05,-9e-05,0.00014,6
24124,25286,0.0001,-0.00014,0.0,2.9999999999999997e-05,0.00027,-1e-05,-9e-05,0.00014,6
24125,25288,0.0001,-0.00014,0.0,2.9999999999999997e-05,0.00027,-1e-05,-9e-05,0.00014,6
24126,25289,0.0001,-0.00014,0.0,2.9999999999999997e-05,0.00027,-1e-05,-9e-05,0.00014,6
24127,25290,0.0001,-0.00014,0.0,2.9999999999999997e-05,0.00027,-1e-05,-9e-05,0.00014,6
24128,25292,0.0001,-0.00014,0.0,2.9999999999999997e-05,0.00027,-1e-05,-9e-05,0.00014,6
24129,25293,0.0001,-0.00014,0.0,2.9999999999999997e-05,0.00027,-1e-05,-9e-05,0.00014,6
24130,25294,0.0001,-0.00014,0.0,2.9999999999999997e-05,0.00027,-1e-05,-9e-05,0.00014,6
24131,25295,0.0001,-0.00014,0.0,2.9999999999999997e-05,0.00027,-1e-05,-9e-05,0.00014,6
24132,25296,0.00029,1e-05,0.0,1e-05,1e-05,-9e-05,-0.00015,5e-05,6
24133,25297,-0.00025,-0.00011999999999999999,-2.9999999999999997e-05,-5.9999999999999995e-05,-7e-05,-0.0003,-4e-05,-9e-05,6
24134,25298,-0.00025,-0.00011999999999999999,-2.9999999999999997e-05,-5.9999999999999995e-05,-7e-05,-0.0003,-4e-05,-9e-05,6
24135,25299,-0.00025,-0.00011999999999999999,-2.9999999999999997e-05,-5.9999999999999995e-05,-7e-05,-0.0003,-4e-05,-9e-05,6
24136,25300,-0.00025,-0.00011999999999999999,-2.9999999999999997e-05,-5.9999999999999995e-05,-7e-05,-0.0003,-4e-05,-9e-05,6
24137,25301,-0.00025,-0.00011999999999999999,-2.9999999999999997e-05,-5.9999999999999995e-05,-7e-05,-0.0003,-4e-05,-9e-05,6
24138,25302,-0.00025,-0.00011999999999999999,-2.9999999999999997e-05,-5.9999999999999995e-05,-7e-05,-0.0003,-4e-05,-9e-05,6
24139,25303,-0.00025,-0.00011999999999999999,-2.9999999999999997e-05,-5.9999999999999995e-05,-7e-05,-0.0003,-4e-05,-9e-05,6
24140,25304,-0.00025,-0.00011999999999999999,-2.9999999999999997e-05,-5.9999999999999995e-05,-7e-05,-0.0003,-4e-05,-9e-05,6
24141,25305,-0.00025,-0.00011999999999999999,-2.9999999999999997e-05,-5.9999999999999995e-05,-7e-05,-0.0003,-4e-05,-9e-05,6
24142,25306,-0.00025,-0.00011999999999999999,-2.9999999999999997e-05,-5.9999999999999995e-05,-7e-05,-0.0003,-4e-05,-9e-05,6
24143,25307,-0.00025,-0.00011999999999999999,-2.9999999999999997e-05,-5.9999999999999995e-05,-7e-05,-0.0003,-4e-05,-9e-05,6
24144,25308,-0.00025,-0.00011999999999999999,-2.9999999999999997e-05,-5.9999999999999995e-05,-7e-05,-0.0003,-4e-05,-9e-05,6
24145,25309,-0.00025,-0.00011999999999999999,-2.9999999999999997e-05,-5.9999999999999995e-05,-7e-05,-0.0003,-4e-05,-9e-05,6
24146,25310,-0.00011999999999999999,5e-05,2.9999999999999997e-05,-1e-05,-2.9999999999999997e-05,-0.00022,5.9999999999999995e-05,0.00023999999999999998,6
24147,25311,-0.00011999999999999999,5e-05,2.9999999999999997e-05,-1e-05,-2.9999999999999997e-05,-0.00022,5.9999999999999995e-05,0.00023999999999999998,6
24148,25312,-0.00011999999999999999,5e-05,2.9999999999999997e-05,-1e-05,-2.9999999999999997e-05,-0.00022,5.9999999999999995e-05,0.00023999999999999998,6
24149,25313,-0.00011999999999999999,5e-05,2.9999999999999997e-05,-1e-05,-2.9999999999999997e-05,-0.00022,5.9999999999999995e-05,0.00023999999999999998,6
24150,25314,-0.00011999999999999999,5e-05,2.9999999999999997e-05,-1e-05,-2.9999999999999997e-05,-0.00022,5.9999999999999995e-05,0.00023999999999999998,6
24151,25315,-0.00011999999999999999,5e-05,2.9999999999999997e-05,-1e-05,-2.9999999999999997e-05,-0.00022,5.9999999999999995e-05,0.00023999999999999998,6
24152,25316,-0.00011999999999999999,5e-05,2.9999999999999997e-05,-1e-05,-2.9999999999999997e-05,-0.00022,5.9999999999999995e-05,0.00023999999999999998,6
24153,25317,-5e-05,4e-05,-1e-05,2e-05,0.00018999999999999998,0.00018,0.00029,-0.00028,6
24154,25318,-5e-05,4e-05,-1e-05,2e-05,0.00018999999999999998,0.00018,0.00029,-0.00028,6
24155,25319,-5e-05,4e-05,-1e-05,2e-05,0.00018999999999999998,0.00018,0.00029,-0.00028,6
24156,25320,-5e-05,4e-05,-1e-05,2e-05,0.00018999999999999998,0.00018,0.00029,-0.00028,6
24157,25321,-5e-05,4e-05,-1e-05,2e-05,0.00018999999999999998,0.00018,0.00029,-0.00028,6
24158,25322,-5e-05,4e-05,-1e-05,2e-05,0.00018999999999999998,0.00018,0.00029,-0.00028,6
24159,25323,-5e-05,4e-05,-1e-05,2e-05,0.00018999999999999998,0.00018,0.00029,-0.00028,6
24160,25324,-5e-05,4e-05,-1e-05,2e-05,0.00018999999999999998,0.00018,0.00029,-0.00028,6
24161,25325,-5e-05,4e-05,-1e-05,2e-05,0.00018999999999999998,0.00018,0.00029,-0.00028,6
24162,25326,-5e-05,4e-05,-1e-05,2e-05,0.00018999999999999998,0.00018,0.00029,-0.00028,6
24163,25327,-5e-05,4e-05,-1e-05,2e-05,0.00018999999999999998,0.00018,0.00029,-0.00028,6
24164,25328,-5e-05,4e-05,-1e-05,2e-05,0.00018999999999999998,0.00018,0.00029,-0.00028,6
24165,25329,-5e-05,4e-05,-1e-05,2e-05,0.00018999999999999998,0.00018,0.00029,-0.00028,6
24166,25330,-5e-05,4e-05,-1e-05,2e-05,0.00018999999999999998,0.00018,0.00029,-0.00028,6
24167,25331,-5e-05,4e-05,-1e-05,2e-05,0.00018999999999999998,0.00018,0.00029,-0.00028,6
24168,25332,-5e-05,4e-05,-1e-05,2e-05,0.00018999999999999998,0.00018,0.00029,-0.00028,6
24169,25333,5e-05,-2.9999999999999997e-05,-2e-05,2e-05,-2.9999999999999997e-05,9e-05,5e-05,9e-05,6
24170,25334,0.00022999999999999998,-0.00018,-2e-05,1e-05,5.9999999999999995e-05,-5e-05,0.00011999999999999999,0.0003,6
24171,25335,0.00016,0.00027,0.00013000000000000002,5e-05,0.00023999999999999998,0.00025,1e-05,0.00037,6
24172,25336,0.00016,0.00027,0.00013000000000000002,5e-05,0.00023999999999999998,0.00025,1e-05,0.00037,6
24173,25338,0.00016,0.00027,0.00013000000000000002,5e-05,0.00023999999999999998,0.00025,1e-05,0.00037,6
24174,25339,0.00016,0.00027,0.00013000000000000002,5e-05,0.00023999999999999998,0.00025,1e-05,0.00037,6
24175,25340,0.00016,0.00027,0.00013000000000000002,5e-05,0.00023999999999999998,0.00025,1e-05,0.00037,6
24176,25341,0.00016,0.00027,0.00013000000000000002,5e-05,0.00023999999999999998,0.00025,1e-05,0.00037,6
24177,25342,0.00016,0.00027,0.00013000000000000002,5e-05,0.00023999999999999998,0.00025,1e-05,0.00037,6
24178,25343,0.00016,0.00027,0.00013000000000000002,5e-05,0.00023999999999999998,0.00025,1e-05,0.00037,6
24179,25344,0.00016,0.00027,0.00013000000000000002,5e-05,0.00023999999999999998,0.00025,1e-05,0.00037,6
24180,25345,0.00016,0.00027,0.00013000000000000002,5e-05,0.00023999999999999998,0.00025,1e-05,0.00037,6
24181,25346,0.00016,0.00027,0.00013000000000000002,5e-05,0.00023999999999999998,0.00025,1e-05,0.00037,6
24182,25347,0.00016,0.00027,0.00013000000000000002,5e-05,0.00023999999999999998,0.00025,1e-05,0.00037,6
24183,25348,0.00016,0.00027,0.00013000000000000002,5e-05,0.00023999999999999998,0.00025,1e-05,0.00037,6
24184,25349,0.00016,0.00027,0.00013000000000000002,5e-05,0.00023999999999999998,0.00025,1e-05,0.00037,6
24185,25350,0.00016,0.00027,0.00013000000000000002,5e-05,0.00023999999999999998,0.00025,1e-05,0.00037,6
24186,25351,0.00016,0.00027,0.00013000000000000002,5e-05,0.00023999999999999998,0.00025,1e-05,0.00037,6
24187,25352,0.00016,0.00027,0.00013000000000000002,5e-05,0.00023999999999999998,0.00025,1e-05,0.00037,6
24188,25353,0.00016,0.00027,0.00013000000000000002,5e-05,0.00023999999999999998,0.00025,1e-05,0.00037,6
24189,25354,0.00016,0.00027,0.00013000000000000002,5e-05,0.00023999999999999998,0.00025,1e-05,0.00037,6
24190,25355,0.00016,0.00027,0.00013000000000000002,5e-05,0.00023999999999999998,0.00025,1e-05,0.00037,6
24191,25356,-0.00026000000000000003,4e-05,7e-05,5.9999999999999995e-05,-9e-05,-0.00022999999999999998,1e-05,-0.00018999999999999998,6
24192,25357,-0.00032,-0.00018999999999999998,2e-05,9e-05,0.00014,0.0001,5.9999999999999995e-05,2e-05,6
24193,25358,-0.00032,-0.00018999999999999998,2e-05,9e-05,0.00014,0.0001,5.9999999999999995e-05,2e-05,6
24194,25359,-0.00032,-0.00018999999999999998,2e-05,9e-05,0.00014,0.0001,5.9999999999999995e-05,2e-05,6
24195,25360,-0.00032,-0.00018999999999999998,2e-05,9e-05,0.00014,0.0001,5.9999999999999995e-05,2e-05,6
24196,25361,-0.00032,-0.00018999999999999998,2e-05,9e-05,0.00014,0.0001,5.9999999999999995e-05,2e-05,6
24197,25362,-0.00032,-0.00018999999999999998,2e-05,9e-05,0.00014,0.0001,5.9999999999999995e-05,2e-05,6
24198,25363,-0.00032,-0.00018999999999999998,2e-05,9e-05,0.00014,0.0001,5.9999999999999995e-05,2e-05,6
24199,25364,-0.00032,-0.00018999999999999998,2e-05,9e-05,0.00014,0.0001,5.9999999999999995e-05,2e-05,6
24200,25365,-0.00032,-0.00018999999999999998,2e-05,9e-05,0.00014,0.0001,5.9999999999999995e-05,2e-05,6
24201,25366,-0.00032,-0.00018999999999999998,2e-05,9e-05,0.00014,0.0001,5.9999999999999995e-05,2e-05,6
24202,25367,-0.00032,-0.00018999999999999998,2e-05,9e-05,0.00014,0.0001,5.9999999999999995e-05,2e-05,6
24203,25368,-0.00032,-0.00018999999999999998,2e-05,9e-05,0.00014,0.0001,5.9999999999999995e-05,2e-05,6
24204,25369,-5e-05,-7e-05,1e-05,5e-05,0.00016,0.00039,0.00016,0.00021,6
24205,25370,-5e-05,-7e-05,1e-05,5e-05,0.00016,0.00039,0.00016,0.00021,6
24206,25371,-5e-05,-7e-05,1e-05,5e-05,0.00016,0.00039,0.00016,0.00021,6
24207,25372,-5e-05,-7e-05,1e-05,5e-05,0.00016,0.00039,0.00016,0.00021,6
24208,25373,-5e-05,-7e-05,1e-05,5e-05,0.00016,0.00039,0.00016,0.00021,6
24209,25374,-5e-05,-7e-05,1e-05,5e-05,0.00016,0.00039,0.00016,0.00021,6
24210,25375,-5e-05,-7e-05,1e-05,5e-05,0.00016,0.00039,0.00016,0.00021,6
24211,25376,-5e-05,-7e-05,1e-05,5e-05,0.00016,0.00039,0.00016,0.00021,6
24212,25377,-5e-05,-7e-05,1e-05,5e-05,0.00016,0.00039,0.00016,0.00021,6
24213,25378,0.00016999999999999999,1e-05,-5e-05,-8e-05,-0.00022999999999999998,-7e-05,0.00014,-0.00032,6
24214,25379,0.00016999999999999999,1e-05,-5e-05,-8e-05,-0.00022999999999999998,-7e-05,0.00014,-0.00032,6
24215,25380,0.00016999999999999999,1e-05,-5e-05,-8e-05,-0.00022999999999999998,-7e-05,0.00014,-0.00032,6
24216,25381,0.00016999999999999999,1e-05,-5e-05,-8e-05,-0.00022999999999999998,-7e-05,0.00014,-0.00032,6
24217,25382,0.00016999999999999999,1e-05,-5e-05,-8e-05,-0.00022999999999999998,-7e-05,0.00014,-0.00032,6
24218,25383,0.00016999999999999999,1e-05,-5e-05,-8e-05,-0.00022999999999999998,-7e-05,0.00014,-0.00032,6
24219,25384,0.00016999999999999999,1e-05,-5e-05,-8e-05,-0.00022999999999999998,-7e-05,0.00014,-0.00032,6
24220,25385,0.00016999999999999999,1e-05,-5e-05,-8e-05,-0.00022999999999999998,-7e-05,0.00014,-0.00032,6
24221,25386,0.00016999999999999999,1e-05,-5e-05,-8e-05,-0.00022999999999999998,-7e-05,0.00014,-0.00032,6
24222,25388,0.00016999999999999999,1e-05,-5e-05,-8e-05,-0.00022999999999999998,-7e-05,0.00014,-0.00032,6
24223,25389,0.00016999999999999999,1e-05,-5e-05,-8e-05,-0.00022999999999999998,-7e-05,0.00014,-0.00032,6
24224,25390,0.00016999999999999999,1e-05,-5e-05,-8e-05,-0.00022999999999999998,-7e-05,0.00014,-0.00032,6
24225,25391,0.00016999999999999999,1e-05,-5e-05,-8e-05,-0.00022999999999999998,-7e-05,0.00014,-0.00032,6
24226,25392,0.00016999999999999999,1e-05,-5e-05,-8e-05,-0.00022999999999999998,-7e-05,0.00014,-0.00032,6
24227,25393,0.00018,0.00016999999999999999,5e-05,2.9999999999999997e-05,0.00014,2.9999999999999997e-05,0.00023999999999999998,7e-05,6
24228,25394,0.00018,0.00016999999999999999,5e-05,2.9999999999999997e-05,0.00014,2.9999999999999997e-05,0.00023999999999999998,7e-05,6
24229,25395,-7e-05,-8e-05,-2.9999999999999997e-05,1e-05,-8e-05,0.00013000000000000002,9e-05,2e-05,6
24230,25396,-7e-05,-8e-05,-2.9999999999999997e-05,1e-05,-8e-05,0.00013000000000000002,9e-05,2e-05,6
24231,25397,-7e-05,-8e-05,-2.9999999999999997e-05,1e-05,-8e-05,0.00013000000000000002,9e-05,2e-05,6
24232,25398,-7e-05,-8e-05,-2.9999999999999997e-05,1e-05,-8e-05,0.00013000000000000002,9e-05,2e-05,6
24233,25399,-7e-05,-8e-05,-2.9999999999999997e-05,1e-05,-8e-05,0.00013000000000000002,9e-05,2e-05,6
24234,25400,-7e-05,-8e-05,-2.9999999999999997e-05,1e-05,-8e-05,0.00013000000000000002,9e-05,2e-05,6
24235,25401,-7e-05,-8e-05,-2.9999999999999997e-05,1e-05,-8e-05,0.00013000000000000002,9e-05,2e-05,6
24236,25402,-7e-05,-8e-05,-2.9999999999999997e-05,1e-05,-8e-05,0.00013000000000000002,9e-05,2e-05,6
24237,25403,-7e-05,-8e-05,-2.9999999999999997e-05,1e-05,-8e-05,0.00013000000000000002,9e-05,2e-05,6
24238,25404,-7e-05,-8e-05,-2.9999999999999997e-05,1e-05,-8e-05,0.00013000000000000002,9e-05,2e-05,6
24239,25405,-7e-05,-8e-05,-2.9999999999999997e-05,1e-05,-8e-05,0.00013000000000000002,9e-05,2e-05,6
24240,25406,-7e-05,-8e-05,-2.9999999999999997e-05,1e-05,-8e-05,0.00013000000000000002,9e-05,2e-05,6
24241,25407,-7e-05,-8e-05,-2.9999999999999997e-05,1e-05,-8e-05,0.00013000000000000002,9e-05,2e-05,6
24242,25408,-7e-05,-8e-05,-2.9999999999999997e-05,1e-05,-8e-05,0.00013000000000000002,9e-05,2e-05,6
24243,25409,-7e-05,-8e-05,-2.9999999999999997e-05,1e-05,-8e-05,0.00013000000000000002,9e-05,2e-05,6
24244,25410,-7e-05,-8e-05,-2.9999999999999997e-05,1e-05,-8e-05,0.00013000000000000002,9e-05,2e-05,6
24245,25411,-7e-05,-8e-05,-2.9999999999999997e-05,1e-05,-8e-05,0.00013000000000000002,9e-05,2e-05,6
24246,25412,-7e-05,-8e-05,-2.9999999999999997e-05,1e-05,-8e-05,0.00013000000000000002,9e-05,2e-05,6
24247,25413,-7e-05,-8e-05,-2.9999999999999997e-05,1e-05,-8e-05,0.00013000000000000002,9e-05,2e-05,6
24248,25414,-7e-05,-8e-05,-2.9999999999999997e-05,1e-05,-8e-05,0.00013000000000000002,9e-05,2e-05,6
24249,25415,-5.9999999999999995e-05,2e-05,1e-05,0.0,-0.00014,-2.9999999999999997e-05,2.9999999999999997e-05,0.00049,6
24250,25416,0.00011999999999999999,-2e-05,2.9999999999999997e-05,0.0,-0.00014,-0.00029,-0.00022999999999999998,-0.0004,6
24251,25417,-2.9999999999999997e-05,-8e-05,-7e-05,-2e-05,0.00011999999999999999,0.0001,-9e-05,0.00056,6
24252,25418,-2.9999999999999997e-05,-8e-05,-7e-05,-2e-05,0.00011999999999999999,0.0001,-9e-05,0.00056,6
24253,25419,-2.9999999999999997e-05,-8e-05,-7e-05,-2e-05,0.00011999999999999999,0.0001,-9e-05,0.00056,6
24254,25420,-2.9999999999999997e-05,-8e-05,-7e-05,-2e-05,0.00011999999999999999,0.0001,-9e-05,0.00056,6
24255,25421,-2.9999999999999997e-05,-8e-05,-7e-05,-2e-05,0.00011999999999999999,0.0001,-9e-05,0.00056,6
24256,25422,-2.9999999999999997e-05,-8e-05,-7e-05,-2e-05,0.00011999999999999999,0.0001,-9e-05,0.00056,6
24257,25423,-2.9999999999999997e-05,-8e-05,-7e-05,-2e-05,0.00011999999999999999,0.0001,-9e-05,0.00056,6
24258,25424,-2.9999999999999997e-05,-8e-05,-7e-05,-2e-05,0.00011999999999999999,0.0001,-9e-05,0.00056,6
24259,25425,-2.9999999999999997e-05,-8e-05,-7e-05,-2e-05,0.00011999999999999999,0.0001,-9e-05,0.00056,6
24260,25426,-2.9999999999999997e-05,-8e-05,-7e-05,-2e-05,0.00011999999999999999,0.0001,-9e-05,0.00056,6
24261,25427,-2.9999999999999997e-05,-8e-05,-7e-05,-2e-05,0.00011999999999999999,0.0001,-9e-05,0.00056,6
24262,25428,-2.9999999999999997e-05,-8e-05,-7e-05,-2e-05,0.00011999999999999999,0.0001,-9e-05,0.00056,6
24263,25429,-0.0005099999999999999,-2e-05,2.9999999999999997e-05,7e-05,0.00023999999999999998,-0.00011,-0.00018999999999999998,-0.00023999999999999998,6
24264,25430,-0.0005099999999999999,-2e-05,2.9999999999999997e-05,7e-05,0.00023999999999999998,-0.00011,-0.00018999999999999998,-0.00023999999999999998,6
24265,25431,-0.0005099999999999999,-2e-05,2.9999999999999997e-05,7e-05,0.00023999999999999998,-0.00011,-0.00018999999999999998,-0.00023999999999999998,6
24266,25432,-0.0005099999999999999,-2e-05,2.9999999999999997e-05,7e-05,0.00023999999999999998,-0.00011,-0.00018999999999999998,-0.00023999999999999998,6
24267,25433,-0.0005099999999999999,-2e-05,2.9999999999999997e-05,7e-05,0.00023999999999999998,-0.00011,-0.00018999999999999998,-0.00023999999999999998,6
24268,25434,-0.0005099999999999999,-2e-05,2.9999999999999997e-05,7e-05,0.00023999999999999998,-0.00011,-0.00018999999999999998,-0.00023999999999999998,6
24269,25435,-0.0005099999999999999,-2e-05,2.9999999999999997e-05,7e-05,0.00023999999999999998,-0.00011,-0.00018999999999999998,-0.00023999999999999998,6
24270,25436,-0.0005099999999999999,-2e-05,2.9999999999999997e-05,7e-05,0.00023999999999999998,-0.00011,-0.00018999999999999998,-0.00023999999999999998,6
24271,25439,0.00015,5.9999999999999995e-05,-4e-05,-5e-05,-5e-05,0.0,5e-05,-0.00059,6
24272,25440,0.00015,5.9999999999999995e-05,-4e-05,-5e-05,-5e-05,0.0,5e-05,-0.00059,6
24273,25441,0.00015,5.9999999999999995e-05,-4e-05,-5e-05,-5e-05,0.0,5e-05,-0.00059,6
24274,25442,0.00015,5.9999999999999995e-05,-4e-05,-5e-05,-5e-05,0.0,5e-05,-0.00059,6
24275,25443,0.00015,5.9999999999999995e-05,-4e-05,-5e-05,-5e-05,0.0,5e-05,-0.00059,6
24276,25444,0.00015,5.9999999999999995e-05,-4e-05,-5e-05,-5e-05,0.0,5e-05,-0.00059,6
24277,25445,0.00015,5.9999999999999995e-05,-4e-05,-5e-05,-5e-05,0.0,5e-05,-0.00059,6
24278,25446,0.00015,5.9999999999999995e-05,-4e-05,-5e-05,-5e-05,0.0,5e-05,-0.00059,6
24279,25447,0.00015,5.9999999999999995e-05,-4e-05,-5e-05,-5e-05,0.0,5e-05,-0.00059,6
24280,25448,0.00015,5.9999999999999995e-05,-4e-05,-5e-05,-5e-05,0.0,5e-05,-0.00059,6
24281,25449,0.00015,5.9999999999999995e-05,-4e-05,-5e-05,-5e-05,0.0,5e-05,-0.00059,6
24282,25450,0.00015,5.9999999999999995e-05,-4e-05,-5e-05,-5e-05,0.0,5e-05,-0.00059,6
24283,25451,0.00015,5.9999999999999995e-05,-4e-05,-5e-05,-5e-05,0.0,5e-05,-0.00059,6
24284,25452,0.00015,5.9999999999999995e-05,-4e-05,-5e-05,-5e-05,0.0,5e-05,-0.00059,6
24285,25453,-0.00035,0.00014,1e-05,-2e-05,-4e-05,0.00039,-2e-05,0.00011999999999999999,6
24286,25454,0.00037999999999999997,-4e-05,2e-05,2.9999999999999997e-05,0.00011999999999999999,0.0,-0.00016,0.00016999999999999999,6
24287,25455,-0.00084,-0.00016,2.9999999999999997e-05,1e-05,-0.00026000000000000003,-5.9999999999999995e-05,1e-05,-0.00022999999999999998,6
24288,25456,-0.00084,-0.00016,2.9999999999999997e-05,1e-05,-0.00026000000000000003,-5.9999999999999995e-05,1e-05,-0.00022999999999999998,6
24289,25457,-0.00084,-0.00016,2.9999999999999997e-05,1e-05,-0.00026000000000000003,-5.9999999999999995e-05,1e-05,-0.00022999999999999998,6
24290,25458,-0.00084,-0.00016,2.9999999999999997e-05,1e-05,-0.00026000000000000003,-5.9999999999999995e-05,1e-05,-0.00022999999999999998,6
24291,25459,-0.00084,-0.00016,2.9999999999999997e-05,1e-05,-0.00026000000000000003,-5.9999999999999995e-05,1e-05,-0.00022999999999999998,6
24292,25460,-0.00084,-0.00016,2.9999999999999997e-05,1e-05,-0.00026000000000000003,-5.9999999999999995e-05,1e-05,-0.00022999999999999998,6
24293,25461,-0.00084,-0.00016,2.9999999999999997e-05,1e-05,-0.00026000000000000003,-5.9999999999999995e-05,1e-05,-0.00022999999999999998,6
24294,25462,-0.00084,-0.00016,2.9999999999999997e-05,1e-05,-0.00026000000000000003,-5.9999999999999995e-05,1e-05,-0.00022999999999999998,6
24295,25463,-0.00084,-0.00016,2.9999999999999997e-05,1e-05,-0.00026000000000000003,-5.9999999999999995e-05,1e-05,-0.00022999999999999998,6
24296,25464,-0.00084,-0.00016,2.9999999999999997e-05,1e-05,-0.00026000000000000003,-5.9999999999999995e-05,1e-05,-0.00022999999999999998,6
24297,25465,-0.00084,-0.00016,2.9999999999999997e-05,1e-05,-0.00026000000000000003,-5.9999999999999995e-05,1e-05,-0.00022999999999999998,6
24298,25466,-0.00084,-0.00016,2.9999999999999997e-05,1e-05,-0.00026000000000000003,-5.9999999999999995e-05,1e-05,-0.00022999999999999998,6
24299,25467,-0.00084,-0.00016,2.9999999999999997e-05,1e-05,-0.00026000000000000003,-5.9999999999999995e-05,1e-05,-0.00022999999999999998,6
24300,25468,-0.00084,-0.00016,2.9999999999999997e-05,1e-05,-0.00026000000000000003,-5.9999999999999995e-05,1e-05,-0.00022999999999999998,6
24301,25469,-0.00084,-0.00016,2.9999999999999997e-05,1e-05,-0.00026000000000000003,-5.9999999999999995e-05,1e-05,-0.00022999999999999998,6
24302,25470,-0.00084,-0.00016,2.9999999999999997e-05,1e-05,-0.00026000000000000003,-5.9999999999999995e-05,1e-05,-0.00022999999999999998,6
24303,25471,-0.00084,-0.00016,2.9999999999999997e-05,1e-05,-0.00026000000000000003,-5.9999999999999995e-05,1e-05,-0.00022999999999999998,6
24304,25472,-0.00084,-0.00016,2.9999999999999997e-05,1e-05,-0.00026000000000000003,-5.9999999999999995e-05,1e-05,-0.00022999999999999998,6
24305,25473,-0.00084,-0.00016,2.9999999999999997e-05,1e-05,-0.00026000000000000003,-5.9999999999999995e-05,1e-05,-0.00022999999999999998,6
24306,25474,-0.00084,-0.00016,2.9999999999999997e-05,1e-05,-0.00026000000000000003,-5.9999999999999995e-05,1e-05,-0.00022999999999999998,6
24307,25475,-0.00016999999999999999,-2e-05,-5.9999999999999995e-05,-0.00011,-0.00027,-0.00021,-0.00011,-4e-05,6
24308,25476,-0.00016999999999999999,-2e-05,-5.9999999999999995e-05,-0.00011,-0.00027,-0.00021,-0.00011,-4e-05,6
24309,25477,0.00018999999999999998,0.00016999999999999999,9e-05,2e-05,0.00013000000000000002,0.00028,-5.9999999999999995e-05,4e-05,6
24310,25478,0.00018999999999999998,0.00016999999999999999,9e-05,2e-05,0.00013000000000000002,0.00028,-5.9999999999999995e-05,4e-05,6
24311,25479,0.00018999999999999998,0.00016999999999999999,9e-05,2e-05,0.00013000000000000002,0.00028,-5.9999999999999995e-05,4e-05,6
24312,25480,0.00018999999999999998,0.00016999999999999999,9e-05,2e-05,0.00013000000000000002,0.00028,-5.9999999999999995e-05,4e-05,6
24313,25481,0.00018999999999999998,0.00016999999999999999,9e-05,2e-05,0.00013000000000000002,0.00028,-5.9999999999999995e-05,4e-05,6
24314,25482,0.00018999999999999998,0.00016999999999999999,9e-05,2e-05,0.00013000000000000002,0.00028,-5.9999999999999995e-05,4e-05,6
24315,25483,0.00018999999999999998,0.00016999999999999999,9e-05,2e-05,0.00013000000000000002,0.00028,-5.9999999999999995e-05,4e-05,6
24316,25484,0.00018999999999999998,0.00016999999999999999,9e-05,2e-05,0.00013000000000000002,0.00028,-5.9999999999999995e-05,4e-05,6
24317,25485,0.00018999999999999998,0.00016999999999999999,9e-05,2e-05,0.00013000000000000002,0.00028,-5.9999999999999995e-05,4e-05,6
24318,25486,0.00018999999999999998,0.00016999999999999999,9e-05,2e-05,0.00013000000000000002,0.00028,-5.9999999999999995e-05,4e-05,6
24319,25488,0.00018999999999999998,0.00016999999999999999,9e-05,2e-05,0.00013000000000000002,0.00028,-5.9999999999999995e-05,4e-05,6
24320,25489,-0.0007599999999999999,-8e-05,-2e-05,-7e-05,-0.00028,-0.00025,-0.00011999999999999999,-0.00016999999999999999,6
24321,25490,-0.0007599999999999999,-8e-05,-2e-05,-7e-05,-0.00028,-0.00025,-0.00011999999999999999,-0.00016999999999999999,6
24322,25491,-0.0007599999999999999,-8e-05,-2e-05,-7e-05,-0.00028,-0.00025,-0.00011999999999999999,-0.00016999999999999999,6
24323,25492,-0.0007599999999999999,-8e-05,-2e-05,-7e-05,-0.00028,-0.00025,-0.00011999999999999999,-0.00016999999999999999,6
24324,25493,-0.0007599999999999999,-8e-05,-2e-05,-7e-05,-0.00028,-0.00025,-0.00011999999999999999,-0.00016999999999999999,6
24325,25494,-0.0007599999999999999,-8e-05,-2e-05,-7e-05,-0.00028,-0.00025,-0.00011999999999999999,-0.00016999999999999999,6
24326,25495,-0.0007599999999999999,-8e-05,-2e-05,-7e-05,-0.00028,-0.00025,-0.00011999999999999999,-0.00016999999999999999,6
24327,25496,-0.0007599999999999999,-8e-05,-2e-05,-7e-05,-0.00028,-0.00025,-0.00011999999999999999,-0.00016999999999999999,6
24328,25497,-0.0007599999999999999,-8e-05,-2e-05,-7e-05,-0.00028,-0.00025,-0.00011999999999999999,-0.00016999999999999999,6
24329,25498,0.00029,1e-05,1e-05,-2e-05,-0.0001,0.00021,-4e-05,8e-05,6
24330,25499,0.00029,1e-05,1e-05,-2e-05,-0.0001,0.00021,-4e-05,8e-05,6
24331,25500,0.00029,1e-05,1e-05,-2e-05,-0.0001,0.00021,-4e-05,8e-05,6
24332,25501,0.00029,1e-05,1e-05,-2e-05,-0.0001,0.00021,-4e-05,8e-05,6
24333,25502,0.00029,1e-05,1e-05,-2e-05,-0.0001,0.00021,-4e-05,8e-05,6
24334,25503,0.00029,1e-05,1e-05,-2e-05,-0.0001,0.00021,-4e-05,8e-05,6
24335,25504,0.00029,1e-05,1e-05,-2e-05,-0.0001,0.00021,-4e-05,8e-05,6
24336,25505,0.00029,1e-05,1e-05,-2e-05,-0.0001,0.00021,-4e-05,8e-05,6
24337,25506,0.00029,1e-05,1e-05,-2e-05,-0.0001,0.00021,-4e-05,8e-05,6
24338,25507,0.00029,1e-05,1e-05,-2e-05,-0.0001,0.00021,-4e-05,8e-05,6
24339,25508,0.00029,1e-05,1e-05,-2e-05,-0.0001,0.00021,-4e-05,8e-05,6
24340,25509,0.00029,1e-05,1e-05,-2e-05,-0.0001,0.00021,-4e-05,8e-05,6
24341,25510,0.00029,1e-05,1e-05,-2e-05,-0.0001,0.00021,-4e-05,8e-05,6
24342,25511,0.00029,1e-05,1e-05,-2e-05,-0.0001,0.00021,-4e-05,8e-05,6
24343,25512,0.00029,1e-05,1e-05,-2e-05,-0.0001,0.00021,-4e-05,8e-05,6
24344,25513,-0.00045999999999999996,0.00016,-2e-05,1e-05,-0.00011,-0.00016999999999999999,7e-05,-0.00021,6
24345,25514,0.00011999999999999999,-0.0001,-5e-05,-5.9999999999999995e-05,1e-05,-0.00011,-0.00025,7e-05,6
24346,25515,-0.00037,2.9999999999999997e-05,-7e-05,-5e-05,2e-05,-0.00011,-1e-05,-0.00011999999999999999,6
24347,25516,-0.00037,2.9999999999999997e-05,-7e-05,-5e-05,2e-05,-0.00011,-1e-05,-0.00011999999999999999,6
24348,25517,-0.00037,2.9999999999999997e-05,-7e-05,-5e-05,2e-05,-0.00011,-1e-05,-0.00011999999999999999,6
24349,25518,-0.00037,2.9999999999999997e-05,-7e-05,-5e-05,2e-05,-0.00011,-1e-05,-0.00011999999999999999,6
24350,25519,-0.00037,2.9999999999999997e-05,-7e-05,-5e-05,2e-05,-0.00011,-1e-05,-0.00011999999999999999,6
24351,25520,-0.00037,2.9999999999999997e-05,-7e-05,-5e-05,2e-05,-0.00011,-1e-05,-0.00011999999999999999,6
24352,25521,-0.00037,2.9999999999999997e-05,-7e-05,-5e-05,2e-05,-0.00011,-1e-05,-0.00011999999999999999,6
24353,25522,-0.00037,2.9999999999999997e-05,-7e-05,-5e-05,2e-05,-0.00011,-1e-05,-0.00011999999999999999,6
24354,25523,-0.00037,2.9999999999999997e-05,-7e-05,-5e-05,2e-05,-0.00011,-1e-05,-0.00011999999999999999,6
24355,25524,-0.00037,2.9999999999999997e-05,-7e-05,-5e-05,2e-05,-0.00011,-1e-05,-0.00011999999999999999,6
24356,25525,-0.00037,2.9999999999999997e-05,-7e-05,-5e-05,2e-05,-0.00011,-1e-05,-0.00011999999999999999,6
24357,25526,-0.00037,2.9999999999999997e-05,-7e-05,-5e-05,2e-05,-0.00011,-1e-05,-0.00011999999999999999,6
24358,25527,-0.00037,2.9999999999999997e-05,-7e-05,-5e-05,2e-05,-0.00011,-1e-05,-0.00011999999999999999,6
24359,25528,-0.00037,2.9999999999999997e-05,-7e-05,-5e-05,2e-05,-0.00011,-1e-05,-0.00011999999999999999,6
24360,25529,-0.00037,2.9999999999999997e-05,-7e-05,-5e-05,2e-05,-0.00011,-1e-05,-0.00011999999999999999,6
24361,25530,-0.00037,2.9999999999999997e-05,-7e-05,-5e-05,2e-05,-0.00011,-1e-05,-0.00011999999999999999,6
24362,25531,-0.00037,2.9999999999999997e-05,-7e-05,-5e-05,2e-05,-0.00011,-1e-05,-0.00011999999999999999,6
24363,25532,-0.00037,2.9999999999999997e-05,-7e-05,-5e-05,2e-05,-0.00011,-1e-05,-0.00011999999999999999,6
24364,25533,-0.00037,2.9999999999999997e-05,-7e-05,-5e-05,2e-05,-0.00011,-1e-05,-0.00011999999999999999,6
24365,25534,-0.00037,2.9999999999999997e-05,-7e-05,-5e-05,2e-05,-0.00011,-1e-05,-0.00011999999999999999,6
24366,25535,9e-05,2.9999999999999997e-05,-2.9999999999999997e-05,-8e-05,-0.0002,-0.00015,-2e-05,-0.0003,6
24367,25536,0.00045,-0.00011,-8e-05,0.0,-0.00011,2e-05,-0.0001,0.00045,6
24368,25538,-0.0007099999999999999,-5e-05,1e-05,0.0,-5.9999999999999995e-05,-0.00011,-0.0001,-0.0006900000000000001,6
24369,25539,-0.0007099999999999999,-5e-05,1e-05,0.0,-5.9999999999999995e-05,-0.00011,-0.0001,-0.0006900000000000001,6
24370,25540,-0.0007099999999999999,-5e-05,1e-05,0.0,-5.9999999999999995e-05,-0.00011,-0.0001,-0.0006900000000000001,6
24371,25541,-0.0007099999999999999,-5e-05,1e-05,0.0,-5.9999999999999995e-05,-0.00011,-0.0001,-0.0006900000000000001,6
24372,25542,-0.0007099999999999999,-5e-05,1e-05,0.0,-5.9999999999999995e-05,-0.00011,-0.0001,-0.0006900000000000001,6
24373,25543,-0.0007099999999999999,-5e-05,1e-05,0.0,-5.9999999999999995e-05,-0.00011,-0.0001,-0.0006900000000000001,6
24374,25544,-0.0007099999999999999,-5e-05,1e-05,0.0,-5.9999999999999995e-05,-0.00011,-0.0001,-0.0006900000000000001,6
24375,25545,-0.0007099999999999999,-5e-05,1e-05,0.0,-5.9999999999999995e-05,-0.00011,-0.0001,-0.0006900000000000001,6
24376,25546,-0.0007099999999999999,-5e-05,1e-05,0.0,-5.9999999999999995e-05,-0.00011,-0.0001,-0.0006900000000000001,6
24377,25547,-0.0007099999999999999,-5e-05,1e-05,0.0,-5.9999999999999995e-05,-0.00011,-0.0001,-0.0006900000000000001,6
24378,25548,-0.0007099999999999999,-5e-05,1e-05,0.0,-5.9999999999999995e-05,-0.00011,-0.0001,-0.0006900000000000001,6
24379,25549,0.00014,-0.00011,-4e-05,5e-05,0.00022999999999999998,0.00011999999999999999,5.9999999999999995e-05,-1e-05,6
24380,25550,0.00014,-0.00011,-4e-05,5e-05,0.00022999999999999998,0.00011999999999999999,5.9999999999999995e-05,-1e-05,6
24381,25551,0.00014,-0.00011,-4e-05,5e-05,0.00022999999999999998,0.00011999999999999999,5.9999999999999995e-05,-1e-05,6
24382,25552,0.00014,-0.00011,-4e-05,5e-05,0.00022999999999999998,0.00011999999999999999,5.9999999999999995e-05,-1e-05,6
24383,25553,0.00014,-0.00011,-4e-05,5e-05,0.00022999999999999998,0.00011999999999999999,5.9999999999999995e-05,-1e-05,6
24384,25554,0.00014,-0.00011,-4e-05,5e-05,0.00022999999999999998,0.00011999999999999999,5.9999999999999995e-05,-1e-05,6
24385,25555,0.00014,-0.00011,-4e-05,5e-05,0.00022999999999999998,0.00011999999999999999,5.9999999999999995e-05,-1e-05,6
24386,25556,0.00014,-0.00011,-4e-05,5e-05,0.00022999999999999998,0.00011999999999999999,5.9999999999999995e-05,-1e-05,6
24387,25557,0.00014,-0.00011,-4e-05,5e-05,0.00022999999999999998,0.00011999999999999999,5.9999999999999995e-05,-1e-05,6
24388,25558,0.00015,-2.9999999999999997e-05,-9e-05,-9e-05,0.0,5e-05,-9e-05,9e-05,6
24389,25559,0.00015,-2.9999999999999997e-05,-9e-05,-9e-05,0.0,5e-05,-9e-05,9e-05,6
24390,25560,0.00015,-2.9999999999999997e-05,-9e-05,-9e-05,0.0,5e-05,-9e-05,9e-05,6
24391,25561,0.00015,-2.9999999999999997e-05,-9e-05,-9e-05,0.0,5e-05,-9e-05,9e-05,6
24392,25562,0.00015,-2.9999999999999997e-05,-9e-05,-9e-05,0.0,5e-05,-9e-05,9e-05,6
24393,25563,0.00015,-2.9999999999999997e-05,-9e-05,-9e-05,0.0,5e-05,-9e-05,9e-05,6
24394,25564,0.00015,-2.9999999999999997e-05,-9e-05,-9e-05,0.0,5e-05,-9e-05,9e-05,6
24395,25565,0.00015,-2.9999999999999997e-05,-9e-05,-9e-05,0.0,5e-05,-9e-05,9e-05,6
24396,25566,0.00015,-2.9999999999999997e-05,-9e-05,-9e-05,0.0,5e-05,-9e-05,9e-05,6
24397,25567,0.00015,-2.9999999999999997e-05,-9e-05,-9e-05,0.0,5e-05,-9e-05,9e-05,6
24398,25568,0.00015,-2.9999999999999997e-05,-9e-05,-9e-05,0.0,5e-05,-9e-05,9e-05,6
24399,25569,0.00015,-2.9999999999999997e-05,-9e-05,-9e-05,0.0,5e-05,-9e-05,9e-05,6
24400,25570,0.00015,-2.9999999999999997e-05,-9e-05,-9e-05,0.0,5e-05,-9e-05,9e-05,6
24401,25571,0.00015,-2.9999999999999997e-05,-9e-05,-9e-05,0.0,5e-05,-9e-05,9e-05,6
24402,25572,0.00015,-2.9999999999999997e-05,-9e-05,-9e-05,0.0,5e-05,-9e-05,9e-05,6
24403,25573,0.00023999999999999998,0.00023999999999999998,-2.9999999999999997e-05,-9e-05,-2.9999999999999997e-05,-4e-05,7e-05,-8e-05,6
24404,25574,-0.0002,-2.9999999999999997e-05,5e-05,-2e-05,-0.00033999999999999997,-0.00022999999999999998,-0.00037,-7e-05,6
24405,25575,0.00031,0.0001,1e-05,2e-05,0.00018,7e-05,5.9999999999999995e-05,0.00018999999999999998,6
24406,25576,0.00031,0.0001,1e-05,2e-05,0.00018,7e-05,5.9999999999999995e-05,0.00018999999999999998,6
24407,25577,0.00031,0.0001,1e-05,2e-05,0.00018,7e-05,5.9999999999999995e-05,0.00018999999999999998,6
24408,25578,0.00031,0.0001,1e-05,2e-05,0.00018,7e-05,5.9999999999999995e-05,0.00018999999999999998,6
24409,25579,0.00031,0.0001,1e-05,2e-05,0.00018,7e-05,5.9999999999999995e-05,0.00018999999999999998,6
24410,25580,0.00031,0.0001,1e-05,2e-05,0.00018,7e-05,5.9999999999999995e-05,0.00018999999999999998,6
24411,25581,0.00031,0.0001,1e-05,2e-05,0.00018,7e-05,5.9999999999999995e-05,0.00018999999999999998,6
24412,25582,0.00031,0.0001,1e-05,2e-05,0.00018,7e-05,5.9999999999999995e-05,0.00018999999999999998,6
24413,25583,0.00031,0.0001,1e-05,2e-05,0.00018,7e-05,5.9999999999999995e-05,0.00018999999999999998,6
24414,25584,0.00031,0.0001,1e-05,2e-05,0.00018,7e-05,5.9999999999999995e-05,0.00018999999999999998,6
24415,25585,0.00031,0.0001,1e-05,2e-05,0.00018,7e-05,5.9999999999999995e-05,0.00018999999999999998,6
24416,25586,0.00031,0.0001,1e-05,2e-05,0.00018,7e-05,5.9999999999999995e-05,0.00018999999999999998,6
24417,25588,0.00031,0.0001,1e-05,2e-05,0.00018,7e-05,5.9999999999999995e-05,0.00018999999999999998,6
24418,25589,0.00031,0.0001,1e-05,2e-05,0.00018,7e-05,5.9999999999999995e-05,0.00018999999999999998,6
24419,25590,0.00031,0.0001,1e-05,2e-05,0.00018,7e-05,5.9999999999999995e-05,0.00018999999999999998,6
24420,25591,0.00031,0.0001,1e-05,2e-05,0.00018,7e-05,5.9999999999999995e-05,0.00018999999999999998,6
24421,25592,0.00031,0.0001,1e-05,2e-05,0.00018,7e-05,5.9999999999999995e-05,0.00018999999999999998,6
24422,25593,0.00031,0.0001,1e-05,2e-05,0.00018,7e-05,5.9999999999999995e-05,0.00018999999999999998,6
24423,25594,0.00031,0.0001,1e-05,2e-05,0.00018,7e-05,5.9999999999999995e-05,0.00018999999999999998,6
24424,25595,0.00031,0.0001,1e-05,2e-05,0.00018,7e-05,5.9999999999999995e-05,0.00018999999999999998,6
24425,25596,0.00013000000000000002,-5.9999999999999995e-05,2e-05,2e-05,0.00018,-8e-05,-0.00026000000000000003,0.00028,6
24426,25597,0.00016999999999999999,5e-05,-0.0001,-5e-05,-0.00029,-0.00026000000000000003,-7e-05,0.00043,6
24427,25598,0.00016999999999999999,5e-05,-0.0001,-5e-05,-0.00029,-0.00026000000000000003,-7e-05,0.00043,6
24428,25599,0.00016999999999999999,5e-05,-0.0001,-5e-05,-0.00029,-0.00026000000000000003,-7e-05,0.00043,6
24429,25600,0.00016999999999999999,5e-05,-0.0001,-5e-05,-0.00029,-0.00026000000000000003,-7e-05,0.00043,6
24430,25601,0.00016999999999999999,5e-05,-0.0001,-5e-05,-0.00029,-0.00026000000000000003,-7e-05,0.00043,6
24431,25602,0.00016999999999999999,5e-05,-0.0001,-5e-05,-0.00029,-0.00026000000000000003,-7e-05,0.00043,6
24432,25603,0.00016999999999999999,5e-05,-0.0001,-5e-05,-0.00029,-0.00026000000000000003,-7e-05,0.00043,6
24433,25604,0.00016999999999999999,5e-05,-0.0001,-5e-05,-0.00029,-0.00026000000000000003,-7e-05,0.00043,6
24434,25605,0.00016999999999999999,5e-05,-0.0001,-5e-05,-0.00029,-0.00026000000000000003,-7e-05,0.00043,6
24435,25606,0.00016999999999999999,5e-05,-0.0001,-5e-05,-0.00029,-0.00026000000000000003,-7e-05,0.00043,6
24436,25607,0.00016999999999999999,5e-05,-0.0001,-5e-05,-0.00029,-0.00026000000000000003,-7e-05,0.00043,6
24437,25608,0.00016999999999999999,5e-05,-0.0001,-5e-05,-0.00029,-0.00026000000000000003,-7e-05,0.00043,6
24438,25609,0.00016999999999999999,5e-05,-0.0001,-5e-05,-0.00029,-0.00026000000000000003,-7e-05,0.00043,6
24439,25610,-0.00016999999999999999,-1e-05,0.0,0.0,-0.00026000000000000003,-0.00042,2.9999999999999997e-05,5.9999999999999995e-05,6
24440,25611,-0.00016999999999999999,-1e-05,0.0,0.0,-0.00026000000000000003,-0.00042,2.9999999999999997e-05,5.9999999999999995e-05,6
24441,25612,-0.00016999999999999999,-1e-05,0.0,0.0,-0.00026000000000000003,-0.00042,2.9999999999999997e-05,5.9999999999999995e-05,6
24442,25613,-0.00016999999999999999,-1e-05,0.0,0.0,-0.00026000000000000003,-0.00042,2.9999999999999997e-05,5.9999999999999995e-05,6
24443,25614,-0.00016999999999999999,-1e-05,0.0,0.0,-0.00026000000000000003,-0.00042,2.9999999999999997e-05,5.9999999999999995e-05,6
24444,25615,-0.00016999999999999999,-1e-05,0.0,0.0,-0.00026000000000000003,-0.00042,2.9999999999999997e-05,5.9999999999999995e-05,6
24445,25616,-0.00016999999999999999,-1e-05,0.0,0.0,-0.00026000000000000003,-0.00042,2.9999999999999997e-05,5.9999999999999995e-05,6
24446,25617,-0.00016999999999999999,-1e-05,0.0,0.0,-0.00026000000000000003,-0.00042,2.9999999999999997e-05,5.9999999999999995e-05,6
24447,25618,-0.00042,-5e-05,2.9999999999999997e-05,-2.9999999999999997e-05,0.0,-0.00014,-0.0002,-0.00026000000000000003,6
24448,25619,-0.00042,-5e-05,2.9999999999999997e-05,-2.9999999999999997e-05,0.0,-0.00014,-0.0002,-0.00026000000000000003,6
24449,25620,-0.00042,-5e-05,2.9999999999999997e-05,-2.9999999999999997e-05,0.0,-0.00014,-0.0002,-0.00026000000000000003,6
24450,25621,-0.00042,-5e-05,2.9999999999999997e-05,-2.9999999999999997e-05,0.0,-0.00014,-0.0002,-0.00026000000000000003,6
24451,25622,-0.00042,-5e-05,2.9999999999999997e-05,-2.9999999999999997e-05,0.0,-0.00014,-0.0002,-0.00026000000000000003,6
24452,25623,-0.00042,-5e-05,2.9999999999999997e-05,-2.9999999999999997e-05,0.0,-0.00014,-0.0002,-0.00026000000000000003,6
24453,25624,-0.00042,-5e-05,2.9999999999999997e-05,-2.9999999999999997e-05,0.0,-0.00014,-0.0002,-0.00026000000000000003,6
24454,25625,-0.00042,-5e-05,2.9999999999999997e-05,-2.9999999999999997e-05,0.0,-0.00014,-0.0002,-0.00026000000000000003,6
24455,25626,-0.00042,-5e-05,2.9999999999999997e-05,-2.9999999999999997e-05,0.0,-0.00014,-0.0002,-0.00026000000000000003,6
24456,25627,-0.00042,-5e-05,2.9999999999999997e-05,-2.9999999999999997e-05,0.0,-0.00014,-0.0002,-0.00026000000000000003,6
24457,25628,-0.00042,-5e-05,2.9999999999999997e-05,-2.9999999999999997e-05,0.0,-0.00014,-0.0002,-0.00026000000000000003,6
24458,25629,-0.00042,-5e-05,2.9999999999999997e-05,-2.9999999999999997e-05,0.0,-0.00014,-0.0002,-0.00026000000000000003,6
24459,25630,-0.00042,-5e-05,2.9999999999999997e-05,-2.9999999999999997e-05,0.0,-0.00014,-0.0002,-0.00026000000000000003,6
24460,25631,-0.00042,-5e-05,2.9999999999999997e-05,-2.9999999999999997e-05,0.0,-0.00014,-0.0002,-0.00026000000000000003,6
24461,25632,-0.00042,-5e-05,2.9999999999999997e-05,-2.9999999999999997e-05,0.0,-0.00014,-0.0002,-0.00026000000000000003,6
24462,25633,0.00018999999999999998,1e-05,-2.9999999999999997e-05,-2.9999999999999997e-05,2.9999999999999997e-05,0.00011,-8e-05,4e-05,6
24463,25634,0.00018999999999999998,1e-05,-2.9999999999999997e-05,-2.9999999999999997e-05,2.9999999999999997e-05,0.00011,-8e-05,4e-05,6
24464,25635,0.00067,0.0001,-1e-05,-5.9999999999999995e-05,-0.00011,7e-05,0.00027,0.00032,6
24465,25636,0.00067,0.0001,-1e-05,-5.9999999999999995e-05,-0.00011,7e-05,0.00027,0.00032,6
24466,25638,0.00067,0.0001,-1e-05,-5.9999999999999995e-05,-0.00011,7e-05,0.00027,0.00032,6
24467,25639,0.00067,0.0001,-1e-05,-5.9999999999999995e-05,-0.00011,7e-05,0.00027,0.00032,6
24468,25640,0.00067,0.0001,-1e-05,-5.9999999999999995e-05,-0.00011,7e-05,0.00027,0.00032,6
24469,25641,0.00067,0.0001,-1e-05,-5.9999999999999995e-05,-0.00011,7e-05,0.00027,0.00032,6
24470,25642,0.00067,0.0001,-1e-05,-5.9999999999999995e-05,-0.00011,7e-05,0.00027,0.00032,6
24471,25643,0.00067,0.0001,-1e-05,-5.9999999999999995e-05,-0.00011,7e-05,0.00027,0.00032,6
24472,25644,0.00067,0.0001,-1e-05,-5.9999999999999995e-05,-0.00011,7e-05,0.00027,0.00032,6
24473,25645,0.00067,0.0001,-1e-05,-5.9999999999999995e-05,-0.00011,7e-05,0.00027,0.00032,6
24474,25646,0.00067,0.0001,-1e-05,-5.9999999999999995e-05,-0.00011,7e-05,0.00027,0.00032,6
24475,25647,0.00067,0.0001,-1e-05,-5.9999999999999995e-05,-0.00011,7e-05,0.00027,0.00032,6
24476,25648,0.00067,0.0001,-1e-05,-5.9999999999999995e-05,-0.00011,7e-05,0.00027,0.00032,6
24477,25649,0.00067,0.0001,-1e-05,-5.9999999999999995e-05,-0.00011,7e-05,0.00027,0.00032,6
24478,25650,0.00067,0.0001,-1e-05,-5.9999999999999995e-05,-0.00011,7e-05,0.00027,0.00032,6
24479,25651,0.00067,0.0001,-1e-05,-5.9999999999999995e-05,-0.00011,7e-05,0.00027,0.00032,6
24480,25652,0.00067,0.0001,-1e-05,-5.9999999999999995e-05,-0.00011,7e-05,0.00027,0.00032,6
24481,25653,0.00067,0.0001,-1e-05,-5.9999999999999995e-05,-0.00011,7e-05,0.00027,0.00032,6
24482,25654,0.00067,0.0001,-1e-05,-5.9999999999999995e-05,-0.00011,7e-05,0.00027,0.00032,6
24483,25655,0.00067,0.0001,-1e-05,-5.9999999999999995e-05,-0.00011,7e-05,0.00027,0.00032,6
24484,25656,0.00044,5e-05,2.9999999999999997e-05,2e-05,0.0002,0.00047000000000000004,-4e-05,0.00016999999999999999,6
24485,25657,0.00018999999999999998,7e-05,5.9999999999999995e-05,0.0001,0.00016999999999999999,4e-05,-8e-05,8e-05,6
24486,25658,0.00018999999999999998,7e-05,5.9999999999999995e-05,0.0001,0.00016999999999999999,4e-05,-8e-05,8e-05,6
24487,25659,0.00018999999999999998,7e-05,5.9999999999999995e-05,0.0001,0.00016999999999999999,4e-05,-8e-05,8e-05,6
24488,25660,0.00018999999999999998,7e-05,5.9999999999999995e-05,0.0001,0.00016999999999999999,4e-05,-8e-05,8e-05,6
24489,25661,0.00018999999999999998,7e-05,5.9999999999999995e-05,0.0001,0.00016999999999999999,4e-05,-8e-05,8e-05,6
24490,25662,0.00018999999999999998,7e-05,5.9999999999999995e-05,0.0001,0.00016999999999999999,4e-05,-8e-05,8e-05,6
24491,25663,0.00018999999999999998,7e-05,5.9999999999999995e-05,0.0001,0.00016999999999999999,4e-05,-8e-05,8e-05,6
24492,25664,0.00018999999999999998,7e-05,5.9999999999999995e-05,0.0001,0.00016999999999999999,4e-05,-8e-05,8e-05,6
24493,25665,0.00018999999999999998,7e-05,5.9999999999999995e-05,0.0001,0.00016999999999999999,4e-05,-8e-05,8e-05,6
24494,25666,0.00018999999999999998,7e-05,5.9999999999999995e-05,0.0001,0.00016999999999999999,4e-05,-8e-05,8e-05,6
24495,25667,0.00018999999999999998,7e-05,5.9999999999999995e-05,0.0001,0.00016999999999999999,4e-05,-8e-05,8e-05,6
24496,25668,0.00018999999999999998,7e-05,5.9999999999999995e-05,0.0001,0.00016999999999999999,4e-05,-8e-05,8e-05,6
24497,25669,-0.00044,-5.9999999999999995e-05,-7e-05,-4e-05,-0.0001,-1e-05,-4e-05,-0.00025,6
24498,25670,-0.00044,-5.9999999999999995e-05,-7e-05,-4e-05,-0.0001,-1e-05,-4e-05,-0.00025,6
24499,25671,-0.00044,-5.9999999999999995e-05,-7e-05,-4e-05,-0.0001,-1e-05,-4e-05,-0.00025,6
24500,25672,-0.00044,-5.9999999999999995e-05,-7e-05,-4e-05,-0.0001,-1e-05,-4e-05,-0.00025,6
24501,25673,-0.00044,-5.9999999999999995e-05,-7e-05,-4e-05,-0.0001,-1e-05,-4e-05,-0.00025,6
24502,25674,-0.00044,-5.9999999999999995e-05,-7e-05,-4e-05,-0.0001,-1e-05,-4e-05,-0.00025,6
24503,25675,-0.00044,-5.9999999999999995e-05,-7e-05,-4e-05,-0.0001,-1e-05,-4e-05,-0.00025,6
24504,25676,-0.00044,-5.9999999999999995e-05,-7e-05,-4e-05,-0.0001,-1e-05,-4e-05,-0.00025,6
24505,25677,-0.00044,-5.9999999999999995e-05,-7e-05,-4e-05,-0.0001,-1e-05,-4e-05,-0.00025,6
24506,25678,0.00011999999999999999,-0.0002,-0.0001,-4e-05,-8e-05,-5e-05,-5e-05,7e-05,6
24507,25679,0.00011999999999999999,-0.0002,-0.0001,-4e-05,-8e-05,-5e-05,-5e-05,7e-05,6
24508,25680,0.00011999999999999999,-0.0002,-0.0001,-4e-05,-8e-05,-5e-05,-5e-05,7e-05,6
24509,25681,0.00011999999999999999,-0.0002,-0.0001,-4e-05,-8e-05,-5e-05,-5e-05,7e-05,6
24510,25682,0.00011999999999999999,-0.0002,-0.0001,-4e-05,-8e-05,-5e-05,-5e-05,7e-05,6
24511,25683,0.00011999999999999999,-0.0002,-0.0001,-4e-05,-8e-05,-5e-05,-5e-05,7e-05,6
24512,25684,0.00011999999999999999,-0.0002,-0.0001,-4e-05,-8e-05,-5e-05,-5e-05,7e-05,6
24513,25685,0.00011999999999999999,-0.0002,-0.0001,-4e-05,-8e-05,-5e-05,-5e-05,7e-05,6
24514,25686,0.00011999999999999999,-0.0002,-0.0001,-4e-05,-8e-05,-5e-05,-5e-05,7e-05,6
24515,25688,0.00011999999999999999,-0.0002,-0.0001,-4e-05,-8e-05,-5e-05,-5e-05,7e-05,6
24516,25689,0.00011999999999999999,-0.0002,-0.0001,-4e-05,-8e-05,-5e-05,-5e-05,7e-05,6
24517,25690,0.00011999999999999999,-0.0002,-0.0001,-4e-05,-8e-05,-5e-05,-5e-05,7e-05,6
24518,25691,0.00011999999999999999,-0.0002,-0.0001,-4e-05,-8e-05,-5e-05,-5e-05,7e-05,6
24519,25692,0.00011999999999999999,-0.0002,-0.0001,-4e-05,-8e-05,-5e-05,-5e-05,7e-05,6
24520,25693,2.9999999999999997e-05,2.9999999999999997e-05,9e-05,5e-05,-7e-05,-5.9999999999999995e-05,0.0,-0.00033999999999999997,6
24521,25694,0.00044,0.00016999999999999999,-1e-05,-5.9999999999999995e-05,-0.00014,-0.00015,-2.9999999999999997e-05,2.9999999999999997e-05,6
24522,25695,-0.00032,-0.00011999999999999999,2.9999999999999997e-05,0.0,-0.00018,-0.0003,-2e-05,-0.00027,6
24523,25696,-0.00032,-0.00011999999999999999,2.9999999999999997e-05,0.0,-0.00018,-0.0003,-2e-05,-0.00027,6
24524,25697,-0.00032,-0.00011999999999999999,2.9999999999999997e-05,0.0,-0.00018,-0.0003,-2e-05,-0.00027,6
24525,25698,-0.00032,-0.00011999999999999999,2.9999999999999997e-05,0.0,-0.00018,-0.0003,-2e-05,-0.00027,6
24526,25699,-0.00032,-0.00011999999999999999,2.9999999999999997e-05,0.0,-0.00018,-0.0003,-2e-05,-0.00027,6
24527,25700,-0.00032,-0.00011999999999999999,2.9999999999999997e-05,0.0,-0.00018,-0.0003,-2e-05,-0.00027,6
24528,25701,-0.00032,-0.00011999999999999999,2.9999999999999997e-05,0.0,-0.00018,-0.0003,-2e-05,-0.00027,6
24529,25702,-0.00032,-0.00011999999999999999,2.9999999999999997e-05,0.0,-0.00018,-0.0003,-2e-05,-0.00027,6
24530,25703,-0.00032,-0.00011999999999999999,2.9999999999999997e-05,0.0,-0.00018,-0.0003,-2e-05,-0.00027,6
24531,25704,-0.00032,-0.00011999999999999999,2.9999999999999997e-05,0.0,-0.00018,-0.0003,-2e-05,-0.00027,6
24532,25705,-0.00032,-0.00011999999999999999,2.9999999999999997e-05,0.0,-0.00018,-0.0003,-2e-05,-0.00027,6
24533,25706,-0.00032,-0.00011999999999999999,2.9999999999999997e-05,0.0,-0.00018,-0.0003,-2e-05,-0.00027,6
24534,25707,-0.00032,-0.00011999999999999999,2.9999999999999997e-05,0.0,-0.00018,-0.0003,-2e-05,-0.00027,6
24535,25708,-0.00032,-0.00011999999999999999,2.9999999999999997e-05,0.0,-0.00018,-0.0003,-2e-05,-0.00027,6
24536,25709,-0.00032,-0.00011999999999999999,2.9999999999999997e-05,0.0,-0.00018,-0.0003,-2e-05,-0.00027,6
24537,25710,-0.00032,-0.00011999999999999999,2.9999999999999997e-05,0.0,-0.00018,-0.0003,-2e-05,-0.00027,6
24538,25711,-0.00032,-0.00011999999999999999,2.9999999999999997e-05,0.0,-0.00018,-0.0003,-2e-05,-0.00027,6
24539,25712,-0.00032,-0.00011999999999999999,2.9999999999999997e-05,0.0,-0.00018,-0.0003,-2e-05,-0.00027,6
24540,25713,-0.00032,-0.00011999999999999999,2.9999999999999997e-05,0.0,-0.00018,-0.0003,-2e-05,-0.00027,6
24541,25714,-0.00032,-0.00011999999999999999,2.9999999999999997e-05,0.0,-0.00018,-0.0003,-2e-05,-0.00027,6
24542,25715,0.0003,-5.9999999999999995e-05,-7e-05,-2e-05,2.9999999999999997e-05,-8e-05,-7e-05,0.00026000000000000003,6
24543,25716,0.00016,4e-05,1e-05,0.0,0.00011,0.00021,0.00016,0.00032,6
24544,25717,0.00023999999999999998,2.9999999999999997e-05,2e-05,2e-05,0.00011,0.00015,9e-05,-0.00031,6
24545,25718,0.00023999999999999998,2.9999999999999997e-05,2e-05,2e-05,0.00011,0.00015,9e-05,-0.00031,6
24546,25719,0.00023999999999999998,2.9999999999999997e-05,2e-05,2e-05,0.00011,0.00015,9e-05,-0.00031,6
24547,25720,0.00023999999999999998,2.9999999999999997e-05,2e-05,2e-05,0.00011,0.00015,9e-05,-0.00031,6
24548,25721,0.00023999999999999998,2.9999999999999997e-05,2e-05,2e-05,0.00011,0.00015,9e-05,-0.00031,6
24549,25722,0.00023999999999999998,2.9999999999999997e-05,2e-05,2e-05,0.00011,0.00015,9e-05,-0.00031,6
24550,25723,0.00023999999999999998,2.9999999999999997e-05,2e-05,2e-05,0.00011,0.00015,9e-05,-0.00031,6
24551,25724,0.00023999999999999998,2.9999999999999997e-05,2e-05,2e-05,0.00011,0.00015,9e-05,-0.00031,6
24552,25725,0.00023999999999999998,2.9999999999999997e-05,2e-05,2e-05,0.00011,0.00015,9e-05,-0.00031,6
24553,25726,0.00023999999999999998,2.9999999999999997e-05,2e-05,2e-05,0.00011,0.00015,9e-05,-0.00031,6
24554,25727,0.00023999999999999998,2.9999999999999997e-05,2e-05,2e-05,0.00011,0.00015,9e-05,-0.00031,6
24555,25728,0.00023999999999999998,2.9999999999999997e-05,2e-05,2e-05,0.00011,0.00015,9e-05,-0.00031,6
24556,25729,-0.00045,0.0,-0.0001,-1e-05,0.00037999999999999997,0.00018,-2e-05,2.9999999999999997e-05,6
24557,25730,-0.00045,0.0,-0.0001,-1e-05,0.00037999999999999997,0.00018,-2e-05,2.9999999999999997e-05,6
24558,25731,-0.00045,0.0,-0.0001,-1e-05,0.00037999999999999997,0.00018,-2e-05,2.9999999999999997e-05,6
24559,25732,-0.00045,0.0,-0.0001,-1e-05,0.00037999999999999997,0.00018,-2e-05,2.9999999999999997e-05,6
24560,25733,-0.00045,0.0,-0.0001,-1e-05,0.00037999999999999997,0.00018,-2e-05,2.9999999999999997e-05,6
24561,25734,-0.00045,0.0,-0.0001,-1e-05,0.00037999999999999997,0.00018,-2e-05,2.9999999999999997e-05,6
24562,25735,-0.00045,0.0,-0.0001,-1e-05,0.00037999999999999997,0.00018,-2e-05,2.9999999999999997e-05,6
24563,25736,-0.00045,0.0,-0.0001,-1e-05,0.00037999999999999997,0.00018,-2e-05,2.9999999999999997e-05,6
24564,25738,-0.00027,-0.00016,-5e-05,-4e-05,-0.0001,-0.00033,-0.00011999999999999999,-5e-05,6
24565,25739,5.9999999999999995e-05,-4e-05,-7e-05,-5.9999999999999995e-05,-0.00021,-0.00023999999999999998,5e-05,5.9999999999999995e-05,6
24566,25740,5.9999999999999995e-05,-4e-05,-7e-05,-5.9999999999999995e-05,-0.00021,-0.00023999999999999998,5e-05,5.9999999999999995e-05,6
24567,25741,5.9999999999999995e-05,-4e-05,-7e-05,-5.9999999999999995e-05,-0.00021,-0.00023999999999999998,5e-05,5.9999999999999995e-05,6
24568,25742,5.9999999999999995e-05,-4e-05,-7e-05,-5.9999999999999995e-05,-0.00021,-0.00023999999999999998,5e-05,5.9999999999999995e-05,6
24569,25743,5.9999999999999995e-05,-4e-05,-7e-05,-5.9999999999999995e-05,-0.00021,-0.00023999999999999998,5e-05,5.9999999999999995e-05,6
24570,25744,5.9999999999999995e-05,-4e-05,-7e-05,-5.9999999999999995e-05,-0.00021,-0.00023999999999999998,5e-05,5.9999999999999995e-05,6
24571,25745,5.9999999999999995e-05,-4e-05,-7e-05,-5.9999999999999995e-05,-0.00021,-0.00023999999999999998,5e-05,5.9999999999999995e-05,6
24572,25746,5.9999999999999995e-05,-4e-05,-7e-05,-5.9999999999999995e-05,-0.00021,-0.00023999999999999998,5e-05,5.9999999999999995e-05,6
24573,25747,5.9999999999999995e-05,-4e-05,-7e-05,-5.9999999999999995e-05,-0.00021,-0.00023999999999999998,5e-05,5.9999999999999995e-05,6
24574,25748,5.9999999999999995e-05,-4e-05,-7e-05,-5.9999999999999995e-05,-0.00021,-0.00023999999999999998,5e-05,5.9999999999999995e-05,6
24575,25749,5.9999999999999995e-05,-4e-05,-7e-05,-5.9999999999999995e-05,-0.00021,-0.00023999999999999998,5e-05,5.9999999999999995e-05,6
24576,25750,5.9999999999999995e-05,-4e-05,-7e-05,-5.9999999999999995e-05,-0.00021,-0.00023999999999999998,5e-05,5.9999999999999995e-05,6
24577,25751,5.9999999999999995e-05,-4e-05,-7e-05,-5.9999999999999995e-05,-0.00021,-0.00023999999999999998,5e-05,5.9999999999999995e-05,6
24578,25752,5.9999999999999995e-05,-4e-05,-7e-05,-5.9999999999999995e-05,-0.00021,-0.00023999999999999998,5e-05,5.9999999999999995e-05,6
24579,25753,0.00044,0.00013000000000000002,5e-05,1e-05,-7e-05,-2e-05,7e-05,-4e-05,6
24580,25754,0.00044,0.00013000000000000002,5e-05,1e-05,-7e-05,-2e-05,7e-05,-4e-05,6
24581,25755,-9e-05,4e-05,-5e-05,-5.9999999999999995e-05,-0.00016,2.9999999999999997e-05,-2e-05,2.9999999999999997e-05,6
24582,25756,-9e-05,4e-05,-5e-05,-5.9999999999999995e-05,-0.00016,2.9999999999999997e-05,-2e-05,2.9999999999999997e-05,6
24583,25757,-9e-05,4e-05,-5e-05,-5.9999999999999995e-05,-0.00016,2.9999999999999997e-05,-2e-05,2.9999999999999997e-05,6
24584,25758,-9e-05,4e-05,-5e-05,-5.9999999999999995e-05,-0.00016,2.9999999999999997e-05,-2e-05,2.9999999999999997e-05,6
24585,25759,-9e-05,4e-05,-5e-05,-5.9999999999999995e-05,-0.00016,2.9999999999999997e-05,-2e-05,2.9999999999999997e-05,6
24586,25760,-9e-05,4e-05,-5e-05,-5.9999999999999995e-05,-0.00016,2.9999999999999997e-05,-2e-05,2.9999999999999997e-05,6
24587,25761,-9e-05,4e-05,-5e-05,-5.9999999999999995e-05,-0.00016,2.9999999999999997e-05,-2e-05,2.9999999999999997e-05,6
24588,25762,-9e-05,4e-05,-5e-05,-5.9999999999999995e-05,-0.00016,2.9999999999999997e-05,-2e-05,2.9999999999999997e-05,6
24589,25763,-9e-05,4e-05,-5e-05,-5.9999999999999995e-05,-0.00016,2.9999999999999997e-05,-2e-05,2.9999999999999997e-05,6
24590,25764,-9e-05,4e-05,-5e-05,-5.9999999999999995e-05,-0.00016,2.9999999999999997e-05,-2e-05,2.9999999999999997e-05,6
24591,25765,-9e-05,4e-05,-5e-05,-5.9999999999999995e-05,-0.00016,2.9999999999999997e-05,-2e-05,2.9999999999999997e-05,6
24592,25766,-9e-05,4e-05,-5e-05,-5.9999999999999995e-05,-0.00016,2.9999999999999997e-05,-2e-05,2.9999999999999997e-05,6
24593,25767,-9e-05,4e-05,-5e-05,-5.9999999999999995e-05,-0.00016,2.9999999999999997e-05,-2e-05,2.9999999999999997e-05,6
24594,25768,-9e-05,4e-05,-5e-05,-5.9999999999999995e-05,-0.00016,2.9999999999999997e-05,-2e-05,2.9999999999999997e-05,6
24595,25769,-9e-05,4e-05,-5e-05,-5.9999999999999995e-05,-0.00016,2.9999999999999997e-05,-2e-05,2.9999999999999997e-05,6
24596,25770,-9e-05,4e-05,-5e-05,-5.9999999999999995e-05,-0.00016,2.9999999999999997e-05,-2e-05,2.9999999999999997e-05,6
24597,25771,-9e-05,4e-05,-5e-05,-5.9999999999999995e-05,-0.00016,2.9999999999999997e-05,-2e-05,2.9999999999999997e-05,6
24598,25772,-9e-05,4e-05,-5e-05,-5.9999999999999995e-05,-0.00016,2.9999999999999997e-05,-2e-05,2.9999999999999997e-05,6
24599,25773,-9e-05,4e-05,-5e-05,-5.9999999999999995e-05,-0.00016,2.9999999999999997e-05,-2e-05,2.9999999999999997e-05,6
24600,25774,-9e-05,4e-05,-5e-05,-5.9999999999999995e-05,-0.00016,2.9999999999999997e-05,-2e-05,2.9999999999999997e-05,6
24601,25775,-0.00022999999999999998,2.9999999999999997e-05,5.9999999999999995e-05,-1e-05,-5e-05,-8e-05,0.0,0.0001,6
24602,25776,-0.00022999999999999998,2.9999999999999997e-05,5.9999999999999995e-05,-1e-05,-5e-05,-8e-05,0.0,0.0001,6
24603,25777,0.00015,0.00011,2e-05,-2e-05,-5.9999999999999995e-05,-4e-05,-5.9999999999999995e-05,5e-05,6
24604,25778,0.00015,0.00011,2e-05,-2e-05,-5.9999999999999995e-05,-4e-05,-5.9999999999999995e-05,5e-05,6
24605,25779,0.00015,0.00011,2e-05,-2e-05,-5.9999999999999995e-05,-4e-05,-5.9999999999999995e-05,5e-05,6
