,time,channel1,channel2,channel3,channel4,channel5,channel6,channel7,channel8,class
28883,29926,5e-05,-0.00013000000000000002,4e-05,-5e-05,5e-05,9e-05,0.00011,0.0004,6
28884,29927,9e-05,-0.00014,-0.00018999999999999998,-0.00029,-0.0005,-0.00037999999999999997,2.9999999999999997e-05,0.00014,6
28885,29929,-0.00032,-0.00025,-5.9999999999999995e-05,0.00013000000000000002,0.00028,0.00011,-0.0002,9e-05,6
28886,29930,0.00026000000000000003,2.9999999999999997e-05,-4e-05,-5.9999999999999995e-05,-0.00011,-0.00013000000000000002,-0.00015,5.9999999999999995e-05,6
28887,29931,0.00026000000000000003,2.9999999999999997e-05,-4e-05,-5.9999999999999995e-05,-0.00011,-0.00013000000000000002,-0.00015,5.9999999999999995e-05,6
28888,29932,0.00026000000000000003,2.9999999999999997e-05,-4e-05,-5.9999999999999995e-05,-0.00011,-0.00013000000000000002,-0.00015,5.9999999999999995e-05,6
28889,29933,0.00026000000000000003,2.9999999999999997e-05,-4e-05,-5.9999999999999995e-05,-0.00011,-0.00013000000000000002,-0.00015,5.9999999999999995e-05,6
28890,29934,0.00026000000000000003,2.9999999999999997e-05,-4e-05,-5.9999999999999995e-05,-0.00011,-0.00013000000000000002,-0.00015,5.9999999999999995e-05,6
28891,29935,0.00026000000000000003,2.9999999999999997e-05,-4e-05,-5.9999999999999995e-05,-0.00011,-0.00013000000000000002,-0.00015,5.9999999999999995e-05,6
28892,29936,0.00026000000000000003,2.9999999999999997e-05,-4e-05,-5.9999999999999995e-05,-0.00011,-0.00013000000000000002,-0.00015,5.9999999999999995e-05,6
28893,29938,0.00026000000000000003,2.9999999999999997e-05,-4e-05,-5.9999999999999995e-05,-0.00011,-0.00013000000000000002,-0.00015,5.9999999999999995e-05,6
28894,29939,0.00026000000000000003,2.9999999999999997e-05,-4e-05,-5.9999999999999995e-05,-0.00011,-0.00013000000000000002,-0.00015,5.9999999999999995e-05,6
28895,29940,0.00026000000000000003,2.9999999999999997e-05,-4e-05,-5.9999999999999995e-05,-0.00011,-0.00013000000000000002,-0.00015,5.9999999999999995e-05,6
28896,29941,0.00026000000000000003,2.9999999999999997e-05,-4e-05,-5.9999999999999995e-05,-0.00011,-0.00013000000000000002,-0.00015,5.9999999999999995e-05,6
28897,29942,0.00026000000000000003,2.9999999999999997e-05,-4e-05,-5.9999999999999995e-05,-0.00011,-0.00013000000000000002,-0.00015,5.9999999999999995e-05,6
28898,29943,0.00026000000000000003,2.9999999999999997e-05,-4e-05,-5.9999999999999995e-05,-0.00011,-0.00013000000000000002,-0.00015,5.9999999999999995e-05,6
28899,29944,0.00026000000000000003,2.9999999999999997e-05,-4e-05,-5.9999999999999995e-05,-0.00011,-0.00013000000000000002,-0.00015,5.9999999999999995e-05,6
28900,29945,0.00026000000000000003,2.9999999999999997e-05,-4e-05,-5.9999999999999995e-05,-0.00011,-0.00013000000000000002,-0.00015,5.9999999999999995e-05,6
28901,29946,0.00026000000000000003,2.9999999999999997e-05,-4e-05,-5.9999999999999995e-05,-0.00011,-0.00013000000000000002,-0.00015,5.9999999999999995e-05,6
28902,29947,0.00026000000000000003,2.9999999999999997e-05,-4e-05,-5.9999999999999995e-05,-0.00011,-0.00013000000000000002,-0.00015,5.9999999999999995e-05,6
28903,29949,0.00026000000000000003,2.9999999999999997e-05,-4e-05,-5.9999999999999995e-05,-0.00011,-0.00013000000000000002,-0.00015,5.9999999999999995e-05,6
28904,29950,0.00018999999999999998,5.9999999999999995e-05,1e-05,-5.9999999999999995e-05,-0.00014,-5.9999999999999995e-05,7e-05,0.00057,6
28905,29951,0.00018999999999999998,5.9999999999999995e-05,1e-05,-5.9999999999999995e-05,-0.00014,-5.9999999999999995e-05,7e-05,0.00057,6
28906,29952,7e-05,0.00011,-0.0001,-5.9999999999999995e-05,-2.9999999999999997e-05,-9e-05,-1e-05,-9e-05,6
28907,29953,7e-05,0.00011,-0.0001,-5.9999999999999995e-05,-2.9999999999999997e-05,-9e-05,-1e-05,-9e-05,6
28908,29954,7e-05,0.00011,-0.0001,-5.9999999999999995e-05,-2.9999999999999997e-05,-9e-05,-1e-05,-9e-05,6
28909,29955,7e-05,0.00011,-0.0001,-5.9999999999999995e-05,-2.9999999999999997e-05,-9e-05,-1e-05,-9e-05,6
28910,29956,7e-05,0.00011,-0.0001,-5.9999999999999995e-05,-2.9999999999999997e-05,-9e-05,-1e-05,-9e-05,6
28911,29957,7e-05,0.00011,-0.0001,-5.9999999999999995e-05,-2.9999999999999997e-05,-9e-05,-1e-05,-9e-05,6
28912,29958,7e-05,0.00011,-0.0001,-5.9999999999999995e-05,-2.9999999999999997e-05,-9e-05,-1e-05,-9e-05,6
28913,29959,7e-05,0.00011,-0.0001,-5.9999999999999995e-05,-2.9999999999999997e-05,-9e-05,-1e-05,-9e-05,6
28914,29960,7e-05,0.00011,-0.0001,-5.9999999999999995e-05,-2.9999999999999997e-05,-9e-05,-1e-05,-9e-05,6
28915,29961,7e-05,0.00011,-0.0001,-5.9999999999999995e-05,-2.9999999999999997e-05,-9e-05,-1e-05,-9e-05,6
28916,29962,7e-05,0.00011,-0.0001,-5.9999999999999995e-05,-2.9999999999999997e-05,-9e-05,-1e-05,-9e-05,6
28917,29963,7e-05,0.00011,-0.0001,-5.9999999999999995e-05,-2.9999999999999997e-05,-9e-05,-1e-05,-9e-05,6
28918,29964,7e-05,0.00011,-0.0001,-5.9999999999999995e-05,-2.9999999999999997e-05,-9e-05,-1e-05,-9e-05,6
28919,29965,7e-05,0.00011,-0.0001,-5.9999999999999995e-05,-2.9999999999999997e-05,-9e-05,-1e-05,-9e-05,6
28920,29966,7e-05,0.00011,-0.0001,-5.9999999999999995e-05,-2.9999999999999997e-05,-9e-05,-1e-05,-9e-05,6
28921,29967,7e-05,0.00011,-0.0001,-5.9999999999999995e-05,-2.9999999999999997e-05,-9e-05,-1e-05,-9e-05,6
28922,29968,7e-05,0.00011,-0.0001,-5.9999999999999995e-05,-2.9999999999999997e-05,-9e-05,-1e-05,-9e-05,6
28923,29969,7e-05,0.00011,-0.0001,-5.9999999999999995e-05,-2.9999999999999997e-05,-9e-05,-1e-05,-9e-05,6
28924,29970,7e-05,0.00011,-0.0001,-5.9999999999999995e-05,-2.9999999999999997e-05,-9e-05,-1e-05,-9e-05,6
28925,29971,7e-05,0.00011,-0.0001,-5.9999999999999995e-05,-2.9999999999999997e-05,-9e-05,-1e-05,-9e-05,6
28926,29972,-0.00061,-0.00057,-2.9999999999999997e-05,8e-05,0.00018999999999999998,0.00016999999999999999,1e-05,-0.00028,6
28927,29973,-0.00061,-0.00057,-2.9999999999999997e-05,8e-05,0.00018999999999999998,0.00016999999999999999,1e-05,-0.00028,6
28928,29974,0.00035,0.00032,0.00013000000000000002,0.00022999999999999998,0.00047999999999999996,0.00014,-5e-05,-0.0002,6
28929,29975,0.00035,0.00032,0.00013000000000000002,0.00022999999999999998,0.00047999999999999996,0.00014,-5e-05,-0.0002,6
28930,29976,0.00035,0.00032,0.00013000000000000002,0.00022999999999999998,0.00047999999999999996,0.00014,-5e-05,-0.0002,6
28931,29977,0.00035,0.00032,0.00013000000000000002,0.00022999999999999998,0.00047999999999999996,0.00014,-5e-05,-0.0002,6
28932,29978,0.00035,0.00032,0.00013000000000000002,0.00022999999999999998,0.00047999999999999996,0.00014,-5e-05,-0.0002,6
28933,29979,0.00035,0.00032,0.00013000000000000002,0.00022999999999999998,0.00047999999999999996,0.00014,-5e-05,-0.0002,6
28934,29980,0.00035,0.00032,0.00013000000000000002,0.00022999999999999998,0.00047999999999999996,0.00014,-5e-05,-0.0002,6
28935,29981,0.00035,0.00032,0.00013000000000000002,0.00022999999999999998,0.00047999999999999996,0.00014,-5e-05,-0.0002,6
28936,29982,0.00035,0.00032,0.00013000000000000002,0.00022999999999999998,0.00047999999999999996,0.00014,-5e-05,-0.0002,6
28937,29983,0.00035,0.00032,0.00013000000000000002,0.00022999999999999998,0.00047999999999999996,0.00014,-5e-05,-0.0002,6
28938,29984,0.00035,0.00032,0.00013000000000000002,0.00022999999999999998,0.00047999999999999996,0.00014,-5e-05,-0.0002,6
28939,29985,0.00035,0.00032,0.00013000000000000002,0.00022999999999999998,0.00047999999999999996,0.00014,-5e-05,-0.0002,6
28940,29987,-5.9999999999999995e-05,0.00011999999999999999,0.0,9e-05,0.00028,0.00015,-1e-05,-0.00037,6
28941,29989,-5.9999999999999995e-05,0.00011999999999999999,0.0,9e-05,0.00028,0.00015,-1e-05,-0.00037,6
28942,29991,-5.9999999999999995e-05,0.00011999999999999999,0.0,9e-05,0.00028,0.00015,-1e-05,-0.00037,6
28943,29992,-5.9999999999999995e-05,0.00011999999999999999,0.0,9e-05,0.00028,0.00015,-1e-05,-0.00037,6
28944,29993,-5.9999999999999995e-05,0.00011999999999999999,0.0,9e-05,0.00028,0.00015,-1e-05,-0.00037,6
28945,29994,-5.9999999999999995e-05,0.00011999999999999999,0.0,9e-05,0.00028,0.00015,-1e-05,-0.00037,6
28946,29995,-0.00018,-0.00016,9e-05,-2e-05,-0.0001,-5e-05,-0.00013000000000000002,-0.00035,6
28947,29996,5.9999999999999995e-05,0.00011,2e-05,-0.00014,-0.00033,-9e-05,-2.9999999999999997e-05,-0.00056,6
28948,29997,5.9999999999999995e-05,0.00011,2e-05,-0.00014,-0.00033,-9e-05,-2.9999999999999997e-05,-0.00056,6
28949,29998,5.9999999999999995e-05,0.00011,2e-05,-0.00014,-0.00033,-9e-05,-2.9999999999999997e-05,-0.00056,6
28950,29999,5.9999999999999995e-05,0.00011,2e-05,-0.00014,-0.00033,-9e-05,-2.9999999999999997e-05,-0.00056,6
28951,30000,5.9999999999999995e-05,0.00011,2e-05,-0.00014,-0.00033,-9e-05,-2.9999999999999997e-05,-0.00056,6
28952,30001,5.9999999999999995e-05,0.00011,2e-05,-0.00014,-0.00033,-9e-05,-2.9999999999999997e-05,-0.00056,6
28953,30002,5.9999999999999995e-05,0.00011,2e-05,-0.00014,-0.00033,-9e-05,-2.9999999999999997e-05,-0.00056,6
28954,30003,5.9999999999999995e-05,0.00011,2e-05,-0.00014,-0.00033,-9e-05,-2.9999999999999997e-05,-0.00056,6
28955,30004,5.9999999999999995e-05,0.00011,2e-05,-0.00014,-0.00033,-9e-05,-2.9999999999999997e-05,-0.00056,6
28956,30005,5.9999999999999995e-05,0.00011,2e-05,-0.00014,-0.00033,-9e-05,-2.9999999999999997e-05,-0.00056,6
28957,30006,5.9999999999999995e-05,0.00011,2e-05,-0.00014,-0.00033,-9e-05,-2.9999999999999997e-05,-0.00056,6
28958,30007,5.9999999999999995e-05,0.00011,2e-05,-0.00014,-0.00033,-9e-05,-2.9999999999999997e-05,-0.00056,6
28959,30008,5.9999999999999995e-05,0.00011,2e-05,-0.00014,-0.00033,-9e-05,-2.9999999999999997e-05,-0.00056,6
28960,30009,5.9999999999999995e-05,0.00011,2e-05,-0.00014,-0.00033,-9e-05,-2.9999999999999997e-05,-0.00056,6
28961,30010,-0.00045,-0.00022999999999999998,9e-05,0.00014,0.00014,0.00011,-0.00013000000000000002,-0.00049,6
28962,30011,-0.00045,-0.00022999999999999998,9e-05,0.00014,0.00014,0.00011,-0.00013000000000000002,-0.00049,6
28963,30012,-0.00018,-8e-05,-2.9999999999999997e-05,-1e-05,-5e-05,5e-05,-4e-05,-0.00011,6
28964,30013,-0.00018,-8e-05,-2.9999999999999997e-05,-1e-05,-5e-05,5e-05,-4e-05,-0.00011,6
28965,30014,-0.00018,-8e-05,-2.9999999999999997e-05,-1e-05,-5e-05,5e-05,-4e-05,-0.00011,6
28966,30015,-0.00018,-8e-05,-2.9999999999999997e-05,-1e-05,-5e-05,5e-05,-4e-05,-0.00011,6
28967,30016,-0.00018,-8e-05,-2.9999999999999997e-05,-1e-05,-5e-05,5e-05,-4e-05,-0.00011,6
28968,30017,-0.00018,-8e-05,-2.9999999999999997e-05,-1e-05,-5e-05,5e-05,-4e-05,-0.00011,6
28969,30018,-0.00018,-8e-05,-2.9999999999999997e-05,-1e-05,-5e-05,5e-05,-4e-05,-0.00011,6
28970,30019,-0.00018,-8e-05,-2.9999999999999997e-05,-1e-05,-5e-05,5e-05,-4e-05,-0.00011,6
28971,30020,-0.00018,-8e-05,-2.9999999999999997e-05,-1e-05,-5e-05,5e-05,-4e-05,-0.00011,6
28972,30021,-0.00018,-8e-05,-2.9999999999999997e-05,-1e-05,-5e-05,5e-05,-4e-05,-0.00011,6
28973,30022,-0.00018,-8e-05,-2.9999999999999997e-05,-1e-05,-5e-05,5e-05,-4e-05,-0.00011,6
28974,30023,-0.00018,-8e-05,-2.9999999999999997e-05,-1e-05,-5e-05,5e-05,-4e-05,-0.00011,6
28975,30024,-0.00016,0.00018,2e-05,-5.9999999999999995e-05,-0.00015,-0.00013000000000000002,-2e-05,0.00011999999999999999,6
28976,30025,-0.00016,0.00018,2e-05,-5.9999999999999995e-05,-0.00015,-0.00013000000000000002,-2e-05,0.00011999999999999999,6
28977,30026,-0.00016,0.00018,2e-05,-5.9999999999999995e-05,-0.00015,-0.00013000000000000002,-2e-05,0.00011999999999999999,6
28978,30027,-0.00016,0.00018,2e-05,-5.9999999999999995e-05,-0.00015,-0.00013000000000000002,-2e-05,0.00011999999999999999,6
28979,30028,-0.00016,0.00018,2e-05,-5.9999999999999995e-05,-0.00015,-0.00013000000000000002,-2e-05,0.00011999999999999999,6
28980,30029,-0.00016,0.00018,2e-05,-5.9999999999999995e-05,-0.00015,-0.00013000000000000002,-2e-05,0.00011999999999999999,6
28981,30030,-0.00016,0.00018,2e-05,-5.9999999999999995e-05,-0.00015,-0.00013000000000000002,-2e-05,0.00011999999999999999,6
28982,30031,-0.00016,0.00018,2e-05,-5.9999999999999995e-05,-0.00015,-0.00013000000000000002,-2e-05,0.00011999999999999999,6
28983,30032,-2e-05,-5e-05,-4e-05,-0.00011,-0.00011999999999999999,-8e-05,0.0002,-8e-05,6
28984,30033,-0.00035,-0.00025,-5e-05,7e-05,0.0001,0.00013000000000000002,0.00014,0.0005200000000000001,6
28985,30034,-0.00035,-0.00025,-5e-05,7e-05,0.0001,0.00013000000000000002,0.00014,0.0005200000000000001,6
28986,30035,-0.00035,-0.00025,-5e-05,7e-05,0.0001,0.00013000000000000002,0.00014,0.0005200000000000001,6
28987,30044,-0.00035,-0.00025,-5e-05,7e-05,0.0001,0.00013000000000000002,0.00014,0.0005200000000000001,6
28988,30046,-0.00035,-0.00025,-5e-05,7e-05,0.0001,0.00013000000000000002,0.00014,0.0005200000000000001,6
28989,30047,-0.00035,-0.00025,-5e-05,7e-05,0.0001,0.00013000000000000002,0.00014,0.0005200000000000001,6
28990,30048,-0.00033,-0.00026000000000000003,-8e-05,-0.0001,-0.00015,-0.00021,-0.0003,-0.0005200000000000001,6
28991,30049,4e-05,-0.00033,-0.00021,-5.9999999999999995e-05,-4e-05,-5e-05,1e-05,-2.9999999999999997e-05,6
28992,30050,4e-05,-0.00033,-0.00021,-5.9999999999999995e-05,-4e-05,-5e-05,1e-05,-2.9999999999999997e-05,6
28993,30051,4e-05,-0.00033,-0.00021,-5.9999999999999995e-05,-4e-05,-5e-05,1e-05,-2.9999999999999997e-05,6
28994,30052,4e-05,-0.00033,-0.00021,-5.9999999999999995e-05,-4e-05,-5e-05,1e-05,-2.9999999999999997e-05,6
28995,30053,4e-05,-0.00033,-0.00021,-5.9999999999999995e-05,-4e-05,-5e-05,1e-05,-2.9999999999999997e-05,6
28996,30054,4e-05,-0.00033,-0.00021,-5.9999999999999995e-05,-4e-05,-5e-05,1e-05,-2.9999999999999997e-05,6
28997,30055,4e-05,-0.00033,-0.00021,-5.9999999999999995e-05,-4e-05,-5e-05,1e-05,-2.9999999999999997e-05,6
28998,30056,4e-05,-0.00033,-0.00021,-5.9999999999999995e-05,-4e-05,-5e-05,1e-05,-2.9999999999999997e-05,6
28999,30057,4e-05,-0.00033,-0.00021,-5.9999999999999995e-05,-4e-05,-5e-05,1e-05,-2.9999999999999997e-05,6
29000,30058,4e-05,-0.00033,-0.00021,-5.9999999999999995e-05,-4e-05,-5e-05,1e-05,-2.9999999999999997e-05,6
29001,30059,4e-05,-0.00033,-0.00021,-5.9999999999999995e-05,-4e-05,-5e-05,1e-05,-2.9999999999999997e-05,6
29002,30060,4e-05,-0.00033,-0.00021,-5.9999999999999995e-05,-4e-05,-5e-05,1e-05,-2.9999999999999997e-05,6
29003,30061,4e-05,-0.00033,-0.00021,-5.9999999999999995e-05,-4e-05,-5e-05,1e-05,-2.9999999999999997e-05,6
29004,30062,4e-05,-0.00033,-0.00021,-5.9999999999999995e-05,-4e-05,-5e-05,1e-05,-2.9999999999999997e-05,6
29005,30063,4e-05,-0.00033,-0.00021,-5.9999999999999995e-05,-4e-05,-5e-05,1e-05,-2.9999999999999997e-05,6
29006,30064,4e-05,-0.00033,-0.00021,-5.9999999999999995e-05,-4e-05,-5e-05,1e-05,-2.9999999999999997e-05,6
29007,30065,4e-05,-0.00033,-0.00021,-5.9999999999999995e-05,-4e-05,-5e-05,1e-05,-2.9999999999999997e-05,6
29008,30066,4e-05,-0.00033,-0.00021,-5.9999999999999995e-05,-4e-05,-5e-05,1e-05,-2.9999999999999997e-05,6
29009,30067,4e-05,-0.00033,-0.00021,-5.9999999999999995e-05,-4e-05,-5e-05,1e-05,-2.9999999999999997e-05,6
29010,30068,4e-05,-0.00033,-0.00021,-5.9999999999999995e-05,-4e-05,-5e-05,1e-05,-2.9999999999999997e-05,6
29011,30069,4e-05,-0.00033,-0.00021,-5.9999999999999995e-05,-4e-05,-5e-05,1e-05,-2.9999999999999997e-05,6
29012,30070,0.00037999999999999997,0.00016999999999999999,-4e-05,-8e-05,-0.00015,-0.00016999999999999999,-0.00016,0.0002,6
29013,30071,0.00016999999999999999,-2.9999999999999997e-05,0.0,0.00011999999999999999,0.00018,2e-05,-0.00016999999999999999,-0.00028,6
29014,30072,0.00029,0.00022,-5e-05,-5e-05,-0.00011,-7e-05,-9e-05,0.00015,6
29015,30073,0.00029,0.00022,-5e-05,-5e-05,-0.00011,-7e-05,-9e-05,0.00015,6
29016,30074,0.00029,0.00022,-5e-05,-5e-05,-0.00011,-7e-05,-9e-05,0.00015,6
29017,30075,0.00029,0.00022,-5e-05,-5e-05,-0.00011,-7e-05,-9e-05,0.00015,6
29018,30076,0.00029,0.00022,-5e-05,-5e-05,-0.00011,-7e-05,-9e-05,0.00015,6
29019,30077,0.00029,0.00022,-5e-05,-5e-05,-0.00011,-7e-05,-9e-05,0.00015,6
29020,30078,0.00029,0.00022,-5e-05,-5e-05,-0.00011,-7e-05,-9e-05,0.00015,6
29021,30079,0.00029,0.00022,-5e-05,-5e-05,-0.00011,-7e-05,-9e-05,0.00015,6
29022,30080,0.00029,0.00022,-5e-05,-5e-05,-0.00011,-7e-05,-9e-05,0.00015,6
29023,30081,0.00029,0.00022,-5e-05,-5e-05,-0.00011,-7e-05,-9e-05,0.00015,6
29024,30082,0.00029,0.00022,-5e-05,-5e-05,-0.00011,-7e-05,-9e-05,0.00015,6
29025,30083,0.00029,0.00022,-5e-05,-5e-05,-0.00011,-7e-05,-9e-05,0.00015,6
29026,30084,-0.00025,-0.00035,-1e-05,-5e-05,-0.0002,-0.00011999999999999999,-0.0001,-0.00025,6
29027,30085,-0.00025,-0.00035,-1e-05,-5e-05,-0.0002,-0.00011999999999999999,-0.0001,-0.00025,6
29028,30086,-0.00025,-0.00035,-1e-05,-5e-05,-0.0002,-0.00011999999999999999,-0.0001,-0.00025,6
29029,30089,-0.00025,-0.00035,-1e-05,-5e-05,-0.0002,-0.00011999999999999999,-0.0001,-0.00025,6
29030,30090,-0.00025,-0.00035,-1e-05,-5e-05,-0.0002,-0.00011999999999999999,-0.0001,-0.00025,6
29031,30091,-0.00025,-0.00035,-1e-05,-5e-05,-0.0002,-0.00011999999999999999,-0.0001,-0.00025,6
29032,30092,-0.00025,-0.00035,-1e-05,-5e-05,-0.0002,-0.00011999999999999999,-0.0001,-0.00025,6
29033,30093,-0.00025,-0.00035,-1e-05,-5e-05,-0.0002,-0.00011999999999999999,-0.0001,-0.00025,6
29034,30094,-0.00025,-0.00035,-1e-05,-5e-05,-0.0002,-0.00011999999999999999,-0.0001,-0.00025,6
29035,30095,-0.00025,-0.00035,-1e-05,-5e-05,-0.0002,-0.00011999999999999999,-0.0001,-0.00025,6
29036,30096,-0.00025,-0.00035,-1e-05,-5e-05,-0.0002,-0.00011999999999999999,-0.0001,-0.00025,6
29037,30097,-0.00025,-0.00035,-1e-05,-5e-05,-0.0002,-0.00011999999999999999,-0.0001,-0.00025,6
29038,30098,-0.00025,-0.00035,-1e-05,-5e-05,-0.0002,-0.00011999999999999999,-0.0001,-0.00025,6
29039,30099,-4e-05,0.00011999999999999999,5.9999999999999995e-05,2e-05,0.00016999999999999999,0.00016999999999999999,-0.00014,-0.00055,6
29040,30100,-2.9999999999999997e-05,-0.00011999999999999999,-8e-05,-0.0001,-0.0002,-0.00065,-0.00055,0.00022999999999999998,6
29041,30101,-2.9999999999999997e-05,-0.00011999999999999999,-8e-05,-0.0001,-0.0002,-0.00065,-0.00055,0.00022999999999999998,6
29042,30102,-2.9999999999999997e-05,-0.00011999999999999999,-8e-05,-0.0001,-0.0002,-0.00065,-0.00055,0.00022999999999999998,6
29043,30103,-2.9999999999999997e-05,-0.00011999999999999999,-8e-05,-0.0001,-0.0002,-0.00065,-0.00055,0.00022999999999999998,6
29044,30104,-2.9999999999999997e-05,-0.00011999999999999999,-8e-05,-0.0001,-0.0002,-0.00065,-0.00055,0.00022999999999999998,6
29045,30105,-2.9999999999999997e-05,-0.00011999999999999999,-8e-05,-0.0001,-0.0002,-0.00065,-0.00055,0.00022999999999999998,6
29046,30106,-2.9999999999999997e-05,-0.00011999999999999999,-8e-05,-0.0001,-0.0002,-0.00065,-0.00055,0.00022999999999999998,6
29047,30107,0.00018999999999999998,0.00022,0.00011,0.0001,0.00027,0.0008,0.0005200000000000001,0.00033,6
29048,30108,0.00018999999999999998,0.00022,0.00011,0.0001,0.00027,0.0008,0.0005200000000000001,0.00033,6
29049,30109,-0.00036,-0.00018999999999999998,2e-05,-5e-05,-0.00018,-0.00016999999999999999,-0.00016,-0.00067,6
29050,30110,-0.00036,-0.00018999999999999998,2e-05,-5e-05,-0.00018,-0.00016999999999999999,-0.00016,-0.00067,6
29051,30111,-0.00036,-0.00018999999999999998,2e-05,-5e-05,-0.00018,-0.00016999999999999999,-0.00016,-0.00067,6
29052,30112,-0.00036,-0.00018999999999999998,2e-05,-5e-05,-0.00018,-0.00016999999999999999,-0.00016,-0.00067,6
29053,30113,-0.00036,-0.00018999999999999998,2e-05,-5e-05,-0.00018,-0.00016999999999999999,-0.00016,-0.00067,6
29054,30114,-0.00036,-0.00018999999999999998,2e-05,-5e-05,-0.00018,-0.00016999999999999999,-0.00016,-0.00067,6
29055,30115,-0.00036,-0.00018999999999999998,2e-05,-5e-05,-0.00018,-0.00016999999999999999,-0.00016,-0.00067,6
29056,30116,-0.00036,-0.00018999999999999998,2e-05,-5e-05,-0.00018,-0.00016999999999999999,-0.00016,-0.00067,6
29057,30117,-0.00036,-0.00018999999999999998,2e-05,-5e-05,-0.00018,-0.00016999999999999999,-0.00016,-0.00067,6
29058,30118,-0.00036,-0.00018999999999999998,2e-05,-5e-05,-0.00018,-0.00016999999999999999,-0.00016,-0.00067,6
29059,30119,-0.00036,-0.00018999999999999998,2e-05,-5e-05,-0.00018,-0.00016999999999999999,-0.00016,-0.00067,6
29060,30120,-0.00036,-0.00018999999999999998,2e-05,-5e-05,-0.00018,-0.00016999999999999999,-0.00016,-0.00067,6
29061,30121,-0.00036,-0.00018999999999999998,2e-05,-5e-05,-0.00018,-0.00016999999999999999,-0.00016,-0.00067,6
29062,30122,-0.00036,-0.00018999999999999998,2e-05,-5e-05,-0.00018,-0.00016999999999999999,-0.00016,-0.00067,6
29063,30123,-0.00036,-0.00018999999999999998,2e-05,-5e-05,-0.00018,-0.00016999999999999999,-0.00016,-0.00067,6
29064,30124,-0.00036,-0.00018999999999999998,2e-05,-5e-05,-0.00018,-0.00016999999999999999,-0.00016,-0.00067,6
29065,30125,-0.00036,-0.00018999999999999998,2e-05,-5e-05,-0.00018,-0.00016999999999999999,-0.00016,-0.00067,6
29066,30126,-0.00036,-0.00018999999999999998,2e-05,-5e-05,-0.00018,-0.00016999999999999999,-0.00016,-0.00067,6
29067,30127,-0.00036,-0.00018999999999999998,2e-05,-5e-05,-0.00018,-0.00016999999999999999,-0.00016,-0.00067,6
29068,30128,-0.00036,-0.00018999999999999998,2e-05,-5e-05,-0.00018,-0.00016999999999999999,-0.00016,-0.00067,6
29069,30129,-0.00036,-0.00018999999999999998,2e-05,-5e-05,-0.00018,-0.00016999999999999999,-0.00016,-0.00067,6
29070,30130,0.00014,0.00016,-4e-05,-4e-05,4e-05,0.00025,0.00022999999999999998,2e-05,6
29071,30131,-0.00033,8e-05,0.0001,0.00021,0.00053,0.00021,4e-05,0.00018,6
29072,30132,-0.00033,8e-05,0.0001,0.00021,0.00053,0.00021,4e-05,0.00018,6
29073,30133,-0.00033,8e-05,0.0001,0.00021,0.00053,0.00021,4e-05,0.00018,6
29074,30134,-0.00033,8e-05,0.0001,0.00021,0.00053,0.00021,4e-05,0.00018,6
29075,30135,-0.00033,8e-05,0.0001,0.00021,0.00053,0.00021,4e-05,0.00018,6
29076,30137,-0.00033,8e-05,0.0001,0.00021,0.00053,0.00021,4e-05,0.00018,6
29077,30140,-0.00033,8e-05,0.0001,0.00021,0.00053,0.00021,4e-05,0.00018,6
29078,30141,-0.00033,8e-05,0.0001,0.00021,0.00053,0.00021,4e-05,0.00018,6
29079,30142,-0.00033,8e-05,0.0001,0.00021,0.00053,0.00021,4e-05,0.00018,6
29080,30143,-0.00033,8e-05,0.0001,0.00021,0.00053,0.00021,4e-05,0.00018,6
29081,30144,0.00028,0.00033999999999999997,-4e-05,-5e-05,-0.00015,-0.00031,-0.00045,0.00037,6
29082,30145,0.00028,0.00033999999999999997,-4e-05,-5e-05,-0.00015,-0.00031,-0.00045,0.00037,6
29083,30146,0.00028,0.00033999999999999997,-4e-05,-5e-05,-0.00015,-0.00031,-0.00045,0.00037,6
29084,30147,0.00028,0.00033999999999999997,-4e-05,-5e-05,-0.00015,-0.00031,-0.00045,0.00037,6
29085,30148,0.00028,0.00033999999999999997,-4e-05,-5e-05,-0.00015,-0.00031,-0.00045,0.00037,6
29086,30149,0.00028,0.00033999999999999997,-4e-05,-5e-05,-0.00015,-0.00031,-0.00045,0.00037,6
29087,30150,0.00028,0.00033999999999999997,-4e-05,-5e-05,-0.00015,-0.00031,-0.00045,0.00037,6
29088,30151,0.00028,0.00033999999999999997,-4e-05,-5e-05,-0.00015,-0.00031,-0.00045,0.00037,6
29089,30152,0.00028,0.00033999999999999997,-4e-05,-5e-05,-0.00015,-0.00031,-0.00045,0.00037,6
29090,30153,0.00021,0.0002,-4e-05,-0.00011,-0.0002,-7e-05,1e-05,-2e-05,6
29091,30154,0.00021,0.0002,-4e-05,-0.00011,-0.0002,-7e-05,1e-05,-2e-05,6
29092,30155,0.00021,0.0002,-4e-05,-0.00011,-0.0002,-7e-05,1e-05,-2e-05,6
29093,30156,0.00021,0.0002,-4e-05,-0.00011,-0.0002,-7e-05,1e-05,-2e-05,6
29094,30157,0.00021,0.0002,-4e-05,-0.00011,-0.0002,-7e-05,1e-05,-2e-05,6
29095,30158,0.00021,0.0002,-4e-05,-0.00011,-0.0002,-7e-05,1e-05,-2e-05,6
29096,30159,0.00021,0.0002,-4e-05,-0.00011,-0.0002,-7e-05,1e-05,-2e-05,6
29097,30160,0.00021,0.0002,-4e-05,-0.00011,-0.0002,-7e-05,1e-05,-2e-05,6
29098,30161,0.00021,0.0002,-4e-05,-0.00011,-0.0002,-7e-05,1e-05,-2e-05,6
29099,30162,0.00021,0.0002,-4e-05,-0.00011,-0.0002,-7e-05,1e-05,-2e-05,6
29100,30163,0.00021,0.0002,-4e-05,-0.00011,-0.0002,-7e-05,1e-05,-2e-05,6
29101,30164,0.00021,0.0002,-4e-05,-0.00011,-0.0002,-7e-05,1e-05,-2e-05,6
29102,30165,0.00021,0.0002,-4e-05,-0.00011,-0.0002,-7e-05,1e-05,-2e-05,6
29103,30166,0.00021,0.0002,-4e-05,-0.00011,-0.0002,-7e-05,1e-05,-2e-05,6
29104,30167,0.00021,0.0002,-4e-05,-0.00011,-0.0002,-7e-05,1e-05,-2e-05,6
29105,30168,0.00021,0.0002,-4e-05,-0.00011,-0.0002,-7e-05,1e-05,-2e-05,6
29106,30169,0.00021,0.0002,-4e-05,-0.00011,-0.0002,-7e-05,1e-05,-2e-05,6
29107,30170,0.00021,0.0002,-4e-05,-0.00011,-0.0002,-7e-05,1e-05,-2e-05,6
29108,30171,0.00021,0.0002,-4e-05,-0.00011,-0.0002,-7e-05,1e-05,-2e-05,6
29109,30172,0.00021,0.0002,-4e-05,-0.00011,-0.0002,-7e-05,1e-05,-2e-05,6
29110,30173,0.00021,0.0002,-4e-05,-0.00011,-0.0002,-7e-05,1e-05,-2e-05,6
29111,30174,0.00021,0.0002,-4e-05,-0.00011,-0.0002,-7e-05,1e-05,-2e-05,6
29112,30175,0.00015,0.0002,1e-05,2e-05,0.00011999999999999999,0.00027,0.00033,0.00023999999999999998,6
29113,30176,0.00015,0.0002,1e-05,2e-05,0.00011999999999999999,0.00027,0.00033,0.00023999999999999998,6
29114,30177,5.9999999999999995e-05,-0.00011999999999999999,5e-05,-1e-05,-4e-05,0.00014,8e-05,0.00045,6
29115,30178,5.9999999999999995e-05,-0.00011999999999999999,5e-05,-1e-05,-4e-05,0.00014,8e-05,0.00045,6
29116,30179,5.9999999999999995e-05,-0.00011999999999999999,5e-05,-1e-05,-4e-05,0.00014,8e-05,0.00045,6
29117,30180,5.9999999999999995e-05,-0.00011999999999999999,5e-05,-1e-05,-4e-05,0.00014,8e-05,0.00045,6
29118,30181,5.9999999999999995e-05,-0.00011999999999999999,5e-05,-1e-05,-4e-05,0.00014,8e-05,0.00045,6
29119,30182,5.9999999999999995e-05,-0.00011999999999999999,5e-05,-1e-05,-4e-05,0.00014,8e-05,0.00045,6
29120,30183,5.9999999999999995e-05,-0.00011999999999999999,5e-05,-1e-05,-4e-05,0.00014,8e-05,0.00045,6
29121,30184,5.9999999999999995e-05,-0.00011999999999999999,5e-05,-1e-05,-4e-05,0.00014,8e-05,0.00045,6
29122,30185,5.9999999999999995e-05,-0.00011999999999999999,5e-05,-1e-05,-4e-05,0.00014,8e-05,0.00045,6
29123,30186,5.9999999999999995e-05,-0.00011999999999999999,5e-05,-1e-05,-4e-05,0.00014,8e-05,0.00045,6
29124,30189,5.9999999999999995e-05,-0.00011999999999999999,5e-05,-1e-05,-4e-05,0.00014,8e-05,0.00045,6
29125,30190,5.9999999999999995e-05,-0.00011999999999999999,5e-05,-1e-05,-4e-05,0.00014,8e-05,0.00045,6
29126,30191,5.9999999999999995e-05,-0.00011999999999999999,5e-05,-1e-05,-4e-05,0.00014,8e-05,0.00045,6
29127,30192,5.9999999999999995e-05,-0.00011999999999999999,5e-05,-1e-05,-4e-05,0.00014,8e-05,0.00045,6
29128,30193,5.9999999999999995e-05,-0.00011999999999999999,5e-05,-1e-05,-4e-05,0.00014,8e-05,0.00045,6
29129,30194,5.9999999999999995e-05,-0.00011999999999999999,5e-05,-1e-05,-4e-05,0.00014,8e-05,0.00045,6
29130,30195,5.9999999999999995e-05,-0.00011999999999999999,5e-05,-1e-05,-4e-05,0.00014,8e-05,0.00045,6
29131,30197,5.9999999999999995e-05,-0.00011999999999999999,5e-05,-1e-05,-4e-05,0.00014,8e-05,0.00045,6
29132,30198,5.9999999999999995e-05,-0.00011999999999999999,5e-05,-1e-05,-4e-05,0.00014,8e-05,0.00045,6
29133,30199,0.00018999999999999998,-5.9999999999999995e-05,-1e-05,-1e-05,2e-05,-0.00018,-0.0002,-9e-05,6
29134,30200,0.00018999999999999998,-5.9999999999999995e-05,-1e-05,-1e-05,2e-05,-0.00018,-0.0002,-9e-05,6
29135,30201,0.00011,0.00011,-1e-05,7e-05,0.00033999999999999997,0.0005099999999999999,0.00033999999999999997,0.0002,6
29136,30202,0.00011,0.00011,-1e-05,7e-05,0.00033999999999999997,0.0005099999999999999,0.00033999999999999997,0.0002,6
29137,30203,0.00011,0.00011,-1e-05,7e-05,0.00033999999999999997,0.0005099999999999999,0.00033999999999999997,0.0002,6
29138,30204,0.00011,0.00011,-1e-05,7e-05,0.00033999999999999997,0.0005099999999999999,0.00033999999999999997,0.0002,6
29139,30205,0.00011,0.00011,-1e-05,7e-05,0.00033999999999999997,0.0005099999999999999,0.00033999999999999997,0.0002,6
29140,30206,0.00011,0.00011,-1e-05,7e-05,0.00033999999999999997,0.0005099999999999999,0.00033999999999999997,0.0002,6
29141,30207,0.00011,0.00011,-1e-05,7e-05,0.00033999999999999997,0.0005099999999999999,0.00033999999999999997,0.0002,6
29142,30208,0.00011,0.00011,-1e-05,7e-05,0.00033999999999999997,0.0005099999999999999,0.00033999999999999997,0.0002,6
29143,30209,0.00011,0.00011,-1e-05,7e-05,0.00033999999999999997,0.0005099999999999999,0.00033999999999999997,0.0002,6
29144,30210,0.00011,0.00011,-1e-05,7e-05,0.00033999999999999997,0.0005099999999999999,0.00033999999999999997,0.0002,6
29145,30211,0.00011,0.00011,-1e-05,7e-05,0.00033999999999999997,0.0005099999999999999,0.00033999999999999997,0.0002,6
29146,30212,0.00011,0.00011,-1e-05,7e-05,0.00033999999999999997,0.0005099999999999999,0.00033999999999999997,0.0002,6
29147,30213,-0.00027,-0.00011999999999999999,-4e-05,-8e-05,-0.00015,-0.00016999999999999999,-2.9999999999999997e-05,5e-05,6
29148,30214,0.00022,0.0004,5e-05,9e-05,0.00021,0.00015,7e-05,-0.00018,6
29149,30215,0.00022,0.0004,5e-05,9e-05,0.00021,0.00015,7e-05,-0.00018,6
29150,30216,0.00022,0.0004,5e-05,9e-05,0.00021,0.00015,7e-05,-0.00018,6
29151,30217,0.00022,0.0004,5e-05,9e-05,0.00021,0.00015,7e-05,-0.00018,6
29152,30218,0.00022,0.0004,5e-05,9e-05,0.00021,0.00015,7e-05,-0.00018,6
29153,30219,0.00022,0.0004,5e-05,9e-05,0.00021,0.00015,7e-05,-0.00018,6
29154,30220,0.00022,0.0004,5e-05,9e-05,0.00021,0.00015,7e-05,-0.00018,6
29155,30221,0.00022,0.0004,5e-05,9e-05,0.00021,0.00015,7e-05,-0.00018,6
29156,30222,0.00022,0.0004,5e-05,9e-05,0.00021,0.00015,7e-05,-0.00018,6
29157,30223,0.00022,0.0004,5e-05,9e-05,0.00021,0.00015,7e-05,-0.00018,6
29158,30224,0.00022,0.0004,5e-05,9e-05,0.00021,0.00015,7e-05,-0.00018,6
29159,30225,0.00022,0.0004,5e-05,9e-05,0.00021,0.00015,7e-05,-0.00018,6
29160,30226,0.00022,0.0004,5e-05,9e-05,0.00021,0.00015,7e-05,-0.00018,6
29161,30227,0.00022,0.0004,5e-05,9e-05,0.00021,0.00015,7e-05,-0.00018,6
29162,30228,2e-05,8e-05,-2e-05,2e-05,5e-05,0.0,-1e-05,-0.00014,6
29163,30229,-0.00016,-2.9999999999999997e-05,-0.0001,-0.0001,-0.00016999999999999999,-0.00016999999999999999,-5.9999999999999995e-05,-0.00016,6
29164,30230,-0.00016,-2.9999999999999997e-05,-0.0001,-0.0001,-0.00016999999999999999,-0.00016999999999999999,-5.9999999999999995e-05,-0.00016,6
29165,30231,-0.00016,-2.9999999999999997e-05,-0.0001,-0.0001,-0.00016999999999999999,-0.00016999999999999999,-5.9999999999999995e-05,-0.00016,6
29166,30232,-0.00016,-2.9999999999999997e-05,-0.0001,-0.0001,-0.00016999999999999999,-0.00016999999999999999,-5.9999999999999995e-05,-0.00016,6
29167,30233,-0.00016,-2.9999999999999997e-05,-0.0001,-0.0001,-0.00016999999999999999,-0.00016999999999999999,-5.9999999999999995e-05,-0.00016,6
29168,30234,-0.00016,-2.9999999999999997e-05,-0.0001,-0.0001,-0.00016999999999999999,-0.00016999999999999999,-5.9999999999999995e-05,-0.00016,6
29169,30235,-0.00016,-2.9999999999999997e-05,-0.0001,-0.0001,-0.00016999999999999999,-0.00016999999999999999,-5.9999999999999995e-05,-0.00016,6
29170,30236,-0.00016,-2.9999999999999997e-05,-0.0001,-0.0001,-0.00016999999999999999,-0.00016999999999999999,-5.9999999999999995e-05,-0.00016,6
29171,30238,-0.00016,-2.9999999999999997e-05,-0.0001,-0.0001,-0.00016999999999999999,-0.00016999999999999999,-5.9999999999999995e-05,-0.00016,6
29172,30240,-0.00016,-2.9999999999999997e-05,-0.0001,-0.0001,-0.00016999999999999999,-0.00016999999999999999,-5.9999999999999995e-05,-0.00016,6
29173,30241,-0.00016,-2.9999999999999997e-05,-0.0001,-0.0001,-0.00016999999999999999,-0.00016999999999999999,-5.9999999999999995e-05,-0.00016,6
29174,30242,-0.00016,-2.9999999999999997e-05,-0.0001,-0.0001,-0.00016999999999999999,-0.00016999999999999999,-5.9999999999999995e-05,-0.00016,6
29175,30243,-0.00016,-2.9999999999999997e-05,-0.0001,-0.0001,-0.00016999999999999999,-0.00016999999999999999,-5.9999999999999995e-05,-0.00016,6
29176,30244,-0.00016,-2.9999999999999997e-05,-0.0001,-0.0001,-0.00016999999999999999,-0.00016999999999999999,-5.9999999999999995e-05,-0.00016,6
29177,30245,-0.00016,-2.9999999999999997e-05,-0.0001,-0.0001,-0.00016999999999999999,-0.00016999999999999999,-5.9999999999999995e-05,-0.00016,6
29178,30246,-0.00016,-2.9999999999999997e-05,-0.0001,-0.0001,-0.00016999999999999999,-0.00016999999999999999,-5.9999999999999995e-05,-0.00016,6
29179,30247,-0.00016,-2.9999999999999997e-05,-0.0001,-0.0001,-0.00016999999999999999,-0.00016999999999999999,-5.9999999999999995e-05,-0.00016,6
29180,30248,-0.00016,-2.9999999999999997e-05,-0.0001,-0.0001,-0.00016999999999999999,-0.00016999999999999999,-5.9999999999999995e-05,-0.00016,6
29181,30250,0.00011999999999999999,-2.9999999999999997e-05,-2.9999999999999997e-05,4e-05,0.00011,-5.9999999999999995e-05,0.00013000000000000002,0.00016999999999999999,6
29182,30251,0.00064,0.00043,0.0,-5.9999999999999995e-05,9e-05,0.0,2.9999999999999997e-05,0.00027,6
29183,30252,0.00064,0.00043,0.0,-5.9999999999999995e-05,9e-05,0.0,2.9999999999999997e-05,0.00027,6
29184,30253,0.00064,0.00043,0.0,-5.9999999999999995e-05,9e-05,0.0,2.9999999999999997e-05,0.00027,6
29185,30254,0.00064,0.00043,0.0,-5.9999999999999995e-05,9e-05,0.0,2.9999999999999997e-05,0.00027,6
29186,30255,0.00064,0.00043,0.0,-5.9999999999999995e-05,9e-05,0.0,2.9999999999999997e-05,0.00027,6
29187,30256,0.00064,0.00043,0.0,-5.9999999999999995e-05,9e-05,0.0,2.9999999999999997e-05,0.00027,6
29188,30257,0.00064,0.00043,0.0,-5.9999999999999995e-05,9e-05,0.0,2.9999999999999997e-05,0.00027,6
29189,30258,0.00064,0.00043,0.0,-5.9999999999999995e-05,9e-05,0.0,2.9999999999999997e-05,0.00027,6
29190,30259,0.00064,0.00043,0.0,-5.9999999999999995e-05,9e-05,0.0,2.9999999999999997e-05,0.00027,6
29191,30260,0.00064,0.00043,0.0,-5.9999999999999995e-05,9e-05,0.0,2.9999999999999997e-05,0.00027,6
29192,30261,0.00064,0.00043,0.0,-5.9999999999999995e-05,9e-05,0.0,2.9999999999999997e-05,0.00027,6
29193,30262,0.00064,0.00043,0.0,-5.9999999999999995e-05,9e-05,0.0,2.9999999999999997e-05,0.00027,6
29194,30263,0.00064,0.00043,0.0,-5.9999999999999995e-05,9e-05,0.0,2.9999999999999997e-05,0.00027,6
29195,30264,0.00064,0.00043,0.0,-5.9999999999999995e-05,9e-05,0.0,2.9999999999999997e-05,0.00027,6
29196,30265,0.00064,0.00043,0.0,-5.9999999999999995e-05,9e-05,0.0,2.9999999999999997e-05,0.00027,6
29197,30266,0.00064,0.00043,0.0,-5.9999999999999995e-05,9e-05,0.0,2.9999999999999997e-05,0.00027,6
29198,30267,0.00064,0.00043,0.0,-5.9999999999999995e-05,9e-05,0.0,2.9999999999999997e-05,0.00027,6
29199,30268,0.00064,0.00043,0.0,-5.9999999999999995e-05,9e-05,0.0,2.9999999999999997e-05,0.00027,6
29200,30269,0.00064,0.00043,0.0,-5.9999999999999995e-05,9e-05,0.0,2.9999999999999997e-05,0.00027,6
29201,30270,0.00064,0.00043,0.0,-5.9999999999999995e-05,9e-05,0.0,2.9999999999999997e-05,0.00027,6
29202,30271,0.00064,0.00043,0.0,-5.9999999999999995e-05,9e-05,0.0,2.9999999999999997e-05,0.00027,6
29203,30272,0.00064,0.00043,0.0,-5.9999999999999995e-05,9e-05,0.0,2.9999999999999997e-05,0.00027,6
29204,30273,0.0001,9e-05,5e-05,-1e-05,-5.9999999999999995e-05,-5.9999999999999995e-05,5.9999999999999995e-05,0.00013000000000000002,6
29205,30274,-0.00075,-0.00033999999999999997,2.9999999999999997e-05,-2.9999999999999997e-05,-0.00015,-0.00011,-8e-05,0.0,6
29206,30275,-0.00075,-0.00033999999999999997,2.9999999999999997e-05,-2.9999999999999997e-05,-0.00015,-0.00011,-8e-05,0.0,6
29207,30276,-0.00075,-0.00033999999999999997,2.9999999999999997e-05,-2.9999999999999997e-05,-0.00015,-0.00011,-8e-05,0.0,6
29208,30277,-0.00075,-0.00033999999999999997,2.9999999999999997e-05,-2.9999999999999997e-05,-0.00015,-0.00011,-8e-05,0.0,6
29209,30278,-0.00075,-0.00033999999999999997,2.9999999999999997e-05,-2.9999999999999997e-05,-0.00015,-0.00011,-8e-05,0.0,6
29210,30279,-0.00075,-0.00033999999999999997,2.9999999999999997e-05,-2.9999999999999997e-05,-0.00015,-0.00011,-8e-05,0.0,6
29211,30280,-0.00075,-0.00033999999999999997,2.9999999999999997e-05,-2.9999999999999997e-05,-0.00015,-0.00011,-8e-05,0.0,6
29212,30281,-0.00075,-0.00033999999999999997,2.9999999999999997e-05,-2.9999999999999997e-05,-0.00015,-0.00011,-8e-05,0.0,6
29213,30282,-0.00075,-0.00033999999999999997,2.9999999999999997e-05,-2.9999999999999997e-05,-0.00015,-0.00011,-8e-05,0.0,6
29214,30283,-0.00075,-0.00033999999999999997,2.9999999999999997e-05,-2.9999999999999997e-05,-0.00015,-0.00011,-8e-05,0.0,6
29215,30284,-0.00075,-0.00033999999999999997,2.9999999999999997e-05,-2.9999999999999997e-05,-0.00015,-0.00011,-8e-05,0.0,6
29216,30285,-0.00075,-0.00033999999999999997,2.9999999999999997e-05,-2.9999999999999997e-05,-0.00015,-0.00011,-8e-05,0.0,6
29217,30286,-0.00075,-0.00033999999999999997,2.9999999999999997e-05,-2.9999999999999997e-05,-0.00015,-0.00011,-8e-05,0.0,6
29218,30289,0.00028,2e-05,4e-05,5.9999999999999995e-05,1e-05,2.9999999999999997e-05,0.00018,5.9999999999999995e-05,6
29219,30290,0.00028,2e-05,4e-05,5.9999999999999995e-05,1e-05,2.9999999999999997e-05,0.00018,5.9999999999999995e-05,6
29220,30291,0.00028,2e-05,4e-05,5.9999999999999995e-05,1e-05,2.9999999999999997e-05,0.00018,5.9999999999999995e-05,6
29221,30292,0.00028,2e-05,4e-05,5.9999999999999995e-05,1e-05,2.9999999999999997e-05,0.00018,5.9999999999999995e-05,6
29222,30293,0.00028,2e-05,4e-05,5.9999999999999995e-05,1e-05,2.9999999999999997e-05,0.00018,5.9999999999999995e-05,6
29223,30294,0.00028,2e-05,4e-05,5.9999999999999995e-05,1e-05,2.9999999999999997e-05,0.00018,5.9999999999999995e-05,6
29224,30295,0.00028,2e-05,4e-05,5.9999999999999995e-05,1e-05,2.9999999999999997e-05,0.00018,5.9999999999999995e-05,6
29225,30296,0.00028,2e-05,4e-05,5.9999999999999995e-05,1e-05,2.9999999999999997e-05,0.00018,5.9999999999999995e-05,6
29226,30297,0.00028,2e-05,4e-05,5.9999999999999995e-05,1e-05,2.9999999999999997e-05,0.00018,5.9999999999999995e-05,6
29227,30298,0.00028,2e-05,4e-05,5.9999999999999995e-05,1e-05,2.9999999999999997e-05,0.00018,5.9999999999999995e-05,6
29228,30299,0.00028,2e-05,4e-05,5.9999999999999995e-05,1e-05,2.9999999999999997e-05,0.00018,5.9999999999999995e-05,6
29229,30300,0.00028,2e-05,4e-05,5.9999999999999995e-05,1e-05,2.9999999999999997e-05,0.00018,5.9999999999999995e-05,6
29230,30301,0.00028,2e-05,4e-05,5.9999999999999995e-05,1e-05,2.9999999999999997e-05,0.00018,5.9999999999999995e-05,6
29231,30302,0.00028,2e-05,4e-05,5.9999999999999995e-05,1e-05,2.9999999999999997e-05,0.00018,5.9999999999999995e-05,6
29232,30303,0.00028,2e-05,4e-05,5.9999999999999995e-05,1e-05,2.9999999999999997e-05,0.00018,5.9999999999999995e-05,6
29233,30304,0.00028,2e-05,4e-05,5.9999999999999995e-05,1e-05,2.9999999999999997e-05,0.00018,5.9999999999999995e-05,6
29234,30305,0.00028,2e-05,4e-05,5.9999999999999995e-05,1e-05,2.9999999999999997e-05,0.00018,5.9999999999999995e-05,6
29235,30306,0.00028,2e-05,4e-05,5.9999999999999995e-05,1e-05,2.9999999999999997e-05,0.00018,5.9999999999999995e-05,6
29236,30307,0.00028,2e-05,4e-05,5.9999999999999995e-05,1e-05,2.9999999999999997e-05,0.00018,5.9999999999999995e-05,6
29237,30308,0.00028,2e-05,4e-05,5.9999999999999995e-05,1e-05,2.9999999999999997e-05,0.00018,5.9999999999999995e-05,6
29238,30309,0.00028,2e-05,4e-05,5.9999999999999995e-05,1e-05,2.9999999999999997e-05,0.00018,5.9999999999999995e-05,6
29239,30310,0.00013000000000000002,0.0002,5.9999999999999995e-05,4e-05,-1e-05,-7e-05,-0.0001,-4e-05,6
29240,30311,-0.00049,-0.00063,-0.00011999999999999999,-8e-05,-0.0002,-0.00018999999999999998,-0.00033,-0.00028,6
29241,30312,-0.00049,-0.00063,-0.00011999999999999999,-8e-05,-0.0002,-0.00018999999999999998,-0.00033,-0.00028,6
29242,30313,-0.00049,-0.00063,-0.00011999999999999999,-8e-05,-0.0002,-0.00018999999999999998,-0.00033,-0.00028,6
29243,30314,-0.00049,-0.00063,-0.00011999999999999999,-8e-05,-0.0002,-0.00018999999999999998,-0.00033,-0.00028,6
29244,30315,-0.00049,-0.00063,-0.00011999999999999999,-8e-05,-0.0002,-0.00018999999999999998,-0.00033,-0.00028,6
29245,30316,-0.00049,-0.00063,-0.00011999999999999999,-8e-05,-0.0002,-0.00018999999999999998,-0.00033,-0.00028,6
29246,30317,-0.00049,-0.00063,-0.00011999999999999999,-8e-05,-0.0002,-0.00018999999999999998,-0.00033,-0.00028,6
29247,30318,-0.00049,-0.00063,-0.00011999999999999999,-8e-05,-0.0002,-0.00018999999999999998,-0.00033,-0.00028,6
29248,30319,-0.00049,-0.00063,-0.00011999999999999999,-8e-05,-0.0002,-0.00018999999999999998,-0.00033,-0.00028,6
29249,30320,-0.00049,-0.00063,-0.00011999999999999999,-8e-05,-0.0002,-0.00018999999999999998,-0.00033,-0.00028,6
29250,30321,-0.00049,-0.00063,-0.00011999999999999999,-8e-05,-0.0002,-0.00018999999999999998,-0.00033,-0.00028,6
29251,30322,-0.00049,-0.00063,-0.00011999999999999999,-8e-05,-0.0002,-0.00018999999999999998,-0.00033,-0.00028,6
29252,30323,-0.00049,-0.00063,-0.00011999999999999999,-8e-05,-0.0002,-0.00018999999999999998,-0.00033,-0.00028,6
29253,30324,-0.00049,-0.00063,-0.00011999999999999999,-8e-05,-0.0002,-0.00018999999999999998,-0.00033,-0.00028,6
29254,30325,-0.00049,-0.00063,-0.00011999999999999999,-8e-05,-0.0002,-0.00018999999999999998,-0.00033,-0.00028,6
29255,30326,-0.00049,-0.00063,-0.00011999999999999999,-8e-05,-0.0002,-0.00018999999999999998,-0.00033,-0.00028,6
29256,30327,-0.00049,-0.00063,-0.00011999999999999999,-8e-05,-0.0002,-0.00018999999999999998,-0.00033,-0.00028,6
29257,30328,-0.00049,-0.00063,-0.00011999999999999999,-8e-05,-0.0002,-0.00018999999999999998,-0.00033,-0.00028,6
29258,30329,-0.00049,-0.00063,-0.00011999999999999999,-8e-05,-0.0002,-0.00018999999999999998,-0.00033,-0.00028,6
29259,30330,-0.00049,-0.00063,-0.00011999999999999999,-8e-05,-0.0002,-0.00018999999999999998,-0.00033,-0.00028,6
29260,30331,-0.00049,-0.00063,-0.00011999999999999999,-8e-05,-0.0002,-0.00018999999999999998,-0.00033,-0.00028,6
29261,30332,-0.00049,-0.00063,-0.00011999999999999999,-8e-05,-0.0002,-0.00018999999999999998,-0.00033,-0.00028,6
29262,30333,7e-05,7e-05,5.9999999999999995e-05,7e-05,5.9999999999999995e-05,7e-05,-0.00016,-0.00028,6
29263,30334,7e-05,7e-05,5.9999999999999995e-05,7e-05,5.9999999999999995e-05,7e-05,-0.00016,-0.00028,6
29264,30335,7e-05,7e-05,5.9999999999999995e-05,7e-05,5.9999999999999995e-05,7e-05,-0.00016,-0.00028,6
29265,30336,7e-05,7e-05,5.9999999999999995e-05,7e-05,5.9999999999999995e-05,7e-05,-0.00016,-0.00028,6
29266,30339,7e-05,7e-05,5.9999999999999995e-05,7e-05,5.9999999999999995e-05,7e-05,-0.00016,-0.00028,6
29267,30340,7e-05,7e-05,5.9999999999999995e-05,7e-05,5.9999999999999995e-05,7e-05,-0.00016,-0.00028,6
29268,30341,7e-05,7e-05,5.9999999999999995e-05,7e-05,5.9999999999999995e-05,7e-05,-0.00016,-0.00028,6
29269,30342,7e-05,7e-05,5.9999999999999995e-05,7e-05,5.9999999999999995e-05,7e-05,-0.00016,-0.00028,6
29270,30343,7e-05,7e-05,5.9999999999999995e-05,7e-05,5.9999999999999995e-05,7e-05,-0.00016,-0.00028,6
29271,30344,7e-05,7e-05,5.9999999999999995e-05,7e-05,5.9999999999999995e-05,7e-05,-0.00016,-0.00028,6
29272,30345,7e-05,7e-05,5.9999999999999995e-05,7e-05,5.9999999999999995e-05,7e-05,-0.00016,-0.00028,6
29273,30346,7e-05,7e-05,5.9999999999999995e-05,7e-05,5.9999999999999995e-05,7e-05,-0.00016,-0.00028,6
29274,30347,7e-05,7e-05,5.9999999999999995e-05,7e-05,5.9999999999999995e-05,7e-05,-0.00016,-0.00028,6
29275,30348,7e-05,7e-05,5.9999999999999995e-05,7e-05,5.9999999999999995e-05,7e-05,-0.00016,-0.00028,6
29276,30349,-0.00022,-0.00039,-7e-05,-8e-05,-0.00022,-0.00016,-0.00011,-0.0001,6
29277,30350,7e-05,0.00018,2e-05,-4e-05,-5.9999999999999995e-05,1e-05,4e-05,-0.00022,6
29278,30351,7e-05,0.00018,2e-05,-4e-05,-5.9999999999999995e-05,1e-05,4e-05,-0.00022,6
29279,30352,7e-05,0.00018,2e-05,-4e-05,-5.9999999999999995e-05,1e-05,4e-05,-0.00022,6
29280,30353,7e-05,0.00018,2e-05,-4e-05,-5.9999999999999995e-05,1e-05,4e-05,-0.00022,6
29281,30354,7e-05,0.00018,2e-05,-4e-05,-5.9999999999999995e-05,1e-05,4e-05,-0.00022,6
29282,30355,7e-05,0.00018,2e-05,-4e-05,-5.9999999999999995e-05,1e-05,4e-05,-0.00022,6
29283,30356,7e-05,0.00018,2e-05,-4e-05,-5.9999999999999995e-05,1e-05,4e-05,-0.00022,6
29284,30357,7e-05,0.00018,2e-05,-4e-05,-5.9999999999999995e-05,1e-05,4e-05,-0.00022,6
29285,30358,7e-05,0.00018,2e-05,-4e-05,-5.9999999999999995e-05,1e-05,4e-05,-0.00022,6
29286,30359,7e-05,0.00018,2e-05,-4e-05,-5.9999999999999995e-05,1e-05,4e-05,-0.00022,6
29287,30360,7e-05,0.00018,2e-05,-4e-05,-5.9999999999999995e-05,1e-05,4e-05,-0.00022,6
29288,30361,7e-05,0.00018,2e-05,-4e-05,-5.9999999999999995e-05,1e-05,4e-05,-0.00022,6
29289,30362,7e-05,0.00018,2e-05,-4e-05,-5.9999999999999995e-05,1e-05,4e-05,-0.00022,6
29290,30363,7e-05,0.00018,2e-05,-4e-05,-5.9999999999999995e-05,1e-05,4e-05,-0.00022,6
29291,30364,7e-05,0.00018,2e-05,-4e-05,-5.9999999999999995e-05,1e-05,4e-05,-0.00022,6
29292,30365,7e-05,0.00018,2e-05,-4e-05,-5.9999999999999995e-05,1e-05,4e-05,-0.00022,6
29293,30366,7e-05,0.00018,2e-05,-4e-05,-5.9999999999999995e-05,1e-05,4e-05,-0.00022,6
29294,30367,7e-05,0.00018,2e-05,-4e-05,-5.9999999999999995e-05,1e-05,4e-05,-0.00022,6
29295,30368,7e-05,0.00018,2e-05,-4e-05,-5.9999999999999995e-05,1e-05,4e-05,-0.00022,6
29296,30369,7e-05,0.00018,2e-05,-4e-05,-5.9999999999999995e-05,1e-05,4e-05,-0.00022,6
29297,30370,7e-05,0.00018,2e-05,-4e-05,-5.9999999999999995e-05,1e-05,4e-05,-0.00022,6
29298,30371,7e-05,0.00018,2e-05,-4e-05,-5.9999999999999995e-05,1e-05,4e-05,-0.00022,6
29299,30372,7e-05,0.00018,2e-05,-4e-05,-5.9999999999999995e-05,1e-05,4e-05,-0.00022,6
29300,30373,7e-05,0.00018,2e-05,-4e-05,-5.9999999999999995e-05,1e-05,4e-05,-0.00022,6
29301,30374,7e-05,0.00018,2e-05,-4e-05,-5.9999999999999995e-05,1e-05,4e-05,-0.00022,6
29302,30375,7e-05,0.00018,2e-05,-4e-05,-5.9999999999999995e-05,1e-05,4e-05,-0.00022,6
29303,30376,7e-05,0.00018,2e-05,-4e-05,-5.9999999999999995e-05,1e-05,4e-05,-0.00022,6
29304,30377,7e-05,0.00018,2e-05,-4e-05,-5.9999999999999995e-05,1e-05,4e-05,-0.00022,6
29305,30378,-0.0006900000000000001,-0.00033,-0.00014,9e-05,0.00032,5e-05,5e-05,-8e-05,6
29306,30379,0.00023999999999999998,8e-05,-5.9999999999999995e-05,-1e-05,-0.0001,-1e-05,1e-05,8e-05,6
29307,30380,0.00023999999999999998,8e-05,-5.9999999999999995e-05,-1e-05,-0.0001,-1e-05,1e-05,8e-05,6
29308,30381,0.00023999999999999998,8e-05,-5.9999999999999995e-05,-1e-05,-0.0001,-1e-05,1e-05,8e-05,6
29309,30382,0.00023999999999999998,8e-05,-5.9999999999999995e-05,-1e-05,-0.0001,-1e-05,1e-05,8e-05,6
29310,30383,0.00023999999999999998,8e-05,-5.9999999999999995e-05,-1e-05,-0.0001,-1e-05,1e-05,8e-05,6
29311,30384,0.00023999999999999998,8e-05,-5.9999999999999995e-05,-1e-05,-0.0001,-1e-05,1e-05,8e-05,6
29312,30385,0.00023999999999999998,8e-05,-5.9999999999999995e-05,-1e-05,-0.0001,-1e-05,1e-05,8e-05,6
29313,30386,0.00023999999999999998,8e-05,-5.9999999999999995e-05,-1e-05,-0.0001,-1e-05,1e-05,8e-05,6
29314,30388,0.00023999999999999998,8e-05,-5.9999999999999995e-05,-1e-05,-0.0001,-1e-05,1e-05,8e-05,6
29315,30389,0.00023999999999999998,8e-05,-5.9999999999999995e-05,-1e-05,-0.0001,-1e-05,1e-05,8e-05,6
29316,30390,0.00023999999999999998,8e-05,-5.9999999999999995e-05,-1e-05,-0.0001,-1e-05,1e-05,8e-05,6
29317,30391,0.00023999999999999998,8e-05,-5.9999999999999995e-05,-1e-05,-0.0001,-1e-05,1e-05,8e-05,6
29318,30392,0.00023999999999999998,8e-05,-5.9999999999999995e-05,-1e-05,-0.0001,-1e-05,1e-05,8e-05,6
29319,30393,0.00023999999999999998,8e-05,-5.9999999999999995e-05,-1e-05,-0.0001,-1e-05,1e-05,8e-05,6
29320,30394,0.00023999999999999998,8e-05,-5.9999999999999995e-05,-1e-05,-0.0001,-1e-05,1e-05,8e-05,6
29321,30395,0.00023999999999999998,8e-05,-5.9999999999999995e-05,-1e-05,-0.0001,-1e-05,1e-05,8e-05,6
29322,30396,0.00023999999999999998,8e-05,-5.9999999999999995e-05,-1e-05,-0.0001,-1e-05,1e-05,8e-05,6
29323,30397,0.00023999999999999998,8e-05,-5.9999999999999995e-05,-1e-05,-0.0001,-1e-05,1e-05,8e-05,6
29324,30398,0.00023999999999999998,8e-05,-5.9999999999999995e-05,-1e-05,-0.0001,-1e-05,1e-05,8e-05,6
29325,30399,0.00023999999999999998,8e-05,-5.9999999999999995e-05,-1e-05,-0.0001,-1e-05,1e-05,8e-05,6
29326,30400,0.00023999999999999998,8e-05,-5.9999999999999995e-05,-1e-05,-0.0001,-1e-05,1e-05,8e-05,6
29327,30401,-4e-05,-4e-05,5.9999999999999995e-05,-8e-05,-0.00021,-0.00011999999999999999,-0.00027,-0.00047999999999999996,6
29328,30402,-0.0002,-0.00022999999999999998,1e-05,4e-05,0.00011,4e-05,0.00044,0.00014,6
29329,30403,-0.0002,-0.00022999999999999998,1e-05,4e-05,0.00011,4e-05,0.00044,0.00014,6
29330,30404,-0.0002,-0.00022999999999999998,1e-05,4e-05,0.00011,4e-05,0.00044,0.00014,6
29331,30405,-0.0002,-0.00022999999999999998,1e-05,4e-05,0.00011,4e-05,0.00044,0.00014,6
29332,30406,-0.0002,-0.00022999999999999998,1e-05,4e-05,0.00011,4e-05,0.00044,0.00014,6
29333,30407,-0.0002,-0.00022999999999999998,1e-05,4e-05,0.00011,4e-05,0.00044,0.00014,6
29334,30408,-7e-05,-0.00018,2.9999999999999997e-05,0.00013000000000000002,0.00016,-5e-05,-2e-05,-2e-05,6
29335,30409,-7e-05,-0.00018,2.9999999999999997e-05,0.00013000000000000002,0.00016,-5e-05,-2e-05,-2e-05,6
29336,30410,-7e-05,-0.00018,2.9999999999999997e-05,0.00013000000000000002,0.00016,-5e-05,-2e-05,-2e-05,6
29337,30411,-7e-05,-0.00018,2.9999999999999997e-05,0.00013000000000000002,0.00016,-5e-05,-2e-05,-2e-05,6
29338,30412,-7e-05,-0.00018,2.9999999999999997e-05,0.00013000000000000002,0.00016,-5e-05,-2e-05,-2e-05,6
29339,30413,-7e-05,-0.00018,2.9999999999999997e-05,0.00013000000000000002,0.00016,-5e-05,-2e-05,-2e-05,6
29340,30414,-7e-05,-0.00018,2.9999999999999997e-05,0.00013000000000000002,0.00016,-5e-05,-2e-05,-2e-05,6
29341,30415,-7e-05,-0.00018,2.9999999999999997e-05,0.00013000000000000002,0.00016,-5e-05,-2e-05,-2e-05,6
29342,30416,-7e-05,-0.00018,2.9999999999999997e-05,0.00013000000000000002,0.00016,-5e-05,-2e-05,-2e-05,6
29343,30417,-7e-05,-0.00018,2.9999999999999997e-05,0.00013000000000000002,0.00016,-5e-05,-2e-05,-2e-05,6
29344,30418,-7e-05,-0.00018,2.9999999999999997e-05,0.00013000000000000002,0.00016,-5e-05,-2e-05,-2e-05,6
29345,30419,-7e-05,-0.00018,2.9999999999999997e-05,0.00013000000000000002,0.00016,-5e-05,-2e-05,-2e-05,6
29346,30420,-7e-05,-0.00018,2.9999999999999997e-05,0.00013000000000000002,0.00016,-5e-05,-2e-05,-2e-05,6
29347,30421,-7e-05,-0.00018,2.9999999999999997e-05,0.00013000000000000002,0.00016,-5e-05,-2e-05,-2e-05,6
29348,30422,-7e-05,-0.00018,2.9999999999999997e-05,0.00013000000000000002,0.00016,-5e-05,-2e-05,-2e-05,6
29349,30423,-7e-05,-0.00018,2.9999999999999997e-05,0.00013000000000000002,0.00016,-5e-05,-2e-05,-2e-05,6
29350,30424,-7e-05,-0.00018,2.9999999999999997e-05,0.00013000000000000002,0.00016,-5e-05,-2e-05,-2e-05,6
29351,30425,-7e-05,-0.00018,2.9999999999999997e-05,0.00013000000000000002,0.00016,-5e-05,-2e-05,-2e-05,6
29352,30426,-7e-05,-0.00018,2.9999999999999997e-05,0.00013000000000000002,0.00016,-5e-05,-2e-05,-2e-05,6
29353,30427,-7e-05,-0.00018,2.9999999999999997e-05,0.00013000000000000002,0.00016,-5e-05,-2e-05,-2e-05,6
29354,30428,-7e-05,-0.00018,2.9999999999999997e-05,0.00013000000000000002,0.00016,-5e-05,-2e-05,-2e-05,6
29355,30429,-7e-05,-0.00018,2.9999999999999997e-05,0.00013000000000000002,0.00016,-5e-05,-2e-05,-2e-05,6
29356,30430,-0.00021,-0.00016999999999999999,7e-05,-2.9999999999999997e-05,-1e-05,2.9999999999999997e-05,7e-05,0.0,6
29357,30431,-0.00021,-0.00016999999999999999,7e-05,-2.9999999999999997e-05,-1e-05,2.9999999999999997e-05,7e-05,0.0,6
29358,30432,-4e-05,5e-05,-8e-05,-8e-05,-2.9999999999999997e-05,7e-05,-0.0001,-0.00011999999999999999,6
29359,30433,-4e-05,5e-05,-8e-05,-8e-05,-2.9999999999999997e-05,7e-05,-0.0001,-0.00011999999999999999,6
29360,30434,-4e-05,5e-05,-8e-05,-8e-05,-2.9999999999999997e-05,7e-05,-0.0001,-0.00011999999999999999,6
29361,30435,-4e-05,5e-05,-8e-05,-8e-05,-2.9999999999999997e-05,7e-05,-0.0001,-0.00011999999999999999,6
29362,30436,-4e-05,5e-05,-8e-05,-8e-05,-2.9999999999999997e-05,7e-05,-0.0001,-0.00011999999999999999,6
29363,30438,-4e-05,5e-05,-8e-05,-8e-05,-2.9999999999999997e-05,7e-05,-0.0001,-0.00011999999999999999,6
29364,30440,-4e-05,5e-05,-8e-05,-8e-05,-2.9999999999999997e-05,7e-05,-0.0001,-0.00011999999999999999,6
29365,30441,-4e-05,5e-05,-8e-05,-8e-05,-2.9999999999999997e-05,7e-05,-0.0001,-0.00011999999999999999,6
29366,30442,-4e-05,5e-05,-8e-05,-8e-05,-2.9999999999999997e-05,7e-05,-0.0001,-0.00011999999999999999,6
29367,30443,-4e-05,5e-05,-8e-05,-8e-05,-2.9999999999999997e-05,7e-05,-0.0001,-0.00011999999999999999,6
29368,30444,-4e-05,5e-05,-8e-05,-8e-05,-2.9999999999999997e-05,7e-05,-0.0001,-0.00011999999999999999,6
29369,30445,-4e-05,5e-05,-8e-05,-8e-05,-2.9999999999999997e-05,7e-05,-0.0001,-0.00011999999999999999,6
29370,30446,-4e-05,5e-05,-8e-05,-8e-05,-2.9999999999999997e-05,7e-05,-0.0001,-0.00011999999999999999,6
29371,30447,-4e-05,5e-05,-8e-05,-8e-05,-2.9999999999999997e-05,7e-05,-0.0001,-0.00011999999999999999,6
29372,30448,-4e-05,5e-05,-8e-05,-8e-05,-2.9999999999999997e-05,7e-05,-0.0001,-0.00011999999999999999,6
29373,30449,-4e-05,5e-05,-8e-05,-8e-05,-2.9999999999999997e-05,7e-05,-0.0001,-0.00011999999999999999,6
29374,30450,-4e-05,5e-05,-8e-05,-8e-05,-2.9999999999999997e-05,7e-05,-0.0001,-0.00011999999999999999,6
29375,30451,-4e-05,5e-05,-8e-05,-8e-05,-2.9999999999999997e-05,7e-05,-0.0001,-0.00011999999999999999,6
29376,30452,-4e-05,5e-05,-8e-05,-8e-05,-2.9999999999999997e-05,7e-05,-0.0001,-0.00011999999999999999,6
29377,30453,0.00032,0.00011,9e-05,0.00013000000000000002,0.0002,7e-05,-5e-05,0.00029,6
29378,30454,-7e-05,-9e-05,-0.0001,-4e-05,-5.9999999999999995e-05,-5e-05,-1e-05,-8e-05,6
29379,30455,-7e-05,-9e-05,-0.0001,-4e-05,-5.9999999999999995e-05,-5e-05,-1e-05,-8e-05,6
29380,30456,-7e-05,-9e-05,-0.0001,-4e-05,-5.9999999999999995e-05,-5e-05,-1e-05,-8e-05,6
29381,30457,-7e-05,-9e-05,-0.0001,-4e-05,-5.9999999999999995e-05,-5e-05,-1e-05,-8e-05,6
29382,30458,-7e-05,-9e-05,-0.0001,-4e-05,-5.9999999999999995e-05,-5e-05,-1e-05,-8e-05,6
29383,30459,-7e-05,-9e-05,-0.0001,-4e-05,-5.9999999999999995e-05,-5e-05,-1e-05,-8e-05,6
29384,30460,-7e-05,-9e-05,-0.0001,-4e-05,-5.9999999999999995e-05,-5e-05,-1e-05,-8e-05,6
29385,30461,-7e-05,-9e-05,-0.0001,-4e-05,-5.9999999999999995e-05,-5e-05,-1e-05,-8e-05,6
29386,30462,-7e-05,-9e-05,-0.0001,-4e-05,-5.9999999999999995e-05,-5e-05,-1e-05,-8e-05,6
29387,30463,-7e-05,-9e-05,-0.0001,-4e-05,-5.9999999999999995e-05,-5e-05,-1e-05,-8e-05,6
29388,30464,-7e-05,-9e-05,-0.0001,-4e-05,-5.9999999999999995e-05,-5e-05,-1e-05,-8e-05,6
29389,30465,-7e-05,-9e-05,-0.0001,-4e-05,-5.9999999999999995e-05,-5e-05,-1e-05,-8e-05,6
29390,30466,-7e-05,-9e-05,-0.0001,-4e-05,-5.9999999999999995e-05,-5e-05,-1e-05,-8e-05,6
29391,30467,-7e-05,-9e-05,-0.0001,-4e-05,-5.9999999999999995e-05,-5e-05,-1e-05,-8e-05,6
29392,30468,-7e-05,-9e-05,-0.0001,-4e-05,-5.9999999999999995e-05,-5e-05,-1e-05,-8e-05,6
29393,30469,-7e-05,-9e-05,-0.0001,-4e-05,-5.9999999999999995e-05,-5e-05,-1e-05,-8e-05,6
29394,30470,-7e-05,-9e-05,-0.0001,-4e-05,-5.9999999999999995e-05,-5e-05,-1e-05,-8e-05,6
29395,30471,-7e-05,-9e-05,-0.0001,-4e-05,-5.9999999999999995e-05,-5e-05,-1e-05,-8e-05,6
29396,30472,-7e-05,-9e-05,-0.0001,-4e-05,-5.9999999999999995e-05,-5e-05,-1e-05,-8e-05,6
29397,30473,-7e-05,-9e-05,-0.0001,-4e-05,-5.9999999999999995e-05,-5e-05,-1e-05,-8e-05,6
29398,30474,-7e-05,-9e-05,-0.0001,-4e-05,-5.9999999999999995e-05,-5e-05,-1e-05,-8e-05,6
29399,30475,-7e-05,-9e-05,-0.0001,-4e-05,-5.9999999999999995e-05,-5e-05,-1e-05,-8e-05,6
29400,30476,0.00022999999999999998,0.00013000000000000002,2e-05,-5e-05,-0.00013000000000000002,2e-05,0.0002,-0.0001,6
29401,30477,0.00022999999999999998,0.0001,8e-05,7e-05,-2e-05,5e-05,-7e-05,0.00011,6
29402,30478,0.00022999999999999998,0.0001,8e-05,7e-05,-2e-05,5e-05,-7e-05,0.00011,6
29403,30479,0.00022999999999999998,0.0001,8e-05,7e-05,-2e-05,5e-05,-7e-05,0.00011,6
29404,30480,0.00022999999999999998,0.0001,8e-05,7e-05,-2e-05,5e-05,-7e-05,0.00011,6
29405,30481,0.00022999999999999998,0.0001,8e-05,7e-05,-2e-05,5e-05,-7e-05,0.00011,6
29406,30482,0.00022999999999999998,0.0001,8e-05,7e-05,-2e-05,5e-05,-7e-05,0.00011,6
29407,30483,0.00022999999999999998,0.0001,8e-05,7e-05,-2e-05,5e-05,-7e-05,0.00011,6
29408,30484,0.00022999999999999998,0.0001,8e-05,7e-05,-2e-05,5e-05,-7e-05,0.00011,6
29409,30485,0.00022999999999999998,0.0001,8e-05,7e-05,-2e-05,5e-05,-7e-05,0.00011,6
29410,30486,0.00022999999999999998,0.0001,8e-05,7e-05,-2e-05,5e-05,-7e-05,0.00011,6
29411,30488,0.00022999999999999998,0.0001,8e-05,7e-05,-2e-05,5e-05,-7e-05,0.00011,6
29412,30489,0.00022999999999999998,0.0001,8e-05,7e-05,-2e-05,5e-05,-7e-05,0.00011,6
29413,30490,0.00022999999999999998,0.0001,8e-05,7e-05,-2e-05,5e-05,-7e-05,0.00011,6
29414,30491,-0.0001,-9e-05,-0.0001,-0.00015,-0.00022999999999999998,-0.00021,-5e-05,-1e-05,6
29415,30492,-0.0001,-9e-05,-0.0001,-0.00015,-0.00022999999999999998,-0.00021,-5e-05,-1e-05,6
29416,30493,-0.0001,-9e-05,-0.0001,-0.00015,-0.00022999999999999998,-0.00021,-5e-05,-1e-05,6
29417,30494,-0.0001,-9e-05,-0.0001,-0.00015,-0.00022999999999999998,-0.00021,-5e-05,-1e-05,6
29418,30495,-0.0001,-9e-05,-0.0001,-0.00015,-0.00022999999999999998,-0.00021,-5e-05,-1e-05,6
29419,30496,-0.0001,-9e-05,-0.0001,-0.00015,-0.00022999999999999998,-0.00021,-5e-05,-1e-05,6
29420,30497,-0.0001,-9e-05,-0.0001,-0.00015,-0.00022999999999999998,-0.00021,-5e-05,-1e-05,6
29421,30498,5e-05,2e-05,5e-05,-2e-05,-4e-05,-2e-05,-1e-05,-2e-05,6
29422,30499,5e-05,2e-05,5e-05,-2e-05,-4e-05,-2e-05,-1e-05,-2e-05,6
29423,30500,5e-05,2e-05,5e-05,-2e-05,-4e-05,-2e-05,-1e-05,-2e-05,6
29424,30501,5e-05,2e-05,5e-05,-2e-05,-4e-05,-2e-05,-1e-05,-2e-05,6
29425,30502,5e-05,2e-05,5e-05,-2e-05,-4e-05,-2e-05,-1e-05,-2e-05,6
29426,30503,5e-05,2e-05,5e-05,-2e-05,-4e-05,-2e-05,-1e-05,-2e-05,6
29427,30504,5e-05,2e-05,5e-05,-2e-05,-4e-05,-2e-05,-1e-05,-2e-05,6
29428,30505,5e-05,2e-05,5e-05,-2e-05,-4e-05,-2e-05,-1e-05,-2e-05,6
29429,30506,5e-05,2e-05,5e-05,-2e-05,-4e-05,-2e-05,-1e-05,-2e-05,6
29430,30507,5e-05,2e-05,5e-05,-2e-05,-4e-05,-2e-05,-1e-05,-2e-05,6
29431,30508,5e-05,2e-05,5e-05,-2e-05,-4e-05,-2e-05,-1e-05,-2e-05,6
29432,30509,5e-05,2e-05,5e-05,-2e-05,-4e-05,-2e-05,-1e-05,-2e-05,6
29433,30510,5e-05,2e-05,5e-05,-2e-05,-4e-05,-2e-05,-1e-05,-2e-05,6
29434,30511,5e-05,2e-05,5e-05,-2e-05,-4e-05,-2e-05,-1e-05,-2e-05,6
29435,30512,5e-05,2e-05,5e-05,-2e-05,-4e-05,-2e-05,-1e-05,-2e-05,6
29436,30513,8e-05,-0.0001,-0.00021,-0.00011999999999999999,-0.0001,-9e-05,-0.00021,0.00022999999999999998,6
29437,30514,-0.00018,-8e-05,-2e-05,-4e-05,-7e-05,-5e-05,-1e-05,-1e-05,6
29438,30515,-0.00018,-8e-05,-2e-05,-4e-05,-7e-05,-5e-05,-1e-05,-1e-05,6
29439,30516,-0.00018,-8e-05,-2e-05,-4e-05,-7e-05,-5e-05,-1e-05,-1e-05,6
29440,30517,-0.00018,-8e-05,-2e-05,-4e-05,-7e-05,-5e-05,-1e-05,-1e-05,6
29441,30518,-0.00018,-8e-05,-2e-05,-4e-05,-7e-05,-5e-05,-1e-05,-1e-05,6
29442,30519,-0.00018,-8e-05,-2e-05,-4e-05,-7e-05,-5e-05,-1e-05,-1e-05,6
29443,30520,-0.00018,-8e-05,-2e-05,-4e-05,-7e-05,-5e-05,-1e-05,-1e-05,6
29444,30521,-0.00018,-8e-05,-2e-05,-4e-05,-7e-05,-5e-05,-1e-05,-1e-05,6
29445,30522,-0.00018,-8e-05,-2e-05,-4e-05,-7e-05,-5e-05,-1e-05,-1e-05,6
29446,30523,-0.00018,-8e-05,-2e-05,-4e-05,-7e-05,-5e-05,-1e-05,-1e-05,6
29447,30524,-0.00018,-8e-05,-2e-05,-4e-05,-7e-05,-5e-05,-1e-05,-1e-05,6
29448,30525,-0.00018,-8e-05,-2e-05,-4e-05,-7e-05,-5e-05,-1e-05,-1e-05,6
29449,30526,-0.00018,-8e-05,-2e-05,-4e-05,-7e-05,-5e-05,-1e-05,-1e-05,6
29450,30527,-0.00018,-8e-05,-2e-05,-4e-05,-7e-05,-5e-05,-1e-05,-1e-05,6
29451,30528,-0.00018,-8e-05,-2e-05,-4e-05,-7e-05,-5e-05,-1e-05,-1e-05,6
29452,30529,0.00011,0.00031,8e-05,2e-05,2e-05,2e-05,5e-05,-0.0002,6
29453,30530,-4e-05,5.9999999999999995e-05,4e-05,5.9999999999999995e-05,0.00011,0.00015,-5.9999999999999995e-05,-0.00033999999999999997,6
29454,30531,-4e-05,5.9999999999999995e-05,4e-05,5.9999999999999995e-05,0.00011,0.00015,-5.9999999999999995e-05,-0.00033999999999999997,6
29455,30532,-4e-05,5.9999999999999995e-05,4e-05,5.9999999999999995e-05,0.00011,0.00015,-5.9999999999999995e-05,-0.00033999999999999997,6
29456,30533,-4e-05,5.9999999999999995e-05,4e-05,5.9999999999999995e-05,0.00011,0.00015,-5.9999999999999995e-05,-0.00033999999999999997,6
29457,30534,-4e-05,5.9999999999999995e-05,4e-05,5.9999999999999995e-05,0.00011,0.00015,-5.9999999999999995e-05,-0.00033999999999999997,6
29458,30535,-4e-05,5.9999999999999995e-05,4e-05,5.9999999999999995e-05,0.00011,0.00015,-5.9999999999999995e-05,-0.00033999999999999997,6
29459,30536,-4e-05,5.9999999999999995e-05,4e-05,5.9999999999999995e-05,0.00011,0.00015,-5.9999999999999995e-05,-0.00033999999999999997,6
29460,30539,-4e-05,5.9999999999999995e-05,4e-05,5.9999999999999995e-05,0.00011,0.00015,-5.9999999999999995e-05,-0.00033999999999999997,6
29461,30540,-4e-05,5.9999999999999995e-05,4e-05,5.9999999999999995e-05,0.00011,0.00015,-5.9999999999999995e-05,-0.00033999999999999997,6
29462,30541,-4e-05,5.9999999999999995e-05,4e-05,5.9999999999999995e-05,0.00011,0.00015,-5.9999999999999995e-05,-0.00033999999999999997,6
29463,30542,-4e-05,5.9999999999999995e-05,4e-05,5.9999999999999995e-05,0.00011,0.00015,-5.9999999999999995e-05,-0.00033999999999999997,6
29464,30543,-4e-05,5.9999999999999995e-05,4e-05,5.9999999999999995e-05,0.00011,0.00015,-5.9999999999999995e-05,-0.00033999999999999997,6
29465,30544,-4e-05,5.9999999999999995e-05,4e-05,5.9999999999999995e-05,0.00011,0.00015,-5.9999999999999995e-05,-0.00033999999999999997,6
29466,30545,-4e-05,5.9999999999999995e-05,4e-05,5.9999999999999995e-05,0.00011,0.00015,-5.9999999999999995e-05,-0.00033999999999999997,6
29467,30546,-4e-05,5.9999999999999995e-05,4e-05,5.9999999999999995e-05,0.00011,0.00015,-5.9999999999999995e-05,-0.00033999999999999997,6
29468,30547,-4e-05,5.9999999999999995e-05,4e-05,5.9999999999999995e-05,0.00011,0.00015,-5.9999999999999995e-05,-0.00033999999999999997,6
29469,30548,-4e-05,5.9999999999999995e-05,4e-05,5.9999999999999995e-05,0.00011,0.00015,-5.9999999999999995e-05,-0.00033999999999999997,6
29470,30549,-4e-05,5.9999999999999995e-05,4e-05,5.9999999999999995e-05,0.00011,0.00015,-5.9999999999999995e-05,-0.00033999999999999997,6
29471,30550,5e-05,5.9999999999999995e-05,-1e-05,1e-05,-8e-05,-5.9999999999999995e-05,-0.0002,-0.00057,6
29472,30551,-8e-05,-5e-05,-2e-05,2.9999999999999997e-05,5.9999999999999995e-05,2.9999999999999997e-05,-2e-05,4e-05,6
29473,30552,-8e-05,-5e-05,-2e-05,2.9999999999999997e-05,5.9999999999999995e-05,2.9999999999999997e-05,-2e-05,4e-05,6
29474,30553,-8e-05,-5e-05,-2e-05,2.9999999999999997e-05,5.9999999999999995e-05,2.9999999999999997e-05,-2e-05,4e-05,6
29475,30554,-8e-05,-5e-05,-2e-05,2.9999999999999997e-05,5.9999999999999995e-05,2.9999999999999997e-05,-2e-05,4e-05,6
29476,30555,-8e-05,-5e-05,-2e-05,2.9999999999999997e-05,5.9999999999999995e-05,2.9999999999999997e-05,-2e-05,4e-05,6
29477,30556,-8e-05,-5e-05,-2e-05,2.9999999999999997e-05,5.9999999999999995e-05,2.9999999999999997e-05,-2e-05,4e-05,6
29478,30557,-8e-05,-5e-05,-2e-05,2.9999999999999997e-05,5.9999999999999995e-05,2.9999999999999997e-05,-2e-05,4e-05,6
29479,30558,-8e-05,-5e-05,-2e-05,2.9999999999999997e-05,5.9999999999999995e-05,2.9999999999999997e-05,-2e-05,4e-05,6
29480,30559,-8e-05,-5e-05,-2e-05,2.9999999999999997e-05,5.9999999999999995e-05,2.9999999999999997e-05,-2e-05,4e-05,6
29481,30560,-8e-05,-5e-05,-2e-05,2.9999999999999997e-05,5.9999999999999995e-05,2.9999999999999997e-05,-2e-05,4e-05,6
29482,30561,-8e-05,-5e-05,-2e-05,2.9999999999999997e-05,5.9999999999999995e-05,2.9999999999999997e-05,-2e-05,4e-05,6
29483,30562,-8e-05,-5e-05,-2e-05,2.9999999999999997e-05,5.9999999999999995e-05,2.9999999999999997e-05,-2e-05,4e-05,6
29484,30563,-8e-05,-5e-05,-2e-05,2.9999999999999997e-05,5.9999999999999995e-05,2.9999999999999997e-05,-2e-05,4e-05,6
29485,30564,-8e-05,-5e-05,-2e-05,2.9999999999999997e-05,5.9999999999999995e-05,2.9999999999999997e-05,-2e-05,4e-05,6
29486,30565,-8e-05,-5e-05,-2e-05,2.9999999999999997e-05,5.9999999999999995e-05,2.9999999999999997e-05,-2e-05,4e-05,6
29487,30566,-8e-05,-5e-05,-2e-05,2.9999999999999997e-05,5.9999999999999995e-05,2.9999999999999997e-05,-2e-05,4e-05,6
29488,30567,-8e-05,-5e-05,-2e-05,2.9999999999999997e-05,5.9999999999999995e-05,2.9999999999999997e-05,-2e-05,4e-05,6
29489,30568,-8e-05,-5e-05,-2e-05,2.9999999999999997e-05,5.9999999999999995e-05,2.9999999999999997e-05,-2e-05,4e-05,6
29490,30569,-8e-05,-5e-05,-2e-05,2.9999999999999997e-05,5.9999999999999995e-05,2.9999999999999997e-05,-2e-05,4e-05,6
29491,30570,-8e-05,-5e-05,-2e-05,2.9999999999999997e-05,5.9999999999999995e-05,2.9999999999999997e-05,-2e-05,4e-05,6
29492,30571,-8e-05,-5e-05,-2e-05,2.9999999999999997e-05,5.9999999999999995e-05,2.9999999999999997e-05,-2e-05,4e-05,6
29493,30572,-8e-05,-5e-05,-2e-05,2.9999999999999997e-05,5.9999999999999995e-05,2.9999999999999997e-05,-2e-05,4e-05,6
29494,30573,-8e-05,-5e-05,-2e-05,2.9999999999999997e-05,5.9999999999999995e-05,2.9999999999999997e-05,-2e-05,4e-05,6
29495,30574,-8e-05,-5e-05,-2e-05,2.9999999999999997e-05,5.9999999999999995e-05,2.9999999999999997e-05,-2e-05,4e-05,6
29496,30575,-8e-05,-5e-05,-2e-05,2.9999999999999997e-05,5.9999999999999995e-05,2.9999999999999997e-05,-2e-05,4e-05,6
29497,30576,-8e-05,-5e-05,-2e-05,2.9999999999999997e-05,5.9999999999999995e-05,2.9999999999999997e-05,-2e-05,4e-05,6
29498,30577,-8e-05,-5e-05,-2e-05,2.9999999999999997e-05,5.9999999999999995e-05,2.9999999999999997e-05,-2e-05,4e-05,6
29499,30578,-8e-05,-5e-05,-2e-05,2.9999999999999997e-05,5.9999999999999995e-05,2.9999999999999997e-05,-2e-05,4e-05,6
29500,30580,-8e-05,-5e-05,-2e-05,2.9999999999999997e-05,5.9999999999999995e-05,2.9999999999999997e-05,-2e-05,4e-05,6
29501,30581,0.00018,0.00014,5e-05,4e-05,-5e-05,1e-05,0.00014,0.00022999999999999998,6
29502,30582,4e-05,5.9999999999999995e-05,2.9999999999999997e-05,-5.9999999999999995e-05,-5.9999999999999995e-05,-4e-05,-0.00014,-2.9999999999999997e-05,6
29503,30583,4e-05,5.9999999999999995e-05,2.9999999999999997e-05,-5.9999999999999995e-05,-5.9999999999999995e-05,-4e-05,-0.00014,-2.9999999999999997e-05,6
29504,30584,4e-05,5.9999999999999995e-05,2.9999999999999997e-05,-5.9999999999999995e-05,-5.9999999999999995e-05,-4e-05,-0.00014,-2.9999999999999997e-05,6
29505,30586,4e-05,5.9999999999999995e-05,2.9999999999999997e-05,-5.9999999999999995e-05,-5.9999999999999995e-05,-4e-05,-0.00014,-2.9999999999999997e-05,6
29506,30587,4e-05,5.9999999999999995e-05,2.9999999999999997e-05,-5.9999999999999995e-05,-5.9999999999999995e-05,-4e-05,-0.00014,-2.9999999999999997e-05,6
29507,30588,0.00018999999999999998,0.00011,5e-05,0.0001,0.00018999999999999998,0.00011,0.00016999999999999999,0.00011,6
29508,30589,0.00018999999999999998,0.00011,5e-05,0.0001,0.00018999999999999998,0.00011,0.00016999999999999999,0.00011,6
29509,30590,0.00018999999999999998,0.00011,5e-05,0.0001,0.00018999999999999998,0.00011,0.00016999999999999999,0.00011,6
29510,30591,0.00018999999999999998,0.00011,5e-05,0.0001,0.00018999999999999998,0.00011,0.00016999999999999999,0.00011,6
29511,30592,0.00018999999999999998,0.00011,5e-05,0.0001,0.00018999999999999998,0.00011,0.00016999999999999999,0.00011,6
29512,30593,0.00018999999999999998,0.00011,5e-05,0.0001,0.00018999999999999998,0.00011,0.00016999999999999999,0.00011,6
29513,30594,0.00018999999999999998,0.00011,5e-05,0.0001,0.00018999999999999998,0.00011,0.00016999999999999999,0.00011,6
29514,30595,0.00018999999999999998,0.00011,5e-05,0.0001,0.00018999999999999998,0.00011,0.00016999999999999999,0.00011,6
29515,30596,0.00018999999999999998,0.00011,5e-05,0.0001,0.00018999999999999998,0.00011,0.00016999999999999999,0.00011,6
29516,30597,0.00018999999999999998,0.00011,5e-05,0.0001,0.00018999999999999998,0.00011,0.00016999999999999999,0.00011,6
29517,30598,0.00018999999999999998,0.00011,5e-05,0.0001,0.00018999999999999998,0.00011,0.00016999999999999999,0.00011,6
29518,30599,0.00018999999999999998,0.00011,5e-05,0.0001,0.00018999999999999998,0.00011,0.00016999999999999999,0.00011,6
29519,30600,0.00018999999999999998,0.00011,5e-05,0.0001,0.00018999999999999998,0.00011,0.00016999999999999999,0.00011,6
29520,30601,0.00018999999999999998,0.00011,5e-05,0.0001,0.00018999999999999998,0.00011,0.00016999999999999999,0.00011,6
29521,30602,0.00018999999999999998,0.00011,5e-05,0.0001,0.00018999999999999998,0.00011,0.00016999999999999999,0.00011,6
29522,30603,0.00018999999999999998,0.00011,5e-05,0.0001,0.00018999999999999998,0.00011,0.00016999999999999999,0.00011,6
29523,30604,0.00018999999999999998,0.00011,5e-05,0.0001,0.00018999999999999998,0.00011,0.00016999999999999999,0.00011,6
29524,30605,0.00018999999999999998,0.00011,5e-05,0.0001,0.00018999999999999998,0.00011,0.00016999999999999999,0.00011,6
29525,30606,0.00018999999999999998,0.00011,5e-05,0.0001,0.00018999999999999998,0.00011,0.00016999999999999999,0.00011,6
29526,30607,0.00018999999999999998,0.00011,5e-05,0.0001,0.00018999999999999998,0.00011,0.00016999999999999999,0.00011,6
29527,30608,0.00018999999999999998,0.00011,5e-05,0.0001,0.00018999999999999998,0.00011,0.00016999999999999999,0.00011,6
29528,30609,0.00018999999999999998,0.00011,5e-05,0.0001,0.00018999999999999998,0.00011,0.00016999999999999999,0.00011,6
29529,30610,-0.0001,-9e-05,-4e-05,2e-05,7e-05,-7e-05,-0.0002,0.0001,6
29530,30611,-0.00022,-0.0001,-4e-05,-2.9999999999999997e-05,-0.00013000000000000002,-7e-05,1e-05,-7e-05,6
29531,30612,-0.00022,-0.0001,-4e-05,-2.9999999999999997e-05,-0.00013000000000000002,-7e-05,1e-05,-7e-05,6
29532,30613,-0.00022,-0.0001,-4e-05,-2.9999999999999997e-05,-0.00013000000000000002,-7e-05,1e-05,-7e-05,6
29533,30614,-0.00022,-0.0001,-4e-05,-2.9999999999999997e-05,-0.00013000000000000002,-7e-05,1e-05,-7e-05,6
29534,30615,-0.00022,-0.0001,-4e-05,-2.9999999999999997e-05,-0.00013000000000000002,-7e-05,1e-05,-7e-05,6
29535,30616,-0.00022,-0.0001,-4e-05,-2.9999999999999997e-05,-0.00013000000000000002,-7e-05,1e-05,-7e-05,6
29536,30617,-0.00022,-0.0001,-4e-05,-2.9999999999999997e-05,-0.00013000000000000002,-7e-05,1e-05,-7e-05,6
29537,30618,-0.00022,-0.0001,-4e-05,-2.9999999999999997e-05,-0.00013000000000000002,-7e-05,1e-05,-7e-05,6
29538,30619,-0.00022,-0.0001,-4e-05,-2.9999999999999997e-05,-0.00013000000000000002,-7e-05,1e-05,-7e-05,6
29539,30620,-0.00022,-0.0001,-4e-05,-2.9999999999999997e-05,-0.00013000000000000002,-7e-05,1e-05,-7e-05,6
29540,30621,-0.00022,-0.0001,-4e-05,-2.9999999999999997e-05,-0.00013000000000000002,-7e-05,1e-05,-7e-05,6
29541,30622,-0.00022,-0.0001,-4e-05,-2.9999999999999997e-05,-0.00013000000000000002,-7e-05,1e-05,-7e-05,6
29542,30623,-0.00022,-0.0001,-4e-05,-2.9999999999999997e-05,-0.00013000000000000002,-7e-05,1e-05,-7e-05,6
29543,30624,-0.00022,-0.0001,-4e-05,-2.9999999999999997e-05,-0.00013000000000000002,-7e-05,1e-05,-7e-05,6
29544,30625,-0.00022,-0.0001,-4e-05,-2.9999999999999997e-05,-0.00013000000000000002,-7e-05,1e-05,-7e-05,6
29545,30626,-0.00022,-0.0001,-4e-05,-2.9999999999999997e-05,-0.00013000000000000002,-7e-05,1e-05,-7e-05,6
29546,30627,-0.00022,-0.0001,-4e-05,-2.9999999999999997e-05,-0.00013000000000000002,-7e-05,1e-05,-7e-05,6
29547,30628,-0.00022,-0.0001,-4e-05,-2.9999999999999997e-05,-0.00013000000000000002,-7e-05,1e-05,-7e-05,6
29548,30629,-0.00022,-0.0001,-4e-05,-2.9999999999999997e-05,-0.00013000000000000002,-7e-05,1e-05,-7e-05,6
29549,30630,-0.00022,-0.0001,-4e-05,-2.9999999999999997e-05,-0.00013000000000000002,-7e-05,1e-05,-7e-05,6
29550,30631,-0.00022,-0.0001,-4e-05,-2.9999999999999997e-05,-0.00013000000000000002,-7e-05,1e-05,-7e-05,6
29551,30633,-9e-05,0.0001,2.9999999999999997e-05,-5e-05,-0.0001,-8e-05,-0.00023999999999999998,-0.00016,6
29552,30634,-0.00016,-2.9999999999999997e-05,-2e-05,-2.9999999999999997e-05,-5e-05,1e-05,0.00016,0.00045999999999999996,6
29553,30635,-0.00016,-2.9999999999999997e-05,-2e-05,-2.9999999999999997e-05,-5e-05,1e-05,0.00016,0.00045999999999999996,6
29554,30636,-0.00016,-2.9999999999999997e-05,-2e-05,-2.9999999999999997e-05,-5e-05,1e-05,0.00016,0.00045999999999999996,6
29555,30639,-0.00016,-2.9999999999999997e-05,-2e-05,-2.9999999999999997e-05,-5e-05,1e-05,0.00016,0.00045999999999999996,6
29556,30640,-0.00016,-2.9999999999999997e-05,-2e-05,-2.9999999999999997e-05,-5e-05,1e-05,0.00016,0.00045999999999999996,6
29557,30641,-0.00016,-2.9999999999999997e-05,-2e-05,-2.9999999999999997e-05,-5e-05,1e-05,0.00016,0.00045999999999999996,6
29558,30642,-0.00016,-2.9999999999999997e-05,-2e-05,-2.9999999999999997e-05,-5e-05,1e-05,0.00016,0.00045999999999999996,6
29559,30643,-0.00016,-2.9999999999999997e-05,-2e-05,-2.9999999999999997e-05,-5e-05,1e-05,0.00016,0.00045999999999999996,6
29560,30644,-0.00016,-2.9999999999999997e-05,-2e-05,-2.9999999999999997e-05,-5e-05,1e-05,0.00016,0.00045999999999999996,6
29561,30645,-0.00016,-2.9999999999999997e-05,-2e-05,-2.9999999999999997e-05,-5e-05,1e-05,0.00016,0.00045999999999999996,6
29562,30646,-0.00016,-2.9999999999999997e-05,-2e-05,-2.9999999999999997e-05,-5e-05,1e-05,0.00016,0.00045999999999999996,6
29563,30647,-0.00016,-2.9999999999999997e-05,-2e-05,-2.9999999999999997e-05,-5e-05,1e-05,0.00016,0.00045999999999999996,6
29564,30648,-0.00016,-2.9999999999999997e-05,-2e-05,-2.9999999999999997e-05,-5e-05,1e-05,0.00016,0.00045999999999999996,6
29565,30649,-0.00016,-2.9999999999999997e-05,-2e-05,-2.9999999999999997e-05,-5e-05,1e-05,0.00016,0.00045999999999999996,6
29566,30650,-0.00016,-2.9999999999999997e-05,-2e-05,-2.9999999999999997e-05,-5e-05,1e-05,0.00016,0.00045999999999999996,6
29567,30651,-0.00016,-2.9999999999999997e-05,-2e-05,-2.9999999999999997e-05,-5e-05,1e-05,0.00016,0.00045999999999999996,6
29568,30652,-0.00016,-2.9999999999999997e-05,-2e-05,-2.9999999999999997e-05,-5e-05,1e-05,0.00016,0.00045999999999999996,6
29569,30653,-0.00016,-2.9999999999999997e-05,-2e-05,-2.9999999999999997e-05,-5e-05,1e-05,0.00016,0.00045999999999999996,6
29570,30654,-0.00016,-2.9999999999999997e-05,-2e-05,-2.9999999999999997e-05,-5e-05,1e-05,0.00016,0.00045999999999999996,6
29571,30655,-0.00016,-2.9999999999999997e-05,-2e-05,-2.9999999999999997e-05,-5e-05,1e-05,0.00016,0.00045999999999999996,6
29572,30656,-5.9999999999999995e-05,7e-05,-9e-05,-8e-05,-8e-05,-0.00011999999999999999,-0.00022,-0.0002,6
29573,30657,1e-05,-1e-05,-4e-05,-2.9999999999999997e-05,7e-05,-4e-05,-0.00032,-0.00044,6
29574,30658,1e-05,-1e-05,-4e-05,-2.9999999999999997e-05,7e-05,-4e-05,-0.00032,-0.00044,6
29575,30659,1e-05,-1e-05,-4e-05,-2.9999999999999997e-05,7e-05,-4e-05,-0.00032,-0.00044,6
29576,30660,1e-05,-1e-05,-4e-05,-2.9999999999999997e-05,7e-05,-4e-05,-0.00032,-0.00044,6
29577,30661,1e-05,-1e-05,-4e-05,-2.9999999999999997e-05,7e-05,-4e-05,-0.00032,-0.00044,6
29578,30662,1e-05,-1e-05,-4e-05,-2.9999999999999997e-05,7e-05,-4e-05,-0.00032,-0.00044,6
29579,30663,1e-05,-1e-05,-4e-05,-2.9999999999999997e-05,7e-05,-4e-05,-0.00032,-0.00044,6
29580,30664,1e-05,-1e-05,-4e-05,-2.9999999999999997e-05,7e-05,-4e-05,-0.00032,-0.00044,6
29581,30665,1e-05,-1e-05,-4e-05,-2.9999999999999997e-05,7e-05,-4e-05,-0.00032,-0.00044,6
29582,30666,1e-05,-1e-05,-4e-05,-2.9999999999999997e-05,7e-05,-4e-05,-0.00032,-0.00044,6
29583,30667,1e-05,-1e-05,-4e-05,-2.9999999999999997e-05,7e-05,-4e-05,-0.00032,-0.00044,6
29584,30668,1e-05,-1e-05,-4e-05,-2.9999999999999997e-05,7e-05,-4e-05,-0.00032,-0.00044,6
29585,30669,1e-05,-1e-05,-4e-05,-2.9999999999999997e-05,7e-05,-4e-05,-0.00032,-0.00044,6
29586,30670,1e-05,-1e-05,-4e-05,-2.9999999999999997e-05,7e-05,-4e-05,-0.00032,-0.00044,6
29587,30671,1e-05,-1e-05,-4e-05,-2.9999999999999997e-05,7e-05,-4e-05,-0.00032,-0.00044,6
29588,30672,1e-05,-1e-05,-4e-05,-2.9999999999999997e-05,7e-05,-4e-05,-0.00032,-0.00044,6
29589,30673,1e-05,-1e-05,-4e-05,-2.9999999999999997e-05,7e-05,-4e-05,-0.00032,-0.00044,6
29590,30674,1e-05,-1e-05,-4e-05,-2.9999999999999997e-05,7e-05,-4e-05,-0.00032,-0.00044,6
29591,30675,1e-05,-1e-05,-4e-05,-2.9999999999999997e-05,7e-05,-4e-05,-0.00032,-0.00044,6
29592,30676,1e-05,-1e-05,-4e-05,-2.9999999999999997e-05,7e-05,-4e-05,-0.00032,-0.00044,6
29593,30677,1e-05,-1e-05,-4e-05,-2.9999999999999997e-05,7e-05,-4e-05,-0.00032,-0.00044,6
29594,30678,-1e-05,2e-05,2e-05,1e-05,-1e-05,1e-05,0.00022,0.0004,6
29595,30679,-1e-05,2e-05,2e-05,1e-05,-1e-05,1e-05,0.00022,0.0004,6
29596,30680,5e-05,8e-05,-2.9999999999999997e-05,-2e-05,-7e-05,-0.00014,4e-05,2.9999999999999997e-05,6
29597,30681,5e-05,8e-05,-2.9999999999999997e-05,-2e-05,-7e-05,-0.00014,4e-05,2.9999999999999997e-05,6
29598,30682,5e-05,8e-05,-2.9999999999999997e-05,-2e-05,-7e-05,-0.00014,4e-05,2.9999999999999997e-05,6
29599,30683,5e-05,8e-05,-2.9999999999999997e-05,-2e-05,-7e-05,-0.00014,4e-05,2.9999999999999997e-05,6
29600,30684,5e-05,8e-05,-2.9999999999999997e-05,-2e-05,-7e-05,-0.00014,4e-05,2.9999999999999997e-05,6
29601,30685,5e-05,8e-05,-2.9999999999999997e-05,-2e-05,-7e-05,-0.00014,4e-05,2.9999999999999997e-05,6
29602,30686,5e-05,8e-05,-2.9999999999999997e-05,-2e-05,-7e-05,-0.00014,4e-05,2.9999999999999997e-05,6
29603,30688,5e-05,8e-05,-2.9999999999999997e-05,-2e-05,-7e-05,-0.00014,4e-05,2.9999999999999997e-05,6
29604,30689,5e-05,8e-05,-2.9999999999999997e-05,-2e-05,-7e-05,-0.00014,4e-05,2.9999999999999997e-05,6
29605,30690,5e-05,8e-05,-2.9999999999999997e-05,-2e-05,-7e-05,-0.00014,4e-05,2.9999999999999997e-05,6
29606,30691,5e-05,8e-05,-2.9999999999999997e-05,-2e-05,-7e-05,-0.00014,4e-05,2.9999999999999997e-05,6
29607,30692,5e-05,8e-05,-2.9999999999999997e-05,-2e-05,-7e-05,-0.00014,4e-05,2.9999999999999997e-05,6
29608,30693,2.9999999999999997e-05,-2.9999999999999997e-05,8e-05,0.0002,0.00037,7e-05,0.00022999999999999998,0.00022,6
29609,30694,2.9999999999999997e-05,-2.9999999999999997e-05,8e-05,0.0002,0.00037,7e-05,0.00022999999999999998,0.00022,6
29610,30695,2.9999999999999997e-05,-2.9999999999999997e-05,8e-05,0.0002,0.00037,7e-05,0.00022999999999999998,0.00022,6
29611,30696,2.9999999999999997e-05,-2.9999999999999997e-05,8e-05,0.0002,0.00037,7e-05,0.00022999999999999998,0.00022,6
29612,30697,2.9999999999999997e-05,-2.9999999999999997e-05,8e-05,0.0002,0.00037,7e-05,0.00022999999999999998,0.00022,6
29613,30698,2.9999999999999997e-05,-2.9999999999999997e-05,8e-05,0.0002,0.00037,7e-05,0.00022999999999999998,0.00022,6
29614,30699,2.9999999999999997e-05,-2.9999999999999997e-05,8e-05,0.0002,0.00037,7e-05,0.00022999999999999998,0.00022,6
29615,30700,2.9999999999999997e-05,-2.9999999999999997e-05,8e-05,0.0002,0.00037,7e-05,0.00022999999999999998,0.00022,6
29616,30701,2.9999999999999997e-05,-2.9999999999999997e-05,8e-05,0.0002,0.00037,7e-05,0.00022999999999999998,0.00022,6
29617,30702,2.9999999999999997e-05,-2.9999999999999997e-05,8e-05,0.0002,0.00037,7e-05,0.00022999999999999998,0.00022,6
29618,30703,2.9999999999999997e-05,-2.9999999999999997e-05,8e-05,0.0002,0.00037,7e-05,0.00022999999999999998,0.00022,6
29619,30704,2.9999999999999997e-05,-2.9999999999999997e-05,8e-05,0.0002,0.00037,7e-05,0.00022999999999999998,0.00022,6
29620,30705,2.9999999999999997e-05,-2.9999999999999997e-05,8e-05,0.0002,0.00037,7e-05,0.00022999999999999998,0.00022,6
29621,30706,2.9999999999999997e-05,-2.9999999999999997e-05,8e-05,0.0002,0.00037,7e-05,0.00022999999999999998,0.00022,6
29622,30707,2.9999999999999997e-05,-2.9999999999999997e-05,8e-05,0.0002,0.00037,7e-05,0.00022999999999999998,0.00022,6
29623,30708,-0.00037,-0.00013000000000000002,-7e-05,-0.00014,-0.0003,-0.00022999999999999998,-0.00047000000000000004,-0.00033999999999999997,6
29624,30709,-0.00037,-0.00013000000000000002,-7e-05,-0.00014,-0.0003,-0.00022999999999999998,-0.00047000000000000004,-0.00033999999999999997,6
29625,30710,-0.00037,-0.00013000000000000002,-7e-05,-0.00014,-0.0003,-0.00022999999999999998,-0.00047000000000000004,-0.00033999999999999997,6
29626,30711,-0.00037,-0.00013000000000000002,-7e-05,-0.00014,-0.0003,-0.00022999999999999998,-0.00047000000000000004,-0.00033999999999999997,6
29627,30712,-0.00037,-0.00013000000000000002,-7e-05,-0.00014,-0.0003,-0.00022999999999999998,-0.00047000000000000004,-0.00033999999999999997,6
29628,30713,-0.00037,-0.00013000000000000002,-7e-05,-0.00014,-0.0003,-0.00022999999999999998,-0.00047000000000000004,-0.00033999999999999997,6
29629,30714,-0.00037,-0.00013000000000000002,-7e-05,-0.00014,-0.0003,-0.00022999999999999998,-0.00047000000000000004,-0.00033999999999999997,6
29630,30715,-0.00037,-0.00013000000000000002,-7e-05,-0.00014,-0.0003,-0.00022999999999999998,-0.00047000000000000004,-0.00033999999999999997,6
29631,30716,-0.00037,-0.00013000000000000002,-7e-05,-0.00014,-0.0003,-0.00022999999999999998,-0.00047000000000000004,-0.00033999999999999997,6
29632,30717,-0.00037,-0.00013000000000000002,-7e-05,-0.00014,-0.0003,-0.00022999999999999998,-0.00047000000000000004,-0.00033999999999999997,6
29633,30718,-0.00037,-0.00013000000000000002,-7e-05,-0.00014,-0.0003,-0.00022999999999999998,-0.00047000000000000004,-0.00033999999999999997,6
29634,30719,-0.00037,-0.00013000000000000002,-7e-05,-0.00014,-0.0003,-0.00022999999999999998,-0.00047000000000000004,-0.00033999999999999997,6
29635,30720,-0.00037,-0.00013000000000000002,-7e-05,-0.00014,-0.0003,-0.00022999999999999998,-0.00047000000000000004,-0.00033999999999999997,6
29636,30721,-0.00037,-0.00013000000000000002,-7e-05,-0.00014,-0.0003,-0.00022999999999999998,-0.00047000000000000004,-0.00033999999999999997,6
29637,30722,-0.00037,-0.00013000000000000002,-7e-05,-0.00014,-0.0003,-0.00022999999999999998,-0.00047000000000000004,-0.00033999999999999997,6
29638,30723,-0.00037,-0.00013000000000000002,-7e-05,-0.00014,-0.0003,-0.00022999999999999998,-0.00047000000000000004,-0.00033999999999999997,6
29639,30724,-0.00037,-0.00013000000000000002,-7e-05,-0.00014,-0.0003,-0.00022999999999999998,-0.00047000000000000004,-0.00033999999999999997,6
29640,30725,-0.00037,-0.00013000000000000002,-7e-05,-0.00014,-0.0003,-0.00022999999999999998,-0.00047000000000000004,-0.00033999999999999997,6
29641,30726,-0.00037,-0.00013000000000000002,-7e-05,-0.00014,-0.0003,-0.00022999999999999998,-0.00047000000000000004,-0.00033999999999999997,6
29642,30727,-0.00037,-0.00013000000000000002,-7e-05,-0.00014,-0.0003,-0.00022999999999999998,-0.00047000000000000004,-0.00033999999999999997,6
29643,30728,-0.00037,-0.00013000000000000002,-7e-05,-0.00014,-0.0003,-0.00022999999999999998,-0.00047000000000000004,-0.00033999999999999997,6
29644,30729,-0.00037,-0.00013000000000000002,-7e-05,-0.00014,-0.0003,-0.00022999999999999998,-0.00047000000000000004,-0.00033999999999999997,6
29645,30730,-0.00037,-0.00013000000000000002,-7e-05,-0.00014,-0.0003,-0.00022999999999999998,-0.00047000000000000004,-0.00033999999999999997,6
29646,30731,8e-05,-4e-05,7e-05,8e-05,0.00026000000000000003,0.00011,-7e-05,-0.00022999999999999998,6
29647,30732,8e-05,-4e-05,7e-05,8e-05,0.00026000000000000003,0.00011,-7e-05,-0.00022999999999999998,6
29648,30733,8e-05,-4e-05,7e-05,8e-05,0.00026000000000000003,0.00011,-7e-05,-0.00022999999999999998,6
29649,30734,8e-05,-4e-05,7e-05,8e-05,0.00026000000000000003,0.00011,-7e-05,-0.00022999999999999998,6
29650,30735,8e-05,-4e-05,7e-05,8e-05,0.00026000000000000003,0.00011,-7e-05,-0.00022999999999999998,6
29651,30736,8e-05,-4e-05,7e-05,8e-05,0.00026000000000000003,0.00011,-7e-05,-0.00022999999999999998,6
29652,30738,8e-05,-4e-05,7e-05,8e-05,0.00026000000000000003,0.00011,-7e-05,-0.00022999999999999998,6
29653,30740,8e-05,-4e-05,7e-05,8e-05,0.00026000000000000003,0.00011,-7e-05,-0.00022999999999999998,6
29654,30741,8e-05,-4e-05,7e-05,8e-05,0.00026000000000000003,0.00011,-7e-05,-0.00022999999999999998,6
29655,30742,8e-05,-4e-05,7e-05,8e-05,0.00026000000000000003,0.00011,-7e-05,-0.00022999999999999998,6
29656,30743,8e-05,-4e-05,7e-05,8e-05,0.00026000000000000003,0.00011,-7e-05,-0.00022999999999999998,6
29657,30744,8e-05,-4e-05,7e-05,8e-05,0.00026000000000000003,0.00011,-7e-05,-0.00022999999999999998,6
29658,30745,8e-05,-4e-05,7e-05,8e-05,0.00026000000000000003,0.00011,-7e-05,-0.00022999999999999998,6
29659,30746,8e-05,-4e-05,7e-05,8e-05,0.00026000000000000003,0.00011,-7e-05,-0.00022999999999999998,6
29660,30747,8e-05,-4e-05,7e-05,8e-05,0.00026000000000000003,0.00011,-7e-05,-0.00022999999999999998,6
29661,30748,8e-05,-4e-05,7e-05,8e-05,0.00026000000000000003,0.00011,-7e-05,-0.00022999999999999998,6
29662,30749,8e-05,-4e-05,7e-05,8e-05,0.00026000000000000003,0.00011,-7e-05,-0.00022999999999999998,6
29663,30750,8e-05,-4e-05,7e-05,8e-05,0.00026000000000000003,0.00011,-7e-05,-0.00022999999999999998,6
29664,30751,8e-05,-4e-05,7e-05,8e-05,0.00026000000000000003,0.00011,-7e-05,-0.00022999999999999998,6
29665,30752,8e-05,-4e-05,7e-05,8e-05,0.00026000000000000003,0.00011,-7e-05,-0.00022999999999999998,6
29666,30753,-0.0001,5e-05,-1e-05,-5e-05,-2e-05,9e-05,7e-05,-0.00014,6
29667,30754,-0.0001,5e-05,-1e-05,-5e-05,-2e-05,9e-05,7e-05,-0.00014,6
29668,30755,-0.0001,5e-05,-1e-05,-5e-05,-2e-05,9e-05,7e-05,-0.00014,6
29669,30756,-0.0001,5e-05,-1e-05,-5e-05,-2e-05,9e-05,7e-05,-0.00014,6
29670,30757,-0.0001,5e-05,-1e-05,-5e-05,-2e-05,9e-05,7e-05,-0.00014,6
29671,30758,-0.0001,5e-05,-1e-05,-5e-05,-2e-05,9e-05,7e-05,-0.00014,6
29672,30759,-0.0001,5e-05,-1e-05,-5e-05,-2e-05,9e-05,7e-05,-0.00014,6
29673,30760,-0.0001,5e-05,-1e-05,-5e-05,-2e-05,9e-05,7e-05,-0.00014,6
29674,30761,-0.0001,5e-05,-1e-05,-5e-05,-2e-05,9e-05,7e-05,-0.00014,6
29675,30762,-0.0001,5e-05,-1e-05,-5e-05,-2e-05,9e-05,7e-05,-0.00014,6
29676,30763,-0.0001,5e-05,-1e-05,-5e-05,-2e-05,9e-05,7e-05,-0.00014,6
29677,30764,-0.0001,5e-05,-1e-05,-5e-05,-2e-05,9e-05,7e-05,-0.00014,6
29678,30765,-0.0001,5e-05,-1e-05,-5e-05,-2e-05,9e-05,7e-05,-0.00014,6
29679,30766,-0.0001,5e-05,-1e-05,-5e-05,-2e-05,9e-05,7e-05,-0.00014,6
29680,30767,-0.0001,5e-05,-1e-05,-5e-05,-2e-05,9e-05,7e-05,-0.00014,6
29681,30768,5.9999999999999995e-05,0.0001,0.00022999999999999998,5.9999999999999995e-05,2e-05,0.00013000000000000002,0.00036,-5e-05,6
29682,30769,5.9999999999999995e-05,0.0001,0.00022999999999999998,5.9999999999999995e-05,2e-05,0.00013000000000000002,0.00036,-5e-05,6
29683,30770,5.9999999999999995e-05,0.0001,0.00022999999999999998,5.9999999999999995e-05,2e-05,0.00013000000000000002,0.00036,-5e-05,6
29684,30771,5.9999999999999995e-05,0.0001,0.00022999999999999998,5.9999999999999995e-05,2e-05,0.00013000000000000002,0.00036,-5e-05,6
29685,30772,5.9999999999999995e-05,0.0001,0.00022999999999999998,5.9999999999999995e-05,2e-05,0.00013000000000000002,0.00036,-5e-05,6
29686,30774,5.9999999999999995e-05,0.0001,0.00022999999999999998,5.9999999999999995e-05,2e-05,0.00013000000000000002,0.00036,-5e-05,6
29687,30775,0.00026000000000000003,8e-05,-5e-05,-9e-05,-0.00021,-0.00014,-5.9999999999999995e-05,7e-05,6
29688,30776,0.00026000000000000003,8e-05,-5e-05,-9e-05,-0.00021,-0.00014,-5.9999999999999995e-05,7e-05,6
29689,30777,0.00026000000000000003,8e-05,-5e-05,-9e-05,-0.00021,-0.00014,-5.9999999999999995e-05,7e-05,6
29690,30778,0.00026000000000000003,8e-05,-5e-05,-9e-05,-0.00021,-0.00014,-5.9999999999999995e-05,7e-05,6
29691,30779,0.00026000000000000003,8e-05,-5e-05,-9e-05,-0.00021,-0.00014,-5.9999999999999995e-05,7e-05,6
29692,30780,0.00026000000000000003,8e-05,-5e-05,-9e-05,-0.00021,-0.00014,-5.9999999999999995e-05,7e-05,6
29693,30781,0.00026000000000000003,8e-05,-5e-05,-9e-05,-0.00021,-0.00014,-5.9999999999999995e-05,7e-05,6
29694,30782,0.00026000000000000003,8e-05,-5e-05,-9e-05,-0.00021,-0.00014,-5.9999999999999995e-05,7e-05,6
29695,30783,0.00026000000000000003,8e-05,-5e-05,-9e-05,-0.00021,-0.00014,-5.9999999999999995e-05,7e-05,6
29696,30784,0.00026000000000000003,8e-05,-5e-05,-9e-05,-0.00021,-0.00014,-5.9999999999999995e-05,7e-05,6
29697,30785,0.00026000000000000003,8e-05,-5e-05,-9e-05,-0.00021,-0.00014,-5.9999999999999995e-05,7e-05,6
29698,30786,0.00026000000000000003,8e-05,-5e-05,-9e-05,-0.00021,-0.00014,-5.9999999999999995e-05,7e-05,6
29699,30788,0.00026000000000000003,8e-05,-5e-05,-9e-05,-0.00021,-0.00014,-5.9999999999999995e-05,7e-05,6
29700,30789,0.00026000000000000003,8e-05,-5e-05,-9e-05,-0.00021,-0.00014,-5.9999999999999995e-05,7e-05,6
29701,30790,2e-05,-5e-05,-2.9999999999999997e-05,-5e-05,-4e-05,-7e-05,-8e-05,-1e-05,6
29702,30791,-0.00013000000000000002,-0.00014,-1e-05,-9e-05,-0.00018999999999999998,0.0,-1e-05,-7e-05,6
29703,30792,-0.00013000000000000002,-0.00014,-1e-05,-9e-05,-0.00018999999999999998,0.0,-1e-05,-7e-05,6
29704,30793,-0.00013000000000000002,-0.00014,-1e-05,-9e-05,-0.00018999999999999998,0.0,-1e-05,-7e-05,6
29705,30794,-0.00013000000000000002,-0.00014,-1e-05,-9e-05,-0.00018999999999999998,0.0,-1e-05,-7e-05,6
29706,30795,-0.00013000000000000002,-0.00014,-1e-05,-9e-05,-0.00018999999999999998,0.0,-1e-05,-7e-05,6
29707,30796,-0.00013000000000000002,-0.00014,-1e-05,-9e-05,-0.00018999999999999998,0.0,-1e-05,-7e-05,6
29708,30797,-0.00013000000000000002,-0.00014,-1e-05,-9e-05,-0.00018999999999999998,0.0,-1e-05,-7e-05,6
29709,30798,-0.00013000000000000002,-0.00014,-1e-05,-9e-05,-0.00018999999999999998,0.0,-1e-05,-7e-05,6
29710,30799,-0.00013000000000000002,-0.00014,-1e-05,-9e-05,-0.00018999999999999998,0.0,-1e-05,-7e-05,6
29711,30800,-0.00013000000000000002,-0.00014,-1e-05,-9e-05,-0.00018999999999999998,0.0,-1e-05,-7e-05,6
29712,30801,-0.00013000000000000002,-0.00014,-1e-05,-9e-05,-0.00018999999999999998,0.0,-1e-05,-7e-05,6
29713,30802,-0.00013000000000000002,-0.00014,-1e-05,-9e-05,-0.00018999999999999998,0.0,-1e-05,-7e-05,6
29714,30803,-0.00013000000000000002,-0.00014,-1e-05,-9e-05,-0.00018999999999999998,0.0,-1e-05,-7e-05,6
29715,30804,-0.00013000000000000002,-0.00014,-1e-05,-9e-05,-0.00018999999999999998,0.0,-1e-05,-7e-05,6
29716,30805,-0.00013000000000000002,-0.00014,-1e-05,-9e-05,-0.00018999999999999998,0.0,-1e-05,-7e-05,6
29717,30806,-0.00013000000000000002,-0.00014,-1e-05,-9e-05,-0.00018999999999999998,0.0,-1e-05,-7e-05,6
29718,30807,-0.00013000000000000002,-0.00014,-1e-05,-9e-05,-0.00018999999999999998,0.0,-1e-05,-7e-05,6
29719,30808,-0.00013000000000000002,-0.00014,-1e-05,-9e-05,-0.00018999999999999998,0.0,-1e-05,-7e-05,6
29720,30809,-0.00013000000000000002,-0.00014,-1e-05,-9e-05,-0.00018999999999999998,0.0,-1e-05,-7e-05,6
29721,30810,-0.00013000000000000002,-0.00014,-1e-05,-9e-05,-0.00018999999999999998,0.0,-1e-05,-7e-05,6
29722,30811,-0.00013000000000000002,-0.00014,-1e-05,-9e-05,-0.00018999999999999998,0.0,-1e-05,-7e-05,6
29723,30812,-0.00013000000000000002,-0.00014,-1e-05,-9e-05,-0.00018999999999999998,0.0,-1e-05,-7e-05,6
29724,30813,-9e-05,2.9999999999999997e-05,9e-05,5.9999999999999995e-05,0.00018999999999999998,5.9999999999999995e-05,-8e-05,2e-05,6
29725,30814,0.00056,0.00026000000000000003,-0.00011999999999999999,-8e-05,-8e-05,-1e-05,8e-05,0.00027,6
29726,30815,0.00056,0.00026000000000000003,-0.00011999999999999999,-8e-05,-8e-05,-1e-05,8e-05,0.00027,6
29727,30816,0.00056,0.00026000000000000003,-0.00011999999999999999,-8e-05,-8e-05,-1e-05,8e-05,0.00027,6
29728,30817,0.00056,0.00026000000000000003,-0.00011999999999999999,-8e-05,-8e-05,-1e-05,8e-05,0.00027,6
29729,30818,0.00056,0.00026000000000000003,-0.00011999999999999999,-8e-05,-8e-05,-1e-05,8e-05,0.00027,6
29730,30819,0.00056,0.00026000000000000003,-0.00011999999999999999,-8e-05,-8e-05,-1e-05,8e-05,0.00027,6
29731,30820,0.00056,0.00026000000000000003,-0.00011999999999999999,-8e-05,-8e-05,-1e-05,8e-05,0.00027,6
29732,30821,0.00056,0.00026000000000000003,-0.00011999999999999999,-8e-05,-8e-05,-1e-05,8e-05,0.00027,6
29733,30822,0.00056,0.00026000000000000003,-0.00011999999999999999,-8e-05,-8e-05,-1e-05,8e-05,0.00027,6
29734,30823,0.00056,0.00026000000000000003,-0.00011999999999999999,-8e-05,-8e-05,-1e-05,8e-05,0.00027,6
29735,30824,0.00056,0.00026000000000000003,-0.00011999999999999999,-8e-05,-8e-05,-1e-05,8e-05,0.00027,6
29736,30825,0.00056,0.00026000000000000003,-0.00011999999999999999,-8e-05,-8e-05,-1e-05,8e-05,0.00027,6
29737,30826,0.00056,0.00026000000000000003,-0.00011999999999999999,-8e-05,-8e-05,-1e-05,8e-05,0.00027,6
29738,30827,0.00056,0.00026000000000000003,-0.00011999999999999999,-8e-05,-8e-05,-1e-05,8e-05,0.00027,6
29739,30828,-1e-05,-0.00013000000000000002,-5.9999999999999995e-05,5e-05,4e-05,-1e-05,-9e-05,2e-05,6
29740,30829,-1e-05,-0.00013000000000000002,-5.9999999999999995e-05,5e-05,4e-05,-1e-05,-9e-05,2e-05,6
29741,30830,-1e-05,-0.00013000000000000002,-5.9999999999999995e-05,5e-05,4e-05,-1e-05,-9e-05,2e-05,6
29742,30831,-1e-05,-0.00013000000000000002,-5.9999999999999995e-05,5e-05,4e-05,-1e-05,-9e-05,2e-05,6
29743,30832,-1e-05,-0.00013000000000000002,-5.9999999999999995e-05,5e-05,4e-05,-1e-05,-9e-05,2e-05,6
29744,30833,-1e-05,-0.00013000000000000002,-5.9999999999999995e-05,5e-05,4e-05,-1e-05,-9e-05,2e-05,6
29745,30834,-1e-05,-0.00013000000000000002,-5.9999999999999995e-05,5e-05,4e-05,-1e-05,-9e-05,2e-05,6
29746,30835,-0.00016,-0.00018,-2.9999999999999997e-05,1e-05,-5e-05,-7e-05,0.00021,0.00022999999999999998,6
29747,30836,-0.00016,-0.00018,-2.9999999999999997e-05,1e-05,-5e-05,-7e-05,0.00021,0.00022999999999999998,6
29748,30838,-0.00016,-0.00018,-2.9999999999999997e-05,1e-05,-5e-05,-7e-05,0.00021,0.00022999999999999998,6
29749,30839,-0.00016,-0.00018,-2.9999999999999997e-05,1e-05,-5e-05,-7e-05,0.00021,0.00022999999999999998,6
29750,30840,-0.00016,-0.00018,-2.9999999999999997e-05,1e-05,-5e-05,-7e-05,0.00021,0.00022999999999999998,6
29751,30841,-0.00016,-0.00018,-2.9999999999999997e-05,1e-05,-5e-05,-7e-05,0.00021,0.00022999999999999998,6
29752,30842,-0.00016,-0.00018,-2.9999999999999997e-05,1e-05,-5e-05,-7e-05,0.00021,0.00022999999999999998,6
29753,30843,-0.00016,-0.00018,-2.9999999999999997e-05,1e-05,-5e-05,-7e-05,0.00021,0.00022999999999999998,6
29754,30844,-0.00016,-0.00018,-2.9999999999999997e-05,1e-05,-5e-05,-7e-05,0.00021,0.00022999999999999998,6
29755,30845,-0.00016,-0.00018,-2.9999999999999997e-05,1e-05,-5e-05,-7e-05,0.00021,0.00022999999999999998,6
29756,30846,-0.00016,-0.00018,-2.9999999999999997e-05,1e-05,-5e-05,-7e-05,0.00021,0.00022999999999999998,6
29757,30847,-0.00016,-0.00018,-2.9999999999999997e-05,1e-05,-5e-05,-7e-05,0.00021,0.00022999999999999998,6
29758,30848,-0.00016,-0.00018,-2.9999999999999997e-05,1e-05,-5e-05,-7e-05,0.00021,0.00022999999999999998,6
29759,30849,-0.00016,-0.00018,-2.9999999999999997e-05,1e-05,-5e-05,-7e-05,0.00021,0.00022999999999999998,6
29760,30850,-0.00016,-0.00018,-2.9999999999999997e-05,1e-05,-5e-05,-7e-05,0.00021,0.00022999999999999998,6
29761,30851,-0.00016,-0.00018,-2.9999999999999997e-05,1e-05,-5e-05,-7e-05,0.00021,0.00022999999999999998,6
29762,30852,-0.00016,-0.00018,-2.9999999999999997e-05,1e-05,-5e-05,-7e-05,0.00021,0.00022999999999999998,6
29763,30853,-0.00016,-0.00018,-2.9999999999999997e-05,1e-05,-5e-05,-7e-05,0.00021,0.00022999999999999998,6
29764,30854,-0.00016,-0.00018,-2.9999999999999997e-05,1e-05,-5e-05,-7e-05,0.00021,0.00022999999999999998,6
29765,30855,-0.00016,-0.00018,-2.9999999999999997e-05,1e-05,-5e-05,-7e-05,0.00021,0.00022999999999999998,6
29766,30856,-0.00016,-0.00018,-2.9999999999999997e-05,1e-05,-5e-05,-7e-05,0.00021,0.00022999999999999998,6
29767,30857,-0.00016,-0.00018,-2.9999999999999997e-05,1e-05,-5e-05,-7e-05,0.00021,0.00022999999999999998,6
29768,30858,-1e-05,-5e-05,-2.9999999999999997e-05,1e-05,0.00011999999999999999,0.00018999999999999998,0.00032,0.00014,6
29769,30859,-0.00014,-7e-05,-4e-05,-4e-05,-0.00016999999999999999,-0.00011,-0.00016999999999999999,-0.00022,6
29770,30860,-0.00014,-7e-05,-4e-05,-4e-05,-0.00016999999999999999,-0.00011,-0.00016999999999999999,-0.00022,6
29771,30861,-0.00014,-7e-05,-4e-05,-4e-05,-0.00016999999999999999,-0.00011,-0.00016999999999999999,-0.00022,6
29772,30862,-0.00014,-7e-05,-4e-05,-4e-05,-0.00016999999999999999,-0.00011,-0.00016999999999999999,-0.00022,6
29773,30863,-0.00014,-7e-05,-4e-05,-4e-05,-0.00016999999999999999,-0.00011,-0.00016999999999999999,-0.00022,6
29774,30864,-0.00014,-7e-05,-4e-05,-4e-05,-0.00016999999999999999,-0.00011,-0.00016999999999999999,-0.00022,6
29775,30865,-0.00014,-7e-05,-4e-05,-4e-05,-0.00016999999999999999,-0.00011,-0.00016999999999999999,-0.00022,6
29776,30866,-0.00014,-7e-05,-4e-05,-4e-05,-0.00016999999999999999,-0.00011,-0.00016999999999999999,-0.00022,6
29777,30868,-0.00014,-7e-05,-4e-05,-4e-05,-0.00016999999999999999,-0.00011,-0.00016999999999999999,-0.00022,6
29778,30869,-0.00014,-7e-05,-4e-05,-4e-05,-0.00016999999999999999,-0.00011,-0.00016999999999999999,-0.00022,6
29779,30870,-0.00014,-7e-05,-4e-05,-4e-05,-0.00016999999999999999,-0.00011,-0.00016999999999999999,-0.00022,6
29780,30871,-0.00014,-7e-05,-4e-05,-4e-05,-0.00016999999999999999,-0.00011,-0.00016999999999999999,-0.00022,6
29781,30872,-0.00014,-7e-05,-4e-05,-4e-05,-0.00016999999999999999,-0.00011,-0.00016999999999999999,-0.00022,6
29782,30873,-0.00014,-7e-05,-4e-05,-4e-05,-0.00016999999999999999,-0.00011,-0.00016999999999999999,-0.00022,6
29783,30874,-0.00014,-7e-05,-4e-05,-4e-05,-0.00016999999999999999,-0.00011,-0.00016999999999999999,-0.00022,6
29784,30875,-0.00014,-7e-05,-4e-05,-4e-05,-0.00016999999999999999,-0.00011,-0.00016999999999999999,-0.00022,6
29785,30876,-0.00014,-7e-05,-4e-05,-4e-05,-0.00016999999999999999,-0.00011,-0.00016999999999999999,-0.00022,6
29786,30877,-0.00014,-7e-05,-4e-05,-4e-05,-0.00016999999999999999,-0.00011,-0.00016999999999999999,-0.00022,6
29787,30878,-0.00014,-7e-05,-4e-05,-4e-05,-0.00016999999999999999,-0.00011,-0.00016999999999999999,-0.00022,6
29788,30879,-0.00014,-7e-05,-4e-05,-4e-05,-0.00016999999999999999,-0.00011,-0.00016999999999999999,-0.00022,6
29789,30880,-0.00014,-7e-05,-4e-05,-4e-05,-0.00016999999999999999,-0.00011,-0.00016999999999999999,-0.00022,6
29790,30881,-0.00021,-4e-05,-2.9999999999999997e-05,2e-05,0.00011,0.00011,4e-05,-0.00025,6
29791,30882,0.0,1e-05,-8e-05,-0.00011,-0.00018,-5.9999999999999995e-05,9e-05,4e-05,6
29792,30883,0.0,1e-05,2.9999999999999997e-05,-7e-05,-7e-05,-5e-05,-0.00011999999999999999,-0.0001,6
29793,30884,0.0,1e-05,2.9999999999999997e-05,-7e-05,-7e-05,-5e-05,-0.00011999999999999999,-0.0001,6
29794,30885,0.0,1e-05,2.9999999999999997e-05,-7e-05,-7e-05,-5e-05,-0.00011999999999999999,-0.0001,6
29795,30886,0.0004,0.0003,0.0,-2e-05,-0.00022,-0.00018999999999999998,2e-05,9e-05,6
29796,30889,7e-05,-0.00015,0.00011,9e-05,0.00035,0.00022999999999999998,-0.00013000000000000002,-0.00016,6
29797,30890,7e-05,-0.00015,0.00011,9e-05,0.00035,0.00022999999999999998,-0.00013000000000000002,-0.00016,6
29798,30891,7e-05,-0.00015,0.00011,9e-05,0.00035,0.00022999999999999998,-0.00013000000000000002,-0.00016,6
29799,30892,7e-05,-0.00015,0.00011,9e-05,0.00035,0.00022999999999999998,-0.00013000000000000002,-0.00016,6
29800,30893,7e-05,-0.00015,0.00011,9e-05,0.00035,0.00022999999999999998,-0.00013000000000000002,-0.00016,6
29801,30894,7e-05,-0.00015,0.00011,9e-05,0.00035,0.00022999999999999998,-0.00013000000000000002,-0.00016,6
29802,30895,7e-05,-0.00015,0.00011,9e-05,0.00035,0.00022999999999999998,-0.00013000000000000002,-0.00016,6
29803,30896,-2e-05,8e-05,-1e-05,0.0,1e-05,8e-05,1e-05,0.00013000000000000002,6
29804,30897,-2e-05,8e-05,-1e-05,0.0,1e-05,8e-05,1e-05,0.00013000000000000002,6
29805,30898,-2e-05,8e-05,-1e-05,0.0,1e-05,8e-05,1e-05,0.00013000000000000002,6
29806,30899,-2e-05,8e-05,-1e-05,0.0,1e-05,8e-05,1e-05,0.00013000000000000002,6
29807,30900,-2e-05,8e-05,-1e-05,0.0,1e-05,8e-05,1e-05,0.00013000000000000002,6
29808,30901,-2e-05,8e-05,-1e-05,0.0,1e-05,8e-05,1e-05,0.00013000000000000002,6
29809,30902,-2e-05,8e-05,-1e-05,0.0,1e-05,8e-05,1e-05,0.00013000000000000002,6
29810,30903,-2e-05,8e-05,-1e-05,0.0,1e-05,8e-05,1e-05,0.00013000000000000002,6
29811,30904,-2e-05,8e-05,-1e-05,0.0,1e-05,8e-05,1e-05,0.00013000000000000002,6
29812,30905,-2e-05,8e-05,-1e-05,0.0,1e-05,8e-05,1e-05,0.00013000000000000002,6
29813,30906,-2e-05,8e-05,-1e-05,0.0,1e-05,8e-05,1e-05,0.00013000000000000002,6
29814,30907,-2e-05,8e-05,-1e-05,0.0,1e-05,8e-05,1e-05,0.00013000000000000002,6
29815,30908,-2e-05,8e-05,-1e-05,0.0,1e-05,8e-05,1e-05,0.00013000000000000002,6
29816,30910,5e-05,2.9999999999999997e-05,-2e-05,-2e-05,-0.00014,-0.00018,-0.00015,0.00018999999999999998,6
29817,30911,-5.9999999999999995e-05,-0.0001,-1e-05,9e-05,0.00014,-1e-05,-0.00013000000000000002,-5e-05,6
29818,30912,-5.9999999999999995e-05,-0.0001,-1e-05,9e-05,0.00014,-1e-05,-0.00013000000000000002,-5e-05,6
29819,30913,-5.9999999999999995e-05,-0.0001,-1e-05,9e-05,0.00014,-1e-05,-0.00013000000000000002,-5e-05,6
29820,30914,-5.9999999999999995e-05,-0.0001,-1e-05,9e-05,0.00014,-1e-05,-0.00013000000000000002,-5e-05,6
29821,30915,-5.9999999999999995e-05,-0.0001,-1e-05,9e-05,0.00014,-1e-05,-0.00013000000000000002,-5e-05,6
29822,30916,-5.9999999999999995e-05,-0.0001,-1e-05,9e-05,0.00014,-1e-05,-0.00013000000000000002,-5e-05,6
29823,30917,-5.9999999999999995e-05,-0.0001,-1e-05,9e-05,0.00014,-1e-05,-0.00013000000000000002,-5e-05,6
29824,30918,-5.9999999999999995e-05,-0.0001,-1e-05,9e-05,0.00014,-1e-05,-0.00013000000000000002,-5e-05,6
29825,30919,-5.9999999999999995e-05,-0.0001,-1e-05,9e-05,0.00014,-1e-05,-0.00013000000000000002,-5e-05,6
29826,30920,-5.9999999999999995e-05,-0.0001,-1e-05,9e-05,0.00014,-1e-05,-0.00013000000000000002,-5e-05,6
29827,30921,-5.9999999999999995e-05,-0.0001,-1e-05,9e-05,0.00014,-1e-05,-0.00013000000000000002,-5e-05,6
29828,30922,-5.9999999999999995e-05,-0.0001,-1e-05,9e-05,0.00014,-1e-05,-0.00013000000000000002,-5e-05,6
29829,30923,-5.9999999999999995e-05,-0.0001,-1e-05,9e-05,0.00014,-1e-05,-0.00013000000000000002,-5e-05,6
29830,30924,-5.9999999999999995e-05,-0.0001,-1e-05,9e-05,0.00014,-1e-05,-0.00013000000000000002,-5e-05,6
29831,30925,-5.9999999999999995e-05,-0.0001,-1e-05,9e-05,0.00014,-1e-05,-0.00013000000000000002,-5e-05,6
29832,30926,-5.9999999999999995e-05,-0.0001,-1e-05,9e-05,0.00014,-1e-05,-0.00013000000000000002,-5e-05,6
29833,30927,-5.9999999999999995e-05,-0.0001,-1e-05,9e-05,0.00014,-1e-05,-0.00013000000000000002,-5e-05,6
29834,30928,-5.9999999999999995e-05,-0.0001,-1e-05,9e-05,0.00014,-1e-05,-0.00013000000000000002,-5e-05,6
29835,30929,-5.9999999999999995e-05,-0.0001,-1e-05,9e-05,0.00014,-1e-05,-0.00013000000000000002,-5e-05,6
29836,30930,-5.9999999999999995e-05,-0.0001,-1e-05,9e-05,0.00014,-1e-05,-0.00013000000000000002,-5e-05,6
29837,30931,-5.9999999999999995e-05,-0.0001,-1e-05,9e-05,0.00014,-1e-05,-0.00013000000000000002,-5e-05,6
29838,30932,-5.9999999999999995e-05,-0.0001,-1e-05,9e-05,0.00014,-1e-05,-0.00013000000000000002,-5e-05,6
29839,30933,-5.9999999999999995e-05,-0.0001,-1e-05,9e-05,0.00014,-1e-05,-0.00013000000000000002,-5e-05,6
29840,30934,5.9999999999999995e-05,2e-05,0.0001,-2.9999999999999997e-05,-4e-05,0.0,0.00015,0.00016,6
29841,30935,5.9999999999999995e-05,2e-05,0.0001,-2.9999999999999997e-05,-4e-05,0.0,0.00015,0.00016,6
29842,30936,5.9999999999999995e-05,2e-05,0.0001,-2.9999999999999997e-05,-4e-05,0.0,0.00015,0.00016,6
29843,30939,5.9999999999999995e-05,2e-05,0.0001,-2.9999999999999997e-05,-4e-05,0.0,0.00015,0.00016,6
29844,30940,5.9999999999999995e-05,2e-05,0.0001,-2.9999999999999997e-05,-4e-05,0.0,0.00015,0.00016,6
29845,30941,5.9999999999999995e-05,2e-05,0.0001,-2.9999999999999997e-05,-4e-05,0.0,0.00015,0.00016,6
29846,30942,5.9999999999999995e-05,2e-05,0.0001,-2.9999999999999997e-05,-4e-05,0.0,0.00015,0.00016,6
29847,30943,5.9999999999999995e-05,2e-05,0.0001,-2.9999999999999997e-05,-4e-05,0.0,0.00015,0.00016,6
29848,30944,5.9999999999999995e-05,2e-05,0.0001,-2.9999999999999997e-05,-4e-05,0.0,0.00015,0.00016,6
29849,30945,5.9999999999999995e-05,2e-05,0.0001,-2.9999999999999997e-05,-4e-05,0.0,0.00015,0.00016,6
29850,30946,5.9999999999999995e-05,2e-05,0.0001,-2.9999999999999997e-05,-4e-05,0.0,0.00015,0.00016,6
29851,30947,5.9999999999999995e-05,2e-05,0.0001,-2.9999999999999997e-05,-4e-05,0.0,0.00015,0.00016,6
29852,30948,5.9999999999999995e-05,2e-05,0.0001,-2.9999999999999997e-05,-4e-05,0.0,0.00015,0.00016,6
29853,30949,5.9999999999999995e-05,2e-05,0.0001,-2.9999999999999997e-05,-4e-05,0.0,0.00015,0.00016,6
29854,30950,5.9999999999999995e-05,2e-05,0.0001,-2.9999999999999997e-05,-4e-05,0.0,0.00015,0.00016,6
29855,30951,5.9999999999999995e-05,2e-05,0.0001,-2.9999999999999997e-05,-4e-05,0.0,0.00015,0.00016,6
29856,30952,5.9999999999999995e-05,2e-05,0.0001,-2.9999999999999997e-05,-4e-05,0.0,0.00015,0.00016,6
29857,30953,5.9999999999999995e-05,2e-05,0.0001,-2.9999999999999997e-05,-4e-05,0.0,0.00015,0.00016,6
29858,30954,5.9999999999999995e-05,2e-05,0.0001,-2.9999999999999997e-05,-4e-05,0.0,0.00015,0.00016,6
29859,30955,5.9999999999999995e-05,2e-05,0.0001,-2.9999999999999997e-05,-4e-05,0.0,0.00015,0.00016,6
29860,30956,0.00013000000000000002,-2e-05,-5.9999999999999995e-05,-8e-05,-0.00011,-0.00015,-0.00011999999999999999,0.00016,6
29861,30957,0.00014,0.00013000000000000002,1e-05,-1e-05,-4e-05,-5.9999999999999995e-05,-5.9999999999999995e-05,-1e-05,6
29862,30958,0.00014,0.00013000000000000002,1e-05,-1e-05,-4e-05,-5.9999999999999995e-05,-5.9999999999999995e-05,-1e-05,6
29863,30959,0.00014,0.00013000000000000002,1e-05,-1e-05,-4e-05,-5.9999999999999995e-05,-5.9999999999999995e-05,-1e-05,6
29864,30960,0.00014,0.00013000000000000002,1e-05,-1e-05,-4e-05,-5.9999999999999995e-05,-5.9999999999999995e-05,-1e-05,6
29865,30961,0.00014,0.00013000000000000002,1e-05,-1e-05,-4e-05,-5.9999999999999995e-05,-5.9999999999999995e-05,-1e-05,6
29866,30962,0.00014,0.00013000000000000002,1e-05,-1e-05,-4e-05,-5.9999999999999995e-05,-5.9999999999999995e-05,-1e-05,6
29867,30963,0.00014,0.00013000000000000002,1e-05,-1e-05,-4e-05,-5.9999999999999995e-05,-5.9999999999999995e-05,-1e-05,6
29868,30964,0.00014,0.00013000000000000002,1e-05,-1e-05,-4e-05,-5.9999999999999995e-05,-5.9999999999999995e-05,-1e-05,6
29869,30965,0.00014,0.00013000000000000002,1e-05,-1e-05,-4e-05,-5.9999999999999995e-05,-5.9999999999999995e-05,-1e-05,6
29870,30966,0.00014,0.00013000000000000002,1e-05,-1e-05,-4e-05,-5.9999999999999995e-05,-5.9999999999999995e-05,-1e-05,6
29871,30967,0.00014,0.00013000000000000002,1e-05,-1e-05,-4e-05,-5.9999999999999995e-05,-5.9999999999999995e-05,-1e-05,6
29872,30968,0.00014,0.00013000000000000002,1e-05,-1e-05,-4e-05,-5.9999999999999995e-05,-5.9999999999999995e-05,-1e-05,6
29873,30969,0.00014,0.00013000000000000002,1e-05,-1e-05,-4e-05,-5.9999999999999995e-05,-5.9999999999999995e-05,-1e-05,6
29874,30970,0.00014,0.00013000000000000002,1e-05,-1e-05,-4e-05,-5.9999999999999995e-05,-5.9999999999999995e-05,-1e-05,6
29875,30971,-0.00018999999999999998,-0.00022,-5e-05,2.9999999999999997e-05,1e-05,1e-05,-0.00011,-0.00021,6
29876,30972,-0.00018999999999999998,-0.00022,-5e-05,2.9999999999999997e-05,1e-05,1e-05,-0.00011,-0.00021,6
29877,30973,-0.00018999999999999998,-0.00022,-5e-05,2.9999999999999997e-05,1e-05,1e-05,-0.00011,-0.00021,6
29878,30974,-0.00018999999999999998,-0.00022,-5e-05,2.9999999999999997e-05,1e-05,1e-05,-0.00011,-0.00021,6
29879,30975,-0.00018999999999999998,-0.00022,-5e-05,2.9999999999999997e-05,1e-05,1e-05,-0.00011,-0.00021,6
29880,30976,-0.00018999999999999998,-0.00022,-5e-05,2.9999999999999997e-05,1e-05,1e-05,-0.00011,-0.00021,6
29881,30977,-0.00018999999999999998,-0.00022,-5e-05,2.9999999999999997e-05,1e-05,1e-05,-0.00011,-0.00021,6
29882,30978,0.00018999999999999998,-1e-05,-9e-05,-5.9999999999999995e-05,0.0,0.0,5e-05,0.00031,6
29883,30979,0.00018999999999999998,-1e-05,-9e-05,-5.9999999999999995e-05,0.0,0.0,5e-05,0.00031,6
29884,30980,0.00018999999999999998,-1e-05,-9e-05,-5.9999999999999995e-05,0.0,0.0,5e-05,0.00031,6
29885,30981,0.00018999999999999998,-1e-05,-9e-05,-5.9999999999999995e-05,0.0,0.0,5e-05,0.00031,6
29886,30982,0.00018999999999999998,-1e-05,-9e-05,-5.9999999999999995e-05,0.0,0.0,5e-05,0.00031,6
29887,30983,0.00018999999999999998,-1e-05,-9e-05,-5.9999999999999995e-05,0.0,0.0,5e-05,0.00031,6
29888,30984,0.00018999999999999998,-1e-05,-9e-05,-5.9999999999999995e-05,0.0,0.0,5e-05,0.00031,6
29889,30985,0.00018999999999999998,-1e-05,-9e-05,-5.9999999999999995e-05,0.0,0.0,5e-05,0.00031,6
29890,30986,0.00018999999999999998,-1e-05,-9e-05,-5.9999999999999995e-05,0.0,0.0,5e-05,0.00031,6
29891,30988,0.00018999999999999998,-1e-05,-9e-05,-5.9999999999999995e-05,0.0,0.0,5e-05,0.00031,6
29892,30989,0.00018999999999999998,-1e-05,-9e-05,-5.9999999999999995e-05,0.0,0.0,5e-05,0.00031,6
29893,30990,0.00018999999999999998,-1e-05,-9e-05,-5.9999999999999995e-05,0.0,0.0,5e-05,0.00031,6
29894,30991,0.00018999999999999998,-1e-05,-9e-05,-5.9999999999999995e-05,0.0,0.0,5e-05,0.00031,6
29895,30992,0.00018999999999999998,-1e-05,-9e-05,-5.9999999999999995e-05,0.0,0.0,5e-05,0.00031,6
29896,30993,7e-05,0.00016,-4e-05,0.0,-2.9999999999999997e-05,2e-05,9e-05,2e-05,6
29897,30994,5e-05,2e-05,5e-05,1e-05,-5e-05,2e-05,0.00018999999999999998,0.00018999999999999998,6
29898,30995,5e-05,2e-05,5e-05,1e-05,-5e-05,2e-05,0.00018999999999999998,0.00018999999999999998,6
29899,30996,5e-05,2e-05,5e-05,1e-05,-5e-05,2e-05,0.00018999999999999998,0.00018999999999999998,6
29900,30997,5e-05,2e-05,5e-05,1e-05,-5e-05,2e-05,0.00018999999999999998,0.00018999999999999998,6
29901,30998,5e-05,2e-05,5e-05,1e-05,-5e-05,2e-05,0.00018999999999999998,0.00018999999999999998,6
29902,30999,5e-05,2e-05,5e-05,1e-05,-5e-05,2e-05,0.00018999999999999998,0.00018999999999999998,6
29903,31000,5e-05,2e-05,5e-05,1e-05,-5e-05,2e-05,0.00018999999999999998,0.00018999999999999998,6
29904,31001,5e-05,2e-05,5e-05,1e-05,-5e-05,2e-05,0.00018999999999999998,0.00018999999999999998,6
29905,31002,5e-05,2e-05,5e-05,1e-05,-5e-05,2e-05,0.00018999999999999998,0.00018999999999999998,6
29906,31003,5e-05,2e-05,5e-05,1e-05,-5e-05,2e-05,0.00018999999999999998,0.00018999999999999998,6
29907,31004,5e-05,2e-05,5e-05,1e-05,-5e-05,2e-05,0.00018999999999999998,0.00018999999999999998,6
29908,31005,5e-05,2e-05,5e-05,1e-05,-5e-05,2e-05,0.00018999999999999998,0.00018999999999999998,6
29909,31006,5e-05,2e-05,5e-05,1e-05,-5e-05,2e-05,0.00018999999999999998,0.00018999999999999998,6
29910,31007,5e-05,2e-05,5e-05,1e-05,-5e-05,2e-05,0.00018999999999999998,0.00018999999999999998,6
29911,31008,-2e-05,5e-05,-1e-05,-2e-05,5.9999999999999995e-05,9e-05,0.00025,0.00022999999999999998,6
29912,31009,-2e-05,5e-05,-1e-05,-2e-05,5.9999999999999995e-05,9e-05,0.00025,0.00022999999999999998,6
29913,31010,-2e-05,5e-05,-1e-05,-2e-05,5.9999999999999995e-05,9e-05,0.00025,0.00022999999999999998,6
29914,31011,-2e-05,5e-05,-1e-05,-2e-05,5.9999999999999995e-05,9e-05,0.00025,0.00022999999999999998,6
29915,31012,-2e-05,5e-05,-1e-05,-2e-05,5.9999999999999995e-05,9e-05,0.00025,0.00022999999999999998,6
29916,31013,-2e-05,5e-05,-1e-05,-2e-05,5.9999999999999995e-05,9e-05,0.00025,0.00022999999999999998,6
29917,31014,-2e-05,5e-05,-1e-05,-2e-05,5.9999999999999995e-05,9e-05,0.00025,0.00022999999999999998,6
29918,31015,-2e-05,5e-05,-1e-05,-2e-05,5.9999999999999995e-05,9e-05,0.00025,0.00022999999999999998,6
29919,31016,-0.00026000000000000003,-0.00015,-2e-05,-1e-05,2e-05,-2e-05,-5.9999999999999995e-05,-0.00044,6
29920,31017,-0.00026000000000000003,-0.00015,-2e-05,-1e-05,2e-05,-2e-05,-5.9999999999999995e-05,-0.00044,6
29921,31018,-0.00026000000000000003,-0.00015,-2e-05,-1e-05,2e-05,-2e-05,-5.9999999999999995e-05,-0.00044,6
29922,31019,-0.00026000000000000003,-0.00015,-2e-05,-1e-05,2e-05,-2e-05,-5.9999999999999995e-05,-0.00044,6
29923,31020,-0.00026000000000000003,-0.00015,-2e-05,-1e-05,2e-05,-2e-05,-5.9999999999999995e-05,-0.00044,6
29924,31021,-0.00026000000000000003,-0.00015,-2e-05,-1e-05,2e-05,-2e-05,-5.9999999999999995e-05,-0.00044,6
29925,31022,-0.00026000000000000003,-0.00015,-2e-05,-1e-05,2e-05,-2e-05,-5.9999999999999995e-05,-0.00044,6
29926,31023,-0.00026000000000000003,-0.00015,-2e-05,-1e-05,2e-05,-2e-05,-5.9999999999999995e-05,-0.00044,6
29927,31024,-0.00026000000000000003,-0.00015,-2e-05,-1e-05,2e-05,-2e-05,-5.9999999999999995e-05,-0.00044,6
29928,31025,-0.00026000000000000003,-0.00015,-2e-05,-1e-05,2e-05,-2e-05,-5.9999999999999995e-05,-0.00044,6
29929,31026,-0.00026000000000000003,-0.00015,-2e-05,-1e-05,2e-05,-2e-05,-5.9999999999999995e-05,-0.00044,6
29930,31027,-0.00026000000000000003,-0.00015,-2e-05,-1e-05,2e-05,-2e-05,-5.9999999999999995e-05,-0.00044,6
29931,31028,-0.00026000000000000003,-0.00015,-2e-05,-1e-05,2e-05,-2e-05,-5.9999999999999995e-05,-0.00044,6
29932,31029,-0.00026000000000000003,-0.00015,-2e-05,-1e-05,2e-05,-2e-05,-5.9999999999999995e-05,-0.00044,6
29933,31030,-0.00026000000000000003,-0.00015,-2e-05,-1e-05,2e-05,-2e-05,-5.9999999999999995e-05,-0.00044,6
29934,31031,-0.00026000000000000003,-0.00015,-2e-05,-1e-05,2e-05,-2e-05,-5.9999999999999995e-05,-0.00044,6
29935,31032,0.00014,2e-05,0.0,-4e-05,-7e-05,0.0,-2e-05,0.00011,6
29936,31033,-0.00049,-0.00037999999999999997,-4e-05,4e-05,0.00011,-2e-05,-9e-05,-8e-05,6
29937,31034,-0.00049,-0.00037999999999999997,-4e-05,4e-05,0.00011,-2e-05,-9e-05,-8e-05,6
29938,31035,-0.00049,-0.00037999999999999997,-4e-05,4e-05,0.00011,-2e-05,-9e-05,-8e-05,6
29939,31036,-0.00049,-0.00037999999999999997,-4e-05,4e-05,0.00011,-2e-05,-9e-05,-8e-05,6
29940,31038,-0.00049,-0.00037999999999999997,-4e-05,4e-05,0.00011,-2e-05,-9e-05,-8e-05,6
29941,31039,-0.00049,-0.00037999999999999997,-4e-05,4e-05,0.00011,-2e-05,-9e-05,-8e-05,6
29942,31040,-0.00049,-0.00037999999999999997,-4e-05,4e-05,0.00011,-2e-05,-9e-05,-8e-05,6
29943,31041,-0.00049,-0.00037999999999999997,-4e-05,4e-05,0.00011,-2e-05,-9e-05,-8e-05,6
29944,31042,-0.00049,-0.00037999999999999997,-4e-05,4e-05,0.00011,-2e-05,-9e-05,-8e-05,6
29945,31043,-0.00049,-0.00037999999999999997,-4e-05,4e-05,0.00011,-2e-05,-9e-05,-8e-05,6
29946,31044,-0.00049,-0.00037999999999999997,-4e-05,4e-05,0.00011,-2e-05,-9e-05,-8e-05,6
29947,31045,-0.00049,-0.00037999999999999997,-4e-05,4e-05,0.00011,-2e-05,-9e-05,-8e-05,6
29948,31046,-0.00049,-0.00037999999999999997,-4e-05,4e-05,0.00011,-2e-05,-9e-05,-8e-05,6
29949,31047,-0.00049,-0.00037999999999999997,-4e-05,4e-05,0.00011,-2e-05,-9e-05,-8e-05,6
29950,31048,-0.00049,-0.00037999999999999997,-4e-05,4e-05,0.00011,-2e-05,-9e-05,-8e-05,6
29951,31049,-0.00049,-0.00037999999999999997,-4e-05,4e-05,0.00011,-2e-05,-9e-05,-8e-05,6
29952,31050,-0.00049,-0.00037999999999999997,-4e-05,4e-05,0.00011,-2e-05,-9e-05,-8e-05,6
29953,31051,-0.00049,-0.00037999999999999997,-4e-05,4e-05,0.00011,-2e-05,-9e-05,-8e-05,6
29954,31052,-0.00049,-0.00037999999999999997,-4e-05,4e-05,0.00011,-2e-05,-9e-05,-8e-05,6
29955,31053,-0.00049,-0.00037999999999999997,-4e-05,4e-05,0.00011,-2e-05,-9e-05,-8e-05,6
29956,31054,-0.00049,-0.00037999999999999997,-4e-05,4e-05,0.00011,-2e-05,-9e-05,-8e-05,6
29957,31055,-0.00049,-0.00037999999999999997,-4e-05,4e-05,0.00011,-2e-05,-9e-05,-8e-05,6
29958,31056,-0.00049,-0.00037999999999999997,-4e-05,4e-05,0.00011,-2e-05,-9e-05,-8e-05,6
29959,31057,-0.00049,-0.00037999999999999997,-4e-05,4e-05,0.00011,-2e-05,-9e-05,-8e-05,6
29960,31058,-0.00049,-0.00037999999999999997,-4e-05,4e-05,0.00011,-2e-05,-9e-05,-8e-05,6
29961,31059,-0.00049,-0.00037999999999999997,-4e-05,4e-05,0.00011,-2e-05,-9e-05,-8e-05,6
29962,31060,-0.00049,-0.00037999999999999997,-4e-05,4e-05,0.00011,-2e-05,-9e-05,-8e-05,6
29963,31061,-9e-05,-5e-05,-9e-05,-5.9999999999999995e-05,-2.9999999999999997e-05,-7e-05,-0.00013000000000000002,-0.00018,6
29964,31062,0.00045999999999999996,0.00025,-2e-05,0.0,2.9999999999999997e-05,1e-05,-2e-05,0.00026000000000000003,6
29965,31063,0.00045999999999999996,0.00025,-2e-05,0.0,2.9999999999999997e-05,1e-05,-2e-05,0.00026000000000000003,6
29966,31064,0.00045999999999999996,0.00025,-2e-05,0.0,2.9999999999999997e-05,1e-05,-2e-05,0.00026000000000000003,6
29967,31065,0.00045999999999999996,0.00025,-2e-05,0.0,2.9999999999999997e-05,1e-05,-2e-05,0.00026000000000000003,6
29968,31066,0.00045999999999999996,0.00025,-2e-05,0.0,2.9999999999999997e-05,1e-05,-2e-05,0.00026000000000000003,6
29969,31067,-0.00011,-2.9999999999999997e-05,5.9999999999999995e-05,5e-05,0.00011999999999999999,2e-05,1e-05,0.0002,6
29970,31068,-0.00011,-2.9999999999999997e-05,5.9999999999999995e-05,5e-05,0.00011999999999999999,2e-05,1e-05,0.0002,6
29971,31069,-0.00011,-2.9999999999999997e-05,5.9999999999999995e-05,5e-05,0.00011999999999999999,2e-05,1e-05,0.0002,6
29972,31070,-0.00011,-2.9999999999999997e-05,5.9999999999999995e-05,5e-05,0.00011999999999999999,2e-05,1e-05,0.0002,6
29973,31071,-0.00011,-2.9999999999999997e-05,5.9999999999999995e-05,5e-05,0.00011999999999999999,2e-05,1e-05,0.0002,6
29974,31072,-0.00011,-2.9999999999999997e-05,5.9999999999999995e-05,5e-05,0.00011999999999999999,2e-05,1e-05,0.0002,6
29975,31073,-0.00011,-2.9999999999999997e-05,5.9999999999999995e-05,5e-05,0.00011999999999999999,2e-05,1e-05,0.0002,6
29976,31074,-0.00011,-2.9999999999999997e-05,5.9999999999999995e-05,5e-05,0.00011999999999999999,2e-05,1e-05,0.0002,6
29977,31075,-0.00011,-2.9999999999999997e-05,5.9999999999999995e-05,5e-05,0.00011999999999999999,2e-05,1e-05,0.0002,6
29978,31076,-0.00011,-2.9999999999999997e-05,5.9999999999999995e-05,5e-05,0.00011999999999999999,2e-05,1e-05,0.0002,6
29979,31077,-0.00011,-2.9999999999999997e-05,5.9999999999999995e-05,5e-05,0.00011999999999999999,2e-05,1e-05,0.0002,6
29980,31078,-0.00011,-2.9999999999999997e-05,5.9999999999999995e-05,5e-05,0.00011999999999999999,2e-05,1e-05,0.0002,6
29981,31079,-0.00011,-2.9999999999999997e-05,5.9999999999999995e-05,5e-05,0.00011999999999999999,2e-05,1e-05,0.0002,6
29982,31080,-0.00011,-2.9999999999999997e-05,5.9999999999999995e-05,5e-05,0.00011999999999999999,2e-05,1e-05,0.0002,6
29983,31081,-0.00011,-2.9999999999999997e-05,5.9999999999999995e-05,5e-05,0.00011999999999999999,2e-05,1e-05,0.0002,6
29984,31082,-0.00011,-2.9999999999999997e-05,5.9999999999999995e-05,5e-05,0.00011999999999999999,2e-05,1e-05,0.0002,6
29985,31083,-8e-05,0.0,-5e-05,-4e-05,-2e-05,2.9999999999999997e-05,0.0,-5.9999999999999995e-05,6
29986,31084,-8e-05,0.0,-5e-05,-4e-05,-2e-05,2.9999999999999997e-05,0.0,-5.9999999999999995e-05,6
29987,31085,-8e-05,0.0,-5e-05,-4e-05,-2e-05,2.9999999999999997e-05,0.0,-5.9999999999999995e-05,6
29988,31086,-8e-05,0.0,-5e-05,-4e-05,-2e-05,2.9999999999999997e-05,0.0,-5.9999999999999995e-05,6
29989,31088,-8e-05,0.0,-5e-05,-4e-05,-2e-05,2.9999999999999997e-05,0.0,-5.9999999999999995e-05,6
29990,31089,-8e-05,0.0,-5e-05,-4e-05,-2e-05,2.9999999999999997e-05,0.0,-5.9999999999999995e-05,6
29991,31090,0.00011999999999999999,-2e-05,2.9999999999999997e-05,-2e-05,-5e-05,-0.00016,-0.00013000000000000002,-0.0001,6
29992,31091,-0.00018999999999999998,-0.00016,-0.00011999999999999999,-0.00015,-0.00016,-8e-05,0.00026000000000000003,-4e-05,6
29993,31092,-0.00018999999999999998,-0.00016,-0.00011999999999999999,-0.00015,-0.00016,-8e-05,0.00026000000000000003,-4e-05,6
29994,31093,-0.00018999999999999998,-0.00016,-0.00011999999999999999,-0.00015,-0.00016,-8e-05,0.00026000000000000003,-4e-05,6
29995,31094,-0.00018999999999999998,-0.00016,-0.00011999999999999999,-0.00015,-0.00016,-8e-05,0.00026000000000000003,-4e-05,6
29996,31095,-0.00018999999999999998,-0.00016,-0.00011999999999999999,-0.00015,-0.00016,-8e-05,0.00026000000000000003,-4e-05,6
29997,31096,-0.00018999999999999998,-0.00016,-0.00011999999999999999,-0.00015,-0.00016,-8e-05,0.00026000000000000003,-4e-05,6
29998,31097,-0.00018999999999999998,-0.00016,-0.00011999999999999999,-0.00015,-0.00016,-8e-05,0.00026000000000000003,-4e-05,6
29999,31098,-0.00018999999999999998,-0.00016,-0.00011999999999999999,-0.00015,-0.00016,-8e-05,0.00026000000000000003,-4e-05,6
30000,31099,-0.00018999999999999998,-0.00016,-0.00011999999999999999,-0.00015,-0.00016,-8e-05,0.00026000000000000003,-4e-05,6
30001,31100,-0.00018999999999999998,-0.00016,-0.00011999999999999999,-0.00015,-0.00016,-8e-05,0.00026000000000000003,-4e-05,6
30002,31101,-0.00018999999999999998,-0.00016,-0.00011999999999999999,-0.00015,-0.00016,-8e-05,0.00026000000000000003,-4e-05,6
30003,31102,-0.00018999999999999998,-0.00016,-0.00011999999999999999,-0.00015,-0.00016,-8e-05,0.00026000000000000003,-4e-05,6
30004,31103,-0.00018999999999999998,-0.00016,-0.00011999999999999999,-0.00015,-0.00016,-8e-05,0.00026000000000000003,-4e-05,6
30005,31104,-0.00018999999999999998,-0.00016,-0.00011999999999999999,-0.00015,-0.00016,-8e-05,0.00026000000000000003,-4e-05,6
30006,31105,-0.00018999999999999998,-0.00016,-0.00011999999999999999,-0.00015,-0.00016,-8e-05,0.00026000000000000003,-4e-05,6
30007,31106,-0.00018999999999999998,-0.00016,-0.00011999999999999999,-0.00015,-0.00016,-8e-05,0.00026000000000000003,-4e-05,6
30008,31107,-0.00018999999999999998,-0.00016,-0.00011999999999999999,-0.00015,-0.00016,-8e-05,0.00026000000000000003,-4e-05,6
30009,31108,-0.00018999999999999998,-0.00016,-0.00011999999999999999,-0.00015,-0.00016,-8e-05,0.00026000000000000003,-4e-05,6
30010,31109,-0.00018999999999999998,-0.00016,-0.00011999999999999999,-0.00015,-0.00016,-8e-05,0.00026000000000000003,-4e-05,6
30011,31110,-0.00018999999999999998,-0.00016,-0.00011999999999999999,-0.00015,-0.00016,-8e-05,0.00026000000000000003,-4e-05,6
30012,31111,-0.00018999999999999998,-0.00016,-0.00011999999999999999,-0.00015,-0.00016,-8e-05,0.00026000000000000003,-4e-05,6
30013,31112,-0.00018999999999999998,-0.00016,-0.00011999999999999999,-0.00015,-0.00016,-8e-05,0.00026000000000000003,-4e-05,6
30014,31113,-0.00018999999999999998,-0.00016,-0.00011999999999999999,-0.00015,-0.00016,-8e-05,0.00026000000000000003,-4e-05,6
30015,31114,-0.00018999999999999998,-0.00016,-0.00011999999999999999,-0.00015,-0.00016,-8e-05,0.00026000000000000003,-4e-05,6
30016,31115,-0.00018999999999999998,-0.00016,-0.00011999999999999999,-0.00015,-0.00016,-8e-05,0.00026000000000000003,-4e-05,6
30017,31116,-0.00018999999999999998,-0.00016,-0.00011999999999999999,-0.00015,-0.00016,-8e-05,0.00026000000000000003,-4e-05,6
30018,31117,-0.00018999999999999998,-0.00016,-0.00011999999999999999,-0.00015,-0.00016,-8e-05,0.00026000000000000003,-4e-05,6
30019,31118,-0.00018999999999999998,-0.00016,-0.00011999999999999999,-0.00015,-0.00016,-8e-05,0.00026000000000000003,-4e-05,6
30020,31119,-0.00018999999999999998,-0.00016,-0.00011999999999999999,-0.00015,-0.00016,-8e-05,0.00026000000000000003,-4e-05,6
