,time,channel1,channel2,channel3,channel4,channel5,channel6,channel7,channel8,class
27205,28142,-1e-05,-2e-05,-1e-05,-0.0001,-0.00023999999999999998,-2.9999999999999997e-05,-9e-05,-0.00015,6
27206,28143,-1e-05,-2e-05,-1e-05,-0.0001,-0.00023999999999999998,-2.9999999999999997e-05,-9e-05,-0.00015,6
27207,28144,-1e-05,-2e-05,-1e-05,-0.0001,-0.00023999999999999998,-2.9999999999999997e-05,-9e-05,-0.00015,6
27208,28145,-1e-05,-2e-05,-1e-05,-0.0001,-0.00023999999999999998,-2.9999999999999997e-05,-9e-05,-0.00015,6
27209,28146,-1e-05,-2e-05,-1e-05,-0.0001,-0.00023999999999999998,-2.9999999999999997e-05,-9e-05,-0.00015,6
27210,28147,-1e-05,-2e-05,-1e-05,-0.0001,-0.00023999999999999998,-2.9999999999999997e-05,-9e-05,-0.00015,6
27211,28148,-5.9999999999999995e-05,-4e-05,-2.9999999999999997e-05,-4e-05,0.00011999999999999999,-9e-05,0.00014,8e-05,6
27212,28149,-5e-05,0.0,2.9999999999999997e-05,1e-05,-0.00045999999999999996,-0.00015,-9e-05,-0.00037,6
27213,28150,0.00011,2.9999999999999997e-05,2e-05,7e-05,0.00037,0.00042,0.00022,0.0003,6
27214,28151,0.00011,2.9999999999999997e-05,2e-05,7e-05,0.00037,0.00042,0.00022,0.0003,6
27215,28152,0.00011,2.9999999999999997e-05,2e-05,7e-05,0.00037,0.00042,0.00022,0.0003,6
27216,28153,0.00011,2.9999999999999997e-05,2e-05,7e-05,0.00037,0.00042,0.00022,0.0003,6
27217,28154,0.00011,2.9999999999999997e-05,2e-05,7e-05,0.00037,0.00042,0.00022,0.0003,6
27218,28155,0.00011,2.9999999999999997e-05,2e-05,7e-05,0.00037,0.00042,0.00022,0.0003,6
27219,28156,0.00011,2.9999999999999997e-05,2e-05,7e-05,0.00037,0.00042,0.00022,0.0003,6
27220,28157,0.00011,2.9999999999999997e-05,2e-05,7e-05,0.00037,0.00042,0.00022,0.0003,6
27221,28158,0.00011,2.9999999999999997e-05,2e-05,7e-05,0.00037,0.00042,0.00022,0.0003,6
27222,28159,0.00011,2.9999999999999997e-05,2e-05,7e-05,0.00037,0.00042,0.00022,0.0003,6
27223,28160,0.00011,2.9999999999999997e-05,2e-05,7e-05,0.00037,0.00042,0.00022,0.0003,6
27224,28161,0.00011,2.9999999999999997e-05,2e-05,7e-05,0.00037,0.00042,0.00022,0.0003,6
27225,28162,0.00011,2.9999999999999997e-05,2e-05,7e-05,0.00037,0.00042,0.00022,0.0003,6
27226,28163,5.9999999999999995e-05,0.0,-2e-05,-5e-05,-0.0006799999999999999,0.00086,5.9999999999999995e-05,0.00018,6
27227,28164,5.9999999999999995e-05,0.0,-2e-05,-5e-05,-0.0006799999999999999,0.00086,5.9999999999999995e-05,0.00018,6
27228,28165,-5e-05,1e-05,-2e-05,4e-05,8e-05,0.00023999999999999998,-0.00041,-1e-05,6
27229,28166,-5e-05,1e-05,-2e-05,4e-05,8e-05,0.00023999999999999998,-0.00041,-1e-05,6
27230,28167,-5e-05,1e-05,-2e-05,4e-05,8e-05,0.00023999999999999998,-0.00041,-1e-05,6
27231,28168,-5e-05,1e-05,-2e-05,4e-05,8e-05,0.00023999999999999998,-0.00041,-1e-05,6
27232,28169,-5e-05,1e-05,-2e-05,4e-05,8e-05,0.00023999999999999998,-0.00041,-1e-05,6
27233,28170,-5e-05,1e-05,-2e-05,4e-05,8e-05,0.00023999999999999998,-0.00041,-1e-05,6
27234,28171,-5e-05,1e-05,-2e-05,4e-05,8e-05,0.00023999999999999998,-0.00041,-1e-05,6
27235,28172,-5e-05,1e-05,-2e-05,4e-05,8e-05,0.00023999999999999998,-0.00041,-1e-05,6
27236,28173,-5e-05,1e-05,-2e-05,4e-05,8e-05,0.00023999999999999998,-0.00041,-1e-05,6
27237,28174,-5e-05,1e-05,-2e-05,4e-05,8e-05,0.00023999999999999998,-0.00041,-1e-05,6
27238,28175,-5e-05,1e-05,-2e-05,4e-05,8e-05,0.00023999999999999998,-0.00041,-1e-05,6
27239,28176,-5e-05,1e-05,-2e-05,4e-05,8e-05,0.00023999999999999998,-0.00041,-1e-05,6
27240,28177,-5e-05,1e-05,-2e-05,4e-05,8e-05,0.00023999999999999998,-0.00041,-1e-05,6
27241,28178,-5e-05,1e-05,-2e-05,4e-05,8e-05,0.00023999999999999998,-0.00041,-1e-05,6
27242,28179,-5e-05,1e-05,-2e-05,4e-05,8e-05,0.00023999999999999998,-0.00041,-1e-05,6
27243,28180,-5e-05,1e-05,-2e-05,4e-05,8e-05,0.00023999999999999998,-0.00041,-1e-05,6
27244,28181,-5e-05,1e-05,-2e-05,4e-05,8e-05,0.00023999999999999998,-0.00041,-1e-05,6
27245,28182,-5e-05,1e-05,-2e-05,4e-05,8e-05,0.00023999999999999998,-0.00041,-1e-05,6
27246,28183,-5e-05,1e-05,-2e-05,4e-05,8e-05,0.00023999999999999998,-0.00041,-1e-05,6
27247,28184,-2.9999999999999997e-05,-2e-05,-1e-05,2.9999999999999997e-05,-0.00053,0.00084,-2e-05,0.00011,6
27248,28185,-5.9999999999999995e-05,-2e-05,-5e-05,-1e-05,0.00041,-0.0010199999999999999,-0.0002,-7e-05,6
27249,28186,-5.9999999999999995e-05,-2e-05,-5e-05,-1e-05,0.00041,-0.0010199999999999999,-0.0002,-7e-05,6
27250,28188,-5.9999999999999995e-05,-2e-05,-5e-05,-1e-05,0.00041,-0.0010199999999999999,-0.0002,-7e-05,6
27251,28189,-5.9999999999999995e-05,-2e-05,-5e-05,-1e-05,0.00041,-0.0010199999999999999,-0.0002,-7e-05,6
27252,28190,-5.9999999999999995e-05,-2e-05,-5e-05,-1e-05,0.00041,-0.0010199999999999999,-0.0002,-7e-05,6
27253,28191,-5.9999999999999995e-05,-2e-05,-5e-05,-1e-05,0.00041,-0.0010199999999999999,-0.0002,-7e-05,6
27254,28192,-5.9999999999999995e-05,-2e-05,-5e-05,-1e-05,0.00041,-0.0010199999999999999,-0.0002,-7e-05,6
27255,28193,-1e-05,2e-05,2e-05,4e-05,-2.9999999999999997e-05,0.00037999999999999997,0.00013000000000000002,-0.0008300000000000001,6
27256,28194,-1e-05,2e-05,2e-05,4e-05,-2.9999999999999997e-05,0.00037999999999999997,0.00013000000000000002,-0.0008300000000000001,6
27257,28195,-1e-05,2e-05,2e-05,4e-05,-2.9999999999999997e-05,0.00037999999999999997,0.00013000000000000002,-0.0008300000000000001,6
27258,28197,-1e-05,2e-05,2e-05,4e-05,-2.9999999999999997e-05,0.00037999999999999997,0.00013000000000000002,-0.0008300000000000001,6
27259,28198,-1e-05,2e-05,2e-05,4e-05,-2.9999999999999997e-05,0.00037999999999999997,0.00013000000000000002,-0.0008300000000000001,6
27260,28199,-1e-05,2e-05,2e-05,4e-05,-2.9999999999999997e-05,0.00037999999999999997,0.00013000000000000002,-0.0008300000000000001,6
27261,28200,-2e-05,-1e-05,8e-05,2e-05,0.00047000000000000004,0.0001,-0.00015,-8e-05,6
27262,28201,-2e-05,-1e-05,8e-05,2e-05,0.00047000000000000004,0.0001,-0.00015,-8e-05,6
27263,28202,-2e-05,-1e-05,8e-05,2e-05,0.00047000000000000004,0.0001,-0.00015,-8e-05,6
27264,28203,-2e-05,-1e-05,8e-05,2e-05,0.00047000000000000004,0.0001,-0.00015,-8e-05,6
27265,28204,-2e-05,-1e-05,8e-05,2e-05,0.00047000000000000004,0.0001,-0.00015,-8e-05,6
27266,28205,-2e-05,-1e-05,8e-05,2e-05,0.00047000000000000004,0.0001,-0.00015,-8e-05,6
27267,28206,-2e-05,-1e-05,8e-05,2e-05,0.00047000000000000004,0.0001,-0.00015,-8e-05,6
27268,28207,-2e-05,-1e-05,8e-05,2e-05,0.00047000000000000004,0.0001,-0.00015,-8e-05,6
27269,28208,2e-05,-1e-05,-4e-05,-4e-05,0.0,-0.00067,-4e-05,7e-05,6
27270,28209,2e-05,-1e-05,-4e-05,-4e-05,0.0,-0.00067,-4e-05,7e-05,6
27271,28210,2e-05,-1e-05,-4e-05,-4e-05,0.0,-0.00067,-4e-05,7e-05,6
27272,28211,2e-05,-1e-05,-4e-05,-4e-05,0.0,-0.00067,-4e-05,7e-05,6
27273,28212,2e-05,-1e-05,-4e-05,-4e-05,0.0,-0.00067,-4e-05,7e-05,6
27274,28213,2e-05,-1e-05,-4e-05,-4e-05,0.0,-0.00067,-4e-05,7e-05,6
27275,28214,2e-05,-1e-05,-4e-05,-4e-05,0.0,-0.00067,-4e-05,7e-05,6
27276,28215,2e-05,-1e-05,-4e-05,-4e-05,0.0,-0.00067,-4e-05,7e-05,6
27277,28216,2e-05,-1e-05,-4e-05,-4e-05,0.0,-0.00067,-4e-05,7e-05,6
27278,28217,2e-05,-1e-05,-4e-05,-4e-05,0.0,-0.00067,-4e-05,7e-05,6
27279,28218,2e-05,-1e-05,-4e-05,-4e-05,0.0,-0.00067,-4e-05,7e-05,6
27280,28219,2e-05,-1e-05,-4e-05,-4e-05,0.0,-0.00067,-4e-05,7e-05,6
27281,28220,2e-05,-1e-05,-4e-05,-4e-05,0.0,-0.00067,-4e-05,7e-05,6
27282,28221,2e-05,-1e-05,-4e-05,-4e-05,0.0,-0.00067,-4e-05,7e-05,6
27283,28222,2e-05,-1e-05,-4e-05,-4e-05,0.0,-0.00067,-4e-05,7e-05,6
27284,28223,4e-05,2e-05,1e-05,2.9999999999999997e-05,-0.00018,0.00022,0.00033,0.00016,6
27285,28224,-1e-05,0.0,2.9999999999999997e-05,2e-05,0.00037,1e-05,-2.9999999999999997e-05,0.00021,6
27286,28225,0.00013000000000000002,0.0,-2.9999999999999997e-05,-1e-05,-2e-05,0.00073,2e-05,0.00054,6
27287,28226,0.00013000000000000002,0.0,-2.9999999999999997e-05,-1e-05,-2e-05,0.00073,2e-05,0.00054,6
27288,28227,0.00013000000000000002,0.0,-2.9999999999999997e-05,-1e-05,-2e-05,0.00073,2e-05,0.00054,6
27289,28228,0.00013000000000000002,0.0,-2.9999999999999997e-05,-1e-05,-2e-05,0.00073,2e-05,0.00054,6
27290,28229,0.00013000000000000002,0.0,-2.9999999999999997e-05,-1e-05,-2e-05,0.00073,2e-05,0.00054,6
27291,28230,0.00013000000000000002,0.0,-2.9999999999999997e-05,-1e-05,-2e-05,0.00073,2e-05,0.00054,6
27292,28231,0.00013000000000000002,0.0,-2.9999999999999997e-05,-1e-05,-2e-05,0.00073,2e-05,0.00054,6
27293,28232,0.00013000000000000002,0.0,-2.9999999999999997e-05,-1e-05,-2e-05,0.00073,2e-05,0.00054,6
27294,28233,0.00013000000000000002,0.0,-2.9999999999999997e-05,-1e-05,-2e-05,0.00073,2e-05,0.00054,6
27295,28234,0.00013000000000000002,0.0,-2.9999999999999997e-05,-1e-05,-2e-05,0.00073,2e-05,0.00054,6
27296,28235,0.00013000000000000002,0.0,-2.9999999999999997e-05,-1e-05,-2e-05,0.00073,2e-05,0.00054,6
27297,28236,0.00013000000000000002,0.0,-2.9999999999999997e-05,-1e-05,-2e-05,0.00073,2e-05,0.00054,6
27298,28238,0.00013000000000000002,0.0,-2.9999999999999997e-05,-1e-05,-2e-05,0.00073,2e-05,0.00054,6
27299,28239,0.00013000000000000002,0.0,-2.9999999999999997e-05,-1e-05,-2e-05,0.00073,2e-05,0.00054,6
27300,28240,0.00013000000000000002,0.0,-2.9999999999999997e-05,-1e-05,-2e-05,0.00073,2e-05,0.00054,6
27301,28241,0.00013000000000000002,0.0,-2.9999999999999997e-05,-1e-05,-2e-05,0.00073,2e-05,0.00054,6
27302,28242,0.00013000000000000002,0.0,-2.9999999999999997e-05,-1e-05,-2e-05,0.00073,2e-05,0.00054,6
27303,28243,0.00013000000000000002,0.0,-2.9999999999999997e-05,-1e-05,-2e-05,0.00073,2e-05,0.00054,6
27304,28244,0.00013000000000000002,0.0,-2.9999999999999997e-05,-1e-05,-2e-05,0.00073,2e-05,0.00054,6
27305,28245,-4e-05,1e-05,5e-05,2.9999999999999997e-05,-0.00016999999999999999,-0.0004,-0.00015,2.9999999999999997e-05,6
27306,28246,-4e-05,1e-05,5e-05,2.9999999999999997e-05,-0.00016999999999999999,-0.0004,-0.00015,2.9999999999999997e-05,6
27307,28247,-4e-05,-1e-05,-4e-05,-4e-05,-0.00022,-0.00043,0.0001,-0.00018,6
27308,28248,-4e-05,-1e-05,-4e-05,-4e-05,-0.00022,-0.00043,0.0001,-0.00018,6
27309,28249,-4e-05,-1e-05,-4e-05,-4e-05,-0.00022,-0.00043,0.0001,-0.00018,6
27310,28250,-4e-05,-1e-05,-4e-05,-4e-05,-0.00022,-0.00043,0.0001,-0.00018,6
27311,28251,-4e-05,-1e-05,-4e-05,-4e-05,-0.00022,-0.00043,0.0001,-0.00018,6
27312,28252,-4e-05,-1e-05,-4e-05,-4e-05,-0.00022,-0.00043,0.0001,-0.00018,6
27313,28253,-4e-05,-1e-05,-4e-05,-4e-05,-0.00022,-0.00043,0.0001,-0.00018,6
27314,28254,-4e-05,-1e-05,-4e-05,-4e-05,-0.00022,-0.00043,0.0001,-0.00018,6
27315,28255,-4e-05,-1e-05,-4e-05,-4e-05,-0.00022,-0.00043,0.0001,-0.00018,6
27316,28256,-4e-05,-1e-05,-4e-05,-4e-05,-0.00022,-0.00043,0.0001,-0.00018,6
27317,28257,-4e-05,-1e-05,-4e-05,-4e-05,-0.00022,-0.00043,0.0001,-0.00018,6
27318,28258,-4e-05,-1e-05,-4e-05,-4e-05,-0.00022,-0.00043,0.0001,-0.00018,6
27319,28259,4e-05,-1e-05,-1e-05,-2e-05,0.00022,-0.0003,-7e-05,-0.00025,6
27320,28260,4e-05,-1e-05,-1e-05,-2e-05,0.00022,-0.0003,-7e-05,-0.00025,6
27321,28261,4e-05,-1e-05,-1e-05,-2e-05,0.00022,-0.0003,-7e-05,-0.00025,6
27322,28262,4e-05,-1e-05,-1e-05,-2e-05,0.00022,-0.0003,-7e-05,-0.00025,6
27323,28263,4e-05,-1e-05,-1e-05,-2e-05,0.00022,-0.0003,-7e-05,-0.00025,6
27324,28264,4e-05,-1e-05,-1e-05,-2e-05,0.00022,-0.0003,-7e-05,-0.00025,6
27325,28265,4e-05,-1e-05,-1e-05,-2e-05,0.00022,-0.0003,-7e-05,-0.00025,6
27326,28267,-2.9999999999999997e-05,2.9999999999999997e-05,0.00036,4e-05,7e-05,0.00065,0.0001,0.00075,6
27327,28268,-2.9999999999999997e-05,2.9999999999999997e-05,0.00036,4e-05,7e-05,0.00065,0.0001,0.00075,6
27328,28269,-2.9999999999999997e-05,2.9999999999999997e-05,0.00036,4e-05,7e-05,0.00065,0.0001,0.00075,6
27329,28270,-2.9999999999999997e-05,2.9999999999999997e-05,0.00036,4e-05,7e-05,0.00065,0.0001,0.00075,6
27330,28271,-2.9999999999999997e-05,2.9999999999999997e-05,0.00036,4e-05,7e-05,0.00065,0.0001,0.00075,6
27331,28272,-2.9999999999999997e-05,2.9999999999999997e-05,0.00036,4e-05,7e-05,0.00065,0.0001,0.00075,6
27332,28273,-2.9999999999999997e-05,2.9999999999999997e-05,0.00036,4e-05,7e-05,0.00065,0.0001,0.00075,6
27333,28274,-2.9999999999999997e-05,2.9999999999999997e-05,0.00036,4e-05,7e-05,0.00065,0.0001,0.00075,6
27334,28275,-2.9999999999999997e-05,2.9999999999999997e-05,0.00036,4e-05,7e-05,0.00065,0.0001,0.00075,6
27335,28276,-2.9999999999999997e-05,2.9999999999999997e-05,0.00036,4e-05,7e-05,0.00065,0.0001,0.00075,6
27336,28277,-2.9999999999999997e-05,2.9999999999999997e-05,0.00036,4e-05,7e-05,0.00065,0.0001,0.00075,6
27337,28278,-2.9999999999999997e-05,2.9999999999999997e-05,0.00036,4e-05,7e-05,0.00065,0.0001,0.00075,6
27338,28279,-2.9999999999999997e-05,2.9999999999999997e-05,0.00036,4e-05,7e-05,0.00065,0.0001,0.00075,6
27339,28280,-2.9999999999999997e-05,2.9999999999999997e-05,0.00036,4e-05,7e-05,0.00065,0.0001,0.00075,6
27340,28281,-2.9999999999999997e-05,2.9999999999999997e-05,0.00036,4e-05,7e-05,0.00065,0.0001,0.00075,6
27341,28282,5e-05,-4e-05,7e-05,-8e-05,-0.00016,-0.00057,-0.00021,-0.00022,6
27342,28283,-5.9999999999999995e-05,1e-05,2.9999999999999997e-05,-4e-05,0.00021,-1e-05,-4e-05,-0.00033,6
27343,28284,-5.9999999999999995e-05,1e-05,2.9999999999999997e-05,-4e-05,0.00021,-1e-05,-4e-05,-0.00033,6
27344,28285,-5.9999999999999995e-05,1e-05,2.9999999999999997e-05,-4e-05,0.00021,-1e-05,-4e-05,-0.00033,6
27345,28286,-5.9999999999999995e-05,1e-05,2.9999999999999997e-05,-4e-05,0.00021,-1e-05,-4e-05,-0.00033,6
27346,28288,-5.9999999999999995e-05,1e-05,2.9999999999999997e-05,-4e-05,0.00021,-1e-05,-4e-05,-0.00033,6
27347,28289,-5.9999999999999995e-05,1e-05,2.9999999999999997e-05,-4e-05,0.00021,-1e-05,-4e-05,-0.00033,6
27348,28290,-5.9999999999999995e-05,1e-05,2.9999999999999997e-05,-4e-05,0.00021,-1e-05,-4e-05,-0.00033,6
27349,28291,-5.9999999999999995e-05,1e-05,2.9999999999999997e-05,-4e-05,0.00021,-1e-05,-4e-05,-0.00033,6
27350,28292,-5.9999999999999995e-05,1e-05,2.9999999999999997e-05,-4e-05,0.00021,-1e-05,-4e-05,-0.00033,6
27351,28293,-5.9999999999999995e-05,1e-05,2.9999999999999997e-05,-4e-05,0.00021,-1e-05,-4e-05,-0.00033,6
27352,28294,-5.9999999999999995e-05,1e-05,2.9999999999999997e-05,-4e-05,0.00021,-1e-05,-4e-05,-0.00033,6
27353,28295,-5.9999999999999995e-05,1e-05,2.9999999999999997e-05,-4e-05,0.00021,-1e-05,-4e-05,-0.00033,6
27354,28296,-5.9999999999999995e-05,1e-05,2.9999999999999997e-05,-4e-05,0.00021,-1e-05,-4e-05,-0.00033,6
27355,28297,-5.9999999999999995e-05,1e-05,2.9999999999999997e-05,-4e-05,0.00021,-1e-05,-4e-05,-0.00033,6
27356,28298,-5.9999999999999995e-05,1e-05,2.9999999999999997e-05,-4e-05,0.00021,-1e-05,-4e-05,-0.00033,6
27357,28299,-5.9999999999999995e-05,1e-05,2.9999999999999997e-05,-4e-05,0.00021,-1e-05,-4e-05,-0.00033,6
27358,28300,-5.9999999999999995e-05,1e-05,2.9999999999999997e-05,-4e-05,0.00021,-1e-05,-4e-05,-0.00033,6
27359,28301,-5.9999999999999995e-05,1e-05,2.9999999999999997e-05,-4e-05,0.00021,-1e-05,-4e-05,-0.00033,6
27360,28302,-5.9999999999999995e-05,1e-05,2.9999999999999997e-05,-4e-05,0.00021,-1e-05,-4e-05,-0.00033,6
27361,28303,-5.9999999999999995e-05,1e-05,2.9999999999999997e-05,-4e-05,0.00021,-1e-05,-4e-05,-0.00033,6
27362,28304,-5.9999999999999995e-05,1e-05,2.9999999999999997e-05,-4e-05,0.00021,-1e-05,-4e-05,-0.00033,6
27363,28305,0.0,0.0,-7e-05,7e-05,0.00016,-0.00028,-4e-05,-0.00055,6
27364,28306,0.0,0.0,-7e-05,7e-05,0.00016,-0.00028,-4e-05,-0.00055,6
27365,28307,0.0,0.0,-7e-05,7e-05,0.00016,-0.00028,-4e-05,-0.00055,6
27366,28308,0.0,0.0,-7e-05,7e-05,0.00016,-0.00028,-4e-05,-0.00055,6
27367,28309,0.0,0.0,-7e-05,7e-05,0.00016,-0.00028,-4e-05,-0.00055,6
27368,28310,0.0,0.0,-7e-05,7e-05,0.00016,-0.00028,-4e-05,-0.00055,6
27369,28311,0.0,0.0,-7e-05,7e-05,0.00016,-0.00028,-4e-05,-0.00055,6
27370,28312,0.0,0.0,-7e-05,7e-05,0.00016,-0.00028,-4e-05,-0.00055,6
27371,28313,0.0,0.0,-7e-05,7e-05,0.00016,-0.00028,-4e-05,-0.00055,6
27372,28314,0.0,0.0,-7e-05,7e-05,0.00016,-0.00028,-4e-05,-0.00055,6
27373,28315,0.0,0.0,-7e-05,7e-05,0.00016,-0.00028,-4e-05,-0.00055,6
27374,28316,0.0,0.0,-7e-05,7e-05,0.00016,-0.00028,-4e-05,-0.00055,6
27375,28317,0.0,0.0,-7e-05,7e-05,0.00016,-0.00028,-4e-05,-0.00055,6
27376,28318,0.0,0.0,-7e-05,7e-05,0.00016,-0.00028,-4e-05,-0.00055,6
27377,28319,-1e-05,0.0,-0.00016,-2.9999999999999997e-05,5.9999999999999995e-05,-0.00047999999999999996,-7e-05,-0.00021,6
27378,28320,-1e-05,0.0,-0.00016,-2.9999999999999997e-05,5.9999999999999995e-05,-0.00047999999999999996,-7e-05,-0.00021,6
27379,28321,-1e-05,0.0,-0.00016,-2.9999999999999997e-05,5.9999999999999995e-05,-0.00047999999999999996,-7e-05,-0.00021,6
27380,28322,-1e-05,0.0,-0.00016,-2.9999999999999997e-05,5.9999999999999995e-05,-0.00047999999999999996,-7e-05,-0.00021,6
27381,28323,-1e-05,0.0,-0.00016,-2.9999999999999997e-05,5.9999999999999995e-05,-0.00047999999999999996,-7e-05,-0.00021,6
27382,28324,-1e-05,0.0,-0.00016,-2.9999999999999997e-05,5.9999999999999995e-05,-0.00047999999999999996,-7e-05,-0.00021,6
27383,28325,-1e-05,0.0,-0.00016,-2.9999999999999997e-05,5.9999999999999995e-05,-0.00047999999999999996,-7e-05,-0.00021,6
27384,28326,-1e-05,0.0,-0.00016,-2.9999999999999997e-05,5.9999999999999995e-05,-0.00047999999999999996,-7e-05,-0.00021,6
27385,28327,-7e-05,-4e-05,-0.00011,-5.9999999999999995e-05,-0.00016999999999999999,-0.00088,2e-05,-0.00016,6
27386,28328,-7e-05,-4e-05,-0.00011,-5.9999999999999995e-05,-0.00016999999999999999,-0.00088,2e-05,-0.00016,6
27387,28329,-7e-05,-4e-05,-0.00011,-5.9999999999999995e-05,-0.00016999999999999999,-0.00088,2e-05,-0.00016,6
27388,28330,-7e-05,-4e-05,-0.00011,-5.9999999999999995e-05,-0.00016999999999999999,-0.00088,2e-05,-0.00016,6
27389,28331,-7e-05,-4e-05,-0.00011,-5.9999999999999995e-05,-0.00016999999999999999,-0.00088,2e-05,-0.00016,6
27390,28332,-7e-05,-4e-05,-0.00011,-5.9999999999999995e-05,-0.00016999999999999999,-0.00088,2e-05,-0.00016,6
27391,28333,-7e-05,-4e-05,-0.00011,-5.9999999999999995e-05,-0.00016999999999999999,-0.00088,2e-05,-0.00016,6
27392,28334,-7e-05,-4e-05,-0.00011,-5.9999999999999995e-05,-0.00016999999999999999,-0.00088,2e-05,-0.00016,6
27393,28335,-7e-05,-4e-05,-0.00011,-5.9999999999999995e-05,-0.00016999999999999999,-0.00088,2e-05,-0.00016,6
27394,28336,-7e-05,-4e-05,-0.00011,-5.9999999999999995e-05,-0.00016999999999999999,-0.00088,2e-05,-0.00016,6
27395,28338,-7e-05,-4e-05,-0.00011,-5.9999999999999995e-05,-0.00016999999999999999,-0.00088,2e-05,-0.00016,6
27396,28339,-7e-05,-4e-05,-0.00011,-5.9999999999999995e-05,-0.00016999999999999999,-0.00088,2e-05,-0.00016,6
27397,28340,-7e-05,-4e-05,-0.00011,-5.9999999999999995e-05,-0.00016999999999999999,-0.00088,2e-05,-0.00016,6
27398,28341,-7e-05,-4e-05,-0.00011,-5.9999999999999995e-05,-0.00016999999999999999,-0.00088,2e-05,-0.00016,6
27399,28342,0.0001,0.0,5.9999999999999995e-05,2.9999999999999997e-05,0.00057,4e-05,-1e-05,-0.00016999999999999999,6
27400,28343,2e-05,-4e-05,-0.00011,-2e-05,0.00029,0.00053,8e-05,-4e-05,6
27401,28344,2e-05,-4e-05,-0.00011,-2e-05,0.00029,0.00053,8e-05,-4e-05,6
27402,28345,2e-05,-4e-05,-0.00011,-2e-05,0.00029,0.00053,8e-05,-4e-05,6
27403,28346,2e-05,-4e-05,-0.00011,-2e-05,0.00029,0.00053,8e-05,-4e-05,6
27404,28347,2e-05,-4e-05,-0.00011,-2e-05,0.00029,0.00053,8e-05,-4e-05,6
27405,28348,2e-05,-4e-05,-0.00011,-2e-05,0.00029,0.00053,8e-05,-4e-05,6
27406,28349,2e-05,-4e-05,-0.00011,-2e-05,0.00029,0.00053,8e-05,-4e-05,6
27407,28350,2e-05,-4e-05,-0.00011,-2e-05,0.00029,0.00053,8e-05,-4e-05,6
27408,28351,2e-05,-4e-05,-0.00011,-2e-05,0.00029,0.00053,8e-05,-4e-05,6
27409,28352,2e-05,-4e-05,-0.00011,-2e-05,0.00029,0.00053,8e-05,-4e-05,6
27410,28353,2e-05,-4e-05,-0.00011,-2e-05,0.00029,0.00053,8e-05,-4e-05,6
27411,28354,2e-05,-4e-05,-0.00011,-2e-05,0.00029,0.00053,8e-05,-4e-05,6
27412,28355,2e-05,-4e-05,-0.00011,-2e-05,0.00029,0.00053,8e-05,-4e-05,6
27413,28356,2e-05,-4e-05,-0.00011,-2e-05,0.00029,0.00053,8e-05,-4e-05,6
27414,28357,2e-05,-4e-05,-0.00011,-2e-05,0.00029,0.00053,8e-05,-4e-05,6
27415,28358,2e-05,-4e-05,-0.00011,-2e-05,0.00029,0.00053,8e-05,-4e-05,6
27416,28359,2e-05,-4e-05,-0.00011,-2e-05,0.00029,0.00053,8e-05,-4e-05,6
27417,28360,2e-05,-4e-05,-0.00011,-2e-05,0.00029,0.00053,8e-05,-4e-05,6
27418,28361,2e-05,-4e-05,-0.00011,-2e-05,0.00029,0.00053,8e-05,-4e-05,6
27419,28362,2e-05,-4e-05,-0.00011,-2e-05,0.00029,0.00053,8e-05,-4e-05,6
27420,28363,2e-05,-4e-05,-0.00011,-2e-05,0.00029,0.00053,8e-05,-4e-05,6
27421,28364,2e-05,-4e-05,-0.00011,-2e-05,0.00029,0.00053,8e-05,-4e-05,6
27422,28365,0.0001,-1e-05,-4e-05,0.0,5e-05,5.9999999999999995e-05,5e-05,0.0002,6
27423,28366,-4e-05,-4e-05,-7e-05,-5e-05,-0.00018999999999999998,1e-05,-0.00016999999999999999,-0.00045999999999999996,6
27424,28367,-4e-05,-4e-05,-7e-05,-5e-05,-0.00018999999999999998,1e-05,-0.00016999999999999999,-0.00045999999999999996,6
27425,28368,-4e-05,-4e-05,-7e-05,-5e-05,-0.00018999999999999998,1e-05,-0.00016999999999999999,-0.00045999999999999996,6
27426,28369,-4e-05,-4e-05,-7e-05,-5e-05,-0.00018999999999999998,1e-05,-0.00016999999999999999,-0.00045999999999999996,6
27427,28370,-4e-05,-4e-05,-7e-05,-5e-05,-0.00018999999999999998,1e-05,-0.00016999999999999999,-0.00045999999999999996,6
27428,28371,-4e-05,-4e-05,-7e-05,-5e-05,-0.00018999999999999998,1e-05,-0.00016999999999999999,-0.00045999999999999996,6
27429,28372,-4e-05,-4e-05,-7e-05,-5e-05,-0.00018999999999999998,1e-05,-0.00016999999999999999,-0.00045999999999999996,6
27430,28373,-4e-05,-4e-05,-7e-05,-5e-05,-0.00018999999999999998,1e-05,-0.00016999999999999999,-0.00045999999999999996,6
27431,28374,-4e-05,-4e-05,-7e-05,-5e-05,-0.00018999999999999998,1e-05,-0.00016999999999999999,-0.00045999999999999996,6
27432,28375,-4e-05,-4e-05,-7e-05,-5e-05,-0.00018999999999999998,1e-05,-0.00016999999999999999,-0.00045999999999999996,6
27433,28376,-4e-05,-4e-05,-7e-05,-5e-05,-0.00018999999999999998,1e-05,-0.00016999999999999999,-0.00045999999999999996,6
27434,28377,-4e-05,-4e-05,-7e-05,-5e-05,-0.00018999999999999998,1e-05,-0.00016999999999999999,-0.00045999999999999996,6
27435,28378,-4e-05,-4e-05,-7e-05,-5e-05,-0.00018999999999999998,1e-05,-0.00016999999999999999,-0.00045999999999999996,6
27436,28379,-4e-05,-4e-05,-7e-05,-5e-05,-0.00018999999999999998,1e-05,-0.00016999999999999999,-0.00045999999999999996,6
27437,28380,-4e-05,-4e-05,-7e-05,-5e-05,-0.00018999999999999998,1e-05,-0.00016999999999999999,-0.00045999999999999996,6
27438,28381,-4e-05,-4e-05,-7e-05,-5e-05,-0.00018999999999999998,1e-05,-0.00016999999999999999,-0.00045999999999999996,6
27439,28382,-4e-05,-4e-05,-7e-05,-5e-05,-0.00018999999999999998,1e-05,-0.00016999999999999999,-0.00045999999999999996,6
27440,28383,-4e-05,-4e-05,-7e-05,-5e-05,-0.00018999999999999998,1e-05,-0.00016999999999999999,-0.00045999999999999996,6
27441,28384,-4e-05,-4e-05,-7e-05,-5e-05,-0.00018999999999999998,1e-05,-0.00016999999999999999,-0.00045999999999999996,6
27442,28385,-4e-05,-4e-05,-7e-05,-5e-05,-0.00018999999999999998,1e-05,-0.00016999999999999999,-0.00045999999999999996,6
27443,28386,-4e-05,-4e-05,-7e-05,-5e-05,-0.00018999999999999998,1e-05,-0.00016999999999999999,-0.00045999999999999996,6
27444,28388,2e-05,-1e-05,2.9999999999999997e-05,1e-05,0.00064,-0.0003,-0.00035,-0.00025,6
27445,28389,-2e-05,-2e-05,-2e-05,-5.9999999999999995e-05,-0.00037,8e-05,-2.9999999999999997e-05,0.00029,6
27446,28390,-2e-05,-2e-05,-2e-05,-5.9999999999999995e-05,-0.00037,8e-05,-2.9999999999999997e-05,0.00029,6
27447,28391,-2e-05,-2e-05,-2e-05,-5.9999999999999995e-05,-0.00037,8e-05,-2.9999999999999997e-05,0.00029,6
27448,28392,-2e-05,-2e-05,-2e-05,-5.9999999999999995e-05,-0.00037,8e-05,-2.9999999999999997e-05,0.00029,6
27449,28393,-2e-05,-2e-05,-2e-05,-5.9999999999999995e-05,-0.00037,8e-05,-2.9999999999999997e-05,0.00029,6
27450,28394,-2e-05,-2e-05,-2e-05,-5.9999999999999995e-05,-0.00037,8e-05,-2.9999999999999997e-05,0.00029,6
27451,28395,-2e-05,-2e-05,-2e-05,-5.9999999999999995e-05,-0.00037,8e-05,-2.9999999999999997e-05,0.00029,6
27452,28396,-2e-05,-2e-05,-2e-05,-5.9999999999999995e-05,-0.00037,8e-05,-2.9999999999999997e-05,0.00029,6
27453,28397,-2e-05,-2e-05,-2e-05,-5.9999999999999995e-05,-0.00037,8e-05,-2.9999999999999997e-05,0.00029,6
27454,28398,-2e-05,-2e-05,-2e-05,-5.9999999999999995e-05,-0.00037,8e-05,-2.9999999999999997e-05,0.00029,6
27455,28399,-2e-05,-2e-05,-2e-05,-5.9999999999999995e-05,-0.00037,8e-05,-2.9999999999999997e-05,0.00029,6
27456,28400,-2e-05,-2e-05,-2e-05,-5.9999999999999995e-05,-0.00037,8e-05,-2.9999999999999997e-05,0.00029,6
27457,28401,-2e-05,-2e-05,-2e-05,-5.9999999999999995e-05,-0.00037,8e-05,-2.9999999999999997e-05,0.00029,6
27458,28402,-2e-05,0.0,-2e-05,-2e-05,-0.00011,-0.00026000000000000003,-0.00015,-0.00043,6
27459,28403,-5.9999999999999995e-05,-1e-05,0.00035,-1e-05,-0.00021,-0.00067,2.9999999999999997e-05,-0.0001,6
27460,28404,-5.9999999999999995e-05,-1e-05,0.00035,-1e-05,-0.00021,-0.00067,2.9999999999999997e-05,-0.0001,6
27461,28405,-5.9999999999999995e-05,-1e-05,0.00035,-1e-05,-0.00021,-0.00067,2.9999999999999997e-05,-0.0001,6
27462,28406,-5.9999999999999995e-05,-1e-05,0.00035,-1e-05,-0.00021,-0.00067,2.9999999999999997e-05,-0.0001,6
27463,28407,-5.9999999999999995e-05,-1e-05,0.00035,-1e-05,-0.00021,-0.00067,2.9999999999999997e-05,-0.0001,6
27464,28408,-5.9999999999999995e-05,-1e-05,0.00035,-1e-05,-0.00021,-0.00067,2.9999999999999997e-05,-0.0001,6
27465,28409,-5.9999999999999995e-05,-1e-05,0.00035,-1e-05,-0.00021,-0.00067,2.9999999999999997e-05,-0.0001,6
27466,28410,-5.9999999999999995e-05,-1e-05,0.00035,-1e-05,-0.00021,-0.00067,2.9999999999999997e-05,-0.0001,6
27467,28411,-5.9999999999999995e-05,-1e-05,0.00035,-1e-05,-0.00021,-0.00067,2.9999999999999997e-05,-0.0001,6
27468,28412,-5.9999999999999995e-05,-1e-05,0.00035,-1e-05,-0.00021,-0.00067,2.9999999999999997e-05,-0.0001,6
27469,28413,-5.9999999999999995e-05,-1e-05,0.00035,-1e-05,-0.00021,-0.00067,2.9999999999999997e-05,-0.0001,6
27470,28414,-5.9999999999999995e-05,-1e-05,0.00035,-1e-05,-0.00021,-0.00067,2.9999999999999997e-05,-0.0001,6
27471,28415,-5.9999999999999995e-05,-1e-05,0.00035,-1e-05,-0.00021,-0.00067,2.9999999999999997e-05,-0.0001,6
27472,28416,-5.9999999999999995e-05,-1e-05,0.00035,-1e-05,-0.00021,-0.00067,2.9999999999999997e-05,-0.0001,6
27473,28417,-5.9999999999999995e-05,-1e-05,0.00035,-1e-05,-0.00021,-0.00067,2.9999999999999997e-05,-0.0001,6
27474,28418,-5.9999999999999995e-05,-1e-05,0.00035,-1e-05,-0.00021,-0.00067,2.9999999999999997e-05,-0.0001,6
27475,28419,-5.9999999999999995e-05,-1e-05,0.00035,-1e-05,-0.00021,-0.00067,2.9999999999999997e-05,-0.0001,6
27476,28420,-5.9999999999999995e-05,-1e-05,0.00035,-1e-05,-0.00021,-0.00067,2.9999999999999997e-05,-0.0001,6
27477,28421,-5.9999999999999995e-05,-1e-05,0.00035,-1e-05,-0.00021,-0.00067,2.9999999999999997e-05,-0.0001,6
27478,28422,-5.9999999999999995e-05,-1e-05,0.00035,-1e-05,-0.00021,-0.00067,2.9999999999999997e-05,-0.0001,6
27479,28423,-5.9999999999999995e-05,-1e-05,0.00035,-1e-05,-0.00021,-0.00067,2.9999999999999997e-05,-0.0001,6
27480,28424,-5.9999999999999995e-05,-1e-05,0.00035,-1e-05,-0.00021,-0.00067,2.9999999999999997e-05,-0.0001,6
27481,28425,1e-05,0.0,-4e-05,-5e-05,5e-05,-0.00033999999999999997,-8e-05,0.00022,6
27482,28426,1e-05,0.0,-4e-05,-5e-05,5e-05,-0.00033999999999999997,-8e-05,0.00022,6
27483,28427,1e-05,0.0,-4e-05,-5e-05,5e-05,-0.00033999999999999997,-8e-05,0.00022,6
27484,28428,1e-05,0.0,-4e-05,-5e-05,5e-05,-0.00033999999999999997,-8e-05,0.00022,6
27485,28429,1e-05,0.0,-4e-05,-5e-05,5e-05,-0.00033999999999999997,-8e-05,0.00022,6
27486,28430,1e-05,0.0,-4e-05,-5e-05,5e-05,-0.00033999999999999997,-8e-05,0.00022,6
27487,28431,1e-05,0.0,-4e-05,-5e-05,5e-05,-0.00033999999999999997,-8e-05,0.00022,6
27488,28432,1e-05,0.0,-4e-05,-5e-05,5e-05,-0.00033999999999999997,-8e-05,0.00022,6
27489,28433,1e-05,0.0,-4e-05,-5e-05,5e-05,-0.00033999999999999997,-8e-05,0.00022,6
27490,28434,1e-05,0.0,-4e-05,-5e-05,5e-05,-0.00033999999999999997,-8e-05,0.00022,6
27491,28435,1e-05,0.0,-4e-05,-5e-05,5e-05,-0.00033999999999999997,-8e-05,0.00022,6
27492,28436,1e-05,0.0,-4e-05,-5e-05,5e-05,-0.00033999999999999997,-8e-05,0.00022,6
27493,28438,1e-05,0.0,-4e-05,-5e-05,5e-05,-0.00033999999999999997,-8e-05,0.00022,6
27494,28439,1e-05,0.0,-4e-05,-5e-05,5e-05,-0.00033999999999999997,-8e-05,0.00022,6
27495,28440,1e-05,0.0,-4e-05,-5e-05,5e-05,-0.00033999999999999997,-8e-05,0.00022,6
27496,28441,1e-05,0.0,-4e-05,-5e-05,5e-05,-0.00033999999999999997,-8e-05,0.00022,6
27497,28442,1e-05,0.0,-4e-05,-5e-05,5e-05,-0.00033999999999999997,-8e-05,0.00022,6
27498,28443,1e-05,0.0,-4e-05,-5e-05,5e-05,-0.00033999999999999997,-8e-05,0.00022,6
27499,28444,1e-05,0.0,-4e-05,-5e-05,5e-05,-0.00033999999999999997,-8e-05,0.00022,6
27500,28445,1e-05,0.0,-4e-05,-5e-05,5e-05,-0.00033999999999999997,-8e-05,0.00022,6
27501,28446,1e-05,0.0,-4e-05,-5e-05,5e-05,-0.00033999999999999997,-8e-05,0.00022,6
27502,28447,1e-05,0.0,-4e-05,-5e-05,5e-05,-0.00033999999999999997,-8e-05,0.00022,6
27503,28448,1e-05,0.0,-4e-05,-5e-05,5e-05,-0.00033999999999999997,-8e-05,0.00022,6
27504,28449,-5e-05,-1e-05,-2e-05,-8e-05,-0.00037,-0.00066,4e-05,0.00018,6
27505,28450,2.9999999999999997e-05,4e-05,-7e-05,8e-05,0.0,0.0007099999999999999,-2.9999999999999997e-05,0.00044,6
27506,28451,2.9999999999999997e-05,4e-05,-7e-05,8e-05,0.0,0.0007099999999999999,-2.9999999999999997e-05,0.00044,6
27507,28452,2.9999999999999997e-05,4e-05,-7e-05,8e-05,0.0,0.0007099999999999999,-2.9999999999999997e-05,0.00044,6
27508,28453,2.9999999999999997e-05,4e-05,-7e-05,8e-05,0.0,0.0007099999999999999,-2.9999999999999997e-05,0.00044,6
27509,28454,2.9999999999999997e-05,4e-05,-7e-05,8e-05,0.0,0.0007099999999999999,-2.9999999999999997e-05,0.00044,6
27510,28455,2.9999999999999997e-05,4e-05,-7e-05,8e-05,0.0,0.0007099999999999999,-2.9999999999999997e-05,0.00044,6
27511,28456,2.9999999999999997e-05,4e-05,-7e-05,8e-05,0.0,0.0007099999999999999,-2.9999999999999997e-05,0.00044,6
27512,28457,2.9999999999999997e-05,4e-05,-7e-05,8e-05,0.0,0.0007099999999999999,-2.9999999999999997e-05,0.00044,6
27513,28458,2.9999999999999997e-05,4e-05,-7e-05,8e-05,0.0,0.0007099999999999999,-2.9999999999999997e-05,0.00044,6
27514,28459,2.9999999999999997e-05,4e-05,-7e-05,8e-05,0.0,0.0007099999999999999,-2.9999999999999997e-05,0.00044,6
27515,28460,2.9999999999999997e-05,4e-05,-7e-05,8e-05,0.0,0.0007099999999999999,-2.9999999999999997e-05,0.00044,6
27516,28461,2.9999999999999997e-05,4e-05,-7e-05,8e-05,0.0,0.0007099999999999999,-2.9999999999999997e-05,0.00044,6
27517,28462,2e-05,2.9999999999999997e-05,-8e-05,-2e-05,-0.00026000000000000003,4e-05,-4e-05,4e-05,6
27518,28463,0.00016,2e-05,-0.00011,-2e-05,8e-05,2e-05,9e-05,0.00033,6
27519,28464,0.00016,2e-05,-0.00011,-2e-05,8e-05,2e-05,9e-05,0.00033,6
27520,28465,0.00016,2e-05,-0.00011,-2e-05,8e-05,2e-05,9e-05,0.00033,6
27521,28466,0.00016,2e-05,-0.00011,-2e-05,8e-05,2e-05,9e-05,0.00033,6
27522,28467,0.00016,2e-05,-0.00011,-2e-05,8e-05,2e-05,9e-05,0.00033,6
27523,28468,0.00016,2e-05,-0.00011,-2e-05,8e-05,2e-05,9e-05,0.00033,6
27524,28469,0.00016,2e-05,-0.00011,-2e-05,8e-05,2e-05,9e-05,0.00033,6
27525,28470,0.00016,2e-05,-0.00011,-2e-05,8e-05,2e-05,9e-05,0.00033,6
27526,28471,0.00016,2e-05,-0.00011,-2e-05,8e-05,2e-05,9e-05,0.00033,6
27527,28472,0.00016,2e-05,-0.00011,-2e-05,8e-05,2e-05,9e-05,0.00033,6
27528,28473,0.00016,2e-05,-0.00011,-2e-05,8e-05,2e-05,9e-05,0.00033,6
27529,28474,0.00016,2e-05,-0.00011,-2e-05,8e-05,2e-05,9e-05,0.00033,6
27530,28475,0.00016,2e-05,-0.00011,-2e-05,8e-05,2e-05,9e-05,0.00033,6
27531,28476,0.00016,2e-05,-0.00011,-2e-05,8e-05,2e-05,9e-05,0.00033,6
27532,28477,0.00016,2e-05,-0.00011,-2e-05,8e-05,2e-05,9e-05,0.00033,6
27533,28478,0.00016,2e-05,-0.00011,-2e-05,8e-05,2e-05,9e-05,0.00033,6
27534,28479,0.00016,2e-05,-0.00011,-2e-05,8e-05,2e-05,9e-05,0.00033,6
27535,28480,0.00016,2e-05,-0.00011,-2e-05,8e-05,2e-05,9e-05,0.00033,6
27536,28481,0.00016,2e-05,-0.00011,-2e-05,8e-05,2e-05,9e-05,0.00033,6
27537,28482,0.00016,2e-05,-0.00011,-2e-05,8e-05,2e-05,9e-05,0.00033,6
27538,28483,0.00016,2e-05,-0.00011,-2e-05,8e-05,2e-05,9e-05,0.00033,6
27539,28484,0.00016,2e-05,-0.00011,-2e-05,8e-05,2e-05,9e-05,0.00033,6
27540,28485,-2.9999999999999997e-05,0.0,-4e-05,-2.9999999999999997e-05,-0.00028,-0.00031,8e-05,-0.00018999999999999998,6
27541,28486,-1e-05,-2.9999999999999997e-05,-8e-05,-1e-05,9e-05,-0.00014,-5e-05,-0.00011,6
27542,28488,-1e-05,-2.9999999999999997e-05,-8e-05,-1e-05,9e-05,-0.00014,-5e-05,-0.00011,6
27543,28489,-1e-05,-2.9999999999999997e-05,-8e-05,-1e-05,9e-05,-0.00014,-5e-05,-0.00011,6
27544,28490,-1e-05,-2.9999999999999997e-05,-8e-05,-1e-05,9e-05,-0.00014,-5e-05,-0.00011,6
27545,28491,-1e-05,-2.9999999999999997e-05,-8e-05,-1e-05,9e-05,-0.00014,-5e-05,-0.00011,6
27546,28492,-1e-05,-2.9999999999999997e-05,-8e-05,-1e-05,9e-05,-0.00014,-5e-05,-0.00011,6
27547,28493,-1e-05,-2.9999999999999997e-05,-8e-05,-1e-05,9e-05,-0.00014,-5e-05,-0.00011,6
27548,28494,-1e-05,-2.9999999999999997e-05,-8e-05,-1e-05,9e-05,-0.00014,-5e-05,-0.00011,6
27549,28495,-1e-05,-2.9999999999999997e-05,-8e-05,-1e-05,9e-05,-0.00014,-5e-05,-0.00011,6
27550,28496,-1e-05,-2.9999999999999997e-05,-8e-05,-1e-05,9e-05,-0.00014,-5e-05,-0.00011,6
27551,28497,-1e-05,-2.9999999999999997e-05,-8e-05,-1e-05,9e-05,-0.00014,-5e-05,-0.00011,6
27552,28498,-1e-05,-2.9999999999999997e-05,-8e-05,-1e-05,9e-05,-0.00014,-5e-05,-0.00011,6
27553,28499,-2.9999999999999997e-05,-1e-05,-1e-05,4e-05,0.00016999999999999999,-8e-05,5e-05,-5.9999999999999995e-05,6
27554,28500,-2.9999999999999997e-05,-1e-05,-1e-05,4e-05,0.00016999999999999999,-8e-05,5e-05,-5.9999999999999995e-05,6
27555,28501,-2.9999999999999997e-05,-1e-05,-1e-05,4e-05,0.00016999999999999999,-8e-05,5e-05,-5.9999999999999995e-05,6
27556,28502,-2.9999999999999997e-05,-1e-05,-1e-05,4e-05,0.00016999999999999999,-8e-05,5e-05,-5.9999999999999995e-05,6
27557,28503,-2.9999999999999997e-05,-1e-05,-1e-05,4e-05,0.00016999999999999999,-8e-05,5e-05,-5.9999999999999995e-05,6
27558,28504,-2.9999999999999997e-05,-1e-05,-1e-05,4e-05,0.00016999999999999999,-8e-05,5e-05,-5.9999999999999995e-05,6
27559,28505,-2.9999999999999997e-05,-1e-05,-1e-05,4e-05,0.00016999999999999999,-8e-05,5e-05,-5.9999999999999995e-05,6
27560,28506,-2.9999999999999997e-05,-1e-05,-1e-05,4e-05,0.00016999999999999999,-8e-05,5e-05,-5.9999999999999995e-05,6
27561,28507,-2e-05,-2.9999999999999997e-05,-7e-05,-9e-05,-0.00022999999999999998,-0.0004,-1e-05,-0.00043,6
27562,28508,-5.9999999999999995e-05,-5e-05,-0.00011,-5e-05,-2e-05,0.00032,-0.00033,-8e-05,6
27563,28509,-5.9999999999999995e-05,-5e-05,-0.00011,-5e-05,-2e-05,0.00032,-0.00033,-8e-05,6
27564,28510,-5.9999999999999995e-05,-5e-05,-0.00011,-5e-05,-2e-05,0.00032,-0.00033,-8e-05,6
27565,28511,-5.9999999999999995e-05,-5e-05,-0.00011,-5e-05,-2e-05,0.00032,-0.00033,-8e-05,6
27566,28512,-5.9999999999999995e-05,-5e-05,-0.00011,-5e-05,-2e-05,0.00032,-0.00033,-8e-05,6
27567,28513,-5.9999999999999995e-05,-5e-05,-0.00011,-5e-05,-2e-05,0.00032,-0.00033,-8e-05,6
27568,28514,-5.9999999999999995e-05,-5e-05,-0.00011,-5e-05,-2e-05,0.00032,-0.00033,-8e-05,6
27569,28515,-5.9999999999999995e-05,-5e-05,-0.00011,-5e-05,-2e-05,0.00032,-0.00033,-8e-05,6
27570,28516,-5.9999999999999995e-05,-5e-05,-0.00011,-5e-05,-2e-05,0.00032,-0.00033,-8e-05,6
27571,28517,-5.9999999999999995e-05,-5e-05,-0.00011,-5e-05,-2e-05,0.00032,-0.00033,-8e-05,6
27572,28518,-5.9999999999999995e-05,-5e-05,-0.00011,-5e-05,-2e-05,0.00032,-0.00033,-8e-05,6
27573,28519,-5.9999999999999995e-05,-5e-05,-0.00011,-5e-05,-2e-05,0.00032,-0.00033,-8e-05,6
27574,28520,-5.9999999999999995e-05,-5e-05,-0.00011,-5e-05,-2e-05,0.00032,-0.00033,-8e-05,6
27575,28521,-5.9999999999999995e-05,-5e-05,-0.00011,-5e-05,-2e-05,0.00032,-0.00033,-8e-05,6
27576,28522,-2.9999999999999997e-05,-5e-05,-4e-05,-1e-05,-0.00011999999999999999,-0.00108,-0.00014,-0.00015,6
27577,28523,-8e-05,-5e-05,-0.00045999999999999996,-1e-05,-0.00025,-0.0006799999999999999,0.00011,-0.00022999999999999998,6
27578,28524,-8e-05,-5e-05,-0.00045999999999999996,-1e-05,-0.00025,-0.0006799999999999999,0.00011,-0.00022999999999999998,6
27579,28525,-8e-05,-5e-05,-0.00045999999999999996,-1e-05,-0.00025,-0.0006799999999999999,0.00011,-0.00022999999999999998,6
27580,28526,-8e-05,-5e-05,-0.00045999999999999996,-1e-05,-0.00025,-0.0006799999999999999,0.00011,-0.00022999999999999998,6
27581,28527,-8e-05,-5e-05,-0.00045999999999999996,-1e-05,-0.00025,-0.0006799999999999999,0.00011,-0.00022999999999999998,6
27582,28528,-8e-05,-5e-05,-0.00045999999999999996,-1e-05,-0.00025,-0.0006799999999999999,0.00011,-0.00022999999999999998,6
27583,28529,-8e-05,-5e-05,-0.00045999999999999996,-1e-05,-0.00025,-0.0006799999999999999,0.00011,-0.00022999999999999998,6
27584,28530,-8e-05,-5e-05,-0.00045999999999999996,-1e-05,-0.00025,-0.0006799999999999999,0.00011,-0.00022999999999999998,6
27585,28531,-8e-05,-5e-05,-0.00045999999999999996,-1e-05,-0.00025,-0.0006799999999999999,0.00011,-0.00022999999999999998,6
27586,28532,-8e-05,-5e-05,-0.00045999999999999996,-1e-05,-0.00025,-0.0006799999999999999,0.00011,-0.00022999999999999998,6
27587,28533,-8e-05,-5e-05,-0.00045999999999999996,-1e-05,-0.00025,-0.0006799999999999999,0.00011,-0.00022999999999999998,6
27588,28534,-8e-05,-5e-05,-0.00045999999999999996,-1e-05,-0.00025,-0.0006799999999999999,0.00011,-0.00022999999999999998,6
27589,28535,-8e-05,-5e-05,-0.00045999999999999996,-1e-05,-0.00025,-0.0006799999999999999,0.00011,-0.00022999999999999998,6
27590,28536,-8e-05,-5e-05,-0.00045999999999999996,-1e-05,-0.00025,-0.0006799999999999999,0.00011,-0.00022999999999999998,6
27591,28538,-8e-05,-5e-05,-0.00045999999999999996,-1e-05,-0.00025,-0.0006799999999999999,0.00011,-0.00022999999999999998,6
27592,28539,-8e-05,-5e-05,-0.00045999999999999996,-1e-05,-0.00025,-0.0006799999999999999,0.00011,-0.00022999999999999998,6
27593,28540,-8e-05,-5e-05,-0.00045999999999999996,-1e-05,-0.00025,-0.0006799999999999999,0.00011,-0.00022999999999999998,6
27594,28541,-8e-05,-5e-05,-0.00045999999999999996,-1e-05,-0.00025,-0.0006799999999999999,0.00011,-0.00022999999999999998,6
27595,28542,-8e-05,-5e-05,-0.00045999999999999996,-1e-05,-0.00025,-0.0006799999999999999,0.00011,-0.00022999999999999998,6
27596,28543,-8e-05,-5e-05,-0.00045999999999999996,-1e-05,-0.00025,-0.0006799999999999999,0.00011,-0.00022999999999999998,6
27597,28544,-8e-05,-5e-05,-0.00045999999999999996,-1e-05,-0.00025,-0.0006799999999999999,0.00011,-0.00022999999999999998,6
27598,28545,-0.00013000000000000002,-4e-05,0.00015,-8e-05,-0.00027,-0.0008300000000000001,-9e-05,0.00047000000000000004,6
27599,28546,-0.00013000000000000002,-4e-05,0.00015,-8e-05,-0.00027,-0.0008300000000000001,-9e-05,0.00047000000000000004,6
27600,28547,-0.00013000000000000002,-4e-05,0.00015,-8e-05,-0.00027,-0.0008300000000000001,-9e-05,0.00047000000000000004,6
27601,28548,-0.00013000000000000002,-4e-05,0.00015,-8e-05,-0.00027,-0.0008300000000000001,-9e-05,0.00047000000000000004,6
27602,28549,-0.00013000000000000002,-4e-05,0.00015,-8e-05,-0.00027,-0.0008300000000000001,-9e-05,0.00047000000000000004,6
27603,28550,-0.00013000000000000002,-4e-05,0.00015,-8e-05,-0.00027,-0.0008300000000000001,-9e-05,0.00047000000000000004,6
27604,28551,-0.00013000000000000002,-4e-05,0.00015,-8e-05,-0.00027,-0.0008300000000000001,-9e-05,0.00047000000000000004,6
27605,28552,-0.00013000000000000002,-4e-05,0.00015,-8e-05,-0.00027,-0.0008300000000000001,-9e-05,0.00047000000000000004,6
27606,28553,-0.00013000000000000002,-4e-05,0.00015,-8e-05,-0.00027,-0.0008300000000000001,-9e-05,0.00047000000000000004,6
27607,28554,-0.00013000000000000002,-4e-05,0.00015,-8e-05,-0.00027,-0.0008300000000000001,-9e-05,0.00047000000000000004,6
27608,28555,-0.00013000000000000002,-4e-05,0.00015,-8e-05,-0.00027,-0.0008300000000000001,-9e-05,0.00047000000000000004,6
27609,28556,-0.00013000000000000002,-4e-05,0.00015,-8e-05,-0.00027,-0.0008300000000000001,-9e-05,0.00047000000000000004,6
27610,28557,-0.00013000000000000002,-4e-05,0.00015,-8e-05,-0.00027,-0.0008300000000000001,-9e-05,0.00047000000000000004,6
27611,28558,-0.00013000000000000002,-4e-05,0.00015,-8e-05,-0.00027,-0.0008300000000000001,-9e-05,0.00047000000000000004,6
27612,28559,-0.00013000000000000002,-4e-05,0.00015,-8e-05,-0.00027,-0.0008300000000000001,-9e-05,0.00047000000000000004,6
27613,28560,-0.00013000000000000002,-4e-05,0.00015,-8e-05,-0.00027,-0.0008300000000000001,-9e-05,0.00047000000000000004,6
27614,28561,-0.0001,-2e-05,-0.00014,5e-05,-8e-05,-0.00011,8e-05,-0.0005,6
27615,28562,-2.9999999999999997e-05,-1e-05,2e-05,-1e-05,0.00025,-2e-05,0.0,-0.00026000000000000003,6
27616,28563,-2.9999999999999997e-05,-1e-05,2e-05,-1e-05,0.00025,-2e-05,0.0,-0.00026000000000000003,6
27617,28564,-2.9999999999999997e-05,-1e-05,2e-05,-1e-05,0.00025,-2e-05,0.0,-0.00026000000000000003,6
27618,28565,-2.9999999999999997e-05,-1e-05,2e-05,-1e-05,0.00025,-2e-05,0.0,-0.00026000000000000003,6
27619,28566,-2.9999999999999997e-05,-1e-05,2e-05,-1e-05,0.00025,-2e-05,0.0,-0.00026000000000000003,6
27620,28567,-2.9999999999999997e-05,-1e-05,2e-05,-1e-05,0.00025,-2e-05,0.0,-0.00026000000000000003,6
27621,28568,-2.9999999999999997e-05,-1e-05,2e-05,-1e-05,0.00025,-2e-05,0.0,-0.00026000000000000003,6
27622,28569,-2.9999999999999997e-05,-1e-05,2e-05,-1e-05,0.00025,-2e-05,0.0,-0.00026000000000000003,6
27623,28570,-2.9999999999999997e-05,-1e-05,2e-05,-1e-05,0.00025,-2e-05,0.0,-0.00026000000000000003,6
27624,28571,-2.9999999999999997e-05,-1e-05,2e-05,-1e-05,0.00025,-2e-05,0.0,-0.00026000000000000003,6
27625,28572,-2.9999999999999997e-05,-1e-05,2e-05,-1e-05,0.00025,-2e-05,0.0,-0.00026000000000000003,6
27626,28573,-2.9999999999999997e-05,-1e-05,2e-05,-1e-05,0.00025,-2e-05,0.0,-0.00026000000000000003,6
27627,28574,-2.9999999999999997e-05,-1e-05,2e-05,-1e-05,0.00025,-2e-05,0.0,-0.00026000000000000003,6
27628,28575,-2.9999999999999997e-05,-1e-05,2e-05,-1e-05,0.00025,-2e-05,0.0,-0.00026000000000000003,6
27629,28576,-2.9999999999999997e-05,-1e-05,2e-05,-1e-05,0.00025,-2e-05,0.0,-0.00026000000000000003,6
27630,28577,-2.9999999999999997e-05,-1e-05,2e-05,-1e-05,0.00025,-2e-05,0.0,-0.00026000000000000003,6
27631,28578,-2.9999999999999997e-05,-1e-05,2e-05,-1e-05,0.00025,-2e-05,0.0,-0.00026000000000000003,6
27632,28579,-2.9999999999999997e-05,-1e-05,2e-05,-1e-05,0.00025,-2e-05,0.0,-0.00026000000000000003,6
27633,28580,-2.9999999999999997e-05,-1e-05,2e-05,-1e-05,0.00025,-2e-05,0.0,-0.00026000000000000003,6
27634,28581,-2.9999999999999997e-05,-1e-05,2e-05,-1e-05,0.00025,-2e-05,0.0,-0.00026000000000000003,6
27635,28582,2.9999999999999997e-05,-1e-05,2.9999999999999997e-05,-9e-05,5e-05,-0.00027,-8e-05,0.00042,6
27636,28583,0.0,1e-05,5.9999999999999995e-05,7e-05,4e-05,-0.00018,-4e-05,-0.00016,6
27637,28584,0.0,1e-05,5.9999999999999995e-05,7e-05,4e-05,-0.00018,-4e-05,-0.00016,6
27638,28585,0.0,1e-05,5.9999999999999995e-05,7e-05,4e-05,-0.00018,-4e-05,-0.00016,6
27639,28586,0.0,1e-05,5.9999999999999995e-05,7e-05,4e-05,-0.00018,-4e-05,-0.00016,6
27640,28588,0.0,1e-05,5.9999999999999995e-05,7e-05,4e-05,-0.00018,-4e-05,-0.00016,6
27641,28589,0.0,1e-05,5.9999999999999995e-05,7e-05,4e-05,-0.00018,-4e-05,-0.00016,6
27642,28590,0.0,1e-05,5.9999999999999995e-05,7e-05,4e-05,-0.00018,-4e-05,-0.00016,6
27643,28591,0.0,1e-05,5.9999999999999995e-05,7e-05,4e-05,-0.00018,-4e-05,-0.00016,6
27644,28592,0.0,1e-05,5.9999999999999995e-05,7e-05,4e-05,-0.00018,-4e-05,-0.00016,6
27645,28593,0.0,1e-05,5.9999999999999995e-05,7e-05,4e-05,-0.00018,-4e-05,-0.00016,6
27646,28594,0.0,1e-05,5.9999999999999995e-05,7e-05,4e-05,-0.00018,-4e-05,-0.00016,6
27647,28595,0.0,1e-05,5.9999999999999995e-05,7e-05,4e-05,-0.00018,-4e-05,-0.00016,6
27648,28596,0.0,1e-05,5.9999999999999995e-05,7e-05,4e-05,-0.00018,-4e-05,-0.00016,6
27649,28597,0.0,1e-05,5.9999999999999995e-05,7e-05,4e-05,-0.00018,-4e-05,-0.00016,6
27650,28598,0.0,1e-05,5.9999999999999995e-05,7e-05,4e-05,-0.00018,-4e-05,-0.00016,6
27651,28599,0.0,1e-05,5.9999999999999995e-05,7e-05,4e-05,-0.00018,-4e-05,-0.00016,6
27652,28600,0.0,1e-05,5.9999999999999995e-05,7e-05,4e-05,-0.00018,-4e-05,-0.00016,6
27653,28601,0.0,1e-05,5.9999999999999995e-05,7e-05,4e-05,-0.00018,-4e-05,-0.00016,6
27654,28602,0.0,1e-05,5.9999999999999995e-05,7e-05,4e-05,-0.00018,-4e-05,-0.00016,6
27655,28603,0.0,1e-05,5.9999999999999995e-05,7e-05,4e-05,-0.00018,-4e-05,-0.00016,6
27656,28604,0.0,1e-05,5.9999999999999995e-05,7e-05,4e-05,-0.00018,-4e-05,-0.00016,6
27657,28605,1e-05,4e-05,2e-05,5e-05,0.00013000000000000002,-0.00045,-1e-05,0.00022999999999999998,6
27658,28606,1e-05,4e-05,2e-05,5e-05,0.00013000000000000002,-0.00045,-1e-05,0.00022999999999999998,6
27659,28607,1e-05,4e-05,2e-05,5e-05,0.00013000000000000002,-0.00045,-1e-05,0.00022999999999999998,6
27660,28608,1e-05,4e-05,2e-05,5e-05,0.00013000000000000002,-0.00045,-1e-05,0.00022999999999999998,6
27661,28609,1e-05,4e-05,2e-05,5e-05,0.00013000000000000002,-0.00045,-1e-05,0.00022999999999999998,6
27662,28610,1e-05,4e-05,2e-05,5e-05,0.00013000000000000002,-0.00045,-1e-05,0.00022999999999999998,6
27663,28611,1e-05,4e-05,2e-05,5e-05,0.00013000000000000002,-0.00045,-1e-05,0.00022999999999999998,6
27664,28612,1e-05,4e-05,2e-05,5e-05,0.00013000000000000002,-0.00045,-1e-05,0.00022999999999999998,6
27665,28613,1e-05,4e-05,2e-05,5e-05,0.00013000000000000002,-0.00045,-1e-05,0.00022999999999999998,6
27666,28614,1e-05,4e-05,2e-05,5e-05,0.00013000000000000002,-0.00045,-1e-05,0.00022999999999999998,6
27667,28615,1e-05,4e-05,2e-05,5e-05,0.00013000000000000002,-0.00045,-1e-05,0.00022999999999999998,6
27668,28616,1e-05,4e-05,2e-05,5e-05,0.00013000000000000002,-0.00045,-1e-05,0.00022999999999999998,6
27669,28617,1e-05,4e-05,2e-05,5e-05,0.00013000000000000002,-0.00045,-1e-05,0.00022999999999999998,6
27670,28618,1e-05,4e-05,2e-05,5e-05,0.00013000000000000002,-0.00045,-1e-05,0.00022999999999999998,6
27671,28619,-0.00016,-5e-05,-4e-05,-4e-05,-4e-05,-2.9999999999999997e-05,-5.9999999999999995e-05,0.00057,6
27672,28620,-0.00016,-5e-05,-4e-05,-4e-05,-4e-05,-2.9999999999999997e-05,-5.9999999999999995e-05,0.00057,6
27673,28621,-0.00016,-5e-05,-4e-05,-4e-05,-4e-05,-2.9999999999999997e-05,-5.9999999999999995e-05,0.00057,6
27674,28622,-0.00016,-5e-05,-4e-05,-4e-05,-4e-05,-2.9999999999999997e-05,-5.9999999999999995e-05,0.00057,6
27675,28623,-0.00016,-5e-05,-4e-05,-4e-05,-4e-05,-2.9999999999999997e-05,-5.9999999999999995e-05,0.00057,6
27676,28624,-0.00016,-5e-05,-4e-05,-4e-05,-4e-05,-2.9999999999999997e-05,-5.9999999999999995e-05,0.00057,6
27677,28625,-0.00016,-5e-05,-4e-05,-4e-05,-4e-05,-2.9999999999999997e-05,-5.9999999999999995e-05,0.00057,6
27678,28626,-0.00016,-5e-05,-4e-05,-4e-05,-4e-05,-2.9999999999999997e-05,-5.9999999999999995e-05,0.00057,6
27679,28627,-5e-05,-5e-05,4e-05,0.0,5e-05,0.0008900000000000001,0.0001,0.00037999999999999997,6
27680,28628,-5e-05,-5e-05,4e-05,0.0,5e-05,0.0008900000000000001,0.0001,0.00037999999999999997,6
27681,28629,-5e-05,-5e-05,4e-05,0.0,5e-05,0.0008900000000000001,0.0001,0.00037999999999999997,6
27682,28630,-5e-05,-5e-05,4e-05,0.0,5e-05,0.0008900000000000001,0.0001,0.00037999999999999997,6
27683,28631,-5e-05,-5e-05,4e-05,0.0,5e-05,0.0008900000000000001,0.0001,0.00037999999999999997,6
27684,28632,-5e-05,-5e-05,4e-05,0.0,5e-05,0.0008900000000000001,0.0001,0.00037999999999999997,6
27685,28633,-5e-05,-5e-05,4e-05,0.0,5e-05,0.0008900000000000001,0.0001,0.00037999999999999997,6
27686,28634,-5e-05,-5e-05,4e-05,0.0,5e-05,0.0008900000000000001,0.0001,0.00037999999999999997,6
27687,28635,-5e-05,-5e-05,4e-05,0.0,5e-05,0.0008900000000000001,0.0001,0.00037999999999999997,6
27688,28636,-5e-05,-5e-05,4e-05,0.0,5e-05,0.0008900000000000001,0.0001,0.00037999999999999997,6
27689,28638,-5e-05,-5e-05,4e-05,0.0,5e-05,0.0008900000000000001,0.0001,0.00037999999999999997,6
27690,28639,-5e-05,-5e-05,4e-05,0.0,5e-05,0.0008900000000000001,0.0001,0.00037999999999999997,6
27691,28640,-5e-05,-5e-05,4e-05,0.0,5e-05,0.0008900000000000001,0.0001,0.00037999999999999997,6
27692,28641,-5e-05,-5e-05,4e-05,0.0,5e-05,0.0008900000000000001,0.0001,0.00037999999999999997,6
27693,28642,2.9999999999999997e-05,2.9999999999999997e-05,1e-05,2e-05,0.00033999999999999997,0.00074,0.00011,-5e-05,6
27694,28643,-4e-05,-2e-05,-4e-05,-5.9999999999999995e-05,-0.00015,-0.00109,9e-05,-0.00022999999999999998,6
27695,28644,-4e-05,-2e-05,-4e-05,-5.9999999999999995e-05,-0.00015,-0.00109,9e-05,-0.00022999999999999998,6
27696,28645,-4e-05,-2e-05,-4e-05,-5.9999999999999995e-05,-0.00015,-0.00109,9e-05,-0.00022999999999999998,6
27697,28646,-4e-05,-2e-05,-4e-05,-5.9999999999999995e-05,-0.00015,-0.00109,9e-05,-0.00022999999999999998,6
27698,28647,-4e-05,-2e-05,-4e-05,-5.9999999999999995e-05,-0.00015,-0.00109,9e-05,-0.00022999999999999998,6
27699,28648,-4e-05,-2e-05,-4e-05,-5.9999999999999995e-05,-0.00015,-0.00109,9e-05,-0.00022999999999999998,6
27700,28649,-4e-05,-2e-05,-4e-05,-5.9999999999999995e-05,-0.00015,-0.00109,9e-05,-0.00022999999999999998,6
27701,28650,-4e-05,-2e-05,-4e-05,-5.9999999999999995e-05,-0.00015,-0.00109,9e-05,-0.00022999999999999998,6
27702,28651,-4e-05,-2e-05,-4e-05,-5.9999999999999995e-05,-0.00015,-0.00109,9e-05,-0.00022999999999999998,6
27703,28652,-4e-05,-2e-05,-4e-05,-5.9999999999999995e-05,-0.00015,-0.00109,9e-05,-0.00022999999999999998,6
27704,28653,-4e-05,-2e-05,-4e-05,-5.9999999999999995e-05,-0.00015,-0.00109,9e-05,-0.00022999999999999998,6
27705,28654,-4e-05,-2e-05,-4e-05,-5.9999999999999995e-05,-0.00015,-0.00109,9e-05,-0.00022999999999999998,6
27706,28655,-4e-05,-2e-05,-4e-05,-5.9999999999999995e-05,-0.00015,-0.00109,9e-05,-0.00022999999999999998,6
27707,28656,-4e-05,-2e-05,-4e-05,-5.9999999999999995e-05,-0.00015,-0.00109,9e-05,-0.00022999999999999998,6
27708,28657,-4e-05,-2e-05,-4e-05,-5.9999999999999995e-05,-0.00015,-0.00109,9e-05,-0.00022999999999999998,6
27709,28658,-4e-05,-2e-05,-4e-05,-5.9999999999999995e-05,-0.00015,-0.00109,9e-05,-0.00022999999999999998,6
27710,28659,-4e-05,-2e-05,-4e-05,-5.9999999999999995e-05,-0.00015,-0.00109,9e-05,-0.00022999999999999998,6
27711,28660,-4e-05,-2e-05,-4e-05,-5.9999999999999995e-05,-0.00015,-0.00109,9e-05,-0.00022999999999999998,6
27712,28661,-4e-05,-2e-05,-4e-05,-5.9999999999999995e-05,-0.00015,-0.00109,9e-05,-0.00022999999999999998,6
27713,28662,-4e-05,-2e-05,-4e-05,-5.9999999999999995e-05,-0.00015,-0.00109,9e-05,-0.00022999999999999998,6
27714,28663,-4e-05,-2e-05,-4e-05,-5.9999999999999995e-05,-0.00015,-0.00109,9e-05,-0.00022999999999999998,6
27715,28664,-4e-05,-2e-05,-4e-05,-5.9999999999999995e-05,-0.00015,-0.00109,9e-05,-0.00022999999999999998,6
27716,28665,2e-05,-2.9999999999999997e-05,-0.00027,-0.00013000000000000002,-0.00025,-0.00054,-8e-05,-0.00022,6
27717,28666,2e-05,-2.9999999999999997e-05,-0.00027,-0.00013000000000000002,-0.00025,-0.00054,-8e-05,-0.00022,6
27718,28667,2e-05,-2.9999999999999997e-05,-0.00027,-0.00013000000000000002,-0.00025,-0.00054,-8e-05,-0.00022,6
27719,28668,2e-05,-2.9999999999999997e-05,-0.00027,-0.00013000000000000002,-0.00025,-0.00054,-8e-05,-0.00022,6
27720,28669,2e-05,-2.9999999999999997e-05,-0.00027,-0.00013000000000000002,-0.00025,-0.00054,-8e-05,-0.00022,6
27721,28670,2e-05,-2.9999999999999997e-05,-0.00027,-0.00013000000000000002,-0.00025,-0.00054,-8e-05,-0.00022,6
27722,28671,2e-05,-2.9999999999999997e-05,-0.00027,-0.00013000000000000002,-0.00025,-0.00054,-8e-05,-0.00022,6
27723,28672,2e-05,-2.9999999999999997e-05,-0.00027,-0.00013000000000000002,-0.00025,-0.00054,-8e-05,-0.00022,6
27724,28673,2e-05,-2.9999999999999997e-05,-0.00027,-0.00013000000000000002,-0.00025,-0.00054,-8e-05,-0.00022,6
27725,28674,2e-05,-2.9999999999999997e-05,-0.00027,-0.00013000000000000002,-0.00025,-0.00054,-8e-05,-0.00022,6
27726,28675,2e-05,-2.9999999999999997e-05,-0.00027,-0.00013000000000000002,-0.00025,-0.00054,-8e-05,-0.00022,6
27727,28676,2e-05,-2.9999999999999997e-05,-0.00027,-0.00013000000000000002,-0.00025,-0.00054,-8e-05,-0.00022,6
27728,28677,2e-05,-2.9999999999999997e-05,-0.00027,-0.00013000000000000002,-0.00025,-0.00054,-8e-05,-0.00022,6
27729,28678,2e-05,-2.9999999999999997e-05,-0.00027,-0.00013000000000000002,-0.00025,-0.00054,-8e-05,-0.00022,6
27730,28679,-5e-05,1e-05,-4e-05,2e-05,-0.00013000000000000002,-0.00032,-7e-05,-0.00061,6
27731,28680,-5e-05,1e-05,-4e-05,2e-05,-0.00013000000000000002,-0.00032,-7e-05,-0.00061,6
27732,28681,-5e-05,1e-05,-4e-05,2e-05,-0.00013000000000000002,-0.00032,-7e-05,-0.00061,6
27733,28682,-5e-05,1e-05,-4e-05,2e-05,-0.00013000000000000002,-0.00032,-7e-05,-0.00061,6
27734,28683,-5e-05,1e-05,-4e-05,2e-05,-0.00013000000000000002,-0.00032,-7e-05,-0.00061,6
27735,28684,-5e-05,1e-05,-4e-05,2e-05,-0.00013000000000000002,-0.00032,-7e-05,-0.00061,6
27736,28685,-5e-05,1e-05,-4e-05,2e-05,-0.00013000000000000002,-0.00032,-7e-05,-0.00061,6
27737,28686,-5e-05,1e-05,-4e-05,2e-05,-0.00013000000000000002,-0.00032,-7e-05,-0.00061,6
27738,28689,2.9999999999999997e-05,2e-05,5.9999999999999995e-05,0.0,-8e-05,-0.00013000000000000002,1e-05,0.00023999999999999998,6
27739,28690,2.9999999999999997e-05,2e-05,5.9999999999999995e-05,0.0,-8e-05,-0.00013000000000000002,1e-05,0.00023999999999999998,6
27740,28691,2.9999999999999997e-05,2e-05,5.9999999999999995e-05,0.0,-8e-05,-0.00013000000000000002,1e-05,0.00023999999999999998,6
27741,28692,2.9999999999999997e-05,2e-05,5.9999999999999995e-05,0.0,-8e-05,-0.00013000000000000002,1e-05,0.00023999999999999998,6
27742,28693,2.9999999999999997e-05,2e-05,5.9999999999999995e-05,0.0,-8e-05,-0.00013000000000000002,1e-05,0.00023999999999999998,6
27743,28694,2.9999999999999997e-05,2e-05,5.9999999999999995e-05,0.0,-8e-05,-0.00013000000000000002,1e-05,0.00023999999999999998,6
27744,28695,2.9999999999999997e-05,2e-05,5.9999999999999995e-05,0.0,-8e-05,-0.00013000000000000002,1e-05,0.00023999999999999998,6
27745,28696,2.9999999999999997e-05,2e-05,5.9999999999999995e-05,0.0,-8e-05,-0.00013000000000000002,1e-05,0.00023999999999999998,6
27746,28697,2.9999999999999997e-05,2e-05,5.9999999999999995e-05,0.0,-8e-05,-0.00013000000000000002,1e-05,0.00023999999999999998,6
27747,28698,2.9999999999999997e-05,2e-05,5.9999999999999995e-05,0.0,-8e-05,-0.00013000000000000002,1e-05,0.00023999999999999998,6
27748,28699,2.9999999999999997e-05,2e-05,5.9999999999999995e-05,0.0,-8e-05,-0.00013000000000000002,1e-05,0.00023999999999999998,6
27749,28700,2.9999999999999997e-05,2e-05,5.9999999999999995e-05,0.0,-8e-05,-0.00013000000000000002,1e-05,0.00023999999999999998,6
27750,28701,2.9999999999999997e-05,2e-05,5.9999999999999995e-05,0.0,-8e-05,-0.00013000000000000002,1e-05,0.00023999999999999998,6
27751,28702,-1e-05,-4e-05,5e-05,-2e-05,-0.0001,-0.00082,-0.00011,-0.00016999999999999999,6
27752,28703,-2e-05,-1e-05,4e-05,5e-05,9e-05,0.00041,5e-05,0.00015,6
27753,28704,-2e-05,-1e-05,4e-05,5e-05,9e-05,0.00041,5e-05,0.00015,6
27754,28705,-2e-05,-1e-05,4e-05,5e-05,9e-05,0.00041,5e-05,0.00015,6
27755,28706,-2e-05,-1e-05,4e-05,5e-05,9e-05,0.00041,5e-05,0.00015,6
27756,28707,-2e-05,-1e-05,4e-05,5e-05,9e-05,0.00041,5e-05,0.00015,6
27757,28708,-2e-05,-1e-05,4e-05,5e-05,9e-05,0.00041,5e-05,0.00015,6
27758,28709,-2e-05,-1e-05,4e-05,5e-05,9e-05,0.00041,5e-05,0.00015,6
27759,28710,-2e-05,-1e-05,4e-05,5e-05,9e-05,0.00041,5e-05,0.00015,6
27760,28711,-2e-05,-1e-05,4e-05,5e-05,9e-05,0.00041,5e-05,0.00015,6
27761,28712,-2e-05,-1e-05,4e-05,5e-05,9e-05,0.00041,5e-05,0.00015,6
27762,28713,-2e-05,-1e-05,4e-05,5e-05,9e-05,0.00041,5e-05,0.00015,6
27763,28714,-2e-05,-1e-05,4e-05,5e-05,9e-05,0.00041,5e-05,0.00015,6
27764,28715,-2e-05,-1e-05,4e-05,5e-05,9e-05,0.00041,5e-05,0.00015,6
27765,28716,-2e-05,-1e-05,4e-05,5e-05,9e-05,0.00041,5e-05,0.00015,6
27766,28717,-2e-05,-1e-05,4e-05,5e-05,9e-05,0.00041,5e-05,0.00015,6
27767,28718,-2e-05,-1e-05,4e-05,5e-05,9e-05,0.00041,5e-05,0.00015,6
27768,28719,-2e-05,-1e-05,4e-05,5e-05,9e-05,0.00041,5e-05,0.00015,6
27769,28720,-2e-05,-1e-05,4e-05,5e-05,9e-05,0.00041,5e-05,0.00015,6
27770,28721,-2e-05,-1e-05,4e-05,5e-05,9e-05,0.00041,5e-05,0.00015,6
27771,28722,-2e-05,-1e-05,4e-05,5e-05,9e-05,0.00041,5e-05,0.00015,6
27772,28723,-2e-05,-1e-05,4e-05,5e-05,9e-05,0.00041,5e-05,0.00015,6
27773,28724,-2e-05,-1e-05,4e-05,5e-05,9e-05,0.00041,5e-05,0.00015,6
27774,28725,5.9999999999999995e-05,0.0,2.9999999999999997e-05,5.9999999999999995e-05,-0.00016,-0.00037,-0.00015,-0.00045,6
27775,28726,5.9999999999999995e-05,0.0,2.9999999999999997e-05,5.9999999999999995e-05,-0.00016,-0.00037,-0.00015,-0.00045,6
27776,28727,5.9999999999999995e-05,0.0,2.9999999999999997e-05,5.9999999999999995e-05,-0.00016,-0.00037,-0.00015,-0.00045,6
27777,28728,5.9999999999999995e-05,0.0,2.9999999999999997e-05,5.9999999999999995e-05,-0.00016,-0.00037,-0.00015,-0.00045,6
27778,28729,5.9999999999999995e-05,0.0,2.9999999999999997e-05,5.9999999999999995e-05,-0.00016,-0.00037,-0.00015,-0.00045,6
27779,28730,5.9999999999999995e-05,0.0,2.9999999999999997e-05,5.9999999999999995e-05,-0.00016,-0.00037,-0.00015,-0.00045,6
27780,28731,5.9999999999999995e-05,0.0,2.9999999999999997e-05,5.9999999999999995e-05,-0.00016,-0.00037,-0.00015,-0.00045,6
27781,28732,5.9999999999999995e-05,0.0,2.9999999999999997e-05,5.9999999999999995e-05,-0.00016,-0.00037,-0.00015,-0.00045,6
27782,28733,5.9999999999999995e-05,0.0,2.9999999999999997e-05,5.9999999999999995e-05,-0.00016,-0.00037,-0.00015,-0.00045,6
27783,28734,5.9999999999999995e-05,0.0,2.9999999999999997e-05,5.9999999999999995e-05,-0.00016,-0.00037,-0.00015,-0.00045,6
27784,28735,5.9999999999999995e-05,0.0,2.9999999999999997e-05,5.9999999999999995e-05,-0.00016,-0.00037,-0.00015,-0.00045,6
27785,28736,5.9999999999999995e-05,0.0,2.9999999999999997e-05,5.9999999999999995e-05,-0.00016,-0.00037,-0.00015,-0.00045,6
27786,28738,5.9999999999999995e-05,0.0,2.9999999999999997e-05,5.9999999999999995e-05,-0.00016,-0.00037,-0.00015,-0.00045,6
27787,28739,8e-05,2.9999999999999997e-05,-2e-05,1e-05,-0.00021,-0.00128,0.00022,0.00044,6
27788,28740,8e-05,2.9999999999999997e-05,-2e-05,1e-05,-0.00021,-0.00128,0.00022,0.00044,6
27789,28741,8e-05,2.9999999999999997e-05,-2e-05,1e-05,-0.00021,-0.00128,0.00022,0.00044,6
27790,28742,8e-05,2.9999999999999997e-05,-2e-05,1e-05,-0.00021,-0.00128,0.00022,0.00044,6
27791,28743,8e-05,2.9999999999999997e-05,-2e-05,1e-05,-0.00021,-0.00128,0.00022,0.00044,6
27792,28744,8e-05,2.9999999999999997e-05,-2e-05,1e-05,-0.00021,-0.00128,0.00022,0.00044,6
27793,28745,8e-05,2.9999999999999997e-05,-2e-05,1e-05,-0.00021,-0.00128,0.00022,0.00044,6
27794,28746,8e-05,2.9999999999999997e-05,-2e-05,1e-05,-0.00021,-0.00128,0.00022,0.00044,6
27795,28747,-5e-05,-1e-05,8e-05,2e-05,0.00032,0.0009699999999999999,4e-05,-0.00011999999999999999,6
27796,28748,-5e-05,-1e-05,8e-05,2e-05,0.00032,0.0009699999999999999,4e-05,-0.00011999999999999999,6
27797,28749,-5e-05,-1e-05,8e-05,2e-05,0.00032,0.0009699999999999999,4e-05,-0.00011999999999999999,6
27798,28750,-5e-05,-1e-05,8e-05,2e-05,0.00032,0.0009699999999999999,4e-05,-0.00011999999999999999,6
27799,28751,-5e-05,-1e-05,8e-05,2e-05,0.00032,0.0009699999999999999,4e-05,-0.00011999999999999999,6
27800,28752,-5e-05,-1e-05,8e-05,2e-05,0.00032,0.0009699999999999999,4e-05,-0.00011999999999999999,6
27801,28753,-5e-05,-1e-05,8e-05,2e-05,0.00032,0.0009699999999999999,4e-05,-0.00011999999999999999,6
27802,28754,-5e-05,-1e-05,8e-05,2e-05,0.00032,0.0009699999999999999,4e-05,-0.00011999999999999999,6
27803,28755,-5e-05,-1e-05,8e-05,2e-05,0.00032,0.0009699999999999999,4e-05,-0.00011999999999999999,6
27804,28756,-5e-05,-1e-05,8e-05,2e-05,0.00032,0.0009699999999999999,4e-05,-0.00011999999999999999,6
27805,28757,-5e-05,-1e-05,8e-05,2e-05,0.00032,0.0009699999999999999,4e-05,-0.00011999999999999999,6
27806,28758,-5e-05,-1e-05,8e-05,2e-05,0.00032,0.0009699999999999999,4e-05,-0.00011999999999999999,6
27807,28759,-5e-05,-1e-05,8e-05,2e-05,0.00032,0.0009699999999999999,4e-05,-0.00011999999999999999,6
27808,28760,-5e-05,-1e-05,8e-05,2e-05,0.00032,0.0009699999999999999,4e-05,-0.00011999999999999999,6
27809,28761,-5e-05,-1e-05,8e-05,2e-05,0.00032,0.0009699999999999999,4e-05,-0.00011999999999999999,6
27810,28762,-2.9999999999999997e-05,-1e-05,-9e-05,-2.9999999999999997e-05,7e-05,-0.00084,-0.00014,-0.00118,6
27811,28763,5e-05,2e-05,5.9999999999999995e-05,7e-05,-0.00013000000000000002,-0.00033,0.00018,-9e-05,6
27812,28764,5e-05,2e-05,5.9999999999999995e-05,7e-05,-0.00013000000000000002,-0.00033,0.00018,-9e-05,6
27813,28765,5e-05,2e-05,5.9999999999999995e-05,7e-05,-0.00013000000000000002,-0.00033,0.00018,-9e-05,6
27814,28766,5e-05,2e-05,5.9999999999999995e-05,7e-05,-0.00013000000000000002,-0.00033,0.00018,-9e-05,6
27815,28767,5e-05,2e-05,5.9999999999999995e-05,7e-05,-0.00013000000000000002,-0.00033,0.00018,-9e-05,6
27816,28768,5e-05,2e-05,5.9999999999999995e-05,7e-05,-0.00013000000000000002,-0.00033,0.00018,-9e-05,6
27817,28769,5e-05,2e-05,5.9999999999999995e-05,7e-05,-0.00013000000000000002,-0.00033,0.00018,-9e-05,6
27818,28770,5e-05,2e-05,5.9999999999999995e-05,7e-05,-0.00013000000000000002,-0.00033,0.00018,-9e-05,6
27819,28771,5e-05,2e-05,5.9999999999999995e-05,7e-05,-0.00013000000000000002,-0.00033,0.00018,-9e-05,6
27820,28772,5e-05,2e-05,5.9999999999999995e-05,7e-05,-0.00013000000000000002,-0.00033,0.00018,-9e-05,6
27821,28773,5e-05,2e-05,5.9999999999999995e-05,7e-05,-0.00013000000000000002,-0.00033,0.00018,-9e-05,6
27822,28774,5e-05,2e-05,5.9999999999999995e-05,7e-05,-0.00013000000000000002,-0.00033,0.00018,-9e-05,6
27823,28775,5e-05,2e-05,5.9999999999999995e-05,7e-05,-0.00013000000000000002,-0.00033,0.00018,-9e-05,6
27824,28776,5e-05,2e-05,5.9999999999999995e-05,7e-05,-0.00013000000000000002,-0.00033,0.00018,-9e-05,6
27825,28777,5e-05,2e-05,5.9999999999999995e-05,7e-05,-0.00013000000000000002,-0.00033,0.00018,-9e-05,6
27826,28778,5e-05,2e-05,5.9999999999999995e-05,7e-05,-0.00013000000000000002,-0.00033,0.00018,-9e-05,6
27827,28779,5e-05,2e-05,5.9999999999999995e-05,7e-05,-0.00013000000000000002,-0.00033,0.00018,-9e-05,6
27828,28780,5e-05,2e-05,5.9999999999999995e-05,7e-05,-0.00013000000000000002,-0.00033,0.00018,-9e-05,6
27829,28781,5e-05,2e-05,5.9999999999999995e-05,7e-05,-0.00013000000000000002,-0.00033,0.00018,-9e-05,6
27830,28782,5e-05,2e-05,5.9999999999999995e-05,7e-05,-0.00013000000000000002,-0.00033,0.00018,-9e-05,6
27831,28783,5e-05,2e-05,5.9999999999999995e-05,7e-05,-0.00013000000000000002,-0.00033,0.00018,-9e-05,6
27832,28784,5e-05,2e-05,5.9999999999999995e-05,7e-05,-0.00013000000000000002,-0.00033,0.00018,-9e-05,6
27833,28785,-8e-05,0.0,0.00037,-5e-05,8e-05,0.00011999999999999999,-0.00023999999999999998,-0.00016999999999999999,6
27834,28786,-8e-05,0.0,0.00037,-5e-05,8e-05,0.00011999999999999999,-0.00023999999999999998,-0.00016999999999999999,6
27835,28788,-8e-05,0.0,0.00037,-5e-05,8e-05,0.00011999999999999999,-0.00023999999999999998,-0.00016999999999999999,6
27836,28789,-8e-05,0.0,0.00037,-5e-05,8e-05,0.00011999999999999999,-0.00023999999999999998,-0.00016999999999999999,6
27837,28790,-8e-05,0.0,0.00037,-5e-05,8e-05,0.00011999999999999999,-0.00023999999999999998,-0.00016999999999999999,6
27838,28791,-8e-05,0.0,0.00037,-5e-05,8e-05,0.00011999999999999999,-0.00023999999999999998,-0.00016999999999999999,6
27839,28792,-8e-05,0.0,0.00037,-5e-05,8e-05,0.00011999999999999999,-0.00023999999999999998,-0.00016999999999999999,6
27840,28793,-8e-05,0.0,0.00037,-5e-05,8e-05,0.00011999999999999999,-0.00023999999999999998,-0.00016999999999999999,6
27841,28794,-8e-05,0.0,0.00037,-5e-05,8e-05,0.00011999999999999999,-0.00023999999999999998,-0.00016999999999999999,6
27842,28795,-8e-05,0.0,0.00037,-5e-05,8e-05,0.00011999999999999999,-0.00023999999999999998,-0.00016999999999999999,6
27843,28796,-8e-05,0.0,0.00037,-5e-05,8e-05,0.00011999999999999999,-0.00023999999999999998,-0.00016999999999999999,6
27844,28797,-8e-05,0.0,0.00037,-5e-05,8e-05,0.00011999999999999999,-0.00023999999999999998,-0.00016999999999999999,6
27845,28798,-8e-05,0.0,0.00037,-5e-05,8e-05,0.00011999999999999999,-0.00023999999999999998,-0.00016999999999999999,6
27846,28799,-7e-05,-2.9999999999999997e-05,0.00016,-2e-05,-0.00016,-0.00018,-9e-05,-0.00033,6
27847,28800,-7e-05,-2.9999999999999997e-05,0.00016,-2e-05,-0.00016,-0.00018,-9e-05,-0.00033,6
27848,28801,-7e-05,-2.9999999999999997e-05,0.00016,-2e-05,-0.00016,-0.00018,-9e-05,-0.00033,6
27849,28803,-7e-05,-2.9999999999999997e-05,0.00016,-2e-05,-0.00016,-0.00018,-9e-05,-0.00033,6
27850,28804,-7e-05,-2.9999999999999997e-05,0.00016,-2e-05,-0.00016,-0.00018,-9e-05,-0.00033,6
27851,28805,-7e-05,-2.9999999999999997e-05,0.00016,-2e-05,-0.00016,-0.00018,-9e-05,-0.00033,6
27852,28806,-7e-05,-2.9999999999999997e-05,0.00016,-2e-05,-0.00016,-0.00018,-9e-05,-0.00033,6
27853,28807,1e-05,0.0,1e-05,-1e-05,-0.00016999999999999999,-0.00026000000000000003,-1e-05,-0.00027,6
27854,28808,1e-05,0.0,1e-05,-1e-05,-0.00016999999999999999,-0.00026000000000000003,-1e-05,-0.00027,6
27855,28809,1e-05,0.0,1e-05,-1e-05,-0.00016999999999999999,-0.00026000000000000003,-1e-05,-0.00027,6
27856,28810,1e-05,0.0,1e-05,-1e-05,-0.00016999999999999999,-0.00026000000000000003,-1e-05,-0.00027,6
27857,28811,1e-05,0.0,1e-05,-1e-05,-0.00016999999999999999,-0.00026000000000000003,-1e-05,-0.00027,6
27858,28812,1e-05,0.0,1e-05,-1e-05,-0.00016999999999999999,-0.00026000000000000003,-1e-05,-0.00027,6
27859,28813,1e-05,0.0,1e-05,-1e-05,-0.00016999999999999999,-0.00026000000000000003,-1e-05,-0.00027,6
27860,28814,1e-05,0.0,1e-05,-1e-05,-0.00016999999999999999,-0.00026000000000000003,-1e-05,-0.00027,6
27861,28815,1e-05,0.0,1e-05,-1e-05,-0.00016999999999999999,-0.00026000000000000003,-1e-05,-0.00027,6
27862,28816,1e-05,0.0,1e-05,-1e-05,-0.00016999999999999999,-0.00026000000000000003,-1e-05,-0.00027,6
27863,28817,1e-05,0.0,1e-05,-1e-05,-0.00016999999999999999,-0.00026000000000000003,-1e-05,-0.00027,6
27864,28818,1e-05,0.0,1e-05,-1e-05,-0.00016999999999999999,-0.00026000000000000003,-1e-05,-0.00027,6
27865,28819,1e-05,0.0,1e-05,-1e-05,-0.00016999999999999999,-0.00026000000000000003,-1e-05,-0.00027,6
27866,28820,1e-05,0.0,1e-05,-1e-05,-0.00016999999999999999,-0.00026000000000000003,-1e-05,-0.00027,6
27867,28821,1e-05,0.0,1e-05,-1e-05,-0.00016999999999999999,-0.00026000000000000003,-1e-05,-0.00027,6
27868,28822,-0.00025,2e-05,0.00015,5e-05,0.00015,5e-05,-5.9999999999999995e-05,-0.00033,6
27869,28823,-7e-05,-2.9999999999999997e-05,-5.9999999999999995e-05,-4e-05,5e-05,0.00023999999999999998,-1e-05,-0.00011999999999999999,6
27870,28824,-7e-05,-2.9999999999999997e-05,-5.9999999999999995e-05,-4e-05,5e-05,0.00023999999999999998,-1e-05,-0.00011999999999999999,6
27871,28825,-7e-05,-2.9999999999999997e-05,-5.9999999999999995e-05,-4e-05,5e-05,0.00023999999999999998,-1e-05,-0.00011999999999999999,6
27872,28826,-7e-05,-2.9999999999999997e-05,-5.9999999999999995e-05,-4e-05,5e-05,0.00023999999999999998,-1e-05,-0.00011999999999999999,6
27873,28827,-7e-05,-2.9999999999999997e-05,-5.9999999999999995e-05,-4e-05,5e-05,0.00023999999999999998,-1e-05,-0.00011999999999999999,6
27874,28828,-7e-05,-2.9999999999999997e-05,-5.9999999999999995e-05,-4e-05,5e-05,0.00023999999999999998,-1e-05,-0.00011999999999999999,6
27875,28829,-7e-05,-2.9999999999999997e-05,-5.9999999999999995e-05,-4e-05,5e-05,0.00023999999999999998,-1e-05,-0.00011999999999999999,6
27876,28830,-7e-05,-2.9999999999999997e-05,-5.9999999999999995e-05,-4e-05,5e-05,0.00023999999999999998,-1e-05,-0.00011999999999999999,6
27877,28831,-7e-05,-2.9999999999999997e-05,-5.9999999999999995e-05,-4e-05,5e-05,0.00023999999999999998,-1e-05,-0.00011999999999999999,6
27878,28832,-7e-05,-2.9999999999999997e-05,-5.9999999999999995e-05,-4e-05,5e-05,0.00023999999999999998,-1e-05,-0.00011999999999999999,6
27879,28833,-7e-05,-2.9999999999999997e-05,-5.9999999999999995e-05,-4e-05,5e-05,0.00023999999999999998,-1e-05,-0.00011999999999999999,6
27880,28834,-7e-05,-2.9999999999999997e-05,-5.9999999999999995e-05,-4e-05,5e-05,0.00023999999999999998,-1e-05,-0.00011999999999999999,6
27881,28835,-7e-05,-2.9999999999999997e-05,-5.9999999999999995e-05,-4e-05,5e-05,0.00023999999999999998,-1e-05,-0.00011999999999999999,6
27882,28836,-7e-05,-2.9999999999999997e-05,-5.9999999999999995e-05,-4e-05,5e-05,0.00023999999999999998,-1e-05,-0.00011999999999999999,6
27883,28838,-7e-05,-2.9999999999999997e-05,-5.9999999999999995e-05,-4e-05,5e-05,0.00023999999999999998,-1e-05,-0.00011999999999999999,6
27884,28839,-7e-05,-2.9999999999999997e-05,-5.9999999999999995e-05,-4e-05,5e-05,0.00023999999999999998,-1e-05,-0.00011999999999999999,6
27885,28840,-7e-05,-2.9999999999999997e-05,-5.9999999999999995e-05,-4e-05,5e-05,0.00023999999999999998,-1e-05,-0.00011999999999999999,6
27886,28841,-7e-05,-2.9999999999999997e-05,-5.9999999999999995e-05,-4e-05,5e-05,0.00023999999999999998,-1e-05,-0.00011999999999999999,6
27887,28842,-7e-05,-2.9999999999999997e-05,-5.9999999999999995e-05,-4e-05,5e-05,0.00023999999999999998,-1e-05,-0.00011999999999999999,6
27888,28843,-7e-05,-2.9999999999999997e-05,-5.9999999999999995e-05,-4e-05,5e-05,0.00023999999999999998,-1e-05,-0.00011999999999999999,6
27889,28844,-7e-05,-2.9999999999999997e-05,-5.9999999999999995e-05,-4e-05,5e-05,0.00023999999999999998,-1e-05,-0.00011999999999999999,6
27890,28845,-5e-05,-2.9999999999999997e-05,-8e-05,-5e-05,-9e-05,-0.00041,2.9999999999999997e-05,-7e-05,6
27891,28846,7e-05,-1e-05,-8e-05,0.0,-0.00011999999999999999,-0.0003,0.00032,0.00021,6
27892,28847,7e-05,-1e-05,-8e-05,0.0,-0.00011999999999999999,-0.0003,0.00032,0.00021,6
27893,28848,7e-05,-1e-05,-8e-05,0.0,-0.00011999999999999999,-0.0003,0.00032,0.00021,6
27894,28849,7e-05,-1e-05,-8e-05,0.0,-0.00011999999999999999,-0.0003,0.00032,0.00021,6
27895,28850,7e-05,-1e-05,-8e-05,0.0,-0.00011999999999999999,-0.0003,0.00032,0.00021,6
27896,28851,7e-05,-1e-05,-8e-05,0.0,-0.00011999999999999999,-0.0003,0.00032,0.00021,6
27897,28852,7e-05,-1e-05,-8e-05,0.0,-0.00011999999999999999,-0.0003,0.00032,0.00021,6
27898,28853,7e-05,-1e-05,-8e-05,0.0,-0.00011999999999999999,-0.0003,0.00032,0.00021,6
27899,28854,7e-05,-1e-05,-8e-05,0.0,-0.00011999999999999999,-0.0003,0.00032,0.00021,6
27900,28855,7e-05,-1e-05,-8e-05,0.0,-0.00011999999999999999,-0.0003,0.00032,0.00021,6
27901,28856,7e-05,-1e-05,-8e-05,0.0,-0.00011999999999999999,-0.0003,0.00032,0.00021,6
27902,28857,7e-05,-1e-05,-8e-05,0.0,-0.00011999999999999999,-0.0003,0.00032,0.00021,6
27903,28858,7e-05,-1e-05,-8e-05,0.0,-0.00011999999999999999,-0.0003,0.00032,0.00021,6
27904,28859,-5e-05,-1e-05,5e-05,0.0,-0.00011999999999999999,-0.0003,-0.00011999999999999999,-0.00016999999999999999,6
27905,28860,1e-05,-1e-05,5.9999999999999995e-05,2.9999999999999997e-05,0.00015,0.0007599999999999999,1e-05,1e-05,6
27906,28861,1e-05,-1e-05,5.9999999999999995e-05,2.9999999999999997e-05,0.00015,0.0007599999999999999,1e-05,1e-05,6
27907,28862,1e-05,-1e-05,5.9999999999999995e-05,2.9999999999999997e-05,0.00015,0.0007599999999999999,1e-05,1e-05,6
27908,28863,1e-05,-1e-05,5.9999999999999995e-05,2.9999999999999997e-05,0.00015,0.0007599999999999999,1e-05,1e-05,6
27909,28864,1e-05,-1e-05,5.9999999999999995e-05,2.9999999999999997e-05,0.00015,0.0007599999999999999,1e-05,1e-05,6
27910,28865,1e-05,-1e-05,5.9999999999999995e-05,2.9999999999999997e-05,0.00015,0.0007599999999999999,1e-05,1e-05,6
27911,28866,1e-05,-1e-05,5.9999999999999995e-05,2.9999999999999997e-05,0.00015,0.0007599999999999999,1e-05,1e-05,6
27912,28867,0.0,-2.9999999999999997e-05,-2.9999999999999997e-05,-5e-05,-0.00013000000000000002,-0.0005,1e-05,8e-05,6
27913,28868,-1e-05,0.0,-8e-05,-5.9999999999999995e-05,-2.9999999999999997e-05,-0.0006,-0.00011999999999999999,-0.00047999999999999996,6
27914,28869,-1e-05,0.0,-8e-05,-5.9999999999999995e-05,-2.9999999999999997e-05,-0.0006,-0.00011999999999999999,-0.00047999999999999996,6
27915,28870,-1e-05,0.0,-8e-05,-5.9999999999999995e-05,-2.9999999999999997e-05,-0.0006,-0.00011999999999999999,-0.00047999999999999996,6
27916,28871,-1e-05,0.0,-8e-05,-5.9999999999999995e-05,-2.9999999999999997e-05,-0.0006,-0.00011999999999999999,-0.00047999999999999996,6
27917,28872,-1e-05,0.0,-8e-05,-5.9999999999999995e-05,-2.9999999999999997e-05,-0.0006,-0.00011999999999999999,-0.00047999999999999996,6
27918,28873,-1e-05,0.0,-8e-05,-5.9999999999999995e-05,-2.9999999999999997e-05,-0.0006,-0.00011999999999999999,-0.00047999999999999996,6
27919,28874,-1e-05,0.0,-8e-05,-5.9999999999999995e-05,-2.9999999999999997e-05,-0.0006,-0.00011999999999999999,-0.00047999999999999996,6
27920,28875,-1e-05,0.0,-8e-05,-5.9999999999999995e-05,-2.9999999999999997e-05,-0.0006,-0.00011999999999999999,-0.00047999999999999996,6
27921,28876,-1e-05,0.0,-8e-05,-5.9999999999999995e-05,-2.9999999999999997e-05,-0.0006,-0.00011999999999999999,-0.00047999999999999996,6
27922,28877,-1e-05,0.0,-8e-05,-5.9999999999999995e-05,-2.9999999999999997e-05,-0.0006,-0.00011999999999999999,-0.00047999999999999996,6
27923,28878,-1e-05,0.0,-8e-05,-5.9999999999999995e-05,-2.9999999999999997e-05,-0.0006,-0.00011999999999999999,-0.00047999999999999996,6
27924,28879,-1e-05,0.0,-8e-05,-5.9999999999999995e-05,-2.9999999999999997e-05,-0.0006,-0.00011999999999999999,-0.00047999999999999996,6
27925,28880,-1e-05,0.0,-8e-05,-5.9999999999999995e-05,-2.9999999999999997e-05,-0.0006,-0.00011999999999999999,-0.00047999999999999996,6
27926,28881,-1e-05,0.0,-8e-05,-5.9999999999999995e-05,-2.9999999999999997e-05,-0.0006,-0.00011999999999999999,-0.00047999999999999996,6
27927,28882,0.0,0.0,2.9999999999999997e-05,4e-05,0.00047999999999999996,-0.00057,-0.00025,-0.00011,6
27928,28883,-8e-05,-2e-05,-5.9999999999999995e-05,2.9999999999999997e-05,-5e-05,-8e-05,-2.9999999999999997e-05,-0.00025,6
27929,28884,-8e-05,-2e-05,-5.9999999999999995e-05,2.9999999999999997e-05,-5e-05,-8e-05,-2.9999999999999997e-05,-0.00025,6
27930,28885,-8e-05,-2e-05,-5.9999999999999995e-05,2.9999999999999997e-05,-5e-05,-8e-05,-2.9999999999999997e-05,-0.00025,6
27931,28886,-8e-05,-2e-05,-5.9999999999999995e-05,2.9999999999999997e-05,-5e-05,-8e-05,-2.9999999999999997e-05,-0.00025,6
27932,28888,-8e-05,-2e-05,-5.9999999999999995e-05,2.9999999999999997e-05,-5e-05,-8e-05,-2.9999999999999997e-05,-0.00025,6
27933,28889,-8e-05,-2e-05,-5.9999999999999995e-05,2.9999999999999997e-05,-5e-05,-8e-05,-2.9999999999999997e-05,-0.00025,6
27934,28890,-8e-05,-2e-05,-5.9999999999999995e-05,2.9999999999999997e-05,-5e-05,-8e-05,-2.9999999999999997e-05,-0.00025,6
27935,28891,-8e-05,-2e-05,-5.9999999999999995e-05,2.9999999999999997e-05,-5e-05,-8e-05,-2.9999999999999997e-05,-0.00025,6
27936,28892,-8e-05,-2e-05,-5.9999999999999995e-05,2.9999999999999997e-05,-5e-05,-8e-05,-2.9999999999999997e-05,-0.00025,6
27937,28893,-8e-05,-2e-05,-5.9999999999999995e-05,2.9999999999999997e-05,-5e-05,-8e-05,-2.9999999999999997e-05,-0.00025,6
27938,28894,-8e-05,-2e-05,-5.9999999999999995e-05,2.9999999999999997e-05,-5e-05,-8e-05,-2.9999999999999997e-05,-0.00025,6
27939,28895,-8e-05,-2e-05,-5.9999999999999995e-05,2.9999999999999997e-05,-5e-05,-8e-05,-2.9999999999999997e-05,-0.00025,6
27940,28896,-8e-05,-2e-05,-5.9999999999999995e-05,2.9999999999999997e-05,-5e-05,-8e-05,-2.9999999999999997e-05,-0.00025,6
27941,28897,-8e-05,-2e-05,-5.9999999999999995e-05,2.9999999999999997e-05,-5e-05,-8e-05,-2.9999999999999997e-05,-0.00025,6
27942,28898,-8e-05,-2e-05,-5.9999999999999995e-05,2.9999999999999997e-05,-5e-05,-8e-05,-2.9999999999999997e-05,-0.00025,6
27943,28899,-8e-05,-2e-05,-5.9999999999999995e-05,2.9999999999999997e-05,-5e-05,-8e-05,-2.9999999999999997e-05,-0.00025,6
27944,28900,-8e-05,-2e-05,-5.9999999999999995e-05,2.9999999999999997e-05,-5e-05,-8e-05,-2.9999999999999997e-05,-0.00025,6
27945,28901,-8e-05,-2e-05,-5.9999999999999995e-05,2.9999999999999997e-05,-5e-05,-8e-05,-2.9999999999999997e-05,-0.00025,6
27946,28902,-8e-05,-2e-05,-5.9999999999999995e-05,2.9999999999999997e-05,-5e-05,-8e-05,-2.9999999999999997e-05,-0.00025,6
27947,28903,-8e-05,-2e-05,-5.9999999999999995e-05,2.9999999999999997e-05,-5e-05,-8e-05,-2.9999999999999997e-05,-0.00025,6
27948,28904,-8e-05,-2e-05,-5.9999999999999995e-05,2.9999999999999997e-05,-5e-05,-8e-05,-2.9999999999999997e-05,-0.00025,6
27949,28905,2e-05,0.0,0.00014,-2.9999999999999997e-05,5.9999999999999995e-05,0.0,7e-05,0.00027,6
27950,28906,2e-05,0.0,0.00014,-2.9999999999999997e-05,5.9999999999999995e-05,0.0,7e-05,0.00027,6
27951,28907,2e-05,0.0,0.00014,-2.9999999999999997e-05,5.9999999999999995e-05,0.0,7e-05,0.00027,6
27952,28909,2e-05,0.0,0.00014,-2.9999999999999997e-05,5.9999999999999995e-05,0.0,7e-05,0.00027,6
27953,28910,2e-05,0.0,0.00014,-2.9999999999999997e-05,5.9999999999999995e-05,0.0,7e-05,0.00027,6
27954,28911,2e-05,0.0,0.00014,-2.9999999999999997e-05,5.9999999999999995e-05,0.0,7e-05,0.00027,6
27955,28912,2e-05,0.0,0.00014,-2.9999999999999997e-05,5.9999999999999995e-05,0.0,7e-05,0.00027,6
27956,28913,2e-05,0.0,0.00014,-2.9999999999999997e-05,5.9999999999999995e-05,0.0,7e-05,0.00027,6
27957,28914,2e-05,0.0,0.00014,-2.9999999999999997e-05,5.9999999999999995e-05,0.0,7e-05,0.00027,6
27958,28915,2e-05,0.0,0.00014,-2.9999999999999997e-05,5.9999999999999995e-05,0.0,7e-05,0.00027,6
27959,28916,2e-05,0.0,0.00014,-2.9999999999999997e-05,5.9999999999999995e-05,0.0,7e-05,0.00027,6
27960,28917,2e-05,0.0,0.00014,-2.9999999999999997e-05,5.9999999999999995e-05,0.0,7e-05,0.00027,6
27961,28918,2e-05,0.0,0.00014,-2.9999999999999997e-05,5.9999999999999995e-05,0.0,7e-05,0.00027,6
27962,28919,0.0,2e-05,-8e-05,-2e-05,-0.00025,-0.00039,0.00016,-0.00027,6
27963,28920,0.0,2e-05,-8e-05,-2e-05,-0.00025,-0.00039,0.00016,-0.00027,6
27964,28921,0.0,2e-05,-8e-05,-2e-05,-0.00025,-0.00039,0.00016,-0.00027,6
27965,28922,0.0,2e-05,-8e-05,-2e-05,-0.00025,-0.00039,0.00016,-0.00027,6
27966,28923,0.0,2e-05,-8e-05,-2e-05,-0.00025,-0.00039,0.00016,-0.00027,6
27967,28924,0.0,2e-05,-8e-05,-2e-05,-0.00025,-0.00039,0.00016,-0.00027,6
27968,28925,0.0,2e-05,-8e-05,-2e-05,-0.00025,-0.00039,0.00016,-0.00027,6
27969,28926,0.0,2e-05,-8e-05,-2e-05,-0.00025,-0.00039,0.00016,-0.00027,6
27970,28927,-2.9999999999999997e-05,-2.9999999999999997e-05,-0.00016,-5e-05,5.9999999999999995e-05,0.00016999999999999999,9e-05,8e-05,6
27971,28928,-2.9999999999999997e-05,-2.9999999999999997e-05,-0.00016,-5e-05,5.9999999999999995e-05,0.00016999999999999999,9e-05,8e-05,6
27972,28929,-2.9999999999999997e-05,-2.9999999999999997e-05,-0.00016,-5e-05,5.9999999999999995e-05,0.00016999999999999999,9e-05,8e-05,6
27973,28930,-2.9999999999999997e-05,-2.9999999999999997e-05,-0.00016,-5e-05,5.9999999999999995e-05,0.00016999999999999999,9e-05,8e-05,6
27974,28931,-2.9999999999999997e-05,-2.9999999999999997e-05,-0.00016,-5e-05,5.9999999999999995e-05,0.00016999999999999999,9e-05,8e-05,6
27975,28932,-2.9999999999999997e-05,-2.9999999999999997e-05,-0.00016,-5e-05,5.9999999999999995e-05,0.00016999999999999999,9e-05,8e-05,6
27976,28933,-2.9999999999999997e-05,-2.9999999999999997e-05,-0.00016,-5e-05,5.9999999999999995e-05,0.00016999999999999999,9e-05,8e-05,6
27977,28934,-2.9999999999999997e-05,-2.9999999999999997e-05,-0.00016,-5e-05,5.9999999999999995e-05,0.00016999999999999999,9e-05,8e-05,6
27978,28935,-2.9999999999999997e-05,-2.9999999999999997e-05,-0.00016,-5e-05,5.9999999999999995e-05,0.00016999999999999999,9e-05,8e-05,6
27979,28936,-2.9999999999999997e-05,-2.9999999999999997e-05,-0.00016,-5e-05,5.9999999999999995e-05,0.00016999999999999999,9e-05,8e-05,6
27980,28938,-2.9999999999999997e-05,-2.9999999999999997e-05,-0.00016,-5e-05,5.9999999999999995e-05,0.00016999999999999999,9e-05,8e-05,6
27981,28939,-2.9999999999999997e-05,-2.9999999999999997e-05,-0.00016,-5e-05,5.9999999999999995e-05,0.00016999999999999999,9e-05,8e-05,6
27982,28940,-2.9999999999999997e-05,-2.9999999999999997e-05,-0.00016,-5e-05,5.9999999999999995e-05,0.00016999999999999999,9e-05,8e-05,6
27983,28941,-2.9999999999999997e-05,-2.9999999999999997e-05,-0.00016,-5e-05,5.9999999999999995e-05,0.00016999999999999999,9e-05,8e-05,6
27984,28942,2e-05,-1e-05,-5e-05,-2e-05,0.0,0.00035,4e-05,9e-05,6
27985,28943,1e-05,-1e-05,-5.9999999999999995e-05,1e-05,-2.9999999999999997e-05,0.0006799999999999999,-7e-05,0.00022,6
27986,28944,1e-05,-1e-05,-5.9999999999999995e-05,1e-05,-2.9999999999999997e-05,0.0006799999999999999,-7e-05,0.00022,6
27987,28945,1e-05,-1e-05,-5.9999999999999995e-05,1e-05,-2.9999999999999997e-05,0.0006799999999999999,-7e-05,0.00022,6
27988,28946,1e-05,-1e-05,-5.9999999999999995e-05,1e-05,-2.9999999999999997e-05,0.0006799999999999999,-7e-05,0.00022,6
27989,28947,1e-05,-1e-05,-5.9999999999999995e-05,1e-05,-2.9999999999999997e-05,0.0006799999999999999,-7e-05,0.00022,6
27990,28948,1e-05,-1e-05,-5.9999999999999995e-05,1e-05,-2.9999999999999997e-05,0.0006799999999999999,-7e-05,0.00022,6
27991,28949,1e-05,-1e-05,-5.9999999999999995e-05,1e-05,-2.9999999999999997e-05,0.0006799999999999999,-7e-05,0.00022,6
27992,28950,1e-05,-1e-05,-5.9999999999999995e-05,1e-05,-2.9999999999999997e-05,0.0006799999999999999,-7e-05,0.00022,6
27993,28951,1e-05,-1e-05,-5.9999999999999995e-05,1e-05,-2.9999999999999997e-05,0.0006799999999999999,-7e-05,0.00022,6
27994,28952,1e-05,-1e-05,-5.9999999999999995e-05,1e-05,-2.9999999999999997e-05,0.0006799999999999999,-7e-05,0.00022,6
27995,28953,1e-05,-1e-05,-5.9999999999999995e-05,1e-05,-2.9999999999999997e-05,0.0006799999999999999,-7e-05,0.00022,6
27996,28954,1e-05,-1e-05,-5.9999999999999995e-05,1e-05,-2.9999999999999997e-05,0.0006799999999999999,-7e-05,0.00022,6
27997,28955,1e-05,-1e-05,-5.9999999999999995e-05,1e-05,-2.9999999999999997e-05,0.0006799999999999999,-7e-05,0.00022,6
27998,28956,1e-05,-1e-05,-5.9999999999999995e-05,1e-05,-2.9999999999999997e-05,0.0006799999999999999,-7e-05,0.00022,6
27999,28957,1e-05,-1e-05,-5.9999999999999995e-05,1e-05,-2.9999999999999997e-05,0.0006799999999999999,-7e-05,0.00022,6
28000,28958,1e-05,-1e-05,-5.9999999999999995e-05,1e-05,-2.9999999999999997e-05,0.0006799999999999999,-7e-05,0.00022,6
28001,28959,1e-05,-1e-05,-5.9999999999999995e-05,1e-05,-2.9999999999999997e-05,0.0006799999999999999,-7e-05,0.00022,6
28002,28960,1e-05,-1e-05,-5.9999999999999995e-05,1e-05,-2.9999999999999997e-05,0.0006799999999999999,-7e-05,0.00022,6
28003,28961,1e-05,-1e-05,-5.9999999999999995e-05,1e-05,-2.9999999999999997e-05,0.0006799999999999999,-7e-05,0.00022,6
28004,28962,1e-05,-1e-05,-5.9999999999999995e-05,1e-05,-2.9999999999999997e-05,0.0006799999999999999,-7e-05,0.00022,6
28005,28963,1e-05,-1e-05,-5.9999999999999995e-05,1e-05,-2.9999999999999997e-05,0.0006799999999999999,-7e-05,0.00022,6
28006,28964,1e-05,-1e-05,-5.9999999999999995e-05,1e-05,-2.9999999999999997e-05,0.0006799999999999999,-7e-05,0.00022,6
28007,28965,0.00013000000000000002,0.0,2.9999999999999997e-05,0.0,-0.00011999999999999999,-0.0009199999999999999,1e-05,0.00027,6
28008,28966,0.00013000000000000002,0.0,2.9999999999999997e-05,0.0,-0.00011999999999999999,-0.0009199999999999999,1e-05,0.00027,6
28009,28967,0.00013000000000000002,0.0,2.9999999999999997e-05,0.0,-0.00011999999999999999,-0.0009199999999999999,1e-05,0.00027,6
28010,28968,0.00013000000000000002,0.0,2.9999999999999997e-05,0.0,-0.00011999999999999999,-0.0009199999999999999,1e-05,0.00027,6
28011,28969,0.00013000000000000002,0.0,2.9999999999999997e-05,0.0,-0.00011999999999999999,-0.0009199999999999999,1e-05,0.00027,6
28012,28970,0.00013000000000000002,0.0,2.9999999999999997e-05,0.0,-0.00011999999999999999,-0.0009199999999999999,1e-05,0.00027,6
28013,28971,0.00013000000000000002,0.0,2.9999999999999997e-05,0.0,-0.00011999999999999999,-0.0009199999999999999,1e-05,0.00027,6
28014,28972,0.00013000000000000002,0.0,2.9999999999999997e-05,0.0,-0.00011999999999999999,-0.0009199999999999999,1e-05,0.00027,6
28015,28973,0.00013000000000000002,0.0,2.9999999999999997e-05,0.0,-0.00011999999999999999,-0.0009199999999999999,1e-05,0.00027,6
28016,28974,0.00013000000000000002,0.0,2.9999999999999997e-05,0.0,-0.00011999999999999999,-0.0009199999999999999,1e-05,0.00027,6
28017,28975,0.00013000000000000002,0.0,2.9999999999999997e-05,0.0,-0.00011999999999999999,-0.0009199999999999999,1e-05,0.00027,6
28018,28976,0.00013000000000000002,0.0,2.9999999999999997e-05,0.0,-0.00011999999999999999,-0.0009199999999999999,1e-05,0.00027,6
28019,28977,0.00013000000000000002,0.0,2.9999999999999997e-05,0.0,-0.00011999999999999999,-0.0009199999999999999,1e-05,0.00027,6
28020,28978,0.00013000000000000002,0.0,2.9999999999999997e-05,0.0,-0.00011999999999999999,-0.0009199999999999999,1e-05,0.00027,6
28021,28979,0.00013000000000000002,0.0,2.9999999999999997e-05,0.0,-0.00011999999999999999,-0.0009199999999999999,1e-05,0.00027,6
28022,28980,0.00013000000000000002,0.0,2.9999999999999997e-05,0.0,-0.00011999999999999999,-0.0009199999999999999,1e-05,0.00027,6
28023,28981,0.00013000000000000002,0.0,2.9999999999999997e-05,0.0,-0.00011999999999999999,-0.0009199999999999999,1e-05,0.00027,6
28024,28982,0.00013000000000000002,0.0,2.9999999999999997e-05,0.0,-0.00011999999999999999,-0.0009199999999999999,1e-05,0.00027,6
28025,28983,0.00013000000000000002,0.0,2.9999999999999997e-05,0.0,-0.00011999999999999999,-0.0009199999999999999,1e-05,0.00027,6
28026,28984,0.00013000000000000002,0.0,2.9999999999999997e-05,0.0,-0.00011999999999999999,-0.0009199999999999999,1e-05,0.00027,6
28027,28985,0.00013000000000000002,0.0,2.9999999999999997e-05,0.0,-0.00011999999999999999,-0.0009199999999999999,1e-05,0.00027,6
28028,28986,0.00013000000000000002,0.0,2.9999999999999997e-05,0.0,-0.00011999999999999999,-0.0009199999999999999,1e-05,0.00027,6
28029,28988,-0.00011,-5.9999999999999995e-05,-0.00011,-5e-05,-0.00014,0.00039,-1e-05,-0.00011,6
28030,28989,4e-05,-1e-05,-1e-05,0.0,8e-05,0.00036,9e-05,-0.00033,6
28031,28990,4e-05,-1e-05,-1e-05,0.0,8e-05,0.00036,9e-05,-0.00033,6
28032,28991,4e-05,-1e-05,-1e-05,0.0,8e-05,0.00036,9e-05,-0.00033,6
28033,28992,4e-05,-1e-05,-1e-05,0.0,8e-05,0.00036,9e-05,-0.00033,6
28034,28993,4e-05,-1e-05,-1e-05,0.0,8e-05,0.00036,9e-05,-0.00033,6
28035,28994,4e-05,-1e-05,-1e-05,0.0,8e-05,0.00036,9e-05,-0.00033,6
28036,28995,4e-05,-1e-05,-1e-05,0.0,8e-05,0.00036,9e-05,-0.00033,6
28037,28996,4e-05,-1e-05,-1e-05,0.0,8e-05,0.00036,9e-05,-0.00033,6
28038,28997,4e-05,-1e-05,-1e-05,0.0,8e-05,0.00036,9e-05,-0.00033,6
28039,28998,4e-05,-1e-05,-1e-05,0.0,8e-05,0.00036,9e-05,-0.00033,6
28040,28999,4e-05,-1e-05,-1e-05,0.0,8e-05,0.00036,9e-05,-0.00033,6
28041,29000,4e-05,-1e-05,-1e-05,0.0,8e-05,0.00036,9e-05,-0.00033,6
28042,29001,4e-05,-1e-05,-1e-05,0.0,8e-05,0.00036,9e-05,-0.00033,6
28043,29002,5.9999999999999995e-05,-1e-05,-5.9999999999999995e-05,1e-05,0.00013000000000000002,0.00082,0.0001,0.00016,6
28044,29003,-5.9999999999999995e-05,1e-05,0.0,2.9999999999999997e-05,9e-05,0.0002,-2e-05,-0.00021,6
28045,29004,-5.9999999999999995e-05,1e-05,0.0,2.9999999999999997e-05,9e-05,0.0002,-2e-05,-0.00021,6
28046,29005,-5.9999999999999995e-05,1e-05,0.0,2.9999999999999997e-05,9e-05,0.0002,-2e-05,-0.00021,6
28047,29006,-5.9999999999999995e-05,1e-05,0.0,2.9999999999999997e-05,9e-05,0.0002,-2e-05,-0.00021,6
28048,29007,-5.9999999999999995e-05,1e-05,0.0,2.9999999999999997e-05,9e-05,0.0002,-2e-05,-0.00021,6
28049,29008,-5.9999999999999995e-05,1e-05,0.0,2.9999999999999997e-05,9e-05,0.0002,-2e-05,-0.00021,6
28050,29009,-5.9999999999999995e-05,1e-05,0.0,2.9999999999999997e-05,9e-05,0.0002,-2e-05,-0.00021,6
28051,29010,-5.9999999999999995e-05,1e-05,0.0,2.9999999999999997e-05,9e-05,0.0002,-2e-05,-0.00021,6
28052,29011,-5.9999999999999995e-05,1e-05,0.0,2.9999999999999997e-05,9e-05,0.0002,-2e-05,-0.00021,6
28053,29012,-5.9999999999999995e-05,1e-05,0.0,2.9999999999999997e-05,9e-05,0.0002,-2e-05,-0.00021,6
28054,29013,-5.9999999999999995e-05,1e-05,0.0,2.9999999999999997e-05,9e-05,0.0002,-2e-05,-0.00021,6
28055,29014,-5.9999999999999995e-05,1e-05,0.0,2.9999999999999997e-05,9e-05,0.0002,-2e-05,-0.00021,6
28056,29015,-5.9999999999999995e-05,1e-05,0.0,2.9999999999999997e-05,9e-05,0.0002,-2e-05,-0.00021,6
28057,29016,-5.9999999999999995e-05,1e-05,0.0,2.9999999999999997e-05,9e-05,0.0002,-2e-05,-0.00021,6
28058,29017,-5.9999999999999995e-05,1e-05,0.0,2.9999999999999997e-05,9e-05,0.0002,-2e-05,-0.00021,6
28059,29018,-5.9999999999999995e-05,1e-05,0.0,2.9999999999999997e-05,9e-05,0.0002,-2e-05,-0.00021,6
28060,29019,-5.9999999999999995e-05,1e-05,0.0,2.9999999999999997e-05,9e-05,0.0002,-2e-05,-0.00021,6
28061,29020,-5.9999999999999995e-05,1e-05,0.0,2.9999999999999997e-05,9e-05,0.0002,-2e-05,-0.00021,6
28062,29021,-5.9999999999999995e-05,1e-05,0.0,2.9999999999999997e-05,9e-05,0.0002,-2e-05,-0.00021,6
28063,29022,-5.9999999999999995e-05,1e-05,0.0,2.9999999999999997e-05,9e-05,0.0002,-2e-05,-0.00021,6
28064,29023,-5.9999999999999995e-05,1e-05,0.0,2.9999999999999997e-05,9e-05,0.0002,-2e-05,-0.00021,6
28065,29024,-5.9999999999999995e-05,1e-05,0.0,2.9999999999999997e-05,9e-05,0.0002,-2e-05,-0.00021,6
28066,29025,2e-05,0.0,9e-05,2e-05,-0.00021,-0.00073,-0.00016,-7e-05,6
28067,29026,2e-05,0.0,9e-05,2e-05,-0.00021,-0.00073,-0.00016,-7e-05,6
28068,29027,2e-05,0.0,9e-05,2e-05,-0.00021,-0.00073,-0.00016,-7e-05,6
28069,29028,2e-05,0.0,9e-05,2e-05,-0.00021,-0.00073,-0.00016,-7e-05,6
28070,29029,2e-05,0.0,9e-05,2e-05,-0.00021,-0.00073,-0.00016,-7e-05,6
28071,29030,2e-05,0.0,9e-05,2e-05,-0.00021,-0.00073,-0.00016,-7e-05,6
28072,29031,2e-05,0.0,9e-05,2e-05,-0.00021,-0.00073,-0.00016,-7e-05,6
28073,29032,2e-05,0.0,9e-05,2e-05,-0.00021,-0.00073,-0.00016,-7e-05,6
28074,29033,2e-05,0.0,9e-05,2e-05,-0.00021,-0.00073,-0.00016,-7e-05,6
28075,29034,2e-05,0.0,9e-05,2e-05,-0.00021,-0.00073,-0.00016,-7e-05,6
28076,29035,2e-05,0.0,9e-05,2e-05,-0.00021,-0.00073,-0.00016,-7e-05,6
28077,29036,2e-05,0.0,9e-05,2e-05,-0.00021,-0.00073,-0.00016,-7e-05,6
28078,29038,2e-05,0.0,9e-05,2e-05,-0.00021,-0.00073,-0.00016,-7e-05,6
28079,29039,2e-05,0.0,9e-05,2e-05,-0.00021,-0.00073,-0.00016,-7e-05,6
28080,29040,2e-05,0.0,9e-05,2e-05,-0.00021,-0.00073,-0.00016,-7e-05,6
28081,29041,2e-05,0.0,9e-05,2e-05,-0.00021,-0.00073,-0.00016,-7e-05,6
28082,29042,2e-05,0.0,9e-05,2e-05,-0.00021,-0.00073,-0.00016,-7e-05,6
28083,29043,2e-05,0.0,9e-05,2e-05,-0.00021,-0.00073,-0.00016,-7e-05,6
28084,29044,2e-05,0.0,9e-05,2e-05,-0.00021,-0.00073,-0.00016,-7e-05,6
28085,29045,2e-05,0.0,9e-05,2e-05,-0.00021,-0.00073,-0.00016,-7e-05,6
28086,29046,2e-05,0.0,9e-05,2e-05,-0.00021,-0.00073,-0.00016,-7e-05,6
28087,29047,2e-05,0.0,9e-05,2e-05,-0.00021,-0.00073,-0.00016,-7e-05,6
28088,29048,8e-05,-2.9999999999999997e-05,-0.00049,-5e-05,-0.00016,-0.00013000000000000002,1e-05,0.00023999999999999998,6
28089,29049,-5.9999999999999995e-05,-2e-05,-0.00013000000000000002,-4e-05,0.00039,-0.00037,-5.9999999999999995e-05,0.00018999999999999998,6
28090,29050,-5.9999999999999995e-05,-2e-05,-0.00013000000000000002,-4e-05,0.00039,-0.00037,-5.9999999999999995e-05,0.00018999999999999998,6
28091,29051,-5.9999999999999995e-05,-2e-05,-0.00013000000000000002,-4e-05,0.00039,-0.00037,-5.9999999999999995e-05,0.00018999999999999998,6
28092,29052,-5.9999999999999995e-05,-2e-05,-0.00013000000000000002,-4e-05,0.00039,-0.00037,-5.9999999999999995e-05,0.00018999999999999998,6
28093,29053,-5.9999999999999995e-05,-2e-05,-0.00013000000000000002,-4e-05,0.00039,-0.00037,-5.9999999999999995e-05,0.00018999999999999998,6
28094,29054,-5.9999999999999995e-05,-2e-05,-0.00013000000000000002,-4e-05,0.00039,-0.00037,-5.9999999999999995e-05,0.00018999999999999998,6
28095,29055,-5.9999999999999995e-05,-2e-05,-0.00013000000000000002,-4e-05,0.00039,-0.00037,-5.9999999999999995e-05,0.00018999999999999998,6
28096,29056,-5.9999999999999995e-05,-2e-05,-0.00013000000000000002,-4e-05,0.00039,-0.00037,-5.9999999999999995e-05,0.00018999999999999998,6
28097,29057,-5.9999999999999995e-05,-2e-05,-0.00013000000000000002,-4e-05,0.00039,-0.00037,-5.9999999999999995e-05,0.00018999999999999998,6
28098,29058,-5.9999999999999995e-05,-2e-05,-0.00013000000000000002,-4e-05,0.00039,-0.00037,-5.9999999999999995e-05,0.00018999999999999998,6
28099,29059,-5.9999999999999995e-05,-2e-05,-0.00013000000000000002,-4e-05,0.00039,-0.00037,-5.9999999999999995e-05,0.00018999999999999998,6
28100,29060,-5.9999999999999995e-05,-2e-05,-0.00013000000000000002,-4e-05,0.00039,-0.00037,-5.9999999999999995e-05,0.00018999999999999998,6
28101,29061,-5.9999999999999995e-05,-2e-05,-0.00013000000000000002,-4e-05,0.00039,-0.00037,-5.9999999999999995e-05,0.00018999999999999998,6
28102,29062,-2e-05,4e-05,0.00013000000000000002,5e-05,0.00013000000000000002,-0.00032,8e-05,-2.9999999999999997e-05,6
28103,29063,-7e-05,-5e-05,-1e-05,-5.9999999999999995e-05,-0.00018999999999999998,-9e-05,-2.9999999999999997e-05,0.0002,6
28104,29064,-7e-05,-5e-05,-1e-05,-5.9999999999999995e-05,-0.00018999999999999998,-9e-05,-2.9999999999999997e-05,0.0002,6
28105,29065,-7e-05,-5e-05,-1e-05,-5.9999999999999995e-05,-0.00018999999999999998,-9e-05,-2.9999999999999997e-05,0.0002,6
28106,29066,-7e-05,-5e-05,-1e-05,-5.9999999999999995e-05,-0.00018999999999999998,-9e-05,-2.9999999999999997e-05,0.0002,6
28107,29067,-7e-05,-5e-05,-1e-05,-5.9999999999999995e-05,-0.00018999999999999998,-9e-05,-2.9999999999999997e-05,0.0002,6
28108,29068,-7e-05,-5e-05,-1e-05,-5.9999999999999995e-05,-0.00018999999999999998,-9e-05,-2.9999999999999997e-05,0.0002,6
28109,29069,-7e-05,-5e-05,-1e-05,-5.9999999999999995e-05,-0.00018999999999999998,-9e-05,-2.9999999999999997e-05,0.0002,6
28110,29070,-7e-05,-5e-05,-1e-05,-5.9999999999999995e-05,-0.00018999999999999998,-9e-05,-2.9999999999999997e-05,0.0002,6
28111,29071,-7e-05,-5e-05,-1e-05,-5.9999999999999995e-05,-0.00018999999999999998,-9e-05,-2.9999999999999997e-05,0.0002,6
28112,29072,-7e-05,-5e-05,-1e-05,-5.9999999999999995e-05,-0.00018999999999999998,-9e-05,-2.9999999999999997e-05,0.0002,6
28113,29073,-7e-05,-5e-05,-1e-05,-5.9999999999999995e-05,-0.00018999999999999998,-9e-05,-2.9999999999999997e-05,0.0002,6
28114,29074,-7e-05,-5e-05,-1e-05,-5.9999999999999995e-05,-0.00018999999999999998,-9e-05,-2.9999999999999997e-05,0.0002,6
28115,29075,-7e-05,-5e-05,-1e-05,-5.9999999999999995e-05,-0.00018999999999999998,-9e-05,-2.9999999999999997e-05,0.0002,6
28116,29076,-7e-05,-5e-05,-1e-05,-5.9999999999999995e-05,-0.00018999999999999998,-9e-05,-2.9999999999999997e-05,0.0002,6
28117,29077,-7e-05,-5e-05,-1e-05,-5.9999999999999995e-05,-0.00018999999999999998,-9e-05,-2.9999999999999997e-05,0.0002,6
28118,29078,-7e-05,-5e-05,-1e-05,-5.9999999999999995e-05,-0.00018999999999999998,-9e-05,-2.9999999999999997e-05,0.0002,6
28119,29079,-7e-05,-5e-05,-1e-05,-5.9999999999999995e-05,-0.00018999999999999998,-9e-05,-2.9999999999999997e-05,0.0002,6
28120,29080,-7e-05,-5e-05,-1e-05,-5.9999999999999995e-05,-0.00018999999999999998,-9e-05,-2.9999999999999997e-05,0.0002,6
28121,29081,-7e-05,-5e-05,-1e-05,-5.9999999999999995e-05,-0.00018999999999999998,-9e-05,-2.9999999999999997e-05,0.0002,6
28122,29082,-7e-05,-5e-05,-1e-05,-5.9999999999999995e-05,-0.00018999999999999998,-9e-05,-2.9999999999999997e-05,0.0002,6
28123,29083,-7e-05,-5e-05,-1e-05,-5.9999999999999995e-05,-0.00018999999999999998,-9e-05,-2.9999999999999997e-05,0.0002,6
28124,29084,-7e-05,-5e-05,-1e-05,-5.9999999999999995e-05,-0.00018999999999999998,-9e-05,-2.9999999999999997e-05,0.0002,6
28125,29085,-2.9999999999999997e-05,1e-05,7e-05,1e-05,-0.00047000000000000004,-0.00067,0.00021,0.00075,6
28126,29086,-2.9999999999999997e-05,1e-05,7e-05,1e-05,-0.00047000000000000004,-0.00067,0.00021,0.00075,6
28127,29088,-2.9999999999999997e-05,1e-05,7e-05,1e-05,-0.00047000000000000004,-0.00067,0.00021,0.00075,6
28128,29089,-2.9999999999999997e-05,1e-05,7e-05,1e-05,-0.00047000000000000004,-0.00067,0.00021,0.00075,6
28129,29090,-2.9999999999999997e-05,1e-05,7e-05,1e-05,-0.00047000000000000004,-0.00067,0.00021,0.00075,6
28130,29091,-2.9999999999999997e-05,1e-05,7e-05,1e-05,-0.00047000000000000004,-0.00067,0.00021,0.00075,6
28131,29092,-2.9999999999999997e-05,1e-05,7e-05,1e-05,-0.00047000000000000004,-0.00067,0.00021,0.00075,6
28132,29093,-2.9999999999999997e-05,1e-05,7e-05,1e-05,-0.00047000000000000004,-0.00067,0.00021,0.00075,6
28133,29094,-2.9999999999999997e-05,1e-05,7e-05,1e-05,-0.00047000000000000004,-0.00067,0.00021,0.00075,6
28134,29095,-2.9999999999999997e-05,1e-05,7e-05,1e-05,-0.00047000000000000004,-0.00067,0.00021,0.00075,6
28135,29096,-2.9999999999999997e-05,1e-05,7e-05,1e-05,-0.00047000000000000004,-0.00067,0.00021,0.00075,6
28136,29097,-2.9999999999999997e-05,1e-05,7e-05,1e-05,-0.00047000000000000004,-0.00067,0.00021,0.00075,6
28137,29098,-2.9999999999999997e-05,1e-05,7e-05,1e-05,-0.00047000000000000004,-0.00067,0.00021,0.00075,6
28138,29099,-2.9999999999999997e-05,1e-05,7e-05,1e-05,-0.00047000000000000004,-0.00067,0.00021,0.00075,6
28139,29100,-2.9999999999999997e-05,1e-05,7e-05,1e-05,-0.00047000000000000004,-0.00067,0.00021,0.00075,6
28140,29101,-2.9999999999999997e-05,1e-05,7e-05,1e-05,-0.00047000000000000004,-0.00067,0.00021,0.00075,6
28141,29102,-2.9999999999999997e-05,1e-05,7e-05,1e-05,-0.00047000000000000004,-0.00067,0.00021,0.00075,6
28142,29103,-2.9999999999999997e-05,1e-05,7e-05,1e-05,-0.00047000000000000004,-0.00067,0.00021,0.00075,6
28143,29104,-2.9999999999999997e-05,1e-05,7e-05,1e-05,-0.00047000000000000004,-0.00067,0.00021,0.00075,6
28144,29105,-2.9999999999999997e-05,1e-05,7e-05,1e-05,-0.00047000000000000004,-0.00067,0.00021,0.00075,6
28145,29106,-2.9999999999999997e-05,1e-05,7e-05,1e-05,-0.00047000000000000004,-0.00067,0.00021,0.00075,6
28146,29107,-2.9999999999999997e-05,1e-05,7e-05,1e-05,-0.00047000000000000004,-0.00067,0.00021,0.00075,6
28147,29108,2.9999999999999997e-05,2e-05,4e-05,1e-05,-1e-05,0.00033,-9e-05,-4e-05,6
28148,29109,-1e-05,1e-05,9e-05,5e-05,0.00018,-0.00033,0.00011999999999999999,-0.00014,6
28149,29110,-2e-05,-2.9999999999999997e-05,-0.0001,-4e-05,8e-05,0.00044,-5.9999999999999995e-05,-0.00015,6
28150,29112,-2e-05,-2.9999999999999997e-05,-0.0001,-4e-05,8e-05,0.00044,-5.9999999999999995e-05,-0.00015,6
28151,29113,-2e-05,-2.9999999999999997e-05,-0.0001,-4e-05,8e-05,0.00044,-5.9999999999999995e-05,-0.00015,6
28152,29114,-2e-05,-2.9999999999999997e-05,-0.0001,-4e-05,8e-05,0.00044,-5.9999999999999995e-05,-0.00015,6
28153,29115,-2e-05,-2.9999999999999997e-05,-0.0001,-4e-05,8e-05,0.00044,-5.9999999999999995e-05,-0.00015,6
28154,29116,-2e-05,-2.9999999999999997e-05,-0.0001,-4e-05,8e-05,0.00044,-5.9999999999999995e-05,-0.00015,6
28155,29117,-2e-05,-2.9999999999999997e-05,-0.0001,-4e-05,8e-05,0.00044,-5.9999999999999995e-05,-0.00015,6
28156,29118,-2e-05,-2.9999999999999997e-05,-0.0001,-4e-05,8e-05,0.00044,-5.9999999999999995e-05,-0.00015,6
28157,29119,-2e-05,-2.9999999999999997e-05,-0.0001,-4e-05,8e-05,0.00044,-5.9999999999999995e-05,-0.00015,6
28158,29120,-2e-05,-2.9999999999999997e-05,-0.0001,-4e-05,8e-05,0.00044,-5.9999999999999995e-05,-0.00015,6
28159,29121,-2e-05,-2.9999999999999997e-05,-0.0001,-4e-05,8e-05,0.00044,-5.9999999999999995e-05,-0.00015,6
28160,29122,2.9999999999999997e-05,-2e-05,0.00011,-4e-05,4e-05,0.00042,2e-05,0.00058,6
28161,29123,2.9999999999999997e-05,0.0,-5.9999999999999995e-05,1e-05,0.00016,0.00039,-0.00014,0.00023999999999999998,6
28162,29124,2.9999999999999997e-05,0.0,-5.9999999999999995e-05,1e-05,0.00016,0.00039,-0.00014,0.00023999999999999998,6
28163,29125,2.9999999999999997e-05,0.0,-5.9999999999999995e-05,1e-05,0.00016,0.00039,-0.00014,0.00023999999999999998,6
28164,29126,2.9999999999999997e-05,0.0,-5.9999999999999995e-05,1e-05,0.00016,0.00039,-0.00014,0.00023999999999999998,6
28165,29127,2.9999999999999997e-05,0.0,-5.9999999999999995e-05,1e-05,0.00016,0.00039,-0.00014,0.00023999999999999998,6
28166,29128,2.9999999999999997e-05,0.0,-5.9999999999999995e-05,1e-05,0.00016,0.00039,-0.00014,0.00023999999999999998,6
28167,29129,2.9999999999999997e-05,0.0,-5.9999999999999995e-05,1e-05,0.00016,0.00039,-0.00014,0.00023999999999999998,6
28168,29130,2.9999999999999997e-05,0.0,-5.9999999999999995e-05,1e-05,0.00016,0.00039,-0.00014,0.00023999999999999998,6
28169,29131,2.9999999999999997e-05,0.0,-5.9999999999999995e-05,1e-05,0.00016,0.00039,-0.00014,0.00023999999999999998,6
28170,29132,2.9999999999999997e-05,0.0,-5.9999999999999995e-05,1e-05,0.00016,0.00039,-0.00014,0.00023999999999999998,6
28171,29133,2.9999999999999997e-05,0.0,-5.9999999999999995e-05,1e-05,0.00016,0.00039,-0.00014,0.00023999999999999998,6
28172,29134,2.9999999999999997e-05,0.0,-5.9999999999999995e-05,1e-05,0.00016,0.00039,-0.00014,0.00023999999999999998,6
28173,29135,2.9999999999999997e-05,0.0,-5.9999999999999995e-05,1e-05,0.00016,0.00039,-0.00014,0.00023999999999999998,6
28174,29136,2.9999999999999997e-05,0.0,-5.9999999999999995e-05,1e-05,0.00016,0.00039,-0.00014,0.00023999999999999998,6
28175,29138,2.9999999999999997e-05,0.0,-5.9999999999999995e-05,1e-05,0.00016,0.00039,-0.00014,0.00023999999999999998,6
28176,29139,2.9999999999999997e-05,0.0,-5.9999999999999995e-05,1e-05,0.00016,0.00039,-0.00014,0.00023999999999999998,6
28177,29140,2.9999999999999997e-05,0.0,-5.9999999999999995e-05,1e-05,0.00016,0.00039,-0.00014,0.00023999999999999998,6
28178,29141,2.9999999999999997e-05,0.0,-5.9999999999999995e-05,1e-05,0.00016,0.00039,-0.00014,0.00023999999999999998,6
28179,29142,2.9999999999999997e-05,0.0,-5.9999999999999995e-05,1e-05,0.00016,0.00039,-0.00014,0.00023999999999999998,6
28180,29143,2.9999999999999997e-05,0.0,-5.9999999999999995e-05,1e-05,0.00016,0.00039,-0.00014,0.00023999999999999998,6
28181,29144,2.9999999999999997e-05,0.0,-5.9999999999999995e-05,1e-05,0.00016,0.00039,-0.00014,0.00023999999999999998,6
28182,29145,0.0,-2e-05,-0.00025,1e-05,-0.00022999999999999998,0.0001,-9e-05,-0.0002,6
28183,29146,0.0,-2e-05,-0.00025,1e-05,-0.00022999999999999998,0.0001,-9e-05,-0.0002,6
28184,29147,0.0,-2e-05,-0.00025,1e-05,-0.00022999999999999998,0.0001,-9e-05,-0.0002,6
28185,29148,0.0,-2e-05,-0.00025,1e-05,-0.00022999999999999998,0.0001,-9e-05,-0.0002,6
28186,29149,0.0,-2e-05,-0.00025,1e-05,-0.00022999999999999998,0.0001,-9e-05,-0.0002,6
28187,29150,0.0,-2e-05,-0.00025,1e-05,-0.00022999999999999998,0.0001,-9e-05,-0.0002,6
28188,29151,0.0,-2e-05,-0.00025,1e-05,-0.00022999999999999998,0.0001,-9e-05,-0.0002,6
28189,29152,0.0,-2e-05,-0.00025,1e-05,-0.00022999999999999998,0.0001,-9e-05,-0.0002,6
28190,29153,0.0,-2e-05,-0.00025,1e-05,-0.00022999999999999998,0.0001,-9e-05,-0.0002,6
28191,29154,0.0,-2e-05,-0.00025,1e-05,-0.00022999999999999998,0.0001,-9e-05,-0.0002,6
28192,29155,0.0,-2e-05,-0.00025,1e-05,-0.00022999999999999998,0.0001,-9e-05,-0.0002,6
28193,29156,0.0,-2e-05,-0.00025,1e-05,-0.00022999999999999998,0.0001,-9e-05,-0.0002,6
28194,29157,0.0,-2e-05,-0.00025,1e-05,-0.00022999999999999998,0.0001,-9e-05,-0.0002,6
28195,29158,0.0,-2e-05,-0.00025,1e-05,-0.00022999999999999998,0.0001,-9e-05,-0.0002,6
28196,29159,0.0,-2e-05,-0.00025,1e-05,-0.00022999999999999998,0.0001,-9e-05,-0.0002,6
28197,29160,0.0,-2e-05,-0.00025,1e-05,-0.00022999999999999998,0.0001,-9e-05,-0.0002,6
28198,29161,0.0,-2e-05,-0.00025,1e-05,-0.00022999999999999998,0.0001,-9e-05,-0.0002,6
28199,29162,0.0,-2e-05,-0.00025,1e-05,-0.00022999999999999998,0.0001,-9e-05,-0.0002,6
28200,29163,0.0,-2e-05,-0.00025,1e-05,-0.00022999999999999998,0.0001,-9e-05,-0.0002,6
28201,29164,0.0,-2e-05,-0.00025,1e-05,-0.00022999999999999998,0.0001,-9e-05,-0.0002,6
28202,29165,0.0,-2e-05,-0.00025,1e-05,-0.00022999999999999998,0.0001,-9e-05,-0.0002,6
28203,29166,0.0,-2e-05,-0.00025,1e-05,-0.00022999999999999998,0.0001,-9e-05,-0.0002,6
28204,29167,0.0,-2e-05,-0.00025,1e-05,-0.00022999999999999998,0.0001,-9e-05,-0.0002,6
28205,29168,7e-05,0.0,-7e-05,-2e-05,-2.9999999999999997e-05,0.00022,5.9999999999999995e-05,0.0005200000000000001,6
28206,29169,-2e-05,2e-05,7e-05,2.9999999999999997e-05,0.00025,0.0012,0.00014,-9e-05,6
28207,29170,-2e-05,2e-05,7e-05,2.9999999999999997e-05,0.00025,0.0012,0.00014,-9e-05,6
28208,29171,-2e-05,2e-05,7e-05,2.9999999999999997e-05,0.00025,0.0012,0.00014,-9e-05,6
28209,29172,-2e-05,2e-05,7e-05,2.9999999999999997e-05,0.00025,0.0012,0.00014,-9e-05,6
28210,29173,-2e-05,2e-05,7e-05,2.9999999999999997e-05,0.00025,0.0012,0.00014,-9e-05,6
28211,29174,-2e-05,2e-05,7e-05,2.9999999999999997e-05,0.00025,0.0012,0.00014,-9e-05,6
28212,29175,-2e-05,2e-05,7e-05,2.9999999999999997e-05,0.00025,0.0012,0.00014,-9e-05,6
28213,29176,-2e-05,2e-05,7e-05,2.9999999999999997e-05,0.00025,0.0012,0.00014,-9e-05,6
28214,29177,-2e-05,2e-05,7e-05,2.9999999999999997e-05,0.00025,0.0012,0.00014,-9e-05,6
28215,29178,-2e-05,2e-05,7e-05,2.9999999999999997e-05,0.00025,0.0012,0.00014,-9e-05,6
28216,29179,-2e-05,2e-05,7e-05,2.9999999999999997e-05,0.00025,0.0012,0.00014,-9e-05,6
28217,29180,-2e-05,2e-05,7e-05,2.9999999999999997e-05,0.00025,0.0012,0.00014,-9e-05,6
28218,29181,-2e-05,2e-05,7e-05,2.9999999999999997e-05,0.00025,0.0012,0.00014,-9e-05,6
28219,29182,-5e-05,0.0,7e-05,-2.9999999999999997e-05,-0.0001,-4e-05,-0.00016,-0.00023999999999999998,6
28220,29183,-0.0002,-5e-05,2.9999999999999997e-05,-5.9999999999999995e-05,4e-05,-0.0004,-0.0002,-0.00013000000000000002,6
28221,29184,-0.0002,-5e-05,2.9999999999999997e-05,-5.9999999999999995e-05,4e-05,-0.0004,-0.0002,-0.00013000000000000002,6
28222,29185,-0.0002,-5e-05,2.9999999999999997e-05,-5.9999999999999995e-05,4e-05,-0.0004,-0.0002,-0.00013000000000000002,6
28223,29186,-0.0002,-5e-05,2.9999999999999997e-05,-5.9999999999999995e-05,4e-05,-0.0004,-0.0002,-0.00013000000000000002,6
28224,29188,-0.0002,-5e-05,2.9999999999999997e-05,-5.9999999999999995e-05,4e-05,-0.0004,-0.0002,-0.00013000000000000002,6
28225,29189,-0.0002,-5e-05,2.9999999999999997e-05,-5.9999999999999995e-05,4e-05,-0.0004,-0.0002,-0.00013000000000000002,6
28226,29190,-0.0002,-5e-05,2.9999999999999997e-05,-5.9999999999999995e-05,4e-05,-0.0004,-0.0002,-0.00013000000000000002,6
28227,29191,-0.0002,-5e-05,2.9999999999999997e-05,-5.9999999999999995e-05,4e-05,-0.0004,-0.0002,-0.00013000000000000002,6
28228,29192,-0.0002,-5e-05,2.9999999999999997e-05,-5.9999999999999995e-05,4e-05,-0.0004,-0.0002,-0.00013000000000000002,6
28229,29193,-0.0002,-5e-05,2.9999999999999997e-05,-5.9999999999999995e-05,4e-05,-0.0004,-0.0002,-0.00013000000000000002,6
28230,29194,-0.0002,-5e-05,2.9999999999999997e-05,-5.9999999999999995e-05,4e-05,-0.0004,-0.0002,-0.00013000000000000002,6
28231,29195,-0.0002,-5e-05,2.9999999999999997e-05,-5.9999999999999995e-05,4e-05,-0.0004,-0.0002,-0.00013000000000000002,6
28232,29196,-0.0002,-5e-05,2.9999999999999997e-05,-5.9999999999999995e-05,4e-05,-0.0004,-0.0002,-0.00013000000000000002,6
28233,29197,-0.0002,-5e-05,2.9999999999999997e-05,-5.9999999999999995e-05,4e-05,-0.0004,-0.0002,-0.00013000000000000002,6
28234,29198,-0.0002,-5e-05,2.9999999999999997e-05,-5.9999999999999995e-05,4e-05,-0.0004,-0.0002,-0.00013000000000000002,6
28235,29199,-0.0002,-5e-05,2.9999999999999997e-05,-5.9999999999999995e-05,4e-05,-0.0004,-0.0002,-0.00013000000000000002,6
28236,29200,-0.0002,-5e-05,2.9999999999999997e-05,-5.9999999999999995e-05,4e-05,-0.0004,-0.0002,-0.00013000000000000002,6
28237,29201,-0.0002,-5e-05,2.9999999999999997e-05,-5.9999999999999995e-05,4e-05,-0.0004,-0.0002,-0.00013000000000000002,6
28238,29202,-0.0002,-5e-05,2.9999999999999997e-05,-5.9999999999999995e-05,4e-05,-0.0004,-0.0002,-0.00013000000000000002,6
28239,29203,-0.0002,-5e-05,2.9999999999999997e-05,-5.9999999999999995e-05,4e-05,-0.0004,-0.0002,-0.00013000000000000002,6
28240,29204,-0.0002,-5e-05,2.9999999999999997e-05,-5.9999999999999995e-05,4e-05,-0.0004,-0.0002,-0.00013000000000000002,6
28241,29205,2.9999999999999997e-05,2e-05,-2e-05,2e-05,0.00016,0.00072,-5.9999999999999995e-05,-0.0005,6
28242,29206,0.0,-4e-05,-5e-05,-4e-05,-1e-05,0.0001,-7e-05,-0.00033,6
28243,29207,0.0,-4e-05,-5e-05,-4e-05,-1e-05,0.0001,-7e-05,-0.00033,6
28244,29208,0.0,-4e-05,-5e-05,-4e-05,-1e-05,0.0001,-7e-05,-0.00033,6
28245,29209,0.0,-4e-05,-5e-05,-4e-05,-1e-05,0.0001,-7e-05,-0.00033,6
28246,29210,0.0,-4e-05,-5e-05,-4e-05,-1e-05,0.0001,-7e-05,-0.00033,6
28247,29211,0.0,-4e-05,-5e-05,-4e-05,-1e-05,0.0001,-7e-05,-0.00033,6
28248,29212,0.0,-4e-05,-5e-05,-4e-05,-1e-05,0.0001,-7e-05,-0.00033,6
28249,29213,0.0,-4e-05,-5e-05,-4e-05,-1e-05,0.0001,-7e-05,-0.00033,6
28250,29214,0.0,-4e-05,-5e-05,-4e-05,-1e-05,0.0001,-7e-05,-0.00033,6
28251,29215,0.0,-4e-05,-5e-05,-4e-05,-1e-05,0.0001,-7e-05,-0.00033,6
28252,29216,0.0,-4e-05,-5e-05,-4e-05,-1e-05,0.0001,-7e-05,-0.00033,6
28253,29217,0.0,-4e-05,-5e-05,-4e-05,-1e-05,0.0001,-7e-05,-0.00033,6
28254,29218,0.0,-4e-05,-5e-05,-4e-05,-1e-05,0.0001,-7e-05,-0.00033,6
28255,29219,0.0,-4e-05,-5e-05,-4e-05,-1e-05,0.0001,-7e-05,-0.00033,6
28256,29220,0.0,-4e-05,-5e-05,-4e-05,-1e-05,0.0001,-7e-05,-0.00033,6
28257,29221,0.0,-4e-05,-5e-05,-4e-05,-1e-05,0.0001,-7e-05,-0.00033,6
28258,29222,0.0,-4e-05,-5e-05,-4e-05,-1e-05,0.0001,-7e-05,-0.00033,6
28259,29223,0.0,-4e-05,-5e-05,-4e-05,-1e-05,0.0001,-7e-05,-0.00033,6
28260,29224,0.0,-4e-05,-5e-05,-4e-05,-1e-05,0.0001,-7e-05,-0.00033,6
28261,29225,0.0,-4e-05,-5e-05,-4e-05,-1e-05,0.0001,-7e-05,-0.00033,6
28262,29226,0.0,-4e-05,-5e-05,-4e-05,-1e-05,0.0001,-7e-05,-0.00033,6
28263,29227,2e-05,1e-05,-7e-05,-2.9999999999999997e-05,-0.00014,-0.00028,-0.00011999999999999999,-0.00031,6
28264,29228,2e-05,1e-05,-7e-05,-2.9999999999999997e-05,-0.00014,-0.00028,-0.00011999999999999999,-0.00031,6
28265,29229,2e-05,1e-05,-7e-05,-2.9999999999999997e-05,-0.00014,-0.00028,-0.00011999999999999999,-0.00031,6
28266,29230,2e-05,1e-05,-7e-05,-2.9999999999999997e-05,-0.00014,-0.00028,-0.00011999999999999999,-0.00031,6
28267,29231,2e-05,1e-05,-7e-05,-2.9999999999999997e-05,-0.00014,-0.00028,-0.00011999999999999999,-0.00031,6
28268,29232,2e-05,1e-05,-7e-05,-2.9999999999999997e-05,-0.00014,-0.00028,-0.00011999999999999999,-0.00031,6
28269,29233,2e-05,1e-05,-7e-05,-2.9999999999999997e-05,-0.00014,-0.00028,-0.00011999999999999999,-0.00031,6
28270,29234,2e-05,1e-05,-7e-05,-2.9999999999999997e-05,-0.00014,-0.00028,-0.00011999999999999999,-0.00031,6
28271,29235,8e-05,2.9999999999999997e-05,5e-05,2.9999999999999997e-05,0.0006900000000000001,0.0008300000000000001,0.00027,0.00021,6
28272,29236,8e-05,2.9999999999999997e-05,5e-05,2.9999999999999997e-05,0.0006900000000000001,0.0008300000000000001,0.00027,0.00021,6
28273,29238,8e-05,2.9999999999999997e-05,5e-05,2.9999999999999997e-05,0.0006900000000000001,0.0008300000000000001,0.00027,0.00021,6
28274,29239,8e-05,2.9999999999999997e-05,5e-05,2.9999999999999997e-05,0.0006900000000000001,0.0008300000000000001,0.00027,0.00021,6
28275,29240,8e-05,2.9999999999999997e-05,5e-05,2.9999999999999997e-05,0.0006900000000000001,0.0008300000000000001,0.00027,0.00021,6
28276,29241,8e-05,2.9999999999999997e-05,5e-05,2.9999999999999997e-05,0.0006900000000000001,0.0008300000000000001,0.00027,0.00021,6
28277,29242,8e-05,2.9999999999999997e-05,5e-05,2.9999999999999997e-05,0.0006900000000000001,0.0008300000000000001,0.00027,0.00021,6
28278,29243,2.9999999999999997e-05,1e-05,4e-05,2e-05,7e-05,-0.0002,-8e-05,-0.00058,6
28279,29244,-9e-05,-1e-05,7e-05,1e-05,2.9999999999999997e-05,-0.0009400000000000001,-0.00016,-0.00032,6
28280,29245,-9e-05,-1e-05,7e-05,1e-05,2.9999999999999997e-05,-0.0009400000000000001,-0.00016,-0.00032,6
28281,29246,-9e-05,-1e-05,7e-05,1e-05,2.9999999999999997e-05,-0.0009400000000000001,-0.00016,-0.00032,6
28282,29247,-9e-05,-1e-05,7e-05,1e-05,2.9999999999999997e-05,-0.0009400000000000001,-0.00016,-0.00032,6
28283,29248,-9e-05,-1e-05,7e-05,1e-05,2.9999999999999997e-05,-0.0009400000000000001,-0.00016,-0.00032,6
28284,29249,-9e-05,-1e-05,7e-05,1e-05,2.9999999999999997e-05,-0.0009400000000000001,-0.00016,-0.00032,6
28285,29250,-9e-05,-1e-05,7e-05,1e-05,2.9999999999999997e-05,-0.0009400000000000001,-0.00016,-0.00032,6
28286,29251,-9e-05,-1e-05,7e-05,1e-05,2.9999999999999997e-05,-0.0009400000000000001,-0.00016,-0.00032,6
28287,29252,-9e-05,-1e-05,7e-05,1e-05,2.9999999999999997e-05,-0.0009400000000000001,-0.00016,-0.00032,6
28288,29253,-9e-05,-1e-05,7e-05,1e-05,2.9999999999999997e-05,-0.0009400000000000001,-0.00016,-0.00032,6
28289,29254,-9e-05,-1e-05,7e-05,1e-05,2.9999999999999997e-05,-0.0009400000000000001,-0.00016,-0.00032,6
28290,29255,-9e-05,-1e-05,7e-05,1e-05,2.9999999999999997e-05,-0.0009400000000000001,-0.00016,-0.00032,6
28291,29256,-9e-05,-1e-05,7e-05,1e-05,2.9999999999999997e-05,-0.0009400000000000001,-0.00016,-0.00032,6
28292,29257,-9e-05,-1e-05,7e-05,1e-05,2.9999999999999997e-05,-0.0009400000000000001,-0.00016,-0.00032,6
28293,29258,-9e-05,-1e-05,7e-05,1e-05,2.9999999999999997e-05,-0.0009400000000000001,-0.00016,-0.00032,6
28294,29259,-9e-05,-1e-05,7e-05,1e-05,2.9999999999999997e-05,-0.0009400000000000001,-0.00016,-0.00032,6
28295,29260,-9e-05,-1e-05,7e-05,1e-05,2.9999999999999997e-05,-0.0009400000000000001,-0.00016,-0.00032,6
28296,29261,-9e-05,-1e-05,7e-05,1e-05,2.9999999999999997e-05,-0.0009400000000000001,-0.00016,-0.00032,6
28297,29262,-9e-05,-1e-05,7e-05,1e-05,2.9999999999999997e-05,-0.0009400000000000001,-0.00016,-0.00032,6
28298,29263,-9e-05,-1e-05,7e-05,1e-05,2.9999999999999997e-05,-0.0009400000000000001,-0.00016,-0.00032,6
28299,29264,-1e-05,0.0,-2e-05,2e-05,-0.00013000000000000002,0.00014,0.00016999999999999999,0.00022999999999999998,6
28300,29265,-5e-05,-2e-05,1e-05,-1e-05,-0.00018,-0.00112,-0.00011,-8e-05,6
28301,29266,0.0,-2e-05,-2e-05,-5.9999999999999995e-05,-7e-05,0.00045,-0.00011,0.00016,6
28302,29267,0.0,-2e-05,-2e-05,-5.9999999999999995e-05,-7e-05,0.00045,-0.00011,0.00016,6
28303,29268,0.0,-2e-05,-2e-05,-5.9999999999999995e-05,-7e-05,0.00045,-0.00011,0.00016,6
28304,29269,0.0,-2e-05,-2e-05,-5.9999999999999995e-05,-7e-05,0.00045,-0.00011,0.00016,6
28305,29270,0.0,-2e-05,-2e-05,-5.9999999999999995e-05,-7e-05,0.00045,-0.00011,0.00016,6
28306,29271,0.0,-2e-05,-2e-05,-5.9999999999999995e-05,-7e-05,0.00045,-0.00011,0.00016,6
28307,29272,0.0,-2e-05,-2e-05,-5.9999999999999995e-05,-7e-05,0.00045,-0.00011,0.00016,6
28308,29273,0.0,-2e-05,-2e-05,-5.9999999999999995e-05,-7e-05,0.00045,-0.00011,0.00016,6
28309,29274,0.0,-2e-05,-2e-05,-5.9999999999999995e-05,-7e-05,0.00045,-0.00011,0.00016,6
28310,29275,0.0,-2e-05,-2e-05,-5.9999999999999995e-05,-7e-05,0.00045,-0.00011,0.00016,6
28311,29276,0.0,-2e-05,-2e-05,-5.9999999999999995e-05,-7e-05,0.00045,-0.00011,0.00016,6
28312,29277,0.0,-2e-05,-2e-05,-5.9999999999999995e-05,-7e-05,0.00045,-0.00011,0.00016,6
28313,29278,0.0,-2e-05,-2e-05,-5.9999999999999995e-05,-7e-05,0.00045,-0.00011,0.00016,6
28314,29279,0.0,-2e-05,-2e-05,-5.9999999999999995e-05,-7e-05,0.00045,-0.00011,0.00016,6
28315,29280,0.0,-2e-05,-2e-05,-5.9999999999999995e-05,-7e-05,0.00045,-0.00011,0.00016,6
28316,29281,0.0,-2e-05,-2e-05,-5.9999999999999995e-05,-7e-05,0.00045,-0.00011,0.00016,6
28317,29282,0.0,-2e-05,-2e-05,-5.9999999999999995e-05,-7e-05,0.00045,-0.00011,0.00016,6
28318,29283,0.0,-2e-05,-2e-05,-5.9999999999999995e-05,-7e-05,0.00045,-0.00011,0.00016,6
28319,29284,0.0,-2e-05,-2e-05,-5.9999999999999995e-05,-7e-05,0.00045,-0.00011,0.00016,6
28320,29285,0.0,-2e-05,-2e-05,-5.9999999999999995e-05,-7e-05,0.00045,-0.00011,0.00016,6
28321,29286,0.0,-2e-05,-2e-05,-5.9999999999999995e-05,-7e-05,0.00045,-0.00011,0.00016,6
28322,29289,0.00013000000000000002,1e-05,0.00011999999999999999,-1e-05,-0.00026000000000000003,-0.00085,-5.9999999999999995e-05,0.00011999999999999999,6
28323,29290,0.00013000000000000002,1e-05,0.00011999999999999999,-1e-05,-0.00026000000000000003,-0.00085,-5.9999999999999995e-05,0.00011999999999999999,6
28324,29292,0.00013000000000000002,1e-05,0.00011999999999999999,-1e-05,-0.00026000000000000003,-0.00085,-5.9999999999999995e-05,0.00011999999999999999,6
28325,29293,0.00013000000000000002,1e-05,0.00011999999999999999,-1e-05,-0.00026000000000000003,-0.00085,-5.9999999999999995e-05,0.00011999999999999999,6
28326,29294,0.00013000000000000002,1e-05,0.00011999999999999999,-1e-05,-0.00026000000000000003,-0.00085,-5.9999999999999995e-05,0.00011999999999999999,6
28327,29295,0.00013000000000000002,1e-05,0.00011999999999999999,-1e-05,-0.00026000000000000003,-0.00085,-5.9999999999999995e-05,0.00011999999999999999,6
28328,29296,0.00013000000000000002,1e-05,0.00011999999999999999,-1e-05,-0.00026000000000000003,-0.00085,-5.9999999999999995e-05,0.00011999999999999999,6
28329,29297,0.00013000000000000002,1e-05,0.00011999999999999999,-1e-05,-0.00026000000000000003,-0.00085,-5.9999999999999995e-05,0.00011999999999999999,6
28330,29298,0.00013000000000000002,1e-05,0.00011999999999999999,-1e-05,-0.00026000000000000003,-0.00085,-5.9999999999999995e-05,0.00011999999999999999,6
28331,29299,0.00013000000000000002,1e-05,0.00011999999999999999,-1e-05,-0.00026000000000000003,-0.00085,-5.9999999999999995e-05,0.00011999999999999999,6
28332,29300,0.00013000000000000002,1e-05,0.00011999999999999999,-1e-05,-0.00026000000000000003,-0.00085,-5.9999999999999995e-05,0.00011999999999999999,6
28333,29301,0.00013000000000000002,1e-05,0.00011999999999999999,-1e-05,-0.00026000000000000003,-0.00085,-5.9999999999999995e-05,0.00011999999999999999,6
28334,29302,0.00013000000000000002,1e-05,0.00011999999999999999,-1e-05,-0.00026000000000000003,-0.00085,-5.9999999999999995e-05,0.00011999999999999999,6
28335,29303,-7e-05,-2e-05,-7e-05,0.0,-0.00026000000000000003,-0.0002,-1e-05,-0.00037999999999999997,6
28336,29304,-7e-05,-2e-05,-7e-05,0.0,-0.00026000000000000003,-0.0002,-1e-05,-0.00037999999999999997,6
28337,29305,-7e-05,-2e-05,-7e-05,0.0,-0.00026000000000000003,-0.0002,-1e-05,-0.00037999999999999997,6
28338,29306,-7e-05,-2e-05,-7e-05,0.0,-0.00026000000000000003,-0.0002,-1e-05,-0.00037999999999999997,6
28339,29307,-7e-05,-2e-05,-7e-05,0.0,-0.00026000000000000003,-0.0002,-1e-05,-0.00037999999999999997,6
28340,29308,-7e-05,-2e-05,-7e-05,0.0,-0.00026000000000000003,-0.0002,-1e-05,-0.00037999999999999997,6
28341,29309,-7e-05,-2e-05,-7e-05,0.0,-0.00026000000000000003,-0.0002,-1e-05,-0.00037999999999999997,6
28342,29310,-7e-05,-2e-05,-7e-05,0.0,-0.00026000000000000003,-0.0002,-1e-05,-0.00037999999999999997,6
28343,29311,-7e-05,-2e-05,-7e-05,0.0,-0.00026000000000000003,-0.0002,-1e-05,-0.00037999999999999997,6
28344,29312,-7e-05,-2e-05,-7e-05,0.0,-0.00026000000000000003,-0.0002,-1e-05,-0.00037999999999999997,6
28345,29313,-7e-05,-2e-05,-7e-05,0.0,-0.00026000000000000003,-0.0002,-1e-05,-0.00037999999999999997,6
28346,29314,-7e-05,-2e-05,-7e-05,0.0,-0.00026000000000000003,-0.0002,-1e-05,-0.00037999999999999997,6
28347,29315,-7e-05,-2e-05,-7e-05,0.0,-0.00026000000000000003,-0.0002,-1e-05,-0.00037999999999999997,6
28348,29316,-7e-05,-2e-05,-7e-05,0.0,-0.00026000000000000003,-0.0002,-1e-05,-0.00037999999999999997,6
28349,29317,-7e-05,-2e-05,-7e-05,0.0,-0.00026000000000000003,-0.0002,-1e-05,-0.00037999999999999997,6
28350,29318,-7e-05,-2e-05,-7e-05,0.0,-0.00026000000000000003,-0.0002,-1e-05,-0.00037999999999999997,6
28351,29319,-7e-05,-2e-05,-7e-05,0.0,-0.00026000000000000003,-0.0002,-1e-05,-0.00037999999999999997,6
28352,29320,-7e-05,-2e-05,-7e-05,0.0,-0.00026000000000000003,-0.0002,-1e-05,-0.00037999999999999997,6
28353,29321,-7e-05,-2e-05,-7e-05,0.0,-0.00026000000000000003,-0.0002,-1e-05,-0.00037999999999999997,6
28354,29322,-7e-05,-2e-05,-7e-05,0.0,-0.00026000000000000003,-0.0002,-1e-05,-0.00037999999999999997,6
28355,29323,-7e-05,-2e-05,-7e-05,0.0,-0.00026000000000000003,-0.0002,-1e-05,-0.00037999999999999997,6
28356,29324,-7e-05,-2e-05,-7e-05,0.0,-0.00026000000000000003,-0.0002,-1e-05,-0.00037999999999999997,6
28357,29325,0.00044,1e-05,-5e-05,1e-05,2e-05,0.00016,-5e-05,8e-05,6
28358,29326,0.00044,1e-05,-5e-05,1e-05,2e-05,0.00016,-5e-05,8e-05,6
28359,29327,0.00044,1e-05,-5e-05,1e-05,2e-05,0.00016,-5e-05,8e-05,6
28360,29328,0.00044,1e-05,-5e-05,1e-05,2e-05,0.00016,-5e-05,8e-05,6
28361,29329,0.00044,1e-05,-5e-05,1e-05,2e-05,0.00016,-5e-05,8e-05,6
28362,29330,0.00044,1e-05,-5e-05,1e-05,2e-05,0.00016,-5e-05,8e-05,6
28363,29331,0.00044,1e-05,-5e-05,1e-05,2e-05,0.00016,-5e-05,8e-05,6
28364,29332,0.00044,1e-05,-5e-05,1e-05,2e-05,0.00016,-5e-05,8e-05,6
28365,29333,0.00044,1e-05,-5e-05,1e-05,2e-05,0.00016,-5e-05,8e-05,6
28366,29334,0.00044,1e-05,-5e-05,1e-05,2e-05,0.00016,-5e-05,8e-05,6
28367,29335,0.00044,1e-05,-5e-05,1e-05,2e-05,0.00016,-5e-05,8e-05,6
28368,29336,0.00044,1e-05,-5e-05,1e-05,2e-05,0.00016,-5e-05,8e-05,6
28369,29338,0.00044,1e-05,-5e-05,1e-05,2e-05,0.00016,-5e-05,8e-05,6
28370,29339,0.00044,1e-05,-5e-05,1e-05,2e-05,0.00016,-5e-05,8e-05,6
28371,29340,0.00044,1e-05,-5e-05,1e-05,2e-05,0.00016,-5e-05,8e-05,6
28372,29341,0.00044,1e-05,-5e-05,1e-05,2e-05,0.00016,-5e-05,8e-05,6
28373,29342,0.00044,1e-05,-5e-05,1e-05,2e-05,0.00016,-5e-05,8e-05,6
28374,29343,0.00044,1e-05,-5e-05,1e-05,2e-05,0.00016,-5e-05,8e-05,6
28375,29344,0.00044,1e-05,-5e-05,1e-05,2e-05,0.00016,-5e-05,8e-05,6
28376,29345,0.00044,1e-05,-5e-05,1e-05,2e-05,0.00016,-5e-05,8e-05,6
28377,29346,0.00044,1e-05,-5e-05,1e-05,2e-05,0.00016,-5e-05,8e-05,6
28378,29347,0.00044,1e-05,-5e-05,1e-05,2e-05,0.00016,-5e-05,8e-05,6
28379,29348,-4e-05,-2.9999999999999997e-05,-0.00018,-5e-05,2e-05,-5e-05,-8e-05,0.00029,6
28380,29349,2.9999999999999997e-05,0.0,7e-05,2e-05,5.9999999999999995e-05,5.9999999999999995e-05,-1e-05,0.0006,6
28381,29350,2.9999999999999997e-05,0.0,7e-05,2e-05,5.9999999999999995e-05,5.9999999999999995e-05,-1e-05,0.0006,6
28382,29351,2.9999999999999997e-05,0.0,7e-05,2e-05,5.9999999999999995e-05,5.9999999999999995e-05,-1e-05,0.0006,6
28383,29352,2.9999999999999997e-05,0.0,7e-05,2e-05,5.9999999999999995e-05,5.9999999999999995e-05,-1e-05,0.0006,6
28384,29353,2.9999999999999997e-05,0.0,7e-05,2e-05,5.9999999999999995e-05,5.9999999999999995e-05,-1e-05,0.0006,6
28385,29354,2.9999999999999997e-05,0.0,7e-05,2e-05,5.9999999999999995e-05,5.9999999999999995e-05,-1e-05,0.0006,6
