,time,channel1,channel2,channel3,channel4,channel5,channel6,channel7,channel8,class
30282,31591,2e-05,-1e-05,-2e-05,-5.9999999999999995e-05,4e-05,-0.00074,-0.00036,0.00044,6
30283,31592,2e-05,-1e-05,-2e-05,-5.9999999999999995e-05,4e-05,-0.00074,-0.00036,0.00044,6
30284,31593,0.00027,7e-05,5.9999999999999995e-05,2e-05,2e-05,0.00054,0.00011,-0.00033999999999999997,6
30285,31594,0.0,-2e-05,2.9999999999999997e-05,0.00014,0.00021,0.00027,-5.9999999999999995e-05,0.00045,6
30286,31595,5e-05,1e-05,-2.9999999999999997e-05,-0.00011999999999999999,-0.00022,-0.00067,0.00018,-0.00018999999999999998,6
30287,31596,5e-05,1e-05,-2.9999999999999997e-05,-0.00011999999999999999,-0.00022,-0.00067,0.00018,-0.00018999999999999998,6
30288,31597,5e-05,1e-05,-2.9999999999999997e-05,-0.00011999999999999999,-0.00022,-0.00067,0.00018,-0.00018999999999999998,6
30289,31598,5e-05,1e-05,-2.9999999999999997e-05,-0.00011999999999999999,-0.00022,-0.00067,0.00018,-0.00018999999999999998,6
30290,31599,5e-05,1e-05,-2.9999999999999997e-05,-0.00011999999999999999,-0.00022,-0.00067,0.00018,-0.00018999999999999998,6
30291,31600,5e-05,1e-05,-2.9999999999999997e-05,-0.00011999999999999999,-0.00022,-0.00067,0.00018,-0.00018999999999999998,6
30292,31601,5e-05,1e-05,-2.9999999999999997e-05,-0.00011999999999999999,-0.00022,-0.00067,0.00018,-0.00018999999999999998,6
30293,31602,5e-05,1e-05,-2.9999999999999997e-05,-0.00011999999999999999,-0.00022,-0.00067,0.00018,-0.00018999999999999998,6
30294,31603,5e-05,1e-05,-2.9999999999999997e-05,-0.00011999999999999999,-0.00022,-0.00067,0.00018,-0.00018999999999999998,6
30295,31604,5e-05,1e-05,-2.9999999999999997e-05,-0.00011999999999999999,-0.00022,-0.00067,0.00018,-0.00018999999999999998,6
30296,31605,5e-05,1e-05,-2.9999999999999997e-05,-0.00011999999999999999,-0.00022,-0.00067,0.00018,-0.00018999999999999998,6
30297,31606,5e-05,1e-05,-2.9999999999999997e-05,-0.00011999999999999999,-0.00022,-0.00067,0.00018,-0.00018999999999999998,6
30298,31607,5e-05,1e-05,-2.9999999999999997e-05,-0.00011999999999999999,-0.00022,-0.00067,0.00018,-0.00018999999999999998,6
30299,31608,5e-05,1e-05,-2.9999999999999997e-05,-0.00011999999999999999,-0.00022,-0.00067,0.00018,-0.00018999999999999998,6
30300,31609,5e-05,1e-05,-2.9999999999999997e-05,-0.00011999999999999999,-0.00022,-0.00067,0.00018,-0.00018999999999999998,6
30301,31610,5e-05,1e-05,-2.9999999999999997e-05,-0.00011999999999999999,-0.00022,-0.00067,0.00018,-0.00018999999999999998,6
30302,31611,5e-05,1e-05,-2.9999999999999997e-05,-0.00011999999999999999,-0.00022,-0.00067,0.00018,-0.00018999999999999998,6
30303,31612,5e-05,1e-05,-2.9999999999999997e-05,-0.00011999999999999999,-0.00022,-0.00067,0.00018,-0.00018999999999999998,6
30304,31613,5e-05,1e-05,-2.9999999999999997e-05,-0.00011999999999999999,-0.00022,-0.00067,0.00018,-0.00018999999999999998,6
30305,31614,5e-05,1e-05,-2.9999999999999997e-05,-0.00011999999999999999,-0.00022,-0.00067,0.00018,-0.00018999999999999998,6
30306,31615,-7e-05,-7e-05,-8e-05,-0.00011,-0.00022,-0.00033,-0.0001,0.0,6
30307,31616,-0.00025,-9e-05,-0.00014,-8e-05,9e-05,-0.0005,-5.9999999999999995e-05,-0.00066,6
30308,31617,5.9999999999999995e-05,9e-05,0.0001,2.9999999999999997e-05,0.00013000000000000002,0.00044,0.00014,0.00031,6
30309,31618,5.9999999999999995e-05,9e-05,0.0001,2.9999999999999997e-05,0.00013000000000000002,0.00044,0.00014,0.00031,6
30310,31619,5.9999999999999995e-05,9e-05,0.0001,2.9999999999999997e-05,0.00013000000000000002,0.00044,0.00014,0.00031,6
30311,31620,5.9999999999999995e-05,9e-05,0.0001,2.9999999999999997e-05,0.00013000000000000002,0.00044,0.00014,0.00031,6
30312,31621,5.9999999999999995e-05,9e-05,0.0001,2.9999999999999997e-05,0.00013000000000000002,0.00044,0.00014,0.00031,6
30313,31622,5.9999999999999995e-05,9e-05,0.0001,2.9999999999999997e-05,0.00013000000000000002,0.00044,0.00014,0.00031,6
30314,31623,5.9999999999999995e-05,9e-05,0.0001,2.9999999999999997e-05,0.00013000000000000002,0.00044,0.00014,0.00031,6
30315,31624,5.9999999999999995e-05,9e-05,0.0001,2.9999999999999997e-05,0.00013000000000000002,0.00044,0.00014,0.00031,6
30316,31625,5.9999999999999995e-05,9e-05,0.0001,2.9999999999999997e-05,0.00013000000000000002,0.00044,0.00014,0.00031,6
30317,31626,5.9999999999999995e-05,9e-05,0.0001,2.9999999999999997e-05,0.00013000000000000002,0.00044,0.00014,0.00031,6
30318,31627,5.9999999999999995e-05,9e-05,0.0001,2.9999999999999997e-05,0.00013000000000000002,0.00044,0.00014,0.00031,6
30319,31628,5.9999999999999995e-05,9e-05,0.0001,2.9999999999999997e-05,0.00013000000000000002,0.00044,0.00014,0.00031,6
30320,31629,5.9999999999999995e-05,9e-05,0.0001,2.9999999999999997e-05,0.00013000000000000002,0.00044,0.00014,0.00031,6
30321,31630,5.9999999999999995e-05,9e-05,0.0001,2.9999999999999997e-05,0.00013000000000000002,0.00044,0.00014,0.00031,6
30322,31631,5.9999999999999995e-05,9e-05,0.0001,2.9999999999999997e-05,0.00013000000000000002,0.00044,0.00014,0.00031,6
30323,31632,5.9999999999999995e-05,9e-05,0.0001,2.9999999999999997e-05,0.00013000000000000002,0.00044,0.00014,0.00031,6
30324,31633,5.9999999999999995e-05,9e-05,0.0001,2.9999999999999997e-05,0.00013000000000000002,0.00044,0.00014,0.00031,6
30325,31634,5.9999999999999995e-05,9e-05,0.0001,2.9999999999999997e-05,0.00013000000000000002,0.00044,0.00014,0.00031,6
30326,31635,5.9999999999999995e-05,9e-05,0.0001,2.9999999999999997e-05,0.00013000000000000002,0.00044,0.00014,0.00031,6
30327,31636,5.9999999999999995e-05,9e-05,0.0001,2.9999999999999997e-05,0.00013000000000000002,0.00044,0.00014,0.00031,6
30328,31638,5.9999999999999995e-05,9e-05,0.0001,2.9999999999999997e-05,0.00013000000000000002,0.00044,0.00014,0.00031,6
30329,31640,5.9999999999999995e-05,9e-05,0.0001,2.9999999999999997e-05,0.00013000000000000002,0.00044,0.00014,0.00031,6
30330,31641,5.9999999999999995e-05,9e-05,0.0001,2.9999999999999997e-05,0.00013000000000000002,0.00044,0.00014,0.00031,6
30331,31642,5.9999999999999995e-05,9e-05,0.0001,2.9999999999999997e-05,0.00013000000000000002,0.00044,0.00014,0.00031,6
30332,31643,5.9999999999999995e-05,9e-05,0.0001,2.9999999999999997e-05,0.00013000000000000002,0.00044,0.00014,0.00031,6
30333,31644,-9e-05,-1e-05,2e-05,8e-05,0.00025,0.0006900000000000001,-5e-05,-9e-05,6
30334,31645,-9e-05,-1e-05,2e-05,8e-05,0.00025,0.0006900000000000001,-5e-05,-9e-05,6
30335,31646,-0.00031,-1e-05,5.9999999999999995e-05,0.00011999999999999999,0.00039,0.00029,9e-05,-5e-05,6
30336,31647,-0.00031,-1e-05,5.9999999999999995e-05,0.00011999999999999999,0.00039,0.00029,9e-05,-5e-05,6
30337,31648,-0.00031,-1e-05,5.9999999999999995e-05,0.00011999999999999999,0.00039,0.00029,9e-05,-5e-05,6
30338,31649,-0.00031,-1e-05,5.9999999999999995e-05,0.00011999999999999999,0.00039,0.00029,9e-05,-5e-05,6
30339,31650,-0.00031,-1e-05,5.9999999999999995e-05,0.00011999999999999999,0.00039,0.00029,9e-05,-5e-05,6
30340,31651,-0.00031,-1e-05,5.9999999999999995e-05,0.00011999999999999999,0.00039,0.00029,9e-05,-5e-05,6
30341,31652,-0.00031,-1e-05,5.9999999999999995e-05,0.00011999999999999999,0.00039,0.00029,9e-05,-5e-05,6
30342,31653,-0.00031,-1e-05,5.9999999999999995e-05,0.00011999999999999999,0.00039,0.00029,9e-05,-5e-05,6
30343,31654,-0.00031,-1e-05,5.9999999999999995e-05,0.00011999999999999999,0.00039,0.00029,9e-05,-5e-05,6
30344,31655,-0.00031,-1e-05,5.9999999999999995e-05,0.00011999999999999999,0.00039,0.00029,9e-05,-5e-05,6
30345,31656,-0.00031,-1e-05,5.9999999999999995e-05,0.00011999999999999999,0.00039,0.00029,9e-05,-5e-05,6
30346,31657,-0.00031,-1e-05,5.9999999999999995e-05,0.00011999999999999999,0.00039,0.00029,9e-05,-5e-05,6
30347,31658,-0.00031,-1e-05,5.9999999999999995e-05,0.00011999999999999999,0.00039,0.00029,9e-05,-5e-05,6
30348,31659,-0.00031,-1e-05,5.9999999999999995e-05,0.00011999999999999999,0.00039,0.00029,9e-05,-5e-05,6
30349,31660,-0.00031,-1e-05,5.9999999999999995e-05,0.00011999999999999999,0.00039,0.00029,9e-05,-5e-05,6
30350,31661,-0.00031,-1e-05,5.9999999999999995e-05,0.00011999999999999999,0.00039,0.00029,9e-05,-5e-05,6
30351,31662,-0.00031,-1e-05,5.9999999999999995e-05,0.00011999999999999999,0.00039,0.00029,9e-05,-5e-05,6
30352,31663,-0.00031,-1e-05,5.9999999999999995e-05,0.00011999999999999999,0.00039,0.00029,9e-05,-5e-05,6
30353,31664,-0.00031,-1e-05,5.9999999999999995e-05,0.00011999999999999999,0.00039,0.00029,9e-05,-5e-05,6
30354,31665,-0.00031,-1e-05,5.9999999999999995e-05,0.00011999999999999999,0.00039,0.00029,9e-05,-5e-05,6
30355,31666,-0.00031,-1e-05,5.9999999999999995e-05,0.00011999999999999999,0.00039,0.00029,9e-05,-5e-05,6
30356,31667,0.0001,2e-05,0.0,-4e-05,-0.00054,-8e-05,0.0,0.00037,6
30357,31668,2e-05,5e-05,-2e-05,-8e-05,0.0,0.00028,-0.00016999999999999999,-0.00041,6
30358,31669,2e-05,5e-05,-2e-05,-8e-05,0.0,0.00028,-0.00016999999999999999,-0.00041,6
30359,31670,2e-05,5e-05,-2e-05,-8e-05,0.0,0.00028,-0.00016999999999999999,-0.00041,6
30360,31671,2e-05,5e-05,-2e-05,-8e-05,0.0,0.00028,-0.00016999999999999999,-0.00041,6
30361,31672,2e-05,5e-05,-2e-05,-8e-05,0.0,0.00028,-0.00016999999999999999,-0.00041,6
30362,31673,2e-05,5e-05,-2e-05,-8e-05,0.0,0.00028,-0.00016999999999999999,-0.00041,6
30363,31674,-0.00018,-0.00011,-5e-05,-7e-05,-0.00021,-4e-05,0.00011,-0.00018,6
30364,31675,-0.00018,-0.00011,-5e-05,-7e-05,-0.00021,-4e-05,0.00011,-0.00018,6
30365,31676,0.00018999999999999998,0.00011,5e-05,8e-05,0.00016999999999999999,0.00018999999999999998,0.0009199999999999999,-0.00018999999999999998,6
30366,31677,0.00018999999999999998,0.00011,5e-05,8e-05,0.00016999999999999999,0.00018999999999999998,0.0009199999999999999,-0.00018999999999999998,6
30367,31678,0.00018999999999999998,0.00011,5e-05,8e-05,0.00016999999999999999,0.00018999999999999998,0.0009199999999999999,-0.00018999999999999998,6
30368,31679,0.00018999999999999998,0.00011,5e-05,8e-05,0.00016999999999999999,0.00018999999999999998,0.0009199999999999999,-0.00018999999999999998,6
30369,31680,0.00018999999999999998,0.00011,5e-05,8e-05,0.00016999999999999999,0.00018999999999999998,0.0009199999999999999,-0.00018999999999999998,6
30370,31681,0.00018999999999999998,0.00011,5e-05,8e-05,0.00016999999999999999,0.00018999999999999998,0.0009199999999999999,-0.00018999999999999998,6
30371,31682,0.00018999999999999998,0.00011,5e-05,8e-05,0.00016999999999999999,0.00018999999999999998,0.0009199999999999999,-0.00018999999999999998,6
30372,31683,0.00018999999999999998,0.00011,5e-05,8e-05,0.00016999999999999999,0.00018999999999999998,0.0009199999999999999,-0.00018999999999999998,6
30373,31684,0.00018999999999999998,0.00011,5e-05,8e-05,0.00016999999999999999,0.00018999999999999998,0.0009199999999999999,-0.00018999999999999998,6
30374,31685,0.00018999999999999998,0.00011,5e-05,8e-05,0.00016999999999999999,0.00018999999999999998,0.0009199999999999999,-0.00018999999999999998,6
30375,31686,0.00018999999999999998,0.00011,5e-05,8e-05,0.00016999999999999999,0.00018999999999999998,0.0009199999999999999,-0.00018999999999999998,6
30376,31689,0.00022,2.9999999999999997e-05,1e-05,0.00018999999999999998,0.0001,0.00025,0.00011999999999999999,0.00065,6
30377,31690,0.00022,2.9999999999999997e-05,1e-05,0.00018999999999999998,0.0001,0.00025,0.00011999999999999999,0.00065,6
30378,31691,0.00022,2.9999999999999997e-05,1e-05,0.00018999999999999998,0.0001,0.00025,0.00011999999999999999,0.00065,6
30379,31692,0.00022,2.9999999999999997e-05,1e-05,0.00018999999999999998,0.0001,0.00025,0.00011999999999999999,0.00065,6
30380,31693,0.00022,2.9999999999999997e-05,1e-05,0.00018999999999999998,0.0001,0.00025,0.00011999999999999999,0.00065,6
30381,31694,0.00022,2.9999999999999997e-05,1e-05,0.00018999999999999998,0.0001,0.00025,0.00011999999999999999,0.00065,6
30382,31695,-2.9999999999999997e-05,2e-05,1e-05,-0.0001,-0.00036,-0.00049,-2.9999999999999997e-05,2e-05,6
30383,31696,-0.00011,0.0,-2.9999999999999997e-05,-8e-05,-0.00022999999999999998,-0.00037999999999999997,-7e-05,-0.00025,6
30384,31697,-0.00011,0.0,-2.9999999999999997e-05,-8e-05,-0.00022999999999999998,-0.00037999999999999997,-7e-05,-0.00025,6
30385,31698,-0.00011,0.0,-2.9999999999999997e-05,-8e-05,-0.00022999999999999998,-0.00037999999999999997,-7e-05,-0.00025,6
30386,31699,-0.00011,0.0,-2.9999999999999997e-05,-8e-05,-0.00022999999999999998,-0.00037999999999999997,-7e-05,-0.00025,6
30387,31700,-0.00011,0.0,-2.9999999999999997e-05,-8e-05,-0.00022999999999999998,-0.00037999999999999997,-7e-05,-0.00025,6
30388,31701,-0.00011,0.0,-2.9999999999999997e-05,-8e-05,-0.00022999999999999998,-0.00037999999999999997,-7e-05,-0.00025,6
30389,31702,-0.00011,0.0,-2.9999999999999997e-05,-8e-05,-0.00022999999999999998,-0.00037999999999999997,-7e-05,-0.00025,6
30390,31703,-0.00011,0.0,-2.9999999999999997e-05,-8e-05,-0.00022999999999999998,-0.00037999999999999997,-7e-05,-0.00025,6
30391,31704,-0.00011,0.0,-2.9999999999999997e-05,-8e-05,-0.00022999999999999998,-0.00037999999999999997,-7e-05,-0.00025,6
30392,31705,-0.00011,0.0,-2.9999999999999997e-05,-8e-05,-0.00022999999999999998,-0.00037999999999999997,-7e-05,-0.00025,6
30393,31706,-0.00011,0.0,-2.9999999999999997e-05,-8e-05,-0.00022999999999999998,-0.00037999999999999997,-7e-05,-0.00025,6
30394,31707,-0.00011,0.0,-2.9999999999999997e-05,-8e-05,-0.00022999999999999998,-0.00037999999999999997,-7e-05,-0.00025,6
30395,31708,-0.00011,0.0,-2.9999999999999997e-05,-8e-05,-0.00022999999999999998,-0.00037999999999999997,-7e-05,-0.00025,6
30396,31709,-0.00011,0.0,-2.9999999999999997e-05,-8e-05,-0.00022999999999999998,-0.00037999999999999997,-7e-05,-0.00025,6
30397,31710,-0.00011,0.0,-2.9999999999999997e-05,-8e-05,-0.00022999999999999998,-0.00037999999999999997,-7e-05,-0.00025,6
30398,31711,-0.00011,0.0,-2.9999999999999997e-05,-8e-05,-0.00022999999999999998,-0.00037999999999999997,-7e-05,-0.00025,6
30399,31712,-0.00011,0.0,-2.9999999999999997e-05,-8e-05,-0.00022999999999999998,-0.00037999999999999997,-7e-05,-0.00025,6
30400,31713,-0.00011,0.0,-2.9999999999999997e-05,-8e-05,-0.00022999999999999998,-0.00037999999999999997,-7e-05,-0.00025,6
30401,31714,-0.00011,0.0,-2.9999999999999997e-05,-8e-05,-0.00022999999999999998,-0.00037999999999999997,-7e-05,-0.00025,6
30402,31715,-0.00011,0.0,-2.9999999999999997e-05,-8e-05,-0.00022999999999999998,-0.00037999999999999997,-7e-05,-0.00025,6
30403,31716,-0.00011,0.0,-2.9999999999999997e-05,-8e-05,-0.00022999999999999998,-0.00037999999999999997,-7e-05,-0.00025,6
30404,31717,-0.00011,0.0,-2.9999999999999997e-05,-8e-05,-0.00022999999999999998,-0.00037999999999999997,-7e-05,-0.00025,6
30405,31718,-0.00011,0.0,-2.9999999999999997e-05,-8e-05,-0.00022999999999999998,-0.00037999999999999997,-7e-05,-0.00025,6
30406,31719,-5.9999999999999995e-05,1e-05,2e-05,-2.9999999999999997e-05,0.00023999999999999998,0.0005200000000000001,0.0003,-0.0004,6
30407,31720,-5.9999999999999995e-05,1e-05,2e-05,-2.9999999999999997e-05,0.00023999999999999998,0.0005200000000000001,0.0003,-0.0004,6
30408,31721,0.0001,-7e-05,2e-05,0.00011999999999999999,0.00033999999999999997,-0.0003,-0.00047999999999999996,0.00016,6
30409,31722,0.0001,-7e-05,2e-05,0.00011999999999999999,0.00033999999999999997,-0.0003,-0.00047999999999999996,0.00016,6
30410,31723,0.0001,-7e-05,2e-05,0.00011999999999999999,0.00033999999999999997,-0.0003,-0.00047999999999999996,0.00016,6
30411,31724,0.0001,-7e-05,2e-05,0.00011999999999999999,0.00033999999999999997,-0.0003,-0.00047999999999999996,0.00016,6
30412,31725,0.0001,-7e-05,2e-05,0.00011999999999999999,0.00033999999999999997,-0.0003,-0.00047999999999999996,0.00016,6
30413,31726,0.0001,-7e-05,2e-05,0.00011999999999999999,0.00033999999999999997,-0.0003,-0.00047999999999999996,0.00016,6
30414,31727,0.0001,-7e-05,2e-05,0.00011999999999999999,0.00033999999999999997,-0.0003,-0.00047999999999999996,0.00016,6
30415,31728,0.0001,-7e-05,2e-05,0.00011999999999999999,0.00033999999999999997,-0.0003,-0.00047999999999999996,0.00016,6
30416,31729,0.0001,-7e-05,2e-05,0.00011999999999999999,0.00033999999999999997,-0.0003,-0.00047999999999999996,0.00016,6
30417,31730,0.0001,-7e-05,2e-05,0.00011999999999999999,0.00033999999999999997,-0.0003,-0.00047999999999999996,0.00016,6
30418,31731,0.0001,-7e-05,2e-05,0.00011999999999999999,0.00033999999999999997,-0.0003,-0.00047999999999999996,0.00016,6
30419,31732,0.0001,-7e-05,2e-05,0.00011999999999999999,0.00033999999999999997,-0.0003,-0.00047999999999999996,0.00016,6
30420,31733,0.0001,-7e-05,2e-05,0.00011999999999999999,0.00033999999999999997,-0.0003,-0.00047999999999999996,0.00016,6
30421,31734,0.0001,-7e-05,2e-05,0.00011999999999999999,0.00033999999999999997,-0.0003,-0.00047999999999999996,0.00016,6
30422,31735,0.0001,-7e-05,2e-05,0.00011999999999999999,0.00033999999999999997,-0.0003,-0.00047999999999999996,0.00016,6
30423,31736,0.0001,-7e-05,2e-05,0.00011999999999999999,0.00033999999999999997,-0.0003,-0.00047999999999999996,0.00016,6
30424,31738,0.0001,-7e-05,2e-05,0.00011999999999999999,0.00033999999999999997,-0.0003,-0.00047999999999999996,0.00016,6
30425,31739,0.0001,-7e-05,2e-05,0.00011999999999999999,0.00033999999999999997,-0.0003,-0.00047999999999999996,0.00016,6
30426,31740,0.0001,-7e-05,2e-05,0.00011999999999999999,0.00033999999999999997,-0.0003,-0.00047999999999999996,0.00016,6
30427,31741,0.0001,-7e-05,2e-05,0.00011999999999999999,0.00033999999999999997,-0.0003,-0.00047999999999999996,0.00016,6
30428,31742,0.0001,-7e-05,2e-05,0.00011999999999999999,0.00033999999999999997,-0.0003,-0.00047999999999999996,0.00016,6
30429,31743,0.00027,1e-05,2e-05,0.0001,0.00021,0.00047999999999999996,0.00018999999999999998,-0.00036,6
30430,31744,-0.00013000000000000002,1e-05,-1e-05,-0.00013000000000000002,-0.00044,1e-05,-0.00026000000000000003,0.00013000000000000002,6
30431,31745,-0.00013000000000000002,1e-05,-1e-05,-0.00013000000000000002,-0.00044,1e-05,-0.00026000000000000003,0.00013000000000000002,6
30432,31746,-0.00013000000000000002,1e-05,-1e-05,-0.00013000000000000002,-0.00044,1e-05,-0.00026000000000000003,0.00013000000000000002,6
30433,31747,-0.00013000000000000002,1e-05,-1e-05,-0.00013000000000000002,-0.00044,1e-05,-0.00026000000000000003,0.00013000000000000002,6
30434,31748,1e-05,0.0,1e-05,4e-05,0.00018,0.00066,0.0002,-0.00022,6
30435,31749,-0.00011,0.0,2e-05,4e-05,0.0001,-0.00031,8e-05,0.0007700000000000001,6
30436,31750,-0.00011,0.0,2e-05,4e-05,0.0001,-0.00031,8e-05,0.0007700000000000001,6
30437,31751,-0.00011,0.0,2e-05,4e-05,0.0001,-0.00031,8e-05,0.0007700000000000001,6
30438,31752,-0.00011,0.0,2e-05,4e-05,0.0001,-0.00031,8e-05,0.0007700000000000001,6
30439,31753,-0.00011,0.0,2e-05,4e-05,0.0001,-0.00031,8e-05,0.0007700000000000001,6
30440,31754,-0.00011,0.0,2e-05,4e-05,0.0001,-0.00031,8e-05,0.0007700000000000001,6
30441,31755,-0.00011,0.0,2e-05,4e-05,0.0001,-0.00031,8e-05,0.0007700000000000001,6
30442,31756,-0.00011,0.0,2e-05,4e-05,0.0001,-0.00031,8e-05,0.0007700000000000001,6
30443,31757,-0.00011,0.0,2e-05,4e-05,0.0001,-0.00031,8e-05,0.0007700000000000001,6
30444,31758,-0.00011,0.0,2e-05,4e-05,0.0001,-0.00031,8e-05,0.0007700000000000001,6
30445,31759,-0.00011,0.0,2e-05,4e-05,0.0001,-0.00031,8e-05,0.0007700000000000001,6
30446,31760,-0.00011,0.0,2e-05,4e-05,0.0001,-0.00031,8e-05,0.0007700000000000001,6
30447,31761,-0.00011,0.0,2e-05,4e-05,0.0001,-0.00031,8e-05,0.0007700000000000001,6
30448,31762,-0.00011,0.0,2e-05,4e-05,0.0001,-0.00031,8e-05,0.0007700000000000001,6
30449,31763,-0.00011,0.0,2e-05,4e-05,0.0001,-0.00031,8e-05,0.0007700000000000001,6
30450,31764,-0.00011,0.0,2e-05,4e-05,0.0001,-0.00031,8e-05,0.0007700000000000001,6
30451,31765,-0.00011,0.0,2e-05,4e-05,0.0001,-0.00031,8e-05,0.0007700000000000001,6
30452,31766,-0.00011,0.0,2e-05,4e-05,0.0001,-0.00031,8e-05,0.0007700000000000001,6
30453,31767,-0.00011,0.0,2e-05,4e-05,0.0001,-0.00031,8e-05,0.0007700000000000001,6
30454,31768,-0.00011,0.0,2e-05,4e-05,0.0001,-0.00031,8e-05,0.0007700000000000001,6
30455,31769,-0.00011,0.0,2e-05,4e-05,0.0001,-0.00031,8e-05,0.0007700000000000001,6
30456,31770,-0.00011,0.0,2e-05,4e-05,0.0001,-0.00031,8e-05,0.0007700000000000001,6
30457,31771,-0.00011,0.0,2e-05,4e-05,0.0001,-0.00031,8e-05,0.0007700000000000001,6
30458,31772,9e-05,4e-05,1e-05,-5e-05,-0.0002,4e-05,-0.0001,-0.00037,6
30459,31773,4e-05,-4e-05,-5e-05,-0.00013000000000000002,-5.9999999999999995e-05,-0.00059,0.00022999999999999998,0.0,6
30460,31774,-5.9999999999999995e-05,0.00011,0.00014,0.0004,0.00042,0.00013000000000000002,0.0,-0.00022999999999999998,6
30461,31775,-0.00011,-7e-05,-0.00011999999999999999,-0.00018999999999999998,-0.00042,-0.00027,0.00016999999999999999,-0.00037,6
30462,31776,-0.00011,-7e-05,-0.00011999999999999999,-0.00018999999999999998,-0.00042,-0.00027,0.00016999999999999999,-0.00037,6
30463,31777,-0.00011,-7e-05,-0.00011999999999999999,-0.00018999999999999998,-0.00042,-0.00027,0.00016999999999999999,-0.00037,6
30464,31778,-0.00011,-7e-05,-0.00011999999999999999,-0.00018999999999999998,-0.00042,-0.00027,0.00016999999999999999,-0.00037,6
30465,31779,-0.00011,-7e-05,-0.00011999999999999999,-0.00018999999999999998,-0.00042,-0.00027,0.00016999999999999999,-0.00037,6
30466,31780,-0.00011,-7e-05,-0.00011999999999999999,-0.00018999999999999998,-0.00042,-0.00027,0.00016999999999999999,-0.00037,6
30467,31781,-0.00011,-7e-05,-0.00011999999999999999,-0.00018999999999999998,-0.00042,-0.00027,0.00016999999999999999,-0.00037,6
30468,31782,-0.00011,-7e-05,-0.00011999999999999999,-0.00018999999999999998,-0.00042,-0.00027,0.00016999999999999999,-0.00037,6
30469,31783,-0.00011,-7e-05,-0.00011999999999999999,-0.00018999999999999998,-0.00042,-0.00027,0.00016999999999999999,-0.00037,6
30470,31784,-0.00011,-7e-05,-0.00011999999999999999,-0.00018999999999999998,-0.00042,-0.00027,0.00016999999999999999,-0.00037,6
30471,31785,-0.00011,-7e-05,-0.00011999999999999999,-0.00018999999999999998,-0.00042,-0.00027,0.00016999999999999999,-0.00037,6
30472,31786,-0.00011,-7e-05,-0.00011999999999999999,-0.00018999999999999998,-0.00042,-0.00027,0.00016999999999999999,-0.00037,6
30473,31789,-0.00011,-7e-05,-0.00011999999999999999,-0.00018999999999999998,-0.00042,-0.00027,0.00016999999999999999,-0.00037,6
30474,31790,-0.00011,-7e-05,-0.00011999999999999999,-0.00018999999999999998,-0.00042,-0.00027,0.00016999999999999999,-0.00037,6
30475,31791,-0.00011,-7e-05,-0.00011999999999999999,-0.00018999999999999998,-0.00042,-0.00027,0.00016999999999999999,-0.00037,6
30476,31792,-0.00011,-7e-05,-0.00011999999999999999,-0.00018999999999999998,-0.00042,-0.00027,0.00016999999999999999,-0.00037,6
30477,31793,-0.00011,-7e-05,-0.00011999999999999999,-0.00018999999999999998,-0.00042,-0.00027,0.00016999999999999999,-0.00037,6
30478,31794,-0.00011,-7e-05,-0.00011999999999999999,-0.00018999999999999998,-0.00042,-0.00027,0.00016999999999999999,-0.00037,6
30479,31795,0.00029,7e-05,2.9999999999999997e-05,-0.00015,0.00018999999999999998,0.00033999999999999997,0.00011999999999999999,5.9999999999999995e-05,6
30480,31796,5.9999999999999995e-05,-1e-05,2.9999999999999997e-05,0.00011999999999999999,0.00041,0.00041,-2e-05,0.00014,6
30481,31797,5.9999999999999995e-05,-1e-05,2.9999999999999997e-05,0.00011999999999999999,0.00041,0.00041,-2e-05,0.00014,6
30482,31798,5.9999999999999995e-05,-1e-05,2.9999999999999997e-05,0.00011999999999999999,0.00041,0.00041,-2e-05,0.00014,6
30483,31799,5.9999999999999995e-05,-1e-05,2.9999999999999997e-05,0.00011999999999999999,0.00041,0.00041,-2e-05,0.00014,6
30484,31800,5.9999999999999995e-05,-1e-05,2.9999999999999997e-05,0.00011999999999999999,0.00041,0.00041,-2e-05,0.00014,6
30485,31801,5.9999999999999995e-05,-1e-05,2.9999999999999997e-05,0.00011999999999999999,0.00041,0.00041,-2e-05,0.00014,6
30486,31802,5.9999999999999995e-05,-1e-05,2.9999999999999997e-05,0.00011999999999999999,0.00041,0.00041,-2e-05,0.00014,6
30487,31803,5.9999999999999995e-05,-1e-05,2.9999999999999997e-05,0.00011999999999999999,0.00041,0.00041,-2e-05,0.00014,6
30488,31804,5.9999999999999995e-05,-1e-05,2.9999999999999997e-05,0.00011999999999999999,0.00041,0.00041,-2e-05,0.00014,6
30489,31805,5.9999999999999995e-05,-1e-05,2.9999999999999997e-05,0.00011999999999999999,0.00041,0.00041,-2e-05,0.00014,6
30490,31806,5.9999999999999995e-05,-1e-05,2.9999999999999997e-05,0.00011999999999999999,0.00041,0.00041,-2e-05,0.00014,6
30491,31807,5.9999999999999995e-05,-1e-05,2.9999999999999997e-05,0.00011999999999999999,0.00041,0.00041,-2e-05,0.00014,6
30492,31808,5.9999999999999995e-05,-1e-05,2.9999999999999997e-05,0.00011999999999999999,0.00041,0.00041,-2e-05,0.00014,6
30493,31809,5.9999999999999995e-05,-1e-05,2.9999999999999997e-05,0.00011999999999999999,0.00041,0.00041,-2e-05,0.00014,6
30494,31810,5.9999999999999995e-05,-1e-05,2.9999999999999997e-05,0.00011999999999999999,0.00041,0.00041,-2e-05,0.00014,6
30495,31811,5.9999999999999995e-05,-1e-05,2.9999999999999997e-05,0.00011999999999999999,0.00041,0.00041,-2e-05,0.00014,6
30496,31812,5.9999999999999995e-05,-1e-05,2.9999999999999997e-05,0.00011999999999999999,0.00041,0.00041,-2e-05,0.00014,6
30497,31813,5.9999999999999995e-05,-1e-05,2.9999999999999997e-05,0.00011999999999999999,0.00041,0.00041,-2e-05,0.00014,6
30498,31814,5.9999999999999995e-05,-1e-05,2.9999999999999997e-05,0.00011999999999999999,0.00041,0.00041,-2e-05,0.00014,6
30499,31815,5.9999999999999995e-05,-1e-05,2.9999999999999997e-05,0.00011999999999999999,0.00041,0.00041,-2e-05,0.00014,6
30500,31816,5.9999999999999995e-05,-1e-05,2.9999999999999997e-05,0.00011999999999999999,0.00041,0.00041,-2e-05,0.00014,6
30501,31817,-1e-05,1e-05,-2.9999999999999997e-05,-5.9999999999999995e-05,-0.00021,0.00033,-0.00014,-8e-05,6
30502,31818,-1e-05,1e-05,-2.9999999999999997e-05,-5.9999999999999995e-05,-0.00021,0.00033,-0.00014,-8e-05,6
30503,31819,9e-05,-5e-05,-0.00014,-0.00022999999999999998,-0.00075,0.00041,0.00035,0.00081,6
30504,31820,9e-05,-5e-05,-0.00014,-0.00022999999999999998,-0.00075,0.00041,0.00035,0.00081,6
30505,31821,9e-05,-5e-05,-0.00014,-0.00022999999999999998,-0.00075,0.00041,0.00035,0.00081,6
30506,31822,9e-05,-5e-05,-0.00014,-0.00022999999999999998,-0.00075,0.00041,0.00035,0.00081,6
30507,31823,9e-05,-5e-05,-0.00014,-0.00022999999999999998,-0.00075,0.00041,0.00035,0.00081,6
30508,31824,9e-05,-5e-05,-0.00014,-0.00022999999999999998,-0.00075,0.00041,0.00035,0.00081,6
30509,31825,9e-05,-5e-05,-0.00014,-0.00022999999999999998,-0.00075,0.00041,0.00035,0.00081,6
30510,31826,9e-05,-5e-05,-0.00014,-0.00022999999999999998,-0.00075,0.00041,0.00035,0.00081,6
30511,31827,9e-05,-5e-05,-0.00014,-0.00022999999999999998,-0.00075,0.00041,0.00035,0.00081,6
30512,31828,9e-05,-5e-05,-0.00014,-0.00022999999999999998,-0.00075,0.00041,0.00035,0.00081,6
30513,31829,9e-05,-5e-05,-0.00014,-0.00022999999999999998,-0.00075,0.00041,0.00035,0.00081,6
30514,31830,9e-05,-5e-05,-0.00014,-0.00022999999999999998,-0.00075,0.00041,0.00035,0.00081,6
30515,31831,9e-05,-5e-05,-0.00014,-0.00022999999999999998,-0.00075,0.00041,0.00035,0.00081,6
30516,31832,9e-05,-5e-05,-0.00014,-0.00022999999999999998,-0.00075,0.00041,0.00035,0.00081,6
30517,31833,9e-05,-5e-05,-0.00014,-0.00022999999999999998,-0.00075,0.00041,0.00035,0.00081,6
30518,31834,9e-05,-5e-05,-0.00014,-0.00022999999999999998,-0.00075,0.00041,0.00035,0.00081,6
30519,31835,9e-05,-5e-05,-0.00014,-0.00022999999999999998,-0.00075,0.00041,0.00035,0.00081,6
30520,31836,9e-05,-5e-05,-0.00014,-0.00022999999999999998,-0.00075,0.00041,0.00035,0.00081,6
30521,31839,9e-05,-5e-05,-0.00014,-0.00022999999999999998,-0.00075,0.00041,0.00035,0.00081,6
30522,31840,9e-05,-5e-05,-0.00014,-0.00022999999999999998,-0.00075,0.00041,0.00035,0.00081,6
30523,31841,9e-05,-5e-05,-0.00014,-0.00022999999999999998,-0.00075,0.00041,0.00035,0.00081,6
30524,31842,9e-05,-5e-05,-0.00014,-0.00022999999999999998,-0.00075,0.00041,0.00035,0.00081,6
30525,31843,9e-05,-5e-05,-0.00014,-0.00022999999999999998,-0.00075,0.00041,0.00035,0.00081,6
30526,31844,9e-05,-5e-05,-0.00014,-0.00022999999999999998,-0.00075,0.00041,0.00035,0.00081,6
30527,31845,9e-05,-5e-05,-0.00014,-0.00022999999999999998,-0.00075,0.00041,0.00035,0.00081,6
30528,31846,9e-05,-5e-05,-0.00014,-0.00022999999999999998,-0.00075,0.00041,0.00035,0.00081,6
30529,31847,-9e-05,-7e-05,-0.00011999999999999999,-0.00011,-0.00021,-0.0005,-0.00025,0.0008,6
30530,31848,0.00023999999999999998,0.00013000000000000002,9e-05,5.9999999999999995e-05,0.00018999999999999998,0.00021,-0.0001,0.00027,6
30531,31849,-0.00022,-0.00016,-4e-05,-1e-05,-0.0002,-0.00067,5e-05,-0.0001,6
30532,31850,-0.00022,-0.00016,-4e-05,-1e-05,-0.0002,-0.00067,5e-05,-0.0001,6
30533,31851,-0.00022,-0.00016,-4e-05,-1e-05,-0.0002,-0.00067,5e-05,-0.0001,6
30534,31852,-0.00022,-0.00016,-4e-05,-1e-05,-0.0002,-0.00067,5e-05,-0.0001,6
30535,31853,-0.00022,-0.00016,-4e-05,-1e-05,-0.0002,-0.00067,5e-05,-0.0001,6
30536,31854,-0.00022,-0.00016,-4e-05,-1e-05,-0.0002,-0.00067,5e-05,-0.0001,6
30537,31855,-0.00022,-0.00016,-4e-05,-1e-05,-0.0002,-0.00067,5e-05,-0.0001,6
30538,31856,-0.00022,-0.00016,-4e-05,-1e-05,-0.0002,-0.00067,5e-05,-0.0001,6
30539,31857,-0.00022,-0.00016,-4e-05,-1e-05,-0.0002,-0.00067,5e-05,-0.0001,6
30540,31858,-0.00022,-0.00016,-4e-05,-1e-05,-0.0002,-0.00067,5e-05,-0.0001,6
30541,31859,-0.00022,-0.00016,-4e-05,-1e-05,-0.0002,-0.00067,5e-05,-0.0001,6
30542,31860,-0.00022,-0.00016,-4e-05,-1e-05,-0.0002,-0.00067,5e-05,-0.0001,6
30543,31861,-5.9999999999999995e-05,-2e-05,-4e-05,-7e-05,-0.00037999999999999997,-0.0005,0.0001,0.00044,6
30544,31862,-5.9999999999999995e-05,-2e-05,-4e-05,-7e-05,-0.00037999999999999997,-0.0005,0.0001,0.00044,6
30545,31863,-5.9999999999999995e-05,-2e-05,-4e-05,-7e-05,-0.00037999999999999997,-0.0005,0.0001,0.00044,6
30546,31864,-5.9999999999999995e-05,-2e-05,-4e-05,-7e-05,-0.00037999999999999997,-0.0005,0.0001,0.00044,6
30547,31865,-5.9999999999999995e-05,-2e-05,-4e-05,-7e-05,-0.00037999999999999997,-0.0005,0.0001,0.00044,6
30548,31866,-5.9999999999999995e-05,-2e-05,-4e-05,-7e-05,-0.00037999999999999997,-0.0005,0.0001,0.00044,6
30549,31867,-5.9999999999999995e-05,-2e-05,-4e-05,-7e-05,-0.00037999999999999997,-0.0005,0.0001,0.00044,6
30550,31868,-5.9999999999999995e-05,-2e-05,-4e-05,-7e-05,-0.00037999999999999997,-0.0005,0.0001,0.00044,6
30551,31869,-5.9999999999999995e-05,-2e-05,-4e-05,-7e-05,-0.00037999999999999997,-0.0005,0.0001,0.00044,6
30552,31870,9e-05,0.0,7e-05,0.00023999999999999998,0.0,-0.00016999999999999999,-9e-05,-0.00021,6
30553,31871,-0.00016999999999999999,-2.9999999999999997e-05,0.0,-0.00013000000000000002,-4e-05,0.00033999999999999997,0.00064,-0.0001,6
30554,31872,-0.00016999999999999999,-2.9999999999999997e-05,0.0,-0.00013000000000000002,-4e-05,0.00033999999999999997,0.00064,-0.0001,6
30555,31873,-0.00016999999999999999,-2.9999999999999997e-05,0.0,-0.00013000000000000002,-4e-05,0.00033999999999999997,0.00064,-0.0001,6
30556,31874,-0.00016999999999999999,-2.9999999999999997e-05,0.0,-0.00013000000000000002,-4e-05,0.00033999999999999997,0.00064,-0.0001,6
30557,31875,-0.00016999999999999999,-2.9999999999999997e-05,0.0,-0.00013000000000000002,-4e-05,0.00033999999999999997,0.00064,-0.0001,6
30558,31876,-0.00016999999999999999,-2.9999999999999997e-05,0.0,-0.00013000000000000002,-4e-05,0.00033999999999999997,0.00064,-0.0001,6
30559,31877,-0.00016999999999999999,-2.9999999999999997e-05,0.0,-0.00013000000000000002,-4e-05,0.00033999999999999997,0.00064,-0.0001,6
30560,31878,-0.00016999999999999999,-2.9999999999999997e-05,0.0,-0.00013000000000000002,-4e-05,0.00033999999999999997,0.00064,-0.0001,6
30561,31879,-0.00016999999999999999,-2.9999999999999997e-05,0.0,-0.00013000000000000002,-4e-05,0.00033999999999999997,0.00064,-0.0001,6
30562,31880,-0.00016999999999999999,-2.9999999999999997e-05,0.0,-0.00013000000000000002,-4e-05,0.00033999999999999997,0.00064,-0.0001,6
30563,31881,-0.00016999999999999999,-2.9999999999999997e-05,0.0,-0.00013000000000000002,-4e-05,0.00033999999999999997,0.00064,-0.0001,6
30564,31882,-0.00016999999999999999,-2.9999999999999997e-05,0.0,-0.00013000000000000002,-4e-05,0.00033999999999999997,0.00064,-0.0001,6
30565,31883,-0.00016999999999999999,-2.9999999999999997e-05,0.0,-0.00013000000000000002,-4e-05,0.00033999999999999997,0.00064,-0.0001,6
30566,31884,-0.00016999999999999999,-2.9999999999999997e-05,0.0,-0.00013000000000000002,-4e-05,0.00033999999999999997,0.00064,-0.0001,6
30567,31885,-0.00016999999999999999,-2.9999999999999997e-05,0.0,-0.00013000000000000002,-4e-05,0.00033999999999999997,0.00064,-0.0001,6
30568,31886,-0.00016999999999999999,-2.9999999999999997e-05,0.0,-0.00013000000000000002,-4e-05,0.00033999999999999997,0.00064,-0.0001,6
30569,31889,-0.00016999999999999999,-2.9999999999999997e-05,0.0,-0.00013000000000000002,-4e-05,0.00033999999999999997,0.00064,-0.0001,6
30570,31890,-0.00016999999999999999,-2.9999999999999997e-05,0.0,-0.00013000000000000002,-4e-05,0.00033999999999999997,0.00064,-0.0001,6
30571,31891,-0.00016999999999999999,-2.9999999999999997e-05,0.0,-0.00013000000000000002,-4e-05,0.00033999999999999997,0.00064,-0.0001,6
30572,31892,-0.00016999999999999999,-2.9999999999999997e-05,0.0,-0.00013000000000000002,-4e-05,0.00033999999999999997,0.00064,-0.0001,6
30573,31893,-0.00016999999999999999,-2.9999999999999997e-05,0.0,-0.00013000000000000002,-4e-05,0.00033999999999999997,0.00064,-0.0001,6
30574,31894,-2.9999999999999997e-05,2e-05,2e-05,-2e-05,0.00032,4e-05,-0.00016,-5e-05,6
30575,31895,-5.9999999999999995e-05,0.0,-5e-05,-1e-05,5.9999999999999995e-05,0.0004,-0.00016999999999999999,-0.00025,6
30576,31896,-5.9999999999999995e-05,0.0,-5e-05,-1e-05,5.9999999999999995e-05,0.0004,-0.00016999999999999999,-0.00025,6
30577,31897,-5.9999999999999995e-05,0.0,-5e-05,-1e-05,5.9999999999999995e-05,0.0004,-0.00016999999999999999,-0.00025,6
30578,31898,1e-05,0.0,-2.9999999999999997e-05,2.9999999999999997e-05,0.00026000000000000003,0.00011999999999999999,-2.9999999999999997e-05,-8e-05,6
30579,31899,1e-05,0.0,-2.9999999999999997e-05,2.9999999999999997e-05,0.00026000000000000003,0.00011999999999999999,-2.9999999999999997e-05,-8e-05,6
30580,31900,1e-05,0.0,-2.9999999999999997e-05,2.9999999999999997e-05,0.00026000000000000003,0.00011999999999999999,-2.9999999999999997e-05,-8e-05,6
30581,31901,1e-05,0.0,-2.9999999999999997e-05,2.9999999999999997e-05,0.00026000000000000003,0.00011999999999999999,-2.9999999999999997e-05,-8e-05,6
30582,31902,1e-05,0.0,-2.9999999999999997e-05,2.9999999999999997e-05,0.00026000000000000003,0.00011999999999999999,-2.9999999999999997e-05,-8e-05,6
30583,31903,1e-05,0.0,-2.9999999999999997e-05,2.9999999999999997e-05,0.00026000000000000003,0.00011999999999999999,-2.9999999999999997e-05,-8e-05,6
30584,31904,1e-05,0.0,-2.9999999999999997e-05,2.9999999999999997e-05,0.00026000000000000003,0.00011999999999999999,-2.9999999999999997e-05,-8e-05,6
30585,31905,1e-05,0.0,-2.9999999999999997e-05,2.9999999999999997e-05,0.00026000000000000003,0.00011999999999999999,-2.9999999999999997e-05,-8e-05,6
30586,31906,1e-05,0.0,-2.9999999999999997e-05,2.9999999999999997e-05,0.00026000000000000003,0.00011999999999999999,-2.9999999999999997e-05,-8e-05,6
30587,31907,1e-05,0.0,-2.9999999999999997e-05,2.9999999999999997e-05,0.00026000000000000003,0.00011999999999999999,-2.9999999999999997e-05,-8e-05,6
30588,31908,1e-05,0.0,-2.9999999999999997e-05,2.9999999999999997e-05,0.00026000000000000003,0.00011999999999999999,-2.9999999999999997e-05,-8e-05,6
30589,31909,1e-05,0.0,-2.9999999999999997e-05,2.9999999999999997e-05,0.00026000000000000003,0.00011999999999999999,-2.9999999999999997e-05,-8e-05,6
30590,31910,1e-05,0.0,-2.9999999999999997e-05,2.9999999999999997e-05,0.00026000000000000003,0.00011999999999999999,-2.9999999999999997e-05,-8e-05,6
30591,31911,1e-05,0.0,-2.9999999999999997e-05,2.9999999999999997e-05,0.00026000000000000003,0.00011999999999999999,-2.9999999999999997e-05,-8e-05,6
30592,31912,1e-05,0.0,-2.9999999999999997e-05,2.9999999999999997e-05,0.00026000000000000003,0.00011999999999999999,-2.9999999999999997e-05,-8e-05,6
30593,31913,1e-05,0.0,-2.9999999999999997e-05,2.9999999999999997e-05,0.00026000000000000003,0.00011999999999999999,-2.9999999999999997e-05,-8e-05,6
30594,31914,1e-05,0.0,-2.9999999999999997e-05,2.9999999999999997e-05,0.00026000000000000003,0.00011999999999999999,-2.9999999999999997e-05,-8e-05,6
30595,31915,1e-05,0.0,-2.9999999999999997e-05,2.9999999999999997e-05,0.00026000000000000003,0.00011999999999999999,-2.9999999999999997e-05,-8e-05,6
30596,31916,1e-05,0.0,-2.9999999999999997e-05,2.9999999999999997e-05,0.00026000000000000003,0.00011999999999999999,-2.9999999999999997e-05,-8e-05,6
30597,31917,1e-05,0.0,-2.9999999999999997e-05,2.9999999999999997e-05,0.00026000000000000003,0.00011999999999999999,-2.9999999999999997e-05,-8e-05,6
30598,31918,1e-05,0.0,-2.9999999999999997e-05,2.9999999999999997e-05,0.00026000000000000003,0.00011999999999999999,-2.9999999999999997e-05,-8e-05,6
30599,31919,1e-05,0.0,-2.9999999999999997e-05,2.9999999999999997e-05,0.00026000000000000003,0.00011999999999999999,-2.9999999999999997e-05,-8e-05,6
30600,31920,1e-05,0.0,-2.9999999999999997e-05,2.9999999999999997e-05,0.00026000000000000003,0.00011999999999999999,-2.9999999999999997e-05,-8e-05,6
30601,31921,1e-05,0.0,-2.9999999999999997e-05,2.9999999999999997e-05,0.00026000000000000003,0.00011999999999999999,-2.9999999999999997e-05,-8e-05,6
30602,31922,0.00014,2.9999999999999997e-05,8e-05,2.9999999999999997e-05,-0.00033999999999999997,-0.00093,0.00016,-0.00015,6
30603,31923,-7e-05,-1e-05,-5e-05,-5.9999999999999995e-05,-0.0001,5e-05,8e-05,5.9999999999999995e-05,6
30604,31924,-7e-05,-1e-05,-5e-05,-5.9999999999999995e-05,-0.0001,5e-05,8e-05,5.9999999999999995e-05,6
30605,31925,-7e-05,-1e-05,-5e-05,-5.9999999999999995e-05,-0.0001,5e-05,8e-05,5.9999999999999995e-05,6
30606,31926,-7e-05,-1e-05,-5e-05,-5.9999999999999995e-05,-0.0001,5e-05,8e-05,5.9999999999999995e-05,6
30607,31927,-7e-05,-1e-05,-5e-05,-5.9999999999999995e-05,-0.0001,5e-05,8e-05,5.9999999999999995e-05,6
30608,31928,-0.00011999999999999999,2e-05,2e-05,-0.00014,-5.9999999999999995e-05,0.00018,-0.0005099999999999999,-0.00016999999999999999,6
30609,31929,-0.00011999999999999999,2e-05,2e-05,-0.00014,-5.9999999999999995e-05,0.00018,-0.0005099999999999999,-0.00016999999999999999,6
30610,31930,-0.00011999999999999999,2e-05,2e-05,-0.00014,-5.9999999999999995e-05,0.00018,-0.0005099999999999999,-0.00016999999999999999,6
30611,31931,-0.00011999999999999999,2e-05,2e-05,-0.00014,-5.9999999999999995e-05,0.00018,-0.0005099999999999999,-0.00016999999999999999,6
30612,31932,-0.00011999999999999999,2e-05,2e-05,-0.00014,-5.9999999999999995e-05,0.00018,-0.0005099999999999999,-0.00016999999999999999,6
30613,31933,-0.00011999999999999999,2e-05,2e-05,-0.00014,-5.9999999999999995e-05,0.00018,-0.0005099999999999999,-0.00016999999999999999,6
30614,31934,-0.00011999999999999999,2e-05,2e-05,-0.00014,-5.9999999999999995e-05,0.00018,-0.0005099999999999999,-0.00016999999999999999,6
30615,31935,-0.00011999999999999999,2e-05,2e-05,-0.00014,-5.9999999999999995e-05,0.00018,-0.0005099999999999999,-0.00016999999999999999,6
30616,31936,-0.00011999999999999999,2e-05,2e-05,-0.00014,-5.9999999999999995e-05,0.00018,-0.0005099999999999999,-0.00016999999999999999,6
30617,31939,-0.00011999999999999999,2e-05,2e-05,-0.00014,-5.9999999999999995e-05,0.00018,-0.0005099999999999999,-0.00016999999999999999,6
30618,31940,-0.00011999999999999999,2e-05,2e-05,-0.00014,-5.9999999999999995e-05,0.00018,-0.0005099999999999999,-0.00016999999999999999,6
30619,31941,-0.00011999999999999999,2e-05,2e-05,-0.00014,-5.9999999999999995e-05,0.00018,-0.0005099999999999999,-0.00016999999999999999,6
30620,31942,-0.00011999999999999999,2e-05,2e-05,-0.00014,-5.9999999999999995e-05,0.00018,-0.0005099999999999999,-0.00016999999999999999,6
30621,31943,0.00016,2e-05,-1e-05,-0.00011,-0.00033,-0.0001,8e-05,0.0001,6
30622,31944,0.00016,2e-05,-1e-05,-0.00011,-0.00033,-0.0001,8e-05,0.0001,6
30623,31945,0.00016,2e-05,-1e-05,-0.00011,-0.00033,-0.0001,8e-05,0.0001,6
30624,31946,0.00016,2e-05,-1e-05,-0.00011,-0.00033,-0.0001,8e-05,0.0001,6
30625,31947,0.00016,2e-05,-1e-05,-0.00011,-0.00033,-0.0001,8e-05,0.0001,6
30626,31948,0.00016,2e-05,-1e-05,-0.00011,-0.00033,-0.0001,8e-05,0.0001,6
30627,31949,0.00016,2e-05,-1e-05,-0.00011,-0.00033,-0.0001,8e-05,0.0001,6
30628,31950,0.00016,2e-05,-1e-05,-0.00011,-0.00033,-0.0001,8e-05,0.0001,6
30629,31951,0.00016,2e-05,-1e-05,-0.00011,-0.00033,-0.0001,8e-05,0.0001,6
30630,31952,-7e-05,1e-05,-1e-05,-1e-05,-1e-05,0.00014,0.00022,0.00011999999999999999,6
30631,31953,-0.00033,-9e-05,-0.00011,-0.00015,5e-05,9e-05,0.00103,-0.00065,6
30632,31954,-0.00033,-9e-05,-0.00011,-0.00015,5e-05,9e-05,0.00103,-0.00065,6
30633,31955,-0.00033,-9e-05,-0.00011,-0.00015,5e-05,9e-05,0.00103,-0.00065,6
30634,31956,-0.00033,-9e-05,-0.00011,-0.00015,5e-05,9e-05,0.00103,-0.00065,6
30635,31957,-0.00033,-9e-05,-0.00011,-0.00015,5e-05,9e-05,0.00103,-0.00065,6
30636,31958,-0.00033,-9e-05,-0.00011,-0.00015,5e-05,9e-05,0.00103,-0.00065,6
30637,31959,-0.00033,-9e-05,-0.00011,-0.00015,5e-05,9e-05,0.00103,-0.00065,6
30638,31960,-0.00033,-9e-05,-0.00011,-0.00015,5e-05,9e-05,0.00103,-0.00065,6
30639,31961,-0.00033,-9e-05,-0.00011,-0.00015,5e-05,9e-05,0.00103,-0.00065,6
30640,31962,-0.00033,-9e-05,-0.00011,-0.00015,5e-05,9e-05,0.00103,-0.00065,6
30641,31963,-0.00033,-9e-05,-0.00011,-0.00015,5e-05,9e-05,0.00103,-0.00065,6
30642,31964,-0.00033,-9e-05,-0.00011,-0.00015,5e-05,9e-05,0.00103,-0.00065,6
30643,31965,-0.00033,-9e-05,-0.00011,-0.00015,5e-05,9e-05,0.00103,-0.00065,6
30644,31966,-0.00033,-9e-05,-0.00011,-0.00015,5e-05,9e-05,0.00103,-0.00065,6
30645,31967,-0.00033,-9e-05,-0.00011,-0.00015,5e-05,9e-05,0.00103,-0.00065,6
30646,31968,-0.00033,-9e-05,-0.00011,-0.00015,5e-05,9e-05,0.00103,-0.00065,6
30647,31969,-0.00033,-9e-05,-0.00011,-0.00015,5e-05,9e-05,0.00103,-0.00065,6
30648,31970,-0.00033,-9e-05,-0.00011,-0.00015,5e-05,9e-05,0.00103,-0.00065,6
30649,31971,-0.00033,-9e-05,-0.00011,-0.00015,5e-05,9e-05,0.00103,-0.00065,6
30650,31972,-0.00033,-9e-05,-0.00011,-0.00015,5e-05,9e-05,0.00103,-0.00065,6
30651,31973,-0.00033,-9e-05,-0.00011,-0.00015,5e-05,9e-05,0.00103,-0.00065,6
30652,31974,-0.00033,-9e-05,-0.00011,-0.00015,5e-05,9e-05,0.00103,-0.00065,6
30653,31975,0.00015,7e-05,8e-05,0.00028,0.00041,0.00015,-0.00062,0.00025,6
30654,31976,5e-05,4e-05,2e-05,-7e-05,-0.00027,-7e-05,-0.00036,-0.00064,6
30655,31977,-0.00016,-5e-05,0.0,2.9999999999999997e-05,-0.00011999999999999999,-0.00072,-0.00026000000000000003,4e-05,6
30656,31978,-0.00016,-5e-05,0.0,2.9999999999999997e-05,-0.00011999999999999999,-0.00072,-0.00026000000000000003,4e-05,6
30657,31979,-0.00016,-5e-05,0.0,2.9999999999999997e-05,-0.00011999999999999999,-0.00072,-0.00026000000000000003,4e-05,6
30658,31980,-0.00016,-5e-05,0.0,2.9999999999999997e-05,-0.00011999999999999999,-0.00072,-0.00026000000000000003,4e-05,6
30659,31981,-0.00016,-5e-05,0.0,2.9999999999999997e-05,-0.00011999999999999999,-0.00072,-0.00026000000000000003,4e-05,6
30660,31982,-0.00016,-5e-05,0.0,2.9999999999999997e-05,-0.00011999999999999999,-0.00072,-0.00026000000000000003,4e-05,6
30661,31983,-0.00016,-5e-05,0.0,2.9999999999999997e-05,-0.00011999999999999999,-0.00072,-0.00026000000000000003,4e-05,6
30662,31984,-0.00016,-5e-05,0.0,2.9999999999999997e-05,-0.00011999999999999999,-0.00072,-0.00026000000000000003,4e-05,6
30663,31985,-0.00016,-5e-05,0.0,2.9999999999999997e-05,-0.00011999999999999999,-0.00072,-0.00026000000000000003,4e-05,6
30664,31986,-0.00016,-5e-05,0.0,2.9999999999999997e-05,-0.00011999999999999999,-0.00072,-0.00026000000000000003,4e-05,6
30665,31988,-0.00016,-5e-05,0.0,2.9999999999999997e-05,-0.00011999999999999999,-0.00072,-0.00026000000000000003,4e-05,6
30666,31990,-0.00016,-5e-05,0.0,2.9999999999999997e-05,-0.00011999999999999999,-0.00072,-0.00026000000000000003,4e-05,6
30667,31991,-0.00016,-5e-05,0.0,2.9999999999999997e-05,-0.00011999999999999999,-0.00072,-0.00026000000000000003,4e-05,6
30668,31992,-0.00016,-5e-05,0.0,2.9999999999999997e-05,-0.00011999999999999999,-0.00072,-0.00026000000000000003,4e-05,6
30669,31993,-0.00016,-5e-05,0.0,2.9999999999999997e-05,-0.00011999999999999999,-0.00072,-0.00026000000000000003,4e-05,6
30670,31994,-0.00016,-5e-05,0.0,2.9999999999999997e-05,-0.00011999999999999999,-0.00072,-0.00026000000000000003,4e-05,6
30671,31995,-0.00016,-5e-05,0.0,2.9999999999999997e-05,-0.00011999999999999999,-0.00072,-0.00026000000000000003,4e-05,6
30672,31996,-0.00016,-5e-05,0.0,2.9999999999999997e-05,-0.00011999999999999999,-0.00072,-0.00026000000000000003,4e-05,6
30673,31997,-0.0002,-2e-05,5e-05,0.00011999999999999999,0.00037,0.00072,9e-05,-0.00063,6
30674,31998,0.00022999999999999998,8e-05,0.00011,0.00018999999999999998,0.00066,0.00086,-0.00022,0.00015,6
30675,31999,0.00022999999999999998,8e-05,0.00011,0.00018999999999999998,0.00066,0.00086,-0.00022,0.00015,6
30676,32000,0.00022999999999999998,8e-05,0.00011,0.00018999999999999998,0.00066,0.00086,-0.00022,0.00015,6
30677,32001,0.00022999999999999998,8e-05,0.00011,0.00018999999999999998,0.00066,0.00086,-0.00022,0.00015,6
30678,32002,0.00022999999999999998,8e-05,0.00011,0.00018999999999999998,0.00066,0.00086,-0.00022,0.00015,6
30679,32003,0.00022999999999999998,8e-05,0.00011,0.00018999999999999998,0.00066,0.00086,-0.00022,0.00015,6
30680,32004,0.00022999999999999998,8e-05,0.00011,0.00018999999999999998,0.00066,0.00086,-0.00022,0.00015,6
30681,32005,0.00022999999999999998,8e-05,0.00011,0.00018999999999999998,0.00066,0.00086,-0.00022,0.00015,6
30682,32006,0.00022999999999999998,8e-05,0.00011,0.00018999999999999998,0.00066,0.00086,-0.00022,0.00015,6
30683,32007,0.00022999999999999998,8e-05,0.00011,0.00018999999999999998,0.00066,0.00086,-0.00022,0.00015,6
30684,32008,0.00022999999999999998,8e-05,0.00011,0.00018999999999999998,0.00066,0.00086,-0.00022,0.00015,6
30685,32009,0.00022999999999999998,8e-05,0.00011,0.00018999999999999998,0.00066,0.00086,-0.00022,0.00015,6
30686,32010,0.00022999999999999998,8e-05,0.00011,0.00018999999999999998,0.00066,0.00086,-0.00022,0.00015,6
30687,32011,0.00022999999999999998,8e-05,0.00011,0.00018999999999999998,0.00066,0.00086,-0.00022,0.00015,6
30688,32012,0.00016999999999999999,-8e-05,-5.9999999999999995e-05,-2e-05,-0.00022999999999999998,-0.0006900000000000001,-0.00037999999999999997,0.0007099999999999999,6
30689,32013,0.00016999999999999999,-8e-05,-5.9999999999999995e-05,-2e-05,-0.00022999999999999998,-0.0006900000000000001,-0.00037999999999999997,0.0007099999999999999,6
30690,32014,0.00016999999999999999,-8e-05,-5.9999999999999995e-05,-2e-05,-0.00022999999999999998,-0.0006900000000000001,-0.00037999999999999997,0.0007099999999999999,6
30691,32015,0.00016999999999999999,-8e-05,-5.9999999999999995e-05,-2e-05,-0.00022999999999999998,-0.0006900000000000001,-0.00037999999999999997,0.0007099999999999999,6
30692,32016,0.00016999999999999999,-8e-05,-5.9999999999999995e-05,-2e-05,-0.00022999999999999998,-0.0006900000000000001,-0.00037999999999999997,0.0007099999999999999,6
30693,32017,0.00016999999999999999,-8e-05,-5.9999999999999995e-05,-2e-05,-0.00022999999999999998,-0.0006900000000000001,-0.00037999999999999997,0.0007099999999999999,6
30694,32018,5.9999999999999995e-05,2e-05,1e-05,-8e-05,-5.9999999999999995e-05,0.00047000000000000004,-0.00018999999999999998,0.00027,6
30695,32019,5.9999999999999995e-05,2e-05,1e-05,-8e-05,-5.9999999999999995e-05,0.00047000000000000004,-0.00018999999999999998,0.00027,6
30696,32020,5.9999999999999995e-05,2e-05,1e-05,-8e-05,-5.9999999999999995e-05,0.00047000000000000004,-0.00018999999999999998,0.00027,6
30697,32021,5.9999999999999995e-05,2e-05,1e-05,-8e-05,-5.9999999999999995e-05,0.00047000000000000004,-0.00018999999999999998,0.00027,6
30698,32022,5.9999999999999995e-05,2e-05,1e-05,-8e-05,-5.9999999999999995e-05,0.00047000000000000004,-0.00018999999999999998,0.00027,6
30699,32023,5.9999999999999995e-05,2e-05,1e-05,-8e-05,-5.9999999999999995e-05,0.00047000000000000004,-0.00018999999999999998,0.00027,6
30700,32024,5.9999999999999995e-05,2e-05,1e-05,-8e-05,-5.9999999999999995e-05,0.00047000000000000004,-0.00018999999999999998,0.00027,6
30701,32025,5.9999999999999995e-05,2e-05,1e-05,-8e-05,-5.9999999999999995e-05,0.00047000000000000004,-0.00018999999999999998,0.00027,6
30702,32026,5.9999999999999995e-05,2e-05,1e-05,-8e-05,-5.9999999999999995e-05,0.00047000000000000004,-0.00018999999999999998,0.00027,6
30703,32027,5.9999999999999995e-05,2e-05,1e-05,-8e-05,-5.9999999999999995e-05,0.00047000000000000004,-0.00018999999999999998,0.00027,6
30704,32028,5.9999999999999995e-05,2e-05,1e-05,-8e-05,-5.9999999999999995e-05,0.00047000000000000004,-0.00018999999999999998,0.00027,6
30705,32029,5.9999999999999995e-05,2e-05,1e-05,-8e-05,-5.9999999999999995e-05,0.00047000000000000004,-0.00018999999999999998,0.00027,6
30706,32030,5.9999999999999995e-05,2e-05,1e-05,-8e-05,-5.9999999999999995e-05,0.00047000000000000004,-0.00018999999999999998,0.00027,6
30707,32031,5.9999999999999995e-05,2e-05,1e-05,-8e-05,-5.9999999999999995e-05,0.00047000000000000004,-0.00018999999999999998,0.00027,6
30708,32032,5.9999999999999995e-05,2e-05,1e-05,-8e-05,-5.9999999999999995e-05,0.00047000000000000004,-0.00018999999999999998,0.00027,6
30709,32033,5.9999999999999995e-05,2e-05,1e-05,-8e-05,-5.9999999999999995e-05,0.00047000000000000004,-0.00018999999999999998,0.00027,6
30710,32034,5.9999999999999995e-05,2e-05,1e-05,-8e-05,-5.9999999999999995e-05,0.00047000000000000004,-0.00018999999999999998,0.00027,6
30711,32035,5.9999999999999995e-05,2e-05,1e-05,-8e-05,-5.9999999999999995e-05,0.00047000000000000004,-0.00018999999999999998,0.00027,6
30712,32036,5.9999999999999995e-05,2e-05,1e-05,-8e-05,-5.9999999999999995e-05,0.00047000000000000004,-0.00018999999999999998,0.00027,6
30713,32038,5.9999999999999995e-05,2e-05,1e-05,-8e-05,-5.9999999999999995e-05,0.00047000000000000004,-0.00018999999999999998,0.00027,6
30714,32040,5.9999999999999995e-05,2e-05,1e-05,-8e-05,-5.9999999999999995e-05,0.00047000000000000004,-0.00018999999999999998,0.00027,6
30715,32041,0.00018,0.0,0.0,0.00016999999999999999,0.00045999999999999996,0.00016,-0.00039,-0.00045,6
30716,32042,0.00018,0.0,0.0,0.00016999999999999999,0.00045999999999999996,0.00016,-0.00039,-0.00045,6
30717,32043,0.00018,0.0,0.0,0.00016999999999999999,0.00045999999999999996,0.00016,-0.00039,-0.00045,6
30718,32044,0.00018,0.0,0.0,0.00016999999999999999,0.00045999999999999996,0.00016,-0.00039,-0.00045,6
30719,32045,0.00018,0.0,0.0,0.00016999999999999999,0.00045999999999999996,0.00016,-0.00039,-0.00045,6
30720,32046,0.00018,0.0,0.0,0.00016999999999999999,0.00045999999999999996,0.00016,-0.00039,-0.00045,6
30721,32047,0.00018,0.0,0.0,0.00016999999999999999,0.00045999999999999996,0.00016,-0.00039,-0.00045,6
30722,32048,0.00018,0.0,0.0,0.00016999999999999999,0.00045999999999999996,0.00016,-0.00039,-0.00045,6
30723,32049,0.00018,0.0,0.0,0.00016999999999999999,0.00045999999999999996,0.00016,-0.00039,-0.00045,6
30724,32050,-5e-05,-7e-05,-9e-05,-0.00011,-0.00029,-0.00064,-0.00013000000000000002,0.0005200000000000001,6
30725,32051,-9e-05,-5e-05,-2.9999999999999997e-05,-4e-05,-1e-05,-0.00013000000000000002,0.00025,-0.00022,6
30726,32052,-9e-05,-5e-05,-2.9999999999999997e-05,-4e-05,-1e-05,-0.00013000000000000002,0.00025,-0.00022,6
30727,32053,-9e-05,-5e-05,-2.9999999999999997e-05,-4e-05,-1e-05,-0.00013000000000000002,0.00025,-0.00022,6
30728,32054,-9e-05,-5e-05,-2.9999999999999997e-05,-4e-05,-1e-05,-0.00013000000000000002,0.00025,-0.00022,6
30729,32055,-9e-05,-5e-05,-2.9999999999999997e-05,-4e-05,-1e-05,-0.00013000000000000002,0.00025,-0.00022,6
30730,32056,-9e-05,-5e-05,-2.9999999999999997e-05,-4e-05,-1e-05,-0.00013000000000000002,0.00025,-0.00022,6
30731,32057,-9e-05,-5e-05,-2.9999999999999997e-05,-4e-05,-1e-05,-0.00013000000000000002,0.00025,-0.00022,6
30732,32058,-9e-05,-5e-05,-2.9999999999999997e-05,-4e-05,-1e-05,-0.00013000000000000002,0.00025,-0.00022,6
30733,32059,-9e-05,-5e-05,-2.9999999999999997e-05,-4e-05,-1e-05,-0.00013000000000000002,0.00025,-0.00022,6
30734,32060,-9e-05,-5e-05,-2.9999999999999997e-05,-4e-05,-1e-05,-0.00013000000000000002,0.00025,-0.00022,6
30735,32061,-9e-05,-5e-05,-2.9999999999999997e-05,-4e-05,-1e-05,-0.00013000000000000002,0.00025,-0.00022,6
30736,32062,-9e-05,-5e-05,-2.9999999999999997e-05,-4e-05,-1e-05,-0.00013000000000000002,0.00025,-0.00022,6
30737,32063,-9e-05,-5e-05,-2.9999999999999997e-05,-4e-05,-1e-05,-0.00013000000000000002,0.00025,-0.00022,6
30738,32064,-9e-05,-5e-05,-2.9999999999999997e-05,-4e-05,-1e-05,-0.00013000000000000002,0.00025,-0.00022,6
30739,32065,-9e-05,-5e-05,-2.9999999999999997e-05,-4e-05,-1e-05,-0.00013000000000000002,0.00025,-0.00022,6
30740,32066,-9e-05,-5e-05,-2.9999999999999997e-05,-4e-05,-1e-05,-0.00013000000000000002,0.00025,-0.00022,6
30741,32067,-9e-05,-5e-05,-2.9999999999999997e-05,-4e-05,-1e-05,-0.00013000000000000002,0.00025,-0.00022,6
30742,32068,-9e-05,-5e-05,-2.9999999999999997e-05,-4e-05,-1e-05,-0.00013000000000000002,0.00025,-0.00022,6
30743,32069,-9e-05,-5e-05,-2.9999999999999997e-05,-4e-05,-1e-05,-0.00013000000000000002,0.00025,-0.00022,6
30744,32070,-9e-05,-5e-05,-2.9999999999999997e-05,-4e-05,-1e-05,-0.00013000000000000002,0.00025,-0.00022,6
30745,32071,-9e-05,-5e-05,-2.9999999999999997e-05,-4e-05,-1e-05,-0.00013000000000000002,0.00025,-0.00022,6
30746,32072,-9e-05,-5e-05,-2.9999999999999997e-05,-4e-05,-1e-05,-0.00013000000000000002,0.00025,-0.00022,6
30747,32073,-9e-05,-5e-05,-2.9999999999999997e-05,-4e-05,-1e-05,-0.00013000000000000002,0.00025,-0.00022,6
30748,32074,-0.00027,4e-05,5.9999999999999995e-05,9e-05,-0.00035,0.00037,-0.00047999999999999996,-0.00088,6
30749,32075,-0.00016999999999999999,1e-05,4e-05,2e-05,5.9999999999999995e-05,2.9999999999999997e-05,-5.9999999999999995e-05,0.00015,6
30750,32076,-0.00016999999999999999,1e-05,4e-05,2e-05,5.9999999999999995e-05,2.9999999999999997e-05,-5.9999999999999995e-05,0.00015,6
30751,32077,-0.00016999999999999999,1e-05,4e-05,2e-05,5.9999999999999995e-05,2.9999999999999997e-05,-5.9999999999999995e-05,0.00015,6
30752,32078,5e-05,7e-05,0.00011,0.00021,0.00078,0.00022999999999999998,0.00054,9e-05,6
30753,32079,5e-05,7e-05,0.00011,0.00021,0.00078,0.00022999999999999998,0.00054,9e-05,6
30754,32080,5e-05,7e-05,0.00011,0.00021,0.00078,0.00022999999999999998,0.00054,9e-05,6
30755,32081,5e-05,7e-05,0.00011,0.00021,0.00078,0.00022999999999999998,0.00054,9e-05,6
30756,32082,5e-05,7e-05,0.00011,0.00021,0.00078,0.00022999999999999998,0.00054,9e-05,6
30757,32083,5e-05,7e-05,0.00011,0.00021,0.00078,0.00022999999999999998,0.00054,9e-05,6
30758,32084,5e-05,7e-05,0.00011,0.00021,0.00078,0.00022999999999999998,0.00054,9e-05,6
30759,32085,5e-05,7e-05,0.00011,0.00021,0.00078,0.00022999999999999998,0.00054,9e-05,6
30760,32086,5e-05,7e-05,0.00011,0.00021,0.00078,0.00022999999999999998,0.00054,9e-05,6
30761,32089,5e-05,7e-05,0.00011,0.00021,0.00078,0.00022999999999999998,0.00054,9e-05,6
30762,32090,5e-05,7e-05,0.00011,0.00021,0.00078,0.00022999999999999998,0.00054,9e-05,6
30763,32091,5e-05,7e-05,0.00011,0.00021,0.00078,0.00022999999999999998,0.00054,9e-05,6
30764,32092,5e-05,7e-05,0.00011,0.00021,0.00078,0.00022999999999999998,0.00054,9e-05,6
30765,32093,5e-05,7e-05,0.00011,0.00021,0.00078,0.00022999999999999998,0.00054,9e-05,6
30766,32094,-4e-05,-2e-05,-4e-05,-0.0001,-5e-05,-0.00025,9e-05,-0.00045999999999999996,6
30767,32095,-4e-05,-2e-05,-4e-05,-0.0001,-5e-05,-0.00025,9e-05,-0.00045999999999999996,6
30768,32096,0.00016,-2e-05,0.0,-5.9999999999999995e-05,-0.00025,-0.0005200000000000001,-0.00028,-0.0001,6
30769,32097,0.00016,-2e-05,0.0,-5.9999999999999995e-05,-0.00025,-0.0005200000000000001,-0.00028,-0.0001,6
30770,32098,0.00016,-2e-05,0.0,-5.9999999999999995e-05,-0.00025,-0.0005200000000000001,-0.00028,-0.0001,6
30771,32099,0.00016,-2e-05,0.0,-5.9999999999999995e-05,-0.00025,-0.0005200000000000001,-0.00028,-0.0001,6
30772,32100,0.00016,-2e-05,0.0,-5.9999999999999995e-05,-0.00025,-0.0005200000000000001,-0.00028,-0.0001,6
30773,32101,0.00016,-2e-05,0.0,-5.9999999999999995e-05,-0.00025,-0.0005200000000000001,-0.00028,-0.0001,6
30774,32102,0.00016,-2e-05,0.0,-5.9999999999999995e-05,-0.00025,-0.0005200000000000001,-0.00028,-0.0001,6
30775,32103,0.00016,-2e-05,0.0,-5.9999999999999995e-05,-0.00025,-0.0005200000000000001,-0.00028,-0.0001,6
30776,32104,0.00016,-2e-05,0.0,-5.9999999999999995e-05,-0.00025,-0.0005200000000000001,-0.00028,-0.0001,6
30777,32105,0.00016,-2e-05,0.0,-5.9999999999999995e-05,-0.00025,-0.0005200000000000001,-0.00028,-0.0001,6
30778,32106,0.00016,-2e-05,0.0,-5.9999999999999995e-05,-0.00025,-0.0005200000000000001,-0.00028,-0.0001,6
30779,32107,0.00016,-2e-05,0.0,-5.9999999999999995e-05,-0.00025,-0.0005200000000000001,-0.00028,-0.0001,6
30780,32108,0.00016,-2e-05,0.0,-5.9999999999999995e-05,-0.00025,-0.0005200000000000001,-0.00028,-0.0001,6
30781,32109,0.00016,-2e-05,0.0,-5.9999999999999995e-05,-0.00025,-0.0005200000000000001,-0.00028,-0.0001,6
30782,32110,0.00016,-2e-05,0.0,-5.9999999999999995e-05,-0.00025,-0.0005200000000000001,-0.00028,-0.0001,6
30783,32111,0.00016,-2e-05,0.0,-5.9999999999999995e-05,-0.00025,-0.0005200000000000001,-0.00028,-0.0001,6
30784,32112,0.00016,-2e-05,0.0,-5.9999999999999995e-05,-0.00025,-0.0005200000000000001,-0.00028,-0.0001,6
30785,32113,0.00016,-2e-05,0.0,-5.9999999999999995e-05,-0.00025,-0.0005200000000000001,-0.00028,-0.0001,6
30786,32114,0.00016,-2e-05,0.0,-5.9999999999999995e-05,-0.00025,-0.0005200000000000001,-0.00028,-0.0001,6
30787,32115,0.00016,-2e-05,0.0,-5.9999999999999995e-05,-0.00025,-0.0005200000000000001,-0.00028,-0.0001,6
30788,32116,0.00016,-2e-05,0.0,-5.9999999999999995e-05,-0.00025,-0.0005200000000000001,-0.00028,-0.0001,6
30789,32117,0.00016,-2e-05,0.0,-5.9999999999999995e-05,-0.00025,-0.0005200000000000001,-0.00028,-0.0001,6
30790,32118,0.00016,-2e-05,0.0,-5.9999999999999995e-05,-0.00025,-0.0005200000000000001,-0.00028,-0.0001,6
30791,32119,0.00016,-2e-05,0.0,-5.9999999999999995e-05,-0.00025,-0.0005200000000000001,-0.00028,-0.0001,6
30792,32120,0.00016,-2e-05,0.0,-5.9999999999999995e-05,-0.00025,-0.0005200000000000001,-0.00028,-0.0001,6
30793,32121,0.00016,-2e-05,0.0,-5.9999999999999995e-05,-0.00025,-0.0005200000000000001,-0.00028,-0.0001,6
30794,32122,0.00016,-2e-05,0.0,-5.9999999999999995e-05,-0.00025,-0.0005200000000000001,-0.00028,-0.0001,6
30795,32123,0.00016,-2e-05,0.0,-5.9999999999999995e-05,-0.00025,-0.0005200000000000001,-0.00028,-0.0001,6
30796,32124,8e-05,2e-05,0.0,0.00022,0.00032,-5.9999999999999995e-05,8e-05,0.0,6
30797,32125,8e-05,2e-05,0.0,0.00022,0.00032,-5.9999999999999995e-05,8e-05,0.0,6
30798,32126,5.9999999999999995e-05,4e-05,-2e-05,-2e-05,-0.00011999999999999999,-0.00011,0.0005,5e-05,6
30799,32127,5.9999999999999995e-05,4e-05,-2e-05,-2e-05,-0.00011999999999999999,-0.00011,0.0005,5e-05,6
30800,32128,5.9999999999999995e-05,4e-05,-2e-05,-2e-05,-0.00011999999999999999,-0.00011,0.0005,5e-05,6
30801,32129,5.9999999999999995e-05,4e-05,-2e-05,-2e-05,-0.00011999999999999999,-0.00011,0.0005,5e-05,6
30802,32130,5.9999999999999995e-05,4e-05,-2e-05,-2e-05,-0.00011999999999999999,-0.00011,0.0005,5e-05,6
30803,32131,5.9999999999999995e-05,4e-05,-2e-05,-2e-05,-0.00011999999999999999,-0.00011,0.0005,5e-05,6
30804,32132,5.9999999999999995e-05,4e-05,-2e-05,-2e-05,-0.00011999999999999999,-0.00011,0.0005,5e-05,6
30805,32133,5.9999999999999995e-05,4e-05,-2e-05,-2e-05,-0.00011999999999999999,-0.00011,0.0005,5e-05,6
30806,32134,5.9999999999999995e-05,4e-05,-2e-05,-2e-05,-0.00011999999999999999,-0.00011,0.0005,5e-05,6
30807,32135,5.9999999999999995e-05,4e-05,-2e-05,-2e-05,-0.00011999999999999999,-0.00011,0.0005,5e-05,6
30808,32136,5.9999999999999995e-05,4e-05,-2e-05,-2e-05,-0.00011999999999999999,-0.00011,0.0005,5e-05,6
30809,32138,5.9999999999999995e-05,4e-05,-2e-05,-2e-05,-0.00011999999999999999,-0.00011,0.0005,5e-05,6
30810,32139,5.9999999999999995e-05,4e-05,-2e-05,-2e-05,-0.00011999999999999999,-0.00011,0.0005,5e-05,6
30811,32140,0.0,-0.00016,-9e-05,-0.0002,-0.00027,-0.00022999999999999998,-0.00073,-0.00023999999999999998,6
30812,32141,0.0,-0.00016,-9e-05,-0.0002,-0.00027,-0.00022999999999999998,-0.00073,-0.00023999999999999998,6
30813,32142,0.0,-0.00016,-9e-05,-0.0002,-0.00027,-0.00022999999999999998,-0.00073,-0.00023999999999999998,6
30814,32143,0.0,-0.00016,-9e-05,-0.0002,-0.00027,-0.00022999999999999998,-0.00073,-0.00023999999999999998,6
30815,32144,0.0,-0.00016,-9e-05,-0.0002,-0.00027,-0.00022999999999999998,-0.00073,-0.00023999999999999998,6
30816,32145,0.0,-0.00016,-9e-05,-0.0002,-0.00027,-0.00022999999999999998,-0.00073,-0.00023999999999999998,6
30817,32146,0.0,-0.00016,-9e-05,-0.0002,-0.00027,-0.00022999999999999998,-0.00073,-0.00023999999999999998,6
30818,32147,2e-05,1e-05,-2e-05,-5e-05,-0.00033,-0.00075,-0.00031,9e-05,6
30819,32148,2e-05,1e-05,-2e-05,-5e-05,-0.00033,-0.00075,-0.00031,9e-05,6
30820,32149,2e-05,1e-05,-2e-05,-5e-05,-0.00033,-0.00075,-0.00031,9e-05,6
30821,32150,2e-05,1e-05,-2e-05,-5e-05,-0.00033,-0.00075,-0.00031,9e-05,6
30822,32151,2e-05,1e-05,-2e-05,-5e-05,-0.00033,-0.00075,-0.00031,9e-05,6
30823,32152,2e-05,1e-05,-2e-05,-5e-05,-0.00033,-0.00075,-0.00031,9e-05,6
30824,32153,2e-05,1e-05,-2e-05,-5e-05,-0.00033,-0.00075,-0.00031,9e-05,6
30825,32154,2e-05,8e-05,5e-05,-5.9999999999999995e-05,-0.00021,2e-05,4e-05,0.0001,6
30826,32155,2e-05,8e-05,5e-05,-5.9999999999999995e-05,-0.00021,2e-05,4e-05,0.0001,6
30827,32156,-9e-05,-9e-05,-8e-05,-0.00014,-0.00015,-0.0005099999999999999,-0.00061,-0.00023999999999999998,6
30828,32157,-9e-05,-9e-05,-8e-05,-0.00014,-0.00015,-0.0005099999999999999,-0.00061,-0.00023999999999999998,6
30829,32158,-9e-05,-9e-05,-8e-05,-0.00014,-0.00015,-0.0005099999999999999,-0.00061,-0.00023999999999999998,6
30830,32159,-9e-05,-9e-05,-8e-05,-0.00014,-0.00015,-0.0005099999999999999,-0.00061,-0.00023999999999999998,6
30831,32160,-9e-05,-9e-05,-8e-05,-0.00014,-0.00015,-0.0005099999999999999,-0.00061,-0.00023999999999999998,6
30832,32161,-9e-05,-9e-05,-8e-05,-0.00014,-0.00015,-0.0005099999999999999,-0.00061,-0.00023999999999999998,6
30833,32162,-9e-05,-9e-05,-8e-05,-0.00014,-0.00015,-0.0005099999999999999,-0.00061,-0.00023999999999999998,6
30834,32163,-9e-05,-9e-05,-8e-05,-0.00014,-0.00015,-0.0005099999999999999,-0.00061,-0.00023999999999999998,6
30835,32164,-9e-05,-9e-05,-8e-05,-0.00014,-0.00015,-0.0005099999999999999,-0.00061,-0.00023999999999999998,6
30836,32165,-9e-05,-9e-05,-8e-05,-0.00014,-0.00015,-0.0005099999999999999,-0.00061,-0.00023999999999999998,6
30837,32166,-9e-05,-9e-05,-8e-05,-0.00014,-0.00015,-0.0005099999999999999,-0.00061,-0.00023999999999999998,6
30838,32167,-9e-05,-9e-05,-8e-05,-0.00014,-0.00015,-0.0005099999999999999,-0.00061,-0.00023999999999999998,6
30839,32168,-4e-05,-2e-05,1e-05,0.0001,0.00018,-0.00015,9e-05,0.00016999999999999999,6
30840,32169,-4e-05,-2e-05,1e-05,0.0001,0.00018,-0.00015,9e-05,0.00016999999999999999,6
30841,32170,-4e-05,-2e-05,1e-05,0.0001,0.00018,-0.00015,9e-05,0.00016999999999999999,6
30842,32171,-4e-05,-2e-05,1e-05,0.0001,0.00018,-0.00015,9e-05,0.00016999999999999999,6
30843,32172,-4e-05,-2e-05,1e-05,0.0001,0.00018,-0.00015,9e-05,0.00016999999999999999,6
30844,32173,-4e-05,-2e-05,1e-05,0.0001,0.00018,-0.00015,9e-05,0.00016999999999999999,6
30845,32174,-4e-05,-2e-05,1e-05,0.0001,0.00018,-0.00015,9e-05,0.00016999999999999999,6
30846,32175,-4e-05,-2e-05,1e-05,0.0001,0.00018,-0.00015,9e-05,0.00016999999999999999,6
30847,32176,-4e-05,-2e-05,1e-05,0.0001,0.00018,-0.00015,9e-05,0.00016999999999999999,6
30848,32177,-0.0002,-8e-05,-8e-05,2.9999999999999997e-05,2e-05,0.00021,-0.00011999999999999999,-0.00033,6
30849,32178,-0.0002,-8e-05,-8e-05,2.9999999999999997e-05,2e-05,0.00021,-0.00011999999999999999,-0.00033,6
30850,32179,-0.0002,-8e-05,-8e-05,2.9999999999999997e-05,2e-05,0.00021,-0.00011999999999999999,-0.00033,6
30851,32180,-0.0002,-8e-05,-8e-05,2.9999999999999997e-05,2e-05,0.00021,-0.00011999999999999999,-0.00033,6
30852,32181,-0.0002,-8e-05,-8e-05,2.9999999999999997e-05,2e-05,0.00021,-0.00011999999999999999,-0.00033,6
30853,32182,-0.0002,-8e-05,-8e-05,2.9999999999999997e-05,2e-05,0.00021,-0.00011999999999999999,-0.00033,6
30854,32183,-0.0002,-8e-05,-8e-05,2.9999999999999997e-05,2e-05,0.00021,-0.00011999999999999999,-0.00033,6
30855,32184,-0.0002,-8e-05,-8e-05,2.9999999999999997e-05,2e-05,0.00021,-0.00011999999999999999,-0.00033,6
30856,32185,-0.0002,-8e-05,-8e-05,2.9999999999999997e-05,2e-05,0.00021,-0.00011999999999999999,-0.00033,6
30857,32186,-0.0002,-8e-05,-8e-05,2.9999999999999997e-05,2e-05,0.00021,-0.00011999999999999999,-0.00033,6
30858,32188,-0.0002,-8e-05,-8e-05,2.9999999999999997e-05,2e-05,0.00021,-0.00011999999999999999,-0.00033,6
30859,32189,-0.0002,-8e-05,-8e-05,2.9999999999999997e-05,2e-05,0.00021,-0.00011999999999999999,-0.00033,6
30860,32190,-0.0002,-8e-05,-8e-05,2.9999999999999997e-05,2e-05,0.00021,-0.00011999999999999999,-0.00033,6
30861,32191,-0.0002,-8e-05,-8e-05,2.9999999999999997e-05,2e-05,0.00021,-0.00011999999999999999,-0.00033,6
30862,32192,-0.0002,-8e-05,-8e-05,2.9999999999999997e-05,2e-05,0.00021,-0.00011999999999999999,-0.00033,6
30863,32193,-0.0002,-8e-05,-8e-05,2.9999999999999997e-05,2e-05,0.00021,-0.00011999999999999999,-0.00033,6
30864,32194,-0.0002,-8e-05,-8e-05,2.9999999999999997e-05,2e-05,0.00021,-0.00011999999999999999,-0.00033,6
30865,32195,-0.0002,-8e-05,-8e-05,2.9999999999999997e-05,2e-05,0.00021,-0.00011999999999999999,-0.00033,6
30866,32196,-0.0002,-8e-05,-8e-05,2.9999999999999997e-05,2e-05,0.00021,-0.00011999999999999999,-0.00033,6
30867,32197,-0.0002,-8e-05,-8e-05,2.9999999999999997e-05,2e-05,0.00021,-0.00011999999999999999,-0.00033,6
30868,32198,-0.0002,-8e-05,-8e-05,2.9999999999999997e-05,2e-05,0.00021,-0.00011999999999999999,-0.00033,6
30869,32199,0.0,0.0001,1e-05,-2.9999999999999997e-05,-0.00032,0.00031,0.00042,0.00015,6
30870,32200,0.0,0.0001,1e-05,-2.9999999999999997e-05,-0.00032,0.00031,0.00042,0.00015,6
30871,32201,-0.00022999999999999998,-0.0001,-8e-05,-0.00013000000000000002,-0.00022999999999999998,-7e-05,-0.00023999999999999998,0.00018999999999999998,6
30872,32202,-0.00022999999999999998,-0.0001,-8e-05,-0.00013000000000000002,-0.00022999999999999998,-7e-05,-0.00023999999999999998,0.00018999999999999998,6
30873,32203,-0.00022999999999999998,-0.0001,-8e-05,-0.00013000000000000002,-0.00022999999999999998,-7e-05,-0.00023999999999999998,0.00018999999999999998,6
30874,32204,-0.00022999999999999998,-0.0001,-8e-05,-0.00013000000000000002,-0.00022999999999999998,-7e-05,-0.00023999999999999998,0.00018999999999999998,6
30875,32205,-0.00022999999999999998,-0.0001,-8e-05,-0.00013000000000000002,-0.00022999999999999998,-7e-05,-0.00023999999999999998,0.00018999999999999998,6
30876,32206,-0.00022999999999999998,-0.0001,-8e-05,-0.00013000000000000002,-0.00022999999999999998,-7e-05,-0.00023999999999999998,0.00018999999999999998,6
30877,32207,-0.00022999999999999998,-0.0001,-8e-05,-0.00013000000000000002,-0.00022999999999999998,-7e-05,-0.00023999999999999998,0.00018999999999999998,6
30878,32208,-0.00022999999999999998,-0.0001,-8e-05,-0.00013000000000000002,-0.00022999999999999998,-7e-05,-0.00023999999999999998,0.00018999999999999998,6
30879,32209,-0.00022999999999999998,-0.0001,-8e-05,-0.00013000000000000002,-0.00022999999999999998,-7e-05,-0.00023999999999999998,0.00018999999999999998,6
30880,32210,-0.00022999999999999998,-0.0001,-8e-05,-0.00013000000000000002,-0.00022999999999999998,-7e-05,-0.00023999999999999998,0.00018999999999999998,6
30881,32211,-0.00022999999999999998,-0.0001,-8e-05,-0.00013000000000000002,-0.00022999999999999998,-7e-05,-0.00023999999999999998,0.00018999999999999998,6
30882,32212,-0.00022999999999999998,-0.0001,-8e-05,-0.00013000000000000002,-0.00022999999999999998,-7e-05,-0.00023999999999999998,0.00018999999999999998,6
30883,32213,-0.00022999999999999998,-0.0001,-8e-05,-0.00013000000000000002,-0.00022999999999999998,-7e-05,-0.00023999999999999998,0.00018999999999999998,6
30884,32214,-0.00022999999999999998,-0.0001,-8e-05,-0.00013000000000000002,-0.00022999999999999998,-7e-05,-0.00023999999999999998,0.00018999999999999998,6
30885,32215,-2.9999999999999997e-05,0.0,1e-05,5e-05,-0.00016999999999999999,0.0005200000000000001,0.00018999999999999998,-0.00029,6
30886,32216,0.00054,4e-05,0.0,-1e-05,-0.00013000000000000002,0.00021,0.00045,0.0,6
30887,32217,0.00054,4e-05,0.0,-1e-05,-0.00013000000000000002,0.00021,0.00045,0.0,6
30888,32218,0.00054,4e-05,0.0,-1e-05,-0.00013000000000000002,0.00021,0.00045,0.0,6
30889,32219,0.00054,4e-05,0.0,-1e-05,-0.00013000000000000002,0.00021,0.00045,0.0,6
30890,32220,0.00054,4e-05,0.0,-1e-05,-0.00013000000000000002,0.00021,0.00045,0.0,6
30891,32221,0.00054,4e-05,0.0,-1e-05,-0.00013000000000000002,0.00021,0.00045,0.0,6
30892,32222,0.00054,4e-05,0.0,-1e-05,-0.00013000000000000002,0.00021,0.00045,0.0,6
30893,32223,0.00054,4e-05,0.0,-1e-05,-0.00013000000000000002,0.00021,0.00045,0.0,6
30894,32224,0.00054,4e-05,0.0,-1e-05,-0.00013000000000000002,0.00021,0.00045,0.0,6
30895,32225,0.00054,4e-05,0.0,-1e-05,-0.00013000000000000002,0.00021,0.00045,0.0,6
30896,32226,0.00054,4e-05,0.0,-1e-05,-0.00013000000000000002,0.00021,0.00045,0.0,6
30897,32227,0.00054,4e-05,0.0,-1e-05,-0.00013000000000000002,0.00021,0.00045,0.0,6
30898,32228,0.0,4e-05,2.9999999999999997e-05,2e-05,-5.9999999999999995e-05,0.0,-0.0007,-0.00055,6
30899,32229,0.0,4e-05,2.9999999999999997e-05,2e-05,-5.9999999999999995e-05,0.0,-0.0007,-0.00055,6
30900,32230,0.0,4e-05,2.9999999999999997e-05,2e-05,-5.9999999999999995e-05,0.0,-0.0007,-0.00055,6
30901,32231,0.0,4e-05,2.9999999999999997e-05,2e-05,-5.9999999999999995e-05,0.0,-0.0007,-0.00055,6
30902,32232,0.0,4e-05,2.9999999999999997e-05,2e-05,-5.9999999999999995e-05,0.0,-0.0007,-0.00055,6
30903,32233,0.0,4e-05,2.9999999999999997e-05,2e-05,-5.9999999999999995e-05,0.0,-0.0007,-0.00055,6
30904,32234,0.0,4e-05,2.9999999999999997e-05,2e-05,-5.9999999999999995e-05,0.0,-0.0007,-0.00055,6
30905,32235,0.0,4e-05,2.9999999999999997e-05,2e-05,-5.9999999999999995e-05,0.0,-0.0007,-0.00055,6
30906,32236,0.0,4e-05,2.9999999999999997e-05,2e-05,-5.9999999999999995e-05,0.0,-0.0007,-0.00055,6
30907,32238,0.0,4e-05,2.9999999999999997e-05,2e-05,-5.9999999999999995e-05,0.0,-0.0007,-0.00055,6
30908,32239,0.0,4e-05,2.9999999999999997e-05,2e-05,-5.9999999999999995e-05,0.0,-0.0007,-0.00055,6
30909,32240,0.0,4e-05,2.9999999999999997e-05,2e-05,-5.9999999999999995e-05,0.0,-0.0007,-0.00055,6
30910,32241,0.0,4e-05,2.9999999999999997e-05,2e-05,-5.9999999999999995e-05,0.0,-0.0007,-0.00055,6
30911,32242,0.0,4e-05,2.9999999999999997e-05,2e-05,-5.9999999999999995e-05,0.0,-0.0007,-0.00055,6
30912,32243,0.0,4e-05,2.9999999999999997e-05,2e-05,-5.9999999999999995e-05,0.0,-0.0007,-0.00055,6
30913,32244,2e-05,-1e-05,0.0,-1e-05,-0.0001,0.00011999999999999999,0.00033,-4e-05,6
30914,32245,2e-05,-1e-05,0.0,-1e-05,-0.0001,0.00011999999999999999,0.00033,-4e-05,6
30915,32246,2e-05,-1e-05,0.0,-1e-05,-0.0001,0.00011999999999999999,0.00033,-4e-05,6
30916,32247,2e-05,-1e-05,0.0,-1e-05,-0.0001,0.00011999999999999999,0.00033,-4e-05,6
30917,32248,2e-05,-1e-05,0.0,-1e-05,-0.0001,0.00011999999999999999,0.00033,-4e-05,6
30918,32249,2e-05,-1e-05,0.0,-1e-05,-0.0001,0.00011999999999999999,0.00033,-4e-05,6
30919,32250,2e-05,-1e-05,0.0,-1e-05,-0.0001,0.00011999999999999999,0.00033,-4e-05,6
30920,32251,2e-05,-1e-05,0.0,-1e-05,-0.0001,0.00011999999999999999,0.00033,-4e-05,6
30921,32252,4e-05,-2.9999999999999997e-05,-2.9999999999999997e-05,-9e-05,-0.00018,-0.00029,2.9999999999999997e-05,0.00013000000000000002,6
30922,32253,-0.00018,-2e-05,2.9999999999999997e-05,5e-05,0.00044,0.00045999999999999996,-0.00041,-0.00079,6
30923,32254,-0.00018,-2e-05,2.9999999999999997e-05,5e-05,0.00044,0.00045999999999999996,-0.00041,-0.00079,6
30924,32255,-0.00018,-2e-05,2.9999999999999997e-05,5e-05,0.00044,0.00045999999999999996,-0.00041,-0.00079,6
30925,32256,-0.00018,-2e-05,2.9999999999999997e-05,5e-05,0.00044,0.00045999999999999996,-0.00041,-0.00079,6
30926,32258,-0.00018,-2e-05,2.9999999999999997e-05,5e-05,0.00044,0.00045999999999999996,-0.00041,-0.00079,6
30927,32259,-0.00018,-2e-05,2.9999999999999997e-05,5e-05,0.00044,0.00045999999999999996,-0.00041,-0.00079,6
30928,32260,-0.00018,-2e-05,2.9999999999999997e-05,5e-05,0.00044,0.00045999999999999996,-0.00041,-0.00079,6
30929,32261,-0.00018,-2e-05,2.9999999999999997e-05,5e-05,0.00044,0.00045999999999999996,-0.00041,-0.00079,6
30930,32262,-0.00018,-2e-05,2.9999999999999997e-05,5e-05,0.00044,0.00045999999999999996,-0.00041,-0.00079,6
30931,32263,-0.00018,-2e-05,2.9999999999999997e-05,5e-05,0.00044,0.00045999999999999996,-0.00041,-0.00079,6
30932,32264,-0.00018,-2e-05,2.9999999999999997e-05,5e-05,0.00044,0.00045999999999999996,-0.00041,-0.00079,6
30933,32265,-0.00018,-2e-05,2.9999999999999997e-05,5e-05,0.00044,0.00045999999999999996,-0.00041,-0.00079,6
30934,32266,-0.00018,-2e-05,2.9999999999999997e-05,5e-05,0.00044,0.00045999999999999996,-0.00041,-0.00079,6
30935,32267,-0.00018,-2e-05,2.9999999999999997e-05,5e-05,0.00044,0.00045999999999999996,-0.00041,-0.00079,6
30936,32268,-0.00018,-2e-05,2.9999999999999997e-05,5e-05,0.00044,0.00045999999999999996,-0.00041,-0.00079,6
30937,32269,-0.00018,-2e-05,2.9999999999999997e-05,5e-05,0.00044,0.00045999999999999996,-0.00041,-0.00079,6
30938,32270,-0.00018,-2e-05,2.9999999999999997e-05,5e-05,0.00044,0.00045999999999999996,-0.00041,-0.00079,6
30939,32271,-0.00018,-2e-05,2.9999999999999997e-05,5e-05,0.00044,0.00045999999999999996,-0.00041,-0.00079,6
30940,32272,-0.00018,-2e-05,2.9999999999999997e-05,5e-05,0.00044,0.00045999999999999996,-0.00041,-0.00079,6
30941,32273,-0.00018,-2e-05,2.9999999999999997e-05,5e-05,0.00044,0.00045999999999999996,-0.00041,-0.00079,6
30942,32274,-0.00018,-2e-05,2.9999999999999997e-05,5e-05,0.00044,0.00045999999999999996,-0.00041,-0.00079,6
30943,32275,-5.9999999999999995e-05,-5.9999999999999995e-05,-2e-05,-0.00016999999999999999,7e-05,8e-05,1e-05,-5e-05,6
30944,32276,0.0002,8e-05,5e-05,2.9999999999999997e-05,-9e-05,-0.00014,0.0002,0.00101,6
30945,32277,0.0002,8e-05,5e-05,2.9999999999999997e-05,-9e-05,-0.00014,0.0002,0.00101,6
30946,32278,0.0002,8e-05,5e-05,2.9999999999999997e-05,-9e-05,-0.00014,0.0002,0.00101,6
30947,32279,0.0002,8e-05,5e-05,2.9999999999999997e-05,-9e-05,-0.00014,0.0002,0.00101,6
30948,32280,0.0002,8e-05,5e-05,2.9999999999999997e-05,-9e-05,-0.00014,0.0002,0.00101,6
30949,32281,0.0002,8e-05,5e-05,2.9999999999999997e-05,-9e-05,-0.00014,0.0002,0.00101,6
30950,32282,0.0002,8e-05,5e-05,2.9999999999999997e-05,-9e-05,-0.00014,0.0002,0.00101,6
30951,32283,0.0002,8e-05,5e-05,2.9999999999999997e-05,-9e-05,-0.00014,0.0002,0.00101,6
30952,32284,0.0002,8e-05,5e-05,2.9999999999999997e-05,-9e-05,-0.00014,0.0002,0.00101,6
30953,32285,0.0002,8e-05,5e-05,2.9999999999999997e-05,-9e-05,-0.00014,0.0002,0.00101,6
30954,32286,0.0002,8e-05,5e-05,2.9999999999999997e-05,-9e-05,-0.00014,0.0002,0.00101,6
30955,32289,0.0002,8e-05,5e-05,2.9999999999999997e-05,-9e-05,-0.00014,0.0002,0.00101,6
30956,32290,0.0002,8e-05,5e-05,2.9999999999999997e-05,-9e-05,-0.00014,0.0002,0.00101,6
30957,32291,0.0002,8e-05,5e-05,2.9999999999999997e-05,-9e-05,-0.00014,0.0002,0.00101,6
30958,32292,0.0002,8e-05,5e-05,2.9999999999999997e-05,-9e-05,-0.00014,0.0002,0.00101,6
30959,32293,0.0002,8e-05,5e-05,2.9999999999999997e-05,-9e-05,-0.00014,0.0002,0.00101,6
30960,32294,0.0002,8e-05,5e-05,2.9999999999999997e-05,-9e-05,-0.00014,0.0002,0.00101,6
30961,32295,0.0002,8e-05,5e-05,2.9999999999999997e-05,-9e-05,-0.00014,0.0002,0.00101,6
30962,32296,0.0002,8e-05,5e-05,2.9999999999999997e-05,-9e-05,-0.00014,0.0002,0.00101,6
30963,32297,-2e-05,-7e-05,-7e-05,-2e-05,-5e-05,-0.00036,-0.00013000000000000002,-0.00036,6
30964,32298,-2e-05,-7e-05,-7e-05,-2e-05,-5e-05,-0.00036,-0.00013000000000000002,-0.00036,6
30965,32299,0.00016999999999999999,5e-05,-1e-05,2.9999999999999997e-05,0.00028,0.00039,-0.00014,0.00027,6
30966,32300,0.00016999999999999999,5e-05,-1e-05,2.9999999999999997e-05,0.00028,0.00039,-0.00014,0.00027,6
30967,32301,0.00016999999999999999,5e-05,-1e-05,2.9999999999999997e-05,0.00028,0.00039,-0.00014,0.00027,6
30968,32302,0.00016999999999999999,5e-05,-1e-05,2.9999999999999997e-05,0.00028,0.00039,-0.00014,0.00027,6
30969,32304,0.00016999999999999999,5e-05,-1e-05,2.9999999999999997e-05,0.00028,0.00039,-0.00014,0.00027,6
30970,32305,0.00016999999999999999,5e-05,-1e-05,2.9999999999999997e-05,0.00028,0.00039,-0.00014,0.00027,6
30971,32306,0.00016999999999999999,5e-05,-1e-05,2.9999999999999997e-05,0.00028,0.00039,-0.00014,0.00027,6
30972,32307,0.00016999999999999999,5e-05,-1e-05,2.9999999999999997e-05,0.00028,0.00039,-0.00014,0.00027,6
30973,32308,0.00016999999999999999,5e-05,-1e-05,2.9999999999999997e-05,0.00028,0.00039,-0.00014,0.00027,6
30974,32309,0.00016999999999999999,5e-05,-1e-05,2.9999999999999997e-05,0.00028,0.00039,-0.00014,0.00027,6
30975,32310,0.00016999999999999999,5e-05,-1e-05,2.9999999999999997e-05,0.00028,0.00039,-0.00014,0.00027,6
30976,32311,0.00016999999999999999,5e-05,-1e-05,2.9999999999999997e-05,0.00028,0.00039,-0.00014,0.00027,6
30977,32312,0.00016999999999999999,5e-05,-1e-05,2.9999999999999997e-05,0.00028,0.00039,-0.00014,0.00027,6
30978,32313,0.00016999999999999999,5e-05,-1e-05,2.9999999999999997e-05,0.00028,0.00039,-0.00014,0.00027,6
30979,32314,0.00016999999999999999,5e-05,-1e-05,2.9999999999999997e-05,0.00028,0.00039,-0.00014,0.00027,6
30980,32315,0.00016999999999999999,5e-05,-1e-05,2.9999999999999997e-05,0.00028,0.00039,-0.00014,0.00027,6
30981,32316,0.00016999999999999999,5e-05,-1e-05,2.9999999999999997e-05,0.00028,0.00039,-0.00014,0.00027,6
30982,32317,0.00016999999999999999,5e-05,-1e-05,2.9999999999999997e-05,0.00028,0.00039,-0.00014,0.00027,6
30983,32318,0.00016999999999999999,5e-05,-1e-05,2.9999999999999997e-05,0.00028,0.00039,-0.00014,0.00027,6
30984,32319,0.0,2.9999999999999997e-05,-1e-05,-4e-05,0.00047999999999999996,0.00044,-7e-05,-0.00036,6
30985,32320,0.0,2.9999999999999997e-05,-1e-05,-4e-05,0.00047999999999999996,0.00044,-7e-05,-0.00036,6
30986,32321,-5.9999999999999995e-05,-1e-05,-1e-05,1e-05,-0.00018999999999999998,0.00013000000000000002,-0.00021,8e-05,6
30987,32322,-5.9999999999999995e-05,-1e-05,-1e-05,1e-05,-0.00018999999999999998,0.00013000000000000002,-0.00021,8e-05,6
30988,32323,-5.9999999999999995e-05,-1e-05,-1e-05,1e-05,-0.00018999999999999998,0.00013000000000000002,-0.00021,8e-05,6
30989,32324,-5.9999999999999995e-05,-1e-05,-1e-05,1e-05,-0.00018999999999999998,0.00013000000000000002,-0.00021,8e-05,6
30990,32325,-5.9999999999999995e-05,-1e-05,-1e-05,1e-05,-0.00018999999999999998,0.00013000000000000002,-0.00021,8e-05,6
30991,32326,-5.9999999999999995e-05,-1e-05,-1e-05,1e-05,-0.00018999999999999998,0.00013000000000000002,-0.00021,8e-05,6
30992,32327,-5.9999999999999995e-05,-1e-05,-1e-05,1e-05,-0.00018999999999999998,0.00013000000000000002,-0.00021,8e-05,6
30993,32328,-5.9999999999999995e-05,-1e-05,-1e-05,1e-05,-0.00018999999999999998,0.00013000000000000002,-0.00021,8e-05,6
30994,32329,-5.9999999999999995e-05,-1e-05,-1e-05,1e-05,-0.00018999999999999998,0.00013000000000000002,-0.00021,8e-05,6
30995,32330,-5.9999999999999995e-05,-1e-05,-1e-05,1e-05,-0.00018999999999999998,0.00013000000000000002,-0.00021,8e-05,6
30996,32331,-5.9999999999999995e-05,-1e-05,-1e-05,1e-05,-0.00018999999999999998,0.00013000000000000002,-0.00021,8e-05,6
30997,32332,-5.9999999999999995e-05,-1e-05,-1e-05,1e-05,-0.00018999999999999998,0.00013000000000000002,-0.00021,8e-05,6
30998,32333,-5.9999999999999995e-05,-1e-05,-1e-05,1e-05,-0.00018999999999999998,0.00013000000000000002,-0.00021,8e-05,6
30999,32334,-5.9999999999999995e-05,-1e-05,-1e-05,1e-05,-0.00018999999999999998,0.00013000000000000002,-0.00021,8e-05,6
31000,32335,-5.9999999999999995e-05,-1e-05,-1e-05,1e-05,-0.00018999999999999998,0.00013000000000000002,-0.00021,8e-05,6
31001,32337,-5.9999999999999995e-05,-1e-05,-1e-05,1e-05,-0.00018999999999999998,0.00013000000000000002,-0.00021,8e-05,6
31002,32339,-5.9999999999999995e-05,-1e-05,-1e-05,1e-05,-0.00018999999999999998,0.00013000000000000002,-0.00021,8e-05,6
31003,32341,-5.9999999999999995e-05,-1e-05,-1e-05,1e-05,-0.00018999999999999998,0.00013000000000000002,-0.00021,8e-05,6
31004,32342,0.00013000000000000002,-2.9999999999999997e-05,-4e-05,2.9999999999999997e-05,0.00031,0.00016,5.9999999999999995e-05,0.00037,6
31005,32343,0.00013000000000000002,-2.9999999999999997e-05,-4e-05,2.9999999999999997e-05,0.00031,0.00016,5.9999999999999995e-05,0.00037,6
31006,32344,0.00013000000000000002,-2.9999999999999997e-05,-4e-05,2.9999999999999997e-05,0.00031,0.00016,5.9999999999999995e-05,0.00037,6
31007,32345,0.00013000000000000002,-2.9999999999999997e-05,-4e-05,2.9999999999999997e-05,0.00031,0.00016,5.9999999999999995e-05,0.00037,6
31008,32346,0.00013000000000000002,-2.9999999999999997e-05,-4e-05,2.9999999999999997e-05,0.00031,0.00016,5.9999999999999995e-05,0.00037,6
31009,32347,0.00013000000000000002,-2.9999999999999997e-05,-4e-05,2.9999999999999997e-05,0.00031,0.00016,5.9999999999999995e-05,0.00037,6
31010,32348,-0.00022999999999999998,-1e-05,-2.9999999999999997e-05,1e-05,0.00015,2e-05,0.00032,0.0005,6
31011,32349,-0.00022999999999999998,-1e-05,-2.9999999999999997e-05,1e-05,0.00015,2e-05,0.00032,0.0005,6
31012,32350,-0.00022999999999999998,-1e-05,-2.9999999999999997e-05,1e-05,0.00015,2e-05,0.00032,0.0005,6
31013,32351,-0.00022999999999999998,-1e-05,-2.9999999999999997e-05,1e-05,0.00015,2e-05,0.00032,0.0005,6
31014,32352,-0.00022999999999999998,-1e-05,-2.9999999999999997e-05,1e-05,0.00015,2e-05,0.00032,0.0005,6
31015,32353,-0.00022999999999999998,-1e-05,-2.9999999999999997e-05,1e-05,0.00015,2e-05,0.00032,0.0005,6
31016,32354,-0.00022999999999999998,-1e-05,-2.9999999999999997e-05,1e-05,0.00015,2e-05,0.00032,0.0005,6
31017,32355,-0.00022999999999999998,-1e-05,-2.9999999999999997e-05,1e-05,0.00015,2e-05,0.00032,0.0005,6
31018,32356,-0.00022999999999999998,-1e-05,-2.9999999999999997e-05,1e-05,0.00015,2e-05,0.00032,0.0005,6
31019,32357,-9e-05,4e-05,4e-05,5e-05,0.00016999999999999999,-2e-05,2.9999999999999997e-05,0.00014,6
31020,32358,0.00018999999999999998,-5e-05,-9e-05,-0.00014,-0.00018,2e-05,0.0,0.00037,6
31021,32359,0.00018999999999999998,-5e-05,-9e-05,-0.00014,-0.00018,2e-05,0.0,0.00037,6
31022,32360,0.00018999999999999998,-5e-05,-9e-05,-0.00014,-0.00018,2e-05,0.0,0.00037,6
31023,32361,0.00018999999999999998,-5e-05,-9e-05,-0.00014,-0.00018,2e-05,0.0,0.00037,6
31024,32362,0.00018999999999999998,-5e-05,-9e-05,-0.00014,-0.00018,2e-05,0.0,0.00037,6
31025,32363,0.00018999999999999998,-5e-05,-9e-05,-0.00014,-0.00018,2e-05,0.0,0.00037,6
31026,32364,0.00018999999999999998,-5e-05,-9e-05,-0.00014,-0.00018,2e-05,0.0,0.00037,6
31027,32365,0.00018999999999999998,-5e-05,-9e-05,-0.00014,-0.00018,2e-05,0.0,0.00037,6
31028,32366,0.00018999999999999998,-5e-05,-9e-05,-0.00014,-0.00018,2e-05,0.0,0.00037,6
31029,32367,0.00018999999999999998,-5e-05,-9e-05,-0.00014,-0.00018,2e-05,0.0,0.00037,6
31030,32368,0.00018999999999999998,-5e-05,-9e-05,-0.00014,-0.00018,2e-05,0.0,0.00037,6
31031,32369,0.00018999999999999998,-5e-05,-9e-05,-0.00014,-0.00018,2e-05,0.0,0.00037,6
31032,32370,0.00018999999999999998,-5e-05,-9e-05,-0.00014,-0.00018,2e-05,0.0,0.00037,6
31033,32371,0.00018999999999999998,-5e-05,-9e-05,-0.00014,-0.00018,2e-05,0.0,0.00037,6
31034,32372,0.0,-5e-05,-0.0001,-4e-05,-0.00045999999999999996,-0.00013000000000000002,7e-05,-5e-05,6
31035,32373,-0.00013000000000000002,-2e-05,-1e-05,-2e-05,-5.9999999999999995e-05,-2e-05,-2.9999999999999997e-05,-5.9999999999999995e-05,6
31036,32375,-0.00013000000000000002,-2e-05,-1e-05,-2e-05,-5.9999999999999995e-05,-2e-05,-2.9999999999999997e-05,-5.9999999999999995e-05,6
31037,32376,-0.00013000000000000002,-2e-05,-1e-05,-2e-05,-5.9999999999999995e-05,-2e-05,-2.9999999999999997e-05,-5.9999999999999995e-05,6
31038,32377,-0.00013000000000000002,-2e-05,-1e-05,-2e-05,-5.9999999999999995e-05,-2e-05,-2.9999999999999997e-05,-5.9999999999999995e-05,6
31039,32378,-0.00013000000000000002,-2e-05,-1e-05,-2e-05,-5.9999999999999995e-05,-2e-05,-2.9999999999999997e-05,-5.9999999999999995e-05,6
31040,32379,-0.00013000000000000002,-2e-05,-1e-05,-2e-05,-5.9999999999999995e-05,-2e-05,-2.9999999999999997e-05,-5.9999999999999995e-05,6
31041,32381,-0.00013000000000000002,-2e-05,-1e-05,-2e-05,-5.9999999999999995e-05,-2e-05,-2.9999999999999997e-05,-5.9999999999999995e-05,6
31042,32382,-0.00013000000000000002,-2e-05,-1e-05,-2e-05,-5.9999999999999995e-05,-2e-05,-2.9999999999999997e-05,-5.9999999999999995e-05,6
31043,32383,-0.00013000000000000002,-2e-05,-1e-05,-2e-05,-5.9999999999999995e-05,-2e-05,-2.9999999999999997e-05,-5.9999999999999995e-05,6
31044,32384,-0.00013000000000000002,-2e-05,-1e-05,-2e-05,-5.9999999999999995e-05,-2e-05,-2.9999999999999997e-05,-5.9999999999999995e-05,6
31045,32385,-0.00013000000000000002,-2e-05,-1e-05,-2e-05,-5.9999999999999995e-05,-2e-05,-2.9999999999999997e-05,-5.9999999999999995e-05,6
31046,32386,-0.00013000000000000002,-2e-05,-1e-05,-2e-05,-5.9999999999999995e-05,-2e-05,-2.9999999999999997e-05,-5.9999999999999995e-05,6
31047,32389,-0.00013000000000000002,-2e-05,-1e-05,-2e-05,-5.9999999999999995e-05,-2e-05,-2.9999999999999997e-05,-5.9999999999999995e-05,6
31048,32390,-0.00013000000000000002,-2e-05,-1e-05,-2e-05,-5.9999999999999995e-05,-2e-05,-2.9999999999999997e-05,-5.9999999999999995e-05,6
31049,32391,-0.00013000000000000002,-2e-05,-1e-05,-2e-05,-5.9999999999999995e-05,-2e-05,-2.9999999999999997e-05,-5.9999999999999995e-05,6
31050,32392,-0.00013000000000000002,-2e-05,-1e-05,-2e-05,-5.9999999999999995e-05,-2e-05,-2.9999999999999997e-05,-5.9999999999999995e-05,6
31051,32393,-0.00013000000000000002,-2e-05,-1e-05,-2e-05,-5.9999999999999995e-05,-2e-05,-2.9999999999999997e-05,-5.9999999999999995e-05,6
31052,32394,-0.00013000000000000002,-2e-05,-1e-05,-2e-05,-5.9999999999999995e-05,-2e-05,-2.9999999999999997e-05,-5.9999999999999995e-05,6
31053,32395,-0.00013000000000000002,-2e-05,-1e-05,-2e-05,-5.9999999999999995e-05,-2e-05,-2.9999999999999997e-05,-5.9999999999999995e-05,6
31054,32396,-0.00013000000000000002,-2e-05,-1e-05,-2e-05,-5.9999999999999995e-05,-2e-05,-2.9999999999999997e-05,-5.9999999999999995e-05,6
31055,32397,-0.00013000000000000002,-2e-05,-1e-05,-2e-05,-5.9999999999999995e-05,-2e-05,-2.9999999999999997e-05,-5.9999999999999995e-05,6
31056,32398,-0.00013000000000000002,-2e-05,-1e-05,-2e-05,-5.9999999999999995e-05,-2e-05,-2.9999999999999997e-05,-5.9999999999999995e-05,6
31057,32399,-0.00013000000000000002,-2e-05,-1e-05,-2e-05,-5.9999999999999995e-05,-2e-05,-2.9999999999999997e-05,-5.9999999999999995e-05,6
31058,32400,-0.00013000000000000002,-2e-05,-1e-05,-2e-05,-5.9999999999999995e-05,-2e-05,-2.9999999999999997e-05,-5.9999999999999995e-05,6
31059,32401,-0.00013000000000000002,-2e-05,-1e-05,-2e-05,-5.9999999999999995e-05,-2e-05,-2.9999999999999997e-05,-5.9999999999999995e-05,6
31060,32402,-2e-05,1e-05,-1e-05,8e-05,0.00018,0.0007,0.00021,-0.00018999999999999998,6
31061,32403,8e-05,2e-05,7e-05,0.00011999999999999999,0.0007599999999999999,0.00053,1e-05,-0.00037999999999999997,6
31062,32404,8e-05,2e-05,7e-05,0.00011999999999999999,0.0007599999999999999,0.00053,1e-05,-0.00037999999999999997,6
31063,32405,8e-05,2e-05,7e-05,0.00011999999999999999,0.0007599999999999999,0.00053,1e-05,-0.00037999999999999997,6
31064,32406,8e-05,2e-05,7e-05,0.00011999999999999999,0.0007599999999999999,0.00053,1e-05,-0.00037999999999999997,6
31065,32407,8e-05,2e-05,7e-05,0.00011999999999999999,0.0007599999999999999,0.00053,1e-05,-0.00037999999999999997,6
31066,32408,8e-05,2e-05,7e-05,0.00011999999999999999,0.0007599999999999999,0.00053,1e-05,-0.00037999999999999997,6
31067,32409,8e-05,2e-05,7e-05,0.00011999999999999999,0.0007599999999999999,0.00053,1e-05,-0.00037999999999999997,6
31068,32410,8e-05,2e-05,7e-05,0.00011999999999999999,0.0007599999999999999,0.00053,1e-05,-0.00037999999999999997,6
31069,32411,8e-05,2e-05,7e-05,0.00011999999999999999,0.0007599999999999999,0.00053,1e-05,-0.00037999999999999997,6
31070,32412,8e-05,2e-05,7e-05,0.00011999999999999999,0.0007599999999999999,0.00053,1e-05,-0.00037999999999999997,6
31071,32413,8e-05,2e-05,7e-05,0.00011999999999999999,0.0007599999999999999,0.00053,1e-05,-0.00037999999999999997,6
31072,32414,8e-05,2e-05,7e-05,0.00011999999999999999,0.0007599999999999999,0.00053,1e-05,-0.00037999999999999997,6
31073,32415,8e-05,2e-05,7e-05,0.00011999999999999999,0.0007599999999999999,0.00053,1e-05,-0.00037999999999999997,6
31074,32416,8e-05,2e-05,7e-05,0.00011999999999999999,0.0007599999999999999,0.00053,1e-05,-0.00037999999999999997,6
31075,32417,-0.00013000000000000002,2e-05,5e-05,-2.9999999999999997e-05,-0.00011999999999999999,-0.00033999999999999997,-0.00057,-0.0006,6
31076,32418,-0.00013000000000000002,2e-05,5e-05,-2.9999999999999997e-05,-0.00011999999999999999,-0.00033999999999999997,-0.00057,-0.0006,6
31077,32419,-0.00011,-2e-05,-1e-05,-1e-05,-0.00018,-0.00035,-5.9999999999999995e-05,-0.00011999999999999999,6
31078,32420,-0.00011,-2e-05,-1e-05,-1e-05,-0.00018,-0.00035,-5.9999999999999995e-05,-0.00011999999999999999,6
31079,32421,-0.00011,-2e-05,-1e-05,-1e-05,-0.00018,-0.00035,-5.9999999999999995e-05,-0.00011999999999999999,6
31080,32422,-0.00011,-2e-05,-1e-05,-1e-05,-0.00018,-0.00035,-5.9999999999999995e-05,-0.00011999999999999999,6
31081,32423,-0.00011,-2e-05,-1e-05,-1e-05,-0.00018,-0.00035,-5.9999999999999995e-05,-0.00011999999999999999,6
31082,32424,-0.00011,-2e-05,-1e-05,-1e-05,-0.00018,-0.00035,-5.9999999999999995e-05,-0.00011999999999999999,6
31083,32425,-0.00011,-2e-05,-1e-05,-1e-05,-0.00018,-0.00035,-5.9999999999999995e-05,-0.00011999999999999999,6
31084,32426,-0.00011,-2e-05,-1e-05,-1e-05,-0.00018,-0.00035,-5.9999999999999995e-05,-0.00011999999999999999,6
31085,32427,-0.00011,-2e-05,-1e-05,-1e-05,-0.00018,-0.00035,-5.9999999999999995e-05,-0.00011999999999999999,6
31086,32428,-0.00011,-2e-05,-1e-05,-1e-05,-0.00018,-0.00035,-5.9999999999999995e-05,-0.00011999999999999999,6
31087,32429,-0.00011,-2e-05,-1e-05,-1e-05,-0.00018,-0.00035,-5.9999999999999995e-05,-0.00011999999999999999,6
31088,32430,-0.00011,-2e-05,-1e-05,-1e-05,-0.00018,-0.00035,-5.9999999999999995e-05,-0.00011999999999999999,6
31089,32431,-0.00011,-2e-05,4e-05,0.00014,5.9999999999999995e-05,-0.00059,-0.00022999999999999998,-0.0005099999999999999,6
31090,32432,-0.00011,-2e-05,4e-05,0.00014,5.9999999999999995e-05,-0.00059,-0.00022999999999999998,-0.0005099999999999999,6
31091,32433,-0.00011,-2e-05,4e-05,0.00014,5.9999999999999995e-05,-0.00059,-0.00022999999999999998,-0.0005099999999999999,6
31092,32434,-0.00011,-2e-05,4e-05,0.00014,5.9999999999999995e-05,-0.00059,-0.00022999999999999998,-0.0005099999999999999,6
31093,32435,-0.00011,-2e-05,4e-05,0.00014,5.9999999999999995e-05,-0.00059,-0.00022999999999999998,-0.0005099999999999999,6
31094,32436,-0.00011,-2e-05,4e-05,0.00014,5.9999999999999995e-05,-0.00059,-0.00022999999999999998,-0.0005099999999999999,6
31095,32438,-0.00011,-2e-05,4e-05,0.00014,5.9999999999999995e-05,-0.00059,-0.00022999999999999998,-0.0005099999999999999,6
31096,32440,-0.00011,-2e-05,4e-05,0.00014,5.9999999999999995e-05,-0.00059,-0.00022999999999999998,-0.0005099999999999999,6
31097,32441,-0.00011,-2e-05,4e-05,0.00014,5.9999999999999995e-05,-0.00059,-0.00022999999999999998,-0.0005099999999999999,6
31098,32442,-0.00011,-2e-05,4e-05,0.00014,5.9999999999999995e-05,-0.00059,-0.00022999999999999998,-0.0005099999999999999,6
31099,32443,-0.00011,-2e-05,4e-05,0.00014,5.9999999999999995e-05,-0.00059,-0.00022999999999999998,-0.0005099999999999999,6
31100,32444,-0.00011,-2e-05,4e-05,0.00014,5.9999999999999995e-05,-0.00059,-0.00022999999999999998,-0.0005099999999999999,6
31101,32445,-0.00011,-2e-05,4e-05,0.00014,5.9999999999999995e-05,-0.00059,-0.00022999999999999998,-0.0005099999999999999,6
31102,32446,-0.00011,-2e-05,4e-05,0.00014,5.9999999999999995e-05,-0.00059,-0.00022999999999999998,-0.0005099999999999999,6
31103,32447,7e-05,-1e-05,0.0,-0.00011999999999999999,0.00015,0.0004,-0.00022,-0.0001,6
31104,32448,7e-05,-1e-05,0.0,-0.00011999999999999999,0.00015,0.0004,-0.00022,-0.0001,6
31105,32449,7e-05,-1e-05,0.0,-0.00011999999999999999,0.00015,0.0004,-0.00022,-0.0001,6
31106,32450,7e-05,-1e-05,0.0,-0.00011999999999999999,0.00015,0.0004,-0.00022,-0.0001,6
31107,32451,7e-05,-1e-05,0.0,-0.00011999999999999999,0.00015,0.0004,-0.00022,-0.0001,6
31108,32452,7e-05,-1e-05,0.0,-0.00011999999999999999,0.00015,0.0004,-0.00022,-0.0001,6
31109,32453,7e-05,-1e-05,0.0,-0.00011999999999999999,0.00015,0.0004,-0.00022,-0.0001,6
31110,32454,-0.00011999999999999999,-0.00018,-0.0001,-5e-05,-0.00023999999999999998,-0.0003,0.00041,0.00084,6
31111,32455,-0.00011999999999999999,-0.00018,-0.0001,-5e-05,-0.00023999999999999998,-0.0003,0.00041,0.00084,6
31112,32456,-0.0002,-1e-05,1e-05,-1e-05,-0.00015,-9e-05,-9e-05,-0.00088,6
31113,32457,-0.0002,-1e-05,1e-05,-1e-05,-0.00015,-9e-05,-9e-05,-0.00088,6
31114,32458,-0.0002,-1e-05,1e-05,-1e-05,-0.00015,-9e-05,-9e-05,-0.00088,6
31115,32459,-0.0002,-1e-05,1e-05,-1e-05,-0.00015,-9e-05,-9e-05,-0.00088,6
31116,32460,-0.0002,-1e-05,1e-05,-1e-05,-0.00015,-9e-05,-9e-05,-0.00088,6
31117,32461,-0.0002,-1e-05,1e-05,-1e-05,-0.00015,-9e-05,-9e-05,-0.00088,6
31118,32462,-0.0002,-1e-05,1e-05,-1e-05,-0.00015,-9e-05,-9e-05,-0.00088,6
31119,32463,-0.0002,-1e-05,1e-05,-1e-05,-0.00015,-9e-05,-9e-05,-0.00088,6
31120,32464,-0.0002,-1e-05,1e-05,-1e-05,-0.00015,-9e-05,-9e-05,-0.00088,6
31121,32465,-0.0002,-1e-05,1e-05,-1e-05,-0.00015,-9e-05,-9e-05,-0.00088,6
31122,32466,-0.0002,-1e-05,1e-05,-1e-05,-0.00015,-9e-05,-9e-05,-0.00088,6
31123,32467,-0.0002,-1e-05,1e-05,-1e-05,-0.00015,-9e-05,-9e-05,-0.00088,6
31124,32468,-0.0002,-1e-05,1e-05,-1e-05,-0.00015,-9e-05,-9e-05,-0.00088,6
31125,32469,-0.0002,-1e-05,1e-05,-1e-05,-0.00015,-9e-05,-9e-05,-0.00088,6
31126,32470,-0.0002,-1e-05,1e-05,-1e-05,-0.00015,-9e-05,-9e-05,-0.00088,6
31127,32471,-0.0002,-1e-05,1e-05,-1e-05,-0.00015,-9e-05,-9e-05,-0.00088,6
31128,32472,-0.0002,-1e-05,1e-05,-1e-05,-0.00015,-9e-05,-9e-05,-0.00088,6
31129,32473,-0.0002,-1e-05,1e-05,-1e-05,-0.00015,-9e-05,-9e-05,-0.00088,6
31130,32474,-0.0002,-1e-05,1e-05,-1e-05,-0.00015,-9e-05,-9e-05,-0.00088,6
31131,32475,-0.0002,-1e-05,1e-05,-1e-05,-0.00015,-9e-05,-9e-05,-0.00088,6
31132,32476,-0.0002,-1e-05,1e-05,-1e-05,-0.00015,-9e-05,-9e-05,-0.00088,6
31133,32477,-2e-05,2e-05,1e-05,0.0,0.00015,1e-05,0.00011,0.00059,6
31134,32478,-0.00015,-2e-05,-7e-05,-5e-05,-5.9999999999999995e-05,0.00016,-0.00033999999999999997,-0.00075,6
31135,32479,-0.00015,-2e-05,-7e-05,-5e-05,-5.9999999999999995e-05,0.00016,-0.00033999999999999997,-0.00075,6
31136,32480,-0.00015,-2e-05,-7e-05,-5e-05,-5.9999999999999995e-05,0.00016,-0.00033999999999999997,-0.00075,6
31137,32481,-0.00015,-2e-05,-7e-05,-5e-05,-5.9999999999999995e-05,0.00016,-0.00033999999999999997,-0.00075,6
31138,32482,-0.00015,-2e-05,-7e-05,-5e-05,-5.9999999999999995e-05,0.00016,-0.00033999999999999997,-0.00075,6
31139,32483,-0.00015,-2e-05,-7e-05,-5e-05,-5.9999999999999995e-05,0.00016,-0.00033999999999999997,-0.00075,6
31140,32484,-0.00015,-2e-05,-7e-05,-5e-05,-5.9999999999999995e-05,0.00016,-0.00033999999999999997,-0.00075,6
31141,32485,-0.00015,-2e-05,-7e-05,-5e-05,-5.9999999999999995e-05,0.00016,-0.00033999999999999997,-0.00075,6
31142,32487,-0.00015,-2e-05,-7e-05,-5e-05,-5.9999999999999995e-05,0.00016,-0.00033999999999999997,-0.00075,6
31143,32490,-0.00015,-2e-05,-7e-05,-5e-05,-5.9999999999999995e-05,0.00016,-0.00033999999999999997,-0.00075,6
31144,32491,-0.00015,-2e-05,-7e-05,-5e-05,-5.9999999999999995e-05,0.00016,-0.00033999999999999997,-0.00075,6
31145,32492,-0.00015,-2e-05,-7e-05,-5e-05,-5.9999999999999995e-05,0.00016,-0.00033999999999999997,-0.00075,6
31146,32493,8e-05,1e-05,1e-05,4e-05,7e-05,7e-05,5.9999999999999995e-05,0.00022999999999999998,6
31147,32494,8e-05,1e-05,1e-05,4e-05,7e-05,7e-05,5.9999999999999995e-05,0.00022999999999999998,6
31148,32495,8e-05,1e-05,1e-05,4e-05,7e-05,7e-05,5.9999999999999995e-05,0.00022999999999999998,6
31149,32496,8e-05,1e-05,1e-05,4e-05,7e-05,7e-05,5.9999999999999995e-05,0.00022999999999999998,6
31150,32497,8e-05,1e-05,1e-05,4e-05,7e-05,7e-05,5.9999999999999995e-05,0.00022999999999999998,6
31151,32498,-0.00018,1e-05,0.0,-2.9999999999999997e-05,-0.00029,0.00028,0.00028,-7e-05,6
31152,32499,-0.00018,1e-05,0.0,-2.9999999999999997e-05,-0.00029,0.00028,0.00028,-7e-05,6
31153,32500,-0.00018,1e-05,0.0,-2.9999999999999997e-05,-0.00029,0.00028,0.00028,-7e-05,6
31154,32501,-0.00018,1e-05,0.0,-2.9999999999999997e-05,-0.00029,0.00028,0.00028,-7e-05,6
31155,32502,-0.00018,1e-05,0.0,-2.9999999999999997e-05,-0.00029,0.00028,0.00028,-7e-05,6
31156,32503,-0.00018,1e-05,0.0,-2.9999999999999997e-05,-0.00029,0.00028,0.00028,-7e-05,6
31157,32504,-0.00018,1e-05,0.0,-2.9999999999999997e-05,-0.00029,0.00028,0.00028,-7e-05,6
31158,32505,-0.00018,1e-05,0.0,-2.9999999999999997e-05,-0.00029,0.00028,0.00028,-7e-05,6
31159,32506,-0.00018,1e-05,0.0,-2.9999999999999997e-05,-0.00029,0.00028,0.00028,-7e-05,6
31160,32507,-0.00018,1e-05,0.0,-2.9999999999999997e-05,-0.00029,0.00028,0.00028,-7e-05,6
31161,32508,-0.00018,1e-05,0.0,-2.9999999999999997e-05,-0.00029,0.00028,0.00028,-7e-05,6
31162,32509,-0.00018,1e-05,0.0,-2.9999999999999997e-05,-0.00029,0.00028,0.00028,-7e-05,6
31163,32510,-0.00018,1e-05,0.0,-2.9999999999999997e-05,-0.00029,0.00028,0.00028,-7e-05,6
31164,32511,-0.00018,1e-05,0.0,-2.9999999999999997e-05,-0.00029,0.00028,0.00028,-7e-05,6
31165,32512,-0.00018,1e-05,0.0,-2.9999999999999997e-05,-0.00029,0.00028,0.00028,-7e-05,6
31166,32513,-0.00018,1e-05,0.0,-2.9999999999999997e-05,-0.00029,0.00028,0.00028,-7e-05,6
31167,32514,-0.00018,1e-05,0.0,-2.9999999999999997e-05,-0.00029,0.00028,0.00028,-7e-05,6
31168,32515,-0.00018,1e-05,0.0,-2.9999999999999997e-05,-0.00029,0.00028,0.00028,-7e-05,6
31169,32516,-0.00018,1e-05,0.0,-2.9999999999999997e-05,-0.00029,0.00028,0.00028,-7e-05,6
31170,32517,-0.00018,1e-05,0.0,-2.9999999999999997e-05,-0.00029,0.00028,0.00028,-7e-05,6
31171,32518,-0.00018,1e-05,0.0,-2.9999999999999997e-05,-0.00029,0.00028,0.00028,-7e-05,6
31172,32519,-0.00018,1e-05,0.0,-2.9999999999999997e-05,-0.00029,0.00028,0.00028,-7e-05,6
31173,32520,-0.00018,1e-05,0.0,-2.9999999999999997e-05,-0.00029,0.00028,0.00028,-7e-05,6
31174,32521,-0.00018,1e-05,0.0,-2.9999999999999997e-05,-0.00029,0.00028,0.00028,-7e-05,6
31175,32522,8e-05,5e-05,2.9999999999999997e-05,2e-05,0.00014,-7e-05,0.00018999999999999998,0.00043,6
31176,32523,0.00016,-9e-05,-5.9999999999999995e-05,-8e-05,-0.0004,-0.0005200000000000001,0.00039,0.0008699999999999999,6
31177,32524,0.00016,-9e-05,-5.9999999999999995e-05,-8e-05,-0.0004,-0.0005200000000000001,0.00039,0.0008699999999999999,6
31178,32525,0.00016,-9e-05,-5.9999999999999995e-05,-8e-05,-0.0004,-0.0005200000000000001,0.00039,0.0008699999999999999,6
31179,32526,0.00016,-9e-05,-5.9999999999999995e-05,-8e-05,-0.0004,-0.0005200000000000001,0.00039,0.0008699999999999999,6
31180,32527,0.00016,-9e-05,-5.9999999999999995e-05,-8e-05,-0.0004,-0.0005200000000000001,0.00039,0.0008699999999999999,6
31181,32528,0.00016,-9e-05,-5.9999999999999995e-05,-8e-05,-0.0004,-0.0005200000000000001,0.00039,0.0008699999999999999,6
31182,32529,0.00016,-9e-05,-5.9999999999999995e-05,-8e-05,-0.0004,-0.0005200000000000001,0.00039,0.0008699999999999999,6
31183,32530,0.00016,-9e-05,-5.9999999999999995e-05,-8e-05,-0.0004,-0.0005200000000000001,0.00039,0.0008699999999999999,6
31184,32531,0.00016,-9e-05,-5.9999999999999995e-05,-8e-05,-0.0004,-0.0005200000000000001,0.00039,0.0008699999999999999,6
31185,32532,0.00016,-9e-05,-5.9999999999999995e-05,-8e-05,-0.0004,-0.0005200000000000001,0.00039,0.0008699999999999999,6
31186,32533,0.00016,-9e-05,-5.9999999999999995e-05,-8e-05,-0.0004,-0.0005200000000000001,0.00039,0.0008699999999999999,6
31187,32534,0.00016,-9e-05,-5.9999999999999995e-05,-8e-05,-0.0004,-0.0005200000000000001,0.00039,0.0008699999999999999,6
31188,32535,0.00016,-9e-05,-5.9999999999999995e-05,-8e-05,-0.0004,-0.0005200000000000001,0.00039,0.0008699999999999999,6
31189,32536,0.00016,-9e-05,-5.9999999999999995e-05,-8e-05,-0.0004,-0.0005200000000000001,0.00039,0.0008699999999999999,6
31190,32539,0.00016,-9e-05,-5.9999999999999995e-05,-8e-05,-0.0004,-0.0005200000000000001,0.00039,0.0008699999999999999,6
31191,32540,0.00016,-9e-05,-5.9999999999999995e-05,-8e-05,-0.0004,-0.0005200000000000001,0.00039,0.0008699999999999999,6
31192,32541,0.00016,-9e-05,-5.9999999999999995e-05,-8e-05,-0.0004,-0.0005200000000000001,0.00039,0.0008699999999999999,6
31193,32542,0.00016,-9e-05,-5.9999999999999995e-05,-8e-05,-0.0004,-0.0005200000000000001,0.00039,0.0008699999999999999,6
31194,32543,0.00016,-9e-05,-5.9999999999999995e-05,-8e-05,-0.0004,-0.0005200000000000001,0.00039,0.0008699999999999999,6
31195,32544,0.00016,-9e-05,-5.9999999999999995e-05,-8e-05,-0.0004,-0.0005200000000000001,0.00039,0.0008699999999999999,6
31196,32545,0.00016,-9e-05,-5.9999999999999995e-05,-8e-05,-0.0004,-0.0005200000000000001,0.00039,0.0008699999999999999,6
31197,32546,0.00016,-9e-05,-5.9999999999999995e-05,-8e-05,-0.0004,-0.0005200000000000001,0.00039,0.0008699999999999999,6
31198,32547,0.00016,-9e-05,-5.9999999999999995e-05,-8e-05,-0.0004,-0.0005200000000000001,0.00039,0.0008699999999999999,6
31199,32548,0.00016,-9e-05,-5.9999999999999995e-05,-8e-05,-0.0004,-0.0005200000000000001,0.00039,0.0008699999999999999,6
31200,32549,0.00016,-9e-05,-5.9999999999999995e-05,-8e-05,-0.0004,-0.0005200000000000001,0.00039,0.0008699999999999999,6
31201,32550,0.00016,-9e-05,-5.9999999999999995e-05,-8e-05,-0.0004,-0.0005200000000000001,0.00039,0.0008699999999999999,6
31202,32551,0.00016,-9e-05,-5.9999999999999995e-05,-8e-05,-0.0004,-0.0005200000000000001,0.00039,0.0008699999999999999,6
31203,32552,0.00016,-9e-05,-5.9999999999999995e-05,-8e-05,-0.0004,-0.0005200000000000001,0.00039,0.0008699999999999999,6
31204,32553,-0.0002,-2e-05,-4e-05,-2.9999999999999997e-05,-0.0002,5.9999999999999995e-05,7e-05,-0.00033999999999999997,6
31205,32554,-0.00013000000000000002,-4e-05,-5.9999999999999995e-05,-0.00013000000000000002,-0.00033,-0.00011999999999999999,-0.00058,-0.0009699999999999999,6
31206,32555,0.00041,1e-05,0.0,-0.00011,-2.9999999999999997e-05,0.0004,0.00022999999999999998,-0.00035,6
31207,32556,2e-05,-2e-05,-2.9999999999999997e-05,-0.00011999999999999999,-0.00059,-0.00053,9e-05,-7e-05,6
31208,32557,2e-05,-2e-05,-2.9999999999999997e-05,-0.00011999999999999999,-0.00059,-0.00053,9e-05,-7e-05,6
31209,32558,2e-05,-2e-05,-2.9999999999999997e-05,-0.00011999999999999999,-0.00059,-0.00053,9e-05,-7e-05,6
31210,32559,8e-05,1e-05,2e-05,0.00016999999999999999,9e-05,0.0001,0.00058,0.00014,6
31211,32560,8e-05,1e-05,2e-05,0.00016999999999999999,9e-05,0.0001,0.00058,0.00014,6
31212,32561,8e-05,1e-05,2e-05,0.00016999999999999999,9e-05,0.0001,0.00058,0.00014,6
31213,32562,8e-05,1e-05,2e-05,0.00016999999999999999,9e-05,0.0001,0.00058,0.00014,6
31214,32563,8e-05,1e-05,2e-05,0.00016999999999999999,9e-05,0.0001,0.00058,0.00014,6
31215,32564,8e-05,1e-05,2e-05,0.00016999999999999999,9e-05,0.0001,0.00058,0.00014,6
31216,32565,8e-05,1e-05,2e-05,0.00016999999999999999,9e-05,0.0001,0.00058,0.00014,6
31217,32566,8e-05,1e-05,2e-05,0.00016999999999999999,9e-05,0.0001,0.00058,0.00014,6
31218,32567,8e-05,1e-05,2e-05,0.00016999999999999999,9e-05,0.0001,0.00058,0.00014,6
31219,32568,8e-05,1e-05,2e-05,0.00016999999999999999,9e-05,0.0001,0.00058,0.00014,6
31220,32569,8e-05,1e-05,2e-05,0.00016999999999999999,9e-05,0.0001,0.00058,0.00014,6
31221,32570,8e-05,1e-05,2e-05,0.00016999999999999999,9e-05,0.0001,0.00058,0.00014,6
31222,32571,8e-05,1e-05,2e-05,0.00016999999999999999,9e-05,0.0001,0.00058,0.00014,6
31223,32572,8e-05,1e-05,2e-05,0.00016999999999999999,9e-05,0.0001,0.00058,0.00014,6
31224,32573,8e-05,1e-05,2e-05,0.00016999999999999999,9e-05,0.0001,0.00058,0.00014,6
31225,32574,-8e-05,-2e-05,-2e-05,-7e-05,-2.9999999999999997e-05,-0.00015,-0.00014,0.00011,6
31226,32575,-8e-05,-2e-05,-2e-05,-7e-05,-2.9999999999999997e-05,-0.00015,-0.00014,0.00011,6
31227,32576,-0.00016999999999999999,-8e-05,-5e-05,-4e-05,4e-05,2e-05,0.00039,0.00022,6
31228,32577,-0.00016999999999999999,-8e-05,-5e-05,-4e-05,4e-05,2e-05,0.00039,0.00022,6
31229,32578,-0.00016999999999999999,-8e-05,-5e-05,-4e-05,4e-05,2e-05,0.00039,0.00022,6
31230,32579,-0.00016999999999999999,-8e-05,-5e-05,-4e-05,4e-05,2e-05,0.00039,0.00022,6
31231,32580,-0.00016999999999999999,-8e-05,-5e-05,-4e-05,4e-05,2e-05,0.00039,0.00022,6
31232,32581,-0.00016999999999999999,-8e-05,-5e-05,-4e-05,4e-05,2e-05,0.00039,0.00022,6
31233,32582,-0.00016999999999999999,-8e-05,-5e-05,-4e-05,4e-05,2e-05,0.00039,0.00022,6
31234,32583,-0.00016999999999999999,-8e-05,-5e-05,-4e-05,4e-05,2e-05,0.00039,0.00022,6
31235,32584,-0.00016999999999999999,-8e-05,-5e-05,-4e-05,4e-05,2e-05,0.00039,0.00022,6
31236,32585,-0.00016999999999999999,-8e-05,-5e-05,-4e-05,4e-05,2e-05,0.00039,0.00022,6
31237,32586,-0.00016999999999999999,-8e-05,-5e-05,-4e-05,4e-05,2e-05,0.00039,0.00022,6
31238,32588,-0.00016999999999999999,-8e-05,-5e-05,-4e-05,4e-05,2e-05,0.00039,0.00022,6
31239,32589,-0.00016999999999999999,-8e-05,-5e-05,-4e-05,4e-05,2e-05,0.00039,0.00022,6
31240,32590,-0.00016999999999999999,-8e-05,-5e-05,-4e-05,4e-05,2e-05,0.00039,0.00022,6
31241,32591,-0.00016999999999999999,-8e-05,-5e-05,-4e-05,4e-05,2e-05,0.00039,0.00022,6
31242,32592,-0.00016999999999999999,-8e-05,-5e-05,-4e-05,4e-05,2e-05,0.00039,0.00022,6
31243,32593,-0.00016999999999999999,-8e-05,-5e-05,-4e-05,4e-05,2e-05,0.00039,0.00022,6
31244,32594,-0.00016999999999999999,-8e-05,-5e-05,-4e-05,4e-05,2e-05,0.00039,0.00022,6
31245,32595,-0.00016999999999999999,-8e-05,-5e-05,-4e-05,4e-05,2e-05,0.00039,0.00022,6
31246,32596,-0.00016999999999999999,-8e-05,-5e-05,-4e-05,4e-05,2e-05,0.00039,0.00022,6
31247,32597,-0.00016999999999999999,-8e-05,-5e-05,-4e-05,4e-05,2e-05,0.00039,0.00022,6
31248,32598,-0.00016999999999999999,-8e-05,-5e-05,-4e-05,4e-05,2e-05,0.00039,0.00022,6
31249,32599,-0.00016999999999999999,-8e-05,-5e-05,-4e-05,4e-05,2e-05,0.00039,0.00022,6
31250,32600,-0.00016999999999999999,-8e-05,-5e-05,-4e-05,4e-05,2e-05,0.00039,0.00022,6
31251,32601,-0.00016999999999999999,-8e-05,-5e-05,-4e-05,4e-05,2e-05,0.00039,0.00022,6
31252,32602,-0.00016999999999999999,-8e-05,-5e-05,-4e-05,4e-05,2e-05,0.00039,0.00022,6
31253,32603,-0.00016999999999999999,-8e-05,-5e-05,-4e-05,4e-05,2e-05,0.00039,0.00022,6
31254,32604,5.9999999999999995e-05,0.00014,1e-05,0.0,0.00025,0.00036,-0.00039,0.0003,6
31255,32605,-0.00026000000000000003,-0.00022,-0.00011999999999999999,-2.9999999999999997e-05,-0.00013000000000000002,-0.00022,2e-05,-0.00067,6
31256,32606,-0.00015,9e-05,5e-05,-5.9999999999999995e-05,-0.0005,-0.00036,-0.00033,-0.00016,6
31257,32607,-0.00015,9e-05,5e-05,-5.9999999999999995e-05,-0.0005,-0.00036,-0.00033,-0.00016,6
31258,32608,-0.00015,9e-05,5e-05,-5.9999999999999995e-05,-0.0005,-0.00036,-0.00033,-0.00016,6
31259,32609,-0.00015,9e-05,5e-05,-5.9999999999999995e-05,-0.0005,-0.00036,-0.00033,-0.00016,6
31260,32610,-0.00015,9e-05,5e-05,-5.9999999999999995e-05,-0.0005,-0.00036,-0.00033,-0.00016,6
31261,32611,-0.00015,9e-05,5e-05,-5.9999999999999995e-05,-0.0005,-0.00036,-0.00033,-0.00016,6
31262,32612,-0.00015,9e-05,5e-05,-5.9999999999999995e-05,-0.0005,-0.00036,-0.00033,-0.00016,6
31263,32613,-0.00015,9e-05,5e-05,-5.9999999999999995e-05,-0.0005,-0.00036,-0.00033,-0.00016,6
31264,32614,-0.00015,9e-05,5e-05,-5.9999999999999995e-05,-0.0005,-0.00036,-0.00033,-0.00016,6
31265,32616,-0.00015,9e-05,5e-05,-5.9999999999999995e-05,-0.0005,-0.00036,-0.00033,-0.00016,6
31266,32617,-0.00015,9e-05,5e-05,-5.9999999999999995e-05,-0.0005,-0.00036,-0.00033,-0.00016,6
31267,32618,-0.00015,9e-05,5e-05,-5.9999999999999995e-05,-0.0005,-0.00036,-0.00033,-0.00016,6
31268,32619,0.00018999999999999998,5.9999999999999995e-05,5.9999999999999995e-05,-8e-05,-0.00028,-9e-05,0.00064,5.9999999999999995e-05,6
31269,32620,0.00018999999999999998,5.9999999999999995e-05,5.9999999999999995e-05,-8e-05,-0.00028,-9e-05,0.00064,5.9999999999999995e-05,6
31270,32621,-0.00015,-2.9999999999999997e-05,-4e-05,-2e-05,0.0,-0.0001,-0.0004,-5.9999999999999995e-05,6
31271,32622,-0.00015,-2.9999999999999997e-05,-4e-05,-2e-05,0.0,-0.0001,-0.0004,-5.9999999999999995e-05,6
31272,32623,-0.00015,-2.9999999999999997e-05,-4e-05,-2e-05,0.0,-0.0001,-0.0004,-5.9999999999999995e-05,6
31273,32624,-0.00015,-2.9999999999999997e-05,-4e-05,-2e-05,0.0,-0.0001,-0.0004,-5.9999999999999995e-05,6
31274,32625,-0.00015,-2.9999999999999997e-05,-4e-05,-2e-05,0.0,-0.0001,-0.0004,-5.9999999999999995e-05,6
31275,32626,-0.00015,-2.9999999999999997e-05,-4e-05,-2e-05,0.0,-0.0001,-0.0004,-5.9999999999999995e-05,6
31276,32627,-0.00015,-2.9999999999999997e-05,-4e-05,-2e-05,0.0,-0.0001,-0.0004,-5.9999999999999995e-05,6
31277,32628,-0.00015,-2.9999999999999997e-05,-4e-05,-2e-05,0.0,-0.0001,-0.0004,-5.9999999999999995e-05,6
31278,32629,-0.00015,-2.9999999999999997e-05,-4e-05,-2e-05,0.0,-0.0001,-0.0004,-5.9999999999999995e-05,6
31279,32630,-0.00015,-2.9999999999999997e-05,-4e-05,-2e-05,0.0,-0.0001,-0.0004,-5.9999999999999995e-05,6
31280,32631,-0.00015,-2.9999999999999997e-05,-4e-05,-2e-05,0.0,-0.0001,-0.0004,-5.9999999999999995e-05,6
31281,32632,-0.00015,-2.9999999999999997e-05,-4e-05,-2e-05,0.0,-0.0001,-0.0004,-5.9999999999999995e-05,6
31282,32633,-0.00015,-2.9999999999999997e-05,-4e-05,-2e-05,0.0,-0.0001,-0.0004,-5.9999999999999995e-05,6
31283,32634,-0.00015,-2.9999999999999997e-05,-4e-05,-2e-05,0.0,-0.0001,-0.0004,-5.9999999999999995e-05,6
31284,32635,-0.00015,-2.9999999999999997e-05,-4e-05,-2e-05,0.0,-0.0001,-0.0004,-5.9999999999999995e-05,6
31285,32636,-0.00015,-2.9999999999999997e-05,-4e-05,-2e-05,0.0,-0.0001,-0.0004,-5.9999999999999995e-05,6
31286,32639,-0.00015,-2.9999999999999997e-05,-4e-05,-2e-05,0.0,-0.0001,-0.0004,-5.9999999999999995e-05,6
31287,32640,-0.00015,-2.9999999999999997e-05,-4e-05,-2e-05,0.0,-0.0001,-0.0004,-5.9999999999999995e-05,6
31288,32641,-0.00015,-2.9999999999999997e-05,-4e-05,-2e-05,0.0,-0.0001,-0.0004,-5.9999999999999995e-05,6
31289,32642,-0.00015,-2.9999999999999997e-05,-4e-05,-2e-05,0.0,-0.0001,-0.0004,-5.9999999999999995e-05,6
31290,32643,1e-05,0.0,2e-05,-5.9999999999999995e-05,0.0001,9e-05,-0.00022999999999999998,-0.00021,6
31291,32644,1e-05,0.0,2e-05,-5.9999999999999995e-05,0.0001,9e-05,-0.00022999999999999998,-0.00021,6
31292,32645,1e-05,0.0,2e-05,-5.9999999999999995e-05,0.0001,9e-05,-0.00022999999999999998,-0.00021,6
31293,32646,1e-05,0.0,2e-05,-5.9999999999999995e-05,0.0001,9e-05,-0.00022999999999999998,-0.00021,6
31294,32647,1e-05,0.0,2e-05,-5.9999999999999995e-05,0.0001,9e-05,-0.00022999999999999998,-0.00021,6
31295,32648,1e-05,0.0,2e-05,-5.9999999999999995e-05,0.0001,9e-05,-0.00022999999999999998,-0.00021,6
31296,32649,0.00022999999999999998,5e-05,0.0001,0.00011,-5.9999999999999995e-05,0.00033,0.00027,0.00054,6
31297,32650,0.00022999999999999998,5e-05,0.0001,0.00011,-5.9999999999999995e-05,0.00033,0.00027,0.00054,6
31298,32651,0.00022999999999999998,5e-05,0.0001,0.00011,-5.9999999999999995e-05,0.00033,0.00027,0.00054,6
31299,32652,0.00022999999999999998,5e-05,0.0001,0.00011,-5.9999999999999995e-05,0.00033,0.00027,0.00054,6
31300,32653,0.00022999999999999998,5e-05,0.0001,0.00011,-5.9999999999999995e-05,0.00033,0.00027,0.00054,6
31301,32654,0.00022999999999999998,5e-05,0.0001,0.00011,-5.9999999999999995e-05,0.00033,0.00027,0.00054,6
31302,32655,0.00022999999999999998,5e-05,0.0001,0.00011,-5.9999999999999995e-05,0.00033,0.00027,0.00054,6
31303,32656,0.00022999999999999998,5e-05,0.0001,0.00011,-5.9999999999999995e-05,0.00033,0.00027,0.00054,6
31304,32657,5e-05,1e-05,2.9999999999999997e-05,1e-05,0.0,-0.00036,1e-05,0.00028,6
31305,32658,-5.9999999999999995e-05,-5e-05,-0.00011999999999999999,-0.00023999999999999998,-0.00062,-0.00074,8e-05,-0.00031,6
31306,32659,-5.9999999999999995e-05,-5e-05,-0.00011999999999999999,-0.00023999999999999998,-0.00062,-0.00074,8e-05,-0.00031,6
31307,32660,-5.9999999999999995e-05,-5e-05,-0.00011999999999999999,-0.00023999999999999998,-0.00062,-0.00074,8e-05,-0.00031,6
31308,32661,-5.9999999999999995e-05,-5e-05,-0.00011999999999999999,-0.00023999999999999998,-0.00062,-0.00074,8e-05,-0.00031,6
31309,32662,-5.9999999999999995e-05,-5e-05,-0.00011999999999999999,-0.00023999999999999998,-0.00062,-0.00074,8e-05,-0.00031,6
31310,32663,-5.9999999999999995e-05,-5e-05,-0.00011999999999999999,-0.00023999999999999998,-0.00062,-0.00074,8e-05,-0.00031,6
31311,32664,-5.9999999999999995e-05,-5e-05,-0.00011999999999999999,-0.00023999999999999998,-0.00062,-0.00074,8e-05,-0.00031,6
31312,32665,-5.9999999999999995e-05,-5e-05,-0.00011999999999999999,-0.00023999999999999998,-0.00062,-0.00074,8e-05,-0.00031,6
31313,32666,-5.9999999999999995e-05,-5e-05,-0.00011999999999999999,-0.00023999999999999998,-0.00062,-0.00074,8e-05,-0.00031,6
31314,32667,-5.9999999999999995e-05,-5e-05,-0.00011999999999999999,-0.00023999999999999998,-0.00062,-0.00074,8e-05,-0.00031,6
31315,32668,-5.9999999999999995e-05,-5e-05,-0.00011999999999999999,-0.00023999999999999998,-0.00062,-0.00074,8e-05,-0.00031,6
31316,32669,-5.9999999999999995e-05,-5e-05,-0.00011999999999999999,-0.00023999999999999998,-0.00062,-0.00074,8e-05,-0.00031,6
31317,32670,-5.9999999999999995e-05,-5e-05,-0.00011999999999999999,-0.00023999999999999998,-0.00062,-0.00074,8e-05,-0.00031,6
31318,32671,-5.9999999999999995e-05,-5e-05,-0.00011999999999999999,-0.00023999999999999998,-0.00062,-0.00074,8e-05,-0.00031,6
31319,32672,-5.9999999999999995e-05,-5e-05,-0.00011999999999999999,-0.00023999999999999998,-0.00062,-0.00074,8e-05,-0.00031,6
31320,32673,-5.9999999999999995e-05,-5e-05,-0.00011999999999999999,-0.00023999999999999998,-0.00062,-0.00074,8e-05,-0.00031,6
31321,32674,-5.9999999999999995e-05,-5e-05,-0.00011999999999999999,-0.00023999999999999998,-0.00062,-0.00074,8e-05,-0.00031,6
31322,32675,-5.9999999999999995e-05,-5e-05,-0.00011999999999999999,-0.00023999999999999998,-0.00062,-0.00074,8e-05,-0.00031,6
31323,32676,-5.9999999999999995e-05,-5e-05,-0.00011999999999999999,-0.00023999999999999998,-0.00062,-0.00074,8e-05,-0.00031,6
31324,32677,-5.9999999999999995e-05,-5e-05,-0.00011999999999999999,-0.00023999999999999998,-0.00062,-0.00074,8e-05,-0.00031,6
31325,32678,-5.9999999999999995e-05,-5e-05,-0.00011999999999999999,-0.00023999999999999998,-0.00062,-0.00074,8e-05,-0.00031,6
31326,32679,5.9999999999999995e-05,-5e-05,-2e-05,1e-05,-9e-05,0.0002,-1e-05,0.00014,6
31327,32680,5.9999999999999995e-05,-5e-05,-2e-05,1e-05,-9e-05,0.0002,-1e-05,0.00014,6
31328,32681,0.0001,-5e-05,-7e-05,-0.00016,-9e-05,-7e-05,2e-05,4e-05,6
31329,32682,0.0001,-5e-05,-7e-05,-0.00016,-9e-05,-7e-05,2e-05,4e-05,6
31330,32683,0.0001,-5e-05,-7e-05,-0.00016,-9e-05,-7e-05,2e-05,4e-05,6
31331,32684,0.0001,-5e-05,-7e-05,-0.00016,-9e-05,-7e-05,2e-05,4e-05,6
31332,32685,0.0001,-5e-05,-7e-05,-0.00016,-9e-05,-7e-05,2e-05,4e-05,6
31333,32686,0.0001,-5e-05,-7e-05,-0.00016,-9e-05,-7e-05,2e-05,4e-05,6
31334,32688,0.0001,-5e-05,-7e-05,-0.00016,-9e-05,-7e-05,2e-05,4e-05,6
31335,32690,0.0001,-5e-05,-7e-05,-0.00016,-9e-05,-7e-05,2e-05,4e-05,6
31336,32691,0.0001,-5e-05,-7e-05,-0.00016,-9e-05,-7e-05,2e-05,4e-05,6
31337,32692,0.0001,-5e-05,-7e-05,-0.00016,-9e-05,-7e-05,2e-05,4e-05,6
31338,32693,0.0001,-5e-05,-7e-05,-0.00016,-9e-05,-7e-05,2e-05,4e-05,6
31339,32694,0.00016999999999999999,2.9999999999999997e-05,0.0,-5e-05,0.0003,0.0006,0.0004,0.00055,6
31340,32695,0.00016999999999999999,2.9999999999999997e-05,0.0,-5e-05,0.0003,0.0006,0.0004,0.00055,6
31341,32696,0.00016999999999999999,2.9999999999999997e-05,0.0,-5e-05,0.0003,0.0006,0.0004,0.00055,6
31342,32697,0.00016999999999999999,2.9999999999999997e-05,0.0,-5e-05,0.0003,0.0006,0.0004,0.00055,6
31343,32698,0.00016999999999999999,2.9999999999999997e-05,0.0,-5e-05,0.0003,0.0006,0.0004,0.00055,6
31344,32699,0.00016999999999999999,2.9999999999999997e-05,0.0,-5e-05,0.0003,0.0006,0.0004,0.00055,6
31345,32700,0.00016999999999999999,2.9999999999999997e-05,0.0,-5e-05,0.0003,0.0006,0.0004,0.00055,6
31346,32701,0.00016999999999999999,2.9999999999999997e-05,0.0,-5e-05,0.0003,0.0006,0.0004,0.00055,6
31347,32702,0.00023999999999999998,-1e-05,5.9999999999999995e-05,0.00011999999999999999,0.00039,0.0002,8e-05,0.00027,6
31348,32703,0.00023999999999999998,-1e-05,5.9999999999999995e-05,0.00011999999999999999,0.00039,0.0002,8e-05,0.00027,6
31349,32704,0.00023999999999999998,-1e-05,5.9999999999999995e-05,0.00011999999999999999,0.00039,0.0002,8e-05,0.00027,6
31350,32705,0.00023999999999999998,-1e-05,5.9999999999999995e-05,0.00011999999999999999,0.00039,0.0002,8e-05,0.00027,6
31351,32706,0.00023999999999999998,-1e-05,5.9999999999999995e-05,0.00011999999999999999,0.00039,0.0002,8e-05,0.00027,6
31352,32707,0.00023999999999999998,-1e-05,5.9999999999999995e-05,0.00011999999999999999,0.00039,0.0002,8e-05,0.00027,6
31353,32709,0.00023999999999999998,-1e-05,5.9999999999999995e-05,0.00011999999999999999,0.00039,0.0002,8e-05,0.00027,6
31354,32710,0.00023999999999999998,-1e-05,5.9999999999999995e-05,0.00011999999999999999,0.00039,0.0002,8e-05,0.00027,6
31355,32711,0.00023999999999999998,-1e-05,5.9999999999999995e-05,0.00011999999999999999,0.00039,0.0002,8e-05,0.00027,6
31356,32712,0.00023999999999999998,-1e-05,5.9999999999999995e-05,0.00011999999999999999,0.00039,0.0002,8e-05,0.00027,6
31357,32713,0.00023999999999999998,-1e-05,5.9999999999999995e-05,0.00011999999999999999,0.00039,0.0002,8e-05,0.00027,6
31358,32714,0.00023999999999999998,-1e-05,5.9999999999999995e-05,0.00011999999999999999,0.00039,0.0002,8e-05,0.00027,6
31359,32715,0.00023999999999999998,-1e-05,5.9999999999999995e-05,0.00011999999999999999,0.00039,0.0002,8e-05,0.00027,6
31360,32716,0.00023999999999999998,-1e-05,5.9999999999999995e-05,0.00011999999999999999,0.00039,0.0002,8e-05,0.00027,6
31361,32717,0.00023999999999999998,-1e-05,5.9999999999999995e-05,0.00011999999999999999,0.00039,0.0002,8e-05,0.00027,6
31362,32718,-0.00014,1e-05,-1e-05,2.9999999999999997e-05,0.00031,-0.00023999999999999998,-0.00023999999999999998,-0.00037999999999999997,6
31363,32719,-0.00014,1e-05,-1e-05,2.9999999999999997e-05,0.00031,-0.00023999999999999998,-0.00023999999999999998,-0.00037999999999999997,6
31364,32720,-0.00014,1e-05,-1e-05,2.9999999999999997e-05,0.00031,-0.00023999999999999998,-0.00023999999999999998,-0.00037999999999999997,6
31365,32721,-0.00014,1e-05,-1e-05,2.9999999999999997e-05,0.00031,-0.00023999999999999998,-0.00023999999999999998,-0.00037999999999999997,6
31366,32722,-0.00014,1e-05,-1e-05,2.9999999999999997e-05,0.00031,-0.00023999999999999998,-0.00023999999999999998,-0.00037999999999999997,6
31367,32723,4e-05,2e-05,1e-05,5e-05,0.00014,0.00011999999999999999,0.00047000000000000004,0.00064,6
31368,32724,4e-05,2e-05,1e-05,5e-05,0.00014,0.00011999999999999999,0.00047000000000000004,0.00064,6
31369,32725,4e-05,2e-05,1e-05,5e-05,0.00014,0.00011999999999999999,0.00047000000000000004,0.00064,6
31370,32726,4e-05,2e-05,1e-05,5e-05,0.00014,0.00011999999999999999,0.00047000000000000004,0.00064,6
31371,32727,4e-05,2e-05,1e-05,5e-05,0.00014,0.00011999999999999999,0.00047000000000000004,0.00064,6
31372,32728,4e-05,2e-05,1e-05,5e-05,0.00014,0.00011999999999999999,0.00047000000000000004,0.00064,6
31373,32729,4e-05,2e-05,1e-05,5e-05,0.00014,0.00011999999999999999,0.00047000000000000004,0.00064,6
31374,32730,4e-05,2e-05,1e-05,5e-05,0.00014,0.00011999999999999999,0.00047000000000000004,0.00064,6
31375,32731,0.00015,4e-05,4e-05,0.00015,-2e-05,-8e-05,0.00016999999999999999,-0.0007099999999999999,6
31376,32732,0.00015,4e-05,4e-05,0.00015,-2e-05,-8e-05,0.00016999999999999999,-0.0007099999999999999,6
31377,32733,0.00015,4e-05,4e-05,0.00015,-2e-05,-8e-05,0.00016999999999999999,-0.0007099999999999999,6
31378,32734,0.00015,4e-05,4e-05,0.00015,-2e-05,-8e-05,0.00016999999999999999,-0.0007099999999999999,6
31379,32735,0.00015,4e-05,4e-05,0.00015,-2e-05,-8e-05,0.00016999999999999999,-0.0007099999999999999,6
31380,32736,0.00015,4e-05,4e-05,0.00015,-2e-05,-8e-05,0.00016999999999999999,-0.0007099999999999999,6
31381,32738,0.00015,4e-05,4e-05,0.00015,-2e-05,-8e-05,0.00016999999999999999,-0.0007099999999999999,6
31382,32739,0.00015,4e-05,4e-05,0.00015,-2e-05,-8e-05,0.00016999999999999999,-0.0007099999999999999,6
31383,32740,0.00015,4e-05,4e-05,0.00015,-2e-05,-8e-05,0.00016999999999999999,-0.0007099999999999999,6
31384,32741,0.00015,4e-05,4e-05,0.00015,-2e-05,-8e-05,0.00016999999999999999,-0.0007099999999999999,6
31385,32742,0.00015,4e-05,4e-05,0.00015,-2e-05,-8e-05,0.00016999999999999999,-0.0007099999999999999,6
31386,32743,0.00015,4e-05,4e-05,0.00015,-2e-05,-8e-05,0.00016999999999999999,-0.0007099999999999999,6
31387,32744,0.00015,4e-05,4e-05,0.00015,-2e-05,-8e-05,0.00016999999999999999,-0.0007099999999999999,6
31388,32745,0.00015,4e-05,4e-05,0.00015,-2e-05,-8e-05,0.00016999999999999999,-0.0007099999999999999,6
31389,32746,0.00015,4e-05,4e-05,0.00015,-2e-05,-8e-05,0.00016999999999999999,-0.0007099999999999999,6
