,time,channel1,channel2,channel3,channel4,channel5,channel6,channel7,channel8,class
25759,26959,0.00015,0.00016,8e-05,5.9999999999999995e-05,5e-05,1e-05,0.00011999999999999999,0.00011,6
25760,26960,0.00016,0.00022,-1e-05,-7e-05,-0.00023999999999999998,-0.00037999999999999997,-0.00023999999999999998,-0.00031,6
25761,26961,0.00016,0.00022,-1e-05,-7e-05,-0.00023999999999999998,-0.00037999999999999997,-0.00023999999999999998,-0.00031,6
25762,26962,0.00016,0.00022,-1e-05,-7e-05,-0.00023999999999999998,-0.00037999999999999997,-0.00023999999999999998,-0.00031,6
25763,26963,0.00016,0.00022,-1e-05,-7e-05,-0.00023999999999999998,-0.00037999999999999997,-0.00023999999999999998,-0.00031,6
25764,26964,0.00016,0.00022,-1e-05,-7e-05,-0.00023999999999999998,-0.00037999999999999997,-0.00023999999999999998,-0.00031,6
25765,26965,0.00016,0.00022,-1e-05,-7e-05,-0.00023999999999999998,-0.00037999999999999997,-0.00023999999999999998,-0.00031,6
25766,26966,0.00016,0.00022,-1e-05,-7e-05,-0.00023999999999999998,-0.00037999999999999997,-0.00023999999999999998,-0.00031,6
25767,26967,0.00016,0.00022,-1e-05,-7e-05,-0.00023999999999999998,-0.00037999999999999997,-0.00023999999999999998,-0.00031,6
25768,26968,0.00016,0.00022,-1e-05,-7e-05,-0.00023999999999999998,-0.00037999999999999997,-0.00023999999999999998,-0.00031,6
25769,26969,0.00016,0.00022,-1e-05,-7e-05,-0.00023999999999999998,-0.00037999999999999997,-0.00023999999999999998,-0.00031,6
25770,26970,0.00016,0.00022,-1e-05,-7e-05,-0.00023999999999999998,-0.00037999999999999997,-0.00023999999999999998,-0.00031,6
25771,26971,0.00016,0.00022,-1e-05,-7e-05,-0.00023999999999999998,-0.00037999999999999997,-0.00023999999999999998,-0.00031,6
25772,26972,0.00016,0.00022,-1e-05,-7e-05,-0.00023999999999999998,-0.00037999999999999997,-0.00023999999999999998,-0.00031,6
25773,26973,0.00016,0.00022,-1e-05,-7e-05,-0.00023999999999999998,-0.00037999999999999997,-0.00023999999999999998,-0.00031,6
25774,26974,0.00016,0.00022,-1e-05,-7e-05,-0.00023999999999999998,-0.00037999999999999997,-0.00023999999999999998,-0.00031,6
25775,26975,0.00016,0.00022,-1e-05,-7e-05,-0.00023999999999999998,-0.00037999999999999997,-0.00023999999999999998,-0.00031,6
25776,26976,0.00016,0.00022,-1e-05,-7e-05,-0.00023999999999999998,-0.00037999999999999997,-0.00023999999999999998,-0.00031,6
25777,26977,0.00016,0.00022,-1e-05,-7e-05,-0.00023999999999999998,-0.00037999999999999997,-0.00023999999999999998,-0.00031,6
25778,26978,0.00016,0.00022,-1e-05,-7e-05,-0.00023999999999999998,-0.00037999999999999997,-0.00023999999999999998,-0.00031,6
25779,26979,0.00016,0.00022,-1e-05,-7e-05,-0.00023999999999999998,-0.00037999999999999997,-0.00023999999999999998,-0.00031,6
25780,26980,0.00016,0.00022,-1e-05,-7e-05,-0.00023999999999999998,-0.00037999999999999997,-0.00023999999999999998,-0.00031,6
25781,26981,0.00016,0.00022,-1e-05,-7e-05,-0.00023999999999999998,-0.00037999999999999997,-0.00023999999999999998,-0.00031,6
25782,26982,0.00016,0.00022,-1e-05,-7e-05,-0.00023999999999999998,-0.00037999999999999997,-0.00023999999999999998,-0.00031,6
25783,26983,0.00016,0.00022,-1e-05,-7e-05,-0.00023999999999999998,-0.00037999999999999997,-0.00023999999999999998,-0.00031,6
25784,26984,0.00016,0.00022,-1e-05,-7e-05,-0.00023999999999999998,-0.00037999999999999997,-0.00023999999999999998,-0.00031,6
25785,26985,0.00016,0.00022,-1e-05,-7e-05,-0.00023999999999999998,-0.00037999999999999997,-0.00023999999999999998,-0.00031,6
25786,26986,0.00016,0.00022,-1e-05,-7e-05,-0.00023999999999999998,-0.00037999999999999997,-0.00023999999999999998,-0.00031,6
25787,26989,0.00016,0.00022,-1e-05,-7e-05,-0.00023999999999999998,-0.00037999999999999997,-0.00023999999999999998,-0.00031,6
25788,26990,0.00016,0.00022,-1e-05,-7e-05,-0.00023999999999999998,-0.00037999999999999997,-0.00023999999999999998,-0.00031,6
25789,26991,0.00016,0.00022,-1e-05,-7e-05,-0.00023999999999999998,-0.00037999999999999997,-0.00023999999999999998,-0.00031,6
25790,26992,0.00016,0.00022,-1e-05,-7e-05,-0.00023999999999999998,-0.00037999999999999997,-0.00023999999999999998,-0.00031,6
25791,26993,0.00016,0.00022,-1e-05,-7e-05,-0.00023999999999999998,-0.00037999999999999997,-0.00023999999999999998,-0.00031,6
25792,26994,0.00016,0.00022,-1e-05,-7e-05,-0.00023999999999999998,-0.00037999999999999997,-0.00023999999999999998,-0.00031,6
25793,26995,0.00016,0.00022,-1e-05,-7e-05,-0.00023999999999999998,-0.00037999999999999997,-0.00023999999999999998,-0.00031,6
25794,26996,0.00016,0.00022,-1e-05,-7e-05,-0.00023999999999999998,-0.00037999999999999997,-0.00023999999999999998,-0.00031,6
25795,26997,0.00016,0.00022,-1e-05,-7e-05,-0.00023999999999999998,-0.00037999999999999997,-0.00023999999999999998,-0.00031,6
25796,26998,0.00016,0.00022,-1e-05,-7e-05,-0.00023999999999999998,-0.00037999999999999997,-0.00023999999999999998,-0.00031,6
25797,26999,0.00016,0.00022,-1e-05,-7e-05,-0.00023999999999999998,-0.00037999999999999997,-0.00023999999999999998,-0.00031,6
25798,27000,0.00016,0.00022,-1e-05,-7e-05,-0.00023999999999999998,-0.00037999999999999997,-0.00023999999999999998,-0.00031,6
25799,27001,0.00016,0.00022,-1e-05,-7e-05,-0.00023999999999999998,-0.00037999999999999997,-0.00023999999999999998,-0.00031,6
25800,27002,0.00016,0.00022,-1e-05,-7e-05,-0.00023999999999999998,-0.00037999999999999997,-0.00023999999999999998,-0.00031,6
25801,27003,0.00016,0.00022,-1e-05,-7e-05,-0.00023999999999999998,-0.00037999999999999997,-0.00023999999999999998,-0.00031,6
25802,27004,0.00016,0.00022,-1e-05,-7e-05,-0.00023999999999999998,-0.00037999999999999997,-0.00023999999999999998,-0.00031,6
25803,27005,0.00016,0.00022,-1e-05,-7e-05,-0.00023999999999999998,-0.00037999999999999997,-0.00023999999999999998,-0.00031,6
25804,27006,0.00016,0.00022,-1e-05,-7e-05,-0.00023999999999999998,-0.00037999999999999997,-0.00023999999999999998,-0.00031,6
25805,27007,0.00016,0.00022,-1e-05,-7e-05,-0.00023999999999999998,-0.00037999999999999997,-0.00023999999999999998,-0.00031,6
25806,27008,0.00016,0.00022,-1e-05,-7e-05,-0.00023999999999999998,-0.00037999999999999997,-0.00023999999999999998,-0.00031,6
25807,27009,0.00011999999999999999,0.0001,0.0,0.0,-4e-05,-0.00026000000000000003,-0.00026000000000000003,0.00027,6
25808,27010,0.00011999999999999999,0.0001,0.0,0.0,-4e-05,-0.00026000000000000003,-0.00026000000000000003,0.00027,6
25809,27011,0.00011999999999999999,0.0001,0.0,0.0,-4e-05,-0.00026000000000000003,-0.00026000000000000003,0.00027,6
25810,27012,0.00011999999999999999,0.0001,0.0,0.0,-4e-05,-0.00026000000000000003,-0.00026000000000000003,0.00027,6
25811,27013,0.00011999999999999999,0.0001,0.0,0.0,-4e-05,-0.00026000000000000003,-0.00026000000000000003,0.00027,6
25812,27014,0.00011999999999999999,0.0001,0.0,0.0,-4e-05,-0.00026000000000000003,-0.00026000000000000003,0.00027,6
25813,27015,0.00011999999999999999,0.0001,0.0,0.0,-4e-05,-0.00026000000000000003,-0.00026000000000000003,0.00027,6
25814,27016,0.00011999999999999999,0.0001,0.0,0.0,-4e-05,-0.00026000000000000003,-0.00026000000000000003,0.00027,6
25815,27017,0.00011999999999999999,0.0001,0.0,0.0,-4e-05,-0.00026000000000000003,-0.00026000000000000003,0.00027,6
25816,27018,0.00011999999999999999,0.0001,0.0,0.0,-4e-05,-0.00026000000000000003,-0.00026000000000000003,0.00027,6
25817,27019,0.00011999999999999999,0.0001,0.0,0.0,-4e-05,-0.00026000000000000003,-0.00026000000000000003,0.00027,6
25818,27020,0.00011999999999999999,0.0001,0.0,0.0,-4e-05,-0.00026000000000000003,-0.00026000000000000003,0.00027,6
25819,27021,0.00011999999999999999,0.0001,0.0,0.0,-4e-05,-0.00026000000000000003,-0.00026000000000000003,0.00027,6
25820,27022,0.00011999999999999999,0.0001,0.0,0.0,-4e-05,-0.00026000000000000003,-0.00026000000000000003,0.00027,6
25821,27023,0.00011999999999999999,0.0001,0.0,0.0,-4e-05,-0.00026000000000000003,-0.00026000000000000003,0.00027,6
25822,27024,0.00011999999999999999,0.0001,0.0,0.0,-4e-05,-0.00026000000000000003,-0.00026000000000000003,0.00027,6
25823,27025,0.00011999999999999999,0.0001,0.0,0.0,-4e-05,-0.00026000000000000003,-0.00026000000000000003,0.00027,6
25824,27026,0.00011999999999999999,0.0001,0.0,0.0,-4e-05,-0.00026000000000000003,-0.00026000000000000003,0.00027,6
25825,27027,0.00011999999999999999,0.0001,0.0,0.0,-4e-05,-0.00026000000000000003,-0.00026000000000000003,0.00027,6
25826,27028,0.00011999999999999999,0.0001,0.0,0.0,-4e-05,-0.00026000000000000003,-0.00026000000000000003,0.00027,6
25827,27029,0.00011999999999999999,0.0001,0.0,0.0,-4e-05,-0.00026000000000000003,-0.00026000000000000003,0.00027,6
25828,27030,0.00011999999999999999,0.0001,0.0,0.0,-4e-05,-0.00026000000000000003,-0.00026000000000000003,0.00027,6
25829,27031,0.00011999999999999999,0.0001,0.0,0.0,-4e-05,-0.00026000000000000003,-0.00026000000000000003,0.00027,6
25830,27032,0.00011999999999999999,0.0001,0.0,0.0,-4e-05,-0.00026000000000000003,-0.00026000000000000003,0.00027,6
25831,27033,0.00011999999999999999,0.0001,0.0,0.0,-4e-05,-0.00026000000000000003,-0.00026000000000000003,0.00027,6
25832,27034,0.00011999999999999999,0.0001,0.0,0.0,-4e-05,-0.00026000000000000003,-0.00026000000000000003,0.00027,6
25833,27035,0.00011999999999999999,0.0001,0.0,0.0,-4e-05,-0.00026000000000000003,-0.00026000000000000003,0.00027,6
25834,27036,0.00011999999999999999,0.0001,0.0,0.0,-4e-05,-0.00026000000000000003,-0.00026000000000000003,0.00027,6
25835,27039,0.00011999999999999999,0.0001,0.0,0.0,-4e-05,-0.00026000000000000003,-0.00026000000000000003,0.00027,6
25836,27040,0.00011999999999999999,0.0001,0.0,0.0,-4e-05,-0.00026000000000000003,-0.00026000000000000003,0.00027,6
25837,27041,0.00011999999999999999,0.0001,0.0,0.0,-4e-05,-0.00026000000000000003,-0.00026000000000000003,0.00027,6
25838,27042,0.00011999999999999999,0.0001,0.0,0.0,-4e-05,-0.00026000000000000003,-0.00026000000000000003,0.00027,6
25839,27043,0.00011999999999999999,0.0001,0.0,0.0,-4e-05,-0.00026000000000000003,-0.00026000000000000003,0.00027,6
25840,27044,0.00011999999999999999,0.0001,0.0,0.0,-4e-05,-0.00026000000000000003,-0.00026000000000000003,0.00027,6
25841,27045,0.00011999999999999999,0.0001,0.0,0.0,-4e-05,-0.00026000000000000003,-0.00026000000000000003,0.00027,6
25842,27046,0.00011999999999999999,0.0001,0.0,0.0,-4e-05,-0.00026000000000000003,-0.00026000000000000003,0.00027,6
25843,27047,0.00011999999999999999,0.0001,0.0,0.0,-4e-05,-0.00026000000000000003,-0.00026000000000000003,0.00027,6
25844,27048,0.00011999999999999999,0.0001,0.0,0.0,-4e-05,-0.00026000000000000003,-0.00026000000000000003,0.00027,6
25845,27049,0.00011999999999999999,0.0001,0.0,0.0,-4e-05,-0.00026000000000000003,-0.00026000000000000003,0.00027,6
25846,27050,0.00011999999999999999,0.0001,0.0,0.0,-4e-05,-0.00026000000000000003,-0.00026000000000000003,0.00027,6
25847,27051,0.00011999999999999999,0.0001,0.0,0.0,-4e-05,-0.00026000000000000003,-0.00026000000000000003,0.00027,6
25848,27052,0.00011999999999999999,0.0001,0.0,0.0,-4e-05,-0.00026000000000000003,-0.00026000000000000003,0.00027,6
25849,27053,0.00011999999999999999,0.0001,0.0,0.0,-4e-05,-0.00026000000000000003,-0.00026000000000000003,0.00027,6
25850,27054,0.00011999999999999999,0.0001,0.0,0.0,-4e-05,-0.00026000000000000003,-0.00026000000000000003,0.00027,6
25851,27055,0.00011999999999999999,0.0001,0.0,0.0,-4e-05,-0.00026000000000000003,-0.00026000000000000003,0.00027,6
25852,27056,0.00011999999999999999,0.0001,0.0,0.0,-4e-05,-0.00026000000000000003,-0.00026000000000000003,0.00027,6
25853,27057,0.00011999999999999999,0.0001,0.0,0.0,-4e-05,-0.00026000000000000003,-0.00026000000000000003,0.00027,6
25854,27058,0.00011999999999999999,0.0001,0.0,0.0,-4e-05,-0.00026000000000000003,-0.00026000000000000003,0.00027,6
25855,27059,0.00011999999999999999,0.0001,0.0,0.0,-4e-05,-0.00026000000000000003,-0.00026000000000000003,0.00027,6
25856,27060,0.00011999999999999999,0.0001,0.0,0.0,-4e-05,-0.00026000000000000003,-0.00026000000000000003,0.00027,6
25857,27061,0.00011999999999999999,0.0001,0.0,0.0,-4e-05,-0.00026000000000000003,-0.00026000000000000003,0.00027,6
25858,27062,0.00011999999999999999,0.0001,0.0,0.0,-4e-05,-0.00026000000000000003,-0.00026000000000000003,0.00027,6
25859,27063,8e-05,2.9999999999999997e-05,-4e-05,-4e-05,-5.9999999999999995e-05,-7e-05,-5.9999999999999995e-05,0.0,6
25860,27064,-0.00027,-0.00015,-2e-05,2e-05,0.0001,0.00015,-0.00011,1e-05,6
25861,27065,-0.00027,-0.00015,-2e-05,2e-05,0.0001,0.00015,-0.00011,1e-05,6
25862,27066,-0.00027,-0.00015,-2e-05,2e-05,0.0001,0.00015,-0.00011,1e-05,6
25863,27067,-0.00027,-0.00015,-2e-05,2e-05,0.0001,0.00015,-0.00011,1e-05,6
25864,27068,-0.00027,-0.00015,-2e-05,2e-05,0.0001,0.00015,-0.00011,1e-05,6
25865,27069,-0.00027,-0.00015,-2e-05,2e-05,0.0001,0.00015,-0.00011,1e-05,6
25866,27070,-0.00027,-0.00015,-2e-05,2e-05,0.0001,0.00015,-0.00011,1e-05,6
25867,27071,-0.00027,-0.00015,-2e-05,2e-05,0.0001,0.00015,-0.00011,1e-05,6
25868,27072,-0.00027,-0.00015,-2e-05,2e-05,0.0001,0.00015,-0.00011,1e-05,6
25869,27073,-0.00027,-0.00015,-2e-05,2e-05,0.0001,0.00015,-0.00011,1e-05,6
25870,27074,-0.00027,-0.00015,-2e-05,2e-05,0.0001,0.00015,-0.00011,1e-05,6
25871,27075,-0.00027,-0.00015,-2e-05,2e-05,0.0001,0.00015,-0.00011,1e-05,6
25872,27076,-0.00027,-0.00015,-2e-05,2e-05,0.0001,0.00015,-0.00011,1e-05,6
25873,27077,-0.00027,-0.00015,-2e-05,2e-05,0.0001,0.00015,-0.00011,1e-05,6
25874,27078,-0.00027,-0.00015,-2e-05,2e-05,0.0001,0.00015,-0.00011,1e-05,6
25875,27079,-0.00027,-0.00015,-2e-05,2e-05,0.0001,0.00015,-0.00011,1e-05,6
25876,27080,-0.00027,-0.00015,-2e-05,2e-05,0.0001,0.00015,-0.00011,1e-05,6
25877,27081,-0.00027,-0.00015,-2e-05,2e-05,0.0001,0.00015,-0.00011,1e-05,6
25878,27082,-0.00027,-0.00015,-2e-05,2e-05,0.0001,0.00015,-0.00011,1e-05,6
25879,27083,-0.00027,-0.00015,-2e-05,2e-05,0.0001,0.00015,-0.00011,1e-05,6
25880,27084,0.00015,7e-05,0.0,-1e-05,-1e-05,-2e-05,2.9999999999999997e-05,-5.9999999999999995e-05,6
25881,27085,7e-05,0.0,-5.9999999999999995e-05,-5.9999999999999995e-05,0.0,8e-05,1e-05,0.00016999999999999999,6
25882,27086,1e-05,8e-05,9e-05,0.00011999999999999999,0.0002,0.00028,9e-05,-1e-05,6
25883,27089,5e-05,-1e-05,-5e-05,-1e-05,4e-05,0.0,-4e-05,0.00025,6
25884,27090,5e-05,-1e-05,-5e-05,-1e-05,4e-05,0.0,-4e-05,0.00025,6
25885,27091,5e-05,-1e-05,-5e-05,-1e-05,4e-05,0.0,-4e-05,0.00025,6
25886,27092,5e-05,-1e-05,-5e-05,-1e-05,4e-05,0.0,-4e-05,0.00025,6
25887,27093,5e-05,-1e-05,-5e-05,-1e-05,4e-05,0.0,-4e-05,0.00025,6
25888,27094,5e-05,-1e-05,-5e-05,-1e-05,4e-05,0.0,-4e-05,0.00025,6
25889,27095,5e-05,-1e-05,-5e-05,-1e-05,4e-05,0.0,-4e-05,0.00025,6
25890,27096,5e-05,-1e-05,-5e-05,-1e-05,4e-05,0.0,-4e-05,0.00025,6
25891,27097,5e-05,-1e-05,-5e-05,-1e-05,4e-05,0.0,-4e-05,0.00025,6
25892,27098,5e-05,-1e-05,-5e-05,-1e-05,4e-05,0.0,-4e-05,0.00025,6
25893,27099,5e-05,-1e-05,-5e-05,-1e-05,4e-05,0.0,-4e-05,0.00025,6
25894,27100,5e-05,-1e-05,-5e-05,-1e-05,4e-05,0.0,-4e-05,0.00025,6
25895,27101,5e-05,-1e-05,-5e-05,-1e-05,4e-05,0.0,-4e-05,0.00025,6
25896,27102,5e-05,-1e-05,-5e-05,-1e-05,4e-05,0.0,-4e-05,0.00025,6
25897,27103,5e-05,-1e-05,-5e-05,-1e-05,4e-05,0.0,-4e-05,0.00025,6
25898,27104,5e-05,-1e-05,-5e-05,-1e-05,4e-05,0.0,-4e-05,0.00025,6
25899,27105,5e-05,-1e-05,-5e-05,-1e-05,4e-05,0.0,-4e-05,0.00025,6
25900,27106,5e-05,-1e-05,-5e-05,-1e-05,4e-05,0.0,-4e-05,0.00025,6
25901,27107,5e-05,-1e-05,-5e-05,-1e-05,4e-05,0.0,-4e-05,0.00025,6
25902,27108,5e-05,-1e-05,-5e-05,-1e-05,4e-05,0.0,-4e-05,0.00025,6
25903,27109,5e-05,-1e-05,-5e-05,-1e-05,4e-05,0.0,-4e-05,0.00025,6
25904,27110,5e-05,-1e-05,-5e-05,-1e-05,4e-05,0.0,-4e-05,0.00025,6
25905,27111,5e-05,-1e-05,-5e-05,-1e-05,4e-05,0.0,-4e-05,0.00025,6
25906,27112,5e-05,-1e-05,-5e-05,-1e-05,4e-05,0.0,-4e-05,0.00025,6
25907,27113,5e-05,-1e-05,-5e-05,-1e-05,4e-05,0.0,-4e-05,0.00025,6
25908,27114,5e-05,-1e-05,-5e-05,-1e-05,4e-05,0.0,-4e-05,0.00025,6
25909,27115,5e-05,-1e-05,-5e-05,-1e-05,4e-05,0.0,-4e-05,0.00025,6
25910,27116,5e-05,-1e-05,-5e-05,-1e-05,4e-05,0.0,-4e-05,0.00025,6
25911,27117,5e-05,-1e-05,-5e-05,-1e-05,4e-05,0.0,-4e-05,0.00025,6
25912,27118,5e-05,-1e-05,-5e-05,-1e-05,4e-05,0.0,-4e-05,0.00025,6
25913,27119,5e-05,-1e-05,-5e-05,-1e-05,4e-05,0.0,-4e-05,0.00025,6
25914,27120,5e-05,-1e-05,-5e-05,-1e-05,4e-05,0.0,-4e-05,0.00025,6
25915,27121,5e-05,-1e-05,-5e-05,-1e-05,4e-05,0.0,-4e-05,0.00025,6
25916,27122,5e-05,-1e-05,-5e-05,-1e-05,4e-05,0.0,-4e-05,0.00025,6
25917,27123,5e-05,-1e-05,-5e-05,-1e-05,4e-05,0.0,-4e-05,0.00025,6
25918,27124,5e-05,-1e-05,-5e-05,-1e-05,4e-05,0.0,-4e-05,0.00025,6
25919,27125,5e-05,-1e-05,-5e-05,-1e-05,4e-05,0.0,-4e-05,0.00025,6
25920,27126,5e-05,-1e-05,-5e-05,-1e-05,4e-05,0.0,-4e-05,0.00025,6
25921,27127,5e-05,-1e-05,-5e-05,-1e-05,4e-05,0.0,-4e-05,0.00025,6
25922,27128,5e-05,-1e-05,-5e-05,-1e-05,4e-05,0.0,-4e-05,0.00025,6
25923,27129,5e-05,-1e-05,-5e-05,-1e-05,4e-05,0.0,-4e-05,0.00025,6
25924,27130,5e-05,-1e-05,-5e-05,-1e-05,4e-05,0.0,-4e-05,0.00025,6
25925,27131,5e-05,-1e-05,-5e-05,-1e-05,4e-05,0.0,-4e-05,0.00025,6
25926,27132,5e-05,-1e-05,-5e-05,-1e-05,4e-05,0.0,-4e-05,0.00025,6
25927,27133,5e-05,-1e-05,-5e-05,-1e-05,4e-05,0.0,-4e-05,0.00025,6
25928,27134,5e-05,-1e-05,-5e-05,-1e-05,4e-05,0.0,-4e-05,0.00025,6
25929,27135,5e-05,-1e-05,-5e-05,-1e-05,4e-05,0.0,-4e-05,0.00025,6
25930,27136,2.9999999999999997e-05,-5.9999999999999995e-05,-0.0001,-7e-05,-2.9999999999999997e-05,2.9999999999999997e-05,0.00011,5.9999999999999995e-05,6
25931,27139,2.9999999999999997e-05,-5.9999999999999995e-05,-0.0001,-7e-05,-2.9999999999999997e-05,2.9999999999999997e-05,0.00011,5.9999999999999995e-05,6
25932,27140,2.9999999999999997e-05,-5.9999999999999995e-05,-0.0001,-7e-05,-2.9999999999999997e-05,2.9999999999999997e-05,0.00011,5.9999999999999995e-05,6
25933,27141,2.9999999999999997e-05,-5.9999999999999995e-05,-0.0001,-7e-05,-2.9999999999999997e-05,2.9999999999999997e-05,0.00011,5.9999999999999995e-05,6
25934,27142,2.9999999999999997e-05,-5.9999999999999995e-05,-0.0001,-7e-05,-2.9999999999999997e-05,2.9999999999999997e-05,0.00011,5.9999999999999995e-05,6
25935,27143,2.9999999999999997e-05,-5.9999999999999995e-05,-0.0001,-7e-05,-2.9999999999999997e-05,2.9999999999999997e-05,0.00011,5.9999999999999995e-05,6
25936,27144,2.9999999999999997e-05,-5.9999999999999995e-05,-0.0001,-7e-05,-2.9999999999999997e-05,2.9999999999999997e-05,0.00011,5.9999999999999995e-05,6
25937,27145,2.9999999999999997e-05,-5.9999999999999995e-05,-0.0001,-7e-05,-2.9999999999999997e-05,2.9999999999999997e-05,0.00011,5.9999999999999995e-05,6
25938,27146,2.9999999999999997e-05,-5.9999999999999995e-05,-0.0001,-7e-05,-2.9999999999999997e-05,2.9999999999999997e-05,0.00011,5.9999999999999995e-05,6
25939,27147,2.9999999999999997e-05,-5.9999999999999995e-05,-0.0001,-7e-05,-2.9999999999999997e-05,2.9999999999999997e-05,0.00011,5.9999999999999995e-05,6
25940,27148,2.9999999999999997e-05,-5.9999999999999995e-05,-0.0001,-7e-05,-2.9999999999999997e-05,2.9999999999999997e-05,0.00011,5.9999999999999995e-05,6
25941,27149,2.9999999999999997e-05,-5.9999999999999995e-05,-0.0001,-7e-05,-2.9999999999999997e-05,2.9999999999999997e-05,0.00011,5.9999999999999995e-05,6
25942,27150,2.9999999999999997e-05,-5.9999999999999995e-05,-0.0001,-7e-05,-2.9999999999999997e-05,2.9999999999999997e-05,0.00011,5.9999999999999995e-05,6
25943,27151,2.9999999999999997e-05,-5.9999999999999995e-05,-0.0001,-7e-05,-2.9999999999999997e-05,2.9999999999999997e-05,0.00011,5.9999999999999995e-05,6
25944,27152,2.9999999999999997e-05,-5.9999999999999995e-05,-0.0001,-7e-05,-2.9999999999999997e-05,2.9999999999999997e-05,0.00011,5.9999999999999995e-05,6
25945,27153,2.9999999999999997e-05,-5.9999999999999995e-05,-0.0001,-7e-05,-2.9999999999999997e-05,2.9999999999999997e-05,0.00011,5.9999999999999995e-05,6
25946,27154,2.9999999999999997e-05,-5.9999999999999995e-05,-0.0001,-7e-05,-2.9999999999999997e-05,2.9999999999999997e-05,0.00011,5.9999999999999995e-05,6
25947,27155,2.9999999999999997e-05,-5.9999999999999995e-05,-0.0001,-7e-05,-2.9999999999999997e-05,2.9999999999999997e-05,0.00011,5.9999999999999995e-05,6
25948,27156,2.9999999999999997e-05,-5.9999999999999995e-05,-0.0001,-7e-05,-2.9999999999999997e-05,2.9999999999999997e-05,0.00011,5.9999999999999995e-05,6
25949,27157,2.9999999999999997e-05,-5.9999999999999995e-05,-0.0001,-7e-05,-2.9999999999999997e-05,2.9999999999999997e-05,0.00011,5.9999999999999995e-05,6
25950,27158,2.9999999999999997e-05,-5.9999999999999995e-05,-0.0001,-7e-05,-2.9999999999999997e-05,2.9999999999999997e-05,0.00011,5.9999999999999995e-05,6
25951,27159,-0.00016,-7e-05,-7e-05,-8e-05,-0.00016,-0.00016,-0.00022999999999999998,-2e-05,6
25952,27160,-0.00016,-7e-05,-7e-05,-8e-05,-0.00016,-0.00016,-0.00022999999999999998,-2e-05,6
25953,27161,-0.00016,-7e-05,-7e-05,-8e-05,-0.00016,-0.00016,-0.00022999999999999998,-2e-05,6
25954,27162,-0.00016,-7e-05,-7e-05,-8e-05,-0.00016,-0.00016,-0.00022999999999999998,-2e-05,6
25955,27163,-0.00016,-7e-05,-7e-05,-8e-05,-0.00016,-0.00016,-0.00022999999999999998,-2e-05,6
25956,27164,-0.00016,-7e-05,-7e-05,-8e-05,-0.00016,-0.00016,-0.00022999999999999998,-2e-05,6
25957,27165,-0.00016,-7e-05,-7e-05,-8e-05,-0.00016,-0.00016,-0.00022999999999999998,-2e-05,6
25958,27166,-0.00016,-7e-05,-7e-05,-8e-05,-0.00016,-0.00016,-0.00022999999999999998,-2e-05,6
25959,27167,-0.00016,-7e-05,-7e-05,-8e-05,-0.00016,-0.00016,-0.00022999999999999998,-2e-05,6
25960,27168,0.00044,0.00011,-9e-05,-0.0001,-0.00011999999999999999,-5e-05,2.9999999999999997e-05,0.0006,6
25961,27169,-0.00014,5e-05,5e-05,8e-05,5.9999999999999995e-05,1e-05,-2.9999999999999997e-05,-0.00045999999999999996,6
25962,27170,-0.00014,5e-05,5e-05,8e-05,5.9999999999999995e-05,1e-05,-2.9999999999999997e-05,-0.00045999999999999996,6
25963,27171,-0.00014,5e-05,5e-05,8e-05,5.9999999999999995e-05,1e-05,-2.9999999999999997e-05,-0.00045999999999999996,6
25964,27172,0.00036,0.00018,-7e-05,-5e-05,0.00011,0.00022999999999999998,0.00018999999999999998,0.00011999999999999999,6
25965,27173,-5.9999999999999995e-05,2e-05,0.0,2.9999999999999997e-05,1e-05,2.9999999999999997e-05,-0.00022,-0.00027,6
25966,27174,-4e-05,2.9999999999999997e-05,-2e-05,-4e-05,-5.9999999999999995e-05,-0.00015,2.9999999999999997e-05,1e-05,6
25967,27175,-4e-05,2.9999999999999997e-05,-2e-05,-4e-05,-5.9999999999999995e-05,-0.00015,2.9999999999999997e-05,1e-05,6
25968,27176,-4e-05,2.9999999999999997e-05,-2e-05,-4e-05,-5.9999999999999995e-05,-0.00015,2.9999999999999997e-05,1e-05,6
25969,27177,-4e-05,2.9999999999999997e-05,-2e-05,-4e-05,-5.9999999999999995e-05,-0.00015,2.9999999999999997e-05,1e-05,6
25970,27178,-4e-05,2.9999999999999997e-05,-2e-05,-4e-05,-5.9999999999999995e-05,-0.00015,2.9999999999999997e-05,1e-05,6
25971,27179,-4e-05,2.9999999999999997e-05,-2e-05,-4e-05,-5.9999999999999995e-05,-0.00015,2.9999999999999997e-05,1e-05,6
25972,27180,-4e-05,2.9999999999999997e-05,-2e-05,-4e-05,-5.9999999999999995e-05,-0.00015,2.9999999999999997e-05,1e-05,6
25973,27181,-4e-05,2.9999999999999997e-05,-2e-05,-4e-05,-5.9999999999999995e-05,-0.00015,2.9999999999999997e-05,1e-05,6
25974,27182,-4e-05,2.9999999999999997e-05,-2e-05,-4e-05,-5.9999999999999995e-05,-0.00015,2.9999999999999997e-05,1e-05,6
25975,27183,-4e-05,2.9999999999999997e-05,-2e-05,-4e-05,-5.9999999999999995e-05,-0.00015,2.9999999999999997e-05,1e-05,6
25976,27184,-4e-05,2.9999999999999997e-05,-2e-05,-4e-05,-5.9999999999999995e-05,-0.00015,2.9999999999999997e-05,1e-05,6
25977,27185,-4e-05,2.9999999999999997e-05,-2e-05,-4e-05,-5.9999999999999995e-05,-0.00015,2.9999999999999997e-05,1e-05,6
25978,27186,-4e-05,2.9999999999999997e-05,-2e-05,-4e-05,-5.9999999999999995e-05,-0.00015,2.9999999999999997e-05,1e-05,6
25979,27189,0.00015,-5e-05,-4e-05,-4e-05,-1e-05,0.00011,-2.9999999999999997e-05,0.00018999999999999998,6
25980,27190,0.0002,0.0001,2.9999999999999997e-05,-2.9999999999999997e-05,5e-05,0.00011999999999999999,0.00026000000000000003,-0.00022999999999999998,6
25981,27191,0.0002,0.0001,2.9999999999999997e-05,-2.9999999999999997e-05,5e-05,0.00011999999999999999,0.00026000000000000003,-0.00022999999999999998,6
25982,27192,0.0002,0.0001,2.9999999999999997e-05,-2.9999999999999997e-05,5e-05,0.00011999999999999999,0.00026000000000000003,-0.00022999999999999998,6
25983,27193,0.0002,0.0001,2.9999999999999997e-05,-2.9999999999999997e-05,5e-05,0.00011999999999999999,0.00026000000000000003,-0.00022999999999999998,6
25984,27194,0.0002,0.0001,2.9999999999999997e-05,-2.9999999999999997e-05,5e-05,0.00011999999999999999,0.00026000000000000003,-0.00022999999999999998,6
25985,27195,0.0002,0.0001,2.9999999999999997e-05,-2.9999999999999997e-05,5e-05,0.00011999999999999999,0.00026000000000000003,-0.00022999999999999998,6
25986,27196,-0.00015,1e-05,-8e-05,0.0,1e-05,2.9999999999999997e-05,7e-05,0.00018,6
25987,27197,-0.00022,-7e-05,-7e-05,-2e-05,-1e-05,1e-05,-0.00016,-5.9999999999999995e-05,6
25988,27198,-0.00022,-7e-05,-7e-05,-2e-05,-1e-05,1e-05,-0.00016,-5.9999999999999995e-05,6
25989,27199,-0.00022,-7e-05,-7e-05,-2e-05,-1e-05,1e-05,-0.00016,-5.9999999999999995e-05,6
25990,27200,-0.00022,-7e-05,-7e-05,-2e-05,-1e-05,1e-05,-0.00016,-5.9999999999999995e-05,6
25991,27201,-0.00022,-7e-05,-7e-05,-2e-05,-1e-05,1e-05,-0.00016,-5.9999999999999995e-05,6
25992,27202,-0.00022,-7e-05,-7e-05,-2e-05,-1e-05,1e-05,-0.00016,-5.9999999999999995e-05,6
25993,27203,-0.00022,-7e-05,-7e-05,-2e-05,-1e-05,1e-05,-0.00016,-5.9999999999999995e-05,6
25994,27204,-0.00022,-7e-05,-7e-05,-2e-05,-1e-05,1e-05,-0.00016,-5.9999999999999995e-05,6
25995,27205,-0.00022,-7e-05,-7e-05,-2e-05,-1e-05,1e-05,-0.00016,-5.9999999999999995e-05,6
25996,27206,-0.00022,-7e-05,-7e-05,-2e-05,-1e-05,1e-05,-0.00016,-5.9999999999999995e-05,6
25997,27207,-0.00022,-7e-05,-7e-05,-2e-05,-1e-05,1e-05,-0.00016,-5.9999999999999995e-05,6
25998,27208,-0.00022,-7e-05,-7e-05,-2e-05,-1e-05,1e-05,-0.00016,-5.9999999999999995e-05,6
25999,27209,-0.00022,-7e-05,-7e-05,-2e-05,-1e-05,1e-05,-0.00016,-5.9999999999999995e-05,6
26000,27210,-0.00022,-7e-05,-7e-05,-2e-05,-1e-05,1e-05,-0.00016,-5.9999999999999995e-05,6
26001,27211,-0.00022,-7e-05,-7e-05,-2e-05,-1e-05,1e-05,-0.00016,-5.9999999999999995e-05,6
26002,27212,-0.00022,-7e-05,-7e-05,-2e-05,-1e-05,1e-05,-0.00016,-5.9999999999999995e-05,6
26003,27213,-0.00022,-7e-05,-7e-05,-2e-05,-1e-05,1e-05,-0.00016,-5.9999999999999995e-05,6
26004,27214,-0.00022,-7e-05,-7e-05,-2e-05,-1e-05,1e-05,-0.00016,-5.9999999999999995e-05,6
26005,27215,-0.00022,-7e-05,-7e-05,-2e-05,-1e-05,1e-05,-0.00016,-5.9999999999999995e-05,6
26006,27216,-0.00022,-7e-05,-7e-05,-2e-05,-1e-05,1e-05,-0.00016,-5.9999999999999995e-05,6
26007,27217,-0.00022,-7e-05,-7e-05,-2e-05,-1e-05,1e-05,-0.00016,-5.9999999999999995e-05,6
26008,27218,2.9999999999999997e-05,-2e-05,-4e-05,-2e-05,-4e-05,2.9999999999999997e-05,9e-05,0.00011999999999999999,6
26009,27219,-0.00014,-0.0001,0.0,-2.9999999999999997e-05,-5e-05,-8e-05,-0.00028,-0.00015,6
26010,27220,-0.00014,-0.0001,0.0,-2.9999999999999997e-05,-5e-05,-8e-05,-0.00028,-0.00015,6
26011,27221,-0.00014,-0.0001,0.0,-2.9999999999999997e-05,-5e-05,-8e-05,-0.00028,-0.00015,6
26012,27222,-0.00014,-0.0001,0.0,-2.9999999999999997e-05,-5e-05,-8e-05,-0.00028,-0.00015,6
26013,27223,-0.00014,-0.0001,0.0,-2.9999999999999997e-05,-5e-05,-8e-05,-0.00028,-0.00015,6
26014,27224,-0.00014,-0.0001,0.0,-2.9999999999999997e-05,-5e-05,-8e-05,-0.00028,-0.00015,6
26015,27225,-0.00014,-0.0001,0.0,-2.9999999999999997e-05,-5e-05,-8e-05,-0.00028,-0.00015,6
26016,27226,-0.00014,-0.0001,0.0,-2.9999999999999997e-05,-5e-05,-8e-05,-0.00028,-0.00015,6
26017,27227,-0.00014,-0.0001,0.0,-2.9999999999999997e-05,-5e-05,-8e-05,-0.00028,-0.00015,6
26018,27228,-0.00014,-0.0001,0.0,-2.9999999999999997e-05,-5e-05,-8e-05,-0.00028,-0.00015,6
26019,27229,-0.00014,-0.0001,0.0,-2.9999999999999997e-05,-5e-05,-8e-05,-0.00028,-0.00015,6
26020,27230,-0.00014,-0.0001,0.0,-2.9999999999999997e-05,-5e-05,-8e-05,-0.00028,-0.00015,6
26021,27231,-0.00014,-0.0001,0.0,-2.9999999999999997e-05,-5e-05,-8e-05,-0.00028,-0.00015,6
26022,27232,-1e-05,-0.0001,-5.9999999999999995e-05,-2.9999999999999997e-05,1e-05,8e-05,7e-05,0.00018999999999999998,6
26023,27233,-1e-05,-0.0001,-5.9999999999999995e-05,-2.9999999999999997e-05,1e-05,8e-05,7e-05,0.00018999999999999998,6
26024,27234,-1e-05,-0.0001,-5.9999999999999995e-05,-2.9999999999999997e-05,1e-05,8e-05,7e-05,0.00018999999999999998,6
26025,27235,-1e-05,-0.0001,-5.9999999999999995e-05,-2.9999999999999997e-05,1e-05,8e-05,7e-05,0.00018999999999999998,6
26026,27236,-1e-05,-0.0001,-5.9999999999999995e-05,-2.9999999999999997e-05,1e-05,8e-05,7e-05,0.00018999999999999998,6
26027,27238,-1e-05,-0.0001,-5.9999999999999995e-05,-2.9999999999999997e-05,1e-05,8e-05,7e-05,0.00018999999999999998,6
26028,27241,-2e-05,-0.0001,4e-05,4e-05,0.00011,0.00011999999999999999,2.9999999999999997e-05,-2.9999999999999997e-05,6
26029,27242,-2e-05,-0.0001,4e-05,4e-05,0.00011,0.00011999999999999999,2.9999999999999997e-05,-2.9999999999999997e-05,6
26030,27243,-2e-05,-0.0001,4e-05,4e-05,0.00011,0.00011999999999999999,2.9999999999999997e-05,-2.9999999999999997e-05,6
26031,27244,-2e-05,-0.0001,4e-05,4e-05,0.00011,0.00011999999999999999,2.9999999999999997e-05,-2.9999999999999997e-05,6
26032,27245,-2e-05,-0.0001,4e-05,4e-05,0.00011,0.00011999999999999999,2.9999999999999997e-05,-2.9999999999999997e-05,6
26033,27246,-2e-05,-0.0001,4e-05,4e-05,0.00011,0.00011999999999999999,2.9999999999999997e-05,-2.9999999999999997e-05,6
26034,27247,-2e-05,-0.0001,4e-05,4e-05,0.00011,0.00011999999999999999,2.9999999999999997e-05,-2.9999999999999997e-05,6
26035,27248,-2e-05,-0.0001,4e-05,4e-05,0.00011,0.00011999999999999999,2.9999999999999997e-05,-2.9999999999999997e-05,6
26036,27249,-2e-05,-0.0001,4e-05,4e-05,0.00011,0.00011999999999999999,2.9999999999999997e-05,-2.9999999999999997e-05,6
26037,27250,-2e-05,-0.0001,4e-05,4e-05,0.00011,0.00011999999999999999,2.9999999999999997e-05,-2.9999999999999997e-05,6
26038,27251,-2e-05,-0.0001,4e-05,4e-05,0.00011,0.00011999999999999999,2.9999999999999997e-05,-2.9999999999999997e-05,6
26039,27252,-2e-05,-0.0001,4e-05,4e-05,0.00011,0.00011999999999999999,2.9999999999999997e-05,-2.9999999999999997e-05,6
26040,27253,-2e-05,-0.0001,4e-05,4e-05,0.00011,0.00011999999999999999,2.9999999999999997e-05,-2.9999999999999997e-05,6
26041,27254,-2e-05,-0.0001,4e-05,4e-05,0.00011,0.00011999999999999999,2.9999999999999997e-05,-2.9999999999999997e-05,6
26042,27255,-2e-05,-0.0001,4e-05,4e-05,0.00011,0.00011999999999999999,2.9999999999999997e-05,-2.9999999999999997e-05,6
26043,27256,-2e-05,-0.0001,4e-05,4e-05,0.00011,0.00011999999999999999,2.9999999999999997e-05,-2.9999999999999997e-05,6
26044,27257,-2e-05,-0.0001,4e-05,4e-05,0.00011,0.00011999999999999999,2.9999999999999997e-05,-2.9999999999999997e-05,6
26045,27258,-2e-05,-0.0001,4e-05,4e-05,0.00011,0.00011999999999999999,2.9999999999999997e-05,-2.9999999999999997e-05,6
26046,27259,-2e-05,-0.0001,4e-05,4e-05,0.00011,0.00011999999999999999,2.9999999999999997e-05,-2.9999999999999997e-05,6
26047,27260,-2e-05,-0.0001,4e-05,4e-05,0.00011,0.00011999999999999999,2.9999999999999997e-05,-2.9999999999999997e-05,6
26048,27261,-2e-05,-0.0001,4e-05,4e-05,0.00011,0.00011999999999999999,2.9999999999999997e-05,-2.9999999999999997e-05,6
26049,27262,-2e-05,-0.0001,4e-05,4e-05,0.00011,0.00011999999999999999,2.9999999999999997e-05,-2.9999999999999997e-05,6
26050,27263,-2e-05,-0.0001,4e-05,4e-05,0.00011,0.00011999999999999999,2.9999999999999997e-05,-2.9999999999999997e-05,6
26051,27264,-2e-05,-0.0001,4e-05,4e-05,0.00011,0.00011999999999999999,2.9999999999999997e-05,-2.9999999999999997e-05,6
26052,27265,-2e-05,-0.0001,4e-05,4e-05,0.00011,0.00011999999999999999,2.9999999999999997e-05,-2.9999999999999997e-05,6
26053,27266,-2e-05,-0.0001,4e-05,4e-05,0.00011,0.00011999999999999999,2.9999999999999997e-05,-2.9999999999999997e-05,6
26054,27267,-2e-05,-0.0001,4e-05,4e-05,0.00011,0.00011999999999999999,2.9999999999999997e-05,-2.9999999999999997e-05,6
26055,27268,-2e-05,-0.0001,4e-05,4e-05,0.00011,0.00011999999999999999,2.9999999999999997e-05,-2.9999999999999997e-05,6
26056,27269,-2e-05,-0.0001,4e-05,4e-05,0.00011,0.00011999999999999999,2.9999999999999997e-05,-2.9999999999999997e-05,6
26057,27270,-2e-05,-0.0001,4e-05,4e-05,0.00011,0.00011999999999999999,2.9999999999999997e-05,-2.9999999999999997e-05,6
26058,27271,0.00011,-5e-05,-1e-05,-2.9999999999999997e-05,-0.0001,-0.0001,-5e-05,0.00022,6
26059,27272,0.00011,-5e-05,-1e-05,-2.9999999999999997e-05,-0.0001,-0.0001,-5e-05,0.00022,6
26060,27273,0.00011,-5e-05,-1e-05,-2.9999999999999997e-05,-0.0001,-0.0001,-5e-05,0.00022,6
26061,27274,0.00011,-5e-05,-1e-05,-2.9999999999999997e-05,-0.0001,-0.0001,-5e-05,0.00022,6
26062,27275,0.00011,-5e-05,-1e-05,-2.9999999999999997e-05,-0.0001,-0.0001,-5e-05,0.00022,6
26063,27276,0.00011,-5e-05,-1e-05,-2.9999999999999997e-05,-0.0001,-0.0001,-5e-05,0.00022,6
26064,27277,0.00011,-5e-05,-1e-05,-2.9999999999999997e-05,-0.0001,-0.0001,-5e-05,0.00022,6
26065,27278,-0.00014,-0.00011999999999999999,-2.9999999999999997e-05,-2.9999999999999997e-05,-0.00014,-0.00011,-0.00013000000000000002,-0.00056,6
26066,27279,-0.00014,-0.00011999999999999999,-2.9999999999999997e-05,-2.9999999999999997e-05,-0.00014,-0.00011,-0.00013000000000000002,-0.00056,6
26067,27280,-0.00014,-0.00011999999999999999,-2.9999999999999997e-05,-2.9999999999999997e-05,-0.00014,-0.00011,-0.00013000000000000002,-0.00056,6
26068,27281,-0.00014,-0.00011999999999999999,-2.9999999999999997e-05,-2.9999999999999997e-05,-0.00014,-0.00011,-0.00013000000000000002,-0.00056,6
26069,27282,-0.00014,-0.00011999999999999999,-2.9999999999999997e-05,-2.9999999999999997e-05,-0.00014,-0.00011,-0.00013000000000000002,-0.00056,6
26070,27283,-0.00014,-0.00011999999999999999,-2.9999999999999997e-05,-2.9999999999999997e-05,-0.00014,-0.00011,-0.00013000000000000002,-0.00056,6
26071,27284,-0.00014,-0.00011999999999999999,-2.9999999999999997e-05,-2.9999999999999997e-05,-0.00014,-0.00011,-0.00013000000000000002,-0.00056,6
26072,27285,0.00013000000000000002,4e-05,-1e-05,2e-05,1e-05,-2e-05,0.0,-8e-05,6
26073,27286,0.00013000000000000002,4e-05,-1e-05,2e-05,1e-05,-2e-05,0.0,-8e-05,6
26074,27289,0.00013000000000000002,4e-05,-1e-05,2e-05,1e-05,-2e-05,0.0,-8e-05,6
26075,27290,0.00013000000000000002,4e-05,-1e-05,2e-05,1e-05,-2e-05,0.0,-8e-05,6
26076,27291,0.00013000000000000002,4e-05,-1e-05,2e-05,1e-05,-2e-05,0.0,-8e-05,6
26077,27292,0.00013000000000000002,4e-05,-1e-05,2e-05,1e-05,-2e-05,0.0,-8e-05,6
26078,27293,0.00013000000000000002,4e-05,-1e-05,2e-05,1e-05,-2e-05,0.0,-8e-05,6
26079,27294,0.00013000000000000002,4e-05,-1e-05,2e-05,1e-05,-2e-05,0.0,-8e-05,6
26080,27295,0.00013000000000000002,4e-05,-1e-05,2e-05,1e-05,-2e-05,0.0,-8e-05,6
26081,27296,0.00013000000000000002,4e-05,-1e-05,2e-05,1e-05,-2e-05,0.0,-8e-05,6
26082,27297,0.00013000000000000002,4e-05,-1e-05,2e-05,1e-05,-2e-05,0.0,-8e-05,6
26083,27298,0.00013000000000000002,4e-05,-1e-05,2e-05,1e-05,-2e-05,0.0,-8e-05,6
26084,27299,0.00013000000000000002,4e-05,-1e-05,2e-05,1e-05,-2e-05,0.0,-8e-05,6
26085,27300,0.00013000000000000002,4e-05,-1e-05,2e-05,1e-05,-2e-05,0.0,-8e-05,6
26086,27301,0.00013000000000000002,4e-05,-1e-05,2e-05,1e-05,-2e-05,0.0,-8e-05,6
26087,27302,0.00013000000000000002,4e-05,-1e-05,2e-05,1e-05,-2e-05,0.0,-8e-05,6
26088,27303,0.00013000000000000002,4e-05,-1e-05,2e-05,1e-05,-2e-05,0.0,-8e-05,6
26089,27304,0.00013000000000000002,4e-05,-1e-05,2e-05,1e-05,-2e-05,0.0,-8e-05,6
26090,27305,0.00013000000000000002,4e-05,-1e-05,2e-05,1e-05,-2e-05,0.0,-8e-05,6
26091,27306,0.00013000000000000002,4e-05,-1e-05,2e-05,1e-05,-2e-05,0.0,-8e-05,6
26092,27307,0.00013000000000000002,4e-05,-1e-05,2e-05,1e-05,-2e-05,0.0,-8e-05,6
26093,27308,0.00022,0.00026000000000000003,0.0001,5.9999999999999995e-05,1e-05,-9e-05,-5.9999999999999995e-05,2e-05,6
26094,27309,5.9999999999999995e-05,1e-05,-2.9999999999999997e-05,-5e-05,-9e-05,-7e-05,5.9999999999999995e-05,0.0,6
26095,27310,5.9999999999999995e-05,1e-05,-2.9999999999999997e-05,-5e-05,-9e-05,-7e-05,5.9999999999999995e-05,0.0,6
26096,27311,5.9999999999999995e-05,1e-05,-2.9999999999999997e-05,-5e-05,-9e-05,-7e-05,5.9999999999999995e-05,0.0,6
26097,27312,5.9999999999999995e-05,1e-05,-2.9999999999999997e-05,-5e-05,-9e-05,-7e-05,5.9999999999999995e-05,0.0,6
26098,27313,5.9999999999999995e-05,1e-05,-2.9999999999999997e-05,-5e-05,-9e-05,-7e-05,5.9999999999999995e-05,0.0,6
26099,27314,5.9999999999999995e-05,1e-05,-2.9999999999999997e-05,-5e-05,-9e-05,-7e-05,5.9999999999999995e-05,0.0,6
26100,27315,5.9999999999999995e-05,1e-05,-2.9999999999999997e-05,-5e-05,-9e-05,-7e-05,5.9999999999999995e-05,0.0,6
26101,27316,-0.00015,-2.9999999999999997e-05,-4e-05,-2.9999999999999997e-05,-5e-05,-2e-05,-2.9999999999999997e-05,-0.0001,6
26102,27317,-0.00015,-2.9999999999999997e-05,-4e-05,-2.9999999999999997e-05,-5e-05,-2e-05,-2.9999999999999997e-05,-0.0001,6
26103,27318,-0.00015,-2.9999999999999997e-05,-4e-05,-2.9999999999999997e-05,-5e-05,-2e-05,-2.9999999999999997e-05,-0.0001,6
26104,27319,-0.00015,-2.9999999999999997e-05,-4e-05,-2.9999999999999997e-05,-5e-05,-2e-05,-2.9999999999999997e-05,-0.0001,6
26105,27320,-0.00015,-2.9999999999999997e-05,-4e-05,-2.9999999999999997e-05,-5e-05,-2e-05,-2.9999999999999997e-05,-0.0001,6
26106,27321,-0.00015,-2.9999999999999997e-05,-4e-05,-2.9999999999999997e-05,-5e-05,-2e-05,-2.9999999999999997e-05,-0.0001,6
26107,27322,-0.00015,-2.9999999999999997e-05,-4e-05,-2.9999999999999997e-05,-5e-05,-2e-05,-2.9999999999999997e-05,-0.0001,6
26108,27323,-0.00015,-2.9999999999999997e-05,-4e-05,-2.9999999999999997e-05,-5e-05,-2e-05,-2.9999999999999997e-05,-0.0001,6
26109,27324,-0.00015,-2.9999999999999997e-05,-4e-05,-2.9999999999999997e-05,-5e-05,-2e-05,-2.9999999999999997e-05,-0.0001,6
26110,27325,-0.00015,-2.9999999999999997e-05,-4e-05,-2.9999999999999997e-05,-5e-05,-2e-05,-2.9999999999999997e-05,-0.0001,6
26111,27326,-0.00015,-2.9999999999999997e-05,-4e-05,-2.9999999999999997e-05,-5e-05,-2e-05,-2.9999999999999997e-05,-0.0001,6
26112,27327,-0.00015,-2.9999999999999997e-05,-4e-05,-2.9999999999999997e-05,-5e-05,-2e-05,-2.9999999999999997e-05,-0.0001,6
26113,27329,-0.00015,-2.9999999999999997e-05,-4e-05,-2.9999999999999997e-05,-5e-05,-2e-05,-2.9999999999999997e-05,-0.0001,6
26114,27330,-0.00015,-2.9999999999999997e-05,-4e-05,-2.9999999999999997e-05,-5e-05,-2e-05,-2.9999999999999997e-05,-0.0001,6
26115,27331,-0.00015,-2.9999999999999997e-05,-4e-05,-2.9999999999999997e-05,-5e-05,-2e-05,-2.9999999999999997e-05,-0.0001,6
26116,27332,-0.00015,-2.9999999999999997e-05,-4e-05,-2.9999999999999997e-05,-5e-05,-2e-05,-2.9999999999999997e-05,-0.0001,6
26117,27333,-0.00015,-2.9999999999999997e-05,-4e-05,-2.9999999999999997e-05,-5e-05,-2e-05,-2.9999999999999997e-05,-0.0001,6
26118,27334,-0.00015,-2.9999999999999997e-05,-4e-05,-2.9999999999999997e-05,-5e-05,-2e-05,-2.9999999999999997e-05,-0.0001,6
26119,27335,-0.00015,-2.9999999999999997e-05,-4e-05,-2.9999999999999997e-05,-5e-05,-2e-05,-2.9999999999999997e-05,-0.0001,6
26120,27336,-0.00015,-2.9999999999999997e-05,-4e-05,-2.9999999999999997e-05,-5e-05,-2e-05,-2.9999999999999997e-05,-0.0001,6
26121,27339,4e-05,5e-05,0.0,0.0,4e-05,-4e-05,-4e-05,2.9999999999999997e-05,6
26122,27340,0.00013000000000000002,1e-05,0.0,0.0,-1e-05,1e-05,0.00018999999999999998,0.00025,6
26123,27341,0.00013000000000000002,1e-05,0.0,0.0,-1e-05,1e-05,0.00018999999999999998,0.00025,6
26124,27342,0.00013000000000000002,1e-05,0.0,0.0,-1e-05,1e-05,0.00018999999999999998,0.00025,6
26125,27343,0.00013000000000000002,1e-05,0.0,0.0,-1e-05,1e-05,0.00018999999999999998,0.00025,6
26126,27344,0.00013000000000000002,1e-05,0.0,0.0,-1e-05,1e-05,0.00018999999999999998,0.00025,6
26127,27345,0.00013000000000000002,1e-05,0.0,0.0,-1e-05,1e-05,0.00018999999999999998,0.00025,6
26128,27346,0.00013000000000000002,1e-05,0.0,0.0,-1e-05,1e-05,0.00018999999999999998,0.00025,6
26129,27347,0.00013000000000000002,1e-05,0.0,0.0,-1e-05,1e-05,0.00018999999999999998,0.00025,6
26130,27348,0.00013000000000000002,1e-05,0.0,0.0,-1e-05,1e-05,0.00018999999999999998,0.00025,6
26131,27349,0.00013000000000000002,1e-05,0.0,0.0,-1e-05,1e-05,0.00018999999999999998,0.00025,6
26132,27350,0.00013000000000000002,1e-05,0.0,0.0,-1e-05,1e-05,0.00018999999999999998,0.00025,6
26133,27351,0.00013000000000000002,1e-05,0.0,0.0,-1e-05,1e-05,0.00018999999999999998,0.00025,6
26134,27352,0.00013000000000000002,1e-05,0.0,0.0,-1e-05,1e-05,0.00018999999999999998,0.00025,6
26135,27353,0.00013000000000000002,1e-05,0.0,0.0,-1e-05,1e-05,0.00018999999999999998,0.00025,6
26136,27354,0.00013000000000000002,1e-05,0.0,0.0,-1e-05,1e-05,0.00018999999999999998,0.00025,6
26137,27355,0.00013000000000000002,1e-05,0.0,0.0,-1e-05,1e-05,0.00018999999999999998,0.00025,6
26138,27356,0.00013000000000000002,1e-05,0.0,0.0,-1e-05,1e-05,0.00018999999999999998,0.00025,6
26139,27357,0.00013000000000000002,1e-05,0.0,0.0,-1e-05,1e-05,0.00018999999999999998,0.00025,6
26140,27358,0.00013000000000000002,1e-05,0.0,0.0,-1e-05,1e-05,0.00018999999999999998,0.00025,6
26141,27359,0.00013000000000000002,1e-05,0.0,0.0,-1e-05,1e-05,0.00018999999999999998,0.00025,6
26142,27360,0.00013000000000000002,1e-05,0.0,0.0,-1e-05,1e-05,0.00018999999999999998,0.00025,6
26143,27361,0.0002,2.9999999999999997e-05,-4e-05,-5e-05,-8e-05,-0.0001,8e-05,7e-05,6
26144,27362,0.0002,2.9999999999999997e-05,-4e-05,-5e-05,-8e-05,-0.0001,8e-05,7e-05,6
26145,27363,0.0002,2.9999999999999997e-05,-4e-05,-5e-05,-8e-05,-0.0001,8e-05,7e-05,6
26146,27364,0.0002,2.9999999999999997e-05,-4e-05,-5e-05,-8e-05,-0.0001,8e-05,7e-05,6
26147,27365,0.0002,2.9999999999999997e-05,-4e-05,-5e-05,-8e-05,-0.0001,8e-05,7e-05,6
26148,27366,0.0002,2.9999999999999997e-05,-4e-05,-5e-05,-8e-05,-0.0001,8e-05,7e-05,6
26149,27367,0.0002,2.9999999999999997e-05,-4e-05,-5e-05,-8e-05,-0.0001,8e-05,7e-05,6
26150,27368,0.0002,2.9999999999999997e-05,-4e-05,-5e-05,-8e-05,-0.0001,8e-05,7e-05,6
26151,27369,0.0002,2.9999999999999997e-05,-4e-05,-5e-05,-8e-05,-0.0001,8e-05,7e-05,6
26152,27370,0.0002,2.9999999999999997e-05,-4e-05,-5e-05,-8e-05,-0.0001,8e-05,7e-05,6
26153,27371,0.0002,2.9999999999999997e-05,-4e-05,-5e-05,-8e-05,-0.0001,8e-05,7e-05,6
26154,27372,0.0002,2.9999999999999997e-05,-4e-05,-5e-05,-8e-05,-0.0001,8e-05,7e-05,6
26155,27373,0.0002,2.9999999999999997e-05,-4e-05,-5e-05,-8e-05,-0.0001,8e-05,7e-05,6
26156,27374,0.0002,2.9999999999999997e-05,-4e-05,-5e-05,-8e-05,-0.0001,8e-05,7e-05,6
26157,27375,0.0002,2.9999999999999997e-05,-4e-05,-5e-05,-8e-05,-0.0001,8e-05,7e-05,6
26158,27376,-0.00027,-0.0002,-8e-05,-8e-05,-0.00011999999999999999,-0.0001,-9e-05,-0.00028,6
26159,27377,-0.00021,-0.00018999999999999998,-0.00015,-0.00011999999999999999,-0.00011,-0.00018,-0.0001,4e-05,6
26160,27378,-0.00021,-0.00018999999999999998,-0.00015,-0.00011999999999999999,-0.00011,-0.00018,-0.0001,4e-05,6
26161,27379,-0.00021,-0.00018999999999999998,-0.00015,-0.00011999999999999999,-0.00011,-0.00018,-0.0001,4e-05,6
26162,27380,-0.00021,-0.00018999999999999998,-0.00015,-0.00011999999999999999,-0.00011,-0.00018,-0.0001,4e-05,6
26163,27381,-0.00021,-0.00018999999999999998,-0.00015,-0.00011999999999999999,-0.00011,-0.00018,-0.0001,4e-05,6
26164,27382,-0.00021,-0.00018999999999999998,-0.00015,-0.00011999999999999999,-0.00011,-0.00018,-0.0001,4e-05,6
26165,27383,-0.00021,-0.00018999999999999998,-0.00015,-0.00011999999999999999,-0.00011,-0.00018,-0.0001,4e-05,6
26166,27384,-0.00021,-0.00018999999999999998,-0.00015,-0.00011999999999999999,-0.00011,-0.00018,-0.0001,4e-05,6
26167,27385,-0.00021,-0.00018999999999999998,-0.00015,-0.00011999999999999999,-0.00011,-0.00018,-0.0001,4e-05,6
26168,27386,-0.00021,-0.00018999999999999998,-0.00015,-0.00011999999999999999,-0.00011,-0.00018,-0.0001,4e-05,6
26169,27389,-0.00021,-0.00018999999999999998,-0.00015,-0.00011999999999999999,-0.00011,-0.00018,-0.0001,4e-05,6
26170,27390,-0.00021,-0.00018999999999999998,-0.00015,-0.00011999999999999999,-0.00011,-0.00018,-0.0001,4e-05,6
26171,27391,-0.00021,-0.00018999999999999998,-0.00015,-0.00011999999999999999,-0.00011,-0.00018,-0.0001,4e-05,6
26172,27392,-0.00021,-0.00018999999999999998,-0.00015,-0.00011999999999999999,-0.00011,-0.00018,-0.0001,4e-05,6
26173,27393,-0.00021,-0.00018999999999999998,-0.00015,-0.00011999999999999999,-0.00011,-0.00018,-0.0001,4e-05,6
26174,27394,-0.00021,-0.00018999999999999998,-0.00015,-0.00011999999999999999,-0.00011,-0.00018,-0.0001,4e-05,6
26175,27395,-0.00021,-0.00018999999999999998,-0.00015,-0.00011999999999999999,-0.00011,-0.00018,-0.0001,4e-05,6
26176,27396,-0.00021,-0.00018999999999999998,-0.00015,-0.00011999999999999999,-0.00011,-0.00018,-0.0001,4e-05,6
26177,27397,-0.00021,-0.00018999999999999998,-0.00015,-0.00011999999999999999,-0.00011,-0.00018,-0.0001,4e-05,6
26178,27398,-8e-05,-2.9999999999999997e-05,-7e-05,-7e-05,-0.00014,-0.00016,5e-05,0.00016999999999999999,6
26179,27399,-8e-05,-2.9999999999999997e-05,-7e-05,-7e-05,-0.00014,-0.00016,5e-05,0.00016999999999999999,6
26180,27400,0.00016,0.00013000000000000002,2.9999999999999997e-05,4e-05,0.00011999999999999999,0.00015,0.00027,0.00033999999999999997,6
26181,27401,0.00016,0.00013000000000000002,2.9999999999999997e-05,4e-05,0.00011999999999999999,0.00015,0.00027,0.00033999999999999997,6
26182,27402,0.00016,0.00013000000000000002,2.9999999999999997e-05,4e-05,0.00011999999999999999,0.00015,0.00027,0.00033999999999999997,6
26183,27403,0.00016,0.00013000000000000002,2.9999999999999997e-05,4e-05,0.00011999999999999999,0.00015,0.00027,0.00033999999999999997,6
26184,27404,0.00016,0.00013000000000000002,2.9999999999999997e-05,4e-05,0.00011999999999999999,0.00015,0.00027,0.00033999999999999997,6
26185,27405,0.00016,0.00013000000000000002,2.9999999999999997e-05,4e-05,0.00011999999999999999,0.00015,0.00027,0.00033999999999999997,6
26186,27406,0.00016,0.00013000000000000002,2.9999999999999997e-05,4e-05,0.00011999999999999999,0.00015,0.00027,0.00033999999999999997,6
26187,27407,0.00016,0.00013000000000000002,2.9999999999999997e-05,4e-05,0.00011999999999999999,0.00015,0.00027,0.00033999999999999997,6
26188,27408,0.00016,0.00013000000000000002,2.9999999999999997e-05,4e-05,0.00011999999999999999,0.00015,0.00027,0.00033999999999999997,6
26189,27409,0.00016,0.00013000000000000002,2.9999999999999997e-05,4e-05,0.00011999999999999999,0.00015,0.00027,0.00033999999999999997,6
26190,27410,0.00016,0.00013000000000000002,2.9999999999999997e-05,4e-05,0.00011999999999999999,0.00015,0.00027,0.00033999999999999997,6
26191,27411,0.00016,0.00013000000000000002,2.9999999999999997e-05,4e-05,0.00011999999999999999,0.00015,0.00027,0.00033999999999999997,6
26192,27412,-0.00014,4e-05,2.9999999999999997e-05,1e-05,-4e-05,0.00011,-4e-05,0.0001,6
26193,27413,-0.00014,4e-05,2.9999999999999997e-05,1e-05,-4e-05,0.00011,-4e-05,0.0001,6
26194,27414,-0.00014,4e-05,2.9999999999999997e-05,1e-05,-4e-05,0.00011,-4e-05,0.0001,6
26195,27415,-0.00014,4e-05,2.9999999999999997e-05,1e-05,-4e-05,0.00011,-4e-05,0.0001,6
26196,27416,-0.00014,4e-05,2.9999999999999997e-05,1e-05,-4e-05,0.00011,-4e-05,0.0001,6
26197,27417,-0.00014,4e-05,2.9999999999999997e-05,1e-05,-4e-05,0.00011,-4e-05,0.0001,6
26198,27418,-0.00014,4e-05,2.9999999999999997e-05,1e-05,-4e-05,0.00011,-4e-05,0.0001,6
26199,27419,-0.00014,4e-05,2.9999999999999997e-05,1e-05,-4e-05,0.00011,-4e-05,0.0001,6
26200,27420,-0.00014,4e-05,2.9999999999999997e-05,1e-05,-4e-05,0.00011,-4e-05,0.0001,6
26201,27421,1e-05,1e-05,9e-05,2e-05,-2.9999999999999997e-05,-4e-05,9e-05,0.00037999999999999997,6
26202,27422,1e-05,1e-05,9e-05,2e-05,-2.9999999999999997e-05,-4e-05,9e-05,0.00037999999999999997,6
26203,27423,1e-05,1e-05,9e-05,2e-05,-2.9999999999999997e-05,-4e-05,9e-05,0.00037999999999999997,6
26204,27424,1e-05,1e-05,9e-05,2e-05,-2.9999999999999997e-05,-4e-05,9e-05,0.00037999999999999997,6
26205,27425,1e-05,1e-05,9e-05,2e-05,-2.9999999999999997e-05,-4e-05,9e-05,0.00037999999999999997,6
26206,27426,1e-05,1e-05,9e-05,2e-05,-2.9999999999999997e-05,-4e-05,9e-05,0.00037999999999999997,6
26207,27427,1e-05,1e-05,9e-05,2e-05,-2.9999999999999997e-05,-4e-05,9e-05,0.00037999999999999997,6
26208,27428,1e-05,1e-05,9e-05,2e-05,-2.9999999999999997e-05,-4e-05,9e-05,0.00037999999999999997,6
26209,27429,1e-05,1e-05,9e-05,2e-05,-2.9999999999999997e-05,-4e-05,9e-05,0.00037999999999999997,6
26210,27430,1e-05,1e-05,9e-05,2e-05,-2.9999999999999997e-05,-4e-05,9e-05,0.00037999999999999997,6
26211,27431,1e-05,1e-05,9e-05,2e-05,-2.9999999999999997e-05,-4e-05,9e-05,0.00037999999999999997,6
26212,27432,1e-05,1e-05,9e-05,2e-05,-2.9999999999999997e-05,-4e-05,9e-05,0.00037999999999999997,6
26213,27433,1e-05,1e-05,9e-05,2e-05,-2.9999999999999997e-05,-4e-05,9e-05,0.00037999999999999997,6
26214,27434,1e-05,1e-05,9e-05,2e-05,-2.9999999999999997e-05,-4e-05,9e-05,0.00037999999999999997,6
26215,27435,1e-05,1e-05,9e-05,2e-05,-2.9999999999999997e-05,-4e-05,9e-05,0.00037999999999999997,6
26216,27436,-2e-05,-7e-05,-5.9999999999999995e-05,-2.9999999999999997e-05,-0.0001,-0.00014,5.9999999999999995e-05,5e-05,6
26217,27439,-2e-05,7e-05,1e-05,0.0,-5.9999999999999995e-05,7e-05,0.0,-7e-05,6
26218,27440,-2e-05,7e-05,1e-05,0.0,-5.9999999999999995e-05,7e-05,0.0,-7e-05,6
26219,27441,-2e-05,7e-05,1e-05,0.0,-5.9999999999999995e-05,7e-05,0.0,-7e-05,6
26220,27442,-2e-05,7e-05,1e-05,0.0,-5.9999999999999995e-05,7e-05,0.0,-7e-05,6
26221,27443,-2e-05,7e-05,1e-05,0.0,-5.9999999999999995e-05,7e-05,0.0,-7e-05,6
26222,27444,-2e-05,7e-05,1e-05,0.0,-5.9999999999999995e-05,7e-05,0.0,-7e-05,6
26223,27445,-2e-05,7e-05,1e-05,0.0,-5.9999999999999995e-05,7e-05,0.0,-7e-05,6
26224,27446,-2e-05,7e-05,1e-05,0.0,-5.9999999999999995e-05,7e-05,0.0,-7e-05,6
26225,27447,-2e-05,7e-05,1e-05,0.0,-5.9999999999999995e-05,7e-05,0.0,-7e-05,6
26226,27448,-2e-05,7e-05,1e-05,0.0,-5.9999999999999995e-05,7e-05,0.0,-7e-05,6
26227,27449,-2e-05,7e-05,1e-05,0.0,-5.9999999999999995e-05,7e-05,0.0,-7e-05,6
26228,27450,-2e-05,7e-05,1e-05,0.0,-5.9999999999999995e-05,7e-05,0.0,-7e-05,6
26229,27451,-2e-05,7e-05,1e-05,0.0,-5.9999999999999995e-05,7e-05,0.0,-7e-05,6
26230,27452,-2e-05,7e-05,1e-05,0.0,-5.9999999999999995e-05,7e-05,0.0,-7e-05,6
26231,27453,-2e-05,7e-05,1e-05,0.0,-5.9999999999999995e-05,7e-05,0.0,-7e-05,6
26232,27454,-2e-05,7e-05,1e-05,0.0,-5.9999999999999995e-05,7e-05,0.0,-7e-05,6
26233,27455,-2e-05,7e-05,1e-05,0.0,-5.9999999999999995e-05,7e-05,0.0,-7e-05,6
26234,27456,-2e-05,7e-05,1e-05,0.0,-5.9999999999999995e-05,7e-05,0.0,-7e-05,6
26235,27457,-2e-05,7e-05,1e-05,0.0,-5.9999999999999995e-05,7e-05,0.0,-7e-05,6
26236,27458,-2e-05,7e-05,1e-05,0.0,-5.9999999999999995e-05,7e-05,0.0,-7e-05,6
26237,27459,-2e-05,7e-05,1e-05,0.0,-5.9999999999999995e-05,7e-05,0.0,-7e-05,6
26238,27460,-2e-05,7e-05,1e-05,0.0,-5.9999999999999995e-05,7e-05,0.0,-7e-05,6
26239,27461,-2e-05,7e-05,1e-05,0.0,-5.9999999999999995e-05,7e-05,0.0,-7e-05,6
26240,27462,-2e-05,7e-05,1e-05,0.0,-5.9999999999999995e-05,7e-05,0.0,-7e-05,6
26241,27463,-2e-05,7e-05,1e-05,0.0,-5.9999999999999995e-05,7e-05,0.0,-7e-05,6
26242,27464,-2e-05,7e-05,1e-05,0.0,-5.9999999999999995e-05,7e-05,0.0,-7e-05,6
26243,27465,-2e-05,7e-05,1e-05,0.0,-5.9999999999999995e-05,7e-05,0.0,-7e-05,6
26244,27466,-0.00015,-0.00013000000000000002,-8e-05,-0.00011999999999999999,-0.00022999999999999998,-0.00015,-0.00013000000000000002,8e-05,6
26245,27467,-0.00015,-0.00013000000000000002,-8e-05,-0.00011999999999999999,-0.00022999999999999998,-0.00015,-0.00013000000000000002,8e-05,6
26246,27468,-0.00016,-0.00011,-5e-05,-2.9999999999999997e-05,-5.9999999999999995e-05,-5e-05,4e-05,0.00011999999999999999,6
26247,27469,-0.00016,-0.00011,-5e-05,-2.9999999999999997e-05,-5.9999999999999995e-05,-5e-05,4e-05,0.00011999999999999999,6
26248,27470,-0.00016,-0.00011,-5e-05,-2.9999999999999997e-05,-5.9999999999999995e-05,-5e-05,4e-05,0.00011999999999999999,6
26249,27471,-0.00016,-0.00011,-5e-05,-2.9999999999999997e-05,-5.9999999999999995e-05,-5e-05,4e-05,0.00011999999999999999,6
26250,27472,-0.00016,-0.00011,-5e-05,-2.9999999999999997e-05,-5.9999999999999995e-05,-5e-05,4e-05,0.00011999999999999999,6
26251,27473,-0.00016,-0.00011,-5e-05,-2.9999999999999997e-05,-5.9999999999999995e-05,-5e-05,4e-05,0.00011999999999999999,6
26252,27474,-0.00016,-0.00011,-5e-05,-2.9999999999999997e-05,-5.9999999999999995e-05,-5e-05,4e-05,0.00011999999999999999,6
26253,27475,-0.00016,-0.00011,-5e-05,-2.9999999999999997e-05,-5.9999999999999995e-05,-5e-05,4e-05,0.00011999999999999999,6
26254,27476,-0.00016,-0.00011,-5e-05,-2.9999999999999997e-05,-5.9999999999999995e-05,-5e-05,4e-05,0.00011999999999999999,6
26255,27477,-0.00016,-0.00011,-5e-05,-2.9999999999999997e-05,-5.9999999999999995e-05,-5e-05,4e-05,0.00011999999999999999,6
26256,27478,-0.00016,-0.00011,-5e-05,-2.9999999999999997e-05,-5.9999999999999995e-05,-5e-05,4e-05,0.00011999999999999999,6
26257,27479,-0.00016,-0.00011,-5e-05,-2.9999999999999997e-05,-5.9999999999999995e-05,-5e-05,4e-05,0.00011999999999999999,6
26258,27480,-0.00016,-0.00011,-5e-05,-2.9999999999999997e-05,-5.9999999999999995e-05,-5e-05,4e-05,0.00011999999999999999,6
26259,27481,-0.00016,-0.00011,-5e-05,-2.9999999999999997e-05,-5.9999999999999995e-05,-5e-05,4e-05,0.00011999999999999999,6
26260,27482,-0.00016,-0.00011,-5e-05,-2.9999999999999997e-05,-5.9999999999999995e-05,-5e-05,4e-05,0.00011999999999999999,6
26261,27483,-0.00016,-0.00011,-5e-05,-2.9999999999999997e-05,-5.9999999999999995e-05,-5e-05,4e-05,0.00011999999999999999,6
26262,27484,-0.00016,-0.00011,-5e-05,-2.9999999999999997e-05,-5.9999999999999995e-05,-5e-05,4e-05,0.00011999999999999999,6
26263,27485,-0.00016,-0.00011,-5e-05,-2.9999999999999997e-05,-5.9999999999999995e-05,-5e-05,4e-05,0.00011999999999999999,6
26264,27486,-0.00016,-0.00011,-5e-05,-2.9999999999999997e-05,-5.9999999999999995e-05,-5e-05,4e-05,0.00011999999999999999,6
26265,27488,-0.00016,-0.00011,-5e-05,-2.9999999999999997e-05,-5.9999999999999995e-05,-5e-05,4e-05,0.00011999999999999999,6
26266,27489,0.00014,2.9999999999999997e-05,0.0,4e-05,2.9999999999999997e-05,0.0001,0.0001,-5e-05,6
26267,27490,0.00025,0.00016,-2e-05,-2e-05,2.9999999999999997e-05,5e-05,-2.9999999999999997e-05,4e-05,6
26268,27491,0.00025,0.00016,-2e-05,-2e-05,2.9999999999999997e-05,5e-05,-2.9999999999999997e-05,4e-05,6
26269,27492,0.00025,0.00016,-2e-05,-2e-05,2.9999999999999997e-05,5e-05,-2.9999999999999997e-05,4e-05,6
26270,27493,0.00025,0.00016,-2e-05,-2e-05,2.9999999999999997e-05,5e-05,-2.9999999999999997e-05,4e-05,6
26271,27494,0.00025,0.00016,-2e-05,-2e-05,2.9999999999999997e-05,5e-05,-2.9999999999999997e-05,4e-05,6
26272,27495,0.00025,0.00016,-2e-05,-2e-05,2.9999999999999997e-05,5e-05,-2.9999999999999997e-05,4e-05,6
26273,27496,5.9999999999999995e-05,2e-05,2.9999999999999997e-05,-2e-05,-5.9999999999999995e-05,-2e-05,0.00013000000000000002,0.00025,6
26274,27497,-7e-05,0.00016999999999999999,9e-05,2.9999999999999997e-05,8e-05,-4e-05,-0.00013000000000000002,-0.00025,6
26275,27498,-7e-05,0.00016999999999999999,9e-05,2.9999999999999997e-05,8e-05,-4e-05,-0.00013000000000000002,-0.00025,6
26276,27499,-7e-05,0.00016999999999999999,9e-05,2.9999999999999997e-05,8e-05,-4e-05,-0.00013000000000000002,-0.00025,6
26277,27500,-7e-05,0.00016999999999999999,9e-05,2.9999999999999997e-05,8e-05,-4e-05,-0.00013000000000000002,-0.00025,6
26278,27501,-7e-05,0.00016999999999999999,9e-05,2.9999999999999997e-05,8e-05,-4e-05,-0.00013000000000000002,-0.00025,6
26279,27502,-7e-05,0.00016999999999999999,9e-05,2.9999999999999997e-05,8e-05,-4e-05,-0.00013000000000000002,-0.00025,6
26280,27504,-7e-05,0.00016999999999999999,9e-05,2.9999999999999997e-05,8e-05,-4e-05,-0.00013000000000000002,-0.00025,6
26281,27505,-7e-05,0.00016999999999999999,9e-05,2.9999999999999997e-05,8e-05,-4e-05,-0.00013000000000000002,-0.00025,6
26282,27506,-7e-05,0.00016999999999999999,9e-05,2.9999999999999997e-05,8e-05,-4e-05,-0.00013000000000000002,-0.00025,6
26283,27507,-7e-05,0.00016999999999999999,9e-05,2.9999999999999997e-05,8e-05,-4e-05,-0.00013000000000000002,-0.00025,6
26284,27508,-7e-05,0.00016999999999999999,9e-05,2.9999999999999997e-05,8e-05,-4e-05,-0.00013000000000000002,-0.00025,6
26285,27509,-7e-05,0.00016999999999999999,9e-05,2.9999999999999997e-05,8e-05,-4e-05,-0.00013000000000000002,-0.00025,6
26286,27510,-7e-05,0.00016999999999999999,9e-05,2.9999999999999997e-05,8e-05,-4e-05,-0.00013000000000000002,-0.00025,6
26287,27511,-7e-05,0.00016999999999999999,9e-05,2.9999999999999997e-05,8e-05,-4e-05,-0.00013000000000000002,-0.00025,6
26288,27512,-7e-05,0.00016999999999999999,9e-05,2.9999999999999997e-05,8e-05,-4e-05,-0.00013000000000000002,-0.00025,6
26289,27513,-7e-05,0.00016999999999999999,9e-05,2.9999999999999997e-05,8e-05,-4e-05,-0.00013000000000000002,-0.00025,6
26290,27514,-7e-05,0.00016999999999999999,9e-05,2.9999999999999997e-05,8e-05,-4e-05,-0.00013000000000000002,-0.00025,6
26291,27515,-7e-05,0.00016999999999999999,9e-05,2.9999999999999997e-05,8e-05,-4e-05,-0.00013000000000000002,-0.00025,6
26292,27516,-7e-05,0.00016999999999999999,9e-05,2.9999999999999997e-05,8e-05,-4e-05,-0.00013000000000000002,-0.00025,6
26293,27517,-7e-05,0.00016999999999999999,9e-05,2.9999999999999997e-05,8e-05,-4e-05,-0.00013000000000000002,-0.00025,6
26294,27518,5e-05,-2.9999999999999997e-05,-5e-05,-2e-05,1e-05,-9e-05,-4e-05,1e-05,6
26295,27519,5e-05,-2.9999999999999997e-05,-5e-05,-2e-05,1e-05,-9e-05,-4e-05,1e-05,6
26296,27520,-0.00011999999999999999,-2e-05,5e-05,5e-05,0.00018999999999999998,0.00018999999999999998,5.9999999999999995e-05,-0.00023999999999999998,6
26297,27521,-0.00011999999999999999,-2e-05,5e-05,5e-05,0.00018999999999999998,0.00018999999999999998,5.9999999999999995e-05,-0.00023999999999999998,6
26298,27522,-0.00011999999999999999,-2e-05,5e-05,5e-05,0.00018999999999999998,0.00018999999999999998,5.9999999999999995e-05,-0.00023999999999999998,6
26299,27523,-0.00011999999999999999,-2e-05,5e-05,5e-05,0.00018999999999999998,0.00018999999999999998,5.9999999999999995e-05,-0.00023999999999999998,6
26300,27524,-0.00011999999999999999,-2e-05,5e-05,5e-05,0.00018999999999999998,0.00018999999999999998,5.9999999999999995e-05,-0.00023999999999999998,6
26301,27525,-0.00011999999999999999,-2e-05,5e-05,5e-05,0.00018999999999999998,0.00018999999999999998,5.9999999999999995e-05,-0.00023999999999999998,6
26302,27526,-0.00011999999999999999,-2e-05,5e-05,5e-05,0.00018999999999999998,0.00018999999999999998,5.9999999999999995e-05,-0.00023999999999999998,6
26303,27527,-0.00011999999999999999,-2e-05,5e-05,5e-05,0.00018999999999999998,0.00018999999999999998,5.9999999999999995e-05,-0.00023999999999999998,6
26304,27528,-0.00011999999999999999,-2e-05,5e-05,5e-05,0.00018999999999999998,0.00018999999999999998,5.9999999999999995e-05,-0.00023999999999999998,6
26305,27529,-0.00011999999999999999,-2e-05,5e-05,5e-05,0.00018999999999999998,0.00018999999999999998,5.9999999999999995e-05,-0.00023999999999999998,6
26306,27530,-0.00011999999999999999,-2e-05,5e-05,5e-05,0.00018999999999999998,0.00018999999999999998,5.9999999999999995e-05,-0.00023999999999999998,6
26307,27531,-0.00011999999999999999,-2e-05,5e-05,5e-05,0.00018999999999999998,0.00018999999999999998,5.9999999999999995e-05,-0.00023999999999999998,6
26308,27532,-0.00011999999999999999,-2e-05,5e-05,5e-05,0.00018999999999999998,0.00018999999999999998,5.9999999999999995e-05,-0.00023999999999999998,6
26309,27533,-0.00011999999999999999,-2e-05,5e-05,5e-05,0.00018999999999999998,0.00018999999999999998,5.9999999999999995e-05,-0.00023999999999999998,6
26310,27534,-0.00011999999999999999,-2e-05,5e-05,5e-05,0.00018999999999999998,0.00018999999999999998,5.9999999999999995e-05,-0.00023999999999999998,6
26311,27535,-0.00011999999999999999,-2e-05,5e-05,5e-05,0.00018999999999999998,0.00018999999999999998,5.9999999999999995e-05,-0.00023999999999999998,6
26312,27536,-0.00011999999999999999,-2e-05,5e-05,5e-05,0.00018999999999999998,0.00018999999999999998,5.9999999999999995e-05,-0.00023999999999999998,6
26313,27538,-0.00011999999999999999,-2e-05,5e-05,5e-05,0.00018999999999999998,0.00018999999999999998,5.9999999999999995e-05,-0.00023999999999999998,6
26314,27539,-0.00011999999999999999,-2e-05,5e-05,5e-05,0.00018999999999999998,0.00018999999999999998,5.9999999999999995e-05,-0.00023999999999999998,6
26315,27540,-0.00011999999999999999,-2e-05,5e-05,5e-05,0.00018999999999999998,0.00018999999999999998,5.9999999999999995e-05,-0.00023999999999999998,6
26316,27541,-0.00011999999999999999,-2e-05,5e-05,5e-05,0.00018999999999999998,0.00018999999999999998,5.9999999999999995e-05,-0.00023999999999999998,6
26317,27542,-0.00011999999999999999,-2e-05,5e-05,5e-05,0.00018999999999999998,0.00018999999999999998,5.9999999999999995e-05,-0.00023999999999999998,6
26318,27543,-0.00011999999999999999,-2e-05,5e-05,5e-05,0.00018999999999999998,0.00018999999999999998,5.9999999999999995e-05,-0.00023999999999999998,6
26319,27544,-0.00011999999999999999,-2e-05,5e-05,5e-05,0.00018999999999999998,0.00018999999999999998,5.9999999999999995e-05,-0.00023999999999999998,6
26320,27545,-0.00011999999999999999,-2e-05,5e-05,5e-05,0.00018999999999999998,0.00018999999999999998,5.9999999999999995e-05,-0.00023999999999999998,6
26321,27546,-0.00011999999999999999,-2e-05,5e-05,5e-05,0.00018999999999999998,0.00018999999999999998,5.9999999999999995e-05,-0.00023999999999999998,6
26322,27547,-0.00011999999999999999,-2e-05,5e-05,5e-05,0.00018999999999999998,0.00018999999999999998,5.9999999999999995e-05,-0.00023999999999999998,6
26323,27548,0.00018999999999999998,0.0001,8e-05,0.0001,0.00015,0.00021,2.9999999999999997e-05,0.00027,6
26324,27549,0.00018999999999999998,0.0001,8e-05,0.0001,0.00015,0.00021,2.9999999999999997e-05,0.00027,6
26325,27550,-0.00013000000000000002,-0.0002,-2e-05,-1e-05,-9e-05,1e-05,2.9999999999999997e-05,7e-05,6
26326,27551,-0.00013000000000000002,-0.0002,-2e-05,-1e-05,-9e-05,1e-05,2.9999999999999997e-05,7e-05,6
26327,27552,-0.00013000000000000002,-0.0002,-2e-05,-1e-05,-9e-05,1e-05,2.9999999999999997e-05,7e-05,6
26328,27553,-0.00013000000000000002,-0.0002,-2e-05,-1e-05,-9e-05,1e-05,2.9999999999999997e-05,7e-05,6
26329,27554,-0.00013000000000000002,-0.0002,-2e-05,-1e-05,-9e-05,1e-05,2.9999999999999997e-05,7e-05,6
26330,27555,-0.00013000000000000002,-0.0002,-2e-05,-1e-05,-9e-05,1e-05,2.9999999999999997e-05,7e-05,6
26331,27556,-0.00013000000000000002,-0.0002,-2e-05,-1e-05,-9e-05,1e-05,2.9999999999999997e-05,7e-05,6
26332,27557,-0.00013000000000000002,-0.0002,-2e-05,-1e-05,-9e-05,1e-05,2.9999999999999997e-05,7e-05,6
26333,27558,-0.00013000000000000002,-0.0002,-2e-05,-1e-05,-9e-05,1e-05,2.9999999999999997e-05,7e-05,6
26334,27559,-0.00013000000000000002,-0.0002,-2e-05,-1e-05,-9e-05,1e-05,2.9999999999999997e-05,7e-05,6
26335,27560,-0.00013000000000000002,-0.0002,-2e-05,-1e-05,-9e-05,1e-05,2.9999999999999997e-05,7e-05,6
26336,27561,-0.00013000000000000002,-0.0002,-2e-05,-1e-05,-9e-05,1e-05,2.9999999999999997e-05,7e-05,6
26337,27562,-0.00013000000000000002,-0.0002,-2e-05,-1e-05,-9e-05,1e-05,2.9999999999999997e-05,7e-05,6
26338,27563,-0.00013000000000000002,-0.0002,-2e-05,-1e-05,-9e-05,1e-05,2.9999999999999997e-05,7e-05,6
26339,27564,-0.00066,-0.00016,5.9999999999999995e-05,9e-05,2.9999999999999997e-05,-2e-05,-0.00036,-0.0010199999999999999,6
26340,27565,1e-05,5.9999999999999995e-05,0.0,-2.9999999999999997e-05,-4e-05,-2e-05,-4e-05,-9e-05,6
26341,27566,1e-05,5.9999999999999995e-05,0.0,-2.9999999999999997e-05,-4e-05,-2e-05,-4e-05,-9e-05,6
26342,27567,1e-05,5.9999999999999995e-05,0.0,-2.9999999999999997e-05,-4e-05,-2e-05,-4e-05,-9e-05,6
26343,27568,1e-05,5.9999999999999995e-05,0.0,-2.9999999999999997e-05,-4e-05,-2e-05,-4e-05,-9e-05,6
26344,27569,1e-05,5.9999999999999995e-05,0.0,-2.9999999999999997e-05,-4e-05,-2e-05,-4e-05,-9e-05,6
26345,27570,1e-05,5.9999999999999995e-05,0.0,-2.9999999999999997e-05,-4e-05,-2e-05,-4e-05,-9e-05,6
26346,27571,1e-05,5.9999999999999995e-05,0.0,-2.9999999999999997e-05,-4e-05,-2e-05,-4e-05,-9e-05,6
26347,27572,1e-05,5.9999999999999995e-05,0.0,-2.9999999999999997e-05,-4e-05,-2e-05,-4e-05,-9e-05,6
26348,27573,1e-05,5.9999999999999995e-05,0.0,-2.9999999999999997e-05,-4e-05,-2e-05,-4e-05,-9e-05,6
26349,27574,1e-05,5.9999999999999995e-05,0.0,-2.9999999999999997e-05,-4e-05,-2e-05,-4e-05,-9e-05,6
26350,27575,1e-05,5.9999999999999995e-05,0.0,-2.9999999999999997e-05,-4e-05,-2e-05,-4e-05,-9e-05,6
26351,27576,1e-05,5.9999999999999995e-05,0.0,-2.9999999999999997e-05,-4e-05,-2e-05,-4e-05,-9e-05,6
26352,27577,1e-05,5.9999999999999995e-05,0.0,-2.9999999999999997e-05,-4e-05,-2e-05,-4e-05,-9e-05,6
26353,27578,1e-05,5.9999999999999995e-05,0.0,-2.9999999999999997e-05,-4e-05,-2e-05,-4e-05,-9e-05,6
26354,27579,1e-05,5.9999999999999995e-05,0.0,-2.9999999999999997e-05,-4e-05,-2e-05,-4e-05,-9e-05,6
26355,27580,1e-05,5.9999999999999995e-05,0.0,-2.9999999999999997e-05,-4e-05,-2e-05,-4e-05,-9e-05,6
26356,27581,1e-05,5.9999999999999995e-05,0.0,-2.9999999999999997e-05,-4e-05,-2e-05,-4e-05,-9e-05,6
26357,27582,1e-05,5.9999999999999995e-05,0.0,-2.9999999999999997e-05,-4e-05,-2e-05,-4e-05,-9e-05,6
26358,27583,1e-05,5.9999999999999995e-05,0.0,-2.9999999999999997e-05,-4e-05,-2e-05,-4e-05,-9e-05,6
26359,27584,1e-05,5.9999999999999995e-05,0.0,-2.9999999999999997e-05,-4e-05,-2e-05,-4e-05,-9e-05,6
26360,27585,1e-05,5.9999999999999995e-05,0.0,-2.9999999999999997e-05,-4e-05,-2e-05,-4e-05,-9e-05,6
26361,27586,5e-05,7e-05,-5e-05,-8e-05,-7e-05,1e-05,0.00014,-5e-05,6
26362,27589,-0.00014,-2e-05,-5.9999999999999995e-05,2e-05,2.9999999999999997e-05,-2e-05,-0.00016999999999999999,-0.00043,6
26363,27590,-0.00014,-2e-05,-5.9999999999999995e-05,2e-05,2.9999999999999997e-05,-2e-05,-0.00016999999999999999,-0.00043,6
26364,27591,-0.00014,-2e-05,-5.9999999999999995e-05,2e-05,2.9999999999999997e-05,-2e-05,-0.00016999999999999999,-0.00043,6
26365,27592,-0.00014,-2e-05,-5.9999999999999995e-05,2e-05,2.9999999999999997e-05,-2e-05,-0.00016999999999999999,-0.00043,6
26366,27593,-0.00014,-2e-05,-5.9999999999999995e-05,2e-05,2.9999999999999997e-05,-2e-05,-0.00016999999999999999,-0.00043,6
26367,27594,-0.00014,-2e-05,-5.9999999999999995e-05,2e-05,2.9999999999999997e-05,-2e-05,-0.00016999999999999999,-0.00043,6
26368,27595,-0.00014,-2e-05,-5.9999999999999995e-05,2e-05,2.9999999999999997e-05,-2e-05,-0.00016999999999999999,-0.00043,6
26369,27596,-0.00014,-2e-05,-5.9999999999999995e-05,2e-05,2.9999999999999997e-05,-2e-05,-0.00016999999999999999,-0.00043,6
26370,27597,-0.00014,-2e-05,-5.9999999999999995e-05,2e-05,2.9999999999999997e-05,-2e-05,-0.00016999999999999999,-0.00043,6
26371,27598,-0.00014,-2e-05,-5.9999999999999995e-05,2e-05,2.9999999999999997e-05,-2e-05,-0.00016999999999999999,-0.00043,6
26372,27599,-0.00014,-2e-05,-5.9999999999999995e-05,2e-05,2.9999999999999997e-05,-2e-05,-0.00016999999999999999,-0.00043,6
26373,27600,-0.00014,-2e-05,-5.9999999999999995e-05,2e-05,2.9999999999999997e-05,-2e-05,-0.00016999999999999999,-0.00043,6
26374,27601,0.00014,0.00022999999999999998,-9e-05,-0.00014,-0.00016,-0.00022,-0.00011,8e-05,6
26375,27602,5.9999999999999995e-05,-1e-05,-2e-05,0.0,-0.0001,-9e-05,-0.00011,0.00014,6
26376,27603,5.9999999999999995e-05,-1e-05,-2e-05,0.0,-0.0001,-9e-05,-0.00011,0.00014,6
26377,27604,5.9999999999999995e-05,-1e-05,-2e-05,0.0,-0.0001,-9e-05,-0.00011,0.00014,6
26378,27605,5.9999999999999995e-05,-1e-05,-2e-05,0.0,-0.0001,-9e-05,-0.00011,0.00014,6
26379,27606,5.9999999999999995e-05,-1e-05,-2e-05,0.0,-0.0001,-9e-05,-0.00011,0.00014,6
26380,27607,5.9999999999999995e-05,-1e-05,-2e-05,0.0,-0.0001,-9e-05,-0.00011,0.00014,6
26381,27608,5.9999999999999995e-05,-1e-05,-2e-05,0.0,-0.0001,-9e-05,-0.00011,0.00014,6
26382,27609,5.9999999999999995e-05,-1e-05,-2e-05,0.0,-0.0001,-9e-05,-0.00011,0.00014,6
26383,27610,5.9999999999999995e-05,-1e-05,-2e-05,0.0,-0.0001,-9e-05,-0.00011,0.00014,6
26384,27611,5.9999999999999995e-05,-1e-05,-2e-05,0.0,-0.0001,-9e-05,-0.00011,0.00014,6
26385,27612,5.9999999999999995e-05,-1e-05,-2e-05,0.0,-0.0001,-9e-05,-0.00011,0.00014,6
26386,27613,5.9999999999999995e-05,-1e-05,-2e-05,0.0,-0.0001,-9e-05,-0.00011,0.00014,6
26387,27614,5.9999999999999995e-05,-1e-05,-2e-05,0.0,-0.0001,-9e-05,-0.00011,0.00014,6
26388,27615,0.00013000000000000002,4e-05,-2.9999999999999997e-05,-2.9999999999999997e-05,2e-05,5e-05,0.00014,0.00018999999999999998,6
26389,27616,0.00013000000000000002,4e-05,-2.9999999999999997e-05,-2.9999999999999997e-05,2e-05,5e-05,0.00014,0.00018999999999999998,6
26390,27617,0.00013000000000000002,4e-05,-2.9999999999999997e-05,-2.9999999999999997e-05,2e-05,5e-05,0.00014,0.00018999999999999998,6
26391,27618,0.00013000000000000002,4e-05,-2.9999999999999997e-05,-2.9999999999999997e-05,2e-05,5e-05,0.00014,0.00018999999999999998,6
26392,27619,0.00013000000000000002,4e-05,-2.9999999999999997e-05,-2.9999999999999997e-05,2e-05,5e-05,0.00014,0.00018999999999999998,6
26393,27620,0.00013000000000000002,4e-05,-2.9999999999999997e-05,-2.9999999999999997e-05,2e-05,5e-05,0.00014,0.00018999999999999998,6
26394,27621,0.00013000000000000002,4e-05,-2.9999999999999997e-05,-2.9999999999999997e-05,2e-05,5e-05,0.00014,0.00018999999999999998,6
26395,27622,-1e-05,5e-05,4e-05,5.9999999999999995e-05,5.9999999999999995e-05,0.00016999999999999999,0.00014,-0.00054,6
26396,27623,-1e-05,5e-05,4e-05,5.9999999999999995e-05,5.9999999999999995e-05,0.00016999999999999999,0.00014,-0.00054,6
26397,27624,-1e-05,5e-05,4e-05,5.9999999999999995e-05,5.9999999999999995e-05,0.00016999999999999999,0.00014,-0.00054,6
26398,27625,-1e-05,5e-05,4e-05,5.9999999999999995e-05,5.9999999999999995e-05,0.00016999999999999999,0.00014,-0.00054,6
26399,27626,-1e-05,5e-05,4e-05,5.9999999999999995e-05,5.9999999999999995e-05,0.00016999999999999999,0.00014,-0.00054,6
26400,27627,-1e-05,5e-05,4e-05,5.9999999999999995e-05,5.9999999999999995e-05,0.00016999999999999999,0.00014,-0.00054,6
26401,27628,-1e-05,5e-05,4e-05,5.9999999999999995e-05,5.9999999999999995e-05,0.00016999999999999999,0.00014,-0.00054,6
26402,27629,-1e-05,5e-05,4e-05,5.9999999999999995e-05,5.9999999999999995e-05,0.00016999999999999999,0.00014,-0.00054,6
26403,27630,-1e-05,5e-05,4e-05,5.9999999999999995e-05,5.9999999999999995e-05,0.00016999999999999999,0.00014,-0.00054,6
26404,27631,-1e-05,5e-05,4e-05,5.9999999999999995e-05,5.9999999999999995e-05,0.00016999999999999999,0.00014,-0.00054,6
26405,27632,-1e-05,5e-05,4e-05,5.9999999999999995e-05,5.9999999999999995e-05,0.00016999999999999999,0.00014,-0.00054,6
26406,27633,-1e-05,5e-05,4e-05,5.9999999999999995e-05,5.9999999999999995e-05,0.00016999999999999999,0.00014,-0.00054,6
26407,27634,-1e-05,5e-05,4e-05,5.9999999999999995e-05,5.9999999999999995e-05,0.00016999999999999999,0.00014,-0.00054,6
26408,27635,-1e-05,5e-05,4e-05,5.9999999999999995e-05,5.9999999999999995e-05,0.00016999999999999999,0.00014,-0.00054,6
26409,27636,-1e-05,5e-05,4e-05,5.9999999999999995e-05,5.9999999999999995e-05,0.00016999999999999999,0.00014,-0.00054,6
26410,27639,-0.0001,-9e-05,5.9999999999999995e-05,5e-05,0.00011,0.0,8e-05,0.0001,6
26411,27640,4e-05,0.0,-2.9999999999999997e-05,2e-05,8e-05,-4e-05,-1e-05,0.00018999999999999998,6
26412,27641,4e-05,0.0,-2.9999999999999997e-05,2e-05,8e-05,-4e-05,-1e-05,0.00018999999999999998,6
26413,27642,4e-05,0.0,-2.9999999999999997e-05,2e-05,8e-05,-4e-05,-1e-05,0.00018999999999999998,6
26414,27643,4e-05,0.0,-2.9999999999999997e-05,2e-05,8e-05,-4e-05,-1e-05,0.00018999999999999998,6
26415,27644,4e-05,0.0,-2.9999999999999997e-05,2e-05,8e-05,-4e-05,-1e-05,0.00018999999999999998,6
26416,27645,4e-05,0.0,-2.9999999999999997e-05,2e-05,8e-05,-4e-05,-1e-05,0.00018999999999999998,6
26417,27646,4e-05,0.0,-2.9999999999999997e-05,2e-05,8e-05,-4e-05,-1e-05,0.00018999999999999998,6
26418,27647,4e-05,0.0,-2.9999999999999997e-05,2e-05,8e-05,-4e-05,-1e-05,0.00018999999999999998,6
26419,27648,4e-05,0.0,-2.9999999999999997e-05,2e-05,8e-05,-4e-05,-1e-05,0.00018999999999999998,6
26420,27649,4e-05,0.0,-2.9999999999999997e-05,2e-05,8e-05,-4e-05,-1e-05,0.00018999999999999998,6
26421,27650,4e-05,0.0,-2.9999999999999997e-05,2e-05,8e-05,-4e-05,-1e-05,0.00018999999999999998,6
26422,27651,4e-05,0.0,-2.9999999999999997e-05,2e-05,8e-05,-4e-05,-1e-05,0.00018999999999999998,6
26423,27652,4e-05,0.0,-2.9999999999999997e-05,2e-05,8e-05,-4e-05,-1e-05,0.00018999999999999998,6
26424,27653,4e-05,0.0,-2.9999999999999997e-05,2e-05,8e-05,-4e-05,-1e-05,0.00018999999999999998,6
26425,27654,4e-05,0.0,-2.9999999999999997e-05,2e-05,8e-05,-4e-05,-1e-05,0.00018999999999999998,6
26426,27655,4e-05,0.0,-2.9999999999999997e-05,2e-05,8e-05,-4e-05,-1e-05,0.00018999999999999998,6
26427,27656,4e-05,0.0,-2.9999999999999997e-05,2e-05,8e-05,-4e-05,-1e-05,0.00018999999999999998,6
26428,27657,4e-05,0.0,-2.9999999999999997e-05,2e-05,8e-05,-4e-05,-1e-05,0.00018999999999999998,6
26429,27658,4e-05,0.0,-2.9999999999999997e-05,2e-05,8e-05,-4e-05,-1e-05,0.00018999999999999998,6
26430,27659,4e-05,0.0,-2.9999999999999997e-05,2e-05,8e-05,-4e-05,-1e-05,0.00018999999999999998,6
26431,27660,0.00033,1e-05,0.0,-4e-05,-0.00011999999999999999,-0.00018,-0.00016999999999999999,5.9999999999999995e-05,6
26432,27661,0.00033,1e-05,0.0,-4e-05,-0.00011999999999999999,-0.00018,-0.00016999999999999999,5.9999999999999995e-05,6
26433,27662,0.00033,1e-05,0.0,-4e-05,-0.00011999999999999999,-0.00018,-0.00016999999999999999,5.9999999999999995e-05,6
26434,27663,0.00033,1e-05,0.0,-4e-05,-0.00011999999999999999,-0.00018,-0.00016999999999999999,5.9999999999999995e-05,6
26435,27664,0.00033,1e-05,0.0,-4e-05,-0.00011999999999999999,-0.00018,-0.00016999999999999999,5.9999999999999995e-05,6
26436,27665,0.00033,1e-05,0.0,-4e-05,-0.00011999999999999999,-0.00018,-0.00016999999999999999,5.9999999999999995e-05,6
26437,27666,0.00033,1e-05,0.0,-4e-05,-0.00011999999999999999,-0.00018,-0.00016999999999999999,5.9999999999999995e-05,6
26438,27667,0.00033,1e-05,0.0,-4e-05,-0.00011999999999999999,-0.00018,-0.00016999999999999999,5.9999999999999995e-05,6
26439,27668,0.00033,1e-05,0.0,-4e-05,-0.00011999999999999999,-0.00018,-0.00016999999999999999,5.9999999999999995e-05,6
26440,27669,0.00033,1e-05,0.0,-4e-05,-0.00011999999999999999,-0.00018,-0.00016999999999999999,5.9999999999999995e-05,6
26441,27670,0.00033,1e-05,0.0,-4e-05,-0.00011999999999999999,-0.00018,-0.00016999999999999999,5.9999999999999995e-05,6
26442,27671,0.00033,1e-05,0.0,-4e-05,-0.00011999999999999999,-0.00018,-0.00016999999999999999,5.9999999999999995e-05,6
26443,27672,0.00033,1e-05,0.0,-4e-05,-0.00011999999999999999,-0.00018,-0.00016999999999999999,5.9999999999999995e-05,6
26444,27673,0.00033,1e-05,0.0,-4e-05,-0.00011999999999999999,-0.00018,-0.00016999999999999999,5.9999999999999995e-05,6
26445,27674,0.00033,1e-05,0.0,-4e-05,-0.00011999999999999999,-0.00018,-0.00016999999999999999,5.9999999999999995e-05,6
26446,27675,0.00033,1e-05,0.0,-4e-05,-0.00011999999999999999,-0.00018,-0.00016999999999999999,5.9999999999999995e-05,6
26447,27676,1e-05,8e-05,2.9999999999999997e-05,2e-05,5.9999999999999995e-05,8e-05,0.00028,0.00016999999999999999,6
26448,27677,1e-05,8e-05,2.9999999999999997e-05,2e-05,5.9999999999999995e-05,8e-05,0.00028,0.00016999999999999999,6
26449,27678,1e-05,8e-05,2.9999999999999997e-05,2e-05,5.9999999999999995e-05,8e-05,0.00028,0.00016999999999999999,6
26450,27679,1e-05,8e-05,2.9999999999999997e-05,2e-05,5.9999999999999995e-05,8e-05,0.00028,0.00016999999999999999,6
26451,27680,1e-05,8e-05,2.9999999999999997e-05,2e-05,5.9999999999999995e-05,8e-05,0.00028,0.00016999999999999999,6
26452,27681,1e-05,8e-05,2.9999999999999997e-05,2e-05,5.9999999999999995e-05,8e-05,0.00028,0.00016999999999999999,6
26453,27682,1e-05,8e-05,2.9999999999999997e-05,2e-05,5.9999999999999995e-05,8e-05,0.00028,0.00016999999999999999,6
26454,27683,0.00013000000000000002,-2e-05,0.0,1e-05,-2.9999999999999997e-05,4e-05,-1e-05,0.00027,6
26455,27684,0.00013000000000000002,-2e-05,0.0,1e-05,-2.9999999999999997e-05,4e-05,-1e-05,0.00027,6
26456,27685,0.00013000000000000002,-2e-05,0.0,1e-05,-2.9999999999999997e-05,4e-05,-1e-05,0.00027,6
26457,27686,0.00013000000000000002,-2e-05,0.0,1e-05,-2.9999999999999997e-05,4e-05,-1e-05,0.00027,6
26458,27689,0.00013000000000000002,-2e-05,0.0,1e-05,-2.9999999999999997e-05,4e-05,-1e-05,0.00027,6
26459,27690,0.00013000000000000002,-2e-05,0.0,1e-05,-2.9999999999999997e-05,4e-05,-1e-05,0.00027,6
26460,27691,0.00013000000000000002,-2e-05,0.0,1e-05,-2.9999999999999997e-05,4e-05,-1e-05,0.00027,6
26461,27692,0.00011,-1e-05,-7e-05,-5e-05,4e-05,0.0,7e-05,0.0,6
26462,27693,0.00011,-1e-05,-7e-05,-5e-05,4e-05,0.0,7e-05,0.0,6
26463,27694,0.00011,-1e-05,-7e-05,-5e-05,4e-05,0.0,7e-05,0.0,6
26464,27695,0.00011,-1e-05,-7e-05,-5e-05,4e-05,0.0,7e-05,0.0,6
26465,27696,0.00011,-1e-05,-7e-05,-5e-05,4e-05,0.0,7e-05,0.0,6
26466,27697,0.00011,-1e-05,-7e-05,-5e-05,4e-05,0.0,7e-05,0.0,6
26467,27698,0.0,-5.9999999999999995e-05,1e-05,-1e-05,0.0,5e-05,5e-05,-2e-05,6
26468,27699,0.0,-5.9999999999999995e-05,1e-05,-1e-05,0.0,5e-05,5e-05,-2e-05,6
26469,27700,0.00013000000000000002,-1e-05,-1e-05,-1e-05,-2e-05,2e-05,0.00013000000000000002,0.00033,6
26470,27701,0.00013000000000000002,-1e-05,-1e-05,-1e-05,-2e-05,2e-05,0.00013000000000000002,0.00033,6
26471,27702,0.00013000000000000002,-1e-05,-1e-05,-1e-05,-2e-05,2e-05,0.00013000000000000002,0.00033,6
26472,27703,0.00013000000000000002,-1e-05,-1e-05,-1e-05,-2e-05,2e-05,0.00013000000000000002,0.00033,6
26473,27704,0.00013000000000000002,-1e-05,-1e-05,-1e-05,-2e-05,2e-05,0.00013000000000000002,0.00033,6
26474,27705,0.00013000000000000002,-1e-05,-1e-05,-1e-05,-2e-05,2e-05,0.00013000000000000002,0.00033,6
26475,27706,0.00013000000000000002,-1e-05,-1e-05,-1e-05,-2e-05,2e-05,0.00013000000000000002,0.00033,6
26476,27707,0.00013000000000000002,-1e-05,-1e-05,-1e-05,-2e-05,2e-05,0.00013000000000000002,0.00033,6
26477,27708,0.00013000000000000002,-1e-05,-1e-05,-1e-05,-2e-05,2e-05,0.00013000000000000002,0.00033,6
26478,27709,0.00013000000000000002,-1e-05,-1e-05,-1e-05,-2e-05,2e-05,0.00013000000000000002,0.00033,6
26479,27710,0.00013000000000000002,-1e-05,-1e-05,-1e-05,-2e-05,2e-05,0.00013000000000000002,0.00033,6
26480,27711,0.00013000000000000002,-1e-05,-1e-05,-1e-05,-2e-05,2e-05,0.00013000000000000002,0.00033,6
26481,27712,0.00013000000000000002,-1e-05,-1e-05,-1e-05,-2e-05,2e-05,0.00013000000000000002,0.00033,6
26482,27713,0.00013000000000000002,-1e-05,-1e-05,-1e-05,-2e-05,2e-05,0.00013000000000000002,0.00033,6
26483,27714,0.00013000000000000002,-1e-05,-1e-05,-1e-05,-2e-05,2e-05,0.00013000000000000002,0.00033,6
26484,27715,0.00013000000000000002,-1e-05,-1e-05,-1e-05,-2e-05,2e-05,0.00013000000000000002,0.00033,6
26485,27716,0.00013000000000000002,-1e-05,-1e-05,-1e-05,-2e-05,2e-05,0.00013000000000000002,0.00033,6
26486,27717,0.00013000000000000002,-1e-05,-1e-05,-1e-05,-2e-05,2e-05,0.00013000000000000002,0.00033,6
26487,27718,0.00013000000000000002,-1e-05,-1e-05,-1e-05,-2e-05,2e-05,0.00013000000000000002,0.00033,6
26488,27719,0.00013000000000000002,-1e-05,-1e-05,-1e-05,-2e-05,2e-05,0.00013000000000000002,0.00033,6
26489,27720,0.00013000000000000002,-1e-05,-1e-05,-1e-05,-2e-05,2e-05,0.00013000000000000002,0.00033,6
26490,27721,0.0,-4e-05,-4e-05,-2.9999999999999997e-05,-9e-05,-7e-05,-1e-05,1e-05,6
26491,27722,1e-05,4e-05,5e-05,2e-05,5.9999999999999995e-05,5.9999999999999995e-05,-0.00018999999999999998,0.0,6
26492,27723,1e-05,4e-05,5e-05,2e-05,5.9999999999999995e-05,5.9999999999999995e-05,-0.00018999999999999998,0.0,6
26493,27724,1e-05,4e-05,5e-05,2e-05,5.9999999999999995e-05,5.9999999999999995e-05,-0.00018999999999999998,0.0,6
26494,27725,1e-05,4e-05,5e-05,2e-05,5.9999999999999995e-05,5.9999999999999995e-05,-0.00018999999999999998,0.0,6
26495,27726,1e-05,4e-05,5e-05,2e-05,5.9999999999999995e-05,5.9999999999999995e-05,-0.00018999999999999998,0.0,6
26496,27727,1e-05,4e-05,5e-05,2e-05,5.9999999999999995e-05,5.9999999999999995e-05,-0.00018999999999999998,0.0,6
26497,27728,1e-05,4e-05,5e-05,2e-05,5.9999999999999995e-05,5.9999999999999995e-05,-0.00018999999999999998,0.0,6
26498,27729,1e-05,4e-05,5e-05,2e-05,5.9999999999999995e-05,5.9999999999999995e-05,-0.00018999999999999998,0.0,6
26499,27730,1e-05,4e-05,5e-05,2e-05,5.9999999999999995e-05,5.9999999999999995e-05,-0.00018999999999999998,0.0,6
26500,27731,1e-05,4e-05,5e-05,2e-05,5.9999999999999995e-05,5.9999999999999995e-05,-0.00018999999999999998,0.0,6
26501,27732,1e-05,4e-05,5e-05,2e-05,5.9999999999999995e-05,5.9999999999999995e-05,-0.00018999999999999998,0.0,6
26502,27733,1e-05,4e-05,5e-05,2e-05,5.9999999999999995e-05,5.9999999999999995e-05,-0.00018999999999999998,0.0,6
26503,27734,1e-05,4e-05,5e-05,2e-05,5.9999999999999995e-05,5.9999999999999995e-05,-0.00018999999999999998,0.0,6
26504,27735,1e-05,4e-05,5e-05,2e-05,5.9999999999999995e-05,5.9999999999999995e-05,-0.00018999999999999998,0.0,6
26505,27736,1e-05,4e-05,5e-05,2e-05,5.9999999999999995e-05,5.9999999999999995e-05,-0.00018999999999999998,0.0,6
26506,27738,1e-05,4e-05,5e-05,2e-05,5.9999999999999995e-05,5.9999999999999995e-05,-0.00018999999999999998,0.0,6
26507,27739,1e-05,4e-05,5e-05,2e-05,5.9999999999999995e-05,5.9999999999999995e-05,-0.00018999999999999998,0.0,6
26508,27740,1e-05,4e-05,5e-05,2e-05,5.9999999999999995e-05,5.9999999999999995e-05,-0.00018999999999999998,0.0,6
26509,27741,1e-05,4e-05,5e-05,2e-05,5.9999999999999995e-05,5.9999999999999995e-05,-0.00018999999999999998,0.0,6
26510,27742,1e-05,4e-05,5e-05,2e-05,5.9999999999999995e-05,5.9999999999999995e-05,-0.00018999999999999998,0.0,6
26511,27743,-0.00023999999999999998,-0.00018999999999999998,1e-05,0.0,7e-05,8e-05,0.00014,-0.00023999999999999998,6
26512,27744,-0.00023999999999999998,-0.00018999999999999998,1e-05,0.0,7e-05,8e-05,0.00014,-0.00023999999999999998,6
26513,27745,-0.00016999999999999999,-0.00011,-8e-05,-5.9999999999999995e-05,-0.0001,-9e-05,-0.00022999999999999998,-0.00023999999999999998,6
26514,27746,-0.00016999999999999999,-0.00011,-8e-05,-5.9999999999999995e-05,-0.0001,-9e-05,-0.00022999999999999998,-0.00023999999999999998,6
26515,27747,-0.00016999999999999999,-0.00011,-8e-05,-5.9999999999999995e-05,-0.0001,-9e-05,-0.00022999999999999998,-0.00023999999999999998,6
26516,27748,-0.00016999999999999999,-0.00011,-8e-05,-5.9999999999999995e-05,-0.0001,-9e-05,-0.00022999999999999998,-0.00023999999999999998,6
26517,27749,-0.00016999999999999999,-0.00011,-8e-05,-5.9999999999999995e-05,-0.0001,-9e-05,-0.00022999999999999998,-0.00023999999999999998,6
26518,27750,-0.00016999999999999999,-0.00011,-8e-05,-5.9999999999999995e-05,-0.0001,-9e-05,-0.00022999999999999998,-0.00023999999999999998,6
26519,27751,-0.00016999999999999999,-0.00011,-8e-05,-5.9999999999999995e-05,-0.0001,-9e-05,-0.00022999999999999998,-0.00023999999999999998,6
26520,27752,-0.00016999999999999999,-0.00011,-8e-05,-5.9999999999999995e-05,-0.0001,-9e-05,-0.00022999999999999998,-0.00023999999999999998,6
26521,27753,-0.00016999999999999999,-0.00011,-8e-05,-5.9999999999999995e-05,-0.0001,-9e-05,-0.00022999999999999998,-0.00023999999999999998,6
26522,27754,-0.00016999999999999999,-0.00011,-8e-05,-5.9999999999999995e-05,-0.0001,-9e-05,-0.00022999999999999998,-0.00023999999999999998,6
26523,27755,-0.00016999999999999999,-0.00011,-8e-05,-5.9999999999999995e-05,-0.0001,-9e-05,-0.00022999999999999998,-0.00023999999999999998,6
26524,27756,-0.00016999999999999999,-0.00011,-8e-05,-5.9999999999999995e-05,-0.0001,-9e-05,-0.00022999999999999998,-0.00023999999999999998,6
26525,27757,-0.00016999999999999999,-0.00011,-8e-05,-5.9999999999999995e-05,-0.0001,-9e-05,-0.00022999999999999998,-0.00023999999999999998,6
26526,27758,-0.00016999999999999999,-0.00011,-8e-05,-5.9999999999999995e-05,-0.0001,-9e-05,-0.00022999999999999998,-0.00023999999999999998,6
26527,27759,-0.00016999999999999999,-0.00011,-8e-05,-5.9999999999999995e-05,-0.0001,-9e-05,-0.00022999999999999998,-0.00023999999999999998,6
26528,27760,-0.00016999999999999999,-0.00011,-8e-05,-5.9999999999999995e-05,-0.0001,-9e-05,-0.00022999999999999998,-0.00023999999999999998,6
26529,27761,-0.00016999999999999999,-0.00011,-8e-05,-5.9999999999999995e-05,-0.0001,-9e-05,-0.00022999999999999998,-0.00023999999999999998,6
26530,27762,-0.00016999999999999999,-0.00011,-8e-05,-5.9999999999999995e-05,-0.0001,-9e-05,-0.00022999999999999998,-0.00023999999999999998,6
26531,27763,-0.00016999999999999999,-0.00011,-8e-05,-5.9999999999999995e-05,-0.0001,-9e-05,-0.00022999999999999998,-0.00023999999999999998,6
26532,27764,-0.00016999999999999999,-0.00011,-8e-05,-5.9999999999999995e-05,-0.0001,-9e-05,-0.00022999999999999998,-0.00023999999999999998,6
26533,27765,-0.00016999999999999999,-0.00011,-8e-05,-5.9999999999999995e-05,-0.0001,-9e-05,-0.00022999999999999998,-0.00023999999999999998,6
26534,27766,-5e-05,2e-05,0.0,0.0,1e-05,7e-05,0.00018999999999999998,5e-05,6
26535,27767,-5.9999999999999995e-05,-5e-05,4e-05,4e-05,9e-05,4e-05,-0.00013000000000000002,-0.00015,6
26536,27768,-5.9999999999999995e-05,-5e-05,4e-05,4e-05,9e-05,4e-05,-0.00013000000000000002,-0.00015,6
26537,27769,-5.9999999999999995e-05,-5e-05,4e-05,4e-05,9e-05,4e-05,-0.00013000000000000002,-0.00015,6
26538,27770,-5.9999999999999995e-05,-5e-05,4e-05,4e-05,9e-05,4e-05,-0.00013000000000000002,-0.00015,6
26539,27771,-5.9999999999999995e-05,-5e-05,4e-05,4e-05,9e-05,4e-05,-0.00013000000000000002,-0.00015,6
26540,27772,-5.9999999999999995e-05,-5e-05,4e-05,4e-05,9e-05,4e-05,-0.00013000000000000002,-0.00015,6
26541,27773,-5.9999999999999995e-05,-5e-05,4e-05,4e-05,9e-05,4e-05,-0.00013000000000000002,-0.00015,6
26542,27774,-5.9999999999999995e-05,-5e-05,4e-05,4e-05,9e-05,4e-05,-0.00013000000000000002,-0.00015,6
26543,27775,-5.9999999999999995e-05,-5e-05,4e-05,4e-05,9e-05,4e-05,-0.00013000000000000002,-0.00015,6
26544,27776,-5.9999999999999995e-05,-5e-05,4e-05,4e-05,9e-05,4e-05,-0.00013000000000000002,-0.00015,6
26545,27777,-5.9999999999999995e-05,-5e-05,4e-05,4e-05,9e-05,4e-05,-0.00013000000000000002,-0.00015,6
26546,27778,-5.9999999999999995e-05,-5e-05,4e-05,4e-05,9e-05,4e-05,-0.00013000000000000002,-0.00015,6
26547,27779,-5.9999999999999995e-05,-5e-05,4e-05,4e-05,9e-05,4e-05,-0.00013000000000000002,-0.00015,6
26548,27780,-5.9999999999999995e-05,-5e-05,4e-05,4e-05,9e-05,4e-05,-0.00013000000000000002,-0.00015,6
26549,27781,-0.00016999999999999999,-0.00018999999999999998,-7e-05,-5.9999999999999995e-05,-4e-05,2.9999999999999997e-05,8e-05,0.00022,6
26550,27782,-0.00023999999999999998,-0.00016,-0.00011999999999999999,-0.00011999999999999999,-0.00016999999999999999,-0.00018,-0.0002,-0.00011999999999999999,6
26551,27783,-0.00023999999999999998,-0.00016,-0.00011999999999999999,-0.00011999999999999999,-0.00016999999999999999,-0.00018,-0.0002,-0.00011999999999999999,6
26552,27784,-0.00023999999999999998,-0.00016,-0.00011999999999999999,-0.00011999999999999999,-0.00016999999999999999,-0.00018,-0.0002,-0.00011999999999999999,6
26553,27785,-0.00023999999999999998,-0.00016,-0.00011999999999999999,-0.00011999999999999999,-0.00016999999999999999,-0.00018,-0.0002,-0.00011999999999999999,6
26554,27786,-0.00023999999999999998,-0.00016,-0.00011999999999999999,-0.00011999999999999999,-0.00016999999999999999,-0.00018,-0.0002,-0.00011999999999999999,6
26555,27788,-0.00023999999999999998,-0.00016,-0.00011999999999999999,-0.00011999999999999999,-0.00016999999999999999,-0.00018,-0.0002,-0.00011999999999999999,6
26556,27789,-0.00023999999999999998,-0.00016,-0.00011999999999999999,-0.00011999999999999999,-0.00016999999999999999,-0.00018,-0.0002,-0.00011999999999999999,6
26557,27790,-0.00023999999999999998,-0.00016,-0.00011999999999999999,-0.00011999999999999999,-0.00016999999999999999,-0.00018,-0.0002,-0.00011999999999999999,6
26558,27791,-0.00023999999999999998,-0.00016,-0.00011999999999999999,-0.00011999999999999999,-0.00016999999999999999,-0.00018,-0.0002,-0.00011999999999999999,6
26559,27792,-0.00023999999999999998,-0.00016,-0.00011999999999999999,-0.00011999999999999999,-0.00016999999999999999,-0.00018,-0.0002,-0.00011999999999999999,6
26560,27793,-0.00023999999999999998,-0.00016,-0.00011999999999999999,-0.00011999999999999999,-0.00016999999999999999,-0.00018,-0.0002,-0.00011999999999999999,6
26561,27794,-0.00023999999999999998,-0.00016,-0.00011999999999999999,-0.00011999999999999999,-0.00016999999999999999,-0.00018,-0.0002,-0.00011999999999999999,6
26562,27795,0.00014,8e-05,-4e-05,-5.9999999999999995e-05,-0.00011,-9e-05,-2e-05,5e-05,6
26563,27796,0.00014,8e-05,-4e-05,-5.9999999999999995e-05,-0.00011,-9e-05,-2e-05,5e-05,6
26564,27797,0.00014,8e-05,-4e-05,-5.9999999999999995e-05,-0.00011,-9e-05,-2e-05,5e-05,6
26565,27798,0.00014,8e-05,-4e-05,-5.9999999999999995e-05,-0.00011,-9e-05,-2e-05,5e-05,6
26566,27799,0.00014,8e-05,-4e-05,-5.9999999999999995e-05,-0.00011,-9e-05,-2e-05,5e-05,6
26567,27800,0.00014,8e-05,-4e-05,-5.9999999999999995e-05,-0.00011,-9e-05,-2e-05,5e-05,6
26568,27801,0.00014,8e-05,-4e-05,-5.9999999999999995e-05,-0.00011,-9e-05,-2e-05,5e-05,6
26569,27802,-5.9999999999999995e-05,-5.9999999999999995e-05,-2e-05,-7e-05,-0.00021,-0.00011,8e-05,0.00029,6
26570,27803,-5.9999999999999995e-05,-5.9999999999999995e-05,-2e-05,-7e-05,-0.00021,-0.00011,8e-05,0.00029,6
26571,27804,-5.9999999999999995e-05,-5.9999999999999995e-05,-2e-05,-7e-05,-0.00021,-0.00011,8e-05,0.00029,6
26572,27805,-5.9999999999999995e-05,-5.9999999999999995e-05,-2e-05,-7e-05,-0.00021,-0.00011,8e-05,0.00029,6
26573,27806,-5.9999999999999995e-05,-5.9999999999999995e-05,-2e-05,-7e-05,-0.00021,-0.00011,8e-05,0.00029,6
26574,27807,-5.9999999999999995e-05,-5.9999999999999995e-05,-2e-05,-7e-05,-0.00021,-0.00011,8e-05,0.00029,6
26575,27808,-5.9999999999999995e-05,-5.9999999999999995e-05,-2e-05,-7e-05,-0.00021,-0.00011,8e-05,0.00029,6
26576,27809,-5.9999999999999995e-05,-5.9999999999999995e-05,-2e-05,-7e-05,-0.00021,-0.00011,8e-05,0.00029,6
26577,27810,-5.9999999999999995e-05,-5.9999999999999995e-05,-2e-05,-7e-05,-0.00021,-0.00011,8e-05,0.00029,6
26578,27811,-5.9999999999999995e-05,-5.9999999999999995e-05,-2e-05,-7e-05,-0.00021,-0.00011,8e-05,0.00029,6
26579,27812,-5.9999999999999995e-05,-5.9999999999999995e-05,-2e-05,-7e-05,-0.00021,-0.00011,8e-05,0.00029,6
26580,27813,-5.9999999999999995e-05,-5.9999999999999995e-05,-2e-05,-7e-05,-0.00021,-0.00011,8e-05,0.00029,6
26581,27814,-5.9999999999999995e-05,-5.9999999999999995e-05,-2e-05,-7e-05,-0.00021,-0.00011,8e-05,0.00029,6
26582,27815,-5.9999999999999995e-05,-5.9999999999999995e-05,-2e-05,-7e-05,-0.00021,-0.00011,8e-05,0.00029,6
26583,27816,-5.9999999999999995e-05,-5.9999999999999995e-05,-2e-05,-7e-05,-0.00021,-0.00011,8e-05,0.00029,6
26584,27817,-5.9999999999999995e-05,-5.9999999999999995e-05,-2e-05,-7e-05,-0.00021,-0.00011,8e-05,0.00029,6
26585,27818,-5.9999999999999995e-05,-5.9999999999999995e-05,-2e-05,-7e-05,-0.00021,-0.00011,8e-05,0.00029,6
26586,27819,-5.9999999999999995e-05,-5.9999999999999995e-05,-2e-05,-7e-05,-0.00021,-0.00011,8e-05,0.00029,6
26587,27820,-5.9999999999999995e-05,-5.9999999999999995e-05,-2e-05,-7e-05,-0.00021,-0.00011,8e-05,0.00029,6
26588,27821,-5.9999999999999995e-05,-5.9999999999999995e-05,-2e-05,-7e-05,-0.00021,-0.00011,8e-05,0.00029,6
26589,27822,-5.9999999999999995e-05,-5.9999999999999995e-05,-2e-05,-7e-05,-0.00021,-0.00011,8e-05,0.00029,6
26590,27823,-5.9999999999999995e-05,-5.9999999999999995e-05,-2e-05,-7e-05,-0.00021,-0.00011,8e-05,0.00029,6
26591,27824,-5.9999999999999995e-05,-5.9999999999999995e-05,-2e-05,-7e-05,-0.00021,-0.00011,8e-05,0.00029,6
26592,27825,-5.9999999999999995e-05,-5.9999999999999995e-05,-2e-05,-7e-05,-0.00021,-0.00011,8e-05,0.00029,6
26593,27826,-5e-05,5e-05,2.9999999999999997e-05,0.0,2e-05,0.0,-8e-05,-0.00022999999999999998,6
26594,27828,2e-05,-2e-05,-8e-05,-2e-05,-5.9999999999999995e-05,-2e-05,-1e-05,-2e-05,6
26595,27829,2e-05,-2e-05,-8e-05,-2e-05,-5.9999999999999995e-05,-2e-05,-1e-05,-2e-05,6
26596,27830,2e-05,-2e-05,-8e-05,-2e-05,-5.9999999999999995e-05,-2e-05,-1e-05,-2e-05,6
26597,27831,2e-05,-2e-05,-8e-05,-2e-05,-5.9999999999999995e-05,-2e-05,-1e-05,-2e-05,6
26598,27832,2e-05,-2e-05,-8e-05,-2e-05,-5.9999999999999995e-05,-2e-05,-1e-05,-2e-05,6
26599,27833,2e-05,-2e-05,-8e-05,-2e-05,-5.9999999999999995e-05,-2e-05,-1e-05,-2e-05,6
26600,27834,2e-05,-2e-05,-8e-05,-2e-05,-5.9999999999999995e-05,-2e-05,-1e-05,-2e-05,6
26601,27835,2e-05,-2e-05,-8e-05,-2e-05,-5.9999999999999995e-05,-2e-05,-1e-05,-2e-05,6
26602,27836,2e-05,-2e-05,-8e-05,-2e-05,-5.9999999999999995e-05,-2e-05,-1e-05,-2e-05,6
26603,27839,2e-05,-2e-05,-8e-05,-2e-05,-5.9999999999999995e-05,-2e-05,-1e-05,-2e-05,6
26604,27840,2e-05,-2e-05,-8e-05,-2e-05,-5.9999999999999995e-05,-2e-05,-1e-05,-2e-05,6
26605,27841,1e-05,9e-05,5e-05,8e-05,0.00016,9e-05,7e-05,0.00018,6
26606,27842,1e-05,9e-05,5e-05,8e-05,0.00016,9e-05,7e-05,0.00018,6
26607,27843,0.00011999999999999999,0.0,5e-05,2e-05,-1e-05,-5.9999999999999995e-05,-0.00015,2.9999999999999997e-05,6
26608,27844,0.00011999999999999999,0.0,5e-05,2e-05,-1e-05,-5.9999999999999995e-05,-0.00015,2.9999999999999997e-05,6
26609,27845,0.00011999999999999999,0.0,5e-05,2e-05,-1e-05,-5.9999999999999995e-05,-0.00015,2.9999999999999997e-05,6
26610,27846,0.00011999999999999999,0.0,5e-05,2e-05,-1e-05,-5.9999999999999995e-05,-0.00015,2.9999999999999997e-05,6
26611,27847,0.00011999999999999999,0.0,5e-05,2e-05,-1e-05,-5.9999999999999995e-05,-0.00015,2.9999999999999997e-05,6
26612,27848,0.00011999999999999999,0.0,5e-05,2e-05,-1e-05,-5.9999999999999995e-05,-0.00015,2.9999999999999997e-05,6
26613,27849,0.00011999999999999999,0.0,5e-05,2e-05,-1e-05,-5.9999999999999995e-05,-0.00015,2.9999999999999997e-05,6
26614,27850,0.00011999999999999999,0.0,5e-05,2e-05,-1e-05,-5.9999999999999995e-05,-0.00015,2.9999999999999997e-05,6
26615,27851,0.00011999999999999999,0.0,5e-05,2e-05,-1e-05,-5.9999999999999995e-05,-0.00015,2.9999999999999997e-05,6
26616,27852,0.00011999999999999999,0.0,5e-05,2e-05,-1e-05,-5.9999999999999995e-05,-0.00015,2.9999999999999997e-05,6
26617,27853,0.00011999999999999999,0.0,5e-05,2e-05,-1e-05,-5.9999999999999995e-05,-0.00015,2.9999999999999997e-05,6
26618,27854,0.00011999999999999999,0.0,5e-05,2e-05,-1e-05,-5.9999999999999995e-05,-0.00015,2.9999999999999997e-05,6
26619,27855,0.00011999999999999999,0.0,5e-05,2e-05,-1e-05,-5.9999999999999995e-05,-0.00015,2.9999999999999997e-05,6
26620,27856,0.00011999999999999999,0.0,5e-05,2e-05,-1e-05,-5.9999999999999995e-05,-0.00015,2.9999999999999997e-05,6
26621,27857,0.00011999999999999999,0.0,5e-05,2e-05,-1e-05,-5.9999999999999995e-05,-0.00015,2.9999999999999997e-05,6
26622,27858,0.00011999999999999999,0.0,5e-05,2e-05,-1e-05,-5.9999999999999995e-05,-0.00015,2.9999999999999997e-05,6
26623,27859,0.00011999999999999999,0.0,5e-05,2e-05,-1e-05,-5.9999999999999995e-05,-0.00015,2.9999999999999997e-05,6
26624,27860,0.00011999999999999999,0.0,5e-05,2e-05,-1e-05,-5.9999999999999995e-05,-0.00015,2.9999999999999997e-05,6
26625,27861,0.00011999999999999999,0.0,5e-05,2e-05,-1e-05,-5.9999999999999995e-05,-0.00015,2.9999999999999997e-05,6
26626,27862,0.00011999999999999999,0.0,5e-05,2e-05,-1e-05,-5.9999999999999995e-05,-0.00015,2.9999999999999997e-05,6
26627,27863,7e-05,5.9999999999999995e-05,1e-05,2.9999999999999997e-05,-1e-05,-2e-05,-0.00014,-2e-05,6
26628,27864,7e-05,5.9999999999999995e-05,1e-05,2.9999999999999997e-05,-1e-05,-2e-05,-0.00014,-2e-05,6
26629,27865,0.00013000000000000002,4e-05,0.0,-1e-05,0.0,-5.9999999999999995e-05,0.00015,0.00033999999999999997,6
26630,27866,0.00013000000000000002,4e-05,0.0,-1e-05,0.0,-5.9999999999999995e-05,0.00015,0.00033999999999999997,6
26631,27867,0.00013000000000000002,4e-05,0.0,-1e-05,0.0,-5.9999999999999995e-05,0.00015,0.00033999999999999997,6
26632,27868,0.00013000000000000002,4e-05,0.0,-1e-05,0.0,-5.9999999999999995e-05,0.00015,0.00033999999999999997,6
26633,27869,0.00013000000000000002,4e-05,0.0,-1e-05,0.0,-5.9999999999999995e-05,0.00015,0.00033999999999999997,6
26634,27870,0.00013000000000000002,4e-05,0.0,-1e-05,0.0,-5.9999999999999995e-05,0.00015,0.00033999999999999997,6
26635,27871,0.00013000000000000002,4e-05,0.0,-1e-05,0.0,-5.9999999999999995e-05,0.00015,0.00033999999999999997,6
26636,27872,0.00013000000000000002,4e-05,0.0,-1e-05,0.0,-5.9999999999999995e-05,0.00015,0.00033999999999999997,6
26637,27873,0.00013000000000000002,4e-05,0.0,-1e-05,0.0,-5.9999999999999995e-05,0.00015,0.00033999999999999997,6
26638,27874,0.00013000000000000002,4e-05,0.0,-1e-05,0.0,-5.9999999999999995e-05,0.00015,0.00033999999999999997,6
26639,27875,0.00013000000000000002,4e-05,0.0,-1e-05,0.0,-5.9999999999999995e-05,0.00015,0.00033999999999999997,6
26640,27876,0.00013000000000000002,4e-05,0.0,-1e-05,0.0,-5.9999999999999995e-05,0.00015,0.00033999999999999997,6
26641,27877,0.00013000000000000002,4e-05,0.0,-1e-05,0.0,-5.9999999999999995e-05,0.00015,0.00033999999999999997,6
26642,27878,2.9999999999999997e-05,2.9999999999999997e-05,-5e-05,1e-05,5e-05,-5e-05,-0.0002,-0.00016999999999999999,6
26643,27879,2.9999999999999997e-05,2.9999999999999997e-05,-5e-05,1e-05,5e-05,-5e-05,-0.0002,-0.00016999999999999999,6
26644,27880,1e-05,-2.9999999999999997e-05,-5.9999999999999995e-05,-5.9999999999999995e-05,-4e-05,-8e-05,-1e-05,-0.0001,6
26645,27881,1e-05,-2.9999999999999997e-05,-5.9999999999999995e-05,-5.9999999999999995e-05,-4e-05,-8e-05,-1e-05,-0.0001,6
26646,27882,1e-05,-2.9999999999999997e-05,-5.9999999999999995e-05,-5.9999999999999995e-05,-4e-05,-8e-05,-1e-05,-0.0001,6
26647,27883,1e-05,-2.9999999999999997e-05,-5.9999999999999995e-05,-5.9999999999999995e-05,-4e-05,-8e-05,-1e-05,-0.0001,6
26648,27884,1e-05,-2.9999999999999997e-05,-5.9999999999999995e-05,-5.9999999999999995e-05,-4e-05,-8e-05,-1e-05,-0.0001,6
26649,27885,1e-05,-2.9999999999999997e-05,-5.9999999999999995e-05,-5.9999999999999995e-05,-4e-05,-8e-05,-1e-05,-0.0001,6
26650,27886,1e-05,-2.9999999999999997e-05,-5.9999999999999995e-05,-5.9999999999999995e-05,-4e-05,-8e-05,-1e-05,-0.0001,6
26651,27889,1e-05,-2.9999999999999997e-05,-5.9999999999999995e-05,-5.9999999999999995e-05,-4e-05,-8e-05,-1e-05,-0.0001,6
26652,27890,1e-05,-2.9999999999999997e-05,-5.9999999999999995e-05,-5.9999999999999995e-05,-4e-05,-8e-05,-1e-05,-0.0001,6
26653,27891,1e-05,-2.9999999999999997e-05,-5.9999999999999995e-05,-5.9999999999999995e-05,-4e-05,-8e-05,-1e-05,-0.0001,6
26654,27892,1e-05,-2.9999999999999997e-05,-5.9999999999999995e-05,-5.9999999999999995e-05,-4e-05,-8e-05,-1e-05,-0.0001,6
26655,27893,1e-05,-2.9999999999999997e-05,-5.9999999999999995e-05,-5.9999999999999995e-05,-4e-05,-8e-05,-1e-05,-0.0001,6
26656,27894,1e-05,-2.9999999999999997e-05,-5.9999999999999995e-05,-5.9999999999999995e-05,-4e-05,-8e-05,-1e-05,-0.0001,6
26657,27895,1e-05,-2.9999999999999997e-05,-5.9999999999999995e-05,-5.9999999999999995e-05,-4e-05,-8e-05,-1e-05,-0.0001,6
26658,27896,1e-05,-2.9999999999999997e-05,-5.9999999999999995e-05,-5.9999999999999995e-05,-4e-05,-8e-05,-1e-05,-0.0001,6
26659,27897,1e-05,-2.9999999999999997e-05,-5.9999999999999995e-05,-5.9999999999999995e-05,-4e-05,-8e-05,-1e-05,-0.0001,6
26660,27898,1e-05,-2.9999999999999997e-05,-5.9999999999999995e-05,-5.9999999999999995e-05,-4e-05,-8e-05,-1e-05,-0.0001,6
26661,27899,1e-05,-2.9999999999999997e-05,-5.9999999999999995e-05,-5.9999999999999995e-05,-4e-05,-8e-05,-1e-05,-0.0001,6
26662,27900,1e-05,-2.9999999999999997e-05,-5.9999999999999995e-05,-5.9999999999999995e-05,-4e-05,-8e-05,-1e-05,-0.0001,6
26663,27901,-0.00018999999999999998,-0.00013000000000000002,1e-05,0.0,5e-05,4e-05,2e-05,-4e-05,6
26664,27902,-0.00014,8e-05,0.00016999999999999999,9e-05,5.9999999999999995e-05,2.9999999999999997e-05,-0.0001,-0.00064,6
26665,27903,-0.00014,8e-05,0.00016999999999999999,9e-05,5.9999999999999995e-05,2.9999999999999997e-05,-0.0001,-0.00064,6
26666,27904,-0.00014,8e-05,0.00016999999999999999,9e-05,5.9999999999999995e-05,2.9999999999999997e-05,-0.0001,-0.00064,6
26667,27905,-0.00014,8e-05,0.00016999999999999999,9e-05,5.9999999999999995e-05,2.9999999999999997e-05,-0.0001,-0.00064,6
26668,27906,-0.00014,8e-05,0.00016999999999999999,9e-05,5.9999999999999995e-05,2.9999999999999997e-05,-0.0001,-0.00064,6
26669,27907,-0.00014,8e-05,0.00016999999999999999,9e-05,5.9999999999999995e-05,2.9999999999999997e-05,-0.0001,-0.00064,6
26670,27908,-0.00014,8e-05,0.00016999999999999999,9e-05,5.9999999999999995e-05,2.9999999999999997e-05,-0.0001,-0.00064,6
26671,27909,-0.00014,8e-05,0.00016999999999999999,9e-05,5.9999999999999995e-05,2.9999999999999997e-05,-0.0001,-0.00064,6
26672,27910,-0.00014,8e-05,0.00016999999999999999,9e-05,5.9999999999999995e-05,2.9999999999999997e-05,-0.0001,-0.00064,6
26673,27911,-0.00014,8e-05,0.00016999999999999999,9e-05,5.9999999999999995e-05,2.9999999999999997e-05,-0.0001,-0.00064,6
26674,27912,-0.00014,8e-05,0.00016999999999999999,9e-05,5.9999999999999995e-05,2.9999999999999997e-05,-0.0001,-0.00064,6
26675,27913,-0.00014,8e-05,0.00016999999999999999,9e-05,5.9999999999999995e-05,2.9999999999999997e-05,-0.0001,-0.00064,6
26676,27914,-0.00014,8e-05,0.00016999999999999999,9e-05,5.9999999999999995e-05,2.9999999999999997e-05,-0.0001,-0.00064,6
26677,27915,-9e-05,-0.00011999999999999999,-0.00011999999999999999,-7e-05,-5e-05,-5e-05,-0.00015,-9e-05,6
26678,27916,-9e-05,-0.00011999999999999999,-0.00011999999999999999,-7e-05,-5e-05,-5e-05,-0.00015,-9e-05,6
26679,27917,-9e-05,-0.00011999999999999999,-0.00011999999999999999,-7e-05,-5e-05,-5e-05,-0.00015,-9e-05,6
26680,27918,-9e-05,-0.00011999999999999999,-0.00011999999999999999,-7e-05,-5e-05,-5e-05,-0.00015,-9e-05,6
26681,27919,-9e-05,-0.00011999999999999999,-0.00011999999999999999,-7e-05,-5e-05,-5e-05,-0.00015,-9e-05,6
26682,27920,-9e-05,-0.00011999999999999999,-0.00011999999999999999,-7e-05,-5e-05,-5e-05,-0.00015,-9e-05,6
26683,27921,-9e-05,-0.00011999999999999999,-0.00011999999999999999,-7e-05,-5e-05,-5e-05,-0.00015,-9e-05,6
26684,27922,-0.00013000000000000002,4e-05,5.9999999999999995e-05,2.9999999999999997e-05,9e-05,4e-05,-0.00015,-0.00025,6
26685,27923,-0.00013000000000000002,4e-05,5.9999999999999995e-05,2.9999999999999997e-05,9e-05,4e-05,-0.00015,-0.00025,6
26686,27924,-0.00013000000000000002,4e-05,5.9999999999999995e-05,2.9999999999999997e-05,9e-05,4e-05,-0.00015,-0.00025,6
26687,27925,-0.00013000000000000002,4e-05,5.9999999999999995e-05,2.9999999999999997e-05,9e-05,4e-05,-0.00015,-0.00025,6
26688,27926,-0.00013000000000000002,4e-05,5.9999999999999995e-05,2.9999999999999997e-05,9e-05,4e-05,-0.00015,-0.00025,6
26689,27927,-0.00013000000000000002,4e-05,5.9999999999999995e-05,2.9999999999999997e-05,9e-05,4e-05,-0.00015,-0.00025,6
26690,27928,-0.00013000000000000002,4e-05,5.9999999999999995e-05,2.9999999999999997e-05,9e-05,4e-05,-0.00015,-0.00025,6
26691,27929,-0.00013000000000000002,4e-05,5.9999999999999995e-05,2.9999999999999997e-05,9e-05,4e-05,-0.00015,-0.00025,6
26692,27930,-0.00013000000000000002,4e-05,5.9999999999999995e-05,2.9999999999999997e-05,9e-05,4e-05,-0.00015,-0.00025,6
26693,27931,-0.00013000000000000002,4e-05,5.9999999999999995e-05,2.9999999999999997e-05,9e-05,4e-05,-0.00015,-0.00025,6
26694,27932,-0.00013000000000000002,4e-05,5.9999999999999995e-05,2.9999999999999997e-05,9e-05,4e-05,-0.00015,-0.00025,6
26695,27933,-0.00013000000000000002,4e-05,5.9999999999999995e-05,2.9999999999999997e-05,9e-05,4e-05,-0.00015,-0.00025,6
26696,27934,-0.00013000000000000002,4e-05,5.9999999999999995e-05,2.9999999999999997e-05,9e-05,4e-05,-0.00015,-0.00025,6
26697,27935,-0.00013000000000000002,4e-05,5.9999999999999995e-05,2.9999999999999997e-05,9e-05,4e-05,-0.00015,-0.00025,6
26698,27936,-0.00013000000000000002,4e-05,5.9999999999999995e-05,2.9999999999999997e-05,9e-05,4e-05,-0.00015,-0.00025,6
26699,27938,-0.00013000000000000002,4e-05,5.9999999999999995e-05,2.9999999999999997e-05,9e-05,4e-05,-0.00015,-0.00025,6
26700,27939,-0.00013000000000000002,4e-05,5.9999999999999995e-05,2.9999999999999997e-05,9e-05,4e-05,-0.00015,-0.00025,6
26701,27940,-0.00013000000000000002,4e-05,5.9999999999999995e-05,2.9999999999999997e-05,9e-05,4e-05,-0.00015,-0.00025,6
26702,27941,-0.00013000000000000002,4e-05,5.9999999999999995e-05,2.9999999999999997e-05,9e-05,4e-05,-0.00015,-0.00025,6
26703,27942,-0.00013000000000000002,4e-05,5.9999999999999995e-05,2.9999999999999997e-05,9e-05,4e-05,-0.00015,-0.00025,6
26704,27943,-0.00013000000000000002,4e-05,5.9999999999999995e-05,2.9999999999999997e-05,9e-05,4e-05,-0.00015,-0.00025,6
26705,27944,-0.00013000000000000002,4e-05,5.9999999999999995e-05,2.9999999999999997e-05,9e-05,4e-05,-0.00015,-0.00025,6
26706,27945,-0.00013000000000000002,4e-05,5.9999999999999995e-05,2.9999999999999997e-05,9e-05,4e-05,-0.00015,-0.00025,6
26707,27946,-0.00013000000000000002,4e-05,5.9999999999999995e-05,2.9999999999999997e-05,9e-05,4e-05,-0.00015,-0.00025,6
26708,27947,-0.00013000000000000002,4e-05,5.9999999999999995e-05,2.9999999999999997e-05,9e-05,4e-05,-0.00015,-0.00025,6
26709,27948,-0.00013000000000000002,4e-05,5.9999999999999995e-05,2.9999999999999997e-05,9e-05,4e-05,-0.00015,-0.00025,6
26710,27949,-0.00013000000000000002,4e-05,5.9999999999999995e-05,2.9999999999999997e-05,9e-05,4e-05,-0.00015,-0.00025,6
26711,27950,-0.00013000000000000002,4e-05,5.9999999999999995e-05,2.9999999999999997e-05,9e-05,4e-05,-0.00015,-0.00025,6
26712,27951,-0.00013000000000000002,4e-05,5.9999999999999995e-05,2.9999999999999997e-05,9e-05,4e-05,-0.00015,-0.00025,6
26713,27952,-0.00013000000000000002,4e-05,5.9999999999999995e-05,2.9999999999999997e-05,9e-05,4e-05,-0.00015,-0.00025,6
26714,27953,-8e-05,0.0,4e-05,8e-05,9e-05,-2e-05,9e-05,-0.00015,6
26715,27954,2e-05,-4e-05,-4e-05,2e-05,0.00013000000000000002,5e-05,4e-05,-0.00014,6
26716,27955,-1e-05,-1e-05,-5.9999999999999995e-05,-4e-05,-2.9999999999999997e-05,-5e-05,-0.0001,0.0,6
26717,27956,-1e-05,-1e-05,-5.9999999999999995e-05,-4e-05,-2.9999999999999997e-05,-5e-05,-0.0001,0.0,6
26718,27957,-1e-05,-1e-05,-5.9999999999999995e-05,-4e-05,-2.9999999999999997e-05,-5e-05,-0.0001,0.0,6
26719,27958,-1e-05,-1e-05,-5.9999999999999995e-05,-4e-05,-2.9999999999999997e-05,-5e-05,-0.0001,0.0,6
26720,27959,-1e-05,-1e-05,-5.9999999999999995e-05,-4e-05,-2.9999999999999997e-05,-5e-05,-0.0001,0.0,6
26721,27960,-1e-05,-1e-05,-5.9999999999999995e-05,-4e-05,-2.9999999999999997e-05,-5e-05,-0.0001,0.0,6
26722,27961,-4e-05,-7e-05,2.9999999999999997e-05,-7e-05,-0.00018999999999999998,5e-05,0.0,-5.9999999999999995e-05,6
26723,27962,-4e-05,-7e-05,2.9999999999999997e-05,-7e-05,-0.00018999999999999998,5e-05,0.0,-5.9999999999999995e-05,6
26724,27963,-4e-05,-7e-05,2.9999999999999997e-05,-7e-05,-0.00018999999999999998,5e-05,0.0,-5.9999999999999995e-05,6
26725,27964,-4e-05,-7e-05,2.9999999999999997e-05,-7e-05,-0.00018999999999999998,5e-05,0.0,-5.9999999999999995e-05,6
26726,27965,-4e-05,-7e-05,2.9999999999999997e-05,-7e-05,-0.00018999999999999998,5e-05,0.0,-5.9999999999999995e-05,6
26727,27966,-4e-05,-7e-05,2.9999999999999997e-05,-7e-05,-0.00018999999999999998,5e-05,0.0,-5.9999999999999995e-05,6
26728,27967,-4e-05,-7e-05,2.9999999999999997e-05,-7e-05,-0.00018999999999999998,5e-05,0.0,-5.9999999999999995e-05,6
26729,27968,-4e-05,-7e-05,2.9999999999999997e-05,-7e-05,-0.00018999999999999998,5e-05,0.0,-5.9999999999999995e-05,6
26730,27969,5e-05,2e-05,-1e-05,2e-05,0.0001,-2.9999999999999997e-05,8e-05,0.00022,6
26731,27970,5e-05,2e-05,-1e-05,2e-05,0.0001,-2.9999999999999997e-05,8e-05,0.00022,6
26732,27971,5e-05,2e-05,-1e-05,2e-05,0.0001,-2.9999999999999997e-05,8e-05,0.00022,6
26733,27972,5e-05,2e-05,-1e-05,2e-05,0.0001,-2.9999999999999997e-05,8e-05,0.00022,6
26734,27973,5e-05,2e-05,-1e-05,2e-05,0.0001,-2.9999999999999997e-05,8e-05,0.00022,6
26735,27974,0.0,-5e-05,-9e-05,-0.0001,-0.0002,-0.00018,-5e-05,0.00015,6
26736,27975,0.0,-5e-05,-9e-05,-0.0001,-0.0002,-0.00018,-5e-05,0.00015,6
26737,27976,0.0,-5e-05,-9e-05,-0.0001,-0.0002,-0.00018,-5e-05,0.00015,6
26738,27977,0.0,-5e-05,-9e-05,-0.0001,-0.0002,-0.00018,-5e-05,0.00015,6
26739,27978,0.0,-5e-05,-9e-05,-0.0001,-0.0002,-0.00018,-5e-05,0.00015,6
26740,27979,0.0,-5e-05,-9e-05,-0.0001,-0.0002,-0.00018,-5e-05,0.00015,6
26741,27980,0.0,-5e-05,-9e-05,-0.0001,-0.0002,-0.00018,-5e-05,0.00015,6
26742,27981,0.0,-5e-05,-9e-05,-0.0001,-0.0002,-0.00018,-5e-05,0.00015,6
26743,27982,0.0,-5e-05,-9e-05,-0.0001,-0.0002,-0.00018,-5e-05,0.00015,6
26744,27983,0.0,-5e-05,-9e-05,-0.0001,-0.0002,-0.00018,-5e-05,0.00015,6
26745,27984,0.0,-5e-05,-9e-05,-0.0001,-0.0002,-0.00018,-5e-05,0.00015,6
26746,27985,0.0,-5e-05,-9e-05,-0.0001,-0.0002,-0.00018,-5e-05,0.00015,6
26747,27986,0.0,-5e-05,-9e-05,-0.0001,-0.0002,-0.00018,-5e-05,0.00015,6
26748,27988,0.0,-5e-05,-9e-05,-0.0001,-0.0002,-0.00018,-5e-05,0.00015,6
26749,27989,0.0,-5e-05,-9e-05,-0.0001,-0.0002,-0.00018,-5e-05,0.00015,6
26750,27990,0.0,-5e-05,-9e-05,-0.0001,-0.0002,-0.00018,-5e-05,0.00015,6
26751,27991,5e-05,1e-05,0.00011999999999999999,2e-05,-8e-05,2e-05,-5.9999999999999995e-05,-7e-05,6
26752,27992,5e-05,1e-05,0.00011999999999999999,2e-05,-8e-05,2e-05,-5.9999999999999995e-05,-7e-05,6
26753,27993,5e-05,1e-05,0.00011999999999999999,2e-05,-8e-05,2e-05,-5.9999999999999995e-05,-7e-05,6
26754,27994,5e-05,1e-05,0.00011999999999999999,2e-05,-8e-05,2e-05,-5.9999999999999995e-05,-7e-05,6
26755,27995,5e-05,1e-05,0.00011999999999999999,2e-05,-8e-05,2e-05,-5.9999999999999995e-05,-7e-05,6
26756,27996,5e-05,1e-05,0.00011999999999999999,2e-05,-8e-05,2e-05,-5.9999999999999995e-05,-7e-05,6
26757,27997,5e-05,1e-05,0.00011999999999999999,2e-05,-8e-05,2e-05,-5.9999999999999995e-05,-7e-05,6
26758,27998,-8e-05,-7e-05,-7e-05,-8e-05,-0.00011999999999999999,-0.00016,-0.00031,-0.00027,6
26759,27999,-8e-05,-7e-05,-7e-05,-8e-05,-0.00011999999999999999,-0.00016,-0.00031,-0.00027,6
26760,28000,0.0,-5.9999999999999995e-05,-0.00011,-8e-05,-4e-05,5.9999999999999995e-05,7e-05,0.0001,6
26761,28001,0.0,-5.9999999999999995e-05,-0.00011,-8e-05,-4e-05,5.9999999999999995e-05,7e-05,0.0001,6
26762,28002,0.0,-5.9999999999999995e-05,-0.00011,-8e-05,-4e-05,5.9999999999999995e-05,7e-05,0.0001,6
26763,28003,0.0,-5.9999999999999995e-05,-0.00011,-8e-05,-4e-05,5.9999999999999995e-05,7e-05,0.0001,6
26764,28004,0.0,-5.9999999999999995e-05,-0.00011,-8e-05,-4e-05,5.9999999999999995e-05,7e-05,0.0001,6
26765,28005,0.0,-5.9999999999999995e-05,-0.00011,-8e-05,-4e-05,5.9999999999999995e-05,7e-05,0.0001,6
26766,28006,0.0,-5.9999999999999995e-05,-0.00011,-8e-05,-4e-05,5.9999999999999995e-05,7e-05,0.0001,6
26767,28007,0.0,-5.9999999999999995e-05,-0.00011,-8e-05,-4e-05,5.9999999999999995e-05,7e-05,0.0001,6
26768,28008,0.0,-5.9999999999999995e-05,-0.00011,-8e-05,-4e-05,5.9999999999999995e-05,7e-05,0.0001,6
26769,28009,0.0,-5.9999999999999995e-05,-0.00011,-8e-05,-4e-05,5.9999999999999995e-05,7e-05,0.0001,6
26770,28010,0.0,-5.9999999999999995e-05,-0.00011,-8e-05,-4e-05,5.9999999999999995e-05,7e-05,0.0001,6
26771,28011,0.0,-5.9999999999999995e-05,-0.00011,-8e-05,-4e-05,5.9999999999999995e-05,7e-05,0.0001,6
26772,28012,0.0,-5.9999999999999995e-05,-0.00011,-8e-05,-4e-05,5.9999999999999995e-05,7e-05,0.0001,6
26773,28013,0.0,-5.9999999999999995e-05,-0.00011,-8e-05,-4e-05,5.9999999999999995e-05,7e-05,0.0001,6
26774,28014,0.0,-5.9999999999999995e-05,-0.00011,-8e-05,-4e-05,5.9999999999999995e-05,7e-05,0.0001,6
26775,28015,0.0,-5.9999999999999995e-05,-0.00011,-8e-05,-4e-05,5.9999999999999995e-05,7e-05,0.0001,6
26776,28017,0.0,-5.9999999999999995e-05,-0.00011,-8e-05,-4e-05,5.9999999999999995e-05,7e-05,0.0001,6
26777,28018,0.0,-5.9999999999999995e-05,-0.00011,-8e-05,-4e-05,5.9999999999999995e-05,7e-05,0.0001,6
26778,28019,0.0,-5.9999999999999995e-05,-0.00011,-8e-05,-4e-05,5.9999999999999995e-05,7e-05,0.0001,6
26779,28020,0.0,-5.9999999999999995e-05,-0.00011,-8e-05,-4e-05,5.9999999999999995e-05,7e-05,0.0001,6
26780,28021,0.0,-5.9999999999999995e-05,-0.00011,-8e-05,-4e-05,5.9999999999999995e-05,7e-05,0.0001,6
26781,28022,0.0,-5.9999999999999995e-05,-0.00011,-8e-05,-4e-05,5.9999999999999995e-05,7e-05,0.0001,6
26782,28023,0.0,-5.9999999999999995e-05,-0.00011,-8e-05,-4e-05,5.9999999999999995e-05,7e-05,0.0001,6
26783,28024,0.0,-5.9999999999999995e-05,-0.00011,-8e-05,-4e-05,5.9999999999999995e-05,7e-05,0.0001,6
26784,28025,0.0,-5.9999999999999995e-05,-0.00011,-8e-05,-4e-05,5.9999999999999995e-05,7e-05,0.0001,6
26785,28026,0.0,-5.9999999999999995e-05,-0.00011,-8e-05,-4e-05,5.9999999999999995e-05,7e-05,0.0001,6
26786,28027,0.0,-5.9999999999999995e-05,-0.00011,-8e-05,-4e-05,5.9999999999999995e-05,7e-05,0.0001,6
26787,28028,-0.0001,0.00016,0.00021,9e-05,5.9999999999999995e-05,4e-05,5.9999999999999995e-05,-9e-05,6
26788,28029,-0.0001,0.00016,0.00021,9e-05,5.9999999999999995e-05,4e-05,5.9999999999999995e-05,-9e-05,6
26789,28030,-0.0001,0.00016,0.00021,9e-05,5.9999999999999995e-05,4e-05,5.9999999999999995e-05,-9e-05,6
26790,28031,-0.0001,0.00016,0.00021,9e-05,5.9999999999999995e-05,4e-05,5.9999999999999995e-05,-9e-05,6
26791,28032,-0.0001,0.00016,0.00021,9e-05,5.9999999999999995e-05,4e-05,5.9999999999999995e-05,-9e-05,6
26792,28033,-0.0001,0.00016,0.00021,9e-05,5.9999999999999995e-05,4e-05,5.9999999999999995e-05,-9e-05,6
26793,28034,-0.0001,0.00016,0.00021,9e-05,5.9999999999999995e-05,4e-05,5.9999999999999995e-05,-9e-05,6
26794,28035,-0.0001,0.00016,0.00021,9e-05,5.9999999999999995e-05,4e-05,5.9999999999999995e-05,-9e-05,6
26795,28036,-0.0001,0.00016,0.00021,9e-05,5.9999999999999995e-05,4e-05,5.9999999999999995e-05,-9e-05,6
26796,28038,-0.0001,0.00016,0.00021,9e-05,5.9999999999999995e-05,4e-05,5.9999999999999995e-05,-9e-05,6
26797,28039,-0.0001,0.00016,0.00021,9e-05,5.9999999999999995e-05,4e-05,5.9999999999999995e-05,-9e-05,6
26798,28040,-0.0001,0.00016,0.00021,9e-05,5.9999999999999995e-05,4e-05,5.9999999999999995e-05,-9e-05,6
26799,28041,-0.0001,0.00016,0.00021,9e-05,5.9999999999999995e-05,4e-05,5.9999999999999995e-05,-9e-05,6
26800,28042,-0.0001,0.00016,0.00021,9e-05,5.9999999999999995e-05,4e-05,5.9999999999999995e-05,-9e-05,6
26801,28043,-0.0001,0.00016,0.00021,9e-05,5.9999999999999995e-05,4e-05,5.9999999999999995e-05,-9e-05,6
26802,28044,-0.0001,0.00016,0.00021,9e-05,5.9999999999999995e-05,4e-05,5.9999999999999995e-05,-9e-05,6
26803,28045,-4e-05,-5.9999999999999995e-05,-0.00011999999999999999,-9e-05,-7e-05,-7e-05,2e-05,4e-05,6
26804,28046,0.00026000000000000003,5.9999999999999995e-05,2e-05,5e-05,0.00011,9e-05,0.00021,0.00035,6
26805,28047,0.00026000000000000003,5.9999999999999995e-05,2e-05,5e-05,0.00011,9e-05,0.00021,0.00035,6
26806,28048,0.00026000000000000003,5.9999999999999995e-05,2e-05,5e-05,0.00011,9e-05,0.00021,0.00035,6
26807,28049,2.9999999999999997e-05,-2e-05,5e-05,4e-05,-1e-05,5.9999999999999995e-05,0.0001,0.00022,6
26808,28050,2.9999999999999997e-05,-2e-05,5e-05,4e-05,-1e-05,5.9999999999999995e-05,0.0001,0.00022,6
26809,28051,2.9999999999999997e-05,-2e-05,5e-05,4e-05,-1e-05,5.9999999999999995e-05,0.0001,0.00022,6
26810,28052,2.9999999999999997e-05,-2e-05,5e-05,4e-05,-1e-05,5.9999999999999995e-05,0.0001,0.00022,6
26811,28053,2.9999999999999997e-05,-2e-05,5e-05,4e-05,-1e-05,5.9999999999999995e-05,0.0001,0.00022,6
26812,28054,2.9999999999999997e-05,-2e-05,5e-05,4e-05,-1e-05,5.9999999999999995e-05,0.0001,0.00022,6
26813,28055,2.9999999999999997e-05,-2e-05,5e-05,4e-05,-1e-05,5.9999999999999995e-05,0.0001,0.00022,6
26814,28056,2.9999999999999997e-05,-2e-05,5e-05,4e-05,-1e-05,5.9999999999999995e-05,0.0001,0.00022,6
26815,28057,2.9999999999999997e-05,-2e-05,5e-05,4e-05,-1e-05,5.9999999999999995e-05,0.0001,0.00022,6
26816,28058,-2e-05,-1e-05,-9e-05,-5e-05,-2e-05,-7e-05,-0.00016999999999999999,-0.00022999999999999998,6
26817,28059,-1e-05,-2e-05,-5.9999999999999995e-05,-0.0001,-5.9999999999999995e-05,2.9999999999999997e-05,-2e-05,0.0,6
26818,28060,-1e-05,-2e-05,-5.9999999999999995e-05,-0.0001,-5.9999999999999995e-05,2.9999999999999997e-05,-2e-05,0.0,6
26819,28061,-1e-05,-2e-05,-5.9999999999999995e-05,-0.0001,-5.9999999999999995e-05,2.9999999999999997e-05,-2e-05,0.0,6
26820,28062,-1e-05,-2e-05,-5.9999999999999995e-05,-0.0001,-5.9999999999999995e-05,2.9999999999999997e-05,-2e-05,0.0,6
26821,28063,-1e-05,-2e-05,-5.9999999999999995e-05,-0.0001,-5.9999999999999995e-05,2.9999999999999997e-05,-2e-05,0.0,6
26822,28064,0.00013000000000000002,-2e-05,2e-05,8e-05,0.00013000000000000002,5e-05,0.00011999999999999999,0.00016999999999999999,6
26823,28065,0.00013000000000000002,-2e-05,2e-05,8e-05,0.00013000000000000002,5e-05,0.00011999999999999999,0.00016999999999999999,6
26824,28066,0.00013000000000000002,-2e-05,2e-05,8e-05,0.00013000000000000002,5e-05,0.00011999999999999999,0.00016999999999999999,6
26825,28067,0.00013000000000000002,-2e-05,2e-05,8e-05,0.00013000000000000002,5e-05,0.00011999999999999999,0.00016999999999999999,6
26826,28068,0.00013000000000000002,-2e-05,2e-05,8e-05,0.00013000000000000002,5e-05,0.00011999999999999999,0.00016999999999999999,6
26827,28069,0.00013000000000000002,-2e-05,2e-05,8e-05,0.00013000000000000002,5e-05,0.00011999999999999999,0.00016999999999999999,6
26828,28070,0.00013000000000000002,-2e-05,2e-05,8e-05,0.00013000000000000002,5e-05,0.00011999999999999999,0.00016999999999999999,6
26829,28071,0.00013000000000000002,-2e-05,2e-05,8e-05,0.00013000000000000002,5e-05,0.00011999999999999999,0.00016999999999999999,6
26830,28072,0.00013000000000000002,-2e-05,2e-05,8e-05,0.00013000000000000002,5e-05,0.00011999999999999999,0.00016999999999999999,6
26831,28073,0.00013000000000000002,-2e-05,2e-05,8e-05,0.00013000000000000002,5e-05,0.00011999999999999999,0.00016999999999999999,6
26832,28074,0.00013000000000000002,-2e-05,2e-05,8e-05,0.00013000000000000002,5e-05,0.00011999999999999999,0.00016999999999999999,6
26833,28075,0.00013000000000000002,-2e-05,2e-05,8e-05,0.00013000000000000002,5e-05,0.00011999999999999999,0.00016999999999999999,6
26834,28076,0.00013000000000000002,-2e-05,2e-05,8e-05,0.00013000000000000002,5e-05,0.00011999999999999999,0.00016999999999999999,6
26835,28077,0.00013000000000000002,-2e-05,2e-05,8e-05,0.00013000000000000002,5e-05,0.00011999999999999999,0.00016999999999999999,6
26836,28078,0.00013000000000000002,-2e-05,2e-05,8e-05,0.00013000000000000002,5e-05,0.00011999999999999999,0.00016999999999999999,6
26837,28079,0.00013000000000000002,-2e-05,2e-05,8e-05,0.00013000000000000002,5e-05,0.00011999999999999999,0.00016999999999999999,6
26838,28080,0.00013000000000000002,-2e-05,2e-05,8e-05,0.00013000000000000002,5e-05,0.00011999999999999999,0.00016999999999999999,6
26839,28081,7e-05,-2.9999999999999997e-05,-0.0001,2e-05,0.00016,7e-05,2e-05,-0.00015,6
26840,28082,-0.00013000000000000002,2.9999999999999997e-05,-0.00011,-1e-05,-5.9999999999999995e-05,-0.00011999999999999999,-5.9999999999999995e-05,-1e-05,6
26841,28083,-0.00013000000000000002,2.9999999999999997e-05,-0.00011,-1e-05,-5.9999999999999995e-05,-0.00011999999999999999,-5.9999999999999995e-05,-1e-05,6
26842,28084,-0.00013000000000000002,2.9999999999999997e-05,-0.00011,-1e-05,-5.9999999999999995e-05,-0.00011999999999999999,-5.9999999999999995e-05,-1e-05,6
26843,28085,-0.00013000000000000002,2.9999999999999997e-05,-0.00011,-1e-05,-5.9999999999999995e-05,-0.00011999999999999999,-5.9999999999999995e-05,-1e-05,6
26844,28086,-0.00013000000000000002,2.9999999999999997e-05,-0.00011,-1e-05,-5.9999999999999995e-05,-0.00011999999999999999,-5.9999999999999995e-05,-1e-05,6
26845,28089,-0.00013000000000000002,2.9999999999999997e-05,-0.00011,-1e-05,-5.9999999999999995e-05,-0.00011999999999999999,-5.9999999999999995e-05,-1e-05,6
26846,28090,-0.00013000000000000002,2.9999999999999997e-05,-0.00011,-1e-05,-5.9999999999999995e-05,-0.00011999999999999999,-5.9999999999999995e-05,-1e-05,6
26847,28091,-0.00013000000000000002,2.9999999999999997e-05,-0.00011,-1e-05,-5.9999999999999995e-05,-0.00011999999999999999,-5.9999999999999995e-05,-1e-05,6
26848,28092,-0.00013000000000000002,2.9999999999999997e-05,-0.00011,-1e-05,-5.9999999999999995e-05,-0.00011999999999999999,-5.9999999999999995e-05,-1e-05,6
26849,28093,-0.00013000000000000002,2.9999999999999997e-05,-0.00011,-1e-05,-5.9999999999999995e-05,-0.00011999999999999999,-5.9999999999999995e-05,-1e-05,6
26850,28094,-2.9999999999999997e-05,-0.00015,0.0,-8e-05,-0.00011999999999999999,2.9999999999999997e-05,0.0,-0.00015,6
26851,28095,-2.9999999999999997e-05,4e-05,4e-05,8e-05,0.00011999999999999999,8e-05,-2e-05,-0.00014,6
26852,28096,-2.9999999999999997e-05,4e-05,4e-05,8e-05,0.00011999999999999999,8e-05,-2e-05,-0.00014,6
26853,28097,-2.9999999999999997e-05,4e-05,4e-05,8e-05,0.00011999999999999999,8e-05,-2e-05,-0.00014,6
26854,28098,-2.9999999999999997e-05,4e-05,4e-05,8e-05,0.00011999999999999999,8e-05,-2e-05,-0.00014,6
26855,28099,-2.9999999999999997e-05,4e-05,4e-05,8e-05,0.00011999999999999999,8e-05,-2e-05,-0.00014,6
26856,28100,-2.9999999999999997e-05,4e-05,4e-05,8e-05,0.00011999999999999999,8e-05,-2e-05,-0.00014,6
26857,28101,-2.9999999999999997e-05,4e-05,4e-05,8e-05,0.00011999999999999999,8e-05,-2e-05,-0.00014,6
26858,28102,-2.9999999999999997e-05,4e-05,4e-05,8e-05,0.00011999999999999999,8e-05,-2e-05,-0.00014,6
26859,28103,0.00014,4e-05,-7e-05,-5.9999999999999995e-05,2e-05,-8e-05,-5e-05,-0.0001,6
26860,28104,0.00014,4e-05,-7e-05,-5.9999999999999995e-05,2e-05,-8e-05,-5e-05,-0.0001,6
26861,28105,0.00014,4e-05,-7e-05,-5.9999999999999995e-05,2e-05,-8e-05,-5e-05,-0.0001,6
26862,28106,0.00014,4e-05,-7e-05,-5.9999999999999995e-05,2e-05,-8e-05,-5e-05,-0.0001,6
26863,28107,0.00014,4e-05,-7e-05,-5.9999999999999995e-05,2e-05,-8e-05,-5e-05,-0.0001,6
