,time,channel1,channel2,channel3,channel4,channel5,channel6,channel7,channel8,class
22382,23109,2e-05,-1e-05,-2.9999999999999997e-05,-4e-05,0.00018,-4e-05,2e-05,0.00013000000000000002,6
22383,23110,2e-05,-1e-05,-2.9999999999999997e-05,-4e-05,0.00018,-4e-05,2e-05,0.00013000000000000002,6
22384,23111,2e-05,-1e-05,-2.9999999999999997e-05,-4e-05,0.00018,-4e-05,2e-05,0.00013000000000000002,6
22385,23112,2e-05,-1e-05,-2.9999999999999997e-05,-4e-05,0.00018,-4e-05,2e-05,0.00013000000000000002,6
22386,23113,2e-05,-1e-05,-2.9999999999999997e-05,-4e-05,0.00018,-4e-05,2e-05,0.00013000000000000002,6
22387,23114,2e-05,-1e-05,-2.9999999999999997e-05,-4e-05,0.00018,-4e-05,2e-05,0.00013000000000000002,6
22388,23115,2e-05,-1e-05,-2.9999999999999997e-05,-4e-05,0.00018,-4e-05,2e-05,0.00013000000000000002,6
22389,23116,2e-05,-1e-05,-2.9999999999999997e-05,-4e-05,0.00018,-4e-05,2e-05,0.00013000000000000002,6
22390,23117,2e-05,-1e-05,-2.9999999999999997e-05,-4e-05,0.00018,-4e-05,2e-05,0.00013000000000000002,6
22391,23118,-7e-05,-2.9999999999999997e-05,-5e-05,-2.9999999999999997e-05,5.9999999999999995e-05,-0.0001,-0.00028,-0.00016999999999999999,6
22392,23119,-7e-05,-2.9999999999999997e-05,-5e-05,-2.9999999999999997e-05,5.9999999999999995e-05,-0.0001,-0.00028,-0.00016999999999999999,6
22393,23120,-7e-05,-2.9999999999999997e-05,-5e-05,-2.9999999999999997e-05,5.9999999999999995e-05,-0.0001,-0.00028,-0.00016999999999999999,6
22394,23121,-7e-05,-2.9999999999999997e-05,-5e-05,-2.9999999999999997e-05,5.9999999999999995e-05,-0.0001,-0.00028,-0.00016999999999999999,6
22395,23122,-7e-05,-2.9999999999999997e-05,-5e-05,-2.9999999999999997e-05,5.9999999999999995e-05,-0.0001,-0.00028,-0.00016999999999999999,6
22396,23123,-7e-05,-2.9999999999999997e-05,-5e-05,-2.9999999999999997e-05,5.9999999999999995e-05,-0.0001,-0.00028,-0.00016999999999999999,6
22397,23124,0.00011,-2e-05,-2e-05,-5.9999999999999995e-05,0.00023999999999999998,0.00031,-2.9999999999999997e-05,5e-05,6
22398,23125,0.00011,-2e-05,-2e-05,-5.9999999999999995e-05,0.00023999999999999998,0.00031,-2.9999999999999997e-05,5e-05,6
22399,23126,0.00011,-2e-05,-2e-05,-5.9999999999999995e-05,0.00023999999999999998,0.00031,-2.9999999999999997e-05,5e-05,6
22400,23127,0.00011,-2e-05,-2e-05,-5.9999999999999995e-05,0.00023999999999999998,0.00031,-2.9999999999999997e-05,5e-05,6
22401,23128,0.00011,-2e-05,-2e-05,-5.9999999999999995e-05,0.00023999999999999998,0.00031,-2.9999999999999997e-05,5e-05,6
22402,23129,0.00011,-2e-05,-2e-05,-5.9999999999999995e-05,0.00023999999999999998,0.00031,-2.9999999999999997e-05,5e-05,6
22403,23130,0.00011,-2e-05,-2e-05,-5.9999999999999995e-05,0.00023999999999999998,0.00031,-2.9999999999999997e-05,5e-05,6
22404,23131,0.00011,-2e-05,-2e-05,-5.9999999999999995e-05,0.00023999999999999998,0.00031,-2.9999999999999997e-05,5e-05,6
22405,23132,0.00011,-2e-05,-2e-05,-5.9999999999999995e-05,0.00023999999999999998,0.00031,-2.9999999999999997e-05,5e-05,6
22406,23133,0.00011,-2e-05,-2e-05,-5.9999999999999995e-05,0.00023999999999999998,0.00031,-2.9999999999999997e-05,5e-05,6
22407,23134,0.00011,-2e-05,-2e-05,-5.9999999999999995e-05,0.00023999999999999998,0.00031,-2.9999999999999997e-05,5e-05,6
22408,23135,0.00011,-2e-05,-2e-05,-5.9999999999999995e-05,0.00023999999999999998,0.00031,-2.9999999999999997e-05,5e-05,6
22409,23136,0.00011,-2e-05,-2e-05,-5.9999999999999995e-05,0.00023999999999999998,0.00031,-2.9999999999999997e-05,5e-05,6
22410,23138,0.00011,-2e-05,-2e-05,-5.9999999999999995e-05,0.00023999999999999998,0.00031,-2.9999999999999997e-05,5e-05,6
22411,23139,0.00011,-2e-05,-2e-05,-5.9999999999999995e-05,0.00023999999999999998,0.00031,-2.9999999999999997e-05,5e-05,6
22412,23140,4e-05,-8e-05,-0.00011,-0.0001,-7e-05,-1e-05,-0.00016999999999999999,-1e-05,6
22413,23141,4e-05,-8e-05,-0.00011,-0.0001,-7e-05,-1e-05,-0.00016999999999999999,-1e-05,6
22414,23142,-0.0001,4e-05,9e-05,0.00016999999999999999,0.00031,0.00028,0.0,-5e-05,6
22415,23143,-0.0001,4e-05,9e-05,0.00016999999999999999,0.00031,0.00028,0.0,-5e-05,6
22416,23144,-0.0001,4e-05,9e-05,0.00016999999999999999,0.00031,0.00028,0.0,-5e-05,6
22417,23145,-0.0001,4e-05,9e-05,0.00016999999999999999,0.00031,0.00028,0.0,-5e-05,6
22418,23146,-0.0001,4e-05,9e-05,0.00016999999999999999,0.00031,0.00028,0.0,-5e-05,6
22419,23147,-0.0001,4e-05,9e-05,0.00016999999999999999,0.00031,0.00028,0.0,-5e-05,6
22420,23148,-0.0001,4e-05,9e-05,0.00016999999999999999,0.00031,0.00028,0.0,-5e-05,6
22421,23149,-0.0001,4e-05,9e-05,0.00016999999999999999,0.00031,0.00028,0.0,-5e-05,6
22422,23150,-0.0001,4e-05,9e-05,0.00016999999999999999,0.00031,0.00028,0.0,-5e-05,6
22423,23151,-0.0001,4e-05,9e-05,0.00016999999999999999,0.00031,0.00028,0.0,-5e-05,6
22424,23152,-0.0001,4e-05,9e-05,0.00016999999999999999,0.00031,0.00028,0.0,-5e-05,6
22425,23153,-0.0001,4e-05,9e-05,0.00016999999999999999,0.00031,0.00028,0.0,-5e-05,6
22426,23154,-0.0001,4e-05,9e-05,0.00016999999999999999,0.00031,0.00028,0.0,-5e-05,6
22427,23155,-0.0001,4e-05,9e-05,0.00016999999999999999,0.00031,0.00028,0.0,-5e-05,6
22428,23156,-0.0001,4e-05,9e-05,0.00016999999999999999,0.00031,0.00028,0.0,-5e-05,6
22429,23157,-0.0001,4e-05,9e-05,0.00016999999999999999,0.00031,0.00028,0.0,-5e-05,6
22430,23158,-0.0001,4e-05,9e-05,0.00016999999999999999,0.00031,0.00028,0.0,-5e-05,6
22431,23159,-0.0001,4e-05,9e-05,0.00016999999999999999,0.00031,0.00028,0.0,-5e-05,6
22432,23160,-0.0001,4e-05,9e-05,0.00016999999999999999,0.00031,0.00028,0.0,-5e-05,6
22433,23161,-0.0001,4e-05,9e-05,0.00016999999999999999,0.00031,0.00028,0.0,-5e-05,6
22434,23162,-2e-05,-1e-05,-2e-05,2.9999999999999997e-05,9e-05,0.00013000000000000002,0.00011999999999999999,-5.9999999999999995e-05,6
22435,23163,2e-05,-1e-05,-2e-05,-9e-05,-0.00018,-9e-05,-0.00011,-2e-05,6
22436,23164,-0.00018999999999999998,-5e-05,-5e-05,4e-05,-0.00022999999999999998,-0.00014,0.0003,-0.00042,6
22437,23165,-0.00018999999999999998,-5e-05,-5e-05,4e-05,-0.00022999999999999998,-0.00014,0.0003,-0.00042,6
22438,23166,-0.00018999999999999998,-5e-05,-5e-05,4e-05,-0.00022999999999999998,-0.00014,0.0003,-0.00042,6
22439,23167,-0.00018999999999999998,-5e-05,-5e-05,4e-05,-0.00022999999999999998,-0.00014,0.0003,-0.00042,6
22440,23168,-0.00018999999999999998,-5e-05,-5e-05,4e-05,-0.00022999999999999998,-0.00014,0.0003,-0.00042,6
22441,23169,-0.00018999999999999998,-5e-05,-5e-05,4e-05,-0.00022999999999999998,-0.00014,0.0003,-0.00042,6
22442,23170,-0.00018999999999999998,-5e-05,-5e-05,4e-05,-0.00022999999999999998,-0.00014,0.0003,-0.00042,6
22443,23171,-0.00018999999999999998,-5e-05,-5e-05,4e-05,-0.00022999999999999998,-0.00014,0.0003,-0.00042,6
22444,23172,-0.00018999999999999998,-5e-05,-5e-05,4e-05,-0.00022999999999999998,-0.00014,0.0003,-0.00042,6
22445,23173,-0.00018999999999999998,-5e-05,-5e-05,4e-05,-0.00022999999999999998,-0.00014,0.0003,-0.00042,6
22446,23174,-0.00018999999999999998,-5e-05,-5e-05,4e-05,-0.00022999999999999998,-0.00014,0.0003,-0.00042,6
22447,23175,-0.00018999999999999998,-5e-05,-5e-05,4e-05,-0.00022999999999999998,-0.00014,0.0003,-0.00042,6
22448,23176,-0.00018999999999999998,-5e-05,-5e-05,4e-05,-0.00022999999999999998,-0.00014,0.0003,-0.00042,6
22449,23177,-4e-05,2e-05,2e-05,-4e-05,-0.00018,-0.0001,4e-05,0.00018999999999999998,6
22450,23178,-4e-05,2e-05,2e-05,-4e-05,-0.00018,-0.0001,4e-05,0.00018999999999999998,6
22451,23179,-4e-05,2e-05,2e-05,-4e-05,-0.00018,-0.0001,4e-05,0.00018999999999999998,6
22452,23180,-4e-05,2e-05,2e-05,-4e-05,-0.00018,-0.0001,4e-05,0.00018999999999999998,6
22453,23181,-4e-05,2e-05,2e-05,-4e-05,-0.00018,-0.0001,4e-05,0.00018999999999999998,6
22454,23182,-4e-05,2e-05,2e-05,-4e-05,-0.00018,-0.0001,4e-05,0.00018999999999999998,6
22455,23183,-4e-05,2e-05,2e-05,-4e-05,-0.00018,-0.0001,4e-05,0.00018999999999999998,6
22456,23184,-4e-05,2e-05,2e-05,-4e-05,-0.00018,-0.0001,4e-05,0.00018999999999999998,6
22457,23185,-4e-05,2e-05,2e-05,-4e-05,-0.00018,-0.0001,4e-05,0.00018999999999999998,6
22458,23186,-4e-05,2e-05,2e-05,-4e-05,-0.00018,-0.0001,4e-05,0.00018999999999999998,6
22459,23188,-4e-05,2e-05,2e-05,-4e-05,-0.00018,-0.0001,4e-05,0.00018999999999999998,6
22460,23189,-4e-05,2e-05,2e-05,-4e-05,-0.00018,-0.0001,4e-05,0.00018999999999999998,6
22461,23190,-4e-05,2e-05,2e-05,-4e-05,-0.00018,-0.0001,4e-05,0.00018999999999999998,6
22462,23191,5e-05,0.0,1e-05,-7e-05,-4e-05,4e-05,2.9999999999999997e-05,-0.00015,6
22463,23192,5e-05,0.0,1e-05,-7e-05,-4e-05,4e-05,2.9999999999999997e-05,-0.00015,6
22464,23193,5e-05,0.0,1e-05,-7e-05,-4e-05,4e-05,2.9999999999999997e-05,-0.00015,6
22465,23194,5e-05,0.0,1e-05,-7e-05,-4e-05,4e-05,2.9999999999999997e-05,-0.00015,6
22466,23195,5e-05,0.0,1e-05,-7e-05,-4e-05,4e-05,2.9999999999999997e-05,-0.00015,6
22467,23196,5e-05,0.0,1e-05,-7e-05,-4e-05,4e-05,2.9999999999999997e-05,-0.00015,6
22468,23197,5e-05,0.0,1e-05,-7e-05,-4e-05,4e-05,2.9999999999999997e-05,-0.00015,6
22469,23198,5e-05,0.0,1e-05,-7e-05,-4e-05,4e-05,2.9999999999999997e-05,-0.00015,6
22470,23199,5e-05,0.0,1e-05,-7e-05,-4e-05,4e-05,2.9999999999999997e-05,-0.00015,6
22471,23200,-0.00013000000000000002,-0.00011,-5e-05,9e-05,0.00027,-5e-05,-0.00025,2e-05,6
22472,23201,-5.9999999999999995e-05,5e-05,5.9999999999999995e-05,0.00011,0.00037999999999999997,-5.9999999999999995e-05,-0.00018,-0.0001,6
22473,23202,5e-05,-4e-05,-2e-05,-0.00011999999999999999,-0.00037999999999999997,-0.00027,-0.00026000000000000003,2.9999999999999997e-05,6
22474,23203,5e-05,-4e-05,-2e-05,-0.00011999999999999999,-0.00037999999999999997,-0.00027,-0.00026000000000000003,2.9999999999999997e-05,6
22475,23204,5e-05,-4e-05,-2e-05,-0.00011999999999999999,-0.00037999999999999997,-0.00027,-0.00026000000000000003,2.9999999999999997e-05,6
22476,23205,5e-05,-4e-05,-2e-05,-0.00011999999999999999,-0.00037999999999999997,-0.00027,-0.00026000000000000003,2.9999999999999997e-05,6
22477,23206,5e-05,-4e-05,-2e-05,-0.00011999999999999999,-0.00037999999999999997,-0.00027,-0.00026000000000000003,2.9999999999999997e-05,6
22478,23207,5e-05,-4e-05,-2e-05,-0.00011999999999999999,-0.00037999999999999997,-0.00027,-0.00026000000000000003,2.9999999999999997e-05,6
22479,23208,5e-05,-4e-05,-2e-05,-0.00011999999999999999,-0.00037999999999999997,-0.00027,-0.00026000000000000003,2.9999999999999997e-05,6
22480,23209,5e-05,-4e-05,-2e-05,-0.00011999999999999999,-0.00037999999999999997,-0.00027,-0.00026000000000000003,2.9999999999999997e-05,6
22481,23210,5e-05,-4e-05,-2e-05,-0.00011999999999999999,-0.00037999999999999997,-0.00027,-0.00026000000000000003,2.9999999999999997e-05,6
22482,23211,5e-05,-4e-05,-2e-05,-0.00011999999999999999,-0.00037999999999999997,-0.00027,-0.00026000000000000003,2.9999999999999997e-05,6
22483,23212,5e-05,-4e-05,-2e-05,-0.00011999999999999999,-0.00037999999999999997,-0.00027,-0.00026000000000000003,2.9999999999999997e-05,6
22484,23213,5e-05,-4e-05,-2e-05,-0.00011999999999999999,-0.00037999999999999997,-0.00027,-0.00026000000000000003,2.9999999999999997e-05,6
22485,23214,5e-05,-4e-05,-2e-05,-0.00011999999999999999,-0.00037999999999999997,-0.00027,-0.00026000000000000003,2.9999999999999997e-05,6
22486,23215,5e-05,-4e-05,-2e-05,-0.00011999999999999999,-0.00037999999999999997,-0.00027,-0.00026000000000000003,2.9999999999999997e-05,6
22487,23216,5e-05,-4e-05,-2e-05,-0.00011999999999999999,-0.00037999999999999997,-0.00027,-0.00026000000000000003,2.9999999999999997e-05,6
22488,23217,5e-05,-4e-05,-2e-05,-0.00011999999999999999,-0.00037999999999999997,-0.00027,-0.00026000000000000003,2.9999999999999997e-05,6
22489,23218,5e-05,-4e-05,-2e-05,-0.00011999999999999999,-0.00037999999999999997,-0.00027,-0.00026000000000000003,2.9999999999999997e-05,6
22490,23219,5e-05,-4e-05,-2e-05,-0.00011999999999999999,-0.00037999999999999997,-0.00027,-0.00026000000000000003,2.9999999999999997e-05,6
22491,23220,5e-05,-4e-05,-2e-05,-0.00011999999999999999,-0.00037999999999999997,-0.00027,-0.00026000000000000003,2.9999999999999997e-05,6
22492,23221,5e-05,-4e-05,-2e-05,-0.00011999999999999999,-0.00037999999999999997,-0.00027,-0.00026000000000000003,2.9999999999999997e-05,6
22493,23222,5e-05,-4e-05,-2e-05,-0.00011999999999999999,-0.00037999999999999997,-0.00027,-0.00026000000000000003,2.9999999999999997e-05,6
22494,23223,5e-05,-2.9999999999999997e-05,-1e-05,-2e-05,1e-05,-0.00014,-8e-05,1e-05,6
22495,23224,7e-05,4e-05,4e-05,0.0002,0.00037,0.00025,-0.00014,2.9999999999999997e-05,6
22496,23225,7e-05,4e-05,4e-05,0.0002,0.00037,0.00025,-0.00014,2.9999999999999997e-05,6
22497,23226,7e-05,4e-05,4e-05,0.0002,0.00037,0.00025,-0.00014,2.9999999999999997e-05,6
22498,23227,7e-05,4e-05,4e-05,0.0002,0.00037,0.00025,-0.00014,2.9999999999999997e-05,6
22499,23228,7e-05,4e-05,4e-05,0.0002,0.00037,0.00025,-0.00014,2.9999999999999997e-05,6
22500,23229,7e-05,4e-05,4e-05,0.0002,0.00037,0.00025,-0.00014,2.9999999999999997e-05,6
22501,23230,7e-05,4e-05,4e-05,0.0002,0.00037,0.00025,-0.00014,2.9999999999999997e-05,6
22502,23231,7e-05,4e-05,4e-05,0.0002,0.00037,0.00025,-0.00014,2.9999999999999997e-05,6
22503,23232,7e-05,4e-05,4e-05,0.0002,0.00037,0.00025,-0.00014,2.9999999999999997e-05,6
22504,23233,7e-05,4e-05,4e-05,0.0002,0.00037,0.00025,-0.00014,2.9999999999999997e-05,6
22505,23234,7e-05,4e-05,4e-05,0.0002,0.00037,0.00025,-0.00014,2.9999999999999997e-05,6
22506,23235,7e-05,4e-05,4e-05,0.0002,0.00037,0.00025,-0.00014,2.9999999999999997e-05,6
22507,23236,7e-05,4e-05,4e-05,0.0002,0.00037,0.00025,-0.00014,2.9999999999999997e-05,6
22508,23238,-5e-05,-2.9999999999999997e-05,4e-05,0.0,-4e-05,-0.00032,-5e-05,2e-05,6
22509,23239,-5e-05,-2.9999999999999997e-05,4e-05,0.0,-4e-05,-0.00032,-5e-05,2e-05,6
22510,23240,-5e-05,-2.9999999999999997e-05,4e-05,0.0,-4e-05,-0.00032,-5e-05,2e-05,6
22511,23241,-5e-05,-2.9999999999999997e-05,4e-05,0.0,-4e-05,-0.00032,-5e-05,2e-05,6
22512,23242,-5e-05,-2.9999999999999997e-05,4e-05,0.0,-4e-05,-0.00032,-5e-05,2e-05,6
22513,23243,-5e-05,-2.9999999999999997e-05,4e-05,0.0,-4e-05,-0.00032,-5e-05,2e-05,6
22514,23244,-5e-05,-2e-05,0.0,-1e-05,9e-05,-0.0003,-0.00027,-2e-05,6
22515,23245,-5e-05,-2e-05,0.0,-1e-05,9e-05,-0.0003,-0.00027,-2e-05,6
22516,23246,-5e-05,-2e-05,0.0,-1e-05,9e-05,-0.0003,-0.00027,-2e-05,6
22517,23247,-5e-05,-2e-05,0.0,-1e-05,9e-05,-0.0003,-0.00027,-2e-05,6
22518,23248,-5e-05,-2e-05,0.0,-1e-05,9e-05,-0.0003,-0.00027,-2e-05,6
22519,23249,-5e-05,-2e-05,0.0,-1e-05,9e-05,-0.0003,-0.00027,-2e-05,6
22520,23250,-5e-05,-2e-05,0.0,-1e-05,9e-05,-0.0003,-0.00027,-2e-05,6
22521,23251,-5e-05,-2e-05,0.0,-1e-05,9e-05,-0.0003,-0.00027,-2e-05,6
22522,23252,-5e-05,-2e-05,0.0,-1e-05,9e-05,-0.0003,-0.00027,-2e-05,6
22523,23253,-5e-05,-2e-05,0.0,-1e-05,9e-05,-0.0003,-0.00027,-2e-05,6
22524,23254,-5e-05,-2e-05,0.0,-1e-05,9e-05,-0.0003,-0.00027,-2e-05,6
22525,23255,-5e-05,-2e-05,0.0,-1e-05,9e-05,-0.0003,-0.00027,-2e-05,6
22526,23256,-5e-05,-2e-05,0.0,-1e-05,9e-05,-0.0003,-0.00027,-2e-05,6
22527,23257,-5e-05,-2e-05,0.0,-1e-05,9e-05,-0.0003,-0.00027,-2e-05,6
22528,23258,-5e-05,-2e-05,0.0,-1e-05,9e-05,-0.0003,-0.00027,-2e-05,6
22529,23259,-5e-05,-2e-05,0.0,-1e-05,9e-05,-0.0003,-0.00027,-2e-05,6
22530,23260,-5e-05,-2e-05,0.0,-1e-05,9e-05,-0.0003,-0.00027,-2e-05,6
22531,23261,-5e-05,7e-05,2e-05,-8e-05,-0.00037999999999999997,0.00013000000000000002,0.00016,-5e-05,6
22532,23262,-5e-05,7e-05,2e-05,-8e-05,-0.00037999999999999997,0.00013000000000000002,0.00016,-5e-05,6
22533,23263,5.9999999999999995e-05,0.0,-2e-05,1e-05,-9e-05,2.9999999999999997e-05,0.0002,0.00022,6
22534,23264,5.9999999999999995e-05,0.0,-2e-05,1e-05,-9e-05,2.9999999999999997e-05,0.0002,0.00022,6
22535,23265,5.9999999999999995e-05,0.0,-2e-05,1e-05,-9e-05,2.9999999999999997e-05,0.0002,0.00022,6
22536,23266,5.9999999999999995e-05,0.0,-2e-05,1e-05,-9e-05,2.9999999999999997e-05,0.0002,0.00022,6
22537,23267,5.9999999999999995e-05,0.0,-2e-05,1e-05,-9e-05,2.9999999999999997e-05,0.0002,0.00022,6
22538,23268,5.9999999999999995e-05,0.0,-2e-05,1e-05,-9e-05,2.9999999999999997e-05,0.0002,0.00022,6
22539,23269,5.9999999999999995e-05,0.0,-2e-05,1e-05,-9e-05,2.9999999999999997e-05,0.0002,0.00022,6
22540,23270,5.9999999999999995e-05,0.0,-2e-05,1e-05,-9e-05,2.9999999999999997e-05,0.0002,0.00022,6
22541,23271,5.9999999999999995e-05,0.0,-2e-05,1e-05,-9e-05,2.9999999999999997e-05,0.0002,0.00022,6
22542,23272,5.9999999999999995e-05,0.0,-2e-05,1e-05,-9e-05,2.9999999999999997e-05,0.0002,0.00022,6
22543,23273,5.9999999999999995e-05,0.0,-2e-05,1e-05,-9e-05,2.9999999999999997e-05,0.0002,0.00022,6
22544,23274,5.9999999999999995e-05,0.0,-2e-05,1e-05,-9e-05,2.9999999999999997e-05,0.0002,0.00022,6
22545,23275,5.9999999999999995e-05,0.0,-2e-05,1e-05,-9e-05,2.9999999999999997e-05,0.0002,0.00022,6
22546,23276,5.9999999999999995e-05,0.0,-2e-05,1e-05,-9e-05,2.9999999999999997e-05,0.0002,0.00022,6
22547,23277,5.9999999999999995e-05,0.0,-2e-05,1e-05,-9e-05,2.9999999999999997e-05,0.0002,0.00022,6
22548,23278,5.9999999999999995e-05,0.0,-2e-05,1e-05,-9e-05,2.9999999999999997e-05,0.0002,0.00022,6
22549,23279,5.9999999999999995e-05,0.0,-2e-05,1e-05,-9e-05,2.9999999999999997e-05,0.0002,0.00022,6
22550,23280,5.9999999999999995e-05,0.0,-2e-05,1e-05,-9e-05,2.9999999999999997e-05,0.0002,0.00022,6
22551,23281,5.9999999999999995e-05,0.0,-2e-05,1e-05,-9e-05,2.9999999999999997e-05,0.0002,0.00022,6
22552,23282,-9e-05,-4e-05,-2.9999999999999997e-05,-8e-05,0.00018999999999999998,-0.0001,0.00036,2.9999999999999997e-05,6
22553,23283,-0.0001,-5e-05,2e-05,5.9999999999999995e-05,-4e-05,0.00013000000000000002,-5e-05,2e-05,6
22554,23284,2.9999999999999997e-05,0.0,-2e-05,5e-05,0.00025,2e-05,0.00011999999999999999,-5.9999999999999995e-05,6
22555,23285,2.9999999999999997e-05,0.0,-2e-05,5e-05,0.00025,2e-05,0.00011999999999999999,-5.9999999999999995e-05,6
22556,23286,2.9999999999999997e-05,0.0,-2e-05,5e-05,0.00025,2e-05,0.00011999999999999999,-5.9999999999999995e-05,6
22557,23288,2.9999999999999997e-05,0.0,-2e-05,5e-05,0.00025,2e-05,0.00011999999999999999,-5.9999999999999995e-05,6
22558,23289,2.9999999999999997e-05,0.0,-2e-05,5e-05,0.00025,2e-05,0.00011999999999999999,-5.9999999999999995e-05,6
22559,23290,2.9999999999999997e-05,0.0,-2e-05,5e-05,0.00025,2e-05,0.00011999999999999999,-5.9999999999999995e-05,6
22560,23291,2.9999999999999997e-05,0.0,-2e-05,5e-05,0.00025,2e-05,0.00011999999999999999,-5.9999999999999995e-05,6
22561,23292,2.9999999999999997e-05,0.0,-2e-05,5e-05,0.00025,2e-05,0.00011999999999999999,-5.9999999999999995e-05,6
22562,23293,2.9999999999999997e-05,0.0,-2e-05,5e-05,0.00025,2e-05,0.00011999999999999999,-5.9999999999999995e-05,6
22563,23294,2.9999999999999997e-05,0.0,-2e-05,5e-05,0.00025,2e-05,0.00011999999999999999,-5.9999999999999995e-05,6
22564,23295,2.9999999999999997e-05,0.0,-2e-05,5e-05,0.00025,2e-05,0.00011999999999999999,-5.9999999999999995e-05,6
22565,23296,2.9999999999999997e-05,0.0,-2e-05,5e-05,0.00025,2e-05,0.00011999999999999999,-5.9999999999999995e-05,6
22566,23297,0.0,0.0,2.9999999999999997e-05,0.00011999999999999999,0.00059,0.00015,2e-05,-9e-05,6
22567,23298,0.0,0.0,2.9999999999999997e-05,0.00011999999999999999,0.00059,0.00015,2e-05,-9e-05,6
22568,23299,0.0,0.0,2.9999999999999997e-05,0.00011999999999999999,0.00059,0.00015,2e-05,-9e-05,6
22569,23300,0.0,0.0,2.9999999999999997e-05,0.00011999999999999999,0.00059,0.00015,2e-05,-9e-05,6
22570,23301,0.0,0.0,2.9999999999999997e-05,0.00011999999999999999,0.00059,0.00015,2e-05,-9e-05,6
22571,23302,0.0,0.0,2.9999999999999997e-05,0.00011999999999999999,0.00059,0.00015,2e-05,-9e-05,6
22572,23303,0.0,0.0,2.9999999999999997e-05,0.00011999999999999999,0.00059,0.00015,2e-05,-9e-05,6
22573,23304,-9e-05,-2.9999999999999997e-05,2e-05,-1e-05,0.00016,-1e-05,-1e-05,-5.9999999999999995e-05,6
22574,23305,-9e-05,-2.9999999999999997e-05,2e-05,-1e-05,0.00016,-1e-05,-1e-05,-5.9999999999999995e-05,6
22575,23306,-9e-05,-2.9999999999999997e-05,2e-05,-1e-05,0.00016,-1e-05,-1e-05,-5.9999999999999995e-05,6
22576,23307,-9e-05,-2.9999999999999997e-05,2e-05,-1e-05,0.00016,-1e-05,-1e-05,-5.9999999999999995e-05,6
22577,23308,-9e-05,-2.9999999999999997e-05,2e-05,-1e-05,0.00016,-1e-05,-1e-05,-5.9999999999999995e-05,6
22578,23309,-9e-05,-2.9999999999999997e-05,2e-05,-1e-05,0.00016,-1e-05,-1e-05,-5.9999999999999995e-05,6
22579,23310,-9e-05,-2.9999999999999997e-05,2e-05,-1e-05,0.00016,-1e-05,-1e-05,-5.9999999999999995e-05,6
22580,23311,-9e-05,-2.9999999999999997e-05,2e-05,-1e-05,0.00016,-1e-05,-1e-05,-5.9999999999999995e-05,6
22581,23312,-9e-05,-2.9999999999999997e-05,2e-05,-1e-05,0.00016,-1e-05,-1e-05,-5.9999999999999995e-05,6
22582,23313,-9e-05,-2.9999999999999997e-05,2e-05,-1e-05,0.00016,-1e-05,-1e-05,-5.9999999999999995e-05,6
22583,23314,-9e-05,-2.9999999999999997e-05,2e-05,-1e-05,0.00016,-1e-05,-1e-05,-5.9999999999999995e-05,6
22584,23315,-9e-05,-2.9999999999999997e-05,2e-05,-1e-05,0.00016,-1e-05,-1e-05,-5.9999999999999995e-05,6
22585,23316,-9e-05,-2.9999999999999997e-05,2e-05,-1e-05,0.00016,-1e-05,-1e-05,-5.9999999999999995e-05,6
22586,23317,-9e-05,-2.9999999999999997e-05,2e-05,-1e-05,0.00016,-1e-05,-1e-05,-5.9999999999999995e-05,6
22587,23318,-9e-05,-2.9999999999999997e-05,2e-05,-1e-05,0.00016,-1e-05,-1e-05,-5.9999999999999995e-05,6
22588,23319,-9e-05,-2.9999999999999997e-05,2e-05,-1e-05,0.00016,-1e-05,-1e-05,-5.9999999999999995e-05,6
22589,23320,-0.00018,1e-05,0.0,-2e-05,-2e-05,-0.0001,-0.00033,-0.0002,6
22590,23321,-0.00018,1e-05,0.0,-2e-05,-2e-05,-0.0001,-0.00033,-0.0002,6
22591,23322,4e-05,-2.9999999999999997e-05,-5.9999999999999995e-05,-8e-05,-0.00021,-0.00018,-9e-05,4e-05,6
22592,23323,4e-05,-2.9999999999999997e-05,-5.9999999999999995e-05,-8e-05,-0.00021,-0.00018,-9e-05,4e-05,6
22593,23324,4e-05,-2.9999999999999997e-05,-5.9999999999999995e-05,-8e-05,-0.00021,-0.00018,-9e-05,4e-05,6
22594,23325,4e-05,-2.9999999999999997e-05,-5.9999999999999995e-05,-8e-05,-0.00021,-0.00018,-9e-05,4e-05,6
22595,23326,4e-05,-2.9999999999999997e-05,-5.9999999999999995e-05,-8e-05,-0.00021,-0.00018,-9e-05,4e-05,6
22596,23327,4e-05,-2.9999999999999997e-05,-5.9999999999999995e-05,-8e-05,-0.00021,-0.00018,-9e-05,4e-05,6
22597,23328,4e-05,-2.9999999999999997e-05,-5.9999999999999995e-05,-8e-05,-0.00021,-0.00018,-9e-05,4e-05,6
22598,23329,4e-05,-2.9999999999999997e-05,-5.9999999999999995e-05,-8e-05,-0.00021,-0.00018,-9e-05,4e-05,6
22599,23330,4e-05,-2.9999999999999997e-05,-5.9999999999999995e-05,-8e-05,-0.00021,-0.00018,-9e-05,4e-05,6
22600,23331,4e-05,-2.9999999999999997e-05,-5.9999999999999995e-05,-8e-05,-0.00021,-0.00018,-9e-05,4e-05,6
22601,23332,4e-05,-2.9999999999999997e-05,-5.9999999999999995e-05,-8e-05,-0.00021,-0.00018,-9e-05,4e-05,6
22602,23333,4e-05,-2.9999999999999997e-05,-5.9999999999999995e-05,-8e-05,-0.00021,-0.00018,-9e-05,4e-05,6
22603,23334,4e-05,-2.9999999999999997e-05,-5.9999999999999995e-05,-8e-05,-0.00021,-0.00018,-9e-05,4e-05,6
22604,23335,4e-05,-2.9999999999999997e-05,-5.9999999999999995e-05,-8e-05,-0.00021,-0.00018,-9e-05,4e-05,6
22605,23336,4e-05,-2.9999999999999997e-05,-5.9999999999999995e-05,-8e-05,-0.00021,-0.00018,-9e-05,4e-05,6
22606,23338,4e-05,-2.9999999999999997e-05,-5.9999999999999995e-05,-8e-05,-0.00021,-0.00018,-9e-05,4e-05,6
22607,23339,4e-05,-2.9999999999999997e-05,-5.9999999999999995e-05,-8e-05,-0.00021,-0.00018,-9e-05,4e-05,6
22608,23340,4e-05,-2.9999999999999997e-05,-5.9999999999999995e-05,-8e-05,-0.00021,-0.00018,-9e-05,4e-05,6
22609,23341,4e-05,-2.9999999999999997e-05,-5.9999999999999995e-05,-8e-05,-0.00021,-0.00018,-9e-05,4e-05,6
22610,23342,1e-05,-1e-05,-1e-05,-0.00013000000000000002,-0.00027,9e-05,-1e-05,-4e-05,6
22611,23343,2e-05,0.0,1e-05,0.00022999999999999998,0.00011999999999999999,-5.9999999999999995e-05,0.00049,-7e-05,6
22612,23344,-7e-05,-0.0001,-0.00011999999999999999,-0.00025,-0.0005200000000000001,-0.00036,-2e-05,4e-05,6
22613,23345,-7e-05,-0.0001,-0.00011999999999999999,-0.00025,-0.0005200000000000001,-0.00036,-2e-05,4e-05,6
22614,23346,-7e-05,-0.0001,-0.00011999999999999999,-0.00025,-0.0005200000000000001,-0.00036,-2e-05,4e-05,6
22615,23347,-7e-05,-0.0001,-0.00011999999999999999,-0.00025,-0.0005200000000000001,-0.00036,-2e-05,4e-05,6
22616,23348,-7e-05,-0.0001,-0.00011999999999999999,-0.00025,-0.0005200000000000001,-0.00036,-2e-05,4e-05,6
22617,23349,-7e-05,-0.0001,-0.00011999999999999999,-0.00025,-0.0005200000000000001,-0.00036,-2e-05,4e-05,6
22618,23350,-7e-05,-0.0001,-0.00011999999999999999,-0.00025,-0.0005200000000000001,-0.00036,-2e-05,4e-05,6
22619,23351,-7e-05,-0.0001,-0.00011999999999999999,-0.00025,-0.0005200000000000001,-0.00036,-2e-05,4e-05,6
22620,23352,-7e-05,-0.0001,-0.00011999999999999999,-0.00025,-0.0005200000000000001,-0.00036,-2e-05,4e-05,6
22621,23353,-7e-05,-0.0001,-0.00011999999999999999,-0.00025,-0.0005200000000000001,-0.00036,-2e-05,4e-05,6
22622,23354,-7e-05,-0.0001,-0.00011999999999999999,-0.00025,-0.0005200000000000001,-0.00036,-2e-05,4e-05,6
22623,23355,-7e-05,-0.0001,-0.00011999999999999999,-0.00025,-0.0005200000000000001,-0.00036,-2e-05,4e-05,6
22624,23356,-0.00013000000000000002,-0.00013000000000000002,-8e-05,-0.0001,-5e-05,-0.00014,-5.9999999999999995e-05,-0.00022,6
22625,23357,-0.00013000000000000002,-0.00013000000000000002,-8e-05,-0.0001,-5e-05,-0.00014,-5.9999999999999995e-05,-0.00022,6
22626,23358,-0.00013000000000000002,-0.00013000000000000002,-8e-05,-0.0001,-5e-05,-0.00014,-5.9999999999999995e-05,-0.00022,6
22627,23359,-0.00013000000000000002,-0.00013000000000000002,-8e-05,-0.0001,-5e-05,-0.00014,-5.9999999999999995e-05,-0.00022,6
22628,23360,-0.00013000000000000002,-0.00013000000000000002,-8e-05,-0.0001,-5e-05,-0.00014,-5.9999999999999995e-05,-0.00022,6
22629,23361,-0.00013000000000000002,-0.00013000000000000002,-8e-05,-0.0001,-5e-05,-0.00014,-5.9999999999999995e-05,-0.00022,6
22630,23362,-0.00013000000000000002,-0.00013000000000000002,-8e-05,-0.0001,-5e-05,-0.00014,-5.9999999999999995e-05,-0.00022,6
22631,23363,-0.00013000000000000002,-0.00013000000000000002,-8e-05,-0.0001,-5e-05,-0.00014,-5.9999999999999995e-05,-0.00022,6
22632,23364,-0.00013000000000000002,-0.00013000000000000002,-8e-05,-0.0001,-5e-05,-0.00014,-5.9999999999999995e-05,-0.00022,6
22633,23365,-1e-05,5.9999999999999995e-05,7e-05,4e-05,0.0,0.0,0.0001,0.00016999999999999999,6
22634,23366,-1e-05,5.9999999999999995e-05,7e-05,4e-05,0.0,0.0,0.0001,0.00016999999999999999,6
22635,23367,-1e-05,5.9999999999999995e-05,7e-05,4e-05,0.0,0.0,0.0001,0.00016999999999999999,6
22636,23368,-1e-05,5.9999999999999995e-05,7e-05,4e-05,0.0,0.0,0.0001,0.00016999999999999999,6
22637,23369,-1e-05,5.9999999999999995e-05,7e-05,4e-05,0.0,0.0,0.0001,0.00016999999999999999,6
22638,23370,-1e-05,5.9999999999999995e-05,7e-05,4e-05,0.0,0.0,0.0001,0.00016999999999999999,6
22639,23371,-1e-05,5.9999999999999995e-05,7e-05,4e-05,0.0,0.0,0.0001,0.00016999999999999999,6
22640,23372,-1e-05,5.9999999999999995e-05,7e-05,4e-05,0.0,0.0,0.0001,0.00016999999999999999,6
22641,23373,-1e-05,5.9999999999999995e-05,7e-05,4e-05,0.0,0.0,0.0001,0.00016999999999999999,6
22642,23374,-1e-05,5.9999999999999995e-05,7e-05,4e-05,0.0,0.0,0.0001,0.00016999999999999999,6
22643,23375,-1e-05,5.9999999999999995e-05,7e-05,4e-05,0.0,0.0,0.0001,0.00016999999999999999,6
22644,23376,-1e-05,5.9999999999999995e-05,7e-05,4e-05,0.0,0.0,0.0001,0.00016999999999999999,6
22645,23377,-1e-05,5.9999999999999995e-05,7e-05,4e-05,0.0,0.0,0.0001,0.00016999999999999999,6
22646,23378,-1e-05,5.9999999999999995e-05,7e-05,4e-05,0.0,0.0,0.0001,0.00016999999999999999,6
22647,23379,-1e-05,5.9999999999999995e-05,7e-05,4e-05,0.0,0.0,0.0001,0.00016999999999999999,6
22648,23380,2e-05,-2e-05,-5.9999999999999995e-05,-0.00016999999999999999,-0.00056,-0.00047999999999999996,-0.00029,-1e-05,6
22649,23381,2e-05,-2e-05,-5.9999999999999995e-05,-0.00016999999999999999,-0.00056,-0.00047999999999999996,-0.00029,-1e-05,6
22650,23382,-0.00027,4e-05,7e-05,5.9999999999999995e-05,9e-05,0.00018,0.00011999999999999999,0.00011,6
22651,23383,-0.00027,4e-05,7e-05,5.9999999999999995e-05,9e-05,0.00018,0.00011999999999999999,0.00011,6
22652,23384,-0.00027,4e-05,7e-05,5.9999999999999995e-05,9e-05,0.00018,0.00011999999999999999,0.00011,6
22653,23385,-0.00027,4e-05,7e-05,5.9999999999999995e-05,9e-05,0.00018,0.00011999999999999999,0.00011,6
22654,23386,-0.00027,4e-05,7e-05,5.9999999999999995e-05,9e-05,0.00018,0.00011999999999999999,0.00011,6
22655,23388,-0.00027,4e-05,7e-05,5.9999999999999995e-05,9e-05,0.00018,0.00011999999999999999,0.00011,6
22656,23389,-0.00027,4e-05,7e-05,5.9999999999999995e-05,9e-05,0.00018,0.00011999999999999999,0.00011,6
22657,23390,-0.00027,4e-05,7e-05,5.9999999999999995e-05,9e-05,0.00018,0.00011999999999999999,0.00011,6
22658,23391,-0.00027,4e-05,7e-05,5.9999999999999995e-05,9e-05,0.00018,0.00011999999999999999,0.00011,6
22659,23392,-0.00027,4e-05,7e-05,5.9999999999999995e-05,9e-05,0.00018,0.00011999999999999999,0.00011,6
22660,23393,-0.00027,4e-05,7e-05,5.9999999999999995e-05,9e-05,0.00018,0.00011999999999999999,0.00011,6
22661,23394,-0.00027,4e-05,7e-05,5.9999999999999995e-05,9e-05,0.00018,0.00011999999999999999,0.00011,6
22662,23395,-0.00027,4e-05,7e-05,5.9999999999999995e-05,9e-05,0.00018,0.00011999999999999999,0.00011,6
22663,23396,-0.00027,4e-05,7e-05,5.9999999999999995e-05,9e-05,0.00018,0.00011999999999999999,0.00011,6
22664,23397,-0.00027,4e-05,7e-05,5.9999999999999995e-05,9e-05,0.00018,0.00011999999999999999,0.00011,6
22665,23398,-0.00027,4e-05,7e-05,5.9999999999999995e-05,9e-05,0.00018,0.00011999999999999999,0.00011,6
22666,23399,-0.00027,4e-05,7e-05,5.9999999999999995e-05,9e-05,0.00018,0.00011999999999999999,0.00011,6
22667,23400,-0.00027,4e-05,7e-05,5.9999999999999995e-05,9e-05,0.00018,0.00011999999999999999,0.00011,6
22668,23401,-0.00027,4e-05,7e-05,5.9999999999999995e-05,9e-05,0.00018,0.00011999999999999999,0.00011,6
22669,23402,1e-05,-5e-05,-5.9999999999999995e-05,-1e-05,0.00018999999999999998,0.0005200000000000001,0.0,-1e-05,6
22670,23403,1e-05,-5e-05,-5.9999999999999995e-05,-1e-05,0.00018999999999999998,0.0005200000000000001,0.0,-1e-05,6
22671,23404,1e-05,-5e-05,-5.9999999999999995e-05,-1e-05,0.00018999999999999998,0.0005200000000000001,0.0,-1e-05,6
22672,23405,1e-05,-5e-05,-5.9999999999999995e-05,-1e-05,0.00018999999999999998,0.0005200000000000001,0.0,-1e-05,6
22673,23406,1e-05,-5e-05,-5.9999999999999995e-05,-1e-05,0.00018999999999999998,0.0005200000000000001,0.0,-1e-05,6
22674,23407,1e-05,-5e-05,-5.9999999999999995e-05,-1e-05,0.00018999999999999998,0.0005200000000000001,0.0,-1e-05,6
22675,23408,1e-05,-5e-05,-5.9999999999999995e-05,-1e-05,0.00018999999999999998,0.0005200000000000001,0.0,-1e-05,6
22676,23409,0.00011999999999999999,5.9999999999999995e-05,9e-05,0.00022,0.00022999999999999998,0.00032,0.00031,7e-05,6
22677,23410,-5e-05,-5e-05,-5.9999999999999995e-05,-1e-05,2e-05,5.9999999999999995e-05,-5e-05,-0.00015,6
22678,23411,-5e-05,-5e-05,-5.9999999999999995e-05,-1e-05,2e-05,5.9999999999999995e-05,-5e-05,-0.00015,6
22679,23412,-5e-05,-5e-05,-5.9999999999999995e-05,-1e-05,2e-05,5.9999999999999995e-05,-5e-05,-0.00015,6
22680,23413,-5e-05,-5e-05,-5.9999999999999995e-05,-1e-05,2e-05,5.9999999999999995e-05,-5e-05,-0.00015,6
22681,23414,-5e-05,-5e-05,-5.9999999999999995e-05,-1e-05,2e-05,5.9999999999999995e-05,-5e-05,-0.00015,6
22682,23415,-5e-05,-5e-05,-5.9999999999999995e-05,-1e-05,2e-05,5.9999999999999995e-05,-5e-05,-0.00015,6
22683,23416,2.9999999999999997e-05,8e-05,0.00011999999999999999,0.00021,0.00063,0.00047999999999999996,-1e-05,4e-05,6
22684,23417,2.9999999999999997e-05,8e-05,0.00011999999999999999,0.00021,0.00063,0.00047999999999999996,-1e-05,4e-05,6
22685,23418,2.9999999999999997e-05,8e-05,0.00011999999999999999,0.00021,0.00063,0.00047999999999999996,-1e-05,4e-05,6
22686,23419,2.9999999999999997e-05,8e-05,0.00011999999999999999,0.00021,0.00063,0.00047999999999999996,-1e-05,4e-05,6
22687,23420,2.9999999999999997e-05,8e-05,0.00011999999999999999,0.00021,0.00063,0.00047999999999999996,-1e-05,4e-05,6
22688,23421,2.9999999999999997e-05,8e-05,0.00011999999999999999,0.00021,0.00063,0.00047999999999999996,-1e-05,4e-05,6
22689,23422,2.9999999999999997e-05,8e-05,0.00011999999999999999,0.00021,0.00063,0.00047999999999999996,-1e-05,4e-05,6
22690,23423,2.9999999999999997e-05,8e-05,0.00011999999999999999,0.00021,0.00063,0.00047999999999999996,-1e-05,4e-05,6
22691,23424,2.9999999999999997e-05,8e-05,0.00011999999999999999,0.00021,0.00063,0.00047999999999999996,-1e-05,4e-05,6
22692,23425,7e-05,2.9999999999999997e-05,-2.9999999999999997e-05,-7e-05,-0.00013000000000000002,-1e-05,-0.00035,0.0,6
22693,23426,7e-05,2.9999999999999997e-05,-2.9999999999999997e-05,-7e-05,-0.00013000000000000002,-1e-05,-0.00035,0.0,6
22694,23427,7e-05,2.9999999999999997e-05,-2.9999999999999997e-05,-7e-05,-0.00013000000000000002,-1e-05,-0.00035,0.0,6
22695,23428,7e-05,2.9999999999999997e-05,-2.9999999999999997e-05,-7e-05,-0.00013000000000000002,-1e-05,-0.00035,0.0,6
22696,23429,7e-05,2.9999999999999997e-05,-2.9999999999999997e-05,-7e-05,-0.00013000000000000002,-1e-05,-0.00035,0.0,6
22697,23430,7e-05,2.9999999999999997e-05,-2.9999999999999997e-05,-7e-05,-0.00013000000000000002,-1e-05,-0.00035,0.0,6
22698,23431,7e-05,2.9999999999999997e-05,-2.9999999999999997e-05,-7e-05,-0.00013000000000000002,-1e-05,-0.00035,0.0,6
22699,23432,7e-05,2.9999999999999997e-05,-2.9999999999999997e-05,-7e-05,-0.00013000000000000002,-1e-05,-0.00035,0.0,6
22700,23433,7e-05,2.9999999999999997e-05,-2.9999999999999997e-05,-7e-05,-0.00013000000000000002,-1e-05,-0.00035,0.0,6
22701,23434,7e-05,2.9999999999999997e-05,-2.9999999999999997e-05,-7e-05,-0.00013000000000000002,-1e-05,-0.00035,0.0,6
22702,23435,7e-05,2.9999999999999997e-05,-2.9999999999999997e-05,-7e-05,-0.00013000000000000002,-1e-05,-0.00035,0.0,6
22703,23436,7e-05,2.9999999999999997e-05,-2.9999999999999997e-05,-7e-05,-0.00013000000000000002,-1e-05,-0.00035,0.0,6
22704,23438,7e-05,2.9999999999999997e-05,-2.9999999999999997e-05,-7e-05,-0.00013000000000000002,-1e-05,-0.00035,0.0,6
22705,23439,7e-05,2.9999999999999997e-05,-2.9999999999999997e-05,-7e-05,-0.00013000000000000002,-1e-05,-0.00035,0.0,6
22706,23440,7e-05,2.9999999999999997e-05,-2.9999999999999997e-05,-7e-05,-0.00013000000000000002,-1e-05,-0.00035,0.0,6
22707,23441,7e-05,2.9999999999999997e-05,-2.9999999999999997e-05,-7e-05,-0.00013000000000000002,-1e-05,-0.00035,0.0,6
22708,23442,7e-05,2.9999999999999997e-05,-2.9999999999999997e-05,-7e-05,-0.00013000000000000002,-1e-05,-0.00035,0.0,6
22709,23443,7e-05,2.9999999999999997e-05,-2.9999999999999997e-05,-7e-05,-0.00013000000000000002,-1e-05,-0.00035,0.0,6
22710,23444,7e-05,2.9999999999999997e-05,-2.9999999999999997e-05,-7e-05,-0.00013000000000000002,-1e-05,-0.00035,0.0,6
22711,23445,7e-05,2.9999999999999997e-05,-2.9999999999999997e-05,-7e-05,-0.00013000000000000002,-1e-05,-0.00035,0.0,6
22712,23446,7e-05,2.9999999999999997e-05,-2.9999999999999997e-05,-7e-05,-0.00013000000000000002,-1e-05,-0.00035,0.0,6
22713,23447,-4e-05,-5.9999999999999995e-05,-5e-05,-0.00018,-0.00014,-0.0001,-5.9999999999999995e-05,-2.9999999999999997e-05,6
22714,23448,-4e-05,-5.9999999999999995e-05,-5e-05,-0.00018,-0.00014,-0.0001,-5.9999999999999995e-05,-2.9999999999999997e-05,6
22715,23449,0.00015,2.9999999999999997e-05,8e-05,7e-05,-4e-05,-8e-05,-0.00022999999999999998,5.9999999999999995e-05,6
22716,23450,0.00015,2.9999999999999997e-05,8e-05,7e-05,-4e-05,-8e-05,-0.00022999999999999998,5.9999999999999995e-05,6
22717,23451,0.00015,2.9999999999999997e-05,8e-05,7e-05,-4e-05,-8e-05,-0.00022999999999999998,5.9999999999999995e-05,6
22718,23452,0.00015,2.9999999999999997e-05,8e-05,7e-05,-4e-05,-8e-05,-0.00022999999999999998,5.9999999999999995e-05,6
22719,23453,0.00015,2.9999999999999997e-05,8e-05,7e-05,-4e-05,-8e-05,-0.00022999999999999998,5.9999999999999995e-05,6
22720,23454,0.00015,2.9999999999999997e-05,8e-05,7e-05,-4e-05,-8e-05,-0.00022999999999999998,5.9999999999999995e-05,6
22721,23455,0.00015,2.9999999999999997e-05,8e-05,7e-05,-4e-05,-8e-05,-0.00022999999999999998,5.9999999999999995e-05,6
22722,23456,0.00015,2.9999999999999997e-05,8e-05,7e-05,-4e-05,-8e-05,-0.00022999999999999998,5.9999999999999995e-05,6
22723,23457,0.00015,2.9999999999999997e-05,8e-05,7e-05,-4e-05,-8e-05,-0.00022999999999999998,5.9999999999999995e-05,6
22724,23458,0.00015,2.9999999999999997e-05,8e-05,7e-05,-4e-05,-8e-05,-0.00022999999999999998,5.9999999999999995e-05,6
22725,23459,0.00015,2.9999999999999997e-05,8e-05,7e-05,-4e-05,-8e-05,-0.00022999999999999998,5.9999999999999995e-05,6
22726,23460,0.00015,2.9999999999999997e-05,8e-05,7e-05,-4e-05,-8e-05,-0.00022999999999999998,5.9999999999999995e-05,6
22727,23461,0.00015,2.9999999999999997e-05,8e-05,7e-05,-4e-05,-8e-05,-0.00022999999999999998,5.9999999999999995e-05,6
22728,23462,0.00015,2.9999999999999997e-05,8e-05,7e-05,-4e-05,-8e-05,-0.00022999999999999998,5.9999999999999995e-05,6
22729,23463,0.00021,0.0,0.0,2.9999999999999997e-05,0.0002,0.00037,-0.00011,0.00016999999999999999,6
22730,23464,-1e-05,-2e-05,-1e-05,-9e-05,-0.00018999999999999998,0.0,0.00013000000000000002,8e-05,6
22731,23465,-1e-05,-2e-05,-1e-05,-9e-05,-0.00018999999999999998,0.0,0.00013000000000000002,8e-05,6
22732,23466,-1e-05,-2e-05,-1e-05,-9e-05,-0.00018999999999999998,0.0,0.00013000000000000002,8e-05,6
22733,23467,-1e-05,-2e-05,-1e-05,-9e-05,-0.00018999999999999998,0.0,0.00013000000000000002,8e-05,6
22734,23468,-1e-05,-2e-05,-1e-05,-9e-05,-0.00018999999999999998,0.0,0.00013000000000000002,8e-05,6
22735,23469,-1e-05,-2e-05,-1e-05,-9e-05,-0.00018999999999999998,0.0,0.00013000000000000002,8e-05,6
22736,23470,-1e-05,-2e-05,-1e-05,-9e-05,-0.00018999999999999998,0.0,0.00013000000000000002,8e-05,6
22737,23471,-1e-05,-2e-05,-1e-05,-9e-05,-0.00018999999999999998,0.0,0.00013000000000000002,8e-05,6
22738,23472,-1e-05,-2e-05,-1e-05,-9e-05,-0.00018999999999999998,0.0,0.00013000000000000002,8e-05,6
22739,23473,-1e-05,-2e-05,-1e-05,-9e-05,-0.00018999999999999998,0.0,0.00013000000000000002,8e-05,6
22740,23474,-1e-05,-2e-05,-1e-05,-9e-05,-0.00018999999999999998,0.0,0.00013000000000000002,8e-05,6
22741,23475,-1e-05,-2e-05,-1e-05,-9e-05,-0.00018999999999999998,0.0,0.00013000000000000002,8e-05,6
22742,23476,-1e-05,-2e-05,-1e-05,-9e-05,-0.00018999999999999998,0.0,0.00013000000000000002,8e-05,6
22743,23477,-1e-05,-2e-05,-1e-05,-9e-05,-0.00018999999999999998,0.0,0.00013000000000000002,8e-05,6
22744,23478,-1e-05,-2e-05,-1e-05,-9e-05,-0.00018999999999999998,0.0,0.00013000000000000002,8e-05,6
22745,23479,-1e-05,-2e-05,-1e-05,-9e-05,-0.00018999999999999998,0.0,0.00013000000000000002,8e-05,6
22746,23480,-1e-05,-2e-05,-1e-05,-9e-05,-0.00018999999999999998,0.0,0.00013000000000000002,8e-05,6
22747,23481,-1e-05,-2e-05,-1e-05,-9e-05,-0.00018999999999999998,0.0,0.00013000000000000002,8e-05,6
22748,23482,-1e-05,-2e-05,-1e-05,-9e-05,-0.00018999999999999998,0.0,0.00013000000000000002,8e-05,6
22749,23483,-1e-05,-2e-05,-1e-05,-9e-05,-0.00018999999999999998,0.0,0.00013000000000000002,8e-05,6
22750,23484,-1e-05,-2e-05,-1e-05,-9e-05,-0.00018999999999999998,0.0,0.00013000000000000002,8e-05,6
22751,23485,1e-05,2.9999999999999997e-05,-1e-05,0.00011999999999999999,0.0006900000000000001,0.00025,0.00011999999999999999,0.00018999999999999998,6
22752,23486,1e-05,2.9999999999999997e-05,-1e-05,0.00011999999999999999,0.0006900000000000001,0.00025,0.00011999999999999999,0.00018999999999999998,6
22753,23488,4e-05,-2e-05,-2e-05,2.9999999999999997e-05,-5.9999999999999995e-05,2e-05,0.00025,0.0,6
22754,23489,4e-05,-2e-05,-2e-05,2.9999999999999997e-05,-5.9999999999999995e-05,2e-05,0.00025,0.0,6
22755,23490,4e-05,-2e-05,-2e-05,2.9999999999999997e-05,-5.9999999999999995e-05,2e-05,0.00025,0.0,6
22756,23491,4e-05,-2e-05,-2e-05,2.9999999999999997e-05,-5.9999999999999995e-05,2e-05,0.00025,0.0,6
22757,23492,4e-05,-2e-05,-2e-05,2.9999999999999997e-05,-5.9999999999999995e-05,2e-05,0.00025,0.0,6
22758,23493,4e-05,-2e-05,-2e-05,2.9999999999999997e-05,-5.9999999999999995e-05,2e-05,0.00025,0.0,6
22759,23494,4e-05,-2e-05,-2e-05,2.9999999999999997e-05,-5.9999999999999995e-05,2e-05,0.00025,0.0,6
22760,23495,4e-05,-2e-05,-2e-05,2.9999999999999997e-05,-5.9999999999999995e-05,2e-05,0.00025,0.0,6
22761,23496,4e-05,-2e-05,-2e-05,2.9999999999999997e-05,-5.9999999999999995e-05,2e-05,0.00025,0.0,6
22762,23497,4e-05,-2e-05,-2e-05,2.9999999999999997e-05,-5.9999999999999995e-05,2e-05,0.00025,0.0,6
22763,23498,4e-05,-2e-05,-2e-05,2.9999999999999997e-05,-5.9999999999999995e-05,2e-05,0.00025,0.0,6
22764,23499,4e-05,-2e-05,-2e-05,2.9999999999999997e-05,-5.9999999999999995e-05,2e-05,0.00025,0.0,6
22765,23500,-1e-05,-1e-05,-5.9999999999999995e-05,-5e-05,-0.00016999999999999999,-1e-05,0.00015,4e-05,6
22766,23501,4e-05,-2.9999999999999997e-05,-0.00011,-0.00021,-0.00033,-0.00032,1e-05,5.9999999999999995e-05,6
22767,23502,0.0,5e-05,7e-05,0.00015,0.00037999999999999997,0.00028,0.00014,0.0,6
22768,23503,0.0,5e-05,7e-05,0.00015,0.00037999999999999997,0.00028,0.00014,0.0,6
22769,23504,0.0,5e-05,7e-05,0.00015,0.00037999999999999997,0.00028,0.00014,0.0,6
22770,23505,0.0,5e-05,7e-05,0.00015,0.00037999999999999997,0.00028,0.00014,0.0,6
22771,23506,0.0,5e-05,7e-05,0.00015,0.00037999999999999997,0.00028,0.00014,0.0,6
22772,23507,0.0,5e-05,7e-05,0.00015,0.00037999999999999997,0.00028,0.00014,0.0,6
22773,23508,0.0,5e-05,7e-05,0.00015,0.00037999999999999997,0.00028,0.00014,0.0,6
22774,23509,0.0,5e-05,7e-05,0.00015,0.00037999999999999997,0.00028,0.00014,0.0,6
22775,23510,0.0,5e-05,7e-05,0.00015,0.00037999999999999997,0.00028,0.00014,0.0,6
22776,23511,0.0,5e-05,7e-05,0.00015,0.00037999999999999997,0.00028,0.00014,0.0,6
22777,23512,0.0,5e-05,7e-05,0.00015,0.00037999999999999997,0.00028,0.00014,0.0,6
22778,23513,0.0,5e-05,7e-05,0.00015,0.00037999999999999997,0.00028,0.00014,0.0,6
22779,23514,0.0,5e-05,7e-05,0.00015,0.00037999999999999997,0.00028,0.00014,0.0,6
22780,23515,0.0,5e-05,7e-05,0.00015,0.00037999999999999997,0.00028,0.00014,0.0,6
22781,23516,0.0,5e-05,7e-05,0.00015,0.00037999999999999997,0.00028,0.00014,0.0,6
22782,23517,0.0,5e-05,7e-05,0.00015,0.00037999999999999997,0.00028,0.00014,0.0,6
22783,23518,0.0,5e-05,7e-05,0.00015,0.00037999999999999997,0.00028,0.00014,0.0,6
22784,23519,0.0,5e-05,7e-05,0.00015,0.00037999999999999997,0.00028,0.00014,0.0,6
22785,23520,0.0,5e-05,7e-05,0.00015,0.00037999999999999997,0.00028,0.00014,0.0,6
22786,23521,0.0,5e-05,7e-05,0.00015,0.00037999999999999997,0.00028,0.00014,0.0,6
22787,23522,-1e-05,2e-05,2.9999999999999997e-05,8e-05,2e-05,0.00014,-5e-05,-2e-05,6
22788,23523,4e-05,5.9999999999999995e-05,7e-05,0.00022999999999999998,0.00033999999999999997,0.00027,8e-05,5.9999999999999995e-05,6
22789,23524,-1e-05,-5e-05,-4e-05,-9e-05,-0.00025,-0.00022999999999999998,-2e-05,1e-05,6
22790,23525,-1e-05,-5e-05,-4e-05,-9e-05,-0.00025,-0.00022999999999999998,-2e-05,1e-05,6
22791,23526,-1e-05,-5e-05,-4e-05,-9e-05,-0.00025,-0.00022999999999999998,-2e-05,1e-05,6
22792,23527,-1e-05,-5e-05,-4e-05,-9e-05,-0.00025,-0.00022999999999999998,-2e-05,1e-05,6
22793,23528,-1e-05,-5e-05,-4e-05,-9e-05,-0.00025,-0.00022999999999999998,-2e-05,1e-05,6
22794,23529,-1e-05,-5e-05,-4e-05,-9e-05,-0.00025,-0.00022999999999999998,-2e-05,1e-05,6
22795,23530,-1e-05,-5e-05,-4e-05,-9e-05,-0.00025,-0.00022999999999999998,-2e-05,1e-05,6
22796,23531,-1e-05,-5e-05,-4e-05,-9e-05,-0.00025,-0.00022999999999999998,-2e-05,1e-05,6
22797,23532,-1e-05,-5e-05,-4e-05,-9e-05,-0.00025,-0.00022999999999999998,-2e-05,1e-05,6
22798,23533,-1e-05,-5e-05,-4e-05,-9e-05,-0.00025,-0.00022999999999999998,-2e-05,1e-05,6
22799,23534,-1e-05,-5e-05,-4e-05,-9e-05,-0.00025,-0.00022999999999999998,-2e-05,1e-05,6
22800,23535,-1e-05,-5e-05,-4e-05,-9e-05,-0.00025,-0.00022999999999999998,-2e-05,1e-05,6
22801,23536,-5e-05,-2e-05,-2e-05,1e-05,-0.00014,-0.00014,-7e-05,-2e-05,6
22802,23538,-5e-05,-2e-05,-2e-05,1e-05,-0.00014,-0.00014,-7e-05,-2e-05,6
22803,23539,-5e-05,-2e-05,-2e-05,1e-05,-0.00014,-0.00014,-7e-05,-2e-05,6
22804,23540,-5e-05,-2e-05,-2e-05,1e-05,-0.00014,-0.00014,-7e-05,-2e-05,6
22805,23541,-5e-05,-2e-05,-2e-05,1e-05,-0.00014,-0.00014,-7e-05,-2e-05,6
22806,23542,-5e-05,-2e-05,-2e-05,1e-05,-0.00014,-0.00014,-7e-05,-2e-05,6
22807,23543,-5e-05,-2e-05,-2e-05,1e-05,-0.00014,-0.00014,-7e-05,-2e-05,6
22808,23544,-5e-05,-2e-05,-2e-05,1e-05,-0.00014,-0.00014,-7e-05,-2e-05,6
22809,23545,1e-05,-2e-05,0.0,2e-05,7e-05,0.00022,5.9999999999999995e-05,2.9999999999999997e-05,6
22810,23546,1e-05,-2e-05,0.0,2e-05,7e-05,0.00022,5.9999999999999995e-05,2.9999999999999997e-05,6
22811,23547,1e-05,-2e-05,0.0,2e-05,7e-05,0.00022,5.9999999999999995e-05,2.9999999999999997e-05,6
22812,23548,1e-05,-2e-05,0.0,2e-05,7e-05,0.00022,5.9999999999999995e-05,2.9999999999999997e-05,6
22813,23549,1e-05,-2e-05,0.0,2e-05,7e-05,0.00022,5.9999999999999995e-05,2.9999999999999997e-05,6
22814,23550,1e-05,-2e-05,0.0,2e-05,7e-05,0.00022,5.9999999999999995e-05,2.9999999999999997e-05,6
22815,23551,1e-05,-2e-05,0.0,2e-05,7e-05,0.00022,5.9999999999999995e-05,2.9999999999999997e-05,6
22816,23552,1e-05,-2e-05,0.0,2e-05,7e-05,0.00022,5.9999999999999995e-05,2.9999999999999997e-05,6
22817,23553,1e-05,-2e-05,0.0,2e-05,7e-05,0.00022,5.9999999999999995e-05,2.9999999999999997e-05,6
22818,23554,1e-05,-2e-05,0.0,2e-05,7e-05,0.00022,5.9999999999999995e-05,2.9999999999999997e-05,6
22819,23555,1e-05,-2e-05,0.0,2e-05,7e-05,0.00022,5.9999999999999995e-05,2.9999999999999997e-05,6
22820,23556,1e-05,-2e-05,0.0,2e-05,7e-05,0.00022,5.9999999999999995e-05,2.9999999999999997e-05,6
22821,23557,1e-05,-2e-05,0.0,2e-05,7e-05,0.00022,5.9999999999999995e-05,2.9999999999999997e-05,6
22822,23558,1e-05,-2e-05,0.0,2e-05,7e-05,0.00022,5.9999999999999995e-05,2.9999999999999997e-05,6
22823,23559,1e-05,-2e-05,0.0,2e-05,7e-05,0.00022,5.9999999999999995e-05,2.9999999999999997e-05,6
22824,23560,-4e-05,-2e-05,0.0,-0.00011,-2.9999999999999997e-05,-0.00011,-0.00011999999999999999,-2.9999999999999997e-05,6
22825,23561,-4e-05,-2e-05,0.0,-0.00011,-2.9999999999999997e-05,-0.00011,-0.00011999999999999999,-2.9999999999999997e-05,6
22826,23562,2.9999999999999997e-05,2.9999999999999997e-05,-4e-05,0.0,-2e-05,-5e-05,7e-05,-0.00011999999999999999,6
22827,23563,2.9999999999999997e-05,2.9999999999999997e-05,-4e-05,0.0,-2e-05,-5e-05,7e-05,-0.00011999999999999999,6
22828,23564,2.9999999999999997e-05,2.9999999999999997e-05,-4e-05,0.0,-2e-05,-5e-05,7e-05,-0.00011999999999999999,6
22829,23565,2.9999999999999997e-05,2.9999999999999997e-05,-4e-05,0.0,-2e-05,-5e-05,7e-05,-0.00011999999999999999,6
22830,23566,2.9999999999999997e-05,2.9999999999999997e-05,-4e-05,0.0,-2e-05,-5e-05,7e-05,-0.00011999999999999999,6
22831,23567,2.9999999999999997e-05,2.9999999999999997e-05,-4e-05,0.0,-2e-05,-5e-05,7e-05,-0.00011999999999999999,6
22832,23568,2.9999999999999997e-05,2.9999999999999997e-05,-4e-05,0.0,-2e-05,-5e-05,7e-05,-0.00011999999999999999,6
22833,23569,2.9999999999999997e-05,2.9999999999999997e-05,-4e-05,0.0,-2e-05,-5e-05,7e-05,-0.00011999999999999999,6
22834,23570,2.9999999999999997e-05,2.9999999999999997e-05,-4e-05,0.0,-2e-05,-5e-05,7e-05,-0.00011999999999999999,6
22835,23571,2.9999999999999997e-05,2.9999999999999997e-05,-4e-05,0.0,-2e-05,-5e-05,7e-05,-0.00011999999999999999,6
22836,23572,2.9999999999999997e-05,2.9999999999999997e-05,-4e-05,0.0,-2e-05,-5e-05,7e-05,-0.00011999999999999999,6
22837,23573,2.9999999999999997e-05,2.9999999999999997e-05,-4e-05,0.0,-2e-05,-5e-05,7e-05,-0.00011999999999999999,6
22838,23574,2.9999999999999997e-05,2.9999999999999997e-05,-4e-05,0.0,-2e-05,-5e-05,7e-05,-0.00011999999999999999,6
22839,23575,2.9999999999999997e-05,2.9999999999999997e-05,-4e-05,0.0,-2e-05,-5e-05,7e-05,-0.00011999999999999999,6
22840,23576,2.9999999999999997e-05,2.9999999999999997e-05,-4e-05,0.0,-2e-05,-5e-05,7e-05,-0.00011999999999999999,6
22841,23577,2.9999999999999997e-05,2.9999999999999997e-05,-4e-05,0.0,-2e-05,-5e-05,7e-05,-0.00011999999999999999,6
22842,23578,2.9999999999999997e-05,2.9999999999999997e-05,-4e-05,0.0,-2e-05,-5e-05,7e-05,-0.00011999999999999999,6
22843,23579,2.9999999999999997e-05,2.9999999999999997e-05,-4e-05,0.0,-2e-05,-5e-05,7e-05,-0.00011999999999999999,6
22844,23580,2.9999999999999997e-05,2.9999999999999997e-05,-4e-05,0.0,-2e-05,-5e-05,7e-05,-0.00011999999999999999,6
22845,23581,2.9999999999999997e-05,2.9999999999999997e-05,-4e-05,0.0,-2e-05,-5e-05,7e-05,-0.00011999999999999999,6
22846,23582,2.9999999999999997e-05,2.9999999999999997e-05,-4e-05,0.0,-2e-05,-5e-05,7e-05,-0.00011999999999999999,6
22847,23583,5e-05,2e-05,-5e-05,5.9999999999999995e-05,0.00036,0.00036,0.00011999999999999999,0.00021,6
22848,23584,5e-05,2e-05,-5e-05,5.9999999999999995e-05,0.00036,0.00036,0.00011999999999999999,0.00021,6
22849,23585,5e-05,2e-05,-5e-05,5.9999999999999995e-05,0.00036,0.00036,0.00011999999999999999,0.00021,6
22850,23586,5e-05,2e-05,-5e-05,5.9999999999999995e-05,0.00036,0.00036,0.00011999999999999999,0.00021,6
22851,23588,5e-05,2e-05,-5e-05,5.9999999999999995e-05,0.00036,0.00036,0.00011999999999999999,0.00021,6
22852,23589,5e-05,2e-05,-5e-05,5.9999999999999995e-05,0.00036,0.00036,0.00011999999999999999,0.00021,6
22853,23590,5e-05,2e-05,-5e-05,5.9999999999999995e-05,0.00036,0.00036,0.00011999999999999999,0.00021,6
22854,23591,5e-05,2e-05,-5e-05,5.9999999999999995e-05,0.00036,0.00036,0.00011999999999999999,0.00021,6
22855,23592,5e-05,2e-05,-5e-05,5.9999999999999995e-05,0.00036,0.00036,0.00011999999999999999,0.00021,6
22856,23593,5e-05,2e-05,-5e-05,5.9999999999999995e-05,0.00036,0.00036,0.00011999999999999999,0.00021,6
22857,23594,5e-05,2e-05,-5e-05,5.9999999999999995e-05,0.00036,0.00036,0.00011999999999999999,0.00021,6
22858,23595,5e-05,2e-05,-5e-05,5.9999999999999995e-05,0.00036,0.00036,0.00011999999999999999,0.00021,6
22859,23596,5e-05,2e-05,-5e-05,5.9999999999999995e-05,0.00036,0.00036,0.00011999999999999999,0.00021,6
22860,23597,1e-05,0.0,-2.9999999999999997e-05,-4e-05,-0.00016,2e-05,-2.9999999999999997e-05,-0.0001,6
22861,23598,-0.00016,-5e-05,1e-05,-0.00015,-0.00018999999999999998,2e-05,2e-05,-0.00018999999999999998,6
22862,23599,-0.00016,-5e-05,1e-05,-0.00015,-0.00018999999999999998,2e-05,2e-05,-0.00018999999999999998,6
22863,23600,-0.00016,-5e-05,1e-05,-0.00015,-0.00018999999999999998,2e-05,2e-05,-0.00018999999999999998,6
22864,23601,-0.00016,-5e-05,1e-05,-0.00015,-0.00018999999999999998,2e-05,2e-05,-0.00018999999999999998,6
22865,23602,-0.00016,-5e-05,1e-05,-0.00015,-0.00018999999999999998,2e-05,2e-05,-0.00018999999999999998,6
22866,23603,-0.00016,-5e-05,1e-05,-0.00015,-0.00018999999999999998,2e-05,2e-05,-0.00018999999999999998,6
22867,23604,-0.00016,-5e-05,1e-05,-0.00015,-0.00018999999999999998,2e-05,2e-05,-0.00018999999999999998,6
22868,23605,-5e-05,-4e-05,-5e-05,-7e-05,-0.00014,-0.00018999999999999998,4e-05,5.9999999999999995e-05,6
22869,23606,-5e-05,-4e-05,-5e-05,-7e-05,-0.00014,-0.00018999999999999998,4e-05,5.9999999999999995e-05,6
22870,23607,-5e-05,-4e-05,-5e-05,-7e-05,-0.00014,-0.00018999999999999998,4e-05,5.9999999999999995e-05,6
22871,23608,-5e-05,-4e-05,-5e-05,-7e-05,-0.00014,-0.00018999999999999998,4e-05,5.9999999999999995e-05,6
22872,23609,-5e-05,-4e-05,-5e-05,-7e-05,-0.00014,-0.00018999999999999998,4e-05,5.9999999999999995e-05,6
22873,23610,-5e-05,-4e-05,-5e-05,-7e-05,-0.00014,-0.00018999999999999998,4e-05,5.9999999999999995e-05,6
22874,23611,-5e-05,-4e-05,-5e-05,-7e-05,-0.00014,-0.00018999999999999998,4e-05,5.9999999999999995e-05,6
22875,23612,-5e-05,-4e-05,-5e-05,-7e-05,-0.00014,-0.00018999999999999998,4e-05,5.9999999999999995e-05,6
22876,23613,-5e-05,-4e-05,-5e-05,-7e-05,-0.00014,-0.00018999999999999998,4e-05,5.9999999999999995e-05,6
22877,23614,-5e-05,-4e-05,-5e-05,-7e-05,-0.00014,-0.00018999999999999998,4e-05,5.9999999999999995e-05,6
22878,23615,-5e-05,-4e-05,-5e-05,-7e-05,-0.00014,-0.00018999999999999998,4e-05,5.9999999999999995e-05,6
22879,23616,-5e-05,-4e-05,-5e-05,-7e-05,-0.00014,-0.00018999999999999998,4e-05,5.9999999999999995e-05,6
22880,23617,-5e-05,-4e-05,-5e-05,-7e-05,-0.00014,-0.00018999999999999998,4e-05,5.9999999999999995e-05,6
22881,23618,-5e-05,-4e-05,-5e-05,-7e-05,-0.00014,-0.00018999999999999998,4e-05,5.9999999999999995e-05,6
22882,23619,-5e-05,-4e-05,-5e-05,-7e-05,-0.00014,-0.00018999999999999998,4e-05,5.9999999999999995e-05,6
22883,23620,0.00011999999999999999,7e-05,2e-05,4e-05,-0.00022,-0.00016,0.00023999999999999998,0.00022,6
22884,23621,0.00011999999999999999,7e-05,2e-05,4e-05,-0.00022,-0.00016,0.00023999999999999998,0.00022,6
22885,23622,0.00011999999999999999,7e-05,2e-05,4e-05,-0.00022,-0.00016,0.00023999999999999998,0.00022,6
22886,23623,0.00011999999999999999,7e-05,2e-05,4e-05,-0.00022,-0.00016,0.00023999999999999998,0.00022,6
22887,23624,0.00011999999999999999,7e-05,2e-05,4e-05,-0.00022,-0.00016,0.00023999999999999998,0.00022,6
22888,23625,0.00011999999999999999,7e-05,2e-05,4e-05,-0.00022,-0.00016,0.00023999999999999998,0.00022,6
22889,23626,0.00011999999999999999,7e-05,2e-05,4e-05,-0.00022,-0.00016,0.00023999999999999998,0.00022,6
22890,23627,0.00011999999999999999,7e-05,2e-05,4e-05,-0.00022,-0.00016,0.00023999999999999998,0.00022,6
22891,23628,-0.00015,-5e-05,-2.9999999999999997e-05,-9e-05,2e-05,-2.9999999999999997e-05,-0.0001,-0.00011,6
22892,23629,-0.00015,-5e-05,-2.9999999999999997e-05,-9e-05,2e-05,-2.9999999999999997e-05,-0.0001,-0.00011,6
22893,23630,-0.00015,-5e-05,-2.9999999999999997e-05,-9e-05,2e-05,-2.9999999999999997e-05,-0.0001,-0.00011,6
22894,23631,-0.00015,-5e-05,-2.9999999999999997e-05,-9e-05,2e-05,-2.9999999999999997e-05,-0.0001,-0.00011,6
22895,23632,-0.00015,-5e-05,-2.9999999999999997e-05,-9e-05,2e-05,-2.9999999999999997e-05,-0.0001,-0.00011,6
22896,23633,-0.00015,-5e-05,-2.9999999999999997e-05,-9e-05,2e-05,-2.9999999999999997e-05,-0.0001,-0.00011,6
22897,23634,-0.00015,-5e-05,-2.9999999999999997e-05,-9e-05,2e-05,-2.9999999999999997e-05,-0.0001,-0.00011,6
22898,23635,-0.00015,-5e-05,-2.9999999999999997e-05,-9e-05,2e-05,-2.9999999999999997e-05,-0.0001,-0.00011,6
22899,23636,-0.00015,-5e-05,-2.9999999999999997e-05,-9e-05,2e-05,-2.9999999999999997e-05,-0.0001,-0.00011,6
22900,23638,-0.00015,-5e-05,-2.9999999999999997e-05,-9e-05,2e-05,-2.9999999999999997e-05,-0.0001,-0.00011,6
22901,23639,-0.00015,-5e-05,-2.9999999999999997e-05,-9e-05,2e-05,-2.9999999999999997e-05,-0.0001,-0.00011,6
22902,23640,-0.00015,-5e-05,-2.9999999999999997e-05,-9e-05,2e-05,-2.9999999999999997e-05,-0.0001,-0.00011,6
22903,23641,-0.00015,-5e-05,-2.9999999999999997e-05,-9e-05,2e-05,-2.9999999999999997e-05,-0.0001,-0.00011,6
22904,23642,2.9999999999999997e-05,-2e-05,-1e-05,0.00018,0.00016,5e-05,1e-05,-9e-05,6
22905,23643,5.9999999999999995e-05,0.0,1e-05,9e-05,0.00015,-0.00014,-0.00021,0.0,6
22906,23644,-1e-05,2e-05,2.9999999999999997e-05,9e-05,0.00045999999999999996,0.00023999999999999998,-7e-05,-9e-05,6
22907,23645,-1e-05,2e-05,2.9999999999999997e-05,9e-05,0.00045999999999999996,0.00023999999999999998,-7e-05,-9e-05,6
22908,23646,-1e-05,2e-05,2.9999999999999997e-05,9e-05,0.00045999999999999996,0.00023999999999999998,-7e-05,-9e-05,6
22909,23647,-1e-05,2e-05,2.9999999999999997e-05,9e-05,0.00045999999999999996,0.00023999999999999998,-7e-05,-9e-05,6
22910,23648,-1e-05,2e-05,2.9999999999999997e-05,9e-05,0.00045999999999999996,0.00023999999999999998,-7e-05,-9e-05,6
22911,23649,-1e-05,2e-05,2.9999999999999997e-05,9e-05,0.00045999999999999996,0.00023999999999999998,-7e-05,-9e-05,6
22912,23650,-1e-05,2e-05,2.9999999999999997e-05,9e-05,0.00045999999999999996,0.00023999999999999998,-7e-05,-9e-05,6
22913,23652,-1e-05,2e-05,2.9999999999999997e-05,9e-05,0.00045999999999999996,0.00023999999999999998,-7e-05,-9e-05,6
22914,23653,-1e-05,2e-05,2.9999999999999997e-05,9e-05,0.00045999999999999996,0.00023999999999999998,-7e-05,-9e-05,6
22915,23654,-1e-05,2e-05,2.9999999999999997e-05,9e-05,0.00045999999999999996,0.00023999999999999998,-7e-05,-9e-05,6
22916,23655,-1e-05,2e-05,2.9999999999999997e-05,9e-05,0.00045999999999999996,0.00023999999999999998,-7e-05,-9e-05,6
22917,23656,-0.00011,-4e-05,-1e-05,-2e-05,5e-05,0.0002,0.0001,-0.00029,6
22918,23657,-0.00011,-4e-05,-1e-05,-2e-05,5e-05,0.0002,0.0001,-0.00029,6
22919,23658,-0.00011,-4e-05,-1e-05,-2e-05,5e-05,0.0002,0.0001,-0.00029,6
22920,23659,-0.00011,-4e-05,-1e-05,-2e-05,5e-05,0.0002,0.0001,-0.00029,6
22921,23660,-0.00011,-4e-05,-1e-05,-2e-05,5e-05,0.0002,0.0001,-0.00029,6
22922,23661,-0.00011,-4e-05,-1e-05,-2e-05,5e-05,0.0002,0.0001,-0.00029,6
22923,23662,-0.00011,-4e-05,-1e-05,-2e-05,5e-05,0.0002,0.0001,-0.00029,6
22924,23663,-0.00011,-4e-05,-1e-05,-2e-05,5e-05,0.0002,0.0001,-0.00029,6
22925,23664,-0.00011,-4e-05,-1e-05,-2e-05,5e-05,0.0002,0.0001,-0.00029,6
22926,23665,-0.00011,-4e-05,-1e-05,-2e-05,5e-05,0.0002,0.0001,-0.00029,6
22927,23666,-0.00011,-4e-05,-1e-05,-2e-05,5e-05,0.0002,0.0001,-0.00029,6
22928,23667,-0.00011,-4e-05,-1e-05,-2e-05,5e-05,0.0002,0.0001,-0.00029,6
22929,23668,-0.00011,-4e-05,-1e-05,-2e-05,5e-05,0.0002,0.0001,-0.00029,6
22930,23669,-0.00011,-4e-05,-1e-05,-2e-05,5e-05,0.0002,0.0001,-0.00029,6
22931,23670,-0.00011,-4e-05,-1e-05,-2e-05,5e-05,0.0002,0.0001,-0.00029,6
22932,23671,-0.00011,-4e-05,-1e-05,-2e-05,5e-05,0.0002,0.0001,-0.00029,6
22933,23672,-0.00011,-4e-05,-1e-05,-2e-05,5e-05,0.0002,0.0001,-0.00029,6
22934,23673,-0.00015,-5.9999999999999995e-05,-2.9999999999999997e-05,-5e-05,-0.00026000000000000003,-0.00031,-2e-05,-1e-05,6
22935,23674,-0.00015,-5.9999999999999995e-05,-2.9999999999999997e-05,-5e-05,-0.00026000000000000003,-0.00031,-2e-05,-1e-05,6
22936,23675,-0.00015,-5.9999999999999995e-05,-2.9999999999999997e-05,-5e-05,-0.00026000000000000003,-0.00031,-2e-05,-1e-05,6
22937,23676,-0.00015,-5.9999999999999995e-05,-2.9999999999999997e-05,-5e-05,-0.00026000000000000003,-0.00031,-2e-05,-1e-05,6
22938,23677,-0.00015,-5.9999999999999995e-05,-2.9999999999999997e-05,-5e-05,-0.00026000000000000003,-0.00031,-2e-05,-1e-05,6
22939,23678,-0.00015,-5.9999999999999995e-05,-2.9999999999999997e-05,-5e-05,-0.00026000000000000003,-0.00031,-2e-05,-1e-05,6
22940,23679,-0.00015,-5.9999999999999995e-05,-2.9999999999999997e-05,-5e-05,-0.00026000000000000003,-0.00031,-2e-05,-1e-05,6
22941,23680,-0.00015,-5.9999999999999995e-05,-2.9999999999999997e-05,-5e-05,-0.00026000000000000003,-0.00031,-2e-05,-1e-05,6
22942,23681,-5e-05,-5e-05,-2.9999999999999997e-05,2.9999999999999997e-05,0.00011,-7e-05,-1e-05,-1e-05,6
22943,23682,-2e-05,-5e-05,-4e-05,-5e-05,9e-05,5e-05,-0.00014,-7e-05,6
22944,23684,-2e-05,-5e-05,-4e-05,-5e-05,9e-05,5e-05,-0.00014,-7e-05,6
22945,23685,-2e-05,-5e-05,-4e-05,-5e-05,9e-05,5e-05,-0.00014,-7e-05,6
22946,23686,-2e-05,-5e-05,-4e-05,-5e-05,9e-05,5e-05,-0.00014,-7e-05,6
22947,23688,-2e-05,-5e-05,-4e-05,-5e-05,9e-05,5e-05,-0.00014,-7e-05,6
22948,23689,-2e-05,-5e-05,-4e-05,-5e-05,9e-05,5e-05,-0.00014,-7e-05,6
22949,23690,-2e-05,-5e-05,-4e-05,-5e-05,9e-05,5e-05,-0.00014,-7e-05,6
22950,23691,-2e-05,-5e-05,-4e-05,-5e-05,9e-05,5e-05,-0.00014,-7e-05,6
22951,23692,-2e-05,-5e-05,-4e-05,-5e-05,9e-05,5e-05,-0.00014,-7e-05,6
22952,23693,-2e-05,-5e-05,-4e-05,-5e-05,9e-05,5e-05,-0.00014,-7e-05,6
22953,23694,-2e-05,-5e-05,-4e-05,-5e-05,9e-05,5e-05,-0.00014,-7e-05,6
22954,23695,-2e-05,-5e-05,-4e-05,-5e-05,9e-05,5e-05,-0.00014,-7e-05,6
22955,23696,-2e-05,-5e-05,-4e-05,-5e-05,9e-05,5e-05,-0.00014,-7e-05,6
22956,23697,-2e-05,-5e-05,-4e-05,-5e-05,9e-05,5e-05,-0.00014,-7e-05,6
22957,23698,-2e-05,-5e-05,-4e-05,-5e-05,9e-05,5e-05,-0.00014,-7e-05,6
22958,23699,-2e-05,-5e-05,-4e-05,-5e-05,9e-05,5e-05,-0.00014,-7e-05,6
22959,23700,-2e-05,-5e-05,-4e-05,-5e-05,9e-05,5e-05,-0.00014,-7e-05,6
22960,23701,-2e-05,-5e-05,-4e-05,-5e-05,9e-05,5e-05,-0.00014,-7e-05,6
22961,23702,-7e-05,-5.9999999999999995e-05,-5.9999999999999995e-05,-0.00018,-0.0005200000000000001,-0.0001,-0.00016999999999999999,-0.00011,6
22962,23703,-1e-05,-2e-05,-2e-05,8e-05,7e-05,-0.00018,-0.0001,0.0,6
22963,23704,5.9999999999999995e-05,8e-05,0.0001,2.9999999999999997e-05,0.00021,8e-05,7e-05,-8e-05,6
22964,23705,5.9999999999999995e-05,8e-05,0.0001,2.9999999999999997e-05,0.00021,8e-05,7e-05,-8e-05,6
22965,23706,5.9999999999999995e-05,8e-05,0.0001,2.9999999999999997e-05,0.00021,8e-05,7e-05,-8e-05,6
22966,23707,5.9999999999999995e-05,8e-05,0.0001,2.9999999999999997e-05,0.00021,8e-05,7e-05,-8e-05,6
22967,23708,5.9999999999999995e-05,8e-05,0.0001,2.9999999999999997e-05,0.00021,8e-05,7e-05,-8e-05,6
22968,23709,5.9999999999999995e-05,8e-05,0.0001,2.9999999999999997e-05,0.00021,8e-05,7e-05,-8e-05,6
22969,23710,5.9999999999999995e-05,8e-05,0.0001,2.9999999999999997e-05,0.00021,8e-05,7e-05,-8e-05,6
22970,23711,5.9999999999999995e-05,8e-05,0.0001,2.9999999999999997e-05,0.00021,8e-05,7e-05,-8e-05,6
22971,23712,5.9999999999999995e-05,8e-05,0.0001,2.9999999999999997e-05,0.00021,8e-05,7e-05,-8e-05,6
22972,23713,5.9999999999999995e-05,8e-05,0.0001,2.9999999999999997e-05,0.00021,8e-05,7e-05,-8e-05,6
22973,23714,5.9999999999999995e-05,8e-05,0.0001,2.9999999999999997e-05,0.00021,8e-05,7e-05,-8e-05,6
22974,23715,5.9999999999999995e-05,8e-05,0.0001,2.9999999999999997e-05,0.00021,8e-05,7e-05,-8e-05,6
22975,23716,5.9999999999999995e-05,8e-05,0.0001,2.9999999999999997e-05,0.00021,8e-05,7e-05,-8e-05,6
22976,23717,5.9999999999999995e-05,8e-05,0.0001,2.9999999999999997e-05,0.00021,8e-05,7e-05,-8e-05,6
22977,23718,5.9999999999999995e-05,8e-05,0.0001,2.9999999999999997e-05,0.00021,8e-05,7e-05,-8e-05,6
22978,23719,5.9999999999999995e-05,8e-05,0.0001,2.9999999999999997e-05,0.00021,8e-05,7e-05,-8e-05,6
22979,23720,5.9999999999999995e-05,8e-05,0.0001,2.9999999999999997e-05,0.00021,8e-05,7e-05,-8e-05,6
22980,23721,5.9999999999999995e-05,8e-05,0.0001,2.9999999999999997e-05,0.00021,8e-05,7e-05,-8e-05,6
22981,23722,5.9999999999999995e-05,8e-05,0.0001,2.9999999999999997e-05,0.00021,8e-05,7e-05,-8e-05,6
22982,23723,5.9999999999999995e-05,8e-05,0.0001,2.9999999999999997e-05,0.00021,8e-05,7e-05,-8e-05,6
22983,23724,5.9999999999999995e-05,8e-05,0.0001,2.9999999999999997e-05,0.00021,8e-05,7e-05,-8e-05,6
22984,23725,5.9999999999999995e-05,8e-05,0.0001,2.9999999999999997e-05,0.00021,8e-05,7e-05,-8e-05,6
22985,23726,5.9999999999999995e-05,8e-05,0.0001,2.9999999999999997e-05,0.00021,8e-05,7e-05,-8e-05,6
22986,23727,5.9999999999999995e-05,8e-05,0.0001,2.9999999999999997e-05,0.00021,8e-05,7e-05,-8e-05,6
22987,23728,5.9999999999999995e-05,8e-05,0.0001,2.9999999999999997e-05,0.00021,8e-05,7e-05,-8e-05,6
22988,23729,5.9999999999999995e-05,8e-05,0.0001,2.9999999999999997e-05,0.00021,8e-05,7e-05,-8e-05,6
22989,23730,5.9999999999999995e-05,8e-05,0.0001,2.9999999999999997e-05,0.00021,8e-05,7e-05,-8e-05,6
22990,23731,5.9999999999999995e-05,8e-05,0.0001,2.9999999999999997e-05,0.00021,8e-05,7e-05,-8e-05,6
22991,23732,5.9999999999999995e-05,8e-05,0.0001,2.9999999999999997e-05,0.00021,8e-05,7e-05,-8e-05,6
22992,23733,7e-05,-4e-05,-5.9999999999999995e-05,-7e-05,-0.00022,-0.00013000000000000002,-8e-05,0.00011999999999999999,6
22993,23734,2e-05,5e-05,4e-05,0.00014,0.00037999999999999997,0.00041,7e-05,-5e-05,6
22994,23735,2e-05,5e-05,4e-05,0.00014,0.00037999999999999997,0.00041,7e-05,-5e-05,6
22995,23736,2e-05,5e-05,4e-05,0.00014,0.00037999999999999997,0.00041,7e-05,-5e-05,6
22996,23738,2e-05,5e-05,4e-05,0.00014,0.00037999999999999997,0.00041,7e-05,-5e-05,6
22997,23739,2e-05,5e-05,4e-05,0.00014,0.00037999999999999997,0.00041,7e-05,-5e-05,6
22998,23740,2.9999999999999997e-05,0.0,1e-05,-5e-05,-8e-05,-0.00011,-0.00011,0.0,6
22999,23741,2.9999999999999997e-05,0.0,1e-05,-5e-05,-8e-05,-0.00011,-0.00011,0.0,6
23000,23742,-1e-05,-5.9999999999999995e-05,-0.00011999999999999999,-8e-05,-0.00018999999999999998,0.00011999999999999999,8e-05,2e-05,6
23001,23743,-1e-05,-5.9999999999999995e-05,-0.00011999999999999999,-8e-05,-0.00018999999999999998,0.00011999999999999999,8e-05,2e-05,6
23002,23744,-1e-05,-5.9999999999999995e-05,-0.00011999999999999999,-8e-05,-0.00018999999999999998,0.00011999999999999999,8e-05,2e-05,6
23003,23745,-1e-05,-5.9999999999999995e-05,-0.00011999999999999999,-8e-05,-0.00018999999999999998,0.00011999999999999999,8e-05,2e-05,6
23004,23746,-1e-05,-5.9999999999999995e-05,-0.00011999999999999999,-8e-05,-0.00018999999999999998,0.00011999999999999999,8e-05,2e-05,6
23005,23747,-1e-05,-5.9999999999999995e-05,-0.00011999999999999999,-8e-05,-0.00018999999999999998,0.00011999999999999999,8e-05,2e-05,6
23006,23748,-1e-05,-5.9999999999999995e-05,-0.00011999999999999999,-8e-05,-0.00018999999999999998,0.00011999999999999999,8e-05,2e-05,6
23007,23749,-1e-05,-5.9999999999999995e-05,-0.00011999999999999999,-8e-05,-0.00018999999999999998,0.00011999999999999999,8e-05,2e-05,6
23008,23750,-1e-05,-5.9999999999999995e-05,-0.00011999999999999999,-8e-05,-0.00018999999999999998,0.00011999999999999999,8e-05,2e-05,6
23009,23751,-1e-05,-5.9999999999999995e-05,-0.00011999999999999999,-8e-05,-0.00018999999999999998,0.00011999999999999999,8e-05,2e-05,6
23010,23752,-1e-05,-5.9999999999999995e-05,-0.00011999999999999999,-8e-05,-0.00018999999999999998,0.00011999999999999999,8e-05,2e-05,6
23011,23753,-1e-05,-5.9999999999999995e-05,-0.00011999999999999999,-8e-05,-0.00018999999999999998,0.00011999999999999999,8e-05,2e-05,6
23012,23754,-1e-05,-5.9999999999999995e-05,-0.00011999999999999999,-8e-05,-0.00018999999999999998,0.00011999999999999999,8e-05,2e-05,6
23013,23755,-1e-05,-5.9999999999999995e-05,-0.00011999999999999999,-8e-05,-0.00018999999999999998,0.00011999999999999999,8e-05,2e-05,6
23014,23756,-1e-05,-5.9999999999999995e-05,-0.00011999999999999999,-8e-05,-0.00018999999999999998,0.00011999999999999999,8e-05,2e-05,6
23015,23757,-1e-05,-5.9999999999999995e-05,-0.00011999999999999999,-8e-05,-0.00018999999999999998,0.00011999999999999999,8e-05,2e-05,6
23016,23758,-1e-05,-5.9999999999999995e-05,-0.00011999999999999999,-8e-05,-0.00018999999999999998,0.00011999999999999999,8e-05,2e-05,6
23017,23759,-1e-05,-5.9999999999999995e-05,-0.00011999999999999999,-8e-05,-0.00018999999999999998,0.00011999999999999999,8e-05,2e-05,6
23018,23760,-1e-05,-5.9999999999999995e-05,-0.00011999999999999999,-8e-05,-0.00018999999999999998,0.00011999999999999999,8e-05,2e-05,6
23019,23761,-1e-05,-5.9999999999999995e-05,-0.00011999999999999999,-8e-05,-0.00018999999999999998,0.00011999999999999999,8e-05,2e-05,6
23020,23762,-1e-05,-5.9999999999999995e-05,-0.00011999999999999999,-8e-05,-0.00018999999999999998,0.00011999999999999999,8e-05,2e-05,6
23021,23763,2.9999999999999997e-05,2.9999999999999997e-05,4e-05,4e-05,2e-05,0.00013000000000000002,0.0,0.00013000000000000002,6
23022,23764,2.9999999999999997e-05,2.9999999999999997e-05,4e-05,4e-05,2e-05,0.00013000000000000002,0.0,0.00013000000000000002,6
23023,23765,5e-05,0.0,0.0,0.00018,0.0003,8e-05,-0.0001,5e-05,6
23024,23766,5e-05,0.0,0.0,0.00018,0.0003,8e-05,-0.0001,5e-05,6
23025,23767,5e-05,0.0,0.0,0.00018,0.0003,8e-05,-0.0001,5e-05,6
23026,23768,5e-05,0.0,0.0,0.00018,0.0003,8e-05,-0.0001,5e-05,6
23027,23769,5e-05,0.0,0.0,0.00018,0.0003,8e-05,-0.0001,5e-05,6
23028,23770,5e-05,0.0,0.0,0.00018,0.0003,8e-05,-0.0001,5e-05,6
23029,23771,5e-05,0.0,0.0,0.00018,0.0003,8e-05,-0.0001,5e-05,6
23030,23772,5e-05,0.0,0.0,0.00018,0.0003,8e-05,-0.0001,5e-05,6
23031,23773,5e-05,0.0,0.0,0.00018,0.0003,8e-05,-0.0001,5e-05,6
23032,23774,5e-05,0.0,0.0,0.00018,0.0003,8e-05,-0.0001,5e-05,6
23033,23775,5e-05,0.0,0.0,0.00018,0.0003,8e-05,-0.0001,5e-05,6
23034,23776,5e-05,0.0,0.0,0.00018,0.0003,8e-05,-0.0001,5e-05,6
23035,23777,5e-05,0.0,0.0,0.00018,0.0003,8e-05,-0.0001,5e-05,6
23036,23778,5e-05,0.0,0.0,0.00018,0.0003,8e-05,-0.0001,5e-05,6
23037,23779,5e-05,0.0,0.0,0.00018,0.0003,8e-05,-0.0001,5e-05,6
23038,23780,5e-05,0.0,0.0,0.00018,0.0003,8e-05,-0.0001,5e-05,6
23039,23781,5e-05,0.0,0.0,0.00018,0.0003,8e-05,-0.0001,5e-05,6
23040,23782,5e-05,0.0,0.0,0.00018,0.0003,8e-05,-0.0001,5e-05,6
23041,23783,5e-05,0.0,0.0,0.00018,0.0003,8e-05,-0.0001,5e-05,6
23042,23784,5e-05,0.0,0.0,0.00018,0.0003,8e-05,-0.0001,5e-05,6
23043,23785,-0.00016,-4e-05,-1e-05,7e-05,5.9999999999999995e-05,2.9999999999999997e-05,0.00023999999999999998,-0.00011,6
23044,23786,-0.00016,-4e-05,-1e-05,7e-05,5.9999999999999995e-05,2.9999999999999997e-05,0.00023999999999999998,-0.00011,6
23045,23788,-8e-05,-8e-05,-7e-05,-0.00023999999999999998,-0.00047999999999999996,-0.00035,-0.00022,-1e-05,6
23046,23789,-8e-05,-8e-05,-7e-05,-0.00023999999999999998,-0.00047999999999999996,-0.00035,-0.00022,-1e-05,6
23047,23790,-8e-05,-8e-05,-7e-05,-0.00023999999999999998,-0.00047999999999999996,-0.00035,-0.00022,-1e-05,6
23048,23791,-8e-05,-8e-05,-7e-05,-0.00023999999999999998,-0.00047999999999999996,-0.00035,-0.00022,-1e-05,6
23049,23792,-8e-05,-8e-05,-7e-05,-0.00023999999999999998,-0.00047999999999999996,-0.00035,-0.00022,-1e-05,6
23050,23793,-8e-05,-8e-05,-7e-05,-0.00023999999999999998,-0.00047999999999999996,-0.00035,-0.00022,-1e-05,6
23051,23794,-8e-05,-8e-05,-7e-05,-0.00023999999999999998,-0.00047999999999999996,-0.00035,-0.00022,-1e-05,6
23052,23795,-8e-05,-8e-05,-7e-05,-0.00023999999999999998,-0.00047999999999999996,-0.00035,-0.00022,-1e-05,6
23053,23796,-8e-05,-8e-05,-7e-05,-0.00023999999999999998,-0.00047999999999999996,-0.00035,-0.00022,-1e-05,6
23054,23797,-8e-05,-8e-05,-7e-05,-0.00023999999999999998,-0.00047999999999999996,-0.00035,-0.00022,-1e-05,6
23055,23798,-8e-05,-8e-05,-7e-05,-0.00023999999999999998,-0.00047999999999999996,-0.00035,-0.00022,-1e-05,6
23056,23799,-8e-05,-8e-05,-7e-05,-0.00023999999999999998,-0.00047999999999999996,-0.00035,-0.00022,-1e-05,6
23057,23800,-8e-05,-8e-05,-7e-05,-0.00023999999999999998,-0.00047999999999999996,-0.00035,-0.00022,-1e-05,6
23058,23801,-8e-05,-8e-05,-7e-05,-0.00023999999999999998,-0.00047999999999999996,-0.00035,-0.00022,-1e-05,6
23059,23802,9e-05,7e-05,8e-05,-4e-05,-0.00013000000000000002,8e-05,4e-05,0.00011999999999999999,6
23060,23803,-2e-05,-2e-05,-4e-05,-0.00011,-7e-05,-0.00014,0.00013000000000000002,2.9999999999999997e-05,6
23061,23804,-2e-05,-2e-05,-4e-05,-0.00011,-7e-05,-0.00014,0.00013000000000000002,2.9999999999999997e-05,6
23062,23805,-2e-05,-2e-05,-4e-05,-0.00011,-7e-05,-0.00014,0.00013000000000000002,2.9999999999999997e-05,6
23063,23806,-2e-05,-2e-05,-4e-05,-0.00011,-7e-05,-0.00014,0.00013000000000000002,2.9999999999999997e-05,6
23064,23807,-2e-05,-2e-05,-4e-05,-0.00011,-7e-05,-0.00014,0.00013000000000000002,2.9999999999999997e-05,6
23065,23808,-2e-05,-2e-05,-4e-05,-0.00011,-7e-05,-0.00014,0.00013000000000000002,2.9999999999999997e-05,6
23066,23809,-2e-05,-2e-05,-4e-05,-0.00011,-7e-05,-0.00014,0.00013000000000000002,2.9999999999999997e-05,6
23067,23810,-2e-05,-2e-05,-4e-05,-0.00011,-7e-05,-0.00014,0.00013000000000000002,2.9999999999999997e-05,6
23068,23811,-2e-05,-2e-05,-4e-05,-0.00011,-7e-05,-0.00014,0.00013000000000000002,2.9999999999999997e-05,6
23069,23812,-2e-05,-2e-05,-4e-05,-0.00011,-7e-05,-0.00014,0.00013000000000000002,2.9999999999999997e-05,6
23070,23813,-2e-05,-2e-05,-4e-05,-0.00011,-7e-05,-0.00014,0.00013000000000000002,2.9999999999999997e-05,6
23071,23814,-2e-05,-2e-05,-4e-05,-0.00011,-7e-05,-0.00014,0.00013000000000000002,2.9999999999999997e-05,6
23072,23815,-2e-05,-2e-05,-4e-05,-0.00011,-7e-05,-0.00014,0.00013000000000000002,2.9999999999999997e-05,6
23073,23816,-2e-05,-2e-05,-4e-05,-0.00011,-7e-05,-0.00014,0.00013000000000000002,2.9999999999999997e-05,6
23074,23817,-2e-05,-2e-05,-4e-05,-0.00011,-7e-05,-0.00014,0.00013000000000000002,2.9999999999999997e-05,6
23075,23818,-2e-05,-2e-05,-4e-05,-0.00011,-7e-05,-0.00014,0.00013000000000000002,2.9999999999999997e-05,6
23076,23819,-2e-05,-2e-05,-4e-05,-0.00011,-7e-05,-0.00014,0.00013000000000000002,2.9999999999999997e-05,6
23077,23820,-2e-05,-2e-05,-4e-05,-0.00011,-7e-05,-0.00014,0.00013000000000000002,2.9999999999999997e-05,6
23078,23821,-2e-05,-2e-05,-4e-05,-0.00011,-7e-05,-0.00014,0.00013000000000000002,2.9999999999999997e-05,6
23079,23822,-2e-05,-2e-05,-4e-05,-0.00011,-7e-05,-0.00014,0.00013000000000000002,2.9999999999999997e-05,6
23080,23823,-9e-05,-0.00011999999999999999,-0.00011999999999999999,-0.00015,-0.00026000000000000003,-0.00011999999999999999,0.00018,-9e-05,6
23081,23824,2e-05,0.0,7e-05,-5e-05,-0.0006,-0.0003,-0.00011,-0.00014,6
23082,23825,2e-05,0.0,7e-05,-5e-05,-0.0006,-0.0003,-0.00011,-0.00014,6
23083,23826,2e-05,0.0,7e-05,-5e-05,-0.0006,-0.0003,-0.00011,-0.00014,6
23084,23827,2e-05,0.0,7e-05,-5e-05,-0.0006,-0.0003,-0.00011,-0.00014,6
23085,23828,2e-05,0.0,7e-05,-5e-05,-0.0006,-0.0003,-0.00011,-0.00014,6
23086,23829,2e-05,0.0,7e-05,-5e-05,-0.0006,-0.0003,-0.00011,-0.00014,6
23087,23830,2e-05,0.0,7e-05,-5e-05,-0.0006,-0.0003,-0.00011,-0.00014,6
23088,23831,2e-05,0.0,7e-05,-5e-05,-0.0006,-0.0003,-0.00011,-0.00014,6
23089,23832,2e-05,0.0,7e-05,-5e-05,-0.0006,-0.0003,-0.00011,-0.00014,6
23090,23833,2e-05,0.0,7e-05,-5e-05,-0.0006,-0.0003,-0.00011,-0.00014,6
23091,23834,2e-05,0.0,7e-05,-5e-05,-0.0006,-0.0003,-0.00011,-0.00014,6
23092,23835,2e-05,0.0,7e-05,-5e-05,-0.0006,-0.0003,-0.00011,-0.00014,6
23093,23836,2e-05,0.0,7e-05,-5e-05,-0.0006,-0.0003,-0.00011,-0.00014,6
23094,23838,2e-05,0.0,7e-05,-5e-05,-0.0006,-0.0003,-0.00011,-0.00014,6
23095,23839,2e-05,0.0,7e-05,-5e-05,-0.0006,-0.0003,-0.00011,-0.00014,6
23096,23840,2e-05,0.0,7e-05,-5e-05,-0.0006,-0.0003,-0.00011,-0.00014,6
23097,23841,2e-05,0.0,7e-05,-5e-05,-0.0006,-0.0003,-0.00011,-0.00014,6
23098,23842,2e-05,0.0,7e-05,-5e-05,-0.0006,-0.0003,-0.00011,-0.00014,6
23099,23843,2e-05,0.0,7e-05,-5e-05,-0.0006,-0.0003,-0.00011,-0.00014,6
23100,23844,2e-05,0.0,7e-05,-5e-05,-0.0006,-0.0003,-0.00011,-0.00014,6
23101,23845,4e-05,1e-05,2e-05,0.00011999999999999999,0.00037999999999999997,0.0,-0.00018999999999999998,7e-05,6
23102,23846,4e-05,1e-05,2e-05,0.00011999999999999999,0.00037999999999999997,0.0,-0.00018999999999999998,7e-05,6
23103,23847,-7e-05,-1e-05,1e-05,0.0,-0.00022999999999999998,-0.00016999999999999999,-4e-05,-1e-05,6
23104,23848,-7e-05,-1e-05,1e-05,0.0,-0.00022999999999999998,-0.00016999999999999999,-4e-05,-1e-05,6
23105,23849,-7e-05,-1e-05,1e-05,0.0,-0.00022999999999999998,-0.00016999999999999999,-4e-05,-1e-05,6
23106,23850,-7e-05,-1e-05,1e-05,0.0,-0.00022999999999999998,-0.00016999999999999999,-4e-05,-1e-05,6
23107,23851,-7e-05,-1e-05,1e-05,0.0,-0.00022999999999999998,-0.00016999999999999999,-4e-05,-1e-05,6
23108,23852,-7e-05,-1e-05,1e-05,0.0,-0.00022999999999999998,-0.00016999999999999999,-4e-05,-1e-05,6
23109,23853,-7e-05,-1e-05,1e-05,0.0,-0.00022999999999999998,-0.00016999999999999999,-4e-05,-1e-05,6
23110,23854,-7e-05,-1e-05,1e-05,0.0,-0.00022999999999999998,-0.00016999999999999999,-4e-05,-1e-05,6
23111,23855,-7e-05,-1e-05,1e-05,0.0,-0.00022999999999999998,-0.00016999999999999999,-4e-05,-1e-05,6
23112,23856,-7e-05,-1e-05,1e-05,0.0,-0.00022999999999999998,-0.00016999999999999999,-4e-05,-1e-05,6
23113,23857,-7e-05,-1e-05,1e-05,0.0,-0.00022999999999999998,-0.00016999999999999999,-4e-05,-1e-05,6
23114,23858,-7e-05,-1e-05,1e-05,0.0,-0.00022999999999999998,-0.00016999999999999999,-4e-05,-1e-05,6
23115,23859,2e-05,2.9999999999999997e-05,-1e-05,-1e-05,-0.00022999999999999998,-2.9999999999999997e-05,-0.00011,-0.00011999999999999999,6
23116,23860,2e-05,2.9999999999999997e-05,-1e-05,-1e-05,-0.00022999999999999998,-2.9999999999999997e-05,-0.00011,-0.00011999999999999999,6
23117,23861,2e-05,2.9999999999999997e-05,-1e-05,-1e-05,-0.00022999999999999998,-2.9999999999999997e-05,-0.00011,-0.00011999999999999999,6
23118,23862,2e-05,2.9999999999999997e-05,-1e-05,-1e-05,-0.00022999999999999998,-2.9999999999999997e-05,-0.00011,-0.00011999999999999999,6
23119,23863,2e-05,2.9999999999999997e-05,-1e-05,-1e-05,-0.00022999999999999998,-2.9999999999999997e-05,-0.00011,-0.00011999999999999999,6
23120,23864,2e-05,2.9999999999999997e-05,-1e-05,-1e-05,-0.00022999999999999998,-2.9999999999999997e-05,-0.00011,-0.00011999999999999999,6
23121,23865,2e-05,2.9999999999999997e-05,-1e-05,-1e-05,-0.00022999999999999998,-2.9999999999999997e-05,-0.00011,-0.00011999999999999999,6
23122,23866,5e-05,0.00014,0.00013000000000000002,0.00033999999999999997,0.00037,0.0004,0.00013000000000000002,-2.9999999999999997e-05,6
23123,23867,5e-05,0.00014,0.00013000000000000002,0.00033999999999999997,0.00037,0.0004,0.00013000000000000002,-2.9999999999999997e-05,6
23124,23868,5e-05,0.00014,0.00013000000000000002,0.00033999999999999997,0.00037,0.0004,0.00013000000000000002,-2.9999999999999997e-05,6
23125,23869,5e-05,0.00014,0.00013000000000000002,0.00033999999999999997,0.00037,0.0004,0.00013000000000000002,-2.9999999999999997e-05,6
23126,23870,5e-05,0.00014,0.00013000000000000002,0.00033999999999999997,0.00037,0.0004,0.00013000000000000002,-2.9999999999999997e-05,6
23127,23871,5e-05,0.00014,0.00013000000000000002,0.00033999999999999997,0.00037,0.0004,0.00013000000000000002,-2.9999999999999997e-05,6
23128,23872,5e-05,0.00014,0.00013000000000000002,0.00033999999999999997,0.00037,0.0004,0.00013000000000000002,-2.9999999999999997e-05,6
23129,23873,5e-05,0.00014,0.00013000000000000002,0.00033999999999999997,0.00037,0.0004,0.00013000000000000002,-2.9999999999999997e-05,6
23130,23874,5e-05,0.00014,0.00013000000000000002,0.00033999999999999997,0.00037,0.0004,0.00013000000000000002,-2.9999999999999997e-05,6
23131,23875,5e-05,0.00014,0.00013000000000000002,0.00033999999999999997,0.00037,0.0004,0.00013000000000000002,-2.9999999999999997e-05,6
23132,23876,5e-05,0.00014,0.00013000000000000002,0.00033999999999999997,0.00037,0.0004,0.00013000000000000002,-2.9999999999999997e-05,6
23133,23877,5e-05,0.00014,0.00013000000000000002,0.00033999999999999997,0.00037,0.0004,0.00013000000000000002,-2.9999999999999997e-05,6
23134,23878,5e-05,0.00014,0.00013000000000000002,0.00033999999999999997,0.00037,0.0004,0.00013000000000000002,-2.9999999999999997e-05,6
23135,23879,5e-05,0.00014,0.00013000000000000002,0.00033999999999999997,0.00037,0.0004,0.00013000000000000002,-2.9999999999999997e-05,6
23136,23880,5e-05,0.00014,0.00013000000000000002,0.00033999999999999997,0.00037,0.0004,0.00013000000000000002,-2.9999999999999997e-05,6
23137,23881,5e-05,0.00014,0.00013000000000000002,0.00033999999999999997,0.00037,0.0004,0.00013000000000000002,-2.9999999999999997e-05,6
23138,23882,-0.00016999999999999999,0.0,0.00011,2e-05,0.00011999999999999999,0.00036,5.9999999999999995e-05,8e-05,6
23139,23883,8e-05,2e-05,4e-05,7e-05,-9e-05,-0.00011,-5e-05,0.00032,6
23140,23884,8e-05,2e-05,4e-05,7e-05,-9e-05,-0.00011,-5e-05,0.00032,6
23141,23885,1e-05,-5.9999999999999995e-05,-0.00011,-0.00011999999999999999,-8e-05,-0.00026000000000000003,0.0,9e-05,6
23142,23886,1e-05,-5.9999999999999995e-05,-0.00011,-0.00011999999999999999,-8e-05,-0.00026000000000000003,0.0,9e-05,6
23143,23888,1e-05,-5.9999999999999995e-05,-0.00011,-0.00011999999999999999,-8e-05,-0.00026000000000000003,0.0,9e-05,6
23144,23889,1e-05,-5.9999999999999995e-05,-0.00011,-0.00011999999999999999,-8e-05,-0.00026000000000000003,0.0,9e-05,6
23145,23890,1e-05,-5.9999999999999995e-05,-0.00011,-0.00011999999999999999,-8e-05,-0.00026000000000000003,0.0,9e-05,6
23146,23891,1e-05,-5.9999999999999995e-05,-0.00011,-0.00011999999999999999,-8e-05,-0.00026000000000000003,0.0,9e-05,6
23147,23892,1e-05,-5.9999999999999995e-05,-0.00011,-0.00011999999999999999,-8e-05,-0.00026000000000000003,0.0,9e-05,6
23148,23893,1e-05,-5.9999999999999995e-05,-0.00011,-0.00011999999999999999,-8e-05,-0.00026000000000000003,0.0,9e-05,6
23149,23894,1e-05,-5.9999999999999995e-05,-0.00011,-0.00011999999999999999,-8e-05,-0.00026000000000000003,0.0,9e-05,6
23150,23895,1e-05,-5.9999999999999995e-05,-0.00011,-0.00011999999999999999,-8e-05,-0.00026000000000000003,0.0,9e-05,6
23151,23896,1e-05,-5.9999999999999995e-05,-0.00011,-0.00011999999999999999,-8e-05,-0.00026000000000000003,0.0,9e-05,6
23152,23897,1e-05,-5.9999999999999995e-05,-0.00011,-0.00011999999999999999,-8e-05,-0.00026000000000000003,0.0,9e-05,6
23153,23898,1e-05,-5.9999999999999995e-05,-0.00011,-0.00011999999999999999,-8e-05,-0.00026000000000000003,0.0,9e-05,6
23154,23899,1e-05,-5.9999999999999995e-05,-0.00011,-0.00011999999999999999,-8e-05,-0.00026000000000000003,0.0,9e-05,6
23155,23900,1e-05,-5.9999999999999995e-05,-0.00011,-0.00011999999999999999,-8e-05,-0.00026000000000000003,0.0,9e-05,6
23156,23901,1e-05,-5.9999999999999995e-05,-0.00011,-0.00011999999999999999,-8e-05,-0.00026000000000000003,0.0,9e-05,6
23157,23902,1e-05,-5.9999999999999995e-05,-0.00011,-0.00011999999999999999,-8e-05,-0.00026000000000000003,0.0,9e-05,6
23158,23903,1e-05,-5.9999999999999995e-05,-0.00011,-0.00011999999999999999,-8e-05,-0.00026000000000000003,0.0,9e-05,6
23159,23904,1e-05,-5.9999999999999995e-05,-0.00011,-0.00011999999999999999,-8e-05,-0.00026000000000000003,0.0,9e-05,6
23160,23905,1e-05,-5.9999999999999995e-05,-0.00011,-0.00011999999999999999,-8e-05,-0.00026000000000000003,0.0,9e-05,6
23161,23906,1e-05,-5.9999999999999995e-05,-0.00011,-0.00011999999999999999,-8e-05,-0.00026000000000000003,0.0,9e-05,6
23162,23907,1e-05,-5.9999999999999995e-05,-0.00011,-0.00011999999999999999,-8e-05,-0.00026000000000000003,0.0,9e-05,6
23163,23908,1e-05,-5.9999999999999995e-05,-0.00011,-0.00011999999999999999,-8e-05,-0.00026000000000000003,0.0,9e-05,6
23164,23909,1e-05,-5.9999999999999995e-05,-0.00011,-0.00011999999999999999,-8e-05,-0.00026000000000000003,0.0,9e-05,6
23165,23910,1e-05,-5.9999999999999995e-05,-0.00011,-0.00011999999999999999,-8e-05,-0.00026000000000000003,0.0,9e-05,6
23166,23911,1e-05,-5.9999999999999995e-05,-0.00011,-0.00011999999999999999,-8e-05,-0.00026000000000000003,0.0,9e-05,6
23167,23912,1e-05,-5.9999999999999995e-05,-0.00011,-0.00011999999999999999,-8e-05,-0.00026000000000000003,0.0,9e-05,6
23168,23913,-2e-05,2.9999999999999997e-05,8e-05,5e-05,5e-05,8e-05,-2.9999999999999997e-05,-0.00013000000000000002,6
23169,23914,-1e-05,-7e-05,-0.0001,-0.0001,-0.0001,-0.00013000000000000002,-0.00014,1e-05,6
23170,23915,-1e-05,-7e-05,-0.0001,-0.0001,-0.0001,-0.00013000000000000002,-0.00014,1e-05,6
23171,23916,-1e-05,-7e-05,-0.0001,-0.0001,-0.0001,-0.00013000000000000002,-0.00014,1e-05,6
23172,23917,-1e-05,-7e-05,-0.0001,-0.0001,-0.0001,-0.00013000000000000002,-0.00014,1e-05,6
23173,23918,-1e-05,-7e-05,-0.0001,-0.0001,-0.0001,-0.00013000000000000002,-0.00014,1e-05,6
23174,23919,-1e-05,-7e-05,-0.0001,-0.0001,-0.0001,-0.00013000000000000002,-0.00014,1e-05,6
23175,23920,-2e-05,-0.0001,-0.00011999999999999999,-0.00015,-0.00036,-0.0004,-9e-05,-2e-05,6
23176,23921,-5.9999999999999995e-05,-2e-05,1e-05,0.00016,0.00036,0.00039,-4e-05,-5.9999999999999995e-05,6
23177,23922,0.0001,2e-05,-2e-05,-0.00014,-0.0003,9e-05,5e-05,0.0004,6
23178,23923,0.0001,2e-05,-2e-05,-0.00014,-0.0003,9e-05,5e-05,0.0004,6
23179,23924,0.0001,2e-05,-2e-05,-0.00014,-0.0003,9e-05,5e-05,0.0004,6
23180,23925,0.0001,2e-05,-2e-05,-0.00014,-0.0003,9e-05,5e-05,0.0004,6
23181,23926,0.0001,2e-05,-2e-05,-0.00014,-0.0003,9e-05,5e-05,0.0004,6
23182,23927,0.0001,2e-05,-2e-05,-0.00014,-0.0003,9e-05,5e-05,0.0004,6
23183,23928,0.0001,2e-05,-2e-05,-0.00014,-0.0003,9e-05,5e-05,0.0004,6
23184,23929,0.0001,2e-05,-2e-05,-0.00014,-0.0003,9e-05,5e-05,0.0004,6
23185,23930,0.0001,2e-05,-2e-05,-0.00014,-0.0003,9e-05,5e-05,0.0004,6
23186,23931,0.0001,2e-05,-2e-05,-0.00014,-0.0003,9e-05,5e-05,0.0004,6
23187,23932,0.0001,2e-05,-2e-05,-0.00014,-0.0003,9e-05,5e-05,0.0004,6
23188,23933,0.0001,2e-05,-2e-05,-0.00014,-0.0003,9e-05,5e-05,0.0004,6
23189,23934,0.0001,2e-05,-2e-05,-0.00014,-0.0003,9e-05,5e-05,0.0004,6
23190,23935,0.0001,2e-05,-2e-05,-0.00014,-0.0003,9e-05,5e-05,0.0004,6
23191,23936,0.0001,2e-05,-2e-05,-0.00014,-0.0003,9e-05,5e-05,0.0004,6
23192,23938,0.0001,2e-05,-2e-05,-0.00014,-0.0003,9e-05,5e-05,0.0004,6
23193,23939,0.0001,2e-05,-2e-05,-0.00014,-0.0003,9e-05,5e-05,0.0004,6
23194,23940,0.0001,2e-05,-2e-05,-0.00014,-0.0003,9e-05,5e-05,0.0004,6
23195,23941,0.0001,2e-05,-2e-05,-0.00014,-0.0003,9e-05,5e-05,0.0004,6
23196,23942,0.0001,2e-05,-2e-05,-0.00014,-0.0003,9e-05,5e-05,0.0004,6
23197,23943,0.0001,2e-05,-2e-05,-0.00014,-0.0003,9e-05,5e-05,0.0004,6
23198,23944,0.0001,2e-05,-2e-05,-0.00014,-0.0003,9e-05,5e-05,0.0004,6
23199,23945,0.0001,2e-05,-2e-05,-0.00014,-0.0003,9e-05,5e-05,0.0004,6
23200,23946,0.0001,2e-05,-2e-05,-0.00014,-0.0003,9e-05,5e-05,0.0004,6
23201,23947,0.0001,2e-05,-2e-05,-0.00014,-0.0003,9e-05,5e-05,0.0004,6
23202,23948,0.0001,2e-05,-2e-05,-0.00014,-0.0003,9e-05,5e-05,0.0004,6
23203,23949,0.0001,2e-05,-2e-05,-0.00014,-0.0003,9e-05,5e-05,0.0004,6
23204,23950,0.0001,2e-05,-2e-05,-0.00014,-0.0003,9e-05,5e-05,0.0004,6
23205,23951,8e-05,-1e-05,-9e-05,-0.00018999999999999998,-0.00041,-0.00042,0.00033999999999999997,0.00032,6
23206,23952,8e-05,-1e-05,-9e-05,-0.00018999999999999998,-0.00041,-0.00042,0.00033999999999999997,0.00032,6
23207,23953,8e-05,-1e-05,-9e-05,-0.00018999999999999998,-0.00041,-0.00042,0.00033999999999999997,0.00032,6
23208,23954,8e-05,-1e-05,-9e-05,-0.00018999999999999998,-0.00041,-0.00042,0.00033999999999999997,0.00032,6
23209,23955,8e-05,-1e-05,-9e-05,-0.00018999999999999998,-0.00041,-0.00042,0.00033999999999999997,0.00032,6
23210,23956,-5.9999999999999995e-05,-2e-05,0.0,0.0,5.9999999999999995e-05,5.9999999999999995e-05,9e-05,-7e-05,6
23211,23957,-5.9999999999999995e-05,-2e-05,0.0,0.0,5.9999999999999995e-05,5.9999999999999995e-05,9e-05,-7e-05,6
23212,23958,-5.9999999999999995e-05,-2e-05,0.0,0.0,5.9999999999999995e-05,5.9999999999999995e-05,9e-05,-7e-05,6
23213,23959,-5.9999999999999995e-05,-2e-05,0.0,0.0,5.9999999999999995e-05,5.9999999999999995e-05,9e-05,-7e-05,6
23214,23960,-5.9999999999999995e-05,-2e-05,0.0,0.0,5.9999999999999995e-05,5.9999999999999995e-05,9e-05,-7e-05,6
23215,23961,-5.9999999999999995e-05,-2e-05,0.0,0.0,5.9999999999999995e-05,5.9999999999999995e-05,9e-05,-7e-05,6
23216,23962,-5.9999999999999995e-05,-2e-05,0.0,0.0,5.9999999999999995e-05,5.9999999999999995e-05,9e-05,-7e-05,6
23217,23963,-5.9999999999999995e-05,-2e-05,0.0,0.0,5.9999999999999995e-05,5.9999999999999995e-05,9e-05,-7e-05,6
23218,23964,-5.9999999999999995e-05,-2e-05,0.0,0.0,5.9999999999999995e-05,5.9999999999999995e-05,9e-05,-7e-05,6
23219,23965,-5.9999999999999995e-05,-2e-05,0.0,0.0,5.9999999999999995e-05,5.9999999999999995e-05,9e-05,-7e-05,6
23220,23966,4e-05,-5.9999999999999995e-05,-5e-05,-0.00013000000000000002,-0.00041,-0.00035,-0.00021,-5.9999999999999995e-05,6
23221,23967,-0.0002,4e-05,0.00011999999999999999,0.0002,0.0008300000000000001,0.0005200000000000001,-0.00018999999999999998,-0.0002,6
23222,23968,-0.0002,4e-05,0.00011999999999999999,0.0002,0.0008300000000000001,0.0005200000000000001,-0.00018999999999999998,-0.0002,6
23223,23969,-0.0002,4e-05,0.00011999999999999999,0.0002,0.0008300000000000001,0.0005200000000000001,-0.00018999999999999998,-0.0002,6
23224,23970,-0.0002,4e-05,0.00011999999999999999,0.0002,0.0008300000000000001,0.0005200000000000001,-0.00018999999999999998,-0.0002,6
23225,23971,-0.0002,4e-05,0.00011999999999999999,0.0002,0.0008300000000000001,0.0005200000000000001,-0.00018999999999999998,-0.0002,6
23226,23972,-0.0002,4e-05,0.00011999999999999999,0.0002,0.0008300000000000001,0.0005200000000000001,-0.00018999999999999998,-0.0002,6
23227,23973,-0.0002,4e-05,0.00011999999999999999,0.0002,0.0008300000000000001,0.0005200000000000001,-0.00018999999999999998,-0.0002,6
23228,23974,-0.0002,4e-05,0.00011999999999999999,0.0002,0.0008300000000000001,0.0005200000000000001,-0.00018999999999999998,-0.0002,6
23229,23975,-0.0002,4e-05,0.00011999999999999999,0.0002,0.0008300000000000001,0.0005200000000000001,-0.00018999999999999998,-0.0002,6
23230,23976,-0.0002,4e-05,0.00011999999999999999,0.0002,0.0008300000000000001,0.0005200000000000001,-0.00018999999999999998,-0.0002,6
23231,23977,-0.0002,4e-05,0.00011999999999999999,0.0002,0.0008300000000000001,0.0005200000000000001,-0.00018999999999999998,-0.0002,6
23232,23978,-0.0002,4e-05,0.00011999999999999999,0.0002,0.0008300000000000001,0.0005200000000000001,-0.00018999999999999998,-0.0002,6
23233,23979,-0.00047000000000000004,-0.00011,5e-05,7e-05,0.0004,8e-05,-0.00018999999999999998,-0.00047000000000000004,6
23234,23980,-0.00047000000000000004,-0.00011,5e-05,7e-05,0.0004,8e-05,-0.00018999999999999998,-0.00047000000000000004,6
23235,23981,-0.00047000000000000004,-0.00011,5e-05,7e-05,0.0004,8e-05,-0.00018999999999999998,-0.00047000000000000004,6
23236,23982,-0.00047000000000000004,-0.00011,5e-05,7e-05,0.0004,8e-05,-0.00018999999999999998,-0.00047000000000000004,6
23237,23983,-0.00047000000000000004,-0.00011,5e-05,7e-05,0.0004,8e-05,-0.00018999999999999998,-0.00047000000000000004,6
23238,23984,-0.00047000000000000004,-0.00011,5e-05,7e-05,0.0004,8e-05,-0.00018999999999999998,-0.00047000000000000004,6
23239,23985,-0.00047000000000000004,-0.00011,5e-05,7e-05,0.0004,8e-05,-0.00018999999999999998,-0.00047000000000000004,6
23240,23986,-0.00047000000000000004,-0.00011,5e-05,7e-05,0.0004,8e-05,-0.00018999999999999998,-0.00047000000000000004,6
23241,23988,-0.00047000000000000004,-0.00011,5e-05,7e-05,0.0004,8e-05,-0.00018999999999999998,-0.00047000000000000004,6
23242,23989,-0.00047000000000000004,-0.00011,5e-05,7e-05,0.0004,8e-05,-0.00018999999999999998,-0.00047000000000000004,6
23243,23990,-0.00047000000000000004,-0.00011,5e-05,7e-05,0.0004,8e-05,-0.00018999999999999998,-0.00047000000000000004,6
23244,23991,-0.00047000000000000004,-0.00011,5e-05,7e-05,0.0004,8e-05,-0.00018999999999999998,-0.00047000000000000004,6
23245,23992,-0.00047000000000000004,-0.00011,5e-05,7e-05,0.0004,8e-05,-0.00018999999999999998,-0.00047000000000000004,6
23246,23993,-0.00047000000000000004,-0.00011,5e-05,7e-05,0.0004,8e-05,-0.00018999999999999998,-0.00047000000000000004,6
23247,23994,5e-05,-5.9999999999999995e-05,-2e-05,-2e-05,-0.00018999999999999998,-0.00037,2.9999999999999997e-05,2e-05,6
23248,23995,5e-05,-5.9999999999999995e-05,-2e-05,-2e-05,-0.00018999999999999998,-0.00037,2.9999999999999997e-05,2e-05,6
23249,23996,5e-05,-5.9999999999999995e-05,-2e-05,-2e-05,-0.00018999999999999998,-0.00037,2.9999999999999997e-05,2e-05,6
23250,23997,5e-05,-5.9999999999999995e-05,-2e-05,-2e-05,-0.00018999999999999998,-0.00037,2.9999999999999997e-05,2e-05,6
23251,23998,5e-05,-5.9999999999999995e-05,-2e-05,-2e-05,-0.00018999999999999998,-0.00037,2.9999999999999997e-05,2e-05,6
23252,23999,5e-05,-5.9999999999999995e-05,-2e-05,-2e-05,-0.00018999999999999998,-0.00037,2.9999999999999997e-05,2e-05,6
23253,24000,5e-05,-5.9999999999999995e-05,-2e-05,-2e-05,-0.00018999999999999998,-0.00037,2.9999999999999997e-05,2e-05,6
23254,24001,5e-05,-5.9999999999999995e-05,-2e-05,-2e-05,-0.00018999999999999998,-0.00037,2.9999999999999997e-05,2e-05,6
23255,24002,0.0,7e-05,7e-05,-2.9999999999999997e-05,-9e-05,-4e-05,2e-05,-8e-05,6
23256,24003,0.0,1e-05,-4e-05,-0.0001,-2e-05,8e-05,5e-05,-2.9999999999999997e-05,6
23257,24004,0.0,1e-05,-4e-05,-0.0001,-2e-05,8e-05,5e-05,-2.9999999999999997e-05,6
23258,24005,0.0,1e-05,-4e-05,-0.0001,-2e-05,8e-05,5e-05,-2.9999999999999997e-05,6
23259,24006,0.0,1e-05,-4e-05,-0.0001,-2e-05,8e-05,5e-05,-2.9999999999999997e-05,6
23260,24007,0.0,1e-05,-4e-05,-0.0001,-2e-05,8e-05,5e-05,-2.9999999999999997e-05,6
23261,24008,0.0,1e-05,-4e-05,-0.0001,-2e-05,8e-05,5e-05,-2.9999999999999997e-05,6
23262,24009,0.0,1e-05,-4e-05,-0.0001,-2e-05,8e-05,5e-05,-2.9999999999999997e-05,6
23263,24010,-5e-05,-4e-05,-2.9999999999999997e-05,0.0,-1e-05,-0.00011,-5e-05,-9e-05,6
23264,24011,-5e-05,-4e-05,-2.9999999999999997e-05,0.0,-1e-05,-0.00011,-5e-05,-9e-05,6
23265,24012,-5e-05,-4e-05,-2.9999999999999997e-05,0.0,-1e-05,-0.00011,-5e-05,-9e-05,6
23266,24013,-5e-05,-4e-05,-2.9999999999999997e-05,0.0,-1e-05,-0.00011,-5e-05,-9e-05,6
23267,24014,-5e-05,-4e-05,-2.9999999999999997e-05,0.0,-1e-05,-0.00011,-5e-05,-9e-05,6
23268,24015,-5e-05,-4e-05,-2.9999999999999997e-05,0.0,-1e-05,-0.00011,-5e-05,-9e-05,6
23269,24016,-5e-05,-4e-05,-2.9999999999999997e-05,0.0,-1e-05,-0.00011,-5e-05,-9e-05,6
23270,24017,-5e-05,-4e-05,-2.9999999999999997e-05,0.0,-1e-05,-0.00011,-5e-05,-9e-05,6
23271,24018,-5e-05,-4e-05,-2.9999999999999997e-05,0.0,-1e-05,-0.00011,-5e-05,-9e-05,6
23272,24019,-5e-05,-4e-05,-2.9999999999999997e-05,0.0,-1e-05,-0.00011,-5e-05,-9e-05,6
23273,24020,-5e-05,-4e-05,-2.9999999999999997e-05,0.0,-1e-05,-0.00011,-5e-05,-9e-05,6
23274,24021,-5e-05,-4e-05,-2.9999999999999997e-05,0.0,-1e-05,-0.00011,-5e-05,-9e-05,6
23275,24022,-5e-05,-4e-05,-2.9999999999999997e-05,0.0,-1e-05,-0.00011,-5e-05,-9e-05,6
23276,24023,-5e-05,-4e-05,-2.9999999999999997e-05,0.0,-1e-05,-0.00011,-5e-05,-9e-05,6
23277,24024,-5e-05,-4e-05,-2.9999999999999997e-05,0.0,-1e-05,-0.00011,-5e-05,-9e-05,6
23278,24025,0.0001,-2.9999999999999997e-05,-5.9999999999999995e-05,-0.00011999999999999999,-0.0006900000000000001,-0.00035,-9e-05,2.9999999999999997e-05,6
23279,24026,0.0001,-2.9999999999999997e-05,-5.9999999999999995e-05,-0.00011999999999999999,-0.0006900000000000001,-0.00035,-9e-05,2.9999999999999997e-05,6
23280,24027,5e-05,5.9999999999999995e-05,2.9999999999999997e-05,0.00033999999999999997,0.00095,0.00079,0.00047999999999999996,4e-05,6
23281,24028,5e-05,5.9999999999999995e-05,2.9999999999999997e-05,0.00033999999999999997,0.00095,0.00079,0.00047999999999999996,4e-05,6
23282,24029,5e-05,5.9999999999999995e-05,2.9999999999999997e-05,0.00033999999999999997,0.00095,0.00079,0.00047999999999999996,4e-05,6
23283,24030,5e-05,5.9999999999999995e-05,2.9999999999999997e-05,0.00033999999999999997,0.00095,0.00079,0.00047999999999999996,4e-05,6
23284,24031,5e-05,5.9999999999999995e-05,2.9999999999999997e-05,0.00033999999999999997,0.00095,0.00079,0.00047999999999999996,4e-05,6
23285,24032,5e-05,5.9999999999999995e-05,2.9999999999999997e-05,0.00033999999999999997,0.00095,0.00079,0.00047999999999999996,4e-05,6
23286,24033,5e-05,5.9999999999999995e-05,2.9999999999999997e-05,0.00033999999999999997,0.00095,0.00079,0.00047999999999999996,4e-05,6
23287,24034,5e-05,5.9999999999999995e-05,2.9999999999999997e-05,0.00033999999999999997,0.00095,0.00079,0.00047999999999999996,4e-05,6
23288,24035,5e-05,5.9999999999999995e-05,2.9999999999999997e-05,0.00033999999999999997,0.00095,0.00079,0.00047999999999999996,4e-05,6
23289,24037,5e-05,5.9999999999999995e-05,2.9999999999999997e-05,0.00033999999999999997,0.00095,0.00079,0.00047999999999999996,4e-05,6
23290,24039,5e-05,5.9999999999999995e-05,2.9999999999999997e-05,0.00033999999999999997,0.00095,0.00079,0.00047999999999999996,4e-05,6
23291,24040,0.00018999999999999998,0.00013000000000000002,0.00011999999999999999,0.00033999999999999997,0.00043,0.00028,5.9999999999999995e-05,0.0,6
23292,24041,0.00018999999999999998,0.00013000000000000002,0.00011999999999999999,0.00033999999999999997,0.00043,0.00028,5.9999999999999995e-05,0.0,6
23293,24042,0.00018999999999999998,0.00013000000000000002,0.00011999999999999999,0.00033999999999999997,0.00043,0.00028,5.9999999999999995e-05,0.0,6
23294,24043,0.00018999999999999998,0.00013000000000000002,0.00011999999999999999,0.00033999999999999997,0.00043,0.00028,5.9999999999999995e-05,0.0,6
23295,24044,0.00018999999999999998,0.00013000000000000002,0.00011999999999999999,0.00033999999999999997,0.00043,0.00028,5.9999999999999995e-05,0.0,6
23296,24045,0.00018999999999999998,0.00013000000000000002,0.00011999999999999999,0.00033999999999999997,0.00043,0.00028,5.9999999999999995e-05,0.0,6
23297,24046,0.00018999999999999998,0.00013000000000000002,0.00011999999999999999,0.00033999999999999997,0.00043,0.00028,5.9999999999999995e-05,0.0,6
23298,24047,0.00018999999999999998,0.00013000000000000002,0.00011999999999999999,0.00033999999999999997,0.00043,0.00028,5.9999999999999995e-05,0.0,6
23299,24048,0.00018999999999999998,0.00013000000000000002,0.00011999999999999999,0.00033999999999999997,0.00043,0.00028,5.9999999999999995e-05,0.0,6
23300,24049,0.00018999999999999998,0.00013000000000000002,0.00011999999999999999,0.00033999999999999997,0.00043,0.00028,5.9999999999999995e-05,0.0,6
23301,24050,0.00018999999999999998,0.00013000000000000002,0.00011999999999999999,0.00033999999999999997,0.00043,0.00028,5.9999999999999995e-05,0.0,6
23302,24051,0.00018999999999999998,0.00013000000000000002,0.00011999999999999999,0.00033999999999999997,0.00043,0.00028,5.9999999999999995e-05,0.0,6
23303,24052,0.00018999999999999998,0.00013000000000000002,0.00011999999999999999,0.00033999999999999997,0.00043,0.00028,5.9999999999999995e-05,0.0,6
23304,24053,0.00018999999999999998,0.00013000000000000002,0.00011999999999999999,0.00033999999999999997,0.00043,0.00028,5.9999999999999995e-05,0.0,6
23305,24054,0.00018999999999999998,0.00013000000000000002,0.00011999999999999999,0.00033999999999999997,0.00043,0.00028,5.9999999999999995e-05,0.0,6
23306,24055,-8e-05,-4e-05,-2.9999999999999997e-05,-0.00014,-0.00045,-0.0003,2e-05,-2.9999999999999997e-05,6
23307,24056,-8e-05,-4e-05,-2.9999999999999997e-05,-0.00014,-0.00045,-0.0003,2e-05,-2.9999999999999997e-05,6
23308,24057,-8e-05,-4e-05,-2.9999999999999997e-05,-0.00014,-0.00045,-0.0003,2e-05,-2.9999999999999997e-05,6
23309,24058,-8e-05,-4e-05,-2.9999999999999997e-05,-0.00014,-0.00045,-0.0003,2e-05,-2.9999999999999997e-05,6
23310,24059,-8e-05,-4e-05,-2.9999999999999997e-05,-0.00014,-0.00045,-0.0003,2e-05,-2.9999999999999997e-05,6
23311,24060,-8e-05,-4e-05,-2.9999999999999997e-05,-0.00014,-0.00045,-0.0003,2e-05,-2.9999999999999997e-05,6
23312,24061,-1e-05,-4e-05,-2e-05,-4e-05,-0.0001,-1e-05,7e-05,-2e-05,6
23313,24062,1e-05,0.0,-2e-05,0.0,0.00015,9e-05,-2.9999999999999997e-05,-5e-05,6
23314,24063,1e-05,0.0,-2e-05,0.0,0.00015,9e-05,-2.9999999999999997e-05,-5e-05,6
23315,24064,1e-05,0.0,-2e-05,0.0,0.00015,9e-05,-2.9999999999999997e-05,-5e-05,6
23316,24065,1e-05,0.0,-2e-05,0.0,0.00015,9e-05,-2.9999999999999997e-05,-5e-05,6
23317,24066,1e-05,0.0,-2e-05,0.0,0.00015,9e-05,-2.9999999999999997e-05,-5e-05,6
23318,24067,1e-05,0.0,-2e-05,0.0,0.00015,9e-05,-2.9999999999999997e-05,-5e-05,6
23319,24068,1e-05,0.0,-2e-05,0.0,0.00015,9e-05,-2.9999999999999997e-05,-5e-05,6
23320,24069,1e-05,0.0,-2e-05,0.0,0.00015,9e-05,-2.9999999999999997e-05,-5e-05,6
23321,24070,1e-05,0.0,-2e-05,0.0,0.00015,9e-05,-2.9999999999999997e-05,-5e-05,6
23322,24071,8e-05,-1e-05,-5e-05,-0.00011999999999999999,-0.00018,-0.00028,-0.00016999999999999999,-1e-05,6
23323,24072,8e-05,-1e-05,-5e-05,-0.00011999999999999999,-0.00018,-0.00028,-0.00016999999999999999,-1e-05,6
23324,24073,8e-05,-1e-05,-5e-05,-0.00011999999999999999,-0.00018,-0.00028,-0.00016999999999999999,-1e-05,6
23325,24074,8e-05,-1e-05,-5e-05,-0.00011999999999999999,-0.00018,-0.00028,-0.00016999999999999999,-1e-05,6
23326,24075,8e-05,-1e-05,-5e-05,-0.00011999999999999999,-0.00018,-0.00028,-0.00016999999999999999,-1e-05,6
23327,24076,8e-05,-1e-05,-5e-05,-0.00011999999999999999,-0.00018,-0.00028,-0.00016999999999999999,-1e-05,6
23328,24077,8e-05,-1e-05,-5e-05,-0.00011999999999999999,-0.00018,-0.00028,-0.00016999999999999999,-1e-05,6
23329,24078,8e-05,-1e-05,-5e-05,-0.00011999999999999999,-0.00018,-0.00028,-0.00016999999999999999,-1e-05,6
23330,24079,8e-05,-1e-05,-5e-05,-0.00011999999999999999,-0.00018,-0.00028,-0.00016999999999999999,-1e-05,6
23331,24080,8e-05,-1e-05,-5e-05,-0.00011999999999999999,-0.00018,-0.00028,-0.00016999999999999999,-1e-05,6
23332,24081,8e-05,-1e-05,-5e-05,-0.00011999999999999999,-0.00018,-0.00028,-0.00016999999999999999,-1e-05,6
23333,24082,8e-05,-1e-05,-5e-05,-0.00011999999999999999,-0.00018,-0.00028,-0.00016999999999999999,-1e-05,6
23334,24083,8e-05,-1e-05,-5e-05,-0.00011999999999999999,-0.00018,-0.00028,-0.00016999999999999999,-1e-05,6
23335,24084,8e-05,-1e-05,-5e-05,-0.00011999999999999999,-0.00018,-0.00028,-0.00016999999999999999,-1e-05,6
23336,24085,8e-05,-1e-05,-5e-05,-0.00011999999999999999,-0.00018,-0.00028,-0.00016999999999999999,-1e-05,6
23337,24087,8e-05,-1e-05,-5e-05,-0.00011999999999999999,-0.00018,-0.00028,-0.00016999999999999999,-1e-05,6
23338,24089,8e-05,-1e-05,-5e-05,-0.00011999999999999999,-0.00018,-0.00028,-0.00016999999999999999,-1e-05,6
23339,24090,8e-05,-1e-05,-5e-05,-0.00011999999999999999,-0.00018,-0.00028,-0.00016999999999999999,-1e-05,6
23340,24091,8e-05,-1e-05,-5e-05,-0.00011999999999999999,-0.00018,-0.00028,-0.00016999999999999999,-1e-05,6
23341,24092,8e-05,-1e-05,-5e-05,-0.00011999999999999999,-0.00018,-0.00028,-0.00016999999999999999,-1e-05,6
23342,24093,8e-05,-1e-05,-5e-05,-0.00011999999999999999,-0.00018,-0.00028,-0.00016999999999999999,-1e-05,6
23343,24094,8e-05,-1e-05,-5e-05,-0.00011999999999999999,-0.00018,-0.00028,-0.00016999999999999999,-1e-05,6
23344,24095,8e-05,-1e-05,-5e-05,-0.00011999999999999999,-0.00018,-0.00028,-0.00016999999999999999,-1e-05,6
23345,24096,8e-05,-1e-05,-5e-05,-0.00011999999999999999,-0.00018,-0.00028,-0.00016999999999999999,-1e-05,6
23346,24097,8e-05,-1e-05,-5e-05,-0.00011999999999999999,-0.00018,-0.00028,-0.00016999999999999999,-1e-05,6
23347,24098,8e-05,-1e-05,-5e-05,-0.00011999999999999999,-0.00018,-0.00028,-0.00016999999999999999,-1e-05,6
23348,24099,8e-05,-1e-05,-5e-05,-0.00011999999999999999,-0.00018,-0.00028,-0.00016999999999999999,-1e-05,6
23349,24100,8e-05,-1e-05,-5e-05,-0.00011999999999999999,-0.00018,-0.00028,-0.00016999999999999999,-1e-05,6
23350,24101,8e-05,-1e-05,-5e-05,-0.00011999999999999999,-0.00018,-0.00028,-0.00016999999999999999,-1e-05,6
23351,24102,-7e-05,-7e-05,-2.9999999999999997e-05,-0.00011,-0.00022999999999999998,-0.00015,0.0001,-0.00011999999999999999,6
23352,24103,-5.9999999999999995e-05,-0.0001,-0.00011999999999999999,-8e-05,-7e-05,0.00018999999999999998,0.00022999999999999998,0.00016999999999999999,6
23353,24104,0.00013000000000000002,0.0001,0.00014,0.00047000000000000004,0.00085,0.00026000000000000003,0.00015,0.00018,6
23354,24105,0.00013000000000000002,0.0001,0.00014,0.00047000000000000004,0.00085,0.00026000000000000003,0.00015,0.00018,6
23355,24106,0.00013000000000000002,0.0001,0.00014,0.00047000000000000004,0.00085,0.00026000000000000003,0.00015,0.00018,6
23356,24107,0.00013000000000000002,0.0001,0.00014,0.00047000000000000004,0.00085,0.00026000000000000003,0.00015,0.00018,6
23357,24108,4e-05,2.9999999999999997e-05,5.9999999999999995e-05,0.00016999999999999999,0.00035,0.00011,0.00013000000000000002,-0.00011,6
23358,24109,4e-05,2.9999999999999997e-05,5.9999999999999995e-05,0.00016999999999999999,0.00035,0.00011,0.00013000000000000002,-0.00011,6
23359,24110,4e-05,2.9999999999999997e-05,5.9999999999999995e-05,0.00016999999999999999,0.00035,0.00011,0.00013000000000000002,-0.00011,6
23360,24111,4e-05,2.9999999999999997e-05,5.9999999999999995e-05,0.00016999999999999999,0.00035,0.00011,0.00013000000000000002,-0.00011,6
23361,24112,4e-05,2.9999999999999997e-05,5.9999999999999995e-05,0.00016999999999999999,0.00035,0.00011,0.00013000000000000002,-0.00011,6
23362,24113,4e-05,2.9999999999999997e-05,5.9999999999999995e-05,0.00016999999999999999,0.00035,0.00011,0.00013000000000000002,-0.00011,6
23363,24114,4e-05,2.9999999999999997e-05,5.9999999999999995e-05,0.00016999999999999999,0.00035,0.00011,0.00013000000000000002,-0.00011,6
23364,24115,4e-05,2.9999999999999997e-05,5.9999999999999995e-05,0.00016999999999999999,0.00035,0.00011,0.00013000000000000002,-0.00011,6
23365,24116,4e-05,2.9999999999999997e-05,5.9999999999999995e-05,0.00016999999999999999,0.00035,0.00011,0.00013000000000000002,-0.00011,6
23366,24117,4e-05,2.9999999999999997e-05,5.9999999999999995e-05,0.00016999999999999999,0.00035,0.00011,0.00013000000000000002,-0.00011,6
23367,24118,4e-05,2.9999999999999997e-05,5.9999999999999995e-05,0.00016999999999999999,0.00035,0.00011,0.00013000000000000002,-0.00011,6
23368,24119,4e-05,2.9999999999999997e-05,5.9999999999999995e-05,0.00016999999999999999,0.00035,0.00011,0.00013000000000000002,-0.00011,6
23369,24120,4e-05,2.9999999999999997e-05,5.9999999999999995e-05,0.00016999999999999999,0.00035,0.00011,0.00013000000000000002,-0.00011,6
23370,24121,4e-05,2.9999999999999997e-05,5.9999999999999995e-05,0.00016999999999999999,0.00035,0.00011,0.00013000000000000002,-0.00011,6
23371,24122,4e-05,2.9999999999999997e-05,5.9999999999999995e-05,0.00016999999999999999,0.00035,0.00011,0.00013000000000000002,-0.00011,6
23372,24123,0.0,-4e-05,-8e-05,-0.00018,-0.00021,-0.00013000000000000002,-0.00016,2.9999999999999997e-05,6
23373,24124,0.0,-4e-05,-8e-05,-0.00018,-0.00021,-0.00013000000000000002,-0.00016,2.9999999999999997e-05,6
23374,24125,-4e-05,-5e-05,-0.0001,-9e-05,-5e-05,-0.00037999999999999997,-0.0002,-8e-05,6
23375,24126,-4e-05,-5e-05,-0.0001,-9e-05,-5e-05,-0.00037999999999999997,-0.0002,-8e-05,6
23376,24127,-4e-05,-5e-05,-0.0001,-9e-05,-5e-05,-0.00037999999999999997,-0.0002,-8e-05,6
23377,24128,-4e-05,-5e-05,-0.0001,-9e-05,-5e-05,-0.00037999999999999997,-0.0002,-8e-05,6
23378,24129,-4e-05,-5e-05,-0.0001,-9e-05,-5e-05,-0.00037999999999999997,-0.0002,-8e-05,6
23379,24130,-4e-05,-5e-05,-0.0001,-9e-05,-5e-05,-0.00037999999999999997,-0.0002,-8e-05,6
23380,24131,-4e-05,-5e-05,-0.0001,-9e-05,-5e-05,-0.00037999999999999997,-0.0002,-8e-05,6
23381,24132,-4e-05,-5e-05,-0.0001,-9e-05,-5e-05,-0.00037999999999999997,-0.0002,-8e-05,6
23382,24133,-4e-05,-5e-05,-0.0001,-9e-05,-5e-05,-0.00037999999999999997,-0.0002,-8e-05,6
23383,24134,-4e-05,-5e-05,-0.0001,-9e-05,-5e-05,-0.00037999999999999997,-0.0002,-8e-05,6
23384,24135,-4e-05,-5e-05,-0.0001,-9e-05,-5e-05,-0.00037999999999999997,-0.0002,-8e-05,6
23385,24137,-4e-05,-5e-05,-0.0001,-9e-05,-5e-05,-0.00037999999999999997,-0.0002,-8e-05,6
23386,24139,-4e-05,-5e-05,-0.0001,-9e-05,-5e-05,-0.00037999999999999997,-0.0002,-8e-05,6
23387,24140,-4e-05,-5e-05,-0.0001,-9e-05,-5e-05,-0.00037999999999999997,-0.0002,-8e-05,6
23388,24141,-4e-05,-5e-05,-0.0001,-9e-05,-5e-05,-0.00037999999999999997,-0.0002,-8e-05,6
23389,24142,-4e-05,-5e-05,-0.0001,-9e-05,-5e-05,-0.00037999999999999997,-0.0002,-8e-05,6
23390,24143,-4e-05,-5e-05,-0.0001,-9e-05,-5e-05,-0.00037999999999999997,-0.0002,-8e-05,6
23391,24144,-4e-05,-5e-05,-0.0001,-9e-05,-5e-05,-0.00037999999999999997,-0.0002,-8e-05,6
23392,24145,-4e-05,-5e-05,-1e-05,-9e-05,-8e-05,-0.00011999999999999999,-0.00016,-9e-05,6
23393,24146,-4e-05,-5e-05,-1e-05,-9e-05,-8e-05,-0.00011999999999999999,-0.00016,-9e-05,6
23394,24147,-2.9999999999999997e-05,-4e-05,-2e-05,-0.00018,-0.0005200000000000001,-0.00027,0.0,-7e-05,6
23395,24148,-2.9999999999999997e-05,-4e-05,-2e-05,-0.00018,-0.0005200000000000001,-0.00027,0.0,-7e-05,6
23396,24149,-2.9999999999999997e-05,-4e-05,-2e-05,-0.00018,-0.0005200000000000001,-0.00027,0.0,-7e-05,6
23397,24150,-2.9999999999999997e-05,-4e-05,-2e-05,-0.00018,-0.0005200000000000001,-0.00027,0.0,-7e-05,6
23398,24151,-2.9999999999999997e-05,-4e-05,-2e-05,-0.00018,-0.0005200000000000001,-0.00027,0.0,-7e-05,6
23399,24152,-2.9999999999999997e-05,-4e-05,-2e-05,-0.00018,-0.0005200000000000001,-0.00027,0.0,-7e-05,6
23400,24153,-2.9999999999999997e-05,-4e-05,-2e-05,-0.00018,-0.0005200000000000001,-0.00027,0.0,-7e-05,6
23401,24154,-2.9999999999999997e-05,-4e-05,-2e-05,-0.00018,-0.0005200000000000001,-0.00027,0.0,-7e-05,6
23402,24155,-2.9999999999999997e-05,-4e-05,-2e-05,-0.00018,-0.0005200000000000001,-0.00027,0.0,-7e-05,6
23403,24156,-2.9999999999999997e-05,-4e-05,-2e-05,-0.00018,-0.0005200000000000001,-0.00027,0.0,-7e-05,6
23404,24157,-2.9999999999999997e-05,-4e-05,-2e-05,-0.00018,-0.0005200000000000001,-0.00027,0.0,-7e-05,6
23405,24158,-2.9999999999999997e-05,-4e-05,-2e-05,-0.00018,-0.0005200000000000001,-0.00027,0.0,-7e-05,6
23406,24159,0.00011,0.0,-5.9999999999999995e-05,-0.00014,-0.00047000000000000004,-8e-05,-2.9999999999999997e-05,0.00014,6
23407,24160,0.00011,0.0,-5.9999999999999995e-05,-0.00014,-0.00047000000000000004,-8e-05,-2.9999999999999997e-05,0.00014,6
23408,24161,0.00011,0.0,-5.9999999999999995e-05,-0.00014,-0.00047000000000000004,-8e-05,-2.9999999999999997e-05,0.00014,6
23409,24162,0.00011,0.0,-5.9999999999999995e-05,-0.00014,-0.00047000000000000004,-8e-05,-2.9999999999999997e-05,0.00014,6
23410,24163,0.00011,0.0,-5.9999999999999995e-05,-0.00014,-0.00047000000000000004,-8e-05,-2.9999999999999997e-05,0.00014,6
23411,24164,0.00011,0.0,-5.9999999999999995e-05,-0.00014,-0.00047000000000000004,-8e-05,-2.9999999999999997e-05,0.00014,6
23412,24165,0.00011,0.0,-5.9999999999999995e-05,-0.00014,-0.00047000000000000004,-8e-05,-2.9999999999999997e-05,0.00014,6
23413,24166,-8e-05,0.0,-2.9999999999999997e-05,-5.9999999999999995e-05,-5.9999999999999995e-05,-0.00018,-0.00016999999999999999,-0.00013000000000000002,6
23414,24167,-8e-05,0.0,-2.9999999999999997e-05,-5.9999999999999995e-05,-5.9999999999999995e-05,-0.00018,-0.00016999999999999999,-0.00013000000000000002,6
23415,24168,-8e-05,0.0,-2.9999999999999997e-05,-5.9999999999999995e-05,-5.9999999999999995e-05,-0.00018,-0.00016999999999999999,-0.00013000000000000002,6
23416,24169,-8e-05,0.0,-2.9999999999999997e-05,-5.9999999999999995e-05,-5.9999999999999995e-05,-0.00018,-0.00016999999999999999,-0.00013000000000000002,6
23417,24170,-8e-05,0.0,-2.9999999999999997e-05,-5.9999999999999995e-05,-5.9999999999999995e-05,-0.00018,-0.00016999999999999999,-0.00013000000000000002,6
23418,24171,-8e-05,0.0,-2.9999999999999997e-05,-5.9999999999999995e-05,-5.9999999999999995e-05,-0.00018,-0.00016999999999999999,-0.00013000000000000002,6
23419,24172,-8e-05,0.0,-2.9999999999999997e-05,-5.9999999999999995e-05,-5.9999999999999995e-05,-0.00018,-0.00016999999999999999,-0.00013000000000000002,6
23420,24173,-8e-05,0.0,-2.9999999999999997e-05,-5.9999999999999995e-05,-5.9999999999999995e-05,-0.00018,-0.00016999999999999999,-0.00013000000000000002,6
23421,24174,-8e-05,0.0,-2.9999999999999997e-05,-5.9999999999999995e-05,-5.9999999999999995e-05,-0.00018,-0.00016999999999999999,-0.00013000000000000002,6
23422,24175,-8e-05,0.0,-2.9999999999999997e-05,-5.9999999999999995e-05,-5.9999999999999995e-05,-0.00018,-0.00016999999999999999,-0.00013000000000000002,6
23423,24176,-8e-05,0.0,-2.9999999999999997e-05,-5.9999999999999995e-05,-5.9999999999999995e-05,-0.00018,-0.00016999999999999999,-0.00013000000000000002,6
23424,24177,-8e-05,0.0,-2.9999999999999997e-05,-5.9999999999999995e-05,-5.9999999999999995e-05,-0.00018,-0.00016999999999999999,-0.00013000000000000002,6
23425,24178,-8e-05,0.0,-2.9999999999999997e-05,-5.9999999999999995e-05,-5.9999999999999995e-05,-0.00018,-0.00016999999999999999,-0.00013000000000000002,6
23426,24179,-8e-05,0.0,-2.9999999999999997e-05,-5.9999999999999995e-05,-5.9999999999999995e-05,-0.00018,-0.00016999999999999999,-0.00013000000000000002,6
23427,24180,-8e-05,0.0,-2.9999999999999997e-05,-5.9999999999999995e-05,-5.9999999999999995e-05,-0.00018,-0.00016999999999999999,-0.00013000000000000002,6
23428,24181,-8e-05,0.0,-2.9999999999999997e-05,-5.9999999999999995e-05,-5.9999999999999995e-05,-0.00018,-0.00016999999999999999,-0.00013000000000000002,6
23429,24182,-7e-05,-5.9999999999999995e-05,0.0,0.0001,8e-05,0.00031,0.00022999999999999998,0.00014,6
23430,24183,-2e-05,-5e-05,-8e-05,-0.00018,4e-05,-8e-05,-0.0001,8e-05,6
23431,24184,-7e-05,-5e-05,-5.9999999999999995e-05,-2.9999999999999997e-05,1e-05,-2.9999999999999997e-05,-8e-05,-0.00014,6
23432,24185,-7e-05,-5e-05,-5.9999999999999995e-05,-2.9999999999999997e-05,1e-05,-2.9999999999999997e-05,-8e-05,-0.00014,6
23433,24186,-7e-05,-5e-05,-5.9999999999999995e-05,-2.9999999999999997e-05,1e-05,-2.9999999999999997e-05,-8e-05,-0.00014,6
23434,24188,-7e-05,-5e-05,-5.9999999999999995e-05,-2.9999999999999997e-05,1e-05,-2.9999999999999997e-05,-8e-05,-0.00014,6
23435,24189,-7e-05,-5e-05,-5.9999999999999995e-05,-2.9999999999999997e-05,1e-05,-2.9999999999999997e-05,-8e-05,-0.00014,6
23436,24190,-7e-05,-5e-05,-5.9999999999999995e-05,-2.9999999999999997e-05,1e-05,-2.9999999999999997e-05,-8e-05,-0.00014,6
23437,24191,-7e-05,-5e-05,-5.9999999999999995e-05,-2.9999999999999997e-05,1e-05,-2.9999999999999997e-05,-8e-05,-0.00014,6
23438,24192,-7e-05,-5e-05,-5.9999999999999995e-05,-2.9999999999999997e-05,1e-05,-2.9999999999999997e-05,-8e-05,-0.00014,6
23439,24193,-7e-05,-5e-05,-5.9999999999999995e-05,-2.9999999999999997e-05,1e-05,-2.9999999999999997e-05,-8e-05,-0.00014,6
23440,24194,-7e-05,-5e-05,-5.9999999999999995e-05,-2.9999999999999997e-05,1e-05,-2.9999999999999997e-05,-8e-05,-0.00014,6
23441,24195,-7e-05,-5e-05,-5.9999999999999995e-05,-2.9999999999999997e-05,1e-05,-2.9999999999999997e-05,-8e-05,-0.00014,6
23442,24196,-7e-05,-5e-05,-5.9999999999999995e-05,-2.9999999999999997e-05,1e-05,-2.9999999999999997e-05,-8e-05,-0.00014,6
23443,24197,-7e-05,-5e-05,-5.9999999999999995e-05,-2.9999999999999997e-05,1e-05,-2.9999999999999997e-05,-8e-05,-0.00014,6
23444,24198,-7e-05,-5e-05,-5.9999999999999995e-05,-2.9999999999999997e-05,1e-05,-2.9999999999999997e-05,-8e-05,-0.00014,6
23445,24199,-7e-05,-5e-05,-5.9999999999999995e-05,-2.9999999999999997e-05,1e-05,-2.9999999999999997e-05,-8e-05,-0.00014,6
23446,24200,-7e-05,-5e-05,-5.9999999999999995e-05,-2.9999999999999997e-05,1e-05,-2.9999999999999997e-05,-8e-05,-0.00014,6
23447,24201,-7e-05,-5e-05,-5.9999999999999995e-05,-2.9999999999999997e-05,1e-05,-2.9999999999999997e-05,-8e-05,-0.00014,6
23448,24202,-7e-05,-5e-05,-5.9999999999999995e-05,-2.9999999999999997e-05,1e-05,-2.9999999999999997e-05,-8e-05,-0.00014,6
23449,24203,-7e-05,-5e-05,-5.9999999999999995e-05,-2.9999999999999997e-05,1e-05,-2.9999999999999997e-05,-8e-05,-0.00014,6
23450,24204,-7e-05,-5e-05,-5.9999999999999995e-05,-2.9999999999999997e-05,1e-05,-2.9999999999999997e-05,-8e-05,-0.00014,6
23451,24205,-0.00011,-4e-05,-7e-05,-0.00013000000000000002,-0.00015,-0.00016999999999999999,-8e-05,-0.0002,6
23452,24206,-0.00011,-4e-05,-7e-05,-0.00013000000000000002,-0.00015,-0.00016999999999999999,-8e-05,-0.0002,6
23453,24207,7e-05,5e-05,0.0,-9e-05,-5.9999999999999995e-05,0.0001,5e-05,7e-05,6
23454,24208,7e-05,5e-05,0.0,-9e-05,-5.9999999999999995e-05,0.0001,5e-05,7e-05,6
23455,24209,7e-05,5e-05,0.0,-9e-05,-5.9999999999999995e-05,0.0001,5e-05,7e-05,6
23456,24210,7e-05,5e-05,0.0,-9e-05,-5.9999999999999995e-05,0.0001,5e-05,7e-05,6
23457,24211,7e-05,5e-05,0.0,-9e-05,-5.9999999999999995e-05,0.0001,5e-05,7e-05,6
23458,24212,7e-05,5e-05,0.0,-9e-05,-5.9999999999999995e-05,0.0001,5e-05,7e-05,6
23459,24213,7e-05,5e-05,0.0,-9e-05,-5.9999999999999995e-05,0.0001,5e-05,7e-05,6
23460,24214,7e-05,5e-05,0.0,-9e-05,-5.9999999999999995e-05,0.0001,5e-05,7e-05,6
23461,24215,7e-05,5e-05,0.0,-9e-05,-5.9999999999999995e-05,0.0001,5e-05,7e-05,6
23462,24216,7e-05,5e-05,0.0,-9e-05,-5.9999999999999995e-05,0.0001,5e-05,7e-05,6
23463,24217,7e-05,5e-05,0.0,-9e-05,-5.9999999999999995e-05,0.0001,5e-05,7e-05,6
23464,24218,7e-05,5e-05,0.0,-9e-05,-5.9999999999999995e-05,0.0001,5e-05,7e-05,6
23465,24219,0.0001,0.0,-2.9999999999999997e-05,4e-05,8e-05,0.00016999999999999999,7e-05,0.00013000000000000002,6
23466,24220,0.0001,0.0,-2.9999999999999997e-05,4e-05,8e-05,0.00016999999999999999,7e-05,0.00013000000000000002,6
23467,24221,0.0001,0.0,-2.9999999999999997e-05,4e-05,8e-05,0.00016999999999999999,7e-05,0.00013000000000000002,6
23468,24222,0.0001,0.0,-2.9999999999999997e-05,4e-05,8e-05,0.00016999999999999999,7e-05,0.00013000000000000002,6
23469,24223,0.0001,0.0,-2.9999999999999997e-05,4e-05,8e-05,0.00016999999999999999,7e-05,0.00013000000000000002,6
23470,24224,0.0001,0.0,-2.9999999999999997e-05,4e-05,8e-05,0.00016999999999999999,7e-05,0.00013000000000000002,6
23471,24225,0.0001,0.0,-2.9999999999999997e-05,4e-05,8e-05,0.00016999999999999999,7e-05,0.00013000000000000002,6
23472,24226,-5e-05,-5.9999999999999995e-05,-8e-05,0.0,0.0002,0.00026000000000000003,-9e-05,-1e-05,6
23473,24227,-5e-05,-5.9999999999999995e-05,-8e-05,0.0,0.0002,0.00026000000000000003,-9e-05,-1e-05,6
23474,24228,-5e-05,-5.9999999999999995e-05,-8e-05,0.0,0.0002,0.00026000000000000003,-9e-05,-1e-05,6
23475,24229,-5e-05,-5.9999999999999995e-05,-8e-05,0.0,0.0002,0.00026000000000000003,-9e-05,-1e-05,6
23476,24230,-5e-05,-5.9999999999999995e-05,-8e-05,0.0,0.0002,0.00026000000000000003,-9e-05,-1e-05,6
23477,24231,-5e-05,-5.9999999999999995e-05,-8e-05,0.0,0.0002,0.00026000000000000003,-9e-05,-1e-05,6
23478,24232,-5e-05,-5.9999999999999995e-05,-8e-05,0.0,0.0002,0.00026000000000000003,-9e-05,-1e-05,6
23479,24233,-5e-05,-5.9999999999999995e-05,-8e-05,0.0,0.0002,0.00026000000000000003,-9e-05,-1e-05,6
23480,24234,-5e-05,-5.9999999999999995e-05,-8e-05,0.0,0.0002,0.00026000000000000003,-9e-05,-1e-05,6
23481,24235,-5e-05,-5.9999999999999995e-05,-8e-05,0.0,0.0002,0.00026000000000000003,-9e-05,-1e-05,6
23482,24236,-5e-05,-5.9999999999999995e-05,-8e-05,0.0,0.0002,0.00026000000000000003,-9e-05,-1e-05,6
23483,24238,-5e-05,-5.9999999999999995e-05,-8e-05,0.0,0.0002,0.00026000000000000003,-9e-05,-1e-05,6
23484,24239,-5e-05,-5.9999999999999995e-05,-8e-05,0.0,0.0002,0.00026000000000000003,-9e-05,-1e-05,6
23485,24240,-5e-05,-5.9999999999999995e-05,-8e-05,0.0,0.0002,0.00026000000000000003,-9e-05,-1e-05,6
23486,24241,-5e-05,-5.9999999999999995e-05,-8e-05,0.0,0.0002,0.00026000000000000003,-9e-05,-1e-05,6
23487,24242,9e-05,7e-05,1e-05,5e-05,2.9999999999999997e-05,-7e-05,5e-05,-7e-05,6
23488,24243,4e-05,8e-05,4e-05,-5e-05,-0.00028,-0.00027,-2.9999999999999997e-05,-5e-05,6
23489,24244,-4e-05,-2.9999999999999997e-05,-1e-05,-5.9999999999999995e-05,-0.00033999999999999997,-2.9999999999999997e-05,0.0002,-0.00022999999999999998,6
23490,24245,-4e-05,-2.9999999999999997e-05,-1e-05,-5.9999999999999995e-05,-0.00033999999999999997,-2.9999999999999997e-05,0.0002,-0.00022999999999999998,6
23491,24246,-4e-05,-2.9999999999999997e-05,-1e-05,-5.9999999999999995e-05,-0.00033999999999999997,-2.9999999999999997e-05,0.0002,-0.00022999999999999998,6
23492,24247,-4e-05,-2.9999999999999997e-05,-1e-05,-5.9999999999999995e-05,-0.00033999999999999997,-2.9999999999999997e-05,0.0002,-0.00022999999999999998,6
23493,24248,-4e-05,-2.9999999999999997e-05,-1e-05,-5.9999999999999995e-05,-0.00033999999999999997,-2.9999999999999997e-05,0.0002,-0.00022999999999999998,6
23494,24249,-4e-05,-2.9999999999999997e-05,-1e-05,-5.9999999999999995e-05,-0.00033999999999999997,-2.9999999999999997e-05,0.0002,-0.00022999999999999998,6
23495,24250,-4e-05,-2.9999999999999997e-05,-1e-05,-5.9999999999999995e-05,-0.00033999999999999997,-2.9999999999999997e-05,0.0002,-0.00022999999999999998,6
23496,24251,-4e-05,-2.9999999999999997e-05,-1e-05,-5.9999999999999995e-05,-0.00033999999999999997,-2.9999999999999997e-05,0.0002,-0.00022999999999999998,6
23497,24252,-4e-05,-2.9999999999999997e-05,-1e-05,-5.9999999999999995e-05,-0.00033999999999999997,-2.9999999999999997e-05,0.0002,-0.00022999999999999998,6
23498,24253,-4e-05,-2.9999999999999997e-05,-1e-05,-5.9999999999999995e-05,-0.00033999999999999997,-2.9999999999999997e-05,0.0002,-0.00022999999999999998,6
23499,24254,-4e-05,-2.9999999999999997e-05,-1e-05,-5.9999999999999995e-05,-0.00033999999999999997,-2.9999999999999997e-05,0.0002,-0.00022999999999999998,6
23500,24255,-4e-05,-2.9999999999999997e-05,-1e-05,-5.9999999999999995e-05,-0.00033999999999999997,-2.9999999999999997e-05,0.0002,-0.00022999999999999998,6
23501,24256,-4e-05,-2.9999999999999997e-05,-1e-05,-5.9999999999999995e-05,-0.00033999999999999997,-2.9999999999999997e-05,0.0002,-0.00022999999999999998,6
23502,24257,-4e-05,-2.9999999999999997e-05,-1e-05,-5.9999999999999995e-05,-0.00033999999999999997,-2.9999999999999997e-05,0.0002,-0.00022999999999999998,6
23503,24258,-4e-05,-2.9999999999999997e-05,-1e-05,-5.9999999999999995e-05,-0.00033999999999999997,-2.9999999999999997e-05,0.0002,-0.00022999999999999998,6
23504,24259,-4e-05,-2.9999999999999997e-05,-1e-05,-5.9999999999999995e-05,-0.00033999999999999997,-2.9999999999999997e-05,0.0002,-0.00022999999999999998,6
23505,24260,-4e-05,-2.9999999999999997e-05,-1e-05,-5.9999999999999995e-05,-0.00033999999999999997,-2.9999999999999997e-05,0.0002,-0.00022999999999999998,6
23506,24261,-4e-05,-2.9999999999999997e-05,-1e-05,-5.9999999999999995e-05,-0.00033999999999999997,-2.9999999999999997e-05,0.0002,-0.00022999999999999998,6
23507,24262,-4e-05,-2.9999999999999997e-05,-1e-05,-5.9999999999999995e-05,-0.00033999999999999997,-2.9999999999999997e-05,0.0002,-0.00022999999999999998,6
23508,24263,-4e-05,-2.9999999999999997e-05,-1e-05,-5.9999999999999995e-05,-0.00033999999999999997,-2.9999999999999997e-05,0.0002,-0.00022999999999999998,6
23509,24264,-4e-05,-2.9999999999999997e-05,-1e-05,-5.9999999999999995e-05,-0.00033999999999999997,-2.9999999999999997e-05,0.0002,-0.00022999999999999998,6
23510,24265,0.0,-4e-05,0.0,-1e-05,0.00033999999999999997,0.00018999999999999998,-9e-05,-1e-05,6
23511,24266,0.0,-4e-05,0.0,-1e-05,0.00033999999999999997,0.00018999999999999998,-9e-05,-1e-05,6
23512,24267,0.0,-4e-05,0.0,-1e-05,0.00033999999999999997,0.00018999999999999998,-9e-05,-1e-05,6
23513,24268,0.0,-4e-05,0.0,-1e-05,0.00033999999999999997,0.00018999999999999998,-9e-05,-1e-05,6
23514,24269,0.0,-4e-05,0.0,-1e-05,0.00033999999999999997,0.00018999999999999998,-9e-05,-1e-05,6
23515,24270,0.0,-4e-05,0.0,-1e-05,0.00033999999999999997,0.00018999999999999998,-9e-05,-1e-05,6
23516,24271,0.0,-4e-05,0.0,-1e-05,0.00033999999999999997,0.00018999999999999998,-9e-05,-1e-05,6
23517,24272,5.9999999999999995e-05,5e-05,9e-05,0.00033999999999999997,0.0007099999999999999,0.00022,4e-05,7e-05,6
23518,24273,5.9999999999999995e-05,5e-05,9e-05,0.00033999999999999997,0.0007099999999999999,0.00022,4e-05,7e-05,6
23519,24274,5.9999999999999995e-05,5e-05,9e-05,0.00033999999999999997,0.0007099999999999999,0.00022,4e-05,7e-05,6
23520,24275,5.9999999999999995e-05,5e-05,9e-05,0.00033999999999999997,0.0007099999999999999,0.00022,4e-05,7e-05,6
