,time,channel1,channel2,channel3,channel4,channel5,channel6,channel7,channel8,class
28231,29767,0.00018,8e-05,-2.9999999999999997e-05,-9e-05,0.00016999999999999999,0.0001,1e-05,-5e-05,6
28232,29768,0.00025,2.9999999999999997e-05,0.0,9e-05,0.0,-0.00016,-9e-05,0.0,6
28233,29769,0.00025,2.9999999999999997e-05,0.0,9e-05,0.0,-0.00016,-9e-05,0.0,6
28234,29770,-0.00028,-0.00016,-0.00031,-0.0003,-0.00061,-0.00057,-0.00015,-0.00022,6
28235,29771,-0.00028,-0.00016,-0.00031,-0.0003,-0.00061,-0.00057,-0.00015,-0.00022,6
28236,29772,-0.00028,-0.00016,-0.00031,-0.0003,-0.00061,-0.00057,-0.00015,-0.00022,6
28237,29773,-0.00028,-0.00016,-0.00031,-0.0003,-0.00061,-0.00057,-0.00015,-0.00022,6
28238,29774,-0.00028,-0.00016,-0.00031,-0.0003,-0.00061,-0.00057,-0.00015,-0.00022,6
28239,29775,-0.00028,-0.00016,-0.00031,-0.0003,-0.00061,-0.00057,-0.00015,-0.00022,6
28240,29776,-0.00028,-0.00016,-0.00031,-0.0003,-0.00061,-0.00057,-0.00015,-0.00022,6
28241,29777,-0.00028,-0.00016,-0.00031,-0.0003,-0.00061,-0.00057,-0.00015,-0.00022,6
28242,29778,-0.00028,-0.00016,-0.00031,-0.0003,-0.00061,-0.00057,-0.00015,-0.00022,6
28243,29779,-0.00028,-0.00016,-0.00031,-0.0003,-0.00061,-0.00057,-0.00015,-0.00022,6
28244,29780,-0.00028,-0.00016,-0.00031,-0.0003,-0.00061,-0.00057,-0.00015,-0.00022,6
28245,29781,-0.00028,-0.00016,-0.00031,-0.0003,-0.00061,-0.00057,-0.00015,-0.00022,6
28246,29782,-0.00028,-0.00016,-0.00031,-0.0003,-0.00061,-0.00057,-0.00015,-0.00022,6
28247,29783,-0.00028,-0.00016,-0.00031,-0.0003,-0.00061,-0.00057,-0.00015,-0.00022,6
28248,29784,-0.00028,-0.00016,-0.00031,-0.0003,-0.00061,-0.00057,-0.00015,-0.00022,6
28249,29785,-0.00028,-0.00016,-0.00031,-0.0003,-0.00061,-0.00057,-0.00015,-0.00022,6
28250,29787,-0.00028,-0.00016,-0.00031,-0.0003,-0.00061,-0.00057,-0.00015,-0.00022,6
28251,29789,-0.00028,-0.00016,-0.00031,-0.0003,-0.00061,-0.00057,-0.00015,-0.00022,6
28252,29791,-2.9999999999999997e-05,8e-05,-5e-05,4e-05,-7e-05,-0.00016999999999999999,-0.00014,7e-05,6
28253,29792,-4e-05,-0.00018999999999999998,-0.00015,-7e-05,-0.00044,-0.00064,-0.00026000000000000003,2e-05,6
28254,29793,-4e-05,-0.00018999999999999998,-0.00015,-7e-05,-0.00044,-0.00064,-0.00026000000000000003,2e-05,6
28255,29794,-4e-05,-0.00018999999999999998,-0.00015,-7e-05,-0.00044,-0.00064,-0.00026000000000000003,2e-05,6
28256,29795,-4e-05,-0.00018999999999999998,-0.00015,-7e-05,-0.00044,-0.00064,-0.00026000000000000003,2e-05,6
28257,29796,-4e-05,-0.00018999999999999998,-0.00015,-7e-05,-0.00044,-0.00064,-0.00026000000000000003,2e-05,6
28258,29797,-4e-05,-0.00018999999999999998,-0.00015,-7e-05,-0.00044,-0.00064,-0.00026000000000000003,2e-05,6
28259,29798,-4e-05,-0.00018999999999999998,-0.00015,-7e-05,-0.00044,-0.00064,-0.00026000000000000003,2e-05,6
28260,29799,-4e-05,-0.00018999999999999998,-0.00015,-7e-05,-0.00044,-0.00064,-0.00026000000000000003,2e-05,6
28261,29800,-4e-05,-0.00018999999999999998,-0.00015,-7e-05,-0.00044,-0.00064,-0.00026000000000000003,2e-05,6
28262,29801,-4e-05,-0.00018999999999999998,-0.00015,-7e-05,-0.00044,-0.00064,-0.00026000000000000003,2e-05,6
28263,29802,-4e-05,-0.00018999999999999998,-0.00015,-7e-05,-0.00044,-0.00064,-0.00026000000000000003,2e-05,6
28264,29803,-4e-05,-0.00018999999999999998,-0.00015,-7e-05,-0.00044,-0.00064,-0.00026000000000000003,2e-05,6
28265,29804,-4e-05,-0.00018999999999999998,-0.00015,-7e-05,-0.00044,-0.00064,-0.00026000000000000003,2e-05,6
28266,29805,-4e-05,-0.00018999999999999998,-0.00015,-7e-05,-0.00044,-0.00064,-0.00026000000000000003,2e-05,6
28267,29806,-0.0005200000000000001,-0.00015,-7e-05,-0.00015,-0.00011999999999999999,-0.00025,-1e-05,-0.00036,6
28268,29807,0.00014,5e-05,0.0,-1e-05,-0.00015,-0.00011,5.9999999999999995e-05,0.00015,6
28269,29808,0.00014,5e-05,0.0,-1e-05,-0.00015,-0.00011,5.9999999999999995e-05,0.00015,6
28270,29809,0.00014,5e-05,0.0,-1e-05,-0.00015,-0.00011,5.9999999999999995e-05,0.00015,6
28271,29810,0.00014,5e-05,0.0,-1e-05,-0.00015,-0.00011,5.9999999999999995e-05,0.00015,6
28272,29811,0.00014,5e-05,0.0,-1e-05,-0.00015,-0.00011,5.9999999999999995e-05,0.00015,6
28273,29812,0.00014,5e-05,0.0,-1e-05,-0.00015,-0.00011,5.9999999999999995e-05,0.00015,6
28274,29813,0.00014,5e-05,0.0,-1e-05,-0.00015,-0.00011,5.9999999999999995e-05,0.00015,6
28275,29814,0.00014,5e-05,0.0,-1e-05,-0.00015,-0.00011,5.9999999999999995e-05,0.00015,6
28276,29815,0.00014,5e-05,0.0,-1e-05,-0.00015,-0.00011,5.9999999999999995e-05,0.00015,6
28277,29816,0.00014,5e-05,0.0,-1e-05,-0.00015,-0.00011,5.9999999999999995e-05,0.00015,6
28278,29817,0.00014,5e-05,0.0,-1e-05,-0.00015,-0.00011,5.9999999999999995e-05,0.00015,6
28279,29818,0.00014,5e-05,0.0,-1e-05,-0.00015,-0.00011,5.9999999999999995e-05,0.00015,6
28280,29819,0.00014,5e-05,0.0,-1e-05,-0.00015,-0.00011,5.9999999999999995e-05,0.00015,6
28281,29820,0.00014,5e-05,0.0,-1e-05,-0.00015,-0.00011,5.9999999999999995e-05,0.00015,6
28282,29821,0.00014,5e-05,0.0,-1e-05,-0.00015,-0.00011,5.9999999999999995e-05,0.00015,6
28283,29822,0.00014,5e-05,0.0,-1e-05,-0.00015,-0.00011,5.9999999999999995e-05,0.00015,6
28284,29823,0.00014,5e-05,0.0,-1e-05,-0.00015,-0.00011,5.9999999999999995e-05,0.00015,6
28285,29824,0.00014,5e-05,0.0,-1e-05,-0.00015,-0.00011,5.9999999999999995e-05,0.00015,6
28286,29825,0.00014,5e-05,0.0,-1e-05,-0.00015,-0.00011,5.9999999999999995e-05,0.00015,6
28287,29826,0.00014,5e-05,0.0,-1e-05,-0.00015,-0.00011,5.9999999999999995e-05,0.00015,6
28288,29827,0.00014,5e-05,0.0,-1e-05,-0.00015,-0.00011,5.9999999999999995e-05,0.00015,6
28289,29828,-0.00014,-0.0001,9e-05,0.00016,0.0,-0.0001,-8e-05,-0.00033999999999999997,6
28290,29829,0.00022999999999999998,5e-05,-0.00011,-0.00018,-0.00023999999999999998,1e-05,0.0001,0.00029,6
28291,29830,0.00022999999999999998,5e-05,-0.00011,-0.00018,-0.00023999999999999998,1e-05,0.0001,0.00029,6
28292,29831,0.00022999999999999998,5e-05,-0.00011,-0.00018,-0.00023999999999999998,1e-05,0.0001,0.00029,6
28293,29832,0.00022999999999999998,5e-05,-0.00011,-0.00018,-0.00023999999999999998,1e-05,0.0001,0.00029,6
28294,29833,0.00022999999999999998,5e-05,-0.00011,-0.00018,-0.00023999999999999998,1e-05,0.0001,0.00029,6
28295,29834,0.00022999999999999998,5e-05,-0.00011,-0.00018,-0.00023999999999999998,1e-05,0.0001,0.00029,6
28296,29835,0.00022999999999999998,5e-05,-0.00011,-0.00018,-0.00023999999999999998,1e-05,0.0001,0.00029,6
28297,29836,0.00022999999999999998,5e-05,-0.00011,-0.00018,-0.00023999999999999998,1e-05,0.0001,0.00029,6
28298,29838,0.00022999999999999998,5e-05,-0.00011,-0.00018,-0.00023999999999999998,1e-05,0.0001,0.00029,6
28299,29839,0.00022999999999999998,5e-05,-0.00011,-0.00018,-0.00023999999999999998,1e-05,0.0001,0.00029,6
28300,29840,0.00022999999999999998,5e-05,-0.00011,-0.00018,-0.00023999999999999998,1e-05,0.0001,0.00029,6
28301,29841,0.00022999999999999998,5e-05,-0.00011,-0.00018,-0.00023999999999999998,1e-05,0.0001,0.00029,6
28302,29842,0.00022999999999999998,5e-05,-0.00011,-0.00018,-0.00023999999999999998,1e-05,0.0001,0.00029,6
28303,29843,0.00022999999999999998,5e-05,-0.00011,-0.00018,-0.00023999999999999998,1e-05,0.0001,0.00029,6
28304,29844,0.00022999999999999998,5e-05,-0.00011,-0.00018,-0.00023999999999999998,1e-05,0.0001,0.00029,6
28305,29845,0.00022999999999999998,5e-05,-0.00011,-0.00018,-0.00023999999999999998,1e-05,0.0001,0.00029,6
28306,29846,0.00022999999999999998,5e-05,-0.00011,-0.00018,-0.00023999999999999998,1e-05,0.0001,0.00029,6
28307,29847,0.00022999999999999998,5e-05,-0.00011,-0.00018,-0.00023999999999999998,1e-05,0.0001,0.00029,6
28308,29848,0.00022999999999999998,5e-05,-0.00011,-0.00018,-0.00023999999999999998,1e-05,0.0001,0.00029,6
28309,29849,0.00022999999999999998,5e-05,-0.00011,-0.00018,-0.00023999999999999998,1e-05,0.0001,0.00029,6
28310,29850,0.00022999999999999998,5e-05,-0.00011,-0.00018,-0.00023999999999999998,1e-05,0.0001,0.00029,6
28311,29851,-5e-05,2e-05,1e-05,1e-05,-0.00011999999999999999,2.9999999999999997e-05,-2.9999999999999997e-05,-0.00013000000000000002,6
28312,29852,-0.00015,1e-05,2.9999999999999997e-05,0.0001,0.00035,-2e-05,-5.9999999999999995e-05,0.0001,6
28313,29853,-0.00015,1e-05,2.9999999999999997e-05,0.0001,0.00035,-2e-05,-5.9999999999999995e-05,0.0001,6
28314,29854,-0.00015,1e-05,2.9999999999999997e-05,0.0001,0.00035,-2e-05,-5.9999999999999995e-05,0.0001,6
28315,29855,-0.00015,1e-05,2.9999999999999997e-05,0.0001,0.00035,-2e-05,-5.9999999999999995e-05,0.0001,6
28316,29856,-0.00015,1e-05,2.9999999999999997e-05,0.0001,0.00035,-2e-05,-5.9999999999999995e-05,0.0001,6
28317,29857,-0.00015,1e-05,2.9999999999999997e-05,0.0001,0.00035,-2e-05,-5.9999999999999995e-05,0.0001,6
28318,29858,-0.00015,1e-05,2.9999999999999997e-05,0.0001,0.00035,-2e-05,-5.9999999999999995e-05,0.0001,6
28319,29859,-0.00015,1e-05,2.9999999999999997e-05,0.0001,0.00035,-2e-05,-5.9999999999999995e-05,0.0001,6
28320,29860,-0.00015,1e-05,2.9999999999999997e-05,0.0001,0.00035,-2e-05,-5.9999999999999995e-05,0.0001,6
28321,29861,-0.00015,1e-05,2.9999999999999997e-05,0.0001,0.00035,-2e-05,-5.9999999999999995e-05,0.0001,6
28322,29862,-0.00015,1e-05,2.9999999999999997e-05,0.0001,0.00035,-2e-05,-5.9999999999999995e-05,0.0001,6
28323,29863,-0.00015,1e-05,2.9999999999999997e-05,0.0001,0.00035,-2e-05,-5.9999999999999995e-05,0.0001,6
28324,29864,-0.00015,1e-05,2.9999999999999997e-05,0.0001,0.00035,-2e-05,-5.9999999999999995e-05,0.0001,6
28325,29865,-0.00015,1e-05,2.9999999999999997e-05,0.0001,0.00035,-2e-05,-5.9999999999999995e-05,0.0001,6
28326,29866,-5e-05,0.00011999999999999999,-5.9999999999999995e-05,-1e-05,5.9999999999999995e-05,0.00016999999999999999,0.00011999999999999999,0.0001,6
28327,29867,0.00062,9e-05,0.0001,0.0001,0.00015,0.00025,-1e-05,9e-05,6
28328,29868,0.00062,9e-05,0.0001,0.0001,0.00015,0.00025,-1e-05,9e-05,6
28329,29869,0.00062,9e-05,0.0001,0.0001,0.00015,0.00025,-1e-05,9e-05,6
28330,29870,0.00062,9e-05,0.0001,0.0001,0.00015,0.00025,-1e-05,9e-05,6
28331,29871,0.00062,9e-05,0.0001,0.0001,0.00015,0.00025,-1e-05,9e-05,6
28332,29872,0.00062,9e-05,0.0001,0.0001,0.00015,0.00025,-1e-05,9e-05,6
28333,29873,0.00062,9e-05,0.0001,0.0001,0.00015,0.00025,-1e-05,9e-05,6
28334,29874,0.00062,9e-05,0.0001,0.0001,0.00015,0.00025,-1e-05,9e-05,6
28335,29875,0.00062,9e-05,0.0001,0.0001,0.00015,0.00025,-1e-05,9e-05,6
28336,29876,0.00062,9e-05,0.0001,0.0001,0.00015,0.00025,-1e-05,9e-05,6
28337,29877,0.00062,9e-05,0.0001,0.0001,0.00015,0.00025,-1e-05,9e-05,6
28338,29879,0.00062,9e-05,0.0001,0.0001,0.00015,0.00025,-1e-05,9e-05,6
28339,29880,0.00062,9e-05,0.0001,0.0001,0.00015,0.00025,-1e-05,9e-05,6
28340,29881,0.00062,9e-05,0.0001,0.0001,0.00015,0.00025,-1e-05,9e-05,6
28341,29882,0.00062,9e-05,0.0001,0.0001,0.00015,0.00025,-1e-05,9e-05,6
28342,29883,0.00062,9e-05,0.0001,0.0001,0.00015,0.00025,-1e-05,9e-05,6
28343,29884,0.00062,9e-05,0.0001,0.0001,0.00015,0.00025,-1e-05,9e-05,6
28344,29885,0.00062,9e-05,0.0001,0.0001,0.00015,0.00025,-1e-05,9e-05,6
28345,29886,0.00062,9e-05,0.0001,0.0001,0.00015,0.00025,-1e-05,9e-05,6
28346,29889,-2.9999999999999997e-05,-0.00018,-0.00028,2e-05,0.00043,0.00011999999999999999,0.00016,2e-05,6
28347,29890,-0.00047000000000000004,5.9999999999999995e-05,5e-05,-0.00014,-0.00032,-0.00018,5e-05,-1e-05,6
28348,29891,-0.00047000000000000004,5.9999999999999995e-05,5e-05,-0.00014,-0.00032,-0.00018,5e-05,-1e-05,6
28349,29892,-0.00047000000000000004,5.9999999999999995e-05,5e-05,-0.00014,-0.00032,-0.00018,5e-05,-1e-05,6
28350,29893,-0.00047000000000000004,5.9999999999999995e-05,5e-05,-0.00014,-0.00032,-0.00018,5e-05,-1e-05,6
28351,29894,-0.00047000000000000004,5.9999999999999995e-05,5e-05,-0.00014,-0.00032,-0.00018,5e-05,-1e-05,6
28352,29895,-0.00047000000000000004,5.9999999999999995e-05,5e-05,-0.00014,-0.00032,-0.00018,5e-05,-1e-05,6
28353,29896,-0.00047000000000000004,5.9999999999999995e-05,5e-05,-0.00014,-0.00032,-0.00018,5e-05,-1e-05,6
28354,29897,-0.00047000000000000004,5.9999999999999995e-05,5e-05,-0.00014,-0.00032,-0.00018,5e-05,-1e-05,6
28355,29898,-0.00047000000000000004,5.9999999999999995e-05,5e-05,-0.00014,-0.00032,-0.00018,5e-05,-1e-05,6
28356,29899,-0.00047000000000000004,5.9999999999999995e-05,5e-05,-0.00014,-0.00032,-0.00018,5e-05,-1e-05,6
28357,29900,-0.00047000000000000004,5.9999999999999995e-05,5e-05,-0.00014,-0.00032,-0.00018,5e-05,-1e-05,6
28358,29901,-0.00047000000000000004,5.9999999999999995e-05,5e-05,-0.00014,-0.00032,-0.00018,5e-05,-1e-05,6
28359,29902,-0.00047000000000000004,5.9999999999999995e-05,5e-05,-0.00014,-0.00032,-0.00018,5e-05,-1e-05,6
28360,29903,-0.00047000000000000004,5.9999999999999995e-05,5e-05,-0.00014,-0.00032,-0.00018,5e-05,-1e-05,6
28361,29904,-0.00047000000000000004,5.9999999999999995e-05,5e-05,-0.00014,-0.00032,-0.00018,5e-05,-1e-05,6
28362,29905,-0.00047000000000000004,5.9999999999999995e-05,5e-05,-0.00014,-0.00032,-0.00018,5e-05,-1e-05,6
28363,29906,-0.00047000000000000004,5.9999999999999995e-05,5e-05,-0.00014,-0.00032,-0.00018,5e-05,-1e-05,6
28364,29907,-0.00047000000000000004,5.9999999999999995e-05,5e-05,-0.00014,-0.00032,-0.00018,5e-05,-1e-05,6
28365,29908,-0.00047000000000000004,5.9999999999999995e-05,5e-05,-0.00014,-0.00032,-0.00018,5e-05,-1e-05,6
28366,29909,-0.00047000000000000004,5.9999999999999995e-05,5e-05,-0.00014,-0.00032,-0.00018,5e-05,-1e-05,6
28367,29910,-0.00047000000000000004,5.9999999999999995e-05,5e-05,-0.00014,-0.00032,-0.00018,5e-05,-1e-05,6
28368,29911,-0.00047000000000000004,5.9999999999999995e-05,5e-05,-0.00014,-0.00032,-0.00018,5e-05,-1e-05,6
28369,29912,-1e-05,-1e-05,0.00013000000000000002,0.00018999999999999998,0.00026000000000000003,0.00053,0.00011,-7e-05,6
28370,29913,-1e-05,-1e-05,0.00013000000000000002,0.00018999999999999998,0.00026000000000000003,0.00053,0.00011,-7e-05,6
28371,29914,-1e-05,-1e-05,0.00013000000000000002,0.00018999999999999998,0.00026000000000000003,0.00053,0.00011,-7e-05,6
28372,29915,-1e-05,-1e-05,0.00013000000000000002,0.00018999999999999998,0.00026000000000000003,0.00053,0.00011,-7e-05,6
28373,29916,-1e-05,-1e-05,0.00013000000000000002,0.00018999999999999998,0.00026000000000000003,0.00053,0.00011,-7e-05,6
28374,29917,-1e-05,-1e-05,0.00013000000000000002,0.00018999999999999998,0.00026000000000000003,0.00053,0.00011,-7e-05,6
28375,29918,-1e-05,-1e-05,0.00013000000000000002,0.00018999999999999998,0.00026000000000000003,0.00053,0.00011,-7e-05,6
28376,29919,-1e-05,-1e-05,0.00013000000000000002,0.00018999999999999998,0.00026000000000000003,0.00053,0.00011,-7e-05,6
28377,29920,-1e-05,-1e-05,0.00013000000000000002,0.00018999999999999998,0.00026000000000000003,0.00053,0.00011,-7e-05,6
28378,29921,-1e-05,-1e-05,0.00013000000000000002,0.00018999999999999998,0.00026000000000000003,0.00053,0.00011,-7e-05,6
28379,29922,-1e-05,-1e-05,0.00013000000000000002,0.00018999999999999998,0.00026000000000000003,0.00053,0.00011,-7e-05,6
28380,29923,-1e-05,-1e-05,0.00013000000000000002,0.00018999999999999998,0.00026000000000000003,0.00053,0.00011,-7e-05,6
28381,29924,-1e-05,-1e-05,0.00013000000000000002,0.00018999999999999998,0.00026000000000000003,0.00053,0.00011,-7e-05,6
28382,29925,-9e-05,-5.9999999999999995e-05,-0.00014,-5e-05,-0.00013000000000000002,-0.00011999999999999999,1e-05,1e-05,6
28383,29926,-9e-05,-5.9999999999999995e-05,-0.00014,-5e-05,-0.00013000000000000002,-0.00011999999999999999,1e-05,1e-05,6
28384,29927,-9e-05,-5.9999999999999995e-05,-0.00014,-5e-05,-0.00013000000000000002,-0.00011999999999999999,1e-05,1e-05,6
28385,29928,-9e-05,-5.9999999999999995e-05,-0.00014,-5e-05,-0.00013000000000000002,-0.00011999999999999999,1e-05,1e-05,6
28386,29929,-9e-05,-5.9999999999999995e-05,-0.00014,-5e-05,-0.00013000000000000002,-0.00011999999999999999,1e-05,1e-05,6
28387,29930,-9e-05,-5.9999999999999995e-05,-0.00014,-5e-05,-0.00013000000000000002,-0.00011999999999999999,1e-05,1e-05,6
28388,29931,-9e-05,-5.9999999999999995e-05,-0.00014,-5e-05,-0.00013000000000000002,-0.00011999999999999999,1e-05,1e-05,6
28389,29932,0.00018,-0.00011,4e-05,-1e-05,0.0,2.9999999999999997e-05,0.00026000000000000003,0.00022,6
28390,29933,0.00018,-0.00011,4e-05,-1e-05,0.0,2.9999999999999997e-05,0.00026000000000000003,0.00022,6
28391,29934,0.00018,-0.00011,4e-05,-1e-05,0.0,2.9999999999999997e-05,0.00026000000000000003,0.00022,6
28392,29935,0.00018,-0.00011,4e-05,-1e-05,0.0,2.9999999999999997e-05,0.00026000000000000003,0.00022,6
28393,29936,0.00018,-0.00011,4e-05,-1e-05,0.0,2.9999999999999997e-05,0.00026000000000000003,0.00022,6
28394,29938,0.00018,-0.00011,4e-05,-1e-05,0.0,2.9999999999999997e-05,0.00026000000000000003,0.00022,6
28395,29939,0.00018,-0.00011,4e-05,-1e-05,0.0,2.9999999999999997e-05,0.00026000000000000003,0.00022,6
28396,29940,0.00018,-0.00011,4e-05,-1e-05,0.0,2.9999999999999997e-05,0.00026000000000000003,0.00022,6
28397,29941,0.00018,-0.00011,4e-05,-1e-05,0.0,2.9999999999999997e-05,0.00026000000000000003,0.00022,6
28398,29942,0.00018,-0.00011,4e-05,-1e-05,0.0,2.9999999999999997e-05,0.00026000000000000003,0.00022,6
28399,29943,0.00018,-0.00011,4e-05,-1e-05,0.0,2.9999999999999997e-05,0.00026000000000000003,0.00022,6
28400,29944,0.00018,-0.00011,4e-05,-1e-05,0.0,2.9999999999999997e-05,0.00026000000000000003,0.00022,6
28401,29945,0.00018,-0.00011,4e-05,-1e-05,0.0,2.9999999999999997e-05,0.00026000000000000003,0.00022,6
28402,29946,0.00018,-0.00011,4e-05,-1e-05,0.0,2.9999999999999997e-05,0.00026000000000000003,0.00022,6
28403,29947,0.00018,-0.00011,4e-05,-1e-05,0.0,2.9999999999999997e-05,0.00026000000000000003,0.00022,6
28404,29948,4e-05,5.9999999999999995e-05,0.00013000000000000002,5e-05,0.00013000000000000002,8e-05,-5.9999999999999995e-05,-0.00022,6
28405,29949,4e-05,5.9999999999999995e-05,0.00013000000000000002,5e-05,0.00013000000000000002,8e-05,-5.9999999999999995e-05,-0.00022,6
28406,29950,-0.00036,-0.0001,-0.00016,-5.9999999999999995e-05,0.00011,-1e-05,-0.00014,-0.00042,6
28407,29951,-0.00036,-0.0001,-0.00016,-5.9999999999999995e-05,0.00011,-1e-05,-0.00014,-0.00042,6
28408,29952,-0.00036,-0.0001,-0.00016,-5.9999999999999995e-05,0.00011,-1e-05,-0.00014,-0.00042,6
28409,29953,-0.00036,-0.0001,-0.00016,-5.9999999999999995e-05,0.00011,-1e-05,-0.00014,-0.00042,6
28410,29954,-0.00036,-0.0001,-0.00016,-5.9999999999999995e-05,0.00011,-1e-05,-0.00014,-0.00042,6
28411,29955,-0.00036,-0.0001,-0.00016,-5.9999999999999995e-05,0.00011,-1e-05,-0.00014,-0.00042,6
28412,29956,-0.00036,-0.0001,-0.00016,-5.9999999999999995e-05,0.00011,-1e-05,-0.00014,-0.00042,6
28413,29957,-0.00036,-0.0001,-0.00016,-5.9999999999999995e-05,0.00011,-1e-05,-0.00014,-0.00042,6
28414,29958,-0.00036,-0.0001,-0.00016,-5.9999999999999995e-05,0.00011,-1e-05,-0.00014,-0.00042,6
28415,29959,-0.00036,-0.0001,-0.00016,-5.9999999999999995e-05,0.00011,-1e-05,-0.00014,-0.00042,6
28416,29960,-0.00036,-0.0001,-0.00016,-5.9999999999999995e-05,0.00011,-1e-05,-0.00014,-0.00042,6
28417,29961,-0.00036,-0.0001,-0.00016,-5.9999999999999995e-05,0.00011,-1e-05,-0.00014,-0.00042,6
28418,29962,-0.00036,-0.0001,-0.00016,-5.9999999999999995e-05,0.00011,-1e-05,-0.00014,-0.00042,6
28419,29963,-0.00036,-0.0001,-0.00016,-5.9999999999999995e-05,0.00011,-1e-05,-0.00014,-0.00042,6
28420,29964,-0.00036,-0.0001,-0.00016,-5.9999999999999995e-05,0.00011,-1e-05,-0.00014,-0.00042,6
28421,29965,-0.00036,-0.0001,-0.00016,-5.9999999999999995e-05,0.00011,-1e-05,-0.00014,-0.00042,6
28422,29966,-0.00036,-0.0001,-0.00016,-5.9999999999999995e-05,0.00011,-1e-05,-0.00014,-0.00042,6
28423,29967,-0.00036,-0.0001,-0.00016,-5.9999999999999995e-05,0.00011,-1e-05,-0.00014,-0.00042,6
28424,29968,-0.00036,-0.0001,-0.00016,-5.9999999999999995e-05,0.00011,-1e-05,-0.00014,-0.00042,6
28425,29969,-0.00036,-0.0001,-0.00016,-5.9999999999999995e-05,0.00011,-1e-05,-0.00014,-0.00042,6
28426,29970,-5e-05,0.0,-0.00026000000000000003,-0.00011,-0.00018,-0.00022999999999999998,2.9999999999999997e-05,0.00022999999999999998,6
28427,29971,-5e-05,0.0,-0.00026000000000000003,-0.00011,-0.00018,-0.00022999999999999998,2.9999999999999997e-05,0.00022999999999999998,6
28428,29972,9e-05,5e-05,4e-05,9e-05,-0.00018,-0.00022999999999999998,-5.9999999999999995e-05,0.00032,6
28429,29974,9e-05,5e-05,4e-05,9e-05,-0.00018,-0.00022999999999999998,-5.9999999999999995e-05,0.00032,6
28430,29975,9e-05,5e-05,4e-05,9e-05,-0.00018,-0.00022999999999999998,-5.9999999999999995e-05,0.00032,6
28431,29976,9e-05,5e-05,4e-05,9e-05,-0.00018,-0.00022999999999999998,-5.9999999999999995e-05,0.00032,6
28432,29977,9e-05,5e-05,4e-05,9e-05,-0.00018,-0.00022999999999999998,-5.9999999999999995e-05,0.00032,6
28433,29978,9e-05,5e-05,4e-05,9e-05,-0.00018,-0.00022999999999999998,-5.9999999999999995e-05,0.00032,6
28434,29979,9e-05,5e-05,4e-05,9e-05,-0.00018,-0.00022999999999999998,-5.9999999999999995e-05,0.00032,6
28435,29980,9e-05,5e-05,4e-05,9e-05,-0.00018,-0.00022999999999999998,-5.9999999999999995e-05,0.00032,6
28436,29981,9e-05,5e-05,4e-05,9e-05,-0.00018,-0.00022999999999999998,-5.9999999999999995e-05,0.00032,6
28437,29982,9e-05,5e-05,4e-05,9e-05,-0.00018,-0.00022999999999999998,-5.9999999999999995e-05,0.00032,6
28438,29983,9e-05,5e-05,4e-05,9e-05,-0.00018,-0.00022999999999999998,-5.9999999999999995e-05,0.00032,6
28439,29984,9e-05,5e-05,4e-05,9e-05,-0.00018,-0.00022999999999999998,-5.9999999999999995e-05,0.00032,6
28440,29985,2e-05,2e-05,0.00014,0.0,1e-05,0.00022999999999999998,-2e-05,-0.0001,6
28441,29986,2e-05,2e-05,0.00014,0.0,1e-05,0.00022999999999999998,-2e-05,-0.0001,6
28442,29988,2e-05,2e-05,0.00014,0.0,1e-05,0.00022999999999999998,-2e-05,-0.0001,6
28443,29989,2e-05,2e-05,0.00014,0.0,1e-05,0.00022999999999999998,-2e-05,-0.0001,6
28444,29990,2e-05,2e-05,0.00014,0.0,1e-05,0.00022999999999999998,-2e-05,-0.0001,6
28445,29991,2e-05,2e-05,0.00014,0.0,1e-05,0.00022999999999999998,-2e-05,-0.0001,6
28446,29992,5.9999999999999995e-05,-1e-05,-0.00011999999999999999,-0.0001,-8e-05,-0.00022,0.00011,0.00014,6
28447,29993,5.9999999999999995e-05,-1e-05,-0.00011999999999999999,-0.0001,-8e-05,-0.00022,0.00011,0.00014,6
28448,29994,5.9999999999999995e-05,-1e-05,-0.00011999999999999999,-0.0001,-8e-05,-0.00022,0.00011,0.00014,6
28449,29995,5.9999999999999995e-05,-1e-05,-0.00011999999999999999,-0.0001,-8e-05,-0.00022,0.00011,0.00014,6
28450,29996,5.9999999999999995e-05,-1e-05,-0.00011999999999999999,-0.0001,-8e-05,-0.00022,0.00011,0.00014,6
28451,29997,5.9999999999999995e-05,-1e-05,-0.00011999999999999999,-0.0001,-8e-05,-0.00022,0.00011,0.00014,6
28452,29998,5.9999999999999995e-05,-1e-05,-0.00011999999999999999,-0.0001,-8e-05,-0.00022,0.00011,0.00014,6
28453,29999,5.9999999999999995e-05,-1e-05,-0.00011999999999999999,-0.0001,-8e-05,-0.00022,0.00011,0.00014,6
28454,30000,5.9999999999999995e-05,-1e-05,-0.00011999999999999999,-0.0001,-8e-05,-0.00022,0.00011,0.00014,6
28455,30001,5.9999999999999995e-05,-1e-05,-0.00011999999999999999,-0.0001,-8e-05,-0.00022,0.00011,0.00014,6
28456,30002,5.9999999999999995e-05,-1e-05,-0.00011999999999999999,-0.0001,-8e-05,-0.00022,0.00011,0.00014,6
28457,30003,5.9999999999999995e-05,-1e-05,-0.00011999999999999999,-0.0001,-8e-05,-0.00022,0.00011,0.00014,6
28458,30004,5.9999999999999995e-05,-1e-05,-0.00011999999999999999,-0.0001,-8e-05,-0.00022,0.00011,0.00014,6
28459,30005,5.9999999999999995e-05,-1e-05,-0.00011999999999999999,-0.0001,-8e-05,-0.00022,0.00011,0.00014,6
28460,30006,5.9999999999999995e-05,-1e-05,-0.00011999999999999999,-0.0001,-8e-05,-0.00022,0.00011,0.00014,6
28461,30007,5.9999999999999995e-05,-1e-05,-0.00011999999999999999,-0.0001,-8e-05,-0.00022,0.00011,0.00014,6
28462,30008,-0.00018999999999999998,-4e-05,8e-05,-2.9999999999999997e-05,-0.00022999999999999998,-0.00016,-0.00025,-0.00032,6
28463,30009,0.00013000000000000002,-7e-05,-5e-05,-4e-05,-8e-05,-0.00042,-1e-05,5e-05,6
28464,30010,-4e-05,-1e-05,0.00021,-5e-05,-2.9999999999999997e-05,0.00014,-0.00011999999999999999,-4e-05,6
28465,30011,-4e-05,-1e-05,0.00021,-5e-05,-2.9999999999999997e-05,0.00014,-0.00011999999999999999,-4e-05,6
28466,30012,-4e-05,-1e-05,0.00021,-5e-05,-2.9999999999999997e-05,0.00014,-0.00011999999999999999,-4e-05,6
28467,30013,-4e-05,-1e-05,0.00021,-5e-05,-2.9999999999999997e-05,0.00014,-0.00011999999999999999,-4e-05,6
28468,30014,-4e-05,-1e-05,0.00021,-5e-05,-2.9999999999999997e-05,0.00014,-0.00011999999999999999,-4e-05,6
28469,30015,-4e-05,-1e-05,0.00021,-5e-05,-2.9999999999999997e-05,0.00014,-0.00011999999999999999,-4e-05,6
28470,30016,-4e-05,-1e-05,0.00021,-5e-05,-2.9999999999999997e-05,0.00014,-0.00011999999999999999,-4e-05,6
28471,30017,-4e-05,-1e-05,0.00021,-5e-05,-2.9999999999999997e-05,0.00014,-0.00011999999999999999,-4e-05,6
28472,30018,-4e-05,-1e-05,0.00021,-5e-05,-2.9999999999999997e-05,0.00014,-0.00011999999999999999,-4e-05,6
28473,30019,-4e-05,-1e-05,0.00021,-5e-05,-2.9999999999999997e-05,0.00014,-0.00011999999999999999,-4e-05,6
28474,30020,-4e-05,-1e-05,0.00021,-5e-05,-2.9999999999999997e-05,0.00014,-0.00011999999999999999,-4e-05,6
28475,30021,-4e-05,-1e-05,0.00021,-5e-05,-2.9999999999999997e-05,0.00014,-0.00011999999999999999,-4e-05,6
28476,30022,-4e-05,-1e-05,0.00021,-5e-05,-2.9999999999999997e-05,0.00014,-0.00011999999999999999,-4e-05,6
28477,30023,-4e-05,-1e-05,0.00021,-5e-05,-2.9999999999999997e-05,0.00014,-0.00011999999999999999,-4e-05,6
28478,30024,-4e-05,-1e-05,0.00021,-5e-05,-2.9999999999999997e-05,0.00014,-0.00011999999999999999,-4e-05,6
28479,30025,-4e-05,-1e-05,0.00021,-5e-05,-2.9999999999999997e-05,0.00014,-0.00011999999999999999,-4e-05,6
28480,30026,-4e-05,-1e-05,0.00021,-5e-05,-2.9999999999999997e-05,0.00014,-0.00011999999999999999,-4e-05,6
28481,30027,-4e-05,-1e-05,0.00021,-5e-05,-2.9999999999999997e-05,0.00014,-0.00011999999999999999,-4e-05,6
28482,30028,-4e-05,-1e-05,0.00021,-5e-05,-2.9999999999999997e-05,0.00014,-0.00011999999999999999,-4e-05,6
28483,30029,-4e-05,-1e-05,0.00021,-5e-05,-2.9999999999999997e-05,0.00014,-0.00011999999999999999,-4e-05,6
28484,30030,-4e-05,-1e-05,0.00021,-5e-05,-2.9999999999999997e-05,0.00014,-0.00011999999999999999,-4e-05,6
28485,30031,-2e-05,-2e-05,-5e-05,8e-05,0.00037999999999999997,0.00043,-5e-05,-5.9999999999999995e-05,6
28486,30032,-0.00033,7e-05,1e-05,0.00016999999999999999,0.00016999999999999999,-7e-05,-0.00021,-0.00037,6
28487,30033,-0.00033,7e-05,1e-05,0.00016999999999999999,0.00016999999999999999,-7e-05,-0.00021,-0.00037,6
28488,30034,-0.00033,7e-05,1e-05,0.00016999999999999999,0.00016999999999999999,-7e-05,-0.00021,-0.00037,6
28489,30035,-0.00033,7e-05,1e-05,0.00016999999999999999,0.00016999999999999999,-7e-05,-0.00021,-0.00037,6
28490,30044,-0.00033,7e-05,1e-05,0.00016999999999999999,0.00016999999999999999,-7e-05,-0.00021,-0.00037,6
28491,30046,-0.0002,4e-05,8e-05,8e-05,-7e-05,0.00037,9e-05,-2.9999999999999997e-05,6
28492,30047,-0.0002,4e-05,8e-05,8e-05,-7e-05,0.00037,9e-05,-2.9999999999999997e-05,6
28493,30048,-0.0002,4e-05,8e-05,8e-05,-7e-05,0.00037,9e-05,-2.9999999999999997e-05,6
28494,30049,-0.0002,4e-05,8e-05,8e-05,-7e-05,0.00037,9e-05,-2.9999999999999997e-05,6
28495,30050,-0.0002,4e-05,8e-05,8e-05,-7e-05,0.00037,9e-05,-2.9999999999999997e-05,6
28496,30051,-0.0002,4e-05,8e-05,8e-05,-7e-05,0.00037,9e-05,-2.9999999999999997e-05,6
28497,30052,0.00022,9e-05,1e-05,-0.00018,-1e-05,0.00022999999999999998,5.9999999999999995e-05,0.00015,6
28498,30053,0.00022,9e-05,1e-05,-0.00018,-1e-05,0.00022999999999999998,5.9999999999999995e-05,0.00015,6
28499,30054,0.00022,9e-05,1e-05,-0.00018,-1e-05,0.00022999999999999998,5.9999999999999995e-05,0.00015,6
28500,30055,0.00022,9e-05,1e-05,-0.00018,-1e-05,0.00022999999999999998,5.9999999999999995e-05,0.00015,6
28501,30056,0.00022,9e-05,1e-05,-0.00018,-1e-05,0.00022999999999999998,5.9999999999999995e-05,0.00015,6
28502,30057,0.00022,9e-05,1e-05,-0.00018,-1e-05,0.00022999999999999998,5.9999999999999995e-05,0.00015,6
28503,30058,0.00022,9e-05,1e-05,-0.00018,-1e-05,0.00022999999999999998,5.9999999999999995e-05,0.00015,6
28504,30059,0.00022,9e-05,1e-05,-0.00018,-1e-05,0.00022999999999999998,5.9999999999999995e-05,0.00015,6
28505,30060,0.00022,9e-05,1e-05,-0.00018,-1e-05,0.00022999999999999998,5.9999999999999995e-05,0.00015,6
28506,30061,0.00022,9e-05,1e-05,-0.00018,-1e-05,0.00022999999999999998,5.9999999999999995e-05,0.00015,6
28507,30062,0.00022,9e-05,1e-05,-0.00018,-1e-05,0.00022999999999999998,5.9999999999999995e-05,0.00015,6
28508,30063,0.00022,9e-05,1e-05,-0.00018,-1e-05,0.00022999999999999998,5.9999999999999995e-05,0.00015,6
28509,30064,0.00022,9e-05,1e-05,-0.00018,-1e-05,0.00022999999999999998,5.9999999999999995e-05,0.00015,6
28510,30065,0.00022,9e-05,1e-05,-0.00018,-1e-05,0.00022999999999999998,5.9999999999999995e-05,0.00015,6
28511,30066,0.00022,9e-05,1e-05,-0.00018,-1e-05,0.00022999999999999998,5.9999999999999995e-05,0.00015,6
28512,30067,0.00022,9e-05,1e-05,-0.00018,-1e-05,0.00022999999999999998,5.9999999999999995e-05,0.00015,6
28513,30068,-2e-05,-5.9999999999999995e-05,-5e-05,-5e-05,2e-05,-0.00037,-7e-05,-1e-05,6
28514,30069,-2e-05,-5.9999999999999995e-05,-5e-05,-5e-05,2e-05,-0.00037,-7e-05,-1e-05,6
28515,30070,0.00016999999999999999,1e-05,4e-05,2e-05,-0.00029,-0.0005200000000000001,-0.00013000000000000002,-0.00014,6
28516,30071,0.00016999999999999999,1e-05,4e-05,2e-05,-0.00029,-0.0005200000000000001,-0.00013000000000000002,-0.00014,6
28517,30072,0.00016999999999999999,1e-05,4e-05,2e-05,-0.00029,-0.0005200000000000001,-0.00013000000000000002,-0.00014,6
28518,30073,0.00016999999999999999,1e-05,4e-05,2e-05,-0.00029,-0.0005200000000000001,-0.00013000000000000002,-0.00014,6
28519,30074,0.00016999999999999999,1e-05,4e-05,2e-05,-0.00029,-0.0005200000000000001,-0.00013000000000000002,-0.00014,6
28520,30075,0.00016999999999999999,1e-05,4e-05,2e-05,-0.00029,-0.0005200000000000001,-0.00013000000000000002,-0.00014,6
28521,30076,0.00016999999999999999,1e-05,4e-05,2e-05,-0.00029,-0.0005200000000000001,-0.00013000000000000002,-0.00014,6
28522,30077,0.00016999999999999999,1e-05,4e-05,2e-05,-0.00029,-0.0005200000000000001,-0.00013000000000000002,-0.00014,6
28523,30078,0.00016999999999999999,1e-05,4e-05,2e-05,-0.00029,-0.0005200000000000001,-0.00013000000000000002,-0.00014,6
28524,30079,0.00016999999999999999,1e-05,4e-05,2e-05,-0.00029,-0.0005200000000000001,-0.00013000000000000002,-0.00014,6
28525,30080,0.00016999999999999999,1e-05,4e-05,2e-05,-0.00029,-0.0005200000000000001,-0.00013000000000000002,-0.00014,6
28526,30081,0.00016999999999999999,1e-05,4e-05,2e-05,-0.00029,-0.0005200000000000001,-0.00013000000000000002,-0.00014,6
28527,30082,0.00016999999999999999,1e-05,4e-05,2e-05,-0.00029,-0.0005200000000000001,-0.00013000000000000002,-0.00014,6
28528,30083,0.00016999999999999999,1e-05,4e-05,2e-05,-0.00029,-0.0005200000000000001,-0.00013000000000000002,-0.00014,6
28529,30084,0.00016999999999999999,1e-05,4e-05,2e-05,-0.00029,-0.0005200000000000001,-0.00013000000000000002,-0.00014,6
28530,30085,0.00016999999999999999,1e-05,4e-05,2e-05,-0.00029,-0.0005200000000000001,-0.00013000000000000002,-0.00014,6
28531,30086,0.00016999999999999999,1e-05,4e-05,2e-05,-0.00029,-0.0005200000000000001,-0.00013000000000000002,-0.00014,6
28532,30089,0.00016999999999999999,1e-05,4e-05,2e-05,-0.00029,-0.0005200000000000001,-0.00013000000000000002,-0.00014,6
28533,30090,0.00016999999999999999,1e-05,4e-05,2e-05,-0.00029,-0.0005200000000000001,-0.00013000000000000002,-0.00014,6
28534,30091,-0.00066,-5.9999999999999995e-05,-2.9999999999999997e-05,-0.00011999999999999999,-0.00028,5e-05,-2.9999999999999997e-05,-0.00079,6
28535,30092,-5e-05,-2.9999999999999997e-05,-1e-05,4e-05,0.00027,-2e-05,-0.00013000000000000002,-0.00011999999999999999,6
28536,30094,-5e-05,-2.9999999999999997e-05,-1e-05,4e-05,0.00027,-2e-05,-0.00013000000000000002,-0.00011999999999999999,6
28537,30095,-5e-05,-2.9999999999999997e-05,-1e-05,4e-05,0.00027,-2e-05,-0.00013000000000000002,-0.00011999999999999999,6
28538,30096,-5e-05,-2.9999999999999997e-05,-1e-05,4e-05,0.00027,-2e-05,-0.00013000000000000002,-0.00011999999999999999,6
28539,30097,-5e-05,-2.9999999999999997e-05,-1e-05,4e-05,0.00027,-2e-05,-0.00013000000000000002,-0.00011999999999999999,6
28540,30098,-5e-05,-2.9999999999999997e-05,-1e-05,4e-05,0.00027,-2e-05,-0.00013000000000000002,-0.00011999999999999999,6
28541,30099,-5e-05,-2.9999999999999997e-05,-1e-05,4e-05,0.00027,-2e-05,-0.00013000000000000002,-0.00011999999999999999,6
28542,30100,-5e-05,-2.9999999999999997e-05,-1e-05,4e-05,0.00027,-2e-05,-0.00013000000000000002,-0.00011999999999999999,6
28543,30101,-5e-05,-2.9999999999999997e-05,-1e-05,4e-05,0.00027,-2e-05,-0.00013000000000000002,-0.00011999999999999999,6
28544,30102,-5e-05,-2.9999999999999997e-05,-1e-05,4e-05,0.00027,-2e-05,-0.00013000000000000002,-0.00011999999999999999,6
28545,30103,-5e-05,-2.9999999999999997e-05,-1e-05,4e-05,0.00027,-2e-05,-0.00013000000000000002,-0.00011999999999999999,6
28546,30104,-5e-05,-2.9999999999999997e-05,-1e-05,4e-05,0.00027,-2e-05,-0.00013000000000000002,-0.00011999999999999999,6
28547,30105,-0.00025,7e-05,4e-05,9e-05,0.00021,0.00025,0.00011999999999999999,0.00011,6
28548,30106,-0.00025,7e-05,4e-05,9e-05,0.00021,0.00025,0.00011999999999999999,0.00011,6
28549,30107,-0.00025,7e-05,4e-05,9e-05,0.00021,0.00025,0.00011999999999999999,0.00011,6
28550,30108,-0.00025,7e-05,4e-05,9e-05,0.00021,0.00025,0.00011999999999999999,0.00011,6
28551,30109,-0.00025,7e-05,4e-05,9e-05,0.00021,0.00025,0.00011999999999999999,0.00011,6
28552,30110,-0.00025,7e-05,4e-05,9e-05,0.00021,0.00025,0.00011999999999999999,0.00011,6
28553,30111,-0.00025,7e-05,4e-05,9e-05,0.00021,0.00025,0.00011999999999999999,0.00011,6
28554,30113,-0.00037999999999999997,-0.00013000000000000002,-0.00011999999999999999,-8e-05,-0.00016,-0.00016,-2.9999999999999997e-05,-0.0005,6
28555,30114,-0.00037999999999999997,-0.00013000000000000002,-0.00011999999999999999,-8e-05,-0.00016,-0.00016,-2.9999999999999997e-05,-0.0005,6
28556,30115,-0.00037999999999999997,-0.00013000000000000002,-0.00011999999999999999,-8e-05,-0.00016,-0.00016,-2.9999999999999997e-05,-0.0005,6
28557,30116,-0.00037999999999999997,-0.00013000000000000002,-0.00011999999999999999,-8e-05,-0.00016,-0.00016,-2.9999999999999997e-05,-0.0005,6
28558,30117,-0.00037999999999999997,-0.00013000000000000002,-0.00011999999999999999,-8e-05,-0.00016,-0.00016,-2.9999999999999997e-05,-0.0005,6
28559,30118,-0.00037999999999999997,-0.00013000000000000002,-0.00011999999999999999,-8e-05,-0.00016,-0.00016,-2.9999999999999997e-05,-0.0005,6
28560,30119,-0.00037999999999999997,-0.00013000000000000002,-0.00011999999999999999,-8e-05,-0.00016,-0.00016,-2.9999999999999997e-05,-0.0005,6
28561,30120,-0.00037999999999999997,-0.00013000000000000002,-0.00011999999999999999,-8e-05,-0.00016,-0.00016,-2.9999999999999997e-05,-0.0005,6
28562,30121,-0.00037999999999999997,-0.00013000000000000002,-0.00011999999999999999,-8e-05,-0.00016,-0.00016,-2.9999999999999997e-05,-0.0005,6
28563,30122,-0.00037999999999999997,-0.00013000000000000002,-0.00011999999999999999,-8e-05,-0.00016,-0.00016,-2.9999999999999997e-05,-0.0005,6
28564,30123,-0.00037999999999999997,-0.00013000000000000002,-0.00011999999999999999,-8e-05,-0.00016,-0.00016,-2.9999999999999997e-05,-0.0005,6
28565,30124,-0.00037999999999999997,-0.00013000000000000002,-0.00011999999999999999,-8e-05,-0.00016,-0.00016,-2.9999999999999997e-05,-0.0005,6
28566,30125,-0.00037999999999999997,-0.00013000000000000002,-0.00011999999999999999,-8e-05,-0.00016,-0.00016,-2.9999999999999997e-05,-0.0005,6
28567,30126,-0.00037999999999999997,-0.00013000000000000002,-0.00011999999999999999,-8e-05,-0.00016,-0.00016,-2.9999999999999997e-05,-0.0005,6
28568,30127,-0.00037999999999999997,-0.00013000000000000002,-0.00011999999999999999,-8e-05,-0.00016,-0.00016,-2.9999999999999997e-05,-0.0005,6
28569,30128,0.00033999999999999997,5.9999999999999995e-05,2.9999999999999997e-05,-4e-05,-2e-05,0.00014,5e-05,0.0005200000000000001,6
28570,30129,0.00033999999999999997,5.9999999999999995e-05,2.9999999999999997e-05,-4e-05,-2e-05,0.00014,5e-05,0.0005200000000000001,6
28571,30130,0.00011,0.0,5e-05,-8e-05,-0.00033999999999999997,-4e-05,-1e-05,0.00015,6
28572,30131,0.00011,0.0,5e-05,-8e-05,-0.00033999999999999997,-4e-05,-1e-05,0.00015,6
28573,30132,0.00011,0.0,5e-05,-8e-05,-0.00033999999999999997,-4e-05,-1e-05,0.00015,6
28574,30133,0.00011,0.0,5e-05,-8e-05,-0.00033999999999999997,-4e-05,-1e-05,0.00015,6
28575,30134,0.00011,0.0,5e-05,-8e-05,-0.00033999999999999997,-4e-05,-1e-05,0.00015,6
28576,30135,0.00011,0.0,5e-05,-8e-05,-0.00033999999999999997,-4e-05,-1e-05,0.00015,6
28577,30136,0.00011,0.0,5e-05,-8e-05,-0.00033999999999999997,-4e-05,-1e-05,0.00015,6
28578,30138,0.00011,0.0,5e-05,-8e-05,-0.00033999999999999997,-4e-05,-1e-05,0.00015,6
28579,30139,0.00011,0.0,5e-05,-8e-05,-0.00033999999999999997,-4e-05,-1e-05,0.00015,6
28580,30140,0.00011,0.0,5e-05,-8e-05,-0.00033999999999999997,-4e-05,-1e-05,0.00015,6
28581,30141,0.00011,0.0,5e-05,-8e-05,-0.00033999999999999997,-4e-05,-1e-05,0.00015,6
28582,30142,0.00011,0.0,5e-05,-8e-05,-0.00033999999999999997,-4e-05,-1e-05,0.00015,6
28583,30143,0.00011,0.0,5e-05,-8e-05,-0.00033999999999999997,-4e-05,-1e-05,0.00015,6
28584,30144,0.00011,0.0,5e-05,-8e-05,-0.00033999999999999997,-4e-05,-1e-05,0.00015,6
28585,30145,0.00011,0.0,5e-05,-8e-05,-0.00033999999999999997,-4e-05,-1e-05,0.00015,6
28586,30146,0.00011,0.0,5e-05,-8e-05,-0.00033999999999999997,-4e-05,-1e-05,0.00015,6
28587,30147,0.00011,0.0,5e-05,-8e-05,-0.00033999999999999997,-4e-05,-1e-05,0.00015,6
28588,30148,0.00011,0.0,5e-05,-8e-05,-0.00033999999999999997,-4e-05,-1e-05,0.00015,6
28589,30149,0.00011,0.0,5e-05,-8e-05,-0.00033999999999999997,-4e-05,-1e-05,0.00015,6
28590,30150,0.00011,0.0,5e-05,-8e-05,-0.00033999999999999997,-4e-05,-1e-05,0.00015,6
28591,30151,7e-05,1e-05,9e-05,-4e-05,-0.00016,-0.00023999999999999998,-5.9999999999999995e-05,1e-05,6
28592,30152,-0.00037999999999999997,-8e-05,-8e-05,-2e-05,5e-05,8e-05,4e-05,-2.9999999999999997e-05,6
28593,30153,-0.00037999999999999997,-8e-05,-8e-05,-2e-05,5e-05,8e-05,4e-05,-2.9999999999999997e-05,6
28594,30154,-0.00037999999999999997,-8e-05,-8e-05,-2e-05,5e-05,8e-05,4e-05,-2.9999999999999997e-05,6
28595,30155,-0.00037999999999999997,-8e-05,-8e-05,-2e-05,5e-05,8e-05,4e-05,-2.9999999999999997e-05,6
28596,30156,-0.00037999999999999997,-8e-05,-8e-05,-2e-05,5e-05,8e-05,4e-05,-2.9999999999999997e-05,6
28597,30157,-0.00037999999999999997,-8e-05,-8e-05,-2e-05,5e-05,8e-05,4e-05,-2.9999999999999997e-05,6
28598,30159,-0.00037999999999999997,-8e-05,-8e-05,-2e-05,5e-05,8e-05,4e-05,-2.9999999999999997e-05,6
28599,30160,-0.00037999999999999997,-8e-05,-8e-05,-2e-05,5e-05,8e-05,4e-05,-2.9999999999999997e-05,6
28600,30161,-0.00037999999999999997,-8e-05,-8e-05,-2e-05,5e-05,8e-05,4e-05,-2.9999999999999997e-05,6
28601,30162,-0.00037999999999999997,-8e-05,-8e-05,-2e-05,5e-05,8e-05,4e-05,-2.9999999999999997e-05,6
28602,30163,-0.00037999999999999997,-8e-05,-8e-05,-2e-05,5e-05,8e-05,4e-05,-2.9999999999999997e-05,6
28603,30164,-0.00037999999999999997,-8e-05,-8e-05,-2e-05,5e-05,8e-05,4e-05,-2.9999999999999997e-05,6
28604,30165,0.0001,-2.9999999999999997e-05,-9e-05,1e-05,0.00027,9e-05,2.9999999999999997e-05,5e-05,6
28605,30166,0.0001,-2.9999999999999997e-05,-9e-05,1e-05,0.00027,9e-05,2.9999999999999997e-05,5e-05,6
28606,30167,0.0001,-2.9999999999999997e-05,-9e-05,1e-05,0.00027,9e-05,2.9999999999999997e-05,5e-05,6
28607,30168,0.0001,-2.9999999999999997e-05,-9e-05,1e-05,0.00027,9e-05,2.9999999999999997e-05,5e-05,6
28608,30169,0.0001,-2.9999999999999997e-05,-9e-05,1e-05,0.00027,9e-05,2.9999999999999997e-05,5e-05,6
28609,30170,0.0001,-2.9999999999999997e-05,-9e-05,1e-05,0.00027,9e-05,2.9999999999999997e-05,5e-05,6
28610,30171,0.0001,-2.9999999999999997e-05,-9e-05,1e-05,0.00027,9e-05,2.9999999999999997e-05,5e-05,6
28611,30172,-0.0002,0.00015,5.9999999999999995e-05,0.00016,0.00033,0.00031,-0.00021,-0.00011999999999999999,6
28612,30173,-0.0002,0.00015,5.9999999999999995e-05,0.00016,0.00033,0.00031,-0.00021,-0.00011999999999999999,6
28613,30174,-0.0002,0.00015,5.9999999999999995e-05,0.00016,0.00033,0.00031,-0.00021,-0.00011999999999999999,6
28614,30175,-0.0002,0.00015,5.9999999999999995e-05,0.00016,0.00033,0.00031,-0.00021,-0.00011999999999999999,6
28615,30176,-0.0002,0.00015,5.9999999999999995e-05,0.00016,0.00033,0.00031,-0.00021,-0.00011999999999999999,6
28616,30177,-0.0002,0.00015,5.9999999999999995e-05,0.00016,0.00033,0.00031,-0.00021,-0.00011999999999999999,6
28617,30178,-0.0002,0.00015,5.9999999999999995e-05,0.00016,0.00033,0.00031,-0.00021,-0.00011999999999999999,6
28618,30179,-0.0002,0.00015,5.9999999999999995e-05,0.00016,0.00033,0.00031,-0.00021,-0.00011999999999999999,6
28619,30180,-0.0002,0.00015,5.9999999999999995e-05,0.00016,0.00033,0.00031,-0.00021,-0.00011999999999999999,6
28620,30181,-0.0002,0.00015,5.9999999999999995e-05,0.00016,0.00033,0.00031,-0.00021,-0.00011999999999999999,6
28621,30182,-0.0002,0.00015,5.9999999999999995e-05,0.00016,0.00033,0.00031,-0.00021,-0.00011999999999999999,6
28622,30183,-0.0002,0.00015,5.9999999999999995e-05,0.00016,0.00033,0.00031,-0.00021,-0.00011999999999999999,6
28623,30184,-0.0002,0.00015,5.9999999999999995e-05,0.00016,0.00033,0.00031,-0.00021,-0.00011999999999999999,6
28624,30185,-0.0002,0.00015,5.9999999999999995e-05,0.00016,0.00033,0.00031,-0.00021,-0.00011999999999999999,6
28625,30186,-0.0002,0.00015,5.9999999999999995e-05,0.00016,0.00033,0.00031,-0.00021,-0.00011999999999999999,6
28626,30189,0.00047000000000000004,4e-05,-0.00016,-0.00028,-0.00056,-0.00047000000000000004,-0.00015,2e-05,6
28627,30190,0.00027,8e-05,5.9999999999999995e-05,0.00011999999999999999,-4e-05,5e-05,0.00018,0.00016999999999999999,6
28628,30191,0.00027,8e-05,5.9999999999999995e-05,0.00011999999999999999,-4e-05,5e-05,0.00018,0.00016999999999999999,6
28629,30192,0.00027,8e-05,5.9999999999999995e-05,0.00011999999999999999,-4e-05,5e-05,0.00018,0.00016999999999999999,6
28630,30193,0.00027,8e-05,5.9999999999999995e-05,0.00011999999999999999,-4e-05,5e-05,0.00018,0.00016999999999999999,6
28631,30194,0.00027,8e-05,5.9999999999999995e-05,0.00011999999999999999,-4e-05,5e-05,0.00018,0.00016999999999999999,6
28632,30195,0.00027,8e-05,5.9999999999999995e-05,0.00011999999999999999,-4e-05,5e-05,0.00018,0.00016999999999999999,6
28633,30196,0.00027,8e-05,5.9999999999999995e-05,0.00011999999999999999,-4e-05,5e-05,0.00018,0.00016999999999999999,6
28634,30197,0.00027,8e-05,5.9999999999999995e-05,0.00011999999999999999,-4e-05,5e-05,0.00018,0.00016999999999999999,6
28635,30198,0.00027,8e-05,5.9999999999999995e-05,0.00011999999999999999,-4e-05,5e-05,0.00018,0.00016999999999999999,6
28636,30199,0.00027,8e-05,5.9999999999999995e-05,0.00011999999999999999,-4e-05,5e-05,0.00018,0.00016999999999999999,6
28637,30200,0.00027,8e-05,5.9999999999999995e-05,0.00011999999999999999,-4e-05,5e-05,0.00018,0.00016999999999999999,6
28638,30201,0.00027,8e-05,5.9999999999999995e-05,0.00011999999999999999,-4e-05,5e-05,0.00018,0.00016999999999999999,6
28639,30202,0.00027,8e-05,5.9999999999999995e-05,0.00011999999999999999,-4e-05,5e-05,0.00018,0.00016999999999999999,6
28640,30203,0.00027,8e-05,5.9999999999999995e-05,0.00011999999999999999,-4e-05,5e-05,0.00018,0.00016999999999999999,6
28641,30204,0.00027,8e-05,5.9999999999999995e-05,0.00011999999999999999,-4e-05,5e-05,0.00018,0.00016999999999999999,6
28642,30205,0.00027,8e-05,5.9999999999999995e-05,0.00011999999999999999,-4e-05,5e-05,0.00018,0.00016999999999999999,6
28643,30206,0.00027,8e-05,5.9999999999999995e-05,0.00011999999999999999,-4e-05,5e-05,0.00018,0.00016999999999999999,6
28644,30207,0.00027,8e-05,5.9999999999999995e-05,0.00011999999999999999,-4e-05,5e-05,0.00018,0.00016999999999999999,6
28645,30208,0.00027,8e-05,5.9999999999999995e-05,0.00011999999999999999,-4e-05,5e-05,0.00018,0.00016999999999999999,6
28646,30209,0.00027,8e-05,5.9999999999999995e-05,0.00011999999999999999,-4e-05,5e-05,0.00018,0.00016999999999999999,6
28647,30210,0.00027,8e-05,5.9999999999999995e-05,0.00011999999999999999,-4e-05,5e-05,0.00018,0.00016999999999999999,6
28648,30211,0.0,0.00022999999999999998,0.00016999999999999999,0.00026000000000000003,0.0006,0.00039,0.00016999999999999999,0.00041,6
28649,30212,0.0,0.00022999999999999998,0.00016999999999999999,0.00026000000000000003,0.0006,0.00039,0.00016999999999999999,0.00041,6
28650,30213,0.00016999999999999999,-5e-05,-0.00016,-0.00011999999999999999,0.00011,0.00023999999999999998,1e-05,0.00028,6
28651,30214,0.00016999999999999999,-5e-05,-0.00016,-0.00011999999999999999,0.00011,0.00023999999999999998,1e-05,0.00028,6
28652,30215,0.00016999999999999999,-5e-05,-0.00016,-0.00011999999999999999,0.00011,0.00023999999999999998,1e-05,0.00028,6
28653,30216,0.00016999999999999999,-5e-05,-0.00016,-0.00011999999999999999,0.00011,0.00023999999999999998,1e-05,0.00028,6
28654,30217,0.00016999999999999999,-5e-05,-0.00016,-0.00011999999999999999,0.00011,0.00023999999999999998,1e-05,0.00028,6
28655,30218,0.00016999999999999999,-5e-05,-0.00016,-0.00011999999999999999,0.00011,0.00023999999999999998,1e-05,0.00028,6
28656,30219,0.00016999999999999999,-5e-05,-0.00016,-0.00011999999999999999,0.00011,0.00023999999999999998,1e-05,0.00028,6
28657,30220,0.00016999999999999999,-5e-05,-0.00016,-0.00011999999999999999,0.00011,0.00023999999999999998,1e-05,0.00028,6
28658,30221,0.00016999999999999999,-5e-05,-0.00016,-0.00011999999999999999,0.00011,0.00023999999999999998,1e-05,0.00028,6
28659,30222,0.00016999999999999999,-5e-05,-0.00016,-0.00011999999999999999,0.00011,0.00023999999999999998,1e-05,0.00028,6
28660,30223,0.00016999999999999999,-5e-05,-0.00016,-0.00011999999999999999,0.00011,0.00023999999999999998,1e-05,0.00028,6
28661,30224,0.00016999999999999999,-5e-05,-0.00016,-0.00011999999999999999,0.00011,0.00023999999999999998,1e-05,0.00028,6
28662,30225,-2e-05,-0.0001,-2.9999999999999997e-05,-0.00011,-0.00032,-0.00018,-8e-05,-0.00016999999999999999,6
28663,30226,-2e-05,-0.0001,-2.9999999999999997e-05,-0.00011,-0.00032,-0.00018,-8e-05,-0.00016999999999999999,6
28664,30227,-2e-05,-0.0001,-2.9999999999999997e-05,-0.00011,-0.00032,-0.00018,-8e-05,-0.00016999999999999999,6
28665,30228,-2e-05,-0.0001,-2.9999999999999997e-05,-0.00011,-0.00032,-0.00018,-8e-05,-0.00016999999999999999,6
28666,30229,-2e-05,-0.0001,-2.9999999999999997e-05,-0.00011,-0.00032,-0.00018,-8e-05,-0.00016999999999999999,6
28667,30230,-2e-05,-0.0001,-2.9999999999999997e-05,-0.00011,-0.00032,-0.00018,-8e-05,-0.00016999999999999999,6
28668,30231,-2e-05,-0.0001,-2.9999999999999997e-05,-0.00011,-0.00032,-0.00018,-8e-05,-0.00016999999999999999,6
28669,30232,-5.9999999999999995e-05,-8e-05,1e-05,1e-05,9e-05,-5.9999999999999995e-05,-2e-05,-5e-05,6
28670,30233,-5.9999999999999995e-05,-8e-05,1e-05,1e-05,9e-05,-5.9999999999999995e-05,-2e-05,-5e-05,6
28671,30234,-5.9999999999999995e-05,-8e-05,1e-05,1e-05,9e-05,-5.9999999999999995e-05,-2e-05,-5e-05,6
28672,30235,-5.9999999999999995e-05,-8e-05,1e-05,1e-05,9e-05,-5.9999999999999995e-05,-2e-05,-5e-05,6
28673,30236,-5.9999999999999995e-05,-8e-05,1e-05,1e-05,9e-05,-5.9999999999999995e-05,-2e-05,-5e-05,6
28674,30238,-5.9999999999999995e-05,-8e-05,1e-05,1e-05,9e-05,-5.9999999999999995e-05,-2e-05,-5e-05,6
28675,30239,-5.9999999999999995e-05,-8e-05,1e-05,1e-05,9e-05,-5.9999999999999995e-05,-2e-05,-5e-05,6
28676,30240,-5.9999999999999995e-05,-8e-05,1e-05,1e-05,9e-05,-5.9999999999999995e-05,-2e-05,-5e-05,6
28677,30241,-5.9999999999999995e-05,-8e-05,1e-05,1e-05,9e-05,-5.9999999999999995e-05,-2e-05,-5e-05,6
28678,30242,-5.9999999999999995e-05,-8e-05,1e-05,1e-05,9e-05,-5.9999999999999995e-05,-2e-05,-5e-05,6
28679,30243,-5.9999999999999995e-05,-8e-05,1e-05,1e-05,9e-05,-5.9999999999999995e-05,-2e-05,-5e-05,6
28680,30244,-5.9999999999999995e-05,-8e-05,1e-05,1e-05,9e-05,-5.9999999999999995e-05,-2e-05,-5e-05,6
28681,30245,-5.9999999999999995e-05,-8e-05,1e-05,1e-05,9e-05,-5.9999999999999995e-05,-2e-05,-5e-05,6
28682,30246,-5.9999999999999995e-05,-8e-05,1e-05,1e-05,9e-05,-5.9999999999999995e-05,-2e-05,-5e-05,6
28683,30247,-5.9999999999999995e-05,-8e-05,1e-05,1e-05,9e-05,-5.9999999999999995e-05,-2e-05,-5e-05,6
28684,30248,-0.00011999999999999999,-0.00011,-5e-05,0.0,5.9999999999999995e-05,-2e-05,0.0,-0.00031,6
28685,30249,-0.00011999999999999999,-0.00011,-5e-05,0.0,5.9999999999999995e-05,-2e-05,0.0,-0.00031,6
28686,30250,-5.9999999999999995e-05,-4e-05,-2e-05,-9e-05,-0.00021,-7e-05,5.9999999999999995e-05,0.0001,6
28687,30252,-5.9999999999999995e-05,-4e-05,-2e-05,-9e-05,-0.00021,-7e-05,5.9999999999999995e-05,0.0001,6
28688,30253,-5.9999999999999995e-05,-4e-05,-2e-05,-9e-05,-0.00021,-7e-05,5.9999999999999995e-05,0.0001,6
28689,30254,-5.9999999999999995e-05,-4e-05,-2e-05,-9e-05,-0.00021,-7e-05,5.9999999999999995e-05,0.0001,6
28690,30255,-5.9999999999999995e-05,-4e-05,-2e-05,-9e-05,-0.00021,-7e-05,5.9999999999999995e-05,0.0001,6
28691,30256,-5.9999999999999995e-05,-4e-05,-2e-05,-9e-05,-0.00021,-7e-05,5.9999999999999995e-05,0.0001,6
28692,30257,-5.9999999999999995e-05,-4e-05,-2e-05,-9e-05,-0.00021,-7e-05,5.9999999999999995e-05,0.0001,6
28693,30258,-5.9999999999999995e-05,-4e-05,-2e-05,-9e-05,-0.00021,-7e-05,5.9999999999999995e-05,0.0001,6
28694,30259,-5.9999999999999995e-05,-4e-05,-2e-05,-9e-05,-0.00021,-7e-05,5.9999999999999995e-05,0.0001,6
28695,30260,-5.9999999999999995e-05,-4e-05,-2e-05,-9e-05,-0.00021,-7e-05,5.9999999999999995e-05,0.0001,6
28696,30261,-5.9999999999999995e-05,-4e-05,-2e-05,-9e-05,-0.00021,-7e-05,5.9999999999999995e-05,0.0001,6
28697,30262,-5.9999999999999995e-05,-4e-05,-2e-05,-9e-05,-0.00021,-7e-05,5.9999999999999995e-05,0.0001,6
28698,30263,-5.9999999999999995e-05,-4e-05,-2e-05,-9e-05,-0.00021,-7e-05,5.9999999999999995e-05,0.0001,6
28699,30264,-5.9999999999999995e-05,-4e-05,-2e-05,-9e-05,-0.00021,-7e-05,5.9999999999999995e-05,0.0001,6
28700,30265,-5.9999999999999995e-05,-4e-05,-2e-05,-9e-05,-0.00021,-7e-05,5.9999999999999995e-05,0.0001,6
28701,30266,-5.9999999999999995e-05,-4e-05,-2e-05,-9e-05,-0.00021,-7e-05,5.9999999999999995e-05,0.0001,6
28702,30267,-5.9999999999999995e-05,-4e-05,-2e-05,-9e-05,-0.00021,-7e-05,5.9999999999999995e-05,0.0001,6
28703,30268,-5.9999999999999995e-05,-4e-05,-2e-05,-9e-05,-0.00021,-7e-05,5.9999999999999995e-05,0.0001,6
28704,30269,-5.9999999999999995e-05,-4e-05,-2e-05,-9e-05,-0.00021,-7e-05,5.9999999999999995e-05,0.0001,6
28705,30270,-5.9999999999999995e-05,-4e-05,-2e-05,-9e-05,-0.00021,-7e-05,5.9999999999999995e-05,0.0001,6
28706,30271,-5e-05,-9e-05,0.0,5.9999999999999995e-05,-2e-05,-2e-05,-0.0001,4e-05,6
28707,30272,8e-05,0.00013000000000000002,7e-05,-5.9999999999999995e-05,-5.9999999999999995e-05,0.0,0.0,-5e-05,6
28708,30273,8e-05,0.00013000000000000002,7e-05,-5.9999999999999995e-05,-5.9999999999999995e-05,0.0,0.0,-5e-05,6
28709,30274,8e-05,0.00013000000000000002,7e-05,-5.9999999999999995e-05,-5.9999999999999995e-05,0.0,0.0,-5e-05,6
28710,30275,8e-05,0.00013000000000000002,7e-05,-5.9999999999999995e-05,-5.9999999999999995e-05,0.0,0.0,-5e-05,6
28711,30276,8e-05,0.00013000000000000002,7e-05,-5.9999999999999995e-05,-5.9999999999999995e-05,0.0,0.0,-5e-05,6
28712,30277,8e-05,0.00013000000000000002,7e-05,-5.9999999999999995e-05,-5.9999999999999995e-05,0.0,0.0,-5e-05,6
28713,30278,8e-05,0.00013000000000000002,7e-05,-5.9999999999999995e-05,-5.9999999999999995e-05,0.0,0.0,-5e-05,6
28714,30279,8e-05,0.00013000000000000002,7e-05,-5.9999999999999995e-05,-5.9999999999999995e-05,0.0,0.0,-5e-05,6
28715,30280,8e-05,0.00013000000000000002,7e-05,-5.9999999999999995e-05,-5.9999999999999995e-05,0.0,0.0,-5e-05,6
28716,30281,8e-05,0.00013000000000000002,7e-05,-5.9999999999999995e-05,-5.9999999999999995e-05,0.0,0.0,-5e-05,6
28717,30282,8e-05,0.00013000000000000002,7e-05,-5.9999999999999995e-05,-5.9999999999999995e-05,0.0,0.0,-5e-05,6
28718,30283,8e-05,0.00013000000000000002,7e-05,-5.9999999999999995e-05,-5.9999999999999995e-05,0.0,0.0,-5e-05,6
28719,30284,9e-05,-2.9999999999999997e-05,-2e-05,-0.00011999999999999999,-0.00023999999999999998,-0.00018,-2e-05,8e-05,6
28720,30285,9e-05,-2.9999999999999997e-05,-2e-05,-0.00011999999999999999,-0.00023999999999999998,-0.00018,-2e-05,8e-05,6
28721,30286,9e-05,-2.9999999999999997e-05,-2e-05,-0.00011999999999999999,-0.00023999999999999998,-0.00018,-2e-05,8e-05,6
28722,30288,9e-05,-2.9999999999999997e-05,-2e-05,-0.00011999999999999999,-0.00023999999999999998,-0.00018,-2e-05,8e-05,6
28723,30290,9e-05,-2.9999999999999997e-05,-2e-05,-0.00011999999999999999,-0.00023999999999999998,-0.00018,-2e-05,8e-05,6
28724,30291,9e-05,-2.9999999999999997e-05,-2e-05,-0.00011999999999999999,-0.00023999999999999998,-0.00018,-2e-05,8e-05,6
28725,30292,9e-05,-2.9999999999999997e-05,-2e-05,-0.00011999999999999999,-0.00023999999999999998,-0.00018,-2e-05,8e-05,6
28726,30293,-0.00018,-0.00014,-0.0001,1e-05,0.00022999999999999998,-1e-05,0.00011,9e-05,6
28727,30294,-0.00018,-0.00014,-0.0001,1e-05,0.00022999999999999998,-1e-05,0.00011,9e-05,6
28728,30295,-0.00018,-0.00014,-0.0001,1e-05,0.00022999999999999998,-1e-05,0.00011,9e-05,6
28729,30296,-0.00018,-0.00014,-0.0001,1e-05,0.00022999999999999998,-1e-05,0.00011,9e-05,6
28730,30297,-0.00018,-0.00014,-0.0001,1e-05,0.00022999999999999998,-1e-05,0.00011,9e-05,6
28731,30298,-0.00018,-0.00014,-0.0001,1e-05,0.00022999999999999998,-1e-05,0.00011,9e-05,6
28732,30299,-0.00018,-0.00014,-0.0001,1e-05,0.00022999999999999998,-1e-05,0.00011,9e-05,6
28733,30300,-0.00018,-0.00014,-0.0001,1e-05,0.00022999999999999998,-1e-05,0.00011,9e-05,6
28734,30301,-0.00018,-0.00014,-0.0001,1e-05,0.00022999999999999998,-1e-05,0.00011,9e-05,6
28735,30302,-0.00018,-0.00014,-0.0001,1e-05,0.00022999999999999998,-1e-05,0.00011,9e-05,6
28736,30303,-0.00018,-0.00014,-0.0001,1e-05,0.00022999999999999998,-1e-05,0.00011,9e-05,6
28737,30304,-0.00018,-0.00014,-0.0001,1e-05,0.00022999999999999998,-1e-05,0.00011,9e-05,6
28738,30305,-0.00018,-0.00014,-0.0001,1e-05,0.00022999999999999998,-1e-05,0.00011,9e-05,6
28739,30306,-0.00018,-0.00014,-0.0001,1e-05,0.00022999999999999998,-1e-05,0.00011,9e-05,6
28740,30307,-0.00018,-0.00014,-0.0001,1e-05,0.00022999999999999998,-1e-05,0.00011,9e-05,6
28741,30308,1e-05,5.9999999999999995e-05,0.00016999999999999999,0.00016999999999999999,0.00049,-0.0001,0.00015,0.00018,6
28742,30309,1e-05,5.9999999999999995e-05,0.00016999999999999999,0.00016999999999999999,0.00049,-0.0001,0.00015,0.00018,6
28743,30310,4e-05,-8e-05,-0.00011,-5.9999999999999995e-05,8e-05,0.0001,-4e-05,-0.00016,6
28744,30311,4e-05,-8e-05,-0.00011,-5.9999999999999995e-05,8e-05,0.0001,-4e-05,-0.00016,6
28745,30312,4e-05,-8e-05,-0.00011,-5.9999999999999995e-05,8e-05,0.0001,-4e-05,-0.00016,6
28746,30313,4e-05,-8e-05,-0.00011,-5.9999999999999995e-05,8e-05,0.0001,-4e-05,-0.00016,6
28747,30314,4e-05,-8e-05,-0.00011,-5.9999999999999995e-05,8e-05,0.0001,-4e-05,-0.00016,6
28748,30315,4e-05,-8e-05,-0.00011,-5.9999999999999995e-05,8e-05,0.0001,-4e-05,-0.00016,6
28749,30316,4e-05,-8e-05,-0.00011,-5.9999999999999995e-05,8e-05,0.0001,-4e-05,-0.00016,6
28750,30317,4e-05,-8e-05,-0.00011,-5.9999999999999995e-05,8e-05,0.0001,-4e-05,-0.00016,6
28751,30318,4e-05,-8e-05,-0.00011,-5.9999999999999995e-05,8e-05,0.0001,-4e-05,-0.00016,6
28752,30319,4e-05,-8e-05,-0.00011,-5.9999999999999995e-05,8e-05,0.0001,-4e-05,-0.00016,6
28753,30320,4e-05,-8e-05,-0.00011,-5.9999999999999995e-05,8e-05,0.0001,-4e-05,-0.00016,6
28754,30321,4e-05,-8e-05,-0.00011,-5.9999999999999995e-05,8e-05,0.0001,-4e-05,-0.00016,6
28755,30322,4e-05,-8e-05,-0.00011,-5.9999999999999995e-05,8e-05,0.0001,-4e-05,-0.00016,6
28756,30323,4e-05,-8e-05,-0.00011,-5.9999999999999995e-05,8e-05,0.0001,-4e-05,-0.00016,6
28757,30324,4e-05,-8e-05,-0.00011,-5.9999999999999995e-05,8e-05,0.0001,-4e-05,-0.00016,6
28758,30325,4e-05,-8e-05,-0.00011,-5.9999999999999995e-05,8e-05,0.0001,-4e-05,-0.00016,6
28759,30326,4e-05,-8e-05,-0.00011,-5.9999999999999995e-05,8e-05,0.0001,-4e-05,-0.00016,6
28760,30327,4e-05,-8e-05,-0.00011,-5.9999999999999995e-05,8e-05,0.0001,-4e-05,-0.00016,6
28761,30328,4e-05,-8e-05,-0.00011,-5.9999999999999995e-05,8e-05,0.0001,-4e-05,-0.00016,6
28762,30329,4e-05,-8e-05,-0.00011,-5.9999999999999995e-05,8e-05,0.0001,-4e-05,-0.00016,6
28763,30330,4e-05,-8e-05,-0.00011,-5.9999999999999995e-05,8e-05,0.0001,-4e-05,-0.00016,6
28764,30331,-0.00011999999999999999,-9e-05,-8e-05,-5.9999999999999995e-05,-0.00018,-4e-05,-2.9999999999999997e-05,-0.00022,6
28765,30332,2e-05,5.9999999999999995e-05,0.0001,9e-05,0.00016,5e-05,-4e-05,-7e-05,6
28766,30333,2e-05,5.9999999999999995e-05,0.0001,9e-05,0.00016,5e-05,-4e-05,-7e-05,6
28767,30334,2e-05,5.9999999999999995e-05,0.0001,9e-05,0.00016,5e-05,-4e-05,-7e-05,6
28768,30335,2e-05,5.9999999999999995e-05,0.0001,9e-05,0.00016,5e-05,-4e-05,-7e-05,6
28769,30336,2e-05,5.9999999999999995e-05,0.0001,9e-05,0.00016,5e-05,-4e-05,-7e-05,6
28770,30338,2e-05,5.9999999999999995e-05,0.0001,9e-05,0.00016,5e-05,-4e-05,-7e-05,6
28771,30339,2e-05,5.9999999999999995e-05,0.0001,9e-05,0.00016,5e-05,-4e-05,-7e-05,6
28772,30340,2e-05,5.9999999999999995e-05,0.0001,9e-05,0.00016,5e-05,-4e-05,-7e-05,6
28773,30341,2e-05,5.9999999999999995e-05,0.0001,9e-05,0.00016,5e-05,-4e-05,-7e-05,6
28774,30342,2e-05,5.9999999999999995e-05,0.0001,9e-05,0.00016,5e-05,-4e-05,-7e-05,6
28775,30343,2e-05,5.9999999999999995e-05,0.0001,9e-05,0.00016,5e-05,-4e-05,-7e-05,6
28776,30344,0.00022,0.0,-0.0001,-9e-05,-0.0001,9e-05,0.0,-7e-05,6
28777,30345,0.00022,0.0,-0.0001,-9e-05,-0.0001,9e-05,0.0,-7e-05,6
28778,30346,0.00022,0.0,-0.0001,-9e-05,-0.0001,9e-05,0.0,-7e-05,6
28779,30347,0.00022,0.0,-0.0001,-9e-05,-0.0001,9e-05,0.0,-7e-05,6
28780,30348,0.00022,0.0,-0.0001,-9e-05,-0.0001,9e-05,0.0,-7e-05,6
28781,30349,0.00022,0.0,-0.0001,-9e-05,-0.0001,9e-05,0.0,-7e-05,6
28782,30350,0.00022,0.0,-0.0001,-9e-05,-0.0001,9e-05,0.0,-7e-05,6
28783,30351,0.00022,0.0,-0.0001,-9e-05,-0.0001,9e-05,0.0,-7e-05,6
28784,30352,0.00022,0.0,-0.0001,-9e-05,-0.0001,9e-05,0.0,-7e-05,6
28785,30353,0.00015,2.9999999999999997e-05,-1e-05,2.9999999999999997e-05,-0.00026000000000000003,0.00014,5e-05,9e-05,6
28786,30354,0.00015,2.9999999999999997e-05,-1e-05,2.9999999999999997e-05,-0.00026000000000000003,0.00014,5e-05,9e-05,6
28787,30355,0.00015,2.9999999999999997e-05,-1e-05,2.9999999999999997e-05,-0.00026000000000000003,0.00014,5e-05,9e-05,6
28788,30356,0.00015,2.9999999999999997e-05,-1e-05,2.9999999999999997e-05,-0.00026000000000000003,0.00014,5e-05,9e-05,6
28789,30357,0.00015,2.9999999999999997e-05,-1e-05,2.9999999999999997e-05,-0.00026000000000000003,0.00014,5e-05,9e-05,6
28790,30358,0.00015,2.9999999999999997e-05,-1e-05,2.9999999999999997e-05,-0.00026000000000000003,0.00014,5e-05,9e-05,6
28791,30359,0.00015,2.9999999999999997e-05,-1e-05,2.9999999999999997e-05,-0.00026000000000000003,0.00014,5e-05,9e-05,6
28792,30360,0.00015,2.9999999999999997e-05,-1e-05,2.9999999999999997e-05,-0.00026000000000000003,0.00014,5e-05,9e-05,6
28793,30361,0.00015,2.9999999999999997e-05,-1e-05,2.9999999999999997e-05,-0.00026000000000000003,0.00014,5e-05,9e-05,6
28794,30362,0.00015,2.9999999999999997e-05,-1e-05,2.9999999999999997e-05,-0.00026000000000000003,0.00014,5e-05,9e-05,6
28795,30363,0.00015,2.9999999999999997e-05,-1e-05,2.9999999999999997e-05,-0.00026000000000000003,0.00014,5e-05,9e-05,6
28796,30364,0.00015,2.9999999999999997e-05,-1e-05,2.9999999999999997e-05,-0.00026000000000000003,0.00014,5e-05,9e-05,6
28797,30365,0.00015,2.9999999999999997e-05,-1e-05,2.9999999999999997e-05,-0.00026000000000000003,0.00014,5e-05,9e-05,6
28798,30366,0.00015,2.9999999999999997e-05,-1e-05,2.9999999999999997e-05,-0.00026000000000000003,0.00014,5e-05,9e-05,6
28799,30367,0.00015,2.9999999999999997e-05,-1e-05,2.9999999999999997e-05,-0.00026000000000000003,0.00014,5e-05,9e-05,6
28800,30368,-8e-05,-2.9999999999999997e-05,-2.9999999999999997e-05,-2e-05,-2e-05,0.00011,5.9999999999999995e-05,-5.9999999999999995e-05,6
28801,30369,-8e-05,-2.9999999999999997e-05,-2.9999999999999997e-05,-2e-05,-2e-05,0.00011,5.9999999999999995e-05,-5.9999999999999995e-05,6
28802,30370,-0.00011,-7e-05,-5e-05,-0.00011999999999999999,-0.00016999999999999999,-0.0003,-0.00011,-0.00021,6
28803,30371,-0.00011,-7e-05,-5e-05,-0.00011999999999999999,-0.00016999999999999999,-0.0003,-0.00011,-0.00021,6
28804,30372,-0.00011,-7e-05,-5e-05,-0.00011999999999999999,-0.00016999999999999999,-0.0003,-0.00011,-0.00021,6
28805,30373,-0.00011,-7e-05,-5e-05,-0.00011999999999999999,-0.00016999999999999999,-0.0003,-0.00011,-0.00021,6
28806,30374,-0.00011,-7e-05,-5e-05,-0.00011999999999999999,-0.00016999999999999999,-0.0003,-0.00011,-0.00021,6
28807,30375,-0.00011,-7e-05,-5e-05,-0.00011999999999999999,-0.00016999999999999999,-0.0003,-0.00011,-0.00021,6
28808,30376,-0.00011,-7e-05,-5e-05,-0.00011999999999999999,-0.00016999999999999999,-0.0003,-0.00011,-0.00021,6
28809,30377,-0.00011,-7e-05,-5e-05,-0.00011999999999999999,-0.00016999999999999999,-0.0003,-0.00011,-0.00021,6
28810,30378,-0.00011,-7e-05,-5e-05,-0.00011999999999999999,-0.00016999999999999999,-0.0003,-0.00011,-0.00021,6
28811,30379,-0.00011,-7e-05,-5e-05,-0.00011999999999999999,-0.00016999999999999999,-0.0003,-0.00011,-0.00021,6
28812,30380,-0.00011,-7e-05,-5e-05,-0.00011999999999999999,-0.00016999999999999999,-0.0003,-0.00011,-0.00021,6
28813,30381,-0.00011,-7e-05,-5e-05,-0.00011999999999999999,-0.00016999999999999999,-0.0003,-0.00011,-0.00021,6
28814,30382,-0.00011,-7e-05,-5e-05,-0.00011999999999999999,-0.00016999999999999999,-0.0003,-0.00011,-0.00021,6
28815,30383,-0.00011,-7e-05,-5e-05,-0.00011999999999999999,-0.00016999999999999999,-0.0003,-0.00011,-0.00021,6
28816,30384,-0.00011,-7e-05,-5e-05,-0.00011999999999999999,-0.00016999999999999999,-0.0003,-0.00011,-0.00021,6
28817,30385,-0.00011,-7e-05,-5e-05,-0.00011999999999999999,-0.00016999999999999999,-0.0003,-0.00011,-0.00021,6
28818,30386,-0.00011,-7e-05,-5e-05,-0.00011999999999999999,-0.00016999999999999999,-0.0003,-0.00011,-0.00021,6
28819,30388,-0.00011,-7e-05,-5e-05,-0.00011999999999999999,-0.00016999999999999999,-0.0003,-0.00011,-0.00021,6
28820,30389,-0.00011,-7e-05,-5e-05,-0.00011999999999999999,-0.00016999999999999999,-0.0003,-0.00011,-0.00021,6
28821,30390,-0.00011,-7e-05,-5e-05,-0.00011999999999999999,-0.00016999999999999999,-0.0003,-0.00011,-0.00021,6
28822,30391,-2.9999999999999997e-05,-7e-05,-5.9999999999999995e-05,-2.9999999999999997e-05,0.0,7e-05,-0.00011,0.0,6
28823,30392,-2.9999999999999997e-05,-7e-05,-5.9999999999999995e-05,-2.9999999999999997e-05,0.0,7e-05,-0.00011,0.0,6
28824,30393,0.0002,4e-05,4e-05,5.9999999999999995e-05,5e-05,7e-05,-7e-05,0.00016,6
28825,30394,0.0002,4e-05,4e-05,5.9999999999999995e-05,5e-05,7e-05,-7e-05,0.00016,6
28826,30395,0.0002,4e-05,4e-05,5.9999999999999995e-05,5e-05,7e-05,-7e-05,0.00016,6
28827,30396,0.0002,4e-05,4e-05,5.9999999999999995e-05,5e-05,7e-05,-7e-05,0.00016,6
28828,30397,0.0002,4e-05,4e-05,5.9999999999999995e-05,5e-05,7e-05,-7e-05,0.00016,6
28829,30398,0.0002,4e-05,4e-05,5.9999999999999995e-05,5e-05,7e-05,-7e-05,0.00016,6
28830,30399,0.0002,4e-05,4e-05,5.9999999999999995e-05,5e-05,7e-05,-7e-05,0.00016,6
28831,30400,0.0002,4e-05,4e-05,5.9999999999999995e-05,5e-05,7e-05,-7e-05,0.00016,6
28832,30401,0.0002,4e-05,4e-05,5.9999999999999995e-05,5e-05,7e-05,-7e-05,0.00016,6
28833,30402,0.0002,4e-05,4e-05,5.9999999999999995e-05,5e-05,7e-05,-7e-05,0.00016,6
28834,30403,0.0002,4e-05,4e-05,5.9999999999999995e-05,5e-05,7e-05,-7e-05,0.00016,6
28835,30404,-4e-05,-5e-05,5e-05,4e-05,-1e-05,8e-05,-1e-05,-0.00029,6
28836,30405,-4e-05,-5e-05,5e-05,4e-05,-1e-05,8e-05,-1e-05,-0.00029,6
28837,30406,-4e-05,-5e-05,5e-05,4e-05,-1e-05,8e-05,-1e-05,-0.00029,6
28838,30407,-4e-05,-5e-05,5e-05,4e-05,-1e-05,8e-05,-1e-05,-0.00029,6
28839,30408,-4e-05,-5e-05,5e-05,4e-05,-1e-05,8e-05,-1e-05,-0.00029,6
28840,30409,-4e-05,-5e-05,5e-05,4e-05,-1e-05,8e-05,-1e-05,-0.00029,6
28841,30410,-4e-05,-5e-05,5e-05,4e-05,-1e-05,8e-05,-1e-05,-0.00029,6
28842,30411,-4e-05,-5e-05,5e-05,4e-05,-1e-05,8e-05,-1e-05,-0.00029,6
28843,30412,-4e-05,-5e-05,5e-05,4e-05,-1e-05,8e-05,-1e-05,-0.00029,6
28844,30413,-4e-05,-5e-05,5e-05,4e-05,-1e-05,8e-05,-1e-05,-0.00029,6
28845,30414,9e-05,8e-05,-2.9999999999999997e-05,7e-05,0.00056,0.0010400000000000001,-5e-05,7e-05,6
28846,30415,9e-05,8e-05,-2.9999999999999997e-05,7e-05,0.00056,0.0010400000000000001,-5e-05,7e-05,6
28847,30416,9e-05,8e-05,-2.9999999999999997e-05,7e-05,0.00056,0.0010400000000000001,-5e-05,7e-05,6
28848,30417,9e-05,8e-05,-2.9999999999999997e-05,7e-05,0.00056,0.0010400000000000001,-5e-05,7e-05,6
28849,30418,9e-05,8e-05,-2.9999999999999997e-05,7e-05,0.00056,0.0010400000000000001,-5e-05,7e-05,6
28850,30419,9e-05,8e-05,-2.9999999999999997e-05,7e-05,0.00056,0.0010400000000000001,-5e-05,7e-05,6
28851,30420,9e-05,8e-05,-2.9999999999999997e-05,7e-05,0.00056,0.0010400000000000001,-5e-05,7e-05,6
28852,30421,9e-05,8e-05,-2.9999999999999997e-05,7e-05,0.00056,0.0010400000000000001,-5e-05,7e-05,6
28853,30422,9e-05,8e-05,-2.9999999999999997e-05,7e-05,0.00056,0.0010400000000000001,-5e-05,7e-05,6
28854,30423,9e-05,8e-05,-2.9999999999999997e-05,7e-05,0.00056,0.0010400000000000001,-5e-05,7e-05,6
28855,30424,9e-05,8e-05,-2.9999999999999997e-05,7e-05,0.00056,0.0010400000000000001,-5e-05,7e-05,6
28856,30425,9e-05,8e-05,-2.9999999999999997e-05,7e-05,0.00056,0.0010400000000000001,-5e-05,7e-05,6
28857,30426,9e-05,8e-05,-2.9999999999999997e-05,7e-05,0.00056,0.0010400000000000001,-5e-05,7e-05,6
28858,30427,9e-05,8e-05,-2.9999999999999997e-05,7e-05,0.00056,0.0010400000000000001,-5e-05,7e-05,6
28859,30428,5.9999999999999995e-05,-1e-05,-2.9999999999999997e-05,-0.00011,5e-05,-2e-05,-7e-05,-2e-05,6
28860,30429,5.9999999999999995e-05,-1e-05,-2.9999999999999997e-05,-0.00011,5e-05,-2e-05,-7e-05,-2e-05,6
28861,30430,-0.00011,-4e-05,2e-05,-4e-05,-0.00037,-9e-05,-1e-05,-7e-05,6
28862,30431,-0.00011,-4e-05,2e-05,-4e-05,-0.00037,-9e-05,-1e-05,-7e-05,6
28863,30432,-0.00011,-4e-05,2e-05,-4e-05,-0.00037,-9e-05,-1e-05,-7e-05,6
28864,30433,-0.00011,-4e-05,2e-05,-4e-05,-0.00037,-9e-05,-1e-05,-7e-05,6
28865,30434,-0.00011,-4e-05,2e-05,-4e-05,-0.00037,-9e-05,-1e-05,-7e-05,6
28866,30435,-0.00011,-4e-05,2e-05,-4e-05,-0.00037,-9e-05,-1e-05,-7e-05,6
28867,30436,-0.00011,-4e-05,2e-05,-4e-05,-0.00037,-9e-05,-1e-05,-7e-05,6
28868,30438,-0.00011,-4e-05,2e-05,-4e-05,-0.00037,-9e-05,-1e-05,-7e-05,6
28869,30439,-0.00011,-4e-05,2e-05,-4e-05,-0.00037,-9e-05,-1e-05,-7e-05,6
28870,30440,-0.00011,-4e-05,2e-05,-4e-05,-0.00037,-9e-05,-1e-05,-7e-05,6
28871,30441,-0.00011,-4e-05,2e-05,-4e-05,-0.00037,-9e-05,-1e-05,-7e-05,6
28872,30442,-0.00011,-4e-05,2e-05,-4e-05,-0.00037,-9e-05,-1e-05,-7e-05,6
28873,30444,-0.00011,-4e-05,2e-05,-4e-05,-0.00037,-9e-05,-1e-05,-7e-05,6
28874,30445,-0.00011,-4e-05,2e-05,-4e-05,-0.00037,-9e-05,-1e-05,-7e-05,6
28875,30446,-0.00011,-4e-05,2e-05,-4e-05,-0.00037,-9e-05,-1e-05,-7e-05,6
28876,30447,-0.00011,-4e-05,2e-05,-4e-05,-0.00037,-9e-05,-1e-05,-7e-05,6
28877,30448,-0.00011,-4e-05,2e-05,-4e-05,-0.00037,-9e-05,-1e-05,-7e-05,6
28878,30449,-0.00011,-4e-05,2e-05,-4e-05,-0.00037,-9e-05,-1e-05,-7e-05,6
28879,30450,-0.00011,-4e-05,2e-05,-4e-05,-0.00037,-9e-05,-1e-05,-7e-05,6
28880,30451,-2.9999999999999997e-05,-4e-05,-5e-05,-9e-05,0.00016999999999999999,0.00022,0.00037999999999999997,0.00059,6
28881,30452,-5.9999999999999995e-05,4e-05,0.00014,-4e-05,-0.00011999999999999999,-0.00057,7e-05,-8e-05,6
28882,30453,-5.9999999999999995e-05,4e-05,0.00014,-4e-05,-0.00011999999999999999,-0.00057,7e-05,-8e-05,6
28883,30454,-5.9999999999999995e-05,4e-05,0.00014,-4e-05,-0.00011999999999999999,-0.00057,7e-05,-8e-05,6
28884,30455,-5.9999999999999995e-05,4e-05,0.00014,-4e-05,-0.00011999999999999999,-0.00057,7e-05,-8e-05,6
28885,30456,-5.9999999999999995e-05,4e-05,0.00014,-4e-05,-0.00011999999999999999,-0.00057,7e-05,-8e-05,6
28886,30457,-5.9999999999999995e-05,4e-05,0.00014,-4e-05,-0.00011999999999999999,-0.00057,7e-05,-8e-05,6
28887,30458,-5.9999999999999995e-05,4e-05,0.00014,-4e-05,-0.00011999999999999999,-0.00057,7e-05,-8e-05,6
28888,30459,-5.9999999999999995e-05,4e-05,0.00014,-4e-05,-0.00011999999999999999,-0.00057,7e-05,-8e-05,6
28889,30460,-5.9999999999999995e-05,4e-05,0.00014,-4e-05,-0.00011999999999999999,-0.00057,7e-05,-8e-05,6
28890,30461,-5.9999999999999995e-05,4e-05,0.00014,-4e-05,-0.00011999999999999999,-0.00057,7e-05,-8e-05,6
28891,30462,-5.9999999999999995e-05,4e-05,0.00014,-4e-05,-0.00011999999999999999,-0.00057,7e-05,-8e-05,6
28892,30463,-5.9999999999999995e-05,4e-05,0.00014,-4e-05,-0.00011999999999999999,-0.00057,7e-05,-8e-05,6
28893,30464,-0.00011,-8e-05,-9e-05,-7e-05,-0.00015,-0.00018,-0.0001,-0.00028,6
28894,30465,-0.00011,-8e-05,-9e-05,-7e-05,-0.00015,-0.00018,-0.0001,-0.00028,6
28895,30466,-0.00011,-8e-05,-9e-05,-7e-05,-0.00015,-0.00018,-0.0001,-0.00028,6
28896,30467,-0.00011,-8e-05,-9e-05,-7e-05,-0.00015,-0.00018,-0.0001,-0.00028,6
28897,30468,-0.00011,-8e-05,-9e-05,-7e-05,-0.00015,-0.00018,-0.0001,-0.00028,6
28898,30469,-0.00011,-8e-05,-9e-05,-7e-05,-0.00015,-0.00018,-0.0001,-0.00028,6
28899,30470,-0.00011,-8e-05,-9e-05,-7e-05,-0.00015,-0.00018,-0.0001,-0.00028,6
28900,30471,-0.00011,-8e-05,-9e-05,-7e-05,-0.00015,-0.00018,-0.0001,-0.00028,6
28901,30472,-0.00011,-8e-05,-9e-05,-7e-05,-0.00015,-0.00018,-0.0001,-0.00028,6
28902,30473,-7e-05,-0.00016,-0.00011999999999999999,-7e-05,-0.00013000000000000002,-0.00028,-0.00037,-0.00035,6
28903,30474,-7e-05,-0.00016,-0.00011999999999999999,-7e-05,-0.00013000000000000002,-0.00028,-0.00037,-0.00035,6
28904,30475,-7e-05,-0.00016,-0.00011999999999999999,-7e-05,-0.00013000000000000002,-0.00028,-0.00037,-0.00035,6
28905,30476,-7e-05,-0.00016,-0.00011999999999999999,-7e-05,-0.00013000000000000002,-0.00028,-0.00037,-0.00035,6
28906,30477,-7e-05,-0.00016,-0.00011999999999999999,-7e-05,-0.00013000000000000002,-0.00028,-0.00037,-0.00035,6
28907,30478,-7e-05,-0.00016,-0.00011999999999999999,-7e-05,-0.00013000000000000002,-0.00028,-0.00037,-0.00035,6
28908,30479,-7e-05,-0.00016,-0.00011999999999999999,-7e-05,-0.00013000000000000002,-0.00028,-0.00037,-0.00035,6
28909,30480,-7e-05,-0.00016,-0.00011999999999999999,-7e-05,-0.00013000000000000002,-0.00028,-0.00037,-0.00035,6
28910,30481,-7e-05,-0.00016,-0.00011999999999999999,-7e-05,-0.00013000000000000002,-0.00028,-0.00037,-0.00035,6
28911,30482,-7e-05,-0.00016,-0.00011999999999999999,-7e-05,-0.00013000000000000002,-0.00028,-0.00037,-0.00035,6
28912,30483,-7e-05,-0.00016,-0.00011999999999999999,-7e-05,-0.00013000000000000002,-0.00028,-0.00037,-0.00035,6
28913,30484,-7e-05,-0.00016,-0.00011999999999999999,-7e-05,-0.00013000000000000002,-0.00028,-0.00037,-0.00035,6
28914,30485,-7e-05,-0.00016,-0.00011999999999999999,-7e-05,-0.00013000000000000002,-0.00028,-0.00037,-0.00035,6
28915,30486,-7e-05,-0.00016,-0.00011999999999999999,-7e-05,-0.00013000000000000002,-0.00028,-0.00037,-0.00035,6
28916,30489,0.00011,0.0001,9e-05,0.0001,9e-05,0.00021,-0.00015,1e-05,6
28917,30490,0.00028,2e-05,4e-05,-5e-05,-7e-05,-0.0002,2e-05,-0.00011,6
28918,30491,0.00028,2e-05,4e-05,-5e-05,-7e-05,-0.0002,2e-05,-0.00011,6
28919,30492,0.00028,2e-05,4e-05,-5e-05,-7e-05,-0.0002,2e-05,-0.00011,6
28920,30493,0.00028,2e-05,4e-05,-5e-05,-7e-05,-0.0002,2e-05,-0.00011,6
28921,30494,0.00028,2e-05,4e-05,-5e-05,-7e-05,-0.0002,2e-05,-0.00011,6
28922,30495,0.00028,2e-05,4e-05,-5e-05,-7e-05,-0.0002,2e-05,-0.00011,6
28923,30496,0.00028,2e-05,4e-05,-5e-05,-7e-05,-0.0002,2e-05,-0.00011,6
28924,30497,0.00028,2e-05,4e-05,-5e-05,-7e-05,-0.0002,2e-05,-0.00011,6
28925,30498,0.00028,2e-05,4e-05,-5e-05,-7e-05,-0.0002,2e-05,-0.00011,6
28926,30499,0.00028,2e-05,4e-05,-5e-05,-7e-05,-0.0002,2e-05,-0.00011,6
28927,30500,0.00028,2e-05,4e-05,-5e-05,-7e-05,-0.0002,2e-05,-0.00011,6
28928,30501,0.00028,2e-05,4e-05,-5e-05,-7e-05,-0.0002,2e-05,-0.00011,6
28929,30502,0.00028,2e-05,4e-05,-5e-05,-7e-05,-0.0002,2e-05,-0.00011,6
28930,30503,0.00028,2e-05,4e-05,-5e-05,-7e-05,-0.0002,2e-05,-0.00011,6
28931,30504,0.00028,2e-05,4e-05,-5e-05,-7e-05,-0.0002,2e-05,-0.00011,6
28932,30505,0.00028,2e-05,4e-05,-5e-05,-7e-05,-0.0002,2e-05,-0.00011,6
28933,30506,0.00028,2e-05,4e-05,-5e-05,-7e-05,-0.0002,2e-05,-0.00011,6
28934,30507,0.00028,2e-05,4e-05,-5e-05,-7e-05,-0.0002,2e-05,-0.00011,6
28935,30508,0.00028,2e-05,4e-05,-5e-05,-7e-05,-0.0002,2e-05,-0.00011,6
28936,30509,0.00028,2e-05,4e-05,-5e-05,-7e-05,-0.0002,2e-05,-0.00011,6
28937,30510,0.00028,2e-05,4e-05,-5e-05,-7e-05,-0.0002,2e-05,-0.00011,6
28938,30511,0.00018999999999999998,-2e-05,-0.00011,-8e-05,-0.00018,0.00013000000000000002,-2e-05,0.00065,6
28939,30512,-0.0005099999999999999,-5.9999999999999995e-05,2e-05,2e-05,0.0,-0.00013000000000000002,-5.9999999999999995e-05,-5e-05,6
28940,30513,-0.0005099999999999999,-5.9999999999999995e-05,2e-05,2e-05,0.0,-0.00013000000000000002,-5.9999999999999995e-05,-5e-05,6
28941,30514,-0.0005099999999999999,-5.9999999999999995e-05,2e-05,2e-05,0.0,-0.00013000000000000002,-5.9999999999999995e-05,-5e-05,6
28942,30515,-0.0005099999999999999,-5.9999999999999995e-05,2e-05,2e-05,0.0,-0.00013000000000000002,-5.9999999999999995e-05,-5e-05,6
28943,30516,-0.0005099999999999999,-5.9999999999999995e-05,2e-05,2e-05,0.0,-0.00013000000000000002,-5.9999999999999995e-05,-5e-05,6
28944,30517,-0.0005099999999999999,-5.9999999999999995e-05,2e-05,2e-05,0.0,-0.00013000000000000002,-5.9999999999999995e-05,-5e-05,6
28945,30518,-0.0005099999999999999,-5.9999999999999995e-05,2e-05,2e-05,0.0,-0.00013000000000000002,-5.9999999999999995e-05,-5e-05,6
28946,30519,-0.0005099999999999999,-5.9999999999999995e-05,2e-05,2e-05,0.0,-0.00013000000000000002,-5.9999999999999995e-05,-5e-05,6
28947,30520,-0.0005099999999999999,-5.9999999999999995e-05,2e-05,2e-05,0.0,-0.00013000000000000002,-5.9999999999999995e-05,-5e-05,6
28948,30521,-0.0005099999999999999,-5.9999999999999995e-05,2e-05,2e-05,0.0,-0.00013000000000000002,-5.9999999999999995e-05,-5e-05,6
28949,30522,-0.0005099999999999999,-5.9999999999999995e-05,2e-05,2e-05,0.0,-0.00013000000000000002,-5.9999999999999995e-05,-5e-05,6
28950,30523,-0.0005099999999999999,-5.9999999999999995e-05,2e-05,2e-05,0.0,-0.00013000000000000002,-5.9999999999999995e-05,-5e-05,6
28951,30524,-0.00021,-8e-05,-0.00011999999999999999,-0.00011999999999999999,-0.00056,-9e-05,5e-05,-0.00043,6
28952,30525,-0.00021,-8e-05,-0.00011999999999999999,-0.00011999999999999999,-0.00056,-9e-05,5e-05,-0.00043,6
28953,30526,-0.00021,-8e-05,-0.00011999999999999999,-0.00011999999999999999,-0.00056,-9e-05,5e-05,-0.00043,6
28954,30527,-0.00021,-8e-05,-0.00011999999999999999,-0.00011999999999999999,-0.00056,-9e-05,5e-05,-0.00043,6
28955,30528,-0.00021,-8e-05,-0.00011999999999999999,-0.00011999999999999999,-0.00056,-9e-05,5e-05,-0.00043,6
28956,30529,-0.00021,-8e-05,-0.00011999999999999999,-0.00011999999999999999,-0.00056,-9e-05,5e-05,-0.00043,6
28957,30530,-0.00021,-8e-05,-0.00011999999999999999,-0.00011999999999999999,-0.00056,-9e-05,5e-05,-0.00043,6
28958,30531,-0.00021,-8e-05,-0.00011999999999999999,-0.00011999999999999999,-0.00056,-9e-05,5e-05,-0.00043,6
28959,30532,-0.00021,-8e-05,-0.00011999999999999999,-0.00011999999999999999,-0.00056,-9e-05,5e-05,-0.00043,6
28960,30533,-0.00021,-8e-05,-0.00011999999999999999,-0.00011999999999999999,-0.00056,-9e-05,5e-05,-0.00043,6
28961,30534,0.00016999999999999999,7e-05,4e-05,-0.00018,-5e-05,0.00022,0.00026000000000000003,0.00036,6
28962,30535,0.00016999999999999999,7e-05,4e-05,-0.00018,-5e-05,0.00022,0.00026000000000000003,0.00036,6
28963,30536,0.00016999999999999999,7e-05,4e-05,-0.00018,-5e-05,0.00022,0.00026000000000000003,0.00036,6
28964,30538,0.00016999999999999999,7e-05,4e-05,-0.00018,-5e-05,0.00022,0.00026000000000000003,0.00036,6
28965,30539,0.00016999999999999999,7e-05,4e-05,-0.00018,-5e-05,0.00022,0.00026000000000000003,0.00036,6
28966,30540,0.00016999999999999999,7e-05,4e-05,-0.00018,-5e-05,0.00022,0.00026000000000000003,0.00036,6
28967,30541,0.00016999999999999999,7e-05,4e-05,-0.00018,-5e-05,0.00022,0.00026000000000000003,0.00036,6
28968,30542,0.00016999999999999999,7e-05,4e-05,-0.00018,-5e-05,0.00022,0.00026000000000000003,0.00036,6
28969,30543,0.00016999999999999999,7e-05,4e-05,-0.00018,-5e-05,0.00022,0.00026000000000000003,0.00036,6
28970,30544,0.00016999999999999999,7e-05,4e-05,-0.00018,-5e-05,0.00022,0.00026000000000000003,0.00036,6
28971,30545,0.00016999999999999999,7e-05,4e-05,-0.00018,-5e-05,0.00022,0.00026000000000000003,0.00036,6
28972,30546,0.00016999999999999999,7e-05,4e-05,-0.00018,-5e-05,0.00022,0.00026000000000000003,0.00036,6
28973,30547,0.00016999999999999999,7e-05,4e-05,-0.00018,-5e-05,0.00022,0.00026000000000000003,0.00036,6
28974,30548,-0.00018,-2e-05,0.0,4e-05,8e-05,0.00011,-7e-05,-0.00011999999999999999,6
28975,30549,-0.00018,-2e-05,0.0,4e-05,8e-05,0.00011,-7e-05,-0.00011999999999999999,6
28976,30550,-0.00039,-0.00015,-9e-05,0.00011999999999999999,0.00015,-5.9999999999999995e-05,-0.0001,-0.00037999999999999997,6
28977,30551,-0.00039,-0.00015,-9e-05,0.00011999999999999999,0.00015,-5.9999999999999995e-05,-0.0001,-0.00037999999999999997,6
28978,30552,-0.00039,-0.00015,-9e-05,0.00011999999999999999,0.00015,-5.9999999999999995e-05,-0.0001,-0.00037999999999999997,6
28979,30553,-0.00039,-0.00015,-9e-05,0.00011999999999999999,0.00015,-5.9999999999999995e-05,-0.0001,-0.00037999999999999997,6
28980,30554,-0.00039,-0.00015,-9e-05,0.00011999999999999999,0.00015,-5.9999999999999995e-05,-0.0001,-0.00037999999999999997,6
28981,30555,-0.00039,-0.00015,-9e-05,0.00011999999999999999,0.00015,-5.9999999999999995e-05,-0.0001,-0.00037999999999999997,6
28982,30556,-0.00039,-0.00015,-9e-05,0.00011999999999999999,0.00015,-5.9999999999999995e-05,-0.0001,-0.00037999999999999997,6
28983,30557,-0.00039,-0.00015,-9e-05,0.00011999999999999999,0.00015,-5.9999999999999995e-05,-0.0001,-0.00037999999999999997,6
28984,30558,-0.00039,-0.00015,-9e-05,0.00011999999999999999,0.00015,-5.9999999999999995e-05,-0.0001,-0.00037999999999999997,6
28985,30559,-0.00039,-0.00015,-9e-05,0.00011999999999999999,0.00015,-5.9999999999999995e-05,-0.0001,-0.00037999999999999997,6
28986,30560,-0.00039,-0.00015,-9e-05,0.00011999999999999999,0.00015,-5.9999999999999995e-05,-0.0001,-0.00037999999999999997,6
28987,30561,-0.00039,-0.00015,-9e-05,0.00011999999999999999,0.00015,-5.9999999999999995e-05,-0.0001,-0.00037999999999999997,6
28988,30562,-0.00039,-0.00015,-9e-05,0.00011999999999999999,0.00015,-5.9999999999999995e-05,-0.0001,-0.00037999999999999997,6
28989,30563,-0.00039,-0.00015,-9e-05,0.00011999999999999999,0.00015,-5.9999999999999995e-05,-0.0001,-0.00037999999999999997,6
28990,30564,-0.00039,-0.00015,-9e-05,0.00011999999999999999,0.00015,-5.9999999999999995e-05,-0.0001,-0.00037999999999999997,6
28991,30565,-0.00039,-0.00015,-9e-05,0.00011999999999999999,0.00015,-5.9999999999999995e-05,-0.0001,-0.00037999999999999997,6
28992,30566,-0.00039,-0.00015,-9e-05,0.00011999999999999999,0.00015,-5.9999999999999995e-05,-0.0001,-0.00037999999999999997,6
28993,30567,-0.00039,-0.00015,-9e-05,0.00011999999999999999,0.00015,-5.9999999999999995e-05,-0.0001,-0.00037999999999999997,6
28994,30568,-0.00039,-0.00015,-9e-05,0.00011999999999999999,0.00015,-5.9999999999999995e-05,-0.0001,-0.00037999999999999997,6
28995,30569,-0.00039,-0.00015,-9e-05,0.00011999999999999999,0.00015,-5.9999999999999995e-05,-0.0001,-0.00037999999999999997,6
28996,30570,-0.00039,-0.00015,-9e-05,0.00011999999999999999,0.00015,-5.9999999999999995e-05,-0.0001,-0.00037999999999999997,6
28997,30571,0.0002,2e-05,0.00018999999999999998,2.9999999999999997e-05,-0.0002,-0.00036,0.0001,0.0005200000000000001,6
28998,30572,0.00016,-2.9999999999999997e-05,-0.0001,-5e-05,-9e-05,2e-05,9e-05,-4e-05,6
28999,30573,0.00016,-2.9999999999999997e-05,-0.0001,-5e-05,-9e-05,2e-05,9e-05,-4e-05,6
29000,30574,0.00016,-2.9999999999999997e-05,-0.0001,-5e-05,-9e-05,2e-05,9e-05,-4e-05,6
29001,30575,0.00016,-2.9999999999999997e-05,-0.0001,-5e-05,-9e-05,2e-05,9e-05,-4e-05,6
29002,30576,0.00016,-2.9999999999999997e-05,-0.0001,-5e-05,-9e-05,2e-05,9e-05,-4e-05,6
29003,30577,0.00016,-2.9999999999999997e-05,-0.0001,-5e-05,-9e-05,2e-05,9e-05,-4e-05,6
29004,30578,0.00016,-2.9999999999999997e-05,-0.0001,-5e-05,-9e-05,2e-05,9e-05,-4e-05,6
29005,30579,0.00016,-2.9999999999999997e-05,-0.0001,-5e-05,-9e-05,2e-05,9e-05,-4e-05,6
29006,30580,0.00016,-2.9999999999999997e-05,-0.0001,-5e-05,-9e-05,2e-05,9e-05,-4e-05,6
29007,30581,0.00016,-2.9999999999999997e-05,-0.0001,-5e-05,-9e-05,2e-05,9e-05,-4e-05,6
29008,30582,0.00016,-2.9999999999999997e-05,-0.0001,-5e-05,-9e-05,2e-05,9e-05,-4e-05,6
29009,30583,0.00016,-2.9999999999999997e-05,-0.0001,-5e-05,-9e-05,2e-05,9e-05,-4e-05,6
29010,30584,0.00018999999999999998,9e-05,2.9999999999999997e-05,2.9999999999999997e-05,0.00027,-0.00025,-0.00022,0.00011,6
29011,30585,0.00018999999999999998,9e-05,2.9999999999999997e-05,2.9999999999999997e-05,0.00027,-0.00025,-0.00022,0.00011,6
29012,30586,0.00018999999999999998,9e-05,2.9999999999999997e-05,2.9999999999999997e-05,0.00027,-0.00025,-0.00022,0.00011,6
29013,30588,0.00018999999999999998,9e-05,2.9999999999999997e-05,2.9999999999999997e-05,0.00027,-0.00025,-0.00022,0.00011,6
29014,30589,0.00018999999999999998,9e-05,2.9999999999999997e-05,2.9999999999999997e-05,0.00027,-0.00025,-0.00022,0.00011,6
29015,30590,0.00018999999999999998,9e-05,2.9999999999999997e-05,2.9999999999999997e-05,0.00027,-0.00025,-0.00022,0.00011,6
29016,30591,0.00018999999999999998,9e-05,2.9999999999999997e-05,2.9999999999999997e-05,0.00027,-0.00025,-0.00022,0.00011,6
29017,30592,0.00018999999999999998,9e-05,2.9999999999999997e-05,2.9999999999999997e-05,0.00027,-0.00025,-0.00022,0.00011,6
29018,30593,1e-05,-5e-05,0.0,-8e-05,-0.0002,-0.0002,8e-05,0.00015,6
29019,30594,1e-05,-5e-05,0.0,-8e-05,-0.0002,-0.0002,8e-05,0.00015,6
29020,30595,1e-05,-5e-05,0.0,-8e-05,-0.0002,-0.0002,8e-05,0.00015,6
29021,30596,1e-05,-5e-05,0.0,-8e-05,-0.0002,-0.0002,8e-05,0.00015,6
29022,30597,1e-05,-5e-05,0.0,-8e-05,-0.0002,-0.0002,8e-05,0.00015,6
29023,30598,1e-05,-5e-05,0.0,-8e-05,-0.0002,-0.0002,8e-05,0.00015,6
29024,30599,1e-05,-5e-05,0.0,-8e-05,-0.0002,-0.0002,8e-05,0.00015,6
29025,30600,1e-05,-5e-05,0.0,-8e-05,-0.0002,-0.0002,8e-05,0.00015,6
29026,30601,1e-05,-5e-05,0.0,-8e-05,-0.0002,-0.0002,8e-05,0.00015,6
29027,30602,1e-05,-5e-05,0.0,-8e-05,-0.0002,-0.0002,8e-05,0.00015,6
29028,30603,1e-05,-5e-05,0.0,-8e-05,-0.0002,-0.0002,8e-05,0.00015,6
29029,30604,1e-05,-5e-05,0.0,-8e-05,-0.0002,-0.0002,8e-05,0.00015,6
29030,30605,1e-05,-5e-05,0.0,-8e-05,-0.0002,-0.0002,8e-05,0.00015,6
29031,30606,1e-05,-5e-05,0.0,-8e-05,-0.0002,-0.0002,8e-05,0.00015,6
29032,30607,1e-05,-5e-05,0.0,-8e-05,-0.0002,-0.0002,8e-05,0.00015,6
29033,30608,-0.00025,-0.0001,2e-05,0.0001,0.0002,0.00053,0.00013000000000000002,-0.0003,6
29034,30609,-0.00025,-0.0001,2e-05,0.0001,0.0002,0.00053,0.00013000000000000002,-0.0003,6
29035,30610,0.00022,0.00011,4e-05,0.0001,-9e-05,8e-05,5e-05,0.00042,6
29036,30611,0.00022,0.00011,4e-05,0.0001,-9e-05,8e-05,5e-05,0.00042,6
29037,30612,0.00022,0.00011,4e-05,0.0001,-9e-05,8e-05,5e-05,0.00042,6
29038,30613,0.00022,0.00011,4e-05,0.0001,-9e-05,8e-05,5e-05,0.00042,6
29039,30614,0.00022,0.00011,4e-05,0.0001,-9e-05,8e-05,5e-05,0.00042,6
29040,30615,0.00022,0.00011,4e-05,0.0001,-9e-05,8e-05,5e-05,0.00042,6
29041,30616,0.00022,0.00011,4e-05,0.0001,-9e-05,8e-05,5e-05,0.00042,6
29042,30617,0.00022,0.00011,4e-05,0.0001,-9e-05,8e-05,5e-05,0.00042,6
29043,30618,0.00022,0.00011,4e-05,0.0001,-9e-05,8e-05,5e-05,0.00042,6
29044,30619,0.00022,0.00011,4e-05,0.0001,-9e-05,8e-05,5e-05,0.00042,6
29045,30620,0.00022,0.00011,4e-05,0.0001,-9e-05,8e-05,5e-05,0.00042,6
29046,30621,0.00022,0.00011,4e-05,0.0001,-9e-05,8e-05,5e-05,0.00042,6
29047,30622,0.00022,0.00011,4e-05,0.0001,-9e-05,8e-05,5e-05,0.00042,6
29048,30623,0.00022,0.00011,4e-05,0.0001,-9e-05,8e-05,5e-05,0.00042,6
29049,30624,0.00022,0.00011,4e-05,0.0001,-9e-05,8e-05,5e-05,0.00042,6
29050,30625,0.00022,0.00011,4e-05,0.0001,-9e-05,8e-05,5e-05,0.00042,6
29051,30626,0.00022,0.00011,4e-05,0.0001,-9e-05,8e-05,5e-05,0.00042,6
29052,30627,0.00022,0.00011,4e-05,0.0001,-9e-05,8e-05,5e-05,0.00042,6
29053,30628,0.00022,0.00011,4e-05,0.0001,-9e-05,8e-05,5e-05,0.00042,6
29054,30629,0.00022,0.00011,4e-05,0.0001,-9e-05,8e-05,5e-05,0.00042,6
29055,30630,-0.00023999999999999998,-5e-05,-5.9999999999999995e-05,-1e-05,-2.9999999999999997e-05,-0.00011999999999999999,1e-05,-0.00014,6
29056,30631,-8e-05,-2.9999999999999997e-05,-0.00011999999999999999,-0.00014,2.9999999999999997e-05,-0.00022,-2e-05,9e-05,6
29057,30632,-2e-05,-4e-05,-2.9999999999999997e-05,-9e-05,-2.9999999999999997e-05,-0.00033,4e-05,1e-05,6
29058,30633,-2e-05,-4e-05,-2.9999999999999997e-05,-9e-05,-2.9999999999999997e-05,-0.00033,4e-05,1e-05,6
29059,30634,-2e-05,-4e-05,-2.9999999999999997e-05,-9e-05,-2.9999999999999997e-05,-0.00033,4e-05,1e-05,6
29060,30635,-2e-05,-4e-05,-2.9999999999999997e-05,-9e-05,-2.9999999999999997e-05,-0.00033,4e-05,1e-05,6
29061,30636,-2e-05,-4e-05,-2.9999999999999997e-05,-9e-05,-2.9999999999999997e-05,-0.00033,4e-05,1e-05,6
29062,30638,-2e-05,-4e-05,-2.9999999999999997e-05,-9e-05,-2.9999999999999997e-05,-0.00033,4e-05,1e-05,6
29063,30639,-2e-05,-4e-05,-2.9999999999999997e-05,-9e-05,-2.9999999999999997e-05,-0.00033,4e-05,1e-05,6
29064,30640,-2e-05,-4e-05,-2.9999999999999997e-05,-9e-05,-2.9999999999999997e-05,-0.00033,4e-05,1e-05,6
29065,30641,-2e-05,-4e-05,-2.9999999999999997e-05,-9e-05,-2.9999999999999997e-05,-0.00033,4e-05,1e-05,6
29066,30642,-2e-05,-4e-05,-2.9999999999999997e-05,-9e-05,-2.9999999999999997e-05,-0.00033,4e-05,1e-05,6
29067,30643,-2e-05,-4e-05,-2.9999999999999997e-05,-9e-05,-2.9999999999999997e-05,-0.00033,4e-05,1e-05,6
29068,30644,8e-05,7e-05,-5e-05,-5e-05,-0.00025,0.0,0.0,-2.9999999999999997e-05,6
29069,30645,8e-05,7e-05,-5e-05,-5e-05,-0.00025,0.0,0.0,-2.9999999999999997e-05,6
29070,30646,8e-05,7e-05,-5e-05,-5e-05,-0.00025,0.0,0.0,-2.9999999999999997e-05,6
29071,30647,8e-05,7e-05,-5e-05,-5e-05,-0.00025,0.0,0.0,-2.9999999999999997e-05,6
29072,30648,8e-05,7e-05,-5e-05,-5e-05,-0.00025,0.0,0.0,-2.9999999999999997e-05,6
29073,30649,8e-05,7e-05,-5e-05,-5e-05,-0.00025,0.0,0.0,-2.9999999999999997e-05,6
29074,30650,8e-05,7e-05,-5e-05,-5e-05,-0.00025,0.0,0.0,-2.9999999999999997e-05,6
29075,30651,8e-05,7e-05,-5e-05,-5e-05,-0.00025,0.0,0.0,-2.9999999999999997e-05,6
29076,30652,8e-05,7e-05,-5e-05,-5e-05,-0.00025,0.0,0.0,-2.9999999999999997e-05,6
29077,30653,0.0002,5.9999999999999995e-05,-5.9999999999999995e-05,-2e-05,-0.00018,-0.00011999999999999999,-0.00011999999999999999,9e-05,6
29078,30654,0.0002,5.9999999999999995e-05,-5.9999999999999995e-05,-2e-05,-0.00018,-0.00011999999999999999,-0.00011999999999999999,9e-05,6
29079,30655,0.0002,5.9999999999999995e-05,-5.9999999999999995e-05,-2e-05,-0.00018,-0.00011999999999999999,-0.00011999999999999999,9e-05,6
29080,30656,0.0002,5.9999999999999995e-05,-5.9999999999999995e-05,-2e-05,-0.00018,-0.00011999999999999999,-0.00011999999999999999,9e-05,6
29081,30657,0.0002,5.9999999999999995e-05,-5.9999999999999995e-05,-2e-05,-0.00018,-0.00011999999999999999,-0.00011999999999999999,9e-05,6
29082,30658,0.0002,5.9999999999999995e-05,-5.9999999999999995e-05,-2e-05,-0.00018,-0.00011999999999999999,-0.00011999999999999999,9e-05,6
29083,30659,0.0002,5.9999999999999995e-05,-5.9999999999999995e-05,-2e-05,-0.00018,-0.00011999999999999999,-0.00011999999999999999,9e-05,6
29084,30660,0.0002,5.9999999999999995e-05,-5.9999999999999995e-05,-2e-05,-0.00018,-0.00011999999999999999,-0.00011999999999999999,9e-05,6
29085,30661,0.0002,5.9999999999999995e-05,-5.9999999999999995e-05,-2e-05,-0.00018,-0.00011999999999999999,-0.00011999999999999999,9e-05,6
29086,30662,0.0002,5.9999999999999995e-05,-5.9999999999999995e-05,-2e-05,-0.00018,-0.00011999999999999999,-0.00011999999999999999,9e-05,6
29087,30663,0.0002,5.9999999999999995e-05,-5.9999999999999995e-05,-2e-05,-0.00018,-0.00011999999999999999,-0.00011999999999999999,9e-05,6
29088,30664,0.0002,5.9999999999999995e-05,-5.9999999999999995e-05,-2e-05,-0.00018,-0.00011999999999999999,-0.00011999999999999999,9e-05,6
29089,30665,0.0002,5.9999999999999995e-05,-5.9999999999999995e-05,-2e-05,-0.00018,-0.00011999999999999999,-0.00011999999999999999,9e-05,6
29090,30666,0.0002,5.9999999999999995e-05,-5.9999999999999995e-05,-2e-05,-0.00018,-0.00011999999999999999,-0.00011999999999999999,9e-05,6
29091,30667,0.0002,5.9999999999999995e-05,-5.9999999999999995e-05,-2e-05,-0.00018,-0.00011999999999999999,-0.00011999999999999999,9e-05,6
29092,30668,0.00027,9e-05,0.0001,5.9999999999999995e-05,0.0,-0.00031,-2e-05,0.00025,6
29093,30669,0.00027,9e-05,0.0001,5.9999999999999995e-05,0.0,-0.00031,-2e-05,0.00025,6
29094,30670,-0.00036,-9e-05,-0.00013000000000000002,5.9999999999999995e-05,0.00027,5.9999999999999995e-05,-2.9999999999999997e-05,-0.0005099999999999999,6
29095,30671,-0.00036,-9e-05,-0.00013000000000000002,5.9999999999999995e-05,0.00027,5.9999999999999995e-05,-2.9999999999999997e-05,-0.0005099999999999999,6
29096,30672,-0.00036,-9e-05,-0.00013000000000000002,5.9999999999999995e-05,0.00027,5.9999999999999995e-05,-2.9999999999999997e-05,-0.0005099999999999999,6
29097,30673,-0.00036,-9e-05,-0.00013000000000000002,5.9999999999999995e-05,0.00027,5.9999999999999995e-05,-2.9999999999999997e-05,-0.0005099999999999999,6
29098,30674,-0.00036,-9e-05,-0.00013000000000000002,5.9999999999999995e-05,0.00027,5.9999999999999995e-05,-2.9999999999999997e-05,-0.0005099999999999999,6
29099,30675,-0.00036,-9e-05,-0.00013000000000000002,5.9999999999999995e-05,0.00027,5.9999999999999995e-05,-2.9999999999999997e-05,-0.0005099999999999999,6
29100,30676,-0.00036,-9e-05,-0.00013000000000000002,5.9999999999999995e-05,0.00027,5.9999999999999995e-05,-2.9999999999999997e-05,-0.0005099999999999999,6
29101,30677,-0.00036,-9e-05,-0.00013000000000000002,5.9999999999999995e-05,0.00027,5.9999999999999995e-05,-2.9999999999999997e-05,-0.0005099999999999999,6
29102,30678,-0.00036,-9e-05,-0.00013000000000000002,5.9999999999999995e-05,0.00027,5.9999999999999995e-05,-2.9999999999999997e-05,-0.0005099999999999999,6
29103,30679,-0.00036,-9e-05,-0.00013000000000000002,5.9999999999999995e-05,0.00027,5.9999999999999995e-05,-2.9999999999999997e-05,-0.0005099999999999999,6
29104,30680,-0.00036,-9e-05,-0.00013000000000000002,5.9999999999999995e-05,0.00027,5.9999999999999995e-05,-2.9999999999999997e-05,-0.0005099999999999999,6
29105,30681,-0.00036,-9e-05,-0.00013000000000000002,5.9999999999999995e-05,0.00027,5.9999999999999995e-05,-2.9999999999999997e-05,-0.0005099999999999999,6
29106,30682,-0.00036,-9e-05,-0.00013000000000000002,5.9999999999999995e-05,0.00027,5.9999999999999995e-05,-2.9999999999999997e-05,-0.0005099999999999999,6
29107,30683,-0.00036,-9e-05,-0.00013000000000000002,5.9999999999999995e-05,0.00027,5.9999999999999995e-05,-2.9999999999999997e-05,-0.0005099999999999999,6
29108,30684,-0.00036,-9e-05,-0.00013000000000000002,5.9999999999999995e-05,0.00027,5.9999999999999995e-05,-2.9999999999999997e-05,-0.0005099999999999999,6
29109,30685,-0.00036,-9e-05,-0.00013000000000000002,5.9999999999999995e-05,0.00027,5.9999999999999995e-05,-2.9999999999999997e-05,-0.0005099999999999999,6
29110,30686,-0.00036,-9e-05,-0.00013000000000000002,5.9999999999999995e-05,0.00027,5.9999999999999995e-05,-2.9999999999999997e-05,-0.0005099999999999999,6
29111,30688,-0.00036,-9e-05,-0.00013000000000000002,5.9999999999999995e-05,0.00027,5.9999999999999995e-05,-2.9999999999999997e-05,-0.0005099999999999999,6
29112,30689,-0.00036,-9e-05,-0.00013000000000000002,5.9999999999999995e-05,0.00027,5.9999999999999995e-05,-2.9999999999999997e-05,-0.0005099999999999999,6
29113,30690,-0.00036,-9e-05,-0.00013000000000000002,5.9999999999999995e-05,0.00027,5.9999999999999995e-05,-2.9999999999999997e-05,-0.0005099999999999999,6
29114,30691,-0.00047999999999999996,-4e-05,2.9999999999999997e-05,0.0,-0.00014,-4e-05,0.0,-0.0005200000000000001,6
29115,30692,-0.0007099999999999999,5e-05,0.00016,0.00016999999999999999,0.00029,0.00018,-0.00014,-0.0004,6
29116,30693,-0.0007099999999999999,5e-05,0.00016,0.00016999999999999999,0.00029,0.00018,-0.00014,-0.0004,6
29117,30694,-0.0007099999999999999,5e-05,0.00016,0.00016999999999999999,0.00029,0.00018,-0.00014,-0.0004,6
29118,30695,-0.0007099999999999999,5e-05,0.00016,0.00016999999999999999,0.00029,0.00018,-0.00014,-0.0004,6
29119,30696,-0.0007099999999999999,5e-05,0.00016,0.00016999999999999999,0.00029,0.00018,-0.00014,-0.0004,6
29120,30697,-0.0007099999999999999,5e-05,0.00016,0.00016999999999999999,0.00029,0.00018,-0.00014,-0.0004,6
29121,30698,-0.0007099999999999999,5e-05,0.00016,0.00016999999999999999,0.00029,0.00018,-0.00014,-0.0004,6
29122,30699,-0.0007099999999999999,5e-05,0.00016,0.00016999999999999999,0.00029,0.00018,-0.00014,-0.0004,6
29123,30700,-0.0007099999999999999,5e-05,0.00016,0.00016999999999999999,0.00029,0.00018,-0.00014,-0.0004,6
29124,30701,-0.0007099999999999999,5e-05,0.00016,0.00016999999999999999,0.00029,0.00018,-0.00014,-0.0004,6
29125,30702,-0.0007099999999999999,5e-05,0.00016,0.00016999999999999999,0.00029,0.00018,-0.00014,-0.0004,6
29126,30703,-0.0007099999999999999,5e-05,0.00016,0.00016999999999999999,0.00029,0.00018,-0.00014,-0.0004,6
29127,30704,-0.0007099999999999999,5e-05,0.00016,0.00016999999999999999,0.00029,0.00018,-0.00014,-0.0004,6
29128,30705,-0.0007099999999999999,5e-05,0.00016,0.00016999999999999999,0.00029,0.00018,-0.00014,-0.0004,6
29129,30706,-0.0007099999999999999,5e-05,0.00016,0.00016999999999999999,0.00029,0.00018,-0.00014,-0.0004,6
29130,30707,-0.0007099999999999999,5e-05,0.00016,0.00016999999999999999,0.00029,0.00018,-0.00014,-0.0004,6
29131,30708,-0.0007099999999999999,5e-05,0.00016,0.00016999999999999999,0.00029,0.00018,-0.00014,-0.0004,6
29132,30709,-0.0007099999999999999,5e-05,0.00016,0.00016999999999999999,0.00029,0.00018,-0.00014,-0.0004,6
29133,30710,-0.0007099999999999999,5e-05,0.00016,0.00016999999999999999,0.00029,0.00018,-0.00014,-0.0004,6
29134,30711,-0.0007099999999999999,5e-05,0.00016,0.00016999999999999999,0.00029,0.00018,-0.00014,-0.0004,6
29135,30712,-0.0007099999999999999,5e-05,0.00016,0.00016999999999999999,0.00029,0.00018,-0.00014,-0.0004,6
29136,30713,2.9999999999999997e-05,-0.00011999999999999999,-5.9999999999999995e-05,-0.00018999999999999998,-0.00032,4e-05,-0.00013000000000000002,8e-05,6
29137,30714,0.0001,-5e-05,-0.00011999999999999999,-0.00011,2.9999999999999997e-05,-0.00031,-0.00011999999999999999,-0.00035,6
29138,30715,0.00018,-9e-05,-2.9999999999999997e-05,5.9999999999999995e-05,8e-05,0.00014,0.00015,0.0002,6
29139,30716,0.00018,-9e-05,-2.9999999999999997e-05,5.9999999999999995e-05,8e-05,0.00014,0.00015,0.0002,6
29140,30717,0.00018,-9e-05,-2.9999999999999997e-05,5.9999999999999995e-05,8e-05,0.00014,0.00015,0.0002,6
29141,30718,0.00018,-9e-05,-2.9999999999999997e-05,5.9999999999999995e-05,8e-05,0.00014,0.00015,0.0002,6
29142,30719,0.00018,-9e-05,-2.9999999999999997e-05,5.9999999999999995e-05,8e-05,0.00014,0.00015,0.0002,6
29143,30720,0.00018,-9e-05,-2.9999999999999997e-05,5.9999999999999995e-05,8e-05,0.00014,0.00015,0.0002,6
29144,30721,0.00018,-9e-05,-2.9999999999999997e-05,5.9999999999999995e-05,8e-05,0.00014,0.00015,0.0002,6
29145,30722,0.00018,-9e-05,-2.9999999999999997e-05,5.9999999999999995e-05,8e-05,0.00014,0.00015,0.0002,6
29146,30723,0.00018,-9e-05,-2.9999999999999997e-05,5.9999999999999995e-05,8e-05,0.00014,0.00015,0.0002,6
29147,30724,0.00018,-9e-05,-2.9999999999999997e-05,5.9999999999999995e-05,8e-05,0.00014,0.00015,0.0002,6
29148,30725,0.00018,-9e-05,-2.9999999999999997e-05,5.9999999999999995e-05,8e-05,0.00014,0.00015,0.0002,6
29149,30726,0.00018,-9e-05,-2.9999999999999997e-05,5.9999999999999995e-05,8e-05,0.00014,0.00015,0.0002,6
29150,30727,0.00018,-9e-05,-2.9999999999999997e-05,5.9999999999999995e-05,8e-05,0.00014,0.00015,0.0002,6
29151,30728,9e-05,0.00011999999999999999,5.9999999999999995e-05,-0.00021,-0.0004,0.00018999999999999998,8e-05,0.00047999999999999996,6
29152,30729,9e-05,0.00011999999999999999,5.9999999999999995e-05,-0.00021,-0.0004,0.00018999999999999998,8e-05,0.00047999999999999996,6
29153,30730,0.00026000000000000003,2.9999999999999997e-05,-0.0001,-0.00011999999999999999,0.00013000000000000002,0.00015,1e-05,0.00036,6
29154,30731,0.00026000000000000003,2.9999999999999997e-05,-0.0001,-0.00011999999999999999,0.00013000000000000002,0.00015,1e-05,0.00036,6
29155,30732,0.00026000000000000003,2.9999999999999997e-05,-0.0001,-0.00011999999999999999,0.00013000000000000002,0.00015,1e-05,0.00036,6
29156,30733,0.00026000000000000003,2.9999999999999997e-05,-0.0001,-0.00011999999999999999,0.00013000000000000002,0.00015,1e-05,0.00036,6
29157,30734,0.00026000000000000003,2.9999999999999997e-05,-0.0001,-0.00011999999999999999,0.00013000000000000002,0.00015,1e-05,0.00036,6
29158,30735,0.00026000000000000003,2.9999999999999997e-05,-0.0001,-0.00011999999999999999,0.00013000000000000002,0.00015,1e-05,0.00036,6
29159,30736,0.00026000000000000003,2.9999999999999997e-05,-0.0001,-0.00011999999999999999,0.00013000000000000002,0.00015,1e-05,0.00036,6
29160,30738,0.00026000000000000003,2.9999999999999997e-05,-0.0001,-0.00011999999999999999,0.00013000000000000002,0.00015,1e-05,0.00036,6
29161,30739,0.00026000000000000003,2.9999999999999997e-05,-0.0001,-0.00011999999999999999,0.00013000000000000002,0.00015,1e-05,0.00036,6
29162,30740,0.00026000000000000003,2.9999999999999997e-05,-0.0001,-0.00011999999999999999,0.00013000000000000002,0.00015,1e-05,0.00036,6
29163,30741,0.00026000000000000003,2.9999999999999997e-05,-0.0001,-0.00011999999999999999,0.00013000000000000002,0.00015,1e-05,0.00036,6
29164,30742,0.00026000000000000003,2.9999999999999997e-05,-0.0001,-0.00011999999999999999,0.00013000000000000002,0.00015,1e-05,0.00036,6
29165,30743,0.00026000000000000003,2.9999999999999997e-05,-0.0001,-0.00011999999999999999,0.00013000000000000002,0.00015,1e-05,0.00036,6
29166,30744,0.00026000000000000003,2.9999999999999997e-05,-0.0001,-0.00011999999999999999,0.00013000000000000002,0.00015,1e-05,0.00036,6
29167,30745,0.00026000000000000003,2.9999999999999997e-05,-0.0001,-0.00011999999999999999,0.00013000000000000002,0.00015,1e-05,0.00036,6
29168,30746,0.00026000000000000003,2.9999999999999997e-05,-0.0001,-0.00011999999999999999,0.00013000000000000002,0.00015,1e-05,0.00036,6
29169,30748,0.00026000000000000003,2.9999999999999997e-05,-0.0001,-0.00011999999999999999,0.00013000000000000002,0.00015,1e-05,0.00036,6
29170,30749,0.00026000000000000003,2.9999999999999997e-05,-0.0001,-0.00011999999999999999,0.00013000000000000002,0.00015,1e-05,0.00036,6
29171,30750,0.00026000000000000003,2.9999999999999997e-05,-0.0001,-0.00011999999999999999,0.00013000000000000002,0.00015,1e-05,0.00036,6
29172,30751,2.9999999999999997e-05,5e-05,0.00018,0.00035,0.00045999999999999996,0.0,1e-05,-9e-05,6
29173,30752,-0.00031,-0.00018,1e-05,-2.9999999999999997e-05,0.0001,0.00026000000000000003,-1e-05,0.00014,6
29174,30753,-0.00031,-0.00018,1e-05,-2.9999999999999997e-05,0.0001,0.00026000000000000003,-1e-05,0.00014,6
29175,30754,-0.00031,-0.00018,1e-05,-2.9999999999999997e-05,0.0001,0.00026000000000000003,-1e-05,0.00014,6
29176,30755,-0.00031,-0.00018,1e-05,-2.9999999999999997e-05,0.0001,0.00026000000000000003,-1e-05,0.00014,6
29177,30756,-0.00031,-0.00018,1e-05,-2.9999999999999997e-05,0.0001,0.00026000000000000003,-1e-05,0.00014,6
29178,30757,-0.00031,-0.00018,1e-05,-2.9999999999999997e-05,0.0001,0.00026000000000000003,-1e-05,0.00014,6
29179,30758,-0.00031,-0.00018,1e-05,-2.9999999999999997e-05,0.0001,0.00026000000000000003,-1e-05,0.00014,6
29180,30759,-0.00031,-0.00018,1e-05,-2.9999999999999997e-05,0.0001,0.00026000000000000003,-1e-05,0.00014,6
29181,30760,-0.00031,-0.00018,1e-05,-2.9999999999999997e-05,0.0001,0.00026000000000000003,-1e-05,0.00014,6
29182,30761,-0.00031,-0.00018,1e-05,-2.9999999999999997e-05,0.0001,0.00026000000000000003,-1e-05,0.00014,6
29183,30762,-0.00031,-0.00018,1e-05,-2.9999999999999997e-05,0.0001,0.00026000000000000003,-1e-05,0.00014,6
29184,30763,-0.00031,-0.00018,1e-05,-2.9999999999999997e-05,0.0001,0.00026000000000000003,-1e-05,0.00014,6
29185,30764,-0.00031,-0.00018,1e-05,-2.9999999999999997e-05,0.0001,0.00026000000000000003,-1e-05,0.00014,6
29186,30765,-0.00031,-0.00018,1e-05,-2.9999999999999997e-05,0.0001,0.00026000000000000003,-1e-05,0.00014,6
29187,30766,-0.00031,-0.00018,1e-05,-2.9999999999999997e-05,0.0001,0.00026000000000000003,-1e-05,0.00014,6
29188,30767,-0.00031,-0.00018,1e-05,-2.9999999999999997e-05,0.0001,0.00026000000000000003,-1e-05,0.00014,6
29189,30768,-0.00031,-0.00018,1e-05,-2.9999999999999997e-05,0.0001,0.00026000000000000003,-1e-05,0.00014,6
29190,30769,-0.00031,-0.00018,1e-05,-2.9999999999999997e-05,0.0001,0.00026000000000000003,-1e-05,0.00014,6
29191,30770,-0.00031,-0.00018,1e-05,-2.9999999999999997e-05,0.0001,0.00026000000000000003,-1e-05,0.00014,6
29192,30771,-0.00031,-0.00018,1e-05,-2.9999999999999997e-05,0.0001,0.00026000000000000003,-1e-05,0.00014,6
29193,30772,-0.00031,-0.00018,1e-05,-2.9999999999999997e-05,0.0001,0.00026000000000000003,-1e-05,0.00014,6
29194,30773,0.00018999999999999998,-0.00022,-0.00014,-5e-05,-2.9999999999999997e-05,4e-05,-0.00044,-0.00037,6
29195,30774,0.00018999999999999998,-0.00022,-0.00014,-5e-05,-2.9999999999999997e-05,4e-05,-0.00044,-0.00037,6
29196,30775,9e-05,2e-05,0.00011999999999999999,0.00016999999999999999,0.00035,0.00018999999999999998,0.00013000000000000002,-0.00059,6
29197,30776,9e-05,2e-05,0.00011999999999999999,0.00016999999999999999,0.00035,0.00018999999999999998,0.00013000000000000002,-0.00059,6
29198,30777,9e-05,2e-05,0.00011999999999999999,0.00016999999999999999,0.00035,0.00018999999999999998,0.00013000000000000002,-0.00059,6
29199,30778,9e-05,2e-05,0.00011999999999999999,0.00016999999999999999,0.00035,0.00018999999999999998,0.00013000000000000002,-0.00059,6
29200,30779,9e-05,2e-05,0.00011999999999999999,0.00016999999999999999,0.00035,0.00018999999999999998,0.00013000000000000002,-0.00059,6
29201,30780,9e-05,2e-05,0.00011999999999999999,0.00016999999999999999,0.00035,0.00018999999999999998,0.00013000000000000002,-0.00059,6
29202,30781,9e-05,2e-05,0.00011999999999999999,0.00016999999999999999,0.00035,0.00018999999999999998,0.00013000000000000002,-0.00059,6
29203,30782,9e-05,2e-05,0.00011999999999999999,0.00016999999999999999,0.00035,0.00018999999999999998,0.00013000000000000002,-0.00059,6
29204,30783,9e-05,2e-05,0.00011999999999999999,0.00016999999999999999,0.00035,0.00018999999999999998,0.00013000000000000002,-0.00059,6
29205,30784,9e-05,2e-05,0.00011999999999999999,0.00016999999999999999,0.00035,0.00018999999999999998,0.00013000000000000002,-0.00059,6
29206,30785,9e-05,2e-05,0.00011999999999999999,0.00016999999999999999,0.00035,0.00018999999999999998,0.00013000000000000002,-0.00059,6
29207,30786,9e-05,2e-05,0.00011999999999999999,0.00016999999999999999,0.00035,0.00018999999999999998,0.00013000000000000002,-0.00059,6
29208,30788,9e-05,2e-05,0.00011999999999999999,0.00016999999999999999,0.00035,0.00018999999999999998,0.00013000000000000002,-0.00059,6
29209,30789,9e-05,1e-05,-5e-05,1e-05,2e-05,-9e-05,-8e-05,5.9999999999999995e-05,6
29210,30790,0.00043,2.9999999999999997e-05,-2e-05,-0.00013000000000000002,-0.00037,-0.00027,5.9999999999999995e-05,0.00041,6
29211,30791,0.00043,2.9999999999999997e-05,-2e-05,-0.00013000000000000002,-0.00037,-0.00027,5.9999999999999995e-05,0.00041,6
29212,30792,0.00043,2.9999999999999997e-05,-2e-05,-0.00013000000000000002,-0.00037,-0.00027,5.9999999999999995e-05,0.00041,6
29213,30793,0.00043,2.9999999999999997e-05,-2e-05,-0.00013000000000000002,-0.00037,-0.00027,5.9999999999999995e-05,0.00041,6
29214,30794,0.00043,2.9999999999999997e-05,-2e-05,-0.00013000000000000002,-0.00037,-0.00027,5.9999999999999995e-05,0.00041,6
29215,30795,0.00043,2.9999999999999997e-05,-2e-05,-0.00013000000000000002,-0.00037,-0.00027,5.9999999999999995e-05,0.00041,6
29216,30796,0.00043,2.9999999999999997e-05,-2e-05,-0.00013000000000000002,-0.00037,-0.00027,5.9999999999999995e-05,0.00041,6
29217,30797,0.00043,2.9999999999999997e-05,-2e-05,-0.00013000000000000002,-0.00037,-0.00027,5.9999999999999995e-05,0.00041,6
29218,30798,0.00043,2.9999999999999997e-05,-2e-05,-0.00013000000000000002,-0.00037,-0.00027,5.9999999999999995e-05,0.00041,6
29219,30799,0.00043,2.9999999999999997e-05,-2e-05,-0.00013000000000000002,-0.00037,-0.00027,5.9999999999999995e-05,0.00041,6
29220,30800,0.00043,2.9999999999999997e-05,-2e-05,-0.00013000000000000002,-0.00037,-0.00027,5.9999999999999995e-05,0.00041,6
29221,30801,0.00043,2.9999999999999997e-05,-2e-05,-0.00013000000000000002,-0.00037,-0.00027,5.9999999999999995e-05,0.00041,6
29222,30802,0.00043,2.9999999999999997e-05,-2e-05,-0.00013000000000000002,-0.00037,-0.00027,5.9999999999999995e-05,0.00041,6
29223,30803,0.00043,2.9999999999999997e-05,-2e-05,-0.00013000000000000002,-0.00037,-0.00027,5.9999999999999995e-05,0.00041,6
29224,30804,0.00043,2.9999999999999997e-05,-2e-05,-0.00013000000000000002,-0.00037,-0.00027,5.9999999999999995e-05,0.00041,6
29225,30805,0.00043,2.9999999999999997e-05,-2e-05,-0.00013000000000000002,-0.00037,-0.00027,5.9999999999999995e-05,0.00041,6
29226,30806,0.00043,2.9999999999999997e-05,-2e-05,-0.00013000000000000002,-0.00037,-0.00027,5.9999999999999995e-05,0.00041,6
29227,30807,0.00043,2.9999999999999997e-05,-2e-05,-0.00013000000000000002,-0.00037,-0.00027,5.9999999999999995e-05,0.00041,6
29228,30808,0.00043,2.9999999999999997e-05,-2e-05,-0.00013000000000000002,-0.00037,-0.00027,5.9999999999999995e-05,0.00041,6
29229,30809,0.00043,2.9999999999999997e-05,-2e-05,-0.00013000000000000002,-0.00037,-0.00027,5.9999999999999995e-05,0.00041,6
29230,30810,0.0002,-5.9999999999999995e-05,-9e-05,-2.9999999999999997e-05,2.9999999999999997e-05,-9e-05,2e-05,0.00021,6
29231,30811,-1e-05,5e-05,-4e-05,-2e-05,4e-05,7e-05,0.00015,0.0004,6
29232,30812,0.0,0.0001,-1e-05,2.9999999999999997e-05,0.00011999999999999999,-5.9999999999999995e-05,-7e-05,-0.00025,6
29233,30813,0.0,0.0001,-1e-05,2.9999999999999997e-05,0.00011999999999999999,-5.9999999999999995e-05,-7e-05,-0.00025,6
29234,30814,0.0,0.0001,-1e-05,2.9999999999999997e-05,0.00011999999999999999,-5.9999999999999995e-05,-7e-05,-0.00025,6
29235,30815,0.0,0.0001,-1e-05,2.9999999999999997e-05,0.00011999999999999999,-5.9999999999999995e-05,-7e-05,-0.00025,6
29236,30816,0.0,0.0001,-1e-05,2.9999999999999997e-05,0.00011999999999999999,-5.9999999999999995e-05,-7e-05,-0.00025,6
29237,30817,0.0,0.0001,-1e-05,2.9999999999999997e-05,0.00011999999999999999,-5.9999999999999995e-05,-7e-05,-0.00025,6
29238,30818,0.0,0.0001,-1e-05,2.9999999999999997e-05,0.00011999999999999999,-5.9999999999999995e-05,-7e-05,-0.00025,6
29239,30819,0.0,0.0001,-1e-05,2.9999999999999997e-05,0.00011999999999999999,-5.9999999999999995e-05,-7e-05,-0.00025,6
29240,30820,0.0,0.0001,-1e-05,2.9999999999999997e-05,0.00011999999999999999,-5.9999999999999995e-05,-7e-05,-0.00025,6
29241,30821,0.0,0.0001,-1e-05,2.9999999999999997e-05,0.00011999999999999999,-5.9999999999999995e-05,-7e-05,-0.00025,6
29242,30822,0.0,0.0001,-1e-05,2.9999999999999997e-05,0.00011999999999999999,-5.9999999999999995e-05,-7e-05,-0.00025,6
29243,30823,0.0,0.0001,-1e-05,2.9999999999999997e-05,0.00011999999999999999,-5.9999999999999995e-05,-7e-05,-0.00025,6
29244,30824,0.0,0.0001,-1e-05,2.9999999999999997e-05,0.00011999999999999999,-5.9999999999999995e-05,-7e-05,-0.00025,6
29245,30825,0.0,0.0001,-1e-05,2.9999999999999997e-05,0.00011999999999999999,-5.9999999999999995e-05,-7e-05,-0.00025,6
29246,30826,0.0,0.0001,-1e-05,2.9999999999999997e-05,0.00011999999999999999,-5.9999999999999995e-05,-7e-05,-0.00025,6
29247,30827,0.0,0.0001,-1e-05,2.9999999999999997e-05,0.00011999999999999999,-5.9999999999999995e-05,-7e-05,-0.00025,6
29248,30828,0.0,0.0001,-1e-05,2.9999999999999997e-05,0.00011999999999999999,-5.9999999999999995e-05,-7e-05,-0.00025,6
29249,30829,0.0,0.0001,-1e-05,2.9999999999999997e-05,0.00011999999999999999,-5.9999999999999995e-05,-7e-05,-0.00025,6
29250,30830,0.0,0.0001,-1e-05,2.9999999999999997e-05,0.00011999999999999999,-5.9999999999999995e-05,-7e-05,-0.00025,6
29251,30831,0.0,0.0001,-1e-05,2.9999999999999997e-05,0.00011999999999999999,-5.9999999999999995e-05,-7e-05,-0.00025,6
29252,30832,-4e-05,-1e-05,-1e-05,0.00014,0.00011999999999999999,2.9999999999999997e-05,-2.9999999999999997e-05,-5e-05,6
29253,30833,-4e-05,-1e-05,-1e-05,0.00014,0.00011999999999999999,2.9999999999999997e-05,-2.9999999999999997e-05,-5e-05,6
29254,30834,-4e-05,-1e-05,-1e-05,0.00014,0.00011999999999999999,2.9999999999999997e-05,-2.9999999999999997e-05,-5e-05,6
29255,30835,-4e-05,-1e-05,-1e-05,0.00014,0.00011999999999999999,2.9999999999999997e-05,-2.9999999999999997e-05,-5e-05,6
29256,30836,-4e-05,-1e-05,-1e-05,0.00014,0.00011999999999999999,2.9999999999999997e-05,-2.9999999999999997e-05,-5e-05,6
29257,30840,-4e-05,-1e-05,-1e-05,0.00014,0.00011999999999999999,2.9999999999999997e-05,-2.9999999999999997e-05,-5e-05,6
29258,30841,7e-05,2e-05,-4e-05,1e-05,1e-05,0.00016,0.0,1e-05,6
29259,30842,7e-05,2e-05,-4e-05,1e-05,1e-05,0.00016,0.0,1e-05,6
29260,30843,7e-05,2e-05,-4e-05,1e-05,1e-05,0.00016,0.0,1e-05,6
29261,30844,7e-05,2e-05,-4e-05,1e-05,1e-05,0.00016,0.0,1e-05,6
29262,30845,7e-05,2e-05,-4e-05,1e-05,1e-05,0.00016,0.0,1e-05,6
29263,30846,7e-05,2e-05,-4e-05,1e-05,1e-05,0.00016,0.0,1e-05,6
29264,30847,7e-05,2e-05,-4e-05,1e-05,1e-05,0.00016,0.0,1e-05,6
29265,30848,-0.00059,2e-05,7e-05,-4e-05,-0.00033,-0.00042,-0.00018999999999999998,-0.00095,6
29266,30849,-0.00059,2e-05,7e-05,-4e-05,-0.00033,-0.00042,-0.00018999999999999998,-0.00095,6
29267,30850,0.00011999999999999999,8e-05,7e-05,9e-05,-4e-05,0.0,-2.9999999999999997e-05,-2e-05,6
29268,30851,0.00011999999999999999,8e-05,7e-05,9e-05,-4e-05,0.0,-2.9999999999999997e-05,-2e-05,6
29269,30852,0.00011999999999999999,8e-05,7e-05,9e-05,-4e-05,0.0,-2.9999999999999997e-05,-2e-05,6
29270,30853,0.00011999999999999999,8e-05,7e-05,9e-05,-4e-05,0.0,-2.9999999999999997e-05,-2e-05,6
29271,30854,0.00011999999999999999,8e-05,7e-05,9e-05,-4e-05,0.0,-2.9999999999999997e-05,-2e-05,6
29272,30855,0.00011999999999999999,8e-05,7e-05,9e-05,-4e-05,0.0,-2.9999999999999997e-05,-2e-05,6
29273,30856,0.00011999999999999999,8e-05,7e-05,9e-05,-4e-05,0.0,-2.9999999999999997e-05,-2e-05,6
29274,30857,0.00011999999999999999,8e-05,7e-05,9e-05,-4e-05,0.0,-2.9999999999999997e-05,-2e-05,6
29275,30858,0.00011999999999999999,8e-05,7e-05,9e-05,-4e-05,0.0,-2.9999999999999997e-05,-2e-05,6
29276,30859,0.00011999999999999999,8e-05,7e-05,9e-05,-4e-05,0.0,-2.9999999999999997e-05,-2e-05,6
29277,30860,0.00011999999999999999,8e-05,7e-05,9e-05,-4e-05,0.0,-2.9999999999999997e-05,-2e-05,6
29278,30861,0.00011999999999999999,8e-05,7e-05,9e-05,-4e-05,0.0,-2.9999999999999997e-05,-2e-05,6
29279,30862,0.00011999999999999999,8e-05,7e-05,9e-05,-4e-05,0.0,-2.9999999999999997e-05,-2e-05,6
29280,30863,0.00011999999999999999,8e-05,7e-05,9e-05,-4e-05,0.0,-2.9999999999999997e-05,-2e-05,6
29281,30864,0.00011999999999999999,8e-05,7e-05,9e-05,-4e-05,0.0,-2.9999999999999997e-05,-2e-05,6
29282,30865,0.00011999999999999999,8e-05,7e-05,9e-05,-4e-05,0.0,-2.9999999999999997e-05,-2e-05,6
29283,30866,0.00011999999999999999,8e-05,7e-05,9e-05,-4e-05,0.0,-2.9999999999999997e-05,-2e-05,6
29284,30867,0.00011999999999999999,8e-05,7e-05,9e-05,-4e-05,0.0,-2.9999999999999997e-05,-2e-05,6
29285,30868,0.00011999999999999999,8e-05,7e-05,9e-05,-4e-05,0.0,-2.9999999999999997e-05,-2e-05,6
29286,30869,0.00011999999999999999,8e-05,7e-05,9e-05,-4e-05,0.0,-2.9999999999999997e-05,-2e-05,6
29287,30870,-0.00014,-0.0001,-0.00031,-7e-05,-0.00016999999999999999,-0.00031,-0.00033,-0.00055,6
29288,30871,8e-05,-0.00026000000000000003,-0.00014,-0.00022,0.0,0.0005200000000000001,0.00037999999999999997,0.00033999999999999997,6
29289,30872,-0.00015,5e-05,7e-05,-5e-05,-0.0002,-0.00022999999999999998,7e-05,0.00016,6
29290,30873,-0.00015,5e-05,7e-05,-5e-05,-0.0002,-0.00022999999999999998,7e-05,0.00016,6
29291,30874,-0.00015,5e-05,7e-05,-5e-05,-0.0002,-0.00022999999999999998,7e-05,0.00016,6
29292,30875,-0.00015,5e-05,7e-05,-5e-05,-0.0002,-0.00022999999999999998,7e-05,0.00016,6
29293,30876,-0.00015,5e-05,7e-05,-5e-05,-0.0002,-0.00022999999999999998,7e-05,0.00016,6
29294,30877,-0.00015,5e-05,7e-05,-5e-05,-0.0002,-0.00022999999999999998,7e-05,0.00016,6
29295,30878,-0.00015,5e-05,7e-05,-5e-05,-0.0002,-0.00022999999999999998,7e-05,0.00016,6
29296,30879,-0.00015,5e-05,7e-05,-5e-05,-0.0002,-0.00022999999999999998,7e-05,0.00016,6
29297,30880,-0.00015,5e-05,7e-05,-5e-05,-0.0002,-0.00022999999999999998,7e-05,0.00016,6
29298,30881,-0.00015,5e-05,7e-05,-5e-05,-0.0002,-0.00022999999999999998,7e-05,0.00016,6
29299,30882,-0.00015,5e-05,7e-05,-5e-05,-0.0002,-0.00022999999999999998,7e-05,0.00016,6
29300,30883,-0.00015,5e-05,7e-05,-5e-05,-0.0002,-0.00022999999999999998,7e-05,0.00016,6
29301,30884,-0.00015,5e-05,7e-05,-5e-05,-0.0002,-0.00022999999999999998,7e-05,0.00016,6
29302,30885,-0.00015,5e-05,7e-05,-5e-05,-0.0002,-0.00022999999999999998,7e-05,0.00016,6
29303,30886,-0.00015,5e-05,7e-05,-5e-05,-0.0002,-0.00022999999999999998,7e-05,0.00016,6
29304,30888,-0.00015,5e-05,7e-05,-5e-05,-0.0002,-0.00022999999999999998,7e-05,0.00016,6
29305,30889,-0.00015,5e-05,7e-05,-5e-05,-0.0002,-0.00022999999999999998,7e-05,0.00016,6
29306,30890,-0.00015,5e-05,7e-05,-5e-05,-0.0002,-0.00022999999999999998,7e-05,0.00016,6
29307,30891,-0.00015,5e-05,7e-05,-5e-05,-0.0002,-0.00022999999999999998,7e-05,0.00016,6
29308,30892,-0.00015,5e-05,7e-05,-5e-05,-0.0002,-0.00022999999999999998,7e-05,0.00016,6
29309,30893,0.00013000000000000002,4e-05,-1e-05,1e-05,-5e-05,-0.00021,0.00011,0.00026000000000000003,6
29310,30894,0.00013000000000000002,4e-05,-1e-05,1e-05,-5e-05,-0.00021,0.00011,0.00026000000000000003,6
29311,30895,8e-05,-8e-05,0.0,-0.0001,-4e-05,-8e-05,8e-05,0.00013000000000000002,6
29312,30896,8e-05,-8e-05,0.0,-0.0001,-4e-05,-8e-05,8e-05,0.00013000000000000002,6
29313,30897,8e-05,-8e-05,0.0,-0.0001,-4e-05,-8e-05,8e-05,0.00013000000000000002,6
29314,30898,8e-05,-8e-05,0.0,-0.0001,-4e-05,-8e-05,8e-05,0.00013000000000000002,6
29315,30899,8e-05,-8e-05,0.0,-0.0001,-4e-05,-8e-05,8e-05,0.00013000000000000002,6
29316,30900,8e-05,-8e-05,0.0,-0.0001,-4e-05,-8e-05,8e-05,0.00013000000000000002,6
29317,30901,8e-05,-8e-05,0.0,-0.0001,-4e-05,-8e-05,8e-05,0.00013000000000000002,6
29318,30902,8e-05,-8e-05,0.0,-0.0001,-4e-05,-8e-05,8e-05,0.00013000000000000002,6
29319,30903,8e-05,-8e-05,0.0,-0.0001,-4e-05,-8e-05,8e-05,0.00013000000000000002,6
29320,30904,8e-05,-8e-05,0.0,-0.0001,-4e-05,-8e-05,8e-05,0.00013000000000000002,6
29321,30905,8e-05,-8e-05,0.0,-0.0001,-4e-05,-8e-05,8e-05,0.00013000000000000002,6
29322,30906,8e-05,-8e-05,0.0,-0.0001,-4e-05,-8e-05,8e-05,0.00013000000000000002,6
29323,30907,-0.0005200000000000001,-2.9999999999999997e-05,-4e-05,-8e-05,-0.00018999999999999998,-5e-05,-7e-05,-0.00049,6
29324,30908,0.00014,5e-05,9e-05,0.00015,0.00018,0.00014,0.00011,0.00022999999999999998,6
29325,30909,0.00014,5e-05,9e-05,0.00015,0.00018,0.00014,0.00011,0.00022999999999999998,6
29326,30910,0.00014,5e-05,9e-05,0.00015,0.00018,0.00014,0.00011,0.00022999999999999998,6
29327,30911,0.00014,5e-05,9e-05,0.00015,0.00018,0.00014,0.00011,0.00022999999999999998,6
29328,30912,0.00014,5e-05,9e-05,0.00015,0.00018,0.00014,0.00011,0.00022999999999999998,6
29329,30913,0.00014,5e-05,9e-05,0.00015,0.00018,0.00014,0.00011,0.00022999999999999998,6
29330,30914,-9e-05,-0.00016999999999999999,-0.00025,-9e-05,-0.00047999999999999996,-0.00075,-0.0004,-0.0009699999999999999,6
29331,30915,-9e-05,-0.00016999999999999999,-0.00025,-9e-05,-0.00047999999999999996,-0.00075,-0.0004,-0.0009699999999999999,6
29332,30916,-9e-05,-0.00016999999999999999,-0.00025,-9e-05,-0.00047999999999999996,-0.00075,-0.0004,-0.0009699999999999999,6
29333,30917,-9e-05,-0.00016999999999999999,-0.00025,-9e-05,-0.00047999999999999996,-0.00075,-0.0004,-0.0009699999999999999,6
29334,30918,-9e-05,-0.00016999999999999999,-0.00025,-9e-05,-0.00047999999999999996,-0.00075,-0.0004,-0.0009699999999999999,6
29335,30919,-9e-05,-0.00016999999999999999,-0.00025,-9e-05,-0.00047999999999999996,-0.00075,-0.0004,-0.0009699999999999999,6
29336,30920,-9e-05,-0.00016999999999999999,-0.00025,-9e-05,-0.00047999999999999996,-0.00075,-0.0004,-0.0009699999999999999,6
29337,30921,-9e-05,-0.00016999999999999999,-0.00025,-9e-05,-0.00047999999999999996,-0.00075,-0.0004,-0.0009699999999999999,6
29338,30922,-9e-05,-0.00016999999999999999,-0.00025,-9e-05,-0.00047999999999999996,-0.00075,-0.0004,-0.0009699999999999999,6
29339,30923,-9e-05,-0.00016999999999999999,-0.00025,-9e-05,-0.00047999999999999996,-0.00075,-0.0004,-0.0009699999999999999,6
29340,30924,-9e-05,-0.00016999999999999999,-0.00025,-9e-05,-0.00047999999999999996,-0.00075,-0.0004,-0.0009699999999999999,6
29341,30925,-9e-05,-0.00016999999999999999,-0.00025,-9e-05,-0.00047999999999999996,-0.00075,-0.0004,-0.0009699999999999999,6
29342,30926,-9e-05,-0.00016999999999999999,-0.00025,-9e-05,-0.00047999999999999996,-0.00075,-0.0004,-0.0009699999999999999,6
29343,30927,-9e-05,-0.00016999999999999999,-0.00025,-9e-05,-0.00047999999999999996,-0.00075,-0.0004,-0.0009699999999999999,6
29344,30928,-9e-05,-0.00016999999999999999,-0.00025,-9e-05,-0.00047999999999999996,-0.00075,-0.0004,-0.0009699999999999999,6
29345,30929,-9e-05,-0.00016999999999999999,-0.00025,-9e-05,-0.00047999999999999996,-0.00075,-0.0004,-0.0009699999999999999,6
29346,30930,-9e-05,-0.00016999999999999999,-0.00025,-9e-05,-0.00047999999999999996,-0.00075,-0.0004,-0.0009699999999999999,6
29347,30931,-0.00016,-2e-05,-5e-05,-0.00011999999999999999,1e-05,-0.00013000000000000002,-0.00015,-0.00011,6
29348,30932,0.0001,0.0,0.00014,0.00022,0.00041,0.00054,0.00023999999999999998,0.00018999999999999998,6
29349,30933,0.0001,0.0,0.00014,0.00022,0.00041,0.00054,0.00023999999999999998,0.00018999999999999998,6
29350,30934,0.0001,0.0,0.00014,0.00022,0.00041,0.00054,0.00023999999999999998,0.00018999999999999998,6
29351,30935,0.0001,0.0,0.00014,0.00022,0.00041,0.00054,0.00023999999999999998,0.00018999999999999998,6
29352,30936,0.0001,0.0,0.00014,0.00022,0.00041,0.00054,0.00023999999999999998,0.00018999999999999998,6
29353,30939,0.0001,0.0,0.00014,0.00022,0.00041,0.00054,0.00023999999999999998,0.00018999999999999998,6
29354,30940,0.0001,0.0,0.00014,0.00022,0.00041,0.00054,0.00023999999999999998,0.00018999999999999998,6
29355,30941,0.0001,0.0,0.00014,0.00022,0.00041,0.00054,0.00023999999999999998,0.00018999999999999998,6
29356,30942,0.0001,0.0,0.00014,0.00022,0.00041,0.00054,0.00023999999999999998,0.00018999999999999998,6
29357,30943,0.0001,0.0,0.00014,0.00022,0.00041,0.00054,0.00023999999999999998,0.00018999999999999998,6
29358,30944,0.0001,0.0,0.00014,0.00022,0.00041,0.00054,0.00023999999999999998,0.00018999999999999998,6
29359,30945,0.0001,0.0,0.00014,0.00022,0.00041,0.00054,0.00023999999999999998,0.00018999999999999998,6
29360,30946,0.0001,0.0,0.00014,0.00022,0.00041,0.00054,0.00023999999999999998,0.00018999999999999998,6
29361,30947,0.0001,0.0,0.00014,0.00022,0.00041,0.00054,0.00023999999999999998,0.00018999999999999998,6
29362,30948,0.0001,0.0,0.00014,0.00022,0.00041,0.00054,0.00023999999999999998,0.00018999999999999998,6
29363,30949,0.0001,0.0,0.00014,0.00022,0.00041,0.00054,0.00023999999999999998,0.00018999999999999998,6
29364,30950,0.0001,0.0,0.00014,0.00022,0.00041,0.00054,0.00023999999999999998,0.00018999999999999998,6
29365,30951,0.0001,0.0,0.00014,0.00022,0.00041,0.00054,0.00023999999999999998,0.00018999999999999998,6
29366,30952,0.0001,0.0,0.00014,0.00022,0.00041,0.00054,0.00023999999999999998,0.00018999999999999998,6
29367,30953,-2e-05,-2e-05,-8e-05,-0.00018,-0.00026000000000000003,-5e-05,2.9999999999999997e-05,0.00011999999999999999,6
29368,30954,-2e-05,-2e-05,-8e-05,-0.00018,-0.00026000000000000003,-5e-05,2.9999999999999997e-05,0.00011999999999999999,6
29369,30955,-1e-05,2.9999999999999997e-05,0.0,2.9999999999999997e-05,0.0002,-8e-05,2e-05,4e-05,6
29370,30956,-1e-05,2.9999999999999997e-05,0.0,2.9999999999999997e-05,0.0002,-8e-05,2e-05,4e-05,6
29371,30957,-1e-05,2.9999999999999997e-05,0.0,2.9999999999999997e-05,0.0002,-8e-05,2e-05,4e-05,6
29372,30958,-1e-05,2.9999999999999997e-05,0.0,2.9999999999999997e-05,0.0002,-8e-05,2e-05,4e-05,6
29373,30959,-1e-05,2.9999999999999997e-05,0.0,2.9999999999999997e-05,0.0002,-8e-05,2e-05,4e-05,6
29374,30960,-1e-05,2.9999999999999997e-05,0.0,2.9999999999999997e-05,0.0002,-8e-05,2e-05,4e-05,6
29375,30961,-1e-05,2.9999999999999997e-05,0.0,2.9999999999999997e-05,0.0002,-8e-05,2e-05,4e-05,6
29376,30962,-1e-05,2.9999999999999997e-05,0.0,2.9999999999999997e-05,0.0002,-8e-05,2e-05,4e-05,6
29377,30963,-1e-05,2.9999999999999997e-05,0.0,2.9999999999999997e-05,0.0002,-8e-05,2e-05,4e-05,6
29378,30964,-1e-05,2.9999999999999997e-05,0.0,2.9999999999999997e-05,0.0002,-8e-05,2e-05,4e-05,6
29379,30965,-1e-05,2.9999999999999997e-05,0.0,2.9999999999999997e-05,0.0002,-8e-05,2e-05,4e-05,6
29380,30966,-1e-05,2.9999999999999997e-05,0.0,2.9999999999999997e-05,0.0002,-8e-05,2e-05,4e-05,6
29381,30967,-2e-05,-0.00011,2e-05,9e-05,-5e-05,-0.00018,2e-05,0.00018999999999999998,6
29382,30968,9e-05,1e-05,-1e-05,2.9999999999999997e-05,-1e-05,0.00018,-8e-05,-0.00016,6
