,time,channel1,channel2,channel3,channel4,channel5,channel6,channel7,channel8,class
30392,31247,-8e-05,-2.9999999999999997e-05,-2e-05,5e-05,7e-05,5e-05,8e-05,9e-05,6
30393,31248,-8e-05,-2.9999999999999997e-05,-2e-05,5e-05,7e-05,5e-05,8e-05,9e-05,6
30394,31249,-8e-05,-2.9999999999999997e-05,-2e-05,5e-05,7e-05,5e-05,8e-05,9e-05,6
30395,31250,-8e-05,-2.9999999999999997e-05,-2e-05,5e-05,7e-05,5e-05,8e-05,9e-05,6
30396,31251,-8e-05,-2.9999999999999997e-05,-2e-05,5e-05,7e-05,5e-05,8e-05,9e-05,6
30397,31252,-8e-05,-2.9999999999999997e-05,-2e-05,5e-05,7e-05,5e-05,8e-05,9e-05,6
30398,31253,-8e-05,-2.9999999999999997e-05,-2e-05,5e-05,7e-05,5e-05,8e-05,9e-05,6
30399,31254,-0.00016,0.0,0.0,-4e-05,-0.0002,-0.00027,-0.00011999999999999999,-0.00021,6
30400,31255,-0.00016,0.0,0.0,-4e-05,-0.0002,-0.00027,-0.00011999999999999999,-0.00021,6
30401,31256,-0.00016,0.0,0.0,-4e-05,-0.0002,-0.00027,-0.00011999999999999999,-0.00021,6
30402,31257,-0.00016,0.0,0.0,-4e-05,-0.0002,-0.00027,-0.00011999999999999999,-0.00021,6
30403,31258,-0.00016,0.0,0.0,-4e-05,-0.0002,-0.00027,-0.00011999999999999999,-0.00021,6
30404,31259,-0.00016,0.0,0.0,-4e-05,-0.0002,-0.00027,-0.00011999999999999999,-0.00021,6
30405,31260,-0.00016,0.0,0.0,-4e-05,-0.0002,-0.00027,-0.00011999999999999999,-0.00021,6
30406,31261,-7e-05,-2.9999999999999997e-05,-4e-05,-5.9999999999999995e-05,-0.00016,-0.00015,-7e-05,-9e-05,6
30407,31262,-7e-05,-2.9999999999999997e-05,-4e-05,-5.9999999999999995e-05,-0.00016,-0.00015,-7e-05,-9e-05,6
30408,31263,-7e-05,-2.9999999999999997e-05,-4e-05,-5.9999999999999995e-05,-0.00016,-0.00015,-7e-05,-9e-05,6
30409,31264,-7e-05,-2.9999999999999997e-05,-4e-05,-5.9999999999999995e-05,-0.00016,-0.00015,-7e-05,-9e-05,6
30410,31265,-7e-05,-2.9999999999999997e-05,-4e-05,-5.9999999999999995e-05,-0.00016,-0.00015,-7e-05,-9e-05,6
30411,31266,-7e-05,-2.9999999999999997e-05,-4e-05,-5.9999999999999995e-05,-0.00016,-0.00015,-7e-05,-9e-05,6
30412,31267,-7e-05,-2.9999999999999997e-05,-4e-05,-5.9999999999999995e-05,-0.00016,-0.00015,-7e-05,-9e-05,6
30413,31268,-7e-05,-2.9999999999999997e-05,-4e-05,-5.9999999999999995e-05,-0.00016,-0.00015,-7e-05,-9e-05,6
30414,31269,-7e-05,-2.9999999999999997e-05,-4e-05,-5.9999999999999995e-05,-0.00016,-0.00015,-7e-05,-9e-05,6
30415,31270,-7e-05,-2.9999999999999997e-05,-4e-05,-5.9999999999999995e-05,-0.00016,-0.00015,-7e-05,-9e-05,6
30416,31271,-7e-05,-2.9999999999999997e-05,-4e-05,-5.9999999999999995e-05,-0.00016,-0.00015,-7e-05,-9e-05,6
30417,31272,-7e-05,-2.9999999999999997e-05,-4e-05,-5.9999999999999995e-05,-0.00016,-0.00015,-7e-05,-9e-05,6
30418,31273,-7e-05,-2.9999999999999997e-05,-4e-05,-5.9999999999999995e-05,-0.00016,-0.00015,-7e-05,-9e-05,6
30419,31274,-7e-05,-2.9999999999999997e-05,-4e-05,-5.9999999999999995e-05,-0.00016,-0.00015,-7e-05,-9e-05,6
30420,31275,-7e-05,-2.9999999999999997e-05,-4e-05,-5.9999999999999995e-05,-0.00016,-0.00015,-7e-05,-9e-05,6
30421,31276,-7e-05,-2.9999999999999997e-05,-4e-05,-5.9999999999999995e-05,-0.00016,-0.00015,-7e-05,-9e-05,6
30422,31277,-0.00021,-8e-05,-5.9999999999999995e-05,-2e-05,-0.00015,-0.00054,2.9999999999999997e-05,9e-05,6
30423,31278,-0.00021,-8e-05,-5.9999999999999995e-05,-2e-05,-0.00015,-0.00054,2.9999999999999997e-05,9e-05,6
30424,31279,0.00036,2e-05,-1e-05,-4e-05,-9e-05,0.00039,1e-05,0.00014,6
30425,31280,0.00036,2e-05,-1e-05,-4e-05,-9e-05,0.00039,1e-05,0.00014,6
30426,31281,0.00036,2e-05,-1e-05,-4e-05,-9e-05,0.00039,1e-05,0.00014,6
30427,31282,0.00036,2e-05,-1e-05,-4e-05,-9e-05,0.00039,1e-05,0.00014,6
30428,31283,0.00036,2e-05,-1e-05,-4e-05,-9e-05,0.00039,1e-05,0.00014,6
30429,31284,0.00036,2e-05,-1e-05,-4e-05,-9e-05,0.00039,1e-05,0.00014,6
30430,31285,0.00036,2e-05,-1e-05,-4e-05,-9e-05,0.00039,1e-05,0.00014,6
30431,31286,0.00036,2e-05,-1e-05,-4e-05,-9e-05,0.00039,1e-05,0.00014,6
30432,31288,0.00036,2e-05,-1e-05,-4e-05,-9e-05,0.00039,1e-05,0.00014,6
30433,31289,0.00036,2e-05,-1e-05,-4e-05,-9e-05,0.00039,1e-05,0.00014,6
30434,31290,0.00036,2e-05,-1e-05,-4e-05,-9e-05,0.00039,1e-05,0.00014,6
30435,31291,0.00036,2e-05,-1e-05,-4e-05,-9e-05,0.00039,1e-05,0.00014,6
30436,31292,0.00036,2e-05,-1e-05,-4e-05,-9e-05,0.00039,1e-05,0.00014,6
30437,31293,0.00036,2e-05,-1e-05,-4e-05,-9e-05,0.00039,1e-05,0.00014,6
30438,31294,0.00036,2e-05,-1e-05,-4e-05,-9e-05,0.00039,1e-05,0.00014,6
30439,31295,0.00036,2e-05,-1e-05,-4e-05,-9e-05,0.00039,1e-05,0.00014,6
30440,31296,0.00036,2e-05,-1e-05,-4e-05,-9e-05,0.00039,1e-05,0.00014,6
30441,31297,0.00036,2e-05,-1e-05,-4e-05,-9e-05,0.00039,1e-05,0.00014,6
30442,31298,0.00036,2e-05,-1e-05,-4e-05,-9e-05,0.00039,1e-05,0.00014,6
30443,31299,0.00036,2e-05,-1e-05,-4e-05,-9e-05,0.00039,1e-05,0.00014,6
30444,31300,-5.9999999999999995e-05,2.9999999999999997e-05,4e-05,2e-05,8e-05,0.00013000000000000002,1e-05,0.00021,6
30445,31301,-5e-05,-4e-05,-5e-05,-7e-05,8e-05,-5.9999999999999995e-05,1e-05,2.9999999999999997e-05,6
30446,31302,-5e-05,-4e-05,-5e-05,-7e-05,8e-05,-5.9999999999999995e-05,1e-05,2.9999999999999997e-05,6
30447,31303,-5e-05,-4e-05,-5e-05,-7e-05,8e-05,-5.9999999999999995e-05,1e-05,2.9999999999999997e-05,6
30448,31304,-5e-05,-4e-05,-5e-05,-7e-05,8e-05,-5.9999999999999995e-05,1e-05,2.9999999999999997e-05,6
30449,31305,-5e-05,-4e-05,-5e-05,-7e-05,8e-05,-5.9999999999999995e-05,1e-05,2.9999999999999997e-05,6
30450,31306,-5e-05,-4e-05,-5e-05,-7e-05,8e-05,-5.9999999999999995e-05,1e-05,2.9999999999999997e-05,6
30451,31307,-5e-05,-4e-05,-5e-05,-7e-05,8e-05,-5.9999999999999995e-05,1e-05,2.9999999999999997e-05,6
30452,31308,-5e-05,-4e-05,-5e-05,-7e-05,8e-05,-5.9999999999999995e-05,1e-05,2.9999999999999997e-05,6
30453,31309,-5e-05,-4e-05,-5e-05,-7e-05,8e-05,-5.9999999999999995e-05,1e-05,2.9999999999999997e-05,6
30454,31310,-5e-05,-4e-05,-5e-05,-7e-05,8e-05,-5.9999999999999995e-05,1e-05,2.9999999999999997e-05,6
30455,31311,-5e-05,-4e-05,-5e-05,-7e-05,8e-05,-5.9999999999999995e-05,1e-05,2.9999999999999997e-05,6
30456,31312,-5e-05,-4e-05,-5e-05,-7e-05,8e-05,-5.9999999999999995e-05,1e-05,2.9999999999999997e-05,6
30457,31313,-5e-05,-4e-05,-5e-05,-7e-05,8e-05,-5.9999999999999995e-05,1e-05,2.9999999999999997e-05,6
30458,31314,-9e-05,-5e-05,-4e-05,-7e-05,-0.00022,-0.00045,-0.00013000000000000002,-0.0002,6
30459,31315,-9e-05,-5e-05,-4e-05,-7e-05,-0.00022,-0.00045,-0.00013000000000000002,-0.0002,6
30460,31316,-9e-05,-5e-05,-4e-05,-7e-05,-0.00022,-0.00045,-0.00013000000000000002,-0.0002,6
30461,31317,-9e-05,-5e-05,-4e-05,-7e-05,-0.00022,-0.00045,-0.00013000000000000002,-0.0002,6
30462,31318,-9e-05,-5e-05,-4e-05,-7e-05,-0.00022,-0.00045,-0.00013000000000000002,-0.0002,6
30463,31319,-9e-05,-5e-05,-4e-05,-7e-05,-0.00022,-0.00045,-0.00013000000000000002,-0.0002,6
30464,31320,-9e-05,-5e-05,-4e-05,-7e-05,-0.00022,-0.00045,-0.00013000000000000002,-0.0002,6
30465,31321,-0.00011,-2e-05,-1e-05,-5.9999999999999995e-05,-5e-05,-0.00057,-8e-05,-2.9999999999999997e-05,6
30466,31322,-0.00011,-2e-05,-1e-05,-5.9999999999999995e-05,-5e-05,-0.00057,-8e-05,-2.9999999999999997e-05,6
30467,31323,-0.00011,-2e-05,-1e-05,-5.9999999999999995e-05,-5e-05,-0.00057,-8e-05,-2.9999999999999997e-05,6
30468,31324,-0.00011,-2e-05,-1e-05,-5.9999999999999995e-05,-5e-05,-0.00057,-8e-05,-2.9999999999999997e-05,6
30469,31325,-0.00011,-2e-05,-1e-05,-5.9999999999999995e-05,-5e-05,-0.00057,-8e-05,-2.9999999999999997e-05,6
30470,31326,-0.00011,-2e-05,-1e-05,-5.9999999999999995e-05,-5e-05,-0.00057,-8e-05,-2.9999999999999997e-05,6
30471,31327,-0.00011,-2e-05,-1e-05,-5.9999999999999995e-05,-5e-05,-0.00057,-8e-05,-2.9999999999999997e-05,6
30472,31328,-0.00011,-2e-05,-1e-05,-5.9999999999999995e-05,-5e-05,-0.00057,-8e-05,-2.9999999999999997e-05,6
30473,31329,-0.00011,-2e-05,-1e-05,-5.9999999999999995e-05,-5e-05,-0.00057,-8e-05,-2.9999999999999997e-05,6
30474,31330,-0.00011,-2e-05,-1e-05,-5.9999999999999995e-05,-5e-05,-0.00057,-8e-05,-2.9999999999999997e-05,6
30475,31331,-0.00011,-2e-05,-1e-05,-5.9999999999999995e-05,-5e-05,-0.00057,-8e-05,-2.9999999999999997e-05,6
30476,31332,-0.00011,-2e-05,-1e-05,-5.9999999999999995e-05,-5e-05,-0.00057,-8e-05,-2.9999999999999997e-05,6
30477,31333,-0.00011,-2e-05,-1e-05,-5.9999999999999995e-05,-5e-05,-0.00057,-8e-05,-2.9999999999999997e-05,6
30478,31334,-0.00011,-2e-05,-1e-05,-5.9999999999999995e-05,-5e-05,-0.00057,-8e-05,-2.9999999999999997e-05,6
30479,31335,-0.00011,-2e-05,-1e-05,-5.9999999999999995e-05,-5e-05,-0.00057,-8e-05,-2.9999999999999997e-05,6
30480,31336,-0.00011,-2e-05,-1e-05,-5.9999999999999995e-05,-5e-05,-0.00057,-8e-05,-2.9999999999999997e-05,6
30481,31339,-7e-05,-1e-05,-1e-05,8e-05,0.00013000000000000002,-4e-05,-0.00013000000000000002,8e-05,6
30482,31340,-7e-05,-1e-05,-1e-05,8e-05,0.00013000000000000002,-4e-05,-0.00013000000000000002,8e-05,6
30483,31341,-7e-05,-1e-05,-1e-05,8e-05,0.00013000000000000002,-4e-05,-0.00013000000000000002,8e-05,6
30484,31342,-7e-05,-1e-05,-1e-05,8e-05,0.00013000000000000002,-4e-05,-0.00013000000000000002,8e-05,6
30485,31343,-7e-05,-1e-05,-1e-05,8e-05,0.00013000000000000002,-4e-05,-0.00013000000000000002,8e-05,6
30486,31344,-7e-05,-1e-05,-1e-05,8e-05,0.00013000000000000002,-4e-05,-0.00013000000000000002,8e-05,6
30487,31345,-7e-05,-1e-05,-1e-05,8e-05,0.00013000000000000002,-4e-05,-0.00013000000000000002,8e-05,6
30488,31346,-7e-05,-1e-05,-1e-05,8e-05,0.00013000000000000002,-4e-05,-0.00013000000000000002,8e-05,6
30489,31347,-7e-05,-1e-05,-1e-05,8e-05,0.00013000000000000002,-4e-05,-0.00013000000000000002,8e-05,6
30490,31348,-7e-05,-1e-05,-1e-05,8e-05,0.00013000000000000002,-4e-05,-0.00013000000000000002,8e-05,6
30491,31349,-7e-05,-1e-05,-1e-05,8e-05,0.00013000000000000002,-4e-05,-0.00013000000000000002,8e-05,6
30492,31350,-7e-05,-1e-05,-1e-05,8e-05,0.00013000000000000002,-4e-05,-0.00013000000000000002,8e-05,6
30493,31351,-7e-05,-1e-05,-1e-05,8e-05,0.00013000000000000002,-4e-05,-0.00013000000000000002,8e-05,6
30494,31352,-7e-05,-1e-05,-1e-05,8e-05,0.00013000000000000002,-4e-05,-0.00013000000000000002,8e-05,6
30495,31353,-7e-05,-1e-05,-1e-05,8e-05,0.00013000000000000002,-4e-05,-0.00013000000000000002,8e-05,6
30496,31354,-7e-05,-1e-05,-1e-05,8e-05,0.00013000000000000002,-4e-05,-0.00013000000000000002,8e-05,6
30497,31355,-7e-05,-1e-05,-1e-05,8e-05,0.00013000000000000002,-4e-05,-0.00013000000000000002,8e-05,6
30498,31356,-7e-05,-1e-05,-1e-05,8e-05,0.00013000000000000002,-4e-05,-0.00013000000000000002,8e-05,6
30499,31357,-7e-05,-1e-05,-1e-05,8e-05,0.00013000000000000002,-4e-05,-0.00013000000000000002,8e-05,6
30500,31358,-7e-05,-1e-05,-1e-05,8e-05,0.00013000000000000002,-4e-05,-0.00013000000000000002,8e-05,6
30501,31359,-7e-05,-1e-05,-1e-05,8e-05,0.00013000000000000002,-4e-05,-0.00013000000000000002,8e-05,6
30502,31360,7e-05,0.0,-1e-05,-1e-05,-0.0002,-0.00063,0.00011,0.00011999999999999999,6
30503,31361,-1e-05,-1e-05,0.0,2.9999999999999997e-05,0.0,8e-05,0.0,0.00013000000000000002,6
30504,31362,-1e-05,-1e-05,0.0,2.9999999999999997e-05,0.0,8e-05,0.0,0.00013000000000000002,6
30505,31363,-1e-05,-1e-05,0.0,2.9999999999999997e-05,0.0,8e-05,0.0,0.00013000000000000002,6
30506,31364,-1e-05,-1e-05,0.0,2.9999999999999997e-05,0.0,8e-05,0.0,0.00013000000000000002,6
30507,31365,-1e-05,-1e-05,0.0,2.9999999999999997e-05,0.0,8e-05,0.0,0.00013000000000000002,6
30508,31366,-1e-05,-1e-05,0.0,2.9999999999999997e-05,0.0,8e-05,0.0,0.00013000000000000002,6
30509,31367,-1e-05,-1e-05,0.0,2.9999999999999997e-05,0.0,8e-05,0.0,0.00013000000000000002,6
30510,31368,-1e-05,-1e-05,0.0,2.9999999999999997e-05,0.0,8e-05,0.0,0.00013000000000000002,6
30511,31369,-1e-05,-1e-05,0.0,2.9999999999999997e-05,0.0,8e-05,0.0,0.00013000000000000002,6
30512,31370,-1e-05,-1e-05,0.0,2.9999999999999997e-05,0.0,8e-05,0.0,0.00013000000000000002,6
30513,31371,-1e-05,-1e-05,0.0,2.9999999999999997e-05,0.0,8e-05,0.0,0.00013000000000000002,6
30514,31372,-1e-05,-1e-05,0.0,2.9999999999999997e-05,0.0,8e-05,0.0,0.00013000000000000002,6
30515,31373,-1e-05,-1e-05,0.0,2.9999999999999997e-05,0.0,8e-05,0.0,0.00013000000000000002,6
30516,31374,-0.00022,-4e-05,-4e-05,-1e-05,8e-05,9e-05,-0.00015,-0.00018,6
30517,31375,-0.00022,-4e-05,-4e-05,-1e-05,8e-05,9e-05,-0.00015,-0.00018,6
30518,31376,-0.00022,-4e-05,-4e-05,-1e-05,8e-05,9e-05,-0.00015,-0.00018,6
30519,31377,-0.00022,-4e-05,-4e-05,-1e-05,8e-05,9e-05,-0.00015,-0.00018,6
30520,31378,-0.00022,-4e-05,-4e-05,-1e-05,8e-05,9e-05,-0.00015,-0.00018,6
30521,31379,-0.00022,-4e-05,-4e-05,-1e-05,8e-05,9e-05,-0.00015,-0.00018,6
30522,31380,-0.00022,-4e-05,-4e-05,-1e-05,8e-05,9e-05,-0.00015,-0.00018,6
30523,31381,-2e-05,2e-05,4e-05,8e-05,0.0001,0.00022999999999999998,0.00011,-8e-05,6
30524,31382,-2e-05,2e-05,4e-05,8e-05,0.0001,0.00022999999999999998,0.00011,-8e-05,6
30525,31384,-2e-05,2e-05,4e-05,8e-05,0.0001,0.00022999999999999998,0.00011,-8e-05,6
30526,31385,-2e-05,2e-05,4e-05,8e-05,0.0001,0.00022999999999999998,0.00011,-8e-05,6
30527,31386,-2e-05,2e-05,4e-05,8e-05,0.0001,0.00022999999999999998,0.00011,-8e-05,6
30528,31388,-2e-05,2e-05,4e-05,8e-05,0.0001,0.00022999999999999998,0.00011,-8e-05,6
30529,31389,-2e-05,2e-05,4e-05,8e-05,0.0001,0.00022999999999999998,0.00011,-8e-05,6
30530,31390,-2e-05,2e-05,4e-05,8e-05,0.0001,0.00022999999999999998,0.00011,-8e-05,6
30531,31391,-2e-05,2e-05,4e-05,8e-05,0.0001,0.00022999999999999998,0.00011,-8e-05,6
30532,31392,-2e-05,2e-05,4e-05,8e-05,0.0001,0.00022999999999999998,0.00011,-8e-05,6
30533,31393,-2e-05,2e-05,4e-05,8e-05,0.0001,0.00022999999999999998,0.00011,-8e-05,6
30534,31394,-2e-05,2e-05,4e-05,8e-05,0.0001,0.00022999999999999998,0.00011,-8e-05,6
30535,31395,-2e-05,2e-05,4e-05,8e-05,0.0001,0.00022999999999999998,0.00011,-8e-05,6
30536,31396,-2e-05,2e-05,4e-05,8e-05,0.0001,0.00022999999999999998,0.00011,-8e-05,6
30537,31397,0.0001,-1e-05,-2e-05,-0.0001,-0.0002,0.0006,2e-05,0.00011,6
30538,31398,0.0001,-1e-05,-2e-05,-0.0001,-0.0002,0.0006,2e-05,0.00011,6
30539,31399,-4e-05,-7e-05,-7e-05,-0.0001,-0.00029,-0.00021,-0.00016,-0.00018,6
30540,31400,-4e-05,-7e-05,-7e-05,-0.0001,-0.00029,-0.00021,-0.00016,-0.00018,6
30541,31401,-4e-05,-7e-05,-7e-05,-0.0001,-0.00029,-0.00021,-0.00016,-0.00018,6
30542,31402,-4e-05,-7e-05,-7e-05,-0.0001,-0.00029,-0.00021,-0.00016,-0.00018,6
30543,31403,-4e-05,-7e-05,-7e-05,-0.0001,-0.00029,-0.00021,-0.00016,-0.00018,6
30544,31404,-4e-05,-7e-05,-7e-05,-0.0001,-0.00029,-0.00021,-0.00016,-0.00018,6
30545,31405,-4e-05,-7e-05,-7e-05,-0.0001,-0.00029,-0.00021,-0.00016,-0.00018,6
30546,31406,-4e-05,-7e-05,-7e-05,-0.0001,-0.00029,-0.00021,-0.00016,-0.00018,6
30547,31407,-4e-05,-7e-05,-7e-05,-0.0001,-0.00029,-0.00021,-0.00016,-0.00018,6
30548,31408,-4e-05,-7e-05,-7e-05,-0.0001,-0.00029,-0.00021,-0.00016,-0.00018,6
30549,31409,-4e-05,-7e-05,-7e-05,-0.0001,-0.00029,-0.00021,-0.00016,-0.00018,6
30550,31410,-4e-05,-7e-05,-7e-05,-0.0001,-0.00029,-0.00021,-0.00016,-0.00018,6
30551,31411,-4e-05,-7e-05,-7e-05,-0.0001,-0.00029,-0.00021,-0.00016,-0.00018,6
30552,31412,-4e-05,-7e-05,-7e-05,-0.0001,-0.00029,-0.00021,-0.00016,-0.00018,6
30553,31413,-4e-05,-7e-05,-7e-05,-0.0001,-0.00029,-0.00021,-0.00016,-0.00018,6
30554,31414,-4e-05,-7e-05,-7e-05,-0.0001,-0.00029,-0.00021,-0.00016,-0.00018,6
30555,31415,-4e-05,-7e-05,-7e-05,-0.0001,-0.00029,-0.00021,-0.00016,-0.00018,6
30556,31416,-4e-05,-7e-05,-7e-05,-0.0001,-0.00029,-0.00021,-0.00016,-0.00018,6
30557,31417,-4e-05,-7e-05,-7e-05,-0.0001,-0.00029,-0.00021,-0.00016,-0.00018,6
30558,31418,-4e-05,-7e-05,-7e-05,-0.0001,-0.00029,-0.00021,-0.00016,-0.00018,6
30559,31419,-4e-05,-7e-05,-7e-05,-0.0001,-0.00029,-0.00021,-0.00016,-0.00018,6
30560,31420,2.9999999999999997e-05,1e-05,0.0,-2e-05,-0.00018999999999999998,9e-05,-1e-05,0.0001,6
30561,31421,0.0,2.9999999999999997e-05,2.9999999999999997e-05,2e-05,-9e-05,-0.00027,0.00011,2e-05,6
30562,31422,0.0,2.9999999999999997e-05,2.9999999999999997e-05,2e-05,-9e-05,-0.00027,0.00011,2e-05,6
30563,31423,0.0,2.9999999999999997e-05,2.9999999999999997e-05,2e-05,-9e-05,-0.00027,0.00011,2e-05,6
30564,31424,0.0,2.9999999999999997e-05,2.9999999999999997e-05,2e-05,-9e-05,-0.00027,0.00011,2e-05,6
30565,31425,0.0,2.9999999999999997e-05,2.9999999999999997e-05,2e-05,-9e-05,-0.00027,0.00011,2e-05,6
30566,31426,0.0,2.9999999999999997e-05,2.9999999999999997e-05,2e-05,-9e-05,-0.00027,0.00011,2e-05,6
30567,31427,0.0,2.9999999999999997e-05,2.9999999999999997e-05,2e-05,-9e-05,-0.00027,0.00011,2e-05,6
30568,31428,0.0,2.9999999999999997e-05,2.9999999999999997e-05,2e-05,-9e-05,-0.00027,0.00011,2e-05,6
30569,31429,0.0,2.9999999999999997e-05,2.9999999999999997e-05,2e-05,-9e-05,-0.00027,0.00011,2e-05,6
30570,31430,0.0,2.9999999999999997e-05,2.9999999999999997e-05,2e-05,-9e-05,-0.00027,0.00011,2e-05,6
30571,31431,0.0,2.9999999999999997e-05,2.9999999999999997e-05,2e-05,-9e-05,-0.00027,0.00011,2e-05,6
30572,31432,0.0,2.9999999999999997e-05,2.9999999999999997e-05,2e-05,-9e-05,-0.00027,0.00011,2e-05,6
30573,31433,0.0,2.9999999999999997e-05,2.9999999999999997e-05,2e-05,-9e-05,-0.00027,0.00011,2e-05,6
30574,31434,8e-05,-1e-05,-2.9999999999999997e-05,-5e-05,-7e-05,-0.00016,-1e-05,0.00011999999999999999,6
30575,31435,-0.00016,-5.9999999999999995e-05,-5e-05,-2.9999999999999997e-05,-0.0001,0.00014,-0.00021,-0.00037,6
30576,31436,-0.00016,-5.9999999999999995e-05,-5e-05,-2.9999999999999997e-05,-0.0001,0.00014,-0.00021,-0.00037,6
30577,31438,-0.00016,-5.9999999999999995e-05,-5e-05,-2.9999999999999997e-05,-0.0001,0.00014,-0.00021,-0.00037,6
30578,31439,-0.00016,-5.9999999999999995e-05,-5e-05,-2.9999999999999997e-05,-0.0001,0.00014,-0.00021,-0.00037,6
30579,31440,-0.00016,-5.9999999999999995e-05,-5e-05,-2.9999999999999997e-05,-0.0001,0.00014,-0.00021,-0.00037,6
30580,31441,0.0001,1e-05,0.0,-2.9999999999999997e-05,0.0001,0.00027,0.0001,1e-05,6
30581,31442,0.0001,1e-05,0.0,-2.9999999999999997e-05,0.0001,0.00027,0.0001,1e-05,6
30582,31443,0.0001,1e-05,0.0,-2.9999999999999997e-05,0.0001,0.00027,0.0001,1e-05,6
30583,31444,0.0001,1e-05,0.0,-2.9999999999999997e-05,0.0001,0.00027,0.0001,1e-05,6
30584,31445,0.0001,1e-05,0.0,-2.9999999999999997e-05,0.0001,0.00027,0.0001,1e-05,6
30585,31446,0.0001,1e-05,0.0,-2.9999999999999997e-05,0.0001,0.00027,0.0001,1e-05,6
30586,31447,0.0001,1e-05,0.0,-2.9999999999999997e-05,0.0001,0.00027,0.0001,1e-05,6
30587,31448,0.0001,1e-05,0.0,-2.9999999999999997e-05,0.0001,0.00027,0.0001,1e-05,6
30588,31449,0.0001,1e-05,0.0,-2.9999999999999997e-05,0.0001,0.00027,0.0001,1e-05,6
30589,31450,0.0001,1e-05,0.0,-2.9999999999999997e-05,0.0001,0.00027,0.0001,1e-05,6
30590,31451,0.0001,1e-05,0.0,-2.9999999999999997e-05,0.0001,0.00027,0.0001,1e-05,6
30591,31452,0.0001,1e-05,0.0,-2.9999999999999997e-05,0.0001,0.00027,0.0001,1e-05,6
30592,31453,0.0001,1e-05,0.0,-2.9999999999999997e-05,0.0001,0.00027,0.0001,1e-05,6
30593,31454,0.0001,1e-05,0.0,-2.9999999999999997e-05,0.0001,0.00027,0.0001,1e-05,6
30594,31455,0.0001,1e-05,0.0,-2.9999999999999997e-05,0.0001,0.00027,0.0001,1e-05,6
30595,31456,0.0001,1e-05,0.0,-2.9999999999999997e-05,0.0001,0.00027,0.0001,1e-05,6
30596,31457,4e-05,1e-05,0.0,1e-05,-2.9999999999999997e-05,0.00018,5.9999999999999995e-05,0.00011,6
30597,31458,4e-05,1e-05,0.0,1e-05,-2.9999999999999997e-05,0.00018,5.9999999999999995e-05,0.00011,6
30598,31459,-7e-05,-1e-05,-1e-05,1e-05,0.0002,-8e-05,-7e-05,-5.9999999999999995e-05,6
30599,31460,-7e-05,-1e-05,-1e-05,1e-05,0.0002,-8e-05,-7e-05,-5.9999999999999995e-05,6
30600,31461,-7e-05,-1e-05,-1e-05,1e-05,0.0002,-8e-05,-7e-05,-5.9999999999999995e-05,6
30601,31462,-7e-05,-1e-05,-1e-05,1e-05,0.0002,-8e-05,-7e-05,-5.9999999999999995e-05,6
30602,31463,-7e-05,-1e-05,-1e-05,1e-05,0.0002,-8e-05,-7e-05,-5.9999999999999995e-05,6
30603,31464,-7e-05,-1e-05,-1e-05,1e-05,0.0002,-8e-05,-7e-05,-5.9999999999999995e-05,6
30604,31465,-7e-05,-1e-05,-1e-05,1e-05,0.0002,-8e-05,-7e-05,-5.9999999999999995e-05,6
30605,31466,-7e-05,-1e-05,-1e-05,1e-05,0.0002,-8e-05,-7e-05,-5.9999999999999995e-05,6
30606,31467,-7e-05,-1e-05,-1e-05,1e-05,0.0002,-8e-05,-7e-05,-5.9999999999999995e-05,6
30607,31468,-7e-05,-1e-05,-1e-05,1e-05,0.0002,-8e-05,-7e-05,-5.9999999999999995e-05,6
30608,31469,-7e-05,-1e-05,-1e-05,1e-05,0.0002,-8e-05,-7e-05,-5.9999999999999995e-05,6
30609,31470,-7e-05,-1e-05,-1e-05,1e-05,0.0002,-8e-05,-7e-05,-5.9999999999999995e-05,6
30610,31471,-7e-05,-1e-05,-1e-05,1e-05,0.0002,-8e-05,-7e-05,-5.9999999999999995e-05,6
30611,31472,-7e-05,-1e-05,-1e-05,1e-05,0.0002,-8e-05,-7e-05,-5.9999999999999995e-05,6
30612,31473,-7e-05,-1e-05,-1e-05,1e-05,0.0002,-8e-05,-7e-05,-5.9999999999999995e-05,6
30613,31474,-7e-05,-1e-05,-1e-05,1e-05,0.0002,-8e-05,-7e-05,-5.9999999999999995e-05,6
30614,31475,-7e-05,-1e-05,-1e-05,1e-05,0.0002,-8e-05,-7e-05,-5.9999999999999995e-05,6
30615,31476,-7e-05,-1e-05,-1e-05,1e-05,0.0002,-8e-05,-7e-05,-5.9999999999999995e-05,6
30616,31477,-7e-05,-1e-05,-1e-05,1e-05,0.0002,-8e-05,-7e-05,-5.9999999999999995e-05,6
30617,31478,-7e-05,-1e-05,-1e-05,1e-05,0.0002,-8e-05,-7e-05,-5.9999999999999995e-05,6
30618,31479,-7e-05,-1e-05,-1e-05,1e-05,0.0002,-8e-05,-7e-05,-5.9999999999999995e-05,6
30619,31480,0.00013000000000000002,-2e-05,1e-05,0.0001,0.0003,0.0,1e-05,0.00018,6
30620,31481,-5e-05,-2e-05,-4e-05,-5.9999999999999995e-05,-5.9999999999999995e-05,0.0002,2.9999999999999997e-05,-0.00015,6
30621,31483,-5e-05,-2e-05,-4e-05,-5.9999999999999995e-05,-5.9999999999999995e-05,0.0002,2.9999999999999997e-05,-0.00015,6
30622,31484,-5e-05,-2e-05,-4e-05,-5.9999999999999995e-05,-5.9999999999999995e-05,0.0002,2.9999999999999997e-05,-0.00015,6
30623,31485,-5e-05,-2e-05,-4e-05,-5.9999999999999995e-05,-5.9999999999999995e-05,0.0002,2.9999999999999997e-05,-0.00015,6
30624,31486,-5e-05,-2e-05,-4e-05,-5.9999999999999995e-05,-5.9999999999999995e-05,0.0002,2.9999999999999997e-05,-0.00015,6
30625,31488,-5e-05,-2e-05,-4e-05,-5.9999999999999995e-05,-5.9999999999999995e-05,0.0002,2.9999999999999997e-05,-0.00015,6
30626,31489,-5e-05,-2e-05,-4e-05,-5.9999999999999995e-05,-5.9999999999999995e-05,0.0002,2.9999999999999997e-05,-0.00015,6
30627,31490,-5e-05,-2e-05,-4e-05,-5.9999999999999995e-05,-5.9999999999999995e-05,0.0002,2.9999999999999997e-05,-0.00015,6
30628,31491,-5e-05,-2e-05,-4e-05,-5.9999999999999995e-05,-5.9999999999999995e-05,0.0002,2.9999999999999997e-05,-0.00015,6
30629,31492,-5e-05,-2e-05,-4e-05,-5.9999999999999995e-05,-5.9999999999999995e-05,0.0002,2.9999999999999997e-05,-0.00015,6
30630,31493,-5e-05,-2e-05,-4e-05,-5.9999999999999995e-05,-5.9999999999999995e-05,0.0002,2.9999999999999997e-05,-0.00015,6
30631,31494,-9e-05,-1e-05,-1e-05,0.0,0.00037,-0.00044,-2e-05,-0.00018,6
30632,31495,-9e-05,-1e-05,-1e-05,0.0,0.00037,-0.00044,-2e-05,-0.00018,6
30633,31496,-9e-05,-1e-05,-1e-05,0.0,0.00037,-0.00044,-2e-05,-0.00018,6
30634,31497,-9e-05,-1e-05,-1e-05,0.0,0.00037,-0.00044,-2e-05,-0.00018,6
30635,31498,-9e-05,-1e-05,-1e-05,0.0,0.00037,-0.00044,-2e-05,-0.00018,6
30636,31499,-9e-05,-1e-05,-1e-05,0.0,0.00037,-0.00044,-2e-05,-0.00018,6
30637,31500,-9e-05,-1e-05,-1e-05,0.0,0.00037,-0.00044,-2e-05,-0.00018,6
30638,31501,-9e-05,-1e-05,-1e-05,0.0,0.00037,-0.00044,-2e-05,-0.00018,6
30639,31502,2e-05,0.0,-1e-05,-1e-05,-0.0001,0.0001,8e-05,0.00011999999999999999,6
30640,31503,2e-05,0.0,-1e-05,-1e-05,-0.0001,0.0001,8e-05,0.00011999999999999999,6
30641,31504,2e-05,0.0,-1e-05,-1e-05,-0.0001,0.0001,8e-05,0.00011999999999999999,6
30642,31505,2e-05,0.0,-1e-05,-1e-05,-0.0001,0.0001,8e-05,0.00011999999999999999,6
30643,31506,2e-05,0.0,-1e-05,-1e-05,-0.0001,0.0001,8e-05,0.00011999999999999999,6
30644,31507,2e-05,0.0,-1e-05,-1e-05,-0.0001,0.0001,8e-05,0.00011999999999999999,6
30645,31508,2e-05,0.0,-1e-05,-1e-05,-0.0001,0.0001,8e-05,0.00011999999999999999,6
30646,31509,2e-05,0.0,-1e-05,-1e-05,-0.0001,0.0001,8e-05,0.00011999999999999999,6
30647,31510,2e-05,0.0,-1e-05,-1e-05,-0.0001,0.0001,8e-05,0.00011999999999999999,6
30648,31511,2e-05,0.0,-1e-05,-1e-05,-0.0001,0.0001,8e-05,0.00011999999999999999,6
30649,31512,2e-05,0.0,-1e-05,-1e-05,-0.0001,0.0001,8e-05,0.00011999999999999999,6
30650,31513,2e-05,0.0,-1e-05,-1e-05,-0.0001,0.0001,8e-05,0.00011999999999999999,6
30651,31514,2e-05,0.0,-1e-05,-1e-05,-0.0001,0.0001,8e-05,0.00011999999999999999,6
30652,31515,2e-05,0.0,-1e-05,-1e-05,-0.0001,0.0001,8e-05,0.00011999999999999999,6
30653,31516,2e-05,0.0,-1e-05,-1e-05,-0.0001,0.0001,8e-05,0.00011999999999999999,6
30654,31517,-0.00016,-4e-05,-1e-05,1e-05,-0.00013000000000000002,-4e-05,-5.9999999999999995e-05,-0.00011999999999999999,6
30655,31518,-0.00016,-4e-05,-1e-05,1e-05,-0.00013000000000000002,-4e-05,-5.9999999999999995e-05,-0.00011999999999999999,6
30656,31519,-0.00026000000000000003,-5e-05,-5e-05,-7e-05,-5e-05,0.0,-8e-05,-5e-05,6
30657,31520,-0.00026000000000000003,-5e-05,-5e-05,-7e-05,-5e-05,0.0,-8e-05,-5e-05,6
30658,31521,-0.00026000000000000003,-5e-05,-5e-05,-7e-05,-5e-05,0.0,-8e-05,-5e-05,6
30659,31522,-0.00026000000000000003,-5e-05,-5e-05,-7e-05,-5e-05,0.0,-8e-05,-5e-05,6
30660,31523,-0.00026000000000000003,-5e-05,-5e-05,-7e-05,-5e-05,0.0,-8e-05,-5e-05,6
30661,31524,-0.00026000000000000003,-5e-05,-5e-05,-7e-05,-5e-05,0.0,-8e-05,-5e-05,6
30662,31525,-0.00026000000000000003,-5e-05,-5e-05,-7e-05,-5e-05,0.0,-8e-05,-5e-05,6
30663,31526,-0.00026000000000000003,-5e-05,-5e-05,-7e-05,-5e-05,0.0,-8e-05,-5e-05,6
30664,31527,-0.00026000000000000003,-5e-05,-5e-05,-7e-05,-5e-05,0.0,-8e-05,-5e-05,6
30665,31528,-0.00026000000000000003,-5e-05,-5e-05,-7e-05,-5e-05,0.0,-8e-05,-5e-05,6
30666,31529,-0.00026000000000000003,-5e-05,-5e-05,-7e-05,-5e-05,0.0,-8e-05,-5e-05,6
30667,31530,-0.00026000000000000003,-5e-05,-5e-05,-7e-05,-5e-05,0.0,-8e-05,-5e-05,6
30668,31531,-0.00026000000000000003,-5e-05,-5e-05,-7e-05,-5e-05,0.0,-8e-05,-5e-05,6
30669,31532,-0.00026000000000000003,-5e-05,-5e-05,-7e-05,-5e-05,0.0,-8e-05,-5e-05,6
30670,31533,-0.00026000000000000003,-5e-05,-5e-05,-7e-05,-5e-05,0.0,-8e-05,-5e-05,6
30671,31534,-0.00026000000000000003,-5e-05,-5e-05,-7e-05,-5e-05,0.0,-8e-05,-5e-05,6
30672,31535,-0.00026000000000000003,-5e-05,-5e-05,-7e-05,-5e-05,0.0,-8e-05,-5e-05,6
30673,31536,-0.00026000000000000003,-5e-05,-5e-05,-7e-05,-5e-05,0.0,-8e-05,-5e-05,6
30674,31538,-0.00026000000000000003,-5e-05,-5e-05,-7e-05,-5e-05,0.0,-8e-05,-5e-05,6
30675,31539,-0.00026000000000000003,-5e-05,-5e-05,-7e-05,-5e-05,0.0,-8e-05,-5e-05,6
30676,31540,1e-05,-2e-05,-2e-05,-1e-05,-2e-05,-0.00015,-7e-05,0.0,6
30677,31541,-0.00016999999999999999,-5e-05,-5e-05,-7e-05,-0.00013000000000000002,-0.00016999999999999999,-0.00016,-0.00029,6
30678,31543,-0.00016999999999999999,-5e-05,-5e-05,-7e-05,-0.00013000000000000002,-0.00016999999999999999,-0.00016,-0.00029,6
30679,31544,-0.00016999999999999999,-5e-05,-5e-05,-7e-05,-0.00013000000000000002,-0.00016999999999999999,-0.00016,-0.00029,6
30680,31545,-0.00016999999999999999,-5e-05,-5e-05,-7e-05,-0.00013000000000000002,-0.00016999999999999999,-0.00016,-0.00029,6
30681,31546,-0.00016999999999999999,-5e-05,-5e-05,-7e-05,-0.00013000000000000002,-0.00016999999999999999,-0.00016,-0.00029,6
30682,31547,-0.00016999999999999999,-5e-05,-5e-05,-7e-05,-0.00013000000000000002,-0.00016999999999999999,-0.00016,-0.00029,6
30683,31548,-0.00016999999999999999,-5e-05,-5e-05,-7e-05,-0.00013000000000000002,-0.00016999999999999999,-0.00016,-0.00029,6
30684,31549,-0.00016999999999999999,-5e-05,-5e-05,-7e-05,-0.00013000000000000002,-0.00016999999999999999,-0.00016,-0.00029,6
30685,31550,-0.00016999999999999999,-5e-05,-5e-05,-7e-05,-0.00013000000000000002,-0.00016999999999999999,-0.00016,-0.00029,6
30686,31551,-0.00016999999999999999,-5e-05,-5e-05,-7e-05,-0.00013000000000000002,-0.00016999999999999999,-0.00016,-0.00029,6
30687,31552,-0.00016999999999999999,-5e-05,-5e-05,-7e-05,-0.00013000000000000002,-0.00016999999999999999,-0.00016,-0.00029,6
30688,31553,-0.00016999999999999999,-5e-05,-5e-05,-7e-05,-0.00013000000000000002,-0.00016999999999999999,-0.00016,-0.00029,6
30689,31554,0.0,-2e-05,-2.9999999999999997e-05,-5e-05,-0.00022999999999999998,0.0003,0.00016,0.00014,6
30690,31555,0.0,-2e-05,-2.9999999999999997e-05,-5e-05,-0.00022999999999999998,0.0003,0.00016,0.00014,6
30691,31556,0.0,-2e-05,-2.9999999999999997e-05,-5e-05,-0.00022999999999999998,0.0003,0.00016,0.00014,6
30692,31557,0.0,-2e-05,-2.9999999999999997e-05,-5e-05,-0.00022999999999999998,0.0003,0.00016,0.00014,6
30693,31558,0.0,-2e-05,-2.9999999999999997e-05,-5e-05,-0.00022999999999999998,0.0003,0.00016,0.00014,6
30694,31559,0.0,-2e-05,-2.9999999999999997e-05,-5e-05,-0.00022999999999999998,0.0003,0.00016,0.00014,6
30695,31560,0.0,-2e-05,-2.9999999999999997e-05,-5e-05,-0.00022999999999999998,0.0003,0.00016,0.00014,6
30696,31561,8e-05,0.0,-1e-05,-1e-05,-0.0001,1e-05,4e-05,7e-05,6
30697,31562,8e-05,0.0,-1e-05,-1e-05,-0.0001,1e-05,4e-05,7e-05,6
30698,31563,8e-05,0.0,-1e-05,-1e-05,-0.0001,1e-05,4e-05,7e-05,6
30699,31564,8e-05,0.0,-1e-05,-1e-05,-0.0001,1e-05,4e-05,7e-05,6
30700,31565,8e-05,0.0,-1e-05,-1e-05,-0.0001,1e-05,4e-05,7e-05,6
30701,31566,8e-05,0.0,-1e-05,-1e-05,-0.0001,1e-05,4e-05,7e-05,6
30702,31567,8e-05,0.0,-1e-05,-1e-05,-0.0001,1e-05,4e-05,7e-05,6
30703,31568,8e-05,0.0,-1e-05,-1e-05,-0.0001,1e-05,4e-05,7e-05,6
30704,31569,8e-05,0.0,-1e-05,-1e-05,-0.0001,1e-05,4e-05,7e-05,6
30705,31570,8e-05,0.0,-1e-05,-1e-05,-0.0001,1e-05,4e-05,7e-05,6
30706,31571,8e-05,0.0,-1e-05,-1e-05,-0.0001,1e-05,4e-05,7e-05,6
30707,31572,8e-05,0.0,-1e-05,-1e-05,-0.0001,1e-05,4e-05,7e-05,6
30708,31573,8e-05,0.0,-1e-05,-1e-05,-0.0001,1e-05,4e-05,7e-05,6
30709,31574,8e-05,0.0,-1e-05,-1e-05,-0.0001,1e-05,4e-05,7e-05,6
30710,31575,8e-05,0.0,-1e-05,-1e-05,-0.0001,1e-05,4e-05,7e-05,6
30711,31576,8e-05,0.0,-1e-05,-1e-05,-0.0001,1e-05,4e-05,7e-05,6
30712,31577,5e-05,-2e-05,-2.9999999999999997e-05,-4e-05,5.9999999999999995e-05,0.00015,-2e-05,-4e-05,6
30713,31578,5e-05,-2e-05,-2.9999999999999997e-05,-4e-05,5.9999999999999995e-05,0.00015,-2e-05,-4e-05,6
30714,31579,7e-05,-1e-05,1e-05,0.00011,0.00039,0.00043,0.0001,5.9999999999999995e-05,6
30715,31580,7e-05,-1e-05,1e-05,0.00011,0.00039,0.00043,0.0001,5.9999999999999995e-05,6
30716,31581,7e-05,-1e-05,1e-05,0.00011,0.00039,0.00043,0.0001,5.9999999999999995e-05,6
30717,31582,7e-05,-1e-05,1e-05,0.00011,0.00039,0.00043,0.0001,5.9999999999999995e-05,6
30718,31583,7e-05,-1e-05,1e-05,0.00011,0.00039,0.00043,0.0001,5.9999999999999995e-05,6
30719,31584,7e-05,-1e-05,1e-05,0.00011,0.00039,0.00043,0.0001,5.9999999999999995e-05,6
30720,31585,7e-05,-1e-05,1e-05,0.00011,0.00039,0.00043,0.0001,5.9999999999999995e-05,6
30721,31586,7e-05,-1e-05,1e-05,0.00011,0.00039,0.00043,0.0001,5.9999999999999995e-05,6
30722,31588,7e-05,-1e-05,1e-05,0.00011,0.00039,0.00043,0.0001,5.9999999999999995e-05,6
30723,31589,7e-05,-1e-05,1e-05,0.00011,0.00039,0.00043,0.0001,5.9999999999999995e-05,6
30724,31590,7e-05,-1e-05,1e-05,0.00011,0.00039,0.00043,0.0001,5.9999999999999995e-05,6
30725,31591,7e-05,-1e-05,1e-05,0.00011,0.00039,0.00043,0.0001,5.9999999999999995e-05,6
30726,31592,7e-05,-1e-05,1e-05,0.00011,0.00039,0.00043,0.0001,5.9999999999999995e-05,6
30727,31593,7e-05,-1e-05,1e-05,0.00011,0.00039,0.00043,0.0001,5.9999999999999995e-05,6
30728,31594,7e-05,-1e-05,1e-05,0.00011,0.00039,0.00043,0.0001,5.9999999999999995e-05,6
30729,31595,7e-05,-1e-05,1e-05,0.00011,0.00039,0.00043,0.0001,5.9999999999999995e-05,6
30730,31596,7e-05,-1e-05,1e-05,0.00011,0.00039,0.00043,0.0001,5.9999999999999995e-05,6
30731,31597,7e-05,-1e-05,1e-05,0.00011,0.00039,0.00043,0.0001,5.9999999999999995e-05,6
30732,31598,7e-05,-1e-05,1e-05,0.00011,0.00039,0.00043,0.0001,5.9999999999999995e-05,6
30733,31599,7e-05,-1e-05,1e-05,0.00011,0.00039,0.00043,0.0001,5.9999999999999995e-05,6
30734,31600,-0.0001,-2.9999999999999997e-05,2.9999999999999997e-05,4e-05,0.00023999999999999998,8e-05,-5e-05,-0.00023999999999999998,6
30735,31601,-0.0001,-2.9999999999999997e-05,2.9999999999999997e-05,4e-05,0.00023999999999999998,8e-05,-5e-05,-0.00023999999999999998,6
30736,31602,0.00041,-1e-05,-2e-05,2e-05,0.00011999999999999999,-0.00047000000000000004,-8e-05,0.00044,6
30737,31603,0.00041,-1e-05,-2e-05,2e-05,0.00011999999999999999,-0.00047000000000000004,-8e-05,0.00044,6
30738,31604,0.00041,-1e-05,-2e-05,2e-05,0.00011999999999999999,-0.00047000000000000004,-8e-05,0.00044,6
30739,31605,0.00041,-1e-05,-2e-05,2e-05,0.00011999999999999999,-0.00047000000000000004,-8e-05,0.00044,6
30740,31606,0.00041,-1e-05,-2e-05,2e-05,0.00011999999999999999,-0.00047000000000000004,-8e-05,0.00044,6
30741,31607,0.00041,-1e-05,-2e-05,2e-05,0.00011999999999999999,-0.00047000000000000004,-8e-05,0.00044,6
30742,31608,0.00041,-1e-05,-2e-05,2e-05,0.00011999999999999999,-0.00047000000000000004,-8e-05,0.00044,6
30743,31609,0.00041,-1e-05,-2e-05,2e-05,0.00011999999999999999,-0.00047000000000000004,-8e-05,0.00044,6
30744,31610,0.00041,-1e-05,-2e-05,2e-05,0.00011999999999999999,-0.00047000000000000004,-8e-05,0.00044,6
30745,31611,0.00041,-1e-05,-2e-05,2e-05,0.00011999999999999999,-0.00047000000000000004,-8e-05,0.00044,6
30746,31612,0.00041,-1e-05,-2e-05,2e-05,0.00011999999999999999,-0.00047000000000000004,-8e-05,0.00044,6
30747,31613,4e-05,2e-05,2e-05,4e-05,0.00016999999999999999,0.00016999999999999999,9e-05,0.00014,6
30748,31614,4e-05,2e-05,2e-05,4e-05,0.00016999999999999999,0.00016999999999999999,9e-05,0.00014,6
30749,31615,4e-05,2e-05,2e-05,4e-05,0.00016999999999999999,0.00016999999999999999,9e-05,0.00014,6
30750,31616,4e-05,2e-05,2e-05,4e-05,0.00016999999999999999,0.00016999999999999999,9e-05,0.00014,6
30751,31617,4e-05,2e-05,2e-05,4e-05,0.00016999999999999999,0.00016999999999999999,9e-05,0.00014,6
30752,31618,4e-05,2e-05,2e-05,4e-05,0.00016999999999999999,0.00016999999999999999,9e-05,0.00014,6
30753,31619,4e-05,2e-05,2e-05,4e-05,0.00016999999999999999,0.00016999999999999999,9e-05,0.00014,6
30754,31620,4e-05,2e-05,2e-05,4e-05,0.00016999999999999999,0.00016999999999999999,9e-05,0.00014,6
30755,31621,4e-05,2e-05,2e-05,4e-05,0.00016999999999999999,0.00016999999999999999,9e-05,0.00014,6
30756,31622,-8e-05,-1e-05,-2.9999999999999997e-05,-4e-05,-9e-05,-5.9999999999999995e-05,8e-05,-9e-05,6
30757,31623,-8e-05,-1e-05,-2.9999999999999997e-05,-4e-05,-9e-05,-5.9999999999999995e-05,8e-05,-9e-05,6
30758,31624,-8e-05,-1e-05,-2.9999999999999997e-05,-4e-05,-9e-05,-5.9999999999999995e-05,8e-05,-9e-05,6
30759,31625,-8e-05,-1e-05,-2.9999999999999997e-05,-4e-05,-9e-05,-5.9999999999999995e-05,8e-05,-9e-05,6
30760,31626,-8e-05,-1e-05,-2.9999999999999997e-05,-4e-05,-9e-05,-5.9999999999999995e-05,8e-05,-9e-05,6
30761,31627,-8e-05,-1e-05,-2.9999999999999997e-05,-4e-05,-9e-05,-5.9999999999999995e-05,8e-05,-9e-05,6
30762,31628,-8e-05,-1e-05,-2.9999999999999997e-05,-4e-05,-9e-05,-5.9999999999999995e-05,8e-05,-9e-05,6
30763,31629,-8e-05,-1e-05,-2.9999999999999997e-05,-4e-05,-9e-05,-5.9999999999999995e-05,8e-05,-9e-05,6
30764,31630,-8e-05,-1e-05,-2.9999999999999997e-05,-4e-05,-9e-05,-5.9999999999999995e-05,8e-05,-9e-05,6
30765,31631,-8e-05,-1e-05,-2.9999999999999997e-05,-4e-05,-9e-05,-5.9999999999999995e-05,8e-05,-9e-05,6
30766,31632,-8e-05,-1e-05,-2.9999999999999997e-05,-4e-05,-9e-05,-5.9999999999999995e-05,8e-05,-9e-05,6
30767,31633,-8e-05,-1e-05,-2.9999999999999997e-05,-4e-05,-9e-05,-5.9999999999999995e-05,8e-05,-9e-05,6
30768,31634,-8e-05,-1e-05,-2.9999999999999997e-05,-4e-05,-9e-05,-5.9999999999999995e-05,8e-05,-9e-05,6
30769,31635,-8e-05,-1e-05,-2.9999999999999997e-05,-4e-05,-9e-05,-5.9999999999999995e-05,8e-05,-9e-05,6
30770,31636,-8e-05,-1e-05,-2.9999999999999997e-05,-4e-05,-9e-05,-5.9999999999999995e-05,8e-05,-9e-05,6
30771,31638,-0.00014,-1e-05,-2e-05,-5e-05,-0.00022,-0.00035,-0.00015,-8e-05,6
30772,31639,-0.00014,-1e-05,-2e-05,-5e-05,-0.00022,-0.00035,-0.00015,-8e-05,6
30773,31640,-0.00014,-1e-05,-2e-05,-5e-05,-0.00022,-0.00035,-0.00015,-8e-05,6
30774,31641,-0.00014,-1e-05,-2e-05,-5e-05,-0.00022,-0.00035,-0.00015,-8e-05,6
30775,31642,-0.00014,-1e-05,-2e-05,-5e-05,-0.00022,-0.00035,-0.00015,-8e-05,6
30776,31643,-8e-05,2.9999999999999997e-05,5.9999999999999995e-05,7e-05,0.00013000000000000002,5.9999999999999995e-05,-4e-05,-8e-05,6
30777,31644,-8e-05,2.9999999999999997e-05,5.9999999999999995e-05,7e-05,0.00013000000000000002,5.9999999999999995e-05,-4e-05,-8e-05,6
30778,31645,-8e-05,2.9999999999999997e-05,5.9999999999999995e-05,7e-05,0.00013000000000000002,5.9999999999999995e-05,-4e-05,-8e-05,6
30779,31646,-8e-05,2.9999999999999997e-05,5.9999999999999995e-05,7e-05,0.00013000000000000002,5.9999999999999995e-05,-4e-05,-8e-05,6
30780,31647,-8e-05,2.9999999999999997e-05,5.9999999999999995e-05,7e-05,0.00013000000000000002,5.9999999999999995e-05,-4e-05,-8e-05,6
30781,31648,-8e-05,2.9999999999999997e-05,5.9999999999999995e-05,7e-05,0.00013000000000000002,5.9999999999999995e-05,-4e-05,-8e-05,6
30782,31649,-8e-05,2.9999999999999997e-05,5.9999999999999995e-05,7e-05,0.00013000000000000002,5.9999999999999995e-05,-4e-05,-8e-05,6
30783,31650,-8e-05,2.9999999999999997e-05,5.9999999999999995e-05,7e-05,0.00013000000000000002,5.9999999999999995e-05,-4e-05,-8e-05,6
30784,31651,-8e-05,2.9999999999999997e-05,5.9999999999999995e-05,7e-05,0.00013000000000000002,5.9999999999999995e-05,-4e-05,-8e-05,6
30785,31652,-8e-05,2.9999999999999997e-05,5.9999999999999995e-05,7e-05,0.00013000000000000002,5.9999999999999995e-05,-4e-05,-8e-05,6
30786,31653,-8e-05,2.9999999999999997e-05,5.9999999999999995e-05,7e-05,0.00013000000000000002,5.9999999999999995e-05,-4e-05,-8e-05,6
30787,31654,-8e-05,2.9999999999999997e-05,5.9999999999999995e-05,7e-05,0.00013000000000000002,5.9999999999999995e-05,-4e-05,-8e-05,6
30788,31655,-8e-05,2.9999999999999997e-05,5.9999999999999995e-05,7e-05,0.00013000000000000002,5.9999999999999995e-05,-4e-05,-8e-05,6
30789,31656,-8e-05,2.9999999999999997e-05,5.9999999999999995e-05,7e-05,0.00013000000000000002,5.9999999999999995e-05,-4e-05,-8e-05,6
30790,31657,-8e-05,2.9999999999999997e-05,5.9999999999999995e-05,7e-05,0.00013000000000000002,5.9999999999999995e-05,-4e-05,-8e-05,6
30791,31658,-8e-05,2.9999999999999997e-05,5.9999999999999995e-05,7e-05,0.00013000000000000002,5.9999999999999995e-05,-4e-05,-8e-05,6
30792,31659,-8e-05,2.9999999999999997e-05,5.9999999999999995e-05,7e-05,0.00013000000000000002,5.9999999999999995e-05,-4e-05,-8e-05,6
30793,31660,-7e-05,0.0,0.0,-5.9999999999999995e-05,5e-05,0.00065,2.9999999999999997e-05,-5e-05,6
30794,31661,-7e-05,0.0,-2e-05,-4e-05,-0.00015,-5e-05,-2.9999999999999997e-05,-0.00016999999999999999,6
30795,31663,-7e-05,0.0,-2e-05,-4e-05,-0.00015,-5e-05,-2.9999999999999997e-05,-0.00016999999999999999,6
30796,31664,-7e-05,0.0,-2e-05,-4e-05,-0.00015,-5e-05,-2.9999999999999997e-05,-0.00016999999999999999,6
30797,31665,-7e-05,0.0,-2e-05,-4e-05,-0.00015,-5e-05,-2.9999999999999997e-05,-0.00016999999999999999,6
30798,31666,-7e-05,0.0,-2e-05,-4e-05,-0.00015,-5e-05,-2.9999999999999997e-05,-0.00016999999999999999,6
30799,31667,-7e-05,0.0,-2e-05,-4e-05,-0.00015,-5e-05,-2.9999999999999997e-05,-0.00016999999999999999,6
30800,31668,-7e-05,0.0,-2e-05,-4e-05,-0.00015,-5e-05,-2.9999999999999997e-05,-0.00016999999999999999,6
30801,31669,-7e-05,0.0,-2e-05,-4e-05,-0.00015,-5e-05,-2.9999999999999997e-05,-0.00016999999999999999,6
30802,31670,-7e-05,0.0,-2e-05,-4e-05,-0.00015,-5e-05,-2.9999999999999997e-05,-0.00016999999999999999,6
30803,31671,-7e-05,0.0,-2e-05,-4e-05,-0.00015,-5e-05,-2.9999999999999997e-05,-0.00016999999999999999,6
30804,31672,-7e-05,0.0,-2e-05,-4e-05,-0.00015,-5e-05,-2.9999999999999997e-05,-0.00016999999999999999,6
30805,31673,-7e-05,0.0,-2e-05,-4e-05,-0.00015,-5e-05,-2.9999999999999997e-05,-0.00016999999999999999,6
30806,31674,-2.9999999999999997e-05,-2e-05,-2.9999999999999997e-05,-1e-05,0.00031,5.9999999999999995e-05,-2.9999999999999997e-05,-0.00013000000000000002,6
30807,31675,-2.9999999999999997e-05,-2e-05,-2.9999999999999997e-05,-1e-05,0.00031,5.9999999999999995e-05,-2.9999999999999997e-05,-0.00013000000000000002,6
30808,31676,-2.9999999999999997e-05,-2e-05,-2.9999999999999997e-05,-1e-05,0.00031,5.9999999999999995e-05,-2.9999999999999997e-05,-0.00013000000000000002,6
30809,31677,-2.9999999999999997e-05,-2e-05,-2.9999999999999997e-05,-1e-05,0.00031,5.9999999999999995e-05,-2.9999999999999997e-05,-0.00013000000000000002,6
30810,31678,-2.9999999999999997e-05,-2e-05,-2.9999999999999997e-05,-1e-05,0.00031,5.9999999999999995e-05,-2.9999999999999997e-05,-0.00013000000000000002,6
30811,31679,-2.9999999999999997e-05,-2e-05,-2.9999999999999997e-05,-1e-05,0.00031,5.9999999999999995e-05,-2.9999999999999997e-05,-0.00013000000000000002,6
30812,31680,-2.9999999999999997e-05,-2e-05,-2.9999999999999997e-05,-1e-05,0.00031,5.9999999999999995e-05,-2.9999999999999997e-05,-0.00013000000000000002,6
30813,31681,-2.9999999999999997e-05,-2e-05,-2.9999999999999997e-05,-1e-05,0.00031,5.9999999999999995e-05,-2.9999999999999997e-05,-0.00013000000000000002,6
30814,31682,4e-05,0.0,0.0,2.9999999999999997e-05,-9e-05,0.00018999999999999998,9e-05,7e-05,6
30815,31683,4e-05,0.0,0.0,2.9999999999999997e-05,-9e-05,0.00018999999999999998,9e-05,7e-05,6
30816,31684,4e-05,0.0,0.0,2.9999999999999997e-05,-9e-05,0.00018999999999999998,9e-05,7e-05,6
30817,31685,4e-05,0.0,0.0,2.9999999999999997e-05,-9e-05,0.00018999999999999998,9e-05,7e-05,6
30818,31686,4e-05,0.0,0.0,2.9999999999999997e-05,-9e-05,0.00018999999999999998,9e-05,7e-05,6
30819,31688,4e-05,0.0,0.0,2.9999999999999997e-05,-9e-05,0.00018999999999999998,9e-05,7e-05,6
30820,31689,4e-05,0.0,0.0,2.9999999999999997e-05,-9e-05,0.00018999999999999998,9e-05,7e-05,6
30821,31690,4e-05,0.0,0.0,2.9999999999999997e-05,-9e-05,0.00018999999999999998,9e-05,7e-05,6
30822,31691,4e-05,0.0,0.0,2.9999999999999997e-05,-9e-05,0.00018999999999999998,9e-05,7e-05,6
30823,31692,4e-05,0.0,0.0,2.9999999999999997e-05,-9e-05,0.00018999999999999998,9e-05,7e-05,6
30824,31693,4e-05,0.0,0.0,2.9999999999999997e-05,-9e-05,0.00018999999999999998,9e-05,7e-05,6
30825,31694,4e-05,0.0,0.0,2.9999999999999997e-05,-9e-05,0.00018999999999999998,9e-05,7e-05,6
30826,31695,4e-05,0.0,0.0,2.9999999999999997e-05,-9e-05,0.00018999999999999998,9e-05,7e-05,6
30827,31696,4e-05,0.0,0.0,2.9999999999999997e-05,-9e-05,0.00018999999999999998,9e-05,7e-05,6
30828,31697,-1e-05,-8e-05,-8e-05,-8e-05,-0.00025,-0.00016,-8e-05,0.0,6
30829,31698,-1e-05,-8e-05,-8e-05,-8e-05,-0.00025,-0.00016,-8e-05,0.0,6
30830,31699,-0.00016999999999999999,-2.9999999999999997e-05,0.0,-2e-05,4e-05,0.0001,-2.9999999999999997e-05,-0.00025,6
30831,31700,-0.00016999999999999999,-2.9999999999999997e-05,0.0,-2e-05,4e-05,0.0001,-2.9999999999999997e-05,-0.00025,6
30832,31701,-0.00016999999999999999,-2.9999999999999997e-05,0.0,-2e-05,4e-05,0.0001,-2.9999999999999997e-05,-0.00025,6
30833,31702,-0.00016999999999999999,-2.9999999999999997e-05,0.0,-2e-05,4e-05,0.0001,-2.9999999999999997e-05,-0.00025,6
30834,31703,-0.00016999999999999999,-2.9999999999999997e-05,0.0,-2e-05,4e-05,0.0001,-2.9999999999999997e-05,-0.00025,6
30835,31704,-0.00016999999999999999,-2.9999999999999997e-05,0.0,-2e-05,4e-05,0.0001,-2.9999999999999997e-05,-0.00025,6
30836,31705,-0.00016999999999999999,-2.9999999999999997e-05,0.0,-2e-05,4e-05,0.0001,-2.9999999999999997e-05,-0.00025,6
30837,31706,-0.00016999999999999999,-2.9999999999999997e-05,0.0,-2e-05,4e-05,0.0001,-2.9999999999999997e-05,-0.00025,6
30838,31707,-0.00016999999999999999,-2.9999999999999997e-05,0.0,-2e-05,4e-05,0.0001,-2.9999999999999997e-05,-0.00025,6
30839,31708,-0.00016999999999999999,-2.9999999999999997e-05,0.0,-2e-05,4e-05,0.0001,-2.9999999999999997e-05,-0.00025,6
30840,31709,-0.00016999999999999999,-2.9999999999999997e-05,0.0,-2e-05,4e-05,0.0001,-2.9999999999999997e-05,-0.00025,6
30841,31710,-0.00016999999999999999,-2.9999999999999997e-05,0.0,-2e-05,4e-05,0.0001,-2.9999999999999997e-05,-0.00025,6
30842,31711,-0.00016999999999999999,-2.9999999999999997e-05,0.0,-2e-05,4e-05,0.0001,-2.9999999999999997e-05,-0.00025,6
30843,31712,-0.00016999999999999999,-2.9999999999999997e-05,0.0,-2e-05,4e-05,0.0001,-2.9999999999999997e-05,-0.00025,6
30844,31713,-0.00016999999999999999,-2.9999999999999997e-05,0.0,-2e-05,4e-05,0.0001,-2.9999999999999997e-05,-0.00025,6
30845,31714,-0.00016999999999999999,-2.9999999999999997e-05,0.0,-2e-05,4e-05,0.0001,-2.9999999999999997e-05,-0.00025,6
30846,31715,-0.00016999999999999999,-2.9999999999999997e-05,0.0,-2e-05,4e-05,0.0001,-2.9999999999999997e-05,-0.00025,6
30847,31716,-0.00016999999999999999,-2.9999999999999997e-05,0.0,-2e-05,4e-05,0.0001,-2.9999999999999997e-05,-0.00025,6
30848,31717,-0.00016999999999999999,-2.9999999999999997e-05,0.0,-2e-05,4e-05,0.0001,-2.9999999999999997e-05,-0.00025,6
30849,31718,-0.00016999999999999999,-2.9999999999999997e-05,0.0,-2e-05,4e-05,0.0001,-2.9999999999999997e-05,-0.00025,6
30850,31719,-0.00016999999999999999,-2.9999999999999997e-05,0.0,-2e-05,4e-05,0.0001,-2.9999999999999997e-05,-0.00025,6
30851,31720,2e-05,1e-05,1e-05,-2.9999999999999997e-05,-8e-05,-0.00042,0.0,-5e-05,6
30852,31721,4e-05,-4e-05,-2.9999999999999997e-05,-5e-05,9e-05,0.0009400000000000001,0.00022,0.00026000000000000003,6
30853,31723,4e-05,-4e-05,-2.9999999999999997e-05,-5e-05,9e-05,0.0009400000000000001,0.00022,0.00026000000000000003,6
30854,31724,4e-05,-4e-05,-2.9999999999999997e-05,-5e-05,9e-05,0.0009400000000000001,0.00022,0.00026000000000000003,6
30855,31725,4e-05,-4e-05,-2.9999999999999997e-05,-5e-05,9e-05,0.0009400000000000001,0.00022,0.00026000000000000003,6
30856,31726,4e-05,-4e-05,-2.9999999999999997e-05,-5e-05,9e-05,0.0009400000000000001,0.00022,0.00026000000000000003,6
30857,31727,4e-05,-4e-05,-2.9999999999999997e-05,-5e-05,9e-05,0.0009400000000000001,0.00022,0.00026000000000000003,6
30858,31728,4e-05,-4e-05,-2.9999999999999997e-05,-5e-05,9e-05,0.0009400000000000001,0.00022,0.00026000000000000003,6
30859,31729,4e-05,-4e-05,-2.9999999999999997e-05,-5e-05,9e-05,0.0009400000000000001,0.00022,0.00026000000000000003,6
30860,31730,4e-05,-4e-05,-2.9999999999999997e-05,-5e-05,9e-05,0.0009400000000000001,0.00022,0.00026000000000000003,6
30861,31731,4e-05,-4e-05,-2.9999999999999997e-05,-5e-05,9e-05,0.0009400000000000001,0.00022,0.00026000000000000003,6
30862,31732,4e-05,-4e-05,-2.9999999999999997e-05,-5e-05,9e-05,0.0009400000000000001,0.00022,0.00026000000000000003,6
30863,31733,-0.00016999999999999999,4e-05,2e-05,1e-05,-0.00016999999999999999,-5e-05,-1e-05,-0.0001,6
30864,31734,-0.00016999999999999999,4e-05,2e-05,1e-05,-0.00016999999999999999,-5e-05,-1e-05,-0.0001,6
30865,31735,-0.00016999999999999999,4e-05,2e-05,1e-05,-0.00016999999999999999,-5e-05,-1e-05,-0.0001,6
30866,31736,-0.00016999999999999999,4e-05,2e-05,1e-05,-0.00016999999999999999,-5e-05,-1e-05,-0.0001,6
30867,31738,-0.00016999999999999999,4e-05,2e-05,1e-05,-0.00016999999999999999,-5e-05,-1e-05,-0.0001,6
30868,31739,-0.00016999999999999999,4e-05,2e-05,1e-05,-0.00016999999999999999,-5e-05,-1e-05,-0.0001,6
30869,31740,-0.00016999999999999999,4e-05,2e-05,1e-05,-0.00016999999999999999,-5e-05,-1e-05,-0.0001,6
30870,31741,-0.00016999999999999999,4e-05,2e-05,1e-05,-0.00016999999999999999,-5e-05,-1e-05,-0.0001,6
30871,31742,-0.00011,-2e-05,-4e-05,-9e-05,-0.00016,-0.00015,-0.00014,-0.00013000000000000002,6
30872,31743,-0.00011,-2e-05,-4e-05,-9e-05,-0.00016,-0.00015,-0.00014,-0.00013000000000000002,6
30873,31744,-0.00011,-2e-05,-4e-05,-9e-05,-0.00016,-0.00015,-0.00014,-0.00013000000000000002,6
30874,31745,-0.00011,-2e-05,-4e-05,-9e-05,-0.00016,-0.00015,-0.00014,-0.00013000000000000002,6
30875,31746,-0.00011,-2e-05,-4e-05,-9e-05,-0.00016,-0.00015,-0.00014,-0.00013000000000000002,6
30876,31747,-0.00011,-2e-05,-4e-05,-9e-05,-0.00016,-0.00015,-0.00014,-0.00013000000000000002,6
30877,31748,-0.00011,-2e-05,-4e-05,-9e-05,-0.00016,-0.00015,-0.00014,-0.00013000000000000002,6
30878,31749,-0.00011,-2e-05,-4e-05,-9e-05,-0.00016,-0.00015,-0.00014,-0.00013000000000000002,6
30879,31750,-0.00011,-2e-05,-4e-05,-9e-05,-0.00016,-0.00015,-0.00014,-0.00013000000000000002,6
30880,31751,-0.00011,-2e-05,-4e-05,-9e-05,-0.00016,-0.00015,-0.00014,-0.00013000000000000002,6
30881,31752,-0.00011,-2e-05,-4e-05,-9e-05,-0.00016,-0.00015,-0.00014,-0.00013000000000000002,6
30882,31753,-0.00011,-2e-05,-4e-05,-9e-05,-0.00016,-0.00015,-0.00014,-0.00013000000000000002,6
30883,31754,-0.00011,-2e-05,-4e-05,-9e-05,-0.00016,-0.00015,-0.00014,-0.00013000000000000002,6
30884,31755,-0.00011,-2e-05,-4e-05,-9e-05,-0.00016,-0.00015,-0.00014,-0.00013000000000000002,6
30885,31756,-0.00011,-2e-05,-4e-05,-9e-05,-0.00016,-0.00015,-0.00014,-0.00013000000000000002,6
30886,31757,-5.9999999999999995e-05,-2e-05,0.0,-1e-05,8e-05,-0.00025,-8e-05,-7e-05,6
30887,31758,-5.9999999999999995e-05,-2e-05,0.0,-1e-05,8e-05,-0.00025,-8e-05,-7e-05,6
30888,31759,5e-05,1e-05,2.9999999999999997e-05,4e-05,0.0,-0.00027,-8e-05,0.00011999999999999999,6
30889,31760,5e-05,1e-05,2.9999999999999997e-05,4e-05,0.0,-0.00027,-8e-05,0.00011999999999999999,6
30890,31761,5e-05,1e-05,2.9999999999999997e-05,4e-05,0.0,-0.00027,-8e-05,0.00011999999999999999,6
30891,31762,5e-05,1e-05,2.9999999999999997e-05,4e-05,0.0,-0.00027,-8e-05,0.00011999999999999999,6
30892,31763,5e-05,1e-05,2.9999999999999997e-05,4e-05,0.0,-0.00027,-8e-05,0.00011999999999999999,6
30893,31764,5e-05,1e-05,2.9999999999999997e-05,4e-05,0.0,-0.00027,-8e-05,0.00011999999999999999,6
30894,31765,5e-05,1e-05,2.9999999999999997e-05,4e-05,0.0,-0.00027,-8e-05,0.00011999999999999999,6
30895,31766,5e-05,1e-05,2.9999999999999997e-05,4e-05,0.0,-0.00027,-8e-05,0.00011999999999999999,6
30896,31767,5e-05,1e-05,2.9999999999999997e-05,4e-05,0.0,-0.00027,-8e-05,0.00011999999999999999,6
30897,31768,5e-05,1e-05,2.9999999999999997e-05,4e-05,0.0,-0.00027,-8e-05,0.00011999999999999999,6
30898,31769,5e-05,1e-05,2.9999999999999997e-05,4e-05,0.0,-0.00027,-8e-05,0.00011999999999999999,6
30899,31770,5e-05,1e-05,2.9999999999999997e-05,4e-05,0.0,-0.00027,-8e-05,0.00011999999999999999,6
30900,31771,5e-05,1e-05,2.9999999999999997e-05,4e-05,0.0,-0.00027,-8e-05,0.00011999999999999999,6
30901,31772,5e-05,1e-05,2.9999999999999997e-05,4e-05,0.0,-0.00027,-8e-05,0.00011999999999999999,6
30902,31773,5e-05,1e-05,2.9999999999999997e-05,4e-05,0.0,-0.00027,-8e-05,0.00011999999999999999,6
30903,31774,5e-05,1e-05,2.9999999999999997e-05,4e-05,0.0,-0.00027,-8e-05,0.00011999999999999999,6
30904,31775,5e-05,1e-05,2.9999999999999997e-05,4e-05,0.0,-0.00027,-8e-05,0.00011999999999999999,6
30905,31776,5e-05,1e-05,2.9999999999999997e-05,4e-05,0.0,-0.00027,-8e-05,0.00011999999999999999,6
30906,31777,5e-05,1e-05,2.9999999999999997e-05,4e-05,0.0,-0.00027,-8e-05,0.00011999999999999999,6
30907,31778,5e-05,1e-05,2.9999999999999997e-05,4e-05,0.0,-0.00027,-8e-05,0.00011999999999999999,6
30908,31779,5e-05,1e-05,2.9999999999999997e-05,4e-05,0.0,-0.00027,-8e-05,0.00011999999999999999,6
30909,31780,0.00021,1e-05,0.0,-7e-05,-0.00011,0.00033999999999999997,-0.00011999999999999999,7e-05,6
30910,31781,4e-05,-1e-05,-1e-05,-5e-05,-0.00018,-7e-05,-4e-05,2e-05,6
30911,31782,4e-05,-1e-05,-1e-05,-5e-05,-0.00018,-7e-05,-4e-05,2e-05,6
30912,31783,4e-05,-1e-05,-1e-05,-5e-05,-0.00018,-7e-05,-4e-05,2e-05,6
30913,31784,4e-05,-1e-05,-1e-05,-5e-05,-0.00018,-7e-05,-4e-05,2e-05,6
30914,31785,4e-05,-1e-05,-1e-05,-5e-05,-0.00018,-7e-05,-4e-05,2e-05,6
30915,31786,4e-05,-1e-05,-1e-05,-5e-05,-0.00018,-7e-05,-4e-05,2e-05,6
30916,31788,4e-05,-1e-05,-1e-05,-5e-05,-0.00018,-7e-05,-4e-05,2e-05,6
30917,31789,4e-05,-1e-05,-1e-05,-5e-05,-0.00018,-7e-05,-4e-05,2e-05,6
30918,31790,4e-05,-1e-05,-1e-05,-5e-05,-0.00018,-7e-05,-4e-05,2e-05,6
30919,31791,4e-05,-1e-05,-1e-05,-5e-05,-0.00018,-7e-05,-4e-05,2e-05,6
30920,31792,4e-05,-1e-05,-1e-05,-5e-05,-0.00018,-7e-05,-4e-05,2e-05,6
30921,31793,-2e-05,-1e-05,-2.9999999999999997e-05,-7e-05,-0.00011999999999999999,-0.00025,-5.9999999999999995e-05,-0.0001,6
30922,31795,-2e-05,-1e-05,-2.9999999999999997e-05,-7e-05,-0.00011999999999999999,-0.00025,-5.9999999999999995e-05,-0.0001,6
30923,31796,-2e-05,-1e-05,-2.9999999999999997e-05,-7e-05,-0.00011999999999999999,-0.00025,-5.9999999999999995e-05,-0.0001,6
30924,31797,-2e-05,-1e-05,-2.9999999999999997e-05,-7e-05,-0.00011999999999999999,-0.00025,-5.9999999999999995e-05,-0.0001,6
30925,31798,-2e-05,-1e-05,-2.9999999999999997e-05,-7e-05,-0.00011999999999999999,-0.00025,-5.9999999999999995e-05,-0.0001,6
30926,31799,-2e-05,-1e-05,-2.9999999999999997e-05,-7e-05,-0.00011999999999999999,-0.00025,-5.9999999999999995e-05,-0.0001,6
30927,31800,-2e-05,-1e-05,-2.9999999999999997e-05,-7e-05,-0.00011999999999999999,-0.00025,-5.9999999999999995e-05,-0.0001,6
30928,31801,-2e-05,-1e-05,-2.9999999999999997e-05,-7e-05,-0.00011999999999999999,-0.00025,-5.9999999999999995e-05,-0.0001,6
30929,31802,0.00016,4e-05,1e-05,0.0,-2e-05,0.00028,0.00011999999999999999,0.00035,6
30930,31803,-8e-05,-4e-05,-2.9999999999999997e-05,-2.9999999999999997e-05,-2e-05,-0.00018,-0.0001,-0.0002,6
30931,31804,-8e-05,-4e-05,-2.9999999999999997e-05,-2.9999999999999997e-05,-2e-05,-0.00018,-0.0001,-0.0002,6
30932,31805,-8e-05,-4e-05,-2.9999999999999997e-05,-2.9999999999999997e-05,-2e-05,-0.00018,-0.0001,-0.0002,6
30933,31806,-8e-05,-4e-05,-2.9999999999999997e-05,-2.9999999999999997e-05,-2e-05,-0.00018,-0.0001,-0.0002,6
30934,31807,-8e-05,-4e-05,-2.9999999999999997e-05,-2.9999999999999997e-05,-2e-05,-0.00018,-0.0001,-0.0002,6
30935,31808,-8e-05,-4e-05,-2.9999999999999997e-05,-2.9999999999999997e-05,-2e-05,-0.00018,-0.0001,-0.0002,6
30936,31809,-8e-05,-4e-05,-2.9999999999999997e-05,-2.9999999999999997e-05,-2e-05,-0.00018,-0.0001,-0.0002,6
30937,31810,-8e-05,-4e-05,-2.9999999999999997e-05,-2.9999999999999997e-05,-2e-05,-0.00018,-0.0001,-0.0002,6
30938,31811,-8e-05,-4e-05,-2.9999999999999997e-05,-2.9999999999999997e-05,-2e-05,-0.00018,-0.0001,-0.0002,6
30939,31812,-8e-05,-4e-05,-2.9999999999999997e-05,-2.9999999999999997e-05,-2e-05,-0.00018,-0.0001,-0.0002,6
30940,31813,-8e-05,-4e-05,-2.9999999999999997e-05,-2.9999999999999997e-05,-2e-05,-0.00018,-0.0001,-0.0002,6
30941,31814,-8e-05,-4e-05,-2.9999999999999997e-05,-2.9999999999999997e-05,-2e-05,-0.00018,-0.0001,-0.0002,6
30942,31815,-8e-05,-4e-05,-2.9999999999999997e-05,-2.9999999999999997e-05,-2e-05,-0.00018,-0.0001,-0.0002,6
30943,31816,-8e-05,-4e-05,-2.9999999999999997e-05,-2.9999999999999997e-05,-2e-05,-0.00018,-0.0001,-0.0002,6
30944,31817,2e-05,-1e-05,-2e-05,-2.9999999999999997e-05,-0.00011999999999999999,0.00045,9e-05,0.0,6
30945,31818,2e-05,-1e-05,-2e-05,-2.9999999999999997e-05,-0.00011999999999999999,0.00045,9e-05,0.0,6
30946,31819,-4e-05,2e-05,2e-05,2.9999999999999997e-05,-2.9999999999999997e-05,4e-05,0.0001,2e-05,6
30947,31820,-4e-05,2e-05,2e-05,2.9999999999999997e-05,-2.9999999999999997e-05,4e-05,0.0001,2e-05,6
30948,31821,-4e-05,2e-05,2e-05,2.9999999999999997e-05,-2.9999999999999997e-05,4e-05,0.0001,2e-05,6
30949,31822,-4e-05,2e-05,2e-05,2.9999999999999997e-05,-2.9999999999999997e-05,4e-05,0.0001,2e-05,6
30950,31823,-4e-05,2e-05,2e-05,2.9999999999999997e-05,-2.9999999999999997e-05,4e-05,0.0001,2e-05,6
30951,31824,-4e-05,2e-05,2e-05,2.9999999999999997e-05,-2.9999999999999997e-05,4e-05,0.0001,2e-05,6
30952,31825,-4e-05,2e-05,2e-05,2.9999999999999997e-05,-2.9999999999999997e-05,4e-05,0.0001,2e-05,6
30953,31826,-4e-05,2e-05,2e-05,2.9999999999999997e-05,-2.9999999999999997e-05,4e-05,0.0001,2e-05,6
30954,31827,-4e-05,2e-05,2e-05,2.9999999999999997e-05,-2.9999999999999997e-05,4e-05,0.0001,2e-05,6
30955,31828,-4e-05,2e-05,2e-05,2.9999999999999997e-05,-2.9999999999999997e-05,4e-05,0.0001,2e-05,6
30956,31829,-4e-05,2e-05,2e-05,2.9999999999999997e-05,-2.9999999999999997e-05,4e-05,0.0001,2e-05,6
30957,31830,-4e-05,2e-05,2e-05,2.9999999999999997e-05,-2.9999999999999997e-05,4e-05,0.0001,2e-05,6
30958,31831,-4e-05,2e-05,2e-05,2.9999999999999997e-05,-2.9999999999999997e-05,4e-05,0.0001,2e-05,6
30959,31832,-4e-05,2e-05,2e-05,2.9999999999999997e-05,-2.9999999999999997e-05,4e-05,0.0001,2e-05,6
30960,31833,-4e-05,2e-05,2e-05,2.9999999999999997e-05,-2.9999999999999997e-05,4e-05,0.0001,2e-05,6
30961,31834,-4e-05,2e-05,2e-05,2.9999999999999997e-05,-2.9999999999999997e-05,4e-05,0.0001,2e-05,6
30962,31835,-4e-05,2e-05,2e-05,2.9999999999999997e-05,-2.9999999999999997e-05,4e-05,0.0001,2e-05,6
30963,31836,-4e-05,2e-05,2e-05,2.9999999999999997e-05,-2.9999999999999997e-05,4e-05,0.0001,2e-05,6
30964,31838,-4e-05,2e-05,2e-05,2.9999999999999997e-05,-2.9999999999999997e-05,4e-05,0.0001,2e-05,6
30965,31839,-4e-05,2e-05,2e-05,2.9999999999999997e-05,-2.9999999999999997e-05,4e-05,0.0001,2e-05,6
30966,31840,2.9999999999999997e-05,-2e-05,0.0,-2e-05,-0.00013000000000000002,-0.00041,5e-05,0.00011999999999999999,6
30967,31841,4e-05,2.9999999999999997e-05,0.0,-2e-05,-1e-05,-0.00022999999999999998,-9e-05,5e-05,6
30968,31843,4e-05,2.9999999999999997e-05,0.0,-2e-05,-1e-05,-0.00022999999999999998,-9e-05,5e-05,6
30969,31844,4e-05,2.9999999999999997e-05,0.0,-2e-05,-1e-05,-0.00022999999999999998,-9e-05,5e-05,6
30970,31845,4e-05,2.9999999999999997e-05,0.0,-2e-05,-1e-05,-0.00022999999999999998,-9e-05,5e-05,6
30971,31846,4e-05,2.9999999999999997e-05,0.0,-2e-05,-1e-05,-0.00022999999999999998,-9e-05,5e-05,6
30972,31847,4e-05,2.9999999999999997e-05,0.0,-2e-05,-1e-05,-0.00022999999999999998,-9e-05,5e-05,6
30973,31848,4e-05,2.9999999999999997e-05,0.0,-2e-05,-1e-05,-0.00022999999999999998,-9e-05,5e-05,6
30974,31849,4e-05,2.9999999999999997e-05,0.0,-2e-05,-1e-05,-0.00022999999999999998,-9e-05,5e-05,6
30975,31850,4e-05,2.9999999999999997e-05,0.0,-2e-05,-1e-05,-0.00022999999999999998,-9e-05,5e-05,6
30976,31851,4e-05,2.9999999999999997e-05,0.0,-2e-05,-1e-05,-0.00022999999999999998,-9e-05,5e-05,6
30977,31852,4e-05,2.9999999999999997e-05,0.0,-2e-05,-1e-05,-0.00022999999999999998,-9e-05,5e-05,6
30978,31853,2e-05,-1e-05,1e-05,5e-05,5.9999999999999995e-05,-7e-05,9e-05,0.0,6
30979,31854,2e-05,-1e-05,1e-05,5e-05,5.9999999999999995e-05,-7e-05,9e-05,0.0,6
30980,31855,2e-05,-1e-05,1e-05,5e-05,5.9999999999999995e-05,-7e-05,9e-05,0.0,6
30981,31856,2e-05,-1e-05,1e-05,5e-05,5.9999999999999995e-05,-7e-05,9e-05,0.0,6
30982,31857,2e-05,-1e-05,1e-05,5e-05,5.9999999999999995e-05,-7e-05,9e-05,0.0,6
30983,31858,2e-05,-1e-05,1e-05,5e-05,5.9999999999999995e-05,-7e-05,9e-05,0.0,6
30984,31859,2e-05,-1e-05,1e-05,5e-05,5.9999999999999995e-05,-7e-05,9e-05,0.0,6
30985,31860,2e-05,-1e-05,1e-05,5e-05,5.9999999999999995e-05,-7e-05,9e-05,0.0,6
30986,31861,2e-05,-1e-05,1e-05,5e-05,5.9999999999999995e-05,-7e-05,9e-05,0.0,6
30987,31862,-0.00023999999999999998,-2e-05,1e-05,4e-05,-2.9999999999999997e-05,1e-05,-5e-05,-0.00025,6
30988,31863,-0.00014,-5.9999999999999995e-05,-5e-05,-5e-05,-1e-05,-0.00035,-1e-05,4e-05,6
30989,31864,-0.00014,-5.9999999999999995e-05,-5e-05,-5e-05,-1e-05,-0.00035,-1e-05,4e-05,6
30990,31865,-0.00014,-5.9999999999999995e-05,-5e-05,-5e-05,-1e-05,-0.00035,-1e-05,4e-05,6
30991,31866,-0.00014,-5.9999999999999995e-05,-5e-05,-5e-05,-1e-05,-0.00035,-1e-05,4e-05,6
30992,31867,-0.00014,-5.9999999999999995e-05,-5e-05,-5e-05,-1e-05,-0.00035,-1e-05,4e-05,6
30993,31868,-0.00014,-5.9999999999999995e-05,-5e-05,-5e-05,-1e-05,-0.00035,-1e-05,4e-05,6
30994,31869,-0.00014,-5.9999999999999995e-05,-5e-05,-5e-05,-1e-05,-0.00035,-1e-05,4e-05,6
30995,31870,-0.00014,-5.9999999999999995e-05,-5e-05,-5e-05,-1e-05,-0.00035,-1e-05,4e-05,6
30996,31871,-0.00014,-5.9999999999999995e-05,-5e-05,-5e-05,-1e-05,-0.00035,-1e-05,4e-05,6
30997,31872,-0.00014,-5.9999999999999995e-05,-5e-05,-5e-05,-1e-05,-0.00035,-1e-05,4e-05,6
30998,31873,-0.00014,-5.9999999999999995e-05,-5e-05,-5e-05,-1e-05,-0.00035,-1e-05,4e-05,6
30999,31874,-0.00014,-5.9999999999999995e-05,-5e-05,-5e-05,-1e-05,-0.00035,-1e-05,4e-05,6
31000,31875,-0.00014,-5.9999999999999995e-05,-5e-05,-5e-05,-1e-05,-0.00035,-1e-05,4e-05,6
31001,31876,-0.00014,-5.9999999999999995e-05,-5e-05,-5e-05,-1e-05,-0.00035,-1e-05,4e-05,6
31002,31877,-1e-05,-1e-05,-1e-05,7e-05,0.0001,5e-05,-2.9999999999999997e-05,-1e-05,6
31003,31878,-1e-05,-1e-05,-1e-05,7e-05,0.0001,5e-05,-2.9999999999999997e-05,-1e-05,6
31004,31879,-2.9999999999999997e-05,-2.9999999999999997e-05,-1e-05,-1e-05,2e-05,5.9999999999999995e-05,2e-05,-9e-05,6
31005,31880,-2.9999999999999997e-05,-2.9999999999999997e-05,-1e-05,-1e-05,2e-05,5.9999999999999995e-05,2e-05,-9e-05,6
31006,31881,-2.9999999999999997e-05,-2.9999999999999997e-05,-1e-05,-1e-05,2e-05,5.9999999999999995e-05,2e-05,-9e-05,6
31007,31882,-2.9999999999999997e-05,-2.9999999999999997e-05,-1e-05,-1e-05,2e-05,5.9999999999999995e-05,2e-05,-9e-05,6
31008,31883,-2.9999999999999997e-05,-2.9999999999999997e-05,-1e-05,-1e-05,2e-05,5.9999999999999995e-05,2e-05,-9e-05,6
31009,31884,-2.9999999999999997e-05,-2.9999999999999997e-05,-1e-05,-1e-05,2e-05,5.9999999999999995e-05,2e-05,-9e-05,6
31010,31885,-2.9999999999999997e-05,-2.9999999999999997e-05,-1e-05,-1e-05,2e-05,5.9999999999999995e-05,2e-05,-9e-05,6
31011,31886,-2.9999999999999997e-05,-2.9999999999999997e-05,-1e-05,-1e-05,2e-05,5.9999999999999995e-05,2e-05,-9e-05,6
31012,31888,-2.9999999999999997e-05,-2.9999999999999997e-05,-1e-05,-1e-05,2e-05,5.9999999999999995e-05,2e-05,-9e-05,6
31013,31889,-2.9999999999999997e-05,-2.9999999999999997e-05,-1e-05,-1e-05,2e-05,5.9999999999999995e-05,2e-05,-9e-05,6
31014,31890,-2.9999999999999997e-05,-2.9999999999999997e-05,-1e-05,-1e-05,2e-05,5.9999999999999995e-05,2e-05,-9e-05,6
31015,31891,-2.9999999999999997e-05,-2.9999999999999997e-05,-1e-05,-1e-05,2e-05,5.9999999999999995e-05,2e-05,-9e-05,6
31016,31892,-2.9999999999999997e-05,-2.9999999999999997e-05,-1e-05,-1e-05,2e-05,5.9999999999999995e-05,2e-05,-9e-05,6
31017,31893,-2.9999999999999997e-05,-2.9999999999999997e-05,-1e-05,-1e-05,2e-05,5.9999999999999995e-05,2e-05,-9e-05,6
31018,31894,-2.9999999999999997e-05,-2.9999999999999997e-05,-1e-05,-1e-05,2e-05,5.9999999999999995e-05,2e-05,-9e-05,6
31019,31895,-2.9999999999999997e-05,-2.9999999999999997e-05,-1e-05,-1e-05,2e-05,5.9999999999999995e-05,2e-05,-9e-05,6
31020,31896,-2.9999999999999997e-05,-2.9999999999999997e-05,-1e-05,-1e-05,2e-05,5.9999999999999995e-05,2e-05,-9e-05,6
31021,31897,-2.9999999999999997e-05,-2.9999999999999997e-05,-1e-05,-1e-05,2e-05,5.9999999999999995e-05,2e-05,-9e-05,6
31022,31898,-2.9999999999999997e-05,-2.9999999999999997e-05,-1e-05,-1e-05,2e-05,5.9999999999999995e-05,2e-05,-9e-05,6
31023,31899,-2.9999999999999997e-05,-2.9999999999999997e-05,-1e-05,-1e-05,2e-05,5.9999999999999995e-05,2e-05,-9e-05,6
31024,31900,-4e-05,-2.9999999999999997e-05,-1e-05,8e-05,9e-05,-0.00035,1e-05,8e-05,6
31025,31901,-4e-05,-2.9999999999999997e-05,-1e-05,8e-05,9e-05,-0.00035,1e-05,8e-05,6
31026,31902,1e-05,-2.9999999999999997e-05,-4e-05,-5.9999999999999995e-05,1e-05,-0.00055,-0.00018,-8e-05,6
31027,31903,1e-05,-2.9999999999999997e-05,-4e-05,-5.9999999999999995e-05,1e-05,-0.00055,-0.00018,-8e-05,6
31028,31904,1e-05,-2.9999999999999997e-05,-4e-05,-5.9999999999999995e-05,1e-05,-0.00055,-0.00018,-8e-05,6
31029,31905,1e-05,-2.9999999999999997e-05,-4e-05,-5.9999999999999995e-05,1e-05,-0.00055,-0.00018,-8e-05,6
31030,31906,1e-05,-2.9999999999999997e-05,-4e-05,-5.9999999999999995e-05,1e-05,-0.00055,-0.00018,-8e-05,6
31031,31907,1e-05,-2.9999999999999997e-05,-4e-05,-5.9999999999999995e-05,1e-05,-0.00055,-0.00018,-8e-05,6
31032,31908,1e-05,-2.9999999999999997e-05,-4e-05,-5.9999999999999995e-05,1e-05,-0.00055,-0.00018,-8e-05,6
31033,31909,1e-05,-2.9999999999999997e-05,-4e-05,-5.9999999999999995e-05,1e-05,-0.00055,-0.00018,-8e-05,6
31034,31910,1e-05,-2.9999999999999997e-05,-4e-05,-5.9999999999999995e-05,1e-05,-0.00055,-0.00018,-8e-05,6
31035,31911,1e-05,-2.9999999999999997e-05,-4e-05,-5.9999999999999995e-05,1e-05,-0.00055,-0.00018,-8e-05,6
31036,31912,1e-05,-2.9999999999999997e-05,-4e-05,-5.9999999999999995e-05,1e-05,-0.00055,-0.00018,-8e-05,6
31037,31913,5.9999999999999995e-05,2e-05,1e-05,0.0,-2.9999999999999997e-05,0.00011999999999999999,4e-05,4e-05,6
31038,31915,5.9999999999999995e-05,2e-05,1e-05,0.0,-2.9999999999999997e-05,0.00011999999999999999,4e-05,4e-05,6
31039,31916,5.9999999999999995e-05,2e-05,1e-05,0.0,-2.9999999999999997e-05,0.00011999999999999999,4e-05,4e-05,6
31040,31917,5.9999999999999995e-05,2e-05,1e-05,0.0,-2.9999999999999997e-05,0.00011999999999999999,4e-05,4e-05,6
31041,31918,5.9999999999999995e-05,2e-05,1e-05,0.0,-2.9999999999999997e-05,0.00011999999999999999,4e-05,4e-05,6
31042,31919,5.9999999999999995e-05,2e-05,1e-05,0.0,-2.9999999999999997e-05,0.00011999999999999999,4e-05,4e-05,6
31043,31920,5.9999999999999995e-05,2e-05,1e-05,0.0,-2.9999999999999997e-05,0.00011999999999999999,4e-05,4e-05,6
31044,31921,5.9999999999999995e-05,2e-05,1e-05,0.0,-2.9999999999999997e-05,0.00011999999999999999,4e-05,4e-05,6
31045,31922,-0.00011999999999999999,1e-05,1e-05,-5.9999999999999995e-05,-0.00026000000000000003,0.00033999999999999997,1e-05,-0.00015,6
31046,31924,-0.00011999999999999999,1e-05,1e-05,-5.9999999999999995e-05,-0.00026000000000000003,0.00033999999999999997,1e-05,-0.00015,6
31047,31925,-0.00011999999999999999,1e-05,1e-05,-5.9999999999999995e-05,-0.00026000000000000003,0.00033999999999999997,1e-05,-0.00015,6
31048,31926,-0.00011999999999999999,1e-05,1e-05,-5.9999999999999995e-05,-0.00026000000000000003,0.00033999999999999997,1e-05,-0.00015,6
31049,31927,-0.00011999999999999999,1e-05,1e-05,-5.9999999999999995e-05,-0.00026000000000000003,0.00033999999999999997,1e-05,-0.00015,6
31050,31928,-0.00011999999999999999,1e-05,1e-05,-5.9999999999999995e-05,-0.00026000000000000003,0.00033999999999999997,1e-05,-0.00015,6
31051,31929,-0.00011999999999999999,1e-05,1e-05,-5.9999999999999995e-05,-0.00026000000000000003,0.00033999999999999997,1e-05,-0.00015,6
31052,31930,-0.00011999999999999999,1e-05,1e-05,-5.9999999999999995e-05,-0.00026000000000000003,0.00033999999999999997,1e-05,-0.00015,6
31053,31931,-0.00011999999999999999,1e-05,1e-05,-5.9999999999999995e-05,-0.00026000000000000003,0.00033999999999999997,1e-05,-0.00015,6
31054,31932,-0.00011999999999999999,1e-05,1e-05,-5.9999999999999995e-05,-0.00026000000000000003,0.00033999999999999997,1e-05,-0.00015,6
31055,31933,-0.00011999999999999999,1e-05,1e-05,-5.9999999999999995e-05,-0.00026000000000000003,0.00033999999999999997,1e-05,-0.00015,6
31056,31934,-0.00011999999999999999,1e-05,1e-05,-5.9999999999999995e-05,-0.00026000000000000003,0.00033999999999999997,1e-05,-0.00015,6
31057,31935,-0.00011999999999999999,1e-05,1e-05,-5.9999999999999995e-05,-0.00026000000000000003,0.00033999999999999997,1e-05,-0.00015,6
31058,31936,-0.00011999999999999999,1e-05,1e-05,-5.9999999999999995e-05,-0.00026000000000000003,0.00033999999999999997,1e-05,-0.00015,6
31059,31938,-4e-05,-2e-05,-2.9999999999999997e-05,2.9999999999999997e-05,0.00018,-0.00021,-8e-05,1e-05,6
31060,31939,-1e-05,-2.9999999999999997e-05,-1e-05,1e-05,0.0001,0.00043,0.0001,-2.9999999999999997e-05,6
31061,31940,-1e-05,-2.9999999999999997e-05,-1e-05,1e-05,0.0001,0.00043,0.0001,-2.9999999999999997e-05,6
31062,31941,-1e-05,-2.9999999999999997e-05,-1e-05,1e-05,0.0001,0.00043,0.0001,-2.9999999999999997e-05,6
31063,31942,-1e-05,-2.9999999999999997e-05,-1e-05,1e-05,0.0001,0.00043,0.0001,-2.9999999999999997e-05,6
31064,31943,-1e-05,-2.9999999999999997e-05,-1e-05,1e-05,0.0001,0.00043,0.0001,-2.9999999999999997e-05,6
31065,31944,-1e-05,-2.9999999999999997e-05,-1e-05,1e-05,0.0001,0.00043,0.0001,-2.9999999999999997e-05,6
31066,31945,-1e-05,-2.9999999999999997e-05,-1e-05,1e-05,0.0001,0.00043,0.0001,-2.9999999999999997e-05,6
31067,31946,-1e-05,-2.9999999999999997e-05,-1e-05,1e-05,0.0001,0.00043,0.0001,-2.9999999999999997e-05,6
31068,31947,-1e-05,-2.9999999999999997e-05,-1e-05,1e-05,0.0001,0.00043,0.0001,-2.9999999999999997e-05,6
31069,31948,-1e-05,-2.9999999999999997e-05,-1e-05,1e-05,0.0001,0.00043,0.0001,-2.9999999999999997e-05,6
31070,31949,-1e-05,-2.9999999999999997e-05,-1e-05,1e-05,0.0001,0.00043,0.0001,-2.9999999999999997e-05,6
31071,31950,-1e-05,-2.9999999999999997e-05,-1e-05,1e-05,0.0001,0.00043,0.0001,-2.9999999999999997e-05,6
31072,31951,-1e-05,-2.9999999999999997e-05,-1e-05,1e-05,0.0001,0.00043,0.0001,-2.9999999999999997e-05,6
31073,31952,-1e-05,-2.9999999999999997e-05,-1e-05,1e-05,0.0001,0.00043,0.0001,-2.9999999999999997e-05,6
31074,31953,-1e-05,-2.9999999999999997e-05,-1e-05,1e-05,0.0001,0.00043,0.0001,-2.9999999999999997e-05,6
31075,31954,-1e-05,-2.9999999999999997e-05,-1e-05,1e-05,0.0001,0.00043,0.0001,-2.9999999999999997e-05,6
31076,31955,-1e-05,-2.9999999999999997e-05,-1e-05,1e-05,0.0001,0.00043,0.0001,-2.9999999999999997e-05,6
31077,31956,-1e-05,-2.9999999999999997e-05,-1e-05,1e-05,0.0001,0.00043,0.0001,-2.9999999999999997e-05,6
31078,31957,-1e-05,-2.9999999999999997e-05,-1e-05,1e-05,0.0001,0.00043,0.0001,-2.9999999999999997e-05,6
31079,31958,-1e-05,-2.9999999999999997e-05,-1e-05,1e-05,0.0001,0.00043,0.0001,-2.9999999999999997e-05,6
31080,31959,-1e-05,-2.9999999999999997e-05,-1e-05,1e-05,0.0001,0.00043,0.0001,-2.9999999999999997e-05,6
31081,31960,2.9999999999999997e-05,0.0,-2e-05,-1e-05,-1e-05,0.00039,5e-05,-5e-05,6
31082,31961,-2.9999999999999997e-05,0.0,1e-05,0.0,-2e-05,-0.00028,-2e-05,-0.00011999999999999999,6
31083,31962,-2.9999999999999997e-05,0.0,1e-05,0.0,-2e-05,-0.00028,-2e-05,-0.00011999999999999999,6
31084,31963,-2.9999999999999997e-05,0.0,1e-05,0.0,-2e-05,-0.00028,-2e-05,-0.00011999999999999999,6
31085,31964,-2.9999999999999997e-05,0.0,1e-05,0.0,-2e-05,-0.00028,-2e-05,-0.00011999999999999999,6
31086,31965,-2.9999999999999997e-05,0.0,1e-05,0.0,-2e-05,-0.00028,-2e-05,-0.00011999999999999999,6
31087,31966,-2.9999999999999997e-05,0.0,1e-05,0.0,-2e-05,-0.00028,-2e-05,-0.00011999999999999999,6
31088,31967,-2.9999999999999997e-05,0.0,1e-05,0.0,-2e-05,-0.00028,-2e-05,-0.00011999999999999999,6
31089,31968,-2.9999999999999997e-05,0.0,1e-05,0.0,-2e-05,-0.00028,-2e-05,-0.00011999999999999999,6
31090,31969,-2.9999999999999997e-05,0.0,1e-05,0.0,-2e-05,-0.00028,-2e-05,-0.00011999999999999999,6
31091,31970,-2.9999999999999997e-05,0.0,1e-05,0.0,-2e-05,-0.00028,-2e-05,-0.00011999999999999999,6
31092,31971,-2.9999999999999997e-05,0.0,1e-05,0.0,-2e-05,-0.00028,-2e-05,-0.00011999999999999999,6
31093,31972,-2.9999999999999997e-05,0.0,1e-05,0.0,-2e-05,-0.00028,-2e-05,-0.00011999999999999999,6
31094,31973,5.9999999999999995e-05,0.0,-1e-05,-1e-05,2e-05,-1e-05,0.0,-2e-05,6
31095,31974,-2e-05,-1e-05,-2e-05,-4e-05,-0.00011999999999999999,-0.00043,-1e-05,7e-05,6
31096,31975,-2e-05,-1e-05,-2e-05,-4e-05,-0.00011999999999999999,-0.00043,-1e-05,7e-05,6
31097,31976,-2e-05,-1e-05,-2e-05,-4e-05,-0.00011999999999999999,-0.00043,-1e-05,7e-05,6
31098,31977,-2e-05,-1e-05,-2e-05,-4e-05,-0.00011999999999999999,-0.00043,-1e-05,7e-05,6
31099,31978,-2e-05,-1e-05,-2e-05,-4e-05,-0.00011999999999999999,-0.00043,-1e-05,7e-05,6
31100,31979,-2e-05,-1e-05,-2e-05,-4e-05,-0.00011999999999999999,-0.00043,-1e-05,7e-05,6
31101,31980,-2e-05,-1e-05,-2e-05,-4e-05,-0.00011999999999999999,-0.00043,-1e-05,7e-05,6
31102,31981,-2e-05,-1e-05,-2e-05,-4e-05,-0.00011999999999999999,-0.00043,-1e-05,7e-05,6
31103,31982,7e-05,2e-05,0.0,-1e-05,0.0,4e-05,0.00011,0.00014,6
31104,31983,7e-05,2e-05,0.0,-1e-05,0.0,4e-05,0.00011,0.00014,6
31105,31984,7e-05,2e-05,0.0,-1e-05,0.0,4e-05,0.00011,0.00014,6
31106,31985,7e-05,2e-05,0.0,-1e-05,0.0,4e-05,0.00011,0.00014,6
31107,31986,7e-05,2e-05,0.0,-1e-05,0.0,4e-05,0.00011,0.00014,6
31108,31988,7e-05,2e-05,0.0,-1e-05,0.0,4e-05,0.00011,0.00014,6
31109,31989,7e-05,2e-05,0.0,-1e-05,0.0,4e-05,0.00011,0.00014,6
31110,31990,7e-05,2e-05,0.0,-1e-05,0.0,4e-05,0.00011,0.00014,6
31111,31991,7e-05,2e-05,0.0,-1e-05,0.0,4e-05,0.00011,0.00014,6
31112,31992,7e-05,2e-05,0.0,-1e-05,0.0,4e-05,0.00011,0.00014,6
31113,31993,7e-05,2e-05,0.0,-1e-05,0.0,4e-05,0.00011,0.00014,6
31114,31994,7e-05,2e-05,0.0,-1e-05,0.0,4e-05,0.00011,0.00014,6
31115,31995,7e-05,2e-05,0.0,-1e-05,0.0,4e-05,0.00011,0.00014,6
31116,31996,7e-05,2e-05,0.0,-1e-05,0.0,4e-05,0.00011,0.00014,6
31117,31997,-2.9999999999999997e-05,-1e-05,-1e-05,-7e-05,-0.00018,2.9999999999999997e-05,-2e-05,7e-05,6
31118,31998,-2.9999999999999997e-05,-1e-05,-1e-05,-7e-05,-0.00018,2.9999999999999997e-05,-2e-05,7e-05,6
31119,31999,-0.00011,-2.9999999999999997e-05,-4e-05,2.9999999999999997e-05,-7e-05,-8e-05,-8e-05,-5e-05,6
31120,32000,-0.00011,-2.9999999999999997e-05,-4e-05,2.9999999999999997e-05,-7e-05,-8e-05,-8e-05,-5e-05,6
31121,32001,-0.00011,-2.9999999999999997e-05,-4e-05,2.9999999999999997e-05,-7e-05,-8e-05,-8e-05,-5e-05,6
31122,32002,-0.00011,-2.9999999999999997e-05,-4e-05,2.9999999999999997e-05,-7e-05,-8e-05,-8e-05,-5e-05,6
31123,32003,-0.00011,-2.9999999999999997e-05,-4e-05,2.9999999999999997e-05,-7e-05,-8e-05,-8e-05,-5e-05,6
31124,32004,-0.00011,-2.9999999999999997e-05,-4e-05,2.9999999999999997e-05,-7e-05,-8e-05,-8e-05,-5e-05,6
31125,32005,-0.00011,-2.9999999999999997e-05,-4e-05,2.9999999999999997e-05,-7e-05,-8e-05,-8e-05,-5e-05,6
31126,32006,-0.00011,-2.9999999999999997e-05,-4e-05,2.9999999999999997e-05,-7e-05,-8e-05,-8e-05,-5e-05,6
31127,32007,-0.00011,-2.9999999999999997e-05,-4e-05,2.9999999999999997e-05,-7e-05,-8e-05,-8e-05,-5e-05,6
31128,32008,-0.00011,-2.9999999999999997e-05,-4e-05,2.9999999999999997e-05,-7e-05,-8e-05,-8e-05,-5e-05,6
31129,32009,-0.00011,-2.9999999999999997e-05,-4e-05,2.9999999999999997e-05,-7e-05,-8e-05,-8e-05,-5e-05,6
31130,32010,-0.00011,-2.9999999999999997e-05,-4e-05,2.9999999999999997e-05,-7e-05,-8e-05,-8e-05,-5e-05,6
31131,32011,-0.00011,-2.9999999999999997e-05,-4e-05,2.9999999999999997e-05,-7e-05,-8e-05,-8e-05,-5e-05,6
31132,32012,-0.00011,-2.9999999999999997e-05,-4e-05,2.9999999999999997e-05,-7e-05,-8e-05,-8e-05,-5e-05,6
31133,32013,-0.00011,-2.9999999999999997e-05,-4e-05,2.9999999999999997e-05,-7e-05,-8e-05,-8e-05,-5e-05,6
31134,32014,-0.00011,-2.9999999999999997e-05,-4e-05,2.9999999999999997e-05,-7e-05,-8e-05,-8e-05,-5e-05,6
31135,32015,-0.00011,-2.9999999999999997e-05,-4e-05,2.9999999999999997e-05,-7e-05,-8e-05,-8e-05,-5e-05,6
31136,32016,-0.00011,-2.9999999999999997e-05,-4e-05,2.9999999999999997e-05,-7e-05,-8e-05,-8e-05,-5e-05,6
31137,32017,-0.00011,-2.9999999999999997e-05,-4e-05,2.9999999999999997e-05,-7e-05,-8e-05,-8e-05,-5e-05,6
31138,32018,-0.00011,-2.9999999999999997e-05,-4e-05,2.9999999999999997e-05,-7e-05,-8e-05,-8e-05,-5e-05,6
31139,32019,-0.00011,-2.9999999999999997e-05,-4e-05,2.9999999999999997e-05,-7e-05,-8e-05,-8e-05,-5e-05,6
31140,32020,-0.00011,-2.9999999999999997e-05,-4e-05,2.9999999999999997e-05,-7e-05,-8e-05,-8e-05,-5e-05,6
31141,32021,0.00011,1e-05,-2e-05,2e-05,0.00015,-0.00018999999999999998,-4e-05,9e-05,6
31142,32023,0.00011,1e-05,-2e-05,2e-05,0.00015,-0.00018999999999999998,-4e-05,9e-05,6
31143,32024,0.00011,1e-05,-2e-05,2e-05,0.00015,-0.00018999999999999998,-4e-05,9e-05,6
31144,32025,0.00011,1e-05,-2e-05,2e-05,0.00015,-0.00018999999999999998,-4e-05,9e-05,6
31145,32026,0.00011,1e-05,-2e-05,2e-05,0.00015,-0.00018999999999999998,-4e-05,9e-05,6
31146,32027,0.00011,1e-05,-2e-05,2e-05,0.00015,-0.00018999999999999998,-4e-05,9e-05,6
31147,32028,0.00011,1e-05,-2e-05,2e-05,0.00015,-0.00018999999999999998,-4e-05,9e-05,6
31148,32029,0.00011,1e-05,-2e-05,2e-05,0.00015,-0.00018999999999999998,-4e-05,9e-05,6
31149,32030,0.00011,1e-05,-2e-05,2e-05,0.00015,-0.00018999999999999998,-4e-05,9e-05,6
31150,32031,0.00011,1e-05,-2e-05,2e-05,0.00015,-0.00018999999999999998,-4e-05,9e-05,6
31151,32032,0.00011,1e-05,-2e-05,2e-05,0.00015,-0.00018999999999999998,-4e-05,9e-05,6
31152,32033,0.00011,1e-05,-2e-05,2e-05,0.00015,-0.00018999999999999998,-4e-05,9e-05,6
31153,32034,0.00011,1e-05,-2e-05,2e-05,0.00015,-0.00018999999999999998,-4e-05,9e-05,6
31154,32035,0.00011,1e-05,-2e-05,2e-05,0.00015,-0.00018999999999999998,-4e-05,9e-05,6
31155,32036,0.00011,1e-05,-2e-05,2e-05,0.00015,-0.00018999999999999998,-4e-05,9e-05,6
31156,32038,0.00011,1e-05,-2e-05,2e-05,0.00015,-0.00018999999999999998,-4e-05,9e-05,6
31157,32039,0.00011,1e-05,-2e-05,2e-05,0.00015,-0.00018999999999999998,-4e-05,9e-05,6
31158,32040,0.00011,1e-05,-2e-05,2e-05,0.00015,-0.00018999999999999998,-4e-05,9e-05,6
31159,32041,0.00011,1e-05,-2e-05,2e-05,0.00015,-0.00018999999999999998,-4e-05,9e-05,6
31160,32042,-9e-05,-7e-05,-7e-05,-4e-05,8e-05,0.0,-4e-05,-0.00011999999999999999,6
31161,32043,-9e-05,-7e-05,-7e-05,-4e-05,8e-05,0.0,-4e-05,-0.00011999999999999999,6
31162,32044,1e-05,0.0,0.0,4e-05,2.9999999999999997e-05,0.00022999999999999998,-5e-05,0.0,6
31163,32045,1e-05,0.0,0.0,4e-05,2.9999999999999997e-05,0.00022999999999999998,-5e-05,0.0,6
31164,32046,1e-05,0.0,0.0,4e-05,2.9999999999999997e-05,0.00022999999999999998,-5e-05,0.0,6
31165,32047,1e-05,0.0,0.0,4e-05,2.9999999999999997e-05,0.00022999999999999998,-5e-05,0.0,6
31166,32048,1e-05,0.0,0.0,4e-05,2.9999999999999997e-05,0.00022999999999999998,-5e-05,0.0,6
31167,32049,1e-05,0.0,0.0,4e-05,2.9999999999999997e-05,0.00022999999999999998,-5e-05,0.0,6
31168,32050,1e-05,0.0,0.0,4e-05,2.9999999999999997e-05,0.00022999999999999998,-5e-05,0.0,6
31169,32051,1e-05,0.0,0.0,4e-05,2.9999999999999997e-05,0.00022999999999999998,-5e-05,0.0,6
31170,32052,1e-05,0.0,0.0,4e-05,2.9999999999999997e-05,0.00022999999999999998,-5e-05,0.0,6
31171,32053,1e-05,0.0,0.0,4e-05,2.9999999999999997e-05,0.00022999999999999998,-5e-05,0.0,6
31172,32054,1e-05,0.0,0.0,4e-05,2.9999999999999997e-05,0.00022999999999999998,-5e-05,0.0,6
31173,32055,1e-05,0.0,0.0,4e-05,2.9999999999999997e-05,0.00022999999999999998,-5e-05,0.0,6
31174,32056,1e-05,0.0,0.0,4e-05,2.9999999999999997e-05,0.00022999999999999998,-5e-05,0.0,6
31175,32057,4e-05,1e-05,5e-05,5e-05,2.9999999999999997e-05,4e-05,-1e-05,1e-05,6
31176,32058,4e-05,1e-05,5e-05,5e-05,2.9999999999999997e-05,4e-05,-1e-05,1e-05,6
31177,32059,-0.00018,-4e-05,1e-05,1e-05,5e-05,-1e-05,2e-05,1e-05,6
31178,32060,-0.00018,-4e-05,1e-05,1e-05,5e-05,-1e-05,2e-05,1e-05,6
31179,32061,-0.00018,-4e-05,1e-05,1e-05,5e-05,-1e-05,2e-05,1e-05,6
31180,32062,-0.00018,-4e-05,1e-05,1e-05,5e-05,-1e-05,2e-05,1e-05,6
31181,32063,-0.00018,-4e-05,1e-05,1e-05,5e-05,-1e-05,2e-05,1e-05,6
31182,32064,-0.00018,-4e-05,1e-05,1e-05,5e-05,-1e-05,2e-05,1e-05,6
31183,32065,-0.00018,-4e-05,1e-05,1e-05,5e-05,-1e-05,2e-05,1e-05,6
31184,32066,-0.00018,-4e-05,1e-05,1e-05,5e-05,-1e-05,2e-05,1e-05,6
31185,32067,-0.00018,-4e-05,1e-05,1e-05,5e-05,-1e-05,2e-05,1e-05,6
31186,32068,-0.00018,-4e-05,1e-05,1e-05,5e-05,-1e-05,2e-05,1e-05,6
31187,32069,-0.00018,-4e-05,1e-05,1e-05,5e-05,-1e-05,2e-05,1e-05,6
31188,32070,-0.00018,-4e-05,1e-05,1e-05,5e-05,-1e-05,2e-05,1e-05,6
31189,32071,-0.00018,-4e-05,1e-05,1e-05,5e-05,-1e-05,2e-05,1e-05,6
31190,32072,-0.00018,-4e-05,1e-05,1e-05,5e-05,-1e-05,2e-05,1e-05,6
31191,32073,-0.00018,-4e-05,1e-05,1e-05,5e-05,-1e-05,2e-05,1e-05,6
31192,32074,-0.00018,-4e-05,1e-05,1e-05,5e-05,-1e-05,2e-05,1e-05,6
31193,32075,-0.00018,-4e-05,1e-05,1e-05,5e-05,-1e-05,2e-05,1e-05,6
31194,32076,-0.00018,-4e-05,1e-05,1e-05,5e-05,-1e-05,2e-05,1e-05,6
31195,32077,-0.00018,-4e-05,1e-05,1e-05,5e-05,-1e-05,2e-05,1e-05,6
31196,32078,-0.00018,-4e-05,1e-05,1e-05,5e-05,-1e-05,2e-05,1e-05,6
31197,32079,-0.00018,-4e-05,1e-05,1e-05,5e-05,-1e-05,2e-05,1e-05,6
31198,32080,7e-05,-2e-05,-2e-05,-1e-05,1e-05,-5e-05,1e-05,0.00014,6
31199,32081,1e-05,-1e-05,0.0,5.9999999999999995e-05,0.00036,8e-05,-5e-05,-9e-05,6
31200,32082,1e-05,-1e-05,0.0,5.9999999999999995e-05,0.00036,8e-05,-5e-05,-9e-05,6
31201,32083,1e-05,-1e-05,0.0,5.9999999999999995e-05,0.00036,8e-05,-5e-05,-9e-05,6
31202,32084,1e-05,-1e-05,0.0,5.9999999999999995e-05,0.00036,8e-05,-5e-05,-9e-05,6
31203,32085,1e-05,-1e-05,0.0,5.9999999999999995e-05,0.00036,8e-05,-5e-05,-9e-05,6
31204,32086,1e-05,-1e-05,0.0,5.9999999999999995e-05,0.00036,8e-05,-5e-05,-9e-05,6
31205,32088,1e-05,-1e-05,0.0,5.9999999999999995e-05,0.00036,8e-05,-5e-05,-9e-05,6
31206,32089,1e-05,-1e-05,0.0,5.9999999999999995e-05,0.00036,8e-05,-5e-05,-9e-05,6
31207,32090,1e-05,-1e-05,0.0,5.9999999999999995e-05,0.00036,8e-05,-5e-05,-9e-05,6
31208,32091,1e-05,-1e-05,0.0,5.9999999999999995e-05,0.00036,8e-05,-5e-05,-9e-05,6
31209,32092,1e-05,-1e-05,0.0,5.9999999999999995e-05,0.00036,8e-05,-5e-05,-9e-05,6
31210,32093,1e-05,-1e-05,0.0,5.9999999999999995e-05,0.00036,8e-05,-5e-05,-9e-05,6
31211,32094,1e-05,-1e-05,0.0,5.9999999999999995e-05,0.00036,8e-05,-5e-05,-9e-05,6
31212,32095,1e-05,-1e-05,0.0,5.9999999999999995e-05,0.00036,8e-05,-5e-05,-9e-05,6
31213,32096,1e-05,-1e-05,0.0,5.9999999999999995e-05,0.00036,8e-05,-5e-05,-9e-05,6
31214,32097,1e-05,-1e-05,0.0,5.9999999999999995e-05,0.00036,8e-05,-5e-05,-9e-05,6
31215,32098,1e-05,-1e-05,0.0,5.9999999999999995e-05,0.00036,8e-05,-5e-05,-9e-05,6
31216,32099,1e-05,-1e-05,0.0,5.9999999999999995e-05,0.00036,8e-05,-5e-05,-9e-05,6
31217,32100,1e-05,-1e-05,0.0,5.9999999999999995e-05,0.00036,8e-05,-5e-05,-9e-05,6
31218,32101,1e-05,-1e-05,0.0,5.9999999999999995e-05,0.00036,8e-05,-5e-05,-9e-05,6
31219,32102,1e-05,-1e-05,0.0,5.9999999999999995e-05,0.00036,8e-05,-5e-05,-9e-05,6
31220,32103,5.9999999999999995e-05,0.0,0.0,5.9999999999999995e-05,7e-05,-0.00016999999999999999,-8e-05,8e-05,6
31221,32104,0.00011,0.0,-4e-05,-4e-05,-0.00013000000000000002,-0.00018,-7e-05,2.9999999999999997e-05,6
31222,32105,0.00011,0.0,-4e-05,-4e-05,-0.00013000000000000002,-0.00018,-7e-05,2.9999999999999997e-05,6
31223,32106,0.00011,0.0,-4e-05,-4e-05,-0.00013000000000000002,-0.00018,-7e-05,2.9999999999999997e-05,6
31224,32107,0.00011,0.0,-4e-05,-4e-05,-0.00013000000000000002,-0.00018,-7e-05,2.9999999999999997e-05,6
31225,32108,0.00011,0.0,-4e-05,-4e-05,-0.00013000000000000002,-0.00018,-7e-05,2.9999999999999997e-05,6
31226,32109,0.00011,0.0,-4e-05,-4e-05,-0.00013000000000000002,-0.00018,-7e-05,2.9999999999999997e-05,6
31227,32110,0.00011,0.0,-4e-05,-4e-05,-0.00013000000000000002,-0.00018,-7e-05,2.9999999999999997e-05,6
31228,32111,0.00011,0.0,-4e-05,-4e-05,-0.00013000000000000002,-0.00018,-7e-05,2.9999999999999997e-05,6
31229,32112,0.00011,0.0,-4e-05,-4e-05,-0.00013000000000000002,-0.00018,-7e-05,2.9999999999999997e-05,6
31230,32113,0.00011,0.0,-4e-05,-4e-05,-0.00013000000000000002,-0.00018,-7e-05,2.9999999999999997e-05,6
31231,32114,0.00011,0.0,-4e-05,-4e-05,-0.00013000000000000002,-0.00018,-7e-05,2.9999999999999997e-05,6
31232,32115,0.00011,0.0,-4e-05,-4e-05,-0.00013000000000000002,-0.00018,-7e-05,2.9999999999999997e-05,6
31233,32116,0.00011,0.0,-4e-05,-4e-05,-0.00013000000000000002,-0.00018,-7e-05,2.9999999999999997e-05,6
31234,32117,0.00011,0.0,-4e-05,-4e-05,-0.00013000000000000002,-0.00018,-7e-05,2.9999999999999997e-05,6
31235,32118,0.00011,0.0,-4e-05,-4e-05,-0.00013000000000000002,-0.00018,-7e-05,2.9999999999999997e-05,6
31236,32119,0.00011,0.0,-4e-05,-4e-05,-0.00013000000000000002,-0.00018,-7e-05,2.9999999999999997e-05,6
31237,32120,0.00011,0.0,-4e-05,-4e-05,-0.00013000000000000002,-0.00018,-7e-05,2.9999999999999997e-05,6
31238,32121,0.00011,0.0,-4e-05,-4e-05,-0.00013000000000000002,-0.00018,-7e-05,2.9999999999999997e-05,6
31239,32122,0.00011,0.0,-4e-05,-4e-05,-0.00013000000000000002,-0.00018,-7e-05,2.9999999999999997e-05,6
31240,32123,0.00011,0.0,-4e-05,-4e-05,-0.00013000000000000002,-0.00018,-7e-05,2.9999999999999997e-05,6
31241,32124,0.00011,0.0,-4e-05,-4e-05,-0.00013000000000000002,-0.00018,-7e-05,2.9999999999999997e-05,6
31242,32125,0.0,1e-05,2e-05,4e-05,5e-05,0.00047999999999999996,8e-05,9e-05,6
31243,32126,5e-05,2e-05,2e-05,2e-05,5e-05,2.9999999999999997e-05,4e-05,1e-05,6
31244,32127,5e-05,2e-05,2e-05,2e-05,5e-05,2.9999999999999997e-05,4e-05,1e-05,6
31245,32128,5e-05,2e-05,2e-05,2e-05,5e-05,2.9999999999999997e-05,4e-05,1e-05,6
31246,32129,5e-05,2e-05,2e-05,2e-05,5e-05,2.9999999999999997e-05,4e-05,1e-05,6
31247,32130,5e-05,2e-05,2e-05,2e-05,5e-05,2.9999999999999997e-05,4e-05,1e-05,6
31248,32131,5e-05,2e-05,2e-05,2e-05,5e-05,2.9999999999999997e-05,4e-05,1e-05,6
31249,32132,5e-05,2e-05,2e-05,2e-05,5e-05,2.9999999999999997e-05,4e-05,1e-05,6
31250,32133,5e-05,2e-05,2e-05,2e-05,5e-05,2.9999999999999997e-05,4e-05,1e-05,6
31251,32134,5e-05,2e-05,2e-05,2e-05,5e-05,2.9999999999999997e-05,4e-05,1e-05,6
31252,32135,5e-05,2e-05,2e-05,2e-05,5e-05,2.9999999999999997e-05,4e-05,1e-05,6
31253,32136,5e-05,2e-05,2e-05,2e-05,5e-05,2.9999999999999997e-05,4e-05,1e-05,6
31254,32138,5e-05,2e-05,2e-05,2e-05,5e-05,2.9999999999999997e-05,4e-05,1e-05,6
31255,32139,5e-05,2e-05,2e-05,2e-05,5e-05,2.9999999999999997e-05,4e-05,1e-05,6
31256,32140,-5.9999999999999995e-05,1e-05,-1e-05,-5e-05,-4e-05,-0.00021,-5e-05,-5e-05,6
31257,32141,5.9999999999999995e-05,0.0,-2e-05,-7e-05,-0.00016999999999999999,0.00013000000000000002,0.00013000000000000002,2e-05,6
31258,32142,5.9999999999999995e-05,0.0,-2e-05,-7e-05,-0.00016999999999999999,0.00013000000000000002,0.00013000000000000002,2e-05,6
31259,32143,5.9999999999999995e-05,0.0,-2e-05,-7e-05,-0.00016999999999999999,0.00013000000000000002,0.00013000000000000002,2e-05,6
31260,32144,5.9999999999999995e-05,0.0,-2e-05,-7e-05,-0.00016999999999999999,0.00013000000000000002,0.00013000000000000002,2e-05,6
31261,32145,5.9999999999999995e-05,0.0,-2e-05,-7e-05,-0.00016999999999999999,0.00013000000000000002,0.00013000000000000002,2e-05,6
31262,32146,5.9999999999999995e-05,0.0,-2e-05,-7e-05,-0.00016999999999999999,0.00013000000000000002,0.00013000000000000002,2e-05,6
31263,32147,5.9999999999999995e-05,0.0,-2e-05,-7e-05,-0.00016999999999999999,0.00013000000000000002,0.00013000000000000002,2e-05,6
31264,32148,5.9999999999999995e-05,0.0,-2e-05,-7e-05,-0.00016999999999999999,0.00013000000000000002,0.00013000000000000002,2e-05,6
31265,32149,5.9999999999999995e-05,0.0,-2e-05,-7e-05,-0.00016999999999999999,0.00013000000000000002,0.00013000000000000002,2e-05,6
31266,32150,5.9999999999999995e-05,0.0,-2e-05,-7e-05,-0.00016999999999999999,0.00013000000000000002,0.00013000000000000002,2e-05,6
31267,32151,5.9999999999999995e-05,0.0,-2e-05,-7e-05,-0.00016999999999999999,0.00013000000000000002,0.00013000000000000002,2e-05,6
31268,32152,5.9999999999999995e-05,0.0,-2e-05,-7e-05,-0.00016999999999999999,0.00013000000000000002,0.00013000000000000002,2e-05,6
31269,32153,5.9999999999999995e-05,0.0,-2e-05,-7e-05,-0.00016999999999999999,0.00013000000000000002,0.00013000000000000002,2e-05,6
31270,32154,5.9999999999999995e-05,0.0,-2e-05,-7e-05,-0.00016999999999999999,0.00013000000000000002,0.00013000000000000002,2e-05,6
31271,32155,5.9999999999999995e-05,0.0,-2e-05,-7e-05,-0.00016999999999999999,0.00013000000000000002,0.00013000000000000002,2e-05,6
31272,32156,5.9999999999999995e-05,0.0,-2e-05,-7e-05,-0.00016999999999999999,0.00013000000000000002,0.00013000000000000002,2e-05,6
31273,32157,5.9999999999999995e-05,0.0,-2e-05,-7e-05,-0.00016999999999999999,0.00013000000000000002,0.00013000000000000002,2e-05,6
31274,32158,5.9999999999999995e-05,0.0,-2e-05,-7e-05,-0.00016999999999999999,0.00013000000000000002,0.00013000000000000002,2e-05,6
31275,32159,5.9999999999999995e-05,0.0,-2e-05,-7e-05,-0.00016999999999999999,0.00013000000000000002,0.00013000000000000002,2e-05,6
31276,32160,5.9999999999999995e-05,0.0,-2e-05,-7e-05,-0.00016999999999999999,0.00013000000000000002,0.00013000000000000002,2e-05,6
31277,32161,5.9999999999999995e-05,0.0,-2e-05,-7e-05,-0.00016999999999999999,0.00013000000000000002,0.00013000000000000002,2e-05,6
31278,32162,-0.0001,-1e-05,0.0,-4e-05,-0.00016999999999999999,2.9999999999999997e-05,9e-05,0.0,6
31279,32163,-0.0001,-1e-05,0.0,-4e-05,-0.00016999999999999999,2.9999999999999997e-05,9e-05,0.0,6
31280,32164,0.0,-4e-05,-2.9999999999999997e-05,-2e-05,-0.00013000000000000002,-0.00025,0.00011,5e-05,6
31281,32165,0.0,-4e-05,-2.9999999999999997e-05,-2e-05,-0.00013000000000000002,-0.00025,0.00011,5e-05,6
31282,32166,0.0,-4e-05,-2.9999999999999997e-05,-2e-05,-0.00013000000000000002,-0.00025,0.00011,5e-05,6
31283,32167,0.0,-4e-05,-2.9999999999999997e-05,-2e-05,-0.00013000000000000002,-0.00025,0.00011,5e-05,6
31284,32168,0.0,-4e-05,-2.9999999999999997e-05,-2e-05,-0.00013000000000000002,-0.00025,0.00011,5e-05,6
31285,32169,0.0,-4e-05,-2.9999999999999997e-05,-2e-05,-0.00013000000000000002,-0.00025,0.00011,5e-05,6
31286,32170,0.0,-4e-05,-2.9999999999999997e-05,-2e-05,-0.00013000000000000002,-0.00025,0.00011,5e-05,6
31287,32172,0.0,-4e-05,-2.9999999999999997e-05,-2e-05,-0.00013000000000000002,-0.00025,0.00011,5e-05,6
31288,32173,0.0,-4e-05,-2.9999999999999997e-05,-2e-05,-0.00013000000000000002,-0.00025,0.00011,5e-05,6
31289,32174,0.0,-4e-05,-2.9999999999999997e-05,-2e-05,-0.00013000000000000002,-0.00025,0.00011,5e-05,6
31290,32175,0.0,-4e-05,-2.9999999999999997e-05,-2e-05,-0.00013000000000000002,-0.00025,0.00011,5e-05,6
31291,32176,0.0,-4e-05,-2.9999999999999997e-05,-2e-05,-0.00013000000000000002,-0.00025,0.00011,5e-05,6
31292,32177,-5e-05,-4e-05,-5e-05,-2.9999999999999997e-05,0.00014,-0.00022,-2.9999999999999997e-05,8e-05,6
31293,32178,-5e-05,-4e-05,-5e-05,-2.9999999999999997e-05,0.00014,-0.00022,-2.9999999999999997e-05,8e-05,6
31294,32179,-0.00018999999999999998,2e-05,5e-05,2e-05,0.00011999999999999999,-0.00022,-0.00023999999999999998,-0.00031,6
31295,32180,-0.00018999999999999998,2e-05,5e-05,2e-05,0.00011999999999999999,-0.00022,-0.00023999999999999998,-0.00031,6
31296,32181,-0.00018999999999999998,2e-05,5e-05,2e-05,0.00011999999999999999,-0.00022,-0.00023999999999999998,-0.00031,6
31297,32182,-0.00018999999999999998,2e-05,5e-05,2e-05,0.00011999999999999999,-0.00022,-0.00023999999999999998,-0.00031,6
31298,32183,-0.00018999999999999998,2e-05,5e-05,2e-05,0.00011999999999999999,-0.00022,-0.00023999999999999998,-0.00031,6
31299,32184,-0.00018999999999999998,2e-05,5e-05,2e-05,0.00011999999999999999,-0.00022,-0.00023999999999999998,-0.00031,6
31300,32185,-0.00018999999999999998,2e-05,5e-05,2e-05,0.00011999999999999999,-0.00022,-0.00023999999999999998,-0.00031,6
31301,32186,-0.00018999999999999998,2e-05,5e-05,2e-05,0.00011999999999999999,-0.00022,-0.00023999999999999998,-0.00031,6
31302,32188,-0.00018999999999999998,2e-05,5e-05,2e-05,0.00011999999999999999,-0.00022,-0.00023999999999999998,-0.00031,6
31303,32189,-0.00018999999999999998,2e-05,5e-05,2e-05,0.00011999999999999999,-0.00022,-0.00023999999999999998,-0.00031,6
31304,32190,-0.00018999999999999998,2e-05,5e-05,2e-05,0.00011999999999999999,-0.00022,-0.00023999999999999998,-0.00031,6
31305,32191,-0.00018999999999999998,2e-05,5e-05,2e-05,0.00011999999999999999,-0.00022,-0.00023999999999999998,-0.00031,6
31306,32192,-0.00018999999999999998,2e-05,5e-05,2e-05,0.00011999999999999999,-0.00022,-0.00023999999999999998,-0.00031,6
31307,32193,-0.00018999999999999998,2e-05,5e-05,2e-05,0.00011999999999999999,-0.00022,-0.00023999999999999998,-0.00031,6
31308,32194,-0.00018999999999999998,2e-05,5e-05,2e-05,0.00011999999999999999,-0.00022,-0.00023999999999999998,-0.00031,6
31309,32195,-0.00018999999999999998,2e-05,5e-05,2e-05,0.00011999999999999999,-0.00022,-0.00023999999999999998,-0.00031,6
31310,32196,-0.00018999999999999998,2e-05,5e-05,2e-05,0.00011999999999999999,-0.00022,-0.00023999999999999998,-0.00031,6
31311,32197,-0.00018999999999999998,2e-05,5e-05,2e-05,0.00011999999999999999,-0.00022,-0.00023999999999999998,-0.00031,6
31312,32198,-0.00018999999999999998,2e-05,5e-05,2e-05,0.00011999999999999999,-0.00022,-0.00023999999999999998,-0.00031,6
31313,32199,-0.00018999999999999998,2e-05,5e-05,2e-05,0.00011999999999999999,-0.00022,-0.00023999999999999998,-0.00031,6
31314,32200,0.0,0.0,-2e-05,-5.9999999999999995e-05,-0.00013000000000000002,0.00015,-7e-05,-0.0002,6
31315,32201,8e-05,-4e-05,-2e-05,0.0,5e-05,-0.0001,2.9999999999999997e-05,0.00016,6
31316,32202,8e-05,-4e-05,-2e-05,0.0,5e-05,-0.0001,2.9999999999999997e-05,0.00016,6
31317,32203,8e-05,-4e-05,-2e-05,0.0,5e-05,-0.0001,2.9999999999999997e-05,0.00016,6
31318,32204,8e-05,-4e-05,-2e-05,0.0,5e-05,-0.0001,2.9999999999999997e-05,0.00016,6
31319,32205,8e-05,-4e-05,-2e-05,0.0,5e-05,-0.0001,2.9999999999999997e-05,0.00016,6
31320,32206,8e-05,-4e-05,-2e-05,0.0,5e-05,-0.0001,2.9999999999999997e-05,0.00016,6
31321,32207,8e-05,-4e-05,-2e-05,0.0,5e-05,-0.0001,2.9999999999999997e-05,0.00016,6
31322,32208,8e-05,-4e-05,-2e-05,0.0,5e-05,-0.0001,2.9999999999999997e-05,0.00016,6
31323,32209,8e-05,-4e-05,-2e-05,0.0,5e-05,-0.0001,2.9999999999999997e-05,0.00016,6
31324,32210,8e-05,-4e-05,-2e-05,0.0,5e-05,-0.0001,2.9999999999999997e-05,0.00016,6
31325,32211,8e-05,-4e-05,-2e-05,0.0,5e-05,-0.0001,2.9999999999999997e-05,0.00016,6
31326,32212,8e-05,-4e-05,-2e-05,0.0,5e-05,-0.0001,2.9999999999999997e-05,0.00016,6
31327,32213,8e-05,-4e-05,-2e-05,0.0,5e-05,-0.0001,2.9999999999999997e-05,0.00016,6
31328,32214,8e-05,-4e-05,-2e-05,0.0,5e-05,-0.0001,2.9999999999999997e-05,0.00016,6
31329,32215,8e-05,-4e-05,-2e-05,0.0,5e-05,-0.0001,2.9999999999999997e-05,0.00016,6
31330,32216,8e-05,-4e-05,-2e-05,0.0,5e-05,-0.0001,2.9999999999999997e-05,0.00016,6
31331,32217,8e-05,-4e-05,-2e-05,0.0,5e-05,-0.0001,2.9999999999999997e-05,0.00016,6
31332,32218,8e-05,-4e-05,-2e-05,0.0,5e-05,-0.0001,2.9999999999999997e-05,0.00016,6
31333,32219,8e-05,-4e-05,-2e-05,0.0,5e-05,-0.0001,2.9999999999999997e-05,0.00016,6
31334,32220,8e-05,-4e-05,-2e-05,0.0,5e-05,-0.0001,2.9999999999999997e-05,0.00016,6
31335,32221,8e-05,-4e-05,-2e-05,0.0,5e-05,-0.0001,2.9999999999999997e-05,0.00016,6
31336,32222,-4e-05,1e-05,2e-05,7e-05,0.00028,-0.00016999999999999999,-2e-05,-0.00011999999999999999,6
31337,32223,-4e-05,1e-05,2e-05,7e-05,0.00028,-0.00016999999999999999,-2e-05,-0.00011999999999999999,6
31338,32224,0.0002,2e-05,2e-05,2.9999999999999997e-05,5e-05,0.00062,-5.9999999999999995e-05,7e-05,6
31339,32225,0.0002,2e-05,2e-05,2.9999999999999997e-05,5e-05,0.00062,-5.9999999999999995e-05,7e-05,6
31340,32226,0.0002,2e-05,2e-05,2.9999999999999997e-05,5e-05,0.00062,-5.9999999999999995e-05,7e-05,6
31341,32227,0.0002,2e-05,2e-05,2.9999999999999997e-05,5e-05,0.00062,-5.9999999999999995e-05,7e-05,6
31342,32228,0.0002,2e-05,2e-05,2.9999999999999997e-05,5e-05,0.00062,-5.9999999999999995e-05,7e-05,6
31343,32229,0.0002,2e-05,2e-05,2.9999999999999997e-05,5e-05,0.00062,-5.9999999999999995e-05,7e-05,6
31344,32230,0.0002,2e-05,2e-05,2.9999999999999997e-05,5e-05,0.00062,-5.9999999999999995e-05,7e-05,6
31345,32231,0.0002,2e-05,2e-05,2.9999999999999997e-05,5e-05,0.00062,-5.9999999999999995e-05,7e-05,6
31346,32232,0.0002,2e-05,2e-05,2.9999999999999997e-05,5e-05,0.00062,-5.9999999999999995e-05,7e-05,6
31347,32233,0.0002,2e-05,2e-05,2.9999999999999997e-05,5e-05,0.00062,-5.9999999999999995e-05,7e-05,6
31348,32234,0.0002,2e-05,2e-05,2.9999999999999997e-05,5e-05,0.00062,-5.9999999999999995e-05,7e-05,6
31349,32235,0.0002,2e-05,2e-05,2.9999999999999997e-05,5e-05,0.00062,-5.9999999999999995e-05,7e-05,6
31350,32236,0.0002,2e-05,2e-05,2.9999999999999997e-05,5e-05,0.00062,-5.9999999999999995e-05,7e-05,6
31351,32238,-2.9999999999999997e-05,-2.9999999999999997e-05,-2.9999999999999997e-05,1e-05,0.00015,0.00026000000000000003,0.00011,-0.00015,6
31352,32239,-2.9999999999999997e-05,-2.9999999999999997e-05,-2.9999999999999997e-05,1e-05,0.00015,0.00026000000000000003,0.00011,-0.00015,6
31353,32240,-2.9999999999999997e-05,-2.9999999999999997e-05,-2.9999999999999997e-05,1e-05,0.00015,0.00026000000000000003,0.00011,-0.00015,6
31354,32241,-2.9999999999999997e-05,-2.9999999999999997e-05,-2.9999999999999997e-05,1e-05,0.00015,0.00026000000000000003,0.00011,-0.00015,6
31355,32242,-2.9999999999999997e-05,-2.9999999999999997e-05,-2.9999999999999997e-05,1e-05,0.00015,0.00026000000000000003,0.00011,-0.00015,6
31356,32243,-1e-05,-2.9999999999999997e-05,-7e-05,-0.00011,-7e-05,0.00015,1e-05,5.9999999999999995e-05,6
31357,32245,-1e-05,-2.9999999999999997e-05,-7e-05,-0.00011,-7e-05,0.00015,1e-05,5.9999999999999995e-05,6
31358,32246,-1e-05,-2.9999999999999997e-05,-7e-05,-0.00011,-7e-05,0.00015,1e-05,5.9999999999999995e-05,6
31359,32247,-1e-05,-2.9999999999999997e-05,-7e-05,-0.00011,-7e-05,0.00015,1e-05,5.9999999999999995e-05,6
31360,32248,-1e-05,-2.9999999999999997e-05,-7e-05,-0.00011,-7e-05,0.00015,1e-05,5.9999999999999995e-05,6
31361,32249,-1e-05,-2.9999999999999997e-05,-7e-05,-0.00011,-7e-05,0.00015,1e-05,5.9999999999999995e-05,6
31362,32250,-1e-05,-2.9999999999999997e-05,-7e-05,-0.00011,-7e-05,0.00015,1e-05,5.9999999999999995e-05,6
31363,32251,-1e-05,-2.9999999999999997e-05,-7e-05,-0.00011,-7e-05,0.00015,1e-05,5.9999999999999995e-05,6
31364,32252,-1e-05,-2.9999999999999997e-05,-7e-05,-0.00011,-7e-05,0.00015,1e-05,5.9999999999999995e-05,6
31365,32253,-1e-05,-2.9999999999999997e-05,-7e-05,-0.00011,-7e-05,0.00015,1e-05,5.9999999999999995e-05,6
31366,32254,-1e-05,-2.9999999999999997e-05,-7e-05,-0.00011,-7e-05,0.00015,1e-05,5.9999999999999995e-05,6
31367,32255,-1e-05,-2.9999999999999997e-05,-7e-05,-0.00011,-7e-05,0.00015,1e-05,5.9999999999999995e-05,6
31368,32256,-1e-05,-2.9999999999999997e-05,-7e-05,-0.00011,-7e-05,0.00015,1e-05,5.9999999999999995e-05,6
31369,32257,-1e-05,-2.9999999999999997e-05,-7e-05,-0.00011,-7e-05,0.00015,1e-05,5.9999999999999995e-05,6
31370,32258,-1e-05,-2.9999999999999997e-05,-7e-05,-0.00011,-7e-05,0.00015,1e-05,5.9999999999999995e-05,6
31371,32259,-7e-05,0.0,-1e-05,-2.9999999999999997e-05,-0.00027,-0.0001,-0.00011,-0.00025,6
31372,32260,-7e-05,0.0,-1e-05,-2.9999999999999997e-05,-0.00027,-0.0001,-0.00011,-0.00025,6
31373,32261,-7e-05,0.0,-1e-05,-2.9999999999999997e-05,-0.00027,-0.0001,-0.00011,-0.00025,6
31374,32262,-7e-05,0.0,-1e-05,-2.9999999999999997e-05,-0.00027,-0.0001,-0.00011,-0.00025,6
31375,32263,-7e-05,0.0,-1e-05,-2.9999999999999997e-05,-0.00027,-0.0001,-0.00011,-0.00025,6
31376,32264,-7e-05,0.0,-1e-05,-2.9999999999999997e-05,-0.00027,-0.0001,-0.00011,-0.00025,6
31377,32265,-7e-05,0.0,-1e-05,-2.9999999999999997e-05,-0.00027,-0.0001,-0.00011,-0.00025,6
31378,32266,-7e-05,0.0,-1e-05,-2.9999999999999997e-05,-0.00027,-0.0001,-0.00011,-0.00025,6
31379,32267,0.0,2e-05,2.9999999999999997e-05,2.9999999999999997e-05,7e-05,-2.9999999999999997e-05,-0.00013000000000000002,-2e-05,6
31380,32268,0.0,2e-05,2.9999999999999997e-05,2.9999999999999997e-05,7e-05,-2.9999999999999997e-05,-0.00013000000000000002,-2e-05,6
31381,32269,0.0,2e-05,2.9999999999999997e-05,2.9999999999999997e-05,7e-05,-2.9999999999999997e-05,-0.00013000000000000002,-2e-05,6
31382,32270,0.0,2e-05,2.9999999999999997e-05,2.9999999999999997e-05,7e-05,-2.9999999999999997e-05,-0.00013000000000000002,-2e-05,6
31383,32271,0.0,2e-05,2.9999999999999997e-05,2.9999999999999997e-05,7e-05,-2.9999999999999997e-05,-0.00013000000000000002,-2e-05,6
31384,32272,0.0,2e-05,2.9999999999999997e-05,2.9999999999999997e-05,7e-05,-2.9999999999999997e-05,-0.00013000000000000002,-2e-05,6
31385,32273,0.0,2e-05,2.9999999999999997e-05,2.9999999999999997e-05,7e-05,-2.9999999999999997e-05,-0.00013000000000000002,-2e-05,6
31386,32274,0.0,2e-05,2.9999999999999997e-05,2.9999999999999997e-05,7e-05,-2.9999999999999997e-05,-0.00013000000000000002,-2e-05,6
31387,32275,0.0,2e-05,2.9999999999999997e-05,2.9999999999999997e-05,7e-05,-2.9999999999999997e-05,-0.00013000000000000002,-2e-05,6
31388,32276,0.0,2e-05,2.9999999999999997e-05,2.9999999999999997e-05,7e-05,-2.9999999999999997e-05,-0.00013000000000000002,-2e-05,6
31389,32277,0.0,2e-05,2.9999999999999997e-05,2.9999999999999997e-05,7e-05,-2.9999999999999997e-05,-0.00013000000000000002,-2e-05,6
31390,32278,0.0,2e-05,2.9999999999999997e-05,2.9999999999999997e-05,7e-05,-2.9999999999999997e-05,-0.00013000000000000002,-2e-05,6
31391,32279,0.0,2e-05,2.9999999999999997e-05,2.9999999999999997e-05,7e-05,-2.9999999999999997e-05,-0.00013000000000000002,-2e-05,6
31392,32280,0.0,2e-05,2.9999999999999997e-05,2.9999999999999997e-05,7e-05,-2.9999999999999997e-05,-0.00013000000000000002,-2e-05,6
31393,32281,0.0,2e-05,2.9999999999999997e-05,2.9999999999999997e-05,7e-05,-2.9999999999999997e-05,-0.00013000000000000002,-2e-05,6
31394,32282,1e-05,1e-05,1e-05,5.9999999999999995e-05,-2e-05,-0.00018999999999999998,-7e-05,2e-05,6
31395,32283,1e-05,1e-05,1e-05,5.9999999999999995e-05,-2e-05,-0.00018999999999999998,-7e-05,2e-05,6
31396,32284,-2e-05,-2e-05,-1e-05,1e-05,8e-05,-0.00013000000000000002,-1e-05,-5.9999999999999995e-05,6
31397,32285,-2e-05,-2e-05,-1e-05,1e-05,8e-05,-0.00013000000000000002,-1e-05,-5.9999999999999995e-05,6
31398,32286,-2e-05,-2e-05,-1e-05,1e-05,8e-05,-0.00013000000000000002,-1e-05,-5.9999999999999995e-05,6
31399,32289,-2e-05,-2e-05,-1e-05,1e-05,8e-05,-0.00013000000000000002,-1e-05,-5.9999999999999995e-05,6
31400,32290,-2e-05,-2e-05,-1e-05,1e-05,8e-05,-0.00013000000000000002,-1e-05,-5.9999999999999995e-05,6
31401,32291,-2e-05,-2e-05,-1e-05,1e-05,8e-05,-0.00013000000000000002,-1e-05,-5.9999999999999995e-05,6
31402,32292,-2e-05,-2e-05,-1e-05,1e-05,8e-05,-0.00013000000000000002,-1e-05,-5.9999999999999995e-05,6
31403,32293,-2e-05,-2e-05,-1e-05,1e-05,8e-05,-0.00013000000000000002,-1e-05,-5.9999999999999995e-05,6
31404,32294,-2e-05,-2e-05,-1e-05,1e-05,8e-05,-0.00013000000000000002,-1e-05,-5.9999999999999995e-05,6
31405,32295,-2e-05,-2e-05,-1e-05,1e-05,8e-05,-0.00013000000000000002,-1e-05,-5.9999999999999995e-05,6
31406,32296,-2e-05,-2e-05,-1e-05,1e-05,8e-05,-0.00013000000000000002,-1e-05,-5.9999999999999995e-05,6
31407,32297,1e-05,0.0,-1e-05,-1e-05,-0.00016,-0.00031,-5.9999999999999995e-05,0.00013000000000000002,6
31408,32298,1e-05,0.0,-1e-05,-1e-05,-0.00016,-0.00031,-5.9999999999999995e-05,0.00013000000000000002,6
31409,32299,1e-05,0.0,-1e-05,-1e-05,-0.00016,-0.00031,-5.9999999999999995e-05,0.00013000000000000002,6
31410,32300,1e-05,0.0,-1e-05,-1e-05,-0.00016,-0.00031,-5.9999999999999995e-05,0.00013000000000000002,6
31411,32301,1e-05,0.0,-1e-05,-1e-05,-0.00016,-0.00031,-5.9999999999999995e-05,0.00013000000000000002,6
31412,32302,1e-05,0.0,-1e-05,-1e-05,-0.00016,-0.00031,-5.9999999999999995e-05,0.00013000000000000002,6
31413,32303,0.00029,4e-05,-1e-05,-2e-05,1e-05,0.00033999999999999997,5e-05,0.00028,6
31414,32304,-2.9999999999999997e-05,-2.9999999999999997e-05,-5e-05,-4e-05,-0.00016,-0.00021,2e-05,-2.9999999999999997e-05,6
31415,32305,-2.9999999999999997e-05,-2.9999999999999997e-05,-5e-05,-4e-05,-0.00016,-0.00021,2e-05,-2.9999999999999997e-05,6
31416,32306,-2.9999999999999997e-05,-2.9999999999999997e-05,-5e-05,-4e-05,-0.00016,-0.00021,2e-05,-2.9999999999999997e-05,6
31417,32307,-2.9999999999999997e-05,-2.9999999999999997e-05,-5e-05,-4e-05,-0.00016,-0.00021,2e-05,-2.9999999999999997e-05,6
31418,32308,-2.9999999999999997e-05,-2.9999999999999997e-05,-5e-05,-4e-05,-0.00016,-0.00021,2e-05,-2.9999999999999997e-05,6
31419,32309,-2.9999999999999997e-05,-2.9999999999999997e-05,-5e-05,-4e-05,-0.00016,-0.00021,2e-05,-2.9999999999999997e-05,6
31420,32310,-2.9999999999999997e-05,-2.9999999999999997e-05,-5e-05,-4e-05,-0.00016,-0.00021,2e-05,-2.9999999999999997e-05,6
31421,32311,-2.9999999999999997e-05,-2.9999999999999997e-05,-5e-05,-4e-05,-0.00016,-0.00021,2e-05,-2.9999999999999997e-05,6
31422,32312,-2.9999999999999997e-05,-2.9999999999999997e-05,-5e-05,-4e-05,-0.00016,-0.00021,2e-05,-2.9999999999999997e-05,6
31423,32313,-2.9999999999999997e-05,-2.9999999999999997e-05,-5e-05,-4e-05,-0.00016,-0.00021,2e-05,-2.9999999999999997e-05,6
31424,32314,-2.9999999999999997e-05,-2.9999999999999997e-05,-5e-05,-4e-05,-0.00016,-0.00021,2e-05,-2.9999999999999997e-05,6
31425,32315,-2.9999999999999997e-05,-2.9999999999999997e-05,-5e-05,-4e-05,-0.00016,-0.00021,2e-05,-2.9999999999999997e-05,6
31426,32316,-2.9999999999999997e-05,-2.9999999999999997e-05,-5e-05,-4e-05,-0.00016,-0.00021,2e-05,-2.9999999999999997e-05,6
31427,32317,-2.9999999999999997e-05,-2.9999999999999997e-05,-5e-05,-4e-05,-0.00016,-0.00021,2e-05,-2.9999999999999997e-05,6
31428,32318,-2.9999999999999997e-05,-2.9999999999999997e-05,-5e-05,-4e-05,-0.00016,-0.00021,2e-05,-2.9999999999999997e-05,6
31429,32319,-2.9999999999999997e-05,-2.9999999999999997e-05,-5e-05,-4e-05,-0.00016,-0.00021,2e-05,-2.9999999999999997e-05,6
31430,32320,0.00023999999999999998,2e-05,2.9999999999999997e-05,5e-05,0.00015,-0.00018999999999999998,2e-05,8e-05,6
31431,32321,-5.9999999999999995e-05,-4e-05,-2e-05,1e-05,-1e-05,-0.00033,4e-05,-5.9999999999999995e-05,6
31432,32322,-5.9999999999999995e-05,-4e-05,-2e-05,1e-05,-1e-05,-0.00033,4e-05,-5.9999999999999995e-05,6
31433,32323,-5.9999999999999995e-05,-4e-05,-2e-05,1e-05,-1e-05,-0.00033,4e-05,-5.9999999999999995e-05,6
31434,32324,-5.9999999999999995e-05,-4e-05,-2e-05,1e-05,-1e-05,-0.00033,4e-05,-5.9999999999999995e-05,6
31435,32325,-5.9999999999999995e-05,-4e-05,-2e-05,1e-05,-1e-05,-0.00033,4e-05,-5.9999999999999995e-05,6
31436,32326,-5.9999999999999995e-05,-4e-05,-2e-05,1e-05,-1e-05,-0.00033,4e-05,-5.9999999999999995e-05,6
31437,32327,-5.9999999999999995e-05,-4e-05,-2e-05,1e-05,-1e-05,-0.00033,4e-05,-5.9999999999999995e-05,6
31438,32328,-5.9999999999999995e-05,-4e-05,-2e-05,1e-05,-1e-05,-0.00033,4e-05,-5.9999999999999995e-05,6
31439,32329,-5.9999999999999995e-05,-4e-05,-2e-05,1e-05,-1e-05,-0.00033,4e-05,-5.9999999999999995e-05,6
31440,32330,-5.9999999999999995e-05,-4e-05,-2e-05,1e-05,-1e-05,-0.00033,4e-05,-5.9999999999999995e-05,6
31441,32331,-5.9999999999999995e-05,-4e-05,-2e-05,1e-05,-1e-05,-0.00033,4e-05,-5.9999999999999995e-05,6
31442,32332,-5.9999999999999995e-05,-4e-05,-2e-05,1e-05,-1e-05,-0.00033,4e-05,-5.9999999999999995e-05,6
31443,32333,-5.9999999999999995e-05,-4e-05,-2e-05,1e-05,-1e-05,-0.00033,4e-05,-5.9999999999999995e-05,6
31444,32334,-5.9999999999999995e-05,-4e-05,-2e-05,1e-05,-1e-05,-0.00033,4e-05,-5.9999999999999995e-05,6
31445,32335,-5.9999999999999995e-05,-4e-05,-2e-05,1e-05,-1e-05,-0.00033,4e-05,-5.9999999999999995e-05,6
31446,32336,-5.9999999999999995e-05,-4e-05,-2e-05,1e-05,-1e-05,-0.00033,4e-05,-5.9999999999999995e-05,6
31447,32338,-5.9999999999999995e-05,-4e-05,-2e-05,1e-05,-1e-05,-0.00033,4e-05,-5.9999999999999995e-05,6
31448,32339,-5.9999999999999995e-05,-4e-05,-2e-05,1e-05,-1e-05,-0.00033,4e-05,-5.9999999999999995e-05,6
31449,32340,-5.9999999999999995e-05,-4e-05,-2e-05,1e-05,-1e-05,-0.00033,4e-05,-5.9999999999999995e-05,6
31450,32341,-5.9999999999999995e-05,-4e-05,-2e-05,1e-05,-1e-05,-0.00033,4e-05,-5.9999999999999995e-05,6
31451,32342,-4e-05,-2.9999999999999997e-05,-2e-05,-0.0001,2.9999999999999997e-05,0.00041,0.00011999999999999999,-8e-05,6
31452,32343,-4e-05,-2.9999999999999997e-05,-2e-05,-0.0001,2.9999999999999997e-05,0.00041,0.00011999999999999999,-8e-05,6
31453,32344,2.9999999999999997e-05,1e-05,2.9999999999999997e-05,4e-05,0.00021,0.00026000000000000003,0.0,1e-05,6
31454,32345,2.9999999999999997e-05,1e-05,2.9999999999999997e-05,4e-05,0.00021,0.00026000000000000003,0.0,1e-05,6
31455,32346,2.9999999999999997e-05,1e-05,2.9999999999999997e-05,4e-05,0.00021,0.00026000000000000003,0.0,1e-05,6
31456,32347,2.9999999999999997e-05,1e-05,2.9999999999999997e-05,4e-05,0.00021,0.00026000000000000003,0.0,1e-05,6
31457,32348,2.9999999999999997e-05,1e-05,2.9999999999999997e-05,4e-05,0.00021,0.00026000000000000003,0.0,1e-05,6
31458,32349,2.9999999999999997e-05,1e-05,2.9999999999999997e-05,4e-05,0.00021,0.00026000000000000003,0.0,1e-05,6
31459,32350,2.9999999999999997e-05,1e-05,2.9999999999999997e-05,4e-05,0.00021,0.00026000000000000003,0.0,1e-05,6
31460,32351,2.9999999999999997e-05,1e-05,2.9999999999999997e-05,4e-05,0.00021,0.00026000000000000003,0.0,1e-05,6
31461,32352,2.9999999999999997e-05,1e-05,2.9999999999999997e-05,4e-05,0.00021,0.00026000000000000003,0.0,1e-05,6
31462,32353,2.9999999999999997e-05,1e-05,2.9999999999999997e-05,4e-05,0.00021,0.00026000000000000003,0.0,1e-05,6
31463,32354,2.9999999999999997e-05,1e-05,2.9999999999999997e-05,4e-05,0.00021,0.00026000000000000003,0.0,1e-05,6
31464,32355,2.9999999999999997e-05,1e-05,2.9999999999999997e-05,4e-05,0.00021,0.00026000000000000003,0.0,1e-05,6
31465,32356,2.9999999999999997e-05,1e-05,2.9999999999999997e-05,4e-05,0.00021,0.00026000000000000003,0.0,1e-05,6
31466,32357,1e-05,-2.9999999999999997e-05,-0.0001,-0.00016,-0.00029,-0.00026000000000000003,-2e-05,5e-05,6
31467,32358,1e-05,-2.9999999999999997e-05,-0.0001,-0.00016,-0.00029,-0.00026000000000000003,-2e-05,5e-05,6
31468,32359,1e-05,-2.9999999999999997e-05,-0.0001,-0.00016,-0.00029,-0.00026000000000000003,-2e-05,5e-05,6
31469,32360,1e-05,-2.9999999999999997e-05,-0.0001,-0.00016,-0.00029,-0.00026000000000000003,-2e-05,5e-05,6
31470,32361,1e-05,-2.9999999999999997e-05,-0.0001,-0.00016,-0.00029,-0.00026000000000000003,-2e-05,5e-05,6
31471,32362,1e-05,-2.9999999999999997e-05,-0.0001,-0.00016,-0.00029,-0.00026000000000000003,-2e-05,5e-05,6
31472,32363,2e-05,0.0,0.0,4e-05,0.00013000000000000002,5.9999999999999995e-05,-5e-05,-0.0001,6
31473,32365,2e-05,0.0,0.0,4e-05,0.00013000000000000002,5.9999999999999995e-05,-5e-05,-0.0001,6
31474,32366,2e-05,0.0,0.0,4e-05,0.00013000000000000002,5.9999999999999995e-05,-5e-05,-0.0001,6
31475,32367,2e-05,0.0,0.0,4e-05,0.00013000000000000002,5.9999999999999995e-05,-5e-05,-0.0001,6
31476,32368,2e-05,0.0,0.0,4e-05,0.00013000000000000002,5.9999999999999995e-05,-5e-05,-0.0001,6
31477,32369,2e-05,0.0,0.0,4e-05,0.00013000000000000002,5.9999999999999995e-05,-5e-05,-0.0001,6
31478,32370,2e-05,0.0,0.0,4e-05,0.00013000000000000002,5.9999999999999995e-05,-5e-05,-0.0001,6
31479,32371,2e-05,0.0,0.0,4e-05,0.00013000000000000002,5.9999999999999995e-05,-5e-05,-0.0001,6
31480,32372,2e-05,0.0,0.0,4e-05,0.00013000000000000002,5.9999999999999995e-05,-5e-05,-0.0001,6
31481,32373,2e-05,0.0,0.0,4e-05,0.00013000000000000002,5.9999999999999995e-05,-5e-05,-0.0001,6
31482,32374,2e-05,0.0,0.0,4e-05,0.00013000000000000002,5.9999999999999995e-05,-5e-05,-0.0001,6
31483,32375,2e-05,0.0,0.0,4e-05,0.00013000000000000002,5.9999999999999995e-05,-5e-05,-0.0001,6
31484,32376,2e-05,0.0,0.0,4e-05,0.00013000000000000002,5.9999999999999995e-05,-5e-05,-0.0001,6
31485,32377,2e-05,0.0,0.0,4e-05,0.00013000000000000002,5.9999999999999995e-05,-5e-05,-0.0001,6
31486,32378,2e-05,0.0,0.0,4e-05,0.00013000000000000002,5.9999999999999995e-05,-5e-05,-0.0001,6
31487,32379,2e-05,0.0,0.0,4e-05,0.00013000000000000002,5.9999999999999995e-05,-5e-05,-0.0001,6
31488,32380,-2.9999999999999997e-05,-4e-05,-2.9999999999999997e-05,-5.9999999999999995e-05,-2.9999999999999997e-05,-0.00021,-0.00011,-8e-05,6
31489,32381,-9e-05,-1e-05,-2e-05,2e-05,-2.9999999999999997e-05,-5.9999999999999995e-05,9e-05,-5.9999999999999995e-05,6
31490,32382,-9e-05,-1e-05,-2e-05,2e-05,-2.9999999999999997e-05,-5.9999999999999995e-05,9e-05,-5.9999999999999995e-05,6
31491,32383,-9e-05,-1e-05,-2e-05,2e-05,-2.9999999999999997e-05,-5.9999999999999995e-05,9e-05,-5.9999999999999995e-05,6
31492,32384,-9e-05,-1e-05,-2e-05,2e-05,-2.9999999999999997e-05,-5.9999999999999995e-05,9e-05,-5.9999999999999995e-05,6
31493,32385,-9e-05,-1e-05,-2e-05,2e-05,-2.9999999999999997e-05,-5.9999999999999995e-05,9e-05,-5.9999999999999995e-05,6
31494,32386,-9e-05,-1e-05,-2e-05,2e-05,-2.9999999999999997e-05,-5.9999999999999995e-05,9e-05,-5.9999999999999995e-05,6
31495,32389,-9e-05,-1e-05,-2e-05,2e-05,-2.9999999999999997e-05,-5.9999999999999995e-05,9e-05,-5.9999999999999995e-05,6
31496,32390,-9e-05,-1e-05,-2e-05,2e-05,-2.9999999999999997e-05,-5.9999999999999995e-05,9e-05,-5.9999999999999995e-05,6
31497,32391,-9e-05,-1e-05,-2e-05,2e-05,-2.9999999999999997e-05,-5.9999999999999995e-05,9e-05,-5.9999999999999995e-05,6
31498,32392,-9e-05,-1e-05,-2e-05,2e-05,-2.9999999999999997e-05,-5.9999999999999995e-05,9e-05,-5.9999999999999995e-05,6
31499,32393,-9e-05,-1e-05,-2e-05,2e-05,-2.9999999999999997e-05,-5.9999999999999995e-05,9e-05,-5.9999999999999995e-05,6
31500,32394,-9e-05,-1e-05,-2e-05,2e-05,-2.9999999999999997e-05,-5.9999999999999995e-05,9e-05,-5.9999999999999995e-05,6
31501,32395,-9e-05,-1e-05,-2e-05,2e-05,-2.9999999999999997e-05,-5.9999999999999995e-05,9e-05,-5.9999999999999995e-05,6
31502,32396,-9e-05,-1e-05,-2e-05,2e-05,-2.9999999999999997e-05,-5.9999999999999995e-05,9e-05,-5.9999999999999995e-05,6
31503,32397,-9e-05,-1e-05,-2e-05,2e-05,-2.9999999999999997e-05,-5.9999999999999995e-05,9e-05,-5.9999999999999995e-05,6
31504,32398,-9e-05,-1e-05,-2e-05,2e-05,-2.9999999999999997e-05,-5.9999999999999995e-05,9e-05,-5.9999999999999995e-05,6
31505,32399,-9e-05,-1e-05,-2e-05,2e-05,-2.9999999999999997e-05,-5.9999999999999995e-05,9e-05,-5.9999999999999995e-05,6
31506,32400,-9e-05,-1e-05,-2e-05,2e-05,-2.9999999999999997e-05,-5.9999999999999995e-05,9e-05,-5.9999999999999995e-05,6
31507,32401,-9e-05,-1e-05,-2e-05,2e-05,-2.9999999999999997e-05,-5.9999999999999995e-05,9e-05,-5.9999999999999995e-05,6
31508,32402,-1e-05,-4e-05,-2e-05,0.0,9e-05,0.00014,0.0,5e-05,6
31509,32403,-1e-05,-4e-05,-2e-05,0.0,9e-05,0.00014,0.0,5e-05,6
31510,32404,2.9999999999999997e-05,1e-05,-1e-05,-2e-05,-7e-05,-0.00035,-5.9999999999999995e-05,-0.0001,6
31511,32405,2.9999999999999997e-05,1e-05,-1e-05,-2e-05,-7e-05,-0.00035,-5.9999999999999995e-05,-0.0001,6
31512,32406,2.9999999999999997e-05,1e-05,-1e-05,-2e-05,-7e-05,-0.00035,-5.9999999999999995e-05,-0.0001,6
31513,32407,2.9999999999999997e-05,1e-05,-1e-05,-2e-05,-7e-05,-0.00035,-5.9999999999999995e-05,-0.0001,6
31514,32408,2.9999999999999997e-05,1e-05,-1e-05,-2e-05,-7e-05,-0.00035,-5.9999999999999995e-05,-0.0001,6
31515,32409,2.9999999999999997e-05,1e-05,-1e-05,-2e-05,-7e-05,-0.00035,-5.9999999999999995e-05,-0.0001,6
31516,32410,2.9999999999999997e-05,1e-05,-1e-05,-2e-05,-7e-05,-0.00035,-5.9999999999999995e-05,-0.0001,6
31517,32411,2.9999999999999997e-05,1e-05,-1e-05,-2e-05,-7e-05,-0.00035,-5.9999999999999995e-05,-0.0001,6
31518,32412,2.9999999999999997e-05,1e-05,-1e-05,-2e-05,-7e-05,-0.00035,-5.9999999999999995e-05,-0.0001,6
31519,32413,2.9999999999999997e-05,1e-05,-1e-05,-2e-05,-7e-05,-0.00035,-5.9999999999999995e-05,-0.0001,6
31520,32414,2.9999999999999997e-05,1e-05,-1e-05,-2e-05,-7e-05,-0.00035,-5.9999999999999995e-05,-0.0001,6
31521,32415,2.9999999999999997e-05,1e-05,-1e-05,-2e-05,-7e-05,-0.00035,-5.9999999999999995e-05,-0.0001,6
31522,32416,0.0,1e-05,-2e-05,4e-05,0.00027,0.00011,-2e-05,4e-05,6
31523,32417,0.0,1e-05,-2e-05,4e-05,0.00027,0.00011,-2e-05,4e-05,6
31524,32418,0.0,1e-05,-2e-05,4e-05,0.00027,0.00011,-2e-05,4e-05,6
31525,32419,0.0,1e-05,-2e-05,4e-05,0.00027,0.00011,-2e-05,4e-05,6
31526,32420,0.0,1e-05,-2e-05,4e-05,0.00027,0.00011,-2e-05,4e-05,6
31527,32421,0.0,1e-05,-2e-05,4e-05,0.00027,0.00011,-2e-05,4e-05,6
31528,32422,0.0,1e-05,-2e-05,4e-05,0.00027,0.00011,-2e-05,4e-05,6
31529,32423,0.0,1e-05,-2e-05,4e-05,0.00027,0.00011,-2e-05,4e-05,6
31530,32424,-0.00016,-2e-05,-2.9999999999999997e-05,-9e-05,-0.00018999999999999998,0.00054,0.00018999999999999998,-4e-05,6
31531,32425,-0.00016,-2e-05,-2.9999999999999997e-05,-9e-05,-0.00018999999999999998,0.00054,0.00018999999999999998,-4e-05,6
31532,32426,-0.00016,-2e-05,-2.9999999999999997e-05,-9e-05,-0.00018999999999999998,0.00054,0.00018999999999999998,-4e-05,6
31533,32427,-0.00016,-2e-05,-2.9999999999999997e-05,-9e-05,-0.00018999999999999998,0.00054,0.00018999999999999998,-4e-05,6
31534,32428,-0.00016,-2e-05,-2.9999999999999997e-05,-9e-05,-0.00018999999999999998,0.00054,0.00018999999999999998,-4e-05,6
31535,32429,-0.00016,-2e-05,-2.9999999999999997e-05,-9e-05,-0.00018999999999999998,0.00054,0.00018999999999999998,-4e-05,6
31536,32430,-0.00016,-2e-05,-2.9999999999999997e-05,-9e-05,-0.00018999999999999998,0.00054,0.00018999999999999998,-4e-05,6
31537,32432,-0.00016,-2e-05,-2.9999999999999997e-05,-9e-05,-0.00018999999999999998,0.00054,0.00018999999999999998,-4e-05,6
31538,32433,-0.00016,-2e-05,-2.9999999999999997e-05,-9e-05,-0.00018999999999999998,0.00054,0.00018999999999999998,-4e-05,6
31539,32434,-0.00016,-2e-05,-2.9999999999999997e-05,-9e-05,-0.00018999999999999998,0.00054,0.00018999999999999998,-4e-05,6
31540,32435,-0.00016,-2e-05,-2.9999999999999997e-05,-9e-05,-0.00018999999999999998,0.00054,0.00018999999999999998,-4e-05,6
31541,32436,-0.00016,-2e-05,-2.9999999999999997e-05,-9e-05,-0.00018999999999999998,0.00054,0.00018999999999999998,-4e-05,6
31542,32439,-0.00016,-2e-05,-2.9999999999999997e-05,-9e-05,-0.00018999999999999998,0.00054,0.00018999999999999998,-4e-05,6
31543,32440,-0.00016,-2e-05,-2.9999999999999997e-05,-9e-05,-0.00018999999999999998,0.00054,0.00018999999999999998,-4e-05,6
31544,32441,-0.00016,-2e-05,-2.9999999999999997e-05,-9e-05,-0.00018999999999999998,0.00054,0.00018999999999999998,-4e-05,6
31545,32442,-0.00016,-2e-05,-2.9999999999999997e-05,-9e-05,-0.00018999999999999998,0.00054,0.00018999999999999998,-4e-05,6
31546,32443,-0.00016,-2e-05,-2.9999999999999997e-05,-9e-05,-0.00018999999999999998,0.00054,0.00018999999999999998,-4e-05,6
31547,32444,-0.00016,-2e-05,-2.9999999999999997e-05,-9e-05,-0.00018999999999999998,0.00054,0.00018999999999999998,-4e-05,6
31548,32445,-0.00016,-2e-05,-2.9999999999999997e-05,-9e-05,-0.00018999999999999998,0.00054,0.00018999999999999998,-4e-05,6
31549,32446,-0.00016,-2e-05,-2.9999999999999997e-05,-9e-05,-0.00018999999999999998,0.00054,0.00018999999999999998,-4e-05,6
31550,32447,0.00016,1e-05,0.0,-2.9999999999999997e-05,-0.00022,-0.00018999999999999998,-1e-05,-0.0001,6
31551,32448,0.0,0.0,-2e-05,-5.9999999999999995e-05,-8e-05,-0.00031,-1e-05,-1e-05,6
31552,32449,0.0,0.0,-2e-05,-5.9999999999999995e-05,-8e-05,-0.00031,-1e-05,-1e-05,6
31553,32450,0.0,0.0,-2e-05,-5.9999999999999995e-05,-8e-05,-0.00031,-1e-05,-1e-05,6
31554,32451,0.0,0.0,-2e-05,-5.9999999999999995e-05,-8e-05,-0.00031,-1e-05,-1e-05,6
31555,32452,0.0,0.0,-2e-05,-5.9999999999999995e-05,-8e-05,-0.00031,-1e-05,-1e-05,6
31556,32453,0.0,0.0,-2e-05,-5.9999999999999995e-05,-8e-05,-0.00031,-1e-05,-1e-05,6
31557,32454,0.0,0.0,-2e-05,-5.9999999999999995e-05,-8e-05,-0.00031,-1e-05,-1e-05,6
31558,32455,0.0,0.0,-2e-05,-5.9999999999999995e-05,-8e-05,-0.00031,-1e-05,-1e-05,6
31559,32456,0.0,0.0,-2e-05,-5.9999999999999995e-05,-8e-05,-0.00031,-1e-05,-1e-05,6
31560,32457,0.0,0.0,-2e-05,-5.9999999999999995e-05,-8e-05,-0.00031,-1e-05,-1e-05,6
31561,32458,0.0,0.0,-2e-05,-5.9999999999999995e-05,-8e-05,-0.00031,-1e-05,-1e-05,6
31562,32459,0.0,0.0,-2e-05,-5.9999999999999995e-05,-8e-05,-0.00031,-1e-05,-1e-05,6
31563,32460,0.0,0.0,-2e-05,-5.9999999999999995e-05,-8e-05,-0.00031,-1e-05,-1e-05,6
31564,32461,0.0,0.0,-2e-05,-5.9999999999999995e-05,-8e-05,-0.00031,-1e-05,-1e-05,6
31565,32462,0.0001,-1e-05,0.0,1e-05,4e-05,0.00023999999999999998,-1e-05,0.0001,6
31566,32463,0.0001,-1e-05,0.0,1e-05,4e-05,0.00023999999999999998,-1e-05,0.0001,6
31567,32464,0.0001,-1e-05,0.0,1e-05,4e-05,0.00023999999999999998,-1e-05,0.0001,6
31568,32465,0.0001,-1e-05,0.0,1e-05,4e-05,0.00023999999999999998,-1e-05,0.0001,6
31569,32466,0.0001,-1e-05,0.0,1e-05,4e-05,0.00023999999999999998,-1e-05,0.0001,6
31570,32467,0.0001,-1e-05,0.0,1e-05,4e-05,0.00023999999999999998,-1e-05,0.0001,6
31571,32468,0.0001,-1e-05,0.0,1e-05,4e-05,0.00023999999999999998,-1e-05,0.0001,6
31572,32469,0.0001,-1e-05,0.0,1e-05,4e-05,0.00023999999999999998,-1e-05,0.0001,6
31573,32470,0.0001,-1e-05,0.0,1e-05,4e-05,0.00023999999999999998,-1e-05,0.0001,6
31574,32471,0.0001,-1e-05,0.0,1e-05,4e-05,0.00023999999999999998,-1e-05,0.0001,6
31575,32472,0.0001,-1e-05,0.0,1e-05,4e-05,0.00023999999999999998,-1e-05,0.0001,6
31576,32473,0.0001,-1e-05,0.0,1e-05,4e-05,0.00023999999999999998,-1e-05,0.0001,6
31577,32474,0.0001,-1e-05,0.0,1e-05,4e-05,0.00023999999999999998,-1e-05,0.0001,6
31578,32475,0.0001,-1e-05,0.0,1e-05,4e-05,0.00023999999999999998,-1e-05,0.0001,6
31579,32476,0.0,-2e-05,2e-05,0.0001,5e-05,0.0005,8e-05,0.00013000000000000002,6
31580,32477,0.0,-2e-05,2e-05,0.0001,5e-05,0.0005,8e-05,0.00013000000000000002,6
31581,32478,0.0,-2e-05,2e-05,0.0001,5e-05,0.0005,8e-05,0.00013000000000000002,6
31582,32479,0.0,-2e-05,2e-05,0.0001,5e-05,0.0005,8e-05,0.00013000000000000002,6
31583,32480,0.0,-2e-05,2e-05,0.0001,5e-05,0.0005,8e-05,0.00013000000000000002,6
31584,32481,0.0,-2e-05,2e-05,0.0001,5e-05,0.0005,8e-05,0.00013000000000000002,6
31585,32482,0.0,-2e-05,2e-05,0.0001,5e-05,0.0005,8e-05,0.00013000000000000002,6
31586,32483,0.0,-2e-05,2e-05,0.0001,5e-05,0.0005,8e-05,0.00013000000000000002,6
31587,32484,-2e-05,-1e-05,-1e-05,-5e-05,2e-05,-0.0003,0.0,-4e-05,6
31588,32485,-2e-05,-1e-05,-1e-05,-5e-05,2e-05,-0.0003,0.0,-4e-05,6
31589,32486,-2e-05,-1e-05,-1e-05,-5e-05,2e-05,-0.0003,0.0,-4e-05,6
31590,32489,-2e-05,-1e-05,-1e-05,-5e-05,2e-05,-0.0003,0.0,-4e-05,6
31591,32490,-2e-05,-1e-05,-1e-05,-5e-05,2e-05,-0.0003,0.0,-4e-05,6
31592,32491,-2e-05,-1e-05,-1e-05,-5e-05,2e-05,-0.0003,0.0,-4e-05,6
31593,32492,-2e-05,-1e-05,-1e-05,-5e-05,2e-05,-0.0003,0.0,-4e-05,6
31594,32493,-2e-05,-1e-05,-1e-05,-5e-05,2e-05,-0.0003,0.0,-4e-05,6
31595,32494,-2e-05,-1e-05,-1e-05,-5e-05,2e-05,-0.0003,0.0,-4e-05,6
31596,32495,-2e-05,-1e-05,-1e-05,-5e-05,2e-05,-0.0003,0.0,-4e-05,6
31597,32496,-2e-05,-1e-05,-1e-05,-5e-05,2e-05,-0.0003,0.0,-4e-05,6
31598,32497,-2e-05,-1e-05,-1e-05,-5e-05,2e-05,-0.0003,0.0,-4e-05,6
31599,32498,-2e-05,-1e-05,-1e-05,-5e-05,2e-05,-0.0003,0.0,-4e-05,6
31600,32499,-7e-05,1e-05,-2e-05,-4e-05,-0.00016,8e-05,0.0,2.9999999999999997e-05,6
31601,32500,0.00037999999999999997,2e-05,2.9999999999999997e-05,7e-05,0.00014,0.00028,2.9999999999999997e-05,0.00036,6
31602,32501,0.00037999999999999997,2e-05,2.9999999999999997e-05,7e-05,0.00014,0.00028,2.9999999999999997e-05,0.00036,6
31603,32502,0.00037999999999999997,2e-05,2.9999999999999997e-05,7e-05,0.00014,0.00028,2.9999999999999997e-05,0.00036,6
31604,32503,0.00037999999999999997,2e-05,2.9999999999999997e-05,7e-05,0.00014,0.00028,2.9999999999999997e-05,0.00036,6
31605,32504,0.00037999999999999997,2e-05,2.9999999999999997e-05,7e-05,0.00014,0.00028,2.9999999999999997e-05,0.00036,6
31606,32505,0.00037999999999999997,2e-05,2.9999999999999997e-05,7e-05,0.00014,0.00028,2.9999999999999997e-05,0.00036,6
31607,32506,0.00037999999999999997,2e-05,2.9999999999999997e-05,7e-05,0.00014,0.00028,2.9999999999999997e-05,0.00036,6
