,time,channel1,channel2,channel3,channel4,channel5,channel6,channel7,channel8,class
24355,25006,0.00018,2.9999999999999997e-05,-1e-05,-0.00074,-0.00066,8e-05,-0.00011999999999999999,2e-05,6
24356,25008,0.00018,2.9999999999999997e-05,-1e-05,-0.00074,-0.00066,8e-05,-0.00011999999999999999,2e-05,6
24357,25009,0.00018,2.9999999999999997e-05,-1e-05,-0.00074,-0.00066,8e-05,-0.00011999999999999999,2e-05,6
24358,25010,0.00018,2.9999999999999997e-05,-1e-05,-0.00074,-0.00066,8e-05,-0.00011999999999999999,2e-05,6
24359,25011,0.00018,2.9999999999999997e-05,-1e-05,-0.00074,-0.00066,8e-05,-0.00011999999999999999,2e-05,6
24360,25012,-0.0002,-5.9999999999999995e-05,-0.00014,1e-05,-4e-05,0.00011,-9e-05,0.00015,6
24361,25013,-0.00022999999999999998,-0.00015,-0.00022999999999999998,-0.0005,-0.00128,-0.00018999999999999998,0.00021,8e-05,6
24362,25014,-0.00022999999999999998,-0.00015,-0.00022999999999999998,-0.0005,-0.00128,-0.00018999999999999998,0.00021,8e-05,6
24363,25015,-0.00022999999999999998,-0.00015,-0.00022999999999999998,-0.0005,-0.00128,-0.00018999999999999998,0.00021,8e-05,6
24364,25016,-0.00022999999999999998,-0.00015,-0.00022999999999999998,-0.0005,-0.00128,-0.00018999999999999998,0.00021,8e-05,6
24365,25017,-0.00022999999999999998,-0.00015,-0.00022999999999999998,-0.0005,-0.00128,-0.00018999999999999998,0.00021,8e-05,6
24366,25018,-0.00022999999999999998,-0.00015,-0.00022999999999999998,-0.0005,-0.00128,-0.00018999999999999998,0.00021,8e-05,6
24367,25019,-0.00022999999999999998,-0.00015,-0.00022999999999999998,-0.0005,-0.00128,-0.00018999999999999998,0.00021,8e-05,6
24368,25020,-0.00022999999999999998,-0.00015,-0.00022999999999999998,-0.0005,-0.00128,-0.00018999999999999998,0.00021,8e-05,6
24369,25021,-0.00022999999999999998,-0.00015,-0.00022999999999999998,-0.0005,-0.00128,-0.00018999999999999998,0.00021,8e-05,6
24370,25022,-0.00022999999999999998,-0.00015,-0.00022999999999999998,-0.0005,-0.00128,-0.00018999999999999998,0.00021,8e-05,6
24371,25023,-0.00022999999999999998,-0.00015,-0.00022999999999999998,-0.0005,-0.00128,-0.00018999999999999998,0.00021,8e-05,6
24372,25024,-0.00022999999999999998,-0.00015,-0.00022999999999999998,-0.0005,-0.00128,-0.00018999999999999998,0.00021,8e-05,6
24373,25025,-0.00022999999999999998,-0.00015,-0.00022999999999999998,-0.0005,-0.00128,-0.00018999999999999998,0.00021,8e-05,6
24374,25026,-0.00022999999999999998,-0.00015,-0.00022999999999999998,-0.0005,-0.00128,-0.00018999999999999998,0.00021,8e-05,6
24375,25027,-0.00022999999999999998,-0.00015,-0.00022999999999999998,-0.0005,-0.00128,-0.00018999999999999998,0.00021,8e-05,6
24376,25028,-0.00022999999999999998,-0.00015,-0.00022999999999999998,-0.0005,-0.00128,-0.00018999999999999998,0.00021,8e-05,6
24377,25029,-0.00022999999999999998,-0.00015,-0.00022999999999999998,-0.0005,-0.00128,-0.00018999999999999998,0.00021,8e-05,6
24378,25030,-0.00022999999999999998,-0.00015,-0.00022999999999999998,-0.0005,-0.00128,-0.00018999999999999998,0.00021,8e-05,6
24379,25031,-0.00022999999999999998,-0.00015,-0.00022999999999999998,-0.0005,-0.00128,-0.00018999999999999998,0.00021,8e-05,6
24380,25033,-0.00022999999999999998,-0.00015,-0.00022999999999999998,-0.0005,-0.00128,-0.00018999999999999998,0.00021,8e-05,6
24381,25034,-0.0002,-0.00014,-0.00018,-0.00066,-0.00037,-0.00062,-2e-05,0.00029,6
24382,25035,-9e-05,-5e-05,-9e-05,-0.00022,-0.00128,-0.00101,0.00011,-0.00047999999999999996,6
24383,25036,-9e-05,-5e-05,-9e-05,-0.00022,-0.00128,-0.00101,0.00011,-0.00047999999999999996,6
24384,25038,-9e-05,-5e-05,-9e-05,-0.00022,-0.00128,-0.00101,0.00011,-0.00047999999999999996,6
24385,25039,-9e-05,-5e-05,-9e-05,-0.00022,-0.00128,-0.00101,0.00011,-0.00047999999999999996,6
24386,25040,-9e-05,-5e-05,-9e-05,-0.00022,-0.00128,-0.00101,0.00011,-0.00047999999999999996,6
24387,25041,-9e-05,-5e-05,-9e-05,-0.00022,-0.00128,-0.00101,0.00011,-0.00047999999999999996,6
24388,25042,-9e-05,-5e-05,-9e-05,-0.00022,-0.00128,-0.00101,0.00011,-0.00047999999999999996,6
24389,25043,-9e-05,-5e-05,-9e-05,-0.00022,-0.00128,-0.00101,0.00011,-0.00047999999999999996,6
24390,25044,-9e-05,-5e-05,-9e-05,-0.00022,-0.00128,-0.00101,0.00011,-0.00047999999999999996,6
24391,25045,-9e-05,-5e-05,-9e-05,-0.00022,-0.00128,-0.00101,0.00011,-0.00047999999999999996,6
24392,25046,-9e-05,-5e-05,-9e-05,-0.00022,-0.00128,-0.00101,0.00011,-0.00047999999999999996,6
24393,25047,-9e-05,-5e-05,-9e-05,-0.00022,-0.00128,-0.00101,0.00011,-0.00047999999999999996,6
24394,25048,-9e-05,-5e-05,-9e-05,-0.00022,-0.00128,-0.00101,0.00011,-0.00047999999999999996,6
24395,25049,-9e-05,-5e-05,-9e-05,-0.00022,-0.00128,-0.00101,0.00011,-0.00047999999999999996,6
24396,25050,-9e-05,-5e-05,-9e-05,-0.00022,-0.00128,-0.00101,0.00011,-0.00047999999999999996,6
24397,25051,-9e-05,-5e-05,-9e-05,-0.00022,-0.00128,-0.00101,0.00011,-0.00047999999999999996,6
24398,25052,-9e-05,-5e-05,-9e-05,-0.00022,-0.00128,-0.00101,0.00011,-0.00047999999999999996,6
24399,25053,-9e-05,-5e-05,-9e-05,-0.00022,-0.00128,-0.00101,0.00011,-0.00047999999999999996,6
24400,25054,-9e-05,-5e-05,-9e-05,-0.00022,-0.00128,-0.00101,0.00011,-0.00047999999999999996,6
24401,25055,-9e-05,-5e-05,-9e-05,-0.00022,-0.00128,-0.00101,0.00011,-0.00047999999999999996,6
24402,25056,-9e-05,-5e-05,-9e-05,-0.00022,-0.00128,-0.00101,0.00011,-0.00047999999999999996,6
24403,25057,-9e-05,-5e-05,-9e-05,-0.00022,-0.00128,-0.00101,0.00011,-0.00047999999999999996,6
24404,25058,-9e-05,-5e-05,-9e-05,-0.00022,-0.00128,-0.00101,0.00011,-0.00047999999999999996,6
24405,25059,-9e-05,-5e-05,-9e-05,-0.00022,-0.00128,-0.00101,0.00011,-0.00047999999999999996,6
24406,25060,-9e-05,-5e-05,-9e-05,-0.00022,-0.00128,-0.00101,0.00011,-0.00047999999999999996,6
24407,25061,-9e-05,-5e-05,-9e-05,-0.00022,-0.00128,-0.00101,0.00011,-0.00047999999999999996,6
24408,25062,-9e-05,-5e-05,-9e-05,-0.00022,-0.00128,-0.00101,0.00011,-0.00047999999999999996,6
24409,25063,-9e-05,-5e-05,-9e-05,-0.00022,-0.00128,-0.00101,0.00011,-0.00047999999999999996,6
24410,25064,-9e-05,-5e-05,-9e-05,-0.00022,-0.00128,-0.00101,0.00011,-0.00047999999999999996,6
24411,25065,0.00015,9e-05,0.00011,9e-05,2e-05,-0.00011,0.00056,0.00047000000000000004,6
24412,25066,7e-05,1e-05,-8e-05,9e-05,0.00049,0.00054,0.00053,7e-05,6
24413,25067,7e-05,1e-05,-8e-05,9e-05,0.00049,0.00054,0.00053,7e-05,6
24414,25068,7e-05,1e-05,-8e-05,9e-05,0.00049,0.00054,0.00053,7e-05,6
24415,25069,7e-05,1e-05,-8e-05,9e-05,0.00049,0.00054,0.00053,7e-05,6
24416,25070,7e-05,1e-05,-8e-05,9e-05,0.00049,0.00054,0.00053,7e-05,6
24417,25071,-0.00016,-0.0001,-0.00018,-0.0004,-0.00065,0.00016,-0.00022,-9e-05,6
24418,25072,-7e-05,-9e-05,-2.9999999999999997e-05,0.0002,0.00081,0.00042,0.00061,0.00043,6
24419,25073,-7e-05,-9e-05,-2.9999999999999997e-05,0.0002,0.00081,0.00042,0.00061,0.00043,6
24420,25074,-7e-05,-9e-05,-2.9999999999999997e-05,0.0002,0.00081,0.00042,0.00061,0.00043,6
24421,25075,-7e-05,-9e-05,-2.9999999999999997e-05,0.0002,0.00081,0.00042,0.00061,0.00043,6
24422,25076,-7e-05,-9e-05,-2.9999999999999997e-05,0.0002,0.00081,0.00042,0.00061,0.00043,6
24423,25077,-7e-05,-9e-05,-2.9999999999999997e-05,0.0002,0.00081,0.00042,0.00061,0.00043,6
24424,25078,-7e-05,-9e-05,-2.9999999999999997e-05,0.0002,0.00081,0.00042,0.00061,0.00043,6
24425,25079,-7e-05,-9e-05,-2.9999999999999997e-05,0.0002,0.00081,0.00042,0.00061,0.00043,6
24426,25080,-7e-05,-9e-05,-2.9999999999999997e-05,0.0002,0.00081,0.00042,0.00061,0.00043,6
24427,25081,-7e-05,-9e-05,-2.9999999999999997e-05,0.0002,0.00081,0.00042,0.00061,0.00043,6
24428,25082,-7e-05,-9e-05,-2.9999999999999997e-05,0.0002,0.00081,0.00042,0.00061,0.00043,6
24429,25083,-7e-05,-9e-05,-2.9999999999999997e-05,0.0002,0.00081,0.00042,0.00061,0.00043,6
24430,25084,-7e-05,-9e-05,-2.9999999999999997e-05,0.0002,0.00081,0.00042,0.00061,0.00043,6
24431,25085,-7e-05,-9e-05,-2.9999999999999997e-05,0.0002,0.00081,0.00042,0.00061,0.00043,6
24432,25086,-7e-05,-9e-05,-2.9999999999999997e-05,0.0002,0.00081,0.00042,0.00061,0.00043,6
24433,25088,-7e-05,-9e-05,-2.9999999999999997e-05,0.0002,0.00081,0.00042,0.00061,0.00043,6
24434,25089,-7e-05,-9e-05,-2.9999999999999997e-05,0.0002,0.00081,0.00042,0.00061,0.00043,6
24435,25090,-7e-05,-9e-05,-2.9999999999999997e-05,0.0002,0.00081,0.00042,0.00061,0.00043,6
24436,25091,-7e-05,-9e-05,-2.9999999999999997e-05,0.0002,0.00081,0.00042,0.00061,0.00043,6
24437,25092,-7e-05,-9e-05,-2.9999999999999997e-05,0.0002,0.00081,0.00042,0.00061,0.00043,6
24438,25093,-7e-05,-9e-05,-2.9999999999999997e-05,0.0002,0.00081,0.00042,0.00061,0.00043,6
24439,25094,0.00016,0.00011999999999999999,0.00033,0.0009599999999999999,0.00065,0.0006,-5e-05,0.00014,6
24440,25095,-5e-05,-2e-05,-2e-05,0.00025,0.00037,-0.00036,-0.0005200000000000001,-0.0007,6
24441,25096,-5e-05,-2e-05,-2e-05,0.00025,0.00037,-0.00036,-0.0005200000000000001,-0.0007,6
24442,25097,-5e-05,-2e-05,-2e-05,0.00025,0.00037,-0.00036,-0.0005200000000000001,-0.0007,6
24443,25098,-5e-05,-2e-05,-2e-05,0.00025,0.00037,-0.00036,-0.0005200000000000001,-0.0007,6
24444,25099,-5e-05,-2e-05,-2e-05,0.00025,0.00037,-0.00036,-0.0005200000000000001,-0.0007,6
24445,25100,-5e-05,-2e-05,-2e-05,0.00025,0.00037,-0.00036,-0.0005200000000000001,-0.0007,6
24446,25101,-5e-05,-2e-05,-2e-05,0.00025,0.00037,-0.00036,-0.0005200000000000001,-0.0007,6
24447,25102,-5e-05,-2e-05,-2e-05,0.00025,0.00037,-0.00036,-0.0005200000000000001,-0.0007,6
24448,25103,-5e-05,-2e-05,-2e-05,0.00025,0.00037,-0.00036,-0.0005200000000000001,-0.0007,6
24449,25104,-5e-05,-2e-05,-2e-05,0.00025,0.00037,-0.00036,-0.0005200000000000001,-0.0007,6
24450,25105,-5e-05,-2e-05,-2e-05,0.00025,0.00037,-0.00036,-0.0005200000000000001,-0.0007,6
24451,25106,-5e-05,-2e-05,-2e-05,0.00025,0.00037,-0.00036,-0.0005200000000000001,-0.0007,6
24452,25107,-5e-05,-2e-05,-2e-05,0.00025,0.00037,-0.00036,-0.0005200000000000001,-0.0007,6
24453,25108,-5e-05,-2e-05,-2e-05,0.00025,0.00037,-0.00036,-0.0005200000000000001,-0.0007,6
24454,25109,-5e-05,-2e-05,-2e-05,0.00025,0.00037,-0.00036,-0.0005200000000000001,-0.0007,6
24455,25110,-5e-05,-2e-05,-2e-05,0.00025,0.00037,-0.00036,-0.0005200000000000001,-0.0007,6
24456,25111,-5e-05,-2e-05,-2e-05,0.00025,0.00037,-0.00036,-0.0005200000000000001,-0.0007,6
24457,25112,-5e-05,-2e-05,-2e-05,0.00025,0.00037,-0.00036,-0.0005200000000000001,-0.0007,6
24458,25113,-5e-05,-2e-05,-2e-05,0.00025,0.00037,-0.00036,-0.0005200000000000001,-0.0007,6
24459,25114,-5e-05,-2e-05,-2e-05,0.00025,0.00037,-0.00036,-0.0005200000000000001,-0.0007,6
24460,25115,-5e-05,-2e-05,-2e-05,0.00025,0.00037,-0.00036,-0.0005200000000000001,-0.0007,6
24461,25116,-5e-05,-2e-05,-2e-05,0.00025,0.00037,-0.00036,-0.0005200000000000001,-0.0007,6
24462,25117,-0.00013000000000000002,-0.00011999999999999999,-9e-05,4e-05,0.00066,0.00074,8e-05,-0.00022999999999999998,6
24463,25118,-2.9999999999999997e-05,0.0,1e-05,-0.00041,-0.00128,-0.00028,-0.00045,-0.00018999999999999998,6
24464,25119,-2.9999999999999997e-05,0.0,1e-05,-0.00041,-0.00128,-0.00028,-0.00045,-0.00018999999999999998,6
24465,25120,-2.9999999999999997e-05,0.0,1e-05,-0.00041,-0.00128,-0.00028,-0.00045,-0.00018999999999999998,6
24466,25121,-2.9999999999999997e-05,0.0,1e-05,-0.00041,-0.00128,-0.00028,-0.00045,-0.00018999999999999998,6
24467,25122,-2.9999999999999997e-05,0.0,1e-05,-0.00041,-0.00128,-0.00028,-0.00045,-0.00018999999999999998,6
24468,25123,-2.9999999999999997e-05,0.0,1e-05,-0.00041,-0.00128,-0.00028,-0.00045,-0.00018999999999999998,6
24469,25124,-2.9999999999999997e-05,0.0,1e-05,-0.00041,-0.00128,-0.00028,-0.00045,-0.00018999999999999998,6
24470,25125,-2.9999999999999997e-05,0.0,1e-05,-0.00041,-0.00128,-0.00028,-0.00045,-0.00018999999999999998,6
24471,25126,-2.9999999999999997e-05,0.0,1e-05,-0.00041,-0.00128,-0.00028,-0.00045,-0.00018999999999999998,6
24472,25127,-2.9999999999999997e-05,0.0,1e-05,-0.00041,-0.00128,-0.00028,-0.00045,-0.00018999999999999998,6
24473,25128,-2.9999999999999997e-05,0.0,1e-05,-0.00041,-0.00128,-0.00028,-0.00045,-0.00018999999999999998,6
24474,25129,-2.9999999999999997e-05,0.0,1e-05,-0.00041,-0.00128,-0.00028,-0.00045,-0.00018999999999999998,6
24475,25130,-2.9999999999999997e-05,0.0,1e-05,-0.00041,-0.00128,-0.00028,-0.00045,-0.00018999999999999998,6
24476,25131,-2.9999999999999997e-05,0.0,1e-05,-0.00041,-0.00128,-0.00028,-0.00045,-0.00018999999999999998,6
24477,25132,-0.00015,1e-05,-2.9999999999999997e-05,-0.00018999999999999998,-0.00028,0.00045,-0.00035,0.00028,6
24478,25133,-0.00015,1e-05,-2.9999999999999997e-05,-0.00018999999999999998,-0.00028,0.00045,-0.00035,0.00028,6
24479,25134,-0.00015,1e-05,-2.9999999999999997e-05,-0.00018999999999999998,-0.00028,0.00045,-0.00035,0.00028,6
24480,25135,-0.00015,1e-05,-2.9999999999999997e-05,-0.00018999999999999998,-0.00028,0.00045,-0.00035,0.00028,6
24481,25136,-0.00015,1e-05,-2.9999999999999997e-05,-0.00018999999999999998,-0.00028,0.00045,-0.00035,0.00028,6
24482,25138,-0.00015,1e-05,-2.9999999999999997e-05,-0.00018999999999999998,-0.00028,0.00045,-0.00035,0.00028,6
24483,25139,-0.00015,1e-05,-2.9999999999999997e-05,-0.00018999999999999998,-0.00028,0.00045,-0.00035,0.00028,6
24484,25140,-0.00015,1e-05,-2.9999999999999997e-05,-0.00018999999999999998,-0.00028,0.00045,-0.00035,0.00028,6
24485,25141,-0.00015,1e-05,-2.9999999999999997e-05,-0.00018999999999999998,-0.00028,0.00045,-0.00035,0.00028,6
24486,25142,-0.00015,1e-05,-2.9999999999999997e-05,-0.00018999999999999998,-0.00028,0.00045,-0.00035,0.00028,6
24487,25143,-0.00015,1e-05,-2.9999999999999997e-05,-0.00018999999999999998,-0.00028,0.00045,-0.00035,0.00028,6
24488,25144,-0.00015,1e-05,-2.9999999999999997e-05,-0.00018999999999999998,-0.00028,0.00045,-0.00035,0.00028,6
24489,25145,-0.00015,1e-05,-2.9999999999999997e-05,-0.00018999999999999998,-0.00028,0.00045,-0.00035,0.00028,6
24490,25146,-0.00015,1e-05,-2.9999999999999997e-05,-0.00018999999999999998,-0.00028,0.00045,-0.00035,0.00028,6
24491,25147,-0.00015,1e-05,-2.9999999999999997e-05,-0.00018999999999999998,-0.00028,0.00045,-0.00035,0.00028,6
24492,25148,-0.00015,1e-05,-2.9999999999999997e-05,-0.00018999999999999998,-0.00028,0.00045,-0.00035,0.00028,6
24493,25149,-0.00015,1e-05,-2.9999999999999997e-05,-0.00018999999999999998,-0.00028,0.00045,-0.00035,0.00028,6
24494,25150,-0.00015,1e-05,-2.9999999999999997e-05,-0.00018999999999999998,-0.00028,0.00045,-0.00035,0.00028,6
24495,25151,-0.00015,1e-05,-2.9999999999999997e-05,-0.00018999999999999998,-0.00028,0.00045,-0.00035,0.00028,6
24496,25152,-0.00015,1e-05,-2.9999999999999997e-05,-0.00018999999999999998,-0.00028,0.00045,-0.00035,0.00028,6
24497,25153,-0.00015,1e-05,-2.9999999999999997e-05,-0.00018999999999999998,-0.00028,0.00045,-0.00035,0.00028,6
24498,25154,-0.00015,1e-05,-2.9999999999999997e-05,-0.00018999999999999998,-0.00028,0.00045,-0.00035,0.00028,6
24499,25155,-0.00015,1e-05,-2.9999999999999997e-05,-0.00018999999999999998,-0.00028,0.00045,-0.00035,0.00028,6
24500,25156,0.00018999999999999998,0.00021,0.00018,-0.00053,-0.001,-0.0007599999999999999,-5e-05,1e-05,6
24501,25157,0.00018999999999999998,0.00021,0.00018,-0.00053,-0.001,-0.0007599999999999999,-5e-05,1e-05,6
24502,25158,0.00018999999999999998,0.00021,0.00018,-0.00053,-0.001,-0.0007599999999999999,-5e-05,1e-05,6
24503,25159,0.00018999999999999998,0.00021,0.00018,-0.00053,-0.001,-0.0007599999999999999,-5e-05,1e-05,6
24504,25160,0.00018999999999999998,0.00021,0.00018,-0.00053,-0.001,-0.0007599999999999999,-5e-05,1e-05,6
24505,25161,0.00018999999999999998,0.00021,0.00018,-0.00053,-0.001,-0.0007599999999999999,-5e-05,1e-05,6
24506,25162,0.00018999999999999998,0.00021,0.00018,-0.00053,-0.001,-0.0007599999999999999,-5e-05,1e-05,6
24507,25163,0.00018999999999999998,0.00021,0.00018,-0.00053,-0.001,-0.0007599999999999999,-5e-05,1e-05,6
24508,25164,0.00018999999999999998,0.00021,0.00018,-0.00053,-0.001,-0.0007599999999999999,-5e-05,1e-05,6
24509,25165,0.00018999999999999998,0.00021,0.00018,-0.00053,-0.001,-0.0007599999999999999,-5e-05,1e-05,6
24510,25166,0.00018999999999999998,0.00021,0.00018,-0.00053,-0.001,-0.0007599999999999999,-5e-05,1e-05,6
24511,25167,0.00018999999999999998,0.00021,0.00018,-0.00053,-0.001,-0.0007599999999999999,-5e-05,1e-05,6
24512,25168,0.00018999999999999998,0.00021,0.00018,-0.00053,-0.001,-0.0007599999999999999,-5e-05,1e-05,6
24513,25169,0.00018999999999999998,0.00021,0.00018,-0.00053,-0.001,-0.0007599999999999999,-5e-05,1e-05,6
24514,25170,0.00018999999999999998,0.00021,0.00018,-0.00053,-0.001,-0.0007599999999999999,-5e-05,1e-05,6
24515,25171,0.00018999999999999998,0.00021,0.00018,-0.00053,-0.001,-0.0007599999999999999,-5e-05,1e-05,6
24516,25172,0.00018999999999999998,0.00021,0.00018,-0.00053,-0.001,-0.0007599999999999999,-5e-05,1e-05,6
24517,25173,0.00018999999999999998,0.00021,0.00018,-0.00053,-0.001,-0.0007599999999999999,-5e-05,1e-05,6
24518,25174,0.00018999999999999998,0.00021,0.00018,-0.00053,-0.001,-0.0007599999999999999,-5e-05,1e-05,6
24519,25175,0.00018999999999999998,0.00021,0.00018,-0.00053,-0.001,-0.0007599999999999999,-5e-05,1e-05,6
24520,25176,0.00018999999999999998,0.00021,0.00018,-0.00053,-0.001,-0.0007599999999999999,-5e-05,1e-05,6
24521,25177,-9e-05,1e-05,2e-05,2.9999999999999997e-05,-0.00041,-0.00073,-0.00022,-1e-05,6
24522,25178,-4e-05,-0.0001,0.0,0.00027,0.00026000000000000003,-5.9999999999999995e-05,-5.9999999999999995e-05,0.0001,6
24523,25179,-4e-05,-0.0001,0.0,0.00027,0.00026000000000000003,-5.9999999999999995e-05,-5.9999999999999995e-05,0.0001,6
24524,25180,-4e-05,-0.0001,0.0,0.00027,0.00026000000000000003,-5.9999999999999995e-05,-5.9999999999999995e-05,0.0001,6
24525,25181,-4e-05,-0.0001,0.0,0.00027,0.00026000000000000003,-5.9999999999999995e-05,-5.9999999999999995e-05,0.0001,6
24526,25182,-4e-05,-0.0001,0.0,0.00027,0.00026000000000000003,-5.9999999999999995e-05,-5.9999999999999995e-05,0.0001,6
24527,25183,-4e-05,-0.0001,0.0,0.00027,0.00026000000000000003,-5.9999999999999995e-05,-5.9999999999999995e-05,0.0001,6
24528,25184,-4e-05,-0.0001,0.0,0.00027,0.00026000000000000003,-5.9999999999999995e-05,-5.9999999999999995e-05,0.0001,6
24529,25185,-4e-05,-0.0001,0.0,0.00027,0.00026000000000000003,-5.9999999999999995e-05,-5.9999999999999995e-05,0.0001,6
24530,25186,-4e-05,-0.0001,0.0,0.00027,0.00026000000000000003,-5.9999999999999995e-05,-5.9999999999999995e-05,0.0001,6
24531,25188,-4e-05,-0.0001,0.0,0.00027,0.00026000000000000003,-5.9999999999999995e-05,-5.9999999999999995e-05,0.0001,6
24532,25189,-4e-05,-0.0001,0.0,0.00027,0.00026000000000000003,-5.9999999999999995e-05,-5.9999999999999995e-05,0.0001,6
24533,25190,-4e-05,-0.0001,0.0,0.00027,0.00026000000000000003,-5.9999999999999995e-05,-5.9999999999999995e-05,0.0001,6
24534,25191,-4e-05,-0.0001,0.0,0.00027,0.00026000000000000003,-5.9999999999999995e-05,-5.9999999999999995e-05,0.0001,6
24535,25192,-5.9999999999999995e-05,-5e-05,-1e-05,0.00032,-0.00028,-0.00042,9e-05,0.00078,6
24536,25193,-5.9999999999999995e-05,-5e-05,-1e-05,0.00032,-0.00028,-0.00042,9e-05,0.00078,6
24537,25194,-5.9999999999999995e-05,-5e-05,-1e-05,0.00032,-0.00028,-0.00042,9e-05,0.00078,6
24538,25195,-5.9999999999999995e-05,-5e-05,-1e-05,0.00032,-0.00028,-0.00042,9e-05,0.00078,6
24539,25196,-5.9999999999999995e-05,-5e-05,-1e-05,0.00032,-0.00028,-0.00042,9e-05,0.00078,6
24540,25197,-5.9999999999999995e-05,-5e-05,-1e-05,0.00032,-0.00028,-0.00042,9e-05,0.00078,6
24541,25198,-5.9999999999999995e-05,-5e-05,-1e-05,0.00032,-0.00028,-0.00042,9e-05,0.00078,6
24542,25199,-5.9999999999999995e-05,-5e-05,-1e-05,0.00032,-0.00028,-0.00042,9e-05,0.00078,6
24543,25200,-5.9999999999999995e-05,-5e-05,-1e-05,0.00032,-0.00028,-0.00042,9e-05,0.00078,6
24544,25201,-5.9999999999999995e-05,-5e-05,-1e-05,0.00032,-0.00028,-0.00042,9e-05,0.00078,6
24545,25202,-5.9999999999999995e-05,-5e-05,-1e-05,0.00032,-0.00028,-0.00042,9e-05,0.00078,6
24546,25203,-5.9999999999999995e-05,-5e-05,-1e-05,0.00032,-0.00028,-0.00042,9e-05,0.00078,6
24547,25204,-5.9999999999999995e-05,-5e-05,-1e-05,0.00032,-0.00028,-0.00042,9e-05,0.00078,6
24548,25205,-5.9999999999999995e-05,-5e-05,-1e-05,0.00032,-0.00028,-0.00042,9e-05,0.00078,6
24549,25206,-5.9999999999999995e-05,-5e-05,-1e-05,0.00032,-0.00028,-0.00042,9e-05,0.00078,6
24550,25207,-5.9999999999999995e-05,-5e-05,-1e-05,0.00032,-0.00028,-0.00042,9e-05,0.00078,6
24551,25208,-5.9999999999999995e-05,-5e-05,-1e-05,0.00032,-0.00028,-0.00042,9e-05,0.00078,6
24552,25209,-5.9999999999999995e-05,-5e-05,-1e-05,0.00032,-0.00028,-0.00042,9e-05,0.00078,6
24553,25210,-5.9999999999999995e-05,-5e-05,-1e-05,0.00032,-0.00028,-0.00042,9e-05,0.00078,6
24554,25211,-5.9999999999999995e-05,-5e-05,-1e-05,0.00032,-0.00028,-0.00042,9e-05,0.00078,6
24555,25212,-5.9999999999999995e-05,-5e-05,-1e-05,0.00032,-0.00028,-0.00042,9e-05,0.00078,6
24556,25213,-5.9999999999999995e-05,-5e-05,-1e-05,0.00032,-0.00028,-0.00042,9e-05,0.00078,6
24557,25214,5e-05,2.9999999999999997e-05,0.0001,0.00047999999999999996,5e-05,-0.00015,0.00023999999999999998,0.0001,6
24558,25215,0.0001,0.0,-2.9999999999999997e-05,4e-05,-0.00045,-7e-05,0.00022,0.00084,6
24559,25216,0.0001,0.0,-2.9999999999999997e-05,4e-05,-0.00045,-7e-05,0.00022,0.00084,6
24560,25217,0.0001,0.0,-2.9999999999999997e-05,4e-05,-0.00045,-7e-05,0.00022,0.00084,6
24561,25218,0.0001,0.0,-2.9999999999999997e-05,4e-05,-0.00045,-7e-05,0.00022,0.00084,6
24562,25219,0.0001,0.0,-2.9999999999999997e-05,4e-05,-0.00045,-7e-05,0.00022,0.00084,6
24563,25220,0.0001,0.0,-2.9999999999999997e-05,4e-05,-0.00045,-7e-05,0.00022,0.00084,6
24564,25221,0.0001,0.0,-2.9999999999999997e-05,4e-05,-0.00045,-7e-05,0.00022,0.00084,6
24565,25222,0.0001,0.0,-2.9999999999999997e-05,4e-05,-0.00045,-7e-05,0.00022,0.00084,6
24566,25223,0.0001,0.0,-2.9999999999999997e-05,4e-05,-0.00045,-7e-05,0.00022,0.00084,6
24567,25224,0.0001,0.0,-2.9999999999999997e-05,4e-05,-0.00045,-7e-05,0.00022,0.00084,6
24568,25225,0.0001,0.0,-2.9999999999999997e-05,4e-05,-0.00045,-7e-05,0.00022,0.00084,6
24569,25226,0.0001,0.0,-2.9999999999999997e-05,4e-05,-0.00045,-7e-05,0.00022,0.00084,6
24570,25227,0.0001,0.0,-2.9999999999999997e-05,4e-05,-0.00045,-7e-05,0.00022,0.00084,6
24571,25228,0.0001,0.0,-2.9999999999999997e-05,4e-05,-0.00045,-7e-05,0.00022,0.00084,6
24572,25229,0.0001,0.0,-2.9999999999999997e-05,4e-05,-0.00045,-7e-05,0.00022,0.00084,6
24573,25230,0.0001,0.0,-2.9999999999999997e-05,4e-05,-0.00045,-7e-05,0.00022,0.00084,6
24574,25231,0.0001,0.0,-2.9999999999999997e-05,4e-05,-0.00045,-7e-05,0.00022,0.00084,6
24575,25232,0.0001,0.0,-2.9999999999999997e-05,4e-05,-0.00045,-7e-05,0.00022,0.00084,6
24576,25233,0.0001,0.0,-2.9999999999999997e-05,4e-05,-0.00045,-7e-05,0.00022,0.00084,6
24577,25234,0.0001,0.0,-2.9999999999999997e-05,4e-05,-0.00045,-7e-05,0.00022,0.00084,6
24578,25235,0.0001,0.0,-2.9999999999999997e-05,4e-05,-0.00045,-7e-05,0.00022,0.00084,6
24579,25236,0.0001,0.0,-2.9999999999999997e-05,4e-05,-0.00045,-7e-05,0.00022,0.00084,6
24580,25238,-5e-05,-2.9999999999999997e-05,-4e-05,-4e-05,-8e-05,0.0005099999999999999,-0.00018999999999999998,-0.00128,6
24581,25239,-5e-05,-2.9999999999999997e-05,-4e-05,-4e-05,-8e-05,0.0005099999999999999,-0.00018999999999999998,-0.00128,6
24582,25240,-5e-05,-2.9999999999999997e-05,-4e-05,-4e-05,-8e-05,0.0005099999999999999,-0.00018999999999999998,-0.00128,6
24583,25241,-5e-05,-2.9999999999999997e-05,-4e-05,-4e-05,-8e-05,0.0005099999999999999,-0.00018999999999999998,-0.00128,6
24584,25242,-5e-05,-2.9999999999999997e-05,-4e-05,-4e-05,-8e-05,0.0005099999999999999,-0.00018999999999999998,-0.00128,6
24585,25243,-5e-05,-2.9999999999999997e-05,-4e-05,-4e-05,-8e-05,0.0005099999999999999,-0.00018999999999999998,-0.00128,6
24586,25244,-5e-05,-2.9999999999999997e-05,-4e-05,-4e-05,-8e-05,0.0005099999999999999,-0.00018999999999999998,-0.00128,6
24587,25245,-5e-05,-2.9999999999999997e-05,-4e-05,-4e-05,-8e-05,0.0005099999999999999,-0.00018999999999999998,-0.00128,6
24588,25246,-5e-05,-2.9999999999999997e-05,-4e-05,-4e-05,-8e-05,0.0005099999999999999,-0.00018999999999999998,-0.00128,6
24589,25247,-5e-05,-2.9999999999999997e-05,-4e-05,-4e-05,-8e-05,0.0005099999999999999,-0.00018999999999999998,-0.00128,6
24590,25248,-5e-05,-2.9999999999999997e-05,-4e-05,-4e-05,-8e-05,0.0005099999999999999,-0.00018999999999999998,-0.00128,6
24591,25249,-5e-05,-2.9999999999999997e-05,-4e-05,-4e-05,-8e-05,0.0005099999999999999,-0.00018999999999999998,-0.00128,6
24592,25250,-5e-05,-2.9999999999999997e-05,-4e-05,-4e-05,-8e-05,0.0005099999999999999,-0.00018999999999999998,-0.00128,6
24593,25251,-5e-05,-2.9999999999999997e-05,-4e-05,-4e-05,-8e-05,0.0005099999999999999,-0.00018999999999999998,-0.00128,6
24594,25252,-4e-05,-1e-05,1e-05,0.00047999999999999996,0.001,0.00023999999999999998,-0.0001,-0.0006,6
24595,25253,-4e-05,-1e-05,1e-05,0.00047999999999999996,0.001,0.00023999999999999998,-0.0001,-0.0006,6
24596,25254,-4e-05,-1e-05,1e-05,0.00047999999999999996,0.001,0.00023999999999999998,-0.0001,-0.0006,6
24597,25255,-4e-05,-1e-05,1e-05,0.00047999999999999996,0.001,0.00023999999999999998,-0.0001,-0.0006,6
24598,25256,-4e-05,-1e-05,1e-05,0.00047999999999999996,0.001,0.00023999999999999998,-0.0001,-0.0006,6
24599,25257,-4e-05,-1e-05,1e-05,0.00047999999999999996,0.001,0.00023999999999999998,-0.0001,-0.0006,6
24600,25258,-4e-05,-1e-05,1e-05,0.00047999999999999996,0.001,0.00023999999999999998,-0.0001,-0.0006,6
24601,25259,-4e-05,-1e-05,1e-05,0.00047999999999999996,0.001,0.00023999999999999998,-0.0001,-0.0006,6
24602,25260,-4e-05,-1e-05,1e-05,0.00047999999999999996,0.001,0.00023999999999999998,-0.0001,-0.0006,6
24603,25261,-4e-05,-1e-05,1e-05,0.00047999999999999996,0.001,0.00023999999999999998,-0.0001,-0.0006,6
24604,25262,-4e-05,-1e-05,1e-05,0.00047999999999999996,0.001,0.00023999999999999998,-0.0001,-0.0006,6
24605,25263,-4e-05,-1e-05,1e-05,0.00047999999999999996,0.001,0.00023999999999999998,-0.0001,-0.0006,6
24606,25264,-4e-05,-1e-05,1e-05,0.00047999999999999996,0.001,0.00023999999999999998,-0.0001,-0.0006,6
24607,25265,-4e-05,-1e-05,1e-05,0.00047999999999999996,0.001,0.00023999999999999998,-0.0001,-0.0006,6
24608,25266,-4e-05,-1e-05,1e-05,0.00047999999999999996,0.001,0.00023999999999999998,-0.0001,-0.0006,6
24609,25267,-4e-05,-1e-05,1e-05,0.00047999999999999996,0.001,0.00023999999999999998,-0.0001,-0.0006,6
24610,25268,-4e-05,-1e-05,1e-05,0.00047999999999999996,0.001,0.00023999999999999998,-0.0001,-0.0006,6
24611,25269,-4e-05,-1e-05,1e-05,0.00047999999999999996,0.001,0.00023999999999999998,-0.0001,-0.0006,6
24612,25270,-4e-05,-1e-05,1e-05,0.00047999999999999996,0.001,0.00023999999999999998,-0.0001,-0.0006,6
24613,25271,-4e-05,-1e-05,1e-05,0.00047999999999999996,0.001,0.00023999999999999998,-0.0001,-0.0006,6
24614,25272,-4e-05,-1e-05,1e-05,0.00047999999999999996,0.001,0.00023999999999999998,-0.0001,-0.0006,6
24615,25273,-4e-05,-1e-05,1e-05,0.00047999999999999996,0.001,0.00023999999999999998,-0.0001,-0.0006,6
24616,25274,-0.00015,0.0,2.9999999999999997e-05,0.0,0.00011999999999999999,0.00035,1e-05,-0.00053,6
24617,25275,4e-05,-1e-05,0.00014,0.0008300000000000001,0.00091,0.00066,9e-05,0.0,6
24618,25276,4e-05,-1e-05,0.00014,0.0008300000000000001,0.00091,0.00066,9e-05,0.0,6
24619,25277,4e-05,-1e-05,0.00014,0.0008300000000000001,0.00091,0.00066,9e-05,0.0,6
24620,25278,4e-05,-1e-05,0.00014,0.0008300000000000001,0.00091,0.00066,9e-05,0.0,6
24621,25279,4e-05,-1e-05,0.00014,0.0008300000000000001,0.00091,0.00066,9e-05,0.0,6
24622,25280,4e-05,-1e-05,0.00014,0.0008300000000000001,0.00091,0.00066,9e-05,0.0,6
24623,25281,4e-05,-1e-05,0.00014,0.0008300000000000001,0.00091,0.00066,9e-05,0.0,6
24624,25282,4e-05,-1e-05,0.00014,0.0008300000000000001,0.00091,0.00066,9e-05,0.0,6
24625,25283,4e-05,-1e-05,0.00014,0.0008300000000000001,0.00091,0.00066,9e-05,0.0,6
24626,25284,4e-05,-1e-05,0.00014,0.0008300000000000001,0.00091,0.00066,9e-05,0.0,6
24627,25285,4e-05,-1e-05,0.00014,0.0008300000000000001,0.00091,0.00066,9e-05,0.0,6
24628,25286,4e-05,-1e-05,0.00014,0.0008300000000000001,0.00091,0.00066,9e-05,0.0,6
24629,25288,4e-05,-1e-05,0.00014,0.0008300000000000001,0.00091,0.00066,9e-05,0.0,6
24630,25289,4e-05,-1e-05,0.00014,0.0008300000000000001,0.00091,0.00066,9e-05,0.0,6
24631,25290,4e-05,-1e-05,0.00014,0.0008300000000000001,0.00091,0.00066,9e-05,0.0,6
24632,25291,4e-05,-1e-05,0.00014,0.0008300000000000001,0.00091,0.00066,9e-05,0.0,6
24633,25292,4e-05,-1e-05,0.00014,0.0008300000000000001,0.00091,0.00066,9e-05,0.0,6
24634,25293,4e-05,-1e-05,0.00014,0.0008300000000000001,0.00091,0.00066,9e-05,0.0,6
24635,25294,4e-05,-1e-05,0.00014,0.0008300000000000001,0.00091,0.00066,9e-05,0.0,6
24636,25295,4e-05,-1e-05,0.00014,0.0008300000000000001,0.00091,0.00066,9e-05,0.0,6
24637,25296,4e-05,-1e-05,0.00014,0.0008300000000000001,0.00091,0.00066,9e-05,0.0,6
24638,25297,4e-05,-1e-05,0.00014,0.0008300000000000001,0.00091,0.00066,9e-05,0.0,6
24639,25298,-0.00011999999999999999,-5.9999999999999995e-05,-9e-05,-0.00011999999999999999,-0.0002,-0.0006,2.9999999999999997e-05,-0.00041,6
24640,25299,-0.00011999999999999999,-5.9999999999999995e-05,-9e-05,-0.00011999999999999999,-0.0002,-0.0006,2.9999999999999997e-05,-0.00041,6
24641,25300,-0.00011999999999999999,-5.9999999999999995e-05,-9e-05,-0.00011999999999999999,-0.0002,-0.0006,2.9999999999999997e-05,-0.00041,6
24642,25301,-0.00011999999999999999,-5.9999999999999995e-05,-9e-05,-0.00011999999999999999,-0.0002,-0.0006,2.9999999999999997e-05,-0.00041,6
24643,25302,-0.00011999999999999999,-5.9999999999999995e-05,-9e-05,-0.00011999999999999999,-0.0002,-0.0006,2.9999999999999997e-05,-0.00041,6
24644,25303,-0.00011999999999999999,-5.9999999999999995e-05,-9e-05,-0.00011999999999999999,-0.0002,-0.0006,2.9999999999999997e-05,-0.00041,6
24645,25304,-0.00011999999999999999,-5.9999999999999995e-05,-9e-05,-0.00011999999999999999,-0.0002,-0.0006,2.9999999999999997e-05,-0.00041,6
24646,25305,-0.00011999999999999999,-5.9999999999999995e-05,-9e-05,-0.00011999999999999999,-0.0002,-0.0006,2.9999999999999997e-05,-0.00041,6
24647,25306,-0.00011999999999999999,-5.9999999999999995e-05,-9e-05,-0.00011999999999999999,-0.0002,-0.0006,2.9999999999999997e-05,-0.00041,6
24648,25307,-0.00011999999999999999,-5.9999999999999995e-05,-9e-05,-0.00011999999999999999,-0.0002,-0.0006,2.9999999999999997e-05,-0.00041,6
24649,25308,-0.00011999999999999999,-5.9999999999999995e-05,-9e-05,-0.00011999999999999999,-0.0002,-0.0006,2.9999999999999997e-05,-0.00041,6
24650,25309,-0.00011999999999999999,-5.9999999999999995e-05,-9e-05,-0.00011999999999999999,-0.0002,-0.0006,2.9999999999999997e-05,-0.00041,6
24651,25310,-0.00011999999999999999,-5.9999999999999995e-05,-9e-05,-0.00011999999999999999,-0.0002,-0.0006,2.9999999999999997e-05,-0.00041,6
24652,25311,4e-05,2e-05,-2.9999999999999997e-05,-0.00013000000000000002,-0.00014,-0.00045999999999999996,-0.00025,0.00011999999999999999,6
24653,25312,4e-05,2e-05,-2.9999999999999997e-05,-0.00013000000000000002,-0.00014,-0.00045999999999999996,-0.00025,0.00011999999999999999,6
24654,25313,4e-05,2e-05,-2.9999999999999997e-05,-0.00013000000000000002,-0.00014,-0.00045999999999999996,-0.00025,0.00011999999999999999,6
24655,25314,4e-05,2e-05,-2.9999999999999997e-05,-0.00013000000000000002,-0.00014,-0.00045999999999999996,-0.00025,0.00011999999999999999,6
24656,25315,4e-05,2e-05,-2.9999999999999997e-05,-0.00013000000000000002,-0.00014,-0.00045999999999999996,-0.00025,0.00011999999999999999,6
24657,25316,4e-05,2e-05,-2.9999999999999997e-05,-0.00013000000000000002,-0.00014,-0.00045999999999999996,-0.00025,0.00011999999999999999,6
24658,25317,4e-05,2e-05,-2.9999999999999997e-05,-0.00013000000000000002,-0.00014,-0.00045999999999999996,-0.00025,0.00011999999999999999,6
24659,25318,4e-05,2e-05,-2.9999999999999997e-05,-0.00013000000000000002,-0.00014,-0.00045999999999999996,-0.00025,0.00011999999999999999,6
24660,25319,-8e-05,2.9999999999999997e-05,0.0,-0.0001,-0.00029,-0.00028,-0.00011,4e-05,6
24661,25320,-8e-05,2.9999999999999997e-05,0.0,-0.0001,-0.00029,-0.00028,-0.00011,4e-05,6
24662,25321,-8e-05,2.9999999999999997e-05,0.0,-0.0001,-0.00029,-0.00028,-0.00011,4e-05,6
24663,25322,-8e-05,2.9999999999999997e-05,0.0,-0.0001,-0.00029,-0.00028,-0.00011,4e-05,6
24664,25323,-8e-05,2.9999999999999997e-05,0.0,-0.0001,-0.00029,-0.00028,-0.00011,4e-05,6
24665,25324,-8e-05,2.9999999999999997e-05,0.0,-0.0001,-0.00029,-0.00028,-0.00011,4e-05,6
24666,25325,-8e-05,2.9999999999999997e-05,0.0,-0.0001,-0.00029,-0.00028,-0.00011,4e-05,6
24667,25326,-8e-05,2.9999999999999997e-05,0.0,-0.0001,-0.00029,-0.00028,-0.00011,4e-05,6
24668,25327,-8e-05,2.9999999999999997e-05,0.0,-0.0001,-0.00029,-0.00028,-0.00011,4e-05,6
24669,25328,-8e-05,2.9999999999999997e-05,0.0,-0.0001,-0.00029,-0.00028,-0.00011,4e-05,6
24670,25329,-8e-05,2.9999999999999997e-05,0.0,-0.0001,-0.00029,-0.00028,-0.00011,4e-05,6
24671,25330,-8e-05,2.9999999999999997e-05,0.0,-0.0001,-0.00029,-0.00028,-0.00011,4e-05,6
24672,25331,-8e-05,2.9999999999999997e-05,0.0,-0.0001,-0.00029,-0.00028,-0.00011,4e-05,6
24673,25332,-8e-05,2.9999999999999997e-05,0.0,-0.0001,-0.00029,-0.00028,-0.00011,4e-05,6
24674,25333,-8e-05,2.9999999999999997e-05,0.0,-0.0001,-0.00029,-0.00028,-0.00011,4e-05,6
24675,25334,-8e-05,2.9999999999999997e-05,0.0,-0.0001,-0.00029,-0.00028,-0.00011,4e-05,6
24676,25335,-8e-05,2.9999999999999997e-05,0.0,-0.0001,-0.00029,-0.00028,-0.00011,4e-05,6
24677,25336,-8e-05,2.9999999999999997e-05,0.0,-0.0001,-0.00029,-0.00028,-0.00011,4e-05,6
24678,25338,-8e-05,2.9999999999999997e-05,0.0,-0.0001,-0.00029,-0.00028,-0.00011,4e-05,6
24679,25339,-8e-05,2.9999999999999997e-05,0.0,-0.0001,-0.00029,-0.00028,-0.00011,4e-05,6
24680,25340,-8e-05,2.9999999999999997e-05,0.0,-0.0001,-0.00029,-0.00028,-0.00011,4e-05,6
24681,25341,-8e-05,2.9999999999999997e-05,0.0,-0.0001,-0.00029,-0.00028,-0.00011,4e-05,6
24682,25342,-0.00014,-7e-05,-0.00013000000000000002,-0.00014,0.00063,-0.00066,2e-05,-2e-05,6
24683,25343,-2.9999999999999997e-05,0.0,-2e-05,-0.0001,0.0003,-0.00028,5.9999999999999995e-05,0.00027,6
24684,25344,-2.9999999999999997e-05,0.0,-2e-05,-0.0001,0.0003,-0.00028,5.9999999999999995e-05,0.00027,6
24685,25345,-2.9999999999999997e-05,0.0,-2e-05,-0.0001,0.0003,-0.00028,5.9999999999999995e-05,0.00027,6
24686,25346,-2.9999999999999997e-05,0.0,-2e-05,-0.0001,0.0003,-0.00028,5.9999999999999995e-05,0.00027,6
24687,25347,-2.9999999999999997e-05,0.0,-2e-05,-0.0001,0.0003,-0.00028,5.9999999999999995e-05,0.00027,6
24688,25348,-2.9999999999999997e-05,0.0,-2e-05,-0.0001,0.0003,-0.00028,5.9999999999999995e-05,0.00027,6
24689,25349,-2.9999999999999997e-05,0.0,-2e-05,-0.0001,0.0003,-0.00028,5.9999999999999995e-05,0.00027,6
24690,25350,-2.9999999999999997e-05,0.0,-2e-05,-0.0001,0.0003,-0.00028,5.9999999999999995e-05,0.00027,6
24691,25351,-2.9999999999999997e-05,0.0,-2e-05,-0.0001,0.0003,-0.00028,5.9999999999999995e-05,0.00027,6
24692,25352,-2.9999999999999997e-05,0.0,-2e-05,-0.0001,0.0003,-0.00028,5.9999999999999995e-05,0.00027,6
24693,25353,-2.9999999999999997e-05,0.0,-2e-05,-0.0001,0.0003,-0.00028,5.9999999999999995e-05,0.00027,6
24694,25354,-2.9999999999999997e-05,0.0,-2e-05,-0.0001,0.0003,-0.00028,5.9999999999999995e-05,0.00027,6
24695,25355,-2.9999999999999997e-05,0.0,-2e-05,-0.0001,0.0003,-0.00028,5.9999999999999995e-05,0.00027,6
24696,25356,-2.9999999999999997e-05,0.0,-2e-05,-0.0001,0.0003,-0.00028,5.9999999999999995e-05,0.00027,6
24697,25357,-2.9999999999999997e-05,0.0,-2e-05,-0.0001,0.0003,-0.00028,5.9999999999999995e-05,0.00027,6
24698,25358,0.0,5e-05,0.00027,0.0008699999999999999,0.0008699999999999999,0.00085,0.00032,0.00016,6
24699,25359,-0.00026000000000000003,-9e-05,-0.00011999999999999999,-0.00043,-0.00107,-0.00011,-0.00053,-0.00107,6
24700,25360,-0.00026000000000000003,-9e-05,-0.00011999999999999999,-0.00043,-0.00107,-0.00011,-0.00053,-0.00107,6
24701,25361,-0.00026000000000000003,-9e-05,-0.00011999999999999999,-0.00043,-0.00107,-0.00011,-0.00053,-0.00107,6
24702,25362,-0.00026000000000000003,-9e-05,-0.00011999999999999999,-0.00043,-0.00107,-0.00011,-0.00053,-0.00107,6
24703,25363,-0.00026000000000000003,-9e-05,-0.00011999999999999999,-0.00043,-0.00107,-0.00011,-0.00053,-0.00107,6
24704,25364,-0.00026000000000000003,-9e-05,-0.00011999999999999999,-0.00043,-0.00107,-0.00011,-0.00053,-0.00107,6
24705,25365,-0.00026000000000000003,-9e-05,-0.00011999999999999999,-0.00043,-0.00107,-0.00011,-0.00053,-0.00107,6
24706,25366,-0.00026000000000000003,-9e-05,-0.00011999999999999999,-0.00043,-0.00107,-0.00011,-0.00053,-0.00107,6
24707,25367,-0.00026000000000000003,-9e-05,-0.00011999999999999999,-0.00043,-0.00107,-0.00011,-0.00053,-0.00107,6
24708,25368,-0.00026000000000000003,-9e-05,-0.00011999999999999999,-0.00043,-0.00107,-0.00011,-0.00053,-0.00107,6
24709,25369,-0.00026000000000000003,-9e-05,-0.00011999999999999999,-0.00043,-0.00107,-0.00011,-0.00053,-0.00107,6
24710,25370,-0.00026000000000000003,-9e-05,-0.00011999999999999999,-0.00043,-0.00107,-0.00011,-0.00053,-0.00107,6
24711,25371,0.0,-0.0001,-0.00018,-0.00056,-0.0004,-5.9999999999999995e-05,-0.00013000000000000002,-5e-05,6
24712,25372,0.0,-0.0001,-0.00018,-0.00056,-0.0004,-5.9999999999999995e-05,-0.00013000000000000002,-5e-05,6
24713,25373,0.0,-0.0001,-0.00018,-0.00056,-0.0004,-5.9999999999999995e-05,-0.00013000000000000002,-5e-05,6
24714,25374,0.0,-0.0001,-0.00018,-0.00056,-0.0004,-5.9999999999999995e-05,-0.00013000000000000002,-5e-05,6
24715,25375,0.0,-0.0001,-0.00018,-0.00056,-0.0004,-5.9999999999999995e-05,-0.00013000000000000002,-5e-05,6
24716,25376,0.0,-0.0001,-0.00018,-0.00056,-0.0004,-5.9999999999999995e-05,-0.00013000000000000002,-5e-05,6
24717,25377,0.0,-0.0001,-0.00018,-0.00056,-0.0004,-5.9999999999999995e-05,-0.00013000000000000002,-5e-05,6
24718,25378,0.0,-0.0001,-0.00018,-0.00056,-0.0004,-5.9999999999999995e-05,-0.00013000000000000002,-5e-05,6
24719,25379,2.9999999999999997e-05,-0.0001,-9e-05,-0.00026000000000000003,-0.00109,-0.00015,2.9999999999999997e-05,0.00079,6
24720,25380,2.9999999999999997e-05,-0.0001,-9e-05,-0.00026000000000000003,-0.00109,-0.00015,2.9999999999999997e-05,0.00079,6
24721,25381,2.9999999999999997e-05,-0.0001,-9e-05,-0.00026000000000000003,-0.00109,-0.00015,2.9999999999999997e-05,0.00079,6
24722,25382,2.9999999999999997e-05,-0.0001,-9e-05,-0.00026000000000000003,-0.00109,-0.00015,2.9999999999999997e-05,0.00079,6
24723,25383,2.9999999999999997e-05,-0.0001,-9e-05,-0.00026000000000000003,-0.00109,-0.00015,2.9999999999999997e-05,0.00079,6
24724,25384,2.9999999999999997e-05,-0.0001,-9e-05,-0.00026000000000000003,-0.00109,-0.00015,2.9999999999999997e-05,0.00079,6
24725,25385,2.9999999999999997e-05,-0.0001,-9e-05,-0.00026000000000000003,-0.00109,-0.00015,2.9999999999999997e-05,0.00079,6
24726,25386,2.9999999999999997e-05,-0.0001,-9e-05,-0.00026000000000000003,-0.00109,-0.00015,2.9999999999999997e-05,0.00079,6
24727,25388,2.9999999999999997e-05,-0.0001,-9e-05,-0.00026000000000000003,-0.00109,-0.00015,2.9999999999999997e-05,0.00079,6
24728,25389,2.9999999999999997e-05,-0.0001,-9e-05,-0.00026000000000000003,-0.00109,-0.00015,2.9999999999999997e-05,0.00079,6
24729,25390,2.9999999999999997e-05,-0.0001,-9e-05,-0.00026000000000000003,-0.00109,-0.00015,2.9999999999999997e-05,0.00079,6
24730,25391,2.9999999999999997e-05,-0.0001,-9e-05,-0.00026000000000000003,-0.00109,-0.00015,2.9999999999999997e-05,0.00079,6
24731,25392,2.9999999999999997e-05,-0.0001,-9e-05,-0.00026000000000000003,-0.00109,-0.00015,2.9999999999999997e-05,0.00079,6
24732,25393,2.9999999999999997e-05,-0.0001,-9e-05,-0.00026000000000000003,-0.00109,-0.00015,2.9999999999999997e-05,0.00079,6
24733,25394,2.9999999999999997e-05,-1e-05,-4e-05,1e-05,5e-05,-0.00044,-5.9999999999999995e-05,-9e-05,6
24734,25395,0.0001,9e-05,0.00014,0.00023999999999999998,0.00033999999999999997,0.0,0.00015,0.00026000000000000003,6
24735,25396,0.0001,9e-05,0.00014,0.00023999999999999998,0.00033999999999999997,0.0,0.00015,0.00026000000000000003,6
24736,25397,0.0001,9e-05,0.00014,0.00023999999999999998,0.00033999999999999997,0.0,0.00015,0.00026000000000000003,6
24737,25398,0.0001,9e-05,0.00014,0.00023999999999999998,0.00033999999999999997,0.0,0.00015,0.00026000000000000003,6
24738,25399,0.0001,9e-05,0.00014,0.00023999999999999998,0.00033999999999999997,0.0,0.00015,0.00026000000000000003,6
24739,25400,0.0001,9e-05,0.00014,0.00023999999999999998,0.00033999999999999997,0.0,0.00015,0.00026000000000000003,6
24740,25401,0.0001,9e-05,0.00014,0.00023999999999999998,0.00033999999999999997,0.0,0.00015,0.00026000000000000003,6
24741,25402,0.0001,9e-05,0.00014,0.00023999999999999998,0.00033999999999999997,0.0,0.00015,0.00026000000000000003,6
24742,25403,0.0001,9e-05,0.00014,0.00023999999999999998,0.00033999999999999997,0.0,0.00015,0.00026000000000000003,6
24743,25404,0.0001,9e-05,0.00014,0.00023999999999999998,0.00033999999999999997,0.0,0.00015,0.00026000000000000003,6
24744,25405,0.0001,9e-05,0.00014,0.00023999999999999998,0.00033999999999999997,0.0,0.00015,0.00026000000000000003,6
24745,25406,0.0001,9e-05,0.00014,0.00023999999999999998,0.00033999999999999997,0.0,0.00015,0.00026000000000000003,6
24746,25407,0.0001,9e-05,0.00014,0.00023999999999999998,0.00033999999999999997,0.0,0.00015,0.00026000000000000003,6
24747,25408,0.0001,9e-05,0.00014,0.00023999999999999998,0.00033999999999999997,0.0,0.00015,0.00026000000000000003,6
24748,25409,0.0001,9e-05,0.00014,0.00023999999999999998,0.00033999999999999997,0.0,0.00015,0.00026000000000000003,6
24749,25410,0.0001,9e-05,0.00014,0.00023999999999999998,0.00033999999999999997,0.0,0.00015,0.00026000000000000003,6
24750,25411,0.0001,9e-05,0.00014,0.00023999999999999998,0.00033999999999999997,0.0,0.00015,0.00026000000000000003,6
24751,25412,0.0001,9e-05,0.00014,0.00023999999999999998,0.00033999999999999997,0.0,0.00015,0.00026000000000000003,6
24752,25413,0.0001,9e-05,0.00014,0.00023999999999999998,0.00033999999999999997,0.0,0.00015,0.00026000000000000003,6
24753,25414,0.0001,9e-05,0.00014,0.00023999999999999998,0.00033999999999999997,0.0,0.00015,0.00026000000000000003,6
24754,25415,0.0001,9e-05,0.00014,0.00023999999999999998,0.00033999999999999997,0.0,0.00015,0.00026000000000000003,6
24755,25416,0.0001,9e-05,0.00014,0.00023999999999999998,0.00033999999999999997,0.0,0.00015,0.00026000000000000003,6
24756,25417,0.0001,9e-05,0.00014,0.00023999999999999998,0.00033999999999999997,0.0,0.00015,0.00026000000000000003,6
24757,25418,-0.00016,-8e-05,4e-05,5e-05,0.00031,5.9999999999999995e-05,-0.0001,-0.00042,6
24758,25419,-0.00011,-5e-05,-1e-05,0.0005099999999999999,0.00074,-0.00028,5.9999999999999995e-05,-0.00033,6
24759,25420,-0.00011,-5e-05,-1e-05,0.0005099999999999999,0.00074,-0.00028,5.9999999999999995e-05,-0.00033,6
24760,25421,-0.00011,-5e-05,-1e-05,0.0005099999999999999,0.00074,-0.00028,5.9999999999999995e-05,-0.00033,6
24761,25422,-0.00011,-5e-05,-1e-05,0.0005099999999999999,0.00074,-0.00028,5.9999999999999995e-05,-0.00033,6
24762,25423,-0.00011,-5e-05,-1e-05,0.0005099999999999999,0.00074,-0.00028,5.9999999999999995e-05,-0.00033,6
24763,25424,-0.00011,-5e-05,-1e-05,0.0005099999999999999,0.00074,-0.00028,5.9999999999999995e-05,-0.00033,6
24764,25425,-0.00011,-5e-05,-1e-05,0.0005099999999999999,0.00074,-0.00028,5.9999999999999995e-05,-0.00033,6
24765,25426,-0.00011,-5e-05,-1e-05,0.0005099999999999999,0.00074,-0.00028,5.9999999999999995e-05,-0.00033,6
24766,25427,-0.00011,-5e-05,-1e-05,0.0005099999999999999,0.00074,-0.00028,5.9999999999999995e-05,-0.00033,6
24767,25428,-0.00011,-5e-05,-1e-05,0.0005099999999999999,0.00074,-0.00028,5.9999999999999995e-05,-0.00033,6
24768,25429,-0.00011,-5e-05,-1e-05,0.0005099999999999999,0.00074,-0.00028,5.9999999999999995e-05,-0.00033,6
24769,25430,-0.00011,-5e-05,-1e-05,0.0005099999999999999,0.00074,-0.00028,5.9999999999999995e-05,-0.00033,6
24770,25431,-9e-05,-7e-05,-8e-05,-0.00014,-0.00095,0.00081,0.00011,-0.0003,6
24771,25432,-9e-05,-7e-05,-8e-05,-0.00014,-0.00095,0.00081,0.00011,-0.0003,6
24772,25433,-9e-05,-7e-05,-8e-05,-0.00014,-0.00095,0.00081,0.00011,-0.0003,6
24773,25434,-9e-05,-7e-05,-8e-05,-0.00014,-0.00095,0.00081,0.00011,-0.0003,6
24774,25435,-9e-05,-7e-05,-8e-05,-0.00014,-0.00095,0.00081,0.00011,-0.0003,6
24775,25436,-9e-05,-7e-05,-8e-05,-0.00014,-0.00095,0.00081,0.00011,-0.0003,6
24776,25438,-9e-05,-7e-05,-8e-05,-0.00014,-0.00095,0.00081,0.00011,-0.0003,6
24777,25439,-9e-05,-0.00015,-0.00018999999999999998,-0.00054,-0.0008,-2.9999999999999997e-05,-0.00022999999999999998,-0.00015,6
24778,25440,-9e-05,-0.00015,-0.00018999999999999998,-0.00054,-0.0008,-2.9999999999999997e-05,-0.00022999999999999998,-0.00015,6
24779,25441,-9e-05,-0.00015,-0.00018999999999999998,-0.00054,-0.0008,-2.9999999999999997e-05,-0.00022999999999999998,-0.00015,6
24780,25442,-9e-05,-0.00015,-0.00018999999999999998,-0.00054,-0.0008,-2.9999999999999997e-05,-0.00022999999999999998,-0.00015,6
24781,25443,-9e-05,-0.00015,-0.00018999999999999998,-0.00054,-0.0008,-2.9999999999999997e-05,-0.00022999999999999998,-0.00015,6
24782,25444,-9e-05,-0.00015,-0.00018999999999999998,-0.00054,-0.0008,-2.9999999999999997e-05,-0.00022999999999999998,-0.00015,6
24783,25445,-9e-05,-0.00015,-0.00018999999999999998,-0.00054,-0.0008,-2.9999999999999997e-05,-0.00022999999999999998,-0.00015,6
24784,25446,-9e-05,-0.00015,-0.00018999999999999998,-0.00054,-0.0008,-2.9999999999999997e-05,-0.00022999999999999998,-0.00015,6
24785,25447,-9e-05,-0.00015,-0.00018999999999999998,-0.00054,-0.0008,-2.9999999999999997e-05,-0.00022999999999999998,-0.00015,6
24786,25448,-9e-05,-0.00015,-0.00018999999999999998,-0.00054,-0.0008,-2.9999999999999997e-05,-0.00022999999999999998,-0.00015,6
24787,25449,-9e-05,-0.00015,-0.00018999999999999998,-0.00054,-0.0008,-2.9999999999999997e-05,-0.00022999999999999998,-0.00015,6
24788,25450,-9e-05,-0.00015,-0.00018999999999999998,-0.00054,-0.0008,-2.9999999999999997e-05,-0.00022999999999999998,-0.00015,6
24789,25451,-9e-05,-0.00015,-0.00018999999999999998,-0.00054,-0.0008,-2.9999999999999997e-05,-0.00022999999999999998,-0.00015,6
24790,25452,-9e-05,-0.00015,-0.00018999999999999998,-0.00054,-0.0008,-2.9999999999999997e-05,-0.00022999999999999998,-0.00015,6
24791,25453,-9e-05,-0.00015,-0.00018999999999999998,-0.00054,-0.0008,-2.9999999999999997e-05,-0.00022999999999999998,-0.00015,6
24792,25454,1e-05,0.00011999999999999999,5e-05,9e-05,0.00033999999999999997,0.00036,-4e-05,-0.00027,6
24793,25455,0.00025,0.00022999999999999998,9e-05,-0.00025,0.00033,0.00022999999999999998,0.00033,0.0005200000000000001,6
24794,25456,0.00025,0.00022999999999999998,9e-05,-0.00025,0.00033,0.00022999999999999998,0.00033,0.0005200000000000001,6
24795,25457,0.00025,0.00022999999999999998,9e-05,-0.00025,0.00033,0.00022999999999999998,0.00033,0.0005200000000000001,6
24796,25458,0.00025,0.00022999999999999998,9e-05,-0.00025,0.00033,0.00022999999999999998,0.00033,0.0005200000000000001,6
24797,25459,0.00025,0.00022999999999999998,9e-05,-0.00025,0.00033,0.00022999999999999998,0.00033,0.0005200000000000001,6
24798,25460,0.00025,0.00022999999999999998,9e-05,-0.00025,0.00033,0.00022999999999999998,0.00033,0.0005200000000000001,6
24799,25461,0.00025,0.00022999999999999998,9e-05,-0.00025,0.00033,0.00022999999999999998,0.00033,0.0005200000000000001,6
24800,25462,0.00025,0.00022999999999999998,9e-05,-0.00025,0.00033,0.00022999999999999998,0.00033,0.0005200000000000001,6
24801,25463,0.00025,0.00022999999999999998,9e-05,-0.00025,0.00033,0.00022999999999999998,0.00033,0.0005200000000000001,6
24802,25464,0.00025,0.00022999999999999998,9e-05,-0.00025,0.00033,0.00022999999999999998,0.00033,0.0005200000000000001,6
24803,25465,0.00025,0.00022999999999999998,9e-05,-0.00025,0.00033,0.00022999999999999998,0.00033,0.0005200000000000001,6
24804,25466,0.00025,0.00022999999999999998,9e-05,-0.00025,0.00033,0.00022999999999999998,0.00033,0.0005200000000000001,6
24805,25467,0.00025,0.00022999999999999998,9e-05,-0.00025,0.00033,0.00022999999999999998,0.00033,0.0005200000000000001,6
24806,25468,0.00025,0.00022999999999999998,9e-05,-0.00025,0.00033,0.00022999999999999998,0.00033,0.0005200000000000001,6
24807,25469,0.00025,0.00022999999999999998,9e-05,-0.00025,0.00033,0.00022999999999999998,0.00033,0.0005200000000000001,6
24808,25470,0.00025,0.00022999999999999998,9e-05,-0.00025,0.00033,0.00022999999999999998,0.00033,0.0005200000000000001,6
24809,25471,0.00025,0.00022999999999999998,9e-05,-0.00025,0.00033,0.00022999999999999998,0.00033,0.0005200000000000001,6
24810,25472,0.00025,0.00022999999999999998,9e-05,-0.00025,0.00033,0.00022999999999999998,0.00033,0.0005200000000000001,6
24811,25473,0.00025,0.00022999999999999998,9e-05,-0.00025,0.00033,0.00022999999999999998,0.00033,0.0005200000000000001,6
24812,25474,0.00025,0.00022999999999999998,9e-05,-0.00025,0.00033,0.00022999999999999998,0.00033,0.0005200000000000001,6
24813,25475,0.00025,0.00022999999999999998,9e-05,-0.00025,0.00033,0.00022999999999999998,0.00033,0.0005200000000000001,6
24814,25476,0.00025,0.00022999999999999998,9e-05,-0.00025,0.00033,0.00022999999999999998,0.00033,0.0005200000000000001,6
24815,25477,2e-05,-0.0001,-0.00011,-0.00029,-0.00049,2.9999999999999997e-05,0.00016,0.0,6
24816,25478,-0.00013000000000000002,-5.9999999999999995e-05,-0.00011,-0.00022,-0.00056,0.00042,-0.00011999999999999999,-0.00054,6
24817,25479,-0.00013000000000000002,-5.9999999999999995e-05,-0.00011,-0.00022,-0.00056,0.00042,-0.00011999999999999999,-0.00054,6
24818,25480,-0.00013000000000000002,-5.9999999999999995e-05,-0.00011,-0.00022,-0.00056,0.00042,-0.00011999999999999999,-0.00054,6
24819,25481,-0.00013000000000000002,-5.9999999999999995e-05,-0.00011,-0.00022,-0.00056,0.00042,-0.00011999999999999999,-0.00054,6
24820,25482,-0.00013000000000000002,-5.9999999999999995e-05,-0.00011,-0.00022,-0.00056,0.00042,-0.00011999999999999999,-0.00054,6
24821,25483,-0.00013000000000000002,-5.9999999999999995e-05,-0.00011,-0.00022,-0.00056,0.00042,-0.00011999999999999999,-0.00054,6
24822,25484,-0.00013000000000000002,-5.9999999999999995e-05,-0.00011,-0.00022,-0.00056,0.00042,-0.00011999999999999999,-0.00054,6
24823,25485,-0.00013000000000000002,-5.9999999999999995e-05,-0.00011,-0.00022,-0.00056,0.00042,-0.00011999999999999999,-0.00054,6
24824,25486,-0.00013000000000000002,-5.9999999999999995e-05,-0.00011,-0.00022,-0.00056,0.00042,-0.00011999999999999999,-0.00054,6
24825,25488,-0.00013000000000000002,-5.9999999999999995e-05,-0.00011,-0.00022,-0.00056,0.00042,-0.00011999999999999999,-0.00054,6
24826,25489,-0.00013000000000000002,-5.9999999999999995e-05,-0.00011,-0.00022,-0.00056,0.00042,-0.00011999999999999999,-0.00054,6
24827,25490,-0.00013000000000000002,-5.9999999999999995e-05,-0.00011,-0.00022,-0.00056,0.00042,-0.00011999999999999999,-0.00054,6
24828,25491,-0.00013000000000000002,-5.9999999999999995e-05,-0.00011,-0.00022,-0.00056,0.00042,-0.00011999999999999999,-0.00054,6
24829,25492,2.9999999999999997e-05,5.9999999999999995e-05,5.9999999999999995e-05,0.0,-0.00072,-0.0007099999999999999,-0.00042,-0.00015,6
24830,25493,2.9999999999999997e-05,5.9999999999999995e-05,5.9999999999999995e-05,0.0,-0.00072,-0.0007099999999999999,-0.00042,-0.00015,6
24831,25494,2.9999999999999997e-05,5.9999999999999995e-05,5.9999999999999995e-05,0.0,-0.00072,-0.0007099999999999999,-0.00042,-0.00015,6
24832,25495,2.9999999999999997e-05,5.9999999999999995e-05,5.9999999999999995e-05,0.0,-0.00072,-0.0007099999999999999,-0.00042,-0.00015,6
24833,25496,2.9999999999999997e-05,5.9999999999999995e-05,5.9999999999999995e-05,0.0,-0.00072,-0.0007099999999999999,-0.00042,-0.00015,6
24834,25497,2.9999999999999997e-05,5.9999999999999995e-05,5.9999999999999995e-05,0.0,-0.00072,-0.0007099999999999999,-0.00042,-0.00015,6
24835,25498,2.9999999999999997e-05,5.9999999999999995e-05,5.9999999999999995e-05,0.0,-0.00072,-0.0007099999999999999,-0.00042,-0.00015,6
24836,25499,-1e-05,-2e-05,5.9999999999999995e-05,0.00016,-0.00023999999999999998,-0.00039,0.00018999999999999998,-0.00014,6
24837,25500,-1e-05,-2e-05,5.9999999999999995e-05,0.00016,-0.00023999999999999998,-0.00039,0.00018999999999999998,-0.00014,6
24838,25501,-1e-05,-2e-05,5.9999999999999995e-05,0.00016,-0.00023999999999999998,-0.00039,0.00018999999999999998,-0.00014,6
24839,25502,-1e-05,-2e-05,5.9999999999999995e-05,0.00016,-0.00023999999999999998,-0.00039,0.00018999999999999998,-0.00014,6
24840,25503,-1e-05,-2e-05,5.9999999999999995e-05,0.00016,-0.00023999999999999998,-0.00039,0.00018999999999999998,-0.00014,6
24841,25504,-1e-05,-2e-05,5.9999999999999995e-05,0.00016,-0.00023999999999999998,-0.00039,0.00018999999999999998,-0.00014,6
24842,25505,-1e-05,-2e-05,5.9999999999999995e-05,0.00016,-0.00023999999999999998,-0.00039,0.00018999999999999998,-0.00014,6
24843,25506,-1e-05,-2e-05,5.9999999999999995e-05,0.00016,-0.00023999999999999998,-0.00039,0.00018999999999999998,-0.00014,6
24844,25507,-1e-05,-2e-05,5.9999999999999995e-05,0.00016,-0.00023999999999999998,-0.00039,0.00018999999999999998,-0.00014,6
24845,25508,-1e-05,-2e-05,5.9999999999999995e-05,0.00016,-0.00023999999999999998,-0.00039,0.00018999999999999998,-0.00014,6
24846,25509,-1e-05,-2e-05,5.9999999999999995e-05,0.00016,-0.00023999999999999998,-0.00039,0.00018999999999999998,-0.00014,6
24847,25510,-1e-05,-2e-05,5.9999999999999995e-05,0.00016,-0.00023999999999999998,-0.00039,0.00018999999999999998,-0.00014,6
24848,25511,-1e-05,-2e-05,5.9999999999999995e-05,0.00016,-0.00023999999999999998,-0.00039,0.00018999999999999998,-0.00014,6
24849,25512,-1e-05,-2e-05,5.9999999999999995e-05,0.00016,-0.00023999999999999998,-0.00039,0.00018999999999999998,-0.00014,6
24850,25513,-1e-05,-2e-05,5.9999999999999995e-05,0.00016,-0.00023999999999999998,-0.00039,0.00018999999999999998,-0.00014,6
24851,25514,-1e-05,-2e-05,5.9999999999999995e-05,0.00016,-0.00023999999999999998,-0.00039,0.00018999999999999998,-0.00014,6
24852,25515,-0.00011999999999999999,-5e-05,-5.9999999999999995e-05,-7e-05,0.00023999999999999998,5.9999999999999995e-05,-0.00011999999999999999,-0.00064,6
24853,25516,-0.00011999999999999999,-5e-05,-5.9999999999999995e-05,-7e-05,0.00023999999999999998,5.9999999999999995e-05,-0.00011999999999999999,-0.00064,6
24854,25517,-0.00011999999999999999,-5e-05,-5.9999999999999995e-05,-7e-05,0.00023999999999999998,5.9999999999999995e-05,-0.00011999999999999999,-0.00064,6
24855,25518,-0.00011999999999999999,-5e-05,-5.9999999999999995e-05,-7e-05,0.00023999999999999998,5.9999999999999995e-05,-0.00011999999999999999,-0.00064,6
24856,25519,-0.00011999999999999999,-5e-05,-5.9999999999999995e-05,-7e-05,0.00023999999999999998,5.9999999999999995e-05,-0.00011999999999999999,-0.00064,6
24857,25520,-0.00011999999999999999,-5e-05,-5.9999999999999995e-05,-7e-05,0.00023999999999999998,5.9999999999999995e-05,-0.00011999999999999999,-0.00064,6
24858,25521,-0.00011999999999999999,-5e-05,-5.9999999999999995e-05,-7e-05,0.00023999999999999998,5.9999999999999995e-05,-0.00011999999999999999,-0.00064,6
24859,25522,-0.00011999999999999999,-5e-05,-5.9999999999999995e-05,-7e-05,0.00023999999999999998,5.9999999999999995e-05,-0.00011999999999999999,-0.00064,6
24860,25523,-0.00011999999999999999,-5e-05,-5.9999999999999995e-05,-7e-05,0.00023999999999999998,5.9999999999999995e-05,-0.00011999999999999999,-0.00064,6
24861,25524,-0.00011999999999999999,-5e-05,-5.9999999999999995e-05,-7e-05,0.00023999999999999998,5.9999999999999995e-05,-0.00011999999999999999,-0.00064,6
24862,25525,-0.00011999999999999999,-5e-05,-5.9999999999999995e-05,-7e-05,0.00023999999999999998,5.9999999999999995e-05,-0.00011999999999999999,-0.00064,6
24863,25526,-0.00011999999999999999,-5e-05,-5.9999999999999995e-05,-7e-05,0.00023999999999999998,5.9999999999999995e-05,-0.00011999999999999999,-0.00064,6
24864,25527,-0.00011999999999999999,-5e-05,-5.9999999999999995e-05,-7e-05,0.00023999999999999998,5.9999999999999995e-05,-0.00011999999999999999,-0.00064,6
24865,25528,-0.00011999999999999999,-5e-05,-5.9999999999999995e-05,-7e-05,0.00023999999999999998,5.9999999999999995e-05,-0.00011999999999999999,-0.00064,6
24866,25529,-0.00011999999999999999,-5e-05,-5.9999999999999995e-05,-7e-05,0.00023999999999999998,5.9999999999999995e-05,-0.00011999999999999999,-0.00064,6
24867,25530,-0.00011999999999999999,-5e-05,-5.9999999999999995e-05,-7e-05,0.00023999999999999998,5.9999999999999995e-05,-0.00011999999999999999,-0.00064,6
24868,25531,-0.00011999999999999999,-5e-05,-5.9999999999999995e-05,-7e-05,0.00023999999999999998,5.9999999999999995e-05,-0.00011999999999999999,-0.00064,6
24869,25532,-0.00011999999999999999,-5e-05,-5.9999999999999995e-05,-7e-05,0.00023999999999999998,5.9999999999999995e-05,-0.00011999999999999999,-0.00064,6
24870,25533,-0.00011999999999999999,-5e-05,-5.9999999999999995e-05,-7e-05,0.00023999999999999998,5.9999999999999995e-05,-0.00011999999999999999,-0.00064,6
24871,25534,-0.00011999999999999999,-5e-05,-5.9999999999999995e-05,-7e-05,0.00023999999999999998,5.9999999999999995e-05,-0.00011999999999999999,-0.00064,6
24872,25535,-0.00011999999999999999,-5e-05,-5.9999999999999995e-05,-7e-05,0.00023999999999999998,5.9999999999999995e-05,-0.00011999999999999999,-0.00064,6
24873,25536,-0.00011999999999999999,-5e-05,-5.9999999999999995e-05,-7e-05,0.00023999999999999998,5.9999999999999995e-05,-0.00011999999999999999,-0.00064,6
24874,25538,-0.00011999999999999999,-5e-05,-5.9999999999999995e-05,-7e-05,0.00023999999999999998,5.9999999999999995e-05,-0.00011999999999999999,-0.00064,6
24875,25539,-0.00011999999999999999,-5e-05,-5.9999999999999995e-05,-7e-05,0.00023999999999999998,5.9999999999999995e-05,-0.00011999999999999999,-0.00064,6
24876,25540,-0.00011999999999999999,-5e-05,-5.9999999999999995e-05,-7e-05,0.00023999999999999998,5.9999999999999995e-05,-0.00011999999999999999,-0.00064,6
24877,25541,-0.00011999999999999999,-5e-05,-5.9999999999999995e-05,-7e-05,0.00023999999999999998,5.9999999999999995e-05,-0.00011999999999999999,-0.00064,6
24878,25542,-0.00011999999999999999,-5e-05,-5.9999999999999995e-05,-7e-05,0.00023999999999999998,5.9999999999999995e-05,-0.00011999999999999999,-0.00064,6
24879,25543,-0.00011999999999999999,-5e-05,-5.9999999999999995e-05,-7e-05,0.00023999999999999998,5.9999999999999995e-05,-0.00011999999999999999,-0.00064,6
24880,25544,-0.00011999999999999999,-5e-05,-5.9999999999999995e-05,-7e-05,0.00023999999999999998,5.9999999999999995e-05,-0.00011999999999999999,-0.00064,6
24881,25545,5.9999999999999995e-05,-0.00011,-2.9999999999999997e-05,2e-05,-0.00062,-0.00031,-0.0002,-5.9999999999999995e-05,6
24882,25546,-5.9999999999999995e-05,-2.9999999999999997e-05,0.0,0.00032,0.00124,0.00027,-0.00018,0.0003,6
24883,25547,-5.9999999999999995e-05,-2.9999999999999997e-05,0.0,0.00032,0.00124,0.00027,-0.00018,0.0003,6
24884,25548,-5.9999999999999995e-05,-2.9999999999999997e-05,0.0,0.00032,0.00124,0.00027,-0.00018,0.0003,6
24885,25549,-5.9999999999999995e-05,-2.9999999999999997e-05,0.0,0.00032,0.00124,0.00027,-0.00018,0.0003,6
24886,25550,-5.9999999999999995e-05,-2.9999999999999997e-05,0.0,0.00032,0.00124,0.00027,-0.00018,0.0003,6
24887,25551,1e-05,7e-05,2.9999999999999997e-05,5e-05,0.00043,0.00039,-0.00018999999999999998,-0.0006,6
24888,25552,1e-05,7e-05,2.9999999999999997e-05,5e-05,0.00043,0.00039,-0.00018999999999999998,-0.0006,6
24889,25553,1e-05,7e-05,2.9999999999999997e-05,5e-05,0.00043,0.00039,-0.00018999999999999998,-0.0006,6
24890,25554,1e-05,7e-05,2.9999999999999997e-05,5e-05,0.00043,0.00039,-0.00018999999999999998,-0.0006,6
24891,25555,1e-05,7e-05,2.9999999999999997e-05,5e-05,0.00043,0.00039,-0.00018999999999999998,-0.0006,6
24892,25556,1e-05,7e-05,2.9999999999999997e-05,5e-05,0.00043,0.00039,-0.00018999999999999998,-0.0006,6
24893,25557,1e-05,7e-05,2.9999999999999997e-05,5e-05,0.00043,0.00039,-0.00018999999999999998,-0.0006,6
24894,25558,1e-05,7e-05,2.9999999999999997e-05,5e-05,0.00043,0.00039,-0.00018999999999999998,-0.0006,6
24895,25559,1e-05,7e-05,2.9999999999999997e-05,5e-05,0.00043,0.00039,-0.00018999999999999998,-0.0006,6
24896,25560,1e-05,7e-05,2.9999999999999997e-05,5e-05,0.00043,0.00039,-0.00018999999999999998,-0.0006,6
24897,25561,1e-05,7e-05,2.9999999999999997e-05,5e-05,0.00043,0.00039,-0.00018999999999999998,-0.0006,6
24898,25562,1e-05,7e-05,2.9999999999999997e-05,5e-05,0.00043,0.00039,-0.00018999999999999998,-0.0006,6
24899,25563,1e-05,7e-05,2.9999999999999997e-05,5e-05,0.00043,0.00039,-0.00018999999999999998,-0.0006,6
24900,25564,1e-05,7e-05,2.9999999999999997e-05,5e-05,0.00043,0.00039,-0.00018999999999999998,-0.0006,6
24901,25565,1e-05,7e-05,2.9999999999999997e-05,5e-05,0.00043,0.00039,-0.00018999999999999998,-0.0006,6
24902,25566,1e-05,7e-05,2.9999999999999997e-05,5e-05,0.00043,0.00039,-0.00018999999999999998,-0.0006,6
24903,25567,0.00016,7e-05,5.9999999999999995e-05,8e-05,0.00023999999999999998,-2e-05,-5.9999999999999995e-05,0.0009699999999999999,6
24904,25568,0.00016,7e-05,5.9999999999999995e-05,8e-05,0.00023999999999999998,-2e-05,-5.9999999999999995e-05,0.0009699999999999999,6
24905,25569,0.00016,7e-05,5.9999999999999995e-05,8e-05,0.00023999999999999998,-2e-05,-5.9999999999999995e-05,0.0009699999999999999,6
24906,25570,0.00016,7e-05,5.9999999999999995e-05,8e-05,0.00023999999999999998,-2e-05,-5.9999999999999995e-05,0.0009699999999999999,6
24907,25571,0.00016,7e-05,5.9999999999999995e-05,8e-05,0.00023999999999999998,-2e-05,-5.9999999999999995e-05,0.0009699999999999999,6
24908,25572,0.00016,7e-05,5.9999999999999995e-05,8e-05,0.00023999999999999998,-2e-05,-5.9999999999999995e-05,0.0009699999999999999,6
24909,25573,0.00016,7e-05,5.9999999999999995e-05,8e-05,0.00023999999999999998,-2e-05,-5.9999999999999995e-05,0.0009699999999999999,6
24910,25574,-7e-05,-5.9999999999999995e-05,-9e-05,-2e-05,0.00016,0.0005,0.00011,0.0003,6
24911,25575,2e-05,-1e-05,-2e-05,-0.0004,-0.0010199999999999999,-0.00028,5e-05,-0.00011999999999999999,6
24912,25576,2e-05,-1e-05,-2e-05,-0.0004,-0.0010199999999999999,-0.00028,5e-05,-0.00011999999999999999,6
24913,25577,2e-05,-1e-05,-2e-05,-0.0004,-0.0010199999999999999,-0.00028,5e-05,-0.00011999999999999999,6
24914,25578,2e-05,-1e-05,-2e-05,-0.0004,-0.0010199999999999999,-0.00028,5e-05,-0.00011999999999999999,6
24915,25579,2e-05,-1e-05,-2e-05,-0.0004,-0.0010199999999999999,-0.00028,5e-05,-0.00011999999999999999,6
24916,25580,2e-05,-1e-05,-2e-05,-0.0004,-0.0010199999999999999,-0.00028,5e-05,-0.00011999999999999999,6
24917,25581,2e-05,-1e-05,-2e-05,-0.0004,-0.0010199999999999999,-0.00028,5e-05,-0.00011999999999999999,6
24918,25582,2e-05,-1e-05,-2e-05,-0.0004,-0.0010199999999999999,-0.00028,5e-05,-0.00011999999999999999,6
24919,25583,2e-05,-1e-05,-2e-05,-0.0004,-0.0010199999999999999,-0.00028,5e-05,-0.00011999999999999999,6
24920,25584,2e-05,-1e-05,-2e-05,-0.0004,-0.0010199999999999999,-0.00028,5e-05,-0.00011999999999999999,6
24921,25585,2e-05,-1e-05,-2e-05,-0.0004,-0.0010199999999999999,-0.00028,5e-05,-0.00011999999999999999,6
24922,25586,2e-05,-1e-05,-2e-05,-0.0004,-0.0010199999999999999,-0.00028,5e-05,-0.00011999999999999999,6
24923,25588,2e-05,-1e-05,-2e-05,-0.0004,-0.0010199999999999999,-0.00028,5e-05,-0.00011999999999999999,6
24924,25589,2e-05,-1e-05,-2e-05,-0.0004,-0.0010199999999999999,-0.00028,5e-05,-0.00011999999999999999,6
24925,25590,2e-05,-1e-05,-2e-05,-0.0004,-0.0010199999999999999,-0.00028,5e-05,-0.00011999999999999999,6
24926,25591,2e-05,-1e-05,-2e-05,-0.0004,-0.0010199999999999999,-0.00028,5e-05,-0.00011999999999999999,6
24927,25592,2e-05,-1e-05,-2e-05,-0.0004,-0.0010199999999999999,-0.00028,5e-05,-0.00011999999999999999,6
24928,25593,2e-05,-1e-05,-2e-05,-0.0004,-0.0010199999999999999,-0.00028,5e-05,-0.00011999999999999999,6
24929,25594,2e-05,-1e-05,-2e-05,-0.0004,-0.0010199999999999999,-0.00028,5e-05,-0.00011999999999999999,6
24930,25595,2e-05,-1e-05,-2e-05,-0.0004,-0.0010199999999999999,-0.00028,5e-05,-0.00011999999999999999,6
24931,25596,2e-05,-1e-05,-2e-05,-0.0004,-0.0010199999999999999,-0.00028,5e-05,-0.00011999999999999999,6
24932,25597,2e-05,-1e-05,-2e-05,-0.0004,-0.0010199999999999999,-0.00028,5e-05,-0.00011999999999999999,6
24933,25598,0.0,-9e-05,-5.9999999999999995e-05,0.00016,-1e-05,-0.00036,-8e-05,0.00054,6
24934,25599,1e-05,-7e-05,-0.0001,-0.00018,-0.0003,-0.00013000000000000002,0.00061,0.00021,6
24935,25600,1e-05,-7e-05,-0.0001,-0.00018,-0.0003,-0.00013000000000000002,0.00061,0.00021,6
24936,25601,1e-05,-7e-05,-0.0001,-0.00018,-0.0003,-0.00013000000000000002,0.00061,0.00021,6
24937,25602,1e-05,-7e-05,-0.0001,-0.00018,-0.0003,-0.00013000000000000002,0.00061,0.00021,6
24938,25603,1e-05,-7e-05,-0.0001,-0.00018,-0.0003,-0.00013000000000000002,0.00061,0.00021,6
24939,25604,1e-05,-7e-05,-0.0001,-0.00018,-0.0003,-0.00013000000000000002,0.00061,0.00021,6
24940,25605,1e-05,-7e-05,-0.0001,-0.00018,-0.0003,-0.00013000000000000002,0.00061,0.00021,6
24941,25606,1e-05,-7e-05,-0.0001,-0.00018,-0.0003,-0.00013000000000000002,0.00061,0.00021,6
24942,25607,1e-05,-7e-05,-0.0001,-0.00018,-0.0003,-0.00013000000000000002,0.00061,0.00021,6
24943,25608,1e-05,-7e-05,-0.0001,-0.00018,-0.0003,-0.00013000000000000002,0.00061,0.00021,6
24944,25609,1e-05,-7e-05,-0.0001,-0.00018,-0.0003,-0.00013000000000000002,0.00061,0.00021,6
24945,25610,1e-05,-7e-05,-0.0001,-0.00018,-0.0003,-0.00013000000000000002,0.00061,0.00021,6
24946,25611,1e-05,-7e-05,-0.0001,-0.00018,-0.0003,-0.00013000000000000002,0.00061,0.00021,6
24947,25612,1e-05,-7e-05,-0.0001,-0.00018,-0.0003,-0.00013000000000000002,0.00061,0.00021,6
24948,25613,1e-05,-7e-05,-0.0001,-0.00018,-0.0003,-0.00013000000000000002,0.00061,0.00021,6
24949,25614,1e-05,-7e-05,-0.0001,-0.00018,-0.0003,-0.00013000000000000002,0.00061,0.00021,6
24950,25615,1e-05,-7e-05,-0.0001,-0.00018,-0.0003,-0.00013000000000000002,0.00061,0.00021,6
24951,25616,1e-05,-7e-05,-0.0001,-0.00018,-0.0003,-0.00013000000000000002,0.00061,0.00021,6
24952,25617,1e-05,-7e-05,-0.0001,-0.00018,-0.0003,-0.00013000000000000002,0.00061,0.00021,6
24953,25618,1e-05,-7e-05,-0.0001,-0.00018,-0.0003,-0.00013000000000000002,0.00061,0.00021,6
24954,25619,1e-05,-7e-05,-0.0001,-0.00018,-0.0003,-0.00013000000000000002,0.00061,0.00021,6
24955,25620,0.00011,-1e-05,7e-05,0.00028,0.0012699999999999999,0.00106,0.00049,0.00022,6
24956,25621,-2.9999999999999997e-05,-8e-05,-7e-05,0.0001,-0.00022999999999999998,8e-05,-0.00045999999999999996,-0.00021,6
24957,25622,-2.9999999999999997e-05,-8e-05,-7e-05,0.0001,-0.00022999999999999998,8e-05,-0.00045999999999999996,-0.00021,6
24958,25623,-2.9999999999999997e-05,-8e-05,-7e-05,0.0001,-0.00022999999999999998,8e-05,-0.00045999999999999996,-0.00021,6
24959,25624,-2.9999999999999997e-05,-8e-05,-7e-05,0.0001,-0.00022999999999999998,8e-05,-0.00045999999999999996,-0.00021,6
24960,25625,-2.9999999999999997e-05,-8e-05,-7e-05,0.0001,-0.00022999999999999998,8e-05,-0.00045999999999999996,-0.00021,6
24961,25626,-2.9999999999999997e-05,-8e-05,-7e-05,0.0001,-0.00022999999999999998,8e-05,-0.00045999999999999996,-0.00021,6
24962,25627,-2.9999999999999997e-05,-8e-05,-7e-05,0.0001,-0.00022999999999999998,8e-05,-0.00045999999999999996,-0.00021,6
24963,25628,-2.9999999999999997e-05,-8e-05,-7e-05,0.0001,-0.00022999999999999998,8e-05,-0.00045999999999999996,-0.00021,6
24964,25629,-2.9999999999999997e-05,-8e-05,-7e-05,0.0001,-0.00022999999999999998,8e-05,-0.00045999999999999996,-0.00021,6
24965,25630,-2.9999999999999997e-05,-8e-05,-7e-05,0.0001,-0.00022999999999999998,8e-05,-0.00045999999999999996,-0.00021,6
24966,25631,-2.9999999999999997e-05,-8e-05,-7e-05,0.0001,-0.00022999999999999998,8e-05,-0.00045999999999999996,-0.00021,6
24967,25632,-2.9999999999999997e-05,-8e-05,-7e-05,0.0001,-0.00022999999999999998,8e-05,-0.00045999999999999996,-0.00021,6
24968,25633,-2.9999999999999997e-05,-8e-05,-7e-05,0.0001,-0.00022999999999999998,8e-05,-0.00045999999999999996,-0.00021,6
24969,25634,-2.9999999999999997e-05,-8e-05,-7e-05,0.0001,-0.00022999999999999998,8e-05,-0.00045999999999999996,-0.00021,6
24970,25635,-2.9999999999999997e-05,-8e-05,-7e-05,0.0001,-0.00022999999999999998,8e-05,-0.00045999999999999996,-0.00021,6
24971,25636,-2.9999999999999997e-05,-8e-05,-7e-05,0.0001,-0.00022999999999999998,8e-05,-0.00045999999999999996,-0.00021,6
24972,25638,-2.9999999999999997e-05,-8e-05,-7e-05,0.0001,-0.00022999999999999998,8e-05,-0.00045999999999999996,-0.00021,6
24973,25639,-2.9999999999999997e-05,-8e-05,-7e-05,0.0001,-0.00022999999999999998,8e-05,-0.00045999999999999996,-0.00021,6
24974,25640,-2.9999999999999997e-05,-8e-05,-7e-05,0.0001,-0.00022999999999999998,8e-05,-0.00045999999999999996,-0.00021,6
24975,25641,-2.9999999999999997e-05,-8e-05,-7e-05,0.0001,-0.00022999999999999998,8e-05,-0.00045999999999999996,-0.00021,6
24976,25642,-2.9999999999999997e-05,0.0,-2e-05,-0.00013000000000000002,-0.0009199999999999999,-0.0004,-0.00011,0.00031,6
24977,25643,-5.9999999999999995e-05,0.0,5.9999999999999995e-05,5e-05,-0.00018,0.00018999999999999998,7e-05,-0.00047999999999999996,6
24978,25644,-5.9999999999999995e-05,0.0,5.9999999999999995e-05,5e-05,-0.00018,0.00018999999999999998,7e-05,-0.00047999999999999996,6
24979,25645,-5.9999999999999995e-05,0.0,5.9999999999999995e-05,5e-05,-0.00018,0.00018999999999999998,7e-05,-0.00047999999999999996,6
24980,25646,-5.9999999999999995e-05,0.0,5.9999999999999995e-05,5e-05,-0.00018,0.00018999999999999998,7e-05,-0.00047999999999999996,6
24981,25647,-5.9999999999999995e-05,0.0,5.9999999999999995e-05,5e-05,-0.00018,0.00018999999999999998,7e-05,-0.00047999999999999996,6
24982,25648,-5.9999999999999995e-05,0.0,5.9999999999999995e-05,5e-05,-0.00018,0.00018999999999999998,7e-05,-0.00047999999999999996,6
24983,25649,-5.9999999999999995e-05,0.0,5.9999999999999995e-05,5e-05,-0.00018,0.00018999999999999998,7e-05,-0.00047999999999999996,6
24984,25650,-5.9999999999999995e-05,0.0,5.9999999999999995e-05,5e-05,-0.00018,0.00018999999999999998,7e-05,-0.00047999999999999996,6
24985,25651,-5.9999999999999995e-05,0.0,5.9999999999999995e-05,5e-05,-0.00018,0.00018999999999999998,7e-05,-0.00047999999999999996,6
24986,25652,-5.9999999999999995e-05,0.0,5.9999999999999995e-05,5e-05,-0.00018,0.00018999999999999998,7e-05,-0.00047999999999999996,6
24987,25653,-5.9999999999999995e-05,0.0,5.9999999999999995e-05,5e-05,-0.00018,0.00018999999999999998,7e-05,-0.00047999999999999996,6
24988,25654,-5.9999999999999995e-05,0.0,5.9999999999999995e-05,5e-05,-0.00018,0.00018999999999999998,7e-05,-0.00047999999999999996,6
24989,25655,-5.9999999999999995e-05,0.0,5.9999999999999995e-05,5e-05,-0.00018,0.00018999999999999998,7e-05,-0.00047999999999999996,6
24990,25656,-7e-05,5e-05,5e-05,0.00013000000000000002,0.00056,-0.0001,-1e-05,-2.9999999999999997e-05,6
24991,25657,-7e-05,5e-05,5e-05,0.00013000000000000002,0.00056,-0.0001,-1e-05,-2.9999999999999997e-05,6
24992,25658,-7e-05,5e-05,5e-05,0.00013000000000000002,0.00056,-0.0001,-1e-05,-2.9999999999999997e-05,6
24993,25659,-7e-05,5e-05,5e-05,0.00013000000000000002,0.00056,-0.0001,-1e-05,-2.9999999999999997e-05,6
24994,25660,-7e-05,5e-05,5e-05,0.00013000000000000002,0.00056,-0.0001,-1e-05,-2.9999999999999997e-05,6
24995,25661,-7e-05,5e-05,5e-05,0.00013000000000000002,0.00056,-0.0001,-1e-05,-2.9999999999999997e-05,6
24996,25662,-7e-05,5e-05,5e-05,0.00013000000000000002,0.00056,-0.0001,-1e-05,-2.9999999999999997e-05,6
24997,25663,-7e-05,5e-05,5e-05,0.00013000000000000002,0.00056,-0.0001,-1e-05,-2.9999999999999997e-05,6
24998,25664,-0.00013000000000000002,-2.9999999999999997e-05,4e-05,9e-05,0.0002,-2.9999999999999997e-05,9e-05,-0.00082,6
24999,25665,-0.00013000000000000002,-2.9999999999999997e-05,4e-05,9e-05,0.0002,-2.9999999999999997e-05,9e-05,-0.00082,6
25000,25667,-0.00013000000000000002,-2.9999999999999997e-05,4e-05,9e-05,0.0002,-2.9999999999999997e-05,9e-05,-0.00082,6
25001,25668,-0.00013000000000000002,-2.9999999999999997e-05,4e-05,9e-05,0.0002,-2.9999999999999997e-05,9e-05,-0.00082,6
25002,25669,-0.00013000000000000002,-2.9999999999999997e-05,4e-05,9e-05,0.0002,-2.9999999999999997e-05,9e-05,-0.00082,6
25003,25670,-0.00013000000000000002,-2.9999999999999997e-05,4e-05,9e-05,0.0002,-2.9999999999999997e-05,9e-05,-0.00082,6
25004,25671,-0.00013000000000000002,-2.9999999999999997e-05,4e-05,9e-05,0.0002,-2.9999999999999997e-05,9e-05,-0.00082,6
25005,25672,-0.00013000000000000002,-2.9999999999999997e-05,4e-05,9e-05,0.0002,-2.9999999999999997e-05,9e-05,-0.00082,6
25006,25673,-0.00013000000000000002,-2.9999999999999997e-05,4e-05,9e-05,0.0002,-2.9999999999999997e-05,9e-05,-0.00082,6
25007,25674,-0.00013000000000000002,-2.9999999999999997e-05,4e-05,9e-05,0.0002,-2.9999999999999997e-05,9e-05,-0.00082,6
25008,25675,-0.00013000000000000002,-2.9999999999999997e-05,4e-05,9e-05,0.0002,-2.9999999999999997e-05,9e-05,-0.00082,6
25009,25676,-0.00013000000000000002,-2.9999999999999997e-05,4e-05,9e-05,0.0002,-2.9999999999999997e-05,9e-05,-0.00082,6
25010,25677,-0.00013000000000000002,-2.9999999999999997e-05,4e-05,9e-05,0.0002,-2.9999999999999997e-05,9e-05,-0.00082,6
25011,25678,-0.00013000000000000002,-2.9999999999999997e-05,4e-05,9e-05,0.0002,-2.9999999999999997e-05,9e-05,-0.00082,6
25012,25679,-0.00013000000000000002,-2.9999999999999997e-05,4e-05,9e-05,0.0002,-2.9999999999999997e-05,9e-05,-0.00082,6
25013,25680,4e-05,5e-05,0.00011,0.00015,-0.00032,-0.00026000000000000003,8e-05,-0.00018,6
25014,25681,-5e-05,-1e-05,-8e-05,-7e-05,-0.0009,-0.00061,-0.0005,-5e-05,6
25015,25682,-5e-05,-1e-05,-8e-05,-7e-05,-0.0009,-0.00061,-0.0005,-5e-05,6
25016,25683,-5e-05,-1e-05,-8e-05,-7e-05,-0.0009,-0.00061,-0.0005,-5e-05,6
25017,25684,-5e-05,-1e-05,-8e-05,-7e-05,-0.0009,-0.00061,-0.0005,-5e-05,6
25018,25685,-5e-05,-1e-05,-8e-05,-7e-05,-0.0009,-0.00061,-0.0005,-5e-05,6
25019,25686,-5e-05,-1e-05,-8e-05,-7e-05,-0.0009,-0.00061,-0.0005,-5e-05,6
25020,25688,-5e-05,-1e-05,-8e-05,-7e-05,-0.0009,-0.00061,-0.0005,-5e-05,6
25021,25689,-5e-05,-1e-05,-8e-05,-7e-05,-0.0009,-0.00061,-0.0005,-5e-05,6
25022,25690,-5e-05,-1e-05,-8e-05,-7e-05,-0.0009,-0.00061,-0.0005,-5e-05,6
25023,25691,-5e-05,-1e-05,-8e-05,-7e-05,-0.0009,-0.00061,-0.0005,-5e-05,6
25024,25692,-5e-05,-1e-05,-8e-05,-7e-05,-0.0009,-0.00061,-0.0005,-5e-05,6
25025,25693,-5e-05,-1e-05,-8e-05,-7e-05,-0.0009,-0.00061,-0.0005,-5e-05,6
25026,25694,-5e-05,-1e-05,-8e-05,-7e-05,-0.0009,-0.00061,-0.0005,-5e-05,6
25027,25695,1e-05,-7e-05,-9e-05,-0.00021,-0.00031,-0.0002,9e-05,0.00021,6
25028,25696,1e-05,-7e-05,-9e-05,-0.00021,-0.00031,-0.0002,9e-05,0.00021,6
25029,25697,1e-05,-7e-05,-9e-05,-0.00021,-0.00031,-0.0002,9e-05,0.00021,6
25030,25698,1e-05,-7e-05,-9e-05,-0.00021,-0.00031,-0.0002,9e-05,0.00021,6
25031,25699,1e-05,-7e-05,-9e-05,-0.00021,-0.00031,-0.0002,9e-05,0.00021,6
25032,25700,1e-05,-7e-05,-9e-05,-0.00021,-0.00031,-0.0002,9e-05,0.00021,6
25033,25701,7e-05,9e-05,0.00018,0.00033999999999999997,0.00114,0.00037999999999999997,-8e-05,2.9999999999999997e-05,6
25034,25702,7e-05,9e-05,0.00018,0.00033999999999999997,0.00114,0.00037999999999999997,-8e-05,2.9999999999999997e-05,6
25035,25703,7e-05,9e-05,0.00018,0.00033999999999999997,0.00114,0.00037999999999999997,-8e-05,2.9999999999999997e-05,6
25036,25704,7e-05,9e-05,0.00018,0.00033999999999999997,0.00114,0.00037999999999999997,-8e-05,2.9999999999999997e-05,6
25037,25705,7e-05,9e-05,0.00018,0.00033999999999999997,0.00114,0.00037999999999999997,-8e-05,2.9999999999999997e-05,6
25038,25706,7e-05,9e-05,0.00018,0.00033999999999999997,0.00114,0.00037999999999999997,-8e-05,2.9999999999999997e-05,6
25039,25707,7e-05,9e-05,0.00018,0.00033999999999999997,0.00114,0.00037999999999999997,-8e-05,2.9999999999999997e-05,6
25040,25708,7e-05,9e-05,0.00018,0.00033999999999999997,0.00114,0.00037999999999999997,-8e-05,2.9999999999999997e-05,6
25041,25709,7e-05,9e-05,0.00018,0.00033999999999999997,0.00114,0.00037999999999999997,-8e-05,2.9999999999999997e-05,6
25042,25710,7e-05,9e-05,0.00018,0.00033999999999999997,0.00114,0.00037999999999999997,-8e-05,2.9999999999999997e-05,6
25043,25711,7e-05,9e-05,0.00018,0.00033999999999999997,0.00114,0.00037999999999999997,-8e-05,2.9999999999999997e-05,6
25044,25712,7e-05,9e-05,0.00018,0.00033999999999999997,0.00114,0.00037999999999999997,-8e-05,2.9999999999999997e-05,6
25045,25713,7e-05,9e-05,0.00018,0.00033999999999999997,0.00114,0.00037999999999999997,-8e-05,2.9999999999999997e-05,6
25046,25714,7e-05,9e-05,0.00018,0.00033999999999999997,0.00114,0.00037999999999999997,-8e-05,2.9999999999999997e-05,6
25047,25715,7e-05,9e-05,0.00018,0.00033999999999999997,0.00114,0.00037999999999999997,-8e-05,2.9999999999999997e-05,6
25048,25716,7e-05,9e-05,0.00018,0.00033999999999999997,0.00114,0.00037999999999999997,-8e-05,2.9999999999999997e-05,6
25049,25717,7e-05,9e-05,0.00018,0.00033999999999999997,0.00114,0.00037999999999999997,-8e-05,2.9999999999999997e-05,6
25050,25718,7e-05,9e-05,0.00018,0.00033999999999999997,0.00114,0.00037999999999999997,-8e-05,2.9999999999999997e-05,6
25051,25719,-0.0001,2e-05,7e-05,0.00028,0.001,0.00015,-5e-05,-0.00037,6
25052,25720,0.00013000000000000002,5e-05,2.9999999999999997e-05,-0.00015,-0.00066,0.00037,0.00035,0.0010199999999999999,6
25053,25721,0.00013000000000000002,5e-05,2.9999999999999997e-05,-0.00015,-0.00066,0.00037,0.00035,0.0010199999999999999,6
25054,25722,0.00013000000000000002,5e-05,2.9999999999999997e-05,-0.00015,-0.00066,0.00037,0.00035,0.0010199999999999999,6
25055,25723,0.00013000000000000002,5e-05,2.9999999999999997e-05,-0.00015,-0.00066,0.00037,0.00035,0.0010199999999999999,6
25056,25724,0.00013000000000000002,5e-05,2.9999999999999997e-05,-0.00015,-0.00066,0.00037,0.00035,0.0010199999999999999,6
25057,25725,0.00013000000000000002,5e-05,2.9999999999999997e-05,-0.00015,-0.00066,0.00037,0.00035,0.0010199999999999999,6
25058,25726,0.00013000000000000002,5e-05,2.9999999999999997e-05,-0.00015,-0.00066,0.00037,0.00035,0.0010199999999999999,6
25059,25727,0.00013000000000000002,5e-05,2.9999999999999997e-05,-0.00015,-0.00066,0.00037,0.00035,0.0010199999999999999,6
25060,25728,0.00013000000000000002,5e-05,2.9999999999999997e-05,-0.00015,-0.00066,0.00037,0.00035,0.0010199999999999999,6
25061,25729,0.00013000000000000002,5e-05,2.9999999999999997e-05,-0.00015,-0.00066,0.00037,0.00035,0.0010199999999999999,6
25062,25730,0.00013000000000000002,5e-05,2.9999999999999997e-05,-0.00015,-0.00066,0.00037,0.00035,0.0010199999999999999,6
25063,25731,0.00013000000000000002,5e-05,2.9999999999999997e-05,-0.00015,-0.00066,0.00037,0.00035,0.0010199999999999999,6
25064,25732,0.00013000000000000002,5e-05,2.9999999999999997e-05,-0.00015,-0.00066,0.00037,0.00035,0.0010199999999999999,6
25065,25733,0.00013000000000000002,5e-05,2.9999999999999997e-05,-0.00015,-0.00066,0.00037,0.00035,0.0010199999999999999,6
25066,25734,0.00013000000000000002,5e-05,2.9999999999999997e-05,-0.00015,-0.00066,0.00037,0.00035,0.0010199999999999999,6
25067,25735,0.00013000000000000002,5e-05,2.9999999999999997e-05,-0.00015,-0.00066,0.00037,0.00035,0.0010199999999999999,6
25068,25736,0.00013000000000000002,5e-05,2.9999999999999997e-05,-0.00015,-0.00066,0.00037,0.00035,0.0010199999999999999,6
25069,25738,0.00013000000000000002,5e-05,2.9999999999999997e-05,-0.00015,-0.00066,0.00037,0.00035,0.0010199999999999999,6
25070,25739,0.00013000000000000002,5e-05,2.9999999999999997e-05,-0.00015,-0.00066,0.00037,0.00035,0.0010199999999999999,6
25071,25740,0.00011,8e-05,0.00031,0.00078,0.0003,0.00011999999999999999,0.00037999999999999997,0.00028,6
25072,25741,1e-05,2.9999999999999997e-05,-5e-05,-0.00021,-0.00047000000000000004,0.00023999999999999998,-9e-05,0.00028,6
25073,25742,1e-05,2.9999999999999997e-05,-5e-05,-0.00021,-0.00047000000000000004,0.00023999999999999998,-9e-05,0.00028,6
25074,25743,1e-05,2.9999999999999997e-05,-5e-05,-0.00021,-0.00047000000000000004,0.00023999999999999998,-9e-05,0.00028,6
25075,25745,1e-05,2.9999999999999997e-05,-5e-05,-0.00021,-0.00047000000000000004,0.00023999999999999998,-9e-05,0.00028,6
25076,25746,1e-05,2.9999999999999997e-05,-5e-05,-0.00021,-0.00047000000000000004,0.00023999999999999998,-9e-05,0.00028,6
25077,25747,1e-05,2.9999999999999997e-05,-5e-05,-0.00021,-0.00047000000000000004,0.00023999999999999998,-9e-05,0.00028,6
25078,25748,1e-05,2.9999999999999997e-05,-5e-05,-0.00021,-0.00047000000000000004,0.00023999999999999998,-9e-05,0.00028,6
25079,25749,1e-05,2.9999999999999997e-05,-5e-05,-0.00021,-0.00047000000000000004,0.00023999999999999998,-9e-05,0.00028,6
25080,25750,1e-05,2.9999999999999997e-05,-5e-05,-0.00021,-0.00047000000000000004,0.00023999999999999998,-9e-05,0.00028,6
25081,25751,1e-05,2.9999999999999997e-05,-5e-05,-0.00021,-0.00047000000000000004,0.00023999999999999998,-9e-05,0.00028,6
25082,25752,1e-05,2.9999999999999997e-05,-5e-05,-0.00021,-0.00047000000000000004,0.00023999999999999998,-9e-05,0.00028,6
25083,25753,1e-05,2.9999999999999997e-05,-5e-05,-0.00021,-0.00047000000000000004,0.00023999999999999998,-9e-05,0.00028,6
25084,25754,-2.9999999999999997e-05,-2.9999999999999997e-05,-0.00011999999999999999,-0.0003,0.00025,-1e-05,-4e-05,-5.9999999999999995e-05,6
25085,25755,7e-05,2.9999999999999997e-05,1e-05,5.9999999999999995e-05,-0.00043,0.0003,0.00032,0.00029,6
25086,25756,7e-05,2.9999999999999997e-05,1e-05,5.9999999999999995e-05,-0.00043,0.0003,0.00032,0.00029,6
25087,25757,7e-05,2.9999999999999997e-05,1e-05,5.9999999999999995e-05,-0.00043,0.0003,0.00032,0.00029,6
25088,25758,7e-05,2.9999999999999997e-05,1e-05,5.9999999999999995e-05,-0.00043,0.0003,0.00032,0.00029,6
25089,25759,7e-05,2.9999999999999997e-05,1e-05,5.9999999999999995e-05,-0.00043,0.0003,0.00032,0.00029,6
25090,25760,7e-05,2.9999999999999997e-05,1e-05,5.9999999999999995e-05,-0.00043,0.0003,0.00032,0.00029,6
25091,25761,7e-05,2.9999999999999997e-05,1e-05,5.9999999999999995e-05,-0.00043,0.0003,0.00032,0.00029,6
25092,25762,7e-05,2.9999999999999997e-05,1e-05,5.9999999999999995e-05,-0.00043,0.0003,0.00032,0.00029,6
25093,25763,7e-05,2.9999999999999997e-05,1e-05,5.9999999999999995e-05,-0.00043,0.0003,0.00032,0.00029,6
25094,25764,7e-05,2.9999999999999997e-05,1e-05,5.9999999999999995e-05,-0.00043,0.0003,0.00032,0.00029,6
25095,25765,7e-05,2.9999999999999997e-05,1e-05,5.9999999999999995e-05,-0.00043,0.0003,0.00032,0.00029,6
25096,25766,7e-05,2.9999999999999997e-05,1e-05,5.9999999999999995e-05,-0.00043,0.0003,0.00032,0.00029,6
25097,25767,7e-05,2.9999999999999997e-05,1e-05,5.9999999999999995e-05,-0.00043,0.0003,0.00032,0.00029,6
25098,25768,7e-05,2.9999999999999997e-05,1e-05,5.9999999999999995e-05,-0.00043,0.0003,0.00032,0.00029,6
25099,25769,7e-05,2.9999999999999997e-05,1e-05,5.9999999999999995e-05,-0.00043,0.0003,0.00032,0.00029,6
25100,25770,7e-05,2.9999999999999997e-05,1e-05,5.9999999999999995e-05,-0.00043,0.0003,0.00032,0.00029,6
25101,25771,7e-05,2.9999999999999997e-05,1e-05,5.9999999999999995e-05,-0.00043,0.0003,0.00032,0.00029,6
25102,25772,7e-05,2.9999999999999997e-05,1e-05,5.9999999999999995e-05,-0.00043,0.0003,0.00032,0.00029,6
25103,25773,7e-05,2.9999999999999997e-05,1e-05,5.9999999999999995e-05,-0.00043,0.0003,0.00032,0.00029,6
25104,25774,7e-05,2.9999999999999997e-05,1e-05,5.9999999999999995e-05,-0.00043,0.0003,0.00032,0.00029,6
25105,25775,7e-05,2.9999999999999997e-05,1e-05,5.9999999999999995e-05,-0.00043,0.0003,0.00032,0.00029,6
25106,25776,7e-05,2.9999999999999997e-05,1e-05,5.9999999999999995e-05,-0.00043,0.0003,0.00032,0.00029,6
25107,25777,7e-05,2.9999999999999997e-05,1e-05,5.9999999999999995e-05,-0.00043,0.0003,0.00032,0.00029,6
25108,25778,-5e-05,1e-05,-1e-05,-9e-05,0.0005099999999999999,0.00042,-5.9999999999999995e-05,-0.00023999999999999998,6
25109,25779,-5e-05,1e-05,-1e-05,-9e-05,0.0005099999999999999,0.00042,-5.9999999999999995e-05,-0.00023999999999999998,6
25110,25780,-5e-05,1e-05,-1e-05,-9e-05,0.0005099999999999999,0.00042,-5.9999999999999995e-05,-0.00023999999999999998,6
25111,25781,-5e-05,1e-05,-1e-05,-9e-05,0.0005099999999999999,0.00042,-5.9999999999999995e-05,-0.00023999999999999998,6
25112,25782,-5e-05,1e-05,-1e-05,-9e-05,0.0005099999999999999,0.00042,-5.9999999999999995e-05,-0.00023999999999999998,6
25113,25783,-5e-05,1e-05,-1e-05,-9e-05,0.0005099999999999999,0.00042,-5.9999999999999995e-05,-0.00023999999999999998,6
25114,25784,-5e-05,1e-05,-1e-05,-9e-05,0.0005099999999999999,0.00042,-5.9999999999999995e-05,-0.00023999999999999998,6
25115,25785,-5e-05,1e-05,-1e-05,-9e-05,0.0005099999999999999,0.00042,-5.9999999999999995e-05,-0.00023999999999999998,6
25116,25786,-5e-05,1e-05,-1e-05,-9e-05,0.0005099999999999999,0.00042,-5.9999999999999995e-05,-0.00023999999999999998,6
25117,25788,-5e-05,1e-05,-1e-05,-9e-05,0.0005099999999999999,0.00042,-5.9999999999999995e-05,-0.00023999999999999998,6
25118,25789,-5e-05,1e-05,-1e-05,-9e-05,0.0005099999999999999,0.00042,-5.9999999999999995e-05,-0.00023999999999999998,6
25119,25790,-5e-05,1e-05,-1e-05,-9e-05,0.0005099999999999999,0.00042,-5.9999999999999995e-05,-0.00023999999999999998,6
25120,25791,-5e-05,1e-05,-1e-05,-9e-05,0.0005099999999999999,0.00042,-5.9999999999999995e-05,-0.00023999999999999998,6
25121,25792,-5e-05,1e-05,-1e-05,-9e-05,0.0005099999999999999,0.00042,-5.9999999999999995e-05,-0.00023999999999999998,6
25122,25793,-5e-05,1e-05,-1e-05,-9e-05,0.0005099999999999999,0.00042,-5.9999999999999995e-05,-0.00023999999999999998,6
25123,25794,-5e-05,1e-05,-1e-05,-9e-05,0.0005099999999999999,0.00042,-5.9999999999999995e-05,-0.00023999999999999998,6
25124,25795,-5e-05,1e-05,-1e-05,-9e-05,0.0005099999999999999,0.00042,-5.9999999999999995e-05,-0.00023999999999999998,6
25125,25796,-5e-05,1e-05,-1e-05,-9e-05,0.0005099999999999999,0.00042,-5.9999999999999995e-05,-0.00023999999999999998,6
25126,25797,-5e-05,1e-05,-1e-05,-9e-05,0.0005099999999999999,0.00042,-5.9999999999999995e-05,-0.00023999999999999998,6
25127,25798,-5e-05,1e-05,-1e-05,-9e-05,0.0005099999999999999,0.00042,-5.9999999999999995e-05,-0.00023999999999999998,6
25128,25799,-5e-05,1e-05,-1e-05,-9e-05,0.0005099999999999999,0.00042,-5.9999999999999995e-05,-0.00023999999999999998,6
25129,25800,0.00013000000000000002,1e-05,0.0,-4e-05,8e-05,0.00011,-0.00033999999999999997,-0.00044,6
25130,25801,2.9999999999999997e-05,1e-05,2e-05,-0.00016999999999999999,-0.00121,-0.00063,-7e-05,-2e-05,6
25131,25802,2.9999999999999997e-05,1e-05,2e-05,-0.00016999999999999999,-0.00121,-0.00063,-7e-05,-2e-05,6
25132,25803,2.9999999999999997e-05,1e-05,2e-05,-0.00016999999999999999,-0.00121,-0.00063,-7e-05,-2e-05,6
25133,25804,2.9999999999999997e-05,1e-05,2e-05,-0.00016999999999999999,-0.00121,-0.00063,-7e-05,-2e-05,6
25134,25805,2.9999999999999997e-05,1e-05,2e-05,-0.00016999999999999999,-0.00121,-0.00063,-7e-05,-2e-05,6
25135,25806,2.9999999999999997e-05,1e-05,2e-05,-0.00016999999999999999,-0.00121,-0.00063,-7e-05,-2e-05,6
25136,25807,2.9999999999999997e-05,1e-05,2e-05,-0.00016999999999999999,-0.00121,-0.00063,-7e-05,-2e-05,6
25137,25808,2.9999999999999997e-05,1e-05,2e-05,-0.00016999999999999999,-0.00121,-0.00063,-7e-05,-2e-05,6
25138,25809,2.9999999999999997e-05,1e-05,2e-05,-0.00016999999999999999,-0.00121,-0.00063,-7e-05,-2e-05,6
25139,25810,2.9999999999999997e-05,1e-05,2e-05,-0.00016999999999999999,-0.00121,-0.00063,-7e-05,-2e-05,6
25140,25811,2.9999999999999997e-05,1e-05,2e-05,-0.00016999999999999999,-0.00121,-0.00063,-7e-05,-2e-05,6
25141,25812,2.9999999999999997e-05,1e-05,2e-05,-0.00016999999999999999,-0.00121,-0.00063,-7e-05,-2e-05,6
25142,25813,2.9999999999999997e-05,1e-05,2e-05,-0.00016999999999999999,-0.00121,-0.00063,-7e-05,-2e-05,6
25143,25814,2.9999999999999997e-05,1e-05,2e-05,-0.00016999999999999999,-0.00121,-0.00063,-7e-05,-2e-05,6
25144,25815,1e-05,4e-05,2.9999999999999997e-05,8e-05,-0.00018,0.0012,0.00031,5.9999999999999995e-05,6
25145,25816,-1e-05,-2.9999999999999997e-05,0.0,0.00029,0.0009199999999999999,0.00042,-0.00011999999999999999,-2e-05,6
25146,25817,-1e-05,-2.9999999999999997e-05,0.0,0.00029,0.0009199999999999999,0.00042,-0.00011999999999999999,-2e-05,6
25147,25818,-1e-05,-2.9999999999999997e-05,0.0,0.00029,0.0009199999999999999,0.00042,-0.00011999999999999999,-2e-05,6
25148,25819,-1e-05,-2.9999999999999997e-05,0.0,0.00029,0.0009199999999999999,0.00042,-0.00011999999999999999,-2e-05,6
25149,25820,-1e-05,-2.9999999999999997e-05,0.0,0.00029,0.0009199999999999999,0.00042,-0.00011999999999999999,-2e-05,6
25150,25821,-1e-05,-2.9999999999999997e-05,0.0,0.00029,0.0009199999999999999,0.00042,-0.00011999999999999999,-2e-05,6
25151,25822,-1e-05,-2.9999999999999997e-05,0.0,0.00029,0.0009199999999999999,0.00042,-0.00011999999999999999,-2e-05,6
25152,25823,-1e-05,-2.9999999999999997e-05,0.0,0.00029,0.0009199999999999999,0.00042,-0.00011999999999999999,-2e-05,6
25153,25824,-1e-05,-2.9999999999999997e-05,0.0,0.00029,0.0009199999999999999,0.00042,-0.00011999999999999999,-2e-05,6
25154,25825,-1e-05,-2.9999999999999997e-05,0.0,0.00029,0.0009199999999999999,0.00042,-0.00011999999999999999,-2e-05,6
25155,25826,-1e-05,-2.9999999999999997e-05,0.0,0.00029,0.0009199999999999999,0.00042,-0.00011999999999999999,-2e-05,6
25156,25827,-1e-05,-2.9999999999999997e-05,0.0,0.00029,0.0009199999999999999,0.00042,-0.00011999999999999999,-2e-05,6
25157,25828,-1e-05,-2.9999999999999997e-05,0.0,0.00029,0.0009199999999999999,0.00042,-0.00011999999999999999,-2e-05,6
25158,25829,-1e-05,-2.9999999999999997e-05,0.0,0.00029,0.0009199999999999999,0.00042,-0.00011999999999999999,-2e-05,6
25159,25830,-1e-05,-2.9999999999999997e-05,0.0,0.00029,0.0009199999999999999,0.00042,-0.00011999999999999999,-2e-05,6
25160,25831,-1e-05,-2.9999999999999997e-05,0.0,0.00029,0.0009199999999999999,0.00042,-0.00011999999999999999,-2e-05,6
25161,25832,-1e-05,-2.9999999999999997e-05,0.0,0.00029,0.0009199999999999999,0.00042,-0.00011999999999999999,-2e-05,6
25162,25833,-1e-05,-2.9999999999999997e-05,0.0,0.00029,0.0009199999999999999,0.00042,-0.00011999999999999999,-2e-05,6
25163,25834,-1e-05,-2.9999999999999997e-05,0.0,0.00029,0.0009199999999999999,0.00042,-0.00011999999999999999,-2e-05,6
25164,25835,-1e-05,-2.9999999999999997e-05,0.0,0.00029,0.0009199999999999999,0.00042,-0.00011999999999999999,-2e-05,6
25165,25836,-1e-05,-2.9999999999999997e-05,0.0,0.00029,0.0009199999999999999,0.00042,-0.00011999999999999999,-2e-05,6
25166,25838,-1e-05,-2.9999999999999997e-05,0.0,0.00029,0.0009199999999999999,0.00042,-0.00011999999999999999,-2e-05,6
25167,25839,-1e-05,-2.9999999999999997e-05,0.0,0.00029,0.0009199999999999999,0.00042,-0.00011999999999999999,-2e-05,6
25168,25840,-1e-05,-2.9999999999999997e-05,0.0,0.00029,0.0009199999999999999,0.00042,-0.00011999999999999999,-2e-05,6
25169,25841,-1e-05,-2.9999999999999997e-05,0.0,0.00029,0.0009199999999999999,0.00042,-0.00011999999999999999,-2e-05,6
25170,25842,-1e-05,-2.9999999999999997e-05,0.0,0.00029,0.0009199999999999999,0.00042,-0.00011999999999999999,-2e-05,6
25171,25843,-1e-05,-2.9999999999999997e-05,0.0,0.00029,0.0009199999999999999,0.00042,-0.00011999999999999999,-2e-05,6
25172,25844,-1e-05,-2.9999999999999997e-05,0.0,0.00029,0.0009199999999999999,0.00042,-0.00011999999999999999,-2e-05,6
25173,25845,-0.00016,-0.00025,-0.00033999999999999997,-0.00064,-0.00041,-0.00033999999999999997,-0.00016,0.0003,6
25174,25846,5e-05,1e-05,0.0,0.0001,0.00022,0.00014,0.00037999999999999997,-8e-05,6
25175,25847,5e-05,1e-05,0.0,0.0001,0.00022,0.00014,0.00037999999999999997,-8e-05,6
25176,25848,5e-05,1e-05,0.0,0.0001,0.00022,0.00014,0.00037999999999999997,-8e-05,6
25177,25849,5e-05,1e-05,0.0,0.0001,0.00022,0.00014,0.00037999999999999997,-8e-05,6
25178,25850,5e-05,1e-05,0.0,0.0001,0.00022,0.00014,0.00037999999999999997,-8e-05,6
25179,25851,5e-05,1e-05,0.0,0.0001,0.00022,0.00014,0.00037999999999999997,-8e-05,6
25180,25852,5e-05,1e-05,0.0,0.0001,0.00022,0.00014,0.00037999999999999997,-8e-05,6
25181,25853,5e-05,1e-05,0.0,0.0001,0.00022,0.00014,0.00037999999999999997,-8e-05,6
25182,25854,5e-05,1e-05,0.0,0.0001,0.00022,0.00014,0.00037999999999999997,-8e-05,6
25183,25855,5e-05,1e-05,0.0,0.0001,0.00022,0.00014,0.00037999999999999997,-8e-05,6
25184,25856,5e-05,1e-05,0.0,0.0001,0.00022,0.00014,0.00037999999999999997,-8e-05,6
25185,25857,5e-05,1e-05,0.0,0.0001,0.00022,0.00014,0.00037999999999999997,-8e-05,6
25186,25858,5e-05,1e-05,0.0,0.0001,0.00022,0.00014,0.00037999999999999997,-8e-05,6
25187,25859,5e-05,1e-05,0.0,0.0001,0.00022,0.00014,0.00037999999999999997,-8e-05,6
25188,25860,5e-05,1e-05,0.0,0.0001,0.00022,0.00014,0.00037999999999999997,-8e-05,6
25189,25861,5e-05,1e-05,0.0,0.0001,0.00022,0.00014,0.00037999999999999997,-8e-05,6
25190,25862,5e-05,1e-05,0.0,0.0001,0.00022,0.00014,0.00037999999999999997,-8e-05,6
25191,25863,5e-05,1e-05,0.0,0.0001,0.00022,0.00014,0.00037999999999999997,-8e-05,6
25192,25864,5e-05,1e-05,0.0,0.0001,0.00022,0.00014,0.00037999999999999997,-8e-05,6
25193,25865,5e-05,1e-05,0.0,0.0001,0.00022,0.00014,0.00037999999999999997,-8e-05,6
25194,25866,5e-05,1e-05,0.0,0.0001,0.00022,0.00014,0.00037999999999999997,-8e-05,6
25195,25867,-1e-05,2.9999999999999997e-05,4e-05,-1e-05,0.00022,0.00016,-7e-05,7e-05,6
25196,25868,2e-05,4e-05,0.00013000000000000002,0.00062,0.00062,-9e-05,-0.00015,0.00011,6
25197,25869,2e-05,4e-05,0.00013000000000000002,0.00062,0.00062,-9e-05,-0.00015,0.00011,6
25198,25871,2e-05,4e-05,0.00013000000000000002,0.00062,0.00062,-9e-05,-0.00015,0.00011,6
25199,25872,2e-05,4e-05,0.00013000000000000002,0.00062,0.00062,-9e-05,-0.00015,0.00011,6
25200,25873,2e-05,4e-05,0.00013000000000000002,0.00062,0.00062,-9e-05,-0.00015,0.00011,6
25201,25874,1e-05,-1e-05,7e-05,0.00025,0.00011999999999999999,-0.00039,0.00016,-0.00037999999999999997,6
25202,25875,-0.00013000000000000002,-7e-05,0.0,7e-05,0.00029,-0.00021,-0.00014,-0.00088,6
25203,25876,-0.00013000000000000002,-7e-05,0.0,7e-05,0.00029,-0.00021,-0.00014,-0.00088,6
25204,25877,-0.00013000000000000002,-7e-05,0.0,7e-05,0.00029,-0.00021,-0.00014,-0.00088,6
25205,25878,-0.00013000000000000002,-7e-05,0.0,7e-05,0.00029,-0.00021,-0.00014,-0.00088,6
25206,25879,-0.00013000000000000002,-7e-05,0.0,7e-05,0.00029,-0.00021,-0.00014,-0.00088,6
25207,25880,-0.00013000000000000002,-7e-05,0.0,7e-05,0.00029,-0.00021,-0.00014,-0.00088,6
25208,25881,-0.00013000000000000002,-7e-05,0.0,7e-05,0.00029,-0.00021,-0.00014,-0.00088,6
25209,25882,-0.00013000000000000002,-7e-05,0.0,7e-05,0.00029,-0.00021,-0.00014,-0.00088,6
25210,25883,-0.00013000000000000002,-7e-05,0.0,7e-05,0.00029,-0.00021,-0.00014,-0.00088,6
25211,25884,-0.00013000000000000002,-7e-05,0.0,7e-05,0.00029,-0.00021,-0.00014,-0.00088,6
25212,25885,-0.00013000000000000002,-7e-05,0.0,7e-05,0.00029,-0.00021,-0.00014,-0.00088,6
25213,25886,-0.00013000000000000002,-7e-05,0.0,7e-05,0.00029,-0.00021,-0.00014,-0.00088,6
25214,25888,-0.00013000000000000002,-7e-05,0.0,7e-05,0.00029,-0.00021,-0.00014,-0.00088,6
25215,25889,-0.00013000000000000002,-7e-05,0.0,7e-05,0.00029,-0.00021,-0.00014,-0.00088,6
25216,25890,-0.00013000000000000002,-7e-05,0.0,7e-05,0.00029,-0.00021,-0.00014,-0.00088,6
25217,25891,-0.00013000000000000002,-7e-05,0.0,7e-05,0.00029,-0.00021,-0.00014,-0.00088,6
25218,25892,-0.00013000000000000002,-7e-05,0.0,7e-05,0.00029,-0.00021,-0.00014,-0.00088,6
25219,25893,-0.00013000000000000002,-7e-05,0.0,7e-05,0.00029,-0.00021,-0.00014,-0.00088,6
25220,25894,-0.00013000000000000002,-7e-05,0.0,7e-05,0.00029,-0.00021,-0.00014,-0.00088,6
25221,25895,-0.00013000000000000002,-7e-05,0.0,7e-05,0.00029,-0.00021,-0.00014,-0.00088,6
25222,25896,-0.00013000000000000002,-7e-05,0.0,7e-05,0.00029,-0.00021,-0.00014,-0.00088,6
25223,25897,-2e-05,-2e-05,-8e-05,-0.0001,-0.0003,-2e-05,-5e-05,0.00011,6
25224,25898,0.00016999999999999999,7e-05,0.00011,9e-05,0.00085,0.00047999999999999996,-5.9999999999999995e-05,0.00044,6
25225,25899,0.00016999999999999999,7e-05,0.00011,9e-05,0.00085,0.00047999999999999996,-5.9999999999999995e-05,0.00044,6
25226,25900,0.00016999999999999999,7e-05,0.00011,9e-05,0.00085,0.00047999999999999996,-5.9999999999999995e-05,0.00044,6
25227,25901,0.00016999999999999999,7e-05,0.00011,9e-05,0.00085,0.00047999999999999996,-5.9999999999999995e-05,0.00044,6
25228,25902,0.00016999999999999999,7e-05,0.00011,9e-05,0.00085,0.00047999999999999996,-5.9999999999999995e-05,0.00044,6
25229,25903,0.00016999999999999999,7e-05,0.00011,9e-05,0.00085,0.00047999999999999996,-5.9999999999999995e-05,0.00044,6
25230,25904,0.00016999999999999999,7e-05,0.00011,9e-05,0.00085,0.00047999999999999996,-5.9999999999999995e-05,0.00044,6
25231,25905,0.00016999999999999999,7e-05,0.00011,9e-05,0.00085,0.00047999999999999996,-5.9999999999999995e-05,0.00044,6
25232,25906,0.00016999999999999999,7e-05,0.00011,9e-05,0.00085,0.00047999999999999996,-5.9999999999999995e-05,0.00044,6
25233,25907,0.00016999999999999999,7e-05,0.00011,9e-05,0.00085,0.00047999999999999996,-5.9999999999999995e-05,0.00044,6
25234,25908,0.00016999999999999999,7e-05,0.00011,9e-05,0.00085,0.00047999999999999996,-5.9999999999999995e-05,0.00044,6
25235,25909,0.00016999999999999999,7e-05,0.00011,9e-05,0.00085,0.00047999999999999996,-5.9999999999999995e-05,0.00044,6
25236,25910,0.00016999999999999999,7e-05,0.00011,9e-05,0.00085,0.00047999999999999996,-5.9999999999999995e-05,0.00044,6
25237,25911,0.00016999999999999999,7e-05,0.00011,9e-05,0.00085,0.00047999999999999996,-5.9999999999999995e-05,0.00044,6
25238,25912,0.00016999999999999999,7e-05,0.00011,9e-05,0.00085,0.00047999999999999996,-5.9999999999999995e-05,0.00044,6
25239,25913,0.00016999999999999999,7e-05,0.00011,9e-05,0.00085,0.00047999999999999996,-5.9999999999999995e-05,0.00044,6
25240,25914,0.00016999999999999999,7e-05,0.00011,9e-05,0.00085,0.00047999999999999996,-5.9999999999999995e-05,0.00044,6
25241,25915,0.00016999999999999999,7e-05,0.00011,9e-05,0.00085,0.00047999999999999996,-5.9999999999999995e-05,0.00044,6
25242,25916,0.00016999999999999999,7e-05,0.00011,9e-05,0.00085,0.00047999999999999996,-5.9999999999999995e-05,0.00044,6
25243,25917,0.00016999999999999999,7e-05,0.00011,9e-05,0.00085,0.00047999999999999996,-5.9999999999999995e-05,0.00044,6
25244,25918,0.00016999999999999999,7e-05,0.00011,9e-05,0.00085,0.00047999999999999996,-5.9999999999999995e-05,0.00044,6
25245,25919,0.00016999999999999999,7e-05,0.00011,9e-05,0.00085,0.00047999999999999996,-5.9999999999999995e-05,0.00044,6
25246,25920,0.0,5.9999999999999995e-05,5e-05,4e-05,0.00037999999999999997,-0.00035,-0.00026000000000000003,-0.00022,6
25247,25921,5e-05,-0.00013000000000000002,-0.00022,-0.00044,-0.00105,4e-05,5.9999999999999995e-05,0.0005200000000000001,6
25248,25922,5e-05,-0.00013000000000000002,-0.00022,-0.00044,-0.00105,4e-05,5.9999999999999995e-05,0.0005200000000000001,6
25249,25923,5e-05,-0.00013000000000000002,-0.00022,-0.00044,-0.00105,4e-05,5.9999999999999995e-05,0.0005200000000000001,6
25250,25924,5e-05,-0.00013000000000000002,-0.00022,-0.00044,-0.00105,4e-05,5.9999999999999995e-05,0.0005200000000000001,6
25251,25925,5e-05,-0.00013000000000000002,-0.00022,-0.00044,-0.00105,4e-05,5.9999999999999995e-05,0.0005200000000000001,6
25252,25926,5e-05,-0.00013000000000000002,-0.00022,-0.00044,-0.00105,4e-05,5.9999999999999995e-05,0.0005200000000000001,6
25253,25927,5e-05,-0.00013000000000000002,-0.00022,-0.00044,-0.00105,4e-05,5.9999999999999995e-05,0.0005200000000000001,6
25254,25928,5e-05,-0.00013000000000000002,-0.00022,-0.00044,-0.00105,4e-05,5.9999999999999995e-05,0.0005200000000000001,6
25255,25929,5e-05,-0.00013000000000000002,-0.00022,-0.00044,-0.00105,4e-05,5.9999999999999995e-05,0.0005200000000000001,6
25256,25930,5e-05,-0.00013000000000000002,-0.00022,-0.00044,-0.00105,4e-05,5.9999999999999995e-05,0.0005200000000000001,6
25257,25931,5e-05,-0.00013000000000000002,-0.00022,-0.00044,-0.00105,4e-05,5.9999999999999995e-05,0.0005200000000000001,6
25258,25932,5e-05,-0.00013000000000000002,-0.00022,-0.00044,-0.00105,4e-05,5.9999999999999995e-05,0.0005200000000000001,6
25259,25933,5e-05,-0.00013000000000000002,-0.00022,-0.00044,-0.00105,4e-05,5.9999999999999995e-05,0.0005200000000000001,6
25260,25934,5e-05,-0.00013000000000000002,-0.00022,-0.00044,-0.00105,4e-05,5.9999999999999995e-05,0.0005200000000000001,6
25261,25935,5e-05,-0.00013000000000000002,-0.00022,-0.00044,-0.00105,4e-05,5.9999999999999995e-05,0.0005200000000000001,6
25262,25936,5e-05,-0.00013000000000000002,-0.00022,-0.00044,-0.00105,4e-05,5.9999999999999995e-05,0.0005200000000000001,6
25263,25938,5e-05,-0.00013000000000000002,-0.00022,-0.00044,-0.00105,4e-05,5.9999999999999995e-05,0.0005200000000000001,6
25264,25939,5e-05,-0.00013000000000000002,-0.00022,-0.00044,-0.00105,4e-05,5.9999999999999995e-05,0.0005200000000000001,6
25265,25940,5e-05,-0.00013000000000000002,-0.00022,-0.00044,-0.00105,4e-05,5.9999999999999995e-05,0.0005200000000000001,6
25266,25941,0.00011999999999999999,0.00015,0.0002,0.00032,2e-05,0.00073,0.0001,9e-05,6
25267,25942,-7e-05,4e-05,1e-05,-0.00021,-0.00093,0.00016999999999999999,0.00015,-0.00022999999999999998,6
25268,25943,-7e-05,4e-05,1e-05,-0.00021,-0.00093,0.00016999999999999999,0.00015,-0.00022999999999999998,6
25269,25944,-7e-05,4e-05,1e-05,-0.00021,-0.00093,0.00016999999999999999,0.00015,-0.00022999999999999998,6
25270,25945,-7e-05,4e-05,1e-05,-0.00021,-0.00093,0.00016999999999999999,0.00015,-0.00022999999999999998,6
25271,25946,-7e-05,4e-05,1e-05,-0.00021,-0.00093,0.00016999999999999999,0.00015,-0.00022999999999999998,6
25272,25947,-7e-05,4e-05,1e-05,-0.00021,-0.00093,0.00016999999999999999,0.00015,-0.00022999999999999998,6
25273,25948,-7e-05,4e-05,1e-05,-0.00021,-0.00093,0.00016999999999999999,0.00015,-0.00022999999999999998,6
25274,25949,-7e-05,4e-05,1e-05,-0.00021,-0.00093,0.00016999999999999999,0.00015,-0.00022999999999999998,6
25275,25950,-9e-05,-1e-05,-5.9999999999999995e-05,-0.00032,-0.0008699999999999999,0.00014,0.00022,-5e-05,6
25276,25951,-9e-05,-1e-05,-5.9999999999999995e-05,-0.00032,-0.0008699999999999999,0.00014,0.00022,-5e-05,6
25277,25952,-9e-05,-1e-05,-5.9999999999999995e-05,-0.00032,-0.0008699999999999999,0.00014,0.00022,-5e-05,6
25278,25953,-9e-05,-1e-05,-5.9999999999999995e-05,-0.00032,-0.0008699999999999999,0.00014,0.00022,-5e-05,6
25279,25954,-9e-05,-1e-05,-5.9999999999999995e-05,-0.00032,-0.0008699999999999999,0.00014,0.00022,-5e-05,6
25280,25955,-9e-05,-1e-05,-5.9999999999999995e-05,-0.00032,-0.0008699999999999999,0.00014,0.00022,-5e-05,6
25281,25956,-9e-05,-1e-05,-5.9999999999999995e-05,-0.00032,-0.0008699999999999999,0.00014,0.00022,-5e-05,6
25282,25957,-7e-05,-8e-05,-5.9999999999999995e-05,0.00022999999999999998,0.00033999999999999997,-0.0006799999999999999,0.00042,8e-05,6
25283,25958,2.9999999999999997e-05,-8e-05,-7e-05,-0.00011999999999999999,1e-05,-0.00022,-5.9999999999999995e-05,0.00049,6
25284,25959,2.9999999999999997e-05,-8e-05,-7e-05,-0.00011999999999999999,1e-05,-0.00022,-5.9999999999999995e-05,0.00049,6
25285,25960,2.9999999999999997e-05,-8e-05,-7e-05,-0.00011999999999999999,1e-05,-0.00022,-5.9999999999999995e-05,0.00049,6
25286,25961,2.9999999999999997e-05,-8e-05,-7e-05,-0.00011999999999999999,1e-05,-0.00022,-5.9999999999999995e-05,0.00049,6
25287,25962,2.9999999999999997e-05,-8e-05,-7e-05,-0.00011999999999999999,1e-05,-0.00022,-5.9999999999999995e-05,0.00049,6
25288,25963,2.9999999999999997e-05,-8e-05,-7e-05,-0.00011999999999999999,1e-05,-0.00022,-5.9999999999999995e-05,0.00049,6
25289,25964,2.9999999999999997e-05,-8e-05,-7e-05,-0.00011999999999999999,1e-05,-0.00022,-5.9999999999999995e-05,0.00049,6
25290,25965,2.9999999999999997e-05,-8e-05,-7e-05,-0.00011999999999999999,1e-05,-0.00022,-5.9999999999999995e-05,0.00049,6
25291,25966,2.9999999999999997e-05,-8e-05,-7e-05,-0.00011999999999999999,1e-05,-0.00022,-5.9999999999999995e-05,0.00049,6
25292,25967,2.9999999999999997e-05,-8e-05,-7e-05,-0.00011999999999999999,1e-05,-0.00022,-5.9999999999999995e-05,0.00049,6
25293,25968,2.9999999999999997e-05,-8e-05,-7e-05,-0.00011999999999999999,1e-05,-0.00022,-5.9999999999999995e-05,0.00049,6
25294,25969,2.9999999999999997e-05,-8e-05,-7e-05,-0.00011999999999999999,1e-05,-0.00022,-5.9999999999999995e-05,0.00049,6
25295,25970,2.9999999999999997e-05,-8e-05,-7e-05,-0.00011999999999999999,1e-05,-0.00022,-5.9999999999999995e-05,0.00049,6
25296,25971,2.9999999999999997e-05,-8e-05,-7e-05,-0.00011999999999999999,1e-05,-0.00022,-5.9999999999999995e-05,0.00049,6
25297,25972,2.9999999999999997e-05,-8e-05,-7e-05,-0.00011999999999999999,1e-05,-0.00022,-5.9999999999999995e-05,0.00049,6
25298,25973,2.9999999999999997e-05,-8e-05,-7e-05,-0.00011999999999999999,1e-05,-0.00022,-5.9999999999999995e-05,0.00049,6
25299,25974,2.9999999999999997e-05,-8e-05,-7e-05,-0.00011999999999999999,1e-05,-0.00022,-5.9999999999999995e-05,0.00049,6
25300,25975,2.9999999999999997e-05,-8e-05,-7e-05,-0.00011999999999999999,1e-05,-0.00022,-5.9999999999999995e-05,0.00049,6
25301,25976,2.9999999999999997e-05,-8e-05,-7e-05,-0.00011999999999999999,1e-05,-0.00022,-5.9999999999999995e-05,0.00049,6
25302,25977,2.9999999999999997e-05,-8e-05,-7e-05,-0.00011999999999999999,1e-05,-0.00022,-5.9999999999999995e-05,0.00049,6
25303,25978,2.9999999999999997e-05,-8e-05,-7e-05,-0.00011999999999999999,1e-05,-0.00022,-5.9999999999999995e-05,0.00049,6
25304,25979,2.9999999999999997e-05,-8e-05,-7e-05,-0.00011999999999999999,1e-05,-0.00022,-5.9999999999999995e-05,0.00049,6
25305,25980,-7e-05,-9e-05,-0.00011,-0.00016,-0.00093,-0.00044,-0.00011,-0.00033,6
25306,25981,-7e-05,-9e-05,-0.00011,-0.00016,-0.00093,-0.00044,-0.00011,-0.00033,6
25307,25982,-7e-05,-9e-05,-0.00011,-0.00016,-0.00093,-0.00044,-0.00011,-0.00033,6
25308,25983,-7e-05,-9e-05,-0.00011,-0.00016,-0.00093,-0.00044,-0.00011,-0.00033,6
25309,25984,-7e-05,-9e-05,-0.00011,-0.00016,-0.00093,-0.00044,-0.00011,-0.00033,6
25310,25985,-7e-05,-9e-05,-0.00011,-0.00016,-0.00093,-0.00044,-0.00011,-0.00033,6
25311,25986,-7e-05,-9e-05,-0.00011,-0.00016,-0.00093,-0.00044,-0.00011,-0.00033,6
25312,25988,-7e-05,-9e-05,-0.00011,-0.00016,-0.00093,-0.00044,-0.00011,-0.00033,6
25313,25989,-7e-05,-9e-05,-0.00011,-0.00016,-0.00093,-0.00044,-0.00011,-0.00033,6
25314,25990,-7e-05,-9e-05,-0.00011,-0.00016,-0.00093,-0.00044,-0.00011,-0.00033,6
25315,25991,-7e-05,-9e-05,-0.00011,-0.00016,-0.00093,-0.00044,-0.00011,-0.00033,6
25316,25992,-7e-05,-9e-05,-0.00011,-0.00016,-0.00093,-0.00044,-0.00011,-0.00033,6
25317,25993,-7e-05,-9e-05,-0.00011,-0.00016,-0.00093,-0.00044,-0.00011,-0.00033,6
25318,25994,5e-05,-0.0001,-0.00011,8e-05,0.00042,0.00086,0.00047000000000000004,0.00028,6
25319,25995,9e-05,9e-05,0.00018999999999999998,0.00033999999999999997,-0.00027,-0.0008,-0.00031,-0.00015,6
25320,25996,9e-05,9e-05,0.00018999999999999998,0.00033999999999999997,-0.00027,-0.0008,-0.00031,-0.00015,6
25321,25997,9e-05,9e-05,0.00018999999999999998,0.00033999999999999997,-0.00027,-0.0008,-0.00031,-0.00015,6
25322,25998,9e-05,9e-05,0.00018999999999999998,0.00033999999999999997,-0.00027,-0.0008,-0.00031,-0.00015,6
25323,25999,9e-05,9e-05,0.00018999999999999998,0.00033999999999999997,-0.00027,-0.0008,-0.00031,-0.00015,6
25324,26000,9e-05,9e-05,0.00018999999999999998,0.00033999999999999997,-0.00027,-0.0008,-0.00031,-0.00015,6
25325,26001,9e-05,9e-05,0.00018999999999999998,0.00033999999999999997,-0.00027,-0.0008,-0.00031,-0.00015,6
25326,26002,9e-05,9e-05,0.00018999999999999998,0.00033999999999999997,-0.00027,-0.0008,-0.00031,-0.00015,6
25327,26003,9e-05,9e-05,0.00018999999999999998,0.00033999999999999997,-0.00027,-0.0008,-0.00031,-0.00015,6
25328,26004,9e-05,9e-05,0.00018999999999999998,0.00033999999999999997,-0.00027,-0.0008,-0.00031,-0.00015,6
25329,26005,9e-05,9e-05,0.00018999999999999998,0.00033999999999999997,-0.00027,-0.0008,-0.00031,-0.00015,6
25330,26006,9e-05,9e-05,0.00018999999999999998,0.00033999999999999997,-0.00027,-0.0008,-0.00031,-0.00015,6
25331,26007,9e-05,9e-05,0.00018999999999999998,0.00033999999999999997,-0.00027,-0.0008,-0.00031,-0.00015,6
25332,26008,9e-05,9e-05,0.00018999999999999998,0.00033999999999999997,-0.00027,-0.0008,-0.00031,-0.00015,6
25333,26009,9e-05,9e-05,0.00018999999999999998,0.00033999999999999997,-0.00027,-0.0008,-0.00031,-0.00015,6
25334,26010,9e-05,9e-05,0.00018999999999999998,0.00033999999999999997,-0.00027,-0.0008,-0.00031,-0.00015,6
25335,26011,9e-05,9e-05,0.00018999999999999998,0.00033999999999999997,-0.00027,-0.0008,-0.00031,-0.00015,6
25336,26012,9e-05,9e-05,0.00018999999999999998,0.00033999999999999997,-0.00027,-0.0008,-0.00031,-0.00015,6
25337,26013,9e-05,9e-05,0.00018999999999999998,0.00033999999999999997,-0.00027,-0.0008,-0.00031,-0.00015,6
25338,26014,9e-05,9e-05,0.00018999999999999998,0.00033999999999999997,-0.00027,-0.0008,-0.00031,-0.00015,6
25339,26015,9e-05,9e-05,0.00018999999999999998,0.00033999999999999997,-0.00027,-0.0008,-0.00031,-0.00015,6
25340,26016,9e-05,9e-05,0.00018999999999999998,0.00033999999999999997,-0.00027,-0.0008,-0.00031,-0.00015,6
25341,26017,-7e-05,0.0,-1e-05,0.0,0.00022999999999999998,0.00022,-9e-05,-0.0005200000000000001,6
25342,26018,-7e-05,0.0,-1e-05,0.0,0.00022999999999999998,0.00022,-9e-05,-0.0005200000000000001,6
25343,26019,-0.00018,4e-05,2.9999999999999997e-05,0.00037,0.00112,0.00053,0.00018999999999999998,-0.0001,6
25344,26020,-0.00018,4e-05,2.9999999999999997e-05,0.00037,0.00112,0.00053,0.00018999999999999998,-0.0001,6
25345,26021,-0.00018,4e-05,2.9999999999999997e-05,0.00037,0.00112,0.00053,0.00018999999999999998,-0.0001,6
25346,26022,-0.00018,4e-05,2.9999999999999997e-05,0.00037,0.00112,0.00053,0.00018999999999999998,-0.0001,6
25347,26023,-0.00018,4e-05,2.9999999999999997e-05,0.00037,0.00112,0.00053,0.00018999999999999998,-0.0001,6
25348,26024,-0.00018,4e-05,2.9999999999999997e-05,0.00037,0.00112,0.00053,0.00018999999999999998,-0.0001,6
25349,26025,-0.00018,4e-05,2.9999999999999997e-05,0.00037,0.00112,0.00053,0.00018999999999999998,-0.0001,6
25350,26026,-0.00018,4e-05,2.9999999999999997e-05,0.00037,0.00112,0.00053,0.00018999999999999998,-0.0001,6
25351,26027,-0.00018,4e-05,2.9999999999999997e-05,0.00037,0.00112,0.00053,0.00018999999999999998,-0.0001,6
25352,26028,-0.00018,4e-05,2.9999999999999997e-05,0.00037,0.00112,0.00053,0.00018999999999999998,-0.0001,6
25353,26029,-0.00018,4e-05,2.9999999999999997e-05,0.00037,0.00112,0.00053,0.00018999999999999998,-0.0001,6
25354,26030,-0.00018,4e-05,2.9999999999999997e-05,0.00037,0.00112,0.00053,0.00018999999999999998,-0.0001,6
25355,26031,-0.00018,4e-05,2.9999999999999997e-05,0.00037,0.00112,0.00053,0.00018999999999999998,-0.0001,6
25356,26032,-0.00018,4e-05,2.9999999999999997e-05,0.00037,0.00112,0.00053,0.00018999999999999998,-0.0001,6
25357,26033,-0.00018,4e-05,2.9999999999999997e-05,0.00037,0.00112,0.00053,0.00018999999999999998,-0.0001,6
25358,26034,-0.00018,4e-05,2.9999999999999997e-05,0.00037,0.00112,0.00053,0.00018999999999999998,-0.0001,6
25359,26035,-0.00018,4e-05,2.9999999999999997e-05,0.00037,0.00112,0.00053,0.00018999999999999998,-0.0001,6
25360,26036,-0.00018,4e-05,2.9999999999999997e-05,0.00037,0.00112,0.00053,0.00018999999999999998,-0.0001,6
25361,26038,-0.00018,4e-05,2.9999999999999997e-05,0.00037,0.00112,0.00053,0.00018999999999999998,-0.0001,6
25362,26039,-0.00018,4e-05,2.9999999999999997e-05,0.00037,0.00112,0.00053,0.00018999999999999998,-0.0001,6
25363,26040,-0.00018,4e-05,2.9999999999999997e-05,0.00037,0.00112,0.00053,0.00018999999999999998,-0.0001,6
25364,26041,-0.00018,4e-05,2.9999999999999997e-05,0.00037,0.00112,0.00053,0.00018999999999999998,-0.0001,6
25365,26042,-0.00018,4e-05,2.9999999999999997e-05,0.00037,0.00112,0.00053,0.00018999999999999998,-0.0001,6
25366,26043,-0.00018,4e-05,2.9999999999999997e-05,0.00037,0.00112,0.00053,0.00018999999999999998,-0.0001,6
25367,26044,-0.00018,4e-05,2.9999999999999997e-05,0.00037,0.00112,0.00053,0.00018999999999999998,-0.0001,6
25368,26045,-0.00018,4e-05,2.9999999999999997e-05,0.00037,0.00112,0.00053,0.00018999999999999998,-0.0001,6
25369,26046,-0.00018,4e-05,2.9999999999999997e-05,0.00037,0.00112,0.00053,0.00018999999999999998,-0.0001,6
25370,26047,8e-05,7e-05,0.00011,0.00011,-0.00018,-0.00029,-0.0004,-5e-05,6
25371,26048,8e-05,7e-05,0.00011,0.00011,-0.00018,-0.00029,-0.0004,-5e-05,6
25372,26049,2e-05,4e-05,2e-05,-0.00016,-0.0002,0.00015,-0.00027,-0.00013000000000000002,6
25373,26050,2e-05,4e-05,2e-05,-0.00016,-0.0002,0.00015,-0.00027,-0.00013000000000000002,6
25374,26051,2e-05,4e-05,2e-05,-0.00016,-0.0002,0.00015,-0.00027,-0.00013000000000000002,6
25375,26052,2e-05,4e-05,2e-05,-0.00016,-0.0002,0.00015,-0.00027,-0.00013000000000000002,6
25376,26053,-5e-05,-1e-05,-5e-05,0.00021,0.00058,0.0005099999999999999,-0.00033,4e-05,6
25377,26054,-5e-05,-1e-05,-5e-05,0.00021,0.00058,0.0005099999999999999,-0.00033,4e-05,6
25378,26055,-5e-05,-1e-05,-5e-05,0.00021,0.00058,0.0005099999999999999,-0.00033,4e-05,6
25379,26056,-5e-05,-1e-05,-5e-05,0.00021,0.00058,0.0005099999999999999,-0.00033,4e-05,6
25380,26058,-5e-05,-1e-05,-5e-05,0.00021,0.00058,0.0005099999999999999,-0.00033,4e-05,6
25381,26059,-5e-05,-1e-05,-5e-05,0.00021,0.00058,0.0005099999999999999,-0.00033,4e-05,6
25382,26060,-5e-05,-1e-05,-5e-05,0.00021,0.00058,0.0005099999999999999,-0.00033,4e-05,6
25383,26061,-5e-05,-1e-05,-5e-05,0.00021,0.00058,0.0005099999999999999,-0.00033,4e-05,6
25384,26062,-5e-05,-1e-05,-5e-05,0.00021,0.00058,0.0005099999999999999,-0.00033,4e-05,6
25385,26063,-5e-05,-1e-05,-5e-05,0.00021,0.00058,0.0005099999999999999,-0.00033,4e-05,6
25386,26064,-5e-05,-1e-05,-5e-05,0.00021,0.00058,0.0005099999999999999,-0.00033,4e-05,6
25387,26065,-5e-05,-1e-05,-5e-05,0.00021,0.00058,0.0005099999999999999,-0.00033,4e-05,6
25388,26066,-5e-05,-1e-05,-5e-05,0.00021,0.00058,0.0005099999999999999,-0.00033,4e-05,6
25389,26067,-5e-05,-1e-05,-5e-05,0.00021,0.00058,0.0005099999999999999,-0.00033,4e-05,6
25390,26068,-5e-05,-1e-05,-5e-05,0.00021,0.00058,0.0005099999999999999,-0.00033,4e-05,6
25391,26069,-5e-05,-1e-05,-5e-05,0.00021,0.00058,0.0005099999999999999,-0.00033,4e-05,6
25392,26070,-8e-05,-5e-05,-2e-05,0.0,-1e-05,-0.00022,0.0,2.9999999999999997e-05,6
25393,26071,-8e-05,-5e-05,-2e-05,0.0,-1e-05,-0.00022,0.0,2.9999999999999997e-05,6
25394,26072,-8e-05,-5e-05,-2e-05,0.0,-1e-05,-0.00022,0.0,2.9999999999999997e-05,6
25395,26073,-8e-05,-5e-05,-2e-05,0.0,-1e-05,-0.00022,0.0,2.9999999999999997e-05,6
25396,26074,-8e-05,-5e-05,-2e-05,0.0,-1e-05,-0.00022,0.0,2.9999999999999997e-05,6
25397,26075,-8e-05,-5e-05,-2e-05,0.0,-1e-05,-0.00022,0.0,2.9999999999999997e-05,6
25398,26076,-8e-05,-5e-05,-2e-05,0.0,-1e-05,-0.00022,0.0,2.9999999999999997e-05,6
25399,26077,7e-05,0.00011999999999999999,5.9999999999999995e-05,9e-05,-0.00047999999999999996,-0.00021,0.00013000000000000002,0.00014,6
25400,26078,7e-05,0.00011999999999999999,5.9999999999999995e-05,9e-05,-0.00047999999999999996,-0.00021,0.00013000000000000002,0.00014,6
25401,26079,-2.9999999999999997e-05,-1e-05,-2e-05,-0.00025,-0.00043,0.00016999999999999999,0.0,-0.0006,6
25402,26080,-2.9999999999999997e-05,-1e-05,-2e-05,-0.00025,-0.00043,0.00016999999999999999,0.0,-0.0006,6
25403,26081,-2.9999999999999997e-05,-1e-05,-2e-05,-0.00025,-0.00043,0.00016999999999999999,0.0,-0.0006,6
25404,26082,-2.9999999999999997e-05,-1e-05,-2e-05,-0.00025,-0.00043,0.00016999999999999999,0.0,-0.0006,6
25405,26083,-2.9999999999999997e-05,-1e-05,-2e-05,-0.00025,-0.00043,0.00016999999999999999,0.0,-0.0006,6
25406,26084,-2.9999999999999997e-05,-1e-05,-2e-05,-0.00025,-0.00043,0.00016999999999999999,0.0,-0.0006,6
25407,26085,-2.9999999999999997e-05,-1e-05,-2e-05,-0.00025,-0.00043,0.00016999999999999999,0.0,-0.0006,6
25408,26086,-2.9999999999999997e-05,-1e-05,-2e-05,-0.00025,-0.00043,0.00016999999999999999,0.0,-0.0006,6
25409,26088,-2.9999999999999997e-05,-1e-05,-2e-05,-0.00025,-0.00043,0.00016999999999999999,0.0,-0.0006,6
25410,26089,-2.9999999999999997e-05,-1e-05,-2e-05,-0.00025,-0.00043,0.00016999999999999999,0.0,-0.0006,6
25411,26090,-2.9999999999999997e-05,-1e-05,-2e-05,-0.00025,-0.00043,0.00016999999999999999,0.0,-0.0006,6
25412,26091,-2.9999999999999997e-05,-1e-05,-2e-05,-0.00025,-0.00043,0.00016999999999999999,0.0,-0.0006,6
25413,26092,-2.9999999999999997e-05,-1e-05,-2e-05,-0.00025,-0.00043,0.00016999999999999999,0.0,-0.0006,6
25414,26093,-2.9999999999999997e-05,-1e-05,-2e-05,-0.00025,-0.00043,0.00016999999999999999,0.0,-0.0006,6
25415,26094,-2.9999999999999997e-05,-1e-05,-2e-05,-0.00025,-0.00043,0.00016999999999999999,0.0,-0.0006,6
25416,26095,-2.9999999999999997e-05,-1e-05,-2e-05,-0.00025,-0.00043,0.00016999999999999999,0.0,-0.0006,6
25417,26096,-2.9999999999999997e-05,-1e-05,-2e-05,-0.00025,-0.00043,0.00016999999999999999,0.0,-0.0006,6
25418,26097,-2.9999999999999997e-05,-1e-05,-2e-05,-0.00025,-0.00043,0.00016999999999999999,0.0,-0.0006,6
25419,26098,-2.9999999999999997e-05,-1e-05,-2e-05,-0.00025,-0.00043,0.00016999999999999999,0.0,-0.0006,6
25420,26099,-2.9999999999999997e-05,-1e-05,-2e-05,-0.00025,-0.00043,0.00016999999999999999,0.0,-0.0006,6
25421,26100,-9e-05,-8e-05,-0.00011999999999999999,-0.00037999999999999997,-0.0009,1e-05,-0.00036,-0.00025,6
25422,26101,7e-05,-1e-05,-2e-05,-0.00022,-0.00036,-0.00072,-5.9999999999999995e-05,0.00023999999999999998,6
25423,26103,7e-05,-1e-05,-2e-05,-0.00022,-0.00036,-0.00072,-5.9999999999999995e-05,0.00023999999999999998,6
25424,26104,7e-05,-1e-05,-2e-05,-0.00022,-0.00036,-0.00072,-5.9999999999999995e-05,0.00023999999999999998,6
25425,26105,7e-05,-1e-05,-2e-05,-0.00022,-0.00036,-0.00072,-5.9999999999999995e-05,0.00023999999999999998,6
25426,26106,7e-05,-1e-05,-2e-05,-0.00022,-0.00036,-0.00072,-5.9999999999999995e-05,0.00023999999999999998,6
25427,26107,7e-05,-1e-05,-2e-05,-0.00022,-0.00036,-0.00072,-5.9999999999999995e-05,0.00023999999999999998,6
25428,26108,7e-05,-1e-05,-2e-05,-0.00022,-0.00036,-0.00072,-5.9999999999999995e-05,0.00023999999999999998,6
25429,26109,7e-05,-1e-05,-2e-05,-0.00022,-0.00036,-0.00072,-5.9999999999999995e-05,0.00023999999999999998,6
25430,26110,7e-05,-1e-05,-2e-05,-0.00022,-0.00036,-0.00072,-5.9999999999999995e-05,0.00023999999999999998,6
25431,26111,7e-05,-1e-05,-2e-05,-0.00022,-0.00036,-0.00072,-5.9999999999999995e-05,0.00023999999999999998,6
25432,26112,7e-05,-1e-05,-2e-05,-0.00022,-0.00036,-0.00072,-5.9999999999999995e-05,0.00023999999999999998,6
25433,26113,7e-05,-1e-05,-2e-05,-0.00022,-0.00036,-0.00072,-5.9999999999999995e-05,0.00023999999999999998,6
25434,26114,7e-05,-1e-05,-2e-05,-0.00022,-0.00036,-0.00072,-5.9999999999999995e-05,0.00023999999999999998,6
25435,26115,7e-05,-1e-05,-2e-05,-0.00022,-0.00036,-0.00072,-5.9999999999999995e-05,0.00023999999999999998,6
25436,26116,7e-05,-1e-05,-2e-05,-0.00022,-0.00036,-0.00072,-5.9999999999999995e-05,0.00023999999999999998,6
25437,26117,7e-05,-1e-05,-2e-05,-0.00022,-0.00036,-0.00072,-5.9999999999999995e-05,0.00023999999999999998,6
25438,26118,7e-05,-1e-05,-2e-05,-0.00022,-0.00036,-0.00072,-5.9999999999999995e-05,0.00023999999999999998,6
25439,26119,7e-05,-1e-05,-2e-05,-0.00022,-0.00036,-0.00072,-5.9999999999999995e-05,0.00023999999999999998,6
25440,26120,7e-05,-1e-05,-2e-05,-0.00022,-0.00036,-0.00072,-5.9999999999999995e-05,0.00023999999999999998,6
25441,26121,7e-05,-1e-05,-2e-05,-0.00022,-0.00036,-0.00072,-5.9999999999999995e-05,0.00023999999999999998,6
25442,26122,5e-05,2.9999999999999997e-05,0.0001,0.00016,-0.00116,-0.00041,4e-05,0.00067,6
25443,26123,5e-05,2.9999999999999997e-05,0.0001,0.00016,-0.00116,-0.00041,4e-05,0.00067,6
25444,26124,-0.00016,-0.0001,-0.00011,-9e-05,-0.00057,-0.00031,-0.00033,-0.00036,6
25445,26125,-0.00016,-0.0001,-0.00011,-9e-05,-0.00057,-0.00031,-0.00033,-0.00036,6
25446,26126,-0.00016,-0.0001,-0.00011,-9e-05,-0.00057,-0.00031,-0.00033,-0.00036,6
25447,26127,-0.00016,-0.0001,-0.00011,-9e-05,-0.00057,-0.00031,-0.00033,-0.00036,6
25448,26128,-0.00016,-0.0001,-0.00011,-9e-05,-0.00057,-0.00031,-0.00033,-0.00036,6
25449,26129,-0.00016,-0.0001,-0.00011,-9e-05,-0.00057,-0.00031,-0.00033,-0.00036,6
25450,26130,-0.00016,-0.0001,-0.00011,-9e-05,-0.00057,-0.00031,-0.00033,-0.00036,6
25451,26131,-0.00016,-0.0001,-0.00011,-9e-05,-0.00057,-0.00031,-0.00033,-0.00036,6
25452,26132,-0.00016,-0.0001,-0.00011,-9e-05,-0.00057,-0.00031,-0.00033,-0.00036,6
25453,26133,-0.00016,-0.0001,-0.00011,-9e-05,-0.00057,-0.00031,-0.00033,-0.00036,6
25454,26134,-0.00016,-0.0001,-0.00011,-9e-05,-0.00057,-0.00031,-0.00033,-0.00036,6
25455,26135,-0.00016,-0.0001,-0.00011,-9e-05,-0.00057,-0.00031,-0.00033,-0.00036,6
25456,26136,-0.00016,-0.0001,-0.00011,-9e-05,-0.00057,-0.00031,-0.00033,-0.00036,6
25457,26138,-0.00016,-0.0001,-0.00011,-9e-05,-0.00057,-0.00031,-0.00033,-0.00036,6
25458,26139,-0.00016,-0.0001,-0.00011,-9e-05,-0.00057,-0.00031,-0.00033,-0.00036,6
25459,26140,-0.00016,-0.0001,-0.00011,-9e-05,-0.00057,-0.00031,-0.00033,-0.00036,6
25460,26141,-0.00016,-0.0001,-0.00011,-9e-05,-0.00057,-0.00031,-0.00033,-0.00036,6
25461,26142,-0.00016,-0.0001,-0.00011,-9e-05,-0.00057,-0.00031,-0.00033,-0.00036,6
25462,26143,-0.00016,-0.0001,-0.00011,-9e-05,-0.00057,-0.00031,-0.00033,-0.00036,6
25463,26144,-0.00016,-0.0001,-0.00011,-9e-05,-0.00057,-0.00031,-0.00033,-0.00036,6
25464,26145,0.00018,0.0,0.00011999999999999999,0.0009,0.00088,0.00014,0.00029,0.0007099999999999999,6
25465,26146,-1e-05,-4e-05,-4e-05,9e-05,-0.0005,-0.00022999999999999998,0.00021,-2.9999999999999997e-05,6
25466,26147,-1e-05,-4e-05,-4e-05,9e-05,-0.0005,-0.00022999999999999998,0.00021,-2.9999999999999997e-05,6
25467,26148,-1e-05,-4e-05,-4e-05,9e-05,-0.0005,-0.00022999999999999998,0.00021,-2.9999999999999997e-05,6
