,time,channel1,channel2,channel3,channel4,channel5,channel6,channel7,channel8,class
29271,30246,-0.00022,-5e-05,-5.9999999999999995e-05,-8e-05,-2.9999999999999997e-05,-0.0005,-2.9999999999999997e-05,-0.0003,6
29272,30247,-0.00022,-5e-05,-5.9999999999999995e-05,-8e-05,-2.9999999999999997e-05,-0.0005,-2.9999999999999997e-05,-0.0003,6
29273,30248,-0.00022,-5e-05,-5.9999999999999995e-05,-8e-05,-2.9999999999999997e-05,-0.0005,-2.9999999999999997e-05,-0.0003,6
29274,30249,-0.00022,-5e-05,-5.9999999999999995e-05,-8e-05,-2.9999999999999997e-05,-0.0005,-2.9999999999999997e-05,-0.0003,6
29275,30250,-0.00022,-5e-05,-5.9999999999999995e-05,-8e-05,-2.9999999999999997e-05,-0.0005,-2.9999999999999997e-05,-0.0003,6
29276,30251,0.00018999999999999998,4e-05,2.9999999999999997e-05,0.00018,7e-05,0.00013000000000000002,-0.00044,0.00021,6
29277,30252,0.00018999999999999998,4e-05,2.9999999999999997e-05,0.00018,7e-05,0.00013000000000000002,-0.00044,0.00021,6
29278,30253,0.00013000000000000002,-0.00013000000000000002,-0.00011,0.00011,-0.00031,-0.00057,-0.00014,-1e-05,6
29279,30254,0.00013000000000000002,-0.00013000000000000002,-0.00011,0.00011,-0.00031,-0.00057,-0.00014,-1e-05,6
29280,30255,0.00013000000000000002,-0.00013000000000000002,-0.00011,0.00011,-0.00031,-0.00057,-0.00014,-1e-05,6
29281,30256,0.00013000000000000002,-0.00013000000000000002,-0.00011,0.00011,-0.00031,-0.00057,-0.00014,-1e-05,6
29282,30257,0.00013000000000000002,-0.00013000000000000002,-0.00011,0.00011,-0.00031,-0.00057,-0.00014,-1e-05,6
29283,30258,0.00013000000000000002,-0.00013000000000000002,-0.00011,0.00011,-0.00031,-0.00057,-0.00014,-1e-05,6
29284,30259,0.00013000000000000002,-0.00013000000000000002,-0.00011,0.00011,-0.00031,-0.00057,-0.00014,-1e-05,6
29285,30260,0.00013000000000000002,-0.00013000000000000002,-0.00011,0.00011,-0.00031,-0.00057,-0.00014,-1e-05,6
29286,30261,0.00013000000000000002,-0.00013000000000000002,-0.00011,0.00011,-0.00031,-0.00057,-0.00014,-1e-05,6
29287,30262,0.00013000000000000002,-0.00013000000000000002,-0.00011,0.00011,-0.00031,-0.00057,-0.00014,-1e-05,6
29288,30263,0.00013000000000000002,-0.00013000000000000002,-0.00011,0.00011,-0.00031,-0.00057,-0.00014,-1e-05,6
29289,30264,0.00013000000000000002,-0.00013000000000000002,-0.00011,0.00011,-0.00031,-0.00057,-0.00014,-1e-05,6
29290,30265,0.00013000000000000002,-0.00013000000000000002,-0.00011,0.00011,-0.00031,-0.00057,-0.00014,-1e-05,6
29291,30266,0.00013000000000000002,-0.00013000000000000002,-0.00011,0.00011,-0.00031,-0.00057,-0.00014,-1e-05,6
29292,30267,0.00013000000000000002,-0.00013000000000000002,-0.00011,0.00011,-0.00031,-0.00057,-0.00014,-1e-05,6
29293,30268,0.00013000000000000002,-0.00013000000000000002,-0.00011,0.00011,-0.00031,-0.00057,-0.00014,-1e-05,6
29294,30269,0.00013000000000000002,-0.00013000000000000002,-0.00011,0.00011,-0.00031,-0.00057,-0.00014,-1e-05,6
29295,30270,0.00013000000000000002,-0.00013000000000000002,-0.00011,0.00011,-0.00031,-0.00057,-0.00014,-1e-05,6
29296,30271,0.00013000000000000002,-0.00013000000000000002,-0.00011,0.00011,-0.00031,-0.00057,-0.00014,-1e-05,6
29297,30272,0.00013000000000000002,-0.00013000000000000002,-0.00011,0.00011,-0.00031,-0.00057,-0.00014,-1e-05,6
29298,30273,0.00013000000000000002,-0.00013000000000000002,-0.00011,0.00011,-0.00031,-0.00057,-0.00014,-1e-05,6
29299,30274,4e-05,4e-05,5e-05,0.0001,-0.0006799999999999999,-0.00029,2e-05,-0.00022999999999999998,6
29300,30275,-7e-05,-0.00016999999999999999,-0.0002,-0.00023999999999999998,0.00049,0.0,-1e-05,0.0,6
29301,30276,0.00039,5e-05,5e-05,-8e-05,-0.00044,-8e-05,-1e-05,1e-05,6
29302,30277,0.00039,5e-05,5e-05,-8e-05,-0.00044,-8e-05,-1e-05,1e-05,6
29303,30278,0.00039,5e-05,5e-05,-8e-05,-0.00044,-8e-05,-1e-05,1e-05,6
29304,30279,0.00039,5e-05,5e-05,-8e-05,-0.00044,-8e-05,-1e-05,1e-05,6
29305,30280,0.00039,5e-05,5e-05,-8e-05,-0.00044,-8e-05,-1e-05,1e-05,6
29306,30281,0.00039,5e-05,5e-05,-8e-05,-0.00044,-8e-05,-1e-05,1e-05,6
29307,30282,0.00039,5e-05,5e-05,-8e-05,-0.00044,-8e-05,-1e-05,1e-05,6
29308,30283,0.00039,5e-05,5e-05,-8e-05,-0.00044,-8e-05,-1e-05,1e-05,6
29309,30284,0.00039,5e-05,5e-05,-8e-05,-0.00044,-8e-05,-1e-05,1e-05,6
29310,30285,0.00039,5e-05,5e-05,-8e-05,-0.00044,-8e-05,-1e-05,1e-05,6
29311,30286,0.00039,5e-05,5e-05,-8e-05,-0.00044,-8e-05,-1e-05,1e-05,6
29312,30289,7e-05,2e-05,-1e-05,8e-05,0.0008300000000000001,-0.0005200000000000001,2e-05,-5e-05,6
29313,30290,7e-05,2e-05,-1e-05,8e-05,0.0008300000000000001,-0.0005200000000000001,2e-05,-5e-05,6
29314,30291,7e-05,2e-05,-1e-05,8e-05,0.0008300000000000001,-0.0005200000000000001,2e-05,-5e-05,6
29315,30292,7e-05,2e-05,-1e-05,8e-05,0.0008300000000000001,-0.0005200000000000001,2e-05,-5e-05,6
29316,30293,7e-05,2e-05,-1e-05,8e-05,0.0008300000000000001,-0.0005200000000000001,2e-05,-5e-05,6
29317,30294,7e-05,2e-05,-1e-05,8e-05,0.0008300000000000001,-0.0005200000000000001,2e-05,-5e-05,6
29318,30295,7e-05,2e-05,-1e-05,8e-05,0.0008300000000000001,-0.0005200000000000001,2e-05,-5e-05,6
29319,30296,7e-05,2e-05,-1e-05,8e-05,0.0008300000000000001,-0.0005200000000000001,2e-05,-5e-05,6
29320,30297,7e-05,2e-05,-1e-05,8e-05,0.0008300000000000001,-0.0005200000000000001,2e-05,-5e-05,6
29321,30298,7e-05,2e-05,-1e-05,8e-05,0.0008300000000000001,-0.0005200000000000001,2e-05,-5e-05,6
29322,30299,7e-05,2e-05,-1e-05,8e-05,0.0008300000000000001,-0.0005200000000000001,2e-05,-5e-05,6
29323,30300,7e-05,2e-05,-1e-05,8e-05,0.0008300000000000001,-0.0005200000000000001,2e-05,-5e-05,6
29324,30301,7e-05,2e-05,-1e-05,8e-05,0.0008300000000000001,-0.0005200000000000001,2e-05,-5e-05,6
29325,30302,7e-05,2e-05,-1e-05,8e-05,0.0008300000000000001,-0.0005200000000000001,2e-05,-5e-05,6
29326,30303,-0.00011999999999999999,5e-05,1e-05,-0.00011,-0.00101,-0.0007700000000000001,-0.00045,-1e-05,6
29327,30304,-0.00018999999999999998,-5e-05,-2e-05,-7e-05,0.00027,-7e-05,0.0001,0.00011,6
29328,30305,-0.00018999999999999998,-5e-05,-2e-05,-7e-05,0.00027,-7e-05,0.0001,0.00011,6
29329,30306,-0.00018999999999999998,-5e-05,-2e-05,-7e-05,0.00027,-7e-05,0.0001,0.00011,6
29330,30307,-0.00018999999999999998,-5e-05,-2e-05,-7e-05,0.00027,-7e-05,0.0001,0.00011,6
29331,30308,-0.00018999999999999998,-5e-05,-2e-05,-7e-05,0.00027,-7e-05,0.0001,0.00011,6
29332,30309,-0.00018999999999999998,-5e-05,-2e-05,-7e-05,0.00027,-7e-05,0.0001,0.00011,6
29333,30310,-0.00018999999999999998,-5e-05,-2e-05,-7e-05,0.00027,-7e-05,0.0001,0.00011,6
29334,30311,-1e-05,0.0,1e-05,-5.9999999999999995e-05,-5.9999999999999995e-05,0.00016,8e-05,0.00044,6
29335,30312,0.0001,4e-05,5e-05,-9e-05,-0.00057,0.00025,-0.00011999999999999999,-0.0006,6
29336,30313,0.0001,4e-05,5e-05,-9e-05,-0.00057,0.00025,-0.00011999999999999999,-0.0006,6
29337,30314,0.0001,4e-05,5e-05,-9e-05,-0.00057,0.00025,-0.00011999999999999999,-0.0006,6
29338,30315,0.0001,4e-05,5e-05,-9e-05,-0.00057,0.00025,-0.00011999999999999999,-0.0006,6
29339,30316,0.0001,4e-05,5e-05,-9e-05,-0.00057,0.00025,-0.00011999999999999999,-0.0006,6
29340,30317,0.0001,4e-05,5e-05,-9e-05,-0.00057,0.00025,-0.00011999999999999999,-0.0006,6
29341,30318,0.0001,4e-05,5e-05,-9e-05,-0.00057,0.00025,-0.00011999999999999999,-0.0006,6
29342,30319,0.0001,4e-05,5e-05,-9e-05,-0.00057,0.00025,-0.00011999999999999999,-0.0006,6
29343,30320,0.0001,4e-05,5e-05,-9e-05,-0.00057,0.00025,-0.00011999999999999999,-0.0006,6
29344,30321,0.0001,4e-05,5e-05,-9e-05,-0.00057,0.00025,-0.00011999999999999999,-0.0006,6
29345,30322,0.0001,4e-05,5e-05,-9e-05,-0.00057,0.00025,-0.00011999999999999999,-0.0006,6
29346,30323,0.0001,4e-05,5e-05,-9e-05,-0.00057,0.00025,-0.00011999999999999999,-0.0006,6
29347,30324,0.0001,4e-05,5e-05,-9e-05,-0.00057,0.00025,-0.00011999999999999999,-0.0006,6
29348,30325,0.0001,4e-05,5e-05,-9e-05,-0.00057,0.00025,-0.00011999999999999999,-0.0006,6
29349,30326,0.0001,4e-05,5e-05,-9e-05,-0.00057,0.00025,-0.00011999999999999999,-0.0006,6
29350,30327,0.0001,4e-05,5e-05,-9e-05,-0.00057,0.00025,-0.00011999999999999999,-0.0006,6
29351,30328,0.0001,4e-05,5e-05,-9e-05,-0.00057,0.00025,-0.00011999999999999999,-0.0006,6
29352,30329,0.0001,4e-05,5e-05,-9e-05,-0.00057,0.00025,-0.00011999999999999999,-0.0006,6
29353,30330,0.0001,4e-05,5e-05,-9e-05,-0.00057,0.00025,-0.00011999999999999999,-0.0006,6
29354,30331,0.0001,4e-05,5e-05,-9e-05,-0.00057,0.00025,-0.00011999999999999999,-0.0006,6
29355,30332,0.0001,4e-05,5e-05,-9e-05,-0.00057,0.00025,-0.00011999999999999999,-0.0006,6
29356,30333,1e-05,8e-05,2e-05,9e-05,1e-05,0.00074,0.00032,0.0005099999999999999,6
29357,30334,8e-05,4e-05,5e-05,2e-05,-5e-05,0.00049,0.00047000000000000004,-1e-05,6
29358,30335,-0.00018,-5.9999999999999995e-05,-2.9999999999999997e-05,1e-05,0.00033999999999999997,0.0002,2.9999999999999997e-05,-0.00072,6
29359,30336,-0.00018,-5.9999999999999995e-05,-2.9999999999999997e-05,1e-05,0.00033999999999999997,0.0002,2.9999999999999997e-05,-0.00072,6
29360,30338,-0.00018,-5.9999999999999995e-05,-2.9999999999999997e-05,1e-05,0.00033999999999999997,0.0002,2.9999999999999997e-05,-0.00072,6
29361,30339,-0.00018,-5.9999999999999995e-05,-2.9999999999999997e-05,1e-05,0.00033999999999999997,0.0002,2.9999999999999997e-05,-0.00072,6
29362,30340,-0.00018,-5.9999999999999995e-05,-2.9999999999999997e-05,1e-05,0.00033999999999999997,0.0002,2.9999999999999997e-05,-0.00072,6
29363,30341,-0.00018,-5.9999999999999995e-05,-2.9999999999999997e-05,1e-05,0.00033999999999999997,0.0002,2.9999999999999997e-05,-0.00072,6
29364,30342,-0.00018,-5.9999999999999995e-05,-2.9999999999999997e-05,1e-05,0.00033999999999999997,0.0002,2.9999999999999997e-05,-0.00072,6
29365,30343,-0.00018,-5.9999999999999995e-05,-2.9999999999999997e-05,1e-05,0.00033999999999999997,0.0002,2.9999999999999997e-05,-0.00072,6
29366,30344,-0.00018,-5.9999999999999995e-05,-2.9999999999999997e-05,1e-05,0.00033999999999999997,0.0002,2.9999999999999997e-05,-0.00072,6
29367,30345,-0.00018,-5.9999999999999995e-05,-2.9999999999999997e-05,1e-05,0.00033999999999999997,0.0002,2.9999999999999997e-05,-0.00072,6
29368,30346,-0.00018,-5.9999999999999995e-05,-2.9999999999999997e-05,1e-05,0.00033999999999999997,0.0002,2.9999999999999997e-05,-0.00072,6
29369,30347,5.9999999999999995e-05,-4e-05,-5.9999999999999995e-05,-0.00029,-0.00035,-0.00027,-0.00035,-0.0011300000000000001,6
29370,30348,0.0002,2e-05,-1e-05,0.00011,4e-05,5e-05,-5.9999999999999995e-05,0.00029,6
29371,30349,0.0002,2e-05,-1e-05,0.00011,4e-05,5e-05,-5.9999999999999995e-05,0.00029,6
29372,30350,0.0002,2e-05,-1e-05,0.00011,4e-05,5e-05,-5.9999999999999995e-05,0.00029,6
29373,30351,0.0002,2e-05,-1e-05,0.00011,4e-05,5e-05,-5.9999999999999995e-05,0.00029,6
29374,30352,0.0002,2e-05,-1e-05,0.00011,4e-05,5e-05,-5.9999999999999995e-05,0.00029,6
29375,30353,0.0002,2e-05,-1e-05,0.00011,4e-05,5e-05,-5.9999999999999995e-05,0.00029,6
29376,30354,0.0002,2e-05,-1e-05,0.00011,4e-05,5e-05,-5.9999999999999995e-05,0.00029,6
29377,30355,0.0002,2e-05,-1e-05,0.00011,4e-05,5e-05,-5.9999999999999995e-05,0.00029,6
29378,30356,0.0001,2.9999999999999997e-05,2e-05,-9e-05,-4e-05,-9e-05,0.00037,0.00059,6
29379,30357,0.0001,2.9999999999999997e-05,2e-05,-9e-05,-4e-05,-9e-05,0.00037,0.00059,6
29380,30358,0.0001,2.9999999999999997e-05,2e-05,-9e-05,-4e-05,-9e-05,0.00037,0.00059,6
29381,30359,0.0001,2.9999999999999997e-05,2e-05,-9e-05,-4e-05,-9e-05,0.00037,0.00059,6
29382,30360,0.0001,2.9999999999999997e-05,2e-05,-9e-05,-4e-05,-9e-05,0.00037,0.00059,6
29383,30361,0.0001,2.9999999999999997e-05,2e-05,-9e-05,-4e-05,-9e-05,0.00037,0.00059,6
29384,30362,0.0001,2.9999999999999997e-05,2e-05,-9e-05,-4e-05,-9e-05,0.00037,0.00059,6
29385,30363,0.0001,2.9999999999999997e-05,2e-05,-9e-05,-4e-05,-9e-05,0.00037,0.00059,6
29386,30364,0.0001,2.9999999999999997e-05,2e-05,-9e-05,-4e-05,-9e-05,0.00037,0.00059,6
29387,30365,0.0001,2.9999999999999997e-05,2e-05,-9e-05,-4e-05,-9e-05,0.00037,0.00059,6
29388,30366,0.0001,2.9999999999999997e-05,2e-05,-9e-05,-4e-05,-9e-05,0.00037,0.00059,6
29389,30367,0.0001,2.9999999999999997e-05,2e-05,-9e-05,-4e-05,-9e-05,0.00037,0.00059,6
29390,30368,0.0001,2.9999999999999997e-05,2e-05,-9e-05,-4e-05,-9e-05,0.00037,0.00059,6
29391,30369,0.0001,2.9999999999999997e-05,2e-05,-9e-05,-4e-05,-9e-05,0.00037,0.00059,6
29392,30370,0.0001,2.9999999999999997e-05,2e-05,-9e-05,-4e-05,-9e-05,0.00037,0.00059,6
29393,30371,0.00011999999999999999,9e-05,5e-05,-0.00014,-0.00047000000000000004,-0.00032,-8e-05,0.00091,6
29394,30372,-0.00025,-0.00011,-7e-05,9e-05,0.0008300000000000001,0.00014,-0.00016,-0.00098,6
29395,30373,-4e-05,2.9999999999999997e-05,-1e-05,-4e-05,-0.00032,0.00011999999999999999,-2.9999999999999997e-05,4e-05,6
29396,30374,-4e-05,2.9999999999999997e-05,-1e-05,-4e-05,-0.00032,0.00011999999999999999,-2.9999999999999997e-05,4e-05,6
29397,30375,-4e-05,2.9999999999999997e-05,-1e-05,-4e-05,-0.00032,0.00011999999999999999,-2.9999999999999997e-05,4e-05,6
29398,30376,-4e-05,2.9999999999999997e-05,-1e-05,-4e-05,-0.00032,0.00011999999999999999,-2.9999999999999997e-05,4e-05,6
29399,30377,-4e-05,2.9999999999999997e-05,-1e-05,-4e-05,-0.00032,0.00011999999999999999,-2.9999999999999997e-05,4e-05,6
29400,30378,-4e-05,2.9999999999999997e-05,-1e-05,-4e-05,-0.00032,0.00011999999999999999,-2.9999999999999997e-05,4e-05,6
29401,30379,-4e-05,2.9999999999999997e-05,-1e-05,-4e-05,-0.00032,0.00011999999999999999,-2.9999999999999997e-05,4e-05,6
29402,30380,-4e-05,2.9999999999999997e-05,-1e-05,-4e-05,-0.00032,0.00011999999999999999,-2.9999999999999997e-05,4e-05,6
29403,30381,-4e-05,2.9999999999999997e-05,-1e-05,-4e-05,-0.00032,0.00011999999999999999,-2.9999999999999997e-05,4e-05,6
29404,30382,-4e-05,2.9999999999999997e-05,-1e-05,-4e-05,-0.00032,0.00011999999999999999,-2.9999999999999997e-05,4e-05,6
29405,30383,-4e-05,2.9999999999999997e-05,-1e-05,-4e-05,-0.00032,0.00011999999999999999,-2.9999999999999997e-05,4e-05,6
29406,30384,-4e-05,2.9999999999999997e-05,-1e-05,-4e-05,-0.00032,0.00011999999999999999,-2.9999999999999997e-05,4e-05,6
29407,30385,-4e-05,2.9999999999999997e-05,-1e-05,-4e-05,-0.00032,0.00011999999999999999,-2.9999999999999997e-05,4e-05,6
29408,30386,-4e-05,2.9999999999999997e-05,-1e-05,-4e-05,-0.00032,0.00011999999999999999,-2.9999999999999997e-05,4e-05,6
29409,30388,-4e-05,2.9999999999999997e-05,-1e-05,-4e-05,-0.00032,0.00011999999999999999,-2.9999999999999997e-05,4e-05,6
29410,30389,-4e-05,2.9999999999999997e-05,-1e-05,-4e-05,-0.00032,0.00011999999999999999,-2.9999999999999997e-05,4e-05,6
29411,30390,-4e-05,2.9999999999999997e-05,-1e-05,-4e-05,-0.00032,0.00011999999999999999,-2.9999999999999997e-05,4e-05,6
29412,30391,-4e-05,2.9999999999999997e-05,-1e-05,-4e-05,-0.00032,0.00011999999999999999,-2.9999999999999997e-05,4e-05,6
29413,30392,-4e-05,2.9999999999999997e-05,-1e-05,-4e-05,-0.00032,0.00011999999999999999,-2.9999999999999997e-05,4e-05,6
29414,30393,0.00018,-2.9999999999999997e-05,-5.9999999999999995e-05,-0.0002,-9e-05,-0.00014,-7e-05,0.00013000000000000002,6
29415,30394,5e-05,5e-05,5e-05,2.9999999999999997e-05,-0.0005,-0.00018,0.00018,-0.00018999999999999998,6
29416,30395,-5.9999999999999995e-05,-0.00013000000000000002,-0.00011999999999999999,0.00011999999999999999,0.00059,-0.00037999999999999997,-0.00032,0.0,6
29417,30396,-5.9999999999999995e-05,-0.00013000000000000002,-0.00011999999999999999,0.00011999999999999999,0.00059,-0.00037999999999999997,-0.00032,0.0,6
29418,30397,-5.9999999999999995e-05,-0.00013000000000000002,-0.00011999999999999999,0.00011999999999999999,0.00059,-0.00037999999999999997,-0.00032,0.0,6
29419,30398,-5.9999999999999995e-05,-0.00013000000000000002,-0.00011999999999999999,0.00011999999999999999,0.00059,-0.00037999999999999997,-0.00032,0.0,6
29420,30399,-5.9999999999999995e-05,-0.00013000000000000002,-0.00011999999999999999,0.00011999999999999999,0.00059,-0.00037999999999999997,-0.00032,0.0,6
29421,30400,-5.9999999999999995e-05,-0.00013000000000000002,-0.00011999999999999999,0.00011999999999999999,0.00059,-0.00037999999999999997,-0.00032,0.0,6
29422,30401,-5.9999999999999995e-05,-0.00013000000000000002,-0.00011999999999999999,0.00011999999999999999,0.00059,-0.00037999999999999997,-0.00032,0.0,6
29423,30402,-5.9999999999999995e-05,-0.00013000000000000002,-0.00011999999999999999,0.00011999999999999999,0.00059,-0.00037999999999999997,-0.00032,0.0,6
29424,30403,-5.9999999999999995e-05,-0.00013000000000000002,-0.00011999999999999999,0.00011999999999999999,0.00059,-0.00037999999999999997,-0.00032,0.0,6
29425,30404,-5.9999999999999995e-05,-0.00013000000000000002,-0.00011999999999999999,0.00011999999999999999,0.00059,-0.00037999999999999997,-0.00032,0.0,6
29426,30405,-5.9999999999999995e-05,-0.00013000000000000002,-0.00011999999999999999,0.00011999999999999999,0.00059,-0.00037999999999999997,-0.00032,0.0,6
29427,30406,-5.9999999999999995e-05,-0.00013000000000000002,-0.00011999999999999999,0.00011999999999999999,0.00059,-0.00037999999999999997,-0.00032,0.0,6
29428,30407,-5.9999999999999995e-05,-0.00013000000000000002,-0.00011999999999999999,0.00011999999999999999,0.00059,-0.00037999999999999997,-0.00032,0.0,6
29429,30408,-5.9999999999999995e-05,-0.00013000000000000002,-0.00011999999999999999,0.00011999999999999999,0.00059,-0.00037999999999999997,-0.00032,0.0,6
29430,30409,-5.9999999999999995e-05,-0.00013000000000000002,-0.00011999999999999999,0.00011999999999999999,0.00059,-0.00037999999999999997,-0.00032,0.0,6
29431,30410,-5.9999999999999995e-05,-0.00013000000000000002,-0.00011999999999999999,0.00011999999999999999,0.00059,-0.00037999999999999997,-0.00032,0.0,6
29432,30411,-5.9999999999999995e-05,-0.00013000000000000002,-0.00011999999999999999,0.00011999999999999999,0.00059,-0.00037999999999999997,-0.00032,0.0,6
29433,30412,-5.9999999999999995e-05,-0.00013000000000000002,-0.00011999999999999999,0.00011999999999999999,0.00059,-0.00037999999999999997,-0.00032,0.0,6
29434,30413,-5.9999999999999995e-05,-0.00013000000000000002,-0.00011999999999999999,0.00011999999999999999,0.00059,-0.00037999999999999997,-0.00032,0.0,6
29435,30414,-5.9999999999999995e-05,-0.00013000000000000002,-0.00011999999999999999,0.00011999999999999999,0.00059,-0.00037999999999999997,-0.00032,0.0,6
29436,30415,-5.9999999999999995e-05,-0.00013000000000000002,-0.00011999999999999999,0.00011999999999999999,0.00059,-0.00037999999999999997,-0.00032,0.0,6
29437,30416,-5.9999999999999995e-05,-0.00013000000000000002,-0.00011999999999999999,0.00011999999999999999,0.00059,-0.00037999999999999997,-0.00032,0.0,6
29438,30417,-5.9999999999999995e-05,-0.00013000000000000002,-0.00011999999999999999,0.00011999999999999999,0.00059,-0.00037999999999999997,-0.00032,0.0,6
29439,30418,-5.9999999999999995e-05,-0.00013000000000000002,-0.00011999999999999999,0.00011999999999999999,0.00059,-0.00037999999999999997,-0.00032,0.0,6
29440,30419,-5.9999999999999995e-05,-0.00013000000000000002,-0.00011999999999999999,0.00011999999999999999,0.00059,-0.00037999999999999997,-0.00032,0.0,6
29441,30420,-5.9999999999999995e-05,-0.00013000000000000002,-0.00011999999999999999,0.00011999999999999999,0.00059,-0.00037999999999999997,-0.00032,0.0,6
29442,30421,-5.9999999999999995e-05,-0.00013000000000000002,-0.00011999999999999999,0.00011999999999999999,0.00059,-0.00037999999999999997,-0.00032,0.0,6
29443,30422,-5.9999999999999995e-05,-0.00013000000000000002,-0.00011999999999999999,0.00011999999999999999,0.00059,-0.00037999999999999997,-0.00032,0.0,6
29444,30423,0.0,8e-05,0.00011,0.00011,0.00045999999999999996,0.00072,0.00018999999999999998,0.00014,6
29445,30424,-0.00016999999999999999,-2.9999999999999997e-05,-2.9999999999999997e-05,-5.9999999999999995e-05,-2e-05,0.00066,-9e-05,-0.00037999999999999997,6
29446,30425,2e-05,-2.9999999999999997e-05,0.0,0.00035,0.00101,1e-05,7e-05,-2e-05,6
29447,30426,2e-05,-2.9999999999999997e-05,0.0,0.00035,0.00101,1e-05,7e-05,-2e-05,6
29448,30427,2e-05,-2.9999999999999997e-05,0.0,0.00035,0.00101,1e-05,7e-05,-2e-05,6
29449,30428,2e-05,-2.9999999999999997e-05,0.0,0.00035,0.00101,1e-05,7e-05,-2e-05,6
29450,30429,2e-05,-2.9999999999999997e-05,0.0,0.00035,0.00101,1e-05,7e-05,-2e-05,6
29451,30430,2e-05,-2.9999999999999997e-05,0.0,0.00035,0.00101,1e-05,7e-05,-2e-05,6
29452,30431,-0.00014,-5e-05,-5.9999999999999995e-05,-0.00022,-0.0005,-0.00039,0.00018999999999999998,0.00029,6
29453,30432,0.00014,8e-05,0.0001,4e-05,7e-05,0.00014,-5e-05,1e-05,6
29454,30433,0.00014,8e-05,0.0001,4e-05,7e-05,0.00014,-5e-05,1e-05,6
29455,30434,0.00014,8e-05,0.0001,4e-05,7e-05,0.00014,-5e-05,1e-05,6
29456,30435,0.00014,8e-05,0.0001,4e-05,7e-05,0.00014,-5e-05,1e-05,6
29457,30436,0.00014,8e-05,0.0001,4e-05,7e-05,0.00014,-5e-05,1e-05,6
29458,30438,0.00014,8e-05,0.0001,4e-05,7e-05,0.00014,-5e-05,1e-05,6
29459,30439,0.00014,8e-05,0.0001,4e-05,7e-05,0.00014,-5e-05,1e-05,6
29460,30440,0.00014,8e-05,0.0001,4e-05,7e-05,0.00014,-5e-05,1e-05,6
29461,30441,0.00014,8e-05,0.0001,4e-05,7e-05,0.00014,-5e-05,1e-05,6
29462,30442,0.00014,8e-05,0.0001,4e-05,7e-05,0.00014,-5e-05,1e-05,6
29463,30443,0.00014,8e-05,0.0001,4e-05,7e-05,0.00014,-5e-05,1e-05,6
29464,30444,0.00014,8e-05,0.0001,4e-05,7e-05,0.00014,-5e-05,1e-05,6
29465,30445,0.00014,8e-05,0.0001,4e-05,7e-05,0.00014,-5e-05,1e-05,6
29466,30446,0.00014,8e-05,0.0001,4e-05,7e-05,0.00014,-5e-05,1e-05,6
29467,30447,0.00014,8e-05,0.0001,4e-05,7e-05,0.00014,-5e-05,1e-05,6
29468,30448,0.00014,8e-05,0.0001,4e-05,7e-05,0.00014,-5e-05,1e-05,6
29469,30449,0.00014,8e-05,0.0001,4e-05,7e-05,0.00014,-5e-05,1e-05,6
29470,30450,0.00014,8e-05,0.0001,4e-05,7e-05,0.00014,-5e-05,1e-05,6
29471,30451,0.00014,8e-05,0.0001,4e-05,7e-05,0.00014,-5e-05,1e-05,6
29472,30452,0.00014,8e-05,0.0001,4e-05,7e-05,0.00014,-5e-05,1e-05,6
29473,30453,2.9999999999999997e-05,-2.9999999999999997e-05,-5e-05,-5e-05,-0.00028,-0.00011,0.0005099999999999999,0.00023999999999999998,6
29474,30454,0.00014,0.0,2e-05,8e-05,-1e-05,-2.9999999999999997e-05,-2e-05,-0.00022,6
29475,30455,0.00014,-2.9999999999999997e-05,-4e-05,-0.00011,-0.00027,-0.00047999999999999996,-2.9999999999999997e-05,0.00065,6
29476,30456,0.00014,-2.9999999999999997e-05,-4e-05,-0.00011,-0.00027,-0.00047999999999999996,-2.9999999999999997e-05,0.00065,6
29477,30457,0.00014,-2.9999999999999997e-05,-4e-05,-0.00011,-0.00027,-0.00047999999999999996,-2.9999999999999997e-05,0.00065,6
29478,30458,0.00014,-2.9999999999999997e-05,-4e-05,-0.00011,-0.00027,-0.00047999999999999996,-2.9999999999999997e-05,0.00065,6
29479,30459,0.00014,-2.9999999999999997e-05,-4e-05,-0.00011,-0.00027,-0.00047999999999999996,-2.9999999999999997e-05,0.00065,6
29480,30460,0.00014,-2.9999999999999997e-05,-4e-05,-0.00011,-0.00027,-0.00047999999999999996,-2.9999999999999997e-05,0.00065,6
29481,30461,0.00014,-2.9999999999999997e-05,-4e-05,-0.00011,-0.00027,-0.00047999999999999996,-2.9999999999999997e-05,0.00065,6
29482,30462,0.00014,-2.9999999999999997e-05,-4e-05,-0.00011,-0.00027,-0.00047999999999999996,-2.9999999999999997e-05,0.00065,6
29483,30463,0.00014,-2.9999999999999997e-05,-4e-05,-0.00011,-0.00027,-0.00047999999999999996,-2.9999999999999997e-05,0.00065,6
29484,30464,0.00014,-2.9999999999999997e-05,-4e-05,-0.00011,-0.00027,-0.00047999999999999996,-2.9999999999999997e-05,0.00065,6
29485,30465,0.00014,-2.9999999999999997e-05,-4e-05,-0.00011,-0.00027,-0.00047999999999999996,-2.9999999999999997e-05,0.00065,6
29486,30466,0.00014,-2.9999999999999997e-05,-4e-05,-0.00011,-0.00027,-0.00047999999999999996,-2.9999999999999997e-05,0.00065,6
29487,30467,0.0,-5e-05,-2.9999999999999997e-05,0.00022,0.00061,0.0001,0.0,-0.00037999999999999997,6
29488,30468,0.0,-5e-05,-2.9999999999999997e-05,0.00022,0.00061,0.0001,0.0,-0.00037999999999999997,6
29489,30469,0.0,-5e-05,-2.9999999999999997e-05,0.00022,0.00061,0.0001,0.0,-0.00037999999999999997,6
29490,30470,0.0,-5e-05,-2.9999999999999997e-05,0.00022,0.00061,0.0001,0.0,-0.00037999999999999997,6
29491,30471,0.0,-5e-05,-2.9999999999999997e-05,0.00022,0.00061,0.0001,0.0,-0.00037999999999999997,6
29492,30472,0.0,-5e-05,-2.9999999999999997e-05,0.00022,0.00061,0.0001,0.0,-0.00037999999999999997,6
29493,30473,0.0,-5e-05,-2.9999999999999997e-05,0.00022,0.00061,0.0001,0.0,-0.00037999999999999997,6
29494,30474,0.0,-5e-05,-2.9999999999999997e-05,0.00022,0.00061,0.0001,0.0,-0.00037999999999999997,6
29495,30475,0.0,-5e-05,-2.9999999999999997e-05,0.00022,0.00061,0.0001,0.0,-0.00037999999999999997,6
29496,30476,-2e-05,0.0,1e-05,0.0003,0.00027,0.00063,-7e-05,0.00042,6
29497,30477,-2e-05,0.0,1e-05,0.0003,0.00027,0.00063,-7e-05,0.00042,6
29498,30478,-2e-05,0.0,1e-05,0.0003,0.00027,0.00063,-7e-05,0.00042,6
29499,30479,-2e-05,0.0,1e-05,0.0003,0.00027,0.00063,-7e-05,0.00042,6
29500,30480,-2e-05,0.0,1e-05,0.0003,0.00027,0.00063,-7e-05,0.00042,6
29501,30481,-2e-05,0.0,1e-05,0.0003,0.00027,0.00063,-7e-05,0.00042,6
29502,30482,-2e-05,0.0,1e-05,0.0003,0.00027,0.00063,-7e-05,0.00042,6
29503,30483,-2e-05,0.0,1e-05,0.0003,0.00027,0.00063,-7e-05,0.00042,6
29504,30484,-2e-05,0.0,1e-05,0.0003,0.00027,0.00063,-7e-05,0.00042,6
29505,30485,-2e-05,0.0,1e-05,0.0003,0.00027,0.00063,-7e-05,0.00042,6
29506,30486,-2e-05,0.0,1e-05,0.0003,0.00027,0.00063,-7e-05,0.00042,6
29507,30488,-2e-05,0.0,1e-05,0.0003,0.00027,0.00063,-7e-05,0.00042,6
29508,30489,-2e-05,0.0,1e-05,0.0003,0.00027,0.00063,-7e-05,0.00042,6
29509,30490,-2e-05,0.0,1e-05,0.0003,0.00027,0.00063,-7e-05,0.00042,6
29510,30491,-2e-05,0.0,1e-05,0.0003,0.00027,0.00063,-7e-05,0.00042,6
29511,30492,-2e-05,0.0,1e-05,0.0003,0.00027,0.00063,-7e-05,0.00042,6
29512,30493,-2e-05,0.0,1e-05,0.0003,0.00027,0.00063,-7e-05,0.00042,6
29513,30494,-2e-05,0.0,1e-05,0.0003,0.00027,0.00063,-7e-05,0.00042,6
29514,30495,-2e-05,0.0,1e-05,0.0003,0.00027,0.00063,-7e-05,0.00042,6
29515,30496,-2e-05,0.0,1e-05,0.0003,0.00027,0.00063,-7e-05,0.00042,6
29516,30497,-2e-05,0.0,1e-05,0.0003,0.00027,0.00063,-7e-05,0.00042,6
29517,30498,0.00018,-2e-05,-7e-05,-0.00023999999999999998,-0.00075,-0.0008699999999999999,-5.9999999999999995e-05,0.00018,6
29518,30499,-0.00018999999999999998,-8e-05,-7e-05,5.9999999999999995e-05,-0.00021,-2.9999999999999997e-05,8e-05,-1e-05,6
29519,30500,-0.00018999999999999998,-8e-05,-7e-05,5.9999999999999995e-05,-0.00021,-2.9999999999999997e-05,8e-05,-1e-05,6
29520,30501,-0.00018999999999999998,-8e-05,-7e-05,5.9999999999999995e-05,-0.00021,-2.9999999999999997e-05,8e-05,-1e-05,6
29521,30502,-0.00018999999999999998,-8e-05,-7e-05,5.9999999999999995e-05,-0.00021,-2.9999999999999997e-05,8e-05,-1e-05,6
29522,30503,-0.00018999999999999998,-8e-05,-7e-05,5.9999999999999995e-05,-0.00021,-2.9999999999999997e-05,8e-05,-1e-05,6
29523,30504,-0.00018999999999999998,-8e-05,-7e-05,5.9999999999999995e-05,-0.00021,-2.9999999999999997e-05,8e-05,-1e-05,6
29524,30505,-0.00018999999999999998,-8e-05,-7e-05,5.9999999999999995e-05,-0.00021,-2.9999999999999997e-05,8e-05,-1e-05,6
29525,30506,-0.00018,5e-05,8e-05,0.00014,0.0005200000000000001,7e-05,0.00018,0.00057,6
29526,30507,-0.00018,5e-05,8e-05,0.00014,0.0005200000000000001,7e-05,0.00018,0.00057,6
29527,30508,-0.00018,5e-05,8e-05,0.00014,0.0005200000000000001,7e-05,0.00018,0.00057,6
29528,30509,-0.00018,5e-05,8e-05,0.00014,0.0005200000000000001,7e-05,0.00018,0.00057,6
29529,30510,-0.00018,5e-05,8e-05,0.00014,0.0005200000000000001,7e-05,0.00018,0.00057,6
29530,30511,-0.00018,5e-05,8e-05,0.00014,0.0005200000000000001,7e-05,0.00018,0.00057,6
29531,30512,-0.00018,5e-05,8e-05,0.00014,0.0005200000000000001,7e-05,0.00018,0.00057,6
29532,30513,9e-05,-0.00011,-0.00013000000000000002,-0.00021,-0.00026000000000000003,-0.00023999999999999998,-0.00016999999999999999,0.00018,6
29533,30514,0.00015,2.9999999999999997e-05,-1e-05,-0.00016999999999999999,-0.00059,-0.00054,2e-05,5e-05,6
29534,30515,0.00015,2.9999999999999997e-05,-1e-05,-0.00016999999999999999,-0.00059,-0.00054,2e-05,5e-05,6
29535,30516,-0.0003,2e-05,1e-05,5e-05,-0.00047000000000000004,0.00043,5.9999999999999995e-05,0.00053,6
29536,30517,-0.0003,2e-05,1e-05,5e-05,-0.00047000000000000004,0.00043,5.9999999999999995e-05,0.00053,6
29537,30518,-0.0003,2e-05,1e-05,5e-05,-0.00047000000000000004,0.00043,5.9999999999999995e-05,0.00053,6
29538,30519,-0.0003,2e-05,1e-05,5e-05,-0.00047000000000000004,0.00043,5.9999999999999995e-05,0.00053,6
29539,30520,-0.0003,2e-05,1e-05,5e-05,-0.00047000000000000004,0.00043,5.9999999999999995e-05,0.00053,6
29540,30521,-0.0003,2e-05,1e-05,5e-05,-0.00047000000000000004,0.00043,5.9999999999999995e-05,0.00053,6
29541,30522,-0.0003,2e-05,1e-05,5e-05,-0.00047000000000000004,0.00043,5.9999999999999995e-05,0.00053,6
29542,30523,-0.0003,2e-05,1e-05,5e-05,-0.00047000000000000004,0.00043,5.9999999999999995e-05,0.00053,6
29543,30524,-0.0003,2e-05,1e-05,5e-05,-0.00047000000000000004,0.00043,5.9999999999999995e-05,0.00053,6
29544,30525,-0.0003,2e-05,1e-05,5e-05,-0.00047000000000000004,0.00043,5.9999999999999995e-05,0.00053,6
29545,30526,-0.0003,2e-05,1e-05,5e-05,-0.00047000000000000004,0.00043,5.9999999999999995e-05,0.00053,6
29546,30527,-0.00025,-7e-05,-2.9999999999999997e-05,1e-05,-0.0002,0.00033,5e-05,-0.0003,6
29547,30528,-0.00025,-7e-05,-2.9999999999999997e-05,1e-05,-0.0002,0.00033,5e-05,-0.0003,6
29548,30529,-0.00025,-7e-05,-2.9999999999999997e-05,1e-05,-0.0002,0.00033,5e-05,-0.0003,6
29549,30530,-0.00025,-7e-05,-2.9999999999999997e-05,1e-05,-0.0002,0.00033,5e-05,-0.0003,6
29550,30531,-0.00025,-7e-05,-2.9999999999999997e-05,1e-05,-0.0002,0.00033,5e-05,-0.0003,6
29551,30532,-0.00025,-7e-05,-2.9999999999999997e-05,1e-05,-0.0002,0.00033,5e-05,-0.0003,6
29552,30533,-0.00025,-7e-05,-2.9999999999999997e-05,1e-05,-0.0002,0.00033,5e-05,-0.0003,6
29553,30534,-0.00025,-7e-05,-2.9999999999999997e-05,1e-05,-0.0002,0.00033,5e-05,-0.0003,6
29554,30535,-0.00025,-7e-05,-2.9999999999999997e-05,1e-05,-0.0002,0.00033,5e-05,-0.0003,6
29555,30536,0.00011,-2e-05,-5.9999999999999995e-05,-0.00023999999999999998,-0.00082,0.00101,0.00014,-0.00022999999999999998,6
29556,30538,0.00011,-2e-05,-5.9999999999999995e-05,-0.00023999999999999998,-0.00082,0.00101,0.00014,-0.00022999999999999998,6
29557,30539,0.00011,-2e-05,-5.9999999999999995e-05,-0.00023999999999999998,-0.00082,0.00101,0.00014,-0.00022999999999999998,6
29558,30540,0.00011,-2e-05,-5.9999999999999995e-05,-0.00023999999999999998,-0.00082,0.00101,0.00014,-0.00022999999999999998,6
29559,30541,0.00011,-2e-05,-5.9999999999999995e-05,-0.00023999999999999998,-0.00082,0.00101,0.00014,-0.00022999999999999998,6
29560,30542,0.00011,-2e-05,-5.9999999999999995e-05,-0.00023999999999999998,-0.00082,0.00101,0.00014,-0.00022999999999999998,6
29561,30543,0.00011,-2e-05,-5.9999999999999995e-05,-0.00023999999999999998,-0.00082,0.00101,0.00014,-0.00022999999999999998,6
29562,30544,0.00011,-2e-05,-5.9999999999999995e-05,-0.00023999999999999998,-0.00082,0.00101,0.00014,-0.00022999999999999998,6
29563,30545,0.00011,-2e-05,-5.9999999999999995e-05,-0.00023999999999999998,-0.00082,0.00101,0.00014,-0.00022999999999999998,6
29564,30546,0.00011,-2e-05,-5.9999999999999995e-05,-0.00023999999999999998,-0.00082,0.00101,0.00014,-0.00022999999999999998,6
29565,30547,0.00011,-2e-05,-5.9999999999999995e-05,-0.00023999999999999998,-0.00082,0.00101,0.00014,-0.00022999999999999998,6
29566,30548,0.00011,-2e-05,-5.9999999999999995e-05,-0.00023999999999999998,-0.00082,0.00101,0.00014,-0.00022999999999999998,6
29567,30549,0.00011,-2e-05,-5.9999999999999995e-05,-0.00023999999999999998,-0.00082,0.00101,0.00014,-0.00022999999999999998,6
29568,30550,0.00011,-2e-05,-5.9999999999999995e-05,-0.00023999999999999998,-0.00082,0.00101,0.00014,-0.00022999999999999998,6
29569,30551,0.00022,0.0,-5e-05,-9e-05,0.00015,-2e-05,-0.00015,-0.00014,6
29570,30552,0.00022,0.0,-5e-05,-9e-05,0.00015,-2e-05,-0.00015,-0.00014,6
29571,30553,-0.00031,-5e-05,2.9999999999999997e-05,0.00011999999999999999,0.00047999999999999996,0.00045999999999999996,-9e-05,-0.0006900000000000001,6
29572,30555,-0.00031,-5e-05,2.9999999999999997e-05,0.00011999999999999999,0.00047999999999999996,0.00045999999999999996,-9e-05,-0.0006900000000000001,6
29573,30556,-0.00031,-5e-05,2.9999999999999997e-05,0.00011999999999999999,0.00047999999999999996,0.00045999999999999996,-9e-05,-0.0006900000000000001,6
29574,30557,-0.00031,-5e-05,2.9999999999999997e-05,0.00011999999999999999,0.00047999999999999996,0.00045999999999999996,-9e-05,-0.0006900000000000001,6
29575,30558,-0.00031,-5e-05,2.9999999999999997e-05,0.00011999999999999999,0.00047999999999999996,0.00045999999999999996,-9e-05,-0.0006900000000000001,6
29576,30559,-0.00031,-5e-05,2.9999999999999997e-05,0.00011999999999999999,0.00047999999999999996,0.00045999999999999996,-9e-05,-0.0006900000000000001,6
29577,30560,-0.00031,-5e-05,2.9999999999999997e-05,0.00011999999999999999,0.00047999999999999996,0.00045999999999999996,-9e-05,-0.0006900000000000001,6
29578,30561,-0.00031,-5e-05,2.9999999999999997e-05,0.00011999999999999999,0.00047999999999999996,0.00045999999999999996,-9e-05,-0.0006900000000000001,6
29579,30562,-0.00031,-5e-05,2.9999999999999997e-05,0.00011999999999999999,0.00047999999999999996,0.00045999999999999996,-9e-05,-0.0006900000000000001,6
29580,30563,-0.00031,-5e-05,2.9999999999999997e-05,0.00011999999999999999,0.00047999999999999996,0.00045999999999999996,-9e-05,-0.0006900000000000001,6
29581,30564,-0.00031,-5e-05,2.9999999999999997e-05,0.00011999999999999999,0.00047999999999999996,0.00045999999999999996,-9e-05,-0.0006900000000000001,6
29582,30565,-0.00031,-5e-05,2.9999999999999997e-05,0.00011999999999999999,0.00047999999999999996,0.00045999999999999996,-9e-05,-0.0006900000000000001,6
29583,30566,-0.00031,-5e-05,2.9999999999999997e-05,0.00011999999999999999,0.00047999999999999996,0.00045999999999999996,-9e-05,-0.0006900000000000001,6
29584,30567,-0.00031,-5e-05,2.9999999999999997e-05,0.00011999999999999999,0.00047999999999999996,0.00045999999999999996,-9e-05,-0.0006900000000000001,6
29585,30568,-0.00031,-5e-05,2.9999999999999997e-05,0.00011999999999999999,0.00047999999999999996,0.00045999999999999996,-9e-05,-0.0006900000000000001,6
29586,30569,-0.00031,-5e-05,2.9999999999999997e-05,0.00011999999999999999,0.00047999999999999996,0.00045999999999999996,-9e-05,-0.0006900000000000001,6
29587,30570,-0.00031,-5e-05,2.9999999999999997e-05,0.00011999999999999999,0.00047999999999999996,0.00045999999999999996,-9e-05,-0.0006900000000000001,6
29588,30571,-0.00031,-5e-05,2.9999999999999997e-05,0.00011999999999999999,0.00047999999999999996,0.00045999999999999996,-9e-05,-0.0006900000000000001,6
29589,30572,-0.00031,-5e-05,2.9999999999999997e-05,0.00011999999999999999,0.00047999999999999996,0.00045999999999999996,-9e-05,-0.0006900000000000001,6
29590,30573,-0.00031,-5e-05,2.9999999999999997e-05,0.00011999999999999999,0.00047999999999999996,0.00045999999999999996,-9e-05,-0.0006900000000000001,6
29591,30574,-0.00031,-5e-05,2.9999999999999997e-05,0.00011999999999999999,0.00047999999999999996,0.00045999999999999996,-9e-05,-0.0006900000000000001,6
29592,30575,-0.00031,-5e-05,2.9999999999999997e-05,0.00011999999999999999,0.00047999999999999996,0.00045999999999999996,-9e-05,-0.0006900000000000001,6
29593,30576,-0.00031,-5e-05,2.9999999999999997e-05,0.00011999999999999999,0.00047999999999999996,0.00045999999999999996,-9e-05,-0.0006900000000000001,6
29594,30577,-0.00031,-5e-05,2.9999999999999997e-05,0.00011999999999999999,0.00047999999999999996,0.00045999999999999996,-9e-05,-0.0006900000000000001,6
29595,30578,-0.00031,-5e-05,2.9999999999999997e-05,0.00011999999999999999,0.00047999999999999996,0.00045999999999999996,-9e-05,-0.0006900000000000001,6
29596,30579,-0.00031,-5e-05,2.9999999999999997e-05,0.00011999999999999999,0.00047999999999999996,0.00045999999999999996,-9e-05,-0.0006900000000000001,6
29597,30580,-0.00031,-5e-05,2.9999999999999997e-05,0.00011999999999999999,0.00047999999999999996,0.00045999999999999996,-9e-05,-0.0006900000000000001,6
29598,30581,-0.00031,-5e-05,2.9999999999999997e-05,0.00011999999999999999,0.00047999999999999996,0.00045999999999999996,-9e-05,-0.0006900000000000001,6
29599,30582,-5e-05,-2e-05,-7e-05,-0.00022999999999999998,-0.00033,-0.0007599999999999999,-0.00021,0.00022,6
29600,30583,1e-05,7e-05,4e-05,0.00041,0.0006799999999999999,0.00044,-0.00018,-0.0003,6
29601,30584,1e-05,7e-05,4e-05,0.00041,0.0006799999999999999,0.00044,-0.00018,-0.0003,6
29602,30585,1e-05,7e-05,4e-05,0.00041,0.0006799999999999999,0.00044,-0.00018,-0.0003,6
29603,30586,1e-05,7e-05,4e-05,0.00041,0.0006799999999999999,0.00044,-0.00018,-0.0003,6
29604,30588,0.00011999999999999999,2e-05,2.9999999999999997e-05,-0.00032,-0.0007,-0.00066,-1e-05,-0.00032,6
29605,30589,0.00011999999999999999,2e-05,2.9999999999999997e-05,-0.00032,-0.0007,-0.00066,-1e-05,-0.00032,6
29606,30590,0.00011999999999999999,2e-05,2.9999999999999997e-05,-0.00032,-0.0007,-0.00066,-1e-05,-0.00032,6
29607,30591,0.00011999999999999999,2e-05,2.9999999999999997e-05,-0.00032,-0.0007,-0.00066,-1e-05,-0.00032,6
29608,30592,0.00011999999999999999,2e-05,2.9999999999999997e-05,-0.00032,-0.0007,-0.00066,-1e-05,-0.00032,6
29609,30593,0.00011999999999999999,2e-05,2.9999999999999997e-05,-0.00032,-0.0007,-0.00066,-1e-05,-0.00032,6
29610,30594,0.00011999999999999999,2e-05,2.9999999999999997e-05,-0.00032,-0.0007,-0.00066,-1e-05,-0.00032,6
29611,30595,0.00011999999999999999,2e-05,2.9999999999999997e-05,-0.00032,-0.0007,-0.00066,-1e-05,-0.00032,6
29612,30596,0.0002,-5e-05,-7e-05,-0.00037999999999999997,-0.00032,-0.00078,-5.9999999999999995e-05,-0.00029,6
29613,30597,0.0002,-5e-05,-7e-05,-0.00037999999999999997,-0.00032,-0.00078,-5.9999999999999995e-05,-0.00029,6
29614,30598,0.0002,-5e-05,-7e-05,-0.00037999999999999997,-0.00032,-0.00078,-5.9999999999999995e-05,-0.00029,6
29615,30599,0.0002,-5e-05,-7e-05,-0.00037999999999999997,-0.00032,-0.00078,-5.9999999999999995e-05,-0.00029,6
29616,30600,0.0002,-5e-05,-7e-05,-0.00037999999999999997,-0.00032,-0.00078,-5.9999999999999995e-05,-0.00029,6
29617,30601,0.0002,-5e-05,-7e-05,-0.00037999999999999997,-0.00032,-0.00078,-5.9999999999999995e-05,-0.00029,6
29618,30602,0.0002,-5e-05,-7e-05,-0.00037999999999999997,-0.00032,-0.00078,-5.9999999999999995e-05,-0.00029,6
29619,30603,0.0002,-5e-05,-7e-05,-0.00037999999999999997,-0.00032,-0.00078,-5.9999999999999995e-05,-0.00029,6
29620,30604,0.0002,-5e-05,-7e-05,-0.00037999999999999997,-0.00032,-0.00078,-5.9999999999999995e-05,-0.00029,6
29621,30605,0.0002,-5e-05,-7e-05,-0.00037999999999999997,-0.00032,-0.00078,-5.9999999999999995e-05,-0.00029,6
29622,30606,0.0002,-5e-05,-7e-05,-0.00037999999999999997,-0.00032,-0.00078,-5.9999999999999995e-05,-0.00029,6
29623,30607,0.0002,-5e-05,-7e-05,-0.00037999999999999997,-0.00032,-0.00078,-5.9999999999999995e-05,-0.00029,6
29624,30608,0.0002,-5e-05,-7e-05,-0.00037999999999999997,-0.00032,-0.00078,-5.9999999999999995e-05,-0.00029,6
29625,30609,0.0002,-5e-05,-7e-05,-0.00037999999999999997,-0.00032,-0.00078,-5.9999999999999995e-05,-0.00029,6
29626,30610,0.0002,-5e-05,-7e-05,-0.00037999999999999997,-0.00032,-0.00078,-5.9999999999999995e-05,-0.00029,6
29627,30611,0.00016999999999999999,8e-05,0.00011999999999999999,0.00037999999999999997,0.0008900000000000001,0.00079,-4e-05,0.00036,6
29628,30612,0.00016999999999999999,8e-05,0.00011999999999999999,0.00037999999999999997,0.0008900000000000001,0.00079,-4e-05,0.00036,6
29629,30613,0.00016999999999999999,-2.9999999999999997e-05,-4e-05,-0.0002,-0.00032,0.00039,0.00023999999999999998,-0.00042,6
29630,30614,0.00016999999999999999,-2.9999999999999997e-05,-4e-05,-0.0002,-0.00032,0.00039,0.00023999999999999998,-0.00042,6
29631,30615,0.00016999999999999999,-2.9999999999999997e-05,-4e-05,-0.0002,-0.00032,0.00039,0.00023999999999999998,-0.00042,6
29632,30616,0.00016999999999999999,-2.9999999999999997e-05,-4e-05,-0.0002,-0.00032,0.00039,0.00023999999999999998,-0.00042,6
29633,30617,0.00016999999999999999,-2.9999999999999997e-05,-4e-05,-0.0002,-0.00032,0.00039,0.00023999999999999998,-0.00042,6
29634,30618,0.00016999999999999999,-2.9999999999999997e-05,-4e-05,-0.0002,-0.00032,0.00039,0.00023999999999999998,-0.00042,6
29635,30619,0.00016999999999999999,-2.9999999999999997e-05,-4e-05,-0.0002,-0.00032,0.00039,0.00023999999999999998,-0.00042,6
29636,30620,0.00016999999999999999,-2.9999999999999997e-05,-4e-05,-0.0002,-0.00032,0.00039,0.00023999999999999998,-0.00042,6
29637,30621,0.00016999999999999999,-2.9999999999999997e-05,-4e-05,-0.0002,-0.00032,0.00039,0.00023999999999999998,-0.00042,6
29638,30622,0.00016999999999999999,-2.9999999999999997e-05,-4e-05,-0.0002,-0.00032,0.00039,0.00023999999999999998,-0.00042,6
29639,30623,0.00016999999999999999,-2.9999999999999997e-05,-4e-05,-0.0002,-0.00032,0.00039,0.00023999999999999998,-0.00042,6
29640,30624,0.00016999999999999999,-2.9999999999999997e-05,-4e-05,-0.0002,-0.00032,0.00039,0.00023999999999999998,-0.00042,6
29641,30625,0.00016999999999999999,-2.9999999999999997e-05,-4e-05,-0.0002,-0.00032,0.00039,0.00023999999999999998,-0.00042,6
29642,30626,0.00016999999999999999,-2.9999999999999997e-05,-4e-05,-0.0002,-0.00032,0.00039,0.00023999999999999998,-0.00042,6
29643,30627,0.00016999999999999999,-2.9999999999999997e-05,-4e-05,-0.0002,-0.00032,0.00039,0.00023999999999999998,-0.00042,6
29644,30628,0.00016999999999999999,-2.9999999999999997e-05,-4e-05,-0.0002,-0.00032,0.00039,0.00023999999999999998,-0.00042,6
29645,30629,0.00016999999999999999,-2.9999999999999997e-05,-4e-05,-0.0002,-0.00032,0.00039,0.00023999999999999998,-0.00042,6
29646,30630,0.00016999999999999999,-2.9999999999999997e-05,-4e-05,-0.0002,-0.00032,0.00039,0.00023999999999999998,-0.00042,6
29647,30631,0.00016999999999999999,-2.9999999999999997e-05,-4e-05,-0.0002,-0.00032,0.00039,0.00023999999999999998,-0.00042,6
29648,30632,0.00016999999999999999,-2.9999999999999997e-05,-4e-05,-0.0002,-0.00032,0.00039,0.00023999999999999998,-0.00042,6
29649,30633,0.00016999999999999999,-2.9999999999999997e-05,-4e-05,-0.0002,-0.00032,0.00039,0.00023999999999999998,-0.00042,6
29650,30634,0.00016999999999999999,-2.9999999999999997e-05,-4e-05,-0.0002,-0.00032,0.00039,0.00023999999999999998,-0.00042,6
29651,30635,0.00016999999999999999,-2.9999999999999997e-05,-4e-05,-0.0002,-0.00032,0.00039,0.00023999999999999998,-0.00042,6
29652,30636,0.00016999999999999999,-2.9999999999999997e-05,-4e-05,-0.0002,-0.00032,0.00039,0.00023999999999999998,-0.00042,6
29653,30638,0.00016999999999999999,-2.9999999999999997e-05,-4e-05,-0.0002,-0.00032,0.00039,0.00023999999999999998,-0.00042,6
29654,30639,0.00016999999999999999,-2.9999999999999997e-05,-4e-05,-0.0002,-0.00032,0.00039,0.00023999999999999998,-0.00042,6
29655,30640,0.00016999999999999999,-2.9999999999999997e-05,-4e-05,-0.0002,-0.00032,0.00039,0.00023999999999999998,-0.00042,6
29656,30641,-0.00016,1e-05,0.0,-5e-05,-0.0009599999999999999,-0.0008,4e-05,-0.00056,6
29657,30642,-0.00016999999999999999,-2e-05,0.0,2e-05,0.00041,-0.00115,-0.00022999999999999998,-0.0002,6
29658,30643,-0.00016999999999999999,-2e-05,0.0,2e-05,0.00041,-0.00115,-0.00022999999999999998,-0.0002,6
29659,30644,-0.00016999999999999999,-2e-05,0.0,2e-05,0.00041,-0.00115,-0.00022999999999999998,-0.0002,6
29660,30645,-0.00016999999999999999,-2e-05,0.0,2e-05,0.00041,-0.00115,-0.00022999999999999998,-0.0002,6
29661,30646,-0.00016999999999999999,-2e-05,0.0,2e-05,0.00041,-0.00115,-0.00022999999999999998,-0.0002,6
29662,30647,-0.0002,-7e-05,-0.00014,-0.00022999999999999998,-0.00042,-0.00018,0.00044,0.00027,6
29663,30648,-0.0002,-7e-05,-0.00014,-0.00022999999999999998,-0.00042,-0.00018,0.00044,0.00027,6
29664,30649,-0.0002,-7e-05,-0.00014,-0.00022999999999999998,-0.00042,-0.00018,0.00044,0.00027,6
29665,30650,-0.0002,-7e-05,-0.00014,-0.00022999999999999998,-0.00042,-0.00018,0.00044,0.00027,6
29666,30651,-0.0002,-7e-05,-0.00014,-0.00022999999999999998,-0.00042,-0.00018,0.00044,0.00027,6
29667,30652,-0.0002,-7e-05,-0.00014,-0.00022999999999999998,-0.00042,-0.00018,0.00044,0.00027,6
29668,30653,-0.0002,-7e-05,-0.00014,-0.00022999999999999998,-0.00042,-0.00018,0.00044,0.00027,6
29669,30654,-0.0002,-7e-05,-0.00014,-0.00022999999999999998,-0.00042,-0.00018,0.00044,0.00027,6
29670,30655,-0.0002,-7e-05,-0.00014,-0.00022999999999999998,-0.00042,-0.00018,0.00044,0.00027,6
29671,30656,-0.0002,-7e-05,-0.00014,-0.00022999999999999998,-0.00042,-0.00018,0.00044,0.00027,6
29672,30657,5.9999999999999995e-05,-1e-05,-4e-05,-0.00021,-0.00128,0.00078,4e-05,0.00039,6
29673,30658,5.9999999999999995e-05,-1e-05,-4e-05,-0.00021,-0.00128,0.00078,4e-05,0.00039,6
29674,30659,5.9999999999999995e-05,-1e-05,-4e-05,-0.00021,-0.00128,0.00078,4e-05,0.00039,6
29675,30660,5.9999999999999995e-05,-1e-05,-4e-05,-0.00021,-0.00128,0.00078,4e-05,0.00039,6
29676,30661,5.9999999999999995e-05,-1e-05,-4e-05,-0.00021,-0.00128,0.00078,4e-05,0.00039,6
29677,30662,5.9999999999999995e-05,-1e-05,-4e-05,-0.00021,-0.00128,0.00078,4e-05,0.00039,6
29678,30663,5.9999999999999995e-05,-1e-05,-4e-05,-0.00021,-0.00128,0.00078,4e-05,0.00039,6
29679,30664,5.9999999999999995e-05,-1e-05,-4e-05,-0.00021,-0.00128,0.00078,4e-05,0.00039,6
29680,30665,5.9999999999999995e-05,-1e-05,-4e-05,-0.00021,-0.00128,0.00078,4e-05,0.00039,6
29681,30666,5.9999999999999995e-05,-1e-05,-4e-05,-0.00021,-0.00128,0.00078,4e-05,0.00039,6
29682,30667,5.9999999999999995e-05,-1e-05,-4e-05,-0.00021,-0.00128,0.00078,4e-05,0.00039,6
29683,30668,5.9999999999999995e-05,-1e-05,-4e-05,-0.00021,-0.00128,0.00078,4e-05,0.00039,6
29684,30669,5.9999999999999995e-05,-1e-05,-4e-05,-0.00021,-0.00128,0.00078,4e-05,0.00039,6
29685,30670,5.9999999999999995e-05,-1e-05,-4e-05,-0.00021,-0.00128,0.00078,4e-05,0.00039,6
29686,30671,-5.9999999999999995e-05,1e-05,4e-05,0.00018,0.00075,0.00035,7e-05,9e-05,6
29687,30672,-0.00011,-5.9999999999999995e-05,-2.9999999999999997e-05,4e-05,0.00018,0.0001,0.0003,-0.00067,6
29688,30673,-0.00011,-5.9999999999999995e-05,-2.9999999999999997e-05,4e-05,0.00018,0.0001,0.0003,-0.00067,6
29689,30674,-0.00011,-5.9999999999999995e-05,-2.9999999999999997e-05,4e-05,0.00018,0.0001,0.0003,-0.00067,6
29690,30675,-0.00011,-5.9999999999999995e-05,-2.9999999999999997e-05,4e-05,0.00018,0.0001,0.0003,-0.00067,6
29691,30676,-0.00011,-5.9999999999999995e-05,-2.9999999999999997e-05,4e-05,0.00018,0.0001,0.0003,-0.00067,6
29692,30677,-0.00011,-5.9999999999999995e-05,-2.9999999999999997e-05,4e-05,0.00018,0.0001,0.0003,-0.00067,6
29693,30678,-0.00011,-5.9999999999999995e-05,-2.9999999999999997e-05,4e-05,0.00018,0.0001,0.0003,-0.00067,6
29694,30679,-0.00011,-5.9999999999999995e-05,-2.9999999999999997e-05,4e-05,0.00018,0.0001,0.0003,-0.00067,6
29695,30680,-0.00011,-5.9999999999999995e-05,-2.9999999999999997e-05,4e-05,0.00018,0.0001,0.0003,-0.00067,6
29696,30681,-0.00011,-5.9999999999999995e-05,-2.9999999999999997e-05,4e-05,0.00018,0.0001,0.0003,-0.00067,6
29697,30682,-0.00011,-5.9999999999999995e-05,-2.9999999999999997e-05,4e-05,0.00018,0.0001,0.0003,-0.00067,6
29698,30683,-0.00011,-5.9999999999999995e-05,-2.9999999999999997e-05,4e-05,0.00018,0.0001,0.0003,-0.00067,6
29699,30684,-0.00011,-5.9999999999999995e-05,-2.9999999999999997e-05,4e-05,0.00018,0.0001,0.0003,-0.00067,6
29700,30685,-0.00011,-5.9999999999999995e-05,-2.9999999999999997e-05,4e-05,0.00018,0.0001,0.0003,-0.00067,6
29701,30686,-0.00011,-5.9999999999999995e-05,-2.9999999999999997e-05,4e-05,0.00018,0.0001,0.0003,-0.00067,6
29702,30688,-0.00011,-5.9999999999999995e-05,-2.9999999999999997e-05,4e-05,0.00018,0.0001,0.0003,-0.00067,6
29703,30689,-0.00011,-5.9999999999999995e-05,-2.9999999999999997e-05,4e-05,0.00018,0.0001,0.0003,-0.00067,6
29704,30690,-0.00011,-5.9999999999999995e-05,-2.9999999999999997e-05,4e-05,0.00018,0.0001,0.0003,-0.00067,6
29705,30691,-0.00011,-5.9999999999999995e-05,-2.9999999999999997e-05,4e-05,0.00018,0.0001,0.0003,-0.00067,6
29706,30692,-0.00011,-5.9999999999999995e-05,-2.9999999999999997e-05,4e-05,0.00018,0.0001,0.0003,-0.00067,6
29707,30693,-0.00021,-1e-05,-2.9999999999999997e-05,-0.00033,0.00047000000000000004,0.00099,-0.00013000000000000002,0.00021,6
29708,30694,-0.00021,-1e-05,-2.9999999999999997e-05,-0.00033,0.00047000000000000004,0.00099,-0.00013000000000000002,0.00021,6
29709,30695,9e-05,-2e-05,-2.9999999999999997e-05,-0.00022,-0.00013000000000000002,-2.9999999999999997e-05,-5.9999999999999995e-05,-9e-05,6
29710,30696,9e-05,-2e-05,-2.9999999999999997e-05,-0.00022,-0.00013000000000000002,-2.9999999999999997e-05,-5.9999999999999995e-05,-9e-05,6
29711,30697,9e-05,-2e-05,-2.9999999999999997e-05,-0.00022,-0.00013000000000000002,-2.9999999999999997e-05,-5.9999999999999995e-05,-9e-05,6
29712,30698,9e-05,-2e-05,-2.9999999999999997e-05,-0.00022,-0.00013000000000000002,-2.9999999999999997e-05,-5.9999999999999995e-05,-9e-05,6
29713,30699,9e-05,-2e-05,-2.9999999999999997e-05,-0.00022,-0.00013000000000000002,-2.9999999999999997e-05,-5.9999999999999995e-05,-9e-05,6
29714,30700,9e-05,-2e-05,-2.9999999999999997e-05,-0.00022,-0.00013000000000000002,-2.9999999999999997e-05,-5.9999999999999995e-05,-9e-05,6
29715,30701,9e-05,-2e-05,-2.9999999999999997e-05,-0.00022,-0.00013000000000000002,-2.9999999999999997e-05,-5.9999999999999995e-05,-9e-05,6
29716,30702,9e-05,-2e-05,-2.9999999999999997e-05,-0.00022,-0.00013000000000000002,-2.9999999999999997e-05,-5.9999999999999995e-05,-9e-05,6
29717,30703,9e-05,-2e-05,-2.9999999999999997e-05,-0.00022,-0.00013000000000000002,-2.9999999999999997e-05,-5.9999999999999995e-05,-9e-05,6
29718,30704,9e-05,-2e-05,-2.9999999999999997e-05,-0.00022,-0.00013000000000000002,-2.9999999999999997e-05,-5.9999999999999995e-05,-9e-05,6
29719,30705,9e-05,-2e-05,-2.9999999999999997e-05,-0.00022,-0.00013000000000000002,-2.9999999999999997e-05,-5.9999999999999995e-05,-9e-05,6
29720,30706,9e-05,-2e-05,-2.9999999999999997e-05,-0.00022,-0.00013000000000000002,-2.9999999999999997e-05,-5.9999999999999995e-05,-9e-05,6
29721,30707,9e-05,-2e-05,-2.9999999999999997e-05,-0.00022,-0.00013000000000000002,-2.9999999999999997e-05,-5.9999999999999995e-05,-9e-05,6
29722,30708,9e-05,-2e-05,-2.9999999999999997e-05,-0.00022,-0.00013000000000000002,-2.9999999999999997e-05,-5.9999999999999995e-05,-9e-05,6
29723,30709,9e-05,-2e-05,-2.9999999999999997e-05,-0.00022,-0.00013000000000000002,-2.9999999999999997e-05,-5.9999999999999995e-05,-9e-05,6
29724,30710,9e-05,-2e-05,-2.9999999999999997e-05,-0.00022,-0.00013000000000000002,-2.9999999999999997e-05,-5.9999999999999995e-05,-9e-05,6
29725,30711,9e-05,-2e-05,-2.9999999999999997e-05,-0.00022,-0.00013000000000000002,-2.9999999999999997e-05,-5.9999999999999995e-05,-9e-05,6
29726,30712,9e-05,-2e-05,-2.9999999999999997e-05,-0.00022,-0.00013000000000000002,-2.9999999999999997e-05,-5.9999999999999995e-05,-9e-05,6
29727,30713,9e-05,-2e-05,-2.9999999999999997e-05,-0.00022,-0.00013000000000000002,-2.9999999999999997e-05,-5.9999999999999995e-05,-9e-05,6
29728,30714,9e-05,-2e-05,-2.9999999999999997e-05,-0.00022,-0.00013000000000000002,-2.9999999999999997e-05,-5.9999999999999995e-05,-9e-05,6
29729,30715,9e-05,-2e-05,-2.9999999999999997e-05,-0.00022,-0.00013000000000000002,-2.9999999999999997e-05,-5.9999999999999995e-05,-9e-05,6
29730,30716,9e-05,-2e-05,-2.9999999999999997e-05,-0.00022,-0.00013000000000000002,-2.9999999999999997e-05,-5.9999999999999995e-05,-9e-05,6
29731,30717,9e-05,-2e-05,-2.9999999999999997e-05,-0.00022,-0.00013000000000000002,-2.9999999999999997e-05,-5.9999999999999995e-05,-9e-05,6
29732,30718,9e-05,-2e-05,-2.9999999999999997e-05,-0.00022,-0.00013000000000000002,-2.9999999999999997e-05,-5.9999999999999995e-05,-9e-05,6
29733,30719,9e-05,-2e-05,-2.9999999999999997e-05,-0.00022,-0.00013000000000000002,-2.9999999999999997e-05,-5.9999999999999995e-05,-9e-05,6
29734,30720,9e-05,-2e-05,-2.9999999999999997e-05,-0.00022,-0.00013000000000000002,-2.9999999999999997e-05,-5.9999999999999995e-05,-9e-05,6
29735,30721,9e-05,-2e-05,-2.9999999999999997e-05,-0.00022,-0.00013000000000000002,-2.9999999999999997e-05,-5.9999999999999995e-05,-9e-05,6
29736,30722,9e-05,-2e-05,-2.9999999999999997e-05,-0.00022,-0.00013000000000000002,-2.9999999999999997e-05,-5.9999999999999995e-05,-9e-05,6
29737,30723,0.00018999999999999998,5.9999999999999995e-05,0.0001,0.00049,-0.00037999999999999997,-0.00029,-0.00013000000000000002,0.00014,6
29738,30724,0.00018999999999999998,5.9999999999999995e-05,0.0001,0.00049,-0.00037999999999999997,-0.00029,-0.00013000000000000002,0.00014,6
29739,30725,-4e-05,7e-05,4e-05,8e-05,0.00049,-0.00084,-2.9999999999999997e-05,0.00029,6
29740,30726,-4e-05,7e-05,4e-05,8e-05,0.00049,-0.00084,-2.9999999999999997e-05,0.00029,6
29741,30727,-4e-05,7e-05,4e-05,8e-05,0.00049,-0.00084,-2.9999999999999997e-05,0.00029,6
29742,30728,-4e-05,7e-05,4e-05,8e-05,0.00049,-0.00084,-2.9999999999999997e-05,0.00029,6
29743,30729,-4e-05,7e-05,4e-05,8e-05,0.00049,-0.00084,-2.9999999999999997e-05,0.00029,6
29744,30730,-4e-05,7e-05,4e-05,8e-05,0.00049,-0.00084,-2.9999999999999997e-05,0.00029,6
29745,30731,-5e-05,-2.9999999999999997e-05,-5.9999999999999995e-05,-0.00014,0.00058,-0.0002,-2e-05,0.00021,6
29746,30732,-5e-05,-2.9999999999999997e-05,-5.9999999999999995e-05,-0.00014,0.00058,-0.0002,-2e-05,0.00021,6
29747,30733,0.00013000000000000002,2e-05,-1e-05,-4e-05,1e-05,0.00044,0.00021,0.0008699999999999999,6
29748,30734,0.00013000000000000002,2e-05,-1e-05,-4e-05,1e-05,0.00044,0.00021,0.0008699999999999999,6
29749,30735,0.00013000000000000002,2e-05,-1e-05,-4e-05,1e-05,0.00044,0.00021,0.0008699999999999999,6
29750,30736,0.00013000000000000002,2e-05,-1e-05,-4e-05,1e-05,0.00044,0.00021,0.0008699999999999999,6
29751,30738,0.00013000000000000002,2e-05,-1e-05,-4e-05,1e-05,0.00044,0.00021,0.0008699999999999999,6
29752,30739,0.00013000000000000002,2e-05,-1e-05,-4e-05,1e-05,0.00044,0.00021,0.0008699999999999999,6
29753,30740,0.00013000000000000002,2e-05,-1e-05,-4e-05,1e-05,0.00044,0.00021,0.0008699999999999999,6
29754,30741,0.00013000000000000002,2e-05,-1e-05,-4e-05,1e-05,0.00044,0.00021,0.0008699999999999999,6
29755,30742,0.00013000000000000002,2e-05,-1e-05,-4e-05,1e-05,0.00044,0.00021,0.0008699999999999999,6
29756,30743,0.00013000000000000002,2e-05,-1e-05,-4e-05,1e-05,0.00044,0.00021,0.0008699999999999999,6
29757,30744,0.00013000000000000002,2e-05,-1e-05,-4e-05,1e-05,0.00044,0.00021,0.0008699999999999999,6
29758,30745,0.00013000000000000002,2e-05,-1e-05,-4e-05,1e-05,0.00044,0.00021,0.0008699999999999999,6
29759,30746,0.00013000000000000002,2e-05,-1e-05,-4e-05,1e-05,0.00044,0.00021,0.0008699999999999999,6
29760,30747,0.00013000000000000002,2e-05,-1e-05,-4e-05,1e-05,0.00044,0.00021,0.0008699999999999999,6
29761,30748,0.00013000000000000002,2e-05,-1e-05,-4e-05,1e-05,0.00044,0.00021,0.0008699999999999999,6
29762,30749,0.00013000000000000002,2e-05,-1e-05,-4e-05,1e-05,0.00044,0.00021,0.0008699999999999999,6
29763,30750,0.00013000000000000002,2e-05,-1e-05,-4e-05,1e-05,0.00044,0.00021,0.0008699999999999999,6
29764,30751,0.00013000000000000002,2e-05,-1e-05,-4e-05,1e-05,0.00044,0.00021,0.0008699999999999999,6
29765,30752,0.00013000000000000002,2e-05,-1e-05,-4e-05,1e-05,0.00044,0.00021,0.0008699999999999999,6
29766,30753,-0.00018,1e-05,2.9999999999999997e-05,0.00022,0.00037999999999999997,0.00055,0.00015,-0.00026000000000000003,6
29767,30754,-0.00018,1e-05,2.9999999999999997e-05,0.00022,0.00037999999999999997,0.00055,0.00015,-0.00026000000000000003,6
29768,30755,-2e-05,-8e-05,-0.0001,-0.00032,-0.00035,-0.00081,-0.0002,0.00049,6
29769,30756,-2e-05,-8e-05,-0.0001,-0.00032,-0.00035,-0.00081,-0.0002,0.00049,6
29770,30757,-2e-05,-8e-05,-0.0001,-0.00032,-0.00035,-0.00081,-0.0002,0.00049,6
29771,30758,-2e-05,-8e-05,-0.0001,-0.00032,-0.00035,-0.00081,-0.0002,0.00049,6
29772,30759,-2e-05,-8e-05,-0.0001,-0.00032,-0.00035,-0.00081,-0.0002,0.00049,6
29773,30760,-2e-05,-8e-05,-0.0001,-0.00032,-0.00035,-0.00081,-0.0002,0.00049,6
29774,30761,-2e-05,-8e-05,-0.0001,-0.00032,-0.00035,-0.00081,-0.0002,0.00049,6
29775,30762,-2e-05,-8e-05,-0.0001,-0.00032,-0.00035,-0.00081,-0.0002,0.00049,6
29776,30763,-2e-05,-8e-05,-0.0001,-0.00032,-0.00035,-0.00081,-0.0002,0.00049,6
29777,30764,-2e-05,-8e-05,-0.0001,-0.00032,-0.00035,-0.00081,-0.0002,0.00049,6
29778,30765,-2e-05,-8e-05,-0.0001,-0.00032,-0.00035,-0.00081,-0.0002,0.00049,6
29779,30766,-2e-05,-8e-05,-0.0001,-0.00032,-0.00035,-0.00081,-0.0002,0.00049,6
29780,30767,-2e-05,-8e-05,-0.0001,-0.00032,-0.00035,-0.00081,-0.0002,0.00049,6
29781,30768,-2e-05,-8e-05,-0.0001,-0.00032,-0.00035,-0.00081,-0.0002,0.00049,6
29782,30769,-2e-05,-8e-05,-0.0001,-0.00032,-0.00035,-0.00081,-0.0002,0.00049,6
29783,30770,-2e-05,-8e-05,-0.0001,-0.00032,-0.00035,-0.00081,-0.0002,0.00049,6
29784,30771,-2e-05,-8e-05,-0.0001,-0.00032,-0.00035,-0.00081,-0.0002,0.00049,6
29785,30772,-2e-05,-8e-05,-0.0001,-0.00032,-0.00035,-0.00081,-0.0002,0.00049,6
29786,30773,-2e-05,-8e-05,-0.0001,-0.00032,-0.00035,-0.00081,-0.0002,0.00049,6
29787,30774,-2e-05,-8e-05,-0.0001,-0.00032,-0.00035,-0.00081,-0.0002,0.00049,6
29788,30775,-2e-05,-8e-05,-0.0001,-0.00032,-0.00035,-0.00081,-0.0002,0.00049,6
29789,30776,0.00016,-2.9999999999999997e-05,0.0,-0.00011999999999999999,-0.00027,-0.00037,5.9999999999999995e-05,-0.00018,6
29790,30777,0.00016,-2.9999999999999997e-05,0.0,-0.00011999999999999999,-0.00027,-0.00037,5.9999999999999995e-05,-0.00018,6
29791,30778,0.00016,-2.9999999999999997e-05,0.0,-0.00011999999999999999,-0.00027,-0.00037,5.9999999999999995e-05,-0.00018,6
29792,30779,0.00016,-2.9999999999999997e-05,0.0,-0.00011999999999999999,-0.00027,-0.00037,5.9999999999999995e-05,-0.00018,6
29793,30780,0.00016,-2.9999999999999997e-05,0.0,-0.00011999999999999999,-0.00027,-0.00037,5.9999999999999995e-05,-0.00018,6
29794,30781,0.00016,-2.9999999999999997e-05,0.0,-0.00011999999999999999,-0.00027,-0.00037,5.9999999999999995e-05,-0.00018,6
29795,30782,-0.00014,-0.0001,-9e-05,7e-05,-0.00022999999999999998,-0.00033999999999999997,-0.00018999999999999998,-0.00025,6
29796,30783,-0.00014,-0.0001,-9e-05,7e-05,-0.00022999999999999998,-0.00033999999999999997,-0.00018999999999999998,-0.00025,6
29797,30784,-0.00014,-0.0001,-9e-05,7e-05,-0.00022999999999999998,-0.00033999999999999997,-0.00018999999999999998,-0.00025,6
29798,30785,-0.00014,-0.0001,-9e-05,7e-05,-0.00022999999999999998,-0.00033999999999999997,-0.00018999999999999998,-0.00025,6
29799,30786,-0.00014,-0.0001,-9e-05,7e-05,-0.00022999999999999998,-0.00033999999999999997,-0.00018999999999999998,-0.00025,6
29800,30789,-0.00014,-0.0001,-9e-05,7e-05,-0.00022999999999999998,-0.00033999999999999997,-0.00018999999999999998,-0.00025,6
29801,30790,-0.00014,-0.0001,-9e-05,7e-05,-0.00022999999999999998,-0.00033999999999999997,-0.00018999999999999998,-0.00025,6
29802,30791,-0.00018,-9e-05,-7e-05,0.00011999999999999999,-2.9999999999999997e-05,-0.00118,-0.00035,-0.00023999999999999998,6
29803,30792,0.00021,1e-05,4e-05,4e-05,2e-05,0.00062,0.00026000000000000003,-0.00059,6
29804,30793,0.0001,2.9999999999999997e-05,5e-05,0.0002,0.00014,-0.00035,-0.00022999999999999998,-0.0007099999999999999,6
29805,30794,0.0001,2.9999999999999997e-05,5e-05,0.0002,0.00014,-0.00035,-0.00022999999999999998,-0.0007099999999999999,6
29806,30795,0.0001,2.9999999999999997e-05,5e-05,0.0002,0.00014,-0.00035,-0.00022999999999999998,-0.0007099999999999999,6
29807,30796,0.0001,2.9999999999999997e-05,5e-05,0.0002,0.00014,-0.00035,-0.00022999999999999998,-0.0007099999999999999,6
29808,30797,0.0001,2.9999999999999997e-05,5e-05,0.0002,0.00014,-0.00035,-0.00022999999999999998,-0.0007099999999999999,6
29809,30798,0.0001,2.9999999999999997e-05,5e-05,0.0002,0.00014,-0.00035,-0.00022999999999999998,-0.0007099999999999999,6
29810,30799,0.0001,2.9999999999999997e-05,5e-05,0.0002,0.00014,-0.00035,-0.00022999999999999998,-0.0007099999999999999,6
29811,30800,0.0001,2.9999999999999997e-05,5e-05,0.0002,0.00014,-0.00035,-0.00022999999999999998,-0.0007099999999999999,6
29812,30801,0.0001,2.9999999999999997e-05,5e-05,0.0002,0.00014,-0.00035,-0.00022999999999999998,-0.0007099999999999999,6
29813,30802,0.0001,2.9999999999999997e-05,5e-05,0.0002,0.00014,-0.00035,-0.00022999999999999998,-0.0007099999999999999,6
29814,30803,0.0001,2.9999999999999997e-05,5e-05,0.0002,0.00014,-0.00035,-0.00022999999999999998,-0.0007099999999999999,6
29815,30804,0.0001,2.9999999999999997e-05,5e-05,0.0002,0.00014,-0.00035,-0.00022999999999999998,-0.0007099999999999999,6
29816,30805,0.0001,2.9999999999999997e-05,5e-05,0.0002,0.00014,-0.00035,-0.00022999999999999998,-0.0007099999999999999,6
29817,30806,0.0001,2.9999999999999997e-05,5e-05,0.0002,0.00014,-0.00035,-0.00022999999999999998,-0.0007099999999999999,6
29818,30807,0.0001,2.9999999999999997e-05,5e-05,0.0002,0.00014,-0.00035,-0.00022999999999999998,-0.0007099999999999999,6
29819,30808,0.0001,2.9999999999999997e-05,5e-05,0.0002,0.00014,-0.00035,-0.00022999999999999998,-0.0007099999999999999,6
29820,30809,0.0001,2.9999999999999997e-05,5e-05,0.0002,0.00014,-0.00035,-0.00022999999999999998,-0.0007099999999999999,6
29821,30810,0.0001,2.9999999999999997e-05,5e-05,0.0002,0.00014,-0.00035,-0.00022999999999999998,-0.0007099999999999999,6
29822,30811,0.0001,2.9999999999999997e-05,5e-05,0.0002,0.00014,-0.00035,-0.00022999999999999998,-0.0007099999999999999,6
29823,30812,0.0001,2.9999999999999997e-05,5e-05,0.0002,0.00014,-0.00035,-0.00022999999999999998,-0.0007099999999999999,6
29824,30813,-0.00016999999999999999,7e-05,5e-05,-5e-05,0.00055,0.00059,0.00015,-9e-05,6
29825,30814,-0.00016999999999999999,7e-05,5e-05,-5e-05,0.00055,0.00059,0.00015,-9e-05,6
29826,30815,5e-05,4e-05,-1e-05,0.00016,0.0007599999999999999,-0.00025,0.00021,-0.00018,6
29827,30817,5e-05,4e-05,-1e-05,0.00016,0.0007599999999999999,-0.00025,0.00021,-0.00018,6
29828,30818,5e-05,4e-05,-1e-05,0.00016,0.0007599999999999999,-0.00025,0.00021,-0.00018,6
29829,30819,5e-05,4e-05,-1e-05,0.00016,0.0007599999999999999,-0.00025,0.00021,-0.00018,6
29830,30820,5e-05,4e-05,-1e-05,0.00016,0.0007599999999999999,-0.00025,0.00021,-0.00018,6
29831,30821,5e-05,4e-05,-1e-05,0.00016,0.0007599999999999999,-0.00025,0.00021,-0.00018,6
29832,30822,5e-05,4e-05,-1e-05,0.00016,0.0007599999999999999,-0.00025,0.00021,-0.00018,6
29833,30823,5e-05,4e-05,-1e-05,0.00016,0.0007599999999999999,-0.00025,0.00021,-0.00018,6
29834,30824,5e-05,4e-05,-1e-05,0.00016,0.0007599999999999999,-0.00025,0.00021,-0.00018,6
29835,30825,5e-05,4e-05,-1e-05,0.00016,0.0007599999999999999,-0.00025,0.00021,-0.00018,6
29836,30826,5e-05,4e-05,-1e-05,0.00016,0.0007599999999999999,-0.00025,0.00021,-0.00018,6
29837,30827,5e-05,4e-05,-1e-05,0.00016,0.0007599999999999999,-0.00025,0.00021,-0.00018,6
29838,30828,5e-05,4e-05,-1e-05,0.00016,0.0007599999999999999,-0.00025,0.00021,-0.00018,6
29839,30829,5e-05,4e-05,-1e-05,0.00016,0.0007599999999999999,-0.00025,0.00021,-0.00018,6
29840,30830,5e-05,4e-05,-1e-05,0.00016,0.0007599999999999999,-0.00025,0.00021,-0.00018,6
29841,30831,5e-05,4e-05,-1e-05,0.00016,0.0007599999999999999,-0.00025,0.00021,-0.00018,6
29842,30832,5e-05,4e-05,-1e-05,0.00016,0.0007599999999999999,-0.00025,0.00021,-0.00018,6
29843,30833,5e-05,4e-05,-1e-05,0.00016,0.0007599999999999999,-0.00025,0.00021,-0.00018,6
29844,30834,5e-05,4e-05,-1e-05,0.00016,0.0007599999999999999,-0.00025,0.00021,-0.00018,6
29845,30836,-5e-05,-1e-05,1e-05,0.00011999999999999999,-0.00023999999999999998,5e-05,-8e-05,-0.00029,6
29846,30837,-0.00015,-9e-05,-0.0001,-0.00021,0.00014,-5e-05,-0.00018999999999999998,5e-05,6
29847,30838,-0.00015,-9e-05,-0.0001,-0.00021,0.00014,-5e-05,-0.00018999999999999998,5e-05,6
29848,30839,-0.00015,-9e-05,-0.0001,-0.00021,0.00014,-5e-05,-0.00018999999999999998,5e-05,6
29849,30840,-0.00015,-9e-05,-0.0001,-0.00021,0.00014,-5e-05,-0.00018999999999999998,5e-05,6
29850,30841,-0.00015,-9e-05,-0.0001,-0.00021,0.00014,-5e-05,-0.00018999999999999998,5e-05,6
29851,30842,-0.00015,-9e-05,-0.0001,-0.00021,0.00014,-5e-05,-0.00018999999999999998,5e-05,6
29852,30843,-0.00015,-9e-05,-0.0001,-0.00021,0.00014,-5e-05,-0.00018999999999999998,5e-05,6
29853,30844,-0.00015,-9e-05,-0.0001,-0.00021,0.00014,-5e-05,-0.00018999999999999998,5e-05,6
29854,30845,-0.00015,-9e-05,-0.0001,-0.00021,0.00014,-5e-05,-0.00018999999999999998,5e-05,6
29855,30846,-0.00015,-9e-05,-0.0001,-0.00021,0.00014,-5e-05,-0.00018999999999999998,5e-05,6
29856,30847,-0.00015,-9e-05,-0.0001,-0.00021,0.00014,-5e-05,-0.00018999999999999998,5e-05,6
29857,30848,-0.00015,-9e-05,-0.0001,-0.00021,0.00014,-5e-05,-0.00018999999999999998,5e-05,6
29858,30849,-0.00015,-9e-05,-0.0001,-0.00021,0.00014,-5e-05,-0.00018999999999999998,5e-05,6
29859,30850,-0.00015,-9e-05,-0.0001,-0.00021,0.00014,-5e-05,-0.00018999999999999998,5e-05,6
29860,30851,-0.00015,-9e-05,-0.0001,-0.00021,0.00014,-5e-05,-0.00018999999999999998,5e-05,6
29861,30852,-0.00015,-9e-05,-0.0001,-0.00021,0.00014,-5e-05,-0.00018999999999999998,5e-05,6
29862,30853,-0.00015,-9e-05,-0.0001,-0.00021,0.00014,-5e-05,-0.00018999999999999998,5e-05,6
29863,30854,-0.00015,-9e-05,-0.0001,-0.00021,0.00014,-5e-05,-0.00018999999999999998,5e-05,6
29864,30855,-0.00015,-9e-05,-0.0001,-0.00021,0.00014,-5e-05,-0.00018999999999999998,5e-05,6
29865,30856,-0.00015,-9e-05,-0.0001,-0.00021,0.00014,-5e-05,-0.00018999999999999998,5e-05,6
29866,30857,-0.00015,-9e-05,-0.0001,-0.00021,0.00014,-5e-05,-0.00018999999999999998,5e-05,6
29867,30858,-2.9999999999999997e-05,-8e-05,-5e-05,-7e-05,-0.00035,-0.00043,-8e-05,0.00016999999999999999,6
29868,30859,-2.9999999999999997e-05,-8e-05,-5e-05,-7e-05,-0.00035,-0.00043,-8e-05,0.00016999999999999999,6
29869,30860,-0.00011,-5e-05,0.0,-2.9999999999999997e-05,4e-05,2e-05,5.9999999999999995e-05,2e-05,6
29870,30861,-0.00011,-5e-05,0.0,-2.9999999999999997e-05,4e-05,2e-05,5.9999999999999995e-05,2e-05,6
29871,30862,-0.00011,-5e-05,0.0,-2.9999999999999997e-05,4e-05,2e-05,5.9999999999999995e-05,2e-05,6
29872,30863,-0.00011,-5e-05,0.0,-2.9999999999999997e-05,4e-05,2e-05,5.9999999999999995e-05,2e-05,6
29873,30864,-0.00011,-5e-05,0.0,-2.9999999999999997e-05,4e-05,2e-05,5.9999999999999995e-05,2e-05,6
29874,30865,-0.00011,-5e-05,0.0,-2.9999999999999997e-05,4e-05,2e-05,5.9999999999999995e-05,2e-05,6
29875,30866,-0.00011,-5e-05,0.0,-2.9999999999999997e-05,4e-05,2e-05,5.9999999999999995e-05,2e-05,6
29876,30867,-0.00011,-5e-05,0.0,-2.9999999999999997e-05,4e-05,2e-05,5.9999999999999995e-05,2e-05,6
29877,30868,-0.00011,-5e-05,0.0,-2.9999999999999997e-05,4e-05,2e-05,5.9999999999999995e-05,2e-05,6
29878,30869,-0.00011,-5e-05,0.0,-2.9999999999999997e-05,4e-05,2e-05,5.9999999999999995e-05,2e-05,6
29879,30870,-0.00011,-5e-05,0.0,-2.9999999999999997e-05,4e-05,2e-05,5.9999999999999995e-05,2e-05,6
29880,30871,-0.00011,-5e-05,0.0,-2.9999999999999997e-05,4e-05,2e-05,5.9999999999999995e-05,2e-05,6
29881,30872,-0.00011,-5e-05,0.0,-2.9999999999999997e-05,4e-05,2e-05,5.9999999999999995e-05,2e-05,6
29882,30873,0.00033999999999999997,5e-05,-1e-05,-0.0001,-0.00018999999999999998,0.00088,5e-05,0.0005200000000000001,6
29883,30874,0.00033999999999999997,5e-05,-1e-05,-0.0001,-0.00018999999999999998,0.00088,5e-05,0.0005200000000000001,6
29884,30875,0.00032,4e-05,-1e-05,-5.9999999999999995e-05,-2.9999999999999997e-05,0.0009400000000000001,0.00011999999999999999,-0.00022,6
29885,30876,0.00032,4e-05,-1e-05,-5.9999999999999995e-05,-2.9999999999999997e-05,0.0009400000000000001,0.00011999999999999999,-0.00022,6
29886,30877,0.00032,4e-05,-1e-05,-5.9999999999999995e-05,-2.9999999999999997e-05,0.0009400000000000001,0.00011999999999999999,-0.00022,6
29887,30878,0.00032,4e-05,-1e-05,-5.9999999999999995e-05,-2.9999999999999997e-05,0.0009400000000000001,0.00011999999999999999,-0.00022,6
29888,30879,0.00032,4e-05,-1e-05,-5.9999999999999995e-05,-2.9999999999999997e-05,0.0009400000000000001,0.00011999999999999999,-0.00022,6
29889,30880,0.00032,4e-05,-1e-05,-5.9999999999999995e-05,-2.9999999999999997e-05,0.0009400000000000001,0.00011999999999999999,-0.00022,6
29890,30881,0.00032,4e-05,-1e-05,-5.9999999999999995e-05,-2.9999999999999997e-05,0.0009400000000000001,0.00011999999999999999,-0.00022,6
29891,30882,0.00032,4e-05,-1e-05,-5.9999999999999995e-05,-2.9999999999999997e-05,0.0009400000000000001,0.00011999999999999999,-0.00022,6
29892,30883,0.00032,4e-05,-1e-05,-5.9999999999999995e-05,-2.9999999999999997e-05,0.0009400000000000001,0.00011999999999999999,-0.00022,6
29893,30884,0.00032,4e-05,-1e-05,-5.9999999999999995e-05,-2.9999999999999997e-05,0.0009400000000000001,0.00011999999999999999,-0.00022,6
29894,30885,0.00032,4e-05,-1e-05,-5.9999999999999995e-05,-2.9999999999999997e-05,0.0009400000000000001,0.00011999999999999999,-0.00022,6
29895,30886,0.00032,4e-05,-1e-05,-5.9999999999999995e-05,-2.9999999999999997e-05,0.0009400000000000001,0.00011999999999999999,-0.00022,6
29896,30889,0.00032,4e-05,-1e-05,-5.9999999999999995e-05,-2.9999999999999997e-05,0.0009400000000000001,0.00011999999999999999,-0.00022,6
29897,30890,0.00032,4e-05,-1e-05,-5.9999999999999995e-05,-2.9999999999999997e-05,0.0009400000000000001,0.00011999999999999999,-0.00022,6
29898,30891,0.00032,4e-05,-1e-05,-5.9999999999999995e-05,-2.9999999999999997e-05,0.0009400000000000001,0.00011999999999999999,-0.00022,6
29899,30892,0.00032,4e-05,-1e-05,-5.9999999999999995e-05,-2.9999999999999997e-05,0.0009400000000000001,0.00011999999999999999,-0.00022,6
29900,30893,0.00032,4e-05,-1e-05,-5.9999999999999995e-05,-2.9999999999999997e-05,0.0009400000000000001,0.00011999999999999999,-0.00022,6
29901,30894,0.00032,4e-05,-1e-05,-5.9999999999999995e-05,-2.9999999999999997e-05,0.0009400000000000001,0.00011999999999999999,-0.00022,6
29902,30895,0.00032,4e-05,-1e-05,-5.9999999999999995e-05,-2.9999999999999997e-05,0.0009400000000000001,0.00011999999999999999,-0.00022,6
29903,30896,-0.00018999999999999998,-0.00018,-0.00016999999999999999,-0.00018999999999999998,0.00013000000000000002,-0.00031,-1e-05,-0.00031,6
29904,30897,0.00018,5.9999999999999995e-05,5e-05,-2.9999999999999997e-05,-0.00066,-0.0008699999999999999,-0.00022999999999999998,0.00018,6
29905,30898,-0.0001,5e-05,4e-05,4e-05,0.00013000000000000002,0.00064,-2e-05,-0.00015,6
29906,30899,-0.0001,5e-05,4e-05,4e-05,0.00013000000000000002,0.00064,-2e-05,-0.00015,6
29907,30900,-0.0001,5e-05,4e-05,4e-05,0.00013000000000000002,0.00064,-2e-05,-0.00015,6
29908,30901,-0.0001,5e-05,4e-05,4e-05,0.00013000000000000002,0.00064,-2e-05,-0.00015,6
29909,30902,-0.0001,5e-05,4e-05,4e-05,0.00013000000000000002,0.00064,-2e-05,-0.00015,6
29910,30903,-0.0001,5e-05,4e-05,4e-05,0.00013000000000000002,0.00064,-2e-05,-0.00015,6
29911,30904,-0.0001,5e-05,4e-05,4e-05,0.00013000000000000002,0.00064,-2e-05,-0.00015,6
29912,30905,-0.0001,5e-05,4e-05,4e-05,0.00013000000000000002,0.00064,-2e-05,-0.00015,6
29913,30906,-0.0001,5e-05,4e-05,4e-05,0.00013000000000000002,0.00064,-2e-05,-0.00015,6
29914,30907,-0.0001,5e-05,4e-05,4e-05,0.00013000000000000002,0.00064,-2e-05,-0.00015,6
29915,30908,-0.0001,5e-05,4e-05,4e-05,0.00013000000000000002,0.00064,-2e-05,-0.00015,6
29916,30909,-0.0001,5e-05,4e-05,4e-05,0.00013000000000000002,0.00064,-2e-05,-0.00015,6
29917,30910,-2.9999999999999997e-05,-1e-05,-2.9999999999999997e-05,2e-05,0.00011,0.00022999999999999998,7e-05,-0.00015,6
29918,30911,-2.9999999999999997e-05,-1e-05,-2.9999999999999997e-05,2e-05,0.00011,0.00022999999999999998,7e-05,-0.00015,6
29919,30912,-2.9999999999999997e-05,-1e-05,-2.9999999999999997e-05,2e-05,0.00011,0.00022999999999999998,7e-05,-0.00015,6
29920,30913,-2.9999999999999997e-05,-1e-05,-2.9999999999999997e-05,2e-05,0.00011,0.00022999999999999998,7e-05,-0.00015,6
29921,30914,-2.9999999999999997e-05,-1e-05,-2.9999999999999997e-05,2e-05,0.00011,0.00022999999999999998,7e-05,-0.00015,6
29922,30915,-2.9999999999999997e-05,-1e-05,-2.9999999999999997e-05,2e-05,0.00011,0.00022999999999999998,7e-05,-0.00015,6
29923,30916,-2.9999999999999997e-05,-1e-05,-2.9999999999999997e-05,2e-05,0.00011,0.00022999999999999998,7e-05,-0.00015,6
29924,30917,-2.9999999999999997e-05,-1e-05,-2.9999999999999997e-05,2e-05,0.00011,0.00022999999999999998,7e-05,-0.00015,6
29925,30918,-2.9999999999999997e-05,-1e-05,-2.9999999999999997e-05,2e-05,0.00011,0.00022999999999999998,7e-05,-0.00015,6
29926,30919,-9e-05,4e-05,2.9999999999999997e-05,-0.00011,0.00037,0.00035,-0.00016999999999999999,-0.0005,6
29927,30920,-9e-05,4e-05,2.9999999999999997e-05,-0.00011,0.00037,0.00035,-0.00016999999999999999,-0.0005,6
29928,30921,-9e-05,4e-05,2.9999999999999997e-05,-0.00011,0.00037,0.00035,-0.00016999999999999999,-0.0005,6
29929,30922,-9e-05,4e-05,2.9999999999999997e-05,-0.00011,0.00037,0.00035,-0.00016999999999999999,-0.0005,6
29930,30923,-9e-05,4e-05,2.9999999999999997e-05,-0.00011,0.00037,0.00035,-0.00016999999999999999,-0.0005,6
29931,30924,-9e-05,4e-05,2.9999999999999997e-05,-0.00011,0.00037,0.00035,-0.00016999999999999999,-0.0005,6
29932,30925,-9e-05,4e-05,2.9999999999999997e-05,-0.00011,0.00037,0.00035,-0.00016999999999999999,-0.0005,6
29933,30926,-9e-05,4e-05,2.9999999999999997e-05,-0.00011,0.00037,0.00035,-0.00016999999999999999,-0.0005,6
29934,30927,-9e-05,4e-05,2.9999999999999997e-05,-0.00011,0.00037,0.00035,-0.00016999999999999999,-0.0005,6
29935,30928,-9e-05,4e-05,2.9999999999999997e-05,-0.00011,0.00037,0.00035,-0.00016999999999999999,-0.0005,6
29936,30929,-9e-05,4e-05,2.9999999999999997e-05,-0.00011,0.00037,0.00035,-0.00016999999999999999,-0.0005,6
29937,30930,-9e-05,4e-05,2.9999999999999997e-05,-0.00011,0.00037,0.00035,-0.00016999999999999999,-0.0005,6
29938,30931,-9e-05,4e-05,2.9999999999999997e-05,-0.00011,0.00037,0.00035,-0.00016999999999999999,-0.0005,6
29939,30932,-9e-05,4e-05,2.9999999999999997e-05,-0.00011,0.00037,0.00035,-0.00016999999999999999,-0.0005,6
29940,30933,-9e-05,4e-05,2.9999999999999997e-05,-0.00011,0.00037,0.00035,-0.00016999999999999999,-0.0005,6
29941,30934,-9e-05,4e-05,2.9999999999999997e-05,-0.00011,0.00037,0.00035,-0.00016999999999999999,-0.0005,6
29942,30935,-9e-05,4e-05,2.9999999999999997e-05,-0.00011,0.00037,0.00035,-0.00016999999999999999,-0.0005,6
29943,30936,-9e-05,4e-05,2.9999999999999997e-05,-0.00011,0.00037,0.00035,-0.00016999999999999999,-0.0005,6
29944,30938,-9e-05,4e-05,2.9999999999999997e-05,-0.00011,0.00037,0.00035,-0.00016999999999999999,-0.0005,6
29945,30939,-9e-05,4e-05,2.9999999999999997e-05,-0.00011,0.00037,0.00035,-0.00016999999999999999,-0.0005,6
29946,30940,-9e-05,4e-05,2.9999999999999997e-05,-0.00011,0.00037,0.00035,-0.00016999999999999999,-0.0005,6
29947,30941,-0.00026000000000000003,-5.9999999999999995e-05,-1e-05,-7e-05,-0.0006900000000000001,-0.00091,-0.00025,0.00022999999999999998,6
29948,30942,0.00022,0.0,-2e-05,2e-05,-0.00018,-0.00037,0.00013000000000000002,0.00042,6
29949,30943,-8e-05,-2e-05,4e-05,0.00018999999999999998,4e-05,-0.00101,2e-05,-9e-05,6
29950,30944,-8e-05,-2e-05,4e-05,0.00018999999999999998,4e-05,-0.00101,2e-05,-9e-05,6
29951,30945,-8e-05,-2e-05,4e-05,0.00018999999999999998,4e-05,-0.00101,2e-05,-9e-05,6
29952,30946,-8e-05,-2e-05,4e-05,0.00018999999999999998,4e-05,-0.00101,2e-05,-9e-05,6
29953,30947,-8e-05,-2e-05,4e-05,0.00018999999999999998,4e-05,-0.00101,2e-05,-9e-05,6
29954,30948,-8e-05,-2e-05,4e-05,0.00018999999999999998,4e-05,-0.00101,2e-05,-9e-05,6
29955,30949,-8e-05,-2e-05,4e-05,0.00018999999999999998,4e-05,-0.00101,2e-05,-9e-05,6
29956,30950,-8e-05,-2e-05,4e-05,0.00018999999999999998,4e-05,-0.00101,2e-05,-9e-05,6
29957,30951,-8e-05,-2e-05,4e-05,0.00018999999999999998,4e-05,-0.00101,2e-05,-9e-05,6
29958,30952,-8e-05,-2e-05,4e-05,0.00018999999999999998,4e-05,-0.00101,2e-05,-9e-05,6
29959,30953,-8e-05,-2e-05,4e-05,0.00018999999999999998,4e-05,-0.00101,2e-05,-9e-05,6
29960,30954,-8e-05,-2e-05,4e-05,0.00018999999999999998,4e-05,-0.00101,2e-05,-9e-05,6
29961,30955,-8e-05,-2e-05,4e-05,0.00018999999999999998,4e-05,-0.00101,2e-05,-9e-05,6
29962,30956,0.00011999999999999999,1e-05,1e-05,2e-05,-5e-05,-0.00021,9e-05,-0.00042,6
29963,30957,-0.00018,-2.9999999999999997e-05,-4e-05,-0.0002,-0.00055,-5e-05,-0.00011,-0.0001,6
29964,30958,-2.9999999999999997e-05,-5.9999999999999995e-05,-5.9999999999999995e-05,5.9999999999999995e-05,-0.00026000000000000003,0.00016999999999999999,2e-05,0.0005099999999999999,6
29965,30959,-2.9999999999999997e-05,-5.9999999999999995e-05,-5.9999999999999995e-05,5.9999999999999995e-05,-0.00026000000000000003,0.00016999999999999999,2e-05,0.0005099999999999999,6
29966,30960,-2.9999999999999997e-05,-5.9999999999999995e-05,-5.9999999999999995e-05,5.9999999999999995e-05,-0.00026000000000000003,0.00016999999999999999,2e-05,0.0005099999999999999,6
29967,30961,-2.9999999999999997e-05,-5.9999999999999995e-05,-5.9999999999999995e-05,5.9999999999999995e-05,-0.00026000000000000003,0.00016999999999999999,2e-05,0.0005099999999999999,6
29968,30962,-2.9999999999999997e-05,-5.9999999999999995e-05,-5.9999999999999995e-05,5.9999999999999995e-05,-0.00026000000000000003,0.00016999999999999999,2e-05,0.0005099999999999999,6
29969,30963,-2.9999999999999997e-05,-5.9999999999999995e-05,-5.9999999999999995e-05,5.9999999999999995e-05,-0.00026000000000000003,0.00016999999999999999,2e-05,0.0005099999999999999,6
29970,30964,-2.9999999999999997e-05,-5.9999999999999995e-05,-5.9999999999999995e-05,5.9999999999999995e-05,-0.00026000000000000003,0.00016999999999999999,2e-05,0.0005099999999999999,6
29971,30965,-2.9999999999999997e-05,-5.9999999999999995e-05,-5.9999999999999995e-05,5.9999999999999995e-05,-0.00026000000000000003,0.00016999999999999999,2e-05,0.0005099999999999999,6
29972,30966,-2.9999999999999997e-05,-5.9999999999999995e-05,-5.9999999999999995e-05,5.9999999999999995e-05,-0.00026000000000000003,0.00016999999999999999,2e-05,0.0005099999999999999,6
29973,30967,-2.9999999999999997e-05,-5.9999999999999995e-05,-5.9999999999999995e-05,5.9999999999999995e-05,-0.00026000000000000003,0.00016999999999999999,2e-05,0.0005099999999999999,6
29974,30968,-2.9999999999999997e-05,-5.9999999999999995e-05,-5.9999999999999995e-05,5.9999999999999995e-05,-0.00026000000000000003,0.00016999999999999999,2e-05,0.0005099999999999999,6
29975,30969,-2.9999999999999997e-05,-5.9999999999999995e-05,-5.9999999999999995e-05,5.9999999999999995e-05,-0.00026000000000000003,0.00016999999999999999,2e-05,0.0005099999999999999,6
29976,30970,2e-05,-5e-05,-4e-05,-5e-05,0.00023999999999999998,0.00013000000000000002,-5e-05,-0.0001,6
29977,30971,2e-05,-5e-05,-4e-05,-5e-05,0.00023999999999999998,0.00013000000000000002,-5e-05,-0.0001,6
29978,30972,2e-05,-5e-05,-4e-05,-5e-05,0.00023999999999999998,0.00013000000000000002,-5e-05,-0.0001,6
29979,30973,2e-05,-5e-05,-4e-05,-5e-05,0.00023999999999999998,0.00013000000000000002,-5e-05,-0.0001,6
29980,30974,2e-05,-5e-05,-4e-05,-5e-05,0.00023999999999999998,0.00013000000000000002,-5e-05,-0.0001,6
29981,30976,2e-05,-5e-05,-4e-05,-5e-05,0.00023999999999999998,0.00013000000000000002,-5e-05,-0.0001,6
29982,30977,1e-05,4e-05,0.00011,0.00011999999999999999,-0.00033,0.00018,-4e-05,9e-05,6
29983,30978,1e-05,4e-05,0.00011,0.00011999999999999999,-0.00033,0.00018,-4e-05,9e-05,6
29984,30979,1e-05,4e-05,0.00011,0.00011999999999999999,-0.00033,0.00018,-4e-05,9e-05,6
29985,30980,1e-05,4e-05,0.00011,0.00011999999999999999,-0.00033,0.00018,-4e-05,9e-05,6
29986,30981,1e-05,4e-05,0.00011,0.00011999999999999999,-0.00033,0.00018,-4e-05,9e-05,6
29987,30982,1e-05,4e-05,0.00011,0.00011999999999999999,-0.00033,0.00018,-4e-05,9e-05,6
29988,30983,1e-05,4e-05,0.00011,0.00011999999999999999,-0.00033,0.00018,-4e-05,9e-05,6
29989,30984,1e-05,4e-05,0.00011,0.00011999999999999999,-0.00033,0.00018,-4e-05,9e-05,6
29990,30985,1e-05,4e-05,0.00011,0.00011999999999999999,-0.00033,0.00018,-4e-05,9e-05,6
29991,30986,1e-05,4e-05,0.00011,0.00011999999999999999,-0.00033,0.00018,-4e-05,9e-05,6
29992,30988,1e-05,4e-05,0.00011,0.00011999999999999999,-0.00033,0.00018,-4e-05,9e-05,6
29993,30989,1e-05,4e-05,0.00011,0.00011999999999999999,-0.00033,0.00018,-4e-05,9e-05,6
29994,30990,1e-05,4e-05,0.00011,0.00011999999999999999,-0.00033,0.00018,-4e-05,9e-05,6
29995,30991,1e-05,4e-05,0.00011,0.00011999999999999999,-0.00033,0.00018,-4e-05,9e-05,6
29996,30992,1e-05,4e-05,0.00011,0.00011999999999999999,-0.00033,0.00018,-4e-05,9e-05,6
29997,30993,1e-05,4e-05,0.00011,0.00011999999999999999,-0.00033,0.00018,-4e-05,9e-05,6
29998,30994,1e-05,4e-05,0.00011,0.00011999999999999999,-0.00033,0.00018,-4e-05,9e-05,6
29999,30995,1e-05,4e-05,0.00011,0.00011999999999999999,-0.00033,0.00018,-4e-05,9e-05,6
30000,30996,1e-05,4e-05,0.00011,0.00011999999999999999,-0.00033,0.00018,-4e-05,9e-05,6
30001,30997,1e-05,4e-05,0.00011,0.00011999999999999999,-0.00033,0.00018,-4e-05,9e-05,6
30002,30998,1e-05,4e-05,0.00011,0.00011999999999999999,-0.00033,0.00018,-4e-05,9e-05,6
30003,30999,1e-05,4e-05,0.00011,0.00011999999999999999,-0.00033,0.00018,-4e-05,9e-05,6
30004,31000,1e-05,4e-05,0.00011,0.00011999999999999999,-0.00033,0.00018,-4e-05,9e-05,6
30005,31001,2.9999999999999997e-05,5e-05,5.9999999999999995e-05,2.9999999999999997e-05,-0.00013000000000000002,0.00114,0.0002,0.00081,6
30006,31002,0.00013000000000000002,4e-05,-5e-05,-0.00011999999999999999,-0.00013000000000000002,0.00022,-0.00018,0.00082,6
30007,31003,0.00013000000000000002,4e-05,-5e-05,-0.00011999999999999999,-0.00013000000000000002,0.00022,-0.00018,0.00082,6
30008,31004,0.00013000000000000002,4e-05,-5e-05,-0.00011999999999999999,-0.00013000000000000002,0.00022,-0.00018,0.00082,6
30009,31005,0.00013000000000000002,4e-05,-5e-05,-0.00011999999999999999,-0.00013000000000000002,0.00022,-0.00018,0.00082,6
30010,31006,0.00013000000000000002,4e-05,-5e-05,-0.00011999999999999999,-0.00013000000000000002,0.00022,-0.00018,0.00082,6
30011,31007,0.00013000000000000002,4e-05,-5e-05,-0.00011999999999999999,-0.00013000000000000002,0.00022,-0.00018,0.00082,6
30012,31008,0.00013000000000000002,4e-05,-5e-05,-0.00011999999999999999,-0.00013000000000000002,0.00022,-0.00018,0.00082,6
30013,31009,0.00013000000000000002,4e-05,-5e-05,-0.00011999999999999999,-0.00013000000000000002,0.00022,-0.00018,0.00082,6
30014,31010,0.00013000000000000002,4e-05,-5e-05,-0.00011999999999999999,-0.00013000000000000002,0.00022,-0.00018,0.00082,6
30015,31011,0.00013000000000000002,4e-05,-5e-05,-0.00011999999999999999,-0.00013000000000000002,0.00022,-0.00018,0.00082,6
30016,31012,0.00013000000000000002,4e-05,-5e-05,-0.00011999999999999999,-0.00013000000000000002,0.00022,-0.00018,0.00082,6
30017,31013,0.00013000000000000002,4e-05,-5e-05,-0.00011999999999999999,-0.00013000000000000002,0.00022,-0.00018,0.00082,6
30018,31014,0.00013000000000000002,4e-05,-5e-05,-0.00011999999999999999,-0.00013000000000000002,0.00022,-0.00018,0.00082,6
30019,31015,0.00013000000000000002,4e-05,-5e-05,-0.00011999999999999999,-0.00013000000000000002,0.00022,-0.00018,0.00082,6
30020,31016,0.00013000000000000002,4e-05,-5e-05,-0.00011999999999999999,-0.00013000000000000002,0.00022,-0.00018,0.00082,6
30021,31017,0.00013000000000000002,4e-05,-5e-05,-0.00011999999999999999,-0.00013000000000000002,0.00022,-0.00018,0.00082,6
30022,31018,0.00013000000000000002,4e-05,-5e-05,-0.00011999999999999999,-0.00013000000000000002,0.00022,-0.00018,0.00082,6
30023,31019,0.00013000000000000002,4e-05,-5e-05,-0.00011999999999999999,-0.00013000000000000002,0.00022,-0.00018,0.00082,6
30024,31020,0.00013000000000000002,4e-05,-5e-05,-0.00011999999999999999,-0.00013000000000000002,0.00022,-0.00018,0.00082,6
30025,31021,0.00013000000000000002,4e-05,-5e-05,-0.00011999999999999999,-0.00013000000000000002,0.00022,-0.00018,0.00082,6
30026,31022,0.00013000000000000002,4e-05,-5e-05,-0.00011999999999999999,-0.00013000000000000002,0.00022,-0.00018,0.00082,6
30027,31023,-0.00041,-8e-05,-8e-05,-8e-05,-7e-05,-0.0011099999999999999,-0.00026000000000000003,-8e-05,6
30028,31024,-0.0003,-1e-05,4e-05,2.9999999999999997e-05,0.0,8e-05,8e-05,8e-05,6
30029,31025,-0.00022999999999999998,-7e-05,-2.9999999999999997e-05,-0.00015,0.00011999999999999999,2.9999999999999997e-05,-7e-05,-0.00032,6
30030,31026,-0.00022999999999999998,-7e-05,-2.9999999999999997e-05,-0.00015,0.00011999999999999999,2.9999999999999997e-05,-7e-05,-0.00032,6
30031,31027,-0.00022999999999999998,-7e-05,-2.9999999999999997e-05,-0.00015,0.00011999999999999999,2.9999999999999997e-05,-7e-05,-0.00032,6
30032,31028,-0.00022999999999999998,-7e-05,-2.9999999999999997e-05,-0.00015,0.00011999999999999999,2.9999999999999997e-05,-7e-05,-0.00032,6
30033,31029,-0.00022999999999999998,-7e-05,-2.9999999999999997e-05,-0.00015,0.00011999999999999999,2.9999999999999997e-05,-7e-05,-0.00032,6
30034,31030,7e-05,1e-05,2.9999999999999997e-05,9e-05,0.00059,0.00037999999999999997,-0.00016,0.00016,6
30035,31031,7e-05,1e-05,2.9999999999999997e-05,9e-05,0.00059,0.00037999999999999997,-0.00016,0.00016,6
30036,31032,7e-05,1e-05,2.9999999999999997e-05,9e-05,0.00059,0.00037999999999999997,-0.00016,0.00016,6
30037,31033,7e-05,1e-05,2.9999999999999997e-05,9e-05,0.00059,0.00037999999999999997,-0.00016,0.00016,6
30038,31034,7e-05,1e-05,2.9999999999999997e-05,9e-05,0.00059,0.00037999999999999997,-0.00016,0.00016,6
30039,31035,7e-05,1e-05,2.9999999999999997e-05,9e-05,0.00059,0.00037999999999999997,-0.00016,0.00016,6
30040,31036,7e-05,1e-05,2.9999999999999997e-05,9e-05,0.00059,0.00037999999999999997,-0.00016,0.00016,6
30041,31038,0.00022999999999999998,4e-05,1e-05,5.9999999999999995e-05,-0.00011,-0.00074,-0.00016999999999999999,-0.00011,6
30042,31039,0.00022999999999999998,4e-05,1e-05,5.9999999999999995e-05,-0.00011,-0.00074,-0.00016999999999999999,-0.00011,6
30043,31040,0.00022999999999999998,4e-05,1e-05,5.9999999999999995e-05,-0.00011,-0.00074,-0.00016999999999999999,-0.00011,6
30044,31041,0.00022999999999999998,4e-05,1e-05,5.9999999999999995e-05,-0.00011,-0.00074,-0.00016999999999999999,-0.00011,6
30045,31042,0.00022999999999999998,4e-05,1e-05,5.9999999999999995e-05,-0.00011,-0.00074,-0.00016999999999999999,-0.00011,6
30046,31043,0.00022999999999999998,4e-05,1e-05,5.9999999999999995e-05,-0.00011,-0.00074,-0.00016999999999999999,-0.00011,6
30047,31044,0.00022999999999999998,4e-05,1e-05,5.9999999999999995e-05,-0.00011,-0.00074,-0.00016999999999999999,-0.00011,6
30048,31045,0.00022999999999999998,4e-05,1e-05,5.9999999999999995e-05,-0.00011,-0.00074,-0.00016999999999999999,-0.00011,6
30049,31046,0.00022999999999999998,4e-05,1e-05,5.9999999999999995e-05,-0.00011,-0.00074,-0.00016999999999999999,-0.00011,6
30050,31047,0.00022999999999999998,4e-05,1e-05,5.9999999999999995e-05,-0.00011,-0.00074,-0.00016999999999999999,-0.00011,6
30051,31048,0.00022999999999999998,4e-05,1e-05,5.9999999999999995e-05,-0.00011,-0.00074,-0.00016999999999999999,-0.00011,6
30052,31049,0.00022999999999999998,4e-05,1e-05,5.9999999999999995e-05,-0.00011,-0.00074,-0.00016999999999999999,-0.00011,6
30053,31050,0.00022999999999999998,4e-05,1e-05,5.9999999999999995e-05,-0.00011,-0.00074,-0.00016999999999999999,-0.00011,6
30054,31051,0.00022999999999999998,4e-05,1e-05,5.9999999999999995e-05,-0.00011,-0.00074,-0.00016999999999999999,-0.00011,6
30055,31052,0.00022999999999999998,4e-05,1e-05,5.9999999999999995e-05,-0.00011,-0.00074,-0.00016999999999999999,-0.00011,6
30056,31053,0.00022999999999999998,4e-05,1e-05,5.9999999999999995e-05,-0.00011,-0.00074,-0.00016999999999999999,-0.00011,6
30057,31054,0.00022999999999999998,4e-05,1e-05,5.9999999999999995e-05,-0.00011,-0.00074,-0.00016999999999999999,-0.00011,6
30058,31055,0.00022999999999999998,4e-05,1e-05,5.9999999999999995e-05,-0.00011,-0.00074,-0.00016999999999999999,-0.00011,6
30059,31056,0.00022999999999999998,4e-05,1e-05,5.9999999999999995e-05,-0.00011,-0.00074,-0.00016999999999999999,-0.00011,6
30060,31057,0.00022999999999999998,4e-05,1e-05,5.9999999999999995e-05,-0.00011,-0.00074,-0.00016999999999999999,-0.00011,6
30061,31058,0.00022999999999999998,4e-05,1e-05,5.9999999999999995e-05,-0.00011,-0.00074,-0.00016999999999999999,-0.00011,6
30062,31059,0.00022999999999999998,4e-05,1e-05,5.9999999999999995e-05,-0.00011,-0.00074,-0.00016999999999999999,-0.00011,6
30063,31060,0.00022999999999999998,4e-05,1e-05,5.9999999999999995e-05,-0.00011,-0.00074,-0.00016999999999999999,-0.00011,6
30064,31061,-0.00011999999999999999,1e-05,-1e-05,-0.00018,4e-05,-0.0006799999999999999,0.00014,-0.0003,6
30065,31062,-0.00021,0.0,2e-05,5e-05,0.00067,0.00027,0.00036,0.0001,6
30066,31063,-0.00021,0.0,2e-05,5e-05,0.00067,0.00027,0.00036,0.0001,6
30067,31064,-0.00021,0.0,2e-05,5e-05,0.00067,0.00027,0.00036,0.0001,6
30068,31065,-0.00021,0.0,2e-05,5e-05,0.00067,0.00027,0.00036,0.0001,6
30069,31066,-0.00021,0.0,2e-05,5e-05,0.00067,0.00027,0.00036,0.0001,6
30070,31067,-0.00021,0.0,2e-05,5e-05,0.00067,0.00027,0.00036,0.0001,6
30071,31068,-0.00021,0.0,2e-05,5e-05,0.00067,0.00027,0.00036,0.0001,6
30072,31069,-0.00021,0.0,2e-05,5e-05,0.00067,0.00027,0.00036,0.0001,6
30073,31070,-0.00021,0.0,2e-05,5e-05,0.00067,0.00027,0.00036,0.0001,6
30074,31071,-0.00021,0.0,2e-05,5e-05,0.00067,0.00027,0.00036,0.0001,6
30075,31072,-0.00021,0.0,2e-05,5e-05,0.00067,0.00027,0.00036,0.0001,6
30076,31073,-0.00021,0.0,2e-05,5e-05,0.00067,0.00027,0.00036,0.0001,6
30077,31074,-0.00021,0.0,2e-05,5e-05,0.00067,0.00027,0.00036,0.0001,6
30078,31075,-0.00021,0.0,2e-05,5e-05,0.00067,0.00027,0.00036,0.0001,6
30079,31076,-0.00021,0.0,2e-05,5e-05,0.00067,0.00027,0.00036,0.0001,6
30080,31077,-0.00021,0.0,2e-05,5e-05,0.00067,0.00027,0.00036,0.0001,6
30081,31078,-0.00021,0.0,2e-05,5e-05,0.00067,0.00027,0.00036,0.0001,6
30082,31079,-0.00021,0.0,2e-05,5e-05,0.00067,0.00027,0.00036,0.0001,6
30083,31080,-0.00021,0.0,2e-05,5e-05,0.00067,0.00027,0.00036,0.0001,6
30084,31081,-0.00021,0.0,2e-05,5e-05,0.00067,0.00027,0.00036,0.0001,6
30085,31082,-0.00021,0.0,2e-05,5e-05,0.00067,0.00027,0.00036,0.0001,6
30086,31083,0.00013000000000000002,1e-05,0.0,-2e-05,0.00022,0.00061,9e-05,0.00023999999999999998,6
30087,31084,9e-05,1e-05,-2e-05,-1e-05,9e-05,-0.0001,-0.00025,-7e-05,6
30088,31085,0.0003,2e-05,-1e-05,-0.0002,-0.00128,-0.00053,0.00018,0.00027,6
30089,31086,0.0003,2e-05,-1e-05,-0.0002,-0.00128,-0.00053,0.00018,0.00027,6
30090,31088,0.0003,2e-05,-1e-05,-0.0002,-0.00128,-0.00053,0.00018,0.00027,6
30091,31089,0.0003,2e-05,-1e-05,-0.0002,-0.00128,-0.00053,0.00018,0.00027,6
30092,31090,-0.00013000000000000002,2.9999999999999997e-05,0.0,5.9999999999999995e-05,0.0002,0.00014,-0.0001,0.0,6
30093,31091,-0.00013000000000000002,2.9999999999999997e-05,0.0,5.9999999999999995e-05,0.0002,0.00014,-0.0001,0.0,6
30094,31092,-0.00013000000000000002,2.9999999999999997e-05,0.0,5.9999999999999995e-05,0.0002,0.00014,-0.0001,0.0,6
30095,31093,-0.00013000000000000002,2.9999999999999997e-05,0.0,5.9999999999999995e-05,0.0002,0.00014,-0.0001,0.0,6
30096,31094,-0.00013000000000000002,2.9999999999999997e-05,0.0,5.9999999999999995e-05,0.0002,0.00014,-0.0001,0.0,6
30097,31095,-0.00013000000000000002,2.9999999999999997e-05,0.0,5.9999999999999995e-05,0.0002,0.00014,-0.0001,0.0,6
30098,31096,-0.00013000000000000002,2.9999999999999997e-05,0.0,5.9999999999999995e-05,0.0002,0.00014,-0.0001,0.0,6
30099,31097,-0.0001,-9e-05,-5.9999999999999995e-05,-0.00014,-0.00021,7e-05,-4e-05,-0.00036,6
30100,31098,-0.0001,-9e-05,-5.9999999999999995e-05,-0.00014,-0.00021,7e-05,-4e-05,-0.00036,6
30101,31099,-0.0001,-9e-05,-5.9999999999999995e-05,-0.00014,-0.00021,7e-05,-4e-05,-0.00036,6
30102,31100,-0.0001,-9e-05,-5.9999999999999995e-05,-0.00014,-0.00021,7e-05,-4e-05,-0.00036,6
30103,31101,-0.0001,-9e-05,-5.9999999999999995e-05,-0.00014,-0.00021,7e-05,-4e-05,-0.00036,6
30104,31102,-0.0001,-9e-05,-5.9999999999999995e-05,-0.00014,-0.00021,7e-05,-4e-05,-0.00036,6
30105,31103,-0.0001,-9e-05,-5.9999999999999995e-05,-0.00014,-0.00021,7e-05,-4e-05,-0.00036,6
30106,31104,-0.0001,-9e-05,-5.9999999999999995e-05,-0.00014,-0.00021,7e-05,-4e-05,-0.00036,6
30107,31105,-0.0001,-9e-05,-5.9999999999999995e-05,-0.00014,-0.00021,7e-05,-4e-05,-0.00036,6
30108,31106,-0.0001,-9e-05,-5.9999999999999995e-05,-0.00014,-0.00021,7e-05,-4e-05,-0.00036,6
30109,31107,-0.0001,-9e-05,-5.9999999999999995e-05,-0.00014,-0.00021,7e-05,-4e-05,-0.00036,6
30110,31108,-0.0001,-9e-05,-5.9999999999999995e-05,-0.00014,-0.00021,7e-05,-4e-05,-0.00036,6
30111,31109,-0.0001,-9e-05,-5.9999999999999995e-05,-0.00014,-0.00021,7e-05,-4e-05,-0.00036,6
30112,31110,-0.0001,-9e-05,-5.9999999999999995e-05,-0.00014,-0.00021,7e-05,-4e-05,-0.00036,6
30113,31111,-0.0001,-9e-05,-5.9999999999999995e-05,-0.00014,-0.00021,7e-05,-4e-05,-0.00036,6
30114,31112,-0.0001,-9e-05,-5.9999999999999995e-05,-0.00014,-0.00021,7e-05,-4e-05,-0.00036,6
30115,31113,-7e-05,-5e-05,-2.9999999999999997e-05,-0.00013000000000000002,-0.00028,-0.00049,-1e-05,2e-05,6
30116,31114,-7e-05,-5e-05,-2.9999999999999997e-05,-0.00013000000000000002,-0.00028,-0.00049,-1e-05,2e-05,6
30117,31115,4e-05,4e-05,0.0,-1e-05,0.00044,-0.00049,-2e-05,-0.0007099999999999999,6
30118,31117,4e-05,4e-05,0.0,-1e-05,0.00044,-0.00049,-2e-05,-0.0007099999999999999,6
30119,31118,4e-05,4e-05,0.0,-1e-05,0.00044,-0.00049,-2e-05,-0.0007099999999999999,6
30120,31119,4e-05,4e-05,0.0,-1e-05,0.00044,-0.00049,-2e-05,-0.0007099999999999999,6
30121,31120,4e-05,4e-05,0.0,-1e-05,0.00044,-0.00049,-2e-05,-0.0007099999999999999,6
30122,31121,4e-05,4e-05,0.0,-1e-05,0.00044,-0.00049,-2e-05,-0.0007099999999999999,6
30123,31122,4e-05,4e-05,0.0,-1e-05,0.00044,-0.00049,-2e-05,-0.0007099999999999999,6
30124,31123,4e-05,4e-05,0.0,-1e-05,0.00044,-0.00049,-2e-05,-0.0007099999999999999,6
30125,31124,4e-05,4e-05,0.0,-1e-05,0.00044,-0.00049,-2e-05,-0.0007099999999999999,6
30126,31125,4e-05,4e-05,0.0,-1e-05,0.00044,-0.00049,-2e-05,-0.0007099999999999999,6
30127,31126,4e-05,4e-05,0.0,-1e-05,0.00044,-0.00049,-2e-05,-0.0007099999999999999,6
30128,31127,4e-05,4e-05,0.0,-1e-05,0.00044,-0.00049,-2e-05,-0.0007099999999999999,6
30129,31128,4e-05,4e-05,0.0,-1e-05,0.00044,-0.00049,-2e-05,-0.0007099999999999999,6
30130,31129,4e-05,4e-05,0.0,-1e-05,0.00044,-0.00049,-2e-05,-0.0007099999999999999,6
30131,31130,4e-05,4e-05,0.0,-1e-05,0.00044,-0.00049,-2e-05,-0.0007099999999999999,6
30132,31131,4e-05,4e-05,0.0,-1e-05,0.00044,-0.00049,-2e-05,-0.0007099999999999999,6
30133,31132,4e-05,4e-05,0.0,-1e-05,0.00044,-0.00049,-2e-05,-0.0007099999999999999,6
30134,31133,4e-05,4e-05,0.0,-1e-05,0.00044,-0.00049,-2e-05,-0.0007099999999999999,6
30135,31134,4e-05,4e-05,0.0,-1e-05,0.00044,-0.00049,-2e-05,-0.0007099999999999999,6
30136,31135,4e-05,4e-05,0.0,-1e-05,0.00044,-0.00049,-2e-05,-0.0007099999999999999,6
30137,31136,0.00016,4e-05,5.9999999999999995e-05,0.00022999999999999998,-0.0007099999999999999,-0.00018,-0.00011999999999999999,0.00044,6
30138,31138,0.0,0.0,2.9999999999999997e-05,8e-05,0.00037,0.00039,4e-05,0.00045999999999999996,6
30139,31139,0.0,0.0,2.9999999999999997e-05,8e-05,0.00037,0.00039,4e-05,0.00045999999999999996,6
30140,31140,0.0,0.0,2.9999999999999997e-05,8e-05,0.00037,0.00039,4e-05,0.00045999999999999996,6
30141,31141,0.0,0.0,2.9999999999999997e-05,8e-05,0.00037,0.00039,4e-05,0.00045999999999999996,6
30142,31142,0.0,0.0,2.9999999999999997e-05,8e-05,0.00037,0.00039,4e-05,0.00045999999999999996,6
30143,31143,0.0,0.0,2.9999999999999997e-05,8e-05,0.00037,0.00039,4e-05,0.00045999999999999996,6
30144,31144,0.0,0.0,2.9999999999999997e-05,8e-05,0.00037,0.00039,4e-05,0.00045999999999999996,6
30145,31145,0.0,0.0,2.9999999999999997e-05,8e-05,0.00037,0.00039,4e-05,0.00045999999999999996,6
30146,31146,0.0,0.0,2.9999999999999997e-05,8e-05,0.00037,0.00039,4e-05,0.00045999999999999996,6
30147,31147,0.0,0.0,2.9999999999999997e-05,8e-05,0.00037,0.00039,4e-05,0.00045999999999999996,6
30148,31148,0.0,0.0,2.9999999999999997e-05,8e-05,0.00037,0.00039,4e-05,0.00045999999999999996,6
30149,31149,0.0,0.0,2.9999999999999997e-05,8e-05,0.00037,0.00039,4e-05,0.00045999999999999996,6
30150,31150,4e-05,2e-05,-1e-05,5.9999999999999995e-05,0.00044,4e-05,-0.0001,-0.00053,6
30151,31151,4e-05,2e-05,-1e-05,5.9999999999999995e-05,0.00044,4e-05,-0.0001,-0.00053,6
30152,31152,4e-05,2e-05,-1e-05,5.9999999999999995e-05,0.00044,4e-05,-0.0001,-0.00053,6
30153,31153,4e-05,2e-05,-1e-05,5.9999999999999995e-05,0.00044,4e-05,-0.0001,-0.00053,6
30154,31154,4e-05,2e-05,-1e-05,5.9999999999999995e-05,0.00044,4e-05,-0.0001,-0.00053,6
30155,31155,4e-05,2e-05,-1e-05,5.9999999999999995e-05,0.00044,4e-05,-0.0001,-0.00053,6
30156,31156,4e-05,2e-05,-1e-05,5.9999999999999995e-05,0.00044,4e-05,-0.0001,-0.00053,6
30157,31157,4e-05,2e-05,-1e-05,5.9999999999999995e-05,0.00044,4e-05,-0.0001,-0.00053,6
30158,31158,4e-05,2e-05,-1e-05,5.9999999999999995e-05,0.00044,4e-05,-0.0001,-0.00053,6
30159,31159,4e-05,2e-05,-1e-05,5.9999999999999995e-05,0.00044,4e-05,-0.0001,-0.00053,6
30160,31160,4e-05,2e-05,-1e-05,5.9999999999999995e-05,0.00044,4e-05,-0.0001,-0.00053,6
30161,31161,4e-05,2e-05,-1e-05,5.9999999999999995e-05,0.00044,4e-05,-0.0001,-0.00053,6
30162,31162,4e-05,2e-05,-1e-05,5.9999999999999995e-05,0.00044,4e-05,-0.0001,-0.00053,6
30163,31164,4e-05,2e-05,-1e-05,5.9999999999999995e-05,0.00044,4e-05,-0.0001,-0.00053,6
30164,31165,2.9999999999999997e-05,0.0,-2e-05,-7e-05,-0.00011999999999999999,0.00062,-1e-05,-0.00015,6
30165,31166,2.9999999999999997e-05,0.0,-2e-05,-7e-05,-0.00011999999999999999,0.00062,-1e-05,-0.00015,6
30166,31167,2.9999999999999997e-05,0.0,-2e-05,-7e-05,-0.00011999999999999999,0.00062,-1e-05,-0.00015,6
30167,31168,2.9999999999999997e-05,0.0,-2e-05,-7e-05,-0.00011999999999999999,0.00062,-1e-05,-0.00015,6
30168,31169,2.9999999999999997e-05,0.0,-2e-05,-7e-05,-0.00011999999999999999,0.00062,-1e-05,-0.00015,6
30169,31170,2.9999999999999997e-05,0.0,-2e-05,-7e-05,-0.00011999999999999999,0.00062,-1e-05,-0.00015,6
30170,31171,2.9999999999999997e-05,0.0,-2e-05,-7e-05,-0.00011999999999999999,0.00062,-1e-05,-0.00015,6
30171,31172,2.9999999999999997e-05,0.0,-2e-05,-7e-05,-0.00011999999999999999,0.00062,-1e-05,-0.00015,6
30172,31173,-9e-05,-7e-05,-1e-05,0.00013000000000000002,-0.00028,0.00032,0.00035,0.00041,6
30173,31174,-9e-05,-7e-05,-1e-05,0.00013000000000000002,-0.00028,0.00032,0.00035,0.00041,6
30174,31175,-9e-05,-7e-05,-1e-05,0.00013000000000000002,-0.00028,0.00032,0.00035,0.00041,6
30175,31176,-9e-05,-7e-05,-1e-05,0.00013000000000000002,-0.00028,0.00032,0.00035,0.00041,6
30176,31177,-9e-05,-7e-05,-1e-05,0.00013000000000000002,-0.00028,0.00032,0.00035,0.00041,6
30177,31178,-9e-05,-7e-05,-1e-05,0.00013000000000000002,-0.00028,0.00032,0.00035,0.00041,6
30178,31179,-9e-05,-7e-05,-1e-05,0.00013000000000000002,-0.00028,0.00032,0.00035,0.00041,6
30179,31180,-9e-05,-7e-05,-1e-05,0.00013000000000000002,-0.00028,0.00032,0.00035,0.00041,6
30180,31181,-9e-05,-7e-05,-1e-05,0.00013000000000000002,-0.00028,0.00032,0.00035,0.00041,6
30181,31182,-9e-05,-7e-05,-1e-05,0.00013000000000000002,-0.00028,0.00032,0.00035,0.00041,6
30182,31183,-9e-05,-7e-05,-1e-05,0.00013000000000000002,-0.00028,0.00032,0.00035,0.00041,6
30183,31184,-9e-05,-7e-05,-1e-05,0.00013000000000000002,-0.00028,0.00032,0.00035,0.00041,6
30184,31185,-9e-05,-7e-05,-1e-05,0.00013000000000000002,-0.00028,0.00032,0.00035,0.00041,6
30185,31186,-9e-05,-7e-05,-1e-05,0.00013000000000000002,-0.00028,0.00032,0.00035,0.00041,6
30186,31188,-9e-05,-7e-05,-1e-05,0.00013000000000000002,-0.00028,0.00032,0.00035,0.00041,6
30187,31189,-9e-05,-7e-05,-1e-05,0.00013000000000000002,-0.00028,0.00032,0.00035,0.00041,6
30188,31190,-9e-05,-7e-05,-1e-05,0.00013000000000000002,-0.00028,0.00032,0.00035,0.00041,6
30189,31191,-9e-05,-7e-05,-1e-05,0.00013000000000000002,-0.00028,0.00032,0.00035,0.00041,6
30190,31192,-9e-05,-7e-05,-1e-05,0.00013000000000000002,-0.00028,0.00032,0.00035,0.00041,6
30191,31193,-9e-05,-7e-05,-1e-05,0.00013000000000000002,-0.00028,0.00032,0.00035,0.00041,6
30192,31194,-9e-05,-7e-05,-1e-05,0.00013000000000000002,-0.00028,0.00032,0.00035,0.00041,6
30193,31195,-0.00039,-0.0001,-7e-05,-0.00022,-0.00033999999999999997,-0.00035,-0.00013000000000000002,-0.00016,6
30194,31196,5e-05,4e-05,2.9999999999999997e-05,0.00025,0.0007,0.00037999999999999997,-0.00015,-0.00032,6
30195,31197,5e-05,4e-05,2.9999999999999997e-05,0.00025,0.0007,0.00037999999999999997,-0.00015,-0.00032,6
30196,31198,5e-05,4e-05,2.9999999999999997e-05,0.00025,0.0007,0.00037999999999999997,-0.00015,-0.00032,6
30197,31199,5e-05,4e-05,2.9999999999999997e-05,0.00025,0.0007,0.00037999999999999997,-0.00015,-0.00032,6
30198,31200,5e-05,4e-05,2.9999999999999997e-05,0.00025,0.0007,0.00037999999999999997,-0.00015,-0.00032,6
30199,31201,5e-05,4e-05,2.9999999999999997e-05,0.00025,0.0007,0.00037999999999999997,-0.00015,-0.00032,6
30200,31202,5e-05,4e-05,2.9999999999999997e-05,0.00025,0.0007,0.00037999999999999997,-0.00015,-0.00032,6
30201,31203,5e-05,4e-05,2.9999999999999997e-05,0.00025,0.0007,0.00037999999999999997,-0.00015,-0.00032,6
30202,31204,5e-05,4e-05,2.9999999999999997e-05,0.00025,0.0007,0.00037999999999999997,-0.00015,-0.00032,6
30203,31205,5e-05,4e-05,2.9999999999999997e-05,0.00025,0.0007,0.00037999999999999997,-0.00015,-0.00032,6
30204,31206,5e-05,4e-05,2.9999999999999997e-05,0.00025,0.0007,0.00037999999999999997,-0.00015,-0.00032,6
30205,31207,5e-05,4e-05,2.9999999999999997e-05,0.00025,0.0007,0.00037999999999999997,-0.00015,-0.00032,6
30206,31208,5e-05,4e-05,2.9999999999999997e-05,0.00025,0.0007,0.00037999999999999997,-0.00015,-0.00032,6
30207,31209,5e-05,4e-05,2.9999999999999997e-05,0.00025,0.0007,0.00037999999999999997,-0.00015,-0.00032,6
30208,31210,5e-05,4e-05,2.9999999999999997e-05,0.00025,0.0007,0.00037999999999999997,-0.00015,-0.00032,6
30209,31211,5e-05,4e-05,2.9999999999999997e-05,0.00025,0.0007,0.00037999999999999997,-0.00015,-0.00032,6
30210,31212,5e-05,4e-05,2.9999999999999997e-05,0.00025,0.0007,0.00037999999999999997,-0.00015,-0.00032,6
30211,31213,5e-05,4e-05,2.9999999999999997e-05,0.00025,0.0007,0.00037999999999999997,-0.00015,-0.00032,6
30212,31214,5e-05,4e-05,2.9999999999999997e-05,0.00025,0.0007,0.00037999999999999997,-0.00015,-0.00032,6
30213,31215,5e-05,4e-05,2.9999999999999997e-05,0.00025,0.0007,0.00037999999999999997,-0.00015,-0.00032,6
30214,31216,5e-05,4e-05,2.9999999999999997e-05,0.00025,0.0007,0.00037999999999999997,-0.00015,-0.00032,6
30215,31217,5e-05,4e-05,2.9999999999999997e-05,0.00025,0.0007,0.00037999999999999997,-0.00015,-0.00032,6
30216,31218,5e-05,4e-05,2.9999999999999997e-05,0.00025,0.0007,0.00037999999999999997,-0.00015,-0.00032,6
30217,31219,-0.00025,-1e-05,5e-05,-0.00011,-0.00021,-0.00021,-0.00014,-0.00025,6
30218,31220,-2.9999999999999997e-05,0.0,1e-05,7e-05,-0.0002,-0.00025,-0.00015,-0.00033999999999999997,6
30219,31221,-2.9999999999999997e-05,0.0,1e-05,7e-05,-0.0002,-0.00025,-0.00015,-0.00033999999999999997,6
30220,31222,-2.9999999999999997e-05,0.0,1e-05,7e-05,-0.0002,-0.00025,-0.00015,-0.00033999999999999997,6
30221,31223,-2.9999999999999997e-05,0.0,1e-05,7e-05,-0.0002,-0.00025,-0.00015,-0.00033999999999999997,6
30222,31224,-2.9999999999999997e-05,0.0,1e-05,7e-05,-0.0002,-0.00025,-0.00015,-0.00033999999999999997,6
30223,31225,-2.9999999999999997e-05,0.0,1e-05,7e-05,-0.0002,-0.00025,-0.00015,-0.00033999999999999997,6
30224,31226,-2.9999999999999997e-05,0.0,1e-05,7e-05,-0.0002,-0.00025,-0.00015,-0.00033999999999999997,6
30225,31227,-2.9999999999999997e-05,0.0,1e-05,7e-05,-0.0002,-0.00025,-0.00015,-0.00033999999999999997,6
30226,31228,-2.9999999999999997e-05,0.0,1e-05,7e-05,-0.0002,-0.00025,-0.00015,-0.00033999999999999997,6
30227,31229,-2.9999999999999997e-05,0.0,1e-05,7e-05,-0.0002,-0.00025,-0.00015,-0.00033999999999999997,6
30228,31230,-2.9999999999999997e-05,0.0,1e-05,7e-05,-0.0002,-0.00025,-0.00015,-0.00033999999999999997,6
30229,31231,-2.9999999999999997e-05,0.0,1e-05,7e-05,-0.0002,-0.00025,-0.00015,-0.00033999999999999997,6
30230,31232,0.00047999999999999996,0.0,-1e-05,0.00013000000000000002,-0.00045,-0.0002,-1e-05,-5.9999999999999995e-05,6
30231,31234,-8e-05,-2e-05,1e-05,-2.9999999999999997e-05,-0.00039,-0.00027,-0.00025,0.00016999999999999999,6
30232,31235,-8e-05,-2e-05,1e-05,-2.9999999999999997e-05,-0.00039,-0.00027,-0.00025,0.00016999999999999999,6
30233,31236,-8e-05,-2e-05,1e-05,-2.9999999999999997e-05,-0.00039,-0.00027,-0.00025,0.00016999999999999999,6
30234,31238,-8e-05,-2e-05,1e-05,-2.9999999999999997e-05,-0.00039,-0.00027,-0.00025,0.00016999999999999999,6
30235,31239,-8e-05,-2e-05,1e-05,-2.9999999999999997e-05,-0.00039,-0.00027,-0.00025,0.00016999999999999999,6
30236,31240,-8e-05,-2e-05,1e-05,-2.9999999999999997e-05,-0.00039,-0.00027,-0.00025,0.00016999999999999999,6
30237,31241,-8e-05,-2e-05,1e-05,-2.9999999999999997e-05,-0.00039,-0.00027,-0.00025,0.00016999999999999999,6
30238,31242,-8e-05,-2e-05,1e-05,-2.9999999999999997e-05,-0.00039,-0.00027,-0.00025,0.00016999999999999999,6
30239,31243,-8e-05,-2e-05,1e-05,-2.9999999999999997e-05,-0.00039,-0.00027,-0.00025,0.00016999999999999999,6
30240,31244,-8e-05,-2e-05,1e-05,-2.9999999999999997e-05,-0.00039,-0.00027,-0.00025,0.00016999999999999999,6
30241,31245,-8e-05,-2e-05,1e-05,-2.9999999999999997e-05,-0.00039,-0.00027,-0.00025,0.00016999999999999999,6
30242,31246,-8e-05,-2e-05,1e-05,-2.9999999999999997e-05,-0.00039,-0.00027,-0.00025,0.00016999999999999999,6
30243,31247,-8e-05,-2e-05,1e-05,-2.9999999999999997e-05,-0.00039,-0.00027,-0.00025,0.00016999999999999999,6
30244,31248,-8e-05,-2e-05,1e-05,-2.9999999999999997e-05,-0.00039,-0.00027,-0.00025,0.00016999999999999999,6
30245,31249,-8e-05,-2e-05,1e-05,-2.9999999999999997e-05,-0.00039,-0.00027,-0.00025,0.00016999999999999999,6
30246,31250,-8e-05,-2e-05,1e-05,-2.9999999999999997e-05,-0.00039,-0.00027,-0.00025,0.00016999999999999999,6
30247,31251,-8e-05,-2e-05,1e-05,-2.9999999999999997e-05,-0.00039,-0.00027,-0.00025,0.00016999999999999999,6
30248,31252,-8e-05,-2e-05,1e-05,-2.9999999999999997e-05,-0.00039,-0.00027,-0.00025,0.00016999999999999999,6
30249,31253,-8e-05,-2e-05,1e-05,-2.9999999999999997e-05,-0.00039,-0.00027,-0.00025,0.00016999999999999999,6
30250,31254,-8e-05,-2e-05,1e-05,-2.9999999999999997e-05,-0.00039,-0.00027,-0.00025,0.00016999999999999999,6
30251,31255,-0.0001,-7e-05,-8e-05,-5.9999999999999995e-05,-0.00036,0.00016999999999999999,0.00022999999999999998,-0.00054,6
30252,31256,-0.00011999999999999999,8e-05,1e-05,-2.9999999999999997e-05,0.00018,-4e-05,-0.00015,0.00014,6
30253,31257,-0.00011999999999999999,8e-05,1e-05,-2.9999999999999997e-05,0.00018,-4e-05,-0.00015,0.00014,6
30254,31258,-0.00011999999999999999,8e-05,1e-05,-2.9999999999999997e-05,0.00018,-4e-05,-0.00015,0.00014,6
30255,31259,-0.00011999999999999999,8e-05,1e-05,-2.9999999999999997e-05,0.00018,-4e-05,-0.00015,0.00014,6
30256,31260,-0.00011999999999999999,8e-05,1e-05,-2.9999999999999997e-05,0.00018,-4e-05,-0.00015,0.00014,6
30257,31261,-0.00011999999999999999,8e-05,1e-05,-2.9999999999999997e-05,0.00018,-4e-05,-0.00015,0.00014,6
30258,31262,-0.00011999999999999999,8e-05,1e-05,-2.9999999999999997e-05,0.00018,-4e-05,-0.00015,0.00014,6
30259,31263,-0.00011999999999999999,8e-05,1e-05,-2.9999999999999997e-05,0.00018,-4e-05,-0.00015,0.00014,6
30260,31264,-0.00011999999999999999,8e-05,1e-05,-2.9999999999999997e-05,0.00018,-4e-05,-0.00015,0.00014,6
30261,31265,-0.00011999999999999999,8e-05,1e-05,-2.9999999999999997e-05,0.00018,-4e-05,-0.00015,0.00014,6
30262,31266,-0.00011999999999999999,8e-05,1e-05,-2.9999999999999997e-05,0.00018,-4e-05,-0.00015,0.00014,6
30263,31267,-0.00011999999999999999,8e-05,1e-05,-2.9999999999999997e-05,0.00018,-4e-05,-0.00015,0.00014,6
30264,31268,-0.00011999999999999999,8e-05,1e-05,-2.9999999999999997e-05,0.00018,-4e-05,-0.00015,0.00014,6
30265,31269,-0.00011999999999999999,8e-05,1e-05,-2.9999999999999997e-05,0.00018,-4e-05,-0.00015,0.00014,6
30266,31270,-0.00011999999999999999,8e-05,1e-05,-2.9999999999999997e-05,0.00018,-4e-05,-0.00015,0.00014,6
30267,31271,-0.00011999999999999999,8e-05,1e-05,-2.9999999999999997e-05,0.00018,-4e-05,-0.00015,0.00014,6
30268,31272,-0.00011999999999999999,8e-05,1e-05,-2.9999999999999997e-05,0.00018,-4e-05,-0.00015,0.00014,6
30269,31273,-0.00011999999999999999,8e-05,1e-05,-2.9999999999999997e-05,0.00018,-4e-05,-0.00015,0.00014,6
30270,31274,-0.00011999999999999999,8e-05,1e-05,-2.9999999999999997e-05,0.00018,-4e-05,-0.00015,0.00014,6
30271,31275,-0.00011999999999999999,8e-05,1e-05,-2.9999999999999997e-05,0.00018,-4e-05,-0.00015,0.00014,6
30272,31276,-0.00011999999999999999,8e-05,1e-05,-2.9999999999999997e-05,0.00018,-4e-05,-0.00015,0.00014,6
30273,31277,-0.00011999999999999999,8e-05,1e-05,-2.9999999999999997e-05,0.00018,-4e-05,-0.00015,0.00014,6
30274,31278,0.00015,4e-05,4e-05,0.00022,4e-05,-0.00016999999999999999,-0.0001,-0.00044,6
30275,31279,-0.00011,-7e-05,-2.9999999999999997e-05,-4e-05,-0.0005200000000000001,-0.00022,-0.00021,-0.00027,6
30276,31280,-0.00011,-7e-05,-2.9999999999999997e-05,-4e-05,-0.0005200000000000001,-0.00022,-0.00021,-0.00027,6
30277,31281,-0.00011,-7e-05,-2.9999999999999997e-05,-4e-05,-0.0005200000000000001,-0.00022,-0.00021,-0.00027,6
30278,31282,-0.00011,-7e-05,-2.9999999999999997e-05,-4e-05,-0.0005200000000000001,-0.00022,-0.00021,-0.00027,6
30279,31283,-0.00011,-7e-05,-2.9999999999999997e-05,-4e-05,-0.0005200000000000001,-0.00022,-0.00021,-0.00027,6
30280,31284,-0.00011,-7e-05,-2.9999999999999997e-05,-4e-05,-0.0005200000000000001,-0.00022,-0.00021,-0.00027,6
30281,31285,-0.00011,-7e-05,-2.9999999999999997e-05,-4e-05,-0.0005200000000000001,-0.00022,-0.00021,-0.00027,6
30282,31286,-0.00011,-7e-05,-2.9999999999999997e-05,-4e-05,-0.0005200000000000001,-0.00022,-0.00021,-0.00027,6
30283,31288,-0.00011,-7e-05,-2.9999999999999997e-05,-4e-05,-0.0005200000000000001,-0.00022,-0.00021,-0.00027,6
30284,31289,-0.00011,-7e-05,-2.9999999999999997e-05,-4e-05,-0.0005200000000000001,-0.00022,-0.00021,-0.00027,6
30285,31290,-0.00011,-7e-05,-2.9999999999999997e-05,-4e-05,-0.0005200000000000001,-0.00022,-0.00021,-0.00027,6
30286,31291,-0.00011,-7e-05,-2.9999999999999997e-05,-4e-05,-0.0005200000000000001,-0.00022,-0.00021,-0.00027,6
30287,31292,-0.00011,-7e-05,-2.9999999999999997e-05,-4e-05,-0.0005200000000000001,-0.00022,-0.00021,-0.00027,6
30288,31293,-8e-05,-5e-05,-2e-05,1e-05,-8e-05,-0.00064,-0.00014,2.9999999999999997e-05,6
30289,31294,0.00021,4e-05,5e-05,4e-05,0.00047999999999999996,-0.00032,0.0001,0.00018,6
30290,31295,0.00021,4e-05,5e-05,4e-05,0.00047999999999999996,-0.00032,0.0001,0.00018,6
30291,31296,0.00021,4e-05,5e-05,4e-05,0.00047999999999999996,-0.00032,0.0001,0.00018,6
30292,31297,0.00021,4e-05,5e-05,4e-05,0.00047999999999999996,-0.00032,0.0001,0.00018,6
30293,31298,0.00021,4e-05,5e-05,4e-05,0.00047999999999999996,-0.00032,0.0001,0.00018,6
30294,31299,0.00021,4e-05,5e-05,4e-05,0.00047999999999999996,-0.00032,0.0001,0.00018,6
30295,31300,0.00021,4e-05,5e-05,4e-05,0.00047999999999999996,-0.00032,0.0001,0.00018,6
30296,31301,0.00021,4e-05,5e-05,4e-05,0.00047999999999999996,-0.00032,0.0001,0.00018,6
30297,31302,0.00021,4e-05,5e-05,4e-05,0.00047999999999999996,-0.00032,0.0001,0.00018,6
30298,31303,0.00021,4e-05,5e-05,4e-05,0.00047999999999999996,-0.00032,0.0001,0.00018,6
30299,31304,0.00021,4e-05,5e-05,4e-05,0.00047999999999999996,-0.00032,0.0001,0.00018,6
30300,31305,0.00021,4e-05,5e-05,4e-05,0.00047999999999999996,-0.00032,0.0001,0.00018,6
30301,31306,0.00021,4e-05,5e-05,4e-05,0.00047999999999999996,-0.00032,0.0001,0.00018,6
30302,31307,0.00021,4e-05,5e-05,4e-05,0.00047999999999999996,-0.00032,0.0001,0.00018,6
30303,31308,0.00021,4e-05,5e-05,4e-05,0.00047999999999999996,-0.00032,0.0001,0.00018,6
30304,31309,0.00021,4e-05,5e-05,4e-05,0.00047999999999999996,-0.00032,0.0001,0.00018,6
30305,31310,0.00021,4e-05,5e-05,4e-05,0.00047999999999999996,-0.00032,0.0001,0.00018,6
30306,31311,0.00021,4e-05,5e-05,4e-05,0.00047999999999999996,-0.00032,0.0001,0.00018,6
30307,31312,0.00021,4e-05,5e-05,4e-05,0.00047999999999999996,-0.00032,0.0001,0.00018,6
30308,31313,0.00021,4e-05,5e-05,4e-05,0.00047999999999999996,-0.00032,0.0001,0.00018,6
30309,31314,0.00021,4e-05,5e-05,4e-05,0.00047999999999999996,-0.00032,0.0001,0.00018,6
30310,31315,-0.00023999999999999998,0.0,8e-05,0.00011,0.00063,0.00039,5.9999999999999995e-05,-0.00035,6
30311,31316,-0.00028,-9e-05,-0.00011999999999999999,-0.00016999999999999999,-0.00026000000000000003,0.00026000000000000003,-8e-05,-0.00022999999999999998,6
30312,31317,-0.00028,-9e-05,-0.00011999999999999999,-0.00016999999999999999,-0.00026000000000000003,0.00026000000000000003,-8e-05,-0.00022999999999999998,6
30313,31318,-0.00028,-9e-05,-0.00011999999999999999,-0.00016999999999999999,-0.00026000000000000003,0.00026000000000000003,-8e-05,-0.00022999999999999998,6
30314,31319,-0.00028,-9e-05,-0.00011999999999999999,-0.00016999999999999999,-0.00026000000000000003,0.00026000000000000003,-8e-05,-0.00022999999999999998,6
30315,31320,-0.00028,-9e-05,-0.00011999999999999999,-0.00016999999999999999,-0.00026000000000000003,0.00026000000000000003,-8e-05,-0.00022999999999999998,6
30316,31321,-0.00028,-9e-05,-0.00011999999999999999,-0.00016999999999999999,-0.00026000000000000003,0.00026000000000000003,-8e-05,-0.00022999999999999998,6
30317,31322,-0.00028,-9e-05,-0.00011999999999999999,-0.00016999999999999999,-0.00026000000000000003,0.00026000000000000003,-8e-05,-0.00022999999999999998,6
30318,31323,-0.00028,-9e-05,-0.00011999999999999999,-0.00016999999999999999,-0.00026000000000000003,0.00026000000000000003,-8e-05,-0.00022999999999999998,6
30319,31324,-0.00028,-9e-05,-0.00011999999999999999,-0.00016999999999999999,-0.00026000000000000003,0.00026000000000000003,-8e-05,-0.00022999999999999998,6
30320,31325,-0.00028,-9e-05,-0.00011999999999999999,-0.00016999999999999999,-0.00026000000000000003,0.00026000000000000003,-8e-05,-0.00022999999999999998,6
30321,31326,-0.00028,-9e-05,-0.00011999999999999999,-0.00016999999999999999,-0.00026000000000000003,0.00026000000000000003,-8e-05,-0.00022999999999999998,6
30322,31327,-0.00028,-9e-05,-0.00011999999999999999,-0.00016999999999999999,-0.00026000000000000003,0.00026000000000000003,-8e-05,-0.00022999999999999998,6
30323,31328,-0.00028,-9e-05,-0.00011999999999999999,-0.00016999999999999999,-0.00026000000000000003,0.00026000000000000003,-8e-05,-0.00022999999999999998,6
30324,31329,-0.00028,-9e-05,-0.00011999999999999999,-0.00016999999999999999,-0.00026000000000000003,0.00026000000000000003,-8e-05,-0.00022999999999999998,6
30325,31330,-0.00028,-9e-05,-0.00011999999999999999,-0.00016999999999999999,-0.00026000000000000003,0.00026000000000000003,-8e-05,-0.00022999999999999998,6
30326,31331,-0.00028,-9e-05,-0.00011999999999999999,-0.00016999999999999999,-0.00026000000000000003,0.00026000000000000003,-8e-05,-0.00022999999999999998,6
30327,31332,-0.00028,-9e-05,-0.00011999999999999999,-0.00016999999999999999,-0.00026000000000000003,0.00026000000000000003,-8e-05,-0.00022999999999999998,6
30328,31333,-0.00028,-9e-05,-0.00011999999999999999,-0.00016999999999999999,-0.00026000000000000003,0.00026000000000000003,-8e-05,-0.00022999999999999998,6
30329,31334,-0.00028,-9e-05,-0.00011999999999999999,-0.00016999999999999999,-0.00026000000000000003,0.00026000000000000003,-8e-05,-0.00022999999999999998,6
30330,31335,-0.00028,-9e-05,-0.00011999999999999999,-0.00016999999999999999,-0.00026000000000000003,0.00026000000000000003,-8e-05,-0.00022999999999999998,6
30331,31336,-0.00028,-9e-05,-0.00011999999999999999,-0.00016999999999999999,-0.00026000000000000003,0.00026000000000000003,-8e-05,-0.00022999999999999998,6
30332,31338,0.00022999999999999998,-5.9999999999999995e-05,-8e-05,-0.00026000000000000003,-0.00064,1e-05,7e-05,0.00025,6
30333,31339,-7e-05,-5.9999999999999995e-05,-4e-05,-5e-05,-5.9999999999999995e-05,-0.00064,-8e-05,-0.00103,6
30334,31340,-7e-05,-5.9999999999999995e-05,-4e-05,-5e-05,-5.9999999999999995e-05,-0.00064,-8e-05,-0.00103,6
30335,31341,-7e-05,-5.9999999999999995e-05,-4e-05,-5e-05,-5.9999999999999995e-05,-0.00064,-8e-05,-0.00103,6
30336,31342,-7e-05,-5.9999999999999995e-05,-4e-05,-5e-05,-5.9999999999999995e-05,-0.00064,-8e-05,-0.00103,6
30337,31343,-7e-05,-5.9999999999999995e-05,-4e-05,-5e-05,-5.9999999999999995e-05,-0.00064,-8e-05,-0.00103,6
30338,31344,-7e-05,-5.9999999999999995e-05,-4e-05,-5e-05,-5.9999999999999995e-05,-0.00064,-8e-05,-0.00103,6
30339,31345,-7e-05,-5.9999999999999995e-05,-4e-05,-5e-05,-5.9999999999999995e-05,-0.00064,-8e-05,-0.00103,6
30340,31346,-7e-05,-5.9999999999999995e-05,-4e-05,-5e-05,-5.9999999999999995e-05,-0.00064,-8e-05,-0.00103,6
30341,31347,-7e-05,-5.9999999999999995e-05,-4e-05,-5e-05,-5.9999999999999995e-05,-0.00064,-8e-05,-0.00103,6
30342,31348,-7e-05,-5.9999999999999995e-05,-4e-05,-5e-05,-5.9999999999999995e-05,-0.00064,-8e-05,-0.00103,6
30343,31349,-7e-05,-5.9999999999999995e-05,-4e-05,-5e-05,-5.9999999999999995e-05,-0.00064,-8e-05,-0.00103,6
30344,31350,-7e-05,-5.9999999999999995e-05,-4e-05,-5e-05,-5.9999999999999995e-05,-0.00064,-8e-05,-0.00103,6
30345,31351,-7e-05,-5.9999999999999995e-05,-4e-05,-5e-05,-5.9999999999999995e-05,-0.00064,-8e-05,-0.00103,6
30346,31352,-7e-05,-5.9999999999999995e-05,-4e-05,-5e-05,-5.9999999999999995e-05,-0.00064,-8e-05,-0.00103,6
30347,31353,-7e-05,-5.9999999999999995e-05,-4e-05,-5e-05,-5.9999999999999995e-05,-0.00064,-8e-05,-0.00103,6
30348,31354,-7e-05,-5.9999999999999995e-05,-4e-05,-5e-05,-5.9999999999999995e-05,-0.00064,-8e-05,-0.00103,6
30349,31355,-7e-05,-5.9999999999999995e-05,-4e-05,-5e-05,-5.9999999999999995e-05,-0.00064,-8e-05,-0.00103,6
30350,31356,-7e-05,-5.9999999999999995e-05,-4e-05,-5e-05,-5.9999999999999995e-05,-0.00064,-8e-05,-0.00103,6
30351,31357,-7e-05,-5.9999999999999995e-05,-4e-05,-5e-05,-5.9999999999999995e-05,-0.00064,-8e-05,-0.00103,6
30352,31358,-7e-05,-5.9999999999999995e-05,-4e-05,-5e-05,-5.9999999999999995e-05,-0.00064,-8e-05,-0.00103,6
30353,31359,-7e-05,-5.9999999999999995e-05,-4e-05,-5e-05,-5.9999999999999995e-05,-0.00064,-8e-05,-0.00103,6
30354,31360,-7e-05,-5.9999999999999995e-05,-4e-05,-5e-05,-5.9999999999999995e-05,-0.00064,-8e-05,-0.00103,6
30355,31361,0.00011999999999999999,-2.9999999999999997e-05,-5.9999999999999995e-05,-9e-05,-0.00122,0.00029,-8e-05,0.00015,6
30356,31362,0.00032,2.9999999999999997e-05,-2e-05,0.0,-1e-05,0.00011,2.9999999999999997e-05,9e-05,6
30357,31363,0.00032,2.9999999999999997e-05,-2e-05,0.0,-1e-05,0.00011,2.9999999999999997e-05,9e-05,6
30358,31364,0.00032,2.9999999999999997e-05,-2e-05,0.0,-1e-05,0.00011,2.9999999999999997e-05,9e-05,6
30359,31365,0.00032,2.9999999999999997e-05,-2e-05,0.0,-1e-05,0.00011,2.9999999999999997e-05,9e-05,6
30360,31366,0.00032,2.9999999999999997e-05,-2e-05,0.0,-1e-05,0.00011,2.9999999999999997e-05,9e-05,6
30361,31367,0.00032,2.9999999999999997e-05,-2e-05,0.0,-1e-05,0.00011,2.9999999999999997e-05,9e-05,6
30362,31368,0.00032,2.9999999999999997e-05,-2e-05,0.0,-1e-05,0.00011,2.9999999999999997e-05,9e-05,6
30363,31369,0.00032,2.9999999999999997e-05,-2e-05,0.0,-1e-05,0.00011,2.9999999999999997e-05,9e-05,6
30364,31370,0.00032,2.9999999999999997e-05,-2e-05,0.0,-1e-05,0.00011,2.9999999999999997e-05,9e-05,6
30365,31371,0.00032,2.9999999999999997e-05,-2e-05,0.0,-1e-05,0.00011,2.9999999999999997e-05,9e-05,6
30366,31372,0.00032,2.9999999999999997e-05,-2e-05,0.0,-1e-05,0.00011,2.9999999999999997e-05,9e-05,6
30367,31373,0.00032,2.9999999999999997e-05,-2e-05,0.0,-1e-05,0.00011,2.9999999999999997e-05,9e-05,6
30368,31374,0.00032,2.9999999999999997e-05,-2e-05,0.0,-1e-05,0.00011,2.9999999999999997e-05,9e-05,6
30369,31375,-0.00021,-8e-05,-5.9999999999999995e-05,-1e-05,-5.9999999999999995e-05,-0.00043,-7e-05,-1e-05,6
30370,31376,-5.9999999999999995e-05,2e-05,-2.9999999999999997e-05,-0.00011999999999999999,-0.00039,0.00045,2.9999999999999997e-05,-0.00057,6
30371,31377,-5.9999999999999995e-05,2e-05,-2.9999999999999997e-05,-0.00011999999999999999,-0.00039,0.00045,2.9999999999999997e-05,-0.00057,6
30372,31378,-5.9999999999999995e-05,2e-05,-2.9999999999999997e-05,-0.00011999999999999999,-0.00039,0.00045,2.9999999999999997e-05,-0.00057,6
30373,31379,-5.9999999999999995e-05,2e-05,-2.9999999999999997e-05,-0.00011999999999999999,-0.00039,0.00045,2.9999999999999997e-05,-0.00057,6
30374,31380,-5.9999999999999995e-05,2e-05,-2.9999999999999997e-05,-0.00011999999999999999,-0.00039,0.00045,2.9999999999999997e-05,-0.00057,6
30375,31381,-5.9999999999999995e-05,2e-05,-2.9999999999999997e-05,-0.00011999999999999999,-0.00039,0.00045,2.9999999999999997e-05,-0.00057,6
30376,31382,-5.9999999999999995e-05,2e-05,-2.9999999999999997e-05,-0.00011999999999999999,-0.00039,0.00045,2.9999999999999997e-05,-0.00057,6
30377,31383,-5.9999999999999995e-05,2e-05,-2.9999999999999997e-05,-0.00011999999999999999,-0.00039,0.00045,2.9999999999999997e-05,-0.00057,6
30378,31384,-5.9999999999999995e-05,2e-05,-2.9999999999999997e-05,-0.00011999999999999999,-0.00039,0.00045,2.9999999999999997e-05,-0.00057,6
30379,31385,-5.9999999999999995e-05,2e-05,-2.9999999999999997e-05,-0.00011999999999999999,-0.00039,0.00045,2.9999999999999997e-05,-0.00057,6
30380,31386,-5.9999999999999995e-05,2e-05,-2.9999999999999997e-05,-0.00011999999999999999,-0.00039,0.00045,2.9999999999999997e-05,-0.00057,6
30381,31388,-5.9999999999999995e-05,2e-05,-2.9999999999999997e-05,-0.00011999999999999999,-0.00039,0.00045,2.9999999999999997e-05,-0.00057,6
30382,31389,-5.9999999999999995e-05,2e-05,-2.9999999999999997e-05,-0.00011999999999999999,-0.00039,0.00045,2.9999999999999997e-05,-0.00057,6
30383,31390,0.00011,2e-05,-1e-05,-2.9999999999999997e-05,2e-05,-0.00045,0.00026000000000000003,0.00027,6
30384,31391,0.00011,2e-05,-1e-05,-2.9999999999999997e-05,2e-05,-0.00045,0.00026000000000000003,0.00027,6
30385,31392,0.00011,2e-05,-1e-05,-2.9999999999999997e-05,2e-05,-0.00045,0.00026000000000000003,0.00027,6
