,time,channel1,channel2,channel3,channel4,channel5,channel6,channel7,channel8,class
31774,32703,-0.00018999999999999998,7e-05,0.0001,5.9999999999999995e-05,-2e-05,0.00081,2e-05,-0.00045,6
31775,32704,-0.00018999999999999998,7e-05,0.0001,5.9999999999999995e-05,-2e-05,0.00081,2e-05,-0.00045,6
31776,32705,-0.00018999999999999998,7e-05,0.0001,5.9999999999999995e-05,-2e-05,0.00081,2e-05,-0.00045,6
31777,32706,-0.00018999999999999998,7e-05,0.0001,5.9999999999999995e-05,-2e-05,0.00081,2e-05,-0.00045,6
31778,32707,-0.00018999999999999998,7e-05,0.0001,5.9999999999999995e-05,-2e-05,0.00081,2e-05,-0.00045,6
31779,32708,-0.00018999999999999998,7e-05,0.0001,5.9999999999999995e-05,-2e-05,0.00081,2e-05,-0.00045,6
31780,32709,-7e-05,-4e-05,-9e-05,-0.0002,-0.00058,-0.00091,-5.9999999999999995e-05,-0.0009199999999999999,6
31781,32710,-7e-05,-4e-05,-9e-05,-0.0002,-0.00058,-0.00091,-5.9999999999999995e-05,-0.0009199999999999999,6
31782,32711,-7e-05,-4e-05,-9e-05,-0.0002,-0.00058,-0.00091,-5.9999999999999995e-05,-0.0009199999999999999,6
31783,32712,-7e-05,-4e-05,-9e-05,-0.0002,-0.00058,-0.00091,-5.9999999999999995e-05,-0.0009199999999999999,6
31784,32713,-7e-05,-4e-05,-9e-05,-0.0002,-0.00058,-0.00091,-5.9999999999999995e-05,-0.0009199999999999999,6
31785,32714,-7e-05,-4e-05,-9e-05,-0.0002,-0.00058,-0.00091,-5.9999999999999995e-05,-0.0009199999999999999,6
31786,32715,-7e-05,-4e-05,-9e-05,-0.0002,-0.00058,-0.00091,-5.9999999999999995e-05,-0.0009199999999999999,6
31787,32716,0.0002,0.00013000000000000002,-1e-05,0.00011,-2e-05,0.00015,0.00015,0.00023999999999999998,6
31788,32717,0.0002,0.00013000000000000002,-1e-05,0.00011,-2e-05,0.00015,0.00015,0.00023999999999999998,6
31789,32718,0.0002,0.00013000000000000002,-1e-05,0.00011,-2e-05,0.00015,0.00015,0.00023999999999999998,6
31790,32719,0.0002,0.00013000000000000002,-1e-05,0.00011,-2e-05,0.00015,0.00015,0.00023999999999999998,6
31791,32720,0.0002,0.00013000000000000002,-1e-05,0.00011,-2e-05,0.00015,0.00015,0.00023999999999999998,6
31792,32721,0.0002,0.00013000000000000002,-1e-05,0.00011,-2e-05,0.00015,0.00015,0.00023999999999999998,6
31793,32722,0.0002,0.00013000000000000002,-1e-05,0.00011,-2e-05,0.00015,0.00015,0.00023999999999999998,6
31794,32723,0.0002,0.00013000000000000002,-1e-05,0.00011,-2e-05,0.00015,0.00015,0.00023999999999999998,6
31795,32725,0.0002,0.00013000000000000002,-1e-05,0.00011,-2e-05,0.00015,0.00015,0.00023999999999999998,6
31796,32726,0.0002,0.00013000000000000002,-1e-05,0.00011,-2e-05,0.00015,0.00015,0.00023999999999999998,6
31797,32727,0.0002,0.00013000000000000002,-1e-05,0.00011,-2e-05,0.00015,0.00015,0.00023999999999999998,6
31798,32728,0.0002,0.00013000000000000002,-1e-05,0.00011,-2e-05,0.00015,0.00015,0.00023999999999999998,6
31799,32729,0.0002,0.00013000000000000002,-1e-05,0.00011,-2e-05,0.00015,0.00015,0.00023999999999999998,6
31800,32730,0.0002,0.00013000000000000002,-1e-05,0.00011,-2e-05,0.00015,0.00015,0.00023999999999999998,6
31801,32731,0.0002,0.00013000000000000002,-1e-05,0.00011,-2e-05,0.00015,0.00015,0.00023999999999999998,6
31802,32732,-0.00016,-2e-05,4e-05,0.00011,0.00043,0.00061,0.0003,0.0002,6
31803,32733,-0.00016,-2e-05,4e-05,0.00011,0.00043,0.00061,0.0003,0.0002,6
31804,32734,9e-05,-0.00018999999999999998,-0.00013000000000000002,-7e-05,0.00029,-0.0002,5.9999999999999995e-05,0.00018,6
31805,32735,9e-05,-0.00018999999999999998,-0.00013000000000000002,-7e-05,0.00029,-0.0002,5.9999999999999995e-05,0.00018,6
31806,32736,9e-05,-0.00018999999999999998,-0.00013000000000000002,-7e-05,0.00029,-0.0002,5.9999999999999995e-05,0.00018,6
31807,32738,9e-05,-0.00018999999999999998,-0.00013000000000000002,-7e-05,0.00029,-0.0002,5.9999999999999995e-05,0.00018,6
31808,32739,9e-05,-0.00018999999999999998,-0.00013000000000000002,-7e-05,0.00029,-0.0002,5.9999999999999995e-05,0.00018,6
31809,32740,9e-05,-0.00018999999999999998,-0.00013000000000000002,-7e-05,0.00029,-0.0002,5.9999999999999995e-05,0.00018,6
31810,32741,9e-05,-0.00018999999999999998,-0.00013000000000000002,-7e-05,0.00029,-0.0002,5.9999999999999995e-05,0.00018,6
31811,32742,9e-05,-0.00018999999999999998,-0.00013000000000000002,-7e-05,0.00029,-0.0002,5.9999999999999995e-05,0.00018,6
31812,32743,9e-05,-0.00018999999999999998,-0.00013000000000000002,-7e-05,0.00029,-0.0002,5.9999999999999995e-05,0.00018,6
31813,32744,9e-05,-0.00018999999999999998,-0.00013000000000000002,-7e-05,0.00029,-0.0002,5.9999999999999995e-05,0.00018,6
31814,32745,9e-05,-0.00018999999999999998,-0.00013000000000000002,-7e-05,0.00029,-0.0002,5.9999999999999995e-05,0.00018,6
31815,32746,9e-05,-0.00018999999999999998,-0.00013000000000000002,-7e-05,0.00029,-0.0002,5.9999999999999995e-05,0.00018,6
31816,32747,9e-05,-0.00018999999999999998,-0.00013000000000000002,-7e-05,0.00029,-0.0002,5.9999999999999995e-05,0.00018,6
31817,32748,9e-05,-0.00018999999999999998,-0.00013000000000000002,-7e-05,0.00029,-0.0002,5.9999999999999995e-05,0.00018,6
31818,32749,9e-05,-0.00018999999999999998,-0.00013000000000000002,-7e-05,0.00029,-0.0002,5.9999999999999995e-05,0.00018,6
31819,32750,9e-05,-0.00018999999999999998,-0.00013000000000000002,-7e-05,0.00029,-0.0002,5.9999999999999995e-05,0.00018,6
31820,32751,9e-05,-0.00018999999999999998,-0.00013000000000000002,-7e-05,0.00029,-0.0002,5.9999999999999995e-05,0.00018,6
31821,32752,9e-05,-0.00018999999999999998,-0.00013000000000000002,-7e-05,0.00029,-0.0002,5.9999999999999995e-05,0.00018,6
31822,32753,9e-05,-0.00018999999999999998,-0.00013000000000000002,-7e-05,0.00029,-0.0002,5.9999999999999995e-05,0.00018,6
31823,32754,-0.00043,-5e-05,-2.9999999999999997e-05,-0.00011,-0.00033,0.0006,0.00021,0.00026000000000000003,6
31824,32755,8e-05,-4e-05,2.9999999999999997e-05,0.00022,0.00014,0.00022,0.0005,0.0004,6
31825,32756,-0.00014,1e-05,1e-05,8e-05,0.0007099999999999999,0.00037999999999999997,-5.9999999999999995e-05,-2e-05,6
31826,32757,-0.00014,1e-05,1e-05,8e-05,0.0007099999999999999,0.00037999999999999997,-5.9999999999999995e-05,-2e-05,6
31827,32758,-0.00014,1e-05,1e-05,8e-05,0.0007099999999999999,0.00037999999999999997,-5.9999999999999995e-05,-2e-05,6
31828,32759,-0.00014,1e-05,1e-05,8e-05,0.0007099999999999999,0.00037999999999999997,-5.9999999999999995e-05,-2e-05,6
31829,32760,-0.00014,1e-05,1e-05,8e-05,0.0007099999999999999,0.00037999999999999997,-5.9999999999999995e-05,-2e-05,6
31830,32761,-0.00014,1e-05,1e-05,8e-05,0.0007099999999999999,0.00037999999999999997,-5.9999999999999995e-05,-2e-05,6
31831,32762,-0.00014,1e-05,1e-05,8e-05,0.0007099999999999999,0.00037999999999999997,-5.9999999999999995e-05,-2e-05,6
31832,32763,-0.00014,1e-05,1e-05,8e-05,0.0007099999999999999,0.00037999999999999997,-5.9999999999999995e-05,-2e-05,6
31833,32764,-0.00014,1e-05,1e-05,8e-05,0.0007099999999999999,0.00037999999999999997,-5.9999999999999995e-05,-2e-05,6
31834,32765,-0.00014,1e-05,1e-05,8e-05,0.0007099999999999999,0.00037999999999999997,-5.9999999999999995e-05,-2e-05,6
31835,32766,-0.00014,1e-05,1e-05,8e-05,0.0007099999999999999,0.00037999999999999997,-5.9999999999999995e-05,-2e-05,6
31836,32767,-0.00014,1e-05,1e-05,8e-05,0.0007099999999999999,0.00037999999999999997,-5.9999999999999995e-05,-2e-05,6
31837,32768,-0.00014,1e-05,1e-05,8e-05,0.0007099999999999999,0.00037999999999999997,-5.9999999999999995e-05,-2e-05,6
31838,32769,-8e-05,-0.00015,-8e-05,-5e-05,0.00022999999999999998,-0.0002,-8e-05,0.00016999999999999999,6
31839,32770,-8e-05,-0.00015,-8e-05,-5e-05,0.00022999999999999998,-0.0002,-8e-05,0.00016999999999999999,6
31840,32771,-8e-05,-0.00015,-8e-05,-5e-05,0.00022999999999999998,-0.0002,-8e-05,0.00016999999999999999,6
31841,32772,-8e-05,-0.00015,-8e-05,-5e-05,0.00022999999999999998,-0.0002,-8e-05,0.00016999999999999999,6
31842,32773,-8e-05,-0.00015,-8e-05,-5e-05,0.00022999999999999998,-0.0002,-8e-05,0.00016999999999999999,6
31843,32774,-8e-05,-0.00015,-8e-05,-5e-05,0.00022999999999999998,-0.0002,-8e-05,0.00016999999999999999,6
31844,32775,-8e-05,-0.00015,-8e-05,-5e-05,0.00022999999999999998,-0.0002,-8e-05,0.00016999999999999999,6
31845,32776,5e-05,-2.9999999999999997e-05,-1e-05,-5.9999999999999995e-05,-0.00045999999999999996,-0.00018999999999999998,-2e-05,0.00047999999999999996,6
31846,32777,5e-05,-2.9999999999999997e-05,-1e-05,-5.9999999999999995e-05,-0.00045999999999999996,-0.00018999999999999998,-2e-05,0.00047999999999999996,6
31847,32778,5e-05,-2.9999999999999997e-05,-1e-05,-5.9999999999999995e-05,-0.00045999999999999996,-0.00018999999999999998,-2e-05,0.00047999999999999996,6
31848,32779,5e-05,-2.9999999999999997e-05,-1e-05,-5.9999999999999995e-05,-0.00045999999999999996,-0.00018999999999999998,-2e-05,0.00047999999999999996,6
31849,32780,5e-05,-2.9999999999999997e-05,-1e-05,-5.9999999999999995e-05,-0.00045999999999999996,-0.00018999999999999998,-2e-05,0.00047999999999999996,6
31850,32781,5e-05,-2.9999999999999997e-05,-1e-05,-5.9999999999999995e-05,-0.00045999999999999996,-0.00018999999999999998,-2e-05,0.00047999999999999996,6
31851,32782,5e-05,-2.9999999999999997e-05,-1e-05,-5.9999999999999995e-05,-0.00045999999999999996,-0.00018999999999999998,-2e-05,0.00047999999999999996,6
31852,32783,5e-05,-2.9999999999999997e-05,-1e-05,-5.9999999999999995e-05,-0.00045999999999999996,-0.00018999999999999998,-2e-05,0.00047999999999999996,6
31853,32784,5e-05,-2.9999999999999997e-05,-1e-05,-5.9999999999999995e-05,-0.00045999999999999996,-0.00018999999999999998,-2e-05,0.00047999999999999996,6
31854,32785,5e-05,-2.9999999999999997e-05,-1e-05,-5.9999999999999995e-05,-0.00045999999999999996,-0.00018999999999999998,-2e-05,0.00047999999999999996,6
31855,32786,5e-05,-2.9999999999999997e-05,-1e-05,-5.9999999999999995e-05,-0.00045999999999999996,-0.00018999999999999998,-2e-05,0.00047999999999999996,6
31856,32788,5e-05,-2.9999999999999997e-05,-1e-05,-5.9999999999999995e-05,-0.00045999999999999996,-0.00018999999999999998,-2e-05,0.00047999999999999996,6
31857,32789,5e-05,-2.9999999999999997e-05,-1e-05,-5.9999999999999995e-05,-0.00045999999999999996,-0.00018999999999999998,-2e-05,0.00047999999999999996,6
31858,32790,5e-05,-2.9999999999999997e-05,-1e-05,-5.9999999999999995e-05,-0.00045999999999999996,-0.00018999999999999998,-2e-05,0.00047999999999999996,6
31859,32791,5e-05,-2.9999999999999997e-05,-1e-05,-5.9999999999999995e-05,-0.00045999999999999996,-0.00018999999999999998,-2e-05,0.00047999999999999996,6
31860,32792,-0.00031,-2.9999999999999997e-05,2e-05,7e-05,7e-05,-0.00061,-0.00022,-0.00066,6
31861,32793,-0.00031,-2.9999999999999997e-05,2e-05,7e-05,7e-05,-0.00061,-0.00022,-0.00066,6
31862,32794,-0.00031,-2.9999999999999997e-05,2e-05,7e-05,7e-05,-0.00061,-0.00022,-0.00066,6
31863,32795,-0.0001,9e-05,4e-05,-2e-05,-9e-05,0.00022,-0.00028,-0.00049,6
31864,32796,-0.0001,9e-05,4e-05,-2e-05,-9e-05,0.00022,-0.00028,-0.00049,6
31865,32797,-0.0001,9e-05,4e-05,-2e-05,-9e-05,0.00022,-0.00028,-0.00049,6
31866,32798,-0.0001,9e-05,4e-05,-2e-05,-9e-05,0.00022,-0.00028,-0.00049,6
31867,32799,-0.0001,9e-05,4e-05,-2e-05,-9e-05,0.00022,-0.00028,-0.00049,6
31868,32800,-0.0001,9e-05,4e-05,-2e-05,-9e-05,0.00022,-0.00028,-0.00049,6
31869,32801,-0.0001,9e-05,4e-05,-2e-05,-9e-05,0.00022,-0.00028,-0.00049,6
31870,32802,-0.0001,9e-05,4e-05,-2e-05,-9e-05,0.00022,-0.00028,-0.00049,6
31871,32803,-0.0001,9e-05,4e-05,-2e-05,-9e-05,0.00022,-0.00028,-0.00049,6
31872,32804,-0.0001,9e-05,4e-05,-2e-05,-9e-05,0.00022,-0.00028,-0.00049,6
31873,32805,-0.0001,9e-05,4e-05,-2e-05,-9e-05,0.00022,-0.00028,-0.00049,6
31874,32806,-0.0001,9e-05,4e-05,-2e-05,-9e-05,0.00022,-0.00028,-0.00049,6
31875,32807,-0.0001,9e-05,4e-05,-2e-05,-9e-05,0.00022,-0.00028,-0.00049,6
31876,32808,-0.0001,9e-05,4e-05,-2e-05,-9e-05,0.00022,-0.00028,-0.00049,6
31877,32809,-0.0001,9e-05,4e-05,-2e-05,-9e-05,0.00022,-0.00028,-0.00049,6
31878,32810,-0.0001,9e-05,4e-05,-2e-05,-9e-05,0.00022,-0.00028,-0.00049,6
31879,32811,-0.0001,9e-05,4e-05,-2e-05,-9e-05,0.00022,-0.00028,-0.00049,6
31880,32812,-0.0001,9e-05,4e-05,-2e-05,-9e-05,0.00022,-0.00028,-0.00049,6
31881,32813,-0.0001,9e-05,4e-05,-2e-05,-9e-05,0.00022,-0.00028,-0.00049,6
31882,32814,-0.0001,9e-05,4e-05,-2e-05,-9e-05,0.00022,-0.00028,-0.00049,6
31883,32815,0.00016,2.9999999999999997e-05,1e-05,-8e-05,-0.00026000000000000003,0.00031,2.9999999999999997e-05,0.0001,6
31884,32816,5e-05,5e-05,2e-05,5.9999999999999995e-05,0.00025,0.00021,0.0,0.00039,6
31885,32817,-0.0006900000000000001,-0.00021,-4e-05,-1e-05,-0.00022,-0.0010199999999999999,0.00018999999999999998,-0.00027,6
31886,32818,-0.0006900000000000001,-0.00021,-4e-05,-1e-05,-0.00022,-0.0010199999999999999,0.00018999999999999998,-0.00027,6
31887,32819,-0.0006900000000000001,-0.00021,-4e-05,-1e-05,-0.00022,-0.0010199999999999999,0.00018999999999999998,-0.00027,6
31888,32820,-0.0006900000000000001,-0.00021,-4e-05,-1e-05,-0.00022,-0.0010199999999999999,0.00018999999999999998,-0.00027,6
31889,32821,-0.0006900000000000001,-0.00021,-4e-05,-1e-05,-0.00022,-0.0010199999999999999,0.00018999999999999998,-0.00027,6
31890,32822,-0.0006900000000000001,-0.00021,-4e-05,-1e-05,-0.00022,-0.0010199999999999999,0.00018999999999999998,-0.00027,6
31891,32823,-0.0006900000000000001,-0.00021,-4e-05,-1e-05,-0.00022,-0.0010199999999999999,0.00018999999999999998,-0.00027,6
31892,32824,-0.0006900000000000001,-0.00021,-4e-05,-1e-05,-0.00022,-0.0010199999999999999,0.00018999999999999998,-0.00027,6
31893,32825,-0.0006900000000000001,-0.00021,-4e-05,-1e-05,-0.00022,-0.0010199999999999999,0.00018999999999999998,-0.00027,6
31894,32826,-0.0006900000000000001,-0.00021,-4e-05,-1e-05,-0.00022,-0.0010199999999999999,0.00018999999999999998,-0.00027,6
31895,32827,-0.0006900000000000001,-0.00021,-4e-05,-1e-05,-0.00022,-0.0010199999999999999,0.00018999999999999998,-0.00027,6
31896,32828,-0.0006900000000000001,-0.00021,-4e-05,-1e-05,-0.00022,-0.0010199999999999999,0.00018999999999999998,-0.00027,6
31897,32829,-0.00031,-0.00011,-9e-05,-0.00014,-0.00022,0.0001,-0.00026000000000000003,-0.00025,6
31898,32830,-0.00031,-0.00011,-9e-05,-0.00014,-0.00022,0.0001,-0.00026000000000000003,-0.00025,6
31899,32831,-0.00031,-0.00011,-9e-05,-0.00014,-0.00022,0.0001,-0.00026000000000000003,-0.00025,6
31900,32832,-0.00031,-0.00011,-9e-05,-0.00014,-0.00022,0.0001,-0.00026000000000000003,-0.00025,6
31901,32833,-0.00031,-0.00011,-9e-05,-0.00014,-0.00022,0.0001,-0.00026000000000000003,-0.00025,6
31902,32834,-0.00031,-0.00011,-9e-05,-0.00014,-0.00022,0.0001,-0.00026000000000000003,-0.00025,6
31903,32835,-0.00031,-0.00011,-9e-05,-0.00014,-0.00022,0.0001,-0.00026000000000000003,-0.00025,6
31904,32836,0.0003,-4e-05,2.9999999999999997e-05,2e-05,0.00027,0.00037999999999999997,0.00036,0.00059,6
31905,32838,0.0003,-4e-05,2.9999999999999997e-05,2e-05,0.00027,0.00037999999999999997,0.00036,0.00059,6
31906,32839,0.0003,-4e-05,2.9999999999999997e-05,2e-05,0.00027,0.00037999999999999997,0.00036,0.00059,6
31907,32840,0.0003,-4e-05,2.9999999999999997e-05,2e-05,0.00027,0.00037999999999999997,0.00036,0.00059,6
31908,32841,0.0003,-4e-05,2.9999999999999997e-05,2e-05,0.00027,0.00037999999999999997,0.00036,0.00059,6
31909,32842,0.0003,-4e-05,2.9999999999999997e-05,2e-05,0.00027,0.00037999999999999997,0.00036,0.00059,6
31910,32843,0.0003,-4e-05,2.9999999999999997e-05,2e-05,0.00027,0.00037999999999999997,0.00036,0.00059,6
31911,32844,0.0003,-4e-05,2.9999999999999997e-05,2e-05,0.00027,0.00037999999999999997,0.00036,0.00059,6
31912,32845,0.0003,-4e-05,2.9999999999999997e-05,2e-05,0.00027,0.00037999999999999997,0.00036,0.00059,6
31913,32846,0.0003,-4e-05,2.9999999999999997e-05,2e-05,0.00027,0.00037999999999999997,0.00036,0.00059,6
31914,32847,0.0003,-4e-05,2.9999999999999997e-05,2e-05,0.00027,0.00037999999999999997,0.00036,0.00059,6
31915,32848,0.0003,-4e-05,2.9999999999999997e-05,2e-05,0.00027,0.00037999999999999997,0.00036,0.00059,6
31916,32849,0.0003,-4e-05,2.9999999999999997e-05,2e-05,0.00027,0.00037999999999999997,0.00036,0.00059,6
31917,32850,0.0003,-4e-05,2.9999999999999997e-05,2e-05,0.00027,0.00037999999999999997,0.00036,0.00059,6
31918,32851,0.0003,-4e-05,2.9999999999999997e-05,2e-05,0.00027,0.00037999999999999997,0.00036,0.00059,6
31919,32852,-2e-05,2.9999999999999997e-05,7e-05,0.0003,0.00074,1e-05,4e-05,0.00044,6
31920,32853,-2e-05,2.9999999999999997e-05,7e-05,0.0003,0.00074,1e-05,4e-05,0.00044,6
31921,32854,0.00022999999999999998,0.0001,0.00011999999999999999,0.00029,7e-05,-0.00011,8e-05,-0.00027,6
31922,32855,0.00022999999999999998,0.0001,0.00011999999999999999,0.00029,7e-05,-0.00011,8e-05,-0.00027,6
31923,32856,0.00022999999999999998,0.0001,0.00011999999999999999,0.00029,7e-05,-0.00011,8e-05,-0.00027,6
31924,32857,0.00022999999999999998,0.0001,0.00011999999999999999,0.00029,7e-05,-0.00011,8e-05,-0.00027,6
31925,32858,0.00022999999999999998,0.0001,0.00011999999999999999,0.00029,7e-05,-0.00011,8e-05,-0.00027,6
31926,32859,0.00022999999999999998,0.0001,0.00011999999999999999,0.00029,7e-05,-0.00011,8e-05,-0.00027,6
31927,32860,0.00022999999999999998,0.0001,0.00011999999999999999,0.00029,7e-05,-0.00011,8e-05,-0.00027,6
31928,32861,0.00022999999999999998,0.0001,0.00011999999999999999,0.00029,7e-05,-0.00011,8e-05,-0.00027,6
31929,32862,0.00022999999999999998,0.0001,0.00011999999999999999,0.00029,7e-05,-0.00011,8e-05,-0.00027,6
31930,32863,0.00022999999999999998,0.0001,0.00011999999999999999,0.00029,7e-05,-0.00011,8e-05,-0.00027,6
31931,32864,0.00022999999999999998,0.0001,0.00011999999999999999,0.00029,7e-05,-0.00011,8e-05,-0.00027,6
31932,32865,0.00022999999999999998,0.0001,0.00011999999999999999,0.00029,7e-05,-0.00011,8e-05,-0.00027,6
31933,32866,0.00022999999999999998,0.0001,0.00011999999999999999,0.00029,7e-05,-0.00011,8e-05,-0.00027,6
31934,32867,0.00022999999999999998,0.0001,0.00011999999999999999,0.00029,7e-05,-0.00011,8e-05,-0.00027,6
31935,32868,0.00022999999999999998,0.0001,0.00011999999999999999,0.00029,7e-05,-0.00011,8e-05,-0.00027,6
31936,32869,0.00022999999999999998,0.0001,0.00011999999999999999,0.00029,7e-05,-0.00011,8e-05,-0.00027,6
31937,32870,0.00022999999999999998,0.0001,0.00011999999999999999,0.00029,7e-05,-0.00011,8e-05,-0.00027,6
31938,32871,0.00022999999999999998,0.0001,0.00011999999999999999,0.00029,7e-05,-0.00011,8e-05,-0.00027,6
31939,32872,0.00022999999999999998,0.0001,0.00011999999999999999,0.00029,7e-05,-0.00011,8e-05,-0.00027,6
31940,32873,0.00022999999999999998,0.0001,0.00011999999999999999,0.00029,7e-05,-0.00011,8e-05,-0.00027,6
31941,32874,0.00022999999999999998,0.0001,0.00011999999999999999,0.00029,7e-05,-0.00011,8e-05,-0.00027,6
31942,32875,0.00064,8e-05,-7e-05,-7e-05,-0.00041,0.00027,0.00018999999999999998,-0.00015,6
31943,32876,0.00011999999999999999,-4e-05,-8e-05,-0.00018999999999999998,-0.00028,-0.00047000000000000004,-0.00018,-0.00026000000000000003,6
31944,32877,0.00011999999999999999,-4e-05,-8e-05,-0.00018999999999999998,-0.00028,-0.00047000000000000004,-0.00018,-0.00026000000000000003,6
31945,32878,0.00011999999999999999,-4e-05,-8e-05,-0.00018999999999999998,-0.00028,-0.00047000000000000004,-0.00018,-0.00026000000000000003,6
31946,32879,0.00011999999999999999,-4e-05,-8e-05,-0.00018999999999999998,-0.00028,-0.00047000000000000004,-0.00018,-0.00026000000000000003,6
31947,32880,0.00011999999999999999,-4e-05,-8e-05,-0.00018999999999999998,-0.00028,-0.00047000000000000004,-0.00018,-0.00026000000000000003,6
31948,32881,0.00011999999999999999,-4e-05,-8e-05,-0.00018999999999999998,-0.00028,-0.00047000000000000004,-0.00018,-0.00026000000000000003,6
31949,32882,0.00011999999999999999,-4e-05,-8e-05,-0.00018999999999999998,-0.00028,-0.00047000000000000004,-0.00018,-0.00026000000000000003,6
31950,32883,0.00011999999999999999,-4e-05,-8e-05,-0.00018999999999999998,-0.00028,-0.00047000000000000004,-0.00018,-0.00026000000000000003,6
31951,32884,0.00011999999999999999,-4e-05,-8e-05,-0.00018999999999999998,-0.00028,-0.00047000000000000004,-0.00018,-0.00026000000000000003,6
31952,32885,0.00011999999999999999,-4e-05,-8e-05,-0.00018999999999999998,-0.00028,-0.00047000000000000004,-0.00018,-0.00026000000000000003,6
31953,32886,0.00011999999999999999,-4e-05,-8e-05,-0.00018999999999999998,-0.00028,-0.00047000000000000004,-0.00018,-0.00026000000000000003,6
31954,32888,-0.0003,-8e-05,-4e-05,-0.00018999999999999998,-0.00015,-8e-05,5.9999999999999995e-05,-0.00045999999999999996,6
31955,32889,0.00028,-7e-05,1e-05,4e-05,8e-05,0.00031,0.00011999999999999999,-1e-05,6
31956,32890,0.00028,-7e-05,1e-05,4e-05,8e-05,0.00031,0.00011999999999999999,-1e-05,6
31957,32891,0.00028,-7e-05,1e-05,4e-05,8e-05,0.00031,0.00011999999999999999,-1e-05,6
31958,32892,0.00028,-7e-05,1e-05,4e-05,8e-05,0.00031,0.00011999999999999999,-1e-05,6
31959,32893,0.00028,-7e-05,1e-05,4e-05,8e-05,0.00031,0.00011999999999999999,-1e-05,6
31960,32894,0.00028,-7e-05,1e-05,4e-05,8e-05,0.00031,0.00011999999999999999,-1e-05,6
31961,32895,0.00028,-7e-05,1e-05,4e-05,8e-05,0.00031,0.00011999999999999999,-1e-05,6
31962,32896,0.00028,-7e-05,1e-05,4e-05,8e-05,0.00031,0.00011999999999999999,-1e-05,6
31963,32897,0.0001,5e-05,0.0,1e-05,0.00015,-0.00045,2e-05,0.0002,6
31964,32898,0.0001,5e-05,0.0,1e-05,0.00015,-0.00045,2e-05,0.0002,6
31965,32899,0.0001,5e-05,0.0,1e-05,0.00015,-0.00045,2e-05,0.0002,6
31966,32900,0.0001,5e-05,0.0,1e-05,0.00015,-0.00045,2e-05,0.0002,6
31967,32901,0.0001,5e-05,0.0,1e-05,0.00015,-0.00045,2e-05,0.0002,6
31968,32902,0.0001,5e-05,0.0,1e-05,0.00015,-0.00045,2e-05,0.0002,6
31969,32903,0.0001,5e-05,0.0,1e-05,0.00015,-0.00045,2e-05,0.0002,6
31970,32904,0.0001,5e-05,0.0,1e-05,0.00015,-0.00045,2e-05,0.0002,6
31971,32905,0.0001,5e-05,0.0,1e-05,0.00015,-0.00045,2e-05,0.0002,6
31972,32906,0.0001,5e-05,0.0,1e-05,0.00015,-0.00045,2e-05,0.0002,6
31973,32907,0.0001,5e-05,0.0,1e-05,0.00015,-0.00045,2e-05,0.0002,6
31974,32908,0.0001,5e-05,0.0,1e-05,0.00015,-0.00045,2e-05,0.0002,6
31975,32909,0.0001,5e-05,0.0,1e-05,0.00015,-0.00045,2e-05,0.0002,6
31976,32910,0.0001,5e-05,0.0,1e-05,0.00015,-0.00045,2e-05,0.0002,6
31977,32911,0.0001,5e-05,0.0,1e-05,0.00015,-0.00045,2e-05,0.0002,6
31978,32912,-0.00016999999999999999,-4e-05,-2e-05,-5e-05,0.00011,0.0005099999999999999,7e-05,-5.9999999999999995e-05,6
31979,32913,-0.00016999999999999999,-4e-05,-2e-05,-5e-05,0.00011,0.0005099999999999999,7e-05,-5.9999999999999995e-05,6
31980,32914,-0.00016999999999999999,-7e-05,-0.0001,-0.0001,-0.00035,1e-05,5e-05,0.00027,6
31981,32915,-0.00016999999999999999,-7e-05,-0.0001,-0.0001,-0.00035,1e-05,5e-05,0.00027,6
31982,32916,-0.00016999999999999999,-7e-05,-0.0001,-0.0001,-0.00035,1e-05,5e-05,0.00027,6
31983,32917,-0.00016999999999999999,-7e-05,-0.0001,-0.0001,-0.00035,1e-05,5e-05,0.00027,6
31984,32918,-0.00016999999999999999,-7e-05,-0.0001,-0.0001,-0.00035,1e-05,5e-05,0.00027,6
31985,32919,-0.00016999999999999999,-7e-05,-0.0001,-0.0001,-0.00035,1e-05,5e-05,0.00027,6
31986,32920,-0.00016999999999999999,-7e-05,-0.0001,-0.0001,-0.00035,1e-05,5e-05,0.00027,6
31987,32921,-0.00016999999999999999,-7e-05,-0.0001,-0.0001,-0.00035,1e-05,5e-05,0.00027,6
31988,32922,-0.00016999999999999999,-7e-05,-0.0001,-0.0001,-0.00035,1e-05,5e-05,0.00027,6
31989,32923,-0.00016999999999999999,-7e-05,-0.0001,-0.0001,-0.00035,1e-05,5e-05,0.00027,6
31990,32924,-0.00016999999999999999,-7e-05,-0.0001,-0.0001,-0.00035,1e-05,5e-05,0.00027,6
31991,32925,-0.00016999999999999999,-7e-05,-0.0001,-0.0001,-0.00035,1e-05,5e-05,0.00027,6
31992,32926,-0.00016999999999999999,-7e-05,-0.0001,-0.0001,-0.00035,1e-05,5e-05,0.00027,6
31993,32927,-0.00016999999999999999,-7e-05,-0.0001,-0.0001,-0.00035,1e-05,5e-05,0.00027,6
31994,32928,-0.00016999999999999999,-7e-05,-0.0001,-0.0001,-0.00035,1e-05,5e-05,0.00027,6
31995,32929,-0.00016999999999999999,-7e-05,-0.0001,-0.0001,-0.00035,1e-05,5e-05,0.00027,6
31996,32930,-0.00016999999999999999,-7e-05,-0.0001,-0.0001,-0.00035,1e-05,5e-05,0.00027,6
31997,32931,-0.00016999999999999999,-7e-05,-0.0001,-0.0001,-0.00035,1e-05,5e-05,0.00027,6
31998,32932,-0.00016999999999999999,-7e-05,-0.0001,-0.0001,-0.00035,1e-05,5e-05,0.00027,6
31999,32933,-0.00016999999999999999,-7e-05,-0.0001,-0.0001,-0.00035,1e-05,5e-05,0.00027,6
32000,32934,-0.00016999999999999999,-7e-05,-0.0001,-0.0001,-0.00035,1e-05,5e-05,0.00027,6
32001,32935,0.00014,7e-05,5e-05,-2.9999999999999997e-05,0.00018,4e-05,-2.9999999999999997e-05,0.00027,6
32002,32936,2.9999999999999997e-05,0.0,-1e-05,-5.9999999999999995e-05,-0.00028,0.00018,-0.00037999999999999997,-0.00093,6
32003,32938,2.9999999999999997e-05,0.0,-1e-05,-5.9999999999999995e-05,-0.00028,0.00018,-0.00037999999999999997,-0.00093,6
32004,32939,2.9999999999999997e-05,0.0,-1e-05,-5.9999999999999995e-05,-0.00028,0.00018,-0.00037999999999999997,-0.00093,6
32005,32940,2.9999999999999997e-05,0.0,-1e-05,-5.9999999999999995e-05,-0.00028,0.00018,-0.00037999999999999997,-0.00093,6
32006,32941,2.9999999999999997e-05,0.0,-1e-05,-5.9999999999999995e-05,-0.00028,0.00018,-0.00037999999999999997,-0.00093,6
32007,32942,2.9999999999999997e-05,0.0,-1e-05,-5.9999999999999995e-05,-0.00028,0.00018,-0.00037999999999999997,-0.00093,6
32008,32943,2.9999999999999997e-05,0.0,-1e-05,-5.9999999999999995e-05,-0.00028,0.00018,-0.00037999999999999997,-0.00093,6
32009,32944,2.9999999999999997e-05,0.0,-1e-05,-5.9999999999999995e-05,-0.00028,0.00018,-0.00037999999999999997,-0.00093,6
32010,32945,2.9999999999999997e-05,0.0,-1e-05,-5.9999999999999995e-05,-0.00028,0.00018,-0.00037999999999999997,-0.00093,6
32011,32946,2.9999999999999997e-05,0.0,-1e-05,-5.9999999999999995e-05,-0.00028,0.00018,-0.00037999999999999997,-0.00093,6
32012,32947,2.9999999999999997e-05,0.0,-1e-05,-5.9999999999999995e-05,-0.00028,0.00018,-0.00037999999999999997,-0.00093,6
32013,32948,-0.0003,-2.9999999999999997e-05,-1e-05,-5e-05,-0.00039,-0.00065,-2e-05,0.00028,6
32014,32949,-0.0003,-2.9999999999999997e-05,-1e-05,-5e-05,-0.00039,-0.00065,-2e-05,0.00028,6
32015,32950,-0.0003,-2.9999999999999997e-05,-1e-05,-5e-05,-0.00039,-0.00065,-2e-05,0.00028,6
32016,32951,-0.0003,-2.9999999999999997e-05,-1e-05,-5e-05,-0.00039,-0.00065,-2e-05,0.00028,6
32017,32952,-0.0003,-2.9999999999999997e-05,-1e-05,-5e-05,-0.00039,-0.00065,-2e-05,0.00028,6
32018,32953,-0.0003,-2.9999999999999997e-05,-1e-05,-5e-05,-0.00039,-0.00065,-2e-05,0.00028,6
32019,32954,-0.0003,-2.9999999999999997e-05,-1e-05,-5e-05,-0.00039,-0.00065,-2e-05,0.00028,6
32020,32955,-0.0003,-2.9999999999999997e-05,-1e-05,-5e-05,-0.00039,-0.00065,-2e-05,0.00028,6
32021,32956,-0.0003,-2.9999999999999997e-05,-1e-05,-5e-05,-0.00039,-0.00065,-2e-05,0.00028,6
32022,32957,0.0001,-8e-05,-7e-05,-5e-05,9e-05,0.00016,-1e-05,0.00036,6
32023,32958,0.0001,-8e-05,-7e-05,-5e-05,9e-05,0.00016,-1e-05,0.00036,6
32024,32959,0.0001,-8e-05,-7e-05,-5e-05,9e-05,0.00016,-1e-05,0.00036,6
32025,32960,0.0001,-8e-05,-7e-05,-5e-05,9e-05,0.00016,-1e-05,0.00036,6
32026,32961,0.0001,-8e-05,-7e-05,-5e-05,9e-05,0.00016,-1e-05,0.00036,6
32027,32962,0.0001,-8e-05,-7e-05,-5e-05,9e-05,0.00016,-1e-05,0.00036,6
32028,32963,0.0001,-8e-05,-7e-05,-5e-05,9e-05,0.00016,-1e-05,0.00036,6
32029,32964,0.0001,-8e-05,-7e-05,-5e-05,9e-05,0.00016,-1e-05,0.00036,6
32030,32965,0.0001,-8e-05,-7e-05,-5e-05,9e-05,0.00016,-1e-05,0.00036,6
32031,32966,0.0001,-8e-05,-7e-05,-5e-05,9e-05,0.00016,-1e-05,0.00036,6
32032,32967,0.0001,-8e-05,-7e-05,-5e-05,9e-05,0.00016,-1e-05,0.00036,6
32033,32968,0.0001,-8e-05,-7e-05,-5e-05,9e-05,0.00016,-1e-05,0.00036,6
32034,32969,0.0001,-8e-05,-7e-05,-5e-05,9e-05,0.00016,-1e-05,0.00036,6
32035,32970,0.0001,-8e-05,-7e-05,-5e-05,9e-05,0.00016,-1e-05,0.00036,6
32036,32971,0.0001,-8e-05,-7e-05,-5e-05,9e-05,0.00016,-1e-05,0.00036,6
32037,32972,0.00016,2e-05,1e-05,-8e-05,-0.00025,-8e-05,-5e-05,-5e-05,6
32038,32973,0.00016,2e-05,1e-05,-8e-05,-0.00025,-8e-05,-5e-05,-5e-05,6
32039,32974,-0.00016,5.9999999999999995e-05,2e-05,2.9999999999999997e-05,-0.00015,-2e-05,-0.00039,-0.00011999999999999999,6
32040,32975,-0.00016,5.9999999999999995e-05,2e-05,2.9999999999999997e-05,-0.00015,-2e-05,-0.00039,-0.00011999999999999999,6
32041,32976,-0.00016,5.9999999999999995e-05,2e-05,2.9999999999999997e-05,-0.00015,-2e-05,-0.00039,-0.00011999999999999999,6
32042,32977,-0.00016,5.9999999999999995e-05,2e-05,2.9999999999999997e-05,-0.00015,-2e-05,-0.00039,-0.00011999999999999999,6
32043,32978,-0.00016,5.9999999999999995e-05,2e-05,2.9999999999999997e-05,-0.00015,-2e-05,-0.00039,-0.00011999999999999999,6
32044,32979,-0.00016,5.9999999999999995e-05,2e-05,2.9999999999999997e-05,-0.00015,-2e-05,-0.00039,-0.00011999999999999999,6
32045,32980,-0.00016,5.9999999999999995e-05,2e-05,2.9999999999999997e-05,-0.00015,-2e-05,-0.00039,-0.00011999999999999999,6
32046,32981,-0.00016,5.9999999999999995e-05,2e-05,2.9999999999999997e-05,-0.00015,-2e-05,-0.00039,-0.00011999999999999999,6
32047,32982,-0.00016,5.9999999999999995e-05,2e-05,2.9999999999999997e-05,-0.00015,-2e-05,-0.00039,-0.00011999999999999999,6
32048,32983,-0.00016,5.9999999999999995e-05,2e-05,2.9999999999999997e-05,-0.00015,-2e-05,-0.00039,-0.00011999999999999999,6
32049,32984,-0.00016,5.9999999999999995e-05,2e-05,2.9999999999999997e-05,-0.00015,-2e-05,-0.00039,-0.00011999999999999999,6
32050,32985,-0.00016,5.9999999999999995e-05,2e-05,2.9999999999999997e-05,-0.00015,-2e-05,-0.00039,-0.00011999999999999999,6
32051,32986,-0.00016,5.9999999999999995e-05,2e-05,2.9999999999999997e-05,-0.00015,-2e-05,-0.00039,-0.00011999999999999999,6
32052,32988,-0.00016,5.9999999999999995e-05,2e-05,2.9999999999999997e-05,-0.00015,-2e-05,-0.00039,-0.00011999999999999999,6
32053,32989,-0.00016,5.9999999999999995e-05,2e-05,2.9999999999999997e-05,-0.00015,-2e-05,-0.00039,-0.00011999999999999999,6
32054,32990,-0.00016,5.9999999999999995e-05,2e-05,2.9999999999999997e-05,-0.00015,-2e-05,-0.00039,-0.00011999999999999999,6
32055,32991,-0.00016,5.9999999999999995e-05,2e-05,2.9999999999999997e-05,-0.00015,-2e-05,-0.00039,-0.00011999999999999999,6
32056,32992,-0.00016,5.9999999999999995e-05,2e-05,2.9999999999999997e-05,-0.00015,-2e-05,-0.00039,-0.00011999999999999999,6
32057,32993,-0.00016,5.9999999999999995e-05,2e-05,2.9999999999999997e-05,-0.00015,-2e-05,-0.00039,-0.00011999999999999999,6
32058,32994,-0.00016,5.9999999999999995e-05,2e-05,2.9999999999999997e-05,-0.00015,-2e-05,-0.00039,-0.00011999999999999999,6
32059,32995,0.0001,2e-05,-2.9999999999999997e-05,0.0,2e-05,0.00059,0.0,-0.00054,6
32060,32996,-0.00023999999999999998,0.0,0.0,-5e-05,0.00013000000000000002,-8e-05,0.0001,-2e-05,6
32061,32997,-0.00023999999999999998,0.0,0.0,-5e-05,0.00013000000000000002,-8e-05,0.0001,-2e-05,6
32062,32998,-0.00023999999999999998,0.0,0.0,-5e-05,0.00013000000000000002,-8e-05,0.0001,-2e-05,6
32063,32999,-0.00023999999999999998,0.0,0.0,-5e-05,0.00013000000000000002,-8e-05,0.0001,-2e-05,6
32064,33000,-0.00023999999999999998,0.0,0.0,-5e-05,0.00013000000000000002,-8e-05,0.0001,-2e-05,6
32065,33001,-0.00023999999999999998,0.0,0.0,-5e-05,0.00013000000000000002,-8e-05,0.0001,-2e-05,6
32066,33002,-0.00023999999999999998,0.0,0.0,-5e-05,0.00013000000000000002,-8e-05,0.0001,-2e-05,6
32067,33003,-0.00023999999999999998,0.0,0.0,-5e-05,0.00013000000000000002,-8e-05,0.0001,-2e-05,6
32068,33004,-0.00023999999999999998,0.0,0.0,-5e-05,0.00013000000000000002,-8e-05,0.0001,-2e-05,6
32069,33005,-0.00023999999999999998,0.0,0.0,-5e-05,0.00013000000000000002,-8e-05,0.0001,-2e-05,6
32070,33006,-0.00023999999999999998,0.0,0.0,-5e-05,0.00013000000000000002,-8e-05,0.0001,-2e-05,6
32071,33007,-0.00023999999999999998,0.0,0.0,-5e-05,0.00013000000000000002,-8e-05,0.0001,-2e-05,6
32072,33008,5e-05,2.9999999999999997e-05,-5.9999999999999995e-05,-5.9999999999999995e-05,9e-05,-0.00035,-0.00014,0.00028,6
32073,33009,5e-05,2.9999999999999997e-05,-5.9999999999999995e-05,-5.9999999999999995e-05,9e-05,-0.00035,-0.00014,0.00028,6
32074,33010,5e-05,2.9999999999999997e-05,-5.9999999999999995e-05,-5.9999999999999995e-05,9e-05,-0.00035,-0.00014,0.00028,6
32075,33011,5e-05,2.9999999999999997e-05,-5.9999999999999995e-05,-5.9999999999999995e-05,9e-05,-0.00035,-0.00014,0.00028,6
32076,33012,5e-05,2.9999999999999997e-05,-5.9999999999999995e-05,-5.9999999999999995e-05,9e-05,-0.00035,-0.00014,0.00028,6
32077,33013,5e-05,2.9999999999999997e-05,-5.9999999999999995e-05,-5.9999999999999995e-05,9e-05,-0.00035,-0.00014,0.00028,6
32078,33014,5e-05,2.9999999999999997e-05,-5.9999999999999995e-05,-5.9999999999999995e-05,9e-05,-0.00035,-0.00014,0.00028,6
32079,33015,5e-05,2.9999999999999997e-05,-5.9999999999999995e-05,-5.9999999999999995e-05,9e-05,-0.00035,-0.00014,0.00028,6
32080,33016,5e-05,2.9999999999999997e-05,-5.9999999999999995e-05,-5.9999999999999995e-05,9e-05,-0.00035,-0.00014,0.00028,6
32081,33017,-7e-05,-2e-05,2e-05,2e-05,0.00022,4e-05,0.00013000000000000002,0.00023999999999999998,6
32082,33018,-7e-05,-2e-05,2e-05,2e-05,0.00022,4e-05,0.00013000000000000002,0.00023999999999999998,6
32083,33019,-7e-05,-2e-05,2e-05,2e-05,0.00022,4e-05,0.00013000000000000002,0.00023999999999999998,6
32084,33020,-7e-05,-2e-05,2e-05,2e-05,0.00022,4e-05,0.00013000000000000002,0.00023999999999999998,6
32085,33021,-7e-05,-2e-05,2e-05,2e-05,0.00022,4e-05,0.00013000000000000002,0.00023999999999999998,6
32086,33022,-7e-05,-2e-05,2e-05,2e-05,0.00022,4e-05,0.00013000000000000002,0.00023999999999999998,6
32087,33023,-7e-05,-2e-05,2e-05,2e-05,0.00022,4e-05,0.00013000000000000002,0.00023999999999999998,6
32088,33024,-7e-05,-2e-05,2e-05,2e-05,0.00022,4e-05,0.00013000000000000002,0.00023999999999999998,6
32089,33025,-7e-05,-2e-05,2e-05,2e-05,0.00022,4e-05,0.00013000000000000002,0.00023999999999999998,6
32090,33026,-7e-05,-2e-05,2e-05,2e-05,0.00022,4e-05,0.00013000000000000002,0.00023999999999999998,6
32091,33027,-7e-05,-2e-05,2e-05,2e-05,0.00022,4e-05,0.00013000000000000002,0.00023999999999999998,6
32092,33028,-7e-05,-2e-05,2e-05,2e-05,0.00022,4e-05,0.00013000000000000002,0.00023999999999999998,6
32093,33029,-7e-05,-2e-05,2e-05,2e-05,0.00022,4e-05,0.00013000000000000002,0.00023999999999999998,6
32094,33030,-7e-05,-2e-05,2e-05,2e-05,0.00022,4e-05,0.00013000000000000002,0.00023999999999999998,6
32095,33031,-7e-05,-2e-05,2e-05,2e-05,0.00022,4e-05,0.00013000000000000002,0.00023999999999999998,6
32096,33032,-0.00013000000000000002,-9e-05,-7e-05,-9e-05,-0.00039,-0.00011,-5e-05,0.00037999999999999997,6
32097,33033,-0.00013000000000000002,-9e-05,-7e-05,-9e-05,-0.00039,-0.00011,-5e-05,0.00037999999999999997,6
32098,33034,-0.00013000000000000002,-4e-05,0.0,-4e-05,1e-05,0.00021,-7e-05,-0.0004,6
32099,33035,-0.00013000000000000002,-4e-05,0.0,-4e-05,1e-05,0.00021,-7e-05,-0.0004,6
32100,33036,-0.00013000000000000002,-4e-05,0.0,-4e-05,1e-05,0.00021,-7e-05,-0.0004,6
32101,33038,-0.00013000000000000002,-4e-05,0.0,-4e-05,1e-05,0.00021,-7e-05,-0.0004,6
32102,33039,-0.00013000000000000002,-4e-05,0.0,-4e-05,1e-05,0.00021,-7e-05,-0.0004,6
32103,33040,-0.00013000000000000002,-4e-05,0.0,-4e-05,1e-05,0.00021,-7e-05,-0.0004,6
32104,33041,-0.00013000000000000002,-4e-05,0.0,-4e-05,1e-05,0.00021,-7e-05,-0.0004,6
32105,33042,-0.00013000000000000002,-4e-05,0.0,-4e-05,1e-05,0.00021,-7e-05,-0.0004,6
32106,33043,-0.00013000000000000002,-4e-05,0.0,-4e-05,1e-05,0.00021,-7e-05,-0.0004,6
32107,33044,-0.00013000000000000002,-4e-05,0.0,-4e-05,1e-05,0.00021,-7e-05,-0.0004,6
32108,33045,-0.00013000000000000002,-4e-05,0.0,-4e-05,1e-05,0.00021,-7e-05,-0.0004,6
32109,33046,-0.00013000000000000002,-4e-05,0.0,-4e-05,1e-05,0.00021,-7e-05,-0.0004,6
32110,33047,-0.00013000000000000002,-4e-05,0.0,-4e-05,1e-05,0.00021,-7e-05,-0.0004,6
32111,33048,-0.00013000000000000002,-4e-05,0.0,-4e-05,1e-05,0.00021,-7e-05,-0.0004,6
32112,33049,-0.00013000000000000002,-4e-05,0.0,-4e-05,1e-05,0.00021,-7e-05,-0.0004,6
32113,33050,-0.00013000000000000002,-4e-05,0.0,-4e-05,1e-05,0.00021,-7e-05,-0.0004,6
32114,33051,-0.00013000000000000002,-4e-05,0.0,-4e-05,1e-05,0.00021,-7e-05,-0.0004,6
32115,33052,-0.00013000000000000002,-4e-05,0.0,-4e-05,1e-05,0.00021,-7e-05,-0.0004,6
32116,33053,-0.00013000000000000002,-4e-05,0.0,-4e-05,1e-05,0.00021,-7e-05,-0.0004,6
32117,33054,0.00026000000000000003,0.0,-8e-05,-0.00015,-8e-05,-1e-05,-9e-05,0.00043,6
32118,33055,-9e-05,-4e-05,-4e-05,2e-05,5.9999999999999995e-05,-2e-05,1e-05,0.00018999999999999998,6
32119,33056,9e-05,1e-05,2.9999999999999997e-05,-4e-05,-0.00014,0.00025,0.00011,-0.00037,6
32120,33057,9e-05,1e-05,2.9999999999999997e-05,-4e-05,-0.00014,0.00025,0.00011,-0.00037,6
32121,33058,9e-05,1e-05,2.9999999999999997e-05,-4e-05,-0.00014,0.00025,0.00011,-0.00037,6
32122,33059,9e-05,1e-05,2.9999999999999997e-05,-4e-05,-0.00014,0.00025,0.00011,-0.00037,6
32123,33060,9e-05,1e-05,2.9999999999999997e-05,-4e-05,-0.00014,0.00025,0.00011,-0.00037,6
32124,33061,9e-05,1e-05,2.9999999999999997e-05,-4e-05,-0.00014,0.00025,0.00011,-0.00037,6
32125,33062,9e-05,1e-05,2.9999999999999997e-05,-4e-05,-0.00014,0.00025,0.00011,-0.00037,6
32126,33063,9e-05,1e-05,2.9999999999999997e-05,-4e-05,-0.00014,0.00025,0.00011,-0.00037,6
32127,33064,9e-05,1e-05,2.9999999999999997e-05,-4e-05,-0.00014,0.00025,0.00011,-0.00037,6
32128,33065,9e-05,1e-05,2.9999999999999997e-05,-4e-05,-0.00014,0.00025,0.00011,-0.00037,6
32129,33066,9e-05,1e-05,2.9999999999999997e-05,-4e-05,-0.00014,0.00025,0.00011,-0.00037,6
32130,33067,9e-05,1e-05,2.9999999999999997e-05,-4e-05,-0.00014,0.00025,0.00011,-0.00037,6
32131,33068,-0.00015,-5e-05,-1e-05,4e-05,-4e-05,0.00021,-0.00029,-0.0011,6
32132,33069,-0.00015,-5e-05,-1e-05,4e-05,-4e-05,0.00021,-0.00029,-0.0011,6
32133,33070,-0.00015,-5e-05,-1e-05,4e-05,-4e-05,0.00021,-0.00029,-0.0011,6
32134,33071,-0.00015,-5e-05,-1e-05,4e-05,-4e-05,0.00021,-0.00029,-0.0011,6
32135,33072,-0.00015,-5e-05,-1e-05,4e-05,-4e-05,0.00021,-0.00029,-0.0011,6
32136,33073,-0.00015,-5e-05,-1e-05,4e-05,-4e-05,0.00021,-0.00029,-0.0011,6
32137,33074,-0.00015,-5e-05,-1e-05,4e-05,-4e-05,0.00021,-0.00029,-0.0011,6
32138,33075,-0.00015,-5e-05,-1e-05,4e-05,-4e-05,0.00021,-0.00029,-0.0011,6
32139,33076,-0.00015,-5e-05,-1e-05,4e-05,-4e-05,0.00021,-0.00029,-0.0011,6
32140,33077,-4e-05,-4e-05,-2.9999999999999997e-05,-2.9999999999999997e-05,-0.00027,-0.0003,0.0,-0.00014,6
32141,33078,-4e-05,-4e-05,-2.9999999999999997e-05,-2.9999999999999997e-05,-0.00027,-0.0003,0.0,-0.00014,6
32142,33079,-4e-05,-4e-05,-2.9999999999999997e-05,-2.9999999999999997e-05,-0.00027,-0.0003,0.0,-0.00014,6
32143,33080,-4e-05,-4e-05,-2.9999999999999997e-05,-2.9999999999999997e-05,-0.00027,-0.0003,0.0,-0.00014,6
32144,33081,-4e-05,-4e-05,-2.9999999999999997e-05,-2.9999999999999997e-05,-0.00027,-0.0003,0.0,-0.00014,6
32145,33082,-4e-05,-4e-05,-2.9999999999999997e-05,-2.9999999999999997e-05,-0.00027,-0.0003,0.0,-0.00014,6
32146,33083,-4e-05,-4e-05,-2.9999999999999997e-05,-2.9999999999999997e-05,-0.00027,-0.0003,0.0,-0.00014,6
32147,33084,-4e-05,-4e-05,-2.9999999999999997e-05,-2.9999999999999997e-05,-0.00027,-0.0003,0.0,-0.00014,6
32148,33085,-4e-05,-4e-05,-2.9999999999999997e-05,-2.9999999999999997e-05,-0.00027,-0.0003,0.0,-0.00014,6
32149,33086,-4e-05,-4e-05,-2.9999999999999997e-05,-2.9999999999999997e-05,-0.00027,-0.0003,0.0,-0.00014,6
32150,33088,-4e-05,-4e-05,-2.9999999999999997e-05,-2.9999999999999997e-05,-0.00027,-0.0003,0.0,-0.00014,6
32151,33089,-4e-05,-4e-05,-2.9999999999999997e-05,-2.9999999999999997e-05,-0.00027,-0.0003,0.0,-0.00014,6
32152,33090,-4e-05,-4e-05,-2.9999999999999997e-05,-2.9999999999999997e-05,-0.00027,-0.0003,0.0,-0.00014,6
32153,33091,-4e-05,-4e-05,-2.9999999999999997e-05,-2.9999999999999997e-05,-0.00027,-0.0003,0.0,-0.00014,6
32154,33092,0.0002,5e-05,-2e-05,-5.9999999999999995e-05,-0.00011,-0.00057,-8e-05,0.0007599999999999999,6
32155,33093,0.0002,5e-05,-2e-05,-5.9999999999999995e-05,-0.00011,-0.00057,-8e-05,0.0007599999999999999,6
32156,33094,-1e-05,-8e-05,-0.00011,-0.0001,0.00014,-0.00028,-1e-05,0.0003,6
32157,33095,-1e-05,-8e-05,-0.00011,-0.0001,0.00014,-0.00028,-1e-05,0.0003,6
32158,33096,-1e-05,-8e-05,-0.00011,-0.0001,0.00014,-0.00028,-1e-05,0.0003,6
32159,33097,-1e-05,-8e-05,-0.00011,-0.0001,0.00014,-0.00028,-1e-05,0.0003,6
32160,33098,-1e-05,-8e-05,-0.00011,-0.0001,0.00014,-0.00028,-1e-05,0.0003,6
32161,33099,-1e-05,-8e-05,-0.00011,-0.0001,0.00014,-0.00028,-1e-05,0.0003,6
32162,33100,-1e-05,-8e-05,-0.00011,-0.0001,0.00014,-0.00028,-1e-05,0.0003,6
32163,33101,-1e-05,-8e-05,-0.00011,-0.0001,0.00014,-0.00028,-1e-05,0.0003,6
32164,33102,-1e-05,-8e-05,-0.00011,-0.0001,0.00014,-0.00028,-1e-05,0.0003,6
32165,33103,-1e-05,-8e-05,-0.00011,-0.0001,0.00014,-0.00028,-1e-05,0.0003,6
32166,33104,-1e-05,-8e-05,-0.00011,-0.0001,0.00014,-0.00028,-1e-05,0.0003,6
32167,33105,-1e-05,-8e-05,-0.00011,-0.0001,0.00014,-0.00028,-1e-05,0.0003,6
32168,33106,-1e-05,-8e-05,-0.00011,-0.0001,0.00014,-0.00028,-1e-05,0.0003,6
32169,33107,-1e-05,-8e-05,-0.00011,-0.0001,0.00014,-0.00028,-1e-05,0.0003,6
32170,33108,-1e-05,-8e-05,-0.00011,-0.0001,0.00014,-0.00028,-1e-05,0.0003,6
32171,33109,-1e-05,-8e-05,-0.00011,-0.0001,0.00014,-0.00028,-1e-05,0.0003,6
32172,33110,-1e-05,-8e-05,-0.00011,-0.0001,0.00014,-0.00028,-1e-05,0.0003,6
32173,33111,-1e-05,-8e-05,-0.00011,-0.0001,0.00014,-0.00028,-1e-05,0.0003,6
32174,33112,-1e-05,-8e-05,-0.00011,-0.0001,0.00014,-0.00028,-1e-05,0.0003,6
32175,33113,-1e-05,-8e-05,-0.00011,-0.0001,0.00014,-0.00028,-1e-05,0.0003,6
32176,33114,-1e-05,-8e-05,-0.00011,-0.0001,0.00014,-0.00028,-1e-05,0.0003,6
32177,33115,-0.00032,-2e-05,2e-05,5e-05,0.00016,4e-05,-2e-05,-0.00085,6
32178,33116,0.00023999999999999998,4e-05,-1e-05,1e-05,0.00025,0.0003,0.00015,-9e-05,6
32179,33117,0.00023999999999999998,4e-05,-1e-05,1e-05,0.00025,0.0003,0.00015,-9e-05,6
32180,33118,0.00023999999999999998,4e-05,-1e-05,1e-05,0.00025,0.0003,0.00015,-9e-05,6
32181,33119,0.00023999999999999998,4e-05,-1e-05,1e-05,0.00025,0.0003,0.00015,-9e-05,6
32182,33120,0.00023999999999999998,4e-05,-1e-05,1e-05,0.00025,0.0003,0.00015,-9e-05,6
32183,33121,0.00023999999999999998,4e-05,-1e-05,1e-05,0.00025,0.0003,0.00015,-9e-05,6
32184,33122,0.00023999999999999998,4e-05,-1e-05,1e-05,0.00025,0.0003,0.00015,-9e-05,6
32185,33123,0.00023999999999999998,4e-05,-1e-05,1e-05,0.00025,0.0003,0.00015,-9e-05,6
32186,33124,0.00023999999999999998,4e-05,-1e-05,1e-05,0.00025,0.0003,0.00015,-9e-05,6
32187,33125,0.00023999999999999998,4e-05,-1e-05,1e-05,0.00025,0.0003,0.00015,-9e-05,6
32188,33126,0.00023999999999999998,4e-05,-1e-05,1e-05,0.00025,0.0003,0.00015,-9e-05,6
32189,33127,0.00023999999999999998,4e-05,-1e-05,1e-05,0.00025,0.0003,0.00015,-9e-05,6
32190,33128,0.00025,-4e-05,-4e-05,-8e-05,0.00041,0.00016,-2e-05,4e-05,6
32191,33129,0.00025,-4e-05,-4e-05,-8e-05,0.00041,0.00016,-2e-05,4e-05,6
32192,33130,0.00025,-4e-05,-4e-05,-8e-05,0.00041,0.00016,-2e-05,4e-05,6
32193,33131,0.00025,-4e-05,-4e-05,-8e-05,0.00041,0.00016,-2e-05,4e-05,6
32194,33132,0.00025,-4e-05,-4e-05,-8e-05,0.00041,0.00016,-2e-05,4e-05,6
32195,33133,0.00025,-4e-05,-4e-05,-8e-05,0.00041,0.00016,-2e-05,4e-05,6
32196,33134,0.00025,-4e-05,-4e-05,-8e-05,0.00041,0.00016,-2e-05,4e-05,6
32197,33135,0.00025,-4e-05,-4e-05,-8e-05,0.00041,0.00016,-2e-05,4e-05,6
32198,33136,0.00025,-4e-05,-4e-05,-8e-05,0.00041,0.00016,-2e-05,4e-05,6
32199,33138,-0.00016,2e-05,1e-05,5e-05,0.00029,0.00011999999999999999,5.9999999999999995e-05,-0.00025,6
32200,33139,-0.00016,2e-05,1e-05,5e-05,0.00029,0.00011999999999999999,5.9999999999999995e-05,-0.00025,6
32201,33140,-0.00016,2e-05,1e-05,5e-05,0.00029,0.00011999999999999999,5.9999999999999995e-05,-0.00025,6
32202,33141,-0.00016,2e-05,1e-05,5e-05,0.00029,0.00011999999999999999,5.9999999999999995e-05,-0.00025,6
32203,33142,-0.00016,2e-05,1e-05,5e-05,0.00029,0.00011999999999999999,5.9999999999999995e-05,-0.00025,6
32204,33143,-0.00016,2e-05,1e-05,5e-05,0.00029,0.00011999999999999999,5.9999999999999995e-05,-0.00025,6
32205,33144,-0.00016,2e-05,1e-05,5e-05,0.00029,0.00011999999999999999,5.9999999999999995e-05,-0.00025,6
32206,33145,-0.00016,2e-05,1e-05,5e-05,0.00029,0.00011999999999999999,5.9999999999999995e-05,-0.00025,6
32207,33146,-0.00016,2e-05,1e-05,5e-05,0.00029,0.00011999999999999999,5.9999999999999995e-05,-0.00025,6
32208,33147,-0.00016,2e-05,1e-05,5e-05,0.00029,0.00011999999999999999,5.9999999999999995e-05,-0.00025,6
32209,33148,-0.00016,2e-05,1e-05,5e-05,0.00029,0.00011999999999999999,5.9999999999999995e-05,-0.00025,6
32210,33149,-0.00016,2e-05,1e-05,5e-05,0.00029,0.00011999999999999999,5.9999999999999995e-05,-0.00025,6
32211,33150,-0.00016,2e-05,1e-05,5e-05,0.00029,0.00011999999999999999,5.9999999999999995e-05,-0.00025,6
32212,33151,-0.00016,2e-05,1e-05,5e-05,0.00029,0.00011999999999999999,5.9999999999999995e-05,-0.00025,6
32213,33152,8e-05,-1e-05,5.9999999999999995e-05,0.0001,0.00035,0.00074,0.00021,0.00028,6
32214,33153,8e-05,-1e-05,5.9999999999999995e-05,0.0001,0.00035,0.00074,0.00021,0.00028,6
32215,33154,0.00025,-1e-05,-1e-05,1e-05,-8e-05,-0.00011,-4e-05,0.00042,6
32216,33155,0.00025,-1e-05,-1e-05,1e-05,-8e-05,-0.00011,-4e-05,0.00042,6
32217,33156,0.00025,-1e-05,-1e-05,1e-05,-8e-05,-0.00011,-4e-05,0.00042,6
32218,33157,0.00025,-1e-05,-1e-05,1e-05,-8e-05,-0.00011,-4e-05,0.00042,6
32219,33158,0.00025,-1e-05,-1e-05,1e-05,-8e-05,-0.00011,-4e-05,0.00042,6
32220,33159,0.00025,-1e-05,-1e-05,1e-05,-8e-05,-0.00011,-4e-05,0.00042,6
32221,33160,0.00025,-1e-05,-1e-05,1e-05,-8e-05,-0.00011,-4e-05,0.00042,6
32222,33161,0.00025,-1e-05,-1e-05,1e-05,-8e-05,-0.00011,-4e-05,0.00042,6
32223,33162,0.00025,-1e-05,-1e-05,1e-05,-8e-05,-0.00011,-4e-05,0.00042,6
32224,33163,0.00025,-1e-05,-1e-05,1e-05,-8e-05,-0.00011,-4e-05,0.00042,6
32225,33164,0.00025,-1e-05,-1e-05,1e-05,-8e-05,-0.00011,-4e-05,0.00042,6
32226,33165,0.00025,-1e-05,-1e-05,1e-05,-8e-05,-0.00011,-4e-05,0.00042,6
32227,33166,0.00025,-1e-05,-1e-05,1e-05,-8e-05,-0.00011,-4e-05,0.00042,6
32228,33167,0.00025,-1e-05,-1e-05,1e-05,-8e-05,-0.00011,-4e-05,0.00042,6
32229,33168,0.00025,-1e-05,-1e-05,1e-05,-8e-05,-0.00011,-4e-05,0.00042,6
32230,33169,0.00025,-1e-05,-1e-05,1e-05,-8e-05,-0.00011,-4e-05,0.00042,6
32231,33170,0.00025,-1e-05,-1e-05,1e-05,-8e-05,-0.00011,-4e-05,0.00042,6
32232,33171,0.00025,-1e-05,-1e-05,1e-05,-8e-05,-0.00011,-4e-05,0.00042,6
32233,33172,0.00025,-1e-05,-1e-05,1e-05,-8e-05,-0.00011,-4e-05,0.00042,6
32234,33173,0.00025,-1e-05,-1e-05,1e-05,-8e-05,-0.00011,-4e-05,0.00042,6
32235,33174,0.00025,-1e-05,-1e-05,1e-05,-8e-05,-0.00011,-4e-05,0.00042,6
32236,33175,0.00022,5e-05,1e-05,8e-05,2.9999999999999997e-05,-0.0008,0.00021,0.00084,6
32237,33176,9e-05,1e-05,0.0,-7e-05,9e-05,0.00021,-0.0001,0.0008699999999999999,6
32238,33177,9e-05,1e-05,0.0,-7e-05,9e-05,0.00021,-0.0001,0.0008699999999999999,6
32239,33178,9e-05,1e-05,0.0,-7e-05,9e-05,0.00021,-0.0001,0.0008699999999999999,6
32240,33179,9e-05,1e-05,0.0,-7e-05,9e-05,0.00021,-0.0001,0.0008699999999999999,6
32241,33180,9e-05,1e-05,0.0,-7e-05,9e-05,0.00021,-0.0001,0.0008699999999999999,6
32242,33181,9e-05,1e-05,0.0,-7e-05,9e-05,0.00021,-0.0001,0.0008699999999999999,6
32243,33182,9e-05,1e-05,0.0,-7e-05,9e-05,0.00021,-0.0001,0.0008699999999999999,6
32244,33183,9e-05,1e-05,0.0,-7e-05,9e-05,0.00021,-0.0001,0.0008699999999999999,6
32245,33184,9e-05,1e-05,0.0,-7e-05,9e-05,0.00021,-0.0001,0.0008699999999999999,6
32246,33185,9e-05,1e-05,0.0,-7e-05,9e-05,0.00021,-0.0001,0.0008699999999999999,6
32247,33186,9e-05,1e-05,0.0,-7e-05,9e-05,0.00021,-0.0001,0.0008699999999999999,6
32248,33188,-2.9999999999999997e-05,2e-05,5e-05,5.9999999999999995e-05,0.00035,-0.00022999999999999998,-1e-05,-1e-05,6
32249,33190,-2.9999999999999997e-05,2e-05,5e-05,5.9999999999999995e-05,0.00035,-0.00022999999999999998,-1e-05,-1e-05,6
32250,33191,-2.9999999999999997e-05,2e-05,5e-05,5.9999999999999995e-05,0.00035,-0.00022999999999999998,-1e-05,-1e-05,6
32251,33192,-2.9999999999999997e-05,2e-05,5e-05,5.9999999999999995e-05,0.00035,-0.00022999999999999998,-1e-05,-1e-05,6
32252,33193,-2.9999999999999997e-05,2e-05,5e-05,5.9999999999999995e-05,0.00035,-0.00022999999999999998,-1e-05,-1e-05,6
32253,33194,-2.9999999999999997e-05,2e-05,5e-05,5.9999999999999995e-05,0.00035,-0.00022999999999999998,-1e-05,-1e-05,6
32254,33195,-2.9999999999999997e-05,2e-05,5e-05,5.9999999999999995e-05,0.00035,-0.00022999999999999998,-1e-05,-1e-05,6
32255,33196,-2.9999999999999997e-05,2e-05,5e-05,5.9999999999999995e-05,0.00035,-0.00022999999999999998,-1e-05,-1e-05,6
32256,33197,-0.00013000000000000002,5e-05,9e-05,0.00013000000000000002,0.0001,-0.00016,-8e-05,-0.00061,6
32257,33198,-0.00013000000000000002,5e-05,9e-05,0.00013000000000000002,0.0001,-0.00016,-8e-05,-0.00061,6
32258,33199,-0.00013000000000000002,5e-05,9e-05,0.00013000000000000002,0.0001,-0.00016,-8e-05,-0.00061,6
32259,33200,-0.00013000000000000002,5e-05,9e-05,0.00013000000000000002,0.0001,-0.00016,-8e-05,-0.00061,6
32260,33201,-0.00013000000000000002,5e-05,9e-05,0.00013000000000000002,0.0001,-0.00016,-8e-05,-0.00061,6
32261,33202,-0.00013000000000000002,5e-05,9e-05,0.00013000000000000002,0.0001,-0.00016,-8e-05,-0.00061,6
32262,33203,-0.00013000000000000002,5e-05,9e-05,0.00013000000000000002,0.0001,-0.00016,-8e-05,-0.00061,6
32263,33204,-0.00013000000000000002,5e-05,9e-05,0.00013000000000000002,0.0001,-0.00016,-8e-05,-0.00061,6
32264,33205,-0.00013000000000000002,5e-05,9e-05,0.00013000000000000002,0.0001,-0.00016,-8e-05,-0.00061,6
32265,33206,-0.00013000000000000002,5e-05,9e-05,0.00013000000000000002,0.0001,-0.00016,-8e-05,-0.00061,6
32266,33207,-0.00013000000000000002,5e-05,9e-05,0.00013000000000000002,0.0001,-0.00016,-8e-05,-0.00061,6
32267,33208,-0.00013000000000000002,5e-05,9e-05,0.00013000000000000002,0.0001,-0.00016,-8e-05,-0.00061,6
32268,33209,-0.00013000000000000002,5e-05,9e-05,0.00013000000000000002,0.0001,-0.00016,-8e-05,-0.00061,6
32269,33210,-0.00013000000000000002,5e-05,9e-05,0.00013000000000000002,0.0001,-0.00016,-8e-05,-0.00061,6
32270,33211,-0.00013000000000000002,5e-05,9e-05,0.00013000000000000002,0.0001,-0.00016,-8e-05,-0.00061,6
32271,33212,-2.9999999999999997e-05,-4e-05,0.0,-8e-05,-0.00065,-0.00033999999999999997,-8e-05,-0.00013000000000000002,6
32272,33213,0.00016999999999999999,2e-05,-1e-05,-2e-05,-0.00011999999999999999,0.00016,0.00014,0.00055,6
32273,33214,0.00021,-7e-05,-2e-05,-5.9999999999999995e-05,-0.00011,-0.00057,-0.00015,-0.00037,6
32274,33215,0.00021,-7e-05,-2e-05,-5.9999999999999995e-05,-0.00011,-0.00057,-0.00015,-0.00037,6
32275,33216,0.00021,-7e-05,-2e-05,-5.9999999999999995e-05,-0.00011,-0.00057,-0.00015,-0.00037,6
32276,33217,0.00021,-7e-05,-2e-05,-5.9999999999999995e-05,-0.00011,-0.00057,-0.00015,-0.00037,6
32277,33218,0.00021,-7e-05,-2e-05,-5.9999999999999995e-05,-0.00011,-0.00057,-0.00015,-0.00037,6
32278,33219,0.00021,-7e-05,-2e-05,-5.9999999999999995e-05,-0.00011,-0.00057,-0.00015,-0.00037,6
32279,33220,0.00021,-7e-05,-2e-05,-5.9999999999999995e-05,-0.00011,-0.00057,-0.00015,-0.00037,6
32280,33221,0.00021,-7e-05,-2e-05,-5.9999999999999995e-05,-0.00011,-0.00057,-0.00015,-0.00037,6
32281,33222,0.00021,-7e-05,-2e-05,-5.9999999999999995e-05,-0.00011,-0.00057,-0.00015,-0.00037,6
32282,33223,0.00021,-7e-05,-2e-05,-5.9999999999999995e-05,-0.00011,-0.00057,-0.00015,-0.00037,6
32283,33224,0.00021,-7e-05,-2e-05,-5.9999999999999995e-05,-0.00011,-0.00057,-0.00015,-0.00037,6
32284,33225,0.00021,-7e-05,-2e-05,-5.9999999999999995e-05,-0.00011,-0.00057,-0.00015,-0.00037,6
32285,33226,0.00021,-7e-05,-2e-05,-5.9999999999999995e-05,-0.00011,-0.00057,-0.00015,-0.00037,6
32286,33227,0.00021,-7e-05,-2e-05,-5.9999999999999995e-05,-0.00011,-0.00057,-0.00015,-0.00037,6
32287,33228,0.00021,-7e-05,-2e-05,-5.9999999999999995e-05,-0.00011,-0.00057,-0.00015,-0.00037,6
32288,33229,0.00021,-7e-05,-2e-05,-5.9999999999999995e-05,-0.00011,-0.00057,-0.00015,-0.00037,6
32289,33230,0.00021,-7e-05,-2e-05,-5.9999999999999995e-05,-0.00011,-0.00057,-0.00015,-0.00037,6
32290,33231,0.00021,-7e-05,-2e-05,-5.9999999999999995e-05,-0.00011,-0.00057,-0.00015,-0.00037,6
32291,33232,0.00021,-7e-05,-2e-05,-5.9999999999999995e-05,-0.00011,-0.00057,-0.00015,-0.00037,6
32292,33233,0.00021,-7e-05,-2e-05,-5.9999999999999995e-05,-0.00011,-0.00057,-0.00015,-0.00037,6
32293,33234,0.00021,-7e-05,-2e-05,-5.9999999999999995e-05,-0.00011,-0.00057,-0.00015,-0.00037,6
32294,33235,-0.0002,1e-05,2.9999999999999997e-05,-4e-05,-0.00032,-9e-05,-0.00015,-0.00018,6
32295,33236,-0.0002,1e-05,2.9999999999999997e-05,-4e-05,-0.00032,-9e-05,-0.00015,-0.00018,6
32296,33239,0.00026000000000000003,5e-05,-2e-05,-5e-05,-0.00025,2.9999999999999997e-05,0.0,0.0001,6
32297,33240,0.00026000000000000003,5e-05,-2e-05,-5e-05,-0.00025,2.9999999999999997e-05,0.0,0.0001,6
32298,33241,0.00026000000000000003,5e-05,-2e-05,-5e-05,-0.00025,2.9999999999999997e-05,0.0,0.0001,6
32299,33242,0.00026000000000000003,5e-05,-2e-05,-5e-05,-0.00025,2.9999999999999997e-05,0.0,0.0001,6
32300,33243,0.00026000000000000003,5e-05,-2e-05,-5e-05,-0.00025,2.9999999999999997e-05,0.0,0.0001,6
32301,33244,0.00026000000000000003,5e-05,-2e-05,-5e-05,-0.00025,2.9999999999999997e-05,0.0,0.0001,6
32302,33245,0.00026000000000000003,5e-05,-2e-05,-5e-05,-0.00025,2.9999999999999997e-05,0.0,0.0001,6
32303,33246,0.00026000000000000003,5e-05,-2e-05,-5e-05,-0.00025,2.9999999999999997e-05,0.0,0.0001,6
32304,33247,0.00026000000000000003,5e-05,-2e-05,-5e-05,-0.00025,2.9999999999999997e-05,0.0,0.0001,6
32305,33248,-0.00028,-4e-05,-4e-05,-7e-05,-0.0004,-0.00047000000000000004,-0.0002,-0.00026000000000000003,6
32306,33249,-0.00028,-4e-05,-4e-05,-7e-05,-0.0004,-0.00047000000000000004,-0.0002,-0.00026000000000000003,6
32307,33250,-0.00028,-4e-05,-4e-05,-7e-05,-0.0004,-0.00047000000000000004,-0.0002,-0.00026000000000000003,6
32308,33251,-0.00028,-4e-05,-4e-05,-7e-05,-0.0004,-0.00047000000000000004,-0.0002,-0.00026000000000000003,6
32309,33252,-0.00028,-4e-05,-4e-05,-7e-05,-0.0004,-0.00047000000000000004,-0.0002,-0.00026000000000000003,6
32310,33253,-0.00028,-4e-05,-4e-05,-7e-05,-0.0004,-0.00047000000000000004,-0.0002,-0.00026000000000000003,6
32311,33254,-0.00028,-4e-05,-4e-05,-7e-05,-0.0004,-0.00047000000000000004,-0.0002,-0.00026000000000000003,6
32312,33255,-0.00028,-4e-05,-4e-05,-7e-05,-0.0004,-0.00047000000000000004,-0.0002,-0.00026000000000000003,6
32313,33256,-0.00028,-4e-05,-4e-05,-7e-05,-0.0004,-0.00047000000000000004,-0.0002,-0.00026000000000000003,6
32314,33257,-0.00011999999999999999,-7e-05,-8e-05,-5e-05,-0.00021,0.00057,-0.00015,-0.0003,6
32315,33258,-0.00011999999999999999,-7e-05,-8e-05,-5e-05,-0.00021,0.00057,-0.00015,-0.0003,6
32316,33259,-0.00011999999999999999,-7e-05,-8e-05,-5e-05,-0.00021,0.00057,-0.00015,-0.0003,6
32317,33260,-0.00011999999999999999,-7e-05,-8e-05,-5e-05,-0.00021,0.00057,-0.00015,-0.0003,6
32318,33261,-0.00011999999999999999,-7e-05,-8e-05,-5e-05,-0.00021,0.00057,-0.00015,-0.0003,6
32319,33262,-0.00011999999999999999,-7e-05,-8e-05,-5e-05,-0.00021,0.00057,-0.00015,-0.0003,6
32320,33263,-0.00011999999999999999,-7e-05,-8e-05,-5e-05,-0.00021,0.00057,-0.00015,-0.0003,6
32321,33264,-0.00011999999999999999,-7e-05,-8e-05,-5e-05,-0.00021,0.00057,-0.00015,-0.0003,6
32322,33265,-0.00011999999999999999,-7e-05,-8e-05,-5e-05,-0.00021,0.00057,-0.00015,-0.0003,6
32323,33266,-0.00011999999999999999,-7e-05,-8e-05,-5e-05,-0.00021,0.00057,-0.00015,-0.0003,6
32324,33267,-0.00011999999999999999,-7e-05,-8e-05,-5e-05,-0.00021,0.00057,-0.00015,-0.0003,6
32325,33268,-0.00011999999999999999,-7e-05,-8e-05,-5e-05,-0.00021,0.00057,-0.00015,-0.0003,6
32326,33269,-0.00011999999999999999,-7e-05,-8e-05,-5e-05,-0.00021,0.00057,-0.00015,-0.0003,6
32327,33270,-0.00011999999999999999,-7e-05,-8e-05,-5e-05,-0.00021,0.00057,-0.00015,-0.0003,6
32328,33271,-0.00011999999999999999,-7e-05,-8e-05,-5e-05,-0.00021,0.00057,-0.00015,-0.0003,6
32329,33272,0.00028,5e-05,2e-05,4e-05,0.00018999999999999998,-0.0001,-0.00025,-5.9999999999999995e-05,6
32330,33273,0.00028,5e-05,2e-05,4e-05,0.00018999999999999998,-0.0001,-0.00025,-5.9999999999999995e-05,6
32331,33274,-0.00014,1e-05,1e-05,-2e-05,0.00011,0.00033,9e-05,0.00028,6
32332,33275,-0.00014,1e-05,1e-05,-2e-05,0.00011,0.00033,9e-05,0.00028,6
32333,33276,-0.00014,1e-05,1e-05,-2e-05,0.00011,0.00033,9e-05,0.00028,6
32334,33277,-0.00014,1e-05,1e-05,-2e-05,0.00011,0.00033,9e-05,0.00028,6
32335,33278,-0.00014,1e-05,1e-05,-2e-05,0.00011,0.00033,9e-05,0.00028,6
32336,33279,-0.00014,1e-05,1e-05,-2e-05,0.00011,0.00033,9e-05,0.00028,6
32337,33280,-0.00014,1e-05,1e-05,-2e-05,0.00011,0.00033,9e-05,0.00028,6
32338,33281,-0.00014,1e-05,1e-05,-2e-05,0.00011,0.00033,9e-05,0.00028,6
32339,33282,-0.00014,1e-05,1e-05,-2e-05,0.00011,0.00033,9e-05,0.00028,6
32340,33283,-0.00014,1e-05,1e-05,-2e-05,0.00011,0.00033,9e-05,0.00028,6
32341,33284,-0.00014,1e-05,1e-05,-2e-05,0.00011,0.00033,9e-05,0.00028,6
32342,33285,-0.00014,1e-05,1e-05,-2e-05,0.00011,0.00033,9e-05,0.00028,6
32343,33286,-0.00014,1e-05,1e-05,-2e-05,0.00011,0.00033,9e-05,0.00028,6
32344,33288,-0.00014,1e-05,1e-05,-2e-05,0.00011,0.00033,9e-05,0.00028,6
32345,33289,-0.00014,1e-05,1e-05,-2e-05,0.00011,0.00033,9e-05,0.00028,6
32346,33290,-0.00014,1e-05,1e-05,-2e-05,0.00011,0.00033,9e-05,0.00028,6
32347,33291,-0.00014,1e-05,1e-05,-2e-05,0.00011,0.00033,9e-05,0.00028,6
32348,33292,-0.00014,1e-05,1e-05,-2e-05,0.00011,0.00033,9e-05,0.00028,6
32349,33293,-0.00014,1e-05,1e-05,-2e-05,0.00011,0.00033,9e-05,0.00028,6
32350,33294,-2e-05,5e-05,2.9999999999999997e-05,0.00011999999999999999,0.0003,-0.00018,-0.00016,-0.00016999999999999999,6
32351,33295,2.9999999999999997e-05,-8e-05,-7e-05,-8e-05,-0.00037999999999999997,-2e-05,0.00028,0.00022,6
32352,33296,2.9999999999999997e-05,-8e-05,-7e-05,-8e-05,-0.00037999999999999997,-2e-05,0.00028,0.00022,6
32353,33297,-0.0001,-5e-05,-5.9999999999999995e-05,-0.00014,-0.00026000000000000003,7e-05,-0.00018,0.00022,6
32354,33298,-0.0001,-5e-05,-5.9999999999999995e-05,-0.00014,-0.00026000000000000003,7e-05,-0.00018,0.00022,6
32355,33299,-0.0001,-5e-05,-5.9999999999999995e-05,-0.00014,-0.00026000000000000003,7e-05,-0.00018,0.00022,6
32356,33300,-0.0001,-5e-05,-5.9999999999999995e-05,-0.00014,-0.00026000000000000003,7e-05,-0.00018,0.00022,6
32357,33301,-0.0001,-5e-05,-5.9999999999999995e-05,-0.00014,-0.00026000000000000003,7e-05,-0.00018,0.00022,6
32358,33302,-0.0001,-5e-05,-5.9999999999999995e-05,-0.00014,-0.00026000000000000003,7e-05,-0.00018,0.00022,6
32359,33303,-0.0001,-5e-05,-5.9999999999999995e-05,-0.00014,-0.00026000000000000003,7e-05,-0.00018,0.00022,6
32360,33304,-0.0001,-5e-05,-5.9999999999999995e-05,-0.00014,-0.00026000000000000003,7e-05,-0.00018,0.00022,6
32361,33305,-0.0001,-5e-05,-5.9999999999999995e-05,-0.00014,-0.00026000000000000003,7e-05,-0.00018,0.00022,6
32362,33306,-0.0001,-5e-05,-5.9999999999999995e-05,-0.00014,-0.00026000000000000003,7e-05,-0.00018,0.00022,6
32363,33307,-0.0001,-5e-05,-5.9999999999999995e-05,-0.00014,-0.00026000000000000003,7e-05,-0.00018,0.00022,6
32364,33308,-0.0001,-5e-05,-5.9999999999999995e-05,-0.00014,-0.00026000000000000003,7e-05,-0.00018,0.00022,6
32365,33309,-0.0001,-5e-05,-5.9999999999999995e-05,-0.00014,-0.00026000000000000003,7e-05,-0.00018,0.00022,6
32366,33310,-0.0001,-5e-05,-5.9999999999999995e-05,-0.00014,-0.00026000000000000003,7e-05,-0.00018,0.00022,6
32367,33311,-0.0001,-5e-05,-5.9999999999999995e-05,-0.00014,-0.00026000000000000003,7e-05,-0.00018,0.00022,6
32368,33312,-0.0001,-5e-05,-5.9999999999999995e-05,-0.00014,-0.00026000000000000003,7e-05,-0.00018,0.00022,6
32369,33313,-0.0001,-5e-05,-5.9999999999999995e-05,-0.00014,-0.00026000000000000003,7e-05,-0.00018,0.00022,6
32370,33314,-0.0001,-5e-05,-5.9999999999999995e-05,-0.00014,-0.00026000000000000003,7e-05,-0.00018,0.00022,6
32371,33315,-0.0001,-5e-05,-5.9999999999999995e-05,-0.00014,-0.00026000000000000003,7e-05,-0.00018,0.00022,6
32372,33316,-0.0001,-5e-05,-5.9999999999999995e-05,-0.00014,-0.00026000000000000003,7e-05,-0.00018,0.00022,6
32373,33317,-0.00023999999999999998,4e-05,2e-05,5.9999999999999995e-05,0.00016,0.00027,8e-05,2e-05,6
32374,33318,-0.00023999999999999998,4e-05,2e-05,5.9999999999999995e-05,0.00016,0.00027,8e-05,2e-05,6
32375,33319,-0.00023999999999999998,4e-05,2e-05,5.9999999999999995e-05,0.00016,0.00027,8e-05,2e-05,6
32376,33320,-0.00023999999999999998,4e-05,2e-05,5.9999999999999995e-05,0.00016,0.00027,8e-05,2e-05,6
32377,33321,-0.00023999999999999998,4e-05,2e-05,5.9999999999999995e-05,0.00016,0.00027,8e-05,2e-05,6
32378,33322,-0.00023999999999999998,4e-05,2e-05,5.9999999999999995e-05,0.00016,0.00027,8e-05,2e-05,6
32379,33323,-0.00023999999999999998,4e-05,2e-05,5.9999999999999995e-05,0.00016,0.00027,8e-05,2e-05,6
32380,33324,-0.00023999999999999998,4e-05,2e-05,5.9999999999999995e-05,0.00016,0.00027,8e-05,2e-05,6
32381,33325,0.0002,-7e-05,-9e-05,-8e-05,-0.00014,9e-05,1e-05,0.00016999999999999999,6
32382,33326,0.0002,-7e-05,-9e-05,-8e-05,-0.00014,9e-05,1e-05,0.00016999999999999999,6
32383,33327,0.0002,-7e-05,-9e-05,-8e-05,-0.00014,9e-05,1e-05,0.00016999999999999999,6
32384,33328,0.0002,-7e-05,-9e-05,-8e-05,-0.00014,9e-05,1e-05,0.00016999999999999999,6
32385,33329,0.0002,-7e-05,-9e-05,-8e-05,-0.00014,9e-05,1e-05,0.00016999999999999999,6
32386,33330,0.0002,-7e-05,-9e-05,-8e-05,-0.00014,9e-05,1e-05,0.00016999999999999999,6
32387,33331,0.0002,-7e-05,-9e-05,-8e-05,-0.00014,9e-05,1e-05,0.00016999999999999999,6
32388,33332,-8e-05,1e-05,2e-05,2.9999999999999997e-05,-0.0001,0.00033,-2.9999999999999997e-05,-0.00058,6
32389,33333,-8e-05,1e-05,2e-05,2.9999999999999997e-05,-0.0001,0.00033,-2.9999999999999997e-05,-0.00058,6
32390,33334,-0.0001,2e-05,1e-05,7e-05,1e-05,-0.00011,7e-05,-0.00035,6
32391,33335,-0.0001,2e-05,1e-05,7e-05,1e-05,-0.00011,7e-05,-0.00035,6
32392,33336,-0.0001,2e-05,1e-05,7e-05,1e-05,-0.00011,7e-05,-0.00035,6
32393,33338,-0.0001,2e-05,1e-05,7e-05,1e-05,-0.00011,7e-05,-0.00035,6
32394,33339,-0.0001,2e-05,1e-05,7e-05,1e-05,-0.00011,7e-05,-0.00035,6
32395,33340,-0.0001,2e-05,1e-05,7e-05,1e-05,-0.00011,7e-05,-0.00035,6
32396,33341,-0.0001,2e-05,1e-05,7e-05,1e-05,-0.00011,7e-05,-0.00035,6
32397,33342,-0.0001,2e-05,1e-05,7e-05,1e-05,-0.00011,7e-05,-0.00035,6
32398,33343,-0.0001,2e-05,1e-05,7e-05,1e-05,-0.00011,7e-05,-0.00035,6
32399,33344,-0.0001,2e-05,1e-05,7e-05,1e-05,-0.00011,7e-05,-0.00035,6
32400,33345,-0.0001,2e-05,1e-05,7e-05,1e-05,-0.00011,7e-05,-0.00035,6
32401,33346,-0.0001,2e-05,1e-05,7e-05,1e-05,-0.00011,7e-05,-0.00035,6
32402,33347,-0.0001,2e-05,1e-05,7e-05,1e-05,-0.00011,7e-05,-0.00035,6
32403,33348,-0.0001,2e-05,1e-05,7e-05,1e-05,-0.00011,7e-05,-0.00035,6
32404,33349,-0.0001,2e-05,1e-05,7e-05,1e-05,-0.00011,7e-05,-0.00035,6
32405,33350,-0.0001,2e-05,1e-05,7e-05,1e-05,-0.00011,7e-05,-0.00035,6
32406,33351,-0.0001,2e-05,1e-05,7e-05,1e-05,-0.00011,7e-05,-0.00035,6
32407,33352,-0.0001,2e-05,1e-05,7e-05,1e-05,-0.00011,7e-05,-0.00035,6
32408,33353,-0.0001,2e-05,1e-05,7e-05,1e-05,-0.00011,7e-05,-0.00035,6
32409,33354,-0.0001,2e-05,1e-05,7e-05,1e-05,-0.00011,7e-05,-0.00035,6
32410,33355,-0.00018999999999999998,-8e-05,-1e-05,-1e-05,0.00018,-0.00016,1e-05,8e-05,6
32411,33356,-0.00013000000000000002,-4e-05,-1e-05,8e-05,0.00049,5e-05,0.00011999999999999999,0.00042,6
32412,33357,-0.00013000000000000002,-4e-05,-1e-05,8e-05,0.00049,5e-05,0.00011999999999999999,0.00042,6
32413,33358,-0.00013000000000000002,-4e-05,-1e-05,8e-05,0.00049,5e-05,0.00011999999999999999,0.00042,6
32414,33359,-0.00013000000000000002,-4e-05,-1e-05,8e-05,0.00049,5e-05,0.00011999999999999999,0.00042,6
32415,33360,-0.00013000000000000002,-4e-05,-1e-05,8e-05,0.00049,5e-05,0.00011999999999999999,0.00042,6
32416,33361,-0.00013000000000000002,-4e-05,-1e-05,8e-05,0.00049,5e-05,0.00011999999999999999,0.00042,6
32417,33362,-0.00013000000000000002,-4e-05,-1e-05,8e-05,0.00049,5e-05,0.00011999999999999999,0.00042,6
32418,33363,-0.00013000000000000002,-4e-05,-1e-05,8e-05,0.00049,5e-05,0.00011999999999999999,0.00042,6
32419,33364,-0.00013000000000000002,-4e-05,-1e-05,8e-05,0.00049,5e-05,0.00011999999999999999,0.00042,6
32420,33365,-0.00013000000000000002,-4e-05,-1e-05,8e-05,0.00049,5e-05,0.00011999999999999999,0.00042,6
32421,33366,-0.00013000000000000002,-4e-05,-1e-05,8e-05,0.00049,5e-05,0.00011999999999999999,0.00042,6
32422,33367,-0.00013000000000000002,-4e-05,-1e-05,8e-05,0.00049,5e-05,0.00011999999999999999,0.00042,6
32423,33368,-0.00013000000000000002,-4e-05,-1e-05,8e-05,0.00049,5e-05,0.00011999999999999999,0.00042,6
32424,33369,-0.00013000000000000002,-4e-05,-1e-05,8e-05,0.00049,5e-05,0.00011999999999999999,0.00042,6
32425,33370,-0.00013000000000000002,-4e-05,-1e-05,8e-05,0.00049,5e-05,0.00011999999999999999,0.00042,6
32426,33371,-0.00013000000000000002,-4e-05,-1e-05,8e-05,0.00049,5e-05,0.00011999999999999999,0.00042,6
32427,33372,-0.00013000000000000002,-4e-05,-1e-05,8e-05,0.00049,5e-05,0.00011999999999999999,0.00042,6
32428,33373,-0.00013000000000000002,-4e-05,-1e-05,8e-05,0.00049,5e-05,0.00011999999999999999,0.00042,6
32429,33374,-0.00013000000000000002,-4e-05,-1e-05,8e-05,0.00049,5e-05,0.00011999999999999999,0.00042,6
32430,33375,-0.00013000000000000002,-4e-05,-1e-05,8e-05,0.00049,5e-05,0.00011999999999999999,0.00042,6
32431,33376,-0.00013000000000000002,-4e-05,-1e-05,8e-05,0.00049,5e-05,0.00011999999999999999,0.00042,6
32432,33377,0.00021,5.9999999999999995e-05,-4e-05,-4e-05,-0.00016,-0.00037,-0.00018,-0.0001,6
32433,33378,0.00021,5.9999999999999995e-05,-4e-05,-4e-05,-0.00016,-0.00037,-0.00018,-0.0001,6
32434,33379,8e-05,1e-05,-2e-05,2.9999999999999997e-05,0.00011,-0.00028,4e-05,9e-05,6
32435,33380,8e-05,1e-05,-2e-05,2.9999999999999997e-05,0.00011,-0.00028,4e-05,9e-05,6
32436,33381,8e-05,1e-05,-2e-05,2.9999999999999997e-05,0.00011,-0.00028,4e-05,9e-05,6
32437,33382,8e-05,1e-05,-2e-05,2.9999999999999997e-05,0.00011,-0.00028,4e-05,9e-05,6
32438,33383,8e-05,1e-05,-2e-05,2.9999999999999997e-05,0.00011,-0.00028,4e-05,9e-05,6
32439,33384,8e-05,1e-05,-2e-05,2.9999999999999997e-05,0.00011,-0.00028,4e-05,9e-05,6
32440,33385,8e-05,1e-05,-2e-05,2.9999999999999997e-05,0.00011,-0.00028,4e-05,9e-05,6
32441,33386,8e-05,1e-05,-2e-05,2.9999999999999997e-05,0.00011,-0.00028,4e-05,9e-05,6
32442,33388,8e-05,1e-05,-2e-05,2.9999999999999997e-05,0.00011,-0.00028,4e-05,9e-05,6
32443,33389,8e-05,1e-05,-2e-05,2.9999999999999997e-05,0.00011,-0.00028,4e-05,9e-05,6
32444,33390,8e-05,1e-05,-2e-05,2.9999999999999997e-05,0.00011,-0.00028,4e-05,9e-05,6
32445,33391,8e-05,1e-05,-2e-05,2.9999999999999997e-05,0.00011,-0.00028,4e-05,9e-05,6
32446,33392,2.9999999999999997e-05,0.0,1e-05,2e-05,0.00027,5.9999999999999995e-05,-0.00016,0.00021,6
32447,33393,2.9999999999999997e-05,0.0,1e-05,2e-05,0.00027,5.9999999999999995e-05,-0.00016,0.00021,6
32448,33394,0.00011999999999999999,8e-05,4e-05,9e-05,-0.00011999999999999999,-0.00016,7e-05,9e-05,6
32449,33395,0.00011999999999999999,8e-05,4e-05,9e-05,-0.00011999999999999999,-0.00016,7e-05,9e-05,6
32450,33396,0.00011999999999999999,8e-05,4e-05,9e-05,-0.00011999999999999999,-0.00016,7e-05,9e-05,6
32451,33397,0.00011999999999999999,8e-05,4e-05,9e-05,-0.00011999999999999999,-0.00016,7e-05,9e-05,6
32452,33398,0.00011999999999999999,8e-05,4e-05,9e-05,-0.00011999999999999999,-0.00016,7e-05,9e-05,6
32453,33399,0.00011999999999999999,8e-05,4e-05,9e-05,-0.00011999999999999999,-0.00016,7e-05,9e-05,6
32454,33400,0.00011999999999999999,8e-05,4e-05,9e-05,-0.00011999999999999999,-0.00016,7e-05,9e-05,6
32455,33401,0.00011999999999999999,8e-05,4e-05,9e-05,-0.00011999999999999999,-0.00016,7e-05,9e-05,6
32456,33402,0.00011999999999999999,8e-05,4e-05,9e-05,-0.00011999999999999999,-0.00016,7e-05,9e-05,6
32457,33403,0.00011999999999999999,8e-05,4e-05,9e-05,-0.00011999999999999999,-0.00016,7e-05,9e-05,6
32458,33404,0.00011999999999999999,8e-05,4e-05,9e-05,-0.00011999999999999999,-0.00016,7e-05,9e-05,6
32459,33405,0.00011999999999999999,8e-05,4e-05,9e-05,-0.00011999999999999999,-0.00016,7e-05,9e-05,6
32460,33406,0.00011999999999999999,8e-05,4e-05,9e-05,-0.00011999999999999999,-0.00016,7e-05,9e-05,6
32461,33407,0.00011999999999999999,8e-05,4e-05,9e-05,-0.00011999999999999999,-0.00016,7e-05,9e-05,6
32462,33408,0.00011999999999999999,8e-05,4e-05,9e-05,-0.00011999999999999999,-0.00016,7e-05,9e-05,6
32463,33409,0.00011999999999999999,8e-05,4e-05,9e-05,-0.00011999999999999999,-0.00016,7e-05,9e-05,6
32464,33410,0.00011999999999999999,8e-05,4e-05,9e-05,-0.00011999999999999999,-0.00016,7e-05,9e-05,6
32465,33411,0.00011999999999999999,8e-05,4e-05,9e-05,-0.00011999999999999999,-0.00016,7e-05,9e-05,6
32466,33412,0.00011999999999999999,8e-05,4e-05,9e-05,-0.00011999999999999999,-0.00016,7e-05,9e-05,6
32467,33413,0.00011999999999999999,8e-05,4e-05,9e-05,-0.00011999999999999999,-0.00016,7e-05,9e-05,6
32468,33414,0.00011999999999999999,8e-05,4e-05,9e-05,-0.00011999999999999999,-0.00016,7e-05,9e-05,6
32469,33415,-0.0001,-2.9999999999999997e-05,-5e-05,-4e-05,5e-05,0.00032,2e-05,1e-05,6
32470,33416,-0.00031,-1e-05,1e-05,-2.9999999999999997e-05,-5e-05,2e-05,-4e-05,0.0002,6
32471,33417,-0.00031,-1e-05,1e-05,-2.9999999999999997e-05,-5e-05,2e-05,-4e-05,0.0002,6
32472,33418,-0.00031,-1e-05,1e-05,-2.9999999999999997e-05,-5e-05,2e-05,-4e-05,0.0002,6
32473,33419,-0.00031,-1e-05,1e-05,-2.9999999999999997e-05,-5e-05,2e-05,-4e-05,0.0002,6
32474,33420,-0.00031,-1e-05,1e-05,-2.9999999999999997e-05,-5e-05,2e-05,-4e-05,0.0002,6
32475,33421,-0.00031,-1e-05,1e-05,-2.9999999999999997e-05,-5e-05,2e-05,-4e-05,0.0002,6
32476,33422,-0.00031,-1e-05,1e-05,-2.9999999999999997e-05,-5e-05,2e-05,-4e-05,0.0002,6
32477,33423,-0.00031,-1e-05,1e-05,-2.9999999999999997e-05,-5e-05,2e-05,-4e-05,0.0002,6
32478,33424,-0.00031,-1e-05,1e-05,-2.9999999999999997e-05,-5e-05,2e-05,-4e-05,0.0002,6
32479,33425,-0.00031,-1e-05,1e-05,-2.9999999999999997e-05,-5e-05,2e-05,-4e-05,0.0002,6
32480,33426,-0.00031,-1e-05,1e-05,-2.9999999999999997e-05,-5e-05,2e-05,-4e-05,0.0002,6
32481,33427,-0.00031,-1e-05,1e-05,-2.9999999999999997e-05,-5e-05,2e-05,-4e-05,0.0002,6
32482,33428,-0.00031,-1e-05,1e-05,-2.9999999999999997e-05,-5e-05,2e-05,-4e-05,0.0002,6
32483,33429,-0.00031,-1e-05,1e-05,-2.9999999999999997e-05,-5e-05,2e-05,-4e-05,0.0002,6
32484,33430,-0.00031,-1e-05,1e-05,-2.9999999999999997e-05,-5e-05,2e-05,-4e-05,0.0002,6
32485,33431,-0.00031,-1e-05,1e-05,-2.9999999999999997e-05,-5e-05,2e-05,-4e-05,0.0002,6
32486,33432,-0.00031,-1e-05,1e-05,-2.9999999999999997e-05,-5e-05,2e-05,-4e-05,0.0002,6
32487,33433,-0.00031,-1e-05,1e-05,-2.9999999999999997e-05,-5e-05,2e-05,-4e-05,0.0002,6
32488,33434,-0.00031,-1e-05,1e-05,-2.9999999999999997e-05,-5e-05,2e-05,-4e-05,0.0002,6
32489,33435,-0.00031,-1e-05,1e-05,-2.9999999999999997e-05,-5e-05,2e-05,-4e-05,0.0002,6
32490,33436,-0.00031,-1e-05,1e-05,-2.9999999999999997e-05,-5e-05,2e-05,-4e-05,0.0002,6
32491,33439,-0.00016999999999999999,-5.9999999999999995e-05,-2.9999999999999997e-05,-2e-05,0.0004,0.00015,4e-05,-0.00043,6
32492,33440,-0.00016999999999999999,-5.9999999999999995e-05,-2.9999999999999997e-05,-2e-05,0.0004,0.00015,4e-05,-0.00043,6
32493,33441,-0.00016999999999999999,-5.9999999999999995e-05,-2.9999999999999997e-05,-2e-05,0.0004,0.00015,4e-05,-0.00043,6
32494,33442,-0.00016999999999999999,-5.9999999999999995e-05,-2.9999999999999997e-05,-2e-05,0.0004,0.00015,4e-05,-0.00043,6
32495,33443,-0.00016999999999999999,-5.9999999999999995e-05,-2.9999999999999997e-05,-2e-05,0.0004,0.00015,4e-05,-0.00043,6
32496,33444,-0.00016999999999999999,-5.9999999999999995e-05,-2.9999999999999997e-05,-2e-05,0.0004,0.00015,4e-05,-0.00043,6
32497,33445,-0.00016999999999999999,-5.9999999999999995e-05,-2.9999999999999997e-05,-2e-05,0.0004,0.00015,4e-05,-0.00043,6
32498,33446,-0.00016999999999999999,-5.9999999999999995e-05,-2.9999999999999997e-05,-2e-05,0.0004,0.00015,4e-05,-0.00043,6
32499,33447,-0.00016999999999999999,-5.9999999999999995e-05,-2.9999999999999997e-05,-2e-05,0.0004,0.00015,4e-05,-0.00043,6
32500,33448,-0.00016999999999999999,-5.9999999999999995e-05,-2.9999999999999997e-05,-2e-05,0.0004,0.00015,4e-05,-0.00043,6
32501,33449,-0.00016999999999999999,-5.9999999999999995e-05,-2.9999999999999997e-05,-2e-05,0.0004,0.00015,4e-05,-0.00043,6
32502,33450,-0.00016999999999999999,-5.9999999999999995e-05,-2.9999999999999997e-05,-2e-05,0.0004,0.00015,4e-05,-0.00043,6
32503,33451,-0.00016999999999999999,-5.9999999999999995e-05,-2.9999999999999997e-05,-2e-05,0.0004,0.00015,4e-05,-0.00043,6
32504,33452,-8e-05,-2e-05,-1e-05,0.00013000000000000002,0.00036,9e-05,-0.00014,-0.00016,6
32505,33453,-8e-05,-2e-05,-1e-05,0.00013000000000000002,0.00036,9e-05,-0.00014,-0.00016,6
32506,33454,-4e-05,-9e-05,-5e-05,-8e-05,-0.0001,-0.00032,5.9999999999999995e-05,-0.00022999999999999998,6
32507,33455,-4e-05,-9e-05,-5e-05,-8e-05,-0.0001,-0.00032,5.9999999999999995e-05,-0.00022999999999999998,6
32508,33456,-4e-05,-9e-05,-5e-05,-8e-05,-0.0001,-0.00032,5.9999999999999995e-05,-0.00022999999999999998,6
32509,33457,-4e-05,-9e-05,-5e-05,-8e-05,-0.0001,-0.00032,5.9999999999999995e-05,-0.00022999999999999998,6
32510,33458,-4e-05,-9e-05,-5e-05,-8e-05,-0.0001,-0.00032,5.9999999999999995e-05,-0.00022999999999999998,6
32511,33459,-4e-05,-9e-05,-5e-05,-8e-05,-0.0001,-0.00032,5.9999999999999995e-05,-0.00022999999999999998,6
32512,33460,-4e-05,-9e-05,-5e-05,-8e-05,-0.0001,-0.00032,5.9999999999999995e-05,-0.00022999999999999998,6
32513,33461,-4e-05,-9e-05,-5e-05,-8e-05,-0.0001,-0.00032,5.9999999999999995e-05,-0.00022999999999999998,6
32514,33462,-4e-05,-9e-05,-5e-05,-8e-05,-0.0001,-0.00032,5.9999999999999995e-05,-0.00022999999999999998,6
32515,33463,-4e-05,-9e-05,-5e-05,-8e-05,-0.0001,-0.00032,5.9999999999999995e-05,-0.00022999999999999998,6
32516,33464,-4e-05,-9e-05,-5e-05,-8e-05,-0.0001,-0.00032,5.9999999999999995e-05,-0.00022999999999999998,6
32517,33465,-4e-05,-9e-05,-5e-05,-8e-05,-0.0001,-0.00032,5.9999999999999995e-05,-0.00022999999999999998,6
32518,33466,-4e-05,-9e-05,-5e-05,-8e-05,-0.0001,-0.00032,5.9999999999999995e-05,-0.00022999999999999998,6
32519,33467,-4e-05,-9e-05,-5e-05,-8e-05,-0.0001,-0.00032,5.9999999999999995e-05,-0.00022999999999999998,6
32520,33468,-4e-05,-9e-05,-5e-05,-8e-05,-0.0001,-0.00032,5.9999999999999995e-05,-0.00022999999999999998,6
32521,33469,-4e-05,-9e-05,-5e-05,-8e-05,-0.0001,-0.00032,5.9999999999999995e-05,-0.00022999999999999998,6
32522,33470,-4e-05,-9e-05,-5e-05,-8e-05,-0.0001,-0.00032,5.9999999999999995e-05,-0.00022999999999999998,6
32523,33471,-4e-05,-9e-05,-5e-05,-8e-05,-0.0001,-0.00032,5.9999999999999995e-05,-0.00022999999999999998,6
32524,33472,-4e-05,-9e-05,-5e-05,-8e-05,-0.0001,-0.00032,5.9999999999999995e-05,-0.00022999999999999998,6
32525,33473,-4e-05,-9e-05,-5e-05,-8e-05,-0.0001,-0.00032,5.9999999999999995e-05,-0.00022999999999999998,6
32526,33474,-4e-05,-9e-05,-5e-05,-8e-05,-0.0001,-0.00032,5.9999999999999995e-05,-0.00022999999999999998,6
32527,33475,-0.00029,-2.9999999999999997e-05,0.0,-2e-05,0.00014,0.00084,0.00018999999999999998,8e-05,6
32528,33476,8e-05,2e-05,5e-05,0.0001,-0.00031,-0.00011999999999999999,-0.00016999999999999999,-0.00018,6
32529,33477,8e-05,2e-05,5e-05,0.0001,-0.00031,-0.00011999999999999999,-0.00016999999999999999,-0.00018,6
32530,33478,8e-05,2e-05,5e-05,0.0001,-0.00031,-0.00011999999999999999,-0.00016999999999999999,-0.00018,6
32531,33479,8e-05,2e-05,5e-05,0.0001,-0.00031,-0.00011999999999999999,-0.00016999999999999999,-0.00018,6
32532,33480,8e-05,2e-05,5e-05,0.0001,-0.00031,-0.00011999999999999999,-0.00016999999999999999,-0.00018,6
32533,33481,8e-05,2e-05,5e-05,0.0001,-0.00031,-0.00011999999999999999,-0.00016999999999999999,-0.00018,6
32534,33482,8e-05,2e-05,5e-05,0.0001,-0.00031,-0.00011999999999999999,-0.00016999999999999999,-0.00018,6
32535,33483,8e-05,2e-05,5e-05,0.0001,-0.00031,-0.00011999999999999999,-0.00016999999999999999,-0.00018,6
32536,33484,8e-05,2e-05,5e-05,0.0001,-0.00031,-0.00011999999999999999,-0.00016999999999999999,-0.00018,6
32537,33485,8e-05,2e-05,5e-05,0.0001,-0.00031,-0.00011999999999999999,-0.00016999999999999999,-0.00018,6
32538,33486,8e-05,2e-05,5e-05,0.0001,-0.00031,-0.00011999999999999999,-0.00016999999999999999,-0.00018,6
32539,33488,8e-05,2e-05,5e-05,0.0001,-0.00031,-0.00011999999999999999,-0.00016999999999999999,-0.00018,6
32540,33489,8e-05,2e-05,5e-05,0.0001,-0.00031,-0.00011999999999999999,-0.00016999999999999999,-0.00018,6
32541,33490,8e-05,2e-05,5e-05,0.0001,-0.00031,-0.00011999999999999999,-0.00016999999999999999,-0.00018,6
32542,33491,8e-05,2e-05,5e-05,0.0001,-0.00031,-0.00011999999999999999,-0.00016999999999999999,-0.00018,6
32543,33492,8e-05,2e-05,5e-05,0.0001,-0.00031,-0.00011999999999999999,-0.00016999999999999999,-0.00018,6
32544,33493,8e-05,2e-05,5e-05,0.0001,-0.00031,-0.00011999999999999999,-0.00016999999999999999,-0.00018,6
32545,33494,8e-05,2e-05,5e-05,0.0001,-0.00031,-0.00011999999999999999,-0.00016999999999999999,-0.00018,6
32546,33495,8e-05,2e-05,5e-05,0.0001,-0.00031,-0.00011999999999999999,-0.00016999999999999999,-0.00018,6
32547,33496,8e-05,2e-05,5e-05,0.0001,-0.00031,-0.00011999999999999999,-0.00016999999999999999,-0.00018,6
32548,33497,-0.00016,-4e-05,-1e-05,-5.9999999999999995e-05,-0.00013000000000000002,-0.00011999999999999999,5.9999999999999995e-05,0.00028,6
32549,33498,-0.00016,-4e-05,-1e-05,-5.9999999999999995e-05,-0.00013000000000000002,-0.00011999999999999999,5.9999999999999995e-05,0.00028,6
32550,33499,-1e-05,-2.9999999999999997e-05,-1e-05,2.9999999999999997e-05,-0.00042,0.00036,0.00015,0.0003,6
32551,33500,-1e-05,-2.9999999999999997e-05,-1e-05,2.9999999999999997e-05,-0.00042,0.00036,0.00015,0.0003,6
32552,33501,-1e-05,-2.9999999999999997e-05,-1e-05,2.9999999999999997e-05,-0.00042,0.00036,0.00015,0.0003,6
32553,33502,-1e-05,-2.9999999999999997e-05,-1e-05,2.9999999999999997e-05,-0.00042,0.00036,0.00015,0.0003,6
32554,33503,-1e-05,-2.9999999999999997e-05,-1e-05,2.9999999999999997e-05,-0.00042,0.00036,0.00015,0.0003,6
32555,33504,-1e-05,-2.9999999999999997e-05,-1e-05,2.9999999999999997e-05,-0.00042,0.00036,0.00015,0.0003,6
32556,33505,-1e-05,-2.9999999999999997e-05,-1e-05,2.9999999999999997e-05,-0.00042,0.00036,0.00015,0.0003,6
32557,33506,-1e-05,-2.9999999999999997e-05,-1e-05,2.9999999999999997e-05,-0.00042,0.00036,0.00015,0.0003,6
32558,33507,-1e-05,-2.9999999999999997e-05,-1e-05,2.9999999999999997e-05,-0.00042,0.00036,0.00015,0.0003,6
32559,33508,-1e-05,-2.9999999999999997e-05,-1e-05,2.9999999999999997e-05,-0.00042,0.00036,0.00015,0.0003,6
32560,33509,-1e-05,-2.9999999999999997e-05,-1e-05,2.9999999999999997e-05,-0.00042,0.00036,0.00015,0.0003,6
32561,33510,-1e-05,-2.9999999999999997e-05,-1e-05,2.9999999999999997e-05,-0.00042,0.00036,0.00015,0.0003,6
32562,33511,0.00011999999999999999,-1e-05,-1e-05,5e-05,0.0003,-0.00026000000000000003,-2.9999999999999997e-05,0.00018,6
32563,33512,-0.00011,-0.00011,-4e-05,-5.9999999999999995e-05,-0.00028,-1e-05,0.00013000000000000002,0.00049,6
32564,33513,-0.00011,-0.00011,-4e-05,-5.9999999999999995e-05,-0.00028,-1e-05,0.00013000000000000002,0.00049,6
32565,33514,-0.00011,-0.00011,-4e-05,-5.9999999999999995e-05,-0.00028,-1e-05,0.00013000000000000002,0.00049,6
32566,33515,-0.00011,-0.00011,-4e-05,-5.9999999999999995e-05,-0.00028,-1e-05,0.00013000000000000002,0.00049,6
32567,33516,-0.00011,-0.00011,-4e-05,-5.9999999999999995e-05,-0.00028,-1e-05,0.00013000000000000002,0.00049,6
32568,33517,-0.00011,-0.00011,-4e-05,-5.9999999999999995e-05,-0.00028,-1e-05,0.00013000000000000002,0.00049,6
32569,33518,0.00022,-4e-05,-8e-05,-0.00013000000000000002,0.00014,0.0002,1e-05,0.00031,6
32570,33520,0.00022,-4e-05,-8e-05,-0.00013000000000000002,0.00014,0.0002,1e-05,0.00031,6
32571,33521,0.00022,-4e-05,-8e-05,-0.00013000000000000002,0.00014,0.0002,1e-05,0.00031,6
32572,33522,0.00022,-4e-05,-8e-05,-0.00013000000000000002,0.00014,0.0002,1e-05,0.00031,6
32573,33523,0.00022,-4e-05,-8e-05,-0.00013000000000000002,0.00014,0.0002,1e-05,0.00031,6
32574,33524,0.00022,-4e-05,-8e-05,-0.00013000000000000002,0.00014,0.0002,1e-05,0.00031,6
32575,33525,0.00022,-4e-05,-8e-05,-0.00013000000000000002,0.00014,0.0002,1e-05,0.00031,6
32576,33526,0.00022,-4e-05,-8e-05,-0.00013000000000000002,0.00014,0.0002,1e-05,0.00031,6
32577,33527,0.00022,-4e-05,-8e-05,-0.00013000000000000002,0.00014,0.0002,1e-05,0.00031,6
32578,33528,0.00022,-4e-05,-8e-05,-0.00013000000000000002,0.00014,0.0002,1e-05,0.00031,6
32579,33529,0.00022,-4e-05,-8e-05,-0.00013000000000000002,0.00014,0.0002,1e-05,0.00031,6
32580,33530,0.00022,-4e-05,-8e-05,-0.00013000000000000002,0.00014,0.0002,1e-05,0.00031,6
32581,33531,0.00022,-4e-05,-8e-05,-0.00013000000000000002,0.00014,0.0002,1e-05,0.00031,6
32582,33532,0.00022,-4e-05,-8e-05,-0.00013000000000000002,0.00014,0.0002,1e-05,0.00031,6
32583,33533,0.00022,-4e-05,-8e-05,-0.00013000000000000002,0.00014,0.0002,1e-05,0.00031,6
32584,33534,0.00022,-4e-05,-8e-05,-0.00013000000000000002,0.00014,0.0002,1e-05,0.00031,6
32585,33535,2.9999999999999997e-05,-7e-05,-2e-05,1e-05,-0.00011999999999999999,-0.00011999999999999999,0.00015,-0.0003,6
32586,33536,0.0001,0.0001,5.9999999999999995e-05,1e-05,-0.00045,-0.00036,-0.00011999999999999999,-0.00021,6
32587,33538,0.0001,0.0001,5.9999999999999995e-05,1e-05,-0.00045,-0.00036,-0.00011999999999999999,-0.00021,6
32588,33539,0.0001,0.0001,5.9999999999999995e-05,1e-05,-0.00045,-0.00036,-0.00011999999999999999,-0.00021,6
32589,33540,0.0001,0.0001,5.9999999999999995e-05,1e-05,-0.00045,-0.00036,-0.00011999999999999999,-0.00021,6
32590,33541,0.0001,0.0001,5.9999999999999995e-05,1e-05,-0.00045,-0.00036,-0.00011999999999999999,-0.00021,6
32591,33542,0.0001,0.0001,5.9999999999999995e-05,1e-05,-0.00045,-0.00036,-0.00011999999999999999,-0.00021,6
32592,33543,0.0001,0.0001,5.9999999999999995e-05,1e-05,-0.00045,-0.00036,-0.00011999999999999999,-0.00021,6
32593,33544,0.0001,0.0001,5.9999999999999995e-05,1e-05,-0.00045,-0.00036,-0.00011999999999999999,-0.00021,6
32594,33545,0.0001,0.0001,5.9999999999999995e-05,1e-05,-0.00045,-0.00036,-0.00011999999999999999,-0.00021,6
32595,33546,0.0001,0.0001,5.9999999999999995e-05,1e-05,-0.00045,-0.00036,-0.00011999999999999999,-0.00021,6
32596,33547,0.0001,0.0001,5.9999999999999995e-05,1e-05,-0.00045,-0.00036,-0.00011999999999999999,-0.00021,6
32597,33548,0.0001,0.0001,5.9999999999999995e-05,1e-05,-0.00045,-0.00036,-0.00011999999999999999,-0.00021,6
32598,33549,0.0001,0.0001,5.9999999999999995e-05,1e-05,-0.00045,-0.00036,-0.00011999999999999999,-0.00021,6
32599,33550,0.0001,0.0001,5.9999999999999995e-05,1e-05,-0.00045,-0.00036,-0.00011999999999999999,-0.00021,6
32600,33551,0.0001,0.0001,5.9999999999999995e-05,1e-05,-0.00045,-0.00036,-0.00011999999999999999,-0.00021,6
32601,33552,0.0001,0.0001,5.9999999999999995e-05,1e-05,-0.00045,-0.00036,-0.00011999999999999999,-0.00021,6
32602,33553,0.0001,0.0001,5.9999999999999995e-05,1e-05,-0.00045,-0.00036,-0.00011999999999999999,-0.00021,6
32603,33554,0.0001,0.0001,5.9999999999999995e-05,1e-05,-0.00045,-0.00036,-0.00011999999999999999,-0.00021,6
32604,33555,0.0001,0.0001,5.9999999999999995e-05,1e-05,-0.00045,-0.00036,-0.00011999999999999999,-0.00021,6
32605,33556,0.0001,0.0001,5.9999999999999995e-05,1e-05,-0.00045,-0.00036,-0.00011999999999999999,-0.00021,6
32606,33557,9e-05,2e-05,-4e-05,2.9999999999999997e-05,-5.9999999999999995e-05,0.00016999999999999999,0.00014,-0.00021,6
32607,33558,9e-05,2e-05,-4e-05,2.9999999999999997e-05,-5.9999999999999995e-05,0.00016999999999999999,0.00014,-0.00021,6
32608,33559,-5e-05,-1e-05,-1e-05,1e-05,5.9999999999999995e-05,-9e-05,5.9999999999999995e-05,0.00014,6
32609,33560,-5e-05,-1e-05,-1e-05,1e-05,5.9999999999999995e-05,-9e-05,5.9999999999999995e-05,0.00014,6
32610,33561,-5e-05,-1e-05,-1e-05,1e-05,5.9999999999999995e-05,-9e-05,5.9999999999999995e-05,0.00014,6
32611,33562,-5e-05,-1e-05,-1e-05,1e-05,5.9999999999999995e-05,-9e-05,5.9999999999999995e-05,0.00014,6
32612,33563,-5e-05,-1e-05,-1e-05,1e-05,5.9999999999999995e-05,-9e-05,5.9999999999999995e-05,0.00014,6
32613,33564,-5e-05,-1e-05,-1e-05,1e-05,5.9999999999999995e-05,-9e-05,5.9999999999999995e-05,0.00014,6
32614,33565,-5e-05,-1e-05,-1e-05,1e-05,5.9999999999999995e-05,-9e-05,5.9999999999999995e-05,0.00014,6
32615,33566,-5e-05,-1e-05,-1e-05,1e-05,5.9999999999999995e-05,-9e-05,5.9999999999999995e-05,0.00014,6
32616,33567,-5e-05,-1e-05,-1e-05,1e-05,5.9999999999999995e-05,-9e-05,5.9999999999999995e-05,0.00014,6
32617,33568,-5e-05,-1e-05,-1e-05,1e-05,5.9999999999999995e-05,-9e-05,5.9999999999999995e-05,0.00014,6
32618,33569,-5e-05,-1e-05,-1e-05,1e-05,5.9999999999999995e-05,-9e-05,5.9999999999999995e-05,0.00014,6
32619,33570,-5e-05,-1e-05,-1e-05,1e-05,5.9999999999999995e-05,-9e-05,5.9999999999999995e-05,0.00014,6
32620,33571,1e-05,0.0,-1e-05,0.0,0.0002,7e-05,-1e-05,2e-05,6
32621,33572,1e-05,0.0,-1e-05,0.0,0.0002,7e-05,-1e-05,2e-05,6
32622,33573,1e-05,0.0,-1e-05,0.0,0.0002,7e-05,-1e-05,2e-05,6
32623,33574,1e-05,0.0,-1e-05,0.0,0.0002,7e-05,-1e-05,2e-05,6
32624,33575,1e-05,0.0,-1e-05,0.0,0.0002,7e-05,-1e-05,2e-05,6
32625,33576,1e-05,0.0,-1e-05,0.0,0.0002,7e-05,-1e-05,2e-05,6
32626,33577,1e-05,0.0,-1e-05,0.0,0.0002,7e-05,-1e-05,2e-05,6
32627,33578,8e-05,7e-05,-2e-05,-0.00014,-4e-05,-0.00013000000000000002,1e-05,-0.00011999999999999999,6
32628,33579,8e-05,7e-05,-2e-05,-0.00014,-4e-05,-0.00013000000000000002,1e-05,-0.00011999999999999999,6
32629,33580,8e-05,7e-05,-2e-05,-0.00014,-4e-05,-0.00013000000000000002,1e-05,-0.00011999999999999999,6
32630,33581,8e-05,7e-05,-2e-05,-0.00014,-4e-05,-0.00013000000000000002,1e-05,-0.00011999999999999999,6
32631,33582,8e-05,7e-05,-2e-05,-0.00014,-4e-05,-0.00013000000000000002,1e-05,-0.00011999999999999999,6
32632,33583,8e-05,7e-05,-2e-05,-0.00014,-4e-05,-0.00013000000000000002,1e-05,-0.00011999999999999999,6
32633,33584,8e-05,7e-05,-2e-05,-0.00014,-4e-05,-0.00013000000000000002,1e-05,-0.00011999999999999999,6
32634,33585,8e-05,7e-05,-2e-05,-0.00014,-4e-05,-0.00013000000000000002,1e-05,-0.00011999999999999999,6
32635,33586,8e-05,7e-05,-2e-05,-0.00014,-4e-05,-0.00013000000000000002,1e-05,-0.00011999999999999999,6
32636,33588,8e-05,7e-05,-2e-05,-0.00014,-4e-05,-0.00013000000000000002,1e-05,-0.00011999999999999999,6
32637,33589,8e-05,7e-05,-2e-05,-0.00014,-4e-05,-0.00013000000000000002,1e-05,-0.00011999999999999999,6
32638,33590,8e-05,7e-05,-2e-05,-0.00014,-4e-05,-0.00013000000000000002,1e-05,-0.00011999999999999999,6
32639,33591,8e-05,7e-05,-2e-05,-0.00014,-4e-05,-0.00013000000000000002,1e-05,-0.00011999999999999999,6
32640,33592,8e-05,7e-05,-2e-05,-0.00014,-4e-05,-0.00013000000000000002,1e-05,-0.00011999999999999999,6
32641,33593,8e-05,7e-05,-2e-05,-0.00014,-4e-05,-0.00013000000000000002,1e-05,-0.00011999999999999999,6
32642,33594,8e-05,7e-05,-2e-05,-0.00014,-4e-05,-0.00013000000000000002,1e-05,-0.00011999999999999999,6
32643,33595,0.00016,5e-05,2e-05,2e-05,5e-05,-4e-05,-0.00016999999999999999,-0.00099,6
32644,33596,0.00011999999999999999,2e-05,-4e-05,-2.9999999999999997e-05,2e-05,0.00037999999999999997,-0.00016,-0.00028,6
32645,33597,0.00011999999999999999,2e-05,-4e-05,-2.9999999999999997e-05,2e-05,0.00037999999999999997,-0.00016,-0.00028,6
32646,33598,0.00011999999999999999,2e-05,-4e-05,-2.9999999999999997e-05,2e-05,0.00037999999999999997,-0.00016,-0.00028,6
32647,33599,0.00011999999999999999,2e-05,-4e-05,-2.9999999999999997e-05,2e-05,0.00037999999999999997,-0.00016,-0.00028,6
32648,33600,0.00011999999999999999,2e-05,-4e-05,-2.9999999999999997e-05,2e-05,0.00037999999999999997,-0.00016,-0.00028,6
32649,33601,0.00011999999999999999,2e-05,-4e-05,-2.9999999999999997e-05,2e-05,0.00037999999999999997,-0.00016,-0.00028,6
32650,33602,0.00011999999999999999,2e-05,-4e-05,-2.9999999999999997e-05,2e-05,0.00037999999999999997,-0.00016,-0.00028,6
32651,33603,0.00011999999999999999,2e-05,-4e-05,-2.9999999999999997e-05,2e-05,0.00037999999999999997,-0.00016,-0.00028,6
32652,33604,0.00011999999999999999,2e-05,-4e-05,-2.9999999999999997e-05,2e-05,0.00037999999999999997,-0.00016,-0.00028,6
32653,33605,0.00011999999999999999,2e-05,-4e-05,-2.9999999999999997e-05,2e-05,0.00037999999999999997,-0.00016,-0.00028,6
32654,33606,0.00011999999999999999,2e-05,-4e-05,-2.9999999999999997e-05,2e-05,0.00037999999999999997,-0.00016,-0.00028,6
32655,33607,0.00011999999999999999,2e-05,-4e-05,-2.9999999999999997e-05,2e-05,0.00037999999999999997,-0.00016,-0.00028,6
32656,33608,0.00011999999999999999,2e-05,-4e-05,-2.9999999999999997e-05,2e-05,0.00037999999999999997,-0.00016,-0.00028,6
32657,33609,0.00011999999999999999,2e-05,-4e-05,-2.9999999999999997e-05,2e-05,0.00037999999999999997,-0.00016,-0.00028,6
32658,33610,0.00011999999999999999,2e-05,-4e-05,-2.9999999999999997e-05,2e-05,0.00037999999999999997,-0.00016,-0.00028,6
32659,33611,0.00011999999999999999,2e-05,-4e-05,-2.9999999999999997e-05,2e-05,0.00037999999999999997,-0.00016,-0.00028,6
32660,33612,0.00011999999999999999,2e-05,-4e-05,-2.9999999999999997e-05,2e-05,0.00037999999999999997,-0.00016,-0.00028,6
32661,33613,0.00011999999999999999,2e-05,-4e-05,-2.9999999999999997e-05,2e-05,0.00037999999999999997,-0.00016,-0.00028,6
32662,33614,0.00011999999999999999,2e-05,-4e-05,-2.9999999999999997e-05,2e-05,0.00037999999999999997,-0.00016,-0.00028,6
32663,33615,0.00011999999999999999,2e-05,-4e-05,-2.9999999999999997e-05,2e-05,0.00037999999999999997,-0.00016,-0.00028,6
32664,33616,0.00011999999999999999,2e-05,-4e-05,-2.9999999999999997e-05,2e-05,0.00037999999999999997,-0.00016,-0.00028,6
32665,33617,-9e-05,-2.9999999999999997e-05,-2e-05,-4e-05,-0.00032,-0.00022,0.0,-8e-05,6
32666,33618,-0.00022999999999999998,0.0,1e-05,-1e-05,-8e-05,-0.00011999999999999999,2.9999999999999997e-05,-0.00011999999999999999,6
32667,33619,-0.00018999999999999998,-5.9999999999999995e-05,-2.9999999999999997e-05,-1e-05,-2e-05,0.00043,9e-05,-8e-05,6
32668,33620,-0.00018999999999999998,-5.9999999999999995e-05,-2.9999999999999997e-05,-1e-05,-2e-05,0.00043,9e-05,-8e-05,6
32669,33621,-0.00018999999999999998,-5.9999999999999995e-05,-2.9999999999999997e-05,-1e-05,-2e-05,0.00043,9e-05,-8e-05,6
32670,33622,-0.00018999999999999998,-5.9999999999999995e-05,-2.9999999999999997e-05,-1e-05,-2e-05,0.00043,9e-05,-8e-05,6
32671,33623,-0.00018999999999999998,-5.9999999999999995e-05,-2.9999999999999997e-05,-1e-05,-2e-05,0.00043,9e-05,-8e-05,6
32672,33624,-0.00018999999999999998,-5.9999999999999995e-05,-2.9999999999999997e-05,-1e-05,-2e-05,0.00043,9e-05,-8e-05,6
32673,33625,-0.00018999999999999998,-5.9999999999999995e-05,-2.9999999999999997e-05,-1e-05,-2e-05,0.00043,9e-05,-8e-05,6
32674,33626,-0.00018999999999999998,-5.9999999999999995e-05,-2.9999999999999997e-05,-1e-05,-2e-05,0.00043,9e-05,-8e-05,6
32675,33627,-0.00018999999999999998,-5.9999999999999995e-05,-2.9999999999999997e-05,-1e-05,-2e-05,0.00043,9e-05,-8e-05,6
32676,33628,-0.00018999999999999998,-5.9999999999999995e-05,-2.9999999999999997e-05,-1e-05,-2e-05,0.00043,9e-05,-8e-05,6
32677,33629,-0.00018999999999999998,-5.9999999999999995e-05,-2.9999999999999997e-05,-1e-05,-2e-05,0.00043,9e-05,-8e-05,6
32678,33630,-0.00018999999999999998,-5.9999999999999995e-05,-2.9999999999999997e-05,-1e-05,-2e-05,0.00043,9e-05,-8e-05,6
32679,33631,0.0,8e-05,-1e-05,-2.9999999999999997e-05,0.00022,0.00039,-0.00032,0.0005099999999999999,6
32680,33632,0.0,8e-05,-1e-05,-2.9999999999999997e-05,0.00022,0.00039,-0.00032,0.0005099999999999999,6
32681,33633,0.0,8e-05,-1e-05,-2.9999999999999997e-05,0.00022,0.00039,-0.00032,0.0005099999999999999,6
32682,33634,0.0,8e-05,-1e-05,-2.9999999999999997e-05,0.00022,0.00039,-0.00032,0.0005099999999999999,6
32683,33635,0.0,8e-05,-1e-05,-2.9999999999999997e-05,0.00022,0.00039,-0.00032,0.0005099999999999999,6
32684,33636,0.0,8e-05,-1e-05,-2.9999999999999997e-05,0.00022,0.00039,-0.00032,0.0005099999999999999,6
32685,33638,-5.9999999999999995e-05,-2e-05,-1e-05,0.00011,0.00023999999999999998,-8e-05,2e-05,0.00011999999999999999,6
32686,33639,-5.9999999999999995e-05,-2e-05,-1e-05,0.00011,0.00023999999999999998,-8e-05,2e-05,0.00011999999999999999,6
32687,33640,-5.9999999999999995e-05,-2e-05,-1e-05,0.00011,0.00023999999999999998,-8e-05,2e-05,0.00011999999999999999,6
32688,33641,-5.9999999999999995e-05,-2e-05,-1e-05,0.00011,0.00023999999999999998,-8e-05,2e-05,0.00011999999999999999,6
32689,33642,-5.9999999999999995e-05,-2e-05,-1e-05,0.00011,0.00023999999999999998,-8e-05,2e-05,0.00011999999999999999,6
32690,33643,-5.9999999999999995e-05,-2e-05,-1e-05,0.00011,0.00023999999999999998,-8e-05,2e-05,0.00011999999999999999,6
32691,33644,-5.9999999999999995e-05,-2e-05,-1e-05,0.00011,0.00023999999999999998,-8e-05,2e-05,0.00011999999999999999,6
32692,33645,-5.9999999999999995e-05,-2e-05,-1e-05,0.00011,0.00023999999999999998,-8e-05,2e-05,0.00011999999999999999,6
32693,33646,-5.9999999999999995e-05,-2e-05,-1e-05,0.00011,0.00023999999999999998,-8e-05,2e-05,0.00011999999999999999,6
32694,33647,-5.9999999999999995e-05,-2e-05,-1e-05,0.00011,0.00023999999999999998,-8e-05,2e-05,0.00011999999999999999,6
32695,33648,-5.9999999999999995e-05,-2e-05,-1e-05,0.00011,0.00023999999999999998,-8e-05,2e-05,0.00011999999999999999,6
32696,33649,-5.9999999999999995e-05,-2e-05,-1e-05,0.00011,0.00023999999999999998,-8e-05,2e-05,0.00011999999999999999,6
32697,33650,-5.9999999999999995e-05,-2e-05,-1e-05,0.00011,0.00023999999999999998,-8e-05,2e-05,0.00011999999999999999,6
32698,33651,-5.9999999999999995e-05,-2e-05,-1e-05,0.00011,0.00023999999999999998,-8e-05,2e-05,0.00011999999999999999,6
32699,33652,-5.9999999999999995e-05,-2e-05,-1e-05,0.00011,0.00023999999999999998,-8e-05,2e-05,0.00011999999999999999,6
32700,33653,-5.9999999999999995e-05,-2e-05,-1e-05,0.00011,0.00023999999999999998,-8e-05,2e-05,0.00011999999999999999,6
32701,33654,-5.9999999999999995e-05,-2e-05,-1e-05,0.00011,0.00023999999999999998,-8e-05,2e-05,0.00011999999999999999,6
32702,33655,0.0,-5.9999999999999995e-05,-7e-05,4e-05,-0.00016,-0.00016999999999999999,5.9999999999999995e-05,0.0001,6
32703,33656,0.0,1e-05,4e-05,0.0,-5e-05,-0.00061,-0.00026000000000000003,0.00057,6
32704,33657,0.0,1e-05,4e-05,0.0,-5e-05,-0.00061,-0.00026000000000000003,0.00057,6
32705,33658,0.0,1e-05,4e-05,0.0,-5e-05,-0.00061,-0.00026000000000000003,0.00057,6
32706,33660,0.0,1e-05,4e-05,0.0,-5e-05,-0.00061,-0.00026000000000000003,0.00057,6
32707,33661,0.0,1e-05,4e-05,0.0,-5e-05,-0.00061,-0.00026000000000000003,0.00057,6
32708,33662,0.0,1e-05,4e-05,0.0,-5e-05,-0.00061,-0.00026000000000000003,0.00057,6
32709,33663,0.0,1e-05,4e-05,0.0,-5e-05,-0.00061,-0.00026000000000000003,0.00057,6
32710,33664,0.0,1e-05,4e-05,0.0,-5e-05,-0.00061,-0.00026000000000000003,0.00057,6
32711,33665,0.0,1e-05,4e-05,0.0,-5e-05,-0.00061,-0.00026000000000000003,0.00057,6
32712,33666,0.0,1e-05,4e-05,0.0,-5e-05,-0.00061,-0.00026000000000000003,0.00057,6
32713,33667,0.0,1e-05,4e-05,0.0,-5e-05,-0.00061,-0.00026000000000000003,0.00057,6
32714,33668,0.0,1e-05,4e-05,0.0,-5e-05,-0.00061,-0.00026000000000000003,0.00057,6
32715,33669,0.0,1e-05,4e-05,0.0,-5e-05,-0.00061,-0.00026000000000000003,0.00057,6
32716,33670,0.0,1e-05,4e-05,0.0,-5e-05,-0.00061,-0.00026000000000000003,0.00057,6
32717,33671,0.0,1e-05,4e-05,0.0,-5e-05,-0.00061,-0.00026000000000000003,0.00057,6
32718,33672,0.0,1e-05,4e-05,0.0,-5e-05,-0.00061,-0.00026000000000000003,0.00057,6
32719,33673,0.0,1e-05,4e-05,0.0,-5e-05,-0.00061,-0.00026000000000000003,0.00057,6
32720,33674,0.0,1e-05,4e-05,0.0,-5e-05,-0.00061,-0.00026000000000000003,0.00057,6
32721,33675,0.0,1e-05,4e-05,0.0,-5e-05,-0.00061,-0.00026000000000000003,0.00057,6
32722,33676,0.0,1e-05,4e-05,0.0,-5e-05,-0.00061,-0.00026000000000000003,0.00057,6
32723,33677,4e-05,-1e-05,-2e-05,-5.9999999999999995e-05,7e-05,-5.9999999999999995e-05,0.00013000000000000002,9e-05,6
32724,33678,1e-05,-2e-05,-2.9999999999999997e-05,1e-05,5.9999999999999995e-05,0.00039,5.9999999999999995e-05,2e-05,6
32725,33679,1e-05,9e-05,7e-05,2.9999999999999997e-05,0.00011999999999999999,0.00026000000000000003,8e-05,-0.00047000000000000004,6
32726,33680,1e-05,9e-05,7e-05,2.9999999999999997e-05,0.00011999999999999999,0.00026000000000000003,8e-05,-0.00047000000000000004,6
32727,33681,1e-05,9e-05,7e-05,2.9999999999999997e-05,0.00011999999999999999,0.00026000000000000003,8e-05,-0.00047000000000000004,6
32728,33682,1e-05,9e-05,7e-05,2.9999999999999997e-05,0.00011999999999999999,0.00026000000000000003,8e-05,-0.00047000000000000004,6
32729,33683,1e-05,9e-05,7e-05,2.9999999999999997e-05,0.00011999999999999999,0.00026000000000000003,8e-05,-0.00047000000000000004,6
32730,33684,1e-05,9e-05,7e-05,2.9999999999999997e-05,0.00011999999999999999,0.00026000000000000003,8e-05,-0.00047000000000000004,6
32731,33685,1e-05,9e-05,7e-05,2.9999999999999997e-05,0.00011999999999999999,0.00026000000000000003,8e-05,-0.00047000000000000004,6
32732,33686,1e-05,9e-05,7e-05,2.9999999999999997e-05,0.00011999999999999999,0.00026000000000000003,8e-05,-0.00047000000000000004,6
32733,33688,1e-05,9e-05,7e-05,2.9999999999999997e-05,0.00011999999999999999,0.00026000000000000003,8e-05,-0.00047000000000000004,6
32734,33689,1e-05,9e-05,7e-05,2.9999999999999997e-05,0.00011999999999999999,0.00026000000000000003,8e-05,-0.00047000000000000004,6
32735,33690,1e-05,9e-05,7e-05,2.9999999999999997e-05,0.00011999999999999999,0.00026000000000000003,8e-05,-0.00047000000000000004,6
32736,33691,9e-05,2.9999999999999997e-05,9e-05,9e-05,9e-05,0.0,7e-05,0.00016,6
32737,33692,9e-05,2.9999999999999997e-05,9e-05,9e-05,9e-05,0.0,7e-05,0.00016,6
32738,33693,9e-05,2.9999999999999997e-05,9e-05,9e-05,9e-05,0.0,7e-05,0.00016,6
32739,33694,9e-05,2.9999999999999997e-05,9e-05,9e-05,9e-05,0.0,7e-05,0.00016,6
32740,33695,9e-05,2.9999999999999997e-05,9e-05,9e-05,9e-05,0.0,7e-05,0.00016,6
32741,33696,9e-05,2.9999999999999997e-05,9e-05,9e-05,9e-05,0.0,7e-05,0.00016,6
32742,33697,9e-05,2.9999999999999997e-05,9e-05,9e-05,9e-05,0.0,7e-05,0.00016,6
32743,33698,-0.00025,-0.00011999999999999999,-8e-05,0.0,-0.00011,-0.00031,2e-05,0.00018,6
32744,33699,-0.00025,-0.00011999999999999999,-8e-05,0.0,-0.00011,-0.00031,2e-05,0.00018,6
32745,33700,-0.00025,-0.00011999999999999999,-8e-05,0.0,-0.00011,-0.00031,2e-05,0.00018,6
32746,33701,-0.00025,-0.00011999999999999999,-8e-05,0.0,-0.00011,-0.00031,2e-05,0.00018,6
32747,33702,-0.00025,-0.00011999999999999999,-8e-05,0.0,-0.00011,-0.00031,2e-05,0.00018,6
32748,33703,-0.00025,-0.00011999999999999999,-8e-05,0.0,-0.00011,-0.00031,2e-05,0.00018,6
32749,33704,-0.00025,-0.00011999999999999999,-8e-05,0.0,-0.00011,-0.00031,2e-05,0.00018,6
32750,33705,-0.00025,-0.00011999999999999999,-8e-05,0.0,-0.00011,-0.00031,2e-05,0.00018,6
32751,33706,-0.00025,-0.00011999999999999999,-8e-05,0.0,-0.00011,-0.00031,2e-05,0.00018,6
32752,33707,-0.00025,-0.00011999999999999999,-8e-05,0.0,-0.00011,-0.00031,2e-05,0.00018,6
32753,33708,-0.00025,-0.00011999999999999999,-8e-05,0.0,-0.00011,-0.00031,2e-05,0.00018,6
32754,33709,-0.00025,-0.00011999999999999999,-8e-05,0.0,-0.00011,-0.00031,2e-05,0.00018,6
32755,33710,-0.00025,-0.00011999999999999999,-8e-05,0.0,-0.00011,-0.00031,2e-05,0.00018,6
32756,33711,-0.00025,-0.00011999999999999999,-8e-05,0.0,-0.00011,-0.00031,2e-05,0.00018,6
32757,33712,-0.00025,-0.00011999999999999999,-8e-05,0.0,-0.00011,-0.00031,2e-05,0.00018,6
32758,33713,-0.00025,-0.00011999999999999999,-8e-05,0.0,-0.00011,-0.00031,2e-05,0.00018,6
32759,33714,-0.00025,-0.00011999999999999999,-8e-05,0.0,-0.00011,-0.00031,2e-05,0.00018,6
32760,33715,-2.9999999999999997e-05,-2.9999999999999997e-05,-1e-05,0.0,-7e-05,-2e-05,-0.0002,-0.00031,6
32761,33716,-2.9999999999999997e-05,-1e-05,4e-05,-7e-05,-0.00013000000000000002,0.00026000000000000003,-4e-05,0.00037999999999999997,6
32762,33717,-2.9999999999999997e-05,-1e-05,4e-05,-7e-05,-0.00013000000000000002,0.00026000000000000003,-4e-05,0.00037999999999999997,6
32763,33718,-2.9999999999999997e-05,-1e-05,4e-05,-7e-05,-0.00013000000000000002,0.00026000000000000003,-4e-05,0.00037999999999999997,6
32764,33719,-2.9999999999999997e-05,-1e-05,4e-05,-7e-05,-0.00013000000000000002,0.00026000000000000003,-4e-05,0.00037999999999999997,6
32765,33720,-2.9999999999999997e-05,-1e-05,4e-05,-7e-05,-0.00013000000000000002,0.00026000000000000003,-4e-05,0.00037999999999999997,6
32766,33721,-2.9999999999999997e-05,-1e-05,4e-05,-7e-05,-0.00013000000000000002,0.00026000000000000003,-4e-05,0.00037999999999999997,6
32767,33722,-2.9999999999999997e-05,-1e-05,4e-05,-7e-05,-0.00013000000000000002,0.00026000000000000003,-4e-05,0.00037999999999999997,6
32768,33723,-2.9999999999999997e-05,-1e-05,4e-05,-7e-05,-0.00013000000000000002,0.00026000000000000003,-4e-05,0.00037999999999999997,6
32769,33724,-2.9999999999999997e-05,-1e-05,4e-05,-7e-05,-0.00013000000000000002,0.00026000000000000003,-4e-05,0.00037999999999999997,6
32770,33725,-2.9999999999999997e-05,-1e-05,4e-05,-7e-05,-0.00013000000000000002,0.00026000000000000003,-4e-05,0.00037999999999999997,6
32771,33726,-2.9999999999999997e-05,-1e-05,4e-05,-7e-05,-0.00013000000000000002,0.00026000000000000003,-4e-05,0.00037999999999999997,6
32772,33727,-2.9999999999999997e-05,-1e-05,4e-05,-7e-05,-0.00013000000000000002,0.00026000000000000003,-4e-05,0.00037999999999999997,6
32773,33728,-2.9999999999999997e-05,-1e-05,4e-05,-7e-05,-0.00013000000000000002,0.00026000000000000003,-4e-05,0.00037999999999999997,6
32774,33729,-2.9999999999999997e-05,-1e-05,4e-05,-7e-05,-0.00013000000000000002,0.00026000000000000003,-4e-05,0.00037999999999999997,6
32775,33730,-2.9999999999999997e-05,-1e-05,4e-05,-7e-05,-0.00013000000000000002,0.00026000000000000003,-4e-05,0.00037999999999999997,6
32776,33731,-2.9999999999999997e-05,-1e-05,4e-05,-7e-05,-0.00013000000000000002,0.00026000000000000003,-4e-05,0.00037999999999999997,6
32777,33732,-2.9999999999999997e-05,-1e-05,4e-05,-7e-05,-0.00013000000000000002,0.00026000000000000003,-4e-05,0.00037999999999999997,6
32778,33733,-2.9999999999999997e-05,-1e-05,4e-05,-7e-05,-0.00013000000000000002,0.00026000000000000003,-4e-05,0.00037999999999999997,6
32779,33734,-2.9999999999999997e-05,-1e-05,4e-05,-7e-05,-0.00013000000000000002,0.00026000000000000003,-4e-05,0.00037999999999999997,6
32780,33735,-2.9999999999999997e-05,-1e-05,4e-05,-7e-05,-0.00013000000000000002,0.00026000000000000003,-4e-05,0.00037999999999999997,6
32781,33736,-2.9999999999999997e-05,-1e-05,4e-05,-7e-05,-0.00013000000000000002,0.00026000000000000003,-4e-05,0.00037999999999999997,6
32782,33739,-4e-05,-7e-05,-7e-05,-5.9999999999999995e-05,5.9999999999999995e-05,7e-05,-1e-05,-0.00022,6
32783,33740,-4e-05,-7e-05,-7e-05,-5.9999999999999995e-05,5.9999999999999995e-05,7e-05,-1e-05,-0.00022,6
32784,33741,-4e-05,-7e-05,-7e-05,-5.9999999999999995e-05,5.9999999999999995e-05,7e-05,-1e-05,-0.00022,6
32785,33742,-4e-05,-7e-05,-7e-05,-5.9999999999999995e-05,5.9999999999999995e-05,7e-05,-1e-05,-0.00022,6
32786,33743,-4e-05,-7e-05,-7e-05,-5.9999999999999995e-05,5.9999999999999995e-05,7e-05,-1e-05,-0.00022,6
32787,33744,-4e-05,-7e-05,-7e-05,-5.9999999999999995e-05,5.9999999999999995e-05,7e-05,-1e-05,-0.00022,6
32788,33745,-4e-05,-7e-05,-7e-05,-5.9999999999999995e-05,5.9999999999999995e-05,7e-05,-1e-05,-0.00022,6
32789,33746,-4e-05,-7e-05,-7e-05,-5.9999999999999995e-05,5.9999999999999995e-05,7e-05,-1e-05,-0.00022,6
32790,33747,-4e-05,-7e-05,-7e-05,-5.9999999999999995e-05,5.9999999999999995e-05,7e-05,-1e-05,-0.00022,6
32791,33748,-4e-05,-7e-05,-7e-05,-5.9999999999999995e-05,5.9999999999999995e-05,7e-05,-1e-05,-0.00022,6
32792,33749,-4e-05,-7e-05,-7e-05,-5.9999999999999995e-05,5.9999999999999995e-05,7e-05,-1e-05,-0.00022,6
32793,33750,-4e-05,-7e-05,-7e-05,-5.9999999999999995e-05,5.9999999999999995e-05,7e-05,-1e-05,-0.00022,6
32794,33751,-4e-05,-7e-05,-7e-05,-5.9999999999999995e-05,5.9999999999999995e-05,7e-05,-1e-05,-0.00022,6
32795,33752,-1e-05,0.0,-1e-05,-0.00018,-0.00031,0.00039,7e-05,-8e-05,6
32796,33753,-1e-05,0.0,-1e-05,-0.00018,-0.00031,0.00039,7e-05,-8e-05,6
32797,33754,-1e-05,0.0,-1e-05,-0.00018,-0.00031,0.00039,7e-05,-8e-05,6
32798,33755,-1e-05,0.0,-1e-05,-0.00018,-0.00031,0.00039,7e-05,-8e-05,6
32799,33756,-1e-05,0.0,-1e-05,-0.00018,-0.00031,0.00039,7e-05,-8e-05,6
32800,33757,-1e-05,0.0,-1e-05,-0.00018,-0.00031,0.00039,7e-05,-8e-05,6
32801,33758,0.00016999999999999999,0.0,1e-05,1e-05,0.00011,0.00061,0.0001,-2.9999999999999997e-05,6
32802,33759,0.00016999999999999999,0.0,1e-05,1e-05,0.00011,0.00061,0.0001,-2.9999999999999997e-05,6
32803,33760,0.00016999999999999999,0.0,1e-05,1e-05,0.00011,0.00061,0.0001,-2.9999999999999997e-05,6
32804,33761,0.00016999999999999999,0.0,1e-05,1e-05,0.00011,0.00061,0.0001,-2.9999999999999997e-05,6
32805,33762,0.00016999999999999999,0.0,1e-05,1e-05,0.00011,0.00061,0.0001,-2.9999999999999997e-05,6
32806,33763,0.00016999999999999999,0.0,1e-05,1e-05,0.00011,0.00061,0.0001,-2.9999999999999997e-05,6
32807,33764,0.00016999999999999999,0.0,1e-05,1e-05,0.00011,0.00061,0.0001,-2.9999999999999997e-05,6
32808,33765,0.00016999999999999999,0.0,1e-05,1e-05,0.00011,0.00061,0.0001,-2.9999999999999997e-05,6
32809,33766,0.00016999999999999999,0.0,1e-05,1e-05,0.00011,0.00061,0.0001,-2.9999999999999997e-05,6
32810,33767,0.00016999999999999999,0.0,1e-05,1e-05,0.00011,0.00061,0.0001,-2.9999999999999997e-05,6
32811,33768,0.00016999999999999999,0.0,1e-05,1e-05,0.00011,0.00061,0.0001,-2.9999999999999997e-05,6
32812,33769,0.00016999999999999999,0.0,1e-05,1e-05,0.00011,0.00061,0.0001,-2.9999999999999997e-05,6
32813,33770,0.00016999999999999999,0.0,1e-05,1e-05,0.00011,0.00061,0.0001,-2.9999999999999997e-05,6
32814,33771,0.00016999999999999999,0.0,1e-05,1e-05,0.00011,0.00061,0.0001,-2.9999999999999997e-05,6
32815,33772,0.00016999999999999999,0.0,1e-05,1e-05,0.00011,0.00061,0.0001,-2.9999999999999997e-05,6
32816,33773,0.00016999999999999999,0.0,1e-05,1e-05,0.00011,0.00061,0.0001,-2.9999999999999997e-05,6
32817,33774,0.00016999999999999999,0.0,1e-05,1e-05,0.00011,0.00061,0.0001,-2.9999999999999997e-05,6
32818,33775,7e-05,-1e-05,-4e-05,-7e-05,-0.00021,-0.00022,1e-05,-0.0001,6
32819,33776,4e-05,-2.9999999999999997e-05,-1e-05,2e-05,0.00011999999999999999,-0.00028,0.00016,-9e-05,6
32820,33777,4e-05,-2.9999999999999997e-05,-1e-05,2e-05,0.00011999999999999999,-0.00028,0.00016,-9e-05,6
32821,33778,4e-05,-2.9999999999999997e-05,-1e-05,2e-05,0.00011999999999999999,-0.00028,0.00016,-9e-05,6
32822,33779,4e-05,-2.9999999999999997e-05,-1e-05,2e-05,0.00011999999999999999,-0.00028,0.00016,-9e-05,6
32823,33780,4e-05,-2.9999999999999997e-05,-1e-05,2e-05,0.00011999999999999999,-0.00028,0.00016,-9e-05,6
32824,33781,4e-05,-2.9999999999999997e-05,-1e-05,2e-05,0.00011999999999999999,-0.00028,0.00016,-9e-05,6
32825,33782,4e-05,-2.9999999999999997e-05,-1e-05,2e-05,0.00011999999999999999,-0.00028,0.00016,-9e-05,6
32826,33783,4e-05,-2.9999999999999997e-05,-1e-05,2e-05,0.00011999999999999999,-0.00028,0.00016,-9e-05,6
32827,33784,4e-05,-2.9999999999999997e-05,-1e-05,2e-05,0.00011999999999999999,-0.00028,0.00016,-9e-05,6
32828,33785,4e-05,-2.9999999999999997e-05,-1e-05,2e-05,0.00011999999999999999,-0.00028,0.00016,-9e-05,6
32829,33786,4e-05,-2.9999999999999997e-05,-1e-05,2e-05,0.00011999999999999999,-0.00028,0.00016,-9e-05,6
32830,33788,4e-05,-2.9999999999999997e-05,-1e-05,2e-05,0.00011999999999999999,-0.00028,0.00016,-9e-05,6
32831,33789,4e-05,-2.9999999999999997e-05,-1e-05,2e-05,0.00011999999999999999,-0.00028,0.00016,-9e-05,6
32832,33790,4e-05,-2.9999999999999997e-05,-1e-05,2e-05,0.00011999999999999999,-0.00028,0.00016,-9e-05,6
32833,33791,4e-05,-2.9999999999999997e-05,-1e-05,2e-05,0.00011999999999999999,-0.00028,0.00016,-9e-05,6
32834,33792,4e-05,-2.9999999999999997e-05,-1e-05,2e-05,0.00011999999999999999,-0.00028,0.00016,-9e-05,6
32835,33793,4e-05,-2.9999999999999997e-05,-1e-05,2e-05,0.00011999999999999999,-0.00028,0.00016,-9e-05,6
32836,33794,4e-05,-2.9999999999999997e-05,-1e-05,2e-05,0.00011999999999999999,-0.00028,0.00016,-9e-05,6
32837,33795,4e-05,-2.9999999999999997e-05,-1e-05,2e-05,0.00011999999999999999,-0.00028,0.00016,-9e-05,6
32838,33796,4e-05,-2.9999999999999997e-05,-1e-05,2e-05,0.00011999999999999999,-0.00028,0.00016,-9e-05,6
32839,33797,4e-05,-2.9999999999999997e-05,-1e-05,2e-05,0.00011999999999999999,-0.00028,0.00016,-9e-05,6
32840,33798,-0.00013000000000000002,-9e-05,-2.9999999999999997e-05,-0.00011,8e-05,-2.9999999999999997e-05,-9e-05,-4e-05,6
32841,33799,-5e-05,2.9999999999999997e-05,2e-05,-2e-05,-0.00016999999999999999,-0.00025,1e-05,-0.0002,6
32842,33800,-5e-05,2.9999999999999997e-05,2e-05,-2e-05,-0.00016999999999999999,-0.00025,1e-05,-0.0002,6
32843,33801,-5e-05,2.9999999999999997e-05,2e-05,-2e-05,-0.00016999999999999999,-0.00025,1e-05,-0.0002,6
32844,33802,-5e-05,2.9999999999999997e-05,2e-05,-2e-05,-0.00016999999999999999,-0.00025,1e-05,-0.0002,6
32845,33803,-5e-05,2.9999999999999997e-05,2e-05,-2e-05,-0.00016999999999999999,-0.00025,1e-05,-0.0002,6
32846,33804,-5e-05,2.9999999999999997e-05,2e-05,-2e-05,-0.00016999999999999999,-0.00025,1e-05,-0.0002,6
32847,33805,-5e-05,2.9999999999999997e-05,2e-05,-2e-05,-0.00016999999999999999,-0.00025,1e-05,-0.0002,6
32848,33806,-5e-05,2.9999999999999997e-05,2e-05,-2e-05,-0.00016999999999999999,-0.00025,1e-05,-0.0002,6
32849,33807,-5e-05,2.9999999999999997e-05,2e-05,-2e-05,-0.00016999999999999999,-0.00025,1e-05,-0.0002,6
32850,33808,-5e-05,2.9999999999999997e-05,2e-05,-2e-05,-0.00016999999999999999,-0.00025,1e-05,-0.0002,6
32851,33809,-5e-05,2.9999999999999997e-05,2e-05,-2e-05,-0.00016999999999999999,-0.00025,1e-05,-0.0002,6
32852,33810,0.0,-5.9999999999999995e-05,-8e-05,-0.00011999999999999999,-0.00011,0.00016,0.0,-0.00033999999999999997,6
32853,33811,-7e-05,-2e-05,2e-05,9e-05,-5e-05,-0.00056,0.00011,0.00022,6
32854,33812,-7e-05,-2e-05,2e-05,9e-05,-5e-05,-0.00056,0.00011,0.00022,6
32855,33813,-7e-05,-2e-05,2e-05,9e-05,-5e-05,-0.00056,0.00011,0.00022,6
32856,33814,-7e-05,-2e-05,2e-05,9e-05,-5e-05,-0.00056,0.00011,0.00022,6
32857,33815,-7e-05,-2e-05,2e-05,9e-05,-5e-05,-0.00056,0.00011,0.00022,6
32858,33816,-7e-05,-2e-05,2e-05,9e-05,-5e-05,-0.00056,0.00011,0.00022,6
32859,33817,-7e-05,-2e-05,2e-05,9e-05,-5e-05,-0.00056,0.00011,0.00022,6
32860,33818,-7e-05,-2e-05,2e-05,9e-05,-5e-05,-0.00056,0.00011,0.00022,6
32861,33819,-7e-05,-2e-05,2e-05,9e-05,-5e-05,-0.00056,0.00011,0.00022,6
32862,33820,-0.0001,-2e-05,-2.9999999999999997e-05,5e-05,0.00035,-2e-05,-5.9999999999999995e-05,-0.00018999999999999998,6
32863,33821,-0.0001,-2e-05,-2.9999999999999997e-05,5e-05,0.00035,-2e-05,-5.9999999999999995e-05,-0.00018999999999999998,6
32864,33822,-0.0001,-2e-05,-2.9999999999999997e-05,5e-05,0.00035,-2e-05,-5.9999999999999995e-05,-0.00018999999999999998,6
32865,33823,-0.0001,-2e-05,-2.9999999999999997e-05,5e-05,0.00035,-2e-05,-5.9999999999999995e-05,-0.00018999999999999998,6
32866,33824,-0.0001,-2e-05,-2.9999999999999997e-05,5e-05,0.00035,-2e-05,-5.9999999999999995e-05,-0.00018999999999999998,6
32867,33825,-0.0001,-2e-05,-2.9999999999999997e-05,5e-05,0.00035,-2e-05,-5.9999999999999995e-05,-0.00018999999999999998,6
32868,33826,-0.0001,-2e-05,-2.9999999999999997e-05,5e-05,0.00035,-2e-05,-5.9999999999999995e-05,-0.00018999999999999998,6
32869,33827,-0.0001,-2e-05,-2.9999999999999997e-05,5e-05,0.00035,-2e-05,-5.9999999999999995e-05,-0.00018999999999999998,6
32870,33828,-0.0001,-2e-05,-2.9999999999999997e-05,5e-05,0.00035,-2e-05,-5.9999999999999995e-05,-0.00018999999999999998,6
32871,33829,-0.0001,-2e-05,-2.9999999999999997e-05,5e-05,0.00035,-2e-05,-5.9999999999999995e-05,-0.00018999999999999998,6
32872,33830,-0.0001,-2e-05,-2.9999999999999997e-05,5e-05,0.00035,-2e-05,-5.9999999999999995e-05,-0.00018999999999999998,6
32873,33831,-0.0001,-2e-05,-2.9999999999999997e-05,5e-05,0.00035,-2e-05,-5.9999999999999995e-05,-0.00018999999999999998,6
32874,33832,-0.0001,-2e-05,-2.9999999999999997e-05,5e-05,0.00035,-2e-05,-5.9999999999999995e-05,-0.00018999999999999998,6
32875,33833,-0.0001,-2e-05,-2.9999999999999997e-05,5e-05,0.00035,-2e-05,-5.9999999999999995e-05,-0.00018999999999999998,6
32876,33834,-0.0001,-2e-05,-2.9999999999999997e-05,5e-05,0.00035,-2e-05,-5.9999999999999995e-05,-0.00018999999999999998,6
32877,33835,0.00016999999999999999,7e-05,5e-05,-5e-05,-0.00011,-8e-05,-4e-05,0.00015,6
32878,33836,-1e-05,-2.9999999999999997e-05,-4e-05,5.9999999999999995e-05,2e-05,-0.0006,1e-05,2e-05,6
32879,33838,-1e-05,-2.9999999999999997e-05,-4e-05,5.9999999999999995e-05,2e-05,-0.0006,1e-05,2e-05,6
32880,33839,-1e-05,-2.9999999999999997e-05,-4e-05,5.9999999999999995e-05,2e-05,-0.0006,1e-05,2e-05,6
32881,33840,-1e-05,-2.9999999999999997e-05,-4e-05,5.9999999999999995e-05,2e-05,-0.0006,1e-05,2e-05,6
32882,33841,-1e-05,-2.9999999999999997e-05,-4e-05,5.9999999999999995e-05,2e-05,-0.0006,1e-05,2e-05,6
32883,33842,-1e-05,-2.9999999999999997e-05,-4e-05,5.9999999999999995e-05,2e-05,-0.0006,1e-05,2e-05,6
32884,33843,-1e-05,-2.9999999999999997e-05,-4e-05,5.9999999999999995e-05,2e-05,-0.0006,1e-05,2e-05,6
32885,33844,-1e-05,-2.9999999999999997e-05,-4e-05,5.9999999999999995e-05,2e-05,-0.0006,1e-05,2e-05,6
32886,33845,-1e-05,-2.9999999999999997e-05,-4e-05,5.9999999999999995e-05,2e-05,-0.0006,1e-05,2e-05,6
32887,33846,-1e-05,-2.9999999999999997e-05,-4e-05,5.9999999999999995e-05,2e-05,-0.0006,1e-05,2e-05,6
32888,33847,-1e-05,-2.9999999999999997e-05,-4e-05,5.9999999999999995e-05,2e-05,-0.0006,1e-05,2e-05,6
32889,33848,-1e-05,-2.9999999999999997e-05,-4e-05,5.9999999999999995e-05,2e-05,-0.0006,1e-05,2e-05,6
32890,33849,-1e-05,-2.9999999999999997e-05,-4e-05,5.9999999999999995e-05,2e-05,-0.0006,1e-05,2e-05,6
32891,33850,-1e-05,-2.9999999999999997e-05,-4e-05,5.9999999999999995e-05,2e-05,-0.0006,1e-05,2e-05,6
32892,33851,-1e-05,-2.9999999999999997e-05,-4e-05,5.9999999999999995e-05,2e-05,-0.0006,1e-05,2e-05,6
32893,33852,-1e-05,-2.9999999999999997e-05,-4e-05,5.9999999999999995e-05,2e-05,-0.0006,1e-05,2e-05,6
32894,33853,-1e-05,-2.9999999999999997e-05,-4e-05,5.9999999999999995e-05,2e-05,-0.0006,1e-05,2e-05,6
32895,33854,-1e-05,-2.9999999999999997e-05,-4e-05,5.9999999999999995e-05,2e-05,-0.0006,1e-05,2e-05,6
32896,33855,-1e-05,-2.9999999999999997e-05,-4e-05,5.9999999999999995e-05,2e-05,-0.0006,1e-05,2e-05,6
32897,33856,-1e-05,-2.9999999999999997e-05,-4e-05,5.9999999999999995e-05,2e-05,-0.0006,1e-05,2e-05,6
32898,33857,-0.00023999999999999998,4e-05,-5.9999999999999995e-05,-5.9999999999999995e-05,-0.0001,0.00059,2e-05,-0.00043,6
32899,33858,-0.00023999999999999998,4e-05,-5.9999999999999995e-05,-5.9999999999999995e-05,-0.0001,0.00059,2e-05,-0.00043,6
32900,33859,5.9999999999999995e-05,-1e-05,-1e-05,-2.9999999999999997e-05,2.9999999999999997e-05,0.0001,-8e-05,0.0,6
32901,33860,5.9999999999999995e-05,-1e-05,-1e-05,-2.9999999999999997e-05,2.9999999999999997e-05,0.0001,-8e-05,0.0,6
32902,33861,5.9999999999999995e-05,-1e-05,-1e-05,-2.9999999999999997e-05,2.9999999999999997e-05,0.0001,-8e-05,0.0,6
32903,33862,5.9999999999999995e-05,-1e-05,-1e-05,-2.9999999999999997e-05,2.9999999999999997e-05,0.0001,-8e-05,0.0,6
32904,33863,5.9999999999999995e-05,-1e-05,-1e-05,-2.9999999999999997e-05,2.9999999999999997e-05,0.0001,-8e-05,0.0,6
32905,33864,5.9999999999999995e-05,-1e-05,-1e-05,-2.9999999999999997e-05,2.9999999999999997e-05,0.0001,-8e-05,0.0,6
32906,33865,5.9999999999999995e-05,-1e-05,-1e-05,-2.9999999999999997e-05,2.9999999999999997e-05,0.0001,-8e-05,0.0,6
32907,33866,5.9999999999999995e-05,-1e-05,-1e-05,-2.9999999999999997e-05,2.9999999999999997e-05,0.0001,-8e-05,0.0,6
32908,33867,5.9999999999999995e-05,-1e-05,-1e-05,-2.9999999999999997e-05,2.9999999999999997e-05,0.0001,-8e-05,0.0,6
32909,33868,5.9999999999999995e-05,-1e-05,-1e-05,-2.9999999999999997e-05,2.9999999999999997e-05,0.0001,-8e-05,0.0,6
32910,33869,5.9999999999999995e-05,-1e-05,-1e-05,-2.9999999999999997e-05,2.9999999999999997e-05,0.0001,-8e-05,0.0,6
32911,33870,5.9999999999999995e-05,-1e-05,-1e-05,-2.9999999999999997e-05,2.9999999999999997e-05,0.0001,-8e-05,0.0,6
32912,33871,4e-05,-2e-05,1e-05,2e-05,-1e-05,-0.00018999999999999998,9e-05,-2e-05,6
32913,33872,4e-05,-2e-05,1e-05,2e-05,-1e-05,-0.00018999999999999998,9e-05,-2e-05,6
32914,33873,4e-05,-2e-05,1e-05,2e-05,-1e-05,-0.00018999999999999998,9e-05,-2e-05,6
32915,33874,4e-05,-2e-05,1e-05,2e-05,-1e-05,-0.00018999999999999998,9e-05,-2e-05,6
32916,33875,4e-05,-2e-05,1e-05,2e-05,-1e-05,-0.00018999999999999998,9e-05,-2e-05,6
32917,33876,4e-05,-2e-05,1e-05,2e-05,-1e-05,-0.00018999999999999998,9e-05,-2e-05,6
32918,33877,4e-05,-2e-05,1e-05,2e-05,-1e-05,-0.00018999999999999998,9e-05,-2e-05,6
32919,33878,4e-05,-2e-05,1e-05,2e-05,-1e-05,-0.00018999999999999998,9e-05,-2e-05,6
32920,33879,4e-05,-2e-05,1e-05,2e-05,-1e-05,-0.00018999999999999998,9e-05,-2e-05,6
32921,33880,0.00018999999999999998,0.0,-2e-05,1e-05,2e-05,2e-05,2e-05,-9e-05,6
32922,33881,0.00018999999999999998,0.0,-2e-05,1e-05,2e-05,2e-05,2e-05,-9e-05,6
32923,33882,0.00018999999999999998,0.0,-2e-05,1e-05,2e-05,2e-05,2e-05,-9e-05,6
32924,33883,0.00018999999999999998,0.0,-2e-05,1e-05,2e-05,2e-05,2e-05,-9e-05,6
32925,33884,0.00018999999999999998,0.0,-2e-05,1e-05,2e-05,2e-05,2e-05,-9e-05,6
32926,33885,0.00018999999999999998,0.0,-2e-05,1e-05,2e-05,2e-05,2e-05,-9e-05,6
32927,33886,0.00018999999999999998,0.0,-2e-05,1e-05,2e-05,2e-05,2e-05,-9e-05,6
32928,33888,0.00018999999999999998,0.0,-2e-05,1e-05,2e-05,2e-05,2e-05,-9e-05,6
32929,33889,0.00018999999999999998,0.0,-2e-05,1e-05,2e-05,2e-05,2e-05,-9e-05,6
32930,33890,0.00018999999999999998,0.0,-2e-05,1e-05,2e-05,2e-05,2e-05,-9e-05,6
32931,33891,0.00018999999999999998,0.0,-2e-05,1e-05,2e-05,2e-05,2e-05,-9e-05,6
32932,33892,0.00018999999999999998,0.0,-2e-05,1e-05,2e-05,2e-05,2e-05,-9e-05,6
32933,33893,0.00018999999999999998,0.0,-2e-05,1e-05,2e-05,2e-05,2e-05,-9e-05,6
32934,33894,0.00018999999999999998,0.0,-2e-05,1e-05,2e-05,2e-05,2e-05,-9e-05,6
32935,33895,2e-05,-5e-05,-0.00011,-0.00011999999999999999,-0.00016999999999999999,-7e-05,-2.9999999999999997e-05,7e-05,6
32936,33896,-1e-05,-1e-05,2e-05,1e-05,1e-05,-5e-05,9e-05,-8e-05,6
32937,33897,-1e-05,-1e-05,2e-05,1e-05,1e-05,-5e-05,9e-05,-8e-05,6
32938,33898,-1e-05,-1e-05,2e-05,1e-05,1e-05,-5e-05,9e-05,-8e-05,6
32939,33899,-1e-05,-1e-05,2e-05,1e-05,1e-05,-5e-05,9e-05,-8e-05,6
32940,33900,-1e-05,-1e-05,2e-05,1e-05,1e-05,-5e-05,9e-05,-8e-05,6
32941,33901,-1e-05,-1e-05,2e-05,1e-05,1e-05,-5e-05,9e-05,-8e-05,6
32942,33902,-1e-05,-1e-05,2e-05,1e-05,1e-05,-5e-05,9e-05,-8e-05,6
32943,33903,-1e-05,-1e-05,2e-05,1e-05,1e-05,-5e-05,9e-05,-8e-05,6
32944,33904,-1e-05,-1e-05,2e-05,1e-05,1e-05,-5e-05,9e-05,-8e-05,6
32945,33905,-1e-05,-1e-05,2e-05,1e-05,1e-05,-5e-05,9e-05,-8e-05,6
32946,33906,-1e-05,-1e-05,2e-05,1e-05,1e-05,-5e-05,9e-05,-8e-05,6
32947,33907,-1e-05,-1e-05,2e-05,1e-05,1e-05,-5e-05,9e-05,-8e-05,6
32948,33908,-1e-05,-1e-05,2e-05,1e-05,1e-05,-5e-05,9e-05,-8e-05,6
32949,33909,-1e-05,-1e-05,2e-05,1e-05,1e-05,-5e-05,9e-05,-8e-05,6
32950,33910,-1e-05,-1e-05,2e-05,1e-05,1e-05,-5e-05,9e-05,-8e-05,6
32951,33911,-1e-05,-1e-05,2e-05,1e-05,1e-05,-5e-05,9e-05,-8e-05,6
32952,33912,-1e-05,-1e-05,2e-05,1e-05,1e-05,-5e-05,9e-05,-8e-05,6
32953,33913,-1e-05,-1e-05,2e-05,1e-05,1e-05,-5e-05,9e-05,-8e-05,6
32954,33914,-1e-05,-1e-05,2e-05,1e-05,1e-05,-5e-05,9e-05,-8e-05,6
32955,33915,-1e-05,-1e-05,2e-05,1e-05,1e-05,-5e-05,9e-05,-8e-05,6
32956,33916,-1e-05,-1e-05,2e-05,1e-05,1e-05,-5e-05,9e-05,-8e-05,6
32957,33917,2.9999999999999997e-05,-7e-05,0.0,4e-05,0.00016,-2.9999999999999997e-05,1e-05,2e-05,6
32958,33918,2e-05,0.0,-2e-05,2.9999999999999997e-05,0.00016,-4e-05,-5.9999999999999995e-05,-0.00056,6
32959,33919,0.00014,5e-05,-2e-05,-4e-05,-2e-05,-1e-05,-0.00018,-0.00015,6
32960,33920,0.00014,5e-05,-2e-05,-4e-05,-2e-05,-1e-05,-0.00018,-0.00015,6
32961,33921,0.00014,5e-05,-2e-05,-4e-05,-2e-05,-1e-05,-0.00018,-0.00015,6
32962,33922,0.00014,5e-05,-2e-05,-4e-05,-2e-05,-1e-05,-0.00018,-0.00015,6
32963,33923,0.00014,5e-05,-2e-05,-4e-05,-2e-05,-1e-05,-0.00018,-0.00015,6
32964,33924,0.00014,5e-05,-2e-05,-4e-05,-2e-05,-1e-05,-0.00018,-0.00015,6
32965,33925,0.00014,5e-05,-2e-05,-4e-05,-2e-05,-1e-05,-0.00018,-0.00015,6
32966,33926,0.00014,5e-05,-2e-05,-4e-05,-2e-05,-1e-05,-0.00018,-0.00015,6
32967,33927,0.00014,5e-05,-2e-05,-4e-05,-2e-05,-1e-05,-0.00018,-0.00015,6
32968,33928,0.00014,5e-05,-2e-05,-4e-05,-2e-05,-1e-05,-0.00018,-0.00015,6
32969,33929,0.00014,5e-05,-2e-05,-4e-05,-2e-05,-1e-05,-0.00018,-0.00015,6
32970,33930,0.00014,5e-05,-2e-05,-4e-05,-2e-05,-1e-05,-0.00018,-0.00015,6
32971,33931,0.00011999999999999999,-2e-05,0.0,2.9999999999999997e-05,0.00016999999999999999,-8e-05,0.0,0.00031,6
32972,33932,0.00011999999999999999,-2e-05,0.0,2.9999999999999997e-05,0.00016999999999999999,-8e-05,0.0,0.00031,6
32973,33933,0.00011999999999999999,-2e-05,0.0,2.9999999999999997e-05,0.00016999999999999999,-8e-05,0.0,0.00031,6
32974,33934,0.00011999999999999999,-2e-05,0.0,2.9999999999999997e-05,0.00016999999999999999,-8e-05,0.0,0.00031,6
32975,33935,0.00011999999999999999,-2e-05,0.0,2.9999999999999997e-05,0.00016999999999999999,-8e-05,0.0,0.00031,6
32976,33936,0.00011999999999999999,-2e-05,0.0,2.9999999999999997e-05,0.00016999999999999999,-8e-05,0.0,0.00031,6
32977,33938,0.00011999999999999999,-2e-05,0.0,2.9999999999999997e-05,0.00016999999999999999,-8e-05,0.0,0.00031,6
32978,33939,0.00011999999999999999,-2e-05,0.0,2.9999999999999997e-05,0.00016999999999999999,-8e-05,0.0,0.00031,6
32979,33940,-0.00018999999999999998,-8e-05,-9e-05,-5e-05,-9e-05,0.0004,0.0001,-0.00026000000000000003,6
32980,33941,-0.00018999999999999998,-8e-05,-9e-05,-5e-05,-9e-05,0.0004,0.0001,-0.00026000000000000003,6
32981,33942,-0.00018999999999999998,-8e-05,-9e-05,-5e-05,-9e-05,0.0004,0.0001,-0.00026000000000000003,6
32982,33943,-0.00018999999999999998,-8e-05,-9e-05,-5e-05,-9e-05,0.0004,0.0001,-0.00026000000000000003,6
