,time,channel1,channel2,channel3,channel4,channel5,channel6,channel7,channel8,class
28344,29263,5.9999999999999995e-05,7e-05,0.00013000000000000002,0.00029,0.0007,0.00047000000000000004,0.0007599999999999999,0.00086,6
28345,29264,5.9999999999999995e-05,7e-05,0.00013000000000000002,0.00029,0.0007,0.00047000000000000004,0.0007599999999999999,0.00086,6
28346,29265,5.9999999999999995e-05,7e-05,0.00013000000000000002,0.00029,0.0007,0.00047000000000000004,0.0007599999999999999,0.00086,6
28347,29266,5.9999999999999995e-05,7e-05,0.00013000000000000002,0.00029,0.0007,0.00047000000000000004,0.0007599999999999999,0.00086,6
28348,29267,5.9999999999999995e-05,7e-05,0.00013000000000000002,0.00029,0.0007,0.00047000000000000004,0.0007599999999999999,0.00086,6
28349,29268,5.9999999999999995e-05,7e-05,0.00013000000000000002,0.00029,0.0007,0.00047000000000000004,0.0007599999999999999,0.00086,6
28350,29269,5.9999999999999995e-05,7e-05,0.00013000000000000002,0.00029,0.0007,0.00047000000000000004,0.0007599999999999999,0.00086,6
28351,29270,5.9999999999999995e-05,7e-05,0.00013000000000000002,0.00029,0.0007,0.00047000000000000004,0.0007599999999999999,0.00086,6
28352,29271,5.9999999999999995e-05,7e-05,0.00013000000000000002,0.00029,0.0007,0.00047000000000000004,0.0007599999999999999,0.00086,6
28353,29272,0.00015,2e-05,0.0,0.00016,0.00059,0.00055,0.00047000000000000004,0.00061,6
28354,29273,-0.00016999999999999999,-0.00011999999999999999,-0.00018,-0.00033999999999999997,-0.0012699999999999999,-0.00128,-0.00101,-0.00074,6
28355,29274,-0.00016999999999999999,-0.00011999999999999999,-0.00018,-0.00033999999999999997,-0.0012699999999999999,-0.00128,-0.00101,-0.00074,6
28356,29275,-0.00016999999999999999,-0.00011999999999999999,-0.00018,-0.00033999999999999997,-0.0012699999999999999,-0.00128,-0.00101,-0.00074,6
28357,29276,-0.00016999999999999999,-0.00011999999999999999,-0.00018,-0.00033999999999999997,-0.0012699999999999999,-0.00128,-0.00101,-0.00074,6
28358,29277,-0.00016999999999999999,-0.00011999999999999999,-0.00018,-0.00033999999999999997,-0.0012699999999999999,-0.00128,-0.00101,-0.00074,6
28359,29278,-0.00016999999999999999,-0.00011999999999999999,-0.00018,-0.00033999999999999997,-0.0012699999999999999,-0.00128,-0.00101,-0.00074,6
28360,29279,-0.00016999999999999999,-0.00011999999999999999,-0.00018,-0.00033999999999999997,-0.0012699999999999999,-0.00128,-0.00101,-0.00074,6
28361,29280,-0.00016999999999999999,-0.00011999999999999999,-0.00018,-0.00033999999999999997,-0.0012699999999999999,-0.00128,-0.00101,-0.00074,6
28362,29281,-0.00016999999999999999,-0.00011999999999999999,-0.00018,-0.00033999999999999997,-0.0012699999999999999,-0.00128,-0.00101,-0.00074,6
28363,29282,-0.00016999999999999999,-0.00011999999999999999,-0.00018,-0.00033999999999999997,-0.0012699999999999999,-0.00128,-0.00101,-0.00074,6
28364,29283,-0.00016999999999999999,-0.00011999999999999999,-0.00018,-0.00033999999999999997,-0.0012699999999999999,-0.00128,-0.00101,-0.00074,6
28365,29284,-0.00016999999999999999,-0.00011999999999999999,-0.00018,-0.00033999999999999997,-0.0012699999999999999,-0.00128,-0.00101,-0.00074,6
28366,29285,-0.00016999999999999999,-0.00011999999999999999,-0.00018,-0.00033999999999999997,-0.0012699999999999999,-0.00128,-0.00101,-0.00074,6
28367,29286,-0.00016999999999999999,-0.00011999999999999999,-0.00018,-0.00033999999999999997,-0.0012699999999999999,-0.00128,-0.00101,-0.00074,6
28368,29288,-0.00016999999999999999,-0.00011999999999999999,-0.00018,-0.00033999999999999997,-0.0012699999999999999,-0.00128,-0.00101,-0.00074,6
28369,29289,-0.00016999999999999999,-0.00011999999999999999,-0.00018,-0.00033999999999999997,-0.0012699999999999999,-0.00128,-0.00101,-0.00074,6
28370,29290,-0.00016999999999999999,-0.00011999999999999999,-0.00018,-0.00033999999999999997,-0.0012699999999999999,-0.00128,-0.00101,-0.00074,6
28371,29291,-0.00016999999999999999,-0.00011999999999999999,-0.00018,-0.00033999999999999997,-0.0012699999999999999,-0.00128,-0.00101,-0.00074,6
28372,29292,-0.00016999999999999999,-0.00011999999999999999,-0.00018,-0.00033999999999999997,-0.0012699999999999999,-0.00128,-0.00101,-0.00074,6
28373,29293,-0.00016999999999999999,-0.00011999999999999999,-0.00018,-0.00033999999999999997,-0.0012699999999999999,-0.00128,-0.00101,-0.00074,6
28374,29294,-0.00016999999999999999,-0.00011999999999999999,-0.00018,-0.00033999999999999997,-0.0012699999999999999,-0.00128,-0.00101,-0.00074,6
28375,29295,-2.9999999999999997e-05,2e-05,2e-05,8e-05,0.00095,-0.00054,0.00021,-0.00085,6
28376,29296,-0.00016999999999999999,-2e-05,-2.9999999999999997e-05,-0.00011999999999999999,-0.00026000000000000003,-0.00124,-0.00059,-0.00045,6
28377,29297,-0.00016999999999999999,-2e-05,-2.9999999999999997e-05,-0.00011999999999999999,-0.00026000000000000003,-0.00124,-0.00059,-0.00045,6
28378,29298,-0.00016999999999999999,-2e-05,-2.9999999999999997e-05,-0.00011999999999999999,-0.00026000000000000003,-0.00124,-0.00059,-0.00045,6
28379,29299,-0.00016999999999999999,-2e-05,-2.9999999999999997e-05,-0.00011999999999999999,-0.00026000000000000003,-0.00124,-0.00059,-0.00045,6
28380,29300,-0.00016999999999999999,-2e-05,-2.9999999999999997e-05,-0.00011999999999999999,-0.00026000000000000003,-0.00124,-0.00059,-0.00045,6
28381,29301,-0.00016999999999999999,-2e-05,-2.9999999999999997e-05,-0.00011999999999999999,-0.00026000000000000003,-0.00124,-0.00059,-0.00045,6
28382,29302,-0.00016999999999999999,-2e-05,-2.9999999999999997e-05,-0.00011999999999999999,-0.00026000000000000003,-0.00124,-0.00059,-0.00045,6
28383,29303,-0.00016999999999999999,-2e-05,-2.9999999999999997e-05,-0.00011999999999999999,-0.00026000000000000003,-0.00124,-0.00059,-0.00045,6
28384,29304,-0.00016999999999999999,-2e-05,-2.9999999999999997e-05,-0.00011999999999999999,-0.00026000000000000003,-0.00124,-0.00059,-0.00045,6
28385,29305,-0.00016999999999999999,-2e-05,-2.9999999999999997e-05,-0.00011999999999999999,-0.00026000000000000003,-0.00124,-0.00059,-0.00045,6
28386,29306,-0.00016999999999999999,-2e-05,-2.9999999999999997e-05,-0.00011999999999999999,-0.00026000000000000003,-0.00124,-0.00059,-0.00045,6
28387,29307,-0.00016999999999999999,-2e-05,-2.9999999999999997e-05,-0.00011999999999999999,-0.00026000000000000003,-0.00124,-0.00059,-0.00045,6
28388,29308,-0.00016999999999999999,-2e-05,-2.9999999999999997e-05,-0.00011999999999999999,-0.00026000000000000003,-0.00124,-0.00059,-0.00045,6
28389,29309,-0.00016999999999999999,-2e-05,-2.9999999999999997e-05,-0.00011999999999999999,-0.00026000000000000003,-0.00124,-0.00059,-0.00045,6
28390,29310,-0.00016999999999999999,-2e-05,-2.9999999999999997e-05,-0.00011999999999999999,-0.00026000000000000003,-0.00124,-0.00059,-0.00045,6
28391,29311,-0.00016999999999999999,-2e-05,-2.9999999999999997e-05,-0.00011999999999999999,-0.00026000000000000003,-0.00124,-0.00059,-0.00045,6
28392,29312,-0.00016999999999999999,-2e-05,-2.9999999999999997e-05,-0.00011999999999999999,-0.00026000000000000003,-0.00124,-0.00059,-0.00045,6
28393,29313,-0.00016999999999999999,-2e-05,-2.9999999999999997e-05,-0.00011999999999999999,-0.00026000000000000003,-0.00124,-0.00059,-0.00045,6
28394,29314,-0.00016999999999999999,-2e-05,-2.9999999999999997e-05,-0.00011999999999999999,-0.00026000000000000003,-0.00124,-0.00059,-0.00045,6
28395,29315,-0.00016999999999999999,-2e-05,-2.9999999999999997e-05,-0.00011999999999999999,-0.00026000000000000003,-0.00124,-0.00059,-0.00045,6
28396,29316,-0.00016999999999999999,-2e-05,-2.9999999999999997e-05,-0.00011999999999999999,-0.00026000000000000003,-0.00124,-0.00059,-0.00045,6
28397,29317,-2.9999999999999997e-05,-5.9999999999999995e-05,-7e-05,-1e-05,0.00073,-0.00049,5e-05,-8e-05,6
28398,29318,-0.00028,-0.00011999999999999999,-9e-05,-0.00016999999999999999,-0.00059,-0.00098,-0.0006,-0.00128,6
28399,29319,-0.00028,-0.00011999999999999999,-9e-05,-0.00016999999999999999,-0.00059,-0.00098,-0.0006,-0.00128,6
28400,29320,-0.00028,-0.00011999999999999999,-9e-05,-0.00016999999999999999,-0.00059,-0.00098,-0.0006,-0.00128,6
28401,29321,-0.00028,-0.00011999999999999999,-9e-05,-0.00016999999999999999,-0.00059,-0.00098,-0.0006,-0.00128,6
28402,29322,-0.00028,-0.00011999999999999999,-9e-05,-0.00016999999999999999,-0.00059,-0.00098,-0.0006,-0.00128,6
28403,29323,-0.00028,-0.00011999999999999999,-9e-05,-0.00016999999999999999,-0.00059,-0.00098,-0.0006,-0.00128,6
28404,29324,-0.00028,-0.00011999999999999999,-9e-05,-0.00016999999999999999,-0.00059,-0.00098,-0.0006,-0.00128,6
28405,29325,-0.00028,-0.00011999999999999999,-9e-05,-0.00016999999999999999,-0.00059,-0.00098,-0.0006,-0.00128,6
28406,29326,-0.00028,-0.00011999999999999999,-9e-05,-0.00016999999999999999,-0.00059,-0.00098,-0.0006,-0.00128,6
28407,29327,-0.00028,-0.00011999999999999999,-9e-05,-0.00016999999999999999,-0.00059,-0.00098,-0.0006,-0.00128,6
28408,29328,-0.00028,-0.00011999999999999999,-9e-05,-0.00016999999999999999,-0.00059,-0.00098,-0.0006,-0.00128,6
28409,29329,-0.00028,-0.00011999999999999999,-9e-05,-0.00016999999999999999,-0.00059,-0.00098,-0.0006,-0.00128,6
28410,29330,-0.00028,-0.00011999999999999999,-9e-05,-0.00016999999999999999,-0.00059,-0.00098,-0.0006,-0.00128,6
28411,29331,-0.00028,-0.00011999999999999999,-9e-05,-0.00016999999999999999,-0.00059,-0.00098,-0.0006,-0.00128,6
28412,29332,-0.00011999999999999999,-2.9999999999999997e-05,-2.9999999999999997e-05,-0.00011,-0.00044,-0.00011999999999999999,-9e-05,-0.0008,6
28413,29333,-0.00028,-5e-05,-8e-05,-5e-05,0.00047999999999999996,-0.0005,-7e-05,-0.00059,6
28414,29334,-0.00028,-5e-05,-8e-05,-5e-05,0.00047999999999999996,-0.0005,-7e-05,-0.00059,6
28415,29335,-0.00028,-5e-05,-8e-05,-5e-05,0.00047999999999999996,-0.0005,-7e-05,-0.00059,6
28416,29336,-0.00028,-5e-05,-8e-05,-5e-05,0.00047999999999999996,-0.0005,-7e-05,-0.00059,6
28417,29338,-0.00028,-5e-05,-8e-05,-5e-05,0.00047999999999999996,-0.0005,-7e-05,-0.00059,6
28418,29339,-0.00028,-5e-05,-8e-05,-5e-05,0.00047999999999999996,-0.0005,-7e-05,-0.00059,6
28419,29340,-0.00028,-5e-05,-8e-05,-5e-05,0.00047999999999999996,-0.0005,-7e-05,-0.00059,6
28420,29341,-0.00028,-5e-05,-8e-05,-5e-05,0.00047999999999999996,-0.0005,-7e-05,-0.00059,6
28421,29342,-0.00028,-5e-05,-8e-05,-5e-05,0.00047999999999999996,-0.0005,-7e-05,-0.00059,6
28422,29343,-0.00028,-5e-05,-8e-05,-5e-05,0.00047999999999999996,-0.0005,-7e-05,-0.00059,6
28423,29344,-0.00028,-5e-05,-8e-05,-5e-05,0.00047999999999999996,-0.0005,-7e-05,-0.00059,6
28424,29345,-0.00028,-5e-05,-8e-05,-5e-05,0.00047999999999999996,-0.0005,-7e-05,-0.00059,6
28425,29346,-0.00028,-5e-05,-8e-05,-5e-05,0.00047999999999999996,-0.0005,-7e-05,-0.00059,6
28426,29347,-0.00028,-5e-05,-8e-05,-5e-05,0.00047999999999999996,-0.0005,-7e-05,-0.00059,6
28427,29348,-0.00028,-5e-05,-8e-05,-5e-05,0.00047999999999999996,-0.0005,-7e-05,-0.00059,6
28428,29349,-0.00028,-5e-05,-8e-05,-5e-05,0.00047999999999999996,-0.0005,-7e-05,-0.00059,6
28429,29350,-0.00028,-5e-05,-8e-05,-5e-05,0.00047999999999999996,-0.0005,-7e-05,-0.00059,6
28430,29351,-0.00028,-5e-05,-8e-05,-5e-05,0.00047999999999999996,-0.0005,-7e-05,-0.00059,6
28431,29352,-0.00028,-5e-05,-8e-05,-5e-05,0.00047999999999999996,-0.0005,-7e-05,-0.00059,6
28432,29353,-0.00028,-5e-05,-8e-05,-5e-05,0.00047999999999999996,-0.0005,-7e-05,-0.00059,6
28433,29354,-0.00028,-5e-05,-8e-05,-5e-05,0.00047999999999999996,-0.0005,-7e-05,-0.00059,6
28434,29355,-1e-05,0.00011,0.00014,0.00026000000000000003,0.00066,0.00081,0.00079,-0.0004,6
28435,29356,-9e-05,-7e-05,-7e-05,-0.00011,-0.00064,-0.00016,-0.00028,-0.00063,6
28436,29357,-9e-05,-7e-05,-7e-05,-0.00011,-0.00064,-0.00016,-0.00028,-0.00063,6
28437,29358,-9e-05,-7e-05,-7e-05,-0.00011,-0.00064,-0.00016,-0.00028,-0.00063,6
28438,29359,-9e-05,-7e-05,-7e-05,-0.00011,-0.00064,-0.00016,-0.00028,-0.00063,6
28439,29360,-9e-05,-7e-05,-7e-05,-0.00011,-0.00064,-0.00016,-0.00028,-0.00063,6
28440,29361,-9e-05,-7e-05,-7e-05,-0.00011,-0.00064,-0.00016,-0.00028,-0.00063,6
28441,29362,-9e-05,-7e-05,-7e-05,-0.00011,-0.00064,-0.00016,-0.00028,-0.00063,6
28442,29363,-9e-05,-7e-05,-7e-05,-0.00011,-0.00064,-0.00016,-0.00028,-0.00063,6
28443,29364,-9e-05,-7e-05,-7e-05,-0.00011,-0.00064,-0.00016,-0.00028,-0.00063,6
28444,29365,-9e-05,-7e-05,-7e-05,-0.00011,-0.00064,-0.00016,-0.00028,-0.00063,6
28445,29366,-9e-05,-7e-05,-7e-05,-0.00011,-0.00064,-0.00016,-0.00028,-0.00063,6
28446,29367,-9e-05,-7e-05,-7e-05,-0.00011,-0.00064,-0.00016,-0.00028,-0.00063,6
28447,29368,-9e-05,-7e-05,-7e-05,-0.00011,-0.00064,-0.00016,-0.00028,-0.00063,6
28448,29369,-9e-05,-7e-05,-7e-05,-0.00011,-0.00064,-0.00016,-0.00028,-0.00063,6
28449,29370,-9e-05,-7e-05,-7e-05,-0.00011,-0.00064,-0.00016,-0.00028,-0.00063,6
28450,29371,-9e-05,-7e-05,-7e-05,-0.00011,-0.00064,-0.00016,-0.00028,-0.00063,6
28451,29372,-9e-05,-7e-05,-7e-05,-0.00011,-0.00064,-0.00016,-0.00028,-0.00063,6
28452,29373,-9e-05,-7e-05,-7e-05,-0.00011,-0.00064,-0.00016,-0.00028,-0.00063,6
28453,29374,-9e-05,-7e-05,-7e-05,-0.00011,-0.00064,-0.00016,-0.00028,-0.00063,6
28454,29375,-9e-05,-7e-05,-7e-05,-0.00011,-0.00064,-0.00016,-0.00028,-0.00063,6
28455,29376,-9e-05,-7e-05,-7e-05,-0.00011,-0.00064,-0.00016,-0.00028,-0.00063,6
28456,29377,1e-05,5.9999999999999995e-05,2e-05,2.9999999999999997e-05,0.00018999999999999998,0.00022999999999999998,0.00027,0.0009,6
28457,29378,-0.00016999999999999999,4e-05,2e-05,1e-05,0.00015,0.0011,0.0005,0.0002,6
28458,29379,-0.00016999999999999999,4e-05,2e-05,1e-05,0.00015,0.0011,0.0005,0.0002,6
28459,29380,-0.00016999999999999999,4e-05,2e-05,1e-05,0.00015,0.0011,0.0005,0.0002,6
28460,29381,-0.00016999999999999999,4e-05,2e-05,1e-05,0.00015,0.0011,0.0005,0.0002,6
28461,29382,-0.00016999999999999999,4e-05,2e-05,1e-05,0.00015,0.0011,0.0005,0.0002,6
28462,29383,-0.00016999999999999999,4e-05,2e-05,1e-05,0.00015,0.0011,0.0005,0.0002,6
28463,29384,-0.00016999999999999999,4e-05,2e-05,1e-05,0.00015,0.0011,0.0005,0.0002,6
28464,29385,-0.00016999999999999999,4e-05,2e-05,1e-05,0.00015,0.0011,0.0005,0.0002,6
28465,29386,-0.00016999999999999999,4e-05,2e-05,1e-05,0.00015,0.0011,0.0005,0.0002,6
28466,29388,-0.00016999999999999999,4e-05,2e-05,1e-05,0.00015,0.0011,0.0005,0.0002,6
28467,29389,-0.00016999999999999999,4e-05,2e-05,1e-05,0.00015,0.0011,0.0005,0.0002,6
28468,29390,-0.00016999999999999999,4e-05,2e-05,1e-05,0.00015,0.0011,0.0005,0.0002,6
28469,29391,-0.00016999999999999999,4e-05,2e-05,1e-05,0.00015,0.0011,0.0005,0.0002,6
28470,29392,0.00018999999999999998,0.0001,0.00016,0.0001,-0.00103,0.00074,0.00043,0.00037999999999999997,6
28471,29393,9e-05,4e-05,2.9999999999999997e-05,-8e-05,-0.0006900000000000001,0.00031,0.00023999999999999998,0.00091,6
28472,29394,9e-05,4e-05,2.9999999999999997e-05,-8e-05,-0.0006900000000000001,0.00031,0.00023999999999999998,0.00091,6
28473,29395,9e-05,4e-05,2.9999999999999997e-05,-8e-05,-0.0006900000000000001,0.00031,0.00023999999999999998,0.00091,6
28474,29396,9e-05,4e-05,2.9999999999999997e-05,-8e-05,-0.0006900000000000001,0.00031,0.00023999999999999998,0.00091,6
28475,29397,9e-05,4e-05,2.9999999999999997e-05,-8e-05,-0.0006900000000000001,0.00031,0.00023999999999999998,0.00091,6
28476,29398,9e-05,4e-05,2.9999999999999997e-05,-8e-05,-0.0006900000000000001,0.00031,0.00023999999999999998,0.00091,6
28477,29399,9e-05,4e-05,2.9999999999999997e-05,-8e-05,-0.0006900000000000001,0.00031,0.00023999999999999998,0.00091,6
28478,29400,9e-05,4e-05,2.9999999999999997e-05,-8e-05,-0.0006900000000000001,0.00031,0.00023999999999999998,0.00091,6
28479,29401,9e-05,4e-05,2.9999999999999997e-05,-8e-05,-0.0006900000000000001,0.00031,0.00023999999999999998,0.00091,6
28480,29402,9e-05,4e-05,2.9999999999999997e-05,-8e-05,-0.0006900000000000001,0.00031,0.00023999999999999998,0.00091,6
28481,29403,9e-05,4e-05,2.9999999999999997e-05,-8e-05,-0.0006900000000000001,0.00031,0.00023999999999999998,0.00091,6
28482,29404,9e-05,4e-05,2.9999999999999997e-05,-8e-05,-0.0006900000000000001,0.00031,0.00023999999999999998,0.00091,6
28483,29405,9e-05,4e-05,2.9999999999999997e-05,-8e-05,-0.0006900000000000001,0.00031,0.00023999999999999998,0.00091,6
28484,29406,9e-05,4e-05,2.9999999999999997e-05,-8e-05,-0.0006900000000000001,0.00031,0.00023999999999999998,0.00091,6
28485,29407,9e-05,4e-05,2.9999999999999997e-05,-8e-05,-0.0006900000000000001,0.00031,0.00023999999999999998,0.00091,6
28486,29408,9e-05,4e-05,2.9999999999999997e-05,-8e-05,-0.0006900000000000001,0.00031,0.00023999999999999998,0.00091,6
28487,29409,9e-05,4e-05,2.9999999999999997e-05,-8e-05,-0.0006900000000000001,0.00031,0.00023999999999999998,0.00091,6
28488,29410,9e-05,4e-05,2.9999999999999997e-05,-8e-05,-0.0006900000000000001,0.00031,0.00023999999999999998,0.00091,6
28489,29411,9e-05,4e-05,2.9999999999999997e-05,-8e-05,-0.0006900000000000001,0.00031,0.00023999999999999998,0.00091,6
28490,29412,9e-05,4e-05,2.9999999999999997e-05,-8e-05,-0.0006900000000000001,0.00031,0.00023999999999999998,0.00091,6
28491,29413,9e-05,4e-05,2.9999999999999997e-05,-8e-05,-0.0006900000000000001,0.00031,0.00023999999999999998,0.00091,6
28492,29414,9e-05,4e-05,2.9999999999999997e-05,-8e-05,-0.0006900000000000001,0.00031,0.00023999999999999998,0.00091,6
28493,29415,5e-05,2e-05,2e-05,4e-05,-0.00025,-0.00041,0.0001,2.9999999999999997e-05,6
28494,29416,8e-05,-2.9999999999999997e-05,-4e-05,5.9999999999999995e-05,0.0006,-0.00081,9e-05,-0.00027,6
28495,29417,8e-05,-2.9999999999999997e-05,-4e-05,5.9999999999999995e-05,0.0006,-0.00081,9e-05,-0.00027,6
28496,29418,8e-05,-2.9999999999999997e-05,-4e-05,5.9999999999999995e-05,0.0006,-0.00081,9e-05,-0.00027,6
28497,29419,8e-05,-2.9999999999999997e-05,-4e-05,5.9999999999999995e-05,0.0006,-0.00081,9e-05,-0.00027,6
28498,29420,8e-05,-2.9999999999999997e-05,-4e-05,5.9999999999999995e-05,0.0006,-0.00081,9e-05,-0.00027,6
28499,29421,8e-05,-2.9999999999999997e-05,-4e-05,5.9999999999999995e-05,0.0006,-0.00081,9e-05,-0.00027,6
28500,29422,8e-05,-2.9999999999999997e-05,-4e-05,5.9999999999999995e-05,0.0006,-0.00081,9e-05,-0.00027,6
28501,29423,8e-05,-2.9999999999999997e-05,-4e-05,5.9999999999999995e-05,0.0006,-0.00081,9e-05,-0.00027,6
28502,29424,8e-05,-2.9999999999999997e-05,-4e-05,5.9999999999999995e-05,0.0006,-0.00081,9e-05,-0.00027,6
28503,29425,8e-05,-2.9999999999999997e-05,-4e-05,5.9999999999999995e-05,0.0006,-0.00081,9e-05,-0.00027,6
28504,29426,8e-05,-2.9999999999999997e-05,-4e-05,5.9999999999999995e-05,0.0006,-0.00081,9e-05,-0.00027,6
28505,29427,8e-05,-2.9999999999999997e-05,-4e-05,5.9999999999999995e-05,0.0006,-0.00081,9e-05,-0.00027,6
28506,29428,8e-05,-2.9999999999999997e-05,-4e-05,5.9999999999999995e-05,0.0006,-0.00081,9e-05,-0.00027,6
28507,29429,8e-05,-2.9999999999999997e-05,-4e-05,5.9999999999999995e-05,0.0006,-0.00081,9e-05,-0.00027,6
28508,29430,8e-05,-2.9999999999999997e-05,-4e-05,5.9999999999999995e-05,0.0006,-0.00081,9e-05,-0.00027,6
28509,29431,8e-05,-2.9999999999999997e-05,-4e-05,5.9999999999999995e-05,0.0006,-0.00081,9e-05,-0.00027,6
28510,29432,8e-05,-2.9999999999999997e-05,-4e-05,5.9999999999999995e-05,0.0006,-0.00081,9e-05,-0.00027,6
28511,29433,8e-05,-2.9999999999999997e-05,-4e-05,5.9999999999999995e-05,0.0006,-0.00081,9e-05,-0.00027,6
28512,29434,8e-05,-2.9999999999999997e-05,-4e-05,5.9999999999999995e-05,0.0006,-0.00081,9e-05,-0.00027,6
28513,29435,8e-05,-2.9999999999999997e-05,-4e-05,5.9999999999999995e-05,0.0006,-0.00081,9e-05,-0.00027,6
28514,29436,8e-05,-2.9999999999999997e-05,-4e-05,5.9999999999999995e-05,0.0006,-0.00081,9e-05,-0.00027,6
28515,29438,-1e-05,-0.00015,-0.00018,-0.00021,0.00055,-0.00057,-0.00029,0.00018,6
28516,29439,0.0002,2.9999999999999997e-05,5.9999999999999995e-05,0.00022,0.0008,0.0007099999999999999,0.00041,0.0002,6
28517,29440,0.0002,2.9999999999999997e-05,5.9999999999999995e-05,0.00022,0.0008,0.0007099999999999999,0.00041,0.0002,6
28518,29441,0.0002,2.9999999999999997e-05,5.9999999999999995e-05,0.00022,0.0008,0.0007099999999999999,0.00041,0.0002,6
28519,29442,0.0002,2.9999999999999997e-05,5.9999999999999995e-05,0.00022,0.0008,0.0007099999999999999,0.00041,0.0002,6
28520,29443,0.0002,2.9999999999999997e-05,5.9999999999999995e-05,0.00022,0.0008,0.0007099999999999999,0.00041,0.0002,6
28521,29444,0.0002,2.9999999999999997e-05,5.9999999999999995e-05,0.00022,0.0008,0.0007099999999999999,0.00041,0.0002,6
28522,29445,0.0002,2.9999999999999997e-05,5.9999999999999995e-05,0.00022,0.0008,0.0007099999999999999,0.00041,0.0002,6
28523,29446,0.0002,2.9999999999999997e-05,5.9999999999999995e-05,0.00022,0.0008,0.0007099999999999999,0.00041,0.0002,6
28524,29447,0.0002,2.9999999999999997e-05,5.9999999999999995e-05,0.00022,0.0008,0.0007099999999999999,0.00041,0.0002,6
28525,29448,0.0002,2.9999999999999997e-05,5.9999999999999995e-05,0.00022,0.0008,0.0007099999999999999,0.00041,0.0002,6
28526,29449,0.0002,2.9999999999999997e-05,5.9999999999999995e-05,0.00022,0.0008,0.0007099999999999999,0.00041,0.0002,6
28527,29450,0.0002,2.9999999999999997e-05,5.9999999999999995e-05,0.00022,0.0008,0.0007099999999999999,0.00041,0.0002,6
28528,29451,0.0002,2.9999999999999997e-05,5.9999999999999995e-05,0.00022,0.0008,0.0007099999999999999,0.00041,0.0002,6
28529,29452,-0.00011,2.9999999999999997e-05,5e-05,7e-05,0.00062,0.0006799999999999999,0.00039,0.00042,6
28530,29453,5.9999999999999995e-05,-0.00011999999999999999,-0.00011999999999999999,2.9999999999999997e-05,0.00037,-4e-05,-0.00025,0.00053,6
28531,29454,5.9999999999999995e-05,-0.00011999999999999999,-0.00011999999999999999,2.9999999999999997e-05,0.00037,-4e-05,-0.00025,0.00053,6
28532,29455,5.9999999999999995e-05,-0.00011999999999999999,-0.00011999999999999999,2.9999999999999997e-05,0.00037,-4e-05,-0.00025,0.00053,6
28533,29456,5.9999999999999995e-05,-0.00011999999999999999,-0.00011999999999999999,2.9999999999999997e-05,0.00037,-4e-05,-0.00025,0.00053,6
28534,29457,5.9999999999999995e-05,-0.00011999999999999999,-0.00011999999999999999,2.9999999999999997e-05,0.00037,-4e-05,-0.00025,0.00053,6
28535,29458,5.9999999999999995e-05,-0.00011999999999999999,-0.00011999999999999999,2.9999999999999997e-05,0.00037,-4e-05,-0.00025,0.00053,6
28536,29459,5.9999999999999995e-05,-0.00011999999999999999,-0.00011999999999999999,2.9999999999999997e-05,0.00037,-4e-05,-0.00025,0.00053,6
28537,29460,5.9999999999999995e-05,-0.00011999999999999999,-0.00011999999999999999,2.9999999999999997e-05,0.00037,-4e-05,-0.00025,0.00053,6
28538,29461,5.9999999999999995e-05,-0.00011999999999999999,-0.00011999999999999999,2.9999999999999997e-05,0.00037,-4e-05,-0.00025,0.00053,6
28539,29462,5.9999999999999995e-05,-0.00011999999999999999,-0.00011999999999999999,2.9999999999999997e-05,0.00037,-4e-05,-0.00025,0.00053,6
28540,29463,5.9999999999999995e-05,-0.00011999999999999999,-0.00011999999999999999,2.9999999999999997e-05,0.00037,-4e-05,-0.00025,0.00053,6
28541,29464,5.9999999999999995e-05,-0.00011999999999999999,-0.00011999999999999999,2.9999999999999997e-05,0.00037,-4e-05,-0.00025,0.00053,6
28542,29465,5.9999999999999995e-05,-0.00011999999999999999,-0.00011999999999999999,2.9999999999999997e-05,0.00037,-4e-05,-0.00025,0.00053,6
28543,29466,5.9999999999999995e-05,-0.00011999999999999999,-0.00011999999999999999,2.9999999999999997e-05,0.00037,-4e-05,-0.00025,0.00053,6
28544,29467,5.9999999999999995e-05,-0.00011999999999999999,-0.00011999999999999999,2.9999999999999997e-05,0.00037,-4e-05,-0.00025,0.00053,6
28545,29468,5.9999999999999995e-05,-0.00011999999999999999,-0.00011999999999999999,2.9999999999999997e-05,0.00037,-4e-05,-0.00025,0.00053,6
28546,29469,5.9999999999999995e-05,-0.00011999999999999999,-0.00011999999999999999,2.9999999999999997e-05,0.00037,-4e-05,-0.00025,0.00053,6
28547,29470,5.9999999999999995e-05,-0.00011999999999999999,-0.00011999999999999999,2.9999999999999997e-05,0.00037,-4e-05,-0.00025,0.00053,6
28548,29471,5.9999999999999995e-05,-0.00011999999999999999,-0.00011999999999999999,2.9999999999999997e-05,0.00037,-4e-05,-0.00025,0.00053,6
28549,29472,5.9999999999999995e-05,-0.00011999999999999999,-0.00011999999999999999,2.9999999999999997e-05,0.00037,-4e-05,-0.00025,0.00053,6
28550,29473,5.9999999999999995e-05,-0.00011999999999999999,-0.00011999999999999999,2.9999999999999997e-05,0.00037,-4e-05,-0.00025,0.00053,6
28551,29474,5.9999999999999995e-05,-0.00011999999999999999,-0.00011999999999999999,2.9999999999999997e-05,0.00037,-4e-05,-0.00025,0.00053,6
28552,29475,-5e-05,-4e-05,-5e-05,2.9999999999999997e-05,0.00045,0.0012699999999999999,0.00014,-0.00023999999999999998,6
28553,29476,0.00013000000000000002,0.00011,0.00011999999999999999,0.00022,0.00045,0.00047000000000000004,0.0006,0.00033,6
28554,29477,0.00013000000000000002,0.00011,0.00011999999999999999,0.00022,0.00045,0.00047000000000000004,0.0006,0.00033,6
28555,29478,0.00013000000000000002,0.00011,0.00011999999999999999,0.00022,0.00045,0.00047000000000000004,0.0006,0.00033,6
28556,29479,0.00013000000000000002,0.00011,0.00011999999999999999,0.00022,0.00045,0.00047000000000000004,0.0006,0.00033,6
28557,29480,0.00013000000000000002,0.00011,0.00011999999999999999,0.00022,0.00045,0.00047000000000000004,0.0006,0.00033,6
28558,29481,0.00013000000000000002,0.00011,0.00011999999999999999,0.00022,0.00045,0.00047000000000000004,0.0006,0.00033,6
28559,29482,0.00013000000000000002,0.00011,0.00011999999999999999,0.00022,0.00045,0.00047000000000000004,0.0006,0.00033,6
28560,29483,0.00013000000000000002,0.00011,0.00011999999999999999,0.00022,0.00045,0.00047000000000000004,0.0006,0.00033,6
28561,29484,0.00013000000000000002,0.00011,0.00011999999999999999,0.00022,0.00045,0.00047000000000000004,0.0006,0.00033,6
28562,29485,0.00013000000000000002,0.00011,0.00011999999999999999,0.00022,0.00045,0.00047000000000000004,0.0006,0.00033,6
28563,29486,0.00013000000000000002,0.00011,0.00011999999999999999,0.00022,0.00045,0.00047000000000000004,0.0006,0.00033,6
28564,29488,0.00013000000000000002,0.00011,0.00011999999999999999,0.00022,0.00045,0.00047000000000000004,0.0006,0.00033,6
28565,29489,0.00013000000000000002,0.00011,0.00011999999999999999,0.00022,0.00045,0.00047000000000000004,0.0006,0.00033,6
28566,29490,0.00013000000000000002,0.00011,0.00011999999999999999,0.00022,0.00045,0.00047000000000000004,0.0006,0.00033,6
28567,29491,0.00013000000000000002,0.00011,0.00011999999999999999,0.00022,0.00045,0.00047000000000000004,0.0006,0.00033,6
28568,29492,0.00013000000000000002,0.00011,0.00011999999999999999,0.00022,0.00045,0.00047000000000000004,0.0006,0.00033,6
28569,29493,0.00013000000000000002,0.00011,0.00011999999999999999,0.00022,0.00045,0.00047000000000000004,0.0006,0.00033,6
28570,29494,0.00013000000000000002,0.00011,0.00011999999999999999,0.00022,0.00045,0.00047000000000000004,0.0006,0.00033,6
28571,29495,0.00013000000000000002,0.00011,0.00011999999999999999,0.00022,0.00045,0.00047000000000000004,0.0006,0.00033,6
28572,29496,0.00013000000000000002,0.00011,0.00011999999999999999,0.00022,0.00045,0.00047000000000000004,0.0006,0.00033,6
28573,29497,0.00013000000000000002,0.00011,0.00011999999999999999,0.00022,0.00045,0.00047000000000000004,0.0006,0.00033,6
28574,29498,7e-05,-1e-05,-5.9999999999999995e-05,-0.00015,-0.00036,-0.00093,-0.00028,-5e-05,6
28575,29499,7e-05,-1e-05,-5.9999999999999995e-05,-0.00015,-0.00036,-0.00093,-0.00028,-5e-05,6
28576,29500,7e-05,-1e-05,-5.9999999999999995e-05,-0.00015,-0.00036,-0.00093,-0.00028,-5e-05,6
28577,29501,7e-05,-1e-05,-5.9999999999999995e-05,-0.00015,-0.00036,-0.00093,-0.00028,-5e-05,6
28578,29502,7e-05,-1e-05,-5.9999999999999995e-05,-0.00015,-0.00036,-0.00093,-0.00028,-5e-05,6
28579,29503,7e-05,-1e-05,-5.9999999999999995e-05,-0.00015,-0.00036,-0.00093,-0.00028,-5e-05,6
28580,29504,7e-05,-1e-05,-5.9999999999999995e-05,-0.00015,-0.00036,-0.00093,-0.00028,-5e-05,6
28581,29505,7e-05,-1e-05,-5.9999999999999995e-05,-0.00015,-0.00036,-0.00093,-0.00028,-5e-05,6
28582,29506,7e-05,-1e-05,-5.9999999999999995e-05,-0.00015,-0.00036,-0.00093,-0.00028,-5e-05,6
28583,29507,7e-05,-1e-05,-5.9999999999999995e-05,-0.00015,-0.00036,-0.00093,-0.00028,-5e-05,6
28584,29508,7e-05,-1e-05,-5.9999999999999995e-05,-0.00015,-0.00036,-0.00093,-0.00028,-5e-05,6
28585,29509,7e-05,-1e-05,-5.9999999999999995e-05,-0.00015,-0.00036,-0.00093,-0.00028,-5e-05,6
28586,29510,7e-05,-1e-05,-5.9999999999999995e-05,-0.00015,-0.00036,-0.00093,-0.00028,-5e-05,6
28587,29511,7e-05,-1e-05,-5.9999999999999995e-05,-0.00015,-0.00036,-0.00093,-0.00028,-5e-05,6
28588,29512,8e-05,2.9999999999999997e-05,2.9999999999999997e-05,0.00015,0.00106,-7e-05,0.00032,-0.00043,6
28589,29513,-5e-05,4e-05,2.9999999999999997e-05,-0.0002,-0.0002,-0.00074,5e-05,-7e-05,6
28590,29514,-5e-05,4e-05,2.9999999999999997e-05,-0.0002,-0.0002,-0.00074,5e-05,-7e-05,6
28591,29515,-5e-05,4e-05,2.9999999999999997e-05,-0.0002,-0.0002,-0.00074,5e-05,-7e-05,6
28592,29517,-5e-05,4e-05,2.9999999999999997e-05,-0.0002,-0.0002,-0.00074,5e-05,-7e-05,6
28593,29518,-5e-05,4e-05,2.9999999999999997e-05,-0.0002,-0.0002,-0.00074,5e-05,-7e-05,6
28594,29519,-5e-05,4e-05,2.9999999999999997e-05,-0.0002,-0.0002,-0.00074,5e-05,-7e-05,6
28595,29520,-5e-05,4e-05,2.9999999999999997e-05,-0.0002,-0.0002,-0.00074,5e-05,-7e-05,6
28596,29521,-5e-05,4e-05,2.9999999999999997e-05,-0.0002,-0.0002,-0.00074,5e-05,-7e-05,6
28597,29522,-5e-05,4e-05,2.9999999999999997e-05,-0.0002,-0.0002,-0.00074,5e-05,-7e-05,6
28598,29523,-5e-05,4e-05,2.9999999999999997e-05,-0.0002,-0.0002,-0.00074,5e-05,-7e-05,6
28599,29524,-5e-05,4e-05,2.9999999999999997e-05,-0.0002,-0.0002,-0.00074,5e-05,-7e-05,6
28600,29525,-5e-05,4e-05,2.9999999999999997e-05,-0.0002,-0.0002,-0.00074,5e-05,-7e-05,6
28601,29526,-5e-05,4e-05,2.9999999999999997e-05,-0.0002,-0.0002,-0.00074,5e-05,-7e-05,6
28602,29527,-5e-05,4e-05,2.9999999999999997e-05,-0.0002,-0.0002,-0.00074,5e-05,-7e-05,6
28603,29528,-5e-05,4e-05,2.9999999999999997e-05,-0.0002,-0.0002,-0.00074,5e-05,-7e-05,6
28604,29529,-5e-05,4e-05,2.9999999999999997e-05,-0.0002,-0.0002,-0.00074,5e-05,-7e-05,6
28605,29530,-5e-05,4e-05,2.9999999999999997e-05,-0.0002,-0.0002,-0.00074,5e-05,-7e-05,6
28606,29531,-5e-05,4e-05,2.9999999999999997e-05,-0.0002,-0.0002,-0.00074,5e-05,-7e-05,6
28607,29532,-5e-05,4e-05,2.9999999999999997e-05,-0.0002,-0.0002,-0.00074,5e-05,-7e-05,6
28608,29533,-5e-05,4e-05,2.9999999999999997e-05,-0.0002,-0.0002,-0.00074,5e-05,-7e-05,6
28609,29534,-5e-05,4e-05,2.9999999999999997e-05,-0.0002,-0.0002,-0.00074,5e-05,-7e-05,6
28610,29535,-2.9999999999999997e-05,-8e-05,-8e-05,-4e-05,0.00016,0.0,-0.00016999999999999999,0.00025,6
28611,29536,5e-05,-4e-05,-2.9999999999999997e-05,-5e-05,-0.00047000000000000004,-0.00032,5e-05,5.9999999999999995e-05,6
28612,29538,5e-05,-4e-05,-2.9999999999999997e-05,-5e-05,-0.00047000000000000004,-0.00032,5e-05,5.9999999999999995e-05,6
28613,29539,5e-05,-4e-05,-2.9999999999999997e-05,-5e-05,-0.00047000000000000004,-0.00032,5e-05,5.9999999999999995e-05,6
28614,29540,5e-05,-4e-05,-2.9999999999999997e-05,-5e-05,-0.00047000000000000004,-0.00032,5e-05,5.9999999999999995e-05,6
28615,29541,5e-05,-4e-05,-2.9999999999999997e-05,-5e-05,-0.00047000000000000004,-0.00032,5e-05,5.9999999999999995e-05,6
28616,29542,5e-05,-4e-05,-2.9999999999999997e-05,-5e-05,-0.00047000000000000004,-0.00032,5e-05,5.9999999999999995e-05,6
28617,29543,5e-05,-4e-05,-2.9999999999999997e-05,-5e-05,-0.00047000000000000004,-0.00032,5e-05,5.9999999999999995e-05,6
28618,29544,5e-05,-4e-05,-2.9999999999999997e-05,-5e-05,-0.00047000000000000004,-0.00032,5e-05,5.9999999999999995e-05,6
28619,29545,5e-05,-4e-05,-2.9999999999999997e-05,-5e-05,-0.00047000000000000004,-0.00032,5e-05,5.9999999999999995e-05,6
28620,29546,5e-05,-4e-05,-2.9999999999999997e-05,-5e-05,-0.00047000000000000004,-0.00032,5e-05,5.9999999999999995e-05,6
28621,29547,5e-05,-4e-05,-2.9999999999999997e-05,-5e-05,-0.00047000000000000004,-0.00032,5e-05,5.9999999999999995e-05,6
28622,29548,5e-05,-4e-05,-2.9999999999999997e-05,-5e-05,-0.00047000000000000004,-0.00032,5e-05,5.9999999999999995e-05,6
28623,29549,5e-05,-4e-05,-2.9999999999999997e-05,-5e-05,-0.00047000000000000004,-0.00032,5e-05,5.9999999999999995e-05,6
28624,29550,5e-05,-4e-05,-2.9999999999999997e-05,-5e-05,-0.00047000000000000004,-0.00032,5e-05,5.9999999999999995e-05,6
28625,29551,5e-05,-4e-05,-2.9999999999999997e-05,-5e-05,-0.00047000000000000004,-0.00032,5e-05,5.9999999999999995e-05,6
28626,29552,5e-05,-4e-05,-2.9999999999999997e-05,-5e-05,-0.00047000000000000004,-0.00032,5e-05,5.9999999999999995e-05,6
28627,29553,5e-05,-4e-05,-2.9999999999999997e-05,-5e-05,-0.00047000000000000004,-0.00032,5e-05,5.9999999999999995e-05,6
28628,29554,5e-05,-4e-05,-2.9999999999999997e-05,-5e-05,-0.00047000000000000004,-0.00032,5e-05,5.9999999999999995e-05,6
28629,29555,5e-05,-4e-05,-2.9999999999999997e-05,-5e-05,-0.00047000000000000004,-0.00032,5e-05,5.9999999999999995e-05,6
28630,29556,5e-05,-4e-05,-2.9999999999999997e-05,-5e-05,-0.00047000000000000004,-0.00032,5e-05,5.9999999999999995e-05,6
28631,29557,-7e-05,2.9999999999999997e-05,2e-05,7e-05,0.0005,0.00025,-2.9999999999999997e-05,-0.00016999999999999999,6
28632,29558,9e-05,-1e-05,2e-05,0.0,-0.00086,-0.00054,-0.00014,0.00028,6
28633,29559,9e-05,-1e-05,2e-05,0.0,-0.00086,-0.00054,-0.00014,0.00028,6
28634,29560,9e-05,-1e-05,2e-05,0.0,-0.00086,-0.00054,-0.00014,0.00028,6
28635,29561,9e-05,-1e-05,2e-05,0.0,-0.00086,-0.00054,-0.00014,0.00028,6
28636,29562,9e-05,-1e-05,2e-05,0.0,-0.00086,-0.00054,-0.00014,0.00028,6
28637,29563,9e-05,-1e-05,2e-05,0.0,-0.00086,-0.00054,-0.00014,0.00028,6
28638,29564,9e-05,-1e-05,2e-05,0.0,-0.00086,-0.00054,-0.00014,0.00028,6
28639,29565,9e-05,-1e-05,2e-05,0.0,-0.00086,-0.00054,-0.00014,0.00028,6
28640,29566,9e-05,-1e-05,2e-05,0.0,-0.00086,-0.00054,-0.00014,0.00028,6
28641,29567,9e-05,-1e-05,2e-05,0.0,-0.00086,-0.00054,-0.00014,0.00028,6
28642,29568,9e-05,-1e-05,2e-05,0.0,-0.00086,-0.00054,-0.00014,0.00028,6
28643,29569,9e-05,-1e-05,2e-05,0.0,-0.00086,-0.00054,-0.00014,0.00028,6
28644,29570,9e-05,-1e-05,2e-05,0.0,-0.00086,-0.00054,-0.00014,0.00028,6
28645,29571,9e-05,-1e-05,2e-05,0.0,-0.00086,-0.00054,-0.00014,0.00028,6
28646,29572,7e-05,9e-05,0.00011999999999999999,0.00027,0.0009699999999999999,0.0009400000000000001,0.00042,0.00016999999999999999,6
28647,29573,-7e-05,0.0,-4e-05,-1e-05,0.0009199999999999999,0.0002,-0.00041,-0.00028,6
28648,29574,-7e-05,0.0,-4e-05,-1e-05,0.0009199999999999999,0.0002,-0.00041,-0.00028,6
28649,29575,-7e-05,0.0,-4e-05,-1e-05,0.0009199999999999999,0.0002,-0.00041,-0.00028,6
28650,29576,-7e-05,0.0,-4e-05,-1e-05,0.0009199999999999999,0.0002,-0.00041,-0.00028,6
28651,29577,-7e-05,0.0,-4e-05,-1e-05,0.0009199999999999999,0.0002,-0.00041,-0.00028,6
28652,29578,-7e-05,0.0,-4e-05,-1e-05,0.0009199999999999999,0.0002,-0.00041,-0.00028,6
28653,29579,-7e-05,0.0,-4e-05,-1e-05,0.0009199999999999999,0.0002,-0.00041,-0.00028,6
28654,29580,-7e-05,0.0,-4e-05,-1e-05,0.0009199999999999999,0.0002,-0.00041,-0.00028,6
28655,29581,-7e-05,0.0,-4e-05,-1e-05,0.0009199999999999999,0.0002,-0.00041,-0.00028,6
28656,29582,-7e-05,0.0,-4e-05,-1e-05,0.0009199999999999999,0.0002,-0.00041,-0.00028,6
28657,29583,-7e-05,0.0,-4e-05,-1e-05,0.0009199999999999999,0.0002,-0.00041,-0.00028,6
28658,29584,-7e-05,0.0,-4e-05,-1e-05,0.0009199999999999999,0.0002,-0.00041,-0.00028,6
28659,29585,-7e-05,0.0,-4e-05,-1e-05,0.0009199999999999999,0.0002,-0.00041,-0.00028,6
28660,29586,-7e-05,0.0,-4e-05,-1e-05,0.0009199999999999999,0.0002,-0.00041,-0.00028,6
28661,29588,-7e-05,0.0,-4e-05,-1e-05,0.0009199999999999999,0.0002,-0.00041,-0.00028,6
28662,29589,-7e-05,0.0,-4e-05,-1e-05,0.0009199999999999999,0.0002,-0.00041,-0.00028,6
28663,29590,-7e-05,0.0,-4e-05,-1e-05,0.0009199999999999999,0.0002,-0.00041,-0.00028,6
28664,29591,-7e-05,0.0,-4e-05,-1e-05,0.0009199999999999999,0.0002,-0.00041,-0.00028,6
28665,29592,-7e-05,0.0,-4e-05,-1e-05,0.0009199999999999999,0.0002,-0.00041,-0.00028,6
28666,29593,-7e-05,0.0,-4e-05,-1e-05,0.0009199999999999999,0.0002,-0.00041,-0.00028,6
28667,29594,-7e-05,0.0,-4e-05,-1e-05,0.0009199999999999999,0.0002,-0.00041,-0.00028,6
28668,29595,-0.00015,-5.9999999999999995e-05,-4e-05,-0.00022,-0.00128,0.00022999999999999998,-0.00054,-0.00082,6
28669,29596,0.00011,1e-05,2e-05,8e-05,0.00028,0.00011999999999999999,2e-05,-0.00018,6
28670,29597,0.00011,1e-05,2e-05,8e-05,0.00028,0.00011999999999999999,2e-05,-0.00018,6
28671,29598,0.00011,1e-05,2e-05,8e-05,0.00028,0.00011999999999999999,2e-05,-0.00018,6
28672,29599,0.00011,1e-05,2e-05,8e-05,0.00028,0.00011999999999999999,2e-05,-0.00018,6
28673,29600,0.00011,1e-05,2e-05,8e-05,0.00028,0.00011999999999999999,2e-05,-0.00018,6
28674,29601,0.00011,1e-05,2e-05,8e-05,0.00028,0.00011999999999999999,2e-05,-0.00018,6
28675,29602,0.00011,1e-05,2e-05,8e-05,0.00028,0.00011999999999999999,2e-05,-0.00018,6
28676,29603,0.00011,1e-05,2e-05,8e-05,0.00028,0.00011999999999999999,2e-05,-0.00018,6
28677,29604,0.00011,1e-05,2e-05,8e-05,0.00028,0.00011999999999999999,2e-05,-0.00018,6
28678,29605,0.00011,1e-05,2e-05,8e-05,0.00028,0.00011999999999999999,2e-05,-0.00018,6
28679,29606,0.00011,1e-05,2e-05,8e-05,0.00028,0.00011999999999999999,2e-05,-0.00018,6
28680,29607,0.00011,1e-05,2e-05,8e-05,0.00028,0.00011999999999999999,2e-05,-0.00018,6
28681,29608,0.00011,1e-05,2e-05,8e-05,0.00028,0.00011999999999999999,2e-05,-0.00018,6
28682,29609,0.00011,1e-05,2e-05,8e-05,0.00028,0.00011999999999999999,2e-05,-0.00018,6
28683,29611,0.00011,1e-05,2e-05,8e-05,0.00028,0.00011999999999999999,2e-05,-0.00018,6
28684,29612,0.00011,1e-05,2e-05,8e-05,0.00028,0.00011999999999999999,2e-05,-0.00018,6
28685,29613,0.00011,1e-05,2e-05,8e-05,0.00028,0.00011999999999999999,2e-05,-0.00018,6
28686,29614,0.00011,1e-05,2e-05,8e-05,0.00028,0.00011999999999999999,2e-05,-0.00018,6
28687,29615,0.00011,1e-05,2e-05,8e-05,0.00028,0.00011999999999999999,2e-05,-0.00018,6
28688,29616,0.00011,1e-05,2e-05,8e-05,0.00028,0.00011999999999999999,2e-05,-0.00018,6
28689,29617,0.00011,1e-05,2e-05,8e-05,0.00028,0.00011999999999999999,2e-05,-0.00018,6
28690,29618,1e-05,5e-05,-2e-05,-2e-05,-0.00049,0.00018,5.9999999999999995e-05,5e-05,6
28691,29619,1e-05,5e-05,-2e-05,-2e-05,-0.00049,0.00018,5.9999999999999995e-05,5e-05,6
28692,29620,1e-05,5e-05,-2e-05,-2e-05,-0.00049,0.00018,5.9999999999999995e-05,5e-05,6
28693,29621,1e-05,5e-05,-2e-05,-2e-05,-0.00049,0.00018,5.9999999999999995e-05,5e-05,6
28694,29622,1e-05,5e-05,-2e-05,-2e-05,-0.00049,0.00018,5.9999999999999995e-05,5e-05,6
28695,29623,1e-05,5e-05,-2e-05,-2e-05,-0.00049,0.00018,5.9999999999999995e-05,5e-05,6
28696,29624,1e-05,5e-05,-2e-05,-2e-05,-0.00049,0.00018,5.9999999999999995e-05,5e-05,6
28697,29625,1e-05,5e-05,-2e-05,-2e-05,-0.00049,0.00018,5.9999999999999995e-05,5e-05,6
28698,29626,1e-05,5e-05,-2e-05,-2e-05,-0.00049,0.00018,5.9999999999999995e-05,5e-05,6
28699,29627,1e-05,5e-05,-2e-05,-2e-05,-0.00049,0.00018,5.9999999999999995e-05,5e-05,6
28700,29628,1e-05,5e-05,-2e-05,-2e-05,-0.00049,0.00018,5.9999999999999995e-05,5e-05,6
28701,29629,1e-05,5e-05,-2e-05,-2e-05,-0.00049,0.00018,5.9999999999999995e-05,5e-05,6
28702,29630,1e-05,5e-05,-2e-05,-2e-05,-0.00049,0.00018,5.9999999999999995e-05,5e-05,6
28703,29631,0.00018999999999999998,5e-05,2e-05,2e-05,-0.00057,-0.00037999999999999997,-2e-05,-0.00016,6
28704,29632,0.00018999999999999998,5e-05,2e-05,2e-05,-0.00057,-0.00037999999999999997,-2e-05,-0.00016,6
28705,29633,0.00018999999999999998,5e-05,2e-05,2e-05,-0.00057,-0.00037999999999999997,-2e-05,-0.00016,6
28706,29634,0.00018999999999999998,5e-05,2e-05,2e-05,-0.00057,-0.00037999999999999997,-2e-05,-0.00016,6
28707,29635,0.00018999999999999998,5e-05,2e-05,2e-05,-0.00057,-0.00037999999999999997,-2e-05,-0.00016,6
28708,29636,0.00018999999999999998,5e-05,2e-05,2e-05,-0.00057,-0.00037999999999999997,-2e-05,-0.00016,6
28709,29638,0.00018999999999999998,5e-05,2e-05,2e-05,-0.00057,-0.00037999999999999997,-2e-05,-0.00016,6
28710,29639,5e-05,5.9999999999999995e-05,0.00011,0.00021,0.0005200000000000001,0.00023999999999999998,8e-05,0.00033,6
28711,29640,5e-05,5.9999999999999995e-05,0.00011,0.00021,0.0005200000000000001,0.00023999999999999998,8e-05,0.00033,6
28712,29641,5e-05,5.9999999999999995e-05,0.00011,0.00021,0.0005200000000000001,0.00023999999999999998,8e-05,0.00033,6
28713,29642,5e-05,5.9999999999999995e-05,0.00011,0.00021,0.0005200000000000001,0.00023999999999999998,8e-05,0.00033,6
28714,29643,5e-05,5.9999999999999995e-05,0.00011,0.00021,0.0005200000000000001,0.00023999999999999998,8e-05,0.00033,6
28715,29644,5e-05,5.9999999999999995e-05,0.00011,0.00021,0.0005200000000000001,0.00023999999999999998,8e-05,0.00033,6
28716,29645,5e-05,5.9999999999999995e-05,0.00011,0.00021,0.0005200000000000001,0.00023999999999999998,8e-05,0.00033,6
28717,29646,5e-05,5.9999999999999995e-05,0.00011,0.00021,0.0005200000000000001,0.00023999999999999998,8e-05,0.00033,6
28718,29647,5e-05,5.9999999999999995e-05,0.00011,0.00021,0.0005200000000000001,0.00023999999999999998,8e-05,0.00033,6
28719,29648,5e-05,5.9999999999999995e-05,0.00011,0.00021,0.0005200000000000001,0.00023999999999999998,8e-05,0.00033,6
28720,29649,5e-05,5.9999999999999995e-05,0.00011,0.00021,0.0005200000000000001,0.00023999999999999998,8e-05,0.00033,6
28721,29650,5e-05,5.9999999999999995e-05,0.00011,0.00021,0.0005200000000000001,0.00023999999999999998,8e-05,0.00033,6
28722,29651,5e-05,5.9999999999999995e-05,0.00011,0.00021,0.0005200000000000001,0.00023999999999999998,8e-05,0.00033,6
28723,29652,5e-05,5.9999999999999995e-05,0.00011,0.00021,0.0005200000000000001,0.00023999999999999998,8e-05,0.00033,6
28724,29653,5e-05,5.9999999999999995e-05,0.00011,0.00021,0.0005200000000000001,0.00023999999999999998,8e-05,0.00033,6
28725,29654,5e-05,5.9999999999999995e-05,0.00011,0.00021,0.0005200000000000001,0.00023999999999999998,8e-05,0.00033,6
28726,29655,8e-05,0.00014,0.00015,0.00028,0.00085,0.00099,0.00044,-0.00037999999999999997,6
28727,29656,-0.00016,-5e-05,-5e-05,0.0,0.00072,0.00082,-1e-05,-0.0011300000000000001,6
28728,29657,-0.00016,-5e-05,-5e-05,0.0,0.00072,0.00082,-1e-05,-0.0011300000000000001,6
28729,29658,-0.00016,-5e-05,-5e-05,0.0,0.00072,0.00082,-1e-05,-0.0011300000000000001,6
28730,29659,-0.00016,-5e-05,-5e-05,0.0,0.00072,0.00082,-1e-05,-0.0011300000000000001,6
28731,29660,-0.00016,-5e-05,-5e-05,0.0,0.00072,0.00082,-1e-05,-0.0011300000000000001,6
28732,29661,-0.00016,-5e-05,-5e-05,0.0,0.00072,0.00082,-1e-05,-0.0011300000000000001,6
28733,29662,-0.00016,-5e-05,-5e-05,0.0,0.00072,0.00082,-1e-05,-0.0011300000000000001,6
28734,29663,-0.00016,-5e-05,-5e-05,0.0,0.00072,0.00082,-1e-05,-0.0011300000000000001,6
28735,29664,-0.00016,-5e-05,-5e-05,0.0,0.00072,0.00082,-1e-05,-0.0011300000000000001,6
28736,29665,-0.00016,-5e-05,-5e-05,0.0,0.00072,0.00082,-1e-05,-0.0011300000000000001,6
28737,29666,-0.00016,-5e-05,-5e-05,0.0,0.00072,0.00082,-1e-05,-0.0011300000000000001,6
28738,29667,-0.00016,-5e-05,-5e-05,0.0,0.00072,0.00082,-1e-05,-0.0011300000000000001,6
28739,29668,-0.00016,-5e-05,-5e-05,0.0,0.00072,0.00082,-1e-05,-0.0011300000000000001,6
28740,29669,-0.00016,-5e-05,-5e-05,0.0,0.00072,0.00082,-1e-05,-0.0011300000000000001,6
28741,29670,-0.00016,-5e-05,-5e-05,0.0,0.00072,0.00082,-1e-05,-0.0011300000000000001,6
28742,29671,-0.00016,-5e-05,-5e-05,0.0,0.00072,0.00082,-1e-05,-0.0011300000000000001,6
28743,29672,-0.00016,-5e-05,-5e-05,0.0,0.00072,0.00082,-1e-05,-0.0011300000000000001,6
28744,29673,-0.00016,-5e-05,-5e-05,0.0,0.00072,0.00082,-1e-05,-0.0011300000000000001,6
28745,29674,-0.00016,-5e-05,-5e-05,0.0,0.00072,0.00082,-1e-05,-0.0011300000000000001,6
28746,29675,-0.00016,-5e-05,-5e-05,0.0,0.00072,0.00082,-1e-05,-0.0011300000000000001,6
28747,29676,-0.00016,-5e-05,-5e-05,0.0,0.00072,0.00082,-1e-05,-0.0011300000000000001,6
28748,29677,0.0002,0.00011,0.00011999999999999999,1e-05,-0.00112,-0.00054,9e-05,0.00037,6
28749,29678,-0.0001,-4e-05,1e-05,8e-05,0.00033,-0.00063,-0.00026000000000000003,-0.00023999999999999998,6
28750,29679,-0.0001,-4e-05,1e-05,8e-05,0.00033,-0.00063,-0.00026000000000000003,-0.00023999999999999998,6
28751,29680,-0.0001,-4e-05,1e-05,8e-05,0.00033,-0.00063,-0.00026000000000000003,-0.00023999999999999998,6
28752,29681,-0.0001,-4e-05,1e-05,8e-05,0.00033,-0.00063,-0.00026000000000000003,-0.00023999999999999998,6
28753,29682,-0.0001,-4e-05,1e-05,8e-05,0.00033,-0.00063,-0.00026000000000000003,-0.00023999999999999998,6
28754,29683,-0.0001,-4e-05,1e-05,8e-05,0.00033,-0.00063,-0.00026000000000000003,-0.00023999999999999998,6
28755,29684,-0.0001,-4e-05,1e-05,8e-05,0.00033,-0.00063,-0.00026000000000000003,-0.00023999999999999998,6
28756,29685,-0.0001,-4e-05,1e-05,8e-05,0.00033,-0.00063,-0.00026000000000000003,-0.00023999999999999998,6
28757,29686,-0.0001,-4e-05,1e-05,8e-05,0.00033,-0.00063,-0.00026000000000000003,-0.00023999999999999998,6
28758,29688,-0.0001,-4e-05,1e-05,8e-05,0.00033,-0.00063,-0.00026000000000000003,-0.00023999999999999998,6
28759,29689,-0.0001,-4e-05,1e-05,8e-05,0.00033,-0.00063,-0.00026000000000000003,-0.00023999999999999998,6
28760,29690,-0.0001,-4e-05,1e-05,8e-05,0.00033,-0.00063,-0.00026000000000000003,-0.00023999999999999998,6
28761,29691,0.0002,0.00016,0.00022,0.00037,-5e-05,0.00074,0.00044,0.00056,6
28762,29692,0.0002,0.00016,0.00022,0.00037,-5e-05,0.00074,0.00044,0.00056,6
28763,29693,0.0002,0.00016,0.00022,0.00037,-5e-05,0.00074,0.00044,0.00056,6
28764,29694,0.0002,0.00016,0.00022,0.00037,-5e-05,0.00074,0.00044,0.00056,6
28765,29695,0.0002,0.00016,0.00022,0.00037,-5e-05,0.00074,0.00044,0.00056,6
28766,29696,0.0002,0.00016,0.00022,0.00037,-5e-05,0.00074,0.00044,0.00056,6
28767,29697,0.0002,0.00016,0.00022,0.00037,-5e-05,0.00074,0.00044,0.00056,6
28768,29698,0.0002,0.00016,0.00022,0.00037,-5e-05,0.00074,0.00044,0.00056,6
28769,29699,0.0002,0.00016,0.00022,0.00037,-5e-05,0.00074,0.00044,0.00056,6
28770,29700,-5.9999999999999995e-05,4e-05,2.9999999999999997e-05,-2.9999999999999997e-05,-0.00128,-0.00064,0.00011,0.0010199999999999999,6
28771,29701,-5.9999999999999995e-05,4e-05,2.9999999999999997e-05,-2.9999999999999997e-05,-0.00128,-0.00064,0.00011,0.0010199999999999999,6
28772,29702,-5.9999999999999995e-05,4e-05,2.9999999999999997e-05,-2.9999999999999997e-05,-0.00128,-0.00064,0.00011,0.0010199999999999999,6
28773,29703,-5.9999999999999995e-05,4e-05,2.9999999999999997e-05,-2.9999999999999997e-05,-0.00128,-0.00064,0.00011,0.0010199999999999999,6
28774,29704,-5.9999999999999995e-05,4e-05,2.9999999999999997e-05,-2.9999999999999997e-05,-0.00128,-0.00064,0.00011,0.0010199999999999999,6
28775,29705,-5.9999999999999995e-05,4e-05,2.9999999999999997e-05,-2.9999999999999997e-05,-0.00128,-0.00064,0.00011,0.0010199999999999999,6
28776,29706,-5.9999999999999995e-05,4e-05,2.9999999999999997e-05,-2.9999999999999997e-05,-0.00128,-0.00064,0.00011,0.0010199999999999999,6
28777,29707,-5.9999999999999995e-05,4e-05,2.9999999999999997e-05,-2.9999999999999997e-05,-0.00128,-0.00064,0.00011,0.0010199999999999999,6
28778,29708,-5.9999999999999995e-05,4e-05,2.9999999999999997e-05,-2.9999999999999997e-05,-0.00128,-0.00064,0.00011,0.0010199999999999999,6
28779,29709,-5.9999999999999995e-05,4e-05,2.9999999999999997e-05,-2.9999999999999997e-05,-0.00128,-0.00064,0.00011,0.0010199999999999999,6
28780,29710,-5.9999999999999995e-05,4e-05,2.9999999999999997e-05,-2.9999999999999997e-05,-0.00128,-0.00064,0.00011,0.0010199999999999999,6
28781,29711,-5.9999999999999995e-05,4e-05,2.9999999999999997e-05,-2.9999999999999997e-05,-0.00128,-0.00064,0.00011,0.0010199999999999999,6
28782,29712,-5.9999999999999995e-05,4e-05,2.9999999999999997e-05,-2.9999999999999997e-05,-0.00128,-0.00064,0.00011,0.0010199999999999999,6
28783,29713,-5.9999999999999995e-05,4e-05,2.9999999999999997e-05,-2.9999999999999997e-05,-0.00128,-0.00064,0.00011,0.0010199999999999999,6
28784,29714,-5.9999999999999995e-05,4e-05,2.9999999999999997e-05,-2.9999999999999997e-05,-0.00128,-0.00064,0.00011,0.0010199999999999999,6
28785,29715,-0.00016999999999999999,-4e-05,-0.0001,-0.00027,-0.00088,-0.00108,-0.00018,0.0010400000000000001,6
28786,29716,-0.00016999999999999999,-4e-05,-0.0001,-0.00027,-0.00088,-0.00108,-0.00018,0.0010400000000000001,6
28787,29717,0.0001,9e-05,0.00011,0.00013000000000000002,0.00021,0.00067,0.00016,0.00042,6
28788,29718,0.0001,9e-05,0.00011,0.00013000000000000002,0.00021,0.00067,0.00016,0.00042,6
28789,29719,0.0001,9e-05,0.00011,0.00013000000000000002,0.00021,0.00067,0.00016,0.00042,6
28790,29720,0.0001,9e-05,0.00011,0.00013000000000000002,0.00021,0.00067,0.00016,0.00042,6
28791,29721,0.0001,9e-05,0.00011,0.00013000000000000002,0.00021,0.00067,0.00016,0.00042,6
28792,29722,0.0001,9e-05,0.00011,0.00013000000000000002,0.00021,0.00067,0.00016,0.00042,6
28793,29723,0.0001,9e-05,0.00011,0.00013000000000000002,0.00021,0.00067,0.00016,0.00042,6
28794,29724,0.0001,9e-05,0.00011,0.00013000000000000002,0.00021,0.00067,0.00016,0.00042,6
28795,29725,0.0001,9e-05,0.00011,0.00013000000000000002,0.00021,0.00067,0.00016,0.00042,6
28796,29726,0.0001,9e-05,0.00011,0.00013000000000000002,0.00021,0.00067,0.00016,0.00042,6
28797,29727,0.0001,9e-05,0.00011,0.00013000000000000002,0.00021,0.00067,0.00016,0.00042,6
28798,29728,0.0001,9e-05,0.00011,0.00013000000000000002,0.00021,0.00067,0.00016,0.00042,6
28799,29729,0.0001,9e-05,0.00011,0.00013000000000000002,0.00021,0.00067,0.00016,0.00042,6
28800,29730,0.0001,9e-05,0.00011,0.00013000000000000002,0.00021,0.00067,0.00016,0.00042,6
28801,29731,0.0001,9e-05,0.00011,0.00013000000000000002,0.00021,0.00067,0.00016,0.00042,6
28802,29732,0.0001,9e-05,0.00011,0.00013000000000000002,0.00021,0.00067,0.00016,0.00042,6
28803,29733,0.0001,9e-05,0.00011,0.00013000000000000002,0.00021,0.00067,0.00016,0.00042,6
28804,29734,0.0001,9e-05,0.00011,0.00013000000000000002,0.00021,0.00067,0.00016,0.00042,6
28805,29735,0.0001,9e-05,0.00011,0.00013000000000000002,0.00021,0.00067,0.00016,0.00042,6
28806,29736,0.0001,9e-05,0.00011,0.00013000000000000002,0.00021,0.00067,0.00016,0.00042,6
28807,29738,0.0001,9e-05,0.00011,0.00013000000000000002,0.00021,0.00067,0.00016,0.00042,6
28808,29739,0.0001,9e-05,0.00011,0.00013000000000000002,0.00021,0.00067,0.00016,0.00042,6
28809,29740,-0.00025,-2e-05,-2e-05,1e-05,0.00011,0.00016,-0.00016,-0.00027,6
28810,29741,-0.0005099999999999999,-0.00013000000000000002,-5.9999999999999995e-05,5e-05,0.00059,-0.00103,-0.00026000000000000003,-0.00029,6
28811,29742,-0.0005099999999999999,-0.00013000000000000002,-5.9999999999999995e-05,5e-05,0.00059,-0.00103,-0.00026000000000000003,-0.00029,6
28812,29743,-0.0005099999999999999,-0.00013000000000000002,-5.9999999999999995e-05,5e-05,0.00059,-0.00103,-0.00026000000000000003,-0.00029,6
28813,29744,-0.0005099999999999999,-0.00013000000000000002,-5.9999999999999995e-05,5e-05,0.00059,-0.00103,-0.00026000000000000003,-0.00029,6
28814,29745,-0.0005099999999999999,-0.00013000000000000002,-5.9999999999999995e-05,5e-05,0.00059,-0.00103,-0.00026000000000000003,-0.00029,6
28815,29746,-0.0005099999999999999,-0.00013000000000000002,-5.9999999999999995e-05,5e-05,0.00059,-0.00103,-0.00026000000000000003,-0.00029,6
28816,29747,-0.0005099999999999999,-0.00013000000000000002,-5.9999999999999995e-05,5e-05,0.00059,-0.00103,-0.00026000000000000003,-0.00029,6
28817,29748,-0.0005099999999999999,-0.00013000000000000002,-5.9999999999999995e-05,5e-05,0.00059,-0.00103,-0.00026000000000000003,-0.00029,6
28818,29749,-0.0005099999999999999,-0.00013000000000000002,-5.9999999999999995e-05,5e-05,0.00059,-0.00103,-0.00026000000000000003,-0.00029,6
28819,29750,-0.0005099999999999999,-0.00013000000000000002,-5.9999999999999995e-05,5e-05,0.00059,-0.00103,-0.00026000000000000003,-0.00029,6
28820,29751,-0.0005099999999999999,-0.00013000000000000002,-5.9999999999999995e-05,5e-05,0.00059,-0.00103,-0.00026000000000000003,-0.00029,6
28821,29752,-0.00016,-5.9999999999999995e-05,-2e-05,-5e-05,-0.00013000000000000002,-0.00022,-0.00022,-0.00037,6
28822,29753,-0.00016,-5.9999999999999995e-05,-2e-05,-5e-05,-0.00013000000000000002,-0.00022,-0.00022,-0.00037,6
28823,29754,-0.00016,-5.9999999999999995e-05,-2e-05,-5e-05,-0.00013000000000000002,-0.00022,-0.00022,-0.00037,6
28824,29755,-0.00016,-5.9999999999999995e-05,-2e-05,-5e-05,-0.00013000000000000002,-0.00022,-0.00022,-0.00037,6
28825,29756,-0.00016,-5.9999999999999995e-05,-2e-05,-5e-05,-0.00013000000000000002,-0.00022,-0.00022,-0.00037,6
28826,29757,-0.00016,-5.9999999999999995e-05,-2e-05,-5e-05,-0.00013000000000000002,-0.00022,-0.00022,-0.00037,6
28827,29758,-0.00016,-5.9999999999999995e-05,-2e-05,-5e-05,-0.00013000000000000002,-0.00022,-0.00022,-0.00037,6
28828,29759,-0.00016,-5.9999999999999995e-05,-2e-05,-5e-05,-0.00013000000000000002,-0.00022,-0.00022,-0.00037,6
28829,29760,0.00011,2.9999999999999997e-05,4e-05,9e-05,0.00075,0.00117,0.00063,-0.00042,6
28830,29761,0.00011,2.9999999999999997e-05,4e-05,9e-05,0.00075,0.00117,0.00063,-0.00042,6
28831,29762,0.00011,2.9999999999999997e-05,4e-05,9e-05,0.00075,0.00117,0.00063,-0.00042,6
28832,29763,0.00011,2.9999999999999997e-05,4e-05,9e-05,0.00075,0.00117,0.00063,-0.00042,6
28833,29764,0.00011,2.9999999999999997e-05,4e-05,9e-05,0.00075,0.00117,0.00063,-0.00042,6
28834,29765,0.00011,2.9999999999999997e-05,4e-05,9e-05,0.00075,0.00117,0.00063,-0.00042,6
28835,29766,0.00011,2.9999999999999997e-05,4e-05,9e-05,0.00075,0.00117,0.00063,-0.00042,6
28836,29767,0.00011,2.9999999999999997e-05,4e-05,9e-05,0.00075,0.00117,0.00063,-0.00042,6
28837,29768,0.00011,2.9999999999999997e-05,4e-05,9e-05,0.00075,0.00117,0.00063,-0.00042,6
28838,29769,0.00011,2.9999999999999997e-05,4e-05,9e-05,0.00075,0.00117,0.00063,-0.00042,6
28839,29770,0.00011,2.9999999999999997e-05,4e-05,9e-05,0.00075,0.00117,0.00063,-0.00042,6
28840,29771,0.00011,2.9999999999999997e-05,4e-05,9e-05,0.00075,0.00117,0.00063,-0.00042,6
28841,29772,0.00011,2.9999999999999997e-05,4e-05,9e-05,0.00075,0.00117,0.00063,-0.00042,6
28842,29773,0.00011,2.9999999999999997e-05,4e-05,9e-05,0.00075,0.00117,0.00063,-0.00042,6
28843,29774,0.00011,2.9999999999999997e-05,4e-05,9e-05,0.00075,0.00117,0.00063,-0.00042,6
28844,29775,-0.00014,-0.00011,-0.00016999999999999999,-0.00022,2e-05,-0.0008300000000000001,-0.00042,-0.00063,6
28845,29776,-0.00014,-0.00011,-0.00016999999999999999,-0.00022,2e-05,-0.0008300000000000001,-0.00042,-0.00063,6
28846,29777,8e-05,-2e-05,-1e-05,-0.00011,-0.00107,-0.0007099999999999999,-0.00018999999999999998,2.9999999999999997e-05,6
28847,29778,8e-05,-2e-05,-1e-05,-0.00011,-0.00107,-0.0007099999999999999,-0.00018999999999999998,2.9999999999999997e-05,6
28848,29779,8e-05,-2e-05,-1e-05,-0.00011,-0.00107,-0.0007099999999999999,-0.00018999999999999998,2.9999999999999997e-05,6
28849,29780,8e-05,-2e-05,-1e-05,-0.00011,-0.00107,-0.0007099999999999999,-0.00018999999999999998,2.9999999999999997e-05,6
28850,29781,8e-05,-2e-05,-1e-05,-0.00011,-0.00107,-0.0007099999999999999,-0.00018999999999999998,2.9999999999999997e-05,6
28851,29782,8e-05,-2e-05,-1e-05,-0.00011,-0.00107,-0.0007099999999999999,-0.00018999999999999998,2.9999999999999997e-05,6
28852,29783,8e-05,-2e-05,-1e-05,-0.00011,-0.00107,-0.0007099999999999999,-0.00018999999999999998,2.9999999999999997e-05,6
28853,29784,8e-05,-2e-05,-1e-05,-0.00011,-0.00107,-0.0007099999999999999,-0.00018999999999999998,2.9999999999999997e-05,6
28854,29785,8e-05,-2e-05,-1e-05,-0.00011,-0.00107,-0.0007099999999999999,-0.00018999999999999998,2.9999999999999997e-05,6
28855,29786,8e-05,-2e-05,-1e-05,-0.00011,-0.00107,-0.0007099999999999999,-0.00018999999999999998,2.9999999999999997e-05,6
28856,29788,8e-05,-2e-05,-1e-05,-0.00011,-0.00107,-0.0007099999999999999,-0.00018999999999999998,2.9999999999999997e-05,6
28857,29789,8e-05,-2e-05,-1e-05,-0.00011,-0.00107,-0.0007099999999999999,-0.00018999999999999998,2.9999999999999997e-05,6
28858,29790,8e-05,-2e-05,-1e-05,-0.00011,-0.00107,-0.0007099999999999999,-0.00018999999999999998,2.9999999999999997e-05,6
28859,29791,8e-05,-2e-05,-1e-05,-0.00011,-0.00107,-0.0007099999999999999,-0.00018999999999999998,2.9999999999999997e-05,6
28860,29792,8e-05,-2e-05,-1e-05,-0.00011,-0.00107,-0.0007099999999999999,-0.00018999999999999998,2.9999999999999997e-05,6
28861,29793,8e-05,-2e-05,-1e-05,-0.00011,-0.00107,-0.0007099999999999999,-0.00018999999999999998,2.9999999999999997e-05,6
28862,29794,8e-05,-2e-05,-1e-05,-0.00011,-0.00107,-0.0007099999999999999,-0.00018999999999999998,2.9999999999999997e-05,6
28863,29795,8e-05,-2e-05,-1e-05,-0.00011,-0.00107,-0.0007099999999999999,-0.00018999999999999998,2.9999999999999997e-05,6
28864,29796,8e-05,-2e-05,-1e-05,-0.00011,-0.00107,-0.0007099999999999999,-0.00018999999999999998,2.9999999999999997e-05,6
28865,29797,8e-05,-2e-05,-1e-05,-0.00011,-0.00107,-0.0007099999999999999,-0.00018999999999999998,2.9999999999999997e-05,6
28866,29798,0.00016999999999999999,0.0,-1e-05,4e-05,-8e-05,-0.00049,1e-05,-5e-05,6
28867,29799,-2e-05,-2.9999999999999997e-05,-7e-05,-0.00016,-0.00011999999999999999,-0.00117,-0.00055,-2e-05,6
28868,29800,-2e-05,-2.9999999999999997e-05,-7e-05,-0.00016,-0.00011999999999999999,-0.00117,-0.00055,-2e-05,6
28869,29801,-2e-05,-2.9999999999999997e-05,-7e-05,-0.00016,-0.00011999999999999999,-0.00117,-0.00055,-2e-05,6
28870,29802,-2e-05,-2.9999999999999997e-05,-7e-05,-0.00016,-0.00011999999999999999,-0.00117,-0.00055,-2e-05,6
28871,29803,-2e-05,-2.9999999999999997e-05,-7e-05,-0.00016,-0.00011999999999999999,-0.00117,-0.00055,-2e-05,6
28872,29804,-2e-05,-2.9999999999999997e-05,-7e-05,-0.00016,-0.00011999999999999999,-0.00117,-0.00055,-2e-05,6
28873,29805,-2e-05,-2.9999999999999997e-05,-7e-05,-0.00016,-0.00011999999999999999,-0.00117,-0.00055,-2e-05,6
28874,29806,-2e-05,-2.9999999999999997e-05,-7e-05,-0.00016,-0.00011999999999999999,-0.00117,-0.00055,-2e-05,6
28875,29807,-2e-05,-2.9999999999999997e-05,-7e-05,-0.00016,-0.00011999999999999999,-0.00117,-0.00055,-2e-05,6
28876,29808,-2e-05,-2.9999999999999997e-05,-7e-05,-0.00016,-0.00011999999999999999,-0.00117,-0.00055,-2e-05,6
28877,29809,-2e-05,-2.9999999999999997e-05,-7e-05,-0.00016,-0.00011999999999999999,-0.00117,-0.00055,-2e-05,6
28878,29810,-2e-05,-2.9999999999999997e-05,-7e-05,-0.00016,-0.00011999999999999999,-0.00117,-0.00055,-2e-05,6
28879,29811,0.0001,-4e-05,-8e-05,-5.9999999999999995e-05,0.0011,-0.0009699999999999999,-0.0002,0.00043,6
28880,29812,0.0001,-4e-05,-8e-05,-5.9999999999999995e-05,0.0011,-0.0009699999999999999,-0.0002,0.00043,6
28881,29813,0.0001,-4e-05,-8e-05,-5.9999999999999995e-05,0.0011,-0.0009699999999999999,-0.0002,0.00043,6
28882,29814,0.0001,-4e-05,-8e-05,-5.9999999999999995e-05,0.0011,-0.0009699999999999999,-0.0002,0.00043,6
28883,29815,0.0001,-4e-05,-8e-05,-5.9999999999999995e-05,0.0011,-0.0009699999999999999,-0.0002,0.00043,6
28884,29816,0.0001,-4e-05,-8e-05,-5.9999999999999995e-05,0.0011,-0.0009699999999999999,-0.0002,0.00043,6
28885,29817,0.0001,-4e-05,-8e-05,-5.9999999999999995e-05,0.0011,-0.0009699999999999999,-0.0002,0.00043,6
28886,29818,0.0001,-4e-05,-8e-05,-5.9999999999999995e-05,0.0011,-0.0009699999999999999,-0.0002,0.00043,6
28887,29819,0.0001,-4e-05,-8e-05,-5.9999999999999995e-05,0.0011,-0.0009699999999999999,-0.0002,0.00043,6
28888,29820,0.0001,-7e-05,-5.9999999999999995e-05,-0.0001,4e-05,0.0006900000000000001,-0.00018,0.00042,6
28889,29821,0.0001,-7e-05,-5.9999999999999995e-05,-0.0001,4e-05,0.0006900000000000001,-0.00018,0.00042,6
28890,29822,0.0001,-7e-05,-5.9999999999999995e-05,-0.0001,4e-05,0.0006900000000000001,-0.00018,0.00042,6
28891,29823,0.0001,-7e-05,-5.9999999999999995e-05,-0.0001,4e-05,0.0006900000000000001,-0.00018,0.00042,6
28892,29824,0.0001,-7e-05,-5.9999999999999995e-05,-0.0001,4e-05,0.0006900000000000001,-0.00018,0.00042,6
28893,29825,0.0001,-7e-05,-5.9999999999999995e-05,-0.0001,4e-05,0.0006900000000000001,-0.00018,0.00042,6
28894,29826,0.0001,-7e-05,-5.9999999999999995e-05,-0.0001,4e-05,0.0006900000000000001,-0.00018,0.00042,6
28895,29827,0.0001,-7e-05,-5.9999999999999995e-05,-0.0001,4e-05,0.0006900000000000001,-0.00018,0.00042,6
28896,29828,0.0001,-7e-05,-5.9999999999999995e-05,-0.0001,4e-05,0.0006900000000000001,-0.00018,0.00042,6
28897,29829,0.0001,-7e-05,-5.9999999999999995e-05,-0.0001,4e-05,0.0006900000000000001,-0.00018,0.00042,6
28898,29830,0.0001,-7e-05,-5.9999999999999995e-05,-0.0001,4e-05,0.0006900000000000001,-0.00018,0.00042,6
28899,29831,0.0001,-7e-05,-5.9999999999999995e-05,-0.0001,4e-05,0.0006900000000000001,-0.00018,0.00042,6
28900,29832,0.0001,-7e-05,-5.9999999999999995e-05,-0.0001,4e-05,0.0006900000000000001,-0.00018,0.00042,6
28901,29833,0.0001,-7e-05,-5.9999999999999995e-05,-0.0001,4e-05,0.0006900000000000001,-0.00018,0.00042,6
28902,29834,0.0001,-7e-05,-5.9999999999999995e-05,-0.0001,4e-05,0.0006900000000000001,-0.00018,0.00042,6
28903,29835,-0.00015,-5e-05,-5e-05,-0.00018999999999999998,-7e-05,-0.00026000000000000003,-2.9999999999999997e-05,-0.00095,6
28904,29836,-0.00015,-5e-05,-5e-05,-0.00018999999999999998,-7e-05,-0.00026000000000000003,-2.9999999999999997e-05,-0.00095,6
28905,29838,0.0001,2.9999999999999997e-05,2e-05,1e-05,-0.00016,-0.0005200000000000001,0.00031,0.00014,6
28906,29839,0.0001,2.9999999999999997e-05,2e-05,1e-05,-0.00016,-0.0005200000000000001,0.00031,0.00014,6
28907,29840,0.0001,2.9999999999999997e-05,2e-05,1e-05,-0.00016,-0.0005200000000000001,0.00031,0.00014,6
28908,29841,0.0001,2.9999999999999997e-05,2e-05,1e-05,-0.00016,-0.0005200000000000001,0.00031,0.00014,6
28909,29842,0.0001,2.9999999999999997e-05,2e-05,1e-05,-0.00016,-0.0005200000000000001,0.00031,0.00014,6
28910,29843,0.0001,2.9999999999999997e-05,2e-05,1e-05,-0.00016,-0.0005200000000000001,0.00031,0.00014,6
28911,29844,0.0001,2.9999999999999997e-05,2e-05,1e-05,-0.00016,-0.0005200000000000001,0.00031,0.00014,6
28912,29845,0.0001,2.9999999999999997e-05,2e-05,1e-05,-0.00016,-0.0005200000000000001,0.00031,0.00014,6
28913,29846,0.0001,2.9999999999999997e-05,2e-05,1e-05,-0.00016,-0.0005200000000000001,0.00031,0.00014,6
28914,29847,0.0001,2.9999999999999997e-05,2e-05,1e-05,-0.00016,-0.0005200000000000001,0.00031,0.00014,6
28915,29848,0.0001,2.9999999999999997e-05,2e-05,1e-05,-0.00016,-0.0005200000000000001,0.00031,0.00014,6
28916,29849,0.0001,2.9999999999999997e-05,2e-05,1e-05,-0.00016,-0.0005200000000000001,0.00031,0.00014,6
28917,29850,0.0001,2.9999999999999997e-05,2e-05,1e-05,-0.00016,-0.0005200000000000001,0.00031,0.00014,6
28918,29851,0.0001,2.9999999999999997e-05,2e-05,1e-05,-0.00016,-0.0005200000000000001,0.00031,0.00014,6
28919,29852,0.0001,2.9999999999999997e-05,2e-05,1e-05,-0.00016,-0.0005200000000000001,0.00031,0.00014,6
28920,29853,0.0001,2.9999999999999997e-05,2e-05,1e-05,-0.00016,-0.0005200000000000001,0.00031,0.00014,6
28921,29854,0.0001,2.9999999999999997e-05,2e-05,1e-05,-0.00016,-0.0005200000000000001,0.00031,0.00014,6
28922,29855,0.0001,2.9999999999999997e-05,2e-05,1e-05,-0.00016,-0.0005200000000000001,0.00031,0.00014,6
28923,29856,0.0001,2.9999999999999997e-05,2e-05,1e-05,-0.00016,-0.0005200000000000001,0.00031,0.00014,6
28924,29857,9e-05,-9e-05,-9e-05,-0.00015,-0.00103,0.00022999999999999998,-0.00013000000000000002,0.00026000000000000003,6
28925,29858,0.00013000000000000002,0.0,2e-05,0.0001,0.0006900000000000001,0.0004,5.9999999999999995e-05,-0.00035,6
28926,29859,-0.00025,-1e-05,0.0,-5e-05,-0.0010400000000000001,0.00063,9e-05,-0.0004,6
28927,29860,-0.00025,-1e-05,0.0,-5e-05,-0.0010400000000000001,0.00063,9e-05,-0.0004,6
28928,29861,-0.00025,-1e-05,0.0,-5e-05,-0.0010400000000000001,0.00063,9e-05,-0.0004,6
28929,29862,-0.00025,-1e-05,0.0,-5e-05,-0.0010400000000000001,0.00063,9e-05,-0.0004,6
28930,29863,-0.00025,-1e-05,0.0,-5e-05,-0.0010400000000000001,0.00063,9e-05,-0.0004,6
28931,29864,-0.00025,-1e-05,0.0,-5e-05,-0.0010400000000000001,0.00063,9e-05,-0.0004,6
28932,29865,-0.00025,-1e-05,0.0,-5e-05,-0.0010400000000000001,0.00063,9e-05,-0.0004,6
28933,29866,-0.00025,-1e-05,0.0,-5e-05,-0.0010400000000000001,0.00063,9e-05,-0.0004,6
28934,29867,-0.00025,-1e-05,0.0,-5e-05,-0.0010400000000000001,0.00063,9e-05,-0.0004,6
28935,29868,-0.00025,-1e-05,0.0,-5e-05,-0.0010400000000000001,0.00063,9e-05,-0.0004,6
28936,29869,-0.00025,-1e-05,0.0,-5e-05,-0.0010400000000000001,0.00063,9e-05,-0.0004,6
28937,29870,-0.00025,-1e-05,0.0,-5e-05,-0.0010400000000000001,0.00063,9e-05,-0.0004,6
28938,29871,-5.9999999999999995e-05,4e-05,9e-05,0.00016999999999999999,-0.00022999999999999998,0.00062,0.00033999999999999997,-0.00011,6
28939,29872,-5.9999999999999995e-05,4e-05,9e-05,0.00016999999999999999,-0.00022999999999999998,0.00062,0.00033999999999999997,-0.00011,6
28940,29873,-5.9999999999999995e-05,4e-05,9e-05,0.00016999999999999999,-0.00022999999999999998,0.00062,0.00033999999999999997,-0.00011,6
28941,29874,-5.9999999999999995e-05,4e-05,9e-05,0.00016999999999999999,-0.00022999999999999998,0.00062,0.00033999999999999997,-0.00011,6
28942,29875,-5.9999999999999995e-05,4e-05,9e-05,0.00016999999999999999,-0.00022999999999999998,0.00062,0.00033999999999999997,-0.00011,6
28943,29876,-5.9999999999999995e-05,4e-05,9e-05,0.00016999999999999999,-0.00022999999999999998,0.00062,0.00033999999999999997,-0.00011,6
28944,29877,-5.9999999999999995e-05,4e-05,9e-05,0.00016999999999999999,-0.00022999999999999998,0.00062,0.00033999999999999997,-0.00011,6
28945,29878,-5.9999999999999995e-05,4e-05,9e-05,0.00016999999999999999,-0.00022999999999999998,0.00062,0.00033999999999999997,-0.00011,6
28946,29879,-5.9999999999999995e-05,4e-05,9e-05,0.00016999999999999999,-0.00022999999999999998,0.00062,0.00033999999999999997,-0.00011,6
28947,29880,1e-05,-4e-05,-7e-05,4e-05,0.00073,0.0007700000000000001,0.0005099999999999999,-0.00015,6
28948,29881,1e-05,-4e-05,-7e-05,4e-05,0.00073,0.0007700000000000001,0.0005099999999999999,-0.00015,6
28949,29882,1e-05,-4e-05,-7e-05,4e-05,0.00073,0.0007700000000000001,0.0005099999999999999,-0.00015,6
28950,29883,1e-05,-4e-05,-7e-05,4e-05,0.00073,0.0007700000000000001,0.0005099999999999999,-0.00015,6
28951,29884,1e-05,-4e-05,-7e-05,4e-05,0.00073,0.0007700000000000001,0.0005099999999999999,-0.00015,6
28952,29885,1e-05,-4e-05,-7e-05,4e-05,0.00073,0.0007700000000000001,0.0005099999999999999,-0.00015,6
28953,29886,1e-05,-4e-05,-7e-05,4e-05,0.00073,0.0007700000000000001,0.0005099999999999999,-0.00015,6
28954,29888,1e-05,-4e-05,-7e-05,4e-05,0.00073,0.0007700000000000001,0.0005099999999999999,-0.00015,6
28955,29889,1e-05,-4e-05,-7e-05,4e-05,0.00073,0.0007700000000000001,0.0005099999999999999,-0.00015,6
28956,29890,1e-05,-4e-05,-7e-05,4e-05,0.00073,0.0007700000000000001,0.0005099999999999999,-0.00015,6
28957,29891,1e-05,-4e-05,-7e-05,4e-05,0.00073,0.0007700000000000001,0.0005099999999999999,-0.00015,6
28958,29892,1e-05,-4e-05,-7e-05,4e-05,0.00073,0.0007700000000000001,0.0005099999999999999,-0.00015,6
28959,29893,1e-05,-4e-05,-7e-05,4e-05,0.00073,0.0007700000000000001,0.0005099999999999999,-0.00015,6
28960,29894,1e-05,-4e-05,-7e-05,4e-05,0.00073,0.0007700000000000001,0.0005099999999999999,-0.00015,6
28961,29895,1e-05,-2.9999999999999997e-05,-7e-05,-9e-05,0.00025,-0.00065,-0.00013000000000000002,-0.0008900000000000001,6
28962,29896,1e-05,-2.9999999999999997e-05,-7e-05,-9e-05,0.00025,-0.00065,-0.00013000000000000002,-0.0008900000000000001,6
28963,29897,-1e-05,-1e-05,-5e-05,0.0,0.00067,-0.00099,0.00013000000000000002,-0.0008300000000000001,6
28964,29898,-1e-05,-1e-05,-5e-05,0.0,0.00067,-0.00099,0.00013000000000000002,-0.0008300000000000001,6
28965,29899,-1e-05,-1e-05,-5e-05,0.0,0.00067,-0.00099,0.00013000000000000002,-0.0008300000000000001,6
28966,29900,-1e-05,-1e-05,-5e-05,0.0,0.00067,-0.00099,0.00013000000000000002,-0.0008300000000000001,6
28967,29901,-1e-05,-1e-05,-5e-05,0.0,0.00067,-0.00099,0.00013000000000000002,-0.0008300000000000001,6
28968,29902,-1e-05,-1e-05,-5e-05,0.0,0.00067,-0.00099,0.00013000000000000002,-0.0008300000000000001,6
28969,29903,-1e-05,-1e-05,-5e-05,0.0,0.00067,-0.00099,0.00013000000000000002,-0.0008300000000000001,6
28970,29904,-1e-05,-1e-05,-5e-05,0.0,0.00067,-0.00099,0.00013000000000000002,-0.0008300000000000001,6
28971,29905,-1e-05,-1e-05,-5e-05,0.0,0.00067,-0.00099,0.00013000000000000002,-0.0008300000000000001,6
28972,29906,-1e-05,-1e-05,-5e-05,0.0,0.00067,-0.00099,0.00013000000000000002,-0.0008300000000000001,6
28973,29907,-1e-05,-1e-05,-5e-05,0.0,0.00067,-0.00099,0.00013000000000000002,-0.0008300000000000001,6
28974,29908,-1e-05,-1e-05,-5e-05,0.0,0.00067,-0.00099,0.00013000000000000002,-0.0008300000000000001,6
28975,29909,-1e-05,-1e-05,-5e-05,0.0,0.00067,-0.00099,0.00013000000000000002,-0.0008300000000000001,6
28976,29910,-1e-05,-1e-05,-5e-05,0.0,0.00067,-0.00099,0.00013000000000000002,-0.0008300000000000001,6
28977,29911,-1e-05,-1e-05,-5e-05,0.0,0.00067,-0.00099,0.00013000000000000002,-0.0008300000000000001,6
28978,29912,-1e-05,-1e-05,-5e-05,0.0,0.00067,-0.00099,0.00013000000000000002,-0.0008300000000000001,6
28979,29913,-1e-05,-1e-05,-5e-05,0.0,0.00067,-0.00099,0.00013000000000000002,-0.0008300000000000001,6
28980,29914,-1e-05,-1e-05,-5e-05,0.0,0.00067,-0.00099,0.00013000000000000002,-0.0008300000000000001,6
28981,29915,-1e-05,-1e-05,-5e-05,0.0,0.00067,-0.00099,0.00013000000000000002,-0.0008300000000000001,6
28982,29916,-1e-05,-1e-05,-5e-05,0.0,0.00067,-0.00099,0.00013000000000000002,-0.0008300000000000001,6
28983,29917,-1e-05,-1e-05,-5e-05,0.0,0.00067,-0.00099,0.00013000000000000002,-0.0008300000000000001,6
28984,29918,-1e-05,2.9999999999999997e-05,4e-05,9e-05,0.00043,0.00084,0.00026000000000000003,0.00029,6
28985,29919,7e-05,-2.9999999999999997e-05,-5e-05,-0.00016999999999999999,0.00013000000000000002,-0.00075,-0.0002,-1e-05,6
28986,29920,7e-05,-2.9999999999999997e-05,-5e-05,-0.00016999999999999999,0.00013000000000000002,-0.00075,-0.0002,-1e-05,6
28987,29921,7e-05,-2.9999999999999997e-05,-5e-05,-0.00016999999999999999,0.00013000000000000002,-0.00075,-0.0002,-1e-05,6
28988,29922,7e-05,-2.9999999999999997e-05,-5e-05,-0.00016999999999999999,0.00013000000000000002,-0.00075,-0.0002,-1e-05,6
28989,29923,7e-05,-2.9999999999999997e-05,-5e-05,-0.00016999999999999999,0.00013000000000000002,-0.00075,-0.0002,-1e-05,6
28990,29924,7e-05,-2.9999999999999997e-05,-5e-05,-0.00016999999999999999,0.00013000000000000002,-0.00075,-0.0002,-1e-05,6
28991,29925,7e-05,-2.9999999999999997e-05,-5e-05,-0.00016999999999999999,0.00013000000000000002,-0.00075,-0.0002,-1e-05,6
28992,29926,7e-05,-2.9999999999999997e-05,-5e-05,-0.00016999999999999999,0.00013000000000000002,-0.00075,-0.0002,-1e-05,6
28993,29927,7e-05,-2.9999999999999997e-05,-5e-05,-0.00016999999999999999,0.00013000000000000002,-0.00075,-0.0002,-1e-05,6
28994,29928,7e-05,-2.9999999999999997e-05,-5e-05,-0.00016999999999999999,0.00013000000000000002,-0.00075,-0.0002,-1e-05,6
28995,29929,7e-05,-2.9999999999999997e-05,-5e-05,-0.00016999999999999999,0.00013000000000000002,-0.00075,-0.0002,-1e-05,6
28996,29930,7e-05,-2.9999999999999997e-05,-5e-05,-0.00016999999999999999,0.00013000000000000002,-0.00075,-0.0002,-1e-05,6
28997,29931,0.00018,-2.9999999999999997e-05,0.0,-1e-05,-0.00028,0.00022999999999999998,-0.00047999999999999996,0.00033,6
28998,29932,0.00018,-2.9999999999999997e-05,0.0,-1e-05,-0.00028,0.00022999999999999998,-0.00047999999999999996,0.00033,6
28999,29933,0.00018,-2.9999999999999997e-05,0.0,-1e-05,-0.00028,0.00022999999999999998,-0.00047999999999999996,0.00033,6
29000,29934,0.00018,-2.9999999999999997e-05,0.0,-1e-05,-0.00028,0.00022999999999999998,-0.00047999999999999996,0.00033,6
29001,29935,0.00018,-2.9999999999999997e-05,0.0,-1e-05,-0.00028,0.00022999999999999998,-0.00047999999999999996,0.00033,6
29002,29936,0.00018,-2.9999999999999997e-05,0.0,-1e-05,-0.00028,0.00022999999999999998,-0.00047999999999999996,0.00033,6
29003,29938,0.00018,-2.9999999999999997e-05,0.0,-1e-05,-0.00028,0.00022999999999999998,-0.00047999999999999996,0.00033,6
29004,29940,0.00018,-2.9999999999999997e-05,0.0,-1e-05,-0.00028,0.00022999999999999998,-0.00047999999999999996,0.00033,6
29005,29941,8e-05,-7e-05,-5e-05,-2e-05,-0.00041,0.00067,-0.00015,-0.0008699999999999999,6
29006,29942,8e-05,-7e-05,-5e-05,-2e-05,-0.00041,0.00067,-0.00015,-0.0008699999999999999,6
29007,29943,8e-05,-7e-05,-5e-05,-2e-05,-0.00041,0.00067,-0.00015,-0.0008699999999999999,6
29008,29944,8e-05,-7e-05,-5e-05,-2e-05,-0.00041,0.00067,-0.00015,-0.0008699999999999999,6
29009,29945,8e-05,-7e-05,-5e-05,-2e-05,-0.00041,0.00067,-0.00015,-0.0008699999999999999,6
29010,29946,8e-05,-7e-05,-5e-05,-2e-05,-0.00041,0.00067,-0.00015,-0.0008699999999999999,6
29011,29947,8e-05,-7e-05,-5e-05,-2e-05,-0.00041,0.00067,-0.00015,-0.0008699999999999999,6
29012,29948,8e-05,-7e-05,-5e-05,-2e-05,-0.00041,0.00067,-0.00015,-0.0008699999999999999,6
29013,29949,8e-05,-7e-05,-5e-05,-2e-05,-0.00041,0.00067,-0.00015,-0.0008699999999999999,6
29014,29950,8e-05,-7e-05,-5e-05,-2e-05,-0.00041,0.00067,-0.00015,-0.0008699999999999999,6
29015,29951,8e-05,-7e-05,-5e-05,-2e-05,-0.00041,0.00067,-0.00015,-0.0008699999999999999,6
29016,29952,8e-05,-7e-05,-5e-05,-2e-05,-0.00041,0.00067,-0.00015,-0.0008699999999999999,6
29017,29953,8e-05,-7e-05,-5e-05,-2e-05,-0.00041,0.00067,-0.00015,-0.0008699999999999999,6
29018,29954,8e-05,-7e-05,-5e-05,-2e-05,-0.00041,0.00067,-0.00015,-0.0008699999999999999,6
29019,29955,8e-05,-7e-05,-5e-05,-2e-05,-0.00041,0.00067,-0.00015,-0.0008699999999999999,6
29020,29956,-8e-05,-1e-05,-2.9999999999999997e-05,-4e-05,-0.00018999999999999998,-0.00039,0.00022,-0.00073,6
29021,29957,-8e-05,-1e-05,-2.9999999999999997e-05,-4e-05,-0.00018999999999999998,-0.00039,0.00022,-0.00073,6
29022,29958,2.9999999999999997e-05,-1e-05,-1e-05,-8e-05,-0.00054,0.0006,-2.9999999999999997e-05,-0.00018999999999999998,6
29023,29959,2.9999999999999997e-05,-1e-05,-1e-05,-8e-05,-0.00054,0.0006,-2.9999999999999997e-05,-0.00018999999999999998,6
29024,29960,2.9999999999999997e-05,-1e-05,-1e-05,-8e-05,-0.00054,0.0006,-2.9999999999999997e-05,-0.00018999999999999998,6
29025,29961,2.9999999999999997e-05,-1e-05,-1e-05,-8e-05,-0.00054,0.0006,-2.9999999999999997e-05,-0.00018999999999999998,6
29026,29962,2.9999999999999997e-05,-1e-05,-1e-05,-8e-05,-0.00054,0.0006,-2.9999999999999997e-05,-0.00018999999999999998,6
29027,29963,2.9999999999999997e-05,-1e-05,-1e-05,-8e-05,-0.00054,0.0006,-2.9999999999999997e-05,-0.00018999999999999998,6
29028,29964,2.9999999999999997e-05,-1e-05,-1e-05,-8e-05,-0.00054,0.0006,-2.9999999999999997e-05,-0.00018999999999999998,6
29029,29965,2.9999999999999997e-05,-1e-05,-1e-05,-8e-05,-0.00054,0.0006,-2.9999999999999997e-05,-0.00018999999999999998,6
29030,29966,2.9999999999999997e-05,-1e-05,-1e-05,-8e-05,-0.00054,0.0006,-2.9999999999999997e-05,-0.00018999999999999998,6
29031,29967,2.9999999999999997e-05,-1e-05,-1e-05,-8e-05,-0.00054,0.0006,-2.9999999999999997e-05,-0.00018999999999999998,6
29032,29968,2.9999999999999997e-05,-1e-05,-1e-05,-8e-05,-0.00054,0.0006,-2.9999999999999997e-05,-0.00018999999999999998,6
29033,29969,2.9999999999999997e-05,-1e-05,-1e-05,-8e-05,-0.00054,0.0006,-2.9999999999999997e-05,-0.00018999999999999998,6
29034,29970,2.9999999999999997e-05,-1e-05,-1e-05,-8e-05,-0.00054,0.0006,-2.9999999999999997e-05,-0.00018999999999999998,6
29035,29971,2.9999999999999997e-05,-1e-05,-1e-05,-8e-05,-0.00054,0.0006,-2.9999999999999997e-05,-0.00018999999999999998,6
29036,29972,2.9999999999999997e-05,-1e-05,-1e-05,-8e-05,-0.00054,0.0006,-2.9999999999999997e-05,-0.00018999999999999998,6
29037,29973,2.9999999999999997e-05,-1e-05,-1e-05,-8e-05,-0.00054,0.0006,-2.9999999999999997e-05,-0.00018999999999999998,6
29038,29974,2.9999999999999997e-05,-1e-05,-1e-05,-8e-05,-0.00054,0.0006,-2.9999999999999997e-05,-0.00018999999999999998,6
29039,29975,2.9999999999999997e-05,-1e-05,-1e-05,-8e-05,-0.00054,0.0006,-2.9999999999999997e-05,-0.00018999999999999998,6
29040,29976,2.9999999999999997e-05,-1e-05,-1e-05,-8e-05,-0.00054,0.0006,-2.9999999999999997e-05,-0.00018999999999999998,6
29041,29977,2.9999999999999997e-05,-1e-05,-1e-05,-8e-05,-0.00054,0.0006,-2.9999999999999997e-05,-0.00018999999999999998,6
29042,29978,-2e-05,0.00011,9e-05,5e-05,-0.00098,-0.00018999999999999998,0.00018,-2.9999999999999997e-05,6
29043,29979,-2e-05,0.00011,9e-05,5e-05,-0.00098,-0.00018999999999999998,0.00018,-2.9999999999999997e-05,6
29044,29980,-7e-05,-2.9999999999999997e-05,-2.9999999999999997e-05,-2.9999999999999997e-05,-0.00037999999999999997,-0.00055,-0.00036,0.00016,6
29045,29981,-7e-05,-2.9999999999999997e-05,-2.9999999999999997e-05,-2.9999999999999997e-05,-0.00037999999999999997,-0.00055,-0.00036,0.00016,6
29046,29982,-7e-05,-2.9999999999999997e-05,-2.9999999999999997e-05,-2.9999999999999997e-05,-0.00037999999999999997,-0.00055,-0.00036,0.00016,6
29047,29983,-7e-05,-2.9999999999999997e-05,-2.9999999999999997e-05,-2.9999999999999997e-05,-0.00037999999999999997,-0.00055,-0.00036,0.00016,6
29048,29984,-7e-05,-2.9999999999999997e-05,-2.9999999999999997e-05,-2.9999999999999997e-05,-0.00037999999999999997,-0.00055,-0.00036,0.00016,6
29049,29985,-7e-05,-2.9999999999999997e-05,-2.9999999999999997e-05,-2.9999999999999997e-05,-0.00037999999999999997,-0.00055,-0.00036,0.00016,6
29050,29986,-7e-05,-2.9999999999999997e-05,-2.9999999999999997e-05,-2.9999999999999997e-05,-0.00037999999999999997,-0.00055,-0.00036,0.00016,6
29051,29988,-7e-05,-2.9999999999999997e-05,-2.9999999999999997e-05,-2.9999999999999997e-05,-0.00037999999999999997,-0.00055,-0.00036,0.00016,6
29052,29989,-7e-05,-2.9999999999999997e-05,-2.9999999999999997e-05,-2.9999999999999997e-05,-0.00037999999999999997,-0.00055,-0.00036,0.00016,6
29053,29990,-7e-05,-2.9999999999999997e-05,-2.9999999999999997e-05,-2.9999999999999997e-05,-0.00037999999999999997,-0.00055,-0.00036,0.00016,6
29054,29991,-7e-05,-2.9999999999999997e-05,-2.9999999999999997e-05,-2.9999999999999997e-05,-0.00037999999999999997,-0.00055,-0.00036,0.00016,6
29055,29992,-7e-05,-2.9999999999999997e-05,-2.9999999999999997e-05,-2.9999999999999997e-05,-0.00037999999999999997,-0.00055,-0.00036,0.00016,6
29056,29993,-7e-05,-2.9999999999999997e-05,-2.9999999999999997e-05,-2.9999999999999997e-05,-0.00037999999999999997,-0.00055,-0.00036,0.00016,6
29057,29994,-7e-05,-2.9999999999999997e-05,-2.9999999999999997e-05,-2.9999999999999997e-05,-0.00037999999999999997,-0.00055,-0.00036,0.00016,6
29058,29995,-7e-05,-2.9999999999999997e-05,-2.9999999999999997e-05,-2.9999999999999997e-05,-0.00037999999999999997,-0.00055,-0.00036,0.00016,6
29059,29996,-7e-05,-2.9999999999999997e-05,-2.9999999999999997e-05,-2.9999999999999997e-05,-0.00037999999999999997,-0.00055,-0.00036,0.00016,6
29060,29997,-7e-05,-2.9999999999999997e-05,-2.9999999999999997e-05,-2.9999999999999997e-05,-0.00037999999999999997,-0.00055,-0.00036,0.00016,6
29061,29998,-7e-05,-2.9999999999999997e-05,-2.9999999999999997e-05,-2.9999999999999997e-05,-0.00037999999999999997,-0.00055,-0.00036,0.00016,6
29062,29999,-7e-05,-2.9999999999999997e-05,-2.9999999999999997e-05,-2.9999999999999997e-05,-0.00037999999999999997,-0.00055,-0.00036,0.00016,6
29063,30000,-7e-05,-2.9999999999999997e-05,-2.9999999999999997e-05,-2.9999999999999997e-05,-0.00037999999999999997,-0.00055,-0.00036,0.00016,6
29064,30001,-0.0001,-2.9999999999999997e-05,-5e-05,-5.9999999999999995e-05,-0.0007700000000000001,-0.00128,-0.00013000000000000002,0.00035,6
29065,30002,-0.0001,-2.9999999999999997e-05,-5e-05,-5.9999999999999995e-05,-0.0007700000000000001,-0.00128,-0.00013000000000000002,0.00035,6
29066,30003,0.00011,8e-05,5.9999999999999995e-05,-1e-05,-0.00054,-0.0007,0.00016,0.00033,6
29067,30004,0.00011,8e-05,5.9999999999999995e-05,-1e-05,-0.00054,-0.0007,0.00016,0.00033,6
29068,30005,0.00011,8e-05,5.9999999999999995e-05,-1e-05,-0.00054,-0.0007,0.00016,0.00033,6
29069,30006,0.00011,8e-05,5.9999999999999995e-05,-1e-05,-0.00054,-0.0007,0.00016,0.00033,6
29070,30007,0.00011,8e-05,5.9999999999999995e-05,-1e-05,-0.00054,-0.0007,0.00016,0.00033,6
29071,30008,0.00011,8e-05,5.9999999999999995e-05,-1e-05,-0.00054,-0.0007,0.00016,0.00033,6
29072,30009,0.00011,8e-05,5.9999999999999995e-05,-1e-05,-0.00054,-0.0007,0.00016,0.00033,6
29073,30010,0.00011,8e-05,5.9999999999999995e-05,-1e-05,-0.00054,-0.0007,0.00016,0.00033,6
29074,30011,0.00011,8e-05,5.9999999999999995e-05,-1e-05,-0.00054,-0.0007,0.00016,0.00033,6
29075,30012,0.00011,8e-05,5.9999999999999995e-05,-1e-05,-0.00054,-0.0007,0.00016,0.00033,6
29076,30013,0.00011,8e-05,5.9999999999999995e-05,-1e-05,-0.00054,-0.0007,0.00016,0.00033,6
29077,30014,0.00011,8e-05,5.9999999999999995e-05,-1e-05,-0.00054,-0.0007,0.00016,0.00033,6
29078,30015,0.00011,8e-05,5.9999999999999995e-05,-1e-05,-0.00054,-0.0007,0.00016,0.00033,6
29079,30016,-5.9999999999999995e-05,-2e-05,1e-05,0.00014,0.00098,0.00063,0.00018999999999999998,-5.9999999999999995e-05,6
29080,30017,-5.9999999999999995e-05,-2e-05,1e-05,0.00014,0.00098,0.00063,0.00018999999999999998,-5.9999999999999995e-05,6
29081,30018,0.00047000000000000004,-5e-05,-4e-05,-0.00011,0.00022,0.00025,-0.0001,0.00039,6
29082,30019,0.00047000000000000004,-5e-05,-4e-05,-0.00011,0.00022,0.00025,-0.0001,0.00039,6
29083,30020,0.00047000000000000004,-5e-05,-4e-05,-0.00011,0.00022,0.00025,-0.0001,0.00039,6
29084,30021,0.00047000000000000004,-5e-05,-4e-05,-0.00011,0.00022,0.00025,-0.0001,0.00039,6
29085,30022,0.00047000000000000004,-5e-05,-4e-05,-0.00011,0.00022,0.00025,-0.0001,0.00039,6
29086,30023,0.00047000000000000004,-5e-05,-4e-05,-0.00011,0.00022,0.00025,-0.0001,0.00039,6
29087,30024,0.00047000000000000004,-5e-05,-4e-05,-0.00011,0.00022,0.00025,-0.0001,0.00039,6
29088,30025,0.00047000000000000004,-5e-05,-4e-05,-0.00011,0.00022,0.00025,-0.0001,0.00039,6
29089,30026,0.00047000000000000004,-5e-05,-4e-05,-0.00011,0.00022,0.00025,-0.0001,0.00039,6
29090,30027,0.00047000000000000004,-5e-05,-4e-05,-0.00011,0.00022,0.00025,-0.0001,0.00039,6
29091,30028,0.00047000000000000004,-5e-05,-4e-05,-0.00011,0.00022,0.00025,-0.0001,0.00039,6
29092,30029,0.00047000000000000004,-5e-05,-4e-05,-0.00011,0.00022,0.00025,-0.0001,0.00039,6
29093,30030,0.00047000000000000004,-5e-05,-4e-05,-0.00011,0.00022,0.00025,-0.0001,0.00039,6
29094,30031,0.00047000000000000004,-5e-05,-4e-05,-0.00011,0.00022,0.00025,-0.0001,0.00039,6
29095,30032,0.00047000000000000004,-5e-05,-4e-05,-0.00011,0.00022,0.00025,-0.0001,0.00039,6
29096,30033,0.00047000000000000004,-5e-05,-4e-05,-0.00011,0.00022,0.00025,-0.0001,0.00039,6
29097,30034,0.00047000000000000004,-5e-05,-4e-05,-0.00011,0.00022,0.00025,-0.0001,0.00039,6
29098,30035,0.00047000000000000004,-5e-05,-4e-05,-0.00011,0.00022,0.00025,-0.0001,0.00039,6
29099,30042,-5e-05,-5.9999999999999995e-05,-7e-05,-0.0001,-0.00041,-0.00053,-9e-05,0.0001,6
29100,30043,-5e-05,-5.9999999999999995e-05,-7e-05,-0.0001,-0.00041,-0.00053,-9e-05,0.0001,6
29101,30044,-5e-05,-5.9999999999999995e-05,-7e-05,-0.0001,-0.00041,-0.00053,-9e-05,0.0001,6
29102,30045,-5e-05,-5.9999999999999995e-05,-7e-05,-0.0001,-0.00041,-0.00053,-9e-05,0.0001,6
29103,30046,-5e-05,-5.9999999999999995e-05,-7e-05,-0.0001,-0.00041,-0.00053,-9e-05,0.0001,6
29104,30047,-5e-05,-5.9999999999999995e-05,-7e-05,-0.0001,-0.00041,-0.00053,-9e-05,0.0001,6
29105,30048,-5e-05,-5.9999999999999995e-05,-7e-05,-0.0001,-0.00041,-0.00053,-9e-05,0.0001,6
29106,30049,-5e-05,-5.9999999999999995e-05,-7e-05,-0.0001,-0.00041,-0.00053,-9e-05,0.0001,6
29107,30050,-5e-05,-5.9999999999999995e-05,-7e-05,-0.0001,-0.00041,-0.00053,-9e-05,0.0001,6
29108,30051,-5e-05,-5.9999999999999995e-05,-7e-05,-0.0001,-0.00041,-0.00053,-9e-05,0.0001,6
29109,30052,-5e-05,-5.9999999999999995e-05,-7e-05,-0.0001,-0.00041,-0.00053,-9e-05,0.0001,6
29110,30053,-5e-05,-5.9999999999999995e-05,-7e-05,-0.0001,-0.00041,-0.00053,-9e-05,0.0001,6
29111,30054,-5e-05,-5.9999999999999995e-05,-7e-05,-0.0001,-0.00041,-0.00053,-9e-05,0.0001,6
29112,30055,-5e-05,-5.9999999999999995e-05,-7e-05,-0.0001,-0.00041,-0.00053,-9e-05,0.0001,6
29113,30056,-5e-05,-5.9999999999999995e-05,-7e-05,-0.0001,-0.00041,-0.00053,-9e-05,0.0001,6
29114,30057,-5e-05,-5.9999999999999995e-05,-7e-05,-0.0001,-0.00041,-0.00053,-9e-05,0.0001,6
29115,30058,-5e-05,-5.9999999999999995e-05,-7e-05,-0.0001,-0.00041,-0.00053,-9e-05,0.0001,6
29116,30059,-5e-05,-5.9999999999999995e-05,-7e-05,-0.0001,-0.00041,-0.00053,-9e-05,0.0001,6
29117,30060,-5e-05,-5.9999999999999995e-05,-7e-05,-0.0001,-0.00041,-0.00053,-9e-05,0.0001,6
29118,30061,-0.00013000000000000002,-2e-05,-2.9999999999999997e-05,0.0,0.00047999999999999996,-0.00074,-0.00041,-0.0007700000000000001,6
29119,30062,0.0001,-2.9999999999999997e-05,-4e-05,-0.0001,-0.00062,-0.00037,-5.9999999999999995e-05,0.00074,6
29120,30063,-0.00022,-5.9999999999999995e-05,-7e-05,-9e-05,-0.00015,0.00061,-9e-05,-0.00053,6
29121,30064,-0.00022,-5.9999999999999995e-05,-7e-05,-9e-05,-0.00015,0.00061,-9e-05,-0.00053,6
29122,30065,-0.00022,-5.9999999999999995e-05,-7e-05,-9e-05,-0.00015,0.00061,-9e-05,-0.00053,6
29123,30066,-0.00022,-5.9999999999999995e-05,-7e-05,-9e-05,-0.00015,0.00061,-9e-05,-0.00053,6
29124,30067,-0.00022,-5.9999999999999995e-05,-7e-05,-9e-05,-0.00015,0.00061,-9e-05,-0.00053,6
29125,30068,-0.00022,-5.9999999999999995e-05,-7e-05,-9e-05,-0.00015,0.00061,-9e-05,-0.00053,6
29126,30069,-0.00022,-5.9999999999999995e-05,-7e-05,-9e-05,-0.00015,0.00061,-9e-05,-0.00053,6
29127,30070,-0.00022,-5.9999999999999995e-05,-7e-05,-9e-05,-0.00015,0.00061,-9e-05,-0.00053,6
29128,30071,-0.00022,-5.9999999999999995e-05,-7e-05,-9e-05,-0.00015,0.00061,-9e-05,-0.00053,6
29129,30072,-0.00022,-5.9999999999999995e-05,-7e-05,-9e-05,-0.00015,0.00061,-9e-05,-0.00053,6
29130,30073,-0.00022,-5.9999999999999995e-05,-7e-05,-9e-05,-0.00015,0.00061,-9e-05,-0.00053,6
29131,30074,-0.00022,-5.9999999999999995e-05,-7e-05,-9e-05,-0.00015,0.00061,-9e-05,-0.00053,6
29132,30075,-0.00022,-5.9999999999999995e-05,-7e-05,-9e-05,-0.00015,0.00061,-9e-05,-0.00053,6
29133,30076,-4e-05,-2e-05,0.0,5e-05,0.00056,-0.00074,0.00015,-0.00015,6
29134,30077,-4e-05,-2e-05,0.0,5e-05,0.00056,-0.00074,0.00015,-0.00015,6
29135,30078,-0.00032,4e-05,5.9999999999999995e-05,0.0002,0.00116,0.00059,0.00025,1e-05,6
29136,30079,-0.00032,4e-05,5.9999999999999995e-05,0.0002,0.00116,0.00059,0.00025,1e-05,6
29137,30080,-0.00032,4e-05,5.9999999999999995e-05,0.0002,0.00116,0.00059,0.00025,1e-05,6
29138,30081,-0.00032,4e-05,5.9999999999999995e-05,0.0002,0.00116,0.00059,0.00025,1e-05,6
29139,30082,-0.00032,4e-05,5.9999999999999995e-05,0.0002,0.00116,0.00059,0.00025,1e-05,6
29140,30083,-0.00032,4e-05,5.9999999999999995e-05,0.0002,0.00116,0.00059,0.00025,1e-05,6
29141,30084,-0.00032,4e-05,5.9999999999999995e-05,0.0002,0.00116,0.00059,0.00025,1e-05,6
29142,30085,-0.00032,4e-05,5.9999999999999995e-05,0.0002,0.00116,0.00059,0.00025,1e-05,6
29143,30086,-0.00032,4e-05,5.9999999999999995e-05,0.0002,0.00116,0.00059,0.00025,1e-05,6
29144,30088,-0.00032,4e-05,5.9999999999999995e-05,0.0002,0.00116,0.00059,0.00025,1e-05,6
29145,30089,-0.00032,4e-05,5.9999999999999995e-05,0.0002,0.00116,0.00059,0.00025,1e-05,6
29146,30090,-0.00032,4e-05,5.9999999999999995e-05,0.0002,0.00116,0.00059,0.00025,1e-05,6
29147,30091,-0.00032,4e-05,5.9999999999999995e-05,0.0002,0.00116,0.00059,0.00025,1e-05,6
29148,30092,-0.00032,4e-05,5.9999999999999995e-05,0.0002,0.00116,0.00059,0.00025,1e-05,6
29149,30093,-0.00032,4e-05,5.9999999999999995e-05,0.0002,0.00116,0.00059,0.00025,1e-05,6
29150,30094,-0.00032,4e-05,5.9999999999999995e-05,0.0002,0.00116,0.00059,0.00025,1e-05,6
29151,30095,-0.00032,4e-05,5.9999999999999995e-05,0.0002,0.00116,0.00059,0.00025,1e-05,6
29152,30096,-0.00032,4e-05,5.9999999999999995e-05,0.0002,0.00116,0.00059,0.00025,1e-05,6
29153,30097,-0.00032,4e-05,5.9999999999999995e-05,0.0002,0.00116,0.00059,0.00025,1e-05,6
29154,30098,0.00018,-0.00011,-0.00011,-9e-05,-9e-05,0.0009400000000000001,7e-05,-0.00022999999999999998,6
29155,30099,0.00011999999999999999,0.0,-4e-05,-8e-05,-0.00063,0.00015,0.00013000000000000002,0.00079,6
29156,30100,2e-05,4e-05,2.9999999999999997e-05,2.9999999999999997e-05,-4e-05,-0.00073,-0.00018,-0.00029,6
29157,30101,2e-05,4e-05,2.9999999999999997e-05,2.9999999999999997e-05,-4e-05,-0.00073,-0.00018,-0.00029,6
29158,30102,2e-05,4e-05,2.9999999999999997e-05,2.9999999999999997e-05,-4e-05,-0.00073,-0.00018,-0.00029,6
29159,30103,2e-05,4e-05,2.9999999999999997e-05,2.9999999999999997e-05,-4e-05,-0.00073,-0.00018,-0.00029,6
29160,30104,2e-05,4e-05,2.9999999999999997e-05,2.9999999999999997e-05,-4e-05,-0.00073,-0.00018,-0.00029,6
29161,30105,2e-05,4e-05,2.9999999999999997e-05,2.9999999999999997e-05,-4e-05,-0.00073,-0.00018,-0.00029,6
29162,30106,2e-05,4e-05,2.9999999999999997e-05,2.9999999999999997e-05,-4e-05,-0.00073,-0.00018,-0.00029,6
29163,30107,2e-05,4e-05,2.9999999999999997e-05,2.9999999999999997e-05,-4e-05,-0.00073,-0.00018,-0.00029,6
29164,30108,2e-05,4e-05,2.9999999999999997e-05,2.9999999999999997e-05,-4e-05,-0.00073,-0.00018,-0.00029,6
29165,30109,2e-05,4e-05,2.9999999999999997e-05,2.9999999999999997e-05,-4e-05,-0.00073,-0.00018,-0.00029,6
29166,30110,2e-05,4e-05,2.9999999999999997e-05,2.9999999999999997e-05,-4e-05,-0.00073,-0.00018,-0.00029,6
29167,30111,2e-05,4e-05,2.9999999999999997e-05,2.9999999999999997e-05,-4e-05,-0.00073,-0.00018,-0.00029,6
29168,30112,2e-05,4e-05,2.9999999999999997e-05,2.9999999999999997e-05,-4e-05,-0.00073,-0.00018,-0.00029,6
29169,30113,2e-05,4e-05,2.9999999999999997e-05,2.9999999999999997e-05,-4e-05,-0.00073,-0.00018,-0.00029,6
29170,30114,2e-05,4e-05,2.9999999999999997e-05,2.9999999999999997e-05,-4e-05,-0.00073,-0.00018,-0.00029,6
29171,30115,2e-05,4e-05,2.9999999999999997e-05,2.9999999999999997e-05,-4e-05,-0.00073,-0.00018,-0.00029,6
29172,30116,2e-05,4e-05,2.9999999999999997e-05,2.9999999999999997e-05,-4e-05,-0.00073,-0.00018,-0.00029,6
29173,30117,2e-05,4e-05,2.9999999999999997e-05,2.9999999999999997e-05,-4e-05,-0.00073,-0.00018,-0.00029,6
29174,30118,2e-05,4e-05,2.9999999999999997e-05,2.9999999999999997e-05,-4e-05,-0.00073,-0.00018,-0.00029,6
29175,30119,2e-05,4e-05,2.9999999999999997e-05,2.9999999999999997e-05,-4e-05,-0.00073,-0.00018,-0.00029,6
29176,30120,2e-05,4e-05,2.9999999999999997e-05,2.9999999999999997e-05,-4e-05,-0.00073,-0.00018,-0.00029,6
29177,30121,-8e-05,-4e-05,-2e-05,1e-05,0.0008300000000000001,-0.00028,2.9999999999999997e-05,0.0010199999999999999,6
29178,30122,-8e-05,-4e-05,-2e-05,1e-05,0.0008300000000000001,-0.00028,2.9999999999999997e-05,0.0010199999999999999,6
29179,30123,2e-05,-5.9999999999999995e-05,-5e-05,-2.9999999999999997e-05,-0.00067,-0.00109,-0.00023999999999999998,-0.00015,6
29180,30124,2e-05,-5.9999999999999995e-05,-5e-05,-2.9999999999999997e-05,-0.00067,-0.00109,-0.00023999999999999998,-0.00015,6
29181,30125,2e-05,-5.9999999999999995e-05,-5e-05,-2.9999999999999997e-05,-0.00067,-0.00109,-0.00023999999999999998,-0.00015,6
29182,30126,2e-05,-5.9999999999999995e-05,-5e-05,-2.9999999999999997e-05,-0.00067,-0.00109,-0.00023999999999999998,-0.00015,6
29183,30127,2e-05,-5.9999999999999995e-05,-5e-05,-2.9999999999999997e-05,-0.00067,-0.00109,-0.00023999999999999998,-0.00015,6
29184,30128,2e-05,-5.9999999999999995e-05,-5e-05,-2.9999999999999997e-05,-0.00067,-0.00109,-0.00023999999999999998,-0.00015,6
29185,30129,2e-05,-5.9999999999999995e-05,-5e-05,-2.9999999999999997e-05,-0.00067,-0.00109,-0.00023999999999999998,-0.00015,6
29186,30130,2e-05,-5.9999999999999995e-05,-5e-05,-2.9999999999999997e-05,-0.00067,-0.00109,-0.00023999999999999998,-0.00015,6
29187,30131,2e-05,-5.9999999999999995e-05,-5e-05,-2.9999999999999997e-05,-0.00067,-0.00109,-0.00023999999999999998,-0.00015,6
29188,30132,2e-05,-5.9999999999999995e-05,-5e-05,-2.9999999999999997e-05,-0.00067,-0.00109,-0.00023999999999999998,-0.00015,6
29189,30133,2e-05,-5.9999999999999995e-05,-5e-05,-2.9999999999999997e-05,-0.00067,-0.00109,-0.00023999999999999998,-0.00015,6
29190,30134,2e-05,-5.9999999999999995e-05,-5e-05,-2.9999999999999997e-05,-0.00067,-0.00109,-0.00023999999999999998,-0.00015,6
29191,30135,9e-05,2.9999999999999997e-05,4e-05,1e-05,-0.00022999999999999998,0.00039,0.00015,0.00103,6
29192,30137,9e-05,2.9999999999999997e-05,4e-05,1e-05,-0.00022999999999999998,0.00039,0.00015,0.00103,6
29193,30139,9e-05,2.9999999999999997e-05,4e-05,1e-05,-0.00022999999999999998,0.00039,0.00015,0.00103,6
29194,30140,9e-05,2.9999999999999997e-05,4e-05,1e-05,-0.00022999999999999998,0.00039,0.00015,0.00103,6
29195,30141,9e-05,2.9999999999999997e-05,4e-05,1e-05,-0.00022999999999999998,0.00039,0.00015,0.00103,6
29196,30142,0.0,1e-05,1e-05,-1e-05,0.00013000000000000002,0.00014,-0.00013000000000000002,0.0004,6
29197,30143,0.0,1e-05,1e-05,-1e-05,0.00013000000000000002,0.00014,-0.00013000000000000002,0.0004,6
29198,30144,0.0,1e-05,1e-05,-1e-05,0.00013000000000000002,0.00014,-0.00013000000000000002,0.0004,6
29199,30145,0.0,1e-05,1e-05,-1e-05,0.00013000000000000002,0.00014,-0.00013000000000000002,0.0004,6
29200,30146,0.0,1e-05,1e-05,-1e-05,0.00013000000000000002,0.00014,-0.00013000000000000002,0.0004,6
29201,30147,0.0,1e-05,1e-05,-1e-05,0.00013000000000000002,0.00014,-0.00013000000000000002,0.0004,6
29202,30148,0.0,1e-05,1e-05,-1e-05,0.00013000000000000002,0.00014,-0.00013000000000000002,0.0004,6
29203,30149,0.0,1e-05,1e-05,-1e-05,0.00013000000000000002,0.00014,-0.00013000000000000002,0.0004,6
29204,30150,0.0,1e-05,1e-05,-1e-05,0.00013000000000000002,0.00014,-0.00013000000000000002,0.0004,6
29205,30151,0.0,1e-05,1e-05,-1e-05,0.00013000000000000002,0.00014,-0.00013000000000000002,0.0004,6
29206,30152,0.0,1e-05,1e-05,-1e-05,0.00013000000000000002,0.00014,-0.00013000000000000002,0.0004,6
29207,30153,0.0,1e-05,1e-05,-1e-05,0.00013000000000000002,0.00014,-0.00013000000000000002,0.0004,6
29208,30154,0.0,1e-05,1e-05,-1e-05,0.00013000000000000002,0.00014,-0.00013000000000000002,0.0004,6
29209,30155,0.0,1e-05,1e-05,-1e-05,0.00013000000000000002,0.00014,-0.00013000000000000002,0.0004,6
29210,30156,0.0,1e-05,1e-05,-1e-05,0.00013000000000000002,0.00014,-0.00013000000000000002,0.0004,6
29211,30157,0.0,1e-05,1e-05,-1e-05,0.00013000000000000002,0.00014,-0.00013000000000000002,0.0004,6
29212,30158,-1e-05,-5e-05,-8e-05,-0.00015,-0.0011,-0.00053,2.9999999999999997e-05,-0.00053,6
29213,30159,-5e-05,-5.9999999999999995e-05,-2e-05,-2.9999999999999997e-05,-0.00022,-0.00014,0.00014,8e-05,6
29214,30160,-5e-05,2e-05,4e-05,0.0001,0.00064,-0.00033999999999999997,0.00022,-5.9999999999999995e-05,6
29215,30161,-5e-05,2e-05,4e-05,0.0001,0.00064,-0.00033999999999999997,0.00022,-5.9999999999999995e-05,6
29216,30162,-5e-05,2e-05,4e-05,0.0001,0.00064,-0.00033999999999999997,0.00022,-5.9999999999999995e-05,6
29217,30163,-5e-05,2e-05,4e-05,0.0001,0.00064,-0.00033999999999999997,0.00022,-5.9999999999999995e-05,6
29218,30164,-5e-05,2e-05,4e-05,0.0001,0.00064,-0.00033999999999999997,0.00022,-5.9999999999999995e-05,6
29219,30165,-5e-05,2e-05,4e-05,0.0001,0.00064,-0.00033999999999999997,0.00022,-5.9999999999999995e-05,6
29220,30166,-5e-05,2e-05,4e-05,0.0001,0.00064,-0.00033999999999999997,0.00022,-5.9999999999999995e-05,6
29221,30167,-5e-05,2e-05,4e-05,0.0001,0.00064,-0.00033999999999999997,0.00022,-5.9999999999999995e-05,6
29222,30168,-5e-05,2e-05,4e-05,0.0001,0.00064,-0.00033999999999999997,0.00022,-5.9999999999999995e-05,6
29223,30169,-5e-05,2e-05,4e-05,0.0001,0.00064,-0.00033999999999999997,0.00022,-5.9999999999999995e-05,6
29224,30170,-5e-05,2e-05,4e-05,0.0001,0.00064,-0.00033999999999999997,0.00022,-5.9999999999999995e-05,6
29225,30171,-5e-05,2e-05,4e-05,0.0001,0.00064,-0.00033999999999999997,0.00022,-5.9999999999999995e-05,6
29226,30172,-5e-05,2e-05,4e-05,0.0001,0.00064,-0.00033999999999999997,0.00022,-5.9999999999999995e-05,6
29227,30173,-5e-05,2e-05,4e-05,0.0001,0.00064,-0.00033999999999999997,0.00022,-5.9999999999999995e-05,6
29228,30174,-5e-05,2e-05,4e-05,0.0001,0.00064,-0.00033999999999999997,0.00022,-5.9999999999999995e-05,6
29229,30175,-5e-05,2e-05,4e-05,0.0001,0.00064,-0.00033999999999999997,0.00022,-5.9999999999999995e-05,6
29230,30176,-5e-05,2e-05,4e-05,0.0001,0.00064,-0.00033999999999999997,0.00022,-5.9999999999999995e-05,6
29231,30177,-5e-05,2e-05,4e-05,0.0001,0.00064,-0.00033999999999999997,0.00022,-5.9999999999999995e-05,6
29232,30178,-5e-05,2e-05,4e-05,0.0001,0.00064,-0.00033999999999999997,0.00022,-5.9999999999999995e-05,6
29233,30179,-5e-05,2e-05,4e-05,0.0001,0.00064,-0.00033999999999999997,0.00022,-5.9999999999999995e-05,6
29234,30180,-5e-05,2e-05,4e-05,0.0001,0.00064,-0.00033999999999999997,0.00022,-5.9999999999999995e-05,6
29235,30181,-5.9999999999999995e-05,-5e-05,-7e-05,-0.00013000000000000002,-0.00016999999999999999,9e-05,7e-05,-0.0003,6
29236,30182,0.00013000000000000002,-2e-05,-2.9999999999999997e-05,-5e-05,-0.0007599999999999999,-0.00062,0.00013000000000000002,0.00011999999999999999,6
29237,30183,-0.00013000000000000002,-1e-05,-2e-05,-2e-05,0.00039,-0.00084,-0.00018,-0.00036,6
29238,30184,-0.00013000000000000002,-1e-05,-2e-05,-2e-05,0.00039,-0.00084,-0.00018,-0.00036,6
29239,30185,-0.00013000000000000002,-1e-05,-2e-05,-2e-05,0.00039,-0.00084,-0.00018,-0.00036,6
29240,30187,-0.00013000000000000002,-1e-05,-2e-05,-2e-05,0.00039,-0.00084,-0.00018,-0.00036,6
29241,30189,-0.00013000000000000002,-1e-05,-2e-05,-2e-05,0.00039,-0.00084,-0.00018,-0.00036,6
29242,30190,-0.00013000000000000002,-1e-05,-2e-05,-2e-05,0.00039,-0.00084,-0.00018,-0.00036,6
29243,30191,-0.00013000000000000002,-1e-05,-2e-05,-2e-05,0.00039,-0.00084,-0.00018,-0.00036,6
29244,30192,-0.00013000000000000002,-1e-05,-2e-05,-2e-05,0.00039,-0.00084,-0.00018,-0.00036,6
29245,30193,-0.00013000000000000002,-1e-05,-2e-05,-2e-05,0.00039,-0.00084,-0.00018,-0.00036,6
29246,30194,-0.00013000000000000002,-1e-05,-2e-05,-2e-05,0.00039,-0.00084,-0.00018,-0.00036,6
29247,30195,-0.00013000000000000002,-1e-05,-2e-05,-2e-05,0.00039,-0.00084,-0.00018,-0.00036,6
29248,30196,-0.00013000000000000002,-1e-05,-2e-05,-2e-05,0.00039,-0.00084,-0.00018,-0.00036,6
29249,30197,-0.00013000000000000002,-1e-05,-2e-05,-2e-05,0.00039,-0.00084,-0.00018,-0.00036,6
29250,30198,-0.00013000000000000002,-1e-05,-2e-05,-2e-05,0.00039,-0.00084,-0.00018,-0.00036,6
29251,30199,-0.00013000000000000002,-1e-05,-2e-05,-2e-05,0.00039,-0.00084,-0.00018,-0.00036,6
29252,30200,-0.00013000000000000002,-1e-05,-2e-05,-2e-05,0.00039,-0.00084,-0.00018,-0.00036,6
29253,30201,-0.00013000000000000002,-1e-05,-2e-05,-2e-05,0.00039,-0.00084,-0.00018,-0.00036,6
29254,30202,-0.00013000000000000002,-1e-05,-2e-05,-2e-05,0.00039,-0.00084,-0.00018,-0.00036,6
29255,30203,-0.00013000000000000002,-1e-05,-2e-05,-2e-05,0.00039,-0.00084,-0.00018,-0.00036,6
29256,30204,-1e-05,4e-05,5.9999999999999995e-05,0.00014,0.00098,0.00067,0.00016999999999999999,-0.00062,6
29257,30205,0.00018999999999999998,2e-05,4e-05,2.9999999999999997e-05,-5e-05,-0.00022,0.00042,0.00086,6
29258,30206,0.00018999999999999998,2e-05,4e-05,2.9999999999999997e-05,-5e-05,-0.00022,0.00042,0.00086,6
29259,30207,0.00018999999999999998,2e-05,4e-05,2.9999999999999997e-05,-5e-05,-0.00022,0.00042,0.00086,6
29260,30208,0.00018999999999999998,2e-05,4e-05,2.9999999999999997e-05,-5e-05,-0.00022,0.00042,0.00086,6
29261,30209,0.00018999999999999998,2e-05,4e-05,2.9999999999999997e-05,-5e-05,-0.00022,0.00042,0.00086,6
29262,30210,0.00018999999999999998,2e-05,4e-05,2.9999999999999997e-05,-5e-05,-0.00022,0.00042,0.00086,6
29263,30211,0.00018999999999999998,2e-05,4e-05,2.9999999999999997e-05,-5e-05,-0.00022,0.00042,0.00086,6
29264,30212,0.00018999999999999998,2e-05,4e-05,2.9999999999999997e-05,-5e-05,-0.00022,0.00042,0.00086,6
29265,30213,0.00018999999999999998,2e-05,4e-05,2.9999999999999997e-05,-5e-05,-0.00022,0.00042,0.00086,6
29266,30214,0.00018999999999999998,2e-05,4e-05,2.9999999999999997e-05,-5e-05,-0.00022,0.00042,0.00086,6
29267,30215,0.00018999999999999998,2e-05,4e-05,2.9999999999999997e-05,-5e-05,-0.00022,0.00042,0.00086,6
29268,30216,0.00018999999999999998,2e-05,4e-05,2.9999999999999997e-05,-5e-05,-0.00022,0.00042,0.00086,6
29269,30217,0.00018999999999999998,2e-05,4e-05,2.9999999999999997e-05,-5e-05,-0.00022,0.00042,0.00086,6
29270,30218,-5.9999999999999995e-05,-7e-05,-4e-05,-5e-05,-0.00031,-0.0007,-0.00031,0.0001,6
29271,30219,-5.9999999999999995e-05,-7e-05,-4e-05,-5e-05,-0.00031,-0.0007,-0.00031,0.0001,6
29272,30220,-5e-05,-2.9999999999999997e-05,-1e-05,0.00011999999999999999,0.00059,0.00124,0.00029,-9e-05,6
29273,30221,-5e-05,-2.9999999999999997e-05,-1e-05,0.00011999999999999999,0.00059,0.00124,0.00029,-9e-05,6
29274,30222,-5e-05,-2.9999999999999997e-05,-1e-05,0.00011999999999999999,0.00059,0.00124,0.00029,-9e-05,6
29275,30223,-5e-05,-2.9999999999999997e-05,-1e-05,0.00011999999999999999,0.00059,0.00124,0.00029,-9e-05,6
29276,30224,-5e-05,-2.9999999999999997e-05,-1e-05,0.00011999999999999999,0.00059,0.00124,0.00029,-9e-05,6
29277,30225,-5e-05,-2.9999999999999997e-05,-1e-05,0.00011999999999999999,0.00059,0.00124,0.00029,-9e-05,6
29278,30226,-5e-05,-2.9999999999999997e-05,-1e-05,0.00011999999999999999,0.00059,0.00124,0.00029,-9e-05,6
29279,30227,-5e-05,-2.9999999999999997e-05,-1e-05,0.00011999999999999999,0.00059,0.00124,0.00029,-9e-05,6
29280,30228,-5e-05,-2.9999999999999997e-05,-1e-05,0.00011999999999999999,0.00059,0.00124,0.00029,-9e-05,6
29281,30229,-5e-05,-2.9999999999999997e-05,-1e-05,0.00011999999999999999,0.00059,0.00124,0.00029,-9e-05,6
29282,30230,-5e-05,-2.9999999999999997e-05,-1e-05,0.00011999999999999999,0.00059,0.00124,0.00029,-9e-05,6
29283,30231,-5e-05,-2.9999999999999997e-05,-1e-05,0.00011999999999999999,0.00059,0.00124,0.00029,-9e-05,6
29284,30232,-5e-05,-2.9999999999999997e-05,-1e-05,0.00011999999999999999,0.00059,0.00124,0.00029,-9e-05,6
29285,30233,-5e-05,-2.9999999999999997e-05,-1e-05,0.00011999999999999999,0.00059,0.00124,0.00029,-9e-05,6
29286,30234,-5e-05,-2.9999999999999997e-05,-1e-05,0.00011999999999999999,0.00059,0.00124,0.00029,-9e-05,6
29287,30235,-5e-05,-2.9999999999999997e-05,-1e-05,0.00011999999999999999,0.00059,0.00124,0.00029,-9e-05,6
29288,30236,-5e-05,-2.9999999999999997e-05,-1e-05,0.00011999999999999999,0.00059,0.00124,0.00029,-9e-05,6
29289,30238,-5e-05,-2.9999999999999997e-05,-1e-05,0.00011999999999999999,0.00059,0.00124,0.00029,-9e-05,6
29290,30239,-5e-05,-2.9999999999999997e-05,-1e-05,0.00011999999999999999,0.00059,0.00124,0.00029,-9e-05,6
29291,30240,-5e-05,-2.9999999999999997e-05,-1e-05,0.00011999999999999999,0.00059,0.00124,0.00029,-9e-05,6
29292,30241,-5.9999999999999995e-05,-4e-05,-4e-05,-0.00015,-5e-05,-0.00082,-0.00056,-5e-05,6
29293,30242,-5.9999999999999995e-05,-4e-05,-4e-05,-0.00015,-5e-05,-0.00082,-0.00056,-5e-05,6
29294,30243,8e-05,-2.9999999999999997e-05,-4e-05,-5e-05,-2e-05,-0.00065,0.0,2.9999999999999997e-05,6
29295,30244,8e-05,-2.9999999999999997e-05,-4e-05,-5e-05,-2e-05,-0.00065,0.0,2.9999999999999997e-05,6
29296,30245,8e-05,-2.9999999999999997e-05,-4e-05,-5e-05,-2e-05,-0.00065,0.0,2.9999999999999997e-05,6
29297,30246,8e-05,-2.9999999999999997e-05,-4e-05,-5e-05,-2e-05,-0.00065,0.0,2.9999999999999997e-05,6
29298,30247,8e-05,-2.9999999999999997e-05,-4e-05,-5e-05,-2e-05,-0.00065,0.0,2.9999999999999997e-05,6
29299,30248,8e-05,-2.9999999999999997e-05,-4e-05,-5e-05,-2e-05,-0.00065,0.0,2.9999999999999997e-05,6
29300,30249,8e-05,-2.9999999999999997e-05,-4e-05,-5e-05,-2e-05,-0.00065,0.0,2.9999999999999997e-05,6
29301,30250,8e-05,-2.9999999999999997e-05,-4e-05,-5e-05,-2e-05,-0.00065,0.0,2.9999999999999997e-05,6
29302,30251,8e-05,-2.9999999999999997e-05,-4e-05,-5e-05,-2e-05,-0.00065,0.0,2.9999999999999997e-05,6
29303,30252,8e-05,-2.9999999999999997e-05,-4e-05,-5e-05,-2e-05,-0.00065,0.0,2.9999999999999997e-05,6
29304,30253,8e-05,-2.9999999999999997e-05,-4e-05,-5e-05,-2e-05,-0.00065,0.0,2.9999999999999997e-05,6
29305,30254,8e-05,-2.9999999999999997e-05,-4e-05,-5e-05,-2e-05,-0.00065,0.0,2.9999999999999997e-05,6
29306,30255,2.9999999999999997e-05,4e-05,4e-05,2e-05,-0.00055,0.0009699999999999999,8e-05,-0.0004,6
29307,30256,2.9999999999999997e-05,4e-05,4e-05,2e-05,-0.00055,0.0009699999999999999,8e-05,-0.0004,6
29308,30257,2.9999999999999997e-05,4e-05,4e-05,2e-05,-0.00055,0.0009699999999999999,8e-05,-0.0004,6
29309,30258,2.9999999999999997e-05,4e-05,4e-05,2e-05,-0.00055,0.0009699999999999999,8e-05,-0.0004,6
29310,30259,2.9999999999999997e-05,4e-05,4e-05,2e-05,-0.00055,0.0009699999999999999,8e-05,-0.0004,6
29311,30260,2.9999999999999997e-05,4e-05,4e-05,2e-05,-0.00055,0.0009699999999999999,8e-05,-0.0004,6
29312,30261,2.9999999999999997e-05,4e-05,4e-05,2e-05,-0.00055,0.0009699999999999999,8e-05,-0.0004,6
29313,30262,5e-05,-2e-05,-9e-05,-9e-05,-5.9999999999999995e-05,-0.00054,-0.00018999999999999998,0.00025,6
29314,30263,5e-05,-2e-05,-9e-05,-9e-05,-5.9999999999999995e-05,-0.00054,-0.00018999999999999998,0.00025,6
29315,30264,5e-05,-2e-05,-9e-05,-9e-05,-5.9999999999999995e-05,-0.00054,-0.00018999999999999998,0.00025,6
29316,30265,5e-05,-2e-05,-9e-05,-9e-05,-5.9999999999999995e-05,-0.00054,-0.00018999999999999998,0.00025,6
29317,30266,5e-05,-2e-05,-9e-05,-9e-05,-5.9999999999999995e-05,-0.00054,-0.00018999999999999998,0.00025,6
29318,30267,5e-05,-2e-05,-9e-05,-9e-05,-5.9999999999999995e-05,-0.00054,-0.00018999999999999998,0.00025,6
29319,30268,5e-05,-2e-05,-9e-05,-9e-05,-5.9999999999999995e-05,-0.00054,-0.00018999999999999998,0.00025,6
29320,30269,5e-05,-2e-05,-9e-05,-9e-05,-5.9999999999999995e-05,-0.00054,-0.00018999999999999998,0.00025,6
29321,30270,5e-05,-2e-05,-9e-05,-9e-05,-5.9999999999999995e-05,-0.00054,-0.00018999999999999998,0.00025,6
29322,30271,5e-05,-2e-05,-9e-05,-9e-05,-5.9999999999999995e-05,-0.00054,-0.00018999999999999998,0.00025,6
29323,30272,5e-05,-2e-05,-9e-05,-9e-05,-5.9999999999999995e-05,-0.00054,-0.00018999999999999998,0.00025,6
29324,30273,5e-05,-2e-05,-9e-05,-9e-05,-5.9999999999999995e-05,-0.00054,-0.00018999999999999998,0.00025,6
29325,30274,5e-05,-2e-05,-9e-05,-9e-05,-5.9999999999999995e-05,-0.00054,-0.00018999999999999998,0.00025,6
29326,30275,5e-05,-2e-05,-9e-05,-9e-05,-5.9999999999999995e-05,-0.00054,-0.00018999999999999998,0.00025,6
29327,30276,5e-05,-2e-05,-9e-05,-9e-05,-5.9999999999999995e-05,-0.00054,-0.00018999999999999998,0.00025,6
29328,30277,5e-05,-2e-05,-9e-05,-9e-05,-5.9999999999999995e-05,-0.00054,-0.00018999999999999998,0.00025,6
29329,30278,5e-05,-2e-05,-9e-05,-9e-05,-5.9999999999999995e-05,-0.00054,-0.00018999999999999998,0.00025,6
29330,30279,5.9999999999999995e-05,7e-05,9e-05,0.00016999999999999999,0.0003,0.00028,0.00016999999999999999,-0.00029,6
29331,30280,-0.00011,0.0,-1e-05,-5e-05,-0.00063,-0.00043,-8e-05,-0.00075,6
29332,30281,-0.00011,0.0,-1e-05,-5e-05,-0.00063,-0.00043,-8e-05,-0.00075,6
29333,30282,-0.00011,0.0,-1e-05,-5e-05,-0.00063,-0.00043,-8e-05,-0.00075,6
29334,30283,-0.00011,0.0,-1e-05,-5e-05,-0.00063,-0.00043,-8e-05,-0.00075,6
29335,30284,-0.00011,0.0,-1e-05,-5e-05,-0.00063,-0.00043,-8e-05,-0.00075,6
29336,30285,-0.00011,0.0,-1e-05,-5e-05,-0.00063,-0.00043,-8e-05,-0.00075,6
29337,30287,-0.00011,0.0,-1e-05,-5e-05,-0.00063,-0.00043,-8e-05,-0.00075,6
29338,30289,-0.00011,0.0,-1e-05,-5e-05,-0.00063,-0.00043,-8e-05,-0.00075,6
29339,30290,-0.00011,0.0,-1e-05,-5e-05,-0.00063,-0.00043,-8e-05,-0.00075,6
29340,30291,-0.00011,0.0,-1e-05,-5e-05,-0.00063,-0.00043,-8e-05,-0.00075,6
29341,30292,-0.00011,0.0,-1e-05,-5e-05,-0.00063,-0.00043,-8e-05,-0.00075,6
29342,30293,-0.00011,0.0,-1e-05,-5e-05,-0.00063,-0.00043,-8e-05,-0.00075,6
29343,30294,-0.00011,0.0,-1e-05,-5e-05,-0.00063,-0.00043,-8e-05,-0.00075,6
29344,30295,-0.00011,0.0,-1e-05,-5e-05,-0.00063,-0.00043,-8e-05,-0.00075,6
29345,30296,-0.00011,0.0,-1e-05,-5e-05,-0.00063,-0.00043,-8e-05,-0.00075,6
29346,30297,-0.00011,0.0,-1e-05,-5e-05,-0.00063,-0.00043,-8e-05,-0.00075,6
29347,30298,-0.00011,0.0,-1e-05,-5e-05,-0.00063,-0.00043,-8e-05,-0.00075,6
29348,30299,-0.00011,0.0,-1e-05,-5e-05,-0.00063,-0.00043,-8e-05,-0.00075,6
29349,30300,-0.00011,0.0,-1e-05,-5e-05,-0.00063,-0.00043,-8e-05,-0.00075,6
29350,30301,0.00018999999999999998,-4e-05,-4e-05,-2.9999999999999997e-05,0.00035,0.00109,0.00032,5e-05,6
29351,30302,0.00018999999999999998,-4e-05,-4e-05,-2.9999999999999997e-05,0.00035,0.00109,0.00032,5e-05,6
29352,30303,-0.00026000000000000003,-0.0001,-0.00011999999999999999,-0.00027,-0.00042,-0.0008,-0.00023999999999999998,0.0003,6
29353,30304,-0.00026000000000000003,-0.0001,-0.00011999999999999999,-0.00027,-0.00042,-0.0008,-0.00023999999999999998,0.0003,6
29354,30305,-0.00026000000000000003,-0.0001,-0.00011999999999999999,-0.00027,-0.00042,-0.0008,-0.00023999999999999998,0.0003,6
29355,30306,-0.00026000000000000003,-0.0001,-0.00011999999999999999,-0.00027,-0.00042,-0.0008,-0.00023999999999999998,0.0003,6
29356,30307,-0.00026000000000000003,-0.0001,-0.00011999999999999999,-0.00027,-0.00042,-0.0008,-0.00023999999999999998,0.0003,6
29357,30308,-0.00026000000000000003,-0.0001,-0.00011999999999999999,-0.00027,-0.00042,-0.0008,-0.00023999999999999998,0.0003,6
29358,30309,-0.00026000000000000003,-0.0001,-0.00011999999999999999,-0.00027,-0.00042,-0.0008,-0.00023999999999999998,0.0003,6
29359,30310,-0.00026000000000000003,-0.0001,-0.00011999999999999999,-0.00027,-0.00042,-0.0008,-0.00023999999999999998,0.0003,6
29360,30311,-0.00026000000000000003,-0.0001,-0.00011999999999999999,-0.00027,-0.00042,-0.0008,-0.00023999999999999998,0.0003,6
29361,30312,-0.00026000000000000003,-0.0001,-0.00011999999999999999,-0.00027,-0.00042,-0.0008,-0.00023999999999999998,0.0003,6
29362,30313,-0.00026000000000000003,-0.0001,-0.00011999999999999999,-0.00027,-0.00042,-0.0008,-0.00023999999999999998,0.0003,6
29363,30314,-0.00026000000000000003,-0.0001,-0.00011999999999999999,-0.00027,-0.00042,-0.0008,-0.00023999999999999998,0.0003,6
29364,30315,9e-05,2e-05,2.9999999999999997e-05,0.00016,0.0004,0.00078,0.00026000000000000003,0.00049,6
29365,30316,9e-05,2e-05,2.9999999999999997e-05,0.00016,0.0004,0.00078,0.00026000000000000003,0.00049,6
29366,30317,9e-05,2e-05,2.9999999999999997e-05,0.00016,0.0004,0.00078,0.00026000000000000003,0.00049,6
29367,30318,9e-05,2e-05,2.9999999999999997e-05,0.00016,0.0004,0.00078,0.00026000000000000003,0.00049,6
29368,30319,9e-05,2e-05,2.9999999999999997e-05,0.00016,0.0004,0.00078,0.00026000000000000003,0.00049,6
29369,30320,9e-05,2e-05,2.9999999999999997e-05,0.00016,0.0004,0.00078,0.00026000000000000003,0.00049,6
29370,30321,9e-05,2e-05,2.9999999999999997e-05,0.00016,0.0004,0.00078,0.00026000000000000003,0.00049,6
29371,30322,0.00011999999999999999,2.9999999999999997e-05,4e-05,8e-05,-0.00075,0.00124,5e-05,-8e-05,6
29372,30323,0.00011999999999999999,2.9999999999999997e-05,4e-05,8e-05,-0.00075,0.00124,5e-05,-8e-05,6
29373,30324,0.00011999999999999999,2.9999999999999997e-05,4e-05,8e-05,-0.00075,0.00124,5e-05,-8e-05,6
29374,30325,0.00011999999999999999,2.9999999999999997e-05,4e-05,8e-05,-0.00075,0.00124,5e-05,-8e-05,6
29375,30326,0.00011999999999999999,2.9999999999999997e-05,4e-05,8e-05,-0.00075,0.00124,5e-05,-8e-05,6
29376,30327,0.00011999999999999999,2.9999999999999997e-05,4e-05,8e-05,-0.00075,0.00124,5e-05,-8e-05,6
29377,30328,0.00011999999999999999,2.9999999999999997e-05,4e-05,8e-05,-0.00075,0.00124,5e-05,-8e-05,6
29378,30329,0.00011999999999999999,2.9999999999999997e-05,4e-05,8e-05,-0.00075,0.00124,5e-05,-8e-05,6
29379,30330,0.00011999999999999999,2.9999999999999997e-05,4e-05,8e-05,-0.00075,0.00124,5e-05,-8e-05,6
29380,30331,0.00011999999999999999,2.9999999999999997e-05,4e-05,8e-05,-0.00075,0.00124,5e-05,-8e-05,6
29381,30332,0.00011999999999999999,2.9999999999999997e-05,4e-05,8e-05,-0.00075,0.00124,5e-05,-8e-05,6
29382,30333,0.00011999999999999999,2.9999999999999997e-05,4e-05,8e-05,-0.00075,0.00124,5e-05,-8e-05,6
29383,30334,0.00011999999999999999,2.9999999999999997e-05,4e-05,8e-05,-0.00075,0.00124,5e-05,-8e-05,6
29384,30335,0.00011999999999999999,2.9999999999999997e-05,4e-05,8e-05,-0.00075,0.00124,5e-05,-8e-05,6
29385,30337,0.00011999999999999999,2.9999999999999997e-05,4e-05,8e-05,-0.00075,0.00124,5e-05,-8e-05,6
29386,30340,0.0,-4e-05,-2e-05,5.9999999999999995e-05,0.00031,0.00042,0.00022999999999999998,-0.00033999999999999997,6
29387,30341,0.0,-4e-05,-2e-05,5.9999999999999995e-05,0.00031,0.00042,0.00022999999999999998,-0.00033999999999999997,6
29388,30342,0.0,-4e-05,-2e-05,5.9999999999999995e-05,0.00031,0.00042,0.00022999999999999998,-0.00033999999999999997,6
29389,30343,0.0,-4e-05,-2e-05,5.9999999999999995e-05,0.00031,0.00042,0.00022999999999999998,-0.00033999999999999997,6
29390,30344,0.0,-4e-05,-2e-05,5.9999999999999995e-05,0.00031,0.00042,0.00022999999999999998,-0.00033999999999999997,6
29391,30345,0.0,-4e-05,-2e-05,5.9999999999999995e-05,0.00031,0.00042,0.00022999999999999998,-0.00033999999999999997,6
29392,30346,0.0,-4e-05,-2e-05,5.9999999999999995e-05,0.00031,0.00042,0.00022999999999999998,-0.00033999999999999997,6
29393,30347,0.0,-4e-05,-2e-05,5.9999999999999995e-05,0.00031,0.00042,0.00022999999999999998,-0.00033999999999999997,6
29394,30348,0.0,-4e-05,-2e-05,5.9999999999999995e-05,0.00031,0.00042,0.00022999999999999998,-0.00033999999999999997,6
29395,30349,0.0,-4e-05,-2e-05,5.9999999999999995e-05,0.00031,0.00042,0.00022999999999999998,-0.00033999999999999997,6
29396,30350,0.0,-4e-05,-2e-05,5.9999999999999995e-05,0.00031,0.00042,0.00022999999999999998,-0.00033999999999999997,6
29397,30351,0.0,-4e-05,-2e-05,5.9999999999999995e-05,0.00031,0.00042,0.00022999999999999998,-0.00033999999999999997,6
29398,30352,0.0,-4e-05,-2e-05,5.9999999999999995e-05,0.00031,0.00042,0.00022999999999999998,-0.00033999999999999997,6
29399,30353,0.0,-4e-05,-2e-05,5.9999999999999995e-05,0.00031,0.00042,0.00022999999999999998,-0.00033999999999999997,6
29400,30354,0.0,-4e-05,-2e-05,5.9999999999999995e-05,0.00031,0.00042,0.00022999999999999998,-0.00033999999999999997,6
29401,30355,0.0,-4e-05,-2e-05,5.9999999999999995e-05,0.00031,0.00042,0.00022999999999999998,-0.00033999999999999997,6
29402,30356,0.0,-4e-05,-2e-05,5.9999999999999995e-05,0.00031,0.00042,0.00022999999999999998,-0.00033999999999999997,6
29403,30357,0.0,-4e-05,-2e-05,5.9999999999999995e-05,0.00031,0.00042,0.00022999999999999998,-0.00033999999999999997,6
29404,30358,0.0,-4e-05,-2e-05,5.9999999999999995e-05,0.00031,0.00042,0.00022999999999999998,-0.00033999999999999997,6
29405,30359,0.0,-4e-05,-2e-05,5.9999999999999995e-05,0.00031,0.00042,0.00022999999999999998,-0.00033999999999999997,6
29406,30360,0.0,-4e-05,-2e-05,5.9999999999999995e-05,0.00031,0.00042,0.00022999999999999998,-0.00033999999999999997,6
29407,30361,-5.9999999999999995e-05,-1e-05,-2.9999999999999997e-05,-2e-05,0.00011999999999999999,-0.00081,-0.00013000000000000002,-9e-05,6
29408,30362,-5.9999999999999995e-05,-1e-05,-2.9999999999999997e-05,-2e-05,0.00011999999999999999,-0.00081,-0.00013000000000000002,-9e-05,6
29409,30363,5e-05,5.9999999999999995e-05,8e-05,0.00011,0.00061,0.00099,0.00013000000000000002,0.0,6
29410,30364,5e-05,5.9999999999999995e-05,8e-05,0.00011,0.00061,0.00099,0.00013000000000000002,0.0,6
29411,30365,5e-05,5.9999999999999995e-05,8e-05,0.00011,0.00061,0.00099,0.00013000000000000002,0.0,6
29412,30366,5e-05,5.9999999999999995e-05,8e-05,0.00011,0.00061,0.00099,0.00013000000000000002,0.0,6
29413,30367,5e-05,5.9999999999999995e-05,8e-05,0.00011,0.00061,0.00099,0.00013000000000000002,0.0,6
29414,30368,5e-05,5.9999999999999995e-05,8e-05,0.00011,0.00061,0.00099,0.00013000000000000002,0.0,6
29415,30369,5e-05,5.9999999999999995e-05,8e-05,0.00011,0.00061,0.00099,0.00013000000000000002,0.0,6
29416,30370,5e-05,5.9999999999999995e-05,8e-05,0.00011,0.00061,0.00099,0.00013000000000000002,0.0,6
29417,30371,5e-05,5.9999999999999995e-05,8e-05,0.00011,0.00061,0.00099,0.00013000000000000002,0.0,6
29418,30372,5e-05,5.9999999999999995e-05,8e-05,0.00011,0.00061,0.00099,0.00013000000000000002,0.0,6
29419,30373,5e-05,5.9999999999999995e-05,8e-05,0.00011,0.00061,0.00099,0.00013000000000000002,0.0,6
29420,30374,5e-05,5.9999999999999995e-05,8e-05,0.00011,0.00061,0.00099,0.00013000000000000002,0.0,6
29421,30375,5e-05,5.9999999999999995e-05,8e-05,0.00011,0.00061,0.00099,0.00013000000000000002,0.0,6
29422,30376,-0.00015,-4e-05,-7e-05,-0.00021,-0.00084,-0.00128,-0.00036,0.00018,6
29423,30377,-0.00015,-4e-05,-7e-05,-0.00021,-0.00084,-0.00128,-0.00036,0.00018,6
29424,30378,-0.00015,-4e-05,-7e-05,-0.00021,-0.00084,-0.00128,-0.00036,0.00018,6
29425,30379,-0.00015,-4e-05,-7e-05,-0.00021,-0.00084,-0.00128,-0.00036,0.00018,6
29426,30380,-0.00015,-4e-05,-7e-05,-0.00021,-0.00084,-0.00128,-0.00036,0.00018,6
29427,30381,-0.00015,-4e-05,-7e-05,-0.00021,-0.00084,-0.00128,-0.00036,0.00018,6
29428,30382,-2e-05,-2e-05,-2e-05,-5e-05,-8e-05,-0.00056,-0.00028,-0.001,6
29429,30383,-2e-05,-2e-05,-2e-05,-5e-05,-8e-05,-0.00056,-0.00028,-0.001,6
29430,30384,-2e-05,-2e-05,-2e-05,-5e-05,-8e-05,-0.00056,-0.00028,-0.001,6
29431,30385,-2e-05,-2e-05,-2e-05,-5e-05,-8e-05,-0.00056,-0.00028,-0.001,6
29432,30386,-2e-05,-2e-05,-2e-05,-5e-05,-8e-05,-0.00056,-0.00028,-0.001,6
29433,30388,-2e-05,-2e-05,-2e-05,-5e-05,-8e-05,-0.00056,-0.00028,-0.001,6
29434,30389,-2e-05,-2e-05,-2e-05,-5e-05,-8e-05,-0.00056,-0.00028,-0.001,6
29435,30390,-2e-05,-2e-05,-2e-05,-5e-05,-8e-05,-0.00056,-0.00028,-0.001,6
29436,30391,-2e-05,-2e-05,-2e-05,-5e-05,-8e-05,-0.00056,-0.00028,-0.001,6
29437,30392,-2e-05,-2e-05,-2e-05,-5e-05,-8e-05,-0.00056,-0.00028,-0.001,6
29438,30393,-2e-05,-2e-05,-2e-05,-5e-05,-8e-05,-0.00056,-0.00028,-0.001,6
29439,30394,-2e-05,-2e-05,-2e-05,-5e-05,-8e-05,-0.00056,-0.00028,-0.001,6
29440,30395,-2e-05,-2e-05,-2e-05,-5e-05,-8e-05,-0.00056,-0.00028,-0.001,6
29441,30396,-2e-05,-2e-05,-2e-05,-5e-05,-8e-05,-0.00056,-0.00028,-0.001,6
29442,30397,-2e-05,-2e-05,-2e-05,-5e-05,-8e-05,-0.00056,-0.00028,-0.001,6
29443,30398,-8e-05,-0.00011,-0.0001,-8e-05,-0.00016999999999999999,-0.00061,-0.00045,-0.00016,6
29444,30399,0.00011999999999999999,7e-05,9e-05,0.00029,-0.00021,0.0012699999999999999,0.0008300000000000001,-0.00026000000000000003,6
29445,30400,0.0,-4e-05,-7e-05,-4e-05,-0.00049,0.00022,4e-05,-0.00025,6
29446,30401,0.0,-4e-05,-7e-05,-4e-05,-0.00049,0.00022,4e-05,-0.00025,6
29447,30402,0.0,-4e-05,-7e-05,-4e-05,-0.00049,0.00022,4e-05,-0.00025,6
29448,30403,0.0,-4e-05,-7e-05,-4e-05,-0.00049,0.00022,4e-05,-0.00025,6
29449,30404,0.0,-4e-05,-7e-05,-4e-05,-0.00049,0.00022,4e-05,-0.00025,6
29450,30405,0.0,-4e-05,-7e-05,-4e-05,-0.00049,0.00022,4e-05,-0.00025,6
29451,30406,0.0,-4e-05,-7e-05,-4e-05,-0.00049,0.00022,4e-05,-0.00025,6
29452,30407,0.0,-4e-05,-7e-05,-4e-05,-0.00049,0.00022,4e-05,-0.00025,6
29453,30408,0.0,-4e-05,-7e-05,-4e-05,-0.00049,0.00022,4e-05,-0.00025,6
29454,30409,0.0,-4e-05,-7e-05,-4e-05,-0.00049,0.00022,4e-05,-0.00025,6
29455,30410,0.0,-4e-05,-7e-05,-4e-05,-0.00049,0.00022,4e-05,-0.00025,6
29456,30411,0.0,-4e-05,-7e-05,-4e-05,-0.00049,0.00022,4e-05,-0.00025,6
29457,30412,0.0,-4e-05,-7e-05,-4e-05,-0.00049,0.00022,4e-05,-0.00025,6
29458,30413,0.0,-4e-05,-7e-05,-4e-05,-0.00049,0.00022,4e-05,-0.00025,6
29459,30414,0.0,-4e-05,-7e-05,-4e-05,-0.00049,0.00022,4e-05,-0.00025,6
29460,30415,0.0,-4e-05,-7e-05,-4e-05,-0.00049,0.00022,4e-05,-0.00025,6
29461,30416,0.0,-4e-05,-7e-05,-4e-05,-0.00049,0.00022,4e-05,-0.00025,6
29462,30417,0.0,-4e-05,-7e-05,-4e-05,-0.00049,0.00022,4e-05,-0.00025,6
29463,30418,0.0,-4e-05,-7e-05,-4e-05,-0.00049,0.00022,4e-05,-0.00025,6
29464,30419,0.0,-4e-05,-7e-05,-4e-05,-0.00049,0.00022,4e-05,-0.00025,6
29465,30420,0.0,-4e-05,-7e-05,-4e-05,-0.00049,0.00022,4e-05,-0.00025,6
29466,30421,-0.00023999999999999998,-0.00011,-0.00014,-0.00015,-5e-05,-0.00073,-0.00033,-1e-05,6
29467,30422,-0.00023999999999999998,-0.00011,-0.00014,-0.00015,-5e-05,-0.00073,-0.00033,-1e-05,6
29468,30423,-2e-05,-7e-05,-5e-05,-2e-05,0.00041,-0.00057,-2e-05,-0.0005,6
29469,30424,-2e-05,-7e-05,-5e-05,-2e-05,0.00041,-0.00057,-2e-05,-0.0005,6
29470,30425,-2e-05,-7e-05,-5e-05,-2e-05,0.00041,-0.00057,-2e-05,-0.0005,6
29471,30426,-2e-05,-7e-05,-5e-05,-2e-05,0.00041,-0.00057,-2e-05,-0.0005,6
29472,30427,-2e-05,-7e-05,-5e-05,-2e-05,0.00041,-0.00057,-2e-05,-0.0005,6
29473,30428,-2e-05,-7e-05,-5e-05,-2e-05,0.00041,-0.00057,-2e-05,-0.0005,6
29474,30429,-2e-05,-7e-05,-5e-05,-2e-05,0.00041,-0.00057,-2e-05,-0.0005,6
29475,30430,-2e-05,-7e-05,-5e-05,-2e-05,0.00041,-0.00057,-2e-05,-0.0005,6
29476,30431,-2e-05,-7e-05,-5e-05,-2e-05,0.00041,-0.00057,-2e-05,-0.0005,6
29477,30432,-2e-05,-7e-05,-5e-05,-2e-05,0.00041,-0.00057,-2e-05,-0.0005,6
29478,30433,-2e-05,-7e-05,-5e-05,-2e-05,0.00041,-0.00057,-2e-05,-0.0005,6
29479,30434,-2e-05,-7e-05,-5e-05,-2e-05,0.00041,-0.00057,-2e-05,-0.0005,6
29480,30435,-2.9999999999999997e-05,5e-05,7e-05,0.00016,4e-05,-0.0003,0.00022999999999999998,0.00114,6
29481,30437,0.0001,1e-05,0.0,4e-05,0.00112,0.00039,-2e-05,0.00014,6
29482,30439,0.0001,1e-05,0.0,4e-05,0.00112,0.00039,-2e-05,0.00014,6
29483,30440,0.0001,1e-05,0.0,4e-05,0.00112,0.00039,-2e-05,0.00014,6
29484,30441,0.0001,1e-05,0.0,4e-05,0.00112,0.00039,-2e-05,0.00014,6
29485,30442,-2e-05,1e-05,-1e-05,-0.00011999999999999999,0.00022,-0.0006900000000000001,-0.00011999999999999999,-8e-05,6
29486,30443,-2e-05,1e-05,-1e-05,-0.00011999999999999999,0.00022,-0.0006900000000000001,-0.00011999999999999999,-8e-05,6
29487,30444,-2e-05,1e-05,-1e-05,-0.00011999999999999999,0.00022,-0.0006900000000000001,-0.00011999999999999999,-8e-05,6
29488,30445,-2e-05,1e-05,-1e-05,-0.00011999999999999999,0.00022,-0.0006900000000000001,-0.00011999999999999999,-8e-05,6
29489,30446,-2e-05,1e-05,-1e-05,-0.00011999999999999999,0.00022,-0.0006900000000000001,-0.00011999999999999999,-8e-05,6
