,time,channel1,channel2,channel3,channel4,channel5,channel6,channel7,channel8,class
22781,23695,-1e-05,-2.9999999999999997e-05,1e-05,1e-05,0.0001,0.00072,7e-05,-8e-05,6
22782,23696,-1e-05,-2.9999999999999997e-05,1e-05,1e-05,0.0001,0.00072,7e-05,-8e-05,6
22783,23697,-1e-05,-2.9999999999999997e-05,1e-05,1e-05,0.0001,0.00072,7e-05,-8e-05,6
22784,23698,-1e-05,-2.9999999999999997e-05,1e-05,1e-05,0.0001,0.00072,7e-05,-8e-05,6
22785,23699,-1e-05,-2.9999999999999997e-05,1e-05,1e-05,0.0001,0.00072,7e-05,-8e-05,6
22786,23700,-1e-05,-2.9999999999999997e-05,1e-05,1e-05,0.0001,0.00072,7e-05,-8e-05,6
22787,23701,-1e-05,-2.9999999999999997e-05,1e-05,1e-05,0.0001,0.00072,7e-05,-8e-05,6
22788,23702,-1e-05,-2.9999999999999997e-05,1e-05,1e-05,0.0001,0.00072,7e-05,-8e-05,6
22789,23703,-1e-05,-2.9999999999999997e-05,1e-05,1e-05,0.0001,0.00072,7e-05,-8e-05,6
22790,23704,-1e-05,-2.9999999999999997e-05,1e-05,1e-05,0.0001,0.00072,7e-05,-8e-05,6
22791,23705,-1e-05,-2.9999999999999997e-05,1e-05,1e-05,0.0001,0.00072,7e-05,-8e-05,6
22792,23706,-1e-05,-2.9999999999999997e-05,1e-05,1e-05,0.0001,0.00072,7e-05,-8e-05,6
22793,23707,-1e-05,-2.9999999999999997e-05,1e-05,1e-05,0.0001,0.00072,7e-05,-8e-05,6
22794,23708,-1e-05,-2.9999999999999997e-05,1e-05,1e-05,0.0001,0.00072,7e-05,-8e-05,6
22795,23709,-1e-05,-2.9999999999999997e-05,1e-05,1e-05,0.0001,0.00072,7e-05,-8e-05,6
22796,23710,-1e-05,-2.9999999999999997e-05,1e-05,1e-05,0.0001,0.00072,7e-05,-8e-05,6
22797,23711,4e-05,-2.9999999999999997e-05,-2.9999999999999997e-05,-2.9999999999999997e-05,4e-05,-5e-05,0.00016999999999999999,0.00042,6
22798,23712,2.9999999999999997e-05,4e-05,5e-05,2e-05,9e-05,5e-05,-8e-05,-9e-05,6
22799,23713,2.9999999999999997e-05,4e-05,5e-05,2e-05,9e-05,5e-05,-8e-05,-9e-05,6
22800,23714,2.9999999999999997e-05,4e-05,5e-05,2e-05,9e-05,5e-05,-8e-05,-9e-05,6
22801,23715,2.9999999999999997e-05,4e-05,5e-05,2e-05,9e-05,5e-05,-8e-05,-9e-05,6
22802,23716,2.9999999999999997e-05,4e-05,5e-05,2e-05,9e-05,5e-05,-8e-05,-9e-05,6
22803,23717,2.9999999999999997e-05,4e-05,5e-05,2e-05,9e-05,5e-05,-8e-05,-9e-05,6
22804,23718,2.9999999999999997e-05,4e-05,5e-05,2e-05,9e-05,5e-05,-8e-05,-9e-05,6
22805,23719,2.9999999999999997e-05,4e-05,5e-05,2e-05,9e-05,5e-05,-8e-05,-9e-05,6
22806,23720,2.9999999999999997e-05,4e-05,5e-05,2e-05,9e-05,5e-05,-8e-05,-9e-05,6
22807,23721,2.9999999999999997e-05,4e-05,5e-05,2e-05,9e-05,5e-05,-8e-05,-9e-05,6
22808,23722,2.9999999999999997e-05,4e-05,5e-05,2e-05,9e-05,5e-05,-8e-05,-9e-05,6
22809,23723,2.9999999999999997e-05,4e-05,5e-05,2e-05,9e-05,5e-05,-8e-05,-9e-05,6
22810,23724,2.9999999999999997e-05,4e-05,5e-05,2e-05,9e-05,5e-05,-8e-05,-9e-05,6
22811,23725,2.9999999999999997e-05,4e-05,5e-05,2e-05,9e-05,5e-05,-8e-05,-9e-05,6
22812,23726,2.9999999999999997e-05,4e-05,5e-05,2e-05,9e-05,5e-05,-8e-05,-9e-05,6
22813,23727,2.9999999999999997e-05,4e-05,5e-05,2e-05,9e-05,5e-05,-8e-05,-9e-05,6
22814,23728,2.9999999999999997e-05,4e-05,5e-05,2e-05,9e-05,5e-05,-8e-05,-9e-05,6
22815,23729,2.9999999999999997e-05,4e-05,5e-05,2e-05,9e-05,5e-05,-8e-05,-9e-05,6
22816,23730,2.9999999999999997e-05,4e-05,5e-05,2e-05,9e-05,5e-05,-8e-05,-9e-05,6
22817,23731,2.9999999999999997e-05,4e-05,5e-05,2e-05,9e-05,5e-05,-8e-05,-9e-05,6
22818,23732,2.9999999999999997e-05,4e-05,5e-05,2e-05,9e-05,5e-05,-8e-05,-9e-05,6
22819,23733,-1e-05,-4e-05,-5.9999999999999995e-05,-8e-05,-1e-05,-0.00036,-0.00023999999999999998,1e-05,6
22820,23734,-1e-05,-4e-05,-5.9999999999999995e-05,-8e-05,-1e-05,-0.00036,-0.00023999999999999998,1e-05,6
22821,23735,0.0,-5.9999999999999995e-05,-7e-05,-5.9999999999999995e-05,-7e-05,-5e-05,-4e-05,8e-05,6
22822,23736,0.0,-5.9999999999999995e-05,-7e-05,-5.9999999999999995e-05,-7e-05,-5e-05,-4e-05,8e-05,6
22823,23739,0.0,-5.9999999999999995e-05,-7e-05,-5.9999999999999995e-05,-7e-05,-5e-05,-4e-05,8e-05,6
22824,23740,0.0,-5.9999999999999995e-05,-7e-05,-5.9999999999999995e-05,-7e-05,-5e-05,-4e-05,8e-05,6
22825,23741,0.0,-5.9999999999999995e-05,-7e-05,-5.9999999999999995e-05,-7e-05,-5e-05,-4e-05,8e-05,6
22826,23742,0.0,-5.9999999999999995e-05,-7e-05,-5.9999999999999995e-05,-7e-05,-5e-05,-4e-05,8e-05,6
22827,23743,0.0,-5.9999999999999995e-05,-7e-05,-5.9999999999999995e-05,-7e-05,-5e-05,-4e-05,8e-05,6
22828,23744,0.0,-5.9999999999999995e-05,-7e-05,-5.9999999999999995e-05,-7e-05,-5e-05,-4e-05,8e-05,6
22829,23745,0.0,-5.9999999999999995e-05,-7e-05,-5.9999999999999995e-05,-7e-05,-5e-05,-4e-05,8e-05,6
22830,23746,0.0,-5.9999999999999995e-05,-7e-05,-5.9999999999999995e-05,-7e-05,-5e-05,-4e-05,8e-05,6
22831,23747,0.0,-5.9999999999999995e-05,-7e-05,-5.9999999999999995e-05,-7e-05,-5e-05,-4e-05,8e-05,6
22832,23748,-2.9999999999999997e-05,-2e-05,-1e-05,0.0,0.00011999999999999999,-0.0007599999999999999,-7e-05,-4e-05,6
22833,23749,-2.9999999999999997e-05,-2e-05,-1e-05,0.0,0.00011999999999999999,-0.0007599999999999999,-7e-05,-4e-05,6
22834,23750,5.9999999999999995e-05,1e-05,2e-05,0.00011,0.0007599999999999999,0.00011999999999999999,0.0,2e-05,6
22835,23751,5.9999999999999995e-05,1e-05,2e-05,0.00011,0.0007599999999999999,0.00011999999999999999,0.0,2e-05,6
22836,23752,5.9999999999999995e-05,1e-05,2e-05,0.00011,0.0007599999999999999,0.00011999999999999999,0.0,2e-05,6
22837,23753,5.9999999999999995e-05,1e-05,2e-05,0.00011,0.0007599999999999999,0.00011999999999999999,0.0,2e-05,6
22838,23754,5.9999999999999995e-05,1e-05,2e-05,0.00011,0.0007599999999999999,0.00011999999999999999,0.0,2e-05,6
22839,23755,5.9999999999999995e-05,1e-05,2e-05,0.00011,0.0007599999999999999,0.00011999999999999999,0.0,2e-05,6
22840,23756,5.9999999999999995e-05,1e-05,2e-05,0.00011,0.0007599999999999999,0.00011999999999999999,0.0,2e-05,6
22841,23757,5.9999999999999995e-05,1e-05,2e-05,0.00011,0.0007599999999999999,0.00011999999999999999,0.0,2e-05,6
22842,23758,5.9999999999999995e-05,1e-05,2e-05,0.00011,0.0007599999999999999,0.00011999999999999999,0.0,2e-05,6
22843,23759,5.9999999999999995e-05,1e-05,2e-05,0.00011,0.0007599999999999999,0.00011999999999999999,0.0,2e-05,6
22844,23760,5.9999999999999995e-05,1e-05,2e-05,0.00011,0.0007599999999999999,0.00011999999999999999,0.0,2e-05,6
22845,23761,5.9999999999999995e-05,1e-05,2e-05,0.00011,0.0007599999999999999,0.00011999999999999999,0.0,2e-05,6
22846,23762,5.9999999999999995e-05,1e-05,2e-05,0.00011,0.0007599999999999999,0.00011999999999999999,0.0,2e-05,6
22847,23763,5.9999999999999995e-05,1e-05,2e-05,0.00011,0.0007599999999999999,0.00011999999999999999,0.0,2e-05,6
22848,23764,5.9999999999999995e-05,1e-05,2e-05,0.00011,0.0007599999999999999,0.00011999999999999999,0.0,2e-05,6
22849,23765,5.9999999999999995e-05,1e-05,2e-05,0.00011,0.0007599999999999999,0.00011999999999999999,0.0,2e-05,6
22850,23766,5.9999999999999995e-05,1e-05,2e-05,0.00011,0.0007599999999999999,0.00011999999999999999,0.0,2e-05,6
22851,23767,5.9999999999999995e-05,1e-05,2e-05,0.00011,0.0007599999999999999,0.00011999999999999999,0.0,2e-05,6
22852,23768,5.9999999999999995e-05,1e-05,2e-05,0.00011,0.0007599999999999999,0.00011999999999999999,0.0,2e-05,6
22853,23769,5.9999999999999995e-05,1e-05,2e-05,0.00011,0.0007599999999999999,0.00011999999999999999,0.0,2e-05,6
22854,23770,5.9999999999999995e-05,1e-05,2e-05,0.00011,0.0007599999999999999,0.00011999999999999999,0.0,2e-05,6
22855,23771,5.9999999999999995e-05,1e-05,2e-05,0.00011,0.0007599999999999999,0.00011999999999999999,0.0,2e-05,6
22856,23772,2.9999999999999997e-05,-4e-05,-5e-05,-5.9999999999999995e-05,-9e-05,-0.00016999999999999999,-5e-05,0.00022,6
22857,23773,8e-05,5.9999999999999995e-05,5.9999999999999995e-05,5e-05,-0.00026000000000000003,0.0003,-0.00011,0.00013000000000000002,6
22858,23774,8e-05,5.9999999999999995e-05,5.9999999999999995e-05,5e-05,-0.00026000000000000003,0.0003,-0.00011,0.00013000000000000002,6
22859,23775,8e-05,5.9999999999999995e-05,5.9999999999999995e-05,5e-05,-0.00026000000000000003,0.0003,-0.00011,0.00013000000000000002,6
22860,23776,8e-05,5.9999999999999995e-05,5.9999999999999995e-05,5e-05,-0.00026000000000000003,0.0003,-0.00011,0.00013000000000000002,6
22861,23777,8e-05,5.9999999999999995e-05,5.9999999999999995e-05,5e-05,-0.00026000000000000003,0.0003,-0.00011,0.00013000000000000002,6
22862,23778,8e-05,5.9999999999999995e-05,5.9999999999999995e-05,5e-05,-0.00026000000000000003,0.0003,-0.00011,0.00013000000000000002,6
22863,23779,8e-05,5.9999999999999995e-05,5.9999999999999995e-05,5e-05,-0.00026000000000000003,0.0003,-0.00011,0.00013000000000000002,6
22864,23780,8e-05,5.9999999999999995e-05,5.9999999999999995e-05,5e-05,-0.00026000000000000003,0.0003,-0.00011,0.00013000000000000002,6
22865,23781,8e-05,5.9999999999999995e-05,5.9999999999999995e-05,5e-05,-0.00026000000000000003,0.0003,-0.00011,0.00013000000000000002,6
22866,23782,8e-05,5.9999999999999995e-05,5.9999999999999995e-05,5e-05,-0.00026000000000000003,0.0003,-0.00011,0.00013000000000000002,6
22867,23783,8e-05,5.9999999999999995e-05,5.9999999999999995e-05,5e-05,-0.00026000000000000003,0.0003,-0.00011,0.00013000000000000002,6
22868,23784,8e-05,5.9999999999999995e-05,5.9999999999999995e-05,5e-05,-0.00026000000000000003,0.0003,-0.00011,0.00013000000000000002,6
22869,23785,8e-05,5.9999999999999995e-05,5.9999999999999995e-05,5e-05,-0.00026000000000000003,0.0003,-0.00011,0.00013000000000000002,6
22870,23786,8e-05,5.9999999999999995e-05,5.9999999999999995e-05,5e-05,-0.00026000000000000003,0.0003,-0.00011,0.00013000000000000002,6
22871,23789,8e-05,5.9999999999999995e-05,5.9999999999999995e-05,5e-05,-0.00026000000000000003,0.0003,-0.00011,0.00013000000000000002,6
22872,23790,8e-05,5.9999999999999995e-05,5.9999999999999995e-05,5e-05,-0.00026000000000000003,0.0003,-0.00011,0.00013000000000000002,6
22873,23791,8e-05,5.9999999999999995e-05,5.9999999999999995e-05,5e-05,-0.00026000000000000003,0.0003,-0.00011,0.00013000000000000002,6
22874,23792,8e-05,5.9999999999999995e-05,5.9999999999999995e-05,5e-05,-0.00026000000000000003,0.0003,-0.00011,0.00013000000000000002,6
22875,23793,-2.9999999999999997e-05,-2e-05,-2.9999999999999997e-05,-1e-05,8e-05,-7e-05,0.00018999999999999998,-2e-05,6
22876,23794,-2.9999999999999997e-05,-2e-05,-2.9999999999999997e-05,-1e-05,8e-05,-7e-05,0.00018999999999999998,-2e-05,6
22877,23795,-2.9999999999999997e-05,4e-05,1e-05,-4e-05,-0.00029,-0.0006799999999999999,0.00029,-0.00033999999999999997,6
22878,23796,-2.9999999999999997e-05,4e-05,1e-05,-4e-05,-0.00029,-0.0006799999999999999,0.00029,-0.00033999999999999997,6
22879,23797,-2.9999999999999997e-05,4e-05,1e-05,-4e-05,-0.00029,-0.0006799999999999999,0.00029,-0.00033999999999999997,6
22880,23798,-2.9999999999999997e-05,4e-05,1e-05,-4e-05,-0.00029,-0.0006799999999999999,0.00029,-0.00033999999999999997,6
22881,23799,-2.9999999999999997e-05,4e-05,1e-05,-4e-05,-0.00029,-0.0006799999999999999,0.00029,-0.00033999999999999997,6
22882,23800,-2.9999999999999997e-05,4e-05,1e-05,-4e-05,-0.00029,-0.0006799999999999999,0.00029,-0.00033999999999999997,6
22883,23801,-2.9999999999999997e-05,4e-05,1e-05,-4e-05,-0.00029,-0.0006799999999999999,0.00029,-0.00033999999999999997,6
22884,23802,-2.9999999999999997e-05,4e-05,1e-05,-4e-05,-0.00029,-0.0006799999999999999,0.00029,-0.00033999999999999997,6
22885,23803,-2.9999999999999997e-05,4e-05,1e-05,-4e-05,-0.00029,-0.0006799999999999999,0.00029,-0.00033999999999999997,6
22886,23804,-2.9999999999999997e-05,4e-05,1e-05,-4e-05,-0.00029,-0.0006799999999999999,0.00029,-0.00033999999999999997,6
22887,23805,-2.9999999999999997e-05,4e-05,1e-05,-4e-05,-0.00029,-0.0006799999999999999,0.00029,-0.00033999999999999997,6
22888,23806,-2.9999999999999997e-05,4e-05,1e-05,-4e-05,-0.00029,-0.0006799999999999999,0.00029,-0.00033999999999999997,6
22889,23807,-2.9999999999999997e-05,4e-05,1e-05,-4e-05,-0.00029,-0.0006799999999999999,0.00029,-0.00033999999999999997,6
22890,23808,-1e-05,1e-05,4e-05,5e-05,-8e-05,-0.00011,4e-05,0.00016999999999999999,6
22891,23809,-1e-05,1e-05,4e-05,5e-05,-8e-05,-0.00011,4e-05,0.00016999999999999999,6
22892,23810,-1e-05,1e-05,4e-05,5e-05,-8e-05,-0.00011,4e-05,0.00016999999999999999,6
22893,23811,-1e-05,1e-05,4e-05,5e-05,-8e-05,-0.00011,4e-05,0.00016999999999999999,6
22894,23812,-1e-05,1e-05,4e-05,5e-05,-8e-05,-0.00011,4e-05,0.00016999999999999999,6
22895,23813,-1e-05,1e-05,4e-05,5e-05,-8e-05,-0.00011,4e-05,0.00016999999999999999,6
22896,23814,-1e-05,1e-05,4e-05,5e-05,-8e-05,-0.00011,4e-05,0.00016999999999999999,6
22897,23815,-1e-05,1e-05,4e-05,5e-05,-8e-05,-0.00011,4e-05,0.00016999999999999999,6
22898,23816,-8e-05,-7e-05,-5.9999999999999995e-05,-8e-05,-7e-05,5.9999999999999995e-05,0.00015,0.00011999999999999999,6
22899,23817,-8e-05,-7e-05,-5.9999999999999995e-05,-8e-05,-7e-05,5.9999999999999995e-05,0.00015,0.00011999999999999999,6
22900,23818,-8e-05,-7e-05,-5.9999999999999995e-05,-8e-05,-7e-05,5.9999999999999995e-05,0.00015,0.00011999999999999999,6
22901,23819,-8e-05,-7e-05,-5.9999999999999995e-05,-8e-05,-7e-05,5.9999999999999995e-05,0.00015,0.00011999999999999999,6
22902,23820,-8e-05,-7e-05,-5.9999999999999995e-05,-8e-05,-7e-05,5.9999999999999995e-05,0.00015,0.00011999999999999999,6
22903,23821,-8e-05,-7e-05,-5.9999999999999995e-05,-8e-05,-7e-05,5.9999999999999995e-05,0.00015,0.00011999999999999999,6
22904,23822,-8e-05,-7e-05,-5.9999999999999995e-05,-8e-05,-7e-05,5.9999999999999995e-05,0.00015,0.00011999999999999999,6
22905,23823,-8e-05,-7e-05,-5.9999999999999995e-05,-8e-05,-7e-05,5.9999999999999995e-05,0.00015,0.00011999999999999999,6
22906,23824,-8e-05,-7e-05,-5.9999999999999995e-05,-8e-05,-7e-05,5.9999999999999995e-05,0.00015,0.00011999999999999999,6
22907,23825,-8e-05,-7e-05,-5.9999999999999995e-05,-8e-05,-7e-05,5.9999999999999995e-05,0.00015,0.00011999999999999999,6
22908,23826,-8e-05,-7e-05,-5.9999999999999995e-05,-8e-05,-7e-05,5.9999999999999995e-05,0.00015,0.00011999999999999999,6
22909,23827,-8e-05,-7e-05,-5.9999999999999995e-05,-8e-05,-7e-05,5.9999999999999995e-05,0.00015,0.00011999999999999999,6
22910,23828,-8e-05,-7e-05,-5.9999999999999995e-05,-8e-05,-7e-05,5.9999999999999995e-05,0.00015,0.00011999999999999999,6
22911,23829,-8e-05,-7e-05,-5.9999999999999995e-05,-8e-05,-7e-05,5.9999999999999995e-05,0.00015,0.00011999999999999999,6
22912,23830,-8e-05,-7e-05,-5.9999999999999995e-05,-8e-05,-7e-05,5.9999999999999995e-05,0.00015,0.00011999999999999999,6
22913,23831,-8e-05,-7e-05,-5.9999999999999995e-05,-8e-05,-7e-05,5.9999999999999995e-05,0.00015,0.00011999999999999999,6
22914,23832,-8e-05,-7e-05,-5.9999999999999995e-05,-8e-05,-7e-05,5.9999999999999995e-05,0.00015,0.00011999999999999999,6
22915,23833,-8e-05,-7e-05,-5.9999999999999995e-05,-8e-05,-7e-05,5.9999999999999995e-05,0.00015,0.00011999999999999999,6
22916,23834,-8e-05,-7e-05,-5.9999999999999995e-05,-8e-05,-7e-05,5.9999999999999995e-05,0.00015,0.00011999999999999999,6
22917,23835,-8e-05,-7e-05,-5.9999999999999995e-05,-8e-05,-7e-05,5.9999999999999995e-05,0.00015,0.00011999999999999999,6
22918,23836,-8e-05,-7e-05,-5.9999999999999995e-05,-8e-05,-7e-05,5.9999999999999995e-05,0.00015,0.00011999999999999999,6
22919,23839,-4e-05,1e-05,2.9999999999999997e-05,0.0,-0.00016,5.9999999999999995e-05,-0.00018999999999999998,-0.00033,6
22920,23840,2e-05,1e-05,0.0,-1e-05,-0.0002,-2.9999999999999997e-05,-5e-05,0.00013000000000000002,6
22921,23841,2e-05,1e-05,0.0,-1e-05,-0.0002,-2.9999999999999997e-05,-5e-05,0.00013000000000000002,6
22922,23842,2e-05,1e-05,0.0,-1e-05,-0.0002,-2.9999999999999997e-05,-5e-05,0.00013000000000000002,6
22923,23843,2e-05,1e-05,0.0,-1e-05,-0.0002,-2.9999999999999997e-05,-5e-05,0.00013000000000000002,6
22924,23844,2e-05,1e-05,0.0,-1e-05,-0.0002,-2.9999999999999997e-05,-5e-05,0.00013000000000000002,6
22925,23845,2e-05,1e-05,0.0,-1e-05,-0.0002,-2.9999999999999997e-05,-5e-05,0.00013000000000000002,6
22926,23846,2e-05,1e-05,0.0,-1e-05,-0.0002,-2.9999999999999997e-05,-5e-05,0.00013000000000000002,6
22927,23847,2e-05,1e-05,0.0,-1e-05,-0.0002,-2.9999999999999997e-05,-5e-05,0.00013000000000000002,6
22928,23848,2e-05,1e-05,0.0,-1e-05,-0.0002,-2.9999999999999997e-05,-5e-05,0.00013000000000000002,6
22929,23849,2e-05,1e-05,0.0,-1e-05,-0.0002,-2.9999999999999997e-05,-5e-05,0.00013000000000000002,6
22930,23850,2e-05,1e-05,0.0,-1e-05,-0.0002,-2.9999999999999997e-05,-5e-05,0.00013000000000000002,6
22931,23851,2e-05,1e-05,0.0,-1e-05,-0.0002,-2.9999999999999997e-05,-5e-05,0.00013000000000000002,6
22932,23852,2e-05,1e-05,0.0,-1e-05,-0.0002,-2.9999999999999997e-05,-5e-05,0.00013000000000000002,6
22933,23853,2e-05,1e-05,0.0,-1e-05,-0.0002,-2.9999999999999997e-05,-5e-05,0.00013000000000000002,6
22934,23854,5e-05,0.0,2e-05,1e-05,-5.9999999999999995e-05,-0.0002,-0.00018,0.00011,6
22935,23855,5e-05,0.0,2e-05,1e-05,-5.9999999999999995e-05,-0.0002,-0.00018,0.00011,6
22936,23856,5e-05,0.0,2e-05,1e-05,-5.9999999999999995e-05,-0.0002,-0.00018,0.00011,6
22937,23857,5e-05,0.0,2e-05,1e-05,-5.9999999999999995e-05,-0.0002,-0.00018,0.00011,6
22938,23858,5e-05,0.0,2e-05,1e-05,-5.9999999999999995e-05,-0.0002,-0.00018,0.00011,6
22939,23859,-5e-05,-7e-05,-9e-05,-5.9999999999999995e-05,-0.00022999999999999998,5e-05,-0.00014,-4e-05,6
22940,23860,-5e-05,-7e-05,-9e-05,-5.9999999999999995e-05,-0.00022999999999999998,5e-05,-0.00014,-4e-05,6
22941,23861,-5e-05,-7e-05,-9e-05,-5.9999999999999995e-05,-0.00022999999999999998,5e-05,-0.00014,-4e-05,6
22942,23862,-5e-05,-7e-05,-9e-05,-5.9999999999999995e-05,-0.00022999999999999998,5e-05,-0.00014,-4e-05,6
22943,23863,-5e-05,-7e-05,-9e-05,-5.9999999999999995e-05,-0.00022999999999999998,5e-05,-0.00014,-4e-05,6
22944,23864,-5e-05,-7e-05,-9e-05,-5.9999999999999995e-05,-0.00022999999999999998,5e-05,-0.00014,-4e-05,6
22945,23865,-5e-05,-7e-05,-9e-05,-5.9999999999999995e-05,-0.00022999999999999998,5e-05,-0.00014,-4e-05,6
22946,23866,-5e-05,-7e-05,-9e-05,-5.9999999999999995e-05,-0.00022999999999999998,5e-05,-0.00014,-4e-05,6
22947,23867,-2e-05,-5e-05,-5e-05,-4e-05,8e-05,-9e-05,-0.00018999999999999998,-2.9999999999999997e-05,6
22948,23868,-2e-05,-5e-05,-5e-05,-4e-05,8e-05,-9e-05,-0.00018999999999999998,-2.9999999999999997e-05,6
22949,23869,-2e-05,-5e-05,-5e-05,-4e-05,8e-05,-9e-05,-0.00018999999999999998,-2.9999999999999997e-05,6
22950,23870,-2e-05,-5e-05,-5e-05,-4e-05,8e-05,-9e-05,-0.00018999999999999998,-2.9999999999999997e-05,6
22951,23871,-2e-05,-5e-05,-5e-05,-4e-05,8e-05,-9e-05,-0.00018999999999999998,-2.9999999999999997e-05,6
22952,23872,-2e-05,-5e-05,-5e-05,-4e-05,8e-05,-9e-05,-0.00018999999999999998,-2.9999999999999997e-05,6
22953,23873,-2e-05,-5e-05,-5e-05,-4e-05,8e-05,-9e-05,-0.00018999999999999998,-2.9999999999999997e-05,6
22954,23874,4e-05,0.0,-1e-05,-2.9999999999999997e-05,0.00011,-0.0001,0.00011,0.001,6
22955,23875,4e-05,0.0,-1e-05,-2.9999999999999997e-05,0.00011,-0.0001,0.00011,0.001,6
22956,23876,4e-05,0.0,-1e-05,-2.9999999999999997e-05,0.00011,-0.0001,0.00011,0.001,6
22957,23877,4e-05,0.0,-1e-05,-2.9999999999999997e-05,0.00011,-0.0001,0.00011,0.001,6
22958,23878,4e-05,0.0,-1e-05,-2.9999999999999997e-05,0.00011,-0.0001,0.00011,0.001,6
22959,23879,4e-05,0.0,-1e-05,-2.9999999999999997e-05,0.00011,-0.0001,0.00011,0.001,6
22960,23880,4e-05,0.0,-1e-05,-2.9999999999999997e-05,0.00011,-0.0001,0.00011,0.001,6
22961,23881,4e-05,0.0,-1e-05,-2.9999999999999997e-05,0.00011,-0.0001,0.00011,0.001,6
22962,23882,4e-05,0.0,-1e-05,-2.9999999999999997e-05,0.00011,-0.0001,0.00011,0.001,6
22963,23883,4e-05,0.0,-1e-05,-2.9999999999999997e-05,0.00011,-0.0001,0.00011,0.001,6
22964,23884,4e-05,0.0,-1e-05,-2.9999999999999997e-05,0.00011,-0.0001,0.00011,0.001,6
22965,23885,4e-05,0.0,-1e-05,-2.9999999999999997e-05,0.00011,-0.0001,0.00011,0.001,6
22966,23886,4e-05,0.0,-1e-05,-2.9999999999999997e-05,0.00011,-0.0001,0.00011,0.001,6
22967,23888,4e-05,0.0,-1e-05,-2.9999999999999997e-05,0.00011,-0.0001,0.00011,0.001,6
22968,23889,4e-05,0.0,-1e-05,-2.9999999999999997e-05,0.00011,-0.0001,0.00011,0.001,6
22969,23890,4e-05,0.0,-1e-05,-2.9999999999999997e-05,0.00011,-0.0001,0.00011,0.001,6
22970,23891,-5.9999999999999995e-05,-5.9999999999999995e-05,-5.9999999999999995e-05,-8e-05,-7e-05,0.00016999999999999999,-0.0001,-0.0002,6
22971,23892,-5.9999999999999995e-05,-2.9999999999999997e-05,-1e-05,-2.9999999999999997e-05,-5e-05,-8e-05,-0.00028,-0.0005,6
22972,23893,-5.9999999999999995e-05,-2.9999999999999997e-05,-1e-05,-2.9999999999999997e-05,-5e-05,-8e-05,-0.00028,-0.0005,6
22973,23894,-5.9999999999999995e-05,-2.9999999999999997e-05,-1e-05,-2.9999999999999997e-05,-5e-05,-8e-05,-0.00028,-0.0005,6
22974,23895,-5.9999999999999995e-05,-2.9999999999999997e-05,-1e-05,-2.9999999999999997e-05,-5e-05,-8e-05,-0.00028,-0.0005,6
22975,23896,-5.9999999999999995e-05,-2.9999999999999997e-05,-1e-05,-2.9999999999999997e-05,-5e-05,-8e-05,-0.00028,-0.0005,6
22976,23897,-5.9999999999999995e-05,-2.9999999999999997e-05,-1e-05,-2.9999999999999997e-05,-5e-05,-8e-05,-0.00028,-0.0005,6
22977,23898,-5.9999999999999995e-05,-2.9999999999999997e-05,-1e-05,-2.9999999999999997e-05,-5e-05,-8e-05,-0.00028,-0.0005,6
22978,23899,-5.9999999999999995e-05,-2.9999999999999997e-05,-1e-05,-2.9999999999999997e-05,-5e-05,-8e-05,-0.00028,-0.0005,6
22979,23900,-5.9999999999999995e-05,-2.9999999999999997e-05,-1e-05,-2.9999999999999997e-05,-5e-05,-8e-05,-0.00028,-0.0005,6
22980,23901,-5.9999999999999995e-05,-2.9999999999999997e-05,-1e-05,-2.9999999999999997e-05,-5e-05,-8e-05,-0.00028,-0.0005,6
22981,23902,-5.9999999999999995e-05,-2.9999999999999997e-05,-1e-05,-2.9999999999999997e-05,-5e-05,-8e-05,-0.00028,-0.0005,6
22982,23903,-5.9999999999999995e-05,-2.9999999999999997e-05,-1e-05,-2.9999999999999997e-05,-5e-05,-8e-05,-0.00028,-0.0005,6
22983,23904,-5.9999999999999995e-05,-2.9999999999999997e-05,-1e-05,-2.9999999999999997e-05,-5e-05,-8e-05,-0.00028,-0.0005,6
22984,23905,-5.9999999999999995e-05,-2.9999999999999997e-05,-1e-05,-2.9999999999999997e-05,-5e-05,-8e-05,-0.00028,-0.0005,6
22985,23906,-5.9999999999999995e-05,-2.9999999999999997e-05,-1e-05,-2.9999999999999997e-05,-5e-05,-8e-05,-0.00028,-0.0005,6
22986,23907,-5.9999999999999995e-05,-2.9999999999999997e-05,-1e-05,-2.9999999999999997e-05,-5e-05,-8e-05,-0.00028,-0.0005,6
22987,23908,-5.9999999999999995e-05,-2.9999999999999997e-05,-1e-05,-2.9999999999999997e-05,-5e-05,-8e-05,-0.00028,-0.0005,6
22988,23909,-5.9999999999999995e-05,-2.9999999999999997e-05,-1e-05,-2.9999999999999997e-05,-5e-05,-8e-05,-0.00028,-0.0005,6
22989,23910,-5.9999999999999995e-05,-2.9999999999999997e-05,-1e-05,-2.9999999999999997e-05,-5e-05,-8e-05,-0.00028,-0.0005,6
22990,23911,-5.9999999999999995e-05,-2.9999999999999997e-05,-1e-05,-2.9999999999999997e-05,-5e-05,-8e-05,-0.00028,-0.0005,6
22991,23912,-5.9999999999999995e-05,-2.9999999999999997e-05,-1e-05,-2.9999999999999997e-05,-5e-05,-8e-05,-0.00028,-0.0005,6
22992,23913,-5e-05,-2.9999999999999997e-05,-5e-05,-5.9999999999999995e-05,-0.00018,0.00029,0.0,5.9999999999999995e-05,6
22993,23914,-5e-05,-2.9999999999999997e-05,-5e-05,-5.9999999999999995e-05,-0.00018,0.00029,0.0,5.9999999999999995e-05,6
22994,23915,7e-05,1e-05,1e-05,4e-05,0.00013000000000000002,0.00043,-5.9999999999999995e-05,-4e-05,6
22995,23916,7e-05,1e-05,1e-05,4e-05,0.00013000000000000002,0.00043,-5.9999999999999995e-05,-4e-05,6
22996,23917,7e-05,1e-05,1e-05,4e-05,0.00013000000000000002,0.00043,-5.9999999999999995e-05,-4e-05,6
22997,23918,7e-05,1e-05,1e-05,4e-05,0.00013000000000000002,0.00043,-5.9999999999999995e-05,-4e-05,6
22998,23919,7e-05,1e-05,1e-05,4e-05,0.00013000000000000002,0.00043,-5.9999999999999995e-05,-4e-05,6
22999,23920,7e-05,1e-05,1e-05,4e-05,0.00013000000000000002,0.00043,-5.9999999999999995e-05,-4e-05,6
23000,23921,7e-05,1e-05,1e-05,4e-05,0.00013000000000000002,0.00043,-5.9999999999999995e-05,-4e-05,6
23001,23922,7e-05,1e-05,1e-05,4e-05,0.00013000000000000002,0.00043,-5.9999999999999995e-05,-4e-05,6
23002,23923,7e-05,1e-05,1e-05,4e-05,0.00013000000000000002,0.00043,-5.9999999999999995e-05,-4e-05,6
23003,23924,7e-05,1e-05,1e-05,4e-05,0.00013000000000000002,0.00043,-5.9999999999999995e-05,-4e-05,6
23004,23925,7e-05,1e-05,1e-05,4e-05,0.00013000000000000002,0.00043,-5.9999999999999995e-05,-4e-05,6
23005,23926,7e-05,1e-05,1e-05,4e-05,0.00013000000000000002,0.00043,-5.9999999999999995e-05,-4e-05,6
23006,23927,-2e-05,-1e-05,0.0,-2.9999999999999997e-05,-2e-05,-0.00033999999999999997,-0.0004,-0.00016,6
23007,23928,-2e-05,-1e-05,0.0,-2.9999999999999997e-05,-2e-05,-0.00033999999999999997,-0.0004,-0.00016,6
23008,23929,-2e-05,-1e-05,0.0,-2.9999999999999997e-05,-2e-05,-0.00033999999999999997,-0.0004,-0.00016,6
23009,23930,-2e-05,-1e-05,0.0,-2.9999999999999997e-05,-2e-05,-0.00033999999999999997,-0.0004,-0.00016,6
23010,23931,-2e-05,-1e-05,0.0,-2.9999999999999997e-05,-2e-05,-0.00033999999999999997,-0.0004,-0.00016,6
23011,23932,-2e-05,-1e-05,0.0,-2.9999999999999997e-05,-2e-05,-0.00033999999999999997,-0.0004,-0.00016,6
23012,23933,-2e-05,-1e-05,0.0,-2.9999999999999997e-05,-2e-05,-0.00033999999999999997,-0.0004,-0.00016,6
23013,23934,5.9999999999999995e-05,1e-05,0.0,2e-05,-0.00037,-0.0004,0.00011999999999999999,0.00037,6
23014,23935,5.9999999999999995e-05,1e-05,0.0,2e-05,-0.00037,-0.0004,0.00011999999999999999,0.00037,6
23015,23936,5.9999999999999995e-05,1e-05,0.0,2e-05,-0.00037,-0.0004,0.00011999999999999999,0.00037,6
23016,23938,5.9999999999999995e-05,1e-05,0.0,2e-05,-0.00037,-0.0004,0.00011999999999999999,0.00037,6
23017,23939,5.9999999999999995e-05,1e-05,0.0,2e-05,-0.00037,-0.0004,0.00011999999999999999,0.00037,6
23018,23940,5.9999999999999995e-05,1e-05,0.0,2e-05,-0.00037,-0.0004,0.00011999999999999999,0.00037,6
23019,23941,5.9999999999999995e-05,1e-05,0.0,2e-05,-0.00037,-0.0004,0.00011999999999999999,0.00037,6
23020,23942,5.9999999999999995e-05,1e-05,0.0,2e-05,-0.00037,-0.0004,0.00011999999999999999,0.00037,6
23021,23943,5.9999999999999995e-05,1e-05,0.0,2e-05,-0.00037,-0.0004,0.00011999999999999999,0.00037,6
23022,23944,5.9999999999999995e-05,1e-05,0.0,2e-05,-0.00037,-0.0004,0.00011999999999999999,0.00037,6
23023,23945,5.9999999999999995e-05,1e-05,0.0,2e-05,-0.00037,-0.0004,0.00011999999999999999,0.00037,6
23024,23946,5.9999999999999995e-05,1e-05,0.0,2e-05,-0.00037,-0.0004,0.00011999999999999999,0.00037,6
23025,23947,5.9999999999999995e-05,1e-05,0.0,2e-05,-0.00037,-0.0004,0.00011999999999999999,0.00037,6
23026,23948,5.9999999999999995e-05,1e-05,0.0,2e-05,-0.00037,-0.0004,0.00011999999999999999,0.00037,6
23027,23949,5.9999999999999995e-05,1e-05,0.0,2e-05,-0.00037,-0.0004,0.00011999999999999999,0.00037,6
23028,23951,4e-05,2e-05,1e-05,2.9999999999999997e-05,5e-05,-0.00016,0.00016,0.00021,6
23029,23952,4e-05,2e-05,1e-05,2.9999999999999997e-05,5e-05,-0.00016,0.00016,0.00021,6
23030,23953,-4e-05,-1e-05,1e-05,-2.9999999999999997e-05,1e-05,0.0002,0.00011,-0.00018,6
23031,23954,-4e-05,-1e-05,1e-05,-2.9999999999999997e-05,1e-05,0.0002,0.00011,-0.00018,6
23032,23955,-4e-05,-1e-05,1e-05,-2.9999999999999997e-05,1e-05,0.0002,0.00011,-0.00018,6
23033,23956,-4e-05,-1e-05,1e-05,-2.9999999999999997e-05,1e-05,0.0002,0.00011,-0.00018,6
23034,23957,-4e-05,-1e-05,1e-05,-2.9999999999999997e-05,1e-05,0.0002,0.00011,-0.00018,6
23035,23958,-4e-05,-1e-05,1e-05,-2.9999999999999997e-05,1e-05,0.0002,0.00011,-0.00018,6
23036,23959,-4e-05,-1e-05,1e-05,-2.9999999999999997e-05,1e-05,0.0002,0.00011,-0.00018,6
23037,23960,-4e-05,-1e-05,1e-05,-2.9999999999999997e-05,1e-05,0.0002,0.00011,-0.00018,6
23038,23961,-4e-05,-1e-05,1e-05,-2.9999999999999997e-05,1e-05,0.0002,0.00011,-0.00018,6
23039,23962,-4e-05,-1e-05,1e-05,-2.9999999999999997e-05,1e-05,0.0002,0.00011,-0.00018,6
23040,23963,-4e-05,-1e-05,1e-05,-2.9999999999999997e-05,1e-05,0.0002,0.00011,-0.00018,6
23041,23964,-4e-05,-1e-05,1e-05,-2.9999999999999997e-05,1e-05,0.0002,0.00011,-0.00018,6
23042,23965,-4e-05,-1e-05,1e-05,-2.9999999999999997e-05,1e-05,0.0002,0.00011,-0.00018,6
23043,23966,-4e-05,-1e-05,1e-05,-2.9999999999999997e-05,1e-05,0.0002,0.00011,-0.00018,6
23044,23967,-4e-05,-1e-05,1e-05,-2.9999999999999997e-05,1e-05,0.0002,0.00011,-0.00018,6
23045,23968,-4e-05,-1e-05,1e-05,-2.9999999999999997e-05,1e-05,0.0002,0.00011,-0.00018,6
23046,23969,-4e-05,-1e-05,1e-05,-2.9999999999999997e-05,1e-05,0.0002,0.00011,-0.00018,6
23047,23970,-4e-05,-1e-05,1e-05,-2.9999999999999997e-05,1e-05,0.0002,0.00011,-0.00018,6
23048,23971,-4e-05,-1e-05,1e-05,-2.9999999999999997e-05,1e-05,0.0002,0.00011,-0.00018,6
23049,23972,-4e-05,-1e-05,1e-05,-2.9999999999999997e-05,1e-05,0.0002,0.00011,-0.00018,6
23050,23973,4e-05,1e-05,-1e-05,2.9999999999999997e-05,5.9999999999999995e-05,0.00122,4e-05,0.0,6
23051,23974,4e-05,1e-05,-1e-05,2.9999999999999997e-05,5.9999999999999995e-05,0.00122,4e-05,0.0,6
23052,23975,2e-05,-2e-05,-2.9999999999999997e-05,-1e-05,0.00033,-2e-05,-1e-05,-1e-05,6
23053,23976,2e-05,-2e-05,-2.9999999999999997e-05,-1e-05,0.00033,-2e-05,-1e-05,-1e-05,6
23054,23977,2e-05,-2e-05,-2.9999999999999997e-05,-1e-05,0.00033,-2e-05,-1e-05,-1e-05,6
23055,23978,2e-05,-2e-05,-2.9999999999999997e-05,-1e-05,0.00033,-2e-05,-1e-05,-1e-05,6
23056,23979,2e-05,-2e-05,-2.9999999999999997e-05,-1e-05,0.00033,-2e-05,-1e-05,-1e-05,6
23057,23980,2e-05,-2e-05,-2.9999999999999997e-05,-1e-05,0.00033,-2e-05,-1e-05,-1e-05,6
23058,23981,2e-05,-2e-05,-2.9999999999999997e-05,-1e-05,0.00033,-2e-05,-1e-05,-1e-05,6
23059,23982,2e-05,-2e-05,-2.9999999999999997e-05,-1e-05,0.00033,-2e-05,-1e-05,-1e-05,6
23060,23983,2e-05,-2e-05,-2.9999999999999997e-05,-1e-05,0.00033,-2e-05,-1e-05,-1e-05,6
23061,23984,2e-05,-2e-05,-2.9999999999999997e-05,-1e-05,0.00033,-2e-05,-1e-05,-1e-05,6
23062,23985,2e-05,-2e-05,-2.9999999999999997e-05,-1e-05,0.00033,-2e-05,-1e-05,-1e-05,6
23063,23986,2e-05,-2e-05,-2.9999999999999997e-05,-1e-05,0.00033,-2e-05,-1e-05,-1e-05,6
23064,23989,-2.9999999999999997e-05,-5e-05,-4e-05,-2.9999999999999997e-05,0.00026000000000000003,-0.00022999999999999998,-8e-05,-1e-05,6
23065,23990,-2.9999999999999997e-05,-5e-05,-4e-05,-2.9999999999999997e-05,0.00026000000000000003,-0.00022999999999999998,-8e-05,-1e-05,6
23066,23991,-2.9999999999999997e-05,-5e-05,-4e-05,-2.9999999999999997e-05,0.00026000000000000003,-0.00022999999999999998,-8e-05,-1e-05,6
23067,23992,-2.9999999999999997e-05,-5e-05,-4e-05,-2.9999999999999997e-05,0.00026000000000000003,-0.00022999999999999998,-8e-05,-1e-05,6
23068,23993,-2.9999999999999997e-05,-5e-05,-4e-05,-2.9999999999999997e-05,0.00026000000000000003,-0.00022999999999999998,-8e-05,-1e-05,6
23069,23994,5.9999999999999995e-05,2e-05,0.0,2.9999999999999997e-05,0.0002,2.9999999999999997e-05,-0.00013000000000000002,0.00018999999999999998,6
23070,23995,5.9999999999999995e-05,2e-05,0.0,2.9999999999999997e-05,0.0002,2.9999999999999997e-05,-0.00013000000000000002,0.00018999999999999998,6
23071,23996,5.9999999999999995e-05,2e-05,0.0,2.9999999999999997e-05,0.0002,2.9999999999999997e-05,-0.00013000000000000002,0.00018999999999999998,6
23072,23997,5.9999999999999995e-05,2e-05,0.0,2.9999999999999997e-05,0.0002,2.9999999999999997e-05,-0.00013000000000000002,0.00018999999999999998,6
23073,23998,5.9999999999999995e-05,2e-05,0.0,2.9999999999999997e-05,0.0002,2.9999999999999997e-05,-0.00013000000000000002,0.00018999999999999998,6
23074,23999,5.9999999999999995e-05,2e-05,0.0,2.9999999999999997e-05,0.0002,2.9999999999999997e-05,-0.00013000000000000002,0.00018999999999999998,6
23075,24000,5.9999999999999995e-05,2e-05,0.0,2.9999999999999997e-05,0.0002,2.9999999999999997e-05,-0.00013000000000000002,0.00018999999999999998,6
23076,24001,5.9999999999999995e-05,2e-05,0.0,2.9999999999999997e-05,0.0002,2.9999999999999997e-05,-0.00013000000000000002,0.00018999999999999998,6
23077,24002,5.9999999999999995e-05,2e-05,0.0,2.9999999999999997e-05,0.0002,2.9999999999999997e-05,-0.00013000000000000002,0.00018999999999999998,6
23078,24003,5.9999999999999995e-05,2e-05,0.0,2.9999999999999997e-05,0.0002,2.9999999999999997e-05,-0.00013000000000000002,0.00018999999999999998,6
23079,24004,5.9999999999999995e-05,2e-05,0.0,2.9999999999999997e-05,0.0002,2.9999999999999997e-05,-0.00013000000000000002,0.00018999999999999998,6
23080,24005,5.9999999999999995e-05,2e-05,0.0,2.9999999999999997e-05,0.0002,2.9999999999999997e-05,-0.00013000000000000002,0.00018999999999999998,6
23081,24006,5.9999999999999995e-05,2e-05,0.0,2.9999999999999997e-05,0.0002,2.9999999999999997e-05,-0.00013000000000000002,0.00018999999999999998,6
23082,24007,5.9999999999999995e-05,2e-05,0.0,2.9999999999999997e-05,0.0002,2.9999999999999997e-05,-0.00013000000000000002,0.00018999999999999998,6
23083,24008,5.9999999999999995e-05,2e-05,0.0,2.9999999999999997e-05,0.0002,2.9999999999999997e-05,-0.00013000000000000002,0.00018999999999999998,6
23084,24009,5.9999999999999995e-05,2e-05,0.0,2.9999999999999997e-05,0.0002,2.9999999999999997e-05,-0.00013000000000000002,0.00018999999999999998,6
23085,24010,5.9999999999999995e-05,2e-05,0.0,2.9999999999999997e-05,0.0002,2.9999999999999997e-05,-0.00013000000000000002,0.00018999999999999998,6
23086,24011,1e-05,1e-05,-1e-05,5e-05,-0.00015,-0.00053,-7e-05,2e-05,6
23087,24012,-2.9999999999999997e-05,-2e-05,-1e-05,-2e-05,-0.00016,-0.0002,0.00037,0.00022999999999999998,6
23088,24013,-2.9999999999999997e-05,-2e-05,-1e-05,-2e-05,-0.00016,-0.0002,0.00037,0.00022999999999999998,6
23089,24014,-2.9999999999999997e-05,-2e-05,-1e-05,-2e-05,-0.00016,-0.0002,0.00037,0.00022999999999999998,6
23090,24015,-2.9999999999999997e-05,-2e-05,-1e-05,-2e-05,-0.00016,-0.0002,0.00037,0.00022999999999999998,6
23091,24016,-2.9999999999999997e-05,-2e-05,-1e-05,-2e-05,-0.00016,-0.0002,0.00037,0.00022999999999999998,6
23092,24017,-2.9999999999999997e-05,-2e-05,-1e-05,-2e-05,-0.00016,-0.0002,0.00037,0.00022999999999999998,6
23093,24018,-2.9999999999999997e-05,-2e-05,-1e-05,-2e-05,-0.00016,-0.0002,0.00037,0.00022999999999999998,6
23094,24019,-2.9999999999999997e-05,-2e-05,-1e-05,-2e-05,-0.00016,-0.0002,0.00037,0.00022999999999999998,6
23095,24020,-2.9999999999999997e-05,-2e-05,-1e-05,-2e-05,-0.00016,-0.0002,0.00037,0.00022999999999999998,6
23096,24021,-2.9999999999999997e-05,-2e-05,-1e-05,-2e-05,-0.00016,-0.0002,0.00037,0.00022999999999999998,6
23097,24022,-2.9999999999999997e-05,-2e-05,-1e-05,-2e-05,-0.00016,-0.0002,0.00037,0.00022999999999999998,6
23098,24023,-2.9999999999999997e-05,-2e-05,-1e-05,-2e-05,-0.00016,-0.0002,0.00037,0.00022999999999999998,6
23099,24024,-2.9999999999999997e-05,-2e-05,-1e-05,-2e-05,-0.00016,-0.0002,0.00037,0.00022999999999999998,6
23100,24025,-2.9999999999999997e-05,-2e-05,-1e-05,-2e-05,-0.00016,-0.0002,0.00037,0.00022999999999999998,6
23101,24026,-2.9999999999999997e-05,-2e-05,-1e-05,-2e-05,-0.00016,-0.0002,0.00037,0.00022999999999999998,6
23102,24027,-2.9999999999999997e-05,-2e-05,-1e-05,-2e-05,-0.00016,-0.0002,0.00037,0.00022999999999999998,6
23103,24028,-2.9999999999999997e-05,-2e-05,-1e-05,-2e-05,-0.00016,-0.0002,0.00037,0.00022999999999999998,6
23104,24029,-2.9999999999999997e-05,-2e-05,-1e-05,-2e-05,-0.00016,-0.0002,0.00037,0.00022999999999999998,6
23105,24030,-2.9999999999999997e-05,-2e-05,-1e-05,-2e-05,-0.00016,-0.0002,0.00037,0.00022999999999999998,6
23106,24031,-2.9999999999999997e-05,-2e-05,-1e-05,-2e-05,-0.00016,-0.0002,0.00037,0.00022999999999999998,6
23107,24032,-2.9999999999999997e-05,-2e-05,-1e-05,-2e-05,-0.00016,-0.0002,0.00037,0.00022999999999999998,6
23108,24033,2.9999999999999997e-05,-4e-05,-5e-05,-5e-05,0.0001,0.00045,0.00011999999999999999,-9e-05,6
23109,24034,2.9999999999999997e-05,-4e-05,-5e-05,-5e-05,0.0001,0.00045,0.00011999999999999999,-9e-05,6
23110,24035,-5e-05,-1e-05,2e-05,0.0,-5.9999999999999995e-05,5e-05,-0.0001,-5.9999999999999995e-05,6
23111,24036,-5e-05,-1e-05,2e-05,0.0,-5.9999999999999995e-05,5e-05,-0.0001,-5.9999999999999995e-05,6
23112,24038,-5e-05,-1e-05,2e-05,0.0,-5.9999999999999995e-05,5e-05,-0.0001,-5.9999999999999995e-05,6
23113,24039,-5e-05,-1e-05,2e-05,0.0,-5.9999999999999995e-05,5e-05,-0.0001,-5.9999999999999995e-05,6
23114,24040,-5e-05,-1e-05,2e-05,0.0,-5.9999999999999995e-05,5e-05,-0.0001,-5.9999999999999995e-05,6
23115,24041,-5e-05,-1e-05,2e-05,0.0,-5.9999999999999995e-05,5e-05,-0.0001,-5.9999999999999995e-05,6
23116,24042,-5e-05,-1e-05,2e-05,0.0,-5.9999999999999995e-05,5e-05,-0.0001,-5.9999999999999995e-05,6
23117,24043,-5e-05,-1e-05,2e-05,0.0,-5.9999999999999995e-05,5e-05,-0.0001,-5.9999999999999995e-05,6
23118,24044,-5e-05,-1e-05,2e-05,0.0,-5.9999999999999995e-05,5e-05,-0.0001,-5.9999999999999995e-05,6
23119,24045,-5e-05,-1e-05,2e-05,0.0,-5.9999999999999995e-05,5e-05,-0.0001,-5.9999999999999995e-05,6
23120,24046,-5e-05,-1e-05,2e-05,0.0,-5.9999999999999995e-05,5e-05,-0.0001,-5.9999999999999995e-05,6
23121,24047,-7e-05,-2e-05,2e-05,-2e-05,-0.0001,-0.0001,-1e-05,-0.0002,6
23122,24048,-7e-05,-2e-05,2e-05,-2e-05,-0.0001,-0.0001,-1e-05,-0.0002,6
23123,24049,-7e-05,-2e-05,2e-05,-2e-05,-0.0001,-0.0001,-1e-05,-0.0002,6
23124,24050,-7e-05,-2e-05,2e-05,-2e-05,-0.0001,-0.0001,-1e-05,-0.0002,6
23125,24051,-7e-05,-2e-05,2e-05,-2e-05,-0.0001,-0.0001,-1e-05,-0.0002,6
23126,24052,-7e-05,-2e-05,2e-05,-2e-05,-0.0001,-0.0001,-1e-05,-0.0002,6
23127,24053,-7e-05,-2e-05,2e-05,-2e-05,-0.0001,-0.0001,-1e-05,-0.0002,6
23128,24054,-8e-05,-4e-05,-2.9999999999999997e-05,-4e-05,2e-05,-4e-05,-0.00016999999999999999,-0.00041,6
23129,24055,-8e-05,-4e-05,-2.9999999999999997e-05,-4e-05,2e-05,-4e-05,-0.00016999999999999999,-0.00041,6
23130,24056,-8e-05,-4e-05,-2.9999999999999997e-05,-4e-05,2e-05,-4e-05,-0.00016999999999999999,-0.00041,6
23131,24057,-8e-05,-4e-05,-2.9999999999999997e-05,-4e-05,2e-05,-4e-05,-0.00016999999999999999,-0.00041,6
23132,24058,-8e-05,-4e-05,-2.9999999999999997e-05,-4e-05,2e-05,-4e-05,-0.00016999999999999999,-0.00041,6
23133,24059,-8e-05,-4e-05,-2.9999999999999997e-05,-4e-05,2e-05,-4e-05,-0.00016999999999999999,-0.00041,6
23134,24060,-8e-05,-4e-05,-2.9999999999999997e-05,-4e-05,2e-05,-4e-05,-0.00016999999999999999,-0.00041,6
23135,24061,-8e-05,-4e-05,-2.9999999999999997e-05,-4e-05,2e-05,-4e-05,-0.00016999999999999999,-0.00041,6
23136,24062,-8e-05,-4e-05,-2.9999999999999997e-05,-4e-05,2e-05,-4e-05,-0.00016999999999999999,-0.00041,6
23137,24063,-8e-05,-4e-05,-2.9999999999999997e-05,-4e-05,2e-05,-4e-05,-0.00016999999999999999,-0.00041,6
23138,24064,-8e-05,-4e-05,-2.9999999999999997e-05,-4e-05,2e-05,-4e-05,-0.00016999999999999999,-0.00041,6
23139,24065,-8e-05,-4e-05,-2.9999999999999997e-05,-4e-05,2e-05,-4e-05,-0.00016999999999999999,-0.00041,6
23140,24066,-8e-05,-4e-05,-2.9999999999999997e-05,-4e-05,2e-05,-4e-05,-0.00016999999999999999,-0.00041,6
23141,24067,-8e-05,-4e-05,-2.9999999999999997e-05,-4e-05,2e-05,-4e-05,-0.00016999999999999999,-0.00041,6
23142,24068,-8e-05,-4e-05,-2.9999999999999997e-05,-4e-05,2e-05,-4e-05,-0.00016999999999999999,-0.00041,6
23143,24069,-8e-05,-4e-05,-2.9999999999999997e-05,-4e-05,2e-05,-4e-05,-0.00016999999999999999,-0.00041,6
23144,24070,-8e-05,-4e-05,-2.9999999999999997e-05,-4e-05,2e-05,-4e-05,-0.00016999999999999999,-0.00041,6
23145,24071,-4e-05,0.0,-1e-05,-2.9999999999999997e-05,-0.00016999999999999999,-0.0007599999999999999,0.00018999999999999998,0.00032,6
23146,24072,-2e-05,-2e-05,-2e-05,-1e-05,-4e-05,-0.00011999999999999999,-0.00044,-0.00029,6
23147,24073,-2e-05,-2e-05,-2e-05,-1e-05,-4e-05,-0.00011999999999999999,-0.00044,-0.00029,6
23148,24074,-2e-05,-2e-05,-2e-05,-1e-05,-4e-05,-0.00011999999999999999,-0.00044,-0.00029,6
23149,24075,-2e-05,-2e-05,-2e-05,-1e-05,-4e-05,-0.00011999999999999999,-0.00044,-0.00029,6
23150,24076,-2e-05,-2e-05,-2e-05,-1e-05,-4e-05,-0.00011999999999999999,-0.00044,-0.00029,6
23151,24077,-2e-05,-2e-05,-2e-05,-1e-05,-4e-05,-0.00011999999999999999,-0.00044,-0.00029,6
23152,24078,-2e-05,-2e-05,-2e-05,-1e-05,-4e-05,-0.00011999999999999999,-0.00044,-0.00029,6
23153,24079,-2e-05,-2e-05,-2e-05,-1e-05,-4e-05,-0.00011999999999999999,-0.00044,-0.00029,6
23154,24080,-2e-05,-2e-05,-2e-05,-1e-05,-4e-05,-0.00011999999999999999,-0.00044,-0.00029,6
23155,24081,-2e-05,-2e-05,-2e-05,-1e-05,-4e-05,-0.00011999999999999999,-0.00044,-0.00029,6
23156,24082,-2e-05,-2e-05,-2e-05,-1e-05,-4e-05,-0.00011999999999999999,-0.00044,-0.00029,6
23157,24083,-2e-05,-2e-05,-2e-05,-1e-05,-4e-05,-0.00011999999999999999,-0.00044,-0.00029,6
23158,24084,-2e-05,-2e-05,-2e-05,-1e-05,-4e-05,-0.00011999999999999999,-0.00044,-0.00029,6
23159,24085,-2e-05,-2e-05,-2e-05,-1e-05,-4e-05,-0.00011999999999999999,-0.00044,-0.00029,6
23160,24086,-2e-05,-2e-05,-2e-05,-1e-05,-4e-05,-0.00011999999999999999,-0.00044,-0.00029,6
23161,24088,-2e-05,-2e-05,-2e-05,-1e-05,-4e-05,-0.00011999999999999999,-0.00044,-0.00029,6
23162,24089,-2e-05,-2e-05,-2e-05,-1e-05,-4e-05,-0.00011999999999999999,-0.00044,-0.00029,6
23163,24090,-2e-05,-2e-05,-2e-05,-1e-05,-4e-05,-0.00011999999999999999,-0.00044,-0.00029,6
23164,24091,-2e-05,-2e-05,-2e-05,-1e-05,-4e-05,-0.00011999999999999999,-0.00044,-0.00029,6
23165,24092,-2e-05,-2e-05,-2e-05,-1e-05,-4e-05,-0.00011999999999999999,-0.00044,-0.00029,6
23166,24093,7e-05,1e-05,0.0,1e-05,0.00011999999999999999,0.00047000000000000004,0.00015,0.00039,6
23167,24094,7e-05,1e-05,0.0,1e-05,0.00011999999999999999,0.00047000000000000004,0.00015,0.00039,6
23168,24095,-2e-05,1e-05,2e-05,2e-05,0.00011,-0.00015,0.00014,8e-05,6
23169,24096,-2e-05,1e-05,2e-05,2e-05,0.00011,-0.00015,0.00014,8e-05,6
23170,24097,-2e-05,1e-05,2e-05,2e-05,0.00011,-0.00015,0.00014,8e-05,6
23171,24098,-2e-05,1e-05,2e-05,2e-05,0.00011,-0.00015,0.00014,8e-05,6
23172,24099,-2e-05,1e-05,2e-05,2e-05,0.00011,-0.00015,0.00014,8e-05,6
23173,24100,-2e-05,1e-05,2e-05,2e-05,0.00011,-0.00015,0.00014,8e-05,6
23174,24101,-2e-05,1e-05,2e-05,2e-05,0.00011,-0.00015,0.00014,8e-05,6
23175,24102,-2e-05,1e-05,2e-05,2e-05,0.00011,-0.00015,0.00014,8e-05,6
23176,24103,-2e-05,1e-05,2e-05,2e-05,0.00011,-0.00015,0.00014,8e-05,6
23177,24104,-2e-05,1e-05,2e-05,2e-05,0.00011,-0.00015,0.00014,8e-05,6
23178,24105,-2e-05,1e-05,2e-05,2e-05,0.00011,-0.00015,0.00014,8e-05,6
23179,24106,-2e-05,1e-05,2e-05,2e-05,0.00011,-0.00015,0.00014,8e-05,6
23180,24107,-2e-05,1e-05,2e-05,2e-05,0.00011,-0.00015,0.00014,8e-05,6
23181,24108,-2e-05,1e-05,2e-05,2e-05,0.00011,-0.00015,0.00014,8e-05,6
23182,24109,-2e-05,1e-05,2e-05,2e-05,0.00011,-0.00015,0.00014,8e-05,6
23183,24110,-2e-05,1e-05,2e-05,2e-05,0.00011,-0.00015,0.00014,8e-05,6
23184,24111,-2e-05,1e-05,2e-05,2e-05,0.00011,-0.00015,0.00014,8e-05,6
23185,24112,-2e-05,1e-05,2e-05,2e-05,0.00011,-0.00015,0.00014,8e-05,6
23186,24113,-2e-05,1e-05,2e-05,2e-05,0.00011,-0.00015,0.00014,8e-05,6
23187,24114,-2e-05,1e-05,2e-05,2e-05,0.00011,-0.00015,0.00014,8e-05,6
23188,24115,-2e-05,1e-05,2e-05,2e-05,0.00011,-0.00015,0.00014,8e-05,6
23189,24116,4e-05,-2.9999999999999997e-05,0.0,0.0,0.00014,0.00022,1e-05,1e-05,6
23190,24117,-2e-05,0.0,-2e-05,-2.9999999999999997e-05,-7e-05,0.00031,0.00022,-5e-05,6
23191,24118,-2e-05,0.0,-2e-05,-2.9999999999999997e-05,-7e-05,0.00031,0.00022,-5e-05,6
23192,24119,-2e-05,0.0,-2e-05,-2.9999999999999997e-05,-7e-05,0.00031,0.00022,-5e-05,6
23193,24120,-2e-05,0.0,-2e-05,-2.9999999999999997e-05,-7e-05,0.00031,0.00022,-5e-05,6
23194,24121,-2e-05,0.0,-2e-05,-2.9999999999999997e-05,-7e-05,0.00031,0.00022,-5e-05,6
23195,24122,-2e-05,0.0,-2e-05,-2.9999999999999997e-05,-7e-05,0.00031,0.00022,-5e-05,6
23196,24123,-2e-05,0.0,-2e-05,-2.9999999999999997e-05,-7e-05,0.00031,0.00022,-5e-05,6
23197,24124,-2e-05,0.0,-2e-05,-2.9999999999999997e-05,-7e-05,0.00031,0.00022,-5e-05,6
23198,24125,-2e-05,0.0,-2e-05,-2.9999999999999997e-05,-7e-05,0.00031,0.00022,-5e-05,6
23199,24126,-2e-05,0.0,-2e-05,-2.9999999999999997e-05,-7e-05,0.00031,0.00022,-5e-05,6
23200,24127,-2e-05,0.0,-2e-05,-2.9999999999999997e-05,-7e-05,0.00031,0.00022,-5e-05,6
23201,24128,-2e-05,0.0,-2e-05,-2.9999999999999997e-05,-7e-05,0.00031,0.00022,-5e-05,6
23202,24129,-2e-05,0.0,-2e-05,-2.9999999999999997e-05,-7e-05,0.00031,0.00022,-5e-05,6
23203,24130,-2e-05,0.0,-2e-05,-2.9999999999999997e-05,-7e-05,0.00031,0.00022,-5e-05,6
23204,24131,4e-05,1e-05,2.9999999999999997e-05,2.9999999999999997e-05,1e-05,0.0001,1e-05,-0.00016999999999999999,6
23205,24132,-1e-05,-2.9999999999999997e-05,-4e-05,-4e-05,-1e-05,-4e-05,-7e-05,-0.00018,6
23206,24133,-1e-05,-2.9999999999999997e-05,-4e-05,-4e-05,-1e-05,-4e-05,-7e-05,-0.00018,6
23207,24134,-1e-05,-2.9999999999999997e-05,-4e-05,-4e-05,-1e-05,-4e-05,-7e-05,-0.00018,6
23208,24135,-1e-05,-2.9999999999999997e-05,-4e-05,-4e-05,-1e-05,-4e-05,-7e-05,-0.00018,6
23209,24136,-1e-05,-2.9999999999999997e-05,-4e-05,-4e-05,-1e-05,-4e-05,-7e-05,-0.00018,6
23210,24138,-1e-05,-2.9999999999999997e-05,-4e-05,-4e-05,-1e-05,-4e-05,-7e-05,-0.00018,6
23211,24139,-1e-05,-2.9999999999999997e-05,-4e-05,-4e-05,-1e-05,-4e-05,-7e-05,-0.00018,6
23212,24140,-1e-05,-2.9999999999999997e-05,-4e-05,-4e-05,-1e-05,-4e-05,-7e-05,-0.00018,6
23213,24141,-1e-05,-2.9999999999999997e-05,-4e-05,-4e-05,-1e-05,-4e-05,-7e-05,-0.00018,6
23214,24142,-1e-05,-2.9999999999999997e-05,-4e-05,-4e-05,-1e-05,-4e-05,-7e-05,-0.00018,6
23215,24143,-1e-05,-2.9999999999999997e-05,-4e-05,-4e-05,-1e-05,-4e-05,-7e-05,-0.00018,6
23216,24144,-1e-05,-2.9999999999999997e-05,-4e-05,-4e-05,-1e-05,-4e-05,-7e-05,-0.00018,6
23217,24145,-1e-05,-2.9999999999999997e-05,-4e-05,-4e-05,-1e-05,-4e-05,-7e-05,-0.00018,6
23218,24146,-1e-05,-2.9999999999999997e-05,-4e-05,-4e-05,-1e-05,-4e-05,-7e-05,-0.00018,6
23219,24147,-1e-05,-2.9999999999999997e-05,-4e-05,-4e-05,-1e-05,-4e-05,-7e-05,-0.00018,6
23220,24148,-1e-05,-2.9999999999999997e-05,-4e-05,-4e-05,-1e-05,-4e-05,-7e-05,-0.00018,6
23221,24149,-1e-05,-2.9999999999999997e-05,-4e-05,-4e-05,-1e-05,-4e-05,-7e-05,-0.00018,6
23222,24150,-1e-05,-2.9999999999999997e-05,-4e-05,-4e-05,-1e-05,-4e-05,-7e-05,-0.00018,6
23223,24151,-1e-05,-2.9999999999999997e-05,-4e-05,-4e-05,-1e-05,-4e-05,-7e-05,-0.00018,6
23224,24152,-1e-05,-2.9999999999999997e-05,-4e-05,-4e-05,-1e-05,-4e-05,-7e-05,-0.00018,6
23225,24153,1e-05,-1e-05,1e-05,0.0,0.0,-5e-05,0.0,-5.9999999999999995e-05,6
23226,24154,-2.9999999999999997e-05,0.0,0.0,-2e-05,-2.9999999999999997e-05,7e-05,-5e-05,-1e-05,6
23227,24155,-2.9999999999999997e-05,1e-05,0.0,-2e-05,-0.00015,5.9999999999999995e-05,-0.00016999999999999999,-0.00022999999999999998,6
23228,24156,-2.9999999999999997e-05,1e-05,0.0,-2e-05,-0.00015,5.9999999999999995e-05,-0.00016999999999999999,-0.00022999999999999998,6
23229,24157,-2.9999999999999997e-05,1e-05,0.0,-2e-05,-0.00015,5.9999999999999995e-05,-0.00016999999999999999,-0.00022999999999999998,6
23230,24158,-2.9999999999999997e-05,1e-05,0.0,-2e-05,-0.00015,5.9999999999999995e-05,-0.00016999999999999999,-0.00022999999999999998,6
23231,24159,-2.9999999999999997e-05,1e-05,0.0,-2e-05,-0.00015,5.9999999999999995e-05,-0.00016999999999999999,-0.00022999999999999998,6
23232,24160,-2.9999999999999997e-05,1e-05,0.0,-2e-05,-0.00015,5.9999999999999995e-05,-0.00016999999999999999,-0.00022999999999999998,6
23233,24161,-2.9999999999999997e-05,1e-05,0.0,-2e-05,-0.00015,5.9999999999999995e-05,-0.00016999999999999999,-0.00022999999999999998,6
23234,24162,-2.9999999999999997e-05,1e-05,0.0,-2e-05,-0.00015,5.9999999999999995e-05,-0.00016999999999999999,-0.00022999999999999998,6
23235,24163,-2.9999999999999997e-05,1e-05,0.0,-2e-05,-0.00015,5.9999999999999995e-05,-0.00016999999999999999,-0.00022999999999999998,6
23236,24164,-2.9999999999999997e-05,1e-05,0.0,-2e-05,-0.00015,5.9999999999999995e-05,-0.00016999999999999999,-0.00022999999999999998,6
23237,24165,-2.9999999999999997e-05,1e-05,0.0,-2e-05,-0.00015,5.9999999999999995e-05,-0.00016999999999999999,-0.00022999999999999998,6
23238,24166,-2e-05,2e-05,0.0,2.9999999999999997e-05,0.00013000000000000002,7e-05,0.00014,0.0,6
23239,24167,-2e-05,0.0,0.0,0.0,-0.0002,-0.00057,-0.00033,0.00022,6
23240,24168,-2e-05,0.0,0.0,0.0,-0.0002,-0.00057,-0.00033,0.00022,6
23241,24169,-2e-05,0.0,0.0,0.0,-0.0002,-0.00057,-0.00033,0.00022,6
23242,24170,-2e-05,0.0,0.0,0.0,-0.0002,-0.00057,-0.00033,0.00022,6
23243,24171,-2e-05,0.0,0.0,0.0,-0.0002,-0.00057,-0.00033,0.00022,6
23244,24172,-2e-05,0.0,0.0,0.0,-0.0002,-0.00057,-0.00033,0.00022,6
23245,24173,-2e-05,0.0,0.0,0.0,-0.0002,-0.00057,-0.00033,0.00022,6
23246,24174,-2e-05,0.0,0.0,0.0,-0.0002,-0.00057,-0.00033,0.00022,6
23247,24175,-2e-05,0.0,0.0,0.0,-0.0002,-0.00057,-0.00033,0.00022,6
23248,24176,-1e-05,2e-05,2.9999999999999997e-05,4e-05,4e-05,7e-05,5.9999999999999995e-05,0.0001,6
23249,24177,-1e-05,2e-05,2.9999999999999997e-05,4e-05,4e-05,7e-05,5.9999999999999995e-05,0.0001,6
23250,24178,-1e-05,2e-05,2.9999999999999997e-05,4e-05,4e-05,7e-05,5.9999999999999995e-05,0.0001,6
23251,24179,-1e-05,2e-05,2.9999999999999997e-05,4e-05,4e-05,7e-05,5.9999999999999995e-05,0.0001,6
23252,24180,-1e-05,2e-05,2.9999999999999997e-05,4e-05,4e-05,7e-05,5.9999999999999995e-05,0.0001,6
23253,24181,-1e-05,2e-05,2.9999999999999997e-05,4e-05,4e-05,7e-05,5.9999999999999995e-05,0.0001,6
23254,24182,-1e-05,2e-05,2.9999999999999997e-05,4e-05,4e-05,7e-05,5.9999999999999995e-05,0.0001,6
23255,24183,-1e-05,2e-05,2.9999999999999997e-05,4e-05,4e-05,7e-05,5.9999999999999995e-05,0.0001,6
23256,24184,-1e-05,2e-05,2.9999999999999997e-05,4e-05,4e-05,7e-05,5.9999999999999995e-05,0.0001,6
23257,24185,-1e-05,2e-05,2.9999999999999997e-05,4e-05,4e-05,7e-05,5.9999999999999995e-05,0.0001,6
23258,24186,-1e-05,2e-05,2.9999999999999997e-05,4e-05,4e-05,7e-05,5.9999999999999995e-05,0.0001,6
23259,24188,-1e-05,2e-05,2.9999999999999997e-05,4e-05,4e-05,7e-05,5.9999999999999995e-05,0.0001,6
23260,24189,-1e-05,2e-05,2.9999999999999997e-05,4e-05,4e-05,7e-05,5.9999999999999995e-05,0.0001,6
23261,24190,-1e-05,2e-05,2.9999999999999997e-05,4e-05,4e-05,7e-05,5.9999999999999995e-05,0.0001,6
23262,24191,-7e-05,-8e-05,-0.00011999999999999999,-5.9999999999999995e-05,0.00018,7e-05,0.0,-0.00022,6
23263,24192,-1e-05,-2.9999999999999997e-05,2e-05,-2e-05,4e-05,0.00029,0.00033,0.00037,6
23264,24193,-1e-05,-2.9999999999999997e-05,2e-05,-2e-05,4e-05,0.00029,0.00033,0.00037,6
23265,24194,-1e-05,-2.9999999999999997e-05,2e-05,-2e-05,4e-05,0.00029,0.00033,0.00037,6
23266,24195,-1e-05,-2.9999999999999997e-05,2e-05,-2e-05,4e-05,0.00029,0.00033,0.00037,6
23267,24196,-1e-05,-2.9999999999999997e-05,2e-05,-2e-05,4e-05,0.00029,0.00033,0.00037,6
23268,24197,-1e-05,-2.9999999999999997e-05,2e-05,-2e-05,4e-05,0.00029,0.00033,0.00037,6
23269,24198,-1e-05,-2.9999999999999997e-05,2e-05,-2e-05,4e-05,0.00029,0.00033,0.00037,6
23270,24199,-1e-05,-2.9999999999999997e-05,2e-05,-2e-05,4e-05,0.00029,0.00033,0.00037,6
23271,24200,-1e-05,-2.9999999999999997e-05,2e-05,-2e-05,4e-05,0.00029,0.00033,0.00037,6
23272,24201,-1e-05,-2.9999999999999997e-05,2e-05,-2e-05,4e-05,0.00029,0.00033,0.00037,6
23273,24202,-1e-05,-2.9999999999999997e-05,2e-05,-2e-05,4e-05,0.00029,0.00033,0.00037,6
23274,24203,-1e-05,-2.9999999999999997e-05,2e-05,-2e-05,4e-05,0.00029,0.00033,0.00037,6
23275,24204,-1e-05,-2.9999999999999997e-05,2e-05,-2e-05,4e-05,0.00029,0.00033,0.00037,6
23276,24205,-1e-05,-2.9999999999999997e-05,2e-05,-2e-05,4e-05,0.00029,0.00033,0.00037,6
23277,24206,-1e-05,-2.9999999999999997e-05,2e-05,-2e-05,4e-05,0.00029,0.00033,0.00037,6
23278,24207,-1e-05,-2.9999999999999997e-05,2e-05,-2e-05,4e-05,0.00029,0.00033,0.00037,6
23279,24208,-1e-05,-2.9999999999999997e-05,2e-05,-2e-05,4e-05,0.00029,0.00033,0.00037,6
23280,24209,-1e-05,-2.9999999999999997e-05,2e-05,-2e-05,4e-05,0.00029,0.00033,0.00037,6
23281,24210,-1e-05,-2.9999999999999997e-05,2e-05,-2e-05,4e-05,0.00029,0.00033,0.00037,6
23282,24211,-1e-05,-2.9999999999999997e-05,2e-05,-2e-05,4e-05,0.00029,0.00033,0.00037,6
23283,24212,-1e-05,-2.9999999999999997e-05,2e-05,-2e-05,4e-05,0.00029,0.00033,0.00037,6
23284,24213,5e-05,4e-05,1e-05,-2e-05,-8e-05,0.00013000000000000002,-8e-05,-5e-05,6
23285,24214,-2e-05,0.0,-1e-05,2e-05,0.00015,5e-05,-8e-05,-9e-05,6
23286,24215,-2.9999999999999997e-05,-4e-05,-4e-05,-4e-05,4e-05,2.9999999999999997e-05,-2.9999999999999997e-05,-0.00033999999999999997,6
23287,24216,-2.9999999999999997e-05,-4e-05,-4e-05,-4e-05,4e-05,2.9999999999999997e-05,-2.9999999999999997e-05,-0.00033999999999999997,6
23288,24217,-2.9999999999999997e-05,-4e-05,-4e-05,-4e-05,4e-05,2.9999999999999997e-05,-2.9999999999999997e-05,-0.00033999999999999997,6
23289,24218,-2.9999999999999997e-05,-4e-05,-4e-05,-4e-05,4e-05,2.9999999999999997e-05,-2.9999999999999997e-05,-0.00033999999999999997,6
23290,24219,-2.9999999999999997e-05,-4e-05,-4e-05,-4e-05,4e-05,2.9999999999999997e-05,-2.9999999999999997e-05,-0.00033999999999999997,6
23291,24220,-2.9999999999999997e-05,-4e-05,-4e-05,-4e-05,4e-05,2.9999999999999997e-05,-2.9999999999999997e-05,-0.00033999999999999997,6
23292,24221,-2.9999999999999997e-05,-4e-05,-4e-05,-4e-05,4e-05,2.9999999999999997e-05,-2.9999999999999997e-05,-0.00033999999999999997,6
23293,24222,-2.9999999999999997e-05,-4e-05,-4e-05,-4e-05,4e-05,2.9999999999999997e-05,-2.9999999999999997e-05,-0.00033999999999999997,6
23294,24223,-2.9999999999999997e-05,-4e-05,-4e-05,-4e-05,4e-05,2.9999999999999997e-05,-2.9999999999999997e-05,-0.00033999999999999997,6
23295,24224,-2.9999999999999997e-05,-4e-05,-4e-05,-4e-05,4e-05,2.9999999999999997e-05,-2.9999999999999997e-05,-0.00033999999999999997,6
23296,24225,-2.9999999999999997e-05,-4e-05,-4e-05,-4e-05,4e-05,2.9999999999999997e-05,-2.9999999999999997e-05,-0.00033999999999999997,6
23297,24226,-2.9999999999999997e-05,-4e-05,-4e-05,-4e-05,4e-05,2.9999999999999997e-05,-2.9999999999999997e-05,-0.00033999999999999997,6
23298,24227,-2.9999999999999997e-05,-4e-05,-4e-05,-4e-05,4e-05,2.9999999999999997e-05,-2.9999999999999997e-05,-0.00033999999999999997,6
23299,24228,-2.9999999999999997e-05,-4e-05,-4e-05,-4e-05,4e-05,2.9999999999999997e-05,-2.9999999999999997e-05,-0.00033999999999999997,6
23300,24229,-2.9999999999999997e-05,-4e-05,-4e-05,-4e-05,4e-05,2.9999999999999997e-05,-2.9999999999999997e-05,-0.00033999999999999997,6
23301,24230,-2.9999999999999997e-05,-4e-05,-4e-05,-4e-05,4e-05,2.9999999999999997e-05,-2.9999999999999997e-05,-0.00033999999999999997,6
23302,24231,-2.9999999999999997e-05,-4e-05,-4e-05,-4e-05,4e-05,2.9999999999999997e-05,-2.9999999999999997e-05,-0.00033999999999999997,6
23303,24232,-2.9999999999999997e-05,-4e-05,-4e-05,-4e-05,4e-05,2.9999999999999997e-05,-2.9999999999999997e-05,-0.00033999999999999997,6
23304,24233,-2.9999999999999997e-05,-4e-05,-4e-05,-4e-05,4e-05,2.9999999999999997e-05,-2.9999999999999997e-05,-0.00033999999999999997,6
23305,24234,-2.9999999999999997e-05,-4e-05,-4e-05,-4e-05,4e-05,2.9999999999999997e-05,-2.9999999999999997e-05,-0.00033999999999999997,6
23306,24235,1e-05,0.0,-1e-05,-2.9999999999999997e-05,8e-05,-0.00027,-0.00021,5e-05,6
23307,24236,-4e-05,0.0,2.9999999999999997e-05,5e-05,-2.9999999999999997e-05,-0.0001,0.00018999999999999998,-4e-05,6
23308,24238,-1e-05,-1e-05,-2e-05,-5e-05,-0.00021,5.9999999999999995e-05,-9e-05,5e-05,6
23309,24239,-1e-05,-1e-05,-2e-05,-5e-05,-0.00021,5.9999999999999995e-05,-9e-05,5e-05,6
23310,24240,-1e-05,-1e-05,-2e-05,-5e-05,-0.00021,5.9999999999999995e-05,-9e-05,5e-05,6
23311,24241,-1e-05,-1e-05,-2e-05,-5e-05,-0.00021,5.9999999999999995e-05,-9e-05,5e-05,6
23312,24242,-1e-05,-1e-05,-2e-05,-5e-05,-0.00021,5.9999999999999995e-05,-9e-05,5e-05,6
23313,24243,-1e-05,-1e-05,-2e-05,-5e-05,-0.00021,5.9999999999999995e-05,-9e-05,5e-05,6
23314,24244,-1e-05,-1e-05,-2e-05,-5e-05,-0.00021,5.9999999999999995e-05,-9e-05,5e-05,6
23315,24245,-1e-05,-1e-05,-2e-05,-5e-05,-0.00021,5.9999999999999995e-05,-9e-05,5e-05,6
23316,24246,-1e-05,-1e-05,-2e-05,-5e-05,-0.00021,5.9999999999999995e-05,-9e-05,5e-05,6
23317,24248,-1e-05,-1e-05,-2e-05,-5e-05,-0.00021,5.9999999999999995e-05,-9e-05,5e-05,6
23318,24249,-1e-05,-1e-05,-2e-05,-5e-05,-0.00021,5.9999999999999995e-05,-9e-05,5e-05,6
23319,24250,-1e-05,-1e-05,-2e-05,-5e-05,-0.00021,5.9999999999999995e-05,-9e-05,5e-05,6
23320,24251,-2.9999999999999997e-05,0.0,-1e-05,-5.9999999999999995e-05,-8e-05,-0.00025,5e-05,0.0,6
23321,24252,7e-05,-2e-05,-4e-05,-5.9999999999999995e-05,-2e-05,-0.0001,-0.00016999999999999999,0.00022,6
23322,24253,7e-05,-2e-05,-4e-05,-5.9999999999999995e-05,-2e-05,-0.0001,-0.00016999999999999999,0.00022,6
23323,24254,7e-05,-2e-05,-4e-05,-5.9999999999999995e-05,-2e-05,-0.0001,-0.00016999999999999999,0.00022,6
23324,24255,7e-05,-2e-05,-4e-05,-5.9999999999999995e-05,-2e-05,-0.0001,-0.00016999999999999999,0.00022,6
23325,24256,7e-05,-2e-05,-4e-05,-5.9999999999999995e-05,-2e-05,-0.0001,-0.00016999999999999999,0.00022,6
23326,24257,7e-05,-2e-05,-4e-05,-5.9999999999999995e-05,-2e-05,-0.0001,-0.00016999999999999999,0.00022,6
23327,24258,7e-05,-2e-05,-4e-05,-5.9999999999999995e-05,-2e-05,-0.0001,-0.00016999999999999999,0.00022,6
23328,24259,7e-05,-2e-05,-4e-05,-5.9999999999999995e-05,-2e-05,-0.0001,-0.00016999999999999999,0.00022,6
23329,24260,7e-05,-2e-05,-4e-05,-5.9999999999999995e-05,-2e-05,-0.0001,-0.00016999999999999999,0.00022,6
23330,24261,7e-05,-2e-05,-4e-05,-5.9999999999999995e-05,-2e-05,-0.0001,-0.00016999999999999999,0.00022,6
23331,24262,7e-05,-2e-05,-4e-05,-5.9999999999999995e-05,-2e-05,-0.0001,-0.00016999999999999999,0.00022,6
23332,24263,7e-05,-2e-05,-4e-05,-5.9999999999999995e-05,-2e-05,-0.0001,-0.00016999999999999999,0.00022,6
23333,24264,7e-05,-2e-05,-4e-05,-5.9999999999999995e-05,-2e-05,-0.0001,-0.00016999999999999999,0.00022,6
23334,24265,7e-05,-2e-05,-4e-05,-5.9999999999999995e-05,-2e-05,-0.0001,-0.00016999999999999999,0.00022,6
23335,24266,7e-05,-2e-05,-4e-05,-5.9999999999999995e-05,-2e-05,-0.0001,-0.00016999999999999999,0.00022,6
23336,24267,7e-05,-2e-05,-4e-05,-5.9999999999999995e-05,-2e-05,-0.0001,-0.00016999999999999999,0.00022,6
23337,24268,7e-05,-2e-05,-4e-05,-5.9999999999999995e-05,-2e-05,-0.0001,-0.00016999999999999999,0.00022,6
23338,24269,7e-05,-2e-05,-4e-05,-5.9999999999999995e-05,-2e-05,-0.0001,-0.00016999999999999999,0.00022,6
23339,24270,7e-05,-2e-05,-4e-05,-5.9999999999999995e-05,-2e-05,-0.0001,-0.00016999999999999999,0.00022,6
23340,24271,7e-05,-2e-05,-4e-05,-5.9999999999999995e-05,-2e-05,-0.0001,-0.00016999999999999999,0.00022,6
23341,24272,7e-05,-2e-05,-4e-05,-5.9999999999999995e-05,-2e-05,-0.0001,-0.00016999999999999999,0.00022,6
23342,24273,-8e-05,2e-05,2e-05,5.9999999999999995e-05,0.00031,-2.9999999999999997e-05,-7e-05,-0.00043,6
23343,24274,-2.9999999999999997e-05,-1e-05,2.9999999999999997e-05,-1e-05,-0.00022,0.00027,0.00011,-5.9999999999999995e-05,6
23344,24275,-2e-05,-2e-05,-1e-05,1e-05,0.0001,-4e-05,-0.0003,-0.00014,6
23345,24276,-2e-05,-2e-05,-1e-05,1e-05,0.0001,-4e-05,-0.0003,-0.00014,6
23346,24277,-2e-05,-2e-05,-1e-05,1e-05,0.0001,-4e-05,-0.0003,-0.00014,6
23347,24278,-2e-05,-2e-05,-1e-05,1e-05,0.0001,-4e-05,-0.0003,-0.00014,6
23348,24279,-2e-05,-2e-05,-1e-05,1e-05,0.0001,-4e-05,-0.0003,-0.00014,6
23349,24280,-2e-05,-2e-05,-1e-05,1e-05,0.0001,-4e-05,-0.0003,-0.00014,6
23350,24281,-2e-05,-2e-05,-1e-05,1e-05,0.0001,-4e-05,-0.0003,-0.00014,6
23351,24282,-2e-05,-2e-05,-1e-05,1e-05,0.0001,-4e-05,-0.0003,-0.00014,6
23352,24283,-2e-05,-2e-05,-1e-05,1e-05,0.0001,-4e-05,-0.0003,-0.00014,6
23353,24284,-2e-05,-2e-05,-1e-05,1e-05,0.0001,-4e-05,-0.0003,-0.00014,6
23354,24285,-2e-05,-2e-05,-1e-05,1e-05,0.0001,-4e-05,-0.0003,-0.00014,6
23355,24286,-2e-05,-2e-05,-1e-05,1e-05,0.0001,-4e-05,-0.0003,-0.00014,6
23356,24288,2e-05,-1e-05,0.0,0.0,-9e-05,0.00016,0.00011,2.9999999999999997e-05,6
23357,24289,2e-05,-1e-05,0.0,0.0,-9e-05,0.00016,0.00011,2.9999999999999997e-05,6
23358,24290,2e-05,-1e-05,0.0,0.0,-9e-05,0.00016,0.00011,2.9999999999999997e-05,6
23359,24291,2e-05,-1e-05,0.0,0.0,-9e-05,0.00016,0.00011,2.9999999999999997e-05,6
23360,24292,2e-05,-1e-05,0.0,0.0,-9e-05,0.00016,0.00011,2.9999999999999997e-05,6
23361,24293,2e-05,-1e-05,0.0,0.0,-9e-05,0.00016,0.00011,2.9999999999999997e-05,6
23362,24294,2e-05,-1e-05,0.0,0.0,-9e-05,0.00016,0.00011,2.9999999999999997e-05,6
23363,24295,2e-05,-1e-05,0.0,0.0,-9e-05,0.00016,0.00011,2.9999999999999997e-05,6
23364,24296,4e-05,0.0,1e-05,2e-05,-7e-05,5.9999999999999995e-05,9e-05,0.00043,6
23365,24297,4e-05,0.0,1e-05,2e-05,-7e-05,5.9999999999999995e-05,9e-05,0.00043,6
23366,24298,4e-05,0.0,1e-05,2e-05,-7e-05,5.9999999999999995e-05,9e-05,0.00043,6
23367,24299,4e-05,0.0,1e-05,2e-05,-7e-05,5.9999999999999995e-05,9e-05,0.00043,6
23368,24300,4e-05,0.0,1e-05,2e-05,-7e-05,5.9999999999999995e-05,9e-05,0.00043,6
23369,24301,4e-05,0.0,1e-05,2e-05,-7e-05,5.9999999999999995e-05,9e-05,0.00043,6
23370,24302,4e-05,0.0,1e-05,2e-05,-7e-05,5.9999999999999995e-05,9e-05,0.00043,6
23371,24303,4e-05,0.0,1e-05,2e-05,-7e-05,5.9999999999999995e-05,9e-05,0.00043,6
23372,24304,4e-05,0.0,1e-05,2e-05,-7e-05,5.9999999999999995e-05,9e-05,0.00043,6
23373,24305,4e-05,0.0,1e-05,2e-05,-7e-05,5.9999999999999995e-05,9e-05,0.00043,6
23374,24306,4e-05,0.0,1e-05,2e-05,-7e-05,5.9999999999999995e-05,9e-05,0.00043,6
23375,24307,4e-05,0.0,1e-05,2e-05,-7e-05,5.9999999999999995e-05,9e-05,0.00043,6
23376,24308,4e-05,0.0,1e-05,2e-05,-7e-05,5.9999999999999995e-05,9e-05,0.00043,6
23377,24309,4e-05,0.0,1e-05,2e-05,-7e-05,5.9999999999999995e-05,9e-05,0.00043,6
23378,24310,4e-05,0.0,1e-05,2e-05,-7e-05,5.9999999999999995e-05,9e-05,0.00043,6
23379,24311,-7e-05,0.0,-2.9999999999999997e-05,1e-05,-2.9999999999999997e-05,-0.00011,2e-05,-0.0001,6
23380,24312,-0.00011,-1e-05,-2e-05,-4e-05,-0.00021,-7e-05,-0.00037,-0.00027,6
23381,24313,-0.00011,-1e-05,-2e-05,-4e-05,-0.00021,-7e-05,-0.00037,-0.00027,6
23382,24314,-0.00011,-1e-05,-2e-05,-4e-05,-0.00021,-7e-05,-0.00037,-0.00027,6
23383,24315,-0.00011,-1e-05,-2e-05,-4e-05,-0.00021,-7e-05,-0.00037,-0.00027,6
23384,24316,-0.00011,-1e-05,-2e-05,-4e-05,-0.00021,-7e-05,-0.00037,-0.00027,6
23385,24317,-0.00011,-1e-05,-2e-05,-4e-05,-0.00021,-7e-05,-0.00037,-0.00027,6
23386,24318,-0.00011,-1e-05,-2e-05,-4e-05,-0.00021,-7e-05,-0.00037,-0.00027,6
23387,24319,-0.00011,-1e-05,-2e-05,-4e-05,-0.00021,-7e-05,-0.00037,-0.00027,6
23388,24320,-0.00011,-1e-05,-2e-05,-4e-05,-0.00021,-7e-05,-0.00037,-0.00027,6
23389,24321,-0.00011,-1e-05,-2e-05,-4e-05,-0.00021,-7e-05,-0.00037,-0.00027,6
23390,24322,-0.00011,-1e-05,-2e-05,-4e-05,-0.00021,-7e-05,-0.00037,-0.00027,6
23391,24323,-0.00011,-1e-05,-2e-05,-4e-05,-0.00021,-7e-05,-0.00037,-0.00027,6
23392,24324,-0.00011,-1e-05,-2e-05,-4e-05,-0.00021,-7e-05,-0.00037,-0.00027,6
23393,24325,-0.00011,-1e-05,-2e-05,-4e-05,-0.00021,-7e-05,-0.00037,-0.00027,6
23394,24326,-0.00011,-1e-05,-2e-05,-4e-05,-0.00021,-7e-05,-0.00037,-0.00027,6
23395,24327,-0.00011,-1e-05,-2e-05,-4e-05,-0.00021,-7e-05,-0.00037,-0.00027,6
23396,24328,-0.00011,-1e-05,-2e-05,-4e-05,-0.00021,-7e-05,-0.00037,-0.00027,6
23397,24329,-0.00011,-1e-05,-2e-05,-4e-05,-0.00021,-7e-05,-0.00037,-0.00027,6
23398,24330,-0.00011,-1e-05,-2e-05,-4e-05,-0.00021,-7e-05,-0.00037,-0.00027,6
23399,24331,-0.00011,-1e-05,-2e-05,-4e-05,-0.00021,-7e-05,-0.00037,-0.00027,6
23400,24332,-0.00011,-1e-05,-2e-05,-4e-05,-0.00021,-7e-05,-0.00037,-0.00027,6
23401,24333,-1e-05,0.0,0.0,-1e-05,-1e-05,0.00013000000000000002,-0.00011,-1e-05,6
23402,24334,-4e-05,2e-05,1e-05,1e-05,-5e-05,0.0002,0.00014,-0.0002,6
23403,24335,2e-05,0.0,1e-05,4e-05,0.00013000000000000002,-0.00027,0.00031,0.0002,6
23404,24336,2e-05,0.0,1e-05,4e-05,0.00013000000000000002,-0.00027,0.00031,0.0002,6
23405,24338,2e-05,0.0,1e-05,4e-05,0.00013000000000000002,-0.00027,0.00031,0.0002,6
23406,24339,2e-05,0.0,1e-05,4e-05,0.00013000000000000002,-0.00027,0.00031,0.0002,6
23407,24340,2e-05,0.0,1e-05,4e-05,0.00013000000000000002,-0.00027,0.00031,0.0002,6
23408,24341,2e-05,0.0,1e-05,4e-05,0.00013000000000000002,-0.00027,0.00031,0.0002,6
23409,24342,2e-05,0.0,1e-05,4e-05,0.00013000000000000002,-0.00027,0.00031,0.0002,6
23410,24343,2e-05,0.0,1e-05,4e-05,0.00013000000000000002,-0.00027,0.00031,0.0002,6
23411,24344,2e-05,0.0,1e-05,4e-05,0.00013000000000000002,-0.00027,0.00031,0.0002,6
23412,24345,2e-05,0.0,1e-05,4e-05,0.00013000000000000002,-0.00027,0.00031,0.0002,6
23413,24346,2e-05,0.0,1e-05,4e-05,0.00013000000000000002,-0.00027,0.00031,0.0002,6
23414,24347,-2.9999999999999997e-05,-5.9999999999999995e-05,-7e-05,-8e-05,-0.00014,-0.00016,-0.00016,-4e-05,6
23415,24348,-2.9999999999999997e-05,-5.9999999999999995e-05,-7e-05,-8e-05,-0.00014,-0.00016,-0.00016,-4e-05,6
23416,24349,-2.9999999999999997e-05,-5.9999999999999995e-05,-7e-05,-8e-05,-0.00014,-0.00016,-0.00016,-4e-05,6
23417,24350,-2.9999999999999997e-05,-5.9999999999999995e-05,-7e-05,-8e-05,-0.00014,-0.00016,-0.00016,-4e-05,6
23418,24351,-2.9999999999999997e-05,-5.9999999999999995e-05,-7e-05,-8e-05,-0.00014,-0.00016,-0.00016,-4e-05,6
23419,24352,-2.9999999999999997e-05,-5.9999999999999995e-05,-7e-05,-8e-05,-0.00014,-0.00016,-0.00016,-4e-05,6
23420,24353,-2.9999999999999997e-05,-5.9999999999999995e-05,-7e-05,-8e-05,-0.00014,-0.00016,-0.00016,-4e-05,6
23421,24354,-2.9999999999999997e-05,-5.9999999999999995e-05,-7e-05,-8e-05,-0.00014,-0.00016,-0.00016,-4e-05,6
23422,24355,-2.9999999999999997e-05,-5.9999999999999995e-05,-7e-05,-8e-05,-0.00014,-0.00016,-0.00016,-4e-05,6
23423,24356,-1e-05,0.0,2.9999999999999997e-05,5e-05,0.00033,0.00056,1e-05,-0.00016,6
23424,24357,-1e-05,0.0,2.9999999999999997e-05,5e-05,0.00033,0.00056,1e-05,-0.00016,6
23425,24358,-1e-05,0.0,2.9999999999999997e-05,5e-05,0.00033,0.00056,1e-05,-0.00016,6
23426,24359,-1e-05,0.0,2.9999999999999997e-05,5e-05,0.00033,0.00056,1e-05,-0.00016,6
23427,24360,-1e-05,0.0,2.9999999999999997e-05,5e-05,0.00033,0.00056,1e-05,-0.00016,6
23428,24361,-1e-05,0.0,2.9999999999999997e-05,5e-05,0.00033,0.00056,1e-05,-0.00016,6
23429,24362,-1e-05,0.0,2.9999999999999997e-05,5e-05,0.00033,0.00056,1e-05,-0.00016,6
23430,24363,-1e-05,0.0,2.9999999999999997e-05,5e-05,0.00033,0.00056,1e-05,-0.00016,6
23431,24364,-1e-05,0.0,2.9999999999999997e-05,5e-05,0.00033,0.00056,1e-05,-0.00016,6
23432,24365,-1e-05,0.0,2.9999999999999997e-05,5e-05,0.00033,0.00056,1e-05,-0.00016,6
23433,24366,-1e-05,0.0,2.9999999999999997e-05,5e-05,0.00033,0.00056,1e-05,-0.00016,6
23434,24367,-1e-05,0.0,2.9999999999999997e-05,5e-05,0.00033,0.00056,1e-05,-0.00016,6
23435,24368,-1e-05,0.0,2.9999999999999997e-05,5e-05,0.00033,0.00056,1e-05,-0.00016,6
23436,24369,-1e-05,0.0,2.9999999999999997e-05,5e-05,0.00033,0.00056,1e-05,-0.00016,6
23437,24370,-7e-05,-5.9999999999999995e-05,-7e-05,-8e-05,-0.00016999999999999999,-0.00043,0.0,-8e-05,6
23438,24371,2e-05,1e-05,4e-05,2e-05,-5e-05,0.00039,0.00031,0.00021,6
23439,24372,-5e-05,-1e-05,-2.9999999999999997e-05,-1e-05,5e-05,0.00022,-5.9999999999999995e-05,-0.00016,6
23440,24373,-5e-05,-1e-05,-2.9999999999999997e-05,-1e-05,5e-05,0.00022,-5.9999999999999995e-05,-0.00016,6
23441,24374,-5e-05,-1e-05,-2.9999999999999997e-05,-1e-05,5e-05,0.00022,-5.9999999999999995e-05,-0.00016,6
23442,24375,-5e-05,-1e-05,-2.9999999999999997e-05,-1e-05,5e-05,0.00022,-5.9999999999999995e-05,-0.00016,6
23443,24376,-5e-05,-1e-05,-2.9999999999999997e-05,-1e-05,5e-05,0.00022,-5.9999999999999995e-05,-0.00016,6
23444,24377,-5e-05,-1e-05,-2.9999999999999997e-05,-1e-05,5e-05,0.00022,-5.9999999999999995e-05,-0.00016,6
23445,24378,-5e-05,-1e-05,-2.9999999999999997e-05,-1e-05,5e-05,0.00022,-5.9999999999999995e-05,-0.00016,6
23446,24379,-5e-05,-1e-05,-2.9999999999999997e-05,-1e-05,5e-05,0.00022,-5.9999999999999995e-05,-0.00016,6
23447,24380,-5e-05,-1e-05,-2.9999999999999997e-05,-1e-05,5e-05,0.00022,-5.9999999999999995e-05,-0.00016,6
23448,24381,-5e-05,-1e-05,-2.9999999999999997e-05,-1e-05,5e-05,0.00022,-5.9999999999999995e-05,-0.00016,6
23449,24382,-5e-05,-1e-05,-2.9999999999999997e-05,-1e-05,5e-05,0.00022,-5.9999999999999995e-05,-0.00016,6
23450,24383,-5e-05,-1e-05,-2.9999999999999997e-05,-1e-05,5e-05,0.00022,-5.9999999999999995e-05,-0.00016,6
23451,24384,-5e-05,-1e-05,-2.9999999999999997e-05,-1e-05,5e-05,0.00022,-5.9999999999999995e-05,-0.00016,6
23452,24385,-5e-05,-1e-05,-2.9999999999999997e-05,-1e-05,5e-05,0.00022,-5.9999999999999995e-05,-0.00016,6
23453,24386,-5e-05,-1e-05,-2.9999999999999997e-05,-1e-05,5e-05,0.00022,-5.9999999999999995e-05,-0.00016,6
23454,24388,-5e-05,-1e-05,-2.9999999999999997e-05,-1e-05,5e-05,0.00022,-5.9999999999999995e-05,-0.00016,6
23455,24389,-5e-05,-1e-05,-2.9999999999999997e-05,-1e-05,5e-05,0.00022,-5.9999999999999995e-05,-0.00016,6
23456,24390,-5e-05,-1e-05,-2.9999999999999997e-05,-1e-05,5e-05,0.00022,-5.9999999999999995e-05,-0.00016,6
23457,24391,-5e-05,-1e-05,-2.9999999999999997e-05,-1e-05,5e-05,0.00022,-5.9999999999999995e-05,-0.00016,6
23458,24392,-5e-05,-1e-05,-2.9999999999999997e-05,-1e-05,5e-05,0.00022,-5.9999999999999995e-05,-0.00016,6
23459,24393,1e-05,-2.9999999999999997e-05,-2.9999999999999997e-05,-2.9999999999999997e-05,1e-05,0.00011,-0.00016999999999999999,0.00011,6
23460,24394,1e-05,-2.9999999999999997e-05,-2.9999999999999997e-05,-2.9999999999999997e-05,1e-05,0.00011,-0.00016999999999999999,0.00011,6
23461,24395,-5.9999999999999995e-05,-2e-05,-2e-05,-4e-05,-0.00022,-0.00047999999999999996,-7e-05,-0.00035,6
23462,24396,-5.9999999999999995e-05,-2e-05,-2e-05,-4e-05,-0.00022,-0.00047999999999999996,-7e-05,-0.00035,6
23463,24397,-5.9999999999999995e-05,-2e-05,-2e-05,-4e-05,-0.00022,-0.00047999999999999996,-7e-05,-0.00035,6
23464,24398,-5.9999999999999995e-05,-2e-05,-2e-05,-4e-05,-0.00022,-0.00047999999999999996,-7e-05,-0.00035,6
23465,24399,-5.9999999999999995e-05,-2e-05,-2e-05,-4e-05,-0.00022,-0.00047999999999999996,-7e-05,-0.00035,6
23466,24400,-5.9999999999999995e-05,-2e-05,-2e-05,-4e-05,-0.00022,-0.00047999999999999996,-7e-05,-0.00035,6
23467,24401,-5.9999999999999995e-05,-2e-05,-2e-05,-4e-05,-0.00022,-0.00047999999999999996,-7e-05,-0.00035,6
23468,24402,-5.9999999999999995e-05,-2e-05,-2e-05,-4e-05,-0.00022,-0.00047999999999999996,-7e-05,-0.00035,6
23469,24403,-5.9999999999999995e-05,-2e-05,-2e-05,-4e-05,-0.00022,-0.00047999999999999996,-7e-05,-0.00035,6
23470,24404,-5.9999999999999995e-05,-2e-05,-2e-05,-4e-05,-0.00022,-0.00047999999999999996,-7e-05,-0.00035,6
23471,24405,-5.9999999999999995e-05,-2e-05,-2e-05,-4e-05,-0.00022,-0.00047999999999999996,-7e-05,-0.00035,6
23472,24406,-5.9999999999999995e-05,-2e-05,-2e-05,-4e-05,-0.00022,-0.00047999999999999996,-7e-05,-0.00035,6
23473,24407,-2e-05,-2.9999999999999997e-05,-4e-05,-2e-05,2.9999999999999997e-05,5.9999999999999995e-05,-0.00016,-0.00011999999999999999,6
23474,24408,-2e-05,-2.9999999999999997e-05,-4e-05,-2e-05,2.9999999999999997e-05,5.9999999999999995e-05,-0.00016,-0.00011999999999999999,6
23475,24409,-2e-05,-2.9999999999999997e-05,-4e-05,-2e-05,2.9999999999999997e-05,5.9999999999999995e-05,-0.00016,-0.00011999999999999999,6
23476,24410,-2e-05,-2.9999999999999997e-05,-4e-05,-2e-05,2.9999999999999997e-05,5.9999999999999995e-05,-0.00016,-0.00011999999999999999,6
23477,24411,-2e-05,-2.9999999999999997e-05,-4e-05,-2e-05,2.9999999999999997e-05,5.9999999999999995e-05,-0.00016,-0.00011999999999999999,6
23478,24412,-2e-05,-2.9999999999999997e-05,-4e-05,-2e-05,2.9999999999999997e-05,5.9999999999999995e-05,-0.00016,-0.00011999999999999999,6
23479,24413,-2e-05,-2.9999999999999997e-05,-4e-05,-2e-05,2.9999999999999997e-05,5.9999999999999995e-05,-0.00016,-0.00011999999999999999,6
23480,24414,-2e-05,-2.9999999999999997e-05,-4e-05,-2e-05,2.9999999999999997e-05,5.9999999999999995e-05,-0.00016,-0.00011999999999999999,6
23481,24415,-2e-05,-2.9999999999999997e-05,-4e-05,-2e-05,2.9999999999999997e-05,5.9999999999999995e-05,-0.00016,-0.00011999999999999999,6
23482,24416,-2.9999999999999997e-05,-2.9999999999999997e-05,-4e-05,-2e-05,-0.00011,-0.00033999999999999997,5.9999999999999995e-05,-0.00016999999999999999,6
23483,24417,-2.9999999999999997e-05,-2.9999999999999997e-05,-4e-05,-2e-05,-0.00011,-0.00033999999999999997,5.9999999999999995e-05,-0.00016999999999999999,6
23484,24418,-2.9999999999999997e-05,-2.9999999999999997e-05,-4e-05,-2e-05,-0.00011,-0.00033999999999999997,5.9999999999999995e-05,-0.00016999999999999999,6
23485,24419,-2.9999999999999997e-05,-2.9999999999999997e-05,-4e-05,-2e-05,-0.00011,-0.00033999999999999997,5.9999999999999995e-05,-0.00016999999999999999,6
23486,24420,-2.9999999999999997e-05,-2.9999999999999997e-05,-4e-05,-2e-05,-0.00011,-0.00033999999999999997,5.9999999999999995e-05,-0.00016999999999999999,6
23487,24421,-2.9999999999999997e-05,-2.9999999999999997e-05,-4e-05,-2e-05,-0.00011,-0.00033999999999999997,5.9999999999999995e-05,-0.00016999999999999999,6
23488,24422,-2.9999999999999997e-05,-2.9999999999999997e-05,-4e-05,-2e-05,-0.00011,-0.00033999999999999997,5.9999999999999995e-05,-0.00016999999999999999,6
23489,24423,-2.9999999999999997e-05,-2.9999999999999997e-05,-4e-05,-2e-05,-0.00011,-0.00033999999999999997,5.9999999999999995e-05,-0.00016999999999999999,6
23490,24424,-2.9999999999999997e-05,-2.9999999999999997e-05,-4e-05,-2e-05,-0.00011,-0.00033999999999999997,5.9999999999999995e-05,-0.00016999999999999999,6
23491,24425,-2.9999999999999997e-05,-2.9999999999999997e-05,-4e-05,-2e-05,-0.00011,-0.00033999999999999997,5.9999999999999995e-05,-0.00016999999999999999,6
23492,24426,-2.9999999999999997e-05,-2.9999999999999997e-05,-4e-05,-2e-05,-0.00011,-0.00033999999999999997,5.9999999999999995e-05,-0.00016999999999999999,6
23493,24427,-2.9999999999999997e-05,-2.9999999999999997e-05,-4e-05,-2e-05,-0.00011,-0.00033999999999999997,5.9999999999999995e-05,-0.00016999999999999999,6
23494,24428,-2.9999999999999997e-05,-2.9999999999999997e-05,-4e-05,-2e-05,-0.00011,-0.00033999999999999997,5.9999999999999995e-05,-0.00016999999999999999,6
23495,24429,-2.9999999999999997e-05,-2.9999999999999997e-05,-4e-05,-2e-05,-0.00011,-0.00033999999999999997,5.9999999999999995e-05,-0.00016999999999999999,6
23496,24430,0.0,1e-05,1e-05,1e-05,2e-05,0.0005200000000000001,0.0,-9e-05,6
23497,24431,-5e-05,-1e-05,-1e-05,0.0,-1e-05,-0.00027,-0.00047000000000000004,-8e-05,6
23498,24432,-1e-05,-7e-05,-8e-05,-9e-05,-0.00013000000000000002,2.9999999999999997e-05,7e-05,9e-05,6
23499,24433,-1e-05,-7e-05,-8e-05,-9e-05,-0.00013000000000000002,2.9999999999999997e-05,7e-05,9e-05,6
23500,24434,-1e-05,-7e-05,-8e-05,-9e-05,-0.00013000000000000002,2.9999999999999997e-05,7e-05,9e-05,6
23501,24435,-1e-05,-7e-05,-8e-05,-9e-05,-0.00013000000000000002,2.9999999999999997e-05,7e-05,9e-05,6
23502,24436,-1e-05,-7e-05,-8e-05,-9e-05,-0.00013000000000000002,2.9999999999999997e-05,7e-05,9e-05,6
23503,24438,-1e-05,-7e-05,-8e-05,-9e-05,-0.00013000000000000002,2.9999999999999997e-05,7e-05,9e-05,6
23504,24439,-1e-05,-7e-05,-8e-05,-9e-05,-0.00013000000000000002,2.9999999999999997e-05,7e-05,9e-05,6
23505,24440,-1e-05,-7e-05,-8e-05,-9e-05,-0.00013000000000000002,2.9999999999999997e-05,7e-05,9e-05,6
23506,24441,-1e-05,-7e-05,-8e-05,-9e-05,-0.00013000000000000002,2.9999999999999997e-05,7e-05,9e-05,6
23507,24442,-1e-05,-7e-05,-8e-05,-9e-05,-0.00013000000000000002,2.9999999999999997e-05,7e-05,9e-05,6
23508,24443,-1e-05,-7e-05,-8e-05,-9e-05,-0.00013000000000000002,2.9999999999999997e-05,7e-05,9e-05,6
23509,24444,-1e-05,-7e-05,-8e-05,-9e-05,-0.00013000000000000002,2.9999999999999997e-05,7e-05,9e-05,6
23510,24445,-1e-05,-7e-05,-8e-05,-9e-05,-0.00013000000000000002,2.9999999999999997e-05,7e-05,9e-05,6
23511,24446,-1e-05,-7e-05,-8e-05,-9e-05,-0.00013000000000000002,2.9999999999999997e-05,7e-05,9e-05,6
23512,24447,-1e-05,-7e-05,-8e-05,-9e-05,-0.00013000000000000002,2.9999999999999997e-05,7e-05,9e-05,6
23513,24448,-1e-05,-7e-05,-8e-05,-9e-05,-0.00013000000000000002,2.9999999999999997e-05,7e-05,9e-05,6
23514,24449,-1e-05,-7e-05,-8e-05,-9e-05,-0.00013000000000000002,2.9999999999999997e-05,7e-05,9e-05,6
23515,24450,-1e-05,-7e-05,-8e-05,-9e-05,-0.00013000000000000002,2.9999999999999997e-05,7e-05,9e-05,6
23516,24451,-1e-05,-7e-05,-8e-05,-9e-05,-0.00013000000000000002,2.9999999999999997e-05,7e-05,9e-05,6
23517,24452,-1e-05,-7e-05,-8e-05,-9e-05,-0.00013000000000000002,2.9999999999999997e-05,7e-05,9e-05,6
23518,24453,2.9999999999999997e-05,2e-05,4e-05,5e-05,1e-05,0.00042,1e-05,0.00016,6
23519,24454,2.9999999999999997e-05,2e-05,4e-05,5e-05,1e-05,0.00042,1e-05,0.00016,6
23520,24455,2e-05,2.9999999999999997e-05,5e-05,2e-05,-0.00014,-8e-05,-7e-05,-0.00014,6
23521,24456,2e-05,2.9999999999999997e-05,5e-05,2e-05,-0.00014,-8e-05,-7e-05,-0.00014,6
23522,24457,2e-05,2.9999999999999997e-05,5e-05,2e-05,-0.00014,-8e-05,-7e-05,-0.00014,6
23523,24458,2e-05,2.9999999999999997e-05,5e-05,2e-05,-0.00014,-8e-05,-7e-05,-0.00014,6
23524,24459,2e-05,2.9999999999999997e-05,5e-05,2e-05,-0.00014,-8e-05,-7e-05,-0.00014,6
23525,24460,2e-05,2.9999999999999997e-05,5e-05,2e-05,-0.00014,-8e-05,-7e-05,-0.00014,6
23526,24461,2e-05,2.9999999999999997e-05,5e-05,2e-05,-0.00014,-8e-05,-7e-05,-0.00014,6
23527,24462,2e-05,2.9999999999999997e-05,5e-05,2e-05,-0.00014,-8e-05,-7e-05,-0.00014,6
23528,24463,2e-05,2.9999999999999997e-05,5e-05,2e-05,-0.00014,-8e-05,-7e-05,-0.00014,6
23529,24464,2e-05,2.9999999999999997e-05,5e-05,2e-05,-0.00014,-8e-05,-7e-05,-0.00014,6
23530,24465,2e-05,2.9999999999999997e-05,5e-05,2e-05,-0.00014,-8e-05,-7e-05,-0.00014,6
23531,24466,2e-05,0.0,1e-05,4e-05,0.00029,5e-05,-5e-05,-0.0001,6
23532,24467,-4e-05,-5.9999999999999995e-05,-8e-05,-0.0001,1e-05,-0.0002,0.0,-2e-05,6
23533,24468,-4e-05,-5.9999999999999995e-05,-8e-05,-0.0001,1e-05,-0.0002,0.0,-2e-05,6
23534,24469,-4e-05,-5.9999999999999995e-05,-8e-05,-0.0001,1e-05,-0.0002,0.0,-2e-05,6
23535,24470,-4e-05,-5.9999999999999995e-05,-8e-05,-0.0001,1e-05,-0.0002,0.0,-2e-05,6
23536,24471,-4e-05,-5.9999999999999995e-05,-8e-05,-0.0001,1e-05,-0.0002,0.0,-2e-05,6
23537,24472,-4e-05,-5.9999999999999995e-05,-8e-05,-0.0001,1e-05,-0.0002,0.0,-2e-05,6
23538,24473,-4e-05,-5.9999999999999995e-05,-8e-05,-0.0001,1e-05,-0.0002,0.0,-2e-05,6
23539,24474,-4e-05,-5.9999999999999995e-05,-8e-05,-0.0001,1e-05,-0.0002,0.0,-2e-05,6
23540,24475,-4e-05,-5.9999999999999995e-05,-8e-05,-0.0001,1e-05,-0.0002,0.0,-2e-05,6
23541,24476,4e-05,2e-05,1e-05,1e-05,0.00011999999999999999,9e-05,-0.00015,0.0004,6
23542,24477,4e-05,2e-05,1e-05,1e-05,0.00011999999999999999,9e-05,-0.00015,0.0004,6
23543,24478,4e-05,2e-05,1e-05,1e-05,0.00011999999999999999,9e-05,-0.00015,0.0004,6
23544,24479,4e-05,2e-05,1e-05,1e-05,0.00011999999999999999,9e-05,-0.00015,0.0004,6
23545,24480,4e-05,2e-05,1e-05,1e-05,0.00011999999999999999,9e-05,-0.00015,0.0004,6
23546,24481,4e-05,2e-05,1e-05,1e-05,0.00011999999999999999,9e-05,-0.00015,0.0004,6
23547,24482,4e-05,2e-05,1e-05,1e-05,0.00011999999999999999,9e-05,-0.00015,0.0004,6
23548,24483,4e-05,2e-05,1e-05,1e-05,0.00011999999999999999,9e-05,-0.00015,0.0004,6
23549,24484,4e-05,2e-05,1e-05,1e-05,0.00011999999999999999,9e-05,-0.00015,0.0004,6
23550,24485,4e-05,2e-05,1e-05,1e-05,0.00011999999999999999,9e-05,-0.00015,0.0004,6
23551,24486,4e-05,2e-05,1e-05,1e-05,0.00011999999999999999,9e-05,-0.00015,0.0004,6
23552,24488,4e-05,2e-05,1e-05,1e-05,0.00011999999999999999,9e-05,-0.00015,0.0004,6
23553,24490,4e-05,2e-05,1e-05,1e-05,0.00011999999999999999,9e-05,-0.00015,0.0004,6
23554,24491,4e-05,-1e-05,1e-05,1e-05,-0.0002,-0.00022,1e-05,-5e-05,6
23555,24492,-1e-05,-2.9999999999999997e-05,-4e-05,-8e-05,-0.00023999999999999998,-0.00016999999999999999,0.00018999999999999998,0.00028,6
23556,24493,-1e-05,-2.9999999999999997e-05,-4e-05,-8e-05,-0.00023999999999999998,-0.00016999999999999999,0.00018999999999999998,0.00028,6
23557,24494,-1e-05,-2.9999999999999997e-05,-4e-05,-8e-05,-0.00023999999999999998,-0.00016999999999999999,0.00018999999999999998,0.00028,6
23558,24495,-1e-05,-2.9999999999999997e-05,-4e-05,-8e-05,-0.00023999999999999998,-0.00016999999999999999,0.00018999999999999998,0.00028,6
23559,24496,-1e-05,-2.9999999999999997e-05,-4e-05,-8e-05,-0.00023999999999999998,-0.00016999999999999999,0.00018999999999999998,0.00028,6
23560,24497,-1e-05,-2.9999999999999997e-05,-4e-05,-8e-05,-0.00023999999999999998,-0.00016999999999999999,0.00018999999999999998,0.00028,6
23561,24498,-1e-05,-2.9999999999999997e-05,-4e-05,-8e-05,-0.00023999999999999998,-0.00016999999999999999,0.00018999999999999998,0.00028,6
23562,24499,-1e-05,-2.9999999999999997e-05,-4e-05,-8e-05,-0.00023999999999999998,-0.00016999999999999999,0.00018999999999999998,0.00028,6
23563,24500,-1e-05,-2.9999999999999997e-05,-4e-05,-8e-05,-0.00023999999999999998,-0.00016999999999999999,0.00018999999999999998,0.00028,6
23564,24501,-1e-05,-2.9999999999999997e-05,-4e-05,-8e-05,-0.00023999999999999998,-0.00016999999999999999,0.00018999999999999998,0.00028,6
23565,24502,-1e-05,-2.9999999999999997e-05,-4e-05,-8e-05,-0.00023999999999999998,-0.00016999999999999999,0.00018999999999999998,0.00028,6
23566,24503,-1e-05,-2.9999999999999997e-05,-4e-05,-8e-05,-0.00023999999999999998,-0.00016999999999999999,0.00018999999999999998,0.00028,6
23567,24504,-1e-05,-2.9999999999999997e-05,-4e-05,-8e-05,-0.00023999999999999998,-0.00016999999999999999,0.00018999999999999998,0.00028,6
23568,24505,-1e-05,-2.9999999999999997e-05,-4e-05,-8e-05,-0.00023999999999999998,-0.00016999999999999999,0.00018999999999999998,0.00028,6
23569,24506,-1e-05,-2.9999999999999997e-05,-4e-05,-8e-05,-0.00023999999999999998,-0.00016999999999999999,0.00018999999999999998,0.00028,6
23570,24507,-1e-05,-2.9999999999999997e-05,-4e-05,-8e-05,-0.00023999999999999998,-0.00016999999999999999,0.00018999999999999998,0.00028,6
23571,24508,-1e-05,-2.9999999999999997e-05,-4e-05,-8e-05,-0.00023999999999999998,-0.00016999999999999999,0.00018999999999999998,0.00028,6
23572,24509,-1e-05,-2.9999999999999997e-05,-4e-05,-8e-05,-0.00023999999999999998,-0.00016999999999999999,0.00018999999999999998,0.00028,6
23573,24510,-1e-05,-2.9999999999999997e-05,-4e-05,-8e-05,-0.00023999999999999998,-0.00016999999999999999,0.00018999999999999998,0.00028,6
23574,24511,-1e-05,-2.9999999999999997e-05,-4e-05,-8e-05,-0.00023999999999999998,-0.00016999999999999999,0.00018999999999999998,0.00028,6
23575,24512,-1e-05,-2.9999999999999997e-05,-4e-05,-8e-05,-0.00023999999999999998,-0.00016999999999999999,0.00018999999999999998,0.00028,6
23576,24513,1e-05,-2.9999999999999997e-05,-5e-05,-5e-05,-0.00022999999999999998,-0.00011,-2.9999999999999997e-05,8e-05,6
23577,24514,1e-05,-2.9999999999999997e-05,-5e-05,-5e-05,-0.00022999999999999998,-0.00011,-2.9999999999999997e-05,8e-05,6
23578,24515,-4e-05,2e-05,2e-05,4e-05,0.0,-0.00039,-7e-05,-0.00033999999999999997,6
23579,24516,-4e-05,2e-05,2e-05,4e-05,0.0,-0.00039,-7e-05,-0.00033999999999999997,6
23580,24517,-4e-05,2e-05,2e-05,4e-05,0.0,-0.00039,-7e-05,-0.00033999999999999997,6
23581,24518,-4e-05,2e-05,2e-05,4e-05,0.0,-0.00039,-7e-05,-0.00033999999999999997,6
23582,24519,-4e-05,2e-05,2e-05,4e-05,0.0,-0.00039,-7e-05,-0.00033999999999999997,6
23583,24520,-4e-05,2e-05,2e-05,4e-05,0.0,-0.00039,-7e-05,-0.00033999999999999997,6
23584,24521,-4e-05,2e-05,2e-05,4e-05,0.0,-0.00039,-7e-05,-0.00033999999999999997,6
23585,24522,-4e-05,2e-05,2e-05,4e-05,0.0,-0.00039,-7e-05,-0.00033999999999999997,6
23586,24523,-4e-05,2e-05,2e-05,4e-05,0.0,-0.00039,-7e-05,-0.00033999999999999997,6
23587,24524,-4e-05,2e-05,2e-05,4e-05,0.0,-0.00039,-7e-05,-0.00033999999999999997,6
23588,24525,-4e-05,2e-05,2e-05,4e-05,0.0,-0.00039,-7e-05,-0.00033999999999999997,6
23589,24526,-4e-05,2e-05,2e-05,4e-05,0.0,-0.00039,-7e-05,-0.00033999999999999997,6
23590,24527,-4e-05,2e-05,2e-05,4e-05,0.0,-0.00039,-7e-05,-0.00033999999999999997,6
23591,24528,-4e-05,2e-05,2e-05,4e-05,0.0,-0.00039,-7e-05,-0.00033999999999999997,6
23592,24529,-4e-05,2e-05,2e-05,4e-05,0.0,-0.00039,-7e-05,-0.00033999999999999997,6
23593,24530,-4e-05,2e-05,2e-05,4e-05,0.0,-0.00039,-7e-05,-0.00033999999999999997,6
23594,24531,-4e-05,2e-05,2e-05,4e-05,0.0,-0.00039,-7e-05,-0.00033999999999999997,6
23595,24532,-4e-05,2e-05,2e-05,4e-05,0.0,-0.00039,-7e-05,-0.00033999999999999997,6
23596,24533,-4e-05,2e-05,2e-05,4e-05,0.0,-0.00039,-7e-05,-0.00033999999999999997,6
23597,24534,-4e-05,2e-05,2e-05,4e-05,0.0,-0.00039,-7e-05,-0.00033999999999999997,6
23598,24535,-4e-05,2e-05,2e-05,4e-05,0.0,-0.00039,-7e-05,-0.00033999999999999997,6
23599,24536,0.0,0.0,0.0,-2e-05,-0.00018,-0.0006,-2.9999999999999997e-05,0.00044,6
23600,24538,5e-05,-2.9999999999999997e-05,-1e-05,1e-05,9e-05,5e-05,-0.00022,-0.00028,6
23601,24539,5e-05,-2.9999999999999997e-05,-1e-05,1e-05,9e-05,5e-05,-0.00022,-0.00028,6
23602,24540,5e-05,-2.9999999999999997e-05,-1e-05,1e-05,9e-05,5e-05,-0.00022,-0.00028,6
23603,24541,5e-05,-2.9999999999999997e-05,-1e-05,1e-05,9e-05,5e-05,-0.00022,-0.00028,6
23604,24542,5e-05,-2.9999999999999997e-05,-1e-05,1e-05,9e-05,5e-05,-0.00022,-0.00028,6
23605,24543,5e-05,-2.9999999999999997e-05,-1e-05,1e-05,9e-05,5e-05,-0.00022,-0.00028,6
23606,24544,5e-05,-2.9999999999999997e-05,-1e-05,1e-05,9e-05,5e-05,-0.00022,-0.00028,6
23607,24545,5e-05,-2.9999999999999997e-05,-1e-05,1e-05,9e-05,5e-05,-0.00022,-0.00028,6
23608,24546,5e-05,-2.9999999999999997e-05,-1e-05,1e-05,9e-05,5e-05,-0.00022,-0.00028,6
23609,24547,5e-05,-2.9999999999999997e-05,-1e-05,1e-05,9e-05,5e-05,-0.00022,-0.00028,6
23610,24548,5e-05,-2.9999999999999997e-05,-1e-05,1e-05,9e-05,5e-05,-0.00022,-0.00028,6
23611,24549,5e-05,-2.9999999999999997e-05,-1e-05,1e-05,9e-05,5e-05,-0.00022,-0.00028,6
23612,24550,5e-05,-2.9999999999999997e-05,-1e-05,1e-05,9e-05,5e-05,-0.00022,-0.00028,6
23613,24551,2.9999999999999997e-05,1e-05,2.9999999999999997e-05,2e-05,1e-05,0.00011999999999999999,-9e-05,9e-05,6
23614,24552,0.0,0.0,1e-05,5.9999999999999995e-05,0.0001,0.00057,9e-05,2e-05,6
23615,24553,0.0,0.0,1e-05,5.9999999999999995e-05,0.0001,0.00057,9e-05,2e-05,6
23616,24554,0.0,0.0,1e-05,5.9999999999999995e-05,0.0001,0.00057,9e-05,2e-05,6
23617,24555,0.0,0.0,1e-05,5.9999999999999995e-05,0.0001,0.00057,9e-05,2e-05,6
23618,24556,0.0,0.0,1e-05,5.9999999999999995e-05,0.0001,0.00057,9e-05,2e-05,6
23619,24557,0.0,0.0,1e-05,5.9999999999999995e-05,0.0001,0.00057,9e-05,2e-05,6
23620,24558,0.0,0.0,1e-05,5.9999999999999995e-05,0.0001,0.00057,9e-05,2e-05,6
23621,24559,0.0,0.0,1e-05,5.9999999999999995e-05,0.0001,0.00057,9e-05,2e-05,6
23622,24560,0.0,0.0,1e-05,5.9999999999999995e-05,0.0001,0.00057,9e-05,2e-05,6
23623,24561,0.0,0.0,1e-05,5.9999999999999995e-05,0.0001,0.00057,9e-05,2e-05,6
23624,24562,0.0,0.0,1e-05,5.9999999999999995e-05,0.0001,0.00057,9e-05,2e-05,6
23625,24563,0.0,0.0,1e-05,5.9999999999999995e-05,0.0001,0.00057,9e-05,2e-05,6
23626,24564,0.0,0.0,1e-05,5.9999999999999995e-05,0.0001,0.00057,9e-05,2e-05,6
23627,24565,0.0,0.0,1e-05,5.9999999999999995e-05,0.0001,0.00057,9e-05,2e-05,6
23628,24566,0.0,0.0,1e-05,5.9999999999999995e-05,0.0001,0.00057,9e-05,2e-05,6
23629,24567,0.0,0.0,1e-05,5.9999999999999995e-05,0.0001,0.00057,9e-05,2e-05,6
23630,24568,0.0,0.0,1e-05,5.9999999999999995e-05,0.0001,0.00057,9e-05,2e-05,6
23631,24569,0.0,0.0,1e-05,5.9999999999999995e-05,0.0001,0.00057,9e-05,2e-05,6
23632,24570,0.0,0.0,1e-05,5.9999999999999995e-05,0.0001,0.00057,9e-05,2e-05,6
23633,24571,0.0,0.0,1e-05,5.9999999999999995e-05,0.0001,0.00057,9e-05,2e-05,6
23634,24572,0.0,0.0,1e-05,5.9999999999999995e-05,0.0001,0.00057,9e-05,2e-05,6
23635,24573,-2e-05,-1e-05,0.0,-1e-05,-4e-05,-0.00044,0.00033999999999999997,-9e-05,6
23636,24574,-4e-05,-1e-05,-2e-05,-2.9999999999999997e-05,-0.00011,0.0001,0.0001,-0.00016999999999999999,6
23637,24575,2e-05,-1e-05,-1e-05,-2e-05,-0.00021,-0.00037,-0.00016,0.00011999999999999999,6
23638,24576,2e-05,-1e-05,-1e-05,-2e-05,-0.00021,-0.00037,-0.00016,0.00011999999999999999,6
23639,24577,2e-05,-1e-05,-1e-05,-2e-05,-0.00021,-0.00037,-0.00016,0.00011999999999999999,6
23640,24578,2e-05,-1e-05,-1e-05,-2e-05,-0.00021,-0.00037,-0.00016,0.00011999999999999999,6
23641,24579,2e-05,-1e-05,-1e-05,-2e-05,-0.00021,-0.00037,-0.00016,0.00011999999999999999,6
23642,24580,2e-05,-1e-05,-1e-05,-2e-05,-0.00021,-0.00037,-0.00016,0.00011999999999999999,6
23643,24581,2e-05,-1e-05,-1e-05,-2e-05,-0.00021,-0.00037,-0.00016,0.00011999999999999999,6
23644,24582,2e-05,-1e-05,-1e-05,-2e-05,-0.00021,-0.00037,-0.00016,0.00011999999999999999,6
23645,24583,2e-05,-1e-05,-1e-05,-2e-05,-0.00021,-0.00037,-0.00016,0.00011999999999999999,6
23646,24584,2e-05,-1e-05,-1e-05,-2e-05,-0.00021,-0.00037,-0.00016,0.00011999999999999999,6
23647,24585,2e-05,-1e-05,-1e-05,-2e-05,-0.00021,-0.00037,-0.00016,0.00011999999999999999,6
23648,24586,2e-05,-1e-05,-1e-05,-2e-05,-0.00021,-0.00037,-0.00016,0.00011999999999999999,6
23649,24588,2e-05,-1e-05,-1e-05,-2e-05,-0.00021,-0.00037,-0.00016,0.00011999999999999999,6
23650,24589,2e-05,-1e-05,-1e-05,-2e-05,-0.00021,-0.00037,-0.00016,0.00011999999999999999,6
23651,24590,2e-05,-1e-05,-1e-05,-2e-05,-0.00021,-0.00037,-0.00016,0.00011999999999999999,6
23652,24591,2e-05,-1e-05,-1e-05,-2e-05,-0.00021,-0.00037,-0.00016,0.00011999999999999999,6
23653,24592,2e-05,-1e-05,-1e-05,-2e-05,-0.00021,-0.00037,-0.00016,0.00011999999999999999,6
23654,24593,2e-05,-1e-05,-1e-05,-2e-05,-0.00021,-0.00037,-0.00016,0.00011999999999999999,6
23655,24594,2e-05,-1e-05,-1e-05,-2e-05,-0.00021,-0.00037,-0.00016,0.00011999999999999999,6
23656,24595,2e-05,-1e-05,-1e-05,-2e-05,-0.00021,-0.00037,-0.00016,0.00011999999999999999,6
23657,24596,-1e-05,-1e-05,-2e-05,-2e-05,-4e-05,2.9999999999999997e-05,-9e-05,0.00011,6
23658,24597,2e-05,0.0,-2e-05,-1e-05,-2.9999999999999997e-05,-9e-05,1e-05,0.00021,6
23659,24598,2e-05,0.0,-2e-05,-1e-05,-2.9999999999999997e-05,-9e-05,1e-05,0.00021,6
23660,24599,2e-05,0.0,-2e-05,-1e-05,-2.9999999999999997e-05,-9e-05,1e-05,0.00021,6
23661,24600,2e-05,0.0,-2e-05,-1e-05,-2.9999999999999997e-05,-9e-05,1e-05,0.00021,6
23662,24601,2e-05,0.0,-2e-05,-1e-05,-2.9999999999999997e-05,-9e-05,1e-05,0.00021,6
23663,24602,2e-05,0.0,-2e-05,-1e-05,-2.9999999999999997e-05,-9e-05,1e-05,0.00021,6
23664,24603,2e-05,0.0,-2e-05,-1e-05,-2.9999999999999997e-05,-9e-05,1e-05,0.00021,6
23665,24604,2e-05,0.0,-2e-05,-1e-05,-2.9999999999999997e-05,-9e-05,1e-05,0.00021,6
23666,24605,2e-05,0.0,-2e-05,-1e-05,-2.9999999999999997e-05,-9e-05,1e-05,0.00021,6
23667,24606,2e-05,0.0,-2e-05,-1e-05,-2.9999999999999997e-05,-9e-05,1e-05,0.00021,6
23668,24607,2e-05,0.0,-2e-05,-1e-05,-2.9999999999999997e-05,-9e-05,1e-05,0.00021,6
23669,24608,2e-05,0.0,-2e-05,-1e-05,-2.9999999999999997e-05,-9e-05,1e-05,0.00021,6
23670,24609,2e-05,0.0,-2e-05,-1e-05,-2.9999999999999997e-05,-9e-05,1e-05,0.00021,6
23671,24610,-4e-05,-1e-05,2e-05,0.0,0.00013000000000000002,-2e-05,-4e-05,-0.00022999999999999998,6
23672,24611,-4e-05,-1e-05,2e-05,0.0,0.00013000000000000002,-2e-05,-4e-05,-0.00022999999999999998,6
23673,24612,-4e-05,-1e-05,2e-05,0.0,0.00013000000000000002,-2e-05,-4e-05,-0.00022999999999999998,6
23674,24613,-4e-05,-1e-05,2e-05,0.0,0.00013000000000000002,-2e-05,-4e-05,-0.00022999999999999998,6
23675,24614,-4e-05,-1e-05,2e-05,0.0,0.00013000000000000002,-2e-05,-4e-05,-0.00022999999999999998,6
23676,24615,-4e-05,-1e-05,2e-05,0.0,0.00013000000000000002,-2e-05,-4e-05,-0.00022999999999999998,6
23677,24616,-4e-05,-1e-05,2e-05,0.0,0.00013000000000000002,-2e-05,-4e-05,-0.00022999999999999998,6
23678,24617,2e-05,2e-05,0.0,-1e-05,-0.00026000000000000003,-0.00045,-0.00011999999999999999,0.00021,6
23679,24618,2e-05,2e-05,0.0,-1e-05,-0.00026000000000000003,-0.00045,-0.00011999999999999999,0.00021,6
23680,24619,2e-05,2e-05,0.0,-1e-05,-0.00026000000000000003,-0.00045,-0.00011999999999999999,0.00021,6
23681,24620,2e-05,2e-05,0.0,-1e-05,-0.00026000000000000003,-0.00045,-0.00011999999999999999,0.00021,6
23682,24621,2e-05,2e-05,0.0,-1e-05,-0.00026000000000000003,-0.00045,-0.00011999999999999999,0.00021,6
23683,24623,2e-05,2e-05,0.0,-1e-05,-0.00026000000000000003,-0.00045,-0.00011999999999999999,0.00021,6
23684,24624,2e-05,2e-05,0.0,-1e-05,-0.00026000000000000003,-0.00045,-0.00011999999999999999,0.00021,6
23685,24625,2e-05,2e-05,0.0,-1e-05,-0.00026000000000000003,-0.00045,-0.00011999999999999999,0.00021,6
23686,24626,2e-05,2e-05,0.0,-1e-05,-0.00026000000000000003,-0.00045,-0.00011999999999999999,0.00021,6
23687,24627,2e-05,2e-05,0.0,-1e-05,-0.00026000000000000003,-0.00045,-0.00011999999999999999,0.00021,6
23688,24628,2e-05,2e-05,0.0,-1e-05,-0.00026000000000000003,-0.00045,-0.00011999999999999999,0.00021,6
23689,24629,2e-05,2e-05,0.0,-1e-05,-0.00026000000000000003,-0.00045,-0.00011999999999999999,0.00021,6
23690,24630,2e-05,2e-05,0.0,-1e-05,-0.00026000000000000003,-0.00045,-0.00011999999999999999,0.00021,6
23691,24631,2e-05,2e-05,0.0,-1e-05,-0.00026000000000000003,-0.00045,-0.00011999999999999999,0.00021,6
23692,24632,2e-05,2e-05,0.0,-1e-05,-0.00026000000000000003,-0.00045,-0.00011999999999999999,0.00021,6
23693,24633,-2e-05,-2e-05,-2.9999999999999997e-05,-1e-05,0.00018999999999999998,0.00036,4e-05,-0.00027,6
23694,24634,-2e-05,-2e-05,-2.9999999999999997e-05,-1e-05,0.00018999999999999998,0.00036,4e-05,-0.00027,6
23695,24635,-5e-05,0.0,0.0,-5.9999999999999995e-05,-0.00015,0.0,1e-05,-0.0001,6
23696,24636,-5e-05,0.0,0.0,-5.9999999999999995e-05,-0.00015,0.0,1e-05,-0.0001,6
23697,24638,-5e-05,0.0,0.0,-5.9999999999999995e-05,-0.00015,0.0,1e-05,-0.0001,6
23698,24639,-5e-05,0.0,0.0,-5.9999999999999995e-05,-0.00015,0.0,1e-05,-0.0001,6
23699,24640,-5e-05,0.0,0.0,-5.9999999999999995e-05,-0.00015,0.0,1e-05,-0.0001,6
23700,24641,-5e-05,0.0,0.0,-5.9999999999999995e-05,-0.00015,0.0,1e-05,-0.0001,6
23701,24642,-5e-05,0.0,0.0,-5.9999999999999995e-05,-0.00015,0.0,1e-05,-0.0001,6
23702,24643,-5e-05,0.0,0.0,-5.9999999999999995e-05,-0.00015,0.0,1e-05,-0.0001,6
23703,24644,-5e-05,0.0,0.0,-5.9999999999999995e-05,-0.00015,0.0,1e-05,-0.0001,6
23704,24645,-5e-05,0.0,0.0,-5.9999999999999995e-05,-0.00015,0.0,1e-05,-0.0001,6
23705,24646,-5e-05,0.0,0.0,-5.9999999999999995e-05,-0.00015,0.0,1e-05,-0.0001,6
23706,24647,-5e-05,0.0,0.0,-5.9999999999999995e-05,-0.00015,0.0,1e-05,-0.0001,6
23707,24648,-5e-05,0.0,0.0,-5.9999999999999995e-05,-0.00015,0.0,1e-05,-0.0001,6
23708,24649,-5e-05,0.0,0.0,-5.9999999999999995e-05,-0.00015,0.0,1e-05,-0.0001,6
23709,24650,-5e-05,0.0,0.0,-5.9999999999999995e-05,-0.00015,0.0,1e-05,-0.0001,6
23710,24651,-5e-05,0.0,0.0,-5.9999999999999995e-05,-0.00015,0.0,1e-05,-0.0001,6
23711,24652,-5e-05,0.0,0.0,-5.9999999999999995e-05,-0.00015,0.0,1e-05,-0.0001,6
23712,24653,-5e-05,0.0,0.0,-5.9999999999999995e-05,-0.00015,0.0,1e-05,-0.0001,6
23713,24654,-5e-05,0.0,0.0,-5.9999999999999995e-05,-0.00015,0.0,1e-05,-0.0001,6
23714,24655,-5e-05,0.0,0.0,-5.9999999999999995e-05,-0.00015,0.0,1e-05,-0.0001,6
23715,24656,9e-05,-2e-05,-2.9999999999999997e-05,-2.9999999999999997e-05,-8e-05,0.00011999999999999999,-5.9999999999999995e-05,0.00021,6
23716,24657,-5e-05,-4e-05,-4e-05,-5e-05,2.9999999999999997e-05,2.9999999999999997e-05,9e-05,-7e-05,6
23717,24658,-5e-05,-4e-05,-4e-05,-5e-05,2.9999999999999997e-05,2.9999999999999997e-05,9e-05,-7e-05,6
23718,24659,-5e-05,-4e-05,-4e-05,-5e-05,2.9999999999999997e-05,2.9999999999999997e-05,9e-05,-7e-05,6
23719,24660,-5e-05,-4e-05,-4e-05,-5e-05,2.9999999999999997e-05,2.9999999999999997e-05,9e-05,-7e-05,6
23720,24661,-5e-05,-4e-05,-4e-05,-5e-05,2.9999999999999997e-05,2.9999999999999997e-05,9e-05,-7e-05,6
23721,24662,-5e-05,-4e-05,-4e-05,-5e-05,2.9999999999999997e-05,2.9999999999999997e-05,9e-05,-7e-05,6
23722,24663,-5e-05,-4e-05,-4e-05,-5e-05,2.9999999999999997e-05,2.9999999999999997e-05,9e-05,-7e-05,6
23723,24664,-5e-05,-4e-05,-4e-05,-5e-05,2.9999999999999997e-05,2.9999999999999997e-05,9e-05,-7e-05,6
23724,24665,-5e-05,-4e-05,-4e-05,-5e-05,2.9999999999999997e-05,2.9999999999999997e-05,9e-05,-7e-05,6
23725,24666,-5e-05,-4e-05,-4e-05,-5e-05,2.9999999999999997e-05,2.9999999999999997e-05,9e-05,-7e-05,6
23726,24667,-5e-05,-4e-05,-4e-05,-5e-05,2.9999999999999997e-05,2.9999999999999997e-05,9e-05,-7e-05,6
23727,24668,-5e-05,-4e-05,-4e-05,-5e-05,2.9999999999999997e-05,2.9999999999999997e-05,9e-05,-7e-05,6
23728,24669,-5e-05,-4e-05,-4e-05,-5e-05,2.9999999999999997e-05,2.9999999999999997e-05,9e-05,-7e-05,6
23729,24670,-5e-05,-4e-05,-4e-05,-5e-05,2.9999999999999997e-05,2.9999999999999997e-05,9e-05,-7e-05,6
23730,24671,2.9999999999999997e-05,0.0,2e-05,1e-05,-5e-05,0.00014,0.00041,0.00031,6
23731,24672,2.9999999999999997e-05,0.0,2e-05,1e-05,-5e-05,0.00014,0.00041,0.00031,6
23732,24673,1e-05,1e-05,1e-05,2e-05,0.00026000000000000003,0.0005200000000000001,0.00016,0.0,6
23733,24674,1e-05,1e-05,1e-05,2e-05,0.00026000000000000003,0.0005200000000000001,0.00016,0.0,6
23734,24675,1e-05,1e-05,1e-05,2e-05,0.00026000000000000003,0.0005200000000000001,0.00016,0.0,6
23735,24676,1e-05,1e-05,1e-05,2e-05,0.00026000000000000003,0.0005200000000000001,0.00016,0.0,6
23736,24677,1e-05,1e-05,1e-05,2e-05,0.00026000000000000003,0.0005200000000000001,0.00016,0.0,6
23737,24678,1e-05,1e-05,1e-05,2e-05,0.00026000000000000003,0.0005200000000000001,0.00016,0.0,6
23738,24679,1e-05,1e-05,1e-05,2e-05,0.00026000000000000003,0.0005200000000000001,0.00016,0.0,6
23739,24680,1e-05,1e-05,1e-05,2e-05,0.00026000000000000003,0.0005200000000000001,0.00016,0.0,6
23740,24681,1e-05,1e-05,1e-05,2e-05,0.00026000000000000003,0.0005200000000000001,0.00016,0.0,6
23741,24682,1e-05,1e-05,1e-05,2e-05,0.00026000000000000003,0.0005200000000000001,0.00016,0.0,6
23742,24683,1e-05,1e-05,1e-05,2e-05,0.00026000000000000003,0.0005200000000000001,0.00016,0.0,6
23743,24684,1e-05,1e-05,1e-05,2e-05,0.00026000000000000003,0.0005200000000000001,0.00016,0.0,6
23744,24685,1e-05,1e-05,1e-05,2e-05,0.00026000000000000003,0.0005200000000000001,0.00016,0.0,6
23745,24686,1e-05,1e-05,1e-05,2e-05,0.00026000000000000003,0.0005200000000000001,0.00016,0.0,6
23746,24688,1e-05,1e-05,1e-05,2e-05,0.00026000000000000003,0.0005200000000000001,0.00016,0.0,6
23747,24689,1e-05,1e-05,1e-05,2e-05,0.00026000000000000003,0.0005200000000000001,0.00016,0.0,6
23748,24690,1e-05,1e-05,1e-05,2e-05,0.00026000000000000003,0.0005200000000000001,0.00016,0.0,6
23749,24691,1e-05,1e-05,1e-05,2e-05,0.00026000000000000003,0.0005200000000000001,0.00016,0.0,6
23750,24692,1e-05,1e-05,1e-05,2e-05,0.00026000000000000003,0.0005200000000000001,0.00016,0.0,6
23751,24693,-4e-05,-2e-05,-1e-05,2e-05,-0.00015,-0.0006799999999999999,-0.00036,-0.00031,6
23752,24694,-4e-05,-2e-05,-1e-05,2e-05,-0.00015,-0.0006799999999999999,-0.00036,-0.00031,6
23753,24695,-2e-05,-4e-05,-4e-05,-2e-05,0.0001,0.00035,0.00022999999999999998,-1e-05,6
23754,24696,-2e-05,-4e-05,-4e-05,-2e-05,0.0001,0.00035,0.00022999999999999998,-1e-05,6
23755,24697,-2e-05,-4e-05,-4e-05,-2e-05,0.0001,0.00035,0.00022999999999999998,-1e-05,6
23756,24698,-2e-05,-4e-05,-4e-05,-2e-05,0.0001,0.00035,0.00022999999999999998,-1e-05,6
23757,24699,-2e-05,-4e-05,-4e-05,-2e-05,0.0001,0.00035,0.00022999999999999998,-1e-05,6
23758,24700,-2e-05,-4e-05,-4e-05,-2e-05,0.0001,0.00035,0.00022999999999999998,-1e-05,6
23759,24701,-2e-05,-4e-05,-4e-05,-2e-05,0.0001,0.00035,0.00022999999999999998,-1e-05,6
23760,24702,-2e-05,-4e-05,-4e-05,-2e-05,0.0001,0.00035,0.00022999999999999998,-1e-05,6
23761,24703,-2e-05,-4e-05,-4e-05,-2e-05,0.0001,0.00035,0.00022999999999999998,-1e-05,6
23762,24704,-2e-05,-4e-05,-4e-05,-2e-05,0.0001,0.00035,0.00022999999999999998,-1e-05,6
23763,24705,-2e-05,-4e-05,-4e-05,-2e-05,0.0001,0.00035,0.00022999999999999998,-1e-05,6
23764,24706,-2e-05,-4e-05,-4e-05,-2e-05,0.0001,0.00035,0.00022999999999999998,-1e-05,6
23765,24707,-2e-05,-4e-05,-4e-05,-2e-05,0.0001,0.00035,0.00022999999999999998,-1e-05,6
23766,24708,-2e-05,-4e-05,-4e-05,-2e-05,0.0001,0.00035,0.00022999999999999998,-1e-05,6
23767,24709,-2e-05,-4e-05,-4e-05,-2e-05,0.0001,0.00035,0.00022999999999999998,-1e-05,6
23768,24710,-2e-05,-4e-05,-4e-05,-2e-05,0.0001,0.00035,0.00022999999999999998,-1e-05,6
23769,24711,-2e-05,-4e-05,-4e-05,-2e-05,0.0001,0.00035,0.00022999999999999998,-1e-05,6
23770,24712,-2e-05,-4e-05,-4e-05,-2e-05,0.0001,0.00035,0.00022999999999999998,-1e-05,6
23771,24713,-2e-05,-4e-05,-4e-05,-2e-05,0.0001,0.00035,0.00022999999999999998,-1e-05,6
23772,24714,-2e-05,-4e-05,-4e-05,-2e-05,0.0001,0.00035,0.00022999999999999998,-1e-05,6
23773,24715,2e-05,-1e-05,1e-05,-2.9999999999999997e-05,-0.00028,0.00011999999999999999,-5e-05,0.00022,6
23774,24716,-1e-05,1e-05,4e-05,2.9999999999999997e-05,2e-05,-4e-05,-4e-05,-0.00011,6
23775,24717,-2e-05,-5e-05,-7e-05,-4e-05,0.00015,0.00022,8e-05,2e-05,6
23776,24718,-2e-05,-5e-05,-7e-05,-4e-05,0.00015,0.00022,8e-05,2e-05,6
23777,24719,-2e-05,-5e-05,-7e-05,-4e-05,0.00015,0.00022,8e-05,2e-05,6
23778,24720,-2e-05,-5e-05,-7e-05,-4e-05,0.00015,0.00022,8e-05,2e-05,6
23779,24721,-2e-05,-5e-05,-7e-05,-4e-05,0.00015,0.00022,8e-05,2e-05,6
23780,24722,-2e-05,-5e-05,-7e-05,-4e-05,0.00015,0.00022,8e-05,2e-05,6
23781,24723,-2e-05,-5e-05,-7e-05,-4e-05,0.00015,0.00022,8e-05,2e-05,6
23782,24724,-2e-05,-5e-05,-7e-05,-4e-05,0.00015,0.00022,8e-05,2e-05,6
23783,24725,-2e-05,-5e-05,-7e-05,-4e-05,0.00015,0.00022,8e-05,2e-05,6
23784,24726,-2e-05,-5e-05,-7e-05,-4e-05,0.00015,0.00022,8e-05,2e-05,6
23785,24727,-2e-05,-5e-05,-7e-05,-4e-05,0.00015,0.00022,8e-05,2e-05,6
23786,24728,-2e-05,-5e-05,-7e-05,-4e-05,0.00015,0.00022,8e-05,2e-05,6
23787,24729,-2e-05,-5e-05,-7e-05,-4e-05,0.00015,0.00022,8e-05,2e-05,6
23788,24730,2e-05,1e-05,5e-05,5.9999999999999995e-05,0.00031,0.00063,0.00022999999999999998,0.00022999999999999998,6
23789,24731,2e-05,1e-05,5e-05,5.9999999999999995e-05,0.00031,0.00063,0.00022999999999999998,0.00022999999999999998,6
23790,24732,2e-05,1e-05,5e-05,5.9999999999999995e-05,0.00031,0.00063,0.00022999999999999998,0.00022999999999999998,6
23791,24733,2e-05,1e-05,5e-05,5.9999999999999995e-05,0.00031,0.00063,0.00022999999999999998,0.00022999999999999998,6
23792,24734,2e-05,1e-05,5e-05,5.9999999999999995e-05,0.00031,0.00063,0.00022999999999999998,0.00022999999999999998,6
23793,24735,2e-05,1e-05,5e-05,5.9999999999999995e-05,0.00031,0.00063,0.00022999999999999998,0.00022999999999999998,6
23794,24736,-9e-05,-2e-05,-1e-05,-1e-05,2e-05,-0.00013000000000000002,-0.00014,-0.0005200000000000001,6
23795,24738,-2.9999999999999997e-05,1e-05,4e-05,2e-05,-0.00015,-0.00037999999999999997,-0.00014,2.9999999999999997e-05,6
23796,24739,-2.9999999999999997e-05,1e-05,4e-05,2e-05,-0.00015,-0.00037999999999999997,-0.00014,2.9999999999999997e-05,6
23797,24740,-2.9999999999999997e-05,1e-05,4e-05,2e-05,-0.00015,-0.00037999999999999997,-0.00014,2.9999999999999997e-05,6
23798,24741,-2.9999999999999997e-05,1e-05,4e-05,2e-05,-0.00015,-0.00037999999999999997,-0.00014,2.9999999999999997e-05,6
23799,24742,-2.9999999999999997e-05,1e-05,4e-05,2e-05,-0.00015,-0.00037999999999999997,-0.00014,2.9999999999999997e-05,6
23800,24743,-2.9999999999999997e-05,1e-05,4e-05,2e-05,-0.00015,-0.00037999999999999997,-0.00014,2.9999999999999997e-05,6
23801,24744,-2.9999999999999997e-05,1e-05,4e-05,2e-05,-0.00015,-0.00037999999999999997,-0.00014,2.9999999999999997e-05,6
23802,24745,-2.9999999999999997e-05,1e-05,4e-05,2e-05,-0.00015,-0.00037999999999999997,-0.00014,2.9999999999999997e-05,6
23803,24746,-2.9999999999999997e-05,1e-05,4e-05,2e-05,-0.00015,-0.00037999999999999997,-0.00014,2.9999999999999997e-05,6
23804,24747,-2.9999999999999997e-05,1e-05,4e-05,2e-05,-0.00015,-0.00037999999999999997,-0.00014,2.9999999999999997e-05,6
23805,24748,-2.9999999999999997e-05,1e-05,4e-05,2e-05,-0.00015,-0.00037999999999999997,-0.00014,2.9999999999999997e-05,6
23806,24749,-2.9999999999999997e-05,1e-05,4e-05,2e-05,-0.00015,-0.00037999999999999997,-0.00014,2.9999999999999997e-05,6
23807,24750,-2.9999999999999997e-05,1e-05,4e-05,2e-05,-0.00015,-0.00037999999999999997,-0.00014,2.9999999999999997e-05,6
23808,24751,-2.9999999999999997e-05,1e-05,4e-05,2e-05,-0.00015,-0.00037999999999999997,-0.00014,2.9999999999999997e-05,6
23809,24752,-2.9999999999999997e-05,1e-05,4e-05,2e-05,-0.00015,-0.00037999999999999997,-0.00014,2.9999999999999997e-05,6
23810,24753,-0.00013000000000000002,-7e-05,-0.0001,-0.00013000000000000002,-0.00041,2.9999999999999997e-05,-2e-05,-0.00033,6
23811,24754,-0.00013000000000000002,-7e-05,-0.0001,-0.00013000000000000002,-0.00041,2.9999999999999997e-05,-2e-05,-0.00033,6
23812,24755,0.0,0.0,0.0,2e-05,2.9999999999999997e-05,0.00036,-2.9999999999999997e-05,-5e-05,6
23813,24756,0.0,0.0,0.0,2e-05,2.9999999999999997e-05,0.00036,-2.9999999999999997e-05,-5e-05,6
23814,24757,0.0,0.0,0.0,2e-05,2.9999999999999997e-05,0.00036,-2.9999999999999997e-05,-5e-05,6
23815,24758,0.0,0.0,0.0,2e-05,2.9999999999999997e-05,0.00036,-2.9999999999999997e-05,-5e-05,6
23816,24759,0.0,0.0,0.0,2e-05,2.9999999999999997e-05,0.00036,-2.9999999999999997e-05,-5e-05,6
23817,24760,0.0,0.0,0.0,2e-05,2.9999999999999997e-05,0.00036,-2.9999999999999997e-05,-5e-05,6
23818,24761,0.0,0.0,0.0,2e-05,2.9999999999999997e-05,0.00036,-2.9999999999999997e-05,-5e-05,6
23819,24762,0.0,0.0,0.0,2e-05,2.9999999999999997e-05,0.00036,-2.9999999999999997e-05,-5e-05,6
23820,24763,0.0,0.0,0.0,2e-05,2.9999999999999997e-05,0.00036,-2.9999999999999997e-05,-5e-05,6
23821,24764,0.0,0.0,0.0,2e-05,2.9999999999999997e-05,0.00036,-2.9999999999999997e-05,-5e-05,6
23822,24765,0.0,0.0,0.0,2e-05,2.9999999999999997e-05,0.00036,-2.9999999999999997e-05,-5e-05,6
23823,24766,0.0,0.0,0.0,2e-05,2.9999999999999997e-05,0.00036,-2.9999999999999997e-05,-5e-05,6
23824,24767,0.0,0.0,0.0,2e-05,2.9999999999999997e-05,0.00036,-2.9999999999999997e-05,-5e-05,6
23825,24768,0.0,0.0,0.0,2e-05,2.9999999999999997e-05,0.00036,-2.9999999999999997e-05,-5e-05,6
23826,24769,0.0,0.0,0.0,2e-05,2.9999999999999997e-05,0.00036,-2.9999999999999997e-05,-5e-05,6
23827,24770,0.0,0.0,0.0,2e-05,2.9999999999999997e-05,0.00036,-2.9999999999999997e-05,-5e-05,6
23828,24771,0.0,0.0,0.0,2e-05,2.9999999999999997e-05,0.00036,-2.9999999999999997e-05,-5e-05,6
23829,24772,0.0,0.0,0.0,2e-05,2.9999999999999997e-05,0.00036,-2.9999999999999997e-05,-5e-05,6
23830,24773,0.0,0.0,0.0,2e-05,2.9999999999999997e-05,0.00036,-2.9999999999999997e-05,-5e-05,6
23831,24774,0.0,0.0,0.0,2e-05,2.9999999999999997e-05,0.00036,-2.9999999999999997e-05,-5e-05,6
23832,24775,0.0,0.0,0.0,2e-05,2.9999999999999997e-05,0.00036,-2.9999999999999997e-05,-5e-05,6
23833,24776,-2e-05,-1e-05,0.0,-1e-05,-2.9999999999999997e-05,0.0001,5e-05,0.0001,6
23834,24777,-2e-05,-1e-05,-2e-05,2e-05,0.00018999999999999998,-0.00018,-2.9999999999999997e-05,-5e-05,6
23835,24778,-2e-05,-1e-05,-2e-05,2e-05,0.00018999999999999998,-0.00018,-2.9999999999999997e-05,-5e-05,6
23836,24779,-2e-05,-1e-05,-2e-05,2e-05,0.00018999999999999998,-0.00018,-2.9999999999999997e-05,-5e-05,6
23837,24780,-2e-05,-1e-05,-2e-05,2e-05,0.00018999999999999998,-0.00018,-2.9999999999999997e-05,-5e-05,6
23838,24781,-2e-05,-1e-05,-2e-05,2e-05,0.00018999999999999998,-0.00018,-2.9999999999999997e-05,-5e-05,6
23839,24782,-2e-05,-1e-05,-2e-05,2e-05,0.00018999999999999998,-0.00018,-2.9999999999999997e-05,-5e-05,6
23840,24783,-2e-05,-1e-05,-2e-05,2e-05,0.00018999999999999998,-0.00018,-2.9999999999999997e-05,-5e-05,6
23841,24784,-2e-05,-1e-05,-2e-05,2e-05,0.00018999999999999998,-0.00018,-2.9999999999999997e-05,-5e-05,6
23842,24785,-2e-05,-1e-05,-2e-05,2e-05,0.00018999999999999998,-0.00018,-2.9999999999999997e-05,-5e-05,6
23843,24786,-2e-05,-1e-05,-2e-05,2e-05,0.00018999999999999998,-0.00018,-2.9999999999999997e-05,-5e-05,6
23844,24788,-2e-05,-1e-05,-2e-05,2e-05,0.00018999999999999998,-0.00018,-2.9999999999999997e-05,-5e-05,6
23845,24789,-2e-05,-1e-05,-2e-05,2e-05,0.00018999999999999998,-0.00018,-2.9999999999999997e-05,-5e-05,6
23846,24790,-1e-05,-2e-05,-2.9999999999999997e-05,-5.9999999999999995e-05,-0.00015,-0.00013000000000000002,-0.00036,-8e-05,6
23847,24791,-1e-05,-2e-05,-2.9999999999999997e-05,-5.9999999999999995e-05,-0.00015,-0.00013000000000000002,-0.00036,-8e-05,6
23848,24792,-1e-05,-2e-05,-2.9999999999999997e-05,-5.9999999999999995e-05,-0.00015,-0.00013000000000000002,-0.00036,-8e-05,6
23849,24793,-1e-05,-2e-05,-2.9999999999999997e-05,-5.9999999999999995e-05,-0.00015,-0.00013000000000000002,-0.00036,-8e-05,6
23850,24794,-1e-05,-2e-05,-2.9999999999999997e-05,-5.9999999999999995e-05,-0.00015,-0.00013000000000000002,-0.00036,-8e-05,6
23851,24795,-1e-05,-2e-05,-2.9999999999999997e-05,-5.9999999999999995e-05,-0.00015,-0.00013000000000000002,-0.00036,-8e-05,6
23852,24796,-7e-05,0.0,2.9999999999999997e-05,5e-05,1e-05,-0.00015,0.00013000000000000002,-0.0001,6
23853,24797,-1e-05,-2.9999999999999997e-05,-2e-05,0.0,0.0,0.00036,0.00028,0.00028,6
23854,24798,-1e-05,-2.9999999999999997e-05,-2e-05,0.0,0.0,0.00036,0.00028,0.00028,6
23855,24799,-1e-05,-2.9999999999999997e-05,-2e-05,0.0,0.0,0.00036,0.00028,0.00028,6
23856,24800,-1e-05,-2.9999999999999997e-05,-2e-05,0.0,0.0,0.00036,0.00028,0.00028,6
23857,24801,-1e-05,-2.9999999999999997e-05,-2e-05,0.0,0.0,0.00036,0.00028,0.00028,6
23858,24802,-1e-05,-2.9999999999999997e-05,-2e-05,0.0,0.0,0.00036,0.00028,0.00028,6
23859,24803,-1e-05,-2.9999999999999997e-05,-2e-05,0.0,0.0,0.00036,0.00028,0.00028,6
23860,24804,-1e-05,-2.9999999999999997e-05,-2e-05,0.0,0.0,0.00036,0.00028,0.00028,6
23861,24805,-1e-05,-2.9999999999999997e-05,-2e-05,0.0,0.0,0.00036,0.00028,0.00028,6
23862,24806,-1e-05,-2.9999999999999997e-05,-2e-05,0.0,0.0,0.00036,0.00028,0.00028,6
23863,24807,-1e-05,-2.9999999999999997e-05,-2e-05,0.0,0.0,0.00036,0.00028,0.00028,6
23864,24808,-1e-05,-2.9999999999999997e-05,-2e-05,0.0,0.0,0.00036,0.00028,0.00028,6
23865,24809,-1e-05,-2.9999999999999997e-05,-2e-05,0.0,0.0,0.00036,0.00028,0.00028,6
23866,24810,-1e-05,-2.9999999999999997e-05,-2e-05,0.0,0.0,0.00036,0.00028,0.00028,6
23867,24811,-1e-05,-2.9999999999999997e-05,-2e-05,0.0,0.0,0.00036,0.00028,0.00028,6
23868,24812,-1e-05,-2.9999999999999997e-05,-2e-05,0.0,0.0,0.00036,0.00028,0.00028,6
23869,24813,4e-05,2e-05,2.9999999999999997e-05,5e-05,0.00011,-0.00056,-0.0002,1e-05,6
23870,24814,4e-05,2e-05,2.9999999999999997e-05,5e-05,0.00011,-0.00056,-0.0002,1e-05,6
23871,24815,0.0,0.0,2e-05,0.0,-5e-05,-0.00014,-9e-05,-0.0001,6
23872,24816,0.0,0.0,2e-05,0.0,-5e-05,-0.00014,-9e-05,-0.0001,6
23873,24817,0.0,0.0,2e-05,0.0,-5e-05,-0.00014,-9e-05,-0.0001,6
23874,24818,0.0,0.0,2e-05,0.0,-5e-05,-0.00014,-9e-05,-0.0001,6
23875,24819,0.0,0.0,2e-05,0.0,-5e-05,-0.00014,-9e-05,-0.0001,6
23876,24820,0.0,0.0,2e-05,0.0,-5e-05,-0.00014,-9e-05,-0.0001,6
23877,24821,0.0,0.0,2e-05,0.0,-5e-05,-0.00014,-9e-05,-0.0001,6
23878,24822,0.0,0.0,2e-05,0.0,-5e-05,-0.00014,-9e-05,-0.0001,6
23879,24823,0.0,0.0,2e-05,0.0,-5e-05,-0.00014,-9e-05,-0.0001,6
23880,24824,0.0,0.0,2e-05,0.0,-5e-05,-0.00014,-9e-05,-0.0001,6
23881,24825,0.0,0.0,2e-05,0.0,-5e-05,-0.00014,-9e-05,-0.0001,6
23882,24826,0.0,0.0,2e-05,0.0,-5e-05,-0.00014,-9e-05,-0.0001,6
23883,24827,0.0,0.0,2e-05,0.0,-5e-05,-0.00014,-9e-05,-0.0001,6
23884,24828,0.0,0.0,2e-05,0.0,-5e-05,-0.00014,-9e-05,-0.0001,6
23885,24829,0.0,0.0,2e-05,0.0,-5e-05,-0.00014,-9e-05,-0.0001,6
23886,24830,0.0,0.0,2e-05,0.0,-5e-05,-0.00014,-9e-05,-0.0001,6
23887,24831,0.0,0.0,2e-05,0.0,-5e-05,-0.00014,-9e-05,-0.0001,6
23888,24832,0.0,0.0,2e-05,0.0,-5e-05,-0.00014,-9e-05,-0.0001,6
23889,24833,0.0,0.0,2e-05,0.0,-5e-05,-0.00014,-9e-05,-0.0001,6
23890,24834,0.0,0.0,2e-05,0.0,-5e-05,-0.00014,-9e-05,-0.0001,6
23891,24835,-1e-05,-2e-05,-2e-05,1e-05,7e-05,0.00025,8e-05,-5.9999999999999995e-05,6
23892,24836,-1e-05,-2e-05,-2e-05,1e-05,7e-05,0.00025,8e-05,-5.9999999999999995e-05,6
23893,24838,0.0,0.0,-2e-05,0.0,0.00023999999999999998,-0.00016999999999999999,-0.00023999999999999998,0.0,6
23894,24839,0.0,0.0,-2e-05,0.0,0.00023999999999999998,-0.00016999999999999999,-0.00023999999999999998,0.0,6
23895,24840,0.0,0.0,-2e-05,0.0,0.00023999999999999998,-0.00016999999999999999,-0.00023999999999999998,0.0,6
23896,24841,0.0,0.0,-2e-05,0.0,0.00023999999999999998,-0.00016999999999999999,-0.00023999999999999998,0.0,6
23897,24842,0.0,0.0,-2e-05,0.0,0.00023999999999999998,-0.00016999999999999999,-0.00023999999999999998,0.0,6
23898,24843,0.0,0.0,-2e-05,0.0,0.00023999999999999998,-0.00016999999999999999,-0.00023999999999999998,0.0,6
23899,24844,0.0,0.0,-2e-05,0.0,0.00023999999999999998,-0.00016999999999999999,-0.00023999999999999998,0.0,6
23900,24845,0.0,0.0,-2e-05,0.0,0.00023999999999999998,-0.00016999999999999999,-0.00023999999999999998,0.0,6
23901,24846,0.0,0.0,-2e-05,0.0,0.00023999999999999998,-0.00016999999999999999,-0.00023999999999999998,0.0,6
23902,24847,0.0,0.0,-2e-05,0.0,0.00023999999999999998,-0.00016999999999999999,-0.00023999999999999998,0.0,6
23903,24848,0.0,0.0,-2e-05,0.0,0.00023999999999999998,-0.00016999999999999999,-0.00023999999999999998,0.0,6
23904,24849,0.0,0.0,-2e-05,0.0,0.00023999999999999998,-0.00016999999999999999,-0.00023999999999999998,0.0,6
23905,24850,5.9999999999999995e-05,2.9999999999999997e-05,2e-05,-2e-05,0.0001,7e-05,-2e-05,-4e-05,6
23906,24851,5.9999999999999995e-05,2.9999999999999997e-05,2e-05,-2e-05,0.0001,7e-05,-2e-05,-4e-05,6
23907,24852,5.9999999999999995e-05,2.9999999999999997e-05,2e-05,-2e-05,0.0001,7e-05,-2e-05,-4e-05,6
23908,24853,5.9999999999999995e-05,2.9999999999999997e-05,2e-05,-2e-05,0.0001,7e-05,-2e-05,-4e-05,6
23909,24854,5.9999999999999995e-05,2.9999999999999997e-05,2e-05,-2e-05,0.0001,7e-05,-2e-05,-4e-05,6
23910,24855,5.9999999999999995e-05,2.9999999999999997e-05,2e-05,-2e-05,0.0001,7e-05,-2e-05,-4e-05,6
23911,24856,5.9999999999999995e-05,2.9999999999999997e-05,2e-05,-2e-05,0.0001,7e-05,-2e-05,-4e-05,6
23912,24857,-2e-05,-2e-05,-2.9999999999999997e-05,-2e-05,4e-05,-0.00016999999999999999,-0.00011,-2.9999999999999997e-05,6
23913,24858,-2e-05,-2e-05,-2.9999999999999997e-05,-2e-05,4e-05,-0.00016999999999999999,-0.00011,-2.9999999999999997e-05,6
23914,24859,-2e-05,-2e-05,-2.9999999999999997e-05,-2e-05,4e-05,-0.00016999999999999999,-0.00011,-2.9999999999999997e-05,6
23915,24860,-2e-05,-2e-05,-2.9999999999999997e-05,-2e-05,4e-05,-0.00016999999999999999,-0.00011,-2.9999999999999997e-05,6
23916,24861,-2e-05,-2e-05,-2.9999999999999997e-05,-2e-05,4e-05,-0.00016999999999999999,-0.00011,-2.9999999999999997e-05,6
23917,24862,-2e-05,-2e-05,-2.9999999999999997e-05,-2e-05,4e-05,-0.00016999999999999999,-0.00011,-2.9999999999999997e-05,6
23918,24863,-2e-05,-2e-05,-2.9999999999999997e-05,-2e-05,4e-05,-0.00016999999999999999,-0.00011,-2.9999999999999997e-05,6
23919,24864,-2e-05,-2e-05,-2.9999999999999997e-05,-2e-05,4e-05,-0.00016999999999999999,-0.00011,-2.9999999999999997e-05,6
23920,24865,-2e-05,-2e-05,-2.9999999999999997e-05,-2e-05,4e-05,-0.00016999999999999999,-0.00011,-2.9999999999999997e-05,6
23921,24866,-2e-05,-2e-05,-2.9999999999999997e-05,-2e-05,4e-05,-0.00016999999999999999,-0.00011,-2.9999999999999997e-05,6
23922,24867,-2e-05,-2e-05,-2.9999999999999997e-05,-2e-05,4e-05,-0.00016999999999999999,-0.00011,-2.9999999999999997e-05,6
23923,24868,-2e-05,-2e-05,-2.9999999999999997e-05,-2e-05,4e-05,-0.00016999999999999999,-0.00011,-2.9999999999999997e-05,6
23924,24869,-2e-05,-2e-05,-2.9999999999999997e-05,-2e-05,4e-05,-0.00016999999999999999,-0.00011,-2.9999999999999997e-05,6
23925,24870,-2e-05,-2e-05,-2.9999999999999997e-05,-2e-05,4e-05,-0.00016999999999999999,-0.00011,-2.9999999999999997e-05,6
23926,24871,-2e-05,-2e-05,-2.9999999999999997e-05,-2e-05,4e-05,-0.00016999999999999999,-0.00011,-2.9999999999999997e-05,6
23927,24872,-2e-05,-2e-05,-2.9999999999999997e-05,-2e-05,4e-05,-0.00016999999999999999,-0.00011,-2.9999999999999997e-05,6
23928,24873,-2e-05,-2e-05,-2.9999999999999997e-05,0.0,-0.0001,-0.00018,0.00011,-1e-05,6
23929,24874,-2e-05,-2e-05,-2.9999999999999997e-05,0.0,-0.0001,-0.00018,0.00011,-1e-05,6
23930,24875,2e-05,-2e-05,-4e-05,-2e-05,-4e-05,0.00023999999999999998,0.00018,0.00015,6
23931,24876,2e-05,-2e-05,-4e-05,-2e-05,-4e-05,0.00023999999999999998,0.00018,0.00015,6
23932,24877,2e-05,-2e-05,-4e-05,-2e-05,-4e-05,0.00023999999999999998,0.00018,0.00015,6
23933,24878,2e-05,-2e-05,-4e-05,-2e-05,-4e-05,0.00023999999999999998,0.00018,0.00015,6
23934,24879,2e-05,-2e-05,-4e-05,-2e-05,-4e-05,0.00023999999999999998,0.00018,0.00015,6
23935,24880,2e-05,-2e-05,-4e-05,-2e-05,-4e-05,0.00023999999999999998,0.00018,0.00015,6
23936,24881,2e-05,-2e-05,-4e-05,-2e-05,-4e-05,0.00023999999999999998,0.00018,0.00015,6
23937,24882,2e-05,-2e-05,-4e-05,-2e-05,-4e-05,0.00023999999999999998,0.00018,0.00015,6
23938,24883,2e-05,-2e-05,-4e-05,-2e-05,-4e-05,0.00023999999999999998,0.00018,0.00015,6
23939,24884,2e-05,-2e-05,-4e-05,-2e-05,-4e-05,0.00023999999999999998,0.00018,0.00015,6
23940,24885,2e-05,-2e-05,-4e-05,-2e-05,-4e-05,0.00023999999999999998,0.00018,0.00015,6
23941,24886,2e-05,-2e-05,-4e-05,-2e-05,-4e-05,0.00023999999999999998,0.00018,0.00015,6
23942,24888,2e-05,-2e-05,-4e-05,-2e-05,-4e-05,0.00023999999999999998,0.00018,0.00015,6
23943,24889,2e-05,-2e-05,-4e-05,-2e-05,-4e-05,0.00023999999999999998,0.00018,0.00015,6
23944,24890,2e-05,-2e-05,-4e-05,-2e-05,-4e-05,0.00023999999999999998,0.00018,0.00015,6
23945,24891,2e-05,-2e-05,-4e-05,-2e-05,-4e-05,0.00023999999999999998,0.00018,0.00015,6
23946,24892,2e-05,-2e-05,-4e-05,-2e-05,-4e-05,0.00023999999999999998,0.00018,0.00015,6
23947,24893,2e-05,-2e-05,-4e-05,-2e-05,-4e-05,0.00023999999999999998,0.00018,0.00015,6
23948,24894,2e-05,-2e-05,-4e-05,-2e-05,-4e-05,0.00023999999999999998,0.00018,0.00015,6
23949,24895,2e-05,-2e-05,-4e-05,-2e-05,-4e-05,0.00023999999999999998,0.00018,0.00015,6
23950,24896,-2e-05,-2e-05,-2.9999999999999997e-05,4e-05,0.00022,0.0,0.00011,0.00022999999999999998,6
23951,24897,5e-05,1e-05,2.9999999999999997e-05,0.0,0.0,0.00031,2.9999999999999997e-05,0.00022,6
23952,24898,5e-05,1e-05,2.9999999999999997e-05,0.0,0.0,0.00031,2.9999999999999997e-05,0.00022,6
23953,24899,5e-05,1e-05,2.9999999999999997e-05,0.0,0.0,0.00031,2.9999999999999997e-05,0.00022,6
23954,24900,5e-05,1e-05,2.9999999999999997e-05,0.0,0.0,0.00031,2.9999999999999997e-05,0.00022,6
23955,24901,5e-05,1e-05,2.9999999999999997e-05,0.0,0.0,0.00031,2.9999999999999997e-05,0.00022,6
23956,24902,5e-05,1e-05,2.9999999999999997e-05,0.0,0.0,0.00031,2.9999999999999997e-05,0.00022,6
23957,24903,5e-05,1e-05,2.9999999999999997e-05,0.0,0.0,0.00031,2.9999999999999997e-05,0.00022,6
23958,24904,5e-05,1e-05,2.9999999999999997e-05,0.0,0.0,0.00031,2.9999999999999997e-05,0.00022,6
23959,24905,5e-05,1e-05,2.9999999999999997e-05,0.0,0.0,0.00031,2.9999999999999997e-05,0.00022,6
23960,24906,5e-05,1e-05,2.9999999999999997e-05,0.0,0.0,0.00031,2.9999999999999997e-05,0.00022,6
23961,24907,5e-05,1e-05,2.9999999999999997e-05,0.0,0.0,0.00031,2.9999999999999997e-05,0.00022,6
23962,24908,5e-05,1e-05,2.9999999999999997e-05,0.0,0.0,0.00031,2.9999999999999997e-05,0.00022,6
23963,24909,5e-05,1e-05,2.9999999999999997e-05,0.0,0.0,0.00031,2.9999999999999997e-05,0.00022,6
23964,24910,-2e-05,-5e-05,-5e-05,-1e-05,4e-05,0.00016999999999999999,0.00015,2.9999999999999997e-05,6
23965,24911,-2e-05,-5e-05,-5e-05,-1e-05,4e-05,0.00016999999999999999,0.00015,2.9999999999999997e-05,6
23966,24912,-2e-05,-5e-05,-5e-05,-1e-05,4e-05,0.00016999999999999999,0.00015,2.9999999999999997e-05,6
23967,24913,-2e-05,-5e-05,-5e-05,-1e-05,4e-05,0.00016999999999999999,0.00015,2.9999999999999997e-05,6
23968,24914,-2e-05,-5e-05,-5e-05,-1e-05,4e-05,0.00016999999999999999,0.00015,2.9999999999999997e-05,6
23969,24915,-2e-05,-5e-05,-5e-05,-1e-05,4e-05,0.00016999999999999999,0.00015,2.9999999999999997e-05,6
23970,24916,-2e-05,-5e-05,-5e-05,-1e-05,4e-05,0.00016999999999999999,0.00015,2.9999999999999997e-05,6
23971,24917,-1e-05,1e-05,-2e-05,0.0,0.00016999999999999999,-0.00023999999999999998,-4e-05,5e-05,6
23972,24918,-1e-05,1e-05,-2e-05,0.0,0.00016999999999999999,-0.00023999999999999998,-4e-05,5e-05,6
23973,24919,-1e-05,1e-05,-2e-05,0.0,0.00016999999999999999,-0.00023999999999999998,-4e-05,5e-05,6
23974,24920,-1e-05,1e-05,-2e-05,0.0,0.00016999999999999999,-0.00023999999999999998,-4e-05,5e-05,6
23975,24921,-1e-05,1e-05,-2e-05,0.0,0.00016999999999999999,-0.00023999999999999998,-4e-05,5e-05,6
23976,24922,-1e-05,1e-05,-2e-05,0.0,0.00016999999999999999,-0.00023999999999999998,-4e-05,5e-05,6
23977,24923,-1e-05,1e-05,-2e-05,0.0,0.00016999999999999999,-0.00023999999999999998,-4e-05,5e-05,6
23978,24924,-1e-05,1e-05,-2e-05,0.0,0.00016999999999999999,-0.00023999999999999998,-4e-05,5e-05,6
23979,24925,-1e-05,1e-05,-2e-05,0.0,0.00016999999999999999,-0.00023999999999999998,-4e-05,5e-05,6
23980,24926,-1e-05,1e-05,-2e-05,0.0,0.00016999999999999999,-0.00023999999999999998,-4e-05,5e-05,6
23981,24927,-1e-05,1e-05,-2e-05,0.0,0.00016999999999999999,-0.00023999999999999998,-4e-05,5e-05,6
23982,24928,-1e-05,1e-05,-2e-05,0.0,0.00016999999999999999,-0.00023999999999999998,-4e-05,5e-05,6
23983,24929,-1e-05,1e-05,-2e-05,0.0,0.00016999999999999999,-0.00023999999999999998,-4e-05,5e-05,6
23984,24930,-1e-05,1e-05,-2e-05,0.0,0.00016999999999999999,-0.00023999999999999998,-4e-05,5e-05,6
23985,24931,-1e-05,1e-05,-2e-05,0.0,0.00016999999999999999,-0.00023999999999999998,-4e-05,5e-05,6
23986,24932,-1e-05,1e-05,-2e-05,0.0,0.00016999999999999999,-0.00023999999999999998,-4e-05,5e-05,6
23987,24933,4e-05,-1e-05,-1e-05,-5.9999999999999995e-05,-0.0001,-2.9999999999999997e-05,-9e-05,4e-05,6
23988,24934,4e-05,-1e-05,-1e-05,-5.9999999999999995e-05,-0.0001,-2.9999999999999997e-05,-9e-05,4e-05,6
23989,24935,2.9999999999999997e-05,1e-05,2e-05,2e-05,2e-05,-0.00015,9e-05,-1e-05,6
23990,24936,2.9999999999999997e-05,1e-05,2e-05,2e-05,2e-05,-0.00015,9e-05,-1e-05,6
23991,24938,2.9999999999999997e-05,1e-05,2e-05,2e-05,2e-05,-0.00015,9e-05,-1e-05,6
23992,24939,2.9999999999999997e-05,1e-05,2e-05,2e-05,2e-05,-0.00015,9e-05,-1e-05,6
23993,24940,2.9999999999999997e-05,1e-05,2e-05,2e-05,2e-05,-0.00015,9e-05,-1e-05,6
23994,24941,2.9999999999999997e-05,1e-05,2e-05,2e-05,2e-05,-0.00015,9e-05,-1e-05,6
23995,24942,2.9999999999999997e-05,1e-05,2e-05,2e-05,2e-05,-0.00015,9e-05,-1e-05,6
23996,24943,2.9999999999999997e-05,1e-05,2e-05,2e-05,2e-05,-0.00015,9e-05,-1e-05,6
23997,24944,2.9999999999999997e-05,1e-05,2e-05,2e-05,2e-05,-0.00015,9e-05,-1e-05,6
23998,24945,2.9999999999999997e-05,1e-05,2e-05,2e-05,2e-05,-0.00015,9e-05,-1e-05,6
23999,24946,2.9999999999999997e-05,1e-05,2e-05,2e-05,2e-05,-0.00015,9e-05,-1e-05,6
