,time,channel1,channel2,channel3,channel4,channel5,channel6,channel7,channel8,class
28417,29278,2.9999999999999997e-05,1e-05,-5e-05,-0.00075,0.00013000000000000002,-0.00014,-0.0001,-5e-05,6
28418,29279,2.9999999999999997e-05,1e-05,-5e-05,-0.00075,0.00013000000000000002,-0.00014,-0.0001,-5e-05,6
28419,29280,2.9999999999999997e-05,1e-05,-5e-05,-0.00075,0.00013000000000000002,-0.00014,-0.0001,-5e-05,6
28420,29281,2.9999999999999997e-05,1e-05,-5e-05,-0.00075,0.00013000000000000002,-0.00014,-0.0001,-5e-05,6
28421,29282,7e-05,7e-05,2e-05,-0.00031,0.0007099999999999999,0.00029,0.00021,0.00011,6
28422,29283,7e-05,7e-05,2e-05,-0.00031,0.0007099999999999999,0.00029,0.00021,0.00011,6
28423,29284,1e-05,-2e-05,-1e-05,-0.00018,0.00015,-0.0003,-0.00035,-4e-05,6
28424,29285,-1e-05,-2e-05,2e-05,0.00045999999999999996,-2e-05,-0.00018999999999999998,-0.00028,-2e-05,6
28425,29286,-1e-05,-2e-05,2e-05,0.00045999999999999996,-2e-05,-0.00018999999999999998,-0.00028,-2e-05,6
28426,29289,-1e-05,-1e-05,-2.9999999999999997e-05,-0.00013000000000000002,-0.00039,0.00011,0.00011999999999999999,2e-05,6
28427,29290,-1e-05,-1e-05,-2.9999999999999997e-05,-0.00013000000000000002,-0.00039,0.00011,0.00011999999999999999,2e-05,6
28428,29291,-1e-05,-1e-05,-2.9999999999999997e-05,-0.00013000000000000002,-0.00039,0.00011,0.00011999999999999999,2e-05,6
28429,29292,-1e-05,-1e-05,-2.9999999999999997e-05,-0.00013000000000000002,-0.00039,0.00011,0.00011999999999999999,2e-05,6
28430,29293,-1e-05,-1e-05,-2.9999999999999997e-05,-0.00013000000000000002,-0.00039,0.00011,0.00011999999999999999,2e-05,6
28431,29294,-1e-05,-1e-05,-2.9999999999999997e-05,-0.00013000000000000002,-0.00039,0.00011,0.00011999999999999999,2e-05,6
28432,29295,-1e-05,-1e-05,-2.9999999999999997e-05,-0.00013000000000000002,-0.00039,0.00011,0.00011999999999999999,2e-05,6
28433,29296,-1e-05,-1e-05,-2.9999999999999997e-05,-0.00013000000000000002,-0.00039,0.00011,0.00011999999999999999,2e-05,6
28434,29297,-1e-05,-1e-05,-2.9999999999999997e-05,-0.00013000000000000002,-0.00039,0.00011,0.00011999999999999999,2e-05,6
28435,29298,-1e-05,-1e-05,-2.9999999999999997e-05,-0.00013000000000000002,-0.00039,0.00011,0.00011999999999999999,2e-05,6
28436,29299,-1e-05,-1e-05,-2.9999999999999997e-05,-0.00013000000000000002,-0.00039,0.00011,0.00011999999999999999,2e-05,6
28437,29300,-1e-05,-1e-05,-2.9999999999999997e-05,-0.00013000000000000002,-0.00039,0.00011,0.00011999999999999999,2e-05,6
28438,29301,-1e-05,-1e-05,-2.9999999999999997e-05,-0.00013000000000000002,-0.00039,0.00011,0.00011999999999999999,2e-05,6
28439,29302,-1e-05,-1e-05,-2.9999999999999997e-05,-0.00013000000000000002,-0.00039,0.00011,0.00011999999999999999,2e-05,6
28440,29303,-1e-05,-1e-05,-2.9999999999999997e-05,-0.00013000000000000002,-0.00039,0.00011,0.00011999999999999999,2e-05,6
28441,29304,-4e-05,-4e-05,2.9999999999999997e-05,0.00058,-0.00112,-0.00018999999999999998,-2.9999999999999997e-05,-7e-05,6
28442,29305,-1e-05,-2e-05,2e-05,-2.9999999999999997e-05,-0.00053,-0.00018999999999999998,2e-05,2e-05,6
28443,29306,2.9999999999999997e-05,0.0,-7e-05,-0.00011,-0.00067,-2e-05,9e-05,5.9999999999999995e-05,6
28444,29307,2.9999999999999997e-05,0.0,-7e-05,-0.00011,-0.00067,-2e-05,9e-05,5.9999999999999995e-05,6
28445,29308,2.9999999999999997e-05,0.0,-7e-05,-0.00011,-0.00067,-2e-05,9e-05,5.9999999999999995e-05,6
28446,29309,2.9999999999999997e-05,0.0,-7e-05,-0.00011,-0.00067,-2e-05,9e-05,5.9999999999999995e-05,6
28447,29310,2.9999999999999997e-05,0.0,-7e-05,-0.00011,-0.00067,-2e-05,9e-05,5.9999999999999995e-05,6
28448,29311,2.9999999999999997e-05,0.0,-7e-05,-0.00011,-0.00067,-2e-05,9e-05,5.9999999999999995e-05,6
28449,29312,2.9999999999999997e-05,0.0,-7e-05,-0.00011,-0.00067,-2e-05,9e-05,5.9999999999999995e-05,6
28450,29313,2.9999999999999997e-05,0.0,-7e-05,-0.00011,-0.00067,-2e-05,9e-05,5.9999999999999995e-05,6
28451,29314,2.9999999999999997e-05,0.0,-7e-05,-0.00011,-0.00067,-2e-05,9e-05,5.9999999999999995e-05,6
28452,29315,2.9999999999999997e-05,0.0,-7e-05,-0.00011,-0.00067,-2e-05,9e-05,5.9999999999999995e-05,6
28453,29316,2.9999999999999997e-05,0.0,-7e-05,-0.00011,-0.00067,-2e-05,9e-05,5.9999999999999995e-05,6
28454,29317,2.9999999999999997e-05,0.0,-7e-05,-0.00011,-0.00067,-2e-05,9e-05,5.9999999999999995e-05,6
28455,29318,2.9999999999999997e-05,0.0,-7e-05,-0.00011,-0.00067,-2e-05,9e-05,5.9999999999999995e-05,6
28456,29319,2.9999999999999997e-05,0.0,-7e-05,-0.00011,-0.00067,-2e-05,9e-05,5.9999999999999995e-05,6
28457,29320,2.9999999999999997e-05,0.0,-7e-05,-0.00011,-0.00067,-2e-05,9e-05,5.9999999999999995e-05,6
28458,29321,2.9999999999999997e-05,0.0,-7e-05,-0.00011,-0.00067,-2e-05,9e-05,5.9999999999999995e-05,6
28459,29322,2.9999999999999997e-05,0.0,-7e-05,-0.00011,-0.00067,-2e-05,9e-05,5.9999999999999995e-05,6
28460,29323,2.9999999999999997e-05,0.0,-7e-05,-0.00011,-0.00067,-2e-05,9e-05,5.9999999999999995e-05,6
28461,29324,2.9999999999999997e-05,0.0,-7e-05,-0.00011,-0.00067,-2e-05,9e-05,5.9999999999999995e-05,6
28462,29325,2.9999999999999997e-05,0.0,-7e-05,-0.00011,-0.00067,-2e-05,9e-05,5.9999999999999995e-05,6
28463,29326,2.9999999999999997e-05,0.0,-7e-05,-0.00011,-0.00067,-2e-05,9e-05,5.9999999999999995e-05,6
28464,29327,2.9999999999999997e-05,0.0,-7e-05,-0.00011,-0.00067,-2e-05,9e-05,5.9999999999999995e-05,6
28465,29328,2.9999999999999997e-05,0.0,-7e-05,-0.00011,-0.00067,-2e-05,9e-05,5.9999999999999995e-05,6
28466,29329,2.9999999999999997e-05,0.0,-7e-05,-0.00011,-0.00067,-2e-05,9e-05,5.9999999999999995e-05,6
28467,29330,2.9999999999999997e-05,0.0,-7e-05,-0.00011,-0.00067,-2e-05,9e-05,5.9999999999999995e-05,6
28468,29331,2.9999999999999997e-05,0.0,-7e-05,-0.00011,-0.00067,-2e-05,9e-05,5.9999999999999995e-05,6
28469,29332,2.9999999999999997e-05,0.0,-7e-05,-0.00011,-0.00067,-2e-05,9e-05,5.9999999999999995e-05,6
28470,29333,4e-05,2.9999999999999997e-05,7e-05,-0.00053,0.00058,5e-05,-7e-05,-1e-05,6
28471,29334,-2.9999999999999997e-05,-5e-05,-5e-05,-0.00035,-0.00039,-0.0002,-0.00022,-2e-05,6
28472,29335,-2.9999999999999997e-05,1e-05,7e-05,0.00028,0.0009699999999999999,0.00011999999999999999,-1e-05,-4e-05,6
28473,29336,-2.9999999999999997e-05,1e-05,7e-05,0.00028,0.0009699999999999999,0.00011999999999999999,-1e-05,-4e-05,6
28474,29338,-2.9999999999999997e-05,1e-05,7e-05,0.00028,0.0009699999999999999,0.00011999999999999999,-1e-05,-4e-05,6
28475,29339,-2.9999999999999997e-05,1e-05,7e-05,0.00028,0.0009699999999999999,0.00011999999999999999,-1e-05,-4e-05,6
28476,29340,-8e-05,-5e-05,4e-05,-0.00037999999999999997,-0.00011999999999999999,-0.00014,-0.00045999999999999996,-0.00055,6
28477,29341,-8e-05,-5e-05,4e-05,-0.00037999999999999997,-0.00011999999999999999,-0.00014,-0.00045999999999999996,-0.00055,6
28478,29342,-8e-05,-5e-05,4e-05,-0.00037999999999999997,-0.00011999999999999999,-0.00014,-0.00045999999999999996,-0.00055,6
28479,29343,-8e-05,-5e-05,4e-05,-0.00037999999999999997,-0.00011999999999999999,-0.00014,-0.00045999999999999996,-0.00055,6
28480,29344,-8e-05,-5e-05,4e-05,-0.00037999999999999997,-0.00011999999999999999,-0.00014,-0.00045999999999999996,-0.00055,6
28481,29345,-8e-05,-5e-05,4e-05,-0.00037999999999999997,-0.00011999999999999999,-0.00014,-0.00045999999999999996,-0.00055,6
28482,29346,-8e-05,-5e-05,4e-05,-0.00037999999999999997,-0.00011999999999999999,-0.00014,-0.00045999999999999996,-0.00055,6
28483,29347,-8e-05,-5e-05,4e-05,-0.00037999999999999997,-0.00011999999999999999,-0.00014,-0.00045999999999999996,-0.00055,6
28484,29348,-8e-05,-5e-05,4e-05,-0.00037999999999999997,-0.00011999999999999999,-0.00014,-0.00045999999999999996,-0.00055,6
28485,29349,-8e-05,-5e-05,4e-05,-0.00037999999999999997,-0.00011999999999999999,-0.00014,-0.00045999999999999996,-0.00055,6
28486,29350,-8e-05,-5e-05,4e-05,-0.00037999999999999997,-0.00011999999999999999,-0.00014,-0.00045999999999999996,-0.00055,6
28487,29351,-8e-05,-5e-05,4e-05,-0.00037999999999999997,-0.00011999999999999999,-0.00014,-0.00045999999999999996,-0.00055,6
28488,29352,-8e-05,-5e-05,4e-05,-0.00037999999999999997,-0.00011999999999999999,-0.00014,-0.00045999999999999996,-0.00055,6
28489,29353,-8e-05,-5e-05,4e-05,-0.00037999999999999997,-0.00011999999999999999,-0.00014,-0.00045999999999999996,-0.00055,6
28490,29354,-8e-05,-5e-05,4e-05,-0.00037999999999999997,-0.00011999999999999999,-0.00014,-0.00045999999999999996,-0.00055,6
28491,29355,-8e-05,-5e-05,4e-05,-0.00037999999999999997,-0.00011999999999999999,-0.00014,-0.00045999999999999996,-0.00055,6
28492,29356,-8e-05,-5e-05,4e-05,-0.00037999999999999997,-0.00011999999999999999,-0.00014,-0.00045999999999999996,-0.00055,6
28493,29357,-8e-05,-5e-05,4e-05,-0.00037999999999999997,-0.00011999999999999999,-0.00014,-0.00045999999999999996,-0.00055,6
28494,29358,-8e-05,-5e-05,4e-05,-0.00037999999999999997,-0.00011999999999999999,-0.00014,-0.00045999999999999996,-0.00055,6
28495,29359,-8e-05,-5e-05,4e-05,-0.00037999999999999997,-0.00011999999999999999,-0.00014,-0.00045999999999999996,-0.00055,6
28496,29360,-8e-05,-5e-05,4e-05,-0.00037999999999999997,-0.00011999999999999999,-0.00014,-0.00045999999999999996,-0.00055,6
28497,29361,-8e-05,-5e-05,4e-05,-0.00037999999999999997,-0.00011999999999999999,-0.00014,-0.00045999999999999996,-0.00055,6
28498,29362,-8e-05,-5e-05,4e-05,-0.00037999999999999997,-0.00011999999999999999,-0.00014,-0.00045999999999999996,-0.00055,6
28499,29363,-8e-05,-5e-05,4e-05,-0.00037999999999999997,-0.00011999999999999999,-0.00014,-0.00045999999999999996,-0.00055,6
28500,29364,0.0,2e-05,-9e-05,-0.00057,-0.00108,-0.00014,4e-05,-4e-05,6
28501,29365,2e-05,0.0,-5e-05,-0.00028,0.00059,0.00047999999999999996,0.00032,0.0002,6
28502,29366,-5e-05,-5e-05,0.0,5e-05,0.00081,-0.00013000000000000002,-0.00023999999999999998,-8e-05,6
28503,29367,1e-05,5e-05,4e-05,0.00106,-0.00042,0.00045,0.0001,2e-05,6
28504,29368,1e-05,5e-05,4e-05,0.00106,-0.00042,0.00045,0.0001,2e-05,6
28505,29369,1e-05,5e-05,4e-05,0.00106,-0.00042,0.00045,0.0001,2e-05,6
28506,29370,1e-05,5e-05,4e-05,0.00106,-0.00042,0.00045,0.0001,2e-05,6
28507,29371,1e-05,5e-05,4e-05,0.00106,-0.00042,0.00045,0.0001,2e-05,6
28508,29372,1e-05,5e-05,4e-05,0.00106,-0.00042,0.00045,0.0001,2e-05,6
28509,29373,1e-05,5e-05,4e-05,0.00106,-0.00042,0.00045,0.0001,2e-05,6
28510,29374,1e-05,5e-05,4e-05,0.00106,-0.00042,0.00045,0.0001,2e-05,6
28511,29375,1e-05,5e-05,4e-05,0.00106,-0.00042,0.00045,0.0001,2e-05,6
28512,29376,1e-05,5e-05,4e-05,0.00106,-0.00042,0.00045,0.0001,2e-05,6
28513,29377,1e-05,5e-05,4e-05,0.00106,-0.00042,0.00045,0.0001,2e-05,6
28514,29378,1e-05,5e-05,4e-05,0.00106,-0.00042,0.00045,0.0001,2e-05,6
28515,29379,1e-05,5e-05,4e-05,0.00106,-0.00042,0.00045,0.0001,2e-05,6
28516,29380,1e-05,5e-05,4e-05,0.00106,-0.00042,0.00045,0.0001,2e-05,6
28517,29381,1e-05,5e-05,4e-05,0.00106,-0.00042,0.00045,0.0001,2e-05,6
28518,29382,1e-05,5e-05,4e-05,0.00106,-0.00042,0.00045,0.0001,2e-05,6
28519,29383,1e-05,5e-05,4e-05,0.00106,-0.00042,0.00045,0.0001,2e-05,6
28520,29384,1e-05,5e-05,4e-05,0.00106,-0.00042,0.00045,0.0001,2e-05,6
28521,29385,1e-05,5e-05,4e-05,0.00106,-0.00042,0.00045,0.0001,2e-05,6
28522,29386,1e-05,5e-05,4e-05,0.00106,-0.00042,0.00045,0.0001,2e-05,6
28523,29388,1e-05,5e-05,4e-05,0.00106,-0.00042,0.00045,0.0001,2e-05,6
28524,29389,1e-05,5e-05,4e-05,0.00106,-0.00042,0.00045,0.0001,2e-05,6
28525,29390,1e-05,5e-05,4e-05,0.00106,-0.00042,0.00045,0.0001,2e-05,6
28526,29391,1e-05,5e-05,4e-05,0.00106,-0.00042,0.00045,0.0001,2e-05,6
28527,29392,1e-05,5e-05,4e-05,0.00106,-0.00042,0.00045,0.0001,2e-05,6
28528,29393,1e-05,5e-05,4e-05,0.00106,-0.00042,0.00045,0.0001,2e-05,6
28529,29394,-5e-05,-5e-05,-2e-05,0.00049,-9e-05,-0.00027,2.9999999999999997e-05,2e-05,6
28530,29395,2e-05,2.9999999999999997e-05,-5.9999999999999995e-05,-0.00049,-0.00031,4e-05,-0.00018,-8e-05,6
28531,29396,-1e-05,-2e-05,-2e-05,5.9999999999999995e-05,-0.00043,-0.00033,0.00027,7e-05,6
28532,29397,-1e-05,-2e-05,-2e-05,5.9999999999999995e-05,-0.00043,-0.00033,0.00027,7e-05,6
28533,29398,-1e-05,-2e-05,-2e-05,5.9999999999999995e-05,-0.00043,-0.00033,0.00027,7e-05,6
28534,29399,-1e-05,-2e-05,-2e-05,5.9999999999999995e-05,-0.00043,-0.00033,0.00027,7e-05,6
28535,29400,-4e-05,-2e-05,-7e-05,-0.00015,-0.0006900000000000001,0.00016999999999999999,-0.0002,-1e-05,6
28536,29401,-4e-05,-2e-05,-7e-05,-0.00015,-0.0006900000000000001,0.00016999999999999999,-0.0002,-1e-05,6
28537,29402,-4e-05,-2e-05,-7e-05,-0.00015,-0.0006900000000000001,0.00016999999999999999,-0.0002,-1e-05,6
28538,29403,-4e-05,-2e-05,-7e-05,-0.00015,-0.0006900000000000001,0.00016999999999999999,-0.0002,-1e-05,6
28539,29404,-4e-05,-2e-05,-7e-05,-0.00015,-0.0006900000000000001,0.00016999999999999999,-0.0002,-1e-05,6
28540,29405,-4e-05,-2e-05,-7e-05,-0.00015,-0.0006900000000000001,0.00016999999999999999,-0.0002,-1e-05,6
28541,29406,-4e-05,-2e-05,-7e-05,-0.00015,-0.0006900000000000001,0.00016999999999999999,-0.0002,-1e-05,6
28542,29407,-4e-05,-2e-05,-7e-05,-0.00015,-0.0006900000000000001,0.00016999999999999999,-0.0002,-1e-05,6
28543,29408,-4e-05,-2e-05,-7e-05,-0.00015,-0.0006900000000000001,0.00016999999999999999,-0.0002,-1e-05,6
28544,29409,-4e-05,-2e-05,-7e-05,-0.00015,-0.0006900000000000001,0.00016999999999999999,-0.0002,-1e-05,6
28545,29410,-4e-05,-2e-05,-7e-05,-0.00015,-0.0006900000000000001,0.00016999999999999999,-0.0002,-1e-05,6
28546,29411,-4e-05,-2e-05,-7e-05,-0.00015,-0.0006900000000000001,0.00016999999999999999,-0.0002,-1e-05,6
28547,29412,-4e-05,-2e-05,-7e-05,-0.00015,-0.0006900000000000001,0.00016999999999999999,-0.0002,-1e-05,6
28548,29413,-4e-05,-2e-05,-7e-05,-0.00015,-0.0006900000000000001,0.00016999999999999999,-0.0002,-1e-05,6
28549,29414,-4e-05,-2e-05,-7e-05,-0.00015,-0.0006900000000000001,0.00016999999999999999,-0.0002,-1e-05,6
28550,29415,-4e-05,-2e-05,-7e-05,-0.00015,-0.0006900000000000001,0.00016999999999999999,-0.0002,-1e-05,6
28551,29416,-5e-05,-2.9999999999999997e-05,0.00015,0.00057,0.00047000000000000004,0.00039,-1e-05,-5e-05,6
28552,29417,-5e-05,-2.9999999999999997e-05,0.00015,0.00057,0.00047000000000000004,0.00039,-1e-05,-5e-05,6
28553,29418,-5e-05,-2.9999999999999997e-05,0.00015,0.00057,0.00047000000000000004,0.00039,-1e-05,-5e-05,6
28554,29419,-5e-05,-2.9999999999999997e-05,0.00015,0.00057,0.00047000000000000004,0.00039,-1e-05,-5e-05,6
28555,29420,-5e-05,-2.9999999999999997e-05,0.00015,0.00057,0.00047000000000000004,0.00039,-1e-05,-5e-05,6
28556,29421,-5e-05,-2.9999999999999997e-05,0.00015,0.00057,0.00047000000000000004,0.00039,-1e-05,-5e-05,6
28557,29422,-5e-05,-2.9999999999999997e-05,0.00015,0.00057,0.00047000000000000004,0.00039,-1e-05,-5e-05,6
28558,29423,-2.9999999999999997e-05,-8e-05,0.0,-0.00031,-0.00049,-0.00022,0.00016999999999999999,5e-05,6
28559,29424,-2.9999999999999997e-05,-8e-05,0.0,-0.00031,-0.00049,-0.00022,0.00016999999999999999,5e-05,6
28560,29425,-2.9999999999999997e-05,-8e-05,0.0,-0.00031,-0.00049,-0.00022,0.00016999999999999999,5e-05,6
28561,29426,-5.9999999999999995e-05,-8e-05,-9e-05,0.00018999999999999998,0.00028,0.00014,0.00031,5e-05,6
28562,29427,-5.9999999999999995e-05,-8e-05,-9e-05,0.00018999999999999998,0.00028,0.00014,0.00031,5e-05,6
28563,29428,-5.9999999999999995e-05,-8e-05,-9e-05,0.00018999999999999998,0.00028,0.00014,0.00031,5e-05,6
28564,29429,-5.9999999999999995e-05,-8e-05,-9e-05,0.00018999999999999998,0.00028,0.00014,0.00031,5e-05,6
28565,29430,-5.9999999999999995e-05,-8e-05,-9e-05,0.00018999999999999998,0.00028,0.00014,0.00031,5e-05,6
28566,29431,-5.9999999999999995e-05,-8e-05,-9e-05,0.00018999999999999998,0.00028,0.00014,0.00031,5e-05,6
28567,29432,-5.9999999999999995e-05,-8e-05,-9e-05,0.00018999999999999998,0.00028,0.00014,0.00031,5e-05,6
28568,29433,-5.9999999999999995e-05,-8e-05,-9e-05,0.00018999999999999998,0.00028,0.00014,0.00031,5e-05,6
28569,29434,-5.9999999999999995e-05,-8e-05,-9e-05,0.00018999999999999998,0.00028,0.00014,0.00031,5e-05,6
28570,29435,-5.9999999999999995e-05,-8e-05,-9e-05,0.00018999999999999998,0.00028,0.00014,0.00031,5e-05,6
28571,29436,-5.9999999999999995e-05,-8e-05,-9e-05,0.00018999999999999998,0.00028,0.00014,0.00031,5e-05,6
28572,29438,-5.9999999999999995e-05,-8e-05,-9e-05,0.00018999999999999998,0.00028,0.00014,0.00031,5e-05,6
28573,29439,-5.9999999999999995e-05,-8e-05,-9e-05,0.00018999999999999998,0.00028,0.00014,0.00031,5e-05,6
28574,29440,-5.9999999999999995e-05,-8e-05,-9e-05,0.00018999999999999998,0.00028,0.00014,0.00031,5e-05,6
28575,29441,-5.9999999999999995e-05,-8e-05,-9e-05,0.00018999999999999998,0.00028,0.00014,0.00031,5e-05,6
28576,29442,-5.9999999999999995e-05,-8e-05,-9e-05,0.00018999999999999998,0.00028,0.00014,0.00031,5e-05,6
28577,29443,-5.9999999999999995e-05,-8e-05,-9e-05,0.00018999999999999998,0.00028,0.00014,0.00031,5e-05,6
28578,29444,-5.9999999999999995e-05,-8e-05,-9e-05,0.00018999999999999998,0.00028,0.00014,0.00031,5e-05,6
28579,29445,-5.9999999999999995e-05,-8e-05,-9e-05,0.00018999999999999998,0.00028,0.00014,0.00031,5e-05,6
28580,29446,1e-05,0.0,0.0,-0.00016999999999999999,0.00018,-5e-05,9e-05,2.9999999999999997e-05,6
28581,29447,1e-05,0.0,0.0,-0.00016999999999999999,0.00018,-5e-05,9e-05,2.9999999999999997e-05,6
28582,29448,1e-05,0.0,0.0,-0.00016999999999999999,0.00018,-5e-05,9e-05,2.9999999999999997e-05,6
28583,29449,1e-05,0.0,0.0,-0.00016999999999999999,0.00018,-5e-05,9e-05,2.9999999999999997e-05,6
28584,29450,1e-05,0.0,0.0,-0.00016999999999999999,0.00018,-5e-05,9e-05,2.9999999999999997e-05,6
28585,29451,1e-05,0.0,0.0,-0.00016999999999999999,0.00018,-5e-05,9e-05,2.9999999999999997e-05,6
28586,29452,2.9999999999999997e-05,1e-05,9e-05,0.00036,0.0008900000000000001,-2.9999999999999997e-05,-0.0001,5.9999999999999995e-05,6
28587,29453,2.9999999999999997e-05,1e-05,9e-05,0.00036,0.0008900000000000001,-2.9999999999999997e-05,-0.0001,5.9999999999999995e-05,6
28588,29454,2.9999999999999997e-05,1e-05,9e-05,0.00036,0.0008900000000000001,-2.9999999999999997e-05,-0.0001,5.9999999999999995e-05,6
28589,29455,2.9999999999999997e-05,1e-05,9e-05,0.00036,0.0008900000000000001,-2.9999999999999997e-05,-0.0001,5.9999999999999995e-05,6
28590,29456,2.9999999999999997e-05,1e-05,9e-05,0.00036,0.0008900000000000001,-2.9999999999999997e-05,-0.0001,5.9999999999999995e-05,6
28591,29457,2.9999999999999997e-05,1e-05,9e-05,0.00036,0.0008900000000000001,-2.9999999999999997e-05,-0.0001,5.9999999999999995e-05,6
28592,29458,2.9999999999999997e-05,1e-05,9e-05,0.00036,0.0008900000000000001,-2.9999999999999997e-05,-0.0001,5.9999999999999995e-05,6
28593,29459,2.9999999999999997e-05,1e-05,9e-05,0.00036,0.0008900000000000001,-2.9999999999999997e-05,-0.0001,5.9999999999999995e-05,6
28594,29460,2.9999999999999997e-05,1e-05,9e-05,0.00036,0.0008900000000000001,-2.9999999999999997e-05,-0.0001,5.9999999999999995e-05,6
28595,29461,2.9999999999999997e-05,1e-05,9e-05,0.00036,0.0008900000000000001,-2.9999999999999997e-05,-0.0001,5.9999999999999995e-05,6
28596,29462,2.9999999999999997e-05,1e-05,9e-05,0.00036,0.0008900000000000001,-2.9999999999999997e-05,-0.0001,5.9999999999999995e-05,6
28597,29463,2.9999999999999997e-05,1e-05,9e-05,0.00036,0.0008900000000000001,-2.9999999999999997e-05,-0.0001,5.9999999999999995e-05,6
28598,29464,2.9999999999999997e-05,1e-05,9e-05,0.00036,0.0008900000000000001,-2.9999999999999997e-05,-0.0001,5.9999999999999995e-05,6
28599,29465,2.9999999999999997e-05,1e-05,9e-05,0.00036,0.0008900000000000001,-2.9999999999999997e-05,-0.0001,5.9999999999999995e-05,6
28600,29466,2.9999999999999997e-05,1e-05,9e-05,0.00036,0.0008900000000000001,-2.9999999999999997e-05,-0.0001,5.9999999999999995e-05,6
28601,29467,2.9999999999999997e-05,1e-05,9e-05,0.00036,0.0008900000000000001,-2.9999999999999997e-05,-0.0001,5.9999999999999995e-05,6
28602,29468,-1e-05,-2.9999999999999997e-05,-0.00018,-0.00088,-0.0005,2.9999999999999997e-05,0.00018999999999999998,0.00015,6
28603,29469,-1e-05,-2.9999999999999997e-05,-0.00018,-0.00088,-0.0005,2.9999999999999997e-05,0.00018999999999999998,0.00015,6
28604,29470,-1e-05,-2.9999999999999997e-05,-0.00018,-0.00088,-0.0005,2.9999999999999997e-05,0.00018999999999999998,0.00015,6
28605,29471,-1e-05,-2.9999999999999997e-05,-0.00018,-0.00088,-0.0005,2.9999999999999997e-05,0.00018999999999999998,0.00015,6
28606,29472,-1e-05,-2.9999999999999997e-05,-0.00018,-0.00088,-0.0005,2.9999999999999997e-05,0.00018999999999999998,0.00015,6
28607,29473,-1e-05,-2.9999999999999997e-05,-0.00018,-0.00088,-0.0005,2.9999999999999997e-05,0.00018999999999999998,0.00015,6
28608,29474,-2.9999999999999997e-05,-1e-05,0.00011999999999999999,0.00122,0.0008699999999999999,-2.9999999999999997e-05,-0.00014,-1e-05,6
28609,29475,-2.9999999999999997e-05,-2.9999999999999997e-05,-8e-05,-0.00011999999999999999,-0.00035,-0.00016999999999999999,0.00036,-9e-05,6
28610,29476,-2.9999999999999997e-05,-2.9999999999999997e-05,-8e-05,-0.00011999999999999999,-0.00035,-0.00016999999999999999,0.00036,-9e-05,6
28611,29477,-2.9999999999999997e-05,-2.9999999999999997e-05,-8e-05,-0.00011999999999999999,-0.00035,-0.00016999999999999999,0.00036,-9e-05,6
28612,29478,-2.9999999999999997e-05,-2.9999999999999997e-05,-8e-05,-0.00011999999999999999,-0.00035,-0.00016999999999999999,0.00036,-9e-05,6
28613,29479,-2.9999999999999997e-05,-2.9999999999999997e-05,-8e-05,-0.00011999999999999999,-0.00035,-0.00016999999999999999,0.00036,-9e-05,6
28614,29480,-2.9999999999999997e-05,-2.9999999999999997e-05,-8e-05,-0.00011999999999999999,-0.00035,-0.00016999999999999999,0.00036,-9e-05,6
28615,29481,-2.9999999999999997e-05,-2.9999999999999997e-05,-8e-05,-0.00011999999999999999,-0.00035,-0.00016999999999999999,0.00036,-9e-05,6
28616,29482,-2.9999999999999997e-05,-2.9999999999999997e-05,-8e-05,-0.00011999999999999999,-0.00035,-0.00016999999999999999,0.00036,-9e-05,6
28617,29483,1e-05,2e-05,5e-05,7e-05,-0.00026000000000000003,-0.0001,0.00022999999999999998,5.9999999999999995e-05,6
28618,29484,1e-05,2e-05,5e-05,7e-05,-0.00026000000000000003,-0.0001,0.00022999999999999998,5.9999999999999995e-05,6
28619,29485,1e-05,-2.9999999999999997e-05,-0.00018999999999999998,-0.00101,-0.00033,-2e-05,-0.00011999999999999999,-4e-05,6
28620,29486,1e-05,-2.9999999999999997e-05,-0.00018999999999999998,-0.00101,-0.00033,-2e-05,-0.00011999999999999999,-4e-05,6
28621,29488,1e-05,-2.9999999999999997e-05,-0.00018999999999999998,-0.00101,-0.00033,-2e-05,-0.00011999999999999999,-4e-05,6
28622,29489,1e-05,-2.9999999999999997e-05,-0.00018999999999999998,-0.00101,-0.00033,-2e-05,-0.00011999999999999999,-4e-05,6
28623,29490,1e-05,-2.9999999999999997e-05,-0.00018999999999999998,-0.00101,-0.00033,-2e-05,-0.00011999999999999999,-4e-05,6
28624,29491,1e-05,-2.9999999999999997e-05,-0.00018999999999999998,-0.00101,-0.00033,-2e-05,-0.00011999999999999999,-4e-05,6
28625,29492,1e-05,-2.9999999999999997e-05,-0.00018999999999999998,-0.00101,-0.00033,-2e-05,-0.00011999999999999999,-4e-05,6
28626,29493,1e-05,-2.9999999999999997e-05,-0.00018999999999999998,-0.00101,-0.00033,-2e-05,-0.00011999999999999999,-4e-05,6
28627,29494,1e-05,-2.9999999999999997e-05,-0.00018999999999999998,-0.00101,-0.00033,-2e-05,-0.00011999999999999999,-4e-05,6
28628,29495,1e-05,-2.9999999999999997e-05,-0.00018999999999999998,-0.00101,-0.00033,-2e-05,-0.00011999999999999999,-4e-05,6
28629,29496,1e-05,-2.9999999999999997e-05,-0.00018999999999999998,-0.00101,-0.00033,-2e-05,-0.00011999999999999999,-4e-05,6
28630,29497,1e-05,-2.9999999999999997e-05,-0.00018999999999999998,-0.00101,-0.00033,-2e-05,-0.00011999999999999999,-4e-05,6
28631,29498,1e-05,-2.9999999999999997e-05,-0.00018999999999999998,-0.00101,-0.00033,-2e-05,-0.00011999999999999999,-4e-05,6
28632,29499,1e-05,-2.9999999999999997e-05,-0.00018999999999999998,-0.00101,-0.00033,-2e-05,-0.00011999999999999999,-4e-05,6
28633,29500,1e-05,-2.9999999999999997e-05,-0.00018999999999999998,-0.00101,-0.00033,-2e-05,-0.00011999999999999999,-4e-05,6
28634,29501,1e-05,-2.9999999999999997e-05,-0.00018999999999999998,-0.00101,-0.00033,-2e-05,-0.00011999999999999999,-4e-05,6
28635,29502,1e-05,-2.9999999999999997e-05,-0.00018999999999999998,-0.00101,-0.00033,-2e-05,-0.00011999999999999999,-4e-05,6
28636,29503,1e-05,-2.9999999999999997e-05,-0.00018999999999999998,-0.00101,-0.00033,-2e-05,-0.00011999999999999999,-4e-05,6
28637,29504,1e-05,-2.9999999999999997e-05,-0.00018999999999999998,-0.00101,-0.00033,-2e-05,-0.00011999999999999999,-4e-05,6
28638,29505,1e-05,-2.9999999999999997e-05,-0.00018999999999999998,-0.00101,-0.00033,-2e-05,-0.00011999999999999999,-4e-05,6
28639,29506,-1e-05,-1e-05,-4e-05,0.00013000000000000002,-0.0001,-4e-05,0.00015,1e-05,6
28640,29507,0.0,1e-05,0.00014,0.00043,0.00067,2e-05,-0.00058,2e-05,6
28641,29508,0.0,2e-05,-4e-05,-0.00041,-0.00082,-0.0006,0.00023999999999999998,9e-05,6
28642,29509,0.0,2e-05,-4e-05,-0.00041,-0.00082,-0.0006,0.00023999999999999998,9e-05,6
28643,29510,0.0,2e-05,-4e-05,-0.00041,-0.00082,-0.0006,0.00023999999999999998,9e-05,6
28644,29511,0.0,2e-05,-4e-05,-0.00041,-0.00082,-0.0006,0.00023999999999999998,9e-05,6
28645,29512,0.0,2e-05,-4e-05,-0.00041,-0.00082,-0.0006,0.00023999999999999998,9e-05,6
28646,29513,0.0,2e-05,-4e-05,-0.00041,-0.00082,-0.0006,0.00023999999999999998,9e-05,6
28647,29514,0.0,2e-05,-4e-05,-0.00041,-0.00082,-0.0006,0.00023999999999999998,9e-05,6
28648,29515,0.0,2e-05,-4e-05,-0.00041,-0.00082,-0.0006,0.00023999999999999998,9e-05,6
28649,29516,0.0,2e-05,-4e-05,-0.00041,-0.00082,-0.0006,0.00023999999999999998,9e-05,6
28650,29517,0.0,2e-05,-4e-05,-0.00041,-0.00082,-0.0006,0.00023999999999999998,9e-05,6
28651,29518,0.0,2e-05,-4e-05,-0.00041,-0.00082,-0.0006,0.00023999999999999998,9e-05,6
28652,29519,0.0,2e-05,-4e-05,-0.00041,-0.00082,-0.0006,0.00023999999999999998,9e-05,6
28653,29520,0.0,2e-05,-4e-05,-0.00041,-0.00082,-0.0006,0.00023999999999999998,9e-05,6
28654,29521,0.0,2e-05,-4e-05,-0.00041,-0.00082,-0.0006,0.00023999999999999998,9e-05,6
28655,29522,0.0,2e-05,-4e-05,-0.00041,-0.00082,-0.0006,0.00023999999999999998,9e-05,6
28656,29523,0.0,2e-05,-4e-05,-0.00041,-0.00082,-0.0006,0.00023999999999999998,9e-05,6
28657,29524,0.0,2e-05,-4e-05,-0.00041,-0.00082,-0.0006,0.00023999999999999998,9e-05,6
28658,29525,0.0,2e-05,-4e-05,-0.00041,-0.00082,-0.0006,0.00023999999999999998,9e-05,6
28659,29526,0.0,2e-05,-4e-05,-0.00041,-0.00082,-0.0006,0.00023999999999999998,9e-05,6
28660,29527,0.0,2e-05,-4e-05,-0.00041,-0.00082,-0.0006,0.00023999999999999998,9e-05,6
28661,29528,0.0,2e-05,-4e-05,-0.00041,-0.00082,-0.0006,0.00023999999999999998,9e-05,6
28662,29529,0.0,2e-05,-4e-05,-0.00041,-0.00082,-0.0006,0.00023999999999999998,9e-05,6
28663,29530,0.0,2e-05,-4e-05,-0.00041,-0.00082,-0.0006,0.00023999999999999998,9e-05,6
28664,29531,0.0,2e-05,-4e-05,-0.00041,-0.00082,-0.0006,0.00023999999999999998,9e-05,6
28665,29532,0.0,2e-05,-4e-05,-0.00041,-0.00082,-0.0006,0.00023999999999999998,9e-05,6
28666,29533,0.0,2e-05,-4e-05,-0.00041,-0.00082,-0.0006,0.00023999999999999998,9e-05,6
28667,29534,0.0,2e-05,-4e-05,-0.00041,-0.00082,-0.0006,0.00023999999999999998,9e-05,6
28668,29535,0.0,2e-05,-4e-05,-0.00041,-0.00082,-0.0006,0.00023999999999999998,9e-05,6
28669,29536,0.0,2.9999999999999997e-05,2.9999999999999997e-05,-0.00011999999999999999,0.0005,-7e-05,-0.00011,-7e-05,6
28670,29538,0.0,-2.9999999999999997e-05,5e-05,0.0004,0.001,7e-05,-0.00023999999999999998,-5.9999999999999995e-05,6
28671,29539,0.0,-2.9999999999999997e-05,5e-05,0.0004,0.001,7e-05,-0.00023999999999999998,-5.9999999999999995e-05,6
28672,29540,0.0,-2.9999999999999997e-05,5e-05,0.0004,0.001,7e-05,-0.00023999999999999998,-5.9999999999999995e-05,6
28673,29541,0.0,-2.9999999999999997e-05,5e-05,0.0004,0.001,7e-05,-0.00023999999999999998,-5.9999999999999995e-05,6
28674,29542,0.0,-2.9999999999999997e-05,5e-05,0.0004,0.001,7e-05,-0.00023999999999999998,-5.9999999999999995e-05,6
28675,29543,0.0,-2.9999999999999997e-05,5e-05,0.0004,0.001,7e-05,-0.00023999999999999998,-5.9999999999999995e-05,6
28676,29544,0.0,-2.9999999999999997e-05,5e-05,0.0004,0.001,7e-05,-0.00023999999999999998,-5.9999999999999995e-05,6
28677,29545,0.0,-2.9999999999999997e-05,5e-05,0.0004,0.001,7e-05,-0.00023999999999999998,-5.9999999999999995e-05,6
28678,29546,0.0,-2.9999999999999997e-05,5e-05,0.0004,0.001,7e-05,-0.00023999999999999998,-5.9999999999999995e-05,6
28679,29547,0.0,-2.9999999999999997e-05,5e-05,0.0004,0.001,7e-05,-0.00023999999999999998,-5.9999999999999995e-05,6
28680,29548,0.0,-2.9999999999999997e-05,5e-05,0.0004,0.001,7e-05,-0.00023999999999999998,-5.9999999999999995e-05,6
28681,29549,0.0,-2.9999999999999997e-05,5e-05,0.0004,0.001,7e-05,-0.00023999999999999998,-5.9999999999999995e-05,6
28682,29550,0.0,-2.9999999999999997e-05,5e-05,0.0004,0.001,7e-05,-0.00023999999999999998,-5.9999999999999995e-05,6
28683,29551,0.0,-2.9999999999999997e-05,5e-05,0.0004,0.001,7e-05,-0.00023999999999999998,-5.9999999999999995e-05,6
28684,29552,0.0,-2.9999999999999997e-05,5e-05,0.0004,0.001,7e-05,-0.00023999999999999998,-5.9999999999999995e-05,6
28685,29553,0.0,-2.9999999999999997e-05,5e-05,0.0004,0.001,7e-05,-0.00023999999999999998,-5.9999999999999995e-05,6
28686,29554,0.0,-2.9999999999999997e-05,5e-05,0.0004,0.001,7e-05,-0.00023999999999999998,-5.9999999999999995e-05,6
28687,29555,0.0,-2.9999999999999997e-05,5e-05,0.0004,0.001,7e-05,-0.00023999999999999998,-5.9999999999999995e-05,6
28688,29556,0.0,-2.9999999999999997e-05,5e-05,0.0004,0.001,7e-05,-0.00023999999999999998,-5.9999999999999995e-05,6
28689,29557,0.0,-2.9999999999999997e-05,5e-05,0.0004,0.001,7e-05,-0.00023999999999999998,-5.9999999999999995e-05,6
28690,29558,0.0,-2.9999999999999997e-05,5e-05,0.0004,0.001,7e-05,-0.00023999999999999998,-5.9999999999999995e-05,6
28691,29559,5.9999999999999995e-05,7e-05,0.00018999999999999998,0.00043,0.00022999999999999998,0.00042,0.00041,1e-05,6
28692,29560,1e-05,2.9999999999999997e-05,5.9999999999999995e-05,1e-05,-0.00059,-0.0001,-0.00031,-5.9999999999999995e-05,6
28693,29561,1e-05,2.9999999999999997e-05,5.9999999999999995e-05,1e-05,-0.00059,-0.0001,-0.00031,-5.9999999999999995e-05,6
28694,29562,1e-05,2.9999999999999997e-05,5.9999999999999995e-05,1e-05,-0.00059,-0.0001,-0.00031,-5.9999999999999995e-05,6
28695,29563,1e-05,2.9999999999999997e-05,5.9999999999999995e-05,1e-05,-0.00059,-0.0001,-0.00031,-5.9999999999999995e-05,6
28696,29564,1e-05,2.9999999999999997e-05,5.9999999999999995e-05,1e-05,-0.00059,-0.0001,-0.00031,-5.9999999999999995e-05,6
28697,29565,1e-05,2.9999999999999997e-05,5.9999999999999995e-05,1e-05,-0.00059,-0.0001,-0.00031,-5.9999999999999995e-05,6
28698,29566,2.9999999999999997e-05,2.9999999999999997e-05,0.00011,0.00022,-0.00015,1e-05,2.9999999999999997e-05,7e-05,6
28699,29567,2.9999999999999997e-05,2.9999999999999997e-05,0.00011,0.00022,-0.00015,1e-05,2.9999999999999997e-05,7e-05,6
28700,29568,-2.9999999999999997e-05,-2.9999999999999997e-05,-9e-05,-0.00035,-0.00121,-0.0002,-5e-05,7e-05,6
28701,29569,-2.9999999999999997e-05,-2.9999999999999997e-05,-9e-05,-0.00035,-0.00121,-0.0002,-5e-05,7e-05,6
28702,29570,-2.9999999999999997e-05,-2.9999999999999997e-05,-9e-05,-0.00035,-0.00121,-0.0002,-5e-05,7e-05,6
28703,29571,-2.9999999999999997e-05,-2.9999999999999997e-05,-9e-05,-0.00035,-0.00121,-0.0002,-5e-05,7e-05,6
28704,29572,-2.9999999999999997e-05,-2.9999999999999997e-05,-9e-05,-0.00035,-0.00121,-0.0002,-5e-05,7e-05,6
28705,29573,-2.9999999999999997e-05,-2.9999999999999997e-05,-9e-05,-0.00035,-0.00121,-0.0002,-5e-05,7e-05,6
28706,29574,-2.9999999999999997e-05,-2.9999999999999997e-05,-9e-05,-0.00035,-0.00121,-0.0002,-5e-05,7e-05,6
28707,29575,-2.9999999999999997e-05,-2.9999999999999997e-05,-9e-05,-0.00035,-0.00121,-0.0002,-5e-05,7e-05,6
28708,29576,-2.9999999999999997e-05,-2.9999999999999997e-05,-9e-05,-0.00035,-0.00121,-0.0002,-5e-05,7e-05,6
28709,29577,-2.9999999999999997e-05,-2.9999999999999997e-05,-9e-05,-0.00035,-0.00121,-0.0002,-5e-05,7e-05,6
28710,29578,-2.9999999999999997e-05,-2.9999999999999997e-05,-9e-05,-0.00035,-0.00121,-0.0002,-5e-05,7e-05,6
28711,29579,-2.9999999999999997e-05,-2.9999999999999997e-05,-9e-05,-0.00035,-0.00121,-0.0002,-5e-05,7e-05,6
28712,29580,-2.9999999999999997e-05,-2.9999999999999997e-05,-9e-05,-0.00035,-0.00121,-0.0002,-5e-05,7e-05,6
28713,29581,-2.9999999999999997e-05,-2e-05,-0.00014,0.00016999999999999999,0.00055,-0.00011,-0.00033,-0.00021,6
28714,29582,-2.9999999999999997e-05,-2e-05,-0.00014,0.00016999999999999999,0.00055,-0.00011,-0.00033,-0.00021,6
28715,29583,-2.9999999999999997e-05,-2e-05,-0.00014,0.00016999999999999999,0.00055,-0.00011,-0.00033,-0.00021,6
28716,29584,-2.9999999999999997e-05,-2e-05,-0.00014,0.00016999999999999999,0.00055,-0.00011,-0.00033,-0.00021,6
28717,29585,-2.9999999999999997e-05,-2e-05,-0.00014,0.00016999999999999999,0.00055,-0.00011,-0.00033,-0.00021,6
28718,29586,-2.9999999999999997e-05,-2e-05,-0.00014,0.00016999999999999999,0.00055,-0.00011,-0.00033,-0.00021,6
28719,29589,-2e-05,1e-05,0.0,0.00031,2e-05,0.00011,-2e-05,-4e-05,6
28720,29590,-2e-05,1e-05,0.0,0.00031,2e-05,0.00011,-2e-05,-4e-05,6
28721,29591,-2e-05,1e-05,0.0,0.00031,2e-05,0.00011,-2e-05,-4e-05,6
28722,29592,-2e-05,1e-05,0.0,0.00031,2e-05,0.00011,-2e-05,-4e-05,6
28723,29593,-2e-05,1e-05,0.0,0.00031,2e-05,0.00011,-2e-05,-4e-05,6
28724,29594,-2e-05,1e-05,0.0,0.00031,2e-05,0.00011,-2e-05,-4e-05,6
28725,29595,-2e-05,1e-05,0.0,0.00031,2e-05,0.00011,-2e-05,-4e-05,6
28726,29596,-2e-05,1e-05,0.0,0.00031,2e-05,0.00011,-2e-05,-4e-05,6
28727,29597,-2e-05,1e-05,0.0,0.00031,2e-05,0.00011,-2e-05,-4e-05,6
28728,29598,-2e-05,1e-05,0.0,0.00031,2e-05,0.00011,-2e-05,-4e-05,6
28729,29599,-2e-05,1e-05,0.0,0.00031,2e-05,0.00011,-2e-05,-4e-05,6
28730,29600,-2e-05,1e-05,0.0,0.00031,2e-05,0.00011,-2e-05,-4e-05,6
28731,29601,-2e-05,1e-05,0.0,0.00031,2e-05,0.00011,-2e-05,-4e-05,6
28732,29602,-2e-05,1e-05,0.0,0.00031,2e-05,0.00011,-2e-05,-4e-05,6
28733,29603,-2e-05,1e-05,0.0,0.00031,2e-05,0.00011,-2e-05,-4e-05,6
28734,29604,-2e-05,1e-05,0.0,0.00031,2e-05,0.00011,-2e-05,-4e-05,6
28735,29605,-2e-05,1e-05,0.0,0.00031,2e-05,0.00011,-2e-05,-4e-05,6
28736,29606,-2e-05,1e-05,0.0,0.00031,2e-05,0.00011,-2e-05,-4e-05,6
28737,29607,-2e-05,1e-05,0.0,0.00031,2e-05,0.00011,-2e-05,-4e-05,6
28738,29608,-2e-05,1e-05,0.0,0.00031,2e-05,0.00011,-2e-05,-4e-05,6
28739,29609,-2e-05,1e-05,0.0,0.00031,2e-05,0.00011,-2e-05,-4e-05,6
28740,29610,-2e-05,1e-05,0.0,0.00031,2e-05,0.00011,-2e-05,-4e-05,6
28741,29611,-2.9999999999999997e-05,-2.9999999999999997e-05,-8e-05,-2e-05,0.00021,-5e-05,-7e-05,4e-05,6
28742,29612,0.0,5e-05,0.00011,0.00036,0.00054,0.00029,5e-05,-5e-05,6
28743,29613,-5.9999999999999995e-05,-5.9999999999999995e-05,-5.9999999999999995e-05,-4e-05,0.00036,-7e-05,-0.00011999999999999999,-4e-05,6
28744,29614,-5.9999999999999995e-05,-5.9999999999999995e-05,-5.9999999999999995e-05,-4e-05,0.00036,-7e-05,-0.00011999999999999999,-4e-05,6
28745,29615,-5.9999999999999995e-05,-5.9999999999999995e-05,-5.9999999999999995e-05,-4e-05,0.00036,-7e-05,-0.00011999999999999999,-4e-05,6
28746,29616,-5.9999999999999995e-05,-5.9999999999999995e-05,-5.9999999999999995e-05,-4e-05,0.00036,-7e-05,-0.00011999999999999999,-4e-05,6
28747,29617,-5.9999999999999995e-05,-5.9999999999999995e-05,-5.9999999999999995e-05,-4e-05,0.00036,-7e-05,-0.00011999999999999999,-4e-05,6
28748,29618,-5.9999999999999995e-05,-5.9999999999999995e-05,-5.9999999999999995e-05,-4e-05,0.00036,-7e-05,-0.00011999999999999999,-4e-05,6
28749,29619,-5.9999999999999995e-05,-5.9999999999999995e-05,-5.9999999999999995e-05,-4e-05,0.00036,-7e-05,-0.00011999999999999999,-4e-05,6
28750,29620,-5.9999999999999995e-05,-5.9999999999999995e-05,-5.9999999999999995e-05,-4e-05,0.00036,-7e-05,-0.00011999999999999999,-4e-05,6
28751,29621,-5.9999999999999995e-05,-5.9999999999999995e-05,-5.9999999999999995e-05,-4e-05,0.00036,-7e-05,-0.00011999999999999999,-4e-05,6
28752,29622,-5.9999999999999995e-05,-5.9999999999999995e-05,-5.9999999999999995e-05,-4e-05,0.00036,-7e-05,-0.00011999999999999999,-4e-05,6
28753,29623,-5.9999999999999995e-05,-5.9999999999999995e-05,-5.9999999999999995e-05,-4e-05,0.00036,-7e-05,-0.00011999999999999999,-4e-05,6
28754,29624,-5.9999999999999995e-05,-5.9999999999999995e-05,-5.9999999999999995e-05,-4e-05,0.00036,-7e-05,-0.00011999999999999999,-4e-05,6
28755,29625,-5.9999999999999995e-05,-5.9999999999999995e-05,-5.9999999999999995e-05,-4e-05,0.00036,-7e-05,-0.00011999999999999999,-4e-05,6
28756,29626,-5.9999999999999995e-05,-5.9999999999999995e-05,-5.9999999999999995e-05,-4e-05,0.00036,-7e-05,-0.00011999999999999999,-4e-05,6
28757,29627,-5.9999999999999995e-05,-5.9999999999999995e-05,-5.9999999999999995e-05,-4e-05,0.00036,-7e-05,-0.00011999999999999999,-4e-05,6
28758,29628,-5.9999999999999995e-05,-5.9999999999999995e-05,-5.9999999999999995e-05,-4e-05,0.00036,-7e-05,-0.00011999999999999999,-4e-05,6
28759,29629,-5.9999999999999995e-05,-5.9999999999999995e-05,-5.9999999999999995e-05,-4e-05,0.00036,-7e-05,-0.00011999999999999999,-4e-05,6
28760,29630,-5.9999999999999995e-05,-5.9999999999999995e-05,-5.9999999999999995e-05,-4e-05,0.00036,-7e-05,-0.00011999999999999999,-4e-05,6
28761,29631,-5.9999999999999995e-05,-5.9999999999999995e-05,-5.9999999999999995e-05,-4e-05,0.00036,-7e-05,-0.00011999999999999999,-4e-05,6
28762,29632,-5.9999999999999995e-05,-5.9999999999999995e-05,-5.9999999999999995e-05,-4e-05,0.00036,-7e-05,-0.00011999999999999999,-4e-05,6
28763,29633,-5.9999999999999995e-05,-5.9999999999999995e-05,-5.9999999999999995e-05,-4e-05,0.00036,-7e-05,-0.00011999999999999999,-4e-05,6
28764,29634,-5.9999999999999995e-05,-5.9999999999999995e-05,-5.9999999999999995e-05,-4e-05,0.00036,-7e-05,-0.00011999999999999999,-4e-05,6
28765,29635,-5.9999999999999995e-05,-5.9999999999999995e-05,-5.9999999999999995e-05,-4e-05,0.00036,-7e-05,-0.00011999999999999999,-4e-05,6
28766,29636,-5.9999999999999995e-05,-5.9999999999999995e-05,-5.9999999999999995e-05,-4e-05,0.00036,-7e-05,-0.00011999999999999999,-4e-05,6
28767,29638,-5.9999999999999995e-05,-5.9999999999999995e-05,-5.9999999999999995e-05,-4e-05,0.00036,-7e-05,-0.00011999999999999999,-4e-05,6
28768,29639,-5.9999999999999995e-05,-5.9999999999999995e-05,-5.9999999999999995e-05,-4e-05,0.00036,-7e-05,-0.00011999999999999999,-4e-05,6
28769,29640,-5.9999999999999995e-05,-5.9999999999999995e-05,-5.9999999999999995e-05,-4e-05,0.00036,-7e-05,-0.00011999999999999999,-4e-05,6
28770,29641,-5.9999999999999995e-05,-5.9999999999999995e-05,-5.9999999999999995e-05,-4e-05,0.00036,-7e-05,-0.00011999999999999999,-4e-05,6
28771,29642,-5.9999999999999995e-05,-5.9999999999999995e-05,-5.9999999999999995e-05,-4e-05,0.00036,-7e-05,-0.00011999999999999999,-4e-05,6
28772,29643,2e-05,0.0,2.9999999999999997e-05,-0.00033,-0.00013000000000000002,-0.00035,-0.00029,-1e-05,6
28773,29644,-2e-05,0.0,4e-05,1e-05,0.0008300000000000001,0.00054,-0.00055,-4e-05,6
28774,29645,1e-05,0.0,5e-05,-0.00023999999999999998,-0.0009199999999999999,4e-05,5e-05,4e-05,6
28775,29646,1e-05,0.0,5e-05,-0.00023999999999999998,-0.0009199999999999999,4e-05,5e-05,4e-05,6
28776,29647,1e-05,0.0,5e-05,-0.00023999999999999998,-0.0009199999999999999,4e-05,5e-05,4e-05,6
28777,29648,1e-05,0.0,5e-05,-0.00023999999999999998,-0.0009199999999999999,4e-05,5e-05,4e-05,6
28778,29649,-1e-05,-2e-05,0.0,7e-05,-0.0004,-0.00021,0.00011,0.00011999999999999999,6
28779,29650,-1e-05,-2e-05,0.0,7e-05,-0.0004,-0.00021,0.00011,0.00011999999999999999,6
28780,29651,-1e-05,-2e-05,0.0,7e-05,-0.0004,-0.00021,0.00011,0.00011999999999999999,6
28781,29652,-1e-05,-2e-05,0.0,7e-05,-0.0004,-0.00021,0.00011,0.00011999999999999999,6
28782,29653,-1e-05,-2e-05,0.0,7e-05,-0.0004,-0.00021,0.00011,0.00011999999999999999,6
28783,29654,-1e-05,-2e-05,0.0,7e-05,-0.0004,-0.00021,0.00011,0.00011999999999999999,6
28784,29655,-1e-05,-2e-05,0.0,7e-05,-0.0004,-0.00021,0.00011,0.00011999999999999999,6
28785,29656,-1e-05,-2e-05,0.0,7e-05,-0.0004,-0.00021,0.00011,0.00011999999999999999,6
28786,29657,-1e-05,-2e-05,0.0,7e-05,-0.0004,-0.00021,0.00011,0.00011999999999999999,6
28787,29658,-1e-05,-2e-05,0.0,7e-05,-0.0004,-0.00021,0.00011,0.00011999999999999999,6
28788,29659,-1e-05,-2e-05,0.0,7e-05,-0.0004,-0.00021,0.00011,0.00011999999999999999,6
28789,29660,-1e-05,-2e-05,0.0,7e-05,-0.0004,-0.00021,0.00011,0.00011999999999999999,6
28790,29661,-1e-05,-2e-05,0.0,7e-05,-0.0004,-0.00021,0.00011,0.00011999999999999999,6
28791,29662,-1e-05,-2e-05,0.0,7e-05,-0.0004,-0.00021,0.00011,0.00011999999999999999,6
28792,29663,-1e-05,-2e-05,0.0,7e-05,-0.0004,-0.00021,0.00011,0.00011999999999999999,6
28793,29664,-1e-05,-2e-05,0.0,7e-05,-0.0004,-0.00021,0.00011,0.00011999999999999999,6
28794,29665,-1e-05,-2e-05,0.0,7e-05,-0.0004,-0.00021,0.00011,0.00011999999999999999,6
28795,29666,-1e-05,-2e-05,0.0,7e-05,-0.0004,-0.00021,0.00011,0.00011999999999999999,6
28796,29667,-1e-05,-2e-05,0.0,7e-05,-0.0004,-0.00021,0.00011,0.00011999999999999999,6
28797,29668,-1e-05,-2e-05,0.0,7e-05,-0.0004,-0.00021,0.00011,0.00011999999999999999,6
28798,29669,-1e-05,-2e-05,0.0,7e-05,-0.0004,-0.00021,0.00011,0.00011999999999999999,6
28799,29670,-1e-05,-2e-05,0.0,7e-05,-0.0004,-0.00021,0.00011,0.00011999999999999999,6
28800,29671,-1e-05,-4e-05,-7e-05,0.00011999999999999999,0.00044,-0.0001,0.0,2e-05,6
28801,29672,1e-05,2e-05,-0.00011999999999999999,-0.00045999999999999996,0.00035,-9e-05,1e-05,-2.9999999999999997e-05,6
28802,29673,1e-05,2e-05,-0.00011999999999999999,-0.00045999999999999996,0.00035,-9e-05,1e-05,-2.9999999999999997e-05,6
28803,29674,1e-05,2e-05,-0.00011999999999999999,-0.00045999999999999996,0.00035,-9e-05,1e-05,-2.9999999999999997e-05,6
28804,29675,1e-05,2e-05,-0.00011999999999999999,-0.00045999999999999996,0.00035,-9e-05,1e-05,-2.9999999999999997e-05,6
28805,29676,1e-05,2e-05,-0.00011999999999999999,-0.00045999999999999996,0.00035,-9e-05,1e-05,-2.9999999999999997e-05,6
28806,29677,1e-05,2e-05,-0.00011999999999999999,-0.00045999999999999996,0.00035,-9e-05,1e-05,-2.9999999999999997e-05,6
28807,29678,1e-05,2e-05,-0.00011999999999999999,-0.00045999999999999996,0.00035,-9e-05,1e-05,-2.9999999999999997e-05,6
28808,29679,1e-05,2e-05,-0.00011999999999999999,-0.00045999999999999996,0.00035,-9e-05,1e-05,-2.9999999999999997e-05,6
28809,29680,1e-05,2e-05,-0.00011999999999999999,-0.00045999999999999996,0.00035,-9e-05,1e-05,-2.9999999999999997e-05,6
28810,29681,1e-05,2e-05,-0.00011999999999999999,-0.00045999999999999996,0.00035,-9e-05,1e-05,-2.9999999999999997e-05,6
28811,29682,1e-05,2e-05,-0.00011999999999999999,-0.00045999999999999996,0.00035,-9e-05,1e-05,-2.9999999999999997e-05,6
28812,29683,1e-05,2e-05,-0.00011999999999999999,-0.00045999999999999996,0.00035,-9e-05,1e-05,-2.9999999999999997e-05,6
28813,29684,1e-05,2e-05,-0.00011999999999999999,-0.00045999999999999996,0.00035,-9e-05,1e-05,-2.9999999999999997e-05,6
28814,29685,1e-05,2e-05,-0.00011999999999999999,-0.00045999999999999996,0.00035,-9e-05,1e-05,-2.9999999999999997e-05,6
28815,29686,1e-05,2e-05,-0.00011999999999999999,-0.00045999999999999996,0.00035,-9e-05,1e-05,-2.9999999999999997e-05,6
28816,29688,1e-05,2e-05,-0.00011999999999999999,-0.00045999999999999996,0.00035,-9e-05,1e-05,-2.9999999999999997e-05,6
28817,29689,1e-05,2e-05,-0.00011999999999999999,-0.00045999999999999996,0.00035,-9e-05,1e-05,-2.9999999999999997e-05,6
28818,29690,1e-05,2e-05,-0.00011999999999999999,-0.00045999999999999996,0.00035,-9e-05,1e-05,-2.9999999999999997e-05,6
28819,29691,1e-05,2e-05,-0.00011999999999999999,-0.00045999999999999996,0.00035,-9e-05,1e-05,-2.9999999999999997e-05,6
28820,29692,1e-05,2e-05,-0.00011999999999999999,-0.00045999999999999996,0.00035,-9e-05,1e-05,-2.9999999999999997e-05,6
28821,29693,-5e-05,-4e-05,-0.0001,-0.00037,-0.00079,-0.00013000000000000002,4e-05,-5e-05,6
28822,29694,-5e-05,-4e-05,-0.0001,-0.00037,-0.00079,-0.00013000000000000002,4e-05,-5e-05,6
28823,29695,-1e-05,-2.9999999999999997e-05,7e-05,-5.9999999999999995e-05,-0.0011300000000000001,-0.00027,2e-05,-5.9999999999999995e-05,6
28824,29696,-1e-05,-2.9999999999999997e-05,7e-05,-5.9999999999999995e-05,-0.0011300000000000001,-0.00027,2e-05,-5.9999999999999995e-05,6
28825,29697,-1e-05,-2.9999999999999997e-05,7e-05,-5.9999999999999995e-05,-0.0011300000000000001,-0.00027,2e-05,-5.9999999999999995e-05,6
28826,29698,-1e-05,-2.9999999999999997e-05,7e-05,-5.9999999999999995e-05,-0.0011300000000000001,-0.00027,2e-05,-5.9999999999999995e-05,6
28827,29699,-2e-05,-1e-05,-7e-05,0.00013000000000000002,-0.00049,-0.00039,-0.00015,0.0,6
28828,29700,1e-05,1e-05,5.9999999999999995e-05,0.00025,-0.00066,9e-05,-0.00037999999999999997,-2.9999999999999997e-05,6
28829,29701,1e-05,1e-05,5.9999999999999995e-05,0.00025,-0.00066,9e-05,-0.00037999999999999997,-2.9999999999999997e-05,6
28830,29702,1e-05,1e-05,5.9999999999999995e-05,0.00025,-0.00066,9e-05,-0.00037999999999999997,-2.9999999999999997e-05,6
28831,29703,1e-05,1e-05,5.9999999999999995e-05,0.00025,-0.00066,9e-05,-0.00037999999999999997,-2.9999999999999997e-05,6
28832,29704,1e-05,1e-05,5.9999999999999995e-05,0.00025,-0.00066,9e-05,-0.00037999999999999997,-2.9999999999999997e-05,6
28833,29705,1e-05,1e-05,5.9999999999999995e-05,0.00025,-0.00066,9e-05,-0.00037999999999999997,-2.9999999999999997e-05,6
28834,29706,1e-05,1e-05,5.9999999999999995e-05,0.00025,-0.00066,9e-05,-0.00037999999999999997,-2.9999999999999997e-05,6
28835,29707,1e-05,1e-05,5.9999999999999995e-05,0.00025,-0.00066,9e-05,-0.00037999999999999997,-2.9999999999999997e-05,6
28836,29708,1e-05,1e-05,5.9999999999999995e-05,0.00025,-0.00066,9e-05,-0.00037999999999999997,-2.9999999999999997e-05,6
28837,29709,1e-05,1e-05,5.9999999999999995e-05,0.00025,-0.00066,9e-05,-0.00037999999999999997,-2.9999999999999997e-05,6
28838,29710,1e-05,1e-05,5.9999999999999995e-05,0.00025,-0.00066,9e-05,-0.00037999999999999997,-2.9999999999999997e-05,6
28839,29711,1e-05,1e-05,5.9999999999999995e-05,0.00025,-0.00066,9e-05,-0.00037999999999999997,-2.9999999999999997e-05,6
28840,29712,1e-05,1e-05,5.9999999999999995e-05,0.00025,-0.00066,9e-05,-0.00037999999999999997,-2.9999999999999997e-05,6
28841,29713,1e-05,1e-05,5.9999999999999995e-05,0.00025,-0.00066,9e-05,-0.00037999999999999997,-2.9999999999999997e-05,6
28842,29714,1e-05,1e-05,5.9999999999999995e-05,0.00025,-0.00066,9e-05,-0.00037999999999999997,-2.9999999999999997e-05,6
28843,29715,1e-05,1e-05,5.9999999999999995e-05,0.00025,-0.00066,9e-05,-0.00037999999999999997,-2.9999999999999997e-05,6
28844,29716,1e-05,1e-05,5.9999999999999995e-05,0.00025,-0.00066,9e-05,-0.00037999999999999997,-2.9999999999999997e-05,6
28845,29717,1e-05,1e-05,5.9999999999999995e-05,0.00025,-0.00066,9e-05,-0.00037999999999999997,-2.9999999999999997e-05,6
28846,29718,1e-05,1e-05,5.9999999999999995e-05,0.00025,-0.00066,9e-05,-0.00037999999999999997,-2.9999999999999997e-05,6
28847,29719,1e-05,1e-05,5.9999999999999995e-05,0.00025,-0.00066,9e-05,-0.00037999999999999997,-2.9999999999999997e-05,6
28848,29720,1e-05,1e-05,5.9999999999999995e-05,0.00025,-0.00066,9e-05,-0.00037999999999999997,-2.9999999999999997e-05,6
28849,29721,1e-05,1e-05,5.9999999999999995e-05,0.00025,-0.00066,9e-05,-0.00037999999999999997,-2.9999999999999997e-05,6
28850,29722,1e-05,1e-05,5.9999999999999995e-05,0.00025,-0.00066,9e-05,-0.00037999999999999997,-2.9999999999999997e-05,6
28851,29723,1e-05,1e-05,5.9999999999999995e-05,0.00025,-0.00066,9e-05,-0.00037999999999999997,-2.9999999999999997e-05,6
28852,29724,2.9999999999999997e-05,5e-05,0.00014,0.0001,-0.00045999999999999996,0.00014,7e-05,0.0,6
28853,29725,2.9999999999999997e-05,5e-05,0.00014,0.0001,-0.00045999999999999996,0.00014,7e-05,0.0,6
28854,29726,2.9999999999999997e-05,5e-05,0.00014,0.0001,-0.00045999999999999996,0.00014,7e-05,0.0,6
28855,29727,2.9999999999999997e-05,5e-05,0.00014,0.0001,-0.00045999999999999996,0.00014,7e-05,0.0,6
28856,29728,2.9999999999999997e-05,5e-05,0.00014,0.0001,-0.00045999999999999996,0.00014,7e-05,0.0,6
28857,29729,2.9999999999999997e-05,5e-05,0.00014,0.0001,-0.00045999999999999996,0.00014,7e-05,0.0,6
28858,29730,2.9999999999999997e-05,5e-05,0.00014,0.0001,-0.00045999999999999996,0.00014,7e-05,0.0,6
28859,29731,-5.9999999999999995e-05,-1e-05,2e-05,0.00016999999999999999,0.00018999999999999998,-0.0002,-0.00015,-2.9999999999999997e-05,6
28860,29732,0.0,1e-05,0.0,2e-05,0.00033,0.00018999999999999998,-0.00013000000000000002,-5e-05,6
28861,29733,0.0,-1e-05,-2.9999999999999997e-05,0.00018999999999999998,-0.00041,-0.00013000000000000002,2.9999999999999997e-05,-9e-05,6
28862,29734,0.0,-1e-05,-2.9999999999999997e-05,0.00018999999999999998,-0.00041,-0.00013000000000000002,2.9999999999999997e-05,-9e-05,6
28863,29735,0.0,-1e-05,-2.9999999999999997e-05,0.00018999999999999998,-0.00041,-0.00013000000000000002,2.9999999999999997e-05,-9e-05,6
28864,29736,0.0,-1e-05,-2.9999999999999997e-05,0.00018999999999999998,-0.00041,-0.00013000000000000002,2.9999999999999997e-05,-9e-05,6
28865,29738,0.0,-1e-05,-2.9999999999999997e-05,0.00018999999999999998,-0.00041,-0.00013000000000000002,2.9999999999999997e-05,-9e-05,6
28866,29739,0.0,-1e-05,-2.9999999999999997e-05,0.00018999999999999998,-0.00041,-0.00013000000000000002,2.9999999999999997e-05,-9e-05,6
28867,29740,0.0,-1e-05,-2.9999999999999997e-05,0.00018999999999999998,-0.00041,-0.00013000000000000002,2.9999999999999997e-05,-9e-05,6
28868,29741,0.0,-1e-05,-2.9999999999999997e-05,0.00018999999999999998,-0.00041,-0.00013000000000000002,2.9999999999999997e-05,-9e-05,6
28869,29742,0.0,-1e-05,-2.9999999999999997e-05,0.00018999999999999998,-0.00041,-0.00013000000000000002,2.9999999999999997e-05,-9e-05,6
28870,29743,0.0,-1e-05,-2.9999999999999997e-05,0.00018999999999999998,-0.00041,-0.00013000000000000002,2.9999999999999997e-05,-9e-05,6
28871,29744,0.0,-1e-05,-2.9999999999999997e-05,0.00018999999999999998,-0.00041,-0.00013000000000000002,2.9999999999999997e-05,-9e-05,6
28872,29745,0.0,-1e-05,-2.9999999999999997e-05,0.00018999999999999998,-0.00041,-0.00013000000000000002,2.9999999999999997e-05,-9e-05,6
28873,29746,0.0,-1e-05,-2.9999999999999997e-05,0.00018999999999999998,-0.00041,-0.00013000000000000002,2.9999999999999997e-05,-9e-05,6
28874,29747,0.0,-1e-05,-2.9999999999999997e-05,0.00018999999999999998,-0.00041,-0.00013000000000000002,2.9999999999999997e-05,-9e-05,6
28875,29748,0.0,-1e-05,-2.9999999999999997e-05,0.00018999999999999998,-0.00041,-0.00013000000000000002,2.9999999999999997e-05,-9e-05,6
28876,29749,0.0,-1e-05,-2.9999999999999997e-05,0.00018999999999999998,-0.00041,-0.00013000000000000002,2.9999999999999997e-05,-9e-05,6
28877,29750,0.0,-1e-05,-2.9999999999999997e-05,0.00018999999999999998,-0.00041,-0.00013000000000000002,2.9999999999999997e-05,-9e-05,6
28878,29751,0.0,-1e-05,-2.9999999999999997e-05,0.00018999999999999998,-0.00041,-0.00013000000000000002,2.9999999999999997e-05,-9e-05,6
28879,29752,0.0,-1e-05,-2.9999999999999997e-05,0.00018999999999999998,-0.00041,-0.00013000000000000002,2.9999999999999997e-05,-9e-05,6
28880,29753,0.0,-1e-05,-2.9999999999999997e-05,0.00018999999999999998,-0.00041,-0.00013000000000000002,2.9999999999999997e-05,-9e-05,6
28881,29754,-2.9999999999999997e-05,-2e-05,-9e-05,-0.00066,-0.0005,-5e-05,-4e-05,-0.00022,6
28882,29755,-2e-05,-5e-05,-5.9999999999999995e-05,-0.00055,-0.00073,8e-05,-2.9999999999999997e-05,2.9999999999999997e-05,6
28883,29756,2e-05,2.9999999999999997e-05,1e-05,-8e-05,0.0011,0.00028,-0.00011999999999999999,8e-05,6
28884,29757,2e-05,2.9999999999999997e-05,1e-05,-8e-05,0.0011,0.00028,-0.00011999999999999999,8e-05,6
28885,29758,2e-05,2.9999999999999997e-05,1e-05,-8e-05,0.0011,0.00028,-0.00011999999999999999,8e-05,6
28886,29759,2e-05,2.9999999999999997e-05,1e-05,-8e-05,0.0011,0.00028,-0.00011999999999999999,8e-05,6
28887,29760,2e-05,-2e-05,-1e-05,0.00018,-0.00028,8e-05,0.00047999999999999996,0.00014,6
28888,29761,2e-05,-2e-05,-1e-05,0.00018,-0.00028,8e-05,0.00047999999999999996,0.00014,6
28889,29762,2e-05,-2e-05,-1e-05,0.00018,-0.00028,8e-05,0.00047999999999999996,0.00014,6
28890,29763,2e-05,-2e-05,-1e-05,0.00018,-0.00028,8e-05,0.00047999999999999996,0.00014,6
28891,29764,2e-05,-2e-05,-1e-05,0.00018,-0.00028,8e-05,0.00047999999999999996,0.00014,6
28892,29765,2e-05,-2e-05,-1e-05,0.00018,-0.00028,8e-05,0.00047999999999999996,0.00014,6
28893,29766,2e-05,-2e-05,-1e-05,0.00018,-0.00028,8e-05,0.00047999999999999996,0.00014,6
28894,29767,2e-05,-2e-05,-1e-05,0.00018,-0.00028,8e-05,0.00047999999999999996,0.00014,6
28895,29768,2e-05,-2e-05,-1e-05,0.00018,-0.00028,8e-05,0.00047999999999999996,0.00014,6
28896,29769,2e-05,-2e-05,-1e-05,0.00018,-0.00028,8e-05,0.00047999999999999996,0.00014,6
28897,29770,2e-05,-2e-05,-1e-05,0.00018,-0.00028,8e-05,0.00047999999999999996,0.00014,6
28898,29771,2e-05,-2e-05,-1e-05,0.00018,-0.00028,8e-05,0.00047999999999999996,0.00014,6
28899,29772,2e-05,-2e-05,-1e-05,0.00018,-0.00028,8e-05,0.00047999999999999996,0.00014,6
28900,29773,2e-05,-2e-05,-1e-05,0.00018,-0.00028,8e-05,0.00047999999999999996,0.00014,6
28901,29774,2e-05,-2e-05,-1e-05,0.00018,-0.00028,8e-05,0.00047999999999999996,0.00014,6
28902,29775,2e-05,-2e-05,-1e-05,0.00018,-0.00028,8e-05,0.00047999999999999996,0.00014,6
28903,29776,-2e-05,-1e-05,2e-05,0.00086,-0.00011999999999999999,8e-05,0.00015,-5e-05,6
28904,29777,-2e-05,-1e-05,2e-05,0.00086,-0.00011999999999999999,8e-05,0.00015,-5e-05,6
28905,29778,-2e-05,-1e-05,2e-05,0.00086,-0.00011999999999999999,8e-05,0.00015,-5e-05,6
28906,29779,-2e-05,-1e-05,2e-05,0.00086,-0.00011999999999999999,8e-05,0.00015,-5e-05,6
28907,29780,-2e-05,-1e-05,2e-05,0.00086,-0.00011999999999999999,8e-05,0.00015,-5e-05,6
28908,29781,-2e-05,-1e-05,2e-05,0.00086,-0.00011999999999999999,8e-05,0.00015,-5e-05,6
28909,29782,-2e-05,-1e-05,2e-05,0.00086,-0.00011999999999999999,8e-05,0.00015,-5e-05,6
28910,29783,0.0,-1e-05,-2e-05,0.00018999999999999998,0.00053,1e-05,-2e-05,-2.9999999999999997e-05,6
28911,29784,0.0,-1e-05,-2e-05,0.00018999999999999998,0.00053,1e-05,-2e-05,-2.9999999999999997e-05,6
28912,29785,-2.9999999999999997e-05,-2e-05,4e-05,-0.00037999999999999997,-0.00082,0.00015,0.00022,-8e-05,6
28913,29786,-2.9999999999999997e-05,-2e-05,4e-05,-0.00037999999999999997,-0.00082,0.00015,0.00022,-8e-05,6
28914,29788,-2.9999999999999997e-05,-2e-05,4e-05,-0.00037999999999999997,-0.00082,0.00015,0.00022,-8e-05,6
28915,29789,-2.9999999999999997e-05,-2e-05,4e-05,-0.00037999999999999997,-0.00082,0.00015,0.00022,-8e-05,6
28916,29790,-2.9999999999999997e-05,-2e-05,4e-05,-0.00037999999999999997,-0.00082,0.00015,0.00022,-8e-05,6
28917,29791,-2.9999999999999997e-05,-2e-05,4e-05,-0.00037999999999999997,-0.00082,0.00015,0.00022,-8e-05,6
28918,29792,-2.9999999999999997e-05,-2e-05,4e-05,-0.00037999999999999997,-0.00082,0.00015,0.00022,-8e-05,6
28919,29793,-2.9999999999999997e-05,-2e-05,4e-05,-0.00037999999999999997,-0.00082,0.00015,0.00022,-8e-05,6
28920,29794,-2.9999999999999997e-05,-2e-05,4e-05,-0.00037999999999999997,-0.00082,0.00015,0.00022,-8e-05,6
28921,29795,-2.9999999999999997e-05,-2e-05,4e-05,-0.00037999999999999997,-0.00082,0.00015,0.00022,-8e-05,6
28922,29796,-2.9999999999999997e-05,-2e-05,4e-05,-0.00037999999999999997,-0.00082,0.00015,0.00022,-8e-05,6
28923,29797,-2.9999999999999997e-05,-2e-05,4e-05,-0.00037999999999999997,-0.00082,0.00015,0.00022,-8e-05,6
28924,29798,-2.9999999999999997e-05,-2e-05,4e-05,-0.00037999999999999997,-0.00082,0.00015,0.00022,-8e-05,6
28925,29799,-2.9999999999999997e-05,-2e-05,4e-05,-0.00037999999999999997,-0.00082,0.00015,0.00022,-8e-05,6
28926,29800,-2.9999999999999997e-05,-2e-05,4e-05,-0.00037999999999999997,-0.00082,0.00015,0.00022,-8e-05,6
28927,29801,-2.9999999999999997e-05,-2e-05,4e-05,-0.00037999999999999997,-0.00082,0.00015,0.00022,-8e-05,6
28928,29802,-2.9999999999999997e-05,-2e-05,4e-05,-0.00037999999999999997,-0.00082,0.00015,0.00022,-8e-05,6
28929,29803,-2.9999999999999997e-05,-2e-05,4e-05,-0.00037999999999999997,-0.00082,0.00015,0.00022,-8e-05,6
28930,29804,-2.9999999999999997e-05,-2e-05,4e-05,-0.00037999999999999997,-0.00082,0.00015,0.00022,-8e-05,6
28931,29805,-2.9999999999999997e-05,-2e-05,4e-05,-0.00037999999999999997,-0.00082,0.00015,0.00022,-8e-05,6
28932,29806,4e-05,5e-05,-5e-05,-1e-05,0.00103,-5.9999999999999995e-05,0.0002,5e-05,6
28933,29807,-5e-05,-4e-05,-2e-05,0.00032,0.00126,0.00044,9e-05,4e-05,6
28934,29808,-4e-05,-7e-05,-8e-05,0.00014,-2e-05,-8e-05,-8e-05,-2.9999999999999997e-05,6
28935,29809,-4e-05,-7e-05,-8e-05,0.00014,-2e-05,-8e-05,-8e-05,-2.9999999999999997e-05,6
28936,29810,-4e-05,-7e-05,-8e-05,0.00014,-2e-05,-8e-05,-8e-05,-2.9999999999999997e-05,6
28937,29811,-4e-05,-7e-05,-8e-05,0.00014,-2e-05,-8e-05,-8e-05,-2.9999999999999997e-05,6
28938,29812,-4e-05,-7e-05,-8e-05,0.00014,-2e-05,-8e-05,-8e-05,-2.9999999999999997e-05,6
28939,29813,-4e-05,-7e-05,-8e-05,0.00014,-2e-05,-8e-05,-8e-05,-2.9999999999999997e-05,6
28940,29814,-4e-05,-7e-05,-8e-05,0.00014,-2e-05,-8e-05,-8e-05,-2.9999999999999997e-05,6
28941,29815,-4e-05,-7e-05,-8e-05,0.00014,-2e-05,-8e-05,-8e-05,-2.9999999999999997e-05,6
28942,29816,-4e-05,-7e-05,-8e-05,0.00014,-2e-05,-8e-05,-8e-05,-2.9999999999999997e-05,6
28943,29817,-4e-05,-7e-05,-8e-05,0.00014,-2e-05,-8e-05,-8e-05,-2.9999999999999997e-05,6
28944,29818,-4e-05,-7e-05,-8e-05,0.00014,-2e-05,-8e-05,-8e-05,-2.9999999999999997e-05,6
28945,29819,-4e-05,-7e-05,-8e-05,0.00014,-2e-05,-8e-05,-8e-05,-2.9999999999999997e-05,6
28946,29820,-4e-05,-7e-05,-8e-05,0.00014,-2e-05,-8e-05,-8e-05,-2.9999999999999997e-05,6
28947,29821,-4e-05,-7e-05,-8e-05,0.00014,-2e-05,-8e-05,-8e-05,-2.9999999999999997e-05,6
28948,29822,-4e-05,-7e-05,-8e-05,0.00014,-2e-05,-8e-05,-8e-05,-2.9999999999999997e-05,6
28949,29823,-4e-05,-7e-05,-8e-05,0.00014,-2e-05,-8e-05,-8e-05,-2.9999999999999997e-05,6
28950,29824,-4e-05,-7e-05,-8e-05,0.00014,-2e-05,-8e-05,-8e-05,-2.9999999999999997e-05,6
28951,29825,-4e-05,-7e-05,-8e-05,0.00014,-2e-05,-8e-05,-8e-05,-2.9999999999999997e-05,6
28952,29826,-4e-05,-7e-05,-8e-05,0.00014,-2e-05,-8e-05,-8e-05,-2.9999999999999997e-05,6
28953,29827,-4e-05,-7e-05,-8e-05,0.00014,-2e-05,-8e-05,-8e-05,-2.9999999999999997e-05,6
28954,29828,-4e-05,-7e-05,-8e-05,0.00014,-2e-05,-8e-05,-8e-05,-2.9999999999999997e-05,6
28955,29829,-4e-05,-7e-05,-8e-05,0.00014,-2e-05,-8e-05,-8e-05,-2.9999999999999997e-05,6
28956,29830,-4e-05,-7e-05,-8e-05,0.00014,-2e-05,-8e-05,-8e-05,-2.9999999999999997e-05,6
28957,29831,-4e-05,-7e-05,-8e-05,0.00014,-2e-05,-8e-05,-8e-05,-2.9999999999999997e-05,6
28958,29832,-4e-05,-7e-05,-8e-05,0.00014,-2e-05,-8e-05,-8e-05,-2.9999999999999997e-05,6
28959,29833,-4e-05,-7e-05,-8e-05,0.00014,-2e-05,-8e-05,-8e-05,-2.9999999999999997e-05,6
28960,29834,-4e-05,-7e-05,-8e-05,0.00014,-2e-05,-8e-05,-8e-05,-2.9999999999999997e-05,6
28961,29835,-4e-05,-7e-05,-8e-05,0.00014,-2e-05,-8e-05,-8e-05,-2.9999999999999997e-05,6
28962,29836,2e-05,2e-05,-1e-05,-8e-05,0.00031,1e-05,5e-05,1e-05,6
28963,29838,-2e-05,-2.9999999999999997e-05,2.9999999999999997e-05,8e-05,0.0007,1e-05,8e-05,1e-05,6
28964,29839,-2e-05,-2.9999999999999997e-05,2.9999999999999997e-05,8e-05,0.0007,1e-05,8e-05,1e-05,6
28965,29840,-2e-05,-2.9999999999999997e-05,2.9999999999999997e-05,8e-05,0.0007,1e-05,8e-05,1e-05,6
28966,29841,-2e-05,-2.9999999999999997e-05,2.9999999999999997e-05,8e-05,0.0007,1e-05,8e-05,1e-05,6
28967,29842,-2e-05,-2.9999999999999997e-05,2.9999999999999997e-05,8e-05,0.0007,1e-05,8e-05,1e-05,6
28968,29843,-2e-05,-2.9999999999999997e-05,2.9999999999999997e-05,8e-05,0.0007,1e-05,8e-05,1e-05,6
28969,29844,1e-05,0.0,-0.0001,-0.00014,-0.00028,-0.0002,-2.9999999999999997e-05,2.9999999999999997e-05,6
28970,29845,0.0,-2e-05,-2e-05,-2.9999999999999997e-05,-0.0007099999999999999,-0.00011,-0.00021,-1e-05,6
28971,29846,0.0,-2e-05,-2e-05,-2.9999999999999997e-05,-0.0007099999999999999,-0.00011,-0.00021,-1e-05,6
28972,29847,0.0,-2e-05,-2e-05,-2.9999999999999997e-05,-0.0007099999999999999,-0.00011,-0.00021,-1e-05,6
28973,29848,0.0,-2e-05,-2e-05,-2.9999999999999997e-05,-0.0007099999999999999,-0.00011,-0.00021,-1e-05,6
28974,29849,0.0,-2e-05,-2e-05,-2.9999999999999997e-05,-0.0007099999999999999,-0.00011,-0.00021,-1e-05,6
28975,29850,0.0,-2e-05,-2e-05,-2.9999999999999997e-05,-0.0007099999999999999,-0.00011,-0.00021,-1e-05,6
28976,29851,0.0,-2e-05,-2e-05,-2.9999999999999997e-05,-0.0007099999999999999,-0.00011,-0.00021,-1e-05,6
28977,29852,0.0,-2e-05,-2e-05,-2.9999999999999997e-05,-0.0007099999999999999,-0.00011,-0.00021,-1e-05,6
28978,29853,0.0,-2e-05,-2e-05,-2.9999999999999997e-05,-0.0007099999999999999,-0.00011,-0.00021,-1e-05,6
28979,29854,0.0,-2e-05,-2e-05,-2.9999999999999997e-05,-0.0007099999999999999,-0.00011,-0.00021,-1e-05,6
28980,29855,0.0,-2e-05,-2e-05,-2.9999999999999997e-05,-0.0007099999999999999,-0.00011,-0.00021,-1e-05,6
28981,29856,0.0,-2e-05,-2e-05,-2.9999999999999997e-05,-0.0007099999999999999,-0.00011,-0.00021,-1e-05,6
28982,29857,0.0,-2e-05,-2e-05,-2.9999999999999997e-05,-0.0007099999999999999,-0.00011,-0.00021,-1e-05,6
28983,29858,0.0,-2e-05,-2e-05,-2.9999999999999997e-05,-0.0007099999999999999,-0.00011,-0.00021,-1e-05,6
28984,29859,0.0,-2e-05,-2e-05,-2.9999999999999997e-05,-0.0007099999999999999,-0.00011,-0.00021,-1e-05,6
28985,29860,0.0,-2e-05,-2e-05,-2.9999999999999997e-05,-0.0007099999999999999,-0.00011,-0.00021,-1e-05,6
28986,29861,0.0,-2e-05,-2e-05,-2.9999999999999997e-05,-0.0007099999999999999,-0.00011,-0.00021,-1e-05,6
28987,29862,0.0,-2e-05,-2e-05,-2.9999999999999997e-05,-0.0007099999999999999,-0.00011,-0.00021,-1e-05,6
28988,29863,0.0,-2e-05,-2e-05,-2.9999999999999997e-05,-0.0007099999999999999,-0.00011,-0.00021,-1e-05,6
28989,29864,0.0,-2e-05,-2e-05,-2.9999999999999997e-05,-0.0007099999999999999,-0.00011,-0.00021,-1e-05,6
28990,29865,0.0,-2e-05,-2e-05,-2.9999999999999997e-05,-0.0007099999999999999,-0.00011,-0.00021,-1e-05,6
28991,29866,-2.9999999999999997e-05,-2e-05,-4e-05,0.00039,0.00037999999999999997,-1e-05,0.00047999999999999996,0.00037,6
28992,29867,-2.9999999999999997e-05,-2e-05,-4e-05,0.00039,0.00037999999999999997,-1e-05,0.00047999999999999996,0.00037,6
28993,29868,1e-05,-1e-05,-1e-05,-0.00015,0.0,-9e-05,-2.9999999999999997e-05,1e-05,6
28994,29869,1e-05,-1e-05,-1e-05,-0.00015,0.0,-9e-05,-2.9999999999999997e-05,1e-05,6
28995,29870,1e-05,-1e-05,-1e-05,-0.00015,0.0,-9e-05,-2.9999999999999997e-05,1e-05,6
28996,29871,1e-05,-1e-05,-1e-05,-0.00015,0.0,-9e-05,-2.9999999999999997e-05,1e-05,6
28997,29872,1e-05,-1e-05,-1e-05,-0.00015,0.0,-9e-05,-2.9999999999999997e-05,1e-05,6
28998,29873,1e-05,-1e-05,-1e-05,-0.00015,0.0,-9e-05,-2.9999999999999997e-05,1e-05,6
28999,29874,1e-05,-1e-05,-1e-05,-0.00015,0.0,-9e-05,-2.9999999999999997e-05,1e-05,6
29000,29875,1e-05,-1e-05,-1e-05,-0.00015,0.0,-9e-05,-2.9999999999999997e-05,1e-05,6
29001,29876,1e-05,-1e-05,-1e-05,-0.00015,0.0,-9e-05,-2.9999999999999997e-05,1e-05,6
29002,29877,1e-05,-1e-05,-1e-05,-0.00015,0.0,-9e-05,-2.9999999999999997e-05,1e-05,6
29003,29878,1e-05,-1e-05,-1e-05,-0.00015,0.0,-9e-05,-2.9999999999999997e-05,1e-05,6
29004,29879,1e-05,-1e-05,-1e-05,-0.00015,0.0,-9e-05,-2.9999999999999997e-05,1e-05,6
29005,29880,1e-05,-1e-05,-1e-05,-0.00015,0.0,-9e-05,-2.9999999999999997e-05,1e-05,6
29006,29881,1e-05,-1e-05,-1e-05,-0.00015,0.0,-9e-05,-2.9999999999999997e-05,1e-05,6
29007,29882,1e-05,-1e-05,-1e-05,-0.00015,0.0,-9e-05,-2.9999999999999997e-05,1e-05,6
29008,29883,1e-05,-1e-05,-1e-05,-0.00015,0.0,-9e-05,-2.9999999999999997e-05,1e-05,6
29009,29884,1e-05,-1e-05,-1e-05,-0.00015,0.0,-9e-05,-2.9999999999999997e-05,1e-05,6
29010,29885,1e-05,-1e-05,-1e-05,-0.00015,0.0,-9e-05,-2.9999999999999997e-05,1e-05,6
29011,29886,1e-05,-1e-05,-1e-05,-0.00015,0.0,-9e-05,-2.9999999999999997e-05,1e-05,6
29012,29888,-2e-05,-1e-05,4e-05,0.00013000000000000002,-0.00065,2e-05,-0.00025,5.9999999999999995e-05,6
29013,29889,-2e-05,-1e-05,4e-05,0.00013000000000000002,-0.00065,2e-05,-0.00025,5.9999999999999995e-05,6
29014,29890,1e-05,-1e-05,-1e-05,-0.00011999999999999999,8e-05,-2.9999999999999997e-05,4e-05,-2e-05,6
29015,29891,1e-05,-1e-05,-1e-05,-0.00011999999999999999,8e-05,-2.9999999999999997e-05,4e-05,-2e-05,6
29016,29892,1e-05,-1e-05,-1e-05,-0.00011999999999999999,8e-05,-2.9999999999999997e-05,4e-05,-2e-05,6
29017,29893,1e-05,-1e-05,-1e-05,-0.00011999999999999999,8e-05,-2.9999999999999997e-05,4e-05,-2e-05,6
29018,29894,1e-05,-1e-05,-1e-05,-0.00011999999999999999,8e-05,-2.9999999999999997e-05,4e-05,-2e-05,6
29019,29895,1e-05,-1e-05,-1e-05,-0.00011999999999999999,8e-05,-2.9999999999999997e-05,4e-05,-2e-05,6
29020,29896,1e-05,-1e-05,-1e-05,-0.00011999999999999999,8e-05,-2.9999999999999997e-05,4e-05,-2e-05,6
29021,29897,1e-05,-1e-05,-1e-05,-0.00011999999999999999,8e-05,-2.9999999999999997e-05,4e-05,-2e-05,6
29022,29898,1e-05,-1e-05,-1e-05,-0.00011999999999999999,8e-05,-2.9999999999999997e-05,4e-05,-2e-05,6
29023,29899,1e-05,-1e-05,-1e-05,-0.00011999999999999999,8e-05,-2.9999999999999997e-05,4e-05,-2e-05,6
29024,29900,1e-05,-1e-05,-1e-05,-0.00011999999999999999,8e-05,-2.9999999999999997e-05,4e-05,-2e-05,6
29025,29901,1e-05,-1e-05,-1e-05,-0.00011999999999999999,8e-05,-2.9999999999999997e-05,4e-05,-2e-05,6
29026,29902,1e-05,-1e-05,-1e-05,-0.00011999999999999999,8e-05,-2.9999999999999997e-05,4e-05,-2e-05,6
29027,29903,1e-05,-1e-05,-1e-05,-0.00011999999999999999,8e-05,-2.9999999999999997e-05,4e-05,-2e-05,6
29028,29904,1e-05,-1e-05,-1e-05,-0.00011999999999999999,8e-05,-2.9999999999999997e-05,4e-05,-2e-05,6
29029,29905,1e-05,-1e-05,-1e-05,-0.00011999999999999999,8e-05,-2.9999999999999997e-05,4e-05,-2e-05,6
29030,29906,1e-05,-1e-05,-1e-05,-0.00011999999999999999,8e-05,-2.9999999999999997e-05,4e-05,-2e-05,6
29031,29907,1e-05,-1e-05,-1e-05,-0.00011999999999999999,8e-05,-2.9999999999999997e-05,4e-05,-2e-05,6
29032,29908,1e-05,-1e-05,-1e-05,-0.00011999999999999999,8e-05,-2.9999999999999997e-05,4e-05,-2e-05,6
29033,29909,1e-05,-1e-05,-1e-05,-0.00011999999999999999,8e-05,-2.9999999999999997e-05,4e-05,-2e-05,6
29034,29910,1e-05,-1e-05,-1e-05,-0.00011999999999999999,8e-05,-2.9999999999999997e-05,4e-05,-2e-05,6
29035,29911,1e-05,-1e-05,-1e-05,-0.00011999999999999999,8e-05,-2.9999999999999997e-05,4e-05,-2e-05,6
29036,29912,1e-05,-1e-05,-1e-05,-0.00011999999999999999,8e-05,-2.9999999999999997e-05,4e-05,-2e-05,6
29037,29913,1e-05,-1e-05,-1e-05,-0.00011999999999999999,8e-05,-2.9999999999999997e-05,4e-05,-2e-05,6
29038,29914,1e-05,-1e-05,-1e-05,-0.00011999999999999999,8e-05,-2.9999999999999997e-05,4e-05,-2e-05,6
29039,29915,1e-05,-1e-05,-1e-05,-0.00011999999999999999,8e-05,-2.9999999999999997e-05,4e-05,-2e-05,6
29040,29916,1e-05,-1e-05,-1e-05,-0.00011999999999999999,8e-05,-2.9999999999999997e-05,4e-05,-2e-05,6
29041,29917,1e-05,-1e-05,-1e-05,-0.00011999999999999999,8e-05,-2.9999999999999997e-05,4e-05,-2e-05,6
29042,29918,-4e-05,-4e-05,4e-05,0.00027,0.00042,0.00028,0.00014,-1e-05,6
29043,29919,0.0,1e-05,-4e-05,-1e-05,-0.00033999999999999997,-0.00037,-9e-05,-5e-05,6
29044,29920,-4e-05,-4e-05,-9e-05,-0.00021,-2.9999999999999997e-05,0.00016,0.00022,-0.0001,6
29045,29921,-4e-05,-4e-05,-9e-05,-0.00021,-2.9999999999999997e-05,0.00016,0.00022,-0.0001,6
29046,29922,-4e-05,-4e-05,-9e-05,-0.00021,-2.9999999999999997e-05,0.00016,0.00022,-0.0001,6
29047,29923,-4e-05,-4e-05,-9e-05,-0.00021,-2.9999999999999997e-05,0.00016,0.00022,-0.0001,6
29048,29924,-4e-05,-4e-05,-9e-05,-0.00021,-2.9999999999999997e-05,0.00016,0.00022,-0.0001,6
29049,29925,-4e-05,-4e-05,-9e-05,-0.00021,-2.9999999999999997e-05,0.00016,0.00022,-0.0001,6
29050,29926,0.0,-2e-05,1e-05,-5.9999999999999995e-05,0.00014,-9e-05,-0.00027,-0.00015,6
29051,29927,0.0,-2e-05,1e-05,-5.9999999999999995e-05,0.00014,-9e-05,-0.00027,-0.00015,6
29052,29928,1e-05,4e-05,5.9999999999999995e-05,0.00025,0.00063,0.00013000000000000002,-0.00011999999999999999,7e-05,6
29053,29929,1e-05,4e-05,5.9999999999999995e-05,0.00025,0.00063,0.00013000000000000002,-0.00011999999999999999,7e-05,6
29054,29930,1e-05,4e-05,5.9999999999999995e-05,0.00025,0.00063,0.00013000000000000002,-0.00011999999999999999,7e-05,6
29055,29931,1e-05,4e-05,5.9999999999999995e-05,0.00025,0.00063,0.00013000000000000002,-0.00011999999999999999,7e-05,6
29056,29932,1e-05,4e-05,5.9999999999999995e-05,0.00025,0.00063,0.00013000000000000002,-0.00011999999999999999,7e-05,6
29057,29933,1e-05,4e-05,5.9999999999999995e-05,0.00025,0.00063,0.00013000000000000002,-0.00011999999999999999,7e-05,6
29058,29934,1e-05,4e-05,5.9999999999999995e-05,0.00025,0.00063,0.00013000000000000002,-0.00011999999999999999,7e-05,6
29059,29935,1e-05,4e-05,5.9999999999999995e-05,0.00025,0.00063,0.00013000000000000002,-0.00011999999999999999,7e-05,6
29060,29936,1e-05,4e-05,5.9999999999999995e-05,0.00025,0.00063,0.00013000000000000002,-0.00011999999999999999,7e-05,6
29061,29938,1e-05,4e-05,5.9999999999999995e-05,0.00025,0.00063,0.00013000000000000002,-0.00011999999999999999,7e-05,6
29062,29939,1e-05,4e-05,5.9999999999999995e-05,0.00025,0.00063,0.00013000000000000002,-0.00011999999999999999,7e-05,6
29063,29940,1e-05,4e-05,5.9999999999999995e-05,0.00025,0.00063,0.00013000000000000002,-0.00011999999999999999,7e-05,6
29064,29941,1e-05,4e-05,5.9999999999999995e-05,0.00025,0.00063,0.00013000000000000002,-0.00011999999999999999,7e-05,6
29065,29942,1e-05,4e-05,5.9999999999999995e-05,0.00025,0.00063,0.00013000000000000002,-0.00011999999999999999,7e-05,6
29066,29943,1e-05,4e-05,5.9999999999999995e-05,0.00025,0.00063,0.00013000000000000002,-0.00011999999999999999,7e-05,6
29067,29944,1e-05,4e-05,5.9999999999999995e-05,0.00025,0.00063,0.00013000000000000002,-0.00011999999999999999,7e-05,6
29068,29945,1e-05,4e-05,5.9999999999999995e-05,0.00025,0.00063,0.00013000000000000002,-0.00011999999999999999,7e-05,6
29069,29946,1e-05,4e-05,5.9999999999999995e-05,0.00025,0.00063,0.00013000000000000002,-0.00011999999999999999,7e-05,6
29070,29947,1e-05,4e-05,5.9999999999999995e-05,0.00025,0.00063,0.00013000000000000002,-0.00011999999999999999,7e-05,6
29071,29948,1e-05,4e-05,5.9999999999999995e-05,0.00025,0.00063,0.00013000000000000002,-0.00011999999999999999,7e-05,6
29072,29949,-1e-05,-1e-05,-5.9999999999999995e-05,-0.0005,0.00013000000000000002,-4e-05,0.00016,-8e-05,6
29073,29950,1e-05,2e-05,2e-05,-4e-05,-0.0006900000000000001,8e-05,-0.00021,5e-05,6
29074,29951,0.0,0.0,0.0,9e-05,0.00073,-1e-05,-5e-05,0.0,6
29075,29952,0.0,0.0,0.0,9e-05,0.00073,-1e-05,-5e-05,0.0,6
29076,29953,0.0,0.0,0.0,9e-05,0.00073,-1e-05,-5e-05,0.0,6
29077,29954,0.0,0.0,0.0,9e-05,0.00073,-1e-05,-5e-05,0.0,6
29078,29955,0.0,0.0,0.0,9e-05,0.00073,-1e-05,-5e-05,0.0,6
29079,29956,0.0,0.0,0.0,9e-05,0.00073,-1e-05,-5e-05,0.0,6
29080,29957,0.0,0.0,0.0,9e-05,0.00073,-1e-05,-5e-05,0.0,6
29081,29958,0.0,0.0,0.0,9e-05,0.00073,-1e-05,-5e-05,0.0,6
29082,29959,0.0,0.0,0.0,9e-05,0.00073,-1e-05,-5e-05,0.0,6
29083,29960,0.0,0.0,0.0,9e-05,0.00073,-1e-05,-5e-05,0.0,6
29084,29961,0.0,0.0,0.0,9e-05,0.00073,-1e-05,-5e-05,0.0,6
29085,29962,0.0,0.0,0.0,9e-05,0.00073,-1e-05,-5e-05,0.0,6
29086,29963,0.0,0.0,0.0,9e-05,0.00073,-1e-05,-5e-05,0.0,6
29087,29964,0.0,0.0,0.0,9e-05,0.00073,-1e-05,-5e-05,0.0,6
29088,29965,0.0,0.0,0.0,9e-05,0.00073,-1e-05,-5e-05,0.0,6
29089,29966,0.0,0.0,0.0,9e-05,0.00073,-1e-05,-5e-05,0.0,6
29090,29967,0.0,0.0,0.0,9e-05,0.00073,-1e-05,-5e-05,0.0,6
29091,29968,0.0,0.0,0.0,9e-05,0.00073,-1e-05,-5e-05,0.0,6
29092,29969,0.0,0.0,0.0,9e-05,0.00073,-1e-05,-5e-05,0.0,6
29093,29970,0.0,0.0,0.0,9e-05,0.00073,-1e-05,-5e-05,0.0,6
29094,29971,4e-05,4e-05,0.00011999999999999999,-0.00033,0.00078,0.00015,-0.00013000000000000002,5e-05,6
29095,29972,4e-05,4e-05,0.00011999999999999999,-0.00033,0.00078,0.00015,-0.00013000000000000002,5e-05,6
29096,29973,-1e-05,-1e-05,2.9999999999999997e-05,-0.00013000000000000002,-2.9999999999999997e-05,-2.9999999999999997e-05,-1e-05,-2e-05,6
29097,29974,-1e-05,-1e-05,2.9999999999999997e-05,-0.00013000000000000002,-2.9999999999999997e-05,-2.9999999999999997e-05,-1e-05,-2e-05,6
29098,29975,-1e-05,-1e-05,2.9999999999999997e-05,-0.00013000000000000002,-2.9999999999999997e-05,-2.9999999999999997e-05,-1e-05,-2e-05,6
29099,29976,-1e-05,-1e-05,2.9999999999999997e-05,-0.00013000000000000002,-2.9999999999999997e-05,-2.9999999999999997e-05,-1e-05,-2e-05,6
29100,29977,-1e-05,-1e-05,2.9999999999999997e-05,-0.00013000000000000002,-2.9999999999999997e-05,-2.9999999999999997e-05,-1e-05,-2e-05,6
29101,29978,-1e-05,-1e-05,2.9999999999999997e-05,-0.00013000000000000002,-2.9999999999999997e-05,-2.9999999999999997e-05,-1e-05,-2e-05,6
29102,29979,-1e-05,-1e-05,2.9999999999999997e-05,-0.00013000000000000002,-2.9999999999999997e-05,-2.9999999999999997e-05,-1e-05,-2e-05,6
29103,29980,-1e-05,-1e-05,2.9999999999999997e-05,-0.00013000000000000002,-2.9999999999999997e-05,-2.9999999999999997e-05,-1e-05,-2e-05,6
29104,29981,-1e-05,-1e-05,2.9999999999999997e-05,-0.00013000000000000002,-2.9999999999999997e-05,-2.9999999999999997e-05,-1e-05,-2e-05,6
29105,29982,-1e-05,-1e-05,2.9999999999999997e-05,-0.00013000000000000002,-2.9999999999999997e-05,-2.9999999999999997e-05,-1e-05,-2e-05,6
29106,29983,-1e-05,-1e-05,2.9999999999999997e-05,-0.00013000000000000002,-2.9999999999999997e-05,-2.9999999999999997e-05,-1e-05,-2e-05,6
29107,29984,-1e-05,-1e-05,2.9999999999999997e-05,-0.00013000000000000002,-2.9999999999999997e-05,-2.9999999999999997e-05,-1e-05,-2e-05,6
29108,29985,-1e-05,-1e-05,2.9999999999999997e-05,-0.00013000000000000002,-2.9999999999999997e-05,-2.9999999999999997e-05,-1e-05,-2e-05,6
29109,29986,-1e-05,-1e-05,2.9999999999999997e-05,-0.00013000000000000002,-2.9999999999999997e-05,-2.9999999999999997e-05,-1e-05,-2e-05,6
29110,29988,-1e-05,-1e-05,2.9999999999999997e-05,-0.00013000000000000002,-2.9999999999999997e-05,-2.9999999999999997e-05,-1e-05,-2e-05,6
29111,29989,-1e-05,-1e-05,2.9999999999999997e-05,-0.00013000000000000002,-2.9999999999999997e-05,-2.9999999999999997e-05,-1e-05,-2e-05,6
29112,29990,-1e-05,-1e-05,2.9999999999999997e-05,-0.00013000000000000002,-2.9999999999999997e-05,-2.9999999999999997e-05,-1e-05,-2e-05,6
29113,29991,-1e-05,-1e-05,2.9999999999999997e-05,-0.00013000000000000002,-2.9999999999999997e-05,-2.9999999999999997e-05,-1e-05,-2e-05,6
29114,29992,-1e-05,-1e-05,2.9999999999999997e-05,-0.00013000000000000002,-2.9999999999999997e-05,-2.9999999999999997e-05,-1e-05,-2e-05,6
29115,29993,-1e-05,-1e-05,2.9999999999999997e-05,-0.00013000000000000002,-2.9999999999999997e-05,-2.9999999999999997e-05,-1e-05,-2e-05,6
29116,29994,-1e-05,-1e-05,2.9999999999999997e-05,-0.00013000000000000002,-2.9999999999999997e-05,-2.9999999999999997e-05,-1e-05,-2e-05,6
29117,29995,-1e-05,-1e-05,2.9999999999999997e-05,-0.00013000000000000002,-2.9999999999999997e-05,-2.9999999999999997e-05,-1e-05,-2e-05,6
29118,29996,-1e-05,-1e-05,2.9999999999999997e-05,-0.00013000000000000002,-2.9999999999999997e-05,-2.9999999999999997e-05,-1e-05,-2e-05,6
29119,29997,-1e-05,-1e-05,2.9999999999999997e-05,-0.00013000000000000002,-2.9999999999999997e-05,-2.9999999999999997e-05,-1e-05,-2e-05,6
29120,29998,-1e-05,-1e-05,2.9999999999999997e-05,-0.00013000000000000002,-2.9999999999999997e-05,-2.9999999999999997e-05,-1e-05,-2e-05,6
29121,29999,-1e-05,-1e-05,2.9999999999999997e-05,-0.00013000000000000002,-2.9999999999999997e-05,-2.9999999999999997e-05,-1e-05,-2e-05,6
29122,30000,-1e-05,-1e-05,2.9999999999999997e-05,-0.00013000000000000002,-2.9999999999999997e-05,-2.9999999999999997e-05,-1e-05,-2e-05,6
29123,30001,-1e-05,-1e-05,2.9999999999999997e-05,-0.00013000000000000002,-2.9999999999999997e-05,-2.9999999999999997e-05,-1e-05,-2e-05,6
29124,30002,-2e-05,0.0,-7e-05,-8e-05,-0.00074,-0.00015,-0.0001,-4e-05,6
29125,30003,-1e-05,1e-05,5.9999999999999995e-05,0.00073,-0.00021,-0.00016,-7e-05,2e-05,6
29126,30004,-5.9999999999999995e-05,-8e-05,-5.9999999999999995e-05,-0.00032,-0.0006,0.00016999999999999999,8e-05,-2.9999999999999997e-05,6
29127,30005,-5.9999999999999995e-05,-8e-05,-5.9999999999999995e-05,-0.00032,-0.0006,0.00016999999999999999,8e-05,-2.9999999999999997e-05,6
29128,30006,-5.9999999999999995e-05,-8e-05,-5.9999999999999995e-05,-0.00032,-0.0006,0.00016999999999999999,8e-05,-2.9999999999999997e-05,6
29129,30007,-5.9999999999999995e-05,-8e-05,-5.9999999999999995e-05,-0.00032,-0.0006,0.00016999999999999999,8e-05,-2.9999999999999997e-05,6
29130,30008,1e-05,2.9999999999999997e-05,-2e-05,9e-05,-0.00035,-0.00016,-0.00011,-1e-05,6
29131,30009,-1e-05,-2e-05,0.0,-9e-05,-0.00074,-0.0001,0.00018,-2.9999999999999997e-05,6
29132,30010,-1e-05,-2e-05,0.0,-9e-05,-0.00074,-0.0001,0.00018,-2.9999999999999997e-05,6
29133,30011,-1e-05,-2e-05,0.0,-9e-05,-0.00074,-0.0001,0.00018,-2.9999999999999997e-05,6
29134,30012,-1e-05,-2e-05,0.0,-9e-05,-0.00074,-0.0001,0.00018,-2.9999999999999997e-05,6
29135,30013,-1e-05,-2e-05,0.0,-9e-05,-0.00074,-0.0001,0.00018,-2.9999999999999997e-05,6
29136,30014,-1e-05,-2e-05,0.0,-9e-05,-0.00074,-0.0001,0.00018,-2.9999999999999997e-05,6
29137,30015,-1e-05,-2e-05,0.0,-9e-05,-0.00074,-0.0001,0.00018,-2.9999999999999997e-05,6
29138,30016,-1e-05,-2e-05,0.0,-9e-05,-0.00074,-0.0001,0.00018,-2.9999999999999997e-05,6
29139,30017,-1e-05,-2e-05,0.0,-9e-05,-0.00074,-0.0001,0.00018,-2.9999999999999997e-05,6
29140,30018,-1e-05,-2e-05,0.0,-9e-05,-0.00074,-0.0001,0.00018,-2.9999999999999997e-05,6
29141,30019,-1e-05,-2e-05,0.0,-9e-05,-0.00074,-0.0001,0.00018,-2.9999999999999997e-05,6
29142,30020,-1e-05,-2e-05,0.0,-9e-05,-0.00074,-0.0001,0.00018,-2.9999999999999997e-05,6
29143,30021,-1e-05,-2e-05,0.0,-9e-05,-0.00074,-0.0001,0.00018,-2.9999999999999997e-05,6
29144,30022,-1e-05,-2e-05,0.0,-9e-05,-0.00074,-0.0001,0.00018,-2.9999999999999997e-05,6
29145,30023,-1e-05,-2e-05,0.0,-9e-05,-0.00074,-0.0001,0.00018,-2.9999999999999997e-05,6
29146,30024,-1e-05,-2e-05,0.0,-9e-05,-0.00074,-0.0001,0.00018,-2.9999999999999997e-05,6
29147,30025,-1e-05,-2e-05,0.0,-9e-05,-0.00074,-0.0001,0.00018,-2.9999999999999997e-05,6
29148,30026,-1e-05,-2e-05,0.0,-9e-05,-0.00074,-0.0001,0.00018,-2.9999999999999997e-05,6
29149,30027,-1e-05,-2e-05,0.0,-9e-05,-0.00074,-0.0001,0.00018,-2.9999999999999997e-05,6
29150,30028,-1e-05,-2e-05,0.0,-9e-05,-0.00074,-0.0001,0.00018,-2.9999999999999997e-05,6
29151,30029,-1e-05,-2e-05,0.0,-9e-05,-0.00074,-0.0001,0.00018,-2.9999999999999997e-05,6
29152,30030,-1e-05,-2e-05,0.0,-9e-05,-0.00074,-0.0001,0.00018,-2.9999999999999997e-05,6
29153,30031,5e-05,4e-05,7e-05,2.9999999999999997e-05,0.00049,-7e-05,5e-05,9e-05,6
29154,30032,5e-05,4e-05,7e-05,2.9999999999999997e-05,0.00049,-7e-05,5e-05,9e-05,6
29155,30033,-7e-05,-7e-05,-0.00013000000000000002,-0.00031,0.00018999999999999998,0.0001,-0.00025,-0.00018999999999999998,6
29156,30034,-7e-05,-7e-05,-0.00013000000000000002,-0.00031,0.00018999999999999998,0.0001,-0.00025,-0.00018999999999999998,6
29157,30035,-7e-05,-7e-05,-0.00013000000000000002,-0.00031,0.00018999999999999998,0.0001,-0.00025,-0.00018999999999999998,6
29158,30041,-7e-05,-7e-05,-0.00013000000000000002,-0.00031,0.00018999999999999998,0.0001,-0.00025,-0.00018999999999999998,6
29159,30042,-7e-05,-7e-05,-0.00013000000000000002,-0.00031,0.00018999999999999998,0.0001,-0.00025,-0.00018999999999999998,6
29160,30043,-7e-05,-7e-05,-0.00013000000000000002,-0.00031,0.00018999999999999998,0.0001,-0.00025,-0.00018999999999999998,6
29161,30044,-7e-05,-7e-05,-0.00013000000000000002,-0.00031,0.00018999999999999998,0.0001,-0.00025,-0.00018999999999999998,6
29162,30045,-7e-05,-7e-05,-0.00013000000000000002,-0.00031,0.00018999999999999998,0.0001,-0.00025,-0.00018999999999999998,6
29163,30046,-7e-05,-7e-05,-0.00013000000000000002,-0.00031,0.00018999999999999998,0.0001,-0.00025,-0.00018999999999999998,6
29164,30047,-7e-05,-7e-05,-0.00013000000000000002,-0.00031,0.00018999999999999998,0.0001,-0.00025,-0.00018999999999999998,6
29165,30048,-7e-05,-7e-05,-0.00013000000000000002,-0.00031,0.00018999999999999998,0.0001,-0.00025,-0.00018999999999999998,6
29166,30049,-7e-05,-7e-05,-0.00013000000000000002,-0.00031,0.00018999999999999998,0.0001,-0.00025,-0.00018999999999999998,6
29167,30050,-7e-05,-7e-05,-0.00013000000000000002,-0.00031,0.00018999999999999998,0.0001,-0.00025,-0.00018999999999999998,6
29168,30051,-7e-05,-7e-05,-0.00013000000000000002,-0.00031,0.00018999999999999998,0.0001,-0.00025,-0.00018999999999999998,6
29169,30052,-7e-05,-7e-05,-0.00013000000000000002,-0.00031,0.00018999999999999998,0.0001,-0.00025,-0.00018999999999999998,6
29170,30053,-4e-05,-4e-05,-5.9999999999999995e-05,-0.00018999999999999998,-0.00022,-0.00015,-0.00043,-8e-05,6
29171,30054,-5e-05,-7e-05,1e-05,9e-05,-0.00095,0.00045,0.00035,-2.9999999999999997e-05,6
29172,30055,2e-05,4e-05,-9e-05,7e-05,0.00057,-0.00023999999999999998,-5e-05,4e-05,6
29173,30056,2e-05,4e-05,-9e-05,7e-05,0.00057,-0.00023999999999999998,-5e-05,4e-05,6
29174,30057,2e-05,4e-05,-9e-05,7e-05,0.00057,-0.00023999999999999998,-5e-05,4e-05,6
29175,30058,2e-05,4e-05,-9e-05,7e-05,0.00057,-0.00023999999999999998,-5e-05,4e-05,6
29176,30059,2e-05,4e-05,-9e-05,7e-05,0.00057,-0.00023999999999999998,-5e-05,4e-05,6
29177,30060,-1e-05,1e-05,2e-05,0.0004,0.00013000000000000002,0.00018,-0.00032,-0.00011999999999999999,6
29178,30061,-1e-05,1e-05,2e-05,0.0004,0.00013000000000000002,0.00018,-0.00032,-0.00011999999999999999,6
29179,30062,-1e-05,1e-05,2e-05,0.0004,0.00013000000000000002,0.00018,-0.00032,-0.00011999999999999999,6
29180,30063,-1e-05,1e-05,2e-05,0.0004,0.00013000000000000002,0.00018,-0.00032,-0.00011999999999999999,6
29181,30064,-1e-05,1e-05,2e-05,0.0004,0.00013000000000000002,0.00018,-0.00032,-0.00011999999999999999,6
29182,30065,-1e-05,1e-05,2e-05,0.0004,0.00013000000000000002,0.00018,-0.00032,-0.00011999999999999999,6
29183,30066,-1e-05,1e-05,2e-05,0.0004,0.00013000000000000002,0.00018,-0.00032,-0.00011999999999999999,6
29184,30067,-1e-05,1e-05,2e-05,0.0004,0.00013000000000000002,0.00018,-0.00032,-0.00011999999999999999,6
29185,30068,-1e-05,1e-05,2e-05,0.0004,0.00013000000000000002,0.00018,-0.00032,-0.00011999999999999999,6
29186,30069,-2e-05,-1e-05,-2.9999999999999997e-05,-0.00021,-0.00053,4e-05,0.0,-2e-05,6
29187,30070,-2e-05,-1e-05,-2.9999999999999997e-05,-0.00021,-0.00053,4e-05,0.0,-2e-05,6
29188,30071,-2e-05,-1e-05,-2.9999999999999997e-05,-0.00021,-0.00053,4e-05,0.0,-2e-05,6
29189,30072,-2e-05,-1e-05,-2.9999999999999997e-05,-0.00021,-0.00053,4e-05,0.0,-2e-05,6
29190,30073,-2e-05,-1e-05,-2.9999999999999997e-05,-0.00021,-0.00053,4e-05,0.0,-2e-05,6
29191,30074,-2e-05,-1e-05,-2.9999999999999997e-05,-0.00021,-0.00053,4e-05,0.0,-2e-05,6
29192,30075,-2e-05,-1e-05,-2.9999999999999997e-05,-0.00021,-0.00053,4e-05,0.0,-2e-05,6
29193,30076,-2e-05,-1e-05,-2.9999999999999997e-05,-0.00021,-0.00053,4e-05,0.0,-2e-05,6
29194,30077,-2e-05,-1e-05,-2.9999999999999997e-05,-0.00021,-0.00053,4e-05,0.0,-2e-05,6
29195,30078,-2e-05,-1e-05,-2.9999999999999997e-05,-0.00021,-0.00053,4e-05,0.0,-2e-05,6
29196,30079,-2e-05,-1e-05,-2.9999999999999997e-05,-0.00021,-0.00053,4e-05,0.0,-2e-05,6
29197,30080,-2e-05,-1e-05,-2.9999999999999997e-05,-0.00021,-0.00053,4e-05,0.0,-2e-05,6
29198,30081,-2e-05,-1e-05,-2.9999999999999997e-05,-0.00021,-0.00053,4e-05,0.0,-2e-05,6
29199,30082,-2e-05,-1e-05,-2.9999999999999997e-05,-0.00021,-0.00053,4e-05,0.0,-2e-05,6
29200,30083,-2e-05,-1e-05,-2.9999999999999997e-05,-0.00021,-0.00053,4e-05,0.0,-2e-05,6
29201,30084,4e-05,5e-05,0.00011999999999999999,0.00043,-0.00018,0.00016,0.0,1e-05,6
29202,30085,-1e-05,-5e-05,-1e-05,1e-05,-5.9999999999999995e-05,-0.00029,-0.00018999999999999998,-2e-05,6
29203,30086,-1e-05,-5e-05,-1e-05,1e-05,-5.9999999999999995e-05,-0.00029,-0.00018999999999999998,-2e-05,6
29204,30088,-1e-05,-5e-05,-1e-05,1e-05,-5.9999999999999995e-05,-0.00029,-0.00018999999999999998,-2e-05,6
29205,30089,-1e-05,-5e-05,-1e-05,1e-05,-5.9999999999999995e-05,-0.00029,-0.00018999999999999998,-2e-05,6
29206,30090,-1e-05,-5e-05,-1e-05,1e-05,-5.9999999999999995e-05,-0.00029,-0.00018999999999999998,-2e-05,6
29207,30091,-1e-05,-5e-05,-1e-05,1e-05,-5.9999999999999995e-05,-0.00029,-0.00018999999999999998,-2e-05,6
29208,30092,-1e-05,-5e-05,-1e-05,1e-05,-5.9999999999999995e-05,-0.00029,-0.00018999999999999998,-2e-05,6
29209,30093,-1e-05,-5e-05,-1e-05,1e-05,-5.9999999999999995e-05,-0.00029,-0.00018999999999999998,-2e-05,6
29210,30094,-1e-05,-5e-05,-1e-05,1e-05,-5.9999999999999995e-05,-0.00029,-0.00018999999999999998,-2e-05,6
29211,30095,-1e-05,-5e-05,-1e-05,1e-05,-5.9999999999999995e-05,-0.00029,-0.00018999999999999998,-2e-05,6
29212,30096,-1e-05,-5e-05,-1e-05,1e-05,-5.9999999999999995e-05,-0.00029,-0.00018999999999999998,-2e-05,6
29213,30097,-1e-05,-5e-05,-1e-05,1e-05,-5.9999999999999995e-05,-0.00029,-0.00018999999999999998,-2e-05,6
29214,30098,-1e-05,-5e-05,-1e-05,1e-05,-5.9999999999999995e-05,-0.00029,-0.00018999999999999998,-2e-05,6
29215,30099,-1e-05,-5e-05,-1e-05,1e-05,-5.9999999999999995e-05,-0.00029,-0.00018999999999999998,-2e-05,6
29216,30100,-1e-05,-5e-05,-1e-05,1e-05,-5.9999999999999995e-05,-0.00029,-0.00018999999999999998,-2e-05,6
29217,30101,-1e-05,-5e-05,-1e-05,1e-05,-5.9999999999999995e-05,-0.00029,-0.00018999999999999998,-2e-05,6
29218,30102,-1e-05,-5e-05,-1e-05,1e-05,-5.9999999999999995e-05,-0.00029,-0.00018999999999999998,-2e-05,6
29219,30103,-1e-05,-5e-05,-1e-05,1e-05,-5.9999999999999995e-05,-0.00029,-0.00018999999999999998,-2e-05,6
29220,30104,-1e-05,-5e-05,-1e-05,1e-05,-5.9999999999999995e-05,-0.00029,-0.00018999999999999998,-2e-05,6
29221,30105,-1e-05,-5e-05,-1e-05,1e-05,-5.9999999999999995e-05,-0.00029,-0.00018999999999999998,-2e-05,6
29222,30106,-1e-05,-5e-05,-1e-05,1e-05,-5.9999999999999995e-05,-0.00029,-0.00018999999999999998,-2e-05,6
29223,30107,-1e-05,-5e-05,-1e-05,1e-05,-5.9999999999999995e-05,-0.00029,-0.00018999999999999998,-2e-05,6
29224,30108,-1e-05,-5e-05,-1e-05,1e-05,-5.9999999999999995e-05,-0.00029,-0.00018999999999999998,-2e-05,6
29225,30109,-1e-05,-5e-05,-1e-05,1e-05,-5.9999999999999995e-05,-0.00029,-0.00018999999999999998,-2e-05,6
29226,30110,-1e-05,-5e-05,-1e-05,1e-05,-5.9999999999999995e-05,-0.00029,-0.00018999999999999998,-2e-05,6
29227,30111,-1e-05,-5e-05,-1e-05,1e-05,-5.9999999999999995e-05,-0.00029,-0.00018999999999999998,-2e-05,6
29228,30112,-1e-05,-5e-05,-1e-05,1e-05,-5.9999999999999995e-05,-0.00029,-0.00018999999999999998,-2e-05,6
29229,30113,-1e-05,-5e-05,-1e-05,1e-05,-5.9999999999999995e-05,-0.00029,-0.00018999999999999998,-2e-05,6
29230,30114,-2e-05,-2e-05,2e-05,0.00027,0.00011999999999999999,-0.00023999999999999998,-5e-05,-2e-05,6
29231,30115,0.0,1e-05,1e-05,0.00013000000000000002,0.00084,8e-05,5e-05,-1e-05,6
29232,30116,0.0,-2.9999999999999997e-05,-0.00016,-0.00081,-0.00033,-5e-05,5e-05,1e-05,6
29233,30117,0.0,-2.9999999999999997e-05,-0.00016,-0.00081,-0.00033,-5e-05,5e-05,1e-05,6
29234,30118,0.0,-2.9999999999999997e-05,-0.00016,-0.00081,-0.00033,-5e-05,5e-05,1e-05,6
29235,30119,0.0,-2.9999999999999997e-05,-0.00016,-0.00081,-0.00033,-5e-05,5e-05,1e-05,6
29236,30120,1e-05,-2e-05,2.9999999999999997e-05,4e-05,0.00025,-0.00033,5e-05,-5.9999999999999995e-05,6
29237,30121,1e-05,-2e-05,2.9999999999999997e-05,4e-05,0.00025,-0.00033,5e-05,-5.9999999999999995e-05,6
29238,30122,1e-05,-2e-05,2.9999999999999997e-05,4e-05,0.00025,-0.00033,5e-05,-5.9999999999999995e-05,6
29239,30123,1e-05,-2e-05,2.9999999999999997e-05,4e-05,0.00025,-0.00033,5e-05,-5.9999999999999995e-05,6
29240,30124,1e-05,-2e-05,2.9999999999999997e-05,4e-05,0.00025,-0.00033,5e-05,-5.9999999999999995e-05,6
29241,30125,1e-05,-2e-05,2.9999999999999997e-05,4e-05,0.00025,-0.00033,5e-05,-5.9999999999999995e-05,6
29242,30126,1e-05,-2e-05,2.9999999999999997e-05,4e-05,0.00025,-0.00033,5e-05,-5.9999999999999995e-05,6
29243,30127,1e-05,-2e-05,2.9999999999999997e-05,4e-05,0.00025,-0.00033,5e-05,-5.9999999999999995e-05,6
29244,30128,1e-05,-2e-05,2.9999999999999997e-05,4e-05,0.00025,-0.00033,5e-05,-5.9999999999999995e-05,6
29245,30129,1e-05,-2e-05,2.9999999999999997e-05,4e-05,0.00025,-0.00033,5e-05,-5.9999999999999995e-05,6
29246,30130,1e-05,-2e-05,2.9999999999999997e-05,4e-05,0.00025,-0.00033,5e-05,-5.9999999999999995e-05,6
29247,30131,1e-05,-2e-05,2.9999999999999997e-05,4e-05,0.00025,-0.00033,5e-05,-5.9999999999999995e-05,6
29248,30132,1e-05,-2e-05,2.9999999999999997e-05,4e-05,0.00025,-0.00033,5e-05,-5.9999999999999995e-05,6
29249,30133,1e-05,-2e-05,2.9999999999999997e-05,4e-05,0.00025,-0.00033,5e-05,-5.9999999999999995e-05,6
29250,30134,1e-05,-2e-05,2.9999999999999997e-05,4e-05,0.00025,-0.00033,5e-05,-5.9999999999999995e-05,6
29251,30135,1e-05,-2e-05,2.9999999999999997e-05,4e-05,0.00025,-0.00033,5e-05,-5.9999999999999995e-05,6
29252,30136,-2.9999999999999997e-05,-2e-05,8e-05,0.0004,-0.0008900000000000001,8e-05,-1e-05,-2e-05,6
29253,30138,-2.9999999999999997e-05,-2e-05,8e-05,0.0004,-0.0008900000000000001,8e-05,-1e-05,-2e-05,6
29254,30139,-2.9999999999999997e-05,-2e-05,8e-05,0.0004,-0.0008900000000000001,8e-05,-1e-05,-2e-05,6
29255,30140,-2.9999999999999997e-05,-2e-05,8e-05,0.0004,-0.0008900000000000001,8e-05,-1e-05,-2e-05,6
29256,30141,-2.9999999999999997e-05,-2e-05,8e-05,0.0004,-0.0008900000000000001,8e-05,-1e-05,-2e-05,6
29257,30142,-2.9999999999999997e-05,-2e-05,8e-05,0.0004,-0.0008900000000000001,8e-05,-1e-05,-2e-05,6
29258,30143,-2.9999999999999997e-05,-2e-05,8e-05,0.0004,-0.0008900000000000001,8e-05,-1e-05,-2e-05,6
29259,30144,-2e-05,-2e-05,-9e-05,-0.00041,0.00033999999999999997,0.0001,0.00015,2e-05,6
29260,30145,2.9999999999999997e-05,5.9999999999999995e-05,7e-05,7e-05,-0.00011,0.00041,9e-05,5e-05,6
29261,30146,2.9999999999999997e-05,5.9999999999999995e-05,7e-05,7e-05,-0.00011,0.00041,9e-05,5e-05,6
29262,30147,2.9999999999999997e-05,5.9999999999999995e-05,7e-05,7e-05,-0.00011,0.00041,9e-05,5e-05,6
29263,30148,2.9999999999999997e-05,5.9999999999999995e-05,7e-05,7e-05,-0.00011,0.00041,9e-05,5e-05,6
29264,30149,2.9999999999999997e-05,5.9999999999999995e-05,7e-05,7e-05,-0.00011,0.00041,9e-05,5e-05,6
29265,30150,2.9999999999999997e-05,5.9999999999999995e-05,7e-05,7e-05,-0.00011,0.00041,9e-05,5e-05,6
29266,30151,2.9999999999999997e-05,5.9999999999999995e-05,7e-05,7e-05,-0.00011,0.00041,9e-05,5e-05,6
29267,30152,2.9999999999999997e-05,5.9999999999999995e-05,7e-05,7e-05,-0.00011,0.00041,9e-05,5e-05,6
29268,30153,2.9999999999999997e-05,5.9999999999999995e-05,7e-05,7e-05,-0.00011,0.00041,9e-05,5e-05,6
29269,30154,2.9999999999999997e-05,5.9999999999999995e-05,7e-05,7e-05,-0.00011,0.00041,9e-05,5e-05,6
29270,30155,2.9999999999999997e-05,5.9999999999999995e-05,7e-05,7e-05,-0.00011,0.00041,9e-05,5e-05,6
29271,30156,2.9999999999999997e-05,5.9999999999999995e-05,7e-05,7e-05,-0.00011,0.00041,9e-05,5e-05,6
29272,30157,2.9999999999999997e-05,5.9999999999999995e-05,7e-05,7e-05,-0.00011,0.00041,9e-05,5e-05,6
29273,30158,2.9999999999999997e-05,5.9999999999999995e-05,7e-05,7e-05,-0.00011,0.00041,9e-05,5e-05,6
29274,30159,2.9999999999999997e-05,5.9999999999999995e-05,7e-05,7e-05,-0.00011,0.00041,9e-05,5e-05,6
29275,30160,2.9999999999999997e-05,5.9999999999999995e-05,7e-05,7e-05,-0.00011,0.00041,9e-05,5e-05,6
29276,30161,2.9999999999999997e-05,5.9999999999999995e-05,7e-05,7e-05,-0.00011,0.00041,9e-05,5e-05,6
29277,30162,2.9999999999999997e-05,5.9999999999999995e-05,7e-05,7e-05,-0.00011,0.00041,9e-05,5e-05,6
29278,30163,2.9999999999999997e-05,5.9999999999999995e-05,7e-05,7e-05,-0.00011,0.00041,9e-05,5e-05,6
29279,30164,2.9999999999999997e-05,5.9999999999999995e-05,7e-05,7e-05,-0.00011,0.00041,9e-05,5e-05,6
29280,30165,2.9999999999999997e-05,5.9999999999999995e-05,7e-05,7e-05,-0.00011,0.00041,9e-05,5e-05,6
29281,30166,-1e-05,-2e-05,-1e-05,4e-05,0.00044,-0.00018999999999999998,-0.00039,-7e-05,6
29282,30167,-5e-05,-7e-05,2e-05,0.00015,-5.9999999999999995e-05,0.00022999999999999998,0.00018,-1e-05,6
29283,30168,2.9999999999999997e-05,0.0,2.9999999999999997e-05,0.00011999999999999999,0.00086,0.00031,9e-05,2.9999999999999997e-05,6
29284,30169,2.9999999999999997e-05,0.0,2.9999999999999997e-05,0.00011999999999999999,0.00086,0.00031,9e-05,2.9999999999999997e-05,6
29285,30170,2.9999999999999997e-05,0.0,2.9999999999999997e-05,0.00011999999999999999,0.00086,0.00031,9e-05,2.9999999999999997e-05,6
29286,30171,2.9999999999999997e-05,0.0,2.9999999999999997e-05,0.00011999999999999999,0.00086,0.00031,9e-05,2.9999999999999997e-05,6
29287,30172,2.9999999999999997e-05,0.0,2.9999999999999997e-05,0.00011999999999999999,0.00086,0.00031,9e-05,2.9999999999999997e-05,6
29288,30173,2.9999999999999997e-05,0.0,2.9999999999999997e-05,0.00011999999999999999,0.00086,0.00031,9e-05,2.9999999999999997e-05,6
29289,30174,2.9999999999999997e-05,0.0,2.9999999999999997e-05,0.00011999999999999999,0.00086,0.00031,9e-05,2.9999999999999997e-05,6
29290,30175,2.9999999999999997e-05,0.0,2.9999999999999997e-05,0.00011999999999999999,0.00086,0.00031,9e-05,2.9999999999999997e-05,6
29291,30176,2.9999999999999997e-05,0.0,2.9999999999999997e-05,0.00011999999999999999,0.00086,0.00031,9e-05,2.9999999999999997e-05,6
29292,30177,2.9999999999999997e-05,0.0,2.9999999999999997e-05,0.00011999999999999999,0.00086,0.00031,9e-05,2.9999999999999997e-05,6
29293,30178,2.9999999999999997e-05,0.0,2.9999999999999997e-05,0.00011999999999999999,0.00086,0.00031,9e-05,2.9999999999999997e-05,6
29294,30179,2.9999999999999997e-05,0.0,2.9999999999999997e-05,0.00011999999999999999,0.00086,0.00031,9e-05,2.9999999999999997e-05,6
29295,30180,2.9999999999999997e-05,0.0,2.9999999999999997e-05,0.00011999999999999999,0.00086,0.00031,9e-05,2.9999999999999997e-05,6
29296,30181,2.9999999999999997e-05,0.0,2.9999999999999997e-05,0.00011999999999999999,0.00086,0.00031,9e-05,2.9999999999999997e-05,6
29297,30182,2.9999999999999997e-05,0.0,2.9999999999999997e-05,0.00011999999999999999,0.00086,0.00031,9e-05,2.9999999999999997e-05,6
29298,30183,2.9999999999999997e-05,0.0,2.9999999999999997e-05,0.00011999999999999999,0.00086,0.00031,9e-05,2.9999999999999997e-05,6
29299,30184,2.9999999999999997e-05,0.0,2.9999999999999997e-05,0.00011999999999999999,0.00086,0.00031,9e-05,2.9999999999999997e-05,6
29300,30185,2.9999999999999997e-05,0.0,2.9999999999999997e-05,0.00011999999999999999,0.00086,0.00031,9e-05,2.9999999999999997e-05,6
29301,30186,2.9999999999999997e-05,0.0,2.9999999999999997e-05,0.00011999999999999999,0.00086,0.00031,9e-05,2.9999999999999997e-05,6
29302,30188,2.9999999999999997e-05,0.0,2.9999999999999997e-05,0.00011999999999999999,0.00086,0.00031,9e-05,2.9999999999999997e-05,6
29303,30189,2.9999999999999997e-05,0.0,2.9999999999999997e-05,0.00011999999999999999,0.00086,0.00031,9e-05,2.9999999999999997e-05,6
29304,30190,2.9999999999999997e-05,0.0,2.9999999999999997e-05,0.00011999999999999999,0.00086,0.00031,9e-05,2.9999999999999997e-05,6
29305,30191,2.9999999999999997e-05,0.0,2.9999999999999997e-05,0.00011999999999999999,0.00086,0.00031,9e-05,2.9999999999999997e-05,6
29306,30192,2.9999999999999997e-05,0.0,2.9999999999999997e-05,0.00011999999999999999,0.00086,0.00031,9e-05,2.9999999999999997e-05,6
29307,30193,2.9999999999999997e-05,0.0,2.9999999999999997e-05,0.00011999999999999999,0.00086,0.00031,9e-05,2.9999999999999997e-05,6
29308,30194,2.9999999999999997e-05,0.0,2.9999999999999997e-05,0.00011999999999999999,0.00086,0.00031,9e-05,2.9999999999999997e-05,6
29309,30195,2.9999999999999997e-05,0.0,2.9999999999999997e-05,0.00011999999999999999,0.00086,0.00031,9e-05,2.9999999999999997e-05,6
29310,30196,-2.9999999999999997e-05,-2.9999999999999997e-05,-9e-05,0.00015,1e-05,0.00011,-0.00043,-0.0005,6
29311,30197,-1e-05,-1e-05,-2.9999999999999997e-05,-0.0002,-4e-05,5e-05,-5e-05,2e-05,6
29312,30198,-1e-05,-1e-05,-2.9999999999999997e-05,-0.0002,-4e-05,5e-05,-5e-05,2e-05,6
29313,30199,-1e-05,-1e-05,-2.9999999999999997e-05,-0.0002,-4e-05,5e-05,-5e-05,2e-05,6
29314,30200,-1e-05,-1e-05,-2.9999999999999997e-05,-0.0002,-4e-05,5e-05,-5e-05,2e-05,6
29315,30201,-1e-05,-1e-05,-2.9999999999999997e-05,-0.0002,-4e-05,5e-05,-5e-05,2e-05,6
29316,30202,-1e-05,-1e-05,-2.9999999999999997e-05,-0.0002,-4e-05,5e-05,-5e-05,2e-05,6
29317,30203,4e-05,5e-05,2.9999999999999997e-05,1e-05,-0.00073,-0.00029,0.00016999999999999999,0.00018,6
29318,30204,4e-05,5e-05,2.9999999999999997e-05,1e-05,-0.00073,-0.00029,0.00016999999999999999,0.00018,6
29319,30205,-5e-05,-9e-05,-0.0001,9e-05,0.00016999999999999999,-0.00018999999999999998,-0.0001,-0.00011,6
29320,30206,-5e-05,-9e-05,-0.0001,9e-05,0.00016999999999999999,-0.00018999999999999998,-0.0001,-0.00011,6
29321,30207,-5e-05,-9e-05,-0.0001,9e-05,0.00016999999999999999,-0.00018999999999999998,-0.0001,-0.00011,6
29322,30208,-5e-05,-9e-05,-0.0001,9e-05,0.00016999999999999999,-0.00018999999999999998,-0.0001,-0.00011,6
29323,30209,-5e-05,-9e-05,-0.0001,9e-05,0.00016999999999999999,-0.00018999999999999998,-0.0001,-0.00011,6
29324,30210,-5e-05,-9e-05,-0.0001,9e-05,0.00016999999999999999,-0.00018999999999999998,-0.0001,-0.00011,6
29325,30211,-5e-05,-9e-05,-0.0001,9e-05,0.00016999999999999999,-0.00018999999999999998,-0.0001,-0.00011,6
29326,30212,-5e-05,-9e-05,-0.0001,9e-05,0.00016999999999999999,-0.00018999999999999998,-0.0001,-0.00011,6
29327,30213,-5e-05,-9e-05,-0.0001,9e-05,0.00016999999999999999,-0.00018999999999999998,-0.0001,-0.00011,6
29328,30214,-5e-05,-9e-05,-0.0001,9e-05,0.00016999999999999999,-0.00018999999999999998,-0.0001,-0.00011,6
29329,30215,-5e-05,-9e-05,-0.0001,9e-05,0.00016999999999999999,-0.00018999999999999998,-0.0001,-0.00011,6
29330,30216,-5e-05,-9e-05,-0.0001,9e-05,0.00016999999999999999,-0.00018999999999999998,-0.0001,-0.00011,6
29331,30217,-5e-05,-9e-05,-0.0001,9e-05,0.00016999999999999999,-0.00018999999999999998,-0.0001,-0.00011,6
29332,30218,-5e-05,-9e-05,-0.0001,9e-05,0.00016999999999999999,-0.00018999999999999998,-0.0001,-0.00011,6
29333,30219,-5e-05,-9e-05,-0.0001,9e-05,0.00016999999999999999,-0.00018999999999999998,-0.0001,-0.00011,6
29334,30220,-5e-05,-9e-05,-0.0001,9e-05,0.00016999999999999999,-0.00018999999999999998,-0.0001,-0.00011,6
29335,30221,-5e-05,-9e-05,-0.0001,9e-05,0.00016999999999999999,-0.00018999999999999998,-0.0001,-0.00011,6
29336,30222,-5e-05,-9e-05,-0.0001,9e-05,0.00016999999999999999,-0.00018999999999999998,-0.0001,-0.00011,6
29337,30223,-5e-05,-9e-05,-0.0001,9e-05,0.00016999999999999999,-0.00018999999999999998,-0.0001,-0.00011,6
29338,30224,-5e-05,-9e-05,-0.0001,9e-05,0.00016999999999999999,-0.00018999999999999998,-0.0001,-0.00011,6
29339,30225,-5e-05,-9e-05,-0.0001,9e-05,0.00016999999999999999,-0.00018999999999999998,-0.0001,-0.00011,6
29340,30226,-2.9999999999999997e-05,-1e-05,-2e-05,4e-05,0.00091,4e-05,-0.00015,2.9999999999999997e-05,6
29341,30227,4e-05,5.9999999999999995e-05,2e-05,-0.00011999999999999999,-0.00027,0.0001,0.00042,0.00016,6
29342,30228,4e-05,5.9999999999999995e-05,2e-05,-0.00011999999999999999,-0.00027,0.0001,0.00042,0.00016,6
29343,30229,4e-05,5.9999999999999995e-05,2e-05,-0.00011999999999999999,-0.00027,0.0001,0.00042,0.00016,6
29344,30230,4e-05,5.9999999999999995e-05,2e-05,-0.00011999999999999999,-0.00027,0.0001,0.00042,0.00016,6
29345,30231,4e-05,5.9999999999999995e-05,2e-05,-0.00011999999999999999,-0.00027,0.0001,0.00042,0.00016,6
29346,30232,4e-05,5.9999999999999995e-05,2e-05,-0.00011999999999999999,-0.00027,0.0001,0.00042,0.00016,6
29347,30233,4e-05,5.9999999999999995e-05,2e-05,-0.00011999999999999999,-0.00027,0.0001,0.00042,0.00016,6
29348,30234,4e-05,5.9999999999999995e-05,2e-05,-0.00011999999999999999,-0.00027,0.0001,0.00042,0.00016,6
29349,30235,4e-05,5.9999999999999995e-05,2e-05,-0.00011999999999999999,-0.00027,0.0001,0.00042,0.00016,6
29350,30236,4e-05,5.9999999999999995e-05,2e-05,-0.00011999999999999999,-0.00027,0.0001,0.00042,0.00016,6
29351,30238,4e-05,5.9999999999999995e-05,2e-05,-0.00011999999999999999,-0.00027,0.0001,0.00042,0.00016,6
29352,30239,4e-05,5.9999999999999995e-05,2e-05,-0.00011999999999999999,-0.00027,0.0001,0.00042,0.00016,6
29353,30240,4e-05,5.9999999999999995e-05,2e-05,-0.00011999999999999999,-0.00027,0.0001,0.00042,0.00016,6
29354,30241,4e-05,5.9999999999999995e-05,2e-05,-0.00011999999999999999,-0.00027,0.0001,0.00042,0.00016,6
29355,30242,4e-05,5.9999999999999995e-05,2e-05,-0.00011999999999999999,-0.00027,0.0001,0.00042,0.00016,6
29356,30243,4e-05,5.9999999999999995e-05,2e-05,-0.00011999999999999999,-0.00027,0.0001,0.00042,0.00016,6
29357,30244,4e-05,5.9999999999999995e-05,2e-05,-0.00011999999999999999,-0.00027,0.0001,0.00042,0.00016,6
29358,30245,4e-05,5.9999999999999995e-05,2e-05,-0.00011999999999999999,-0.00027,0.0001,0.00042,0.00016,6
29359,30246,4e-05,5.9999999999999995e-05,2e-05,-0.00011999999999999999,-0.00027,0.0001,0.00042,0.00016,6
29360,30247,4e-05,5.9999999999999995e-05,2e-05,-0.00011999999999999999,-0.00027,0.0001,0.00042,0.00016,6
29361,30248,4e-05,5.9999999999999995e-05,2e-05,-0.00011999999999999999,-0.00027,0.0001,0.00042,0.00016,6
29362,30249,-1e-05,0.0,2.9999999999999997e-05,0.00043,1e-05,-5e-05,8e-05,0.00018999999999999998,6
29363,30250,-1e-05,1e-05,-2e-05,-0.00018,-0.0007099999999999999,-0.0002,-7e-05,-4e-05,6
29364,30251,-1e-05,1e-05,-2e-05,-0.00018,-0.0007099999999999999,-0.0002,-7e-05,-4e-05,6
29365,30252,-1e-05,1e-05,-2e-05,-0.00018,-0.0007099999999999999,-0.0002,-7e-05,-4e-05,6
29366,30253,-1e-05,1e-05,-2e-05,-0.00018,-0.0007099999999999999,-0.0002,-7e-05,-4e-05,6
29367,30254,-1e-05,1e-05,-2e-05,-0.00018,-0.0007099999999999999,-0.0002,-7e-05,-4e-05,6
29368,30255,-1e-05,1e-05,-2e-05,-0.00018,-0.0007099999999999999,-0.0002,-7e-05,-4e-05,6
29369,30256,-1e-05,1e-05,-2e-05,-0.00018,-0.0007099999999999999,-0.0002,-7e-05,-4e-05,6
29370,30257,-1e-05,1e-05,-2e-05,-0.00018,-0.0007099999999999999,-0.0002,-7e-05,-4e-05,6
29371,30258,-1e-05,1e-05,-2e-05,-0.00018,-0.0007099999999999999,-0.0002,-7e-05,-4e-05,6
29372,30259,-1e-05,1e-05,-2e-05,-0.00018,-0.0007099999999999999,-0.0002,-7e-05,-4e-05,6
29373,30260,-1e-05,1e-05,-2e-05,-0.00018,-0.0007099999999999999,-0.0002,-7e-05,-4e-05,6
29374,30261,-1e-05,1e-05,-2e-05,-0.00018,-0.0007099999999999999,-0.0002,-7e-05,-4e-05,6
29375,30262,-1e-05,1e-05,-2e-05,-0.00018,-0.0007099999999999999,-0.0002,-7e-05,-4e-05,6
29376,30263,-1e-05,1e-05,-2e-05,-0.00018,-0.0007099999999999999,-0.0002,-7e-05,-4e-05,6
29377,30264,-1e-05,1e-05,-2e-05,-0.00018,-0.0007099999999999999,-0.0002,-7e-05,-4e-05,6
29378,30265,-1e-05,1e-05,-2e-05,-0.00018,-0.0007099999999999999,-0.0002,-7e-05,-4e-05,6
29379,30266,-1e-05,1e-05,-2e-05,-0.00018,-0.0007099999999999999,-0.0002,-7e-05,-4e-05,6
29380,30267,-1e-05,1e-05,-2e-05,-0.00018,-0.0007099999999999999,-0.0002,-7e-05,-4e-05,6
29381,30268,-1e-05,1e-05,-2e-05,-0.00018,-0.0007099999999999999,-0.0002,-7e-05,-4e-05,6
29382,30269,-1e-05,1e-05,-2e-05,-0.00018,-0.0007099999999999999,-0.0002,-7e-05,-4e-05,6
29383,30270,-1e-05,1e-05,-2e-05,-0.00018,-0.0007099999999999999,-0.0002,-7e-05,-4e-05,6
29384,30271,-1e-05,1e-05,-2e-05,-0.00018,-0.0007099999999999999,-0.0002,-7e-05,-4e-05,6
29385,30272,-1e-05,1e-05,-2e-05,-0.00018,-0.0007099999999999999,-0.0002,-7e-05,-4e-05,6
29386,30273,-1e-05,1e-05,-2e-05,-0.00018,-0.0007099999999999999,-0.0002,-7e-05,-4e-05,6
29387,30274,-1e-05,1e-05,-2e-05,-0.00018,-0.0007099999999999999,-0.0002,-7e-05,-4e-05,6
29388,30275,-1e-05,1e-05,-2e-05,-0.00018,-0.0007099999999999999,-0.0002,-7e-05,-4e-05,6
29389,30276,-1e-05,1e-05,-2e-05,-0.00018,-0.0007099999999999999,-0.0002,-7e-05,-4e-05,6
29390,30277,-1e-05,1e-05,-2e-05,-0.00018,-0.0007099999999999999,-0.0002,-7e-05,-4e-05,6
29391,30278,-1e-05,1e-05,-2e-05,-0.00018,-0.0007099999999999999,-0.0002,-7e-05,-4e-05,6
29392,30279,-1e-05,0.0,2e-05,-0.00011999999999999999,-0.00037,7e-05,5e-05,1e-05,6
29393,30280,-2e-05,-4e-05,-1e-05,-5e-05,-0.00045999999999999996,-0.00014,-0.00011,-8e-05,6
29394,30281,-2e-05,-4e-05,-1e-05,-5e-05,-0.00045999999999999996,-0.00014,-0.00011,-8e-05,6
29395,30282,-2e-05,-4e-05,-1e-05,-5e-05,-0.00045999999999999996,-0.00014,-0.00011,-8e-05,6
29396,30283,-2e-05,-4e-05,-1e-05,-5e-05,-0.00045999999999999996,-0.00014,-0.00011,-8e-05,6
29397,30284,-2e-05,-4e-05,-1e-05,-5e-05,-0.00045999999999999996,-0.00014,-0.00011,-8e-05,6
29398,30285,-2e-05,-4e-05,-1e-05,-5e-05,-0.00045999999999999996,-0.00014,-0.00011,-8e-05,6
29399,30286,-1e-05,-5.9999999999999995e-05,-2.9999999999999997e-05,-0.0002,-0.00053,-1e-05,-1e-05,-2e-05,6
29400,30289,1e-05,-2e-05,-2e-05,0.0001,0.00022999999999999998,-8e-05,-0.0001,-5.9999999999999995e-05,6
29401,30290,1e-05,-2e-05,-2e-05,0.0001,0.00022999999999999998,-8e-05,-0.0001,-5.9999999999999995e-05,6
29402,30291,1e-05,-2e-05,-2e-05,0.0001,0.00022999999999999998,-8e-05,-0.0001,-5.9999999999999995e-05,6
29403,30292,1e-05,-2e-05,-2e-05,0.0001,0.00022999999999999998,-8e-05,-0.0001,-5.9999999999999995e-05,6
29404,30293,1e-05,-2e-05,-2e-05,0.0001,0.00022999999999999998,-8e-05,-0.0001,-5.9999999999999995e-05,6
29405,30294,1e-05,-2e-05,-2e-05,0.0001,0.00022999999999999998,-8e-05,-0.0001,-5.9999999999999995e-05,6
29406,30295,1e-05,-2e-05,-2e-05,0.0001,0.00022999999999999998,-8e-05,-0.0001,-5.9999999999999995e-05,6
29407,30296,1e-05,-2e-05,-2e-05,0.0001,0.00022999999999999998,-8e-05,-0.0001,-5.9999999999999995e-05,6
29408,30297,1e-05,-2e-05,-2e-05,0.0001,0.00022999999999999998,-8e-05,-0.0001,-5.9999999999999995e-05,6
29409,30298,1e-05,-2e-05,-2e-05,0.0001,0.00022999999999999998,-8e-05,-0.0001,-5.9999999999999995e-05,6
29410,30299,1e-05,-2e-05,-2e-05,0.0001,0.00022999999999999998,-8e-05,-0.0001,-5.9999999999999995e-05,6
29411,30300,1e-05,-2e-05,-2e-05,0.0001,0.00022999999999999998,-8e-05,-0.0001,-5.9999999999999995e-05,6
29412,30301,1e-05,-2e-05,-2e-05,0.0001,0.00022999999999999998,-8e-05,-0.0001,-5.9999999999999995e-05,6
29413,30302,1e-05,-2e-05,-2e-05,0.0001,0.00022999999999999998,-8e-05,-0.0001,-5.9999999999999995e-05,6
29414,30303,1e-05,-2e-05,-2e-05,0.0001,0.00022999999999999998,-8e-05,-0.0001,-5.9999999999999995e-05,6
29415,30304,1e-05,-2e-05,-2e-05,0.0001,0.00022999999999999998,-8e-05,-0.0001,-5.9999999999999995e-05,6
29416,30305,1e-05,-2e-05,-2e-05,0.0001,0.00022999999999999998,-8e-05,-0.0001,-5.9999999999999995e-05,6
29417,30306,1e-05,-2e-05,-2e-05,0.0001,0.00022999999999999998,-8e-05,-0.0001,-5.9999999999999995e-05,6
29418,30307,1e-05,-2e-05,-2e-05,0.0001,0.00022999999999999998,-8e-05,-0.0001,-5.9999999999999995e-05,6
29419,30308,1e-05,-2e-05,-2e-05,0.0001,0.00022999999999999998,-8e-05,-0.0001,-5.9999999999999995e-05,6
29420,30309,-2.9999999999999997e-05,-2e-05,-9e-05,-0.00041,-0.00056,-9e-05,0.00016,-4e-05,6
29421,30310,-2e-05,-2e-05,-4e-05,-5e-05,0.00047999999999999996,-5.9999999999999995e-05,-9e-05,-1e-05,6
29422,30311,0.0,-1e-05,2.9999999999999997e-05,0.00037,-0.00049,-0.0001,0.00014,1e-05,6
29423,30312,0.0,-1e-05,2.9999999999999997e-05,0.00037,-0.00049,-0.0001,0.00014,1e-05,6
29424,30313,0.0,-1e-05,2.9999999999999997e-05,0.00037,-0.00049,-0.0001,0.00014,1e-05,6
29425,30314,0.0,-1e-05,2.9999999999999997e-05,0.00037,-0.00049,-0.0001,0.00014,1e-05,6
29426,30315,0.0,-1e-05,2.9999999999999997e-05,0.00037,-0.00049,-0.0001,0.00014,1e-05,6
29427,30316,0.0,-1e-05,2.9999999999999997e-05,0.00037,-0.00049,-0.0001,0.00014,1e-05,6
29428,30317,0.0,-1e-05,2.9999999999999997e-05,0.00037,-0.00049,-0.0001,0.00014,1e-05,6
29429,30318,0.0,-1e-05,2.9999999999999997e-05,0.00037,-0.00049,-0.0001,0.00014,1e-05,6
29430,30319,0.0,-1e-05,2.9999999999999997e-05,0.00037,-0.00049,-0.0001,0.00014,1e-05,6
29431,30320,0.0,-1e-05,2.9999999999999997e-05,0.00037,-0.00049,-0.0001,0.00014,1e-05,6
29432,30321,0.0,-1e-05,2.9999999999999997e-05,0.00037,-0.00049,-0.0001,0.00014,1e-05,6
29433,30322,0.0,-1e-05,2.9999999999999997e-05,0.00037,-0.00049,-0.0001,0.00014,1e-05,6
29434,30323,0.0,-1e-05,2.9999999999999997e-05,0.00037,-0.00049,-0.0001,0.00014,1e-05,6
29435,30324,0.0,-1e-05,2.9999999999999997e-05,0.00037,-0.00049,-0.0001,0.00014,1e-05,6
29436,30325,0.0,-1e-05,2.9999999999999997e-05,0.00037,-0.00049,-0.0001,0.00014,1e-05,6
29437,30326,0.0,-1e-05,2.9999999999999997e-05,0.00037,-0.00049,-0.0001,0.00014,1e-05,6
29438,30327,0.0,-1e-05,2.9999999999999997e-05,0.00037,-0.00049,-0.0001,0.00014,1e-05,6
29439,30328,0.0,-1e-05,2.9999999999999997e-05,0.00037,-0.00049,-0.0001,0.00014,1e-05,6
29440,30329,0.0,-1e-05,2.9999999999999997e-05,0.00037,-0.00049,-0.0001,0.00014,1e-05,6
29441,30330,0.0,-1e-05,2.9999999999999997e-05,0.00037,-0.00049,-0.0001,0.00014,1e-05,6
29442,30331,2.9999999999999997e-05,2e-05,0.0,-0.00047000000000000004,0.00033999999999999997,-0.00018,-0.00031,2e-05,6
29443,30332,1e-05,0.0,-2e-05,0.0001,0.00025,-5.9999999999999995e-05,0.00015,0.0,6
29444,30333,-4e-05,-2.9999999999999997e-05,-1e-05,0.00016,-0.0005200000000000001,-7e-05,-4e-05,-2e-05,6
29445,30334,-4e-05,-2.9999999999999997e-05,-1e-05,0.00016,-0.0005200000000000001,-7e-05,-4e-05,-2e-05,6
29446,30335,-4e-05,-2.9999999999999997e-05,-1e-05,0.00016,-0.0005200000000000001,-7e-05,-4e-05,-2e-05,6
29447,30336,-4e-05,-2.9999999999999997e-05,-1e-05,0.00016,-0.0005200000000000001,-7e-05,-4e-05,-2e-05,6
29448,30338,-4e-05,-2.9999999999999997e-05,-1e-05,0.00016,-0.0005200000000000001,-7e-05,-4e-05,-2e-05,6
29449,30339,-4e-05,-2.9999999999999997e-05,-1e-05,0.00016,-0.0005200000000000001,-7e-05,-4e-05,-2e-05,6
29450,30340,-4e-05,-2.9999999999999997e-05,-1e-05,0.00016,-0.0005200000000000001,-7e-05,-4e-05,-2e-05,6
29451,30341,-4e-05,-2.9999999999999997e-05,-1e-05,0.00016,-0.0005200000000000001,-7e-05,-4e-05,-2e-05,6
29452,30342,-4e-05,-2.9999999999999997e-05,-1e-05,0.00016,-0.0005200000000000001,-7e-05,-4e-05,-2e-05,6
29453,30343,-4e-05,-2.9999999999999997e-05,-1e-05,0.00016,-0.0005200000000000001,-7e-05,-4e-05,-2e-05,6
29454,30344,-4e-05,-2.9999999999999997e-05,-1e-05,0.00016,-0.0005200000000000001,-7e-05,-4e-05,-2e-05,6
29455,30345,-4e-05,-2.9999999999999997e-05,-1e-05,0.00016,-0.0005200000000000001,-7e-05,-4e-05,-2e-05,6
29456,30346,-2.9999999999999997e-05,-1e-05,-8e-05,-7e-05,2e-05,-0.00016999999999999999,-7e-05,-2e-05,6
29457,30347,-2.9999999999999997e-05,-1e-05,-8e-05,-7e-05,2e-05,-0.00016999999999999999,-7e-05,-2e-05,6
29458,30348,-2.9999999999999997e-05,-2e-05,2.9999999999999997e-05,-5.9999999999999995e-05,0.00035,-1e-05,-0.00021,0.0,6
29459,30349,-2.9999999999999997e-05,-2e-05,2.9999999999999997e-05,-5.9999999999999995e-05,0.00035,-1e-05,-0.00021,0.0,6
29460,30350,-2.9999999999999997e-05,-2e-05,2.9999999999999997e-05,-5.9999999999999995e-05,0.00035,-1e-05,-0.00021,0.0,6
29461,30351,-2.9999999999999997e-05,-2e-05,2.9999999999999997e-05,-5.9999999999999995e-05,0.00035,-1e-05,-0.00021,0.0,6
29462,30352,-2.9999999999999997e-05,-2e-05,2.9999999999999997e-05,-5.9999999999999995e-05,0.00035,-1e-05,-0.00021,0.0,6
29463,30353,-2.9999999999999997e-05,-2e-05,2.9999999999999997e-05,-5.9999999999999995e-05,0.00035,-1e-05,-0.00021,0.0,6
29464,30354,-2.9999999999999997e-05,-2e-05,2.9999999999999997e-05,-5.9999999999999995e-05,0.00035,-1e-05,-0.00021,0.0,6
29465,30355,-2.9999999999999997e-05,-2e-05,2.9999999999999997e-05,-5.9999999999999995e-05,0.00035,-1e-05,-0.00021,0.0,6
29466,30356,-2.9999999999999997e-05,-2e-05,2.9999999999999997e-05,-5.9999999999999995e-05,0.00035,-1e-05,-0.00021,0.0,6
29467,30357,-2.9999999999999997e-05,-2e-05,2.9999999999999997e-05,-5.9999999999999995e-05,0.00035,-1e-05,-0.00021,0.0,6
29468,30358,-2.9999999999999997e-05,-2e-05,2.9999999999999997e-05,-5.9999999999999995e-05,0.00035,-1e-05,-0.00021,0.0,6
29469,30359,-2.9999999999999997e-05,-2e-05,2.9999999999999997e-05,-5.9999999999999995e-05,0.00035,-1e-05,-0.00021,0.0,6
29470,30360,-2.9999999999999997e-05,-2e-05,2.9999999999999997e-05,-5.9999999999999995e-05,0.00035,-1e-05,-0.00021,0.0,6
29471,30361,-2.9999999999999997e-05,-2e-05,2.9999999999999997e-05,-5.9999999999999995e-05,0.00035,-1e-05,-0.00021,0.0,6
29472,30362,-2.9999999999999997e-05,-2e-05,2.9999999999999997e-05,-5.9999999999999995e-05,0.00035,-1e-05,-0.00021,0.0,6
29473,30363,-2.9999999999999997e-05,-2e-05,2.9999999999999997e-05,-5.9999999999999995e-05,0.00035,-1e-05,-0.00021,0.0,6
29474,30364,-2.9999999999999997e-05,-2e-05,2.9999999999999997e-05,-5.9999999999999995e-05,0.00035,-1e-05,-0.00021,0.0,6
29475,30365,-2.9999999999999997e-05,-2e-05,2.9999999999999997e-05,-5.9999999999999995e-05,0.00035,-1e-05,-0.00021,0.0,6
29476,30366,-2.9999999999999997e-05,-2e-05,2.9999999999999997e-05,-5.9999999999999995e-05,0.00035,-1e-05,-0.00021,0.0,6
29477,30367,-2.9999999999999997e-05,-2e-05,2.9999999999999997e-05,-5.9999999999999995e-05,0.00035,-1e-05,-0.00021,0.0,6
29478,30368,1e-05,0.0,-2e-05,0.00011999999999999999,0.00015,8e-05,8e-05,1e-05,6
29479,30369,1e-05,0.0,-2e-05,0.00011999999999999999,0.00015,8e-05,8e-05,1e-05,6
29480,30370,-1e-05,2e-05,0.0,-0.00016999999999999999,0.00015,8e-05,-0.0001,2e-05,6
29481,30371,-1e-05,2e-05,0.0,-0.00016999999999999999,0.00015,8e-05,-0.0001,2e-05,6
29482,30372,-1e-05,2e-05,0.0,-0.00016999999999999999,0.00015,8e-05,-0.0001,2e-05,6
29483,30373,-1e-05,2e-05,0.0,-0.00016999999999999999,0.00015,8e-05,-0.0001,2e-05,6
29484,30374,-1e-05,2e-05,0.0,-0.00016999999999999999,0.00015,8e-05,-0.0001,2e-05,6
29485,30375,-1e-05,2e-05,0.0,-0.00016999999999999999,0.00015,8e-05,-0.0001,2e-05,6
29486,30376,-1e-05,2e-05,0.0,-0.00016999999999999999,0.00015,8e-05,-0.0001,2e-05,6
29487,30377,-1e-05,2e-05,0.0,-0.00016999999999999999,0.00015,8e-05,-0.0001,2e-05,6
29488,30378,-1e-05,2e-05,0.0,-0.00016999999999999999,0.00015,8e-05,-0.0001,2e-05,6
29489,30379,-1e-05,2e-05,0.0,-0.00016999999999999999,0.00015,8e-05,-0.0001,2e-05,6
29490,30380,-1e-05,2e-05,0.0,-0.00016999999999999999,0.00015,8e-05,-0.0001,2e-05,6
29491,30381,-1e-05,2e-05,0.0,-0.00016999999999999999,0.00015,8e-05,-0.0001,2e-05,6
29492,30382,-1e-05,2e-05,0.0,-0.00016999999999999999,0.00015,8e-05,-0.0001,2e-05,6
29493,30383,-1e-05,2e-05,0.0,-0.00016999999999999999,0.00015,8e-05,-0.0001,2e-05,6
29494,30384,-1e-05,2e-05,0.0,-0.00016999999999999999,0.00015,8e-05,-0.0001,2e-05,6
29495,30385,-1e-05,2e-05,0.0,-0.00016999999999999999,0.00015,8e-05,-0.0001,2e-05,6
29496,30386,-1e-05,2e-05,0.0,-0.00016999999999999999,0.00015,8e-05,-0.0001,2e-05,6
29497,30388,-1e-05,2e-05,0.0,-0.00016999999999999999,0.00015,8e-05,-0.0001,2e-05,6
29498,30389,-1e-05,2e-05,0.0,-0.00016999999999999999,0.00015,8e-05,-0.0001,2e-05,6
29499,30390,-1e-05,2e-05,0.0,-0.00016999999999999999,0.00015,8e-05,-0.0001,2e-05,6
29500,30391,2e-05,-2e-05,-8e-05,-7e-05,0.0008900000000000001,0.00022,-0.00015,-0.00035,6
29501,30392,2e-05,-2e-05,-8e-05,-7e-05,0.0008900000000000001,0.00022,-0.00015,-0.00035,6
29502,30393,-5.9999999999999995e-05,-5e-05,-0.00013000000000000002,-4e-05,-0.00022,7e-05,-5.9999999999999995e-05,-2e-05,6
29503,30394,-5.9999999999999995e-05,-5e-05,-0.00013000000000000002,-4e-05,-0.00022,7e-05,-5.9999999999999995e-05,-2e-05,6
29504,30395,-5.9999999999999995e-05,-5e-05,-0.00013000000000000002,-4e-05,-0.00022,7e-05,-5.9999999999999995e-05,-2e-05,6
29505,30396,-5.9999999999999995e-05,-5e-05,-0.00013000000000000002,-4e-05,-0.00022,7e-05,-5.9999999999999995e-05,-2e-05,6
29506,30397,-5.9999999999999995e-05,-5e-05,-0.00013000000000000002,-4e-05,-0.00022,7e-05,-5.9999999999999995e-05,-2e-05,6
29507,30398,-5.9999999999999995e-05,-5e-05,-0.00013000000000000002,-4e-05,-0.00022,7e-05,-5.9999999999999995e-05,-2e-05,6
29508,30399,-5.9999999999999995e-05,-5e-05,-0.00013000000000000002,-4e-05,-0.00022,7e-05,-5.9999999999999995e-05,-2e-05,6
29509,30400,-5.9999999999999995e-05,-5e-05,-0.00013000000000000002,-4e-05,-0.00022,7e-05,-5.9999999999999995e-05,-2e-05,6
29510,30401,-5.9999999999999995e-05,-5e-05,-0.00013000000000000002,-4e-05,-0.00022,7e-05,-5.9999999999999995e-05,-2e-05,6
29511,30402,-5.9999999999999995e-05,-5e-05,-0.00013000000000000002,-4e-05,-0.00022,7e-05,-5.9999999999999995e-05,-2e-05,6
29512,30403,-5.9999999999999995e-05,-5e-05,-0.00013000000000000002,-4e-05,-0.00022,7e-05,-5.9999999999999995e-05,-2e-05,6
29513,30404,-5.9999999999999995e-05,-5e-05,-0.00013000000000000002,-4e-05,-0.00022,7e-05,-5.9999999999999995e-05,-2e-05,6
29514,30405,-5.9999999999999995e-05,-5e-05,-0.00013000000000000002,-4e-05,-0.00022,7e-05,-5.9999999999999995e-05,-2e-05,6
29515,30406,-5.9999999999999995e-05,-5e-05,-0.00013000000000000002,-4e-05,-0.00022,7e-05,-5.9999999999999995e-05,-2e-05,6
29516,30407,-5.9999999999999995e-05,-5e-05,-0.00013000000000000002,-4e-05,-0.00022,7e-05,-5.9999999999999995e-05,-2e-05,6
29517,30408,-5.9999999999999995e-05,-5e-05,-0.00013000000000000002,-4e-05,-0.00022,7e-05,-5.9999999999999995e-05,-2e-05,6
29518,30409,-5.9999999999999995e-05,-5e-05,-0.00013000000000000002,-4e-05,-0.00022,7e-05,-5.9999999999999995e-05,-2e-05,6
29519,30410,-5.9999999999999995e-05,-5e-05,-0.00013000000000000002,-4e-05,-0.00022,7e-05,-5.9999999999999995e-05,-2e-05,6
29520,30411,-5.9999999999999995e-05,-5e-05,-0.00013000000000000002,-4e-05,-0.00022,7e-05,-5.9999999999999995e-05,-2e-05,6
29521,30412,-5.9999999999999995e-05,-5e-05,-0.00013000000000000002,-4e-05,-0.00022,7e-05,-5.9999999999999995e-05,-2e-05,6
29522,30413,-5.9999999999999995e-05,-5e-05,-0.00013000000000000002,-4e-05,-0.00022,7e-05,-5.9999999999999995e-05,-2e-05,6
29523,30414,-5.9999999999999995e-05,-5e-05,-0.00013000000000000002,-4e-05,-0.00022,7e-05,-5.9999999999999995e-05,-2e-05,6
29524,30415,-5.9999999999999995e-05,-5e-05,-0.00013000000000000002,-4e-05,-0.00022,7e-05,-5.9999999999999995e-05,-2e-05,6
29525,30416,-5.9999999999999995e-05,-5e-05,-0.00013000000000000002,-4e-05,-0.00022,7e-05,-5.9999999999999995e-05,-2e-05,6
29526,30417,-5.9999999999999995e-05,-5e-05,-0.00013000000000000002,-4e-05,-0.00022,7e-05,-5.9999999999999995e-05,-2e-05,6
29527,30418,-5.9999999999999995e-05,-5e-05,-0.00013000000000000002,-4e-05,-0.00022,7e-05,-5.9999999999999995e-05,-2e-05,6
29528,30419,-5.9999999999999995e-05,-5e-05,-0.00013000000000000002,-4e-05,-0.00022,7e-05,-5.9999999999999995e-05,-2e-05,6
29529,30420,-5.9999999999999995e-05,-5e-05,-0.00013000000000000002,-4e-05,-0.00022,7e-05,-5.9999999999999995e-05,-2e-05,6
29530,30421,-2e-05,-7e-05,1e-05,0.00025,-0.00045,-5e-05,0.00016,8e-05,6
29531,30422,-2e-05,-7e-05,1e-05,0.00025,-0.00045,-5e-05,0.00016,8e-05,6
29532,30423,-1e-05,-2.9999999999999997e-05,-5e-05,-0.00053,-1e-05,-0.00011,5.9999999999999995e-05,-9e-05,6
29533,30424,-1e-05,-2.9999999999999997e-05,-5e-05,-0.00053,-1e-05,-0.00011,5.9999999999999995e-05,-9e-05,6
29534,30425,-1e-05,-2.9999999999999997e-05,-5e-05,-0.00053,-1e-05,-0.00011,5.9999999999999995e-05,-9e-05,6
29535,30426,-1e-05,-2.9999999999999997e-05,-5e-05,-0.00053,-1e-05,-0.00011,5.9999999999999995e-05,-9e-05,6
29536,30427,-1e-05,-2.9999999999999997e-05,-5e-05,-0.00053,-1e-05,-0.00011,5.9999999999999995e-05,-9e-05,6
29537,30428,-2e-05,-1e-05,-8e-05,-0.00036,-0.00018,-5e-05,-5.9999999999999995e-05,2e-05,6
29538,30429,-2e-05,-1e-05,-8e-05,-0.00036,-0.00018,-5e-05,-5.9999999999999995e-05,2e-05,6
29539,30430,2e-05,1e-05,-2.9999999999999997e-05,7e-05,0.00023999999999999998,-0.00023999999999999998,-0.00021,9e-05,6
29540,30431,2e-05,1e-05,-2.9999999999999997e-05,7e-05,0.00023999999999999998,-0.00023999999999999998,-0.00021,9e-05,6
29541,30432,2e-05,1e-05,-2.9999999999999997e-05,7e-05,0.00023999999999999998,-0.00023999999999999998,-0.00021,9e-05,6
29542,30433,2e-05,1e-05,-2.9999999999999997e-05,7e-05,0.00023999999999999998,-0.00023999999999999998,-0.00021,9e-05,6
29543,30434,2e-05,1e-05,-2.9999999999999997e-05,7e-05,0.00023999999999999998,-0.00023999999999999998,-0.00021,9e-05,6
29544,30435,2e-05,1e-05,-2.9999999999999997e-05,7e-05,0.00023999999999999998,-0.00023999999999999998,-0.00021,9e-05,6
29545,30436,2e-05,1e-05,-2.9999999999999997e-05,7e-05,0.00023999999999999998,-0.00023999999999999998,-0.00021,9e-05,6
29546,30438,2e-05,1e-05,-2.9999999999999997e-05,7e-05,0.00023999999999999998,-0.00023999999999999998,-0.00021,9e-05,6
29547,30439,2e-05,1e-05,-2.9999999999999997e-05,7e-05,0.00023999999999999998,-0.00023999999999999998,-0.00021,9e-05,6
29548,30440,2e-05,1e-05,-2.9999999999999997e-05,7e-05,0.00023999999999999998,-0.00023999999999999998,-0.00021,9e-05,6
29549,30441,2e-05,1e-05,-2.9999999999999997e-05,7e-05,0.00023999999999999998,-0.00023999999999999998,-0.00021,9e-05,6
29550,30442,2e-05,1e-05,-2.9999999999999997e-05,7e-05,0.00023999999999999998,-0.00023999999999999998,-0.00021,9e-05,6
29551,30443,1e-05,-1e-05,5.9999999999999995e-05,9e-05,0.00022999999999999998,5.9999999999999995e-05,4e-05,5e-05,6
29552,30444,1e-05,-1e-05,5.9999999999999995e-05,9e-05,0.00022999999999999998,5.9999999999999995e-05,4e-05,5e-05,6
29553,30445,1e-05,-1e-05,5.9999999999999995e-05,9e-05,0.00022999999999999998,5.9999999999999995e-05,4e-05,5e-05,6
29554,30446,1e-05,-1e-05,5.9999999999999995e-05,9e-05,0.00022999999999999998,5.9999999999999995e-05,4e-05,5e-05,6
29555,30447,1e-05,-1e-05,5.9999999999999995e-05,9e-05,0.00022999999999999998,5.9999999999999995e-05,4e-05,5e-05,6
29556,30448,1e-05,-1e-05,5.9999999999999995e-05,9e-05,0.00022999999999999998,5.9999999999999995e-05,4e-05,5e-05,6
29557,30449,1e-05,-1e-05,5.9999999999999995e-05,9e-05,0.00022999999999999998,5.9999999999999995e-05,4e-05,5e-05,6
29558,30450,1e-05,-2e-05,1e-05,0.00032,-0.00032,0.0001,-8e-05,-7e-05,6
29559,30451,1e-05,-2e-05,1e-05,0.00032,-0.00032,0.0001,-8e-05,-7e-05,6
29560,30452,1e-05,-2e-05,1e-05,0.00032,-0.00032,0.0001,-8e-05,-7e-05,6
29561,30453,1e-05,-2e-05,1e-05,0.00032,-0.00032,0.0001,-8e-05,-7e-05,6
29562,30454,1e-05,-2e-05,1e-05,0.00032,-0.00032,0.0001,-8e-05,-7e-05,6
29563,30455,1e-05,-2e-05,1e-05,0.00032,-0.00032,0.0001,-8e-05,-7e-05,6
29564,30456,1e-05,-2e-05,1e-05,0.00032,-0.00032,0.0001,-8e-05,-7e-05,6
29565,30457,1e-05,-2e-05,1e-05,0.00032,-0.00032,0.0001,-8e-05,-7e-05,6
29566,30458,1e-05,-2e-05,1e-05,0.00032,-0.00032,0.0001,-8e-05,-7e-05,6
29567,30459,1e-05,-2e-05,1e-05,0.00032,-0.00032,0.0001,-8e-05,-7e-05,6
