,time,channel1,channel2,channel3,channel4,channel5,channel6,channel7,channel8,class
5164,5375,0.0001,-1e-05,0.0,4e-05,2e-05,0.00015,2.9999999999999997e-05,8e-05,2
5165,5376,0.0001,-1e-05,0.0,4e-05,2e-05,0.00015,2.9999999999999997e-05,8e-05,2
5166,5377,0.0001,-1e-05,0.0,4e-05,2e-05,0.00015,2.9999999999999997e-05,8e-05,2
5167,5378,0.0001,-1e-05,0.0,4e-05,2e-05,0.00015,2.9999999999999997e-05,8e-05,2
5168,5379,0.0001,-1e-05,0.0,4e-05,2e-05,0.00015,2.9999999999999997e-05,8e-05,2
5169,5380,0.0001,-1e-05,0.0,4e-05,2e-05,0.00015,2.9999999999999997e-05,8e-05,2
5170,5381,0.0001,-1e-05,0.0,4e-05,2e-05,0.00015,2.9999999999999997e-05,8e-05,2
5171,5382,0.0001,-1e-05,0.0,4e-05,2e-05,0.00015,2.9999999999999997e-05,8e-05,2
5172,5383,0.0001,-1e-05,0.0,4e-05,2e-05,0.00015,2.9999999999999997e-05,8e-05,2
5173,5384,0.0001,-1e-05,0.0,4e-05,2e-05,0.00015,2.9999999999999997e-05,8e-05,2
5174,5385,0.0001,-1e-05,0.0,4e-05,2e-05,0.00015,2.9999999999999997e-05,8e-05,2
5175,5386,0.0001,-1e-05,0.0,4e-05,2e-05,0.00015,2.9999999999999997e-05,8e-05,2
5176,5389,0.0001,-1e-05,0.0,4e-05,2e-05,0.00015,2.9999999999999997e-05,8e-05,2
5177,5390,0.0001,-1e-05,0.0,4e-05,2e-05,0.00015,2.9999999999999997e-05,8e-05,2
5178,5391,0.0001,-1e-05,0.0,4e-05,2e-05,0.00015,2.9999999999999997e-05,8e-05,2
5179,5392,0.0001,-1e-05,0.0,4e-05,2e-05,0.00015,2.9999999999999997e-05,8e-05,2
5180,5393,0.0001,-1e-05,0.0,4e-05,2e-05,0.00015,2.9999999999999997e-05,8e-05,2
5181,5394,-4e-05,-2e-05,0.0,5.9999999999999995e-05,2e-05,5e-05,5.9999999999999995e-05,1e-05,2
5182,5395,-2e-05,2e-05,4e-05,-5.9999999999999995e-05,-2.9999999999999997e-05,-5.9999999999999995e-05,-0.00016999999999999999,-2.9999999999999997e-05,2
5183,5397,-2e-05,2e-05,4e-05,-5.9999999999999995e-05,-2.9999999999999997e-05,-5.9999999999999995e-05,-0.00016999999999999999,-2.9999999999999997e-05,2
5184,5398,-2e-05,2e-05,4e-05,-5.9999999999999995e-05,-2.9999999999999997e-05,-5.9999999999999995e-05,-0.00016999999999999999,-2.9999999999999997e-05,2
5185,5399,-2e-05,2e-05,4e-05,-5.9999999999999995e-05,-2.9999999999999997e-05,-5.9999999999999995e-05,-0.00016999999999999999,-2.9999999999999997e-05,2
5186,5400,-2e-05,2e-05,4e-05,-5.9999999999999995e-05,-2.9999999999999997e-05,-5.9999999999999995e-05,-0.00016999999999999999,-2.9999999999999997e-05,2
5187,5401,-2e-05,2e-05,4e-05,-5.9999999999999995e-05,-2.9999999999999997e-05,-5.9999999999999995e-05,-0.00016999999999999999,-2.9999999999999997e-05,2
5188,5402,-2e-05,2e-05,4e-05,-5.9999999999999995e-05,-2.9999999999999997e-05,-5.9999999999999995e-05,-0.00016999999999999999,-2.9999999999999997e-05,2
5189,5403,-2e-05,2e-05,4e-05,-5.9999999999999995e-05,-2.9999999999999997e-05,-5.9999999999999995e-05,-0.00016999999999999999,-2.9999999999999997e-05,2
5190,5404,-2e-05,2e-05,4e-05,-5.9999999999999995e-05,-2.9999999999999997e-05,-5.9999999999999995e-05,-0.00016999999999999999,-2.9999999999999997e-05,2
5191,5405,-2e-05,2e-05,4e-05,-5.9999999999999995e-05,-2.9999999999999997e-05,-5.9999999999999995e-05,-0.00016999999999999999,-2.9999999999999997e-05,2
5192,5406,-2e-05,2e-05,4e-05,-5.9999999999999995e-05,-2.9999999999999997e-05,-5.9999999999999995e-05,-0.00016999999999999999,-2.9999999999999997e-05,2
5193,5407,-2e-05,2e-05,4e-05,-5.9999999999999995e-05,-2.9999999999999997e-05,-5.9999999999999995e-05,-0.00016999999999999999,-2.9999999999999997e-05,2
5194,5408,0.0001,4e-05,0.00018999999999999998,0.00021,1e-05,-4e-05,-0.00011,-5e-05,2
5195,5409,0.0001,4e-05,0.00018999999999999998,0.00021,1e-05,-4e-05,-0.00011,-5e-05,2
5196,5410,0.0001,4e-05,0.00018999999999999998,0.00021,1e-05,-4e-05,-0.00011,-5e-05,2
5197,5411,0.0001,4e-05,0.00018999999999999998,0.00021,1e-05,-4e-05,-0.00011,-5e-05,2
5198,5412,0.0001,4e-05,0.00018999999999999998,0.00021,1e-05,-4e-05,-0.00011,-5e-05,2
5199,5413,0.0001,4e-05,0.00018999999999999998,0.00021,1e-05,-4e-05,-0.00011,-5e-05,2
5200,5414,0.0001,4e-05,0.00018999999999999998,0.00021,1e-05,-4e-05,-0.00011,-5e-05,2
5201,5415,-0.00011,-5.9999999999999995e-05,-0.0001,9e-05,-1e-05,-0.00013000000000000002,-0.0004,-0.00021,2
5202,5416,-0.00011,-5.9999999999999995e-05,-0.0001,9e-05,-1e-05,-0.00013000000000000002,-0.0004,-0.00021,2
5203,5417,-0.00011,-5.9999999999999995e-05,-0.0001,9e-05,-1e-05,-0.00013000000000000002,-0.0004,-0.00021,2
5204,5418,-0.00011,-5.9999999999999995e-05,-0.0001,9e-05,-1e-05,-0.00013000000000000002,-0.0004,-0.00021,2
5205,5419,-0.00011,-5.9999999999999995e-05,-0.0001,9e-05,-1e-05,-0.00013000000000000002,-0.0004,-0.00021,2
5206,5420,-0.00011,-5.9999999999999995e-05,-0.0001,9e-05,-1e-05,-0.00013000000000000002,-0.0004,-0.00021,2
5207,5421,-0.00011,-5.9999999999999995e-05,-0.0001,9e-05,-1e-05,-0.00013000000000000002,-0.0004,-0.00021,2
5208,5422,-0.00011,-5.9999999999999995e-05,-0.0001,9e-05,-1e-05,-0.00013000000000000002,-0.0004,-0.00021,2
5209,5423,-0.00011,-5.9999999999999995e-05,-0.0001,9e-05,-1e-05,-0.00013000000000000002,-0.0004,-0.00021,2
5210,5424,-0.00011,-5.9999999999999995e-05,-0.0001,9e-05,-1e-05,-0.00013000000000000002,-0.0004,-0.00021,2
5211,5425,-0.00011,-5.9999999999999995e-05,-0.0001,9e-05,-1e-05,-0.00013000000000000002,-0.0004,-0.00021,2
5212,5426,-0.00011,-5.9999999999999995e-05,-0.0001,9e-05,-1e-05,-0.00013000000000000002,-0.0004,-0.00021,2
5213,5427,-0.00011,-5.9999999999999995e-05,-0.0001,9e-05,-1e-05,-0.00013000000000000002,-0.0004,-0.00021,2
5214,5428,-0.00011,-5.9999999999999995e-05,-0.0001,9e-05,-1e-05,-0.00013000000000000002,-0.0004,-0.00021,2
5215,5429,-0.00011,-5.9999999999999995e-05,-0.0001,9e-05,-1e-05,-0.00013000000000000002,-0.0004,-0.00021,2
5216,5430,-0.00011,-5.9999999999999995e-05,-0.0001,9e-05,-1e-05,-0.00013000000000000002,-0.0004,-0.00021,2
5217,5431,5e-05,-0.0001,-0.00022999999999999998,0.00022,-1e-05,0.00011,0.00015,5e-05,2
5218,5432,5e-05,-0.0001,-0.00022999999999999998,0.00022,-1e-05,0.00011,0.00015,5e-05,2
5219,5433,-4e-05,2e-05,-0.00014,-0.0001,-5.9999999999999995e-05,-9e-05,-0.0001,-5e-05,2
5220,5434,-4e-05,2e-05,-0.00014,-0.0001,-5.9999999999999995e-05,-9e-05,-0.0001,-5e-05,2
5221,5435,-4e-05,2e-05,-0.00014,-0.0001,-5.9999999999999995e-05,-9e-05,-0.0001,-5e-05,2
5222,5436,-4e-05,2e-05,-0.00014,-0.0001,-5.9999999999999995e-05,-9e-05,-0.0001,-5e-05,2
5223,5439,-4e-05,2e-05,-0.00014,-0.0001,-5.9999999999999995e-05,-9e-05,-0.0001,-5e-05,2
5224,5440,-4e-05,2e-05,-0.00014,-0.0001,-5.9999999999999995e-05,-9e-05,-0.0001,-5e-05,2
5225,5441,-4e-05,2e-05,-0.00014,-0.0001,-5.9999999999999995e-05,-9e-05,-0.0001,-5e-05,2
5226,5442,-4e-05,2e-05,-0.00014,-0.0001,-5.9999999999999995e-05,-9e-05,-0.0001,-5e-05,2
5227,5443,-4e-05,2e-05,-0.00014,-0.0001,-5.9999999999999995e-05,-9e-05,-0.0001,-5e-05,2
5228,5444,-4e-05,2e-05,-0.00014,-0.0001,-5.9999999999999995e-05,-9e-05,-0.0001,-5e-05,2
5229,5445,-4e-05,2e-05,-0.00014,-0.0001,-5.9999999999999995e-05,-9e-05,-0.0001,-5e-05,2
5230,5446,-4e-05,2e-05,-0.00014,-0.0001,-5.9999999999999995e-05,-9e-05,-0.0001,-5e-05,2
5231,5447,-4e-05,2e-05,-0.00014,-0.0001,-5.9999999999999995e-05,-9e-05,-0.0001,-5e-05,2
5232,5448,-4e-05,2e-05,-0.00014,-0.0001,-5.9999999999999995e-05,-9e-05,-0.0001,-5e-05,2
5233,5449,-4e-05,2e-05,-0.00014,-0.0001,-5.9999999999999995e-05,-9e-05,-0.0001,-5e-05,2
5234,5450,-4e-05,2e-05,-0.00014,-0.0001,-5.9999999999999995e-05,-9e-05,-0.0001,-5e-05,2
5235,5451,-4e-05,2e-05,-0.00014,-0.0001,-5.9999999999999995e-05,-9e-05,-0.0001,-5e-05,2
5236,5452,-4e-05,2e-05,-0.00014,-0.0001,-5.9999999999999995e-05,-9e-05,-0.0001,-5e-05,2
5237,5453,-4e-05,2e-05,-0.00014,-0.0001,-5.9999999999999995e-05,-9e-05,-0.0001,-5e-05,2
5238,5454,2e-05,0.0,0.00015,4e-05,2e-05,5.9999999999999995e-05,-5.9999999999999995e-05,-2e-05,2
5239,5455,-2.9999999999999997e-05,-5e-05,-9e-05,-0.00027,-4e-05,7e-05,0.00036,0.0001,2
5240,5456,-2.9999999999999997e-05,-5e-05,-9e-05,-0.00027,-4e-05,7e-05,0.00036,0.0001,2
5241,5457,-2.9999999999999997e-05,-5e-05,-9e-05,-0.00027,-4e-05,7e-05,0.00036,0.0001,2
5242,5458,-2.9999999999999997e-05,-5e-05,-9e-05,-0.00027,-4e-05,7e-05,0.00036,0.0001,2
5243,5459,-2.9999999999999997e-05,-5e-05,-9e-05,-0.00027,-4e-05,7e-05,0.00036,0.0001,2
5244,5460,-2.9999999999999997e-05,-5e-05,-9e-05,-0.00027,-4e-05,7e-05,0.00036,0.0001,2
5245,5461,-2.9999999999999997e-05,-5e-05,-9e-05,-0.00027,-4e-05,7e-05,0.00036,0.0001,2
5246,5462,-2.9999999999999997e-05,-5e-05,-9e-05,-0.00027,-4e-05,7e-05,0.00036,0.0001,2
5247,5463,-2.9999999999999997e-05,-5e-05,-9e-05,-0.00027,-4e-05,7e-05,0.00036,0.0001,2
5248,5464,-2.9999999999999997e-05,-5e-05,-9e-05,-0.00027,-4e-05,7e-05,0.00036,0.0001,2
5249,5465,-2.9999999999999997e-05,-5e-05,-9e-05,-0.00027,-4e-05,7e-05,0.00036,0.0001,2
5250,5466,-2.9999999999999997e-05,-5e-05,-9e-05,-0.00027,-4e-05,7e-05,0.00036,0.0001,2
5251,5467,-2.9999999999999997e-05,-5e-05,-9e-05,-0.00027,-4e-05,7e-05,0.00036,0.0001,2
5252,5468,-2e-05,-2.9999999999999997e-05,-0.00026000000000000003,-0.00033999999999999997,-1e-05,-7e-05,-0.00057,-5.9999999999999995e-05,2
5253,5469,-2e-05,-2.9999999999999997e-05,-0.00026000000000000003,-0.00033999999999999997,-1e-05,-7e-05,-0.00057,-5.9999999999999995e-05,2
5254,5470,-2e-05,-2.9999999999999997e-05,-0.00026000000000000003,-0.00033999999999999997,-1e-05,-7e-05,-0.00057,-5.9999999999999995e-05,2
5255,5471,-2e-05,-2.9999999999999997e-05,-0.00026000000000000003,-0.00033999999999999997,-1e-05,-7e-05,-0.00057,-5.9999999999999995e-05,2
5256,5472,-2e-05,-2.9999999999999997e-05,-0.00026000000000000003,-0.00033999999999999997,-1e-05,-7e-05,-0.00057,-5.9999999999999995e-05,2
5257,5473,-2e-05,-2.9999999999999997e-05,-0.00026000000000000003,-0.00033999999999999997,-1e-05,-7e-05,-0.00057,-5.9999999999999995e-05,2
5258,5474,-2e-05,-2.9999999999999997e-05,-0.00026000000000000003,-0.00033999999999999997,-1e-05,-7e-05,-0.00057,-5.9999999999999995e-05,2
5259,5475,0.0,0.0,4e-05,9e-05,-1e-05,-5.9999999999999995e-05,-0.00029,7e-05,2
5260,5476,0.0,0.0,4e-05,9e-05,-1e-05,-5.9999999999999995e-05,-0.00029,7e-05,2
5261,5477,0.0,0.0,4e-05,9e-05,-1e-05,-5.9999999999999995e-05,-0.00029,7e-05,2
5262,5478,0.0,0.0,4e-05,9e-05,-1e-05,-5.9999999999999995e-05,-0.00029,7e-05,2
5263,5479,0.0,0.0,4e-05,9e-05,-1e-05,-5.9999999999999995e-05,-0.00029,7e-05,2
5264,5480,0.0,0.0,4e-05,9e-05,-1e-05,-5.9999999999999995e-05,-0.00029,7e-05,2
5265,5481,0.0,0.0,4e-05,9e-05,-1e-05,-5.9999999999999995e-05,-0.00029,7e-05,2
5266,5482,0.0,0.0,4e-05,9e-05,-1e-05,-5.9999999999999995e-05,-0.00029,7e-05,2
5267,5483,0.0,0.0,4e-05,9e-05,-1e-05,-5.9999999999999995e-05,-0.00029,7e-05,2
5268,5484,0.0,0.0,4e-05,9e-05,-1e-05,-5.9999999999999995e-05,-0.00029,7e-05,2
5269,5485,0.0,0.0,4e-05,9e-05,-1e-05,-5.9999999999999995e-05,-0.00029,7e-05,2
5270,5486,0.0,0.0,4e-05,9e-05,-1e-05,-5.9999999999999995e-05,-0.00029,7e-05,2
5271,5489,0.0,0.0,4e-05,9e-05,-1e-05,-5.9999999999999995e-05,-0.00029,7e-05,2
5272,5490,0.0,0.0,4e-05,9e-05,-1e-05,-5.9999999999999995e-05,-0.00029,7e-05,2
5273,5491,-0.00011999999999999999,-2e-05,5e-05,0.0001,2e-05,-0.00016,-0.00035,-0.00025,2
5274,5492,-0.00011999999999999999,-2e-05,5e-05,0.0001,2e-05,-0.00016,-0.00035,-0.00025,2
5275,5493,8e-05,1e-05,5.9999999999999995e-05,2e-05,-1e-05,9e-05,-0.00015,4e-05,2
5276,5494,8e-05,1e-05,5.9999999999999995e-05,2e-05,-1e-05,9e-05,-0.00015,4e-05,2
5277,5495,8e-05,1e-05,5.9999999999999995e-05,2e-05,-1e-05,9e-05,-0.00015,4e-05,2
5278,5496,8e-05,1e-05,5.9999999999999995e-05,2e-05,-1e-05,9e-05,-0.00015,4e-05,2
5279,5497,8e-05,1e-05,5.9999999999999995e-05,2e-05,-1e-05,9e-05,-0.00015,4e-05,2
5280,5498,8e-05,1e-05,5.9999999999999995e-05,2e-05,-1e-05,9e-05,-0.00015,4e-05,2
5281,5499,8e-05,1e-05,5.9999999999999995e-05,2e-05,-1e-05,9e-05,-0.00015,4e-05,2
5282,5500,8e-05,1e-05,5.9999999999999995e-05,2e-05,-1e-05,9e-05,-0.00015,4e-05,2
5283,5501,8e-05,1e-05,5.9999999999999995e-05,2e-05,-1e-05,9e-05,-0.00015,4e-05,2
5284,5502,8e-05,1e-05,5.9999999999999995e-05,2e-05,-1e-05,9e-05,-0.00015,4e-05,2
5285,5503,8e-05,1e-05,5.9999999999999995e-05,2e-05,-1e-05,9e-05,-0.00015,4e-05,2
5286,5504,8e-05,1e-05,5.9999999999999995e-05,2e-05,-1e-05,9e-05,-0.00015,4e-05,2
5287,5505,8e-05,1e-05,5.9999999999999995e-05,2e-05,-1e-05,9e-05,-0.00015,4e-05,2
5288,5506,8e-05,1e-05,5.9999999999999995e-05,2e-05,-1e-05,9e-05,-0.00015,4e-05,2
5289,5507,8e-05,1e-05,5.9999999999999995e-05,2e-05,-1e-05,9e-05,-0.00015,4e-05,2
5290,5508,8e-05,1e-05,5.9999999999999995e-05,2e-05,-1e-05,9e-05,-0.00015,4e-05,2
5291,5509,8e-05,1e-05,5.9999999999999995e-05,2e-05,-1e-05,9e-05,-0.00015,4e-05,2
5292,5510,8e-05,1e-05,5.9999999999999995e-05,2e-05,-1e-05,9e-05,-0.00015,4e-05,2
5293,5511,8e-05,1e-05,5.9999999999999995e-05,2e-05,-1e-05,9e-05,-0.00015,4e-05,2
5294,5512,8e-05,1e-05,5.9999999999999995e-05,2e-05,-1e-05,9e-05,-0.00015,4e-05,2
5295,5513,8e-05,1e-05,5.9999999999999995e-05,2e-05,-1e-05,9e-05,-0.00015,4e-05,2
5296,5514,-8e-05,-2.9999999999999997e-05,-2.9999999999999997e-05,2.9999999999999997e-05,-2.9999999999999997e-05,-0.00011,-0.00016,-0.00011,2
5297,5515,-0.00011999999999999999,-1e-05,1e-05,2.9999999999999997e-05,4e-05,-0.0001,0.00021,-2.9999999999999997e-05,2
5298,5517,-0.00011999999999999999,-1e-05,1e-05,2.9999999999999997e-05,4e-05,-0.0001,0.00021,-2.9999999999999997e-05,2
5299,5518,-0.00011999999999999999,-1e-05,1e-05,2.9999999999999997e-05,4e-05,-0.0001,0.00021,-2.9999999999999997e-05,2
5300,5519,-0.00011999999999999999,-1e-05,1e-05,2.9999999999999997e-05,4e-05,-0.0001,0.00021,-2.9999999999999997e-05,2
5301,5520,-0.00011999999999999999,-1e-05,1e-05,2.9999999999999997e-05,4e-05,-0.0001,0.00021,-2.9999999999999997e-05,2
5302,5521,-0.00011999999999999999,-1e-05,1e-05,2.9999999999999997e-05,4e-05,-0.0001,0.00021,-2.9999999999999997e-05,2
5303,5522,-0.00011999999999999999,-1e-05,1e-05,2.9999999999999997e-05,4e-05,-0.0001,0.00021,-2.9999999999999997e-05,2
5304,5523,-0.00011999999999999999,-1e-05,1e-05,2.9999999999999997e-05,4e-05,-0.0001,0.00021,-2.9999999999999997e-05,2
5305,5524,-0.00011999999999999999,-1e-05,1e-05,2.9999999999999997e-05,4e-05,-0.0001,0.00021,-2.9999999999999997e-05,2
5306,5525,-0.00011999999999999999,-1e-05,1e-05,2.9999999999999997e-05,4e-05,-0.0001,0.00021,-2.9999999999999997e-05,2
5307,5526,-0.00011999999999999999,-1e-05,1e-05,2.9999999999999997e-05,4e-05,-0.0001,0.00021,-2.9999999999999997e-05,2
5308,5527,-0.00011999999999999999,-1e-05,1e-05,2.9999999999999997e-05,4e-05,-0.0001,0.00021,-2.9999999999999997e-05,2
5309,5528,0.0001,4e-05,0.0001,-0.00021,-2e-05,-5e-05,-4e-05,2.9999999999999997e-05,2
5310,5529,0.0001,4e-05,0.0001,-0.00021,-2e-05,-5e-05,-4e-05,2.9999999999999997e-05,2
5311,5530,0.0001,4e-05,0.0001,-0.00021,-2e-05,-5e-05,-4e-05,2.9999999999999997e-05,2
5312,5531,0.0001,4e-05,0.0001,-0.00021,-2e-05,-5e-05,-4e-05,2.9999999999999997e-05,2
5313,5532,0.0001,4e-05,0.0001,-0.00021,-2e-05,-5e-05,-4e-05,2.9999999999999997e-05,2
5314,5533,0.0001,4e-05,0.0001,-0.00021,-2e-05,-5e-05,-4e-05,2.9999999999999997e-05,2
5315,5534,0.0001,4e-05,0.0001,-0.00021,-2e-05,-5e-05,-4e-05,2.9999999999999997e-05,2
5316,5535,4e-05,2.9999999999999997e-05,-1e-05,-2.9999999999999997e-05,2.9999999999999997e-05,0.00021,0.00028,1e-05,2
5317,5536,4e-05,2.9999999999999997e-05,-1e-05,-2.9999999999999997e-05,2.9999999999999997e-05,0.00021,0.00028,1e-05,2
5318,5538,4e-05,2.9999999999999997e-05,-1e-05,-2.9999999999999997e-05,2.9999999999999997e-05,0.00021,0.00028,1e-05,2
5319,5539,4e-05,2.9999999999999997e-05,-1e-05,-2.9999999999999997e-05,2.9999999999999997e-05,0.00021,0.00028,1e-05,2
5320,5540,4e-05,2.9999999999999997e-05,-1e-05,-2.9999999999999997e-05,2.9999999999999997e-05,0.00021,0.00028,1e-05,2
5321,5541,4e-05,2.9999999999999997e-05,-1e-05,-2.9999999999999997e-05,2.9999999999999997e-05,0.00021,0.00028,1e-05,2
5322,5542,4e-05,2.9999999999999997e-05,-1e-05,-2.9999999999999997e-05,2.9999999999999997e-05,0.00021,0.00028,1e-05,2
5323,5543,4e-05,2.9999999999999997e-05,-1e-05,-2.9999999999999997e-05,2.9999999999999997e-05,0.00021,0.00028,1e-05,2
5324,5544,4e-05,2.9999999999999997e-05,-1e-05,-2.9999999999999997e-05,2.9999999999999997e-05,0.00021,0.00028,1e-05,2
5325,5545,4e-05,2.9999999999999997e-05,-1e-05,-2.9999999999999997e-05,2.9999999999999997e-05,0.00021,0.00028,1e-05,2
5326,5546,4e-05,2.9999999999999997e-05,-1e-05,-2.9999999999999997e-05,2.9999999999999997e-05,0.00021,0.00028,1e-05,2
5327,5547,4e-05,2.9999999999999997e-05,-1e-05,-2.9999999999999997e-05,2.9999999999999997e-05,0.00021,0.00028,1e-05,2
5328,5548,4e-05,2.9999999999999997e-05,-1e-05,-2.9999999999999997e-05,2.9999999999999997e-05,0.00021,0.00028,1e-05,2
5329,5549,4e-05,2.9999999999999997e-05,-1e-05,-2.9999999999999997e-05,2.9999999999999997e-05,0.00021,0.00028,1e-05,2
5330,5550,4e-05,2.9999999999999997e-05,-1e-05,-2.9999999999999997e-05,2.9999999999999997e-05,0.00021,0.00028,1e-05,2
5331,5551,4e-05,2.9999999999999997e-05,-1e-05,-2.9999999999999997e-05,2.9999999999999997e-05,0.00021,0.00028,1e-05,2
5332,5552,5e-05,-1e-05,5.9999999999999995e-05,5e-05,-7e-05,-2.9999999999999997e-05,5.9999999999999995e-05,9e-05,2
5333,5553,-1e-05,-7e-05,-0.0001,-0.00014,-1e-05,-0.0001,0.0003,2e-05,2
5334,5554,-1e-05,-7e-05,-0.0001,-0.00014,-1e-05,-0.0001,0.0003,2e-05,2
5335,5555,-1e-05,-7e-05,-0.0001,-0.00014,-1e-05,-0.0001,0.0003,2e-05,2
5336,5556,-1e-05,-7e-05,-0.0001,-0.00014,-1e-05,-0.0001,0.0003,2e-05,2
5337,5557,-1e-05,-7e-05,-0.0001,-0.00014,-1e-05,-0.0001,0.0003,2e-05,2
5338,5558,-1e-05,-7e-05,-0.0001,-0.00014,-1e-05,-0.0001,0.0003,2e-05,2
5339,5559,-1e-05,-7e-05,-0.0001,-0.00014,-1e-05,-0.0001,0.0003,2e-05,2
5340,5560,-1e-05,-7e-05,-0.0001,-0.00014,-1e-05,-0.0001,0.0003,2e-05,2
5341,5561,-1e-05,-7e-05,-0.0001,-0.00014,-1e-05,-0.0001,0.0003,2e-05,2
5342,5562,-1e-05,-7e-05,-0.0001,-0.00014,-1e-05,-0.0001,0.0003,2e-05,2
5343,5563,-1e-05,-7e-05,-0.0001,-0.00014,-1e-05,-0.0001,0.0003,2e-05,2
5344,5564,-1e-05,-7e-05,-0.0001,-0.00014,-1e-05,-0.0001,0.0003,2e-05,2
5345,5565,-1e-05,-7e-05,-0.0001,-0.00014,-1e-05,-0.0001,0.0003,2e-05,2
5346,5566,-1e-05,-7e-05,-0.0001,-0.00014,-1e-05,-0.0001,0.0003,2e-05,2
5347,5567,-1e-05,-7e-05,-0.0001,-0.00014,-1e-05,-0.0001,0.0003,2e-05,2
5348,5568,-1e-05,-7e-05,-0.0001,-0.00014,-1e-05,-0.0001,0.0003,2e-05,2
5349,5569,-1e-05,-7e-05,-0.0001,-0.00014,-1e-05,-0.0001,0.0003,2e-05,2
5350,5570,-1e-05,-7e-05,-0.0001,-0.00014,-1e-05,-0.0001,0.0003,2e-05,2
5351,5571,-1e-05,-7e-05,-0.0001,-0.00014,-1e-05,-0.0001,0.0003,2e-05,2
5352,5572,-1e-05,-7e-05,-0.0001,-0.00014,-1e-05,-0.0001,0.0003,2e-05,2
5353,5573,-1e-05,-7e-05,-0.0001,-0.00014,-1e-05,-0.0001,0.0003,2e-05,2
5354,5574,-1e-05,-7e-05,-0.0001,-0.00014,-1e-05,-0.0001,0.0003,2e-05,2
5355,5575,-1e-05,-7e-05,-0.0001,-0.00014,-1e-05,-0.0001,0.0003,2e-05,2
5356,5576,-1e-05,-7e-05,-0.0001,-0.00014,-1e-05,-0.0001,0.0003,2e-05,2
5357,5577,-1e-05,-7e-05,-0.0001,-0.00014,-1e-05,-0.0001,0.0003,2e-05,2
5358,5578,-1e-05,-7e-05,-0.0001,-0.00014,-1e-05,-0.0001,0.0003,2e-05,2
5359,5579,-1e-05,-7e-05,-0.0001,-0.00014,-1e-05,-0.0001,0.0003,2e-05,2
5360,5580,-1e-05,-7e-05,-0.0001,-0.00014,-1e-05,-0.0001,0.0003,2e-05,2
5361,5581,-2e-05,-4e-05,-0.00014,4e-05,0.0,0.0,0.00039,0.00011,2
5362,5582,-2e-05,-4e-05,-0.00014,4e-05,0.0,0.0,0.00039,0.00011,2
5363,5583,0.00062,0.00016,7e-05,0.00011,7e-05,-9e-05,0.00021,1e-05,2
5364,5584,0.00062,0.00016,7e-05,0.00011,7e-05,-9e-05,0.00021,1e-05,2
5365,5585,0.00062,0.00016,7e-05,0.00011,7e-05,-9e-05,0.00021,1e-05,2
5366,5586,0.00062,0.00016,7e-05,0.00011,7e-05,-9e-05,0.00021,1e-05,2
5367,5588,0.0,-1e-05,-4e-05,-0.0001,1e-05,0.00018999999999999998,0.0,9e-05,2
5368,5590,0.0,-1e-05,-4e-05,-0.0001,1e-05,0.00018999999999999998,0.0,9e-05,2
5369,5591,0.0,-1e-05,-4e-05,-0.0001,1e-05,0.00018999999999999998,0.0,9e-05,2
5370,5592,0.0,-1e-05,-4e-05,-0.0001,1e-05,0.00018999999999999998,0.0,9e-05,2
5371,5593,0.0,-1e-05,-4e-05,-0.0001,1e-05,0.00018999999999999998,0.0,9e-05,2
5372,5594,0.0,-1e-05,-4e-05,-0.0001,1e-05,0.00018999999999999998,0.0,9e-05,2
5373,5595,0.0,-1e-05,-4e-05,-0.0001,1e-05,0.00018999999999999998,0.0,9e-05,2
5374,5596,-4e-05,-7e-05,-0.00014,9e-05,1e-05,-1e-05,-2.9999999999999997e-05,5e-05,2
5375,5598,-4e-05,-7e-05,-0.00014,9e-05,1e-05,-1e-05,-2.9999999999999997e-05,5e-05,2
5376,5599,-4e-05,-7e-05,-0.00014,9e-05,1e-05,-1e-05,-2.9999999999999997e-05,5e-05,2
5377,5600,-4e-05,-7e-05,-0.00014,9e-05,1e-05,-1e-05,-2.9999999999999997e-05,5e-05,2
5378,5601,-4e-05,-7e-05,-0.00014,9e-05,1e-05,-1e-05,-2.9999999999999997e-05,5e-05,2
5379,5602,-4e-05,-7e-05,-0.00014,9e-05,1e-05,-1e-05,-2.9999999999999997e-05,5e-05,2
5380,5603,-4e-05,-7e-05,-0.00014,9e-05,1e-05,-1e-05,-2.9999999999999997e-05,5e-05,2
5381,5604,-4e-05,-7e-05,-0.00014,9e-05,1e-05,-1e-05,-2.9999999999999997e-05,5e-05,2
5382,5605,-4e-05,-7e-05,-0.00014,9e-05,1e-05,-1e-05,-2.9999999999999997e-05,5e-05,2
5383,5606,-4e-05,-7e-05,-0.00014,9e-05,1e-05,-1e-05,-2.9999999999999997e-05,5e-05,2
5384,5607,-4e-05,-7e-05,-0.00014,9e-05,1e-05,-1e-05,-2.9999999999999997e-05,5e-05,2
5385,5608,-4e-05,-7e-05,-0.00014,9e-05,1e-05,-1e-05,-2.9999999999999997e-05,5e-05,2
5386,5609,-4e-05,-7e-05,-0.00014,9e-05,1e-05,-1e-05,-2.9999999999999997e-05,5e-05,2
5387,5610,-4e-05,-7e-05,-0.00014,9e-05,1e-05,-1e-05,-2.9999999999999997e-05,5e-05,2
5388,5611,7e-05,2.9999999999999997e-05,2e-05,-5.9999999999999995e-05,-1e-05,-2e-05,-0.00018,-2.9999999999999997e-05,2
5389,5612,7e-05,2.9999999999999997e-05,2e-05,-5.9999999999999995e-05,-1e-05,-2e-05,-0.00018,-2.9999999999999997e-05,2
5390,5613,-0.0002,-4e-05,1e-05,-4e-05,-7e-05,-2.9999999999999997e-05,-0.00011,-9e-05,2
5391,5614,-0.0002,-4e-05,1e-05,-4e-05,-7e-05,-2.9999999999999997e-05,-0.00011,-9e-05,2
5392,5615,-0.0002,-4e-05,1e-05,-4e-05,-7e-05,-2.9999999999999997e-05,-0.00011,-9e-05,2
5393,5616,-0.0002,-4e-05,1e-05,-4e-05,-7e-05,-2.9999999999999997e-05,-0.00011,-9e-05,2
5394,5617,-0.0002,-4e-05,1e-05,-4e-05,-7e-05,-2.9999999999999997e-05,-0.00011,-9e-05,2
5395,5618,-0.0002,-4e-05,1e-05,-4e-05,-7e-05,-2.9999999999999997e-05,-0.00011,-9e-05,2
5396,5619,-0.0002,-4e-05,1e-05,-4e-05,-7e-05,-2.9999999999999997e-05,-0.00011,-9e-05,2
5397,5620,-0.0002,-4e-05,1e-05,-4e-05,-7e-05,-2.9999999999999997e-05,-0.00011,-9e-05,2
5398,5621,-0.0002,-4e-05,1e-05,-4e-05,-7e-05,-2.9999999999999997e-05,-0.00011,-9e-05,2
5399,5622,-0.0002,-4e-05,1e-05,-4e-05,-7e-05,-2.9999999999999997e-05,-0.00011,-9e-05,2
5400,5623,-0.0002,-4e-05,1e-05,-4e-05,-7e-05,-2.9999999999999997e-05,-0.00011,-9e-05,2
5401,5624,-0.0002,-4e-05,1e-05,-4e-05,-7e-05,-2.9999999999999997e-05,-0.00011,-9e-05,2
5402,5625,-0.0002,-4e-05,1e-05,-4e-05,-7e-05,-2.9999999999999997e-05,-0.00011,-9e-05,2
5403,5626,-0.0002,-4e-05,1e-05,-4e-05,-7e-05,-2.9999999999999997e-05,-0.00011,-9e-05,2
5404,5627,-0.0002,-4e-05,1e-05,-4e-05,-7e-05,-2.9999999999999997e-05,-0.00011,-9e-05,2
5405,5628,-0.0002,-4e-05,1e-05,-4e-05,-7e-05,-2.9999999999999997e-05,-0.00011,-9e-05,2
5406,5629,-0.0002,-4e-05,1e-05,-4e-05,-7e-05,-2.9999999999999997e-05,-0.00011,-9e-05,2
5407,5630,-0.0002,-4e-05,1e-05,-4e-05,-7e-05,-2.9999999999999997e-05,-0.00011,-9e-05,2
5408,5631,-0.0002,-4e-05,1e-05,-4e-05,-7e-05,-2.9999999999999997e-05,-0.00011,-9e-05,2
5409,5632,-0.0002,-4e-05,1e-05,-4e-05,-7e-05,-2.9999999999999997e-05,-0.00011,-9e-05,2
5410,5633,-0.0002,-4e-05,1e-05,-4e-05,-7e-05,-2.9999999999999997e-05,-0.00011,-9e-05,2
5411,5634,-0.00013000000000000002,-5.9999999999999995e-05,-2.9999999999999997e-05,-7e-05,-2e-05,1e-05,0.00014,-9e-05,2
5412,5635,-9e-05,1e-05,9e-05,-1e-05,-2e-05,-2e-05,0.00014,-5e-05,2
5413,5636,-9e-05,1e-05,9e-05,-1e-05,-2e-05,-2e-05,0.00014,-5e-05,2
5414,5638,-9e-05,1e-05,9e-05,-1e-05,-2e-05,-2e-05,0.00014,-5e-05,2
5415,5639,-9e-05,1e-05,9e-05,-1e-05,-2e-05,-2e-05,0.00014,-5e-05,2
5416,5640,-9e-05,1e-05,9e-05,-1e-05,-2e-05,-2e-05,0.00014,-5e-05,2
5417,5641,-9e-05,1e-05,9e-05,-1e-05,-2e-05,-2e-05,0.00014,-5e-05,2
5418,5642,-9e-05,1e-05,9e-05,-1e-05,-2e-05,-2e-05,0.00014,-5e-05,2
5419,5643,-9e-05,1e-05,9e-05,-1e-05,-2e-05,-2e-05,0.00014,-5e-05,2
5420,5644,-9e-05,1e-05,9e-05,-1e-05,-2e-05,-2e-05,0.00014,-5e-05,2
5421,5645,-9e-05,1e-05,9e-05,-1e-05,-2e-05,-2e-05,0.00014,-5e-05,2
5422,5646,-9e-05,1e-05,9e-05,-1e-05,-2e-05,-2e-05,0.00014,-5e-05,2
5423,5647,-9e-05,1e-05,9e-05,-1e-05,-2e-05,-2e-05,0.00014,-5e-05,2
5424,5648,5.9999999999999995e-05,2e-05,4e-05,0.0,0.0,-0.00014,2e-05,-5e-05,2
5425,5649,5.9999999999999995e-05,2e-05,4e-05,0.0,0.0,-0.00014,2e-05,-5e-05,2
5426,5650,5.9999999999999995e-05,2e-05,4e-05,0.0,0.0,-0.00014,2e-05,-5e-05,2
5427,5651,5.9999999999999995e-05,2e-05,4e-05,0.0,0.0,-0.00014,2e-05,-5e-05,2
5428,5652,5.9999999999999995e-05,2e-05,4e-05,0.0,0.0,-0.00014,2e-05,-5e-05,2
5429,5653,5.9999999999999995e-05,2e-05,4e-05,0.0,0.0,-0.00014,2e-05,-5e-05,2
5430,5654,5.9999999999999995e-05,2e-05,4e-05,0.0,0.0,-0.00014,2e-05,-5e-05,2
5431,5655,7e-05,2.9999999999999997e-05,2.9999999999999997e-05,-2e-05,-2.9999999999999997e-05,4e-05,-0.00018999999999999998,2e-05,2
5432,5656,-0.00013000000000000002,-2.9999999999999997e-05,0.00021,0.00016,-8e-05,-8e-05,0.00021,0.0,2
5433,5657,-0.00013000000000000002,-2.9999999999999997e-05,0.00021,0.00016,-8e-05,-8e-05,0.00021,0.0,2
5434,5658,-0.00013000000000000002,-2.9999999999999997e-05,0.00021,0.00016,-8e-05,-8e-05,0.00021,0.0,2
5435,5659,-0.00013000000000000002,-2.9999999999999997e-05,0.00021,0.00016,-8e-05,-8e-05,0.00021,0.0,2
5436,5660,-0.00013000000000000002,-2.9999999999999997e-05,0.00021,0.00016,-8e-05,-8e-05,0.00021,0.0,2
5437,5661,-0.00013000000000000002,-2.9999999999999997e-05,0.00021,0.00016,-8e-05,-8e-05,0.00021,0.0,2
5438,5662,-0.00013000000000000002,-2.9999999999999997e-05,0.00021,0.00016,-8e-05,-8e-05,0.00021,0.0,2
5439,5663,-0.00013000000000000002,-2.9999999999999997e-05,0.00021,0.00016,-8e-05,-8e-05,0.00021,0.0,2
5440,5664,-0.00013000000000000002,-2.9999999999999997e-05,0.00021,0.00016,-8e-05,-8e-05,0.00021,0.0,2
5441,5665,-0.00013000000000000002,-2.9999999999999997e-05,0.00021,0.00016,-8e-05,-8e-05,0.00021,0.0,2
5442,5666,-0.00013000000000000002,-2.9999999999999997e-05,0.00021,0.00016,-8e-05,-8e-05,0.00021,0.0,2
5443,5667,-0.00013000000000000002,-2.9999999999999997e-05,0.00021,0.00016,-8e-05,-8e-05,0.00021,0.0,2
5444,5668,-0.00013000000000000002,-2.9999999999999997e-05,0.00021,0.00016,-8e-05,-8e-05,0.00021,0.0,2
5445,5669,-0.00013000000000000002,-2.9999999999999997e-05,0.00021,0.00016,-8e-05,-8e-05,0.00021,0.0,2
5446,5670,-0.00013000000000000002,-2.9999999999999997e-05,0.00021,0.00016,-8e-05,-8e-05,0.00021,0.0,2
5447,5671,-2e-05,-1e-05,8e-05,8e-05,0.0,-8e-05,4e-05,-5.9999999999999995e-05,2
5448,5672,-2e-05,-1e-05,8e-05,8e-05,0.0,-8e-05,4e-05,-5.9999999999999995e-05,2
5449,5673,-4e-05,-5.9999999999999995e-05,-0.00018,-2.9999999999999997e-05,-5e-05,5.9999999999999995e-05,-0.00022999999999999998,7e-05,2
5450,5674,-4e-05,-5.9999999999999995e-05,-0.00018,-2.9999999999999997e-05,-5e-05,5.9999999999999995e-05,-0.00022999999999999998,7e-05,2
5451,5675,-4e-05,-5.9999999999999995e-05,-0.00018,-2.9999999999999997e-05,-5e-05,5.9999999999999995e-05,-0.00022999999999999998,7e-05,2
5452,5676,-4e-05,-5.9999999999999995e-05,-0.00018,-2.9999999999999997e-05,-5e-05,5.9999999999999995e-05,-0.00022999999999999998,7e-05,2
5453,5677,-4e-05,-5.9999999999999995e-05,-0.00018,-2.9999999999999997e-05,-5e-05,5.9999999999999995e-05,-0.00022999999999999998,7e-05,2
5454,5678,-4e-05,-5.9999999999999995e-05,-0.00018,-2.9999999999999997e-05,-5e-05,5.9999999999999995e-05,-0.00022999999999999998,7e-05,2
5455,5679,-4e-05,-5.9999999999999995e-05,-0.00018,-2.9999999999999997e-05,-5e-05,5.9999999999999995e-05,-0.00022999999999999998,7e-05,2
5456,5680,-4e-05,-5.9999999999999995e-05,-0.00018,-2.9999999999999997e-05,-5e-05,5.9999999999999995e-05,-0.00022999999999999998,7e-05,2
5457,5681,-4e-05,-5.9999999999999995e-05,-0.00018,-2.9999999999999997e-05,-5e-05,5.9999999999999995e-05,-0.00022999999999999998,7e-05,2
5458,5682,-4e-05,-5.9999999999999995e-05,-0.00018,-2.9999999999999997e-05,-5e-05,5.9999999999999995e-05,-0.00022999999999999998,7e-05,2
5459,5683,-4e-05,-5.9999999999999995e-05,-0.00018,-2.9999999999999997e-05,-5e-05,5.9999999999999995e-05,-0.00022999999999999998,7e-05,2
5460,5684,-4e-05,-5.9999999999999995e-05,-0.00018,-2.9999999999999997e-05,-5e-05,5.9999999999999995e-05,-0.00022999999999999998,7e-05,2
5461,5685,-4e-05,-5.9999999999999995e-05,-0.00018,-2.9999999999999997e-05,-5e-05,5.9999999999999995e-05,-0.00022999999999999998,7e-05,2
5462,5686,-4e-05,-5.9999999999999995e-05,-0.00018,-2.9999999999999997e-05,-5e-05,5.9999999999999995e-05,-0.00022999999999999998,7e-05,2
5463,5688,-4e-05,-5.9999999999999995e-05,-0.00018,-2.9999999999999997e-05,-5e-05,5.9999999999999995e-05,-0.00022999999999999998,7e-05,2
5464,5689,-4e-05,-5.9999999999999995e-05,-0.00018,-2.9999999999999997e-05,-5e-05,5.9999999999999995e-05,-0.00022999999999999998,7e-05,2
5465,5690,-4e-05,-5.9999999999999995e-05,-0.00018,-2.9999999999999997e-05,-5e-05,5.9999999999999995e-05,-0.00022999999999999998,7e-05,2
5466,5691,-4e-05,-5.9999999999999995e-05,-0.00018,-2.9999999999999997e-05,-5e-05,5.9999999999999995e-05,-0.00022999999999999998,7e-05,2
5467,5692,-4e-05,-5.9999999999999995e-05,-0.00018,-2.9999999999999997e-05,-5e-05,5.9999999999999995e-05,-0.00022999999999999998,7e-05,2
5468,5693,-4e-05,-5.9999999999999995e-05,-0.00018,-2.9999999999999997e-05,-5e-05,5.9999999999999995e-05,-0.00022999999999999998,7e-05,2
5469,5694,-5.9999999999999995e-05,-2e-05,-0.00013000000000000002,0.00016,-4e-05,-2e-05,-0.00014,-0.0001,2
5470,5695,-5e-05,1e-05,0.00011,0.00015,2e-05,0.0,-0.00014,1e-05,2
5471,5696,-5e-05,1e-05,0.00011,0.00015,2e-05,0.0,-0.00014,1e-05,2
5472,5697,-5e-05,1e-05,0.00011,0.00015,2e-05,0.0,-0.00014,1e-05,2
5473,5698,-5e-05,1e-05,0.00011,0.00015,2e-05,0.0,-0.00014,1e-05,2
5474,5699,-5e-05,1e-05,0.00011,0.00015,2e-05,0.0,-0.00014,1e-05,2
5475,5700,-5e-05,1e-05,0.00011,0.00015,2e-05,0.0,-0.00014,1e-05,2
5476,5701,-5e-05,1e-05,0.00011,0.00015,2e-05,0.0,-0.00014,1e-05,2
5477,5702,-5e-05,1e-05,0.00011,0.00015,2e-05,0.0,-0.00014,1e-05,2
5478,5703,-5e-05,1e-05,0.00011,0.00015,2e-05,0.0,-0.00014,1e-05,2
5479,5704,-5e-05,1e-05,0.00011,0.00015,2e-05,0.0,-0.00014,1e-05,2
5480,5705,-5e-05,1e-05,0.00011,0.00015,2e-05,0.0,-0.00014,1e-05,2
5481,5706,-5e-05,1e-05,0.00011,0.00015,2e-05,0.0,-0.00014,1e-05,2
5482,5707,-0.00026000000000000003,-8e-05,-4e-05,0.0,1e-05,-2.9999999999999997e-05,0.00018999999999999998,-0.00011,2
5483,5708,-0.00026000000000000003,-8e-05,-4e-05,0.0,1e-05,-2.9999999999999997e-05,0.00018999999999999998,-0.00011,2
5484,5709,-0.00026000000000000003,-8e-05,-4e-05,0.0,1e-05,-2.9999999999999997e-05,0.00018999999999999998,-0.00011,2
5485,5710,-0.00026000000000000003,-8e-05,-4e-05,0.0,1e-05,-2.9999999999999997e-05,0.00018999999999999998,-0.00011,2
5486,5711,-0.00026000000000000003,-8e-05,-4e-05,0.0,1e-05,-2.9999999999999997e-05,0.00018999999999999998,-0.00011,2
5487,5712,-0.00026000000000000003,-8e-05,-4e-05,0.0,1e-05,-2.9999999999999997e-05,0.00018999999999999998,-0.00011,2
5488,5713,-0.00026000000000000003,-8e-05,-4e-05,0.0,1e-05,-2.9999999999999997e-05,0.00018999999999999998,-0.00011,2
5489,5714,-0.00026000000000000003,-8e-05,-4e-05,0.0,1e-05,-2.9999999999999997e-05,0.00018999999999999998,-0.00011,2
5490,5715,-0.00026000000000000003,-8e-05,-4e-05,0.0,1e-05,-2.9999999999999997e-05,0.00018999999999999998,-0.00011,2
5491,5716,-9e-05,-5.9999999999999995e-05,-0.00047999999999999996,-0.0007700000000000001,8e-05,0.00025,0.00015,-1e-05,2
5492,5717,-9e-05,-5.9999999999999995e-05,-0.00047999999999999996,-0.0007700000000000001,8e-05,0.00025,0.00015,-1e-05,2
5493,5718,-9e-05,-5.9999999999999995e-05,-0.00047999999999999996,-0.0007700000000000001,8e-05,0.00025,0.00015,-1e-05,2
5494,5719,-9e-05,-5.9999999999999995e-05,-0.00047999999999999996,-0.0007700000000000001,8e-05,0.00025,0.00015,-1e-05,2
5495,5720,-9e-05,-5.9999999999999995e-05,-0.00047999999999999996,-0.0007700000000000001,8e-05,0.00025,0.00015,-1e-05,2
5496,5721,-9e-05,-5.9999999999999995e-05,-0.00047999999999999996,-0.0007700000000000001,8e-05,0.00025,0.00015,-1e-05,2
5497,5722,-9e-05,-5.9999999999999995e-05,-0.00047999999999999996,-0.0007700000000000001,8e-05,0.00025,0.00015,-1e-05,2
5498,5723,-9e-05,-5.9999999999999995e-05,-0.00047999999999999996,-0.0007700000000000001,8e-05,0.00025,0.00015,-1e-05,2
5499,5724,-9e-05,-5.9999999999999995e-05,-0.00047999999999999996,-0.0007700000000000001,8e-05,0.00025,0.00015,-1e-05,2
5500,5725,-9e-05,-5.9999999999999995e-05,-0.00047999999999999996,-0.0007700000000000001,8e-05,0.00025,0.00015,-1e-05,2
5501,5726,-9e-05,-5.9999999999999995e-05,-0.00047999999999999996,-0.0007700000000000001,8e-05,0.00025,0.00015,-1e-05,2
5502,5727,-9e-05,-5.9999999999999995e-05,-0.00047999999999999996,-0.0007700000000000001,8e-05,0.00025,0.00015,-1e-05,2
5503,5728,-9e-05,-5.9999999999999995e-05,-0.00047999999999999996,-0.0007700000000000001,8e-05,0.00025,0.00015,-1e-05,2
5504,5729,-9e-05,-5.9999999999999995e-05,-0.00047999999999999996,-0.0007700000000000001,8e-05,0.00025,0.00015,-1e-05,2
5505,5730,-9e-05,-5.9999999999999995e-05,-0.00047999999999999996,-0.0007700000000000001,8e-05,0.00025,0.00015,-1e-05,2
5506,5731,5.9999999999999995e-05,-1e-05,8e-05,-0.0001,0.0,0.0001,0.00036,8e-05,2
5507,5732,5.9999999999999995e-05,-1e-05,8e-05,-0.0001,0.0,0.0001,0.00036,8e-05,2
5508,5733,-8e-05,1e-05,0.00016999999999999999,5e-05,2.9999999999999997e-05,0.00016999999999999999,-1e-05,1e-05,2
5509,5734,-8e-05,1e-05,0.00016999999999999999,5e-05,2.9999999999999997e-05,0.00016999999999999999,-1e-05,1e-05,2
5510,5735,-8e-05,1e-05,0.00016999999999999999,5e-05,2.9999999999999997e-05,0.00016999999999999999,-1e-05,1e-05,2
5511,5736,-8e-05,1e-05,0.00016999999999999999,5e-05,2.9999999999999997e-05,0.00016999999999999999,-1e-05,1e-05,2
5512,5738,-8e-05,1e-05,0.00016999999999999999,5e-05,2.9999999999999997e-05,0.00016999999999999999,-1e-05,1e-05,2
5513,5739,-8e-05,1e-05,0.00016999999999999999,5e-05,2.9999999999999997e-05,0.00016999999999999999,-1e-05,1e-05,2
5514,5740,-8e-05,1e-05,0.00016999999999999999,5e-05,2.9999999999999997e-05,0.00016999999999999999,-1e-05,1e-05,2
5515,5741,-8e-05,1e-05,0.00016999999999999999,5e-05,2.9999999999999997e-05,0.00016999999999999999,-1e-05,1e-05,2
5516,5742,-8e-05,1e-05,0.00016999999999999999,5e-05,2.9999999999999997e-05,0.00016999999999999999,-1e-05,1e-05,2
5517,5743,-8e-05,1e-05,0.00016999999999999999,5e-05,2.9999999999999997e-05,0.00016999999999999999,-1e-05,1e-05,2
5518,5744,-8e-05,1e-05,0.00016999999999999999,5e-05,2.9999999999999997e-05,0.00016999999999999999,-1e-05,1e-05,2
5519,5745,-8e-05,1e-05,0.00016999999999999999,5e-05,2.9999999999999997e-05,0.00016999999999999999,-1e-05,1e-05,2
5520,5746,-8e-05,1e-05,0.00016999999999999999,5e-05,2.9999999999999997e-05,0.00016999999999999999,-1e-05,1e-05,2
5521,5747,-8e-05,1e-05,0.00016999999999999999,5e-05,2.9999999999999997e-05,0.00016999999999999999,-1e-05,1e-05,2
5522,5748,-8e-05,1e-05,0.00016999999999999999,5e-05,2.9999999999999997e-05,0.00016999999999999999,-1e-05,1e-05,2
5523,5749,-8e-05,1e-05,0.00016999999999999999,5e-05,2.9999999999999997e-05,0.00016999999999999999,-1e-05,1e-05,2
5524,5750,-8e-05,1e-05,0.00016999999999999999,5e-05,2.9999999999999997e-05,0.00016999999999999999,-1e-05,1e-05,2
5525,5751,-8e-05,1e-05,0.00016999999999999999,5e-05,2.9999999999999997e-05,0.00016999999999999999,-1e-05,1e-05,2
5526,5752,-8e-05,1e-05,0.00016999999999999999,5e-05,2.9999999999999997e-05,0.00016999999999999999,-1e-05,1e-05,2
5527,5753,-8e-05,1e-05,0.00016999999999999999,5e-05,2.9999999999999997e-05,0.00016999999999999999,-1e-05,1e-05,2
5528,5754,-1e-05,0.0,-1e-05,5.9999999999999995e-05,-2e-05,1e-05,1e-05,4e-05,2
5529,5755,0.00013000000000000002,2e-05,5e-05,8e-05,2e-05,0.00011,2e-05,0.00011,2
5530,5756,0.00013000000000000002,2e-05,5e-05,8e-05,2e-05,0.00011,2e-05,0.00011,2
5531,5757,0.00013000000000000002,2e-05,5e-05,8e-05,2e-05,0.00011,2e-05,0.00011,2
5532,5758,0.00013000000000000002,2e-05,5e-05,8e-05,2e-05,0.00011,2e-05,0.00011,2
5533,5759,0.00013000000000000002,2e-05,5e-05,8e-05,2e-05,0.00011,2e-05,0.00011,2
5534,5760,0.00013000000000000002,2e-05,5e-05,8e-05,2e-05,0.00011,2e-05,0.00011,2
5535,5761,0.00013000000000000002,2e-05,5e-05,8e-05,2e-05,0.00011,2e-05,0.00011,2
5536,5762,0.00013000000000000002,2e-05,5e-05,8e-05,2e-05,0.00011,2e-05,0.00011,2
5537,5763,0.00013000000000000002,2e-05,5e-05,8e-05,2e-05,0.00011,2e-05,0.00011,2
5538,5764,0.00013000000000000002,2e-05,5e-05,8e-05,2e-05,0.00011,2e-05,0.00011,2
5539,5765,0.00013000000000000002,2e-05,5e-05,8e-05,2e-05,0.00011,2e-05,0.00011,2
5540,5766,0.00013000000000000002,2e-05,5e-05,8e-05,2e-05,0.00011,2e-05,0.00011,2
5541,5767,-0.00011999999999999999,-1e-05,5.9999999999999995e-05,0.00016,2.9999999999999997e-05,-2.9999999999999997e-05,4e-05,-8e-05,2
5542,5768,0.00016,9e-05,0.00016999999999999999,1e-05,0.0,5e-05,-7e-05,7e-05,2
5543,5769,0.00016,9e-05,0.00016999999999999999,1e-05,0.0,5e-05,-7e-05,7e-05,2
5544,5770,0.00016,9e-05,0.00016999999999999999,1e-05,0.0,5e-05,-7e-05,7e-05,2
5545,5771,0.00016,9e-05,0.00016999999999999999,1e-05,0.0,5e-05,-7e-05,7e-05,2
5546,5772,0.00016,9e-05,0.00016999999999999999,1e-05,0.0,5e-05,-7e-05,7e-05,2
5547,5773,0.00016,9e-05,0.00016999999999999999,1e-05,0.0,5e-05,-7e-05,7e-05,2
5548,5774,0.00016,9e-05,0.00016999999999999999,1e-05,0.0,5e-05,-7e-05,7e-05,2
5549,5775,0.00016,9e-05,0.00016999999999999999,1e-05,0.0,5e-05,-7e-05,7e-05,2
5550,5776,4e-05,-5.9999999999999995e-05,-4e-05,4e-05,2e-05,-8e-05,0.00049,0.00018,2
5551,5777,4e-05,-5.9999999999999995e-05,-4e-05,4e-05,2e-05,-8e-05,0.00049,0.00018,2
5552,5778,4e-05,-5.9999999999999995e-05,-4e-05,4e-05,2e-05,-8e-05,0.00049,0.00018,2
5553,5779,4e-05,-5.9999999999999995e-05,-4e-05,4e-05,2e-05,-8e-05,0.00049,0.00018,2
5554,5780,4e-05,-5.9999999999999995e-05,-4e-05,4e-05,2e-05,-8e-05,0.00049,0.00018,2
5555,5781,4e-05,-5.9999999999999995e-05,-4e-05,4e-05,2e-05,-8e-05,0.00049,0.00018,2
5556,5782,4e-05,-5.9999999999999995e-05,-4e-05,4e-05,2e-05,-8e-05,0.00049,0.00018,2
5557,5783,4e-05,-5.9999999999999995e-05,-4e-05,4e-05,2e-05,-8e-05,0.00049,0.00018,2
5558,5784,4e-05,-5.9999999999999995e-05,-4e-05,4e-05,2e-05,-8e-05,0.00049,0.00018,2
5559,5785,4e-05,-5.9999999999999995e-05,-4e-05,4e-05,2e-05,-8e-05,0.00049,0.00018,2
5560,5786,4e-05,-5.9999999999999995e-05,-4e-05,4e-05,2e-05,-8e-05,0.00049,0.00018,2
5561,5788,4e-05,-5.9999999999999995e-05,-4e-05,4e-05,2e-05,-8e-05,0.00049,0.00018,2
5562,5789,4e-05,-5.9999999999999995e-05,-4e-05,4e-05,2e-05,-8e-05,0.00049,0.00018,2
5563,5790,4e-05,-5.9999999999999995e-05,-4e-05,4e-05,2e-05,-8e-05,0.00049,0.00018,2
5564,5791,0.0,2.9999999999999997e-05,5.9999999999999995e-05,-0.00015,-4e-05,4e-05,-5.9999999999999995e-05,-5.9999999999999995e-05,2
5565,5792,0.0,2.9999999999999997e-05,5.9999999999999995e-05,-0.00015,-4e-05,4e-05,-5.9999999999999995e-05,-5.9999999999999995e-05,2
5566,5793,-5.9999999999999995e-05,-1e-05,0.0001,2e-05,-2.9999999999999997e-05,-0.0002,-0.00022,-0.00011999999999999999,2
5567,5794,-5.9999999999999995e-05,-1e-05,0.0001,2e-05,-2.9999999999999997e-05,-0.0002,-0.00022,-0.00011999999999999999,2
5568,5795,-5.9999999999999995e-05,-1e-05,0.0001,2e-05,-2.9999999999999997e-05,-0.0002,-0.00022,-0.00011999999999999999,2
5569,5796,-5.9999999999999995e-05,-1e-05,0.0001,2e-05,-2.9999999999999997e-05,-0.0002,-0.00022,-0.00011999999999999999,2
5570,5797,-5.9999999999999995e-05,-1e-05,0.0001,2e-05,-2.9999999999999997e-05,-0.0002,-0.00022,-0.00011999999999999999,2
5571,5798,-5.9999999999999995e-05,-1e-05,0.0001,2e-05,-2.9999999999999997e-05,-0.0002,-0.00022,-0.00011999999999999999,2
5572,5799,-5.9999999999999995e-05,-1e-05,0.0001,2e-05,-2.9999999999999997e-05,-0.0002,-0.00022,-0.00011999999999999999,2
5573,5800,-5.9999999999999995e-05,-1e-05,0.0001,2e-05,-2.9999999999999997e-05,-0.0002,-0.00022,-0.00011999999999999999,2
5574,5801,-5.9999999999999995e-05,-1e-05,0.0001,2e-05,-2.9999999999999997e-05,-0.0002,-0.00022,-0.00011999999999999999,2
5575,5802,-5.9999999999999995e-05,-1e-05,0.0001,2e-05,-2.9999999999999997e-05,-0.0002,-0.00022,-0.00011999999999999999,2
5576,5803,-5.9999999999999995e-05,-1e-05,0.0001,2e-05,-2.9999999999999997e-05,-0.0002,-0.00022,-0.00011999999999999999,2
5577,5804,-5.9999999999999995e-05,-1e-05,0.0001,2e-05,-2.9999999999999997e-05,-0.0002,-0.00022,-0.00011999999999999999,2
5578,5805,-5.9999999999999995e-05,-1e-05,0.0001,2e-05,-2.9999999999999997e-05,-0.0002,-0.00022,-0.00011999999999999999,2
5579,5806,-5.9999999999999995e-05,-1e-05,0.0001,2e-05,-2.9999999999999997e-05,-0.0002,-0.00022,-0.00011999999999999999,2
5580,5807,-5.9999999999999995e-05,-1e-05,0.0001,2e-05,-2.9999999999999997e-05,-0.0002,-0.00022,-0.00011999999999999999,2
5581,5808,-5.9999999999999995e-05,-1e-05,0.0001,2e-05,-2.9999999999999997e-05,-0.0002,-0.00022,-0.00011999999999999999,2
5582,5809,-5.9999999999999995e-05,-1e-05,0.0001,2e-05,-2.9999999999999997e-05,-0.0002,-0.00022,-0.00011999999999999999,2
5583,5810,-5.9999999999999995e-05,-1e-05,0.0001,2e-05,-2.9999999999999997e-05,-0.0002,-0.00022,-0.00011999999999999999,2
5584,5811,-5.9999999999999995e-05,-1e-05,0.0001,2e-05,-2.9999999999999997e-05,-0.0002,-0.00022,-0.00011999999999999999,2
5585,5812,-5.9999999999999995e-05,-1e-05,0.0001,2e-05,-2.9999999999999997e-05,-0.0002,-0.00022,-0.00011999999999999999,2
5586,5813,-5.9999999999999995e-05,-1e-05,0.0001,2e-05,-2.9999999999999997e-05,-0.0002,-0.00022,-0.00011999999999999999,2
5587,5814,0.00011,0.0,-4e-05,-0.00016,-2e-05,0.00022999999999999998,1e-05,5.9999999999999995e-05,2
5588,5815,-1e-05,2.9999999999999997e-05,0.00014,-4e-05,-4e-05,-0.00011,-0.00014,-5.9999999999999995e-05,2
5589,5816,-1e-05,2.9999999999999997e-05,0.00014,-4e-05,-4e-05,-0.00011,-0.00014,-5.9999999999999995e-05,2
5590,5817,-1e-05,2.9999999999999997e-05,0.00014,-4e-05,-4e-05,-0.00011,-0.00014,-5.9999999999999995e-05,2
5591,5818,-1e-05,2.9999999999999997e-05,0.00014,-4e-05,-4e-05,-0.00011,-0.00014,-5.9999999999999995e-05,2
5592,5819,-1e-05,2.9999999999999997e-05,0.00014,-4e-05,-4e-05,-0.00011,-0.00014,-5.9999999999999995e-05,2
5593,5820,-1e-05,2.9999999999999997e-05,0.00014,-4e-05,-4e-05,-0.00011,-0.00014,-5.9999999999999995e-05,2
5594,5821,-1e-05,2.9999999999999997e-05,0.00014,-4e-05,-4e-05,-0.00011,-0.00014,-5.9999999999999995e-05,2
5595,5822,-1e-05,2.9999999999999997e-05,0.00014,-4e-05,-4e-05,-0.00011,-0.00014,-5.9999999999999995e-05,2
5596,5823,-1e-05,2.9999999999999997e-05,0.00014,-4e-05,-4e-05,-0.00011,-0.00014,-5.9999999999999995e-05,2
5597,5824,-1e-05,2.9999999999999997e-05,0.00014,-4e-05,-4e-05,-0.00011,-0.00014,-5.9999999999999995e-05,2
5598,5825,-1e-05,2.9999999999999997e-05,0.00014,-4e-05,-4e-05,-0.00011,-0.00014,-5.9999999999999995e-05,2
5599,5826,-1e-05,2.9999999999999997e-05,0.00014,-4e-05,-4e-05,-0.00011,-0.00014,-5.9999999999999995e-05,2
5600,5827,-1e-05,2.9999999999999997e-05,0.00014,-4e-05,-4e-05,-0.00011,-0.00014,-5.9999999999999995e-05,2
5601,5828,-1e-05,2.9999999999999997e-05,0.00014,-4e-05,-4e-05,-0.00011,-0.00014,-5.9999999999999995e-05,2
5602,5829,-1e-05,2.9999999999999997e-05,0.00014,-4e-05,-4e-05,-0.00011,-0.00014,-5.9999999999999995e-05,2
5603,5830,-1e-05,2.9999999999999997e-05,0.00014,-4e-05,-4e-05,-0.00011,-0.00014,-5.9999999999999995e-05,2
5604,5831,-1e-05,2.9999999999999997e-05,0.00014,-4e-05,-4e-05,-0.00011,-0.00014,-5.9999999999999995e-05,2
5605,5832,-1e-05,2.9999999999999997e-05,0.00014,-4e-05,-4e-05,-0.00011,-0.00014,-5.9999999999999995e-05,2
5606,5833,-1e-05,2.9999999999999997e-05,0.00014,-4e-05,-4e-05,-0.00011,-0.00014,-5.9999999999999995e-05,2
5607,5834,-1e-05,2.9999999999999997e-05,0.00014,-4e-05,-4e-05,-0.00011,-0.00014,-5.9999999999999995e-05,2
5608,5835,-1e-05,2.9999999999999997e-05,0.00014,-4e-05,-4e-05,-0.00011,-0.00014,-5.9999999999999995e-05,2
5609,5836,-1e-05,2.9999999999999997e-05,0.00014,-4e-05,-4e-05,-0.00011,-0.00014,-5.9999999999999995e-05,2
5610,5839,0.00016,-2e-05,2e-05,0.0001,5.9999999999999995e-05,5.9999999999999995e-05,0.00073,0.00016999999999999999,2
5611,5840,0.00016,-2e-05,2e-05,0.0001,5.9999999999999995e-05,5.9999999999999995e-05,0.00073,0.00016999999999999999,2
5612,5841,0.00016,-2e-05,2e-05,0.0001,5.9999999999999995e-05,5.9999999999999995e-05,0.00073,0.00016999999999999999,2
5613,5842,0.00016,-2e-05,2e-05,0.0001,5.9999999999999995e-05,5.9999999999999995e-05,0.00073,0.00016999999999999999,2
5614,5843,0.00016,-2e-05,2e-05,0.0001,5.9999999999999995e-05,5.9999999999999995e-05,0.00073,0.00016999999999999999,2
5615,5844,0.00016,-2e-05,2e-05,0.0001,5.9999999999999995e-05,5.9999999999999995e-05,0.00073,0.00016999999999999999,2
5616,5845,0.00016,-2e-05,2e-05,0.0001,5.9999999999999995e-05,5.9999999999999995e-05,0.00073,0.00016999999999999999,2
5617,5846,0.00016,-2e-05,2e-05,0.0001,5.9999999999999995e-05,5.9999999999999995e-05,0.00073,0.00016999999999999999,2
5618,5847,0.00016,-2e-05,2e-05,0.0001,5.9999999999999995e-05,5.9999999999999995e-05,0.00073,0.00016999999999999999,2
5619,5848,0.00016,-2e-05,2e-05,0.0001,5.9999999999999995e-05,5.9999999999999995e-05,0.00073,0.00016999999999999999,2
5620,5849,0.00016,-2e-05,2e-05,0.0001,5.9999999999999995e-05,5.9999999999999995e-05,0.00073,0.00016999999999999999,2
5621,5850,0.00016,-2e-05,2e-05,0.0001,5.9999999999999995e-05,5.9999999999999995e-05,0.00073,0.00016999999999999999,2
5622,5851,-0.0001,-8e-05,-0.00014,-9e-05,0.0,9e-05,2.9999999999999997e-05,-0.00011,2
5623,5852,-0.0001,-8e-05,-0.00014,-9e-05,0.0,9e-05,2.9999999999999997e-05,-0.00011,2
5624,5853,-0.00013000000000000002,-1e-05,2.9999999999999997e-05,0.00018999999999999998,-2.9999999999999997e-05,-4e-05,-0.00022,-0.00018999999999999998,2
5625,5854,-0.00013000000000000002,-1e-05,2.9999999999999997e-05,0.00018999999999999998,-2.9999999999999997e-05,-4e-05,-0.00022,-0.00018999999999999998,2
5626,5855,-0.00013000000000000002,-1e-05,2.9999999999999997e-05,0.00018999999999999998,-2.9999999999999997e-05,-4e-05,-0.00022,-0.00018999999999999998,2
5627,5856,-0.00013000000000000002,-1e-05,2.9999999999999997e-05,0.00018999999999999998,-2.9999999999999997e-05,-4e-05,-0.00022,-0.00018999999999999998,2
5628,5857,-0.00013000000000000002,-1e-05,2.9999999999999997e-05,0.00018999999999999998,-2.9999999999999997e-05,-4e-05,-0.00022,-0.00018999999999999998,2
5629,5858,-0.00013000000000000002,-1e-05,2.9999999999999997e-05,0.00018999999999999998,-2.9999999999999997e-05,-4e-05,-0.00022,-0.00018999999999999998,2
5630,5859,-0.00013000000000000002,-1e-05,2.9999999999999997e-05,0.00018999999999999998,-2.9999999999999997e-05,-4e-05,-0.00022,-0.00018999999999999998,2
5631,5860,-0.00013000000000000002,-1e-05,2.9999999999999997e-05,0.00018999999999999998,-2.9999999999999997e-05,-4e-05,-0.00022,-0.00018999999999999998,2
5632,5861,-0.00013000000000000002,-1e-05,2.9999999999999997e-05,0.00018999999999999998,-2.9999999999999997e-05,-4e-05,-0.00022,-0.00018999999999999998,2
5633,5862,-0.00013000000000000002,-1e-05,2.9999999999999997e-05,0.00018999999999999998,-2.9999999999999997e-05,-4e-05,-0.00022,-0.00018999999999999998,2
5634,5863,-0.00013000000000000002,-1e-05,2.9999999999999997e-05,0.00018999999999999998,-2.9999999999999997e-05,-4e-05,-0.00022,-0.00018999999999999998,2
5635,5864,-0.00013000000000000002,-1e-05,2.9999999999999997e-05,0.00018999999999999998,-2.9999999999999997e-05,-4e-05,-0.00022,-0.00018999999999999998,2
5636,5865,-0.00013000000000000002,-1e-05,2.9999999999999997e-05,0.00018999999999999998,-2.9999999999999997e-05,-4e-05,-0.00022,-0.00018999999999999998,2
5637,5866,-0.00013000000000000002,-1e-05,2.9999999999999997e-05,0.00018999999999999998,-2.9999999999999997e-05,-4e-05,-0.00022,-0.00018999999999999998,2
5638,5867,-0.00013000000000000002,-1e-05,2.9999999999999997e-05,0.00018999999999999998,-2.9999999999999997e-05,-4e-05,-0.00022,-0.00018999999999999998,2
5639,5868,-0.00013000000000000002,-1e-05,2.9999999999999997e-05,0.00018999999999999998,-2.9999999999999997e-05,-4e-05,-0.00022,-0.00018999999999999998,2
5640,5869,-0.00013000000000000002,-1e-05,2.9999999999999997e-05,0.00018999999999999998,-2.9999999999999997e-05,-4e-05,-0.00022,-0.00018999999999999998,2
5641,5870,-0.00013000000000000002,-1e-05,2.9999999999999997e-05,0.00018999999999999998,-2.9999999999999997e-05,-4e-05,-0.00022,-0.00018999999999999998,2
5642,5871,-0.00013000000000000002,-1e-05,2.9999999999999997e-05,0.00018999999999999998,-2.9999999999999997e-05,-4e-05,-0.00022,-0.00018999999999999998,2
5643,5872,-0.00013000000000000002,-1e-05,2.9999999999999997e-05,0.00018999999999999998,-2.9999999999999997e-05,-4e-05,-0.00022,-0.00018999999999999998,2
5644,5873,-0.00013000000000000002,-1e-05,2.9999999999999997e-05,0.00018999999999999998,-2.9999999999999997e-05,-4e-05,-0.00022,-0.00018999999999999998,2
5645,5874,4e-05,-5e-05,-0.0002,-0.00022,-4e-05,-1e-05,7e-05,1e-05,2
5646,5875,0.0,-9e-05,-0.0003,-0.00013000000000000002,-2e-05,9e-05,-0.00045,-5.9999999999999995e-05,2
5647,5876,0.0,-9e-05,-0.0003,-0.00013000000000000002,-2e-05,9e-05,-0.00045,-5.9999999999999995e-05,2
5648,5877,0.0,-9e-05,-0.0003,-0.00013000000000000002,-2e-05,9e-05,-0.00045,-5.9999999999999995e-05,2
5649,5878,0.0,-9e-05,-0.0003,-0.00013000000000000002,-2e-05,9e-05,-0.00045,-5.9999999999999995e-05,2
5650,5879,0.0,-9e-05,-0.0003,-0.00013000000000000002,-2e-05,9e-05,-0.00045,-5.9999999999999995e-05,2
5651,5880,0.0,-9e-05,-0.0003,-0.00013000000000000002,-2e-05,9e-05,-0.00045,-5.9999999999999995e-05,2
5652,5881,0.0,-9e-05,-0.0003,-0.00013000000000000002,-2e-05,9e-05,-0.00045,-5.9999999999999995e-05,2
5653,5882,0.0,-9e-05,-0.0003,-0.00013000000000000002,-2e-05,9e-05,-0.00045,-5.9999999999999995e-05,2
5654,5883,0.0,-9e-05,-0.0003,-0.00013000000000000002,-2e-05,9e-05,-0.00045,-5.9999999999999995e-05,2
5655,5884,0.0,-9e-05,-0.0003,-0.00013000000000000002,-2e-05,9e-05,-0.00045,-5.9999999999999995e-05,2
5656,5885,0.0,-9e-05,-0.0003,-0.00013000000000000002,-2e-05,9e-05,-0.00045,-5.9999999999999995e-05,2
5657,5886,0.0,-9e-05,-0.0003,-0.00013000000000000002,-2e-05,9e-05,-0.00045,-5.9999999999999995e-05,2
5658,5889,-2.9999999999999997e-05,2.9999999999999997e-05,5.9999999999999995e-05,0.00011999999999999999,-2e-05,-1e-05,-0.00045,-0.00014,2
5659,5890,-2.9999999999999997e-05,2.9999999999999997e-05,5.9999999999999995e-05,0.00011999999999999999,-2e-05,-1e-05,-0.00045,-0.00014,2
5660,5891,-2.9999999999999997e-05,2.9999999999999997e-05,5.9999999999999995e-05,0.00011999999999999999,-2e-05,-1e-05,-0.00045,-0.00014,2
5661,5892,-2.9999999999999997e-05,2.9999999999999997e-05,5.9999999999999995e-05,0.00011999999999999999,-2e-05,-1e-05,-0.00045,-0.00014,2
5662,5893,-2.9999999999999997e-05,2.9999999999999997e-05,5.9999999999999995e-05,0.00011999999999999999,-2e-05,-1e-05,-0.00045,-0.00014,2
5663,5894,-2.9999999999999997e-05,2.9999999999999997e-05,5.9999999999999995e-05,0.00011999999999999999,-2e-05,-1e-05,-0.00045,-0.00014,2
5664,5895,-2.9999999999999997e-05,2.9999999999999997e-05,5.9999999999999995e-05,0.00011999999999999999,-2e-05,-1e-05,-0.00045,-0.00014,2
5665,5896,2.9999999999999997e-05,-2e-05,-4e-05,-0.00013000000000000002,-7e-05,-5.9999999999999995e-05,-0.00011,-4e-05,2
5666,5897,2.9999999999999997e-05,-2e-05,-4e-05,-0.00013000000000000002,-7e-05,-5.9999999999999995e-05,-0.00011,-4e-05,2
5667,5898,2.9999999999999997e-05,-2e-05,-4e-05,-0.00013000000000000002,-7e-05,-5.9999999999999995e-05,-0.00011,-4e-05,2
5668,5899,2.9999999999999997e-05,-2e-05,-4e-05,-0.00013000000000000002,-7e-05,-5.9999999999999995e-05,-0.00011,-4e-05,2
5669,5900,2.9999999999999997e-05,-2e-05,-4e-05,-0.00013000000000000002,-7e-05,-5.9999999999999995e-05,-0.00011,-4e-05,2
5670,5901,2.9999999999999997e-05,-2e-05,-4e-05,-0.00013000000000000002,-7e-05,-5.9999999999999995e-05,-0.00011,-4e-05,2
5671,5902,2.9999999999999997e-05,-2e-05,-4e-05,-0.00013000000000000002,-7e-05,-5.9999999999999995e-05,-0.00011,-4e-05,2
5672,5903,2.9999999999999997e-05,-2e-05,-4e-05,-0.00013000000000000002,-7e-05,-5.9999999999999995e-05,-0.00011,-4e-05,2
5673,5904,2.9999999999999997e-05,-2e-05,-4e-05,-0.00013000000000000002,-7e-05,-5.9999999999999995e-05,-0.00011,-4e-05,2
5674,5905,2.9999999999999997e-05,-2e-05,-4e-05,-0.00013000000000000002,-7e-05,-5.9999999999999995e-05,-0.00011,-4e-05,2
5675,5906,2.9999999999999997e-05,-2e-05,-4e-05,-0.00013000000000000002,-7e-05,-5.9999999999999995e-05,-0.00011,-4e-05,2
5676,5907,2.9999999999999997e-05,-2e-05,-4e-05,-0.00013000000000000002,-7e-05,-5.9999999999999995e-05,-0.00011,-4e-05,2
5677,5908,2.9999999999999997e-05,-2e-05,-4e-05,-0.00013000000000000002,-7e-05,-5.9999999999999995e-05,-0.00011,-4e-05,2
5678,5909,2.9999999999999997e-05,-2e-05,-4e-05,-0.00013000000000000002,-7e-05,-5.9999999999999995e-05,-0.00011,-4e-05,2
5679,5910,2.9999999999999997e-05,-2e-05,-4e-05,-0.00013000000000000002,-7e-05,-5.9999999999999995e-05,-0.00011,-4e-05,2
5680,5911,-5e-05,0.0,0.0,-8e-05,-2.9999999999999997e-05,-1e-05,-1e-05,-5.9999999999999995e-05,2
5681,5912,-5e-05,0.0,0.0,-8e-05,-2.9999999999999997e-05,-1e-05,-1e-05,-5.9999999999999995e-05,2
5682,5913,2e-05,5e-05,0.0001,0.00015,5e-05,0.0001,-8e-05,2.9999999999999997e-05,2
5683,5914,2e-05,5e-05,0.0001,0.00015,5e-05,0.0001,-8e-05,2.9999999999999997e-05,2
5684,5915,2e-05,5e-05,0.0001,0.00015,5e-05,0.0001,-8e-05,2.9999999999999997e-05,2
5685,5916,2e-05,5e-05,0.0001,0.00015,5e-05,0.0001,-8e-05,2.9999999999999997e-05,2
5686,5917,2e-05,5e-05,0.0001,0.00015,5e-05,0.0001,-8e-05,2.9999999999999997e-05,2
5687,5918,2e-05,5e-05,0.0001,0.00015,5e-05,0.0001,-8e-05,2.9999999999999997e-05,2
5688,5919,2e-05,5e-05,0.0001,0.00015,5e-05,0.0001,-8e-05,2.9999999999999997e-05,2
5689,5920,2e-05,5e-05,0.0001,0.00015,5e-05,0.0001,-8e-05,2.9999999999999997e-05,2
5690,5921,2e-05,5e-05,0.0001,0.00015,5e-05,0.0001,-8e-05,2.9999999999999997e-05,2
5691,5922,2e-05,5e-05,0.0001,0.00015,5e-05,0.0001,-8e-05,2.9999999999999997e-05,2
5692,5923,2e-05,5e-05,0.0001,0.00015,5e-05,0.0001,-8e-05,2.9999999999999997e-05,2
5693,5924,2e-05,5e-05,0.0001,0.00015,5e-05,0.0001,-8e-05,2.9999999999999997e-05,2
5694,5925,2e-05,5e-05,0.0001,0.00015,5e-05,0.0001,-8e-05,2.9999999999999997e-05,2
5695,5926,2e-05,5e-05,0.0001,0.00015,5e-05,0.0001,-8e-05,2.9999999999999997e-05,2
5696,5927,2e-05,5e-05,0.0001,0.00015,5e-05,0.0001,-8e-05,2.9999999999999997e-05,2
5697,5928,2e-05,5e-05,0.0001,0.00015,5e-05,0.0001,-8e-05,2.9999999999999997e-05,2
5698,5929,2e-05,5e-05,0.0001,0.00015,5e-05,0.0001,-8e-05,2.9999999999999997e-05,2
5699,5930,2e-05,5e-05,0.0001,0.00015,5e-05,0.0001,-8e-05,2.9999999999999997e-05,2
5700,5931,2e-05,5e-05,0.0001,0.00015,5e-05,0.0001,-8e-05,2.9999999999999997e-05,2
5701,5932,2e-05,5e-05,0.0001,0.00015,5e-05,0.0001,-8e-05,2.9999999999999997e-05,2
5702,5933,2e-05,5e-05,0.0001,0.00015,5e-05,0.0001,-8e-05,2.9999999999999997e-05,2
5703,5934,-9e-05,0.0,0.0,0.0,-2e-05,-0.00011999999999999999,-0.00018999999999999998,-0.0001,2
5704,5935,-0.00011,-1e-05,1e-05,-7e-05,1e-05,-5e-05,-5e-05,-0.00011999999999999999,2
5705,5936,-0.00011,-1e-05,1e-05,-7e-05,1e-05,-5e-05,-5e-05,-0.00011999999999999999,2
5706,5938,-0.00011,-1e-05,1e-05,-7e-05,1e-05,-5e-05,-5e-05,-0.00011999999999999999,2
5707,5939,-0.00011,-1e-05,1e-05,-7e-05,1e-05,-5e-05,-5e-05,-0.00011999999999999999,2
5708,5940,-0.00011,-1e-05,1e-05,-7e-05,1e-05,-5e-05,-5e-05,-0.00011999999999999999,2
5709,5941,-0.00011,-1e-05,1e-05,-7e-05,1e-05,-5e-05,-5e-05,-0.00011999999999999999,2
5710,5942,-0.00011,-1e-05,1e-05,-7e-05,1e-05,-5e-05,-5e-05,-0.00011999999999999999,2
5711,5943,-0.00011,-1e-05,1e-05,-7e-05,1e-05,-5e-05,-5e-05,-0.00011999999999999999,2
5712,5944,-0.00011,-1e-05,1e-05,-7e-05,1e-05,-5e-05,-5e-05,-0.00011999999999999999,2
5713,5945,-0.00011,-1e-05,1e-05,-7e-05,1e-05,-5e-05,-5e-05,-0.00011999999999999999,2
5714,5946,-0.00011,-1e-05,1e-05,-7e-05,1e-05,-5e-05,-5e-05,-0.00011999999999999999,2
5715,5947,1e-05,0.0,2.9999999999999997e-05,-9e-05,0.0,-4e-05,9e-05,-2e-05,2
5716,5948,1e-05,0.0,2.9999999999999997e-05,-9e-05,0.0,-4e-05,9e-05,-2e-05,2
5717,5949,1e-05,0.0,2.9999999999999997e-05,-9e-05,0.0,-4e-05,9e-05,-2e-05,2
5718,5950,1e-05,0.0,2.9999999999999997e-05,-9e-05,0.0,-4e-05,9e-05,-2e-05,2
5719,5951,1e-05,0.0,2.9999999999999997e-05,-9e-05,0.0,-4e-05,9e-05,-2e-05,2
5720,5952,1e-05,0.0,2.9999999999999997e-05,-9e-05,0.0,-4e-05,9e-05,-2e-05,2
5721,5953,1e-05,0.0,2.9999999999999997e-05,-9e-05,0.0,-4e-05,9e-05,-2e-05,2
5722,5954,1e-05,0.0,2.9999999999999997e-05,-9e-05,0.0,-4e-05,9e-05,-2e-05,2
5723,5955,1e-05,0.0,2.9999999999999997e-05,-9e-05,0.0,-4e-05,9e-05,-2e-05,2
5724,5956,1e-05,0.0,2.9999999999999997e-05,-9e-05,0.0,-4e-05,9e-05,-2e-05,2
5725,5957,1e-05,0.0,-2e-05,5e-05,-5.9999999999999995e-05,-5e-05,-9e-05,2.9999999999999997e-05,2
5726,5958,1e-05,0.0,-2e-05,5e-05,-5.9999999999999995e-05,-5e-05,-9e-05,2.9999999999999997e-05,2
5727,5959,1e-05,0.0,-2e-05,5e-05,-5.9999999999999995e-05,-5e-05,-9e-05,2.9999999999999997e-05,2
5728,5960,1e-05,0.0,-2e-05,5e-05,-5.9999999999999995e-05,-5e-05,-9e-05,2.9999999999999997e-05,2
5729,5961,1e-05,0.0,-2e-05,5e-05,-5.9999999999999995e-05,-5e-05,-9e-05,2.9999999999999997e-05,2
5730,5962,1e-05,0.0,-2e-05,5e-05,-5.9999999999999995e-05,-5e-05,-9e-05,2.9999999999999997e-05,2
5731,5963,1e-05,0.0,-2e-05,5e-05,-5.9999999999999995e-05,-5e-05,-9e-05,2.9999999999999997e-05,2
5732,5964,1e-05,0.0,-2e-05,5e-05,-5.9999999999999995e-05,-5e-05,-9e-05,2.9999999999999997e-05,2
5733,5965,1e-05,0.0,-2e-05,5e-05,-5.9999999999999995e-05,-5e-05,-9e-05,2.9999999999999997e-05,2
5734,5966,1e-05,0.0,-2e-05,5e-05,-5.9999999999999995e-05,-5e-05,-9e-05,2.9999999999999997e-05,2
5735,5967,1e-05,0.0,-2e-05,5e-05,-5.9999999999999995e-05,-5e-05,-9e-05,2.9999999999999997e-05,2
5736,5968,1e-05,0.0,-2e-05,5e-05,-5.9999999999999995e-05,-5e-05,-9e-05,2.9999999999999997e-05,2
5737,5969,1e-05,0.0,-2e-05,5e-05,-5.9999999999999995e-05,-5e-05,-9e-05,2.9999999999999997e-05,2
5738,5970,1e-05,0.0,-2e-05,5e-05,-5.9999999999999995e-05,-5e-05,-9e-05,2.9999999999999997e-05,2
5739,5971,-2.9999999999999997e-05,-5.9999999999999995e-05,-2.9999999999999997e-05,2e-05,-4e-05,-7e-05,-0.00011999999999999999,-0.0001,2
5740,5972,-2.9999999999999997e-05,-5.9999999999999995e-05,-2.9999999999999997e-05,2e-05,-4e-05,-7e-05,-0.00011999999999999999,-0.0001,2
5741,5973,5e-05,1e-05,9e-05,1e-05,-4e-05,-0.00013000000000000002,-9e-05,2.9999999999999997e-05,2
5742,5974,5e-05,1e-05,9e-05,1e-05,-4e-05,-0.00013000000000000002,-9e-05,2.9999999999999997e-05,2
5743,5975,5e-05,1e-05,9e-05,1e-05,-4e-05,-0.00013000000000000002,-9e-05,2.9999999999999997e-05,2
5744,5976,5e-05,1e-05,9e-05,1e-05,-4e-05,-0.00013000000000000002,-9e-05,2.9999999999999997e-05,2
5745,5977,5e-05,1e-05,9e-05,1e-05,-4e-05,-0.00013000000000000002,-9e-05,2.9999999999999997e-05,2
5746,5978,5e-05,1e-05,9e-05,1e-05,-4e-05,-0.00013000000000000002,-9e-05,2.9999999999999997e-05,2
5747,5979,5e-05,1e-05,9e-05,1e-05,-4e-05,-0.00013000000000000002,-9e-05,2.9999999999999997e-05,2
5748,5980,5e-05,1e-05,9e-05,1e-05,-4e-05,-0.00013000000000000002,-9e-05,2.9999999999999997e-05,2
5749,5981,5e-05,1e-05,9e-05,1e-05,-4e-05,-0.00013000000000000002,-9e-05,2.9999999999999997e-05,2
5750,5982,5e-05,1e-05,9e-05,1e-05,-4e-05,-0.00013000000000000002,-9e-05,2.9999999999999997e-05,2
5751,5983,5e-05,1e-05,9e-05,1e-05,-4e-05,-0.00013000000000000002,-9e-05,2.9999999999999997e-05,2
5752,5984,5e-05,1e-05,9e-05,1e-05,-4e-05,-0.00013000000000000002,-9e-05,2.9999999999999997e-05,2
5753,5985,5e-05,1e-05,9e-05,1e-05,-4e-05,-0.00013000000000000002,-9e-05,2.9999999999999997e-05,2
5754,5986,5e-05,1e-05,9e-05,1e-05,-4e-05,-0.00013000000000000002,-9e-05,2.9999999999999997e-05,2
5755,5988,5e-05,1e-05,9e-05,1e-05,-4e-05,-0.00013000000000000002,-9e-05,2.9999999999999997e-05,2
5756,5989,5e-05,1e-05,9e-05,1e-05,-4e-05,-0.00013000000000000002,-9e-05,2.9999999999999997e-05,2
5757,5990,5e-05,1e-05,9e-05,1e-05,-4e-05,-0.00013000000000000002,-9e-05,2.9999999999999997e-05,2
5758,5991,5e-05,1e-05,9e-05,1e-05,-4e-05,-0.00013000000000000002,-9e-05,2.9999999999999997e-05,2
5759,5992,5e-05,1e-05,9e-05,1e-05,-4e-05,-0.00013000000000000002,-9e-05,2.9999999999999997e-05,2
5760,5993,5e-05,1e-05,9e-05,1e-05,-4e-05,-0.00013000000000000002,-9e-05,2.9999999999999997e-05,2
5761,5994,2e-05,2e-05,-4e-05,-9e-05,2e-05,2e-05,0.00035,8e-05,2
5762,5995,-2e-05,2e-05,2e-05,-2e-05,-2.9999999999999997e-05,0.0,-8e-05,0.0001,2
5763,5996,-2e-05,2e-05,2e-05,-2e-05,-2.9999999999999997e-05,0.0,-8e-05,0.0001,2
5764,5997,-2e-05,2e-05,2e-05,-2e-05,-2.9999999999999997e-05,0.0,-8e-05,0.0001,2
5765,5998,-2e-05,2e-05,2e-05,-2e-05,-2.9999999999999997e-05,0.0,-8e-05,0.0001,2
5766,5999,-2e-05,2e-05,2e-05,-2e-05,-2.9999999999999997e-05,0.0,-8e-05,0.0001,2
5767,6000,-2e-05,2e-05,2e-05,-2e-05,-2.9999999999999997e-05,0.0,-8e-05,0.0001,2
5768,6001,-2e-05,2e-05,2e-05,-2e-05,-2.9999999999999997e-05,0.0,-8e-05,0.0001,2
5769,6002,-2e-05,2e-05,2e-05,-2e-05,-2.9999999999999997e-05,0.0,-8e-05,0.0001,2
5770,6003,-2e-05,2e-05,2e-05,-2e-05,-2.9999999999999997e-05,0.0,-8e-05,0.0001,2
5771,6004,-2e-05,2e-05,2e-05,-2e-05,-2.9999999999999997e-05,0.0,-8e-05,0.0001,2
5772,6005,-2e-05,2e-05,2e-05,-2e-05,-2.9999999999999997e-05,0.0,-8e-05,0.0001,2
5773,6006,-2e-05,2e-05,2e-05,-2e-05,-2.9999999999999997e-05,0.0,-8e-05,0.0001,2
5774,6007,-8e-05,2e-05,5.9999999999999995e-05,-0.00025,-4e-05,-2e-05,4e-05,-0.00018999999999999998,2
5775,6008,0.0,-0.00014,-0.00042,-0.00011,0.0,-2.9999999999999997e-05,-5.9999999999999995e-05,0.00015,2
5776,6009,0.0,-0.00014,-0.00042,-0.00011,0.0,-2.9999999999999997e-05,-5.9999999999999995e-05,0.00015,2
5777,6010,0.0,-0.00014,-0.00042,-0.00011,0.0,-2.9999999999999997e-05,-5.9999999999999995e-05,0.00015,2
5778,6011,0.0,-0.00014,-0.00042,-0.00011,0.0,-2.9999999999999997e-05,-5.9999999999999995e-05,0.00015,2
5779,6012,0.0,-0.00014,-0.00042,-0.00011,0.0,-2.9999999999999997e-05,-5.9999999999999995e-05,0.00015,2
5780,6013,0.0,-0.00014,-0.00042,-0.00011,0.0,-2.9999999999999997e-05,-5.9999999999999995e-05,0.00015,2
5781,6014,0.0,-0.00014,-0.00042,-0.00011,0.0,-2.9999999999999997e-05,-5.9999999999999995e-05,0.00015,2
5782,6015,0.0,-0.00014,-0.00042,-0.00011,0.0,-2.9999999999999997e-05,-5.9999999999999995e-05,0.00015,2
5783,6016,0.0,1e-05,5e-05,-2e-05,-2e-05,-0.00015,-4e-05,-2e-05,2
5784,6017,0.0,1e-05,5e-05,-2e-05,-2e-05,-0.00015,-4e-05,-2e-05,2
5785,6018,0.0,1e-05,5e-05,-2e-05,-2e-05,-0.00015,-4e-05,-2e-05,2
5786,6019,0.0,1e-05,5e-05,-2e-05,-2e-05,-0.00015,-4e-05,-2e-05,2
5787,6020,0.0,1e-05,5e-05,-2e-05,-2e-05,-0.00015,-4e-05,-2e-05,2
5788,6021,0.0,1e-05,5e-05,-2e-05,-2e-05,-0.00015,-4e-05,-2e-05,2
5789,6022,0.0,1e-05,5e-05,-2e-05,-2e-05,-0.00015,-4e-05,-2e-05,2
5790,6023,0.0,1e-05,5e-05,-2e-05,-2e-05,-0.00015,-4e-05,-2e-05,2
5791,6024,0.0,1e-05,5e-05,-2e-05,-2e-05,-0.00015,-4e-05,-2e-05,2
5792,6025,0.0,1e-05,5e-05,-2e-05,-2e-05,-0.00015,-4e-05,-2e-05,2
5793,6026,0.0,1e-05,5e-05,-2e-05,-2e-05,-0.00015,-4e-05,-2e-05,2
5794,6027,0.0,1e-05,5e-05,-2e-05,-2e-05,-0.00015,-4e-05,-2e-05,2
5795,6028,0.0,1e-05,5e-05,-2e-05,-2e-05,-0.00015,-4e-05,-2e-05,2
5796,6029,0.0,1e-05,5e-05,-2e-05,-2e-05,-0.00015,-4e-05,-2e-05,2
5797,6030,0.0,1e-05,5e-05,-2e-05,-2e-05,-0.00015,-4e-05,-2e-05,2
5798,6031,-2e-05,-8e-05,1e-05,8e-05,0.0,-2e-05,-1e-05,-7e-05,2
5799,6032,-2e-05,-8e-05,1e-05,8e-05,0.0,-2e-05,-1e-05,-7e-05,2
5800,6033,-5e-05,-2.9999999999999997e-05,-0.00011,-0.00016,-5e-05,-4e-05,-0.0002,-5e-05,2
5801,6034,-5e-05,-2.9999999999999997e-05,-0.00011,-0.00016,-5e-05,-4e-05,-0.0002,-5e-05,2
5802,6035,-5e-05,-2.9999999999999997e-05,-0.00011,-0.00016,-5e-05,-4e-05,-0.0002,-5e-05,2
5803,6036,-5e-05,-2.9999999999999997e-05,-0.00011,-0.00016,-5e-05,-4e-05,-0.0002,-5e-05,2
5804,6038,-5e-05,-2.9999999999999997e-05,-0.00011,-0.00016,-5e-05,-4e-05,-0.0002,-5e-05,2
5805,6039,-5e-05,-2.9999999999999997e-05,-0.00011,-0.00016,-5e-05,-4e-05,-0.0002,-5e-05,2
5806,6040,-5e-05,-2.9999999999999997e-05,-0.00011,-0.00016,-5e-05,-4e-05,-0.0002,-5e-05,2
5807,6041,-5e-05,-2.9999999999999997e-05,-0.00011,-0.00016,-5e-05,-4e-05,-0.0002,-5e-05,2
5808,6042,-5e-05,-2.9999999999999997e-05,-0.00011,-0.00016,-5e-05,-4e-05,-0.0002,-5e-05,2
5809,6043,-5e-05,-2.9999999999999997e-05,-0.00011,-0.00016,-5e-05,-4e-05,-0.0002,-5e-05,2
5810,6044,-5e-05,-2.9999999999999997e-05,-0.00011,-0.00016,-5e-05,-4e-05,-0.0002,-5e-05,2
5811,6045,-5e-05,-2.9999999999999997e-05,-0.00011,-0.00016,-5e-05,-4e-05,-0.0002,-5e-05,2
5812,6046,-5e-05,-2.9999999999999997e-05,-0.00011,-0.00016,-5e-05,-4e-05,-0.0002,-5e-05,2
5813,6047,-5e-05,-2.9999999999999997e-05,-0.00011,-0.00016,-5e-05,-4e-05,-0.0002,-5e-05,2
5814,6048,-5e-05,-2.9999999999999997e-05,-0.00011,-0.00016,-5e-05,-4e-05,-0.0002,-5e-05,2
5815,6049,-5e-05,-2.9999999999999997e-05,-0.00011,-0.00016,-5e-05,-4e-05,-0.0002,-5e-05,2
5816,6050,-5e-05,-2.9999999999999997e-05,-0.00011,-0.00016,-5e-05,-4e-05,-0.0002,-5e-05,2
5817,6051,-5e-05,-2.9999999999999997e-05,-0.00011,-0.00016,-5e-05,-4e-05,-0.0002,-5e-05,2
5818,6052,-5e-05,-2.9999999999999997e-05,-0.00011,-0.00016,-5e-05,-4e-05,-0.0002,-5e-05,2
5819,6053,-5e-05,-2.9999999999999997e-05,-0.00011,-0.00016,-5e-05,-4e-05,-0.0002,-5e-05,2
5820,6054,4e-05,4e-05,7e-05,0.00011999999999999999,5e-05,8e-05,0.00031,9e-05,2
5821,6055,-1e-05,1e-05,5e-05,5e-05,2.9999999999999997e-05,0.00022,0.0001,1e-05,2
5822,6056,-1e-05,1e-05,5e-05,5e-05,2.9999999999999997e-05,0.00022,0.0001,1e-05,2
5823,6057,-1e-05,1e-05,5e-05,5e-05,2.9999999999999997e-05,0.00022,0.0001,1e-05,2
5824,6058,-1e-05,1e-05,5e-05,5e-05,2.9999999999999997e-05,0.00022,0.0001,1e-05,2
5825,6059,-1e-05,1e-05,5e-05,5e-05,2.9999999999999997e-05,0.00022,0.0001,1e-05,2
5826,6060,-1e-05,1e-05,5e-05,5e-05,2.9999999999999997e-05,0.00022,0.0001,1e-05,2
5827,6061,-1e-05,1e-05,5e-05,5e-05,2.9999999999999997e-05,0.00022,0.0001,1e-05,2
5828,6062,-1e-05,1e-05,5e-05,5e-05,2.9999999999999997e-05,0.00022,0.0001,1e-05,2
5829,6063,-1e-05,1e-05,5e-05,5e-05,2.9999999999999997e-05,0.00022,0.0001,1e-05,2
5830,6064,-1e-05,1e-05,5e-05,5e-05,2.9999999999999997e-05,0.00022,0.0001,1e-05,2
5831,6065,-1e-05,1e-05,5e-05,5e-05,2.9999999999999997e-05,0.00022,0.0001,1e-05,2
5832,6066,-1e-05,1e-05,5e-05,5e-05,2.9999999999999997e-05,0.00022,0.0001,1e-05,2
5833,6067,-4e-05,4e-05,0.00011999999999999999,0.00027,-2e-05,-1e-05,8e-05,2.9999999999999997e-05,2
5834,6068,-4e-05,4e-05,0.00011999999999999999,0.00027,-2e-05,-1e-05,8e-05,2.9999999999999997e-05,2
5835,6069,-4e-05,4e-05,0.00011999999999999999,0.00027,-2e-05,-1e-05,8e-05,2.9999999999999997e-05,2
5836,6070,-4e-05,4e-05,0.00011999999999999999,0.00027,-2e-05,-1e-05,8e-05,2.9999999999999997e-05,2
5837,6071,-4e-05,4e-05,0.00011999999999999999,0.00027,-2e-05,-1e-05,8e-05,2.9999999999999997e-05,2
5838,6072,-4e-05,4e-05,0.00011999999999999999,0.00027,-2e-05,-1e-05,8e-05,2.9999999999999997e-05,2
5839,6073,-4e-05,4e-05,0.00011999999999999999,0.00027,-2e-05,-1e-05,8e-05,2.9999999999999997e-05,2
5840,6074,-4e-05,4e-05,0.00011999999999999999,0.00027,-2e-05,-1e-05,8e-05,2.9999999999999997e-05,2
5841,6075,-4e-05,4e-05,0.00011999999999999999,0.00027,-2e-05,-1e-05,8e-05,2.9999999999999997e-05,2
5842,6076,-2.9999999999999997e-05,-2.9999999999999997e-05,-0.0001,-0.0003,-1e-05,-5e-05,7e-05,-0.00015,2
5843,6077,-2.9999999999999997e-05,-2.9999999999999997e-05,-0.0001,-0.0003,-1e-05,-5e-05,7e-05,-0.00015,2
5844,6078,-2.9999999999999997e-05,-2.9999999999999997e-05,-0.0001,-0.0003,-1e-05,-5e-05,7e-05,-0.00015,2
5845,6079,-2.9999999999999997e-05,-2.9999999999999997e-05,-0.0001,-0.0003,-1e-05,-5e-05,7e-05,-0.00015,2
5846,6080,-2.9999999999999997e-05,-2.9999999999999997e-05,-0.0001,-0.0003,-1e-05,-5e-05,7e-05,-0.00015,2
5847,6081,-2.9999999999999997e-05,-2.9999999999999997e-05,-0.0001,-0.0003,-1e-05,-5e-05,7e-05,-0.00015,2
5848,6082,-2.9999999999999997e-05,-2.9999999999999997e-05,-0.0001,-0.0003,-1e-05,-5e-05,7e-05,-0.00015,2
5849,6083,-2.9999999999999997e-05,-2.9999999999999997e-05,-0.0001,-0.0003,-1e-05,-5e-05,7e-05,-0.00015,2
5850,6084,-2.9999999999999997e-05,-2.9999999999999997e-05,-0.0001,-0.0003,-1e-05,-5e-05,7e-05,-0.00015,2
5851,6085,-2.9999999999999997e-05,-2.9999999999999997e-05,-0.0001,-0.0003,-1e-05,-5e-05,7e-05,-0.00015,2
5852,6086,-2.9999999999999997e-05,-2.9999999999999997e-05,-0.0001,-0.0003,-1e-05,-5e-05,7e-05,-0.00015,2
5853,6088,-2.9999999999999997e-05,-2.9999999999999997e-05,-0.0001,-0.0003,-1e-05,-5e-05,7e-05,-0.00015,2
5854,6089,-2.9999999999999997e-05,-2.9999999999999997e-05,-0.0001,-0.0003,-1e-05,-5e-05,7e-05,-0.00015,2
5855,6090,-2.9999999999999997e-05,-2.9999999999999997e-05,-0.0001,-0.0003,-1e-05,-5e-05,7e-05,-0.00015,2
5856,6091,-4e-05,-4e-05,-1e-05,-2.9999999999999997e-05,0.0,-8e-05,-9e-05,-7e-05,2
5857,6092,-4e-05,-4e-05,-1e-05,-2.9999999999999997e-05,0.0,-8e-05,-9e-05,-7e-05,2
5858,6093,-2e-05,-1e-05,1e-05,0.00022,-1e-05,-5.9999999999999995e-05,-0.00018999999999999998,0.0,2
5859,6094,-2e-05,-1e-05,1e-05,0.00022,-1e-05,-5.9999999999999995e-05,-0.00018999999999999998,0.0,2
5860,6095,-2e-05,-1e-05,1e-05,0.00022,-1e-05,-5.9999999999999995e-05,-0.00018999999999999998,0.0,2
5861,6096,-2e-05,-1e-05,1e-05,0.00022,-1e-05,-5.9999999999999995e-05,-0.00018999999999999998,0.0,2
5862,6097,-2e-05,-1e-05,1e-05,0.00022,-1e-05,-5.9999999999999995e-05,-0.00018999999999999998,0.0,2
5863,6098,-2e-05,-1e-05,1e-05,0.00022,-1e-05,-5.9999999999999995e-05,-0.00018999999999999998,0.0,2
5864,6099,-2e-05,-1e-05,1e-05,0.00022,-1e-05,-5.9999999999999995e-05,-0.00018999999999999998,0.0,2
5865,6100,-2e-05,-1e-05,1e-05,0.00022,-1e-05,-5.9999999999999995e-05,-0.00018999999999999998,0.0,2
5866,6101,-2e-05,-1e-05,1e-05,0.00022,-1e-05,-5.9999999999999995e-05,-0.00018999999999999998,0.0,2
5867,6102,-2e-05,-1e-05,1e-05,0.00022,-1e-05,-5.9999999999999995e-05,-0.00018999999999999998,0.0,2
5868,6103,-2e-05,-1e-05,1e-05,0.00022,-1e-05,-5.9999999999999995e-05,-0.00018999999999999998,0.0,2
5869,6104,-2e-05,-1e-05,1e-05,0.00022,-1e-05,-5.9999999999999995e-05,-0.00018999999999999998,0.0,2
5870,6105,-2e-05,-1e-05,1e-05,0.00022,-1e-05,-5.9999999999999995e-05,-0.00018999999999999998,0.0,2
5871,6106,-2e-05,-1e-05,1e-05,0.00022,-1e-05,-5.9999999999999995e-05,-0.00018999999999999998,0.0,2
5872,6107,-2e-05,-1e-05,1e-05,0.00022,-1e-05,-5.9999999999999995e-05,-0.00018999999999999998,0.0,2
5873,6108,-2e-05,-1e-05,1e-05,0.00022,-1e-05,-5.9999999999999995e-05,-0.00018999999999999998,0.0,2
5874,6109,-2e-05,-1e-05,1e-05,0.00022,-1e-05,-5.9999999999999995e-05,-0.00018999999999999998,0.0,2
5875,6110,-2e-05,-1e-05,1e-05,0.00022,-1e-05,-5.9999999999999995e-05,-0.00018999999999999998,0.0,2
5876,6111,-2e-05,-1e-05,1e-05,0.00022,-1e-05,-5.9999999999999995e-05,-0.00018999999999999998,0.0,2
5877,6112,-2e-05,-1e-05,1e-05,0.00022,-1e-05,-5.9999999999999995e-05,-0.00018999999999999998,0.0,2
5878,6113,-2e-05,-1e-05,1e-05,0.00022,-1e-05,-5.9999999999999995e-05,-0.00018999999999999998,0.0,2
5879,6114,1e-05,1e-05,9e-05,9e-05,-2.9999999999999997e-05,-2.9999999999999997e-05,-0.0001,-4e-05,2
5880,6115,-5e-05,-1e-05,-9e-05,-2.9999999999999997e-05,0.0,-5.9999999999999995e-05,-1e-05,-8e-05,2
5881,6116,-5e-05,-1e-05,-9e-05,-2.9999999999999997e-05,0.0,-5.9999999999999995e-05,-1e-05,-8e-05,2
5882,6117,-5e-05,-1e-05,-9e-05,-2.9999999999999997e-05,0.0,-5.9999999999999995e-05,-1e-05,-8e-05,2
5883,6118,-5e-05,-1e-05,-9e-05,-2.9999999999999997e-05,0.0,-5.9999999999999995e-05,-1e-05,-8e-05,2
5884,6119,-5e-05,-1e-05,-9e-05,-2.9999999999999997e-05,0.0,-5.9999999999999995e-05,-1e-05,-8e-05,2
5885,6120,-5e-05,-1e-05,-9e-05,-2.9999999999999997e-05,0.0,-5.9999999999999995e-05,-1e-05,-8e-05,2
5886,6121,-5e-05,-1e-05,-9e-05,-2.9999999999999997e-05,0.0,-5.9999999999999995e-05,-1e-05,-8e-05,2
5887,6122,-5e-05,-1e-05,-9e-05,-2.9999999999999997e-05,0.0,-5.9999999999999995e-05,-1e-05,-8e-05,2
5888,6123,-5e-05,-1e-05,-9e-05,-2.9999999999999997e-05,0.0,-5.9999999999999995e-05,-1e-05,-8e-05,2
5889,6124,-5e-05,-1e-05,-9e-05,-2.9999999999999997e-05,0.0,-5.9999999999999995e-05,-1e-05,-8e-05,2
5890,6125,-5e-05,-1e-05,-9e-05,-2.9999999999999997e-05,0.0,-5.9999999999999995e-05,-1e-05,-8e-05,2
5891,6126,-5e-05,-1e-05,-9e-05,-2.9999999999999997e-05,0.0,-5.9999999999999995e-05,-1e-05,-8e-05,2
5892,6127,-5e-05,-1e-05,-9e-05,-2.9999999999999997e-05,0.0,-5.9999999999999995e-05,-1e-05,-8e-05,2
5893,6128,-5e-05,-1e-05,-9e-05,-2.9999999999999997e-05,0.0,-5.9999999999999995e-05,-1e-05,-8e-05,2
5894,6129,-5e-05,-1e-05,-9e-05,-2.9999999999999997e-05,0.0,-5.9999999999999995e-05,-1e-05,-8e-05,2
5895,6130,-5e-05,-1e-05,-9e-05,-2.9999999999999997e-05,0.0,-5.9999999999999995e-05,-1e-05,-8e-05,2
5896,6131,-5e-05,-1e-05,-9e-05,-2.9999999999999997e-05,0.0,-5.9999999999999995e-05,-1e-05,-8e-05,2
5897,6132,-5e-05,-1e-05,-9e-05,-2.9999999999999997e-05,0.0,-5.9999999999999995e-05,-1e-05,-8e-05,2
5898,6133,-5e-05,-1e-05,-9e-05,-2.9999999999999997e-05,0.0,-5.9999999999999995e-05,-1e-05,-8e-05,2
5899,6134,-5e-05,-1e-05,-9e-05,-2.9999999999999997e-05,0.0,-5.9999999999999995e-05,-1e-05,-8e-05,2
5900,6135,-5e-05,-1e-05,-9e-05,-2.9999999999999997e-05,0.0,-5.9999999999999995e-05,-1e-05,-8e-05,2
5901,6136,9e-05,5.9999999999999995e-05,0.00016,8e-05,-4e-05,-4e-05,-0.00023999999999999998,2.9999999999999997e-05,2
5902,6139,2.9999999999999997e-05,-2.9999999999999997e-05,-1e-05,0.00013000000000000002,2e-05,0.0,-0.00023999999999999998,2.9999999999999997e-05,2
5903,6140,2.9999999999999997e-05,-2.9999999999999997e-05,-1e-05,0.00013000000000000002,2e-05,0.0,-0.00023999999999999998,2.9999999999999997e-05,2
5904,6141,2.9999999999999997e-05,-2.9999999999999997e-05,-1e-05,0.00013000000000000002,2e-05,0.0,-0.00023999999999999998,2.9999999999999997e-05,2
5905,6142,2.9999999999999997e-05,-2.9999999999999997e-05,-1e-05,0.00013000000000000002,2e-05,0.0,-0.00023999999999999998,2.9999999999999997e-05,2
5906,6143,2.9999999999999997e-05,-2.9999999999999997e-05,-1e-05,0.00013000000000000002,2e-05,0.0,-0.00023999999999999998,2.9999999999999997e-05,2
5907,6144,2.9999999999999997e-05,-2.9999999999999997e-05,-1e-05,0.00013000000000000002,2e-05,0.0,-0.00023999999999999998,2.9999999999999997e-05,2
5908,6145,2.9999999999999997e-05,-2.9999999999999997e-05,-1e-05,0.00013000000000000002,2e-05,0.0,-0.00023999999999999998,2.9999999999999997e-05,2
5909,6146,2.9999999999999997e-05,-2.9999999999999997e-05,-1e-05,0.00013000000000000002,2e-05,0.0,-0.00023999999999999998,2.9999999999999997e-05,2
5910,6147,2.9999999999999997e-05,-2.9999999999999997e-05,-1e-05,0.00013000000000000002,2e-05,0.0,-0.00023999999999999998,2.9999999999999997e-05,2
5911,6148,2.9999999999999997e-05,-2.9999999999999997e-05,-1e-05,0.00013000000000000002,2e-05,0.0,-0.00023999999999999998,2.9999999999999997e-05,2
5912,6149,2.9999999999999997e-05,-2.9999999999999997e-05,-1e-05,0.00013000000000000002,2e-05,0.0,-0.00023999999999999998,2.9999999999999997e-05,2
5913,6150,2.9999999999999997e-05,-2.9999999999999997e-05,-1e-05,0.00013000000000000002,2e-05,0.0,-0.00023999999999999998,2.9999999999999997e-05,2
5914,6151,4e-05,2e-05,-2e-05,-2e-05,2e-05,2e-05,-0.00015,-2e-05,2
5915,6152,4e-05,2e-05,-2e-05,-2e-05,2e-05,2e-05,-0.00015,-2e-05,2
5916,6153,-2.9999999999999997e-05,2.9999999999999997e-05,0.00015,9e-05,-2.9999999999999997e-05,2e-05,0.00014,5.9999999999999995e-05,2
5917,6154,-2.9999999999999997e-05,2.9999999999999997e-05,0.00015,9e-05,-2.9999999999999997e-05,2e-05,0.00014,5.9999999999999995e-05,2
5918,6155,-2.9999999999999997e-05,2.9999999999999997e-05,0.00015,9e-05,-2.9999999999999997e-05,2e-05,0.00014,5.9999999999999995e-05,2
5919,6156,-2.9999999999999997e-05,2.9999999999999997e-05,0.00015,9e-05,-2.9999999999999997e-05,2e-05,0.00014,5.9999999999999995e-05,2
5920,6157,-2.9999999999999997e-05,2.9999999999999997e-05,0.00015,9e-05,-2.9999999999999997e-05,2e-05,0.00014,5.9999999999999995e-05,2
5921,6158,-2.9999999999999997e-05,2.9999999999999997e-05,0.00015,9e-05,-2.9999999999999997e-05,2e-05,0.00014,5.9999999999999995e-05,2
5922,6159,-2.9999999999999997e-05,2.9999999999999997e-05,0.00015,9e-05,-2.9999999999999997e-05,2e-05,0.00014,5.9999999999999995e-05,2
5923,6160,-2.9999999999999997e-05,2.9999999999999997e-05,0.00015,9e-05,-2.9999999999999997e-05,2e-05,0.00014,5.9999999999999995e-05,2
5924,6161,-2.9999999999999997e-05,2.9999999999999997e-05,0.00015,9e-05,-2.9999999999999997e-05,2e-05,0.00014,5.9999999999999995e-05,2
5925,6162,-2.9999999999999997e-05,2.9999999999999997e-05,0.00015,9e-05,-2.9999999999999997e-05,2e-05,0.00014,5.9999999999999995e-05,2
5926,6163,-2.9999999999999997e-05,2.9999999999999997e-05,0.00015,9e-05,-2.9999999999999997e-05,2e-05,0.00014,5.9999999999999995e-05,2
5927,6164,-2.9999999999999997e-05,2.9999999999999997e-05,0.00015,9e-05,-2.9999999999999997e-05,2e-05,0.00014,5.9999999999999995e-05,2
5928,6165,-2.9999999999999997e-05,2.9999999999999997e-05,0.00015,9e-05,-2.9999999999999997e-05,2e-05,0.00014,5.9999999999999995e-05,2
5929,6166,-2.9999999999999997e-05,2.9999999999999997e-05,0.00015,9e-05,-2.9999999999999997e-05,2e-05,0.00014,5.9999999999999995e-05,2
5930,6167,-2.9999999999999997e-05,2.9999999999999997e-05,0.00015,9e-05,-2.9999999999999997e-05,2e-05,0.00014,5.9999999999999995e-05,2
5931,6168,-2.9999999999999997e-05,2.9999999999999997e-05,0.00015,9e-05,-2.9999999999999997e-05,2e-05,0.00014,5.9999999999999995e-05,2
5932,6169,-2.9999999999999997e-05,2.9999999999999997e-05,0.00015,9e-05,-2.9999999999999997e-05,2e-05,0.00014,5.9999999999999995e-05,2
5933,6170,-2.9999999999999997e-05,2.9999999999999997e-05,0.00015,9e-05,-2.9999999999999997e-05,2e-05,0.00014,5.9999999999999995e-05,2
5934,6171,-2.9999999999999997e-05,2.9999999999999997e-05,0.00015,9e-05,-2.9999999999999997e-05,2e-05,0.00014,5.9999999999999995e-05,2
5935,6172,-2.9999999999999997e-05,2.9999999999999997e-05,0.00015,9e-05,-2.9999999999999997e-05,2e-05,0.00014,5.9999999999999995e-05,2
5936,6173,-2.9999999999999997e-05,2.9999999999999997e-05,0.00015,9e-05,-2.9999999999999997e-05,2e-05,0.00014,5.9999999999999995e-05,2
5937,6174,1e-05,-4e-05,-2e-05,-2e-05,-2e-05,4e-05,-7e-05,4e-05,2
5938,6175,-1e-05,-4e-05,-0.00016999999999999999,-7e-05,-1e-05,0.00011999999999999999,-1e-05,-5.9999999999999995e-05,2
5939,6176,-1e-05,-4e-05,-0.00016999999999999999,-7e-05,-1e-05,0.00011999999999999999,-1e-05,-5.9999999999999995e-05,2
5940,6177,-1e-05,-4e-05,-0.00016999999999999999,-7e-05,-1e-05,0.00011999999999999999,-1e-05,-5.9999999999999995e-05,2
5941,6178,-1e-05,-4e-05,-0.00016999999999999999,-7e-05,-1e-05,0.00011999999999999999,-1e-05,-5.9999999999999995e-05,2
5942,6179,-1e-05,-4e-05,-0.00016999999999999999,-7e-05,-1e-05,0.00011999999999999999,-1e-05,-5.9999999999999995e-05,2
5943,6180,-1e-05,-4e-05,-0.00016999999999999999,-7e-05,-1e-05,0.00011999999999999999,-1e-05,-5.9999999999999995e-05,2
5944,6181,-1e-05,-4e-05,-0.00016999999999999999,-7e-05,-1e-05,0.00011999999999999999,-1e-05,-5.9999999999999995e-05,2
5945,6182,-1e-05,-4e-05,-0.00016999999999999999,-7e-05,-1e-05,0.00011999999999999999,-1e-05,-5.9999999999999995e-05,2
5946,6183,-1e-05,-4e-05,-0.00016999999999999999,-7e-05,-1e-05,0.00011999999999999999,-1e-05,-5.9999999999999995e-05,2
5947,6184,-1e-05,-4e-05,-0.00016999999999999999,-7e-05,-1e-05,0.00011999999999999999,-1e-05,-5.9999999999999995e-05,2
5948,6185,-1e-05,-4e-05,-0.00016999999999999999,-7e-05,-1e-05,0.00011999999999999999,-1e-05,-5.9999999999999995e-05,2
5949,6186,-1e-05,-4e-05,-0.00016999999999999999,-7e-05,-1e-05,0.00011999999999999999,-1e-05,-5.9999999999999995e-05,2
5950,6188,-1e-05,-4e-05,-0.00016999999999999999,-7e-05,-1e-05,0.00011999999999999999,-1e-05,-5.9999999999999995e-05,2
5951,6189,-1e-05,-4e-05,-0.00016999999999999999,-7e-05,-1e-05,0.00011999999999999999,-1e-05,-5.9999999999999995e-05,2
5952,6190,-1e-05,-4e-05,-0.00016999999999999999,-7e-05,-1e-05,0.00011999999999999999,-1e-05,-5.9999999999999995e-05,2
5953,6191,-1e-05,-4e-05,-0.00016999999999999999,-7e-05,-1e-05,0.00011999999999999999,-1e-05,-5.9999999999999995e-05,2
5954,6192,-1e-05,-4e-05,-0.00016999999999999999,-7e-05,-1e-05,0.00011999999999999999,-1e-05,-5.9999999999999995e-05,2
5955,6193,-1e-05,-4e-05,-0.00016999999999999999,-7e-05,-1e-05,0.00011999999999999999,-1e-05,-5.9999999999999995e-05,2
5956,6194,-1e-05,-4e-05,-0.00016999999999999999,-7e-05,-1e-05,0.00011999999999999999,-1e-05,-5.9999999999999995e-05,2
5957,6195,-1e-05,-4e-05,-0.00016999999999999999,-7e-05,-1e-05,0.00011999999999999999,-1e-05,-5.9999999999999995e-05,2
5958,6196,-2e-05,-1e-05,-0.00015,-0.00027,-1e-05,4e-05,7e-05,0.0,2
5959,6197,-2e-05,-1e-05,-0.00015,-0.00027,-1e-05,4e-05,7e-05,0.0,2
5960,6198,-4e-05,0.0,1e-05,-2.9999999999999997e-05,-1e-05,-1e-05,-0.00016,-5.9999999999999995e-05,2
5961,6199,-4e-05,0.0,1e-05,-2.9999999999999997e-05,-1e-05,-1e-05,-0.00016,-5.9999999999999995e-05,2
5962,6200,-4e-05,0.0,1e-05,-2.9999999999999997e-05,-1e-05,-1e-05,-0.00016,-5.9999999999999995e-05,2
5963,6201,-4e-05,0.0,1e-05,-2.9999999999999997e-05,-1e-05,-1e-05,-0.00016,-5.9999999999999995e-05,2
5964,6202,-4e-05,0.0,1e-05,-2.9999999999999997e-05,-1e-05,-1e-05,-0.00016,-5.9999999999999995e-05,2
5965,6203,-4e-05,0.0,1e-05,-2.9999999999999997e-05,-1e-05,-1e-05,-0.00016,-5.9999999999999995e-05,2
5966,6204,-4e-05,0.0,1e-05,-2.9999999999999997e-05,-1e-05,-1e-05,-0.00016,-5.9999999999999995e-05,2
5967,6205,-4e-05,0.0,1e-05,-2.9999999999999997e-05,-1e-05,-1e-05,-0.00016,-5.9999999999999995e-05,2
5968,6206,-4e-05,0.0,1e-05,-2.9999999999999997e-05,-1e-05,-1e-05,-0.00016,-5.9999999999999995e-05,2
5969,6207,-4e-05,0.0,1e-05,-2.9999999999999997e-05,-1e-05,-1e-05,-0.00016,-5.9999999999999995e-05,2
5970,6208,-4e-05,0.0,1e-05,-2.9999999999999997e-05,-1e-05,-1e-05,-0.00016,-5.9999999999999995e-05,2
5971,6209,-4e-05,0.0,1e-05,-2.9999999999999997e-05,-1e-05,-1e-05,-0.00016,-5.9999999999999995e-05,2
5972,6210,-4e-05,0.0,1e-05,-2.9999999999999997e-05,-1e-05,-1e-05,-0.00016,-5.9999999999999995e-05,2
5973,6211,-1e-05,-4e-05,-4e-05,-0.00013000000000000002,0.0,-8e-05,0.00022999999999999998,5.9999999999999995e-05,2
5974,6212,-1e-05,-4e-05,-4e-05,-0.00013000000000000002,0.0,-8e-05,0.00022999999999999998,5.9999999999999995e-05,2
5975,6213,2e-05,-4e-05,-0.00029,-0.00023999999999999998,0.0,-7e-05,-0.00014,2e-05,2
5976,6214,2e-05,-4e-05,-0.00029,-0.00023999999999999998,0.0,-7e-05,-0.00014,2e-05,2
5977,6215,2e-05,-4e-05,-0.00029,-0.00023999999999999998,0.0,-7e-05,-0.00014,2e-05,2
5978,6216,2e-05,-4e-05,-0.00029,-0.00023999999999999998,0.0,-7e-05,-0.00014,2e-05,2
5979,6217,2e-05,-4e-05,-0.00029,-0.00023999999999999998,0.0,-7e-05,-0.00014,2e-05,2
5980,6218,2e-05,-4e-05,-0.00029,-0.00023999999999999998,0.0,-7e-05,-0.00014,2e-05,2
5981,6219,2e-05,-4e-05,-0.00029,-0.00023999999999999998,0.0,-7e-05,-0.00014,2e-05,2
5982,6220,2e-05,-4e-05,-0.00029,-0.00023999999999999998,0.0,-7e-05,-0.00014,2e-05,2
5983,6221,2e-05,-4e-05,-0.00029,-0.00023999999999999998,0.0,-7e-05,-0.00014,2e-05,2
5984,6222,2e-05,-4e-05,-0.00029,-0.00023999999999999998,0.0,-7e-05,-0.00014,2e-05,2
5985,6223,2e-05,-4e-05,-0.00029,-0.00023999999999999998,0.0,-7e-05,-0.00014,2e-05,2
5986,6224,2e-05,-4e-05,-0.00029,-0.00023999999999999998,0.0,-7e-05,-0.00014,2e-05,2
5987,6225,2e-05,-4e-05,-0.00029,-0.00023999999999999998,0.0,-7e-05,-0.00014,2e-05,2
5988,6226,2e-05,-4e-05,-0.00029,-0.00023999999999999998,0.0,-7e-05,-0.00014,2e-05,2
5989,6227,2e-05,-4e-05,-0.00029,-0.00023999999999999998,0.0,-7e-05,-0.00014,2e-05,2
5990,6228,2e-05,-4e-05,-0.00029,-0.00023999999999999998,0.0,-7e-05,-0.00014,2e-05,2
5991,6229,2e-05,-4e-05,-0.00029,-0.00023999999999999998,0.0,-7e-05,-0.00014,2e-05,2
5992,6230,2e-05,-4e-05,-0.00029,-0.00023999999999999998,0.0,-7e-05,-0.00014,2e-05,2
5993,6231,2e-05,-4e-05,-0.00029,-0.00023999999999999998,0.0,-7e-05,-0.00014,2e-05,2
5994,6232,2e-05,-4e-05,-0.00029,-0.00023999999999999998,0.0,-7e-05,-0.00014,2e-05,2
5995,6233,2e-05,-4e-05,-0.00029,-0.00023999999999999998,0.0,-7e-05,-0.00014,2e-05,2
5996,6234,-4e-05,9e-05,0.00022,0.00014,0.0,-7e-05,-0.00016,-0.00013000000000000002,2
5997,6235,2.9999999999999997e-05,0.0,9e-05,0.0001,-2e-05,-4e-05,2.9999999999999997e-05,0.0,2
5998,6236,2.9999999999999997e-05,0.0,9e-05,0.0001,-2e-05,-4e-05,2.9999999999999997e-05,0.0,2
5999,6238,2.9999999999999997e-05,0.0,9e-05,0.0001,-2e-05,-4e-05,2.9999999999999997e-05,0.0,2
6000,6239,2.9999999999999997e-05,0.0,9e-05,0.0001,-2e-05,-4e-05,2.9999999999999997e-05,0.0,2
6001,6240,2.9999999999999997e-05,0.0,9e-05,0.0001,-2e-05,-4e-05,2.9999999999999997e-05,0.0,2
6002,6241,2.9999999999999997e-05,0.0,9e-05,0.0001,-2e-05,-4e-05,2.9999999999999997e-05,0.0,2
6003,6242,2.9999999999999997e-05,0.0,9e-05,0.0001,-2e-05,-4e-05,2.9999999999999997e-05,0.0,2
6004,6243,2.9999999999999997e-05,0.0,9e-05,0.0001,-2e-05,-4e-05,2.9999999999999997e-05,0.0,2
6005,6244,2.9999999999999997e-05,0.0,9e-05,0.0001,-2e-05,-4e-05,2.9999999999999997e-05,0.0,2
6006,6245,2.9999999999999997e-05,0.0,9e-05,0.0001,-2e-05,-4e-05,2.9999999999999997e-05,0.0,2
6007,6246,2.9999999999999997e-05,0.0,9e-05,0.0001,-2e-05,-4e-05,2.9999999999999997e-05,0.0,2
6008,6247,2.9999999999999997e-05,0.0,9e-05,0.0001,-2e-05,-4e-05,2.9999999999999997e-05,0.0,2
6009,6248,2.9999999999999997e-05,0.0,9e-05,0.0001,-2e-05,-4e-05,2.9999999999999997e-05,0.0,2
6010,6249,2.9999999999999997e-05,0.0,9e-05,0.0001,-2e-05,-4e-05,2.9999999999999997e-05,0.0,2
6011,6250,2.9999999999999997e-05,0.0,9e-05,0.0001,-2e-05,-4e-05,2.9999999999999997e-05,0.0,2
6012,6251,2.9999999999999997e-05,0.0,9e-05,0.0001,-2e-05,-4e-05,2.9999999999999997e-05,0.0,2
6013,6252,2.9999999999999997e-05,0.0,9e-05,0.0001,-2e-05,-4e-05,2.9999999999999997e-05,0.0,2
6014,6253,2.9999999999999997e-05,0.0,9e-05,0.0001,-2e-05,-4e-05,2.9999999999999997e-05,0.0,2
6015,6254,2.9999999999999997e-05,0.0,9e-05,0.0001,-2e-05,-4e-05,2.9999999999999997e-05,0.0,2
6016,6255,2.9999999999999997e-05,0.0,9e-05,0.0001,-2e-05,-4e-05,2.9999999999999997e-05,0.0,2
6017,6256,1e-05,-4e-05,-8e-05,0.0,-2e-05,-2.9999999999999997e-05,-0.0001,0.00014,2
6018,6257,1e-05,-4e-05,-8e-05,0.0,-2e-05,-2.9999999999999997e-05,-0.0001,0.00014,2
6019,6258,1e-05,-4e-05,-8e-05,0.0,-2e-05,-2.9999999999999997e-05,-0.0001,0.00014,2
6020,6259,-5e-05,-1e-05,-0.00018,-2e-05,-2e-05,5.9999999999999995e-05,-2e-05,-9e-05,2
6021,6260,-5e-05,-1e-05,-0.00018,-2e-05,-2e-05,5.9999999999999995e-05,-2e-05,-9e-05,2
6022,6261,-5e-05,-1e-05,-0.00018,-2e-05,-2e-05,5.9999999999999995e-05,-2e-05,-9e-05,2
6023,6262,-5e-05,-1e-05,-0.00018,-2e-05,-2e-05,5.9999999999999995e-05,-2e-05,-9e-05,2
6024,6263,-5e-05,-1e-05,-0.00018,-2e-05,-2e-05,5.9999999999999995e-05,-2e-05,-9e-05,2
6025,6264,-5e-05,-1e-05,-0.00018,-2e-05,-2e-05,5.9999999999999995e-05,-2e-05,-9e-05,2
6026,6265,-5e-05,-1e-05,-0.00018,-2e-05,-2e-05,5.9999999999999995e-05,-2e-05,-9e-05,2
6027,6266,-5e-05,-1e-05,-0.00018,-2e-05,-2e-05,5.9999999999999995e-05,-2e-05,-9e-05,2
6028,6267,-5e-05,-1e-05,-0.00018,-2e-05,-2e-05,5.9999999999999995e-05,-2e-05,-9e-05,2
6029,6268,-5e-05,-1e-05,-0.00018,-2e-05,-2e-05,5.9999999999999995e-05,-2e-05,-9e-05,2
6030,6269,-5e-05,-1e-05,-0.00018,-2e-05,-2e-05,5.9999999999999995e-05,-2e-05,-9e-05,2
6031,6270,-5e-05,-1e-05,-0.00018,-2e-05,-2e-05,5.9999999999999995e-05,-2e-05,-9e-05,2
6032,6271,-5e-05,0.0,9e-05,5e-05,-1e-05,7e-05,0.00047999999999999996,4e-05,2
6033,6272,-5e-05,0.0,9e-05,5e-05,-1e-05,7e-05,0.00047999999999999996,4e-05,2
6034,6273,0.0,-4e-05,-2.9999999999999997e-05,5e-05,2e-05,-1e-05,0.00016999999999999999,2e-05,2
6035,6274,0.0,-4e-05,-2.9999999999999997e-05,5e-05,2e-05,-1e-05,0.00016999999999999999,2e-05,2
6036,6275,0.0,-4e-05,-2.9999999999999997e-05,5e-05,2e-05,-1e-05,0.00016999999999999999,2e-05,2
6037,6276,0.0,-4e-05,-2.9999999999999997e-05,5e-05,2e-05,-1e-05,0.00016999999999999999,2e-05,2
6038,6277,0.0,-4e-05,-2.9999999999999997e-05,5e-05,2e-05,-1e-05,0.00016999999999999999,2e-05,2
6039,6278,0.0,-4e-05,-2.9999999999999997e-05,5e-05,2e-05,-1e-05,0.00016999999999999999,2e-05,2
6040,6279,0.0,-4e-05,-2.9999999999999997e-05,5e-05,2e-05,-1e-05,0.00016999999999999999,2e-05,2
6041,6280,0.0,-4e-05,-2.9999999999999997e-05,5e-05,2e-05,-1e-05,0.00016999999999999999,2e-05,2
6042,6281,0.0,-4e-05,-2.9999999999999997e-05,5e-05,2e-05,-1e-05,0.00016999999999999999,2e-05,2
6043,6282,0.0,-4e-05,-2.9999999999999997e-05,5e-05,2e-05,-1e-05,0.00016999999999999999,2e-05,2
6044,6283,0.0,-4e-05,-2.9999999999999997e-05,5e-05,2e-05,-1e-05,0.00016999999999999999,2e-05,2
6045,6284,0.0,-4e-05,-2.9999999999999997e-05,5e-05,2e-05,-1e-05,0.00016999999999999999,2e-05,2
6046,6285,0.0,-4e-05,-2.9999999999999997e-05,5e-05,2e-05,-1e-05,0.00016999999999999999,2e-05,2
6047,6286,0.0,-4e-05,-2.9999999999999997e-05,5e-05,2e-05,-1e-05,0.00016999999999999999,2e-05,2
6048,6288,0.0,-4e-05,-2.9999999999999997e-05,5e-05,2e-05,-1e-05,0.00016999999999999999,2e-05,2
6049,6289,0.0,-4e-05,-2.9999999999999997e-05,5e-05,2e-05,-1e-05,0.00016999999999999999,2e-05,2
6050,6290,0.0,-4e-05,-2.9999999999999997e-05,5e-05,2e-05,-1e-05,0.00016999999999999999,2e-05,2
6051,6291,0.0,-4e-05,-2.9999999999999997e-05,5e-05,2e-05,-1e-05,0.00016999999999999999,2e-05,2
6052,6292,0.0,-4e-05,-2.9999999999999997e-05,5e-05,2e-05,-1e-05,0.00016999999999999999,2e-05,2
6053,6293,0.0,-4e-05,-2.9999999999999997e-05,5e-05,2e-05,-1e-05,0.00016999999999999999,2e-05,2
6054,6294,-1e-05,-5e-05,-0.00022999999999999998,-0.00015,2.9999999999999997e-05,5e-05,0.00013000000000000002,5e-05,2
6055,6296,4e-05,5.9999999999999995e-05,0.00011,4e-05,-1e-05,2e-05,0.00013000000000000002,9e-05,2
6056,6297,4e-05,5.9999999999999995e-05,0.00011,4e-05,-1e-05,2e-05,0.00013000000000000002,9e-05,2
6057,6298,4e-05,5.9999999999999995e-05,0.00011,4e-05,-1e-05,2e-05,0.00013000000000000002,9e-05,2
6058,6299,4e-05,5.9999999999999995e-05,0.00011,4e-05,-1e-05,2e-05,0.00013000000000000002,9e-05,2
6059,6300,4e-05,5.9999999999999995e-05,0.00011,4e-05,-1e-05,2e-05,0.00013000000000000002,9e-05,2
6060,6301,4e-05,5.9999999999999995e-05,0.00011,4e-05,-1e-05,2e-05,0.00013000000000000002,9e-05,2
6061,6302,4e-05,5.9999999999999995e-05,0.00011,4e-05,-1e-05,2e-05,0.00013000000000000002,9e-05,2
6062,6303,4e-05,5.9999999999999995e-05,0.00011,4e-05,-1e-05,2e-05,0.00013000000000000002,9e-05,2
6063,6304,4e-05,5.9999999999999995e-05,0.00011,4e-05,-1e-05,2e-05,0.00013000000000000002,9e-05,2
6064,6305,4e-05,5.9999999999999995e-05,0.00011,4e-05,-1e-05,2e-05,0.00013000000000000002,9e-05,2
6065,6306,4e-05,5.9999999999999995e-05,0.00011,4e-05,-1e-05,2e-05,0.00013000000000000002,9e-05,2
6066,6307,4e-05,5.9999999999999995e-05,0.00011,4e-05,-1e-05,2e-05,0.00013000000000000002,9e-05,2
6067,6308,4e-05,5.9999999999999995e-05,0.00011,4e-05,-1e-05,2e-05,0.00013000000000000002,9e-05,2
6068,6309,4e-05,5.9999999999999995e-05,0.00011,4e-05,-1e-05,2e-05,0.00013000000000000002,9e-05,2
6069,6310,4e-05,5.9999999999999995e-05,0.00011,4e-05,-1e-05,2e-05,0.00013000000000000002,9e-05,2
6070,6311,4e-05,5.9999999999999995e-05,0.00011,4e-05,-1e-05,2e-05,0.00013000000000000002,9e-05,2
6071,6312,4e-05,5.9999999999999995e-05,0.00011,4e-05,-1e-05,2e-05,0.00013000000000000002,9e-05,2
6072,6313,4e-05,5.9999999999999995e-05,0.00011,4e-05,-1e-05,2e-05,0.00013000000000000002,9e-05,2
6073,6314,4e-05,5.9999999999999995e-05,0.00011,4e-05,-1e-05,2e-05,0.00013000000000000002,9e-05,2
6074,6315,4e-05,5.9999999999999995e-05,0.00011,4e-05,-1e-05,2e-05,0.00013000000000000002,9e-05,2
6075,6316,-5.9999999999999995e-05,-5.9999999999999995e-05,-5e-05,1e-05,-1e-05,-4e-05,-0.00027,-0.00014,2
6076,6317,-5.9999999999999995e-05,-5.9999999999999995e-05,-5e-05,1e-05,-1e-05,-4e-05,-0.00027,-0.00014,2
6077,6318,1e-05,0.0,1e-05,-2e-05,-1e-05,-2.9999999999999997e-05,0.0002,5e-05,2
6078,6319,1e-05,0.0,1e-05,-2e-05,-1e-05,-2.9999999999999997e-05,0.0002,5e-05,2
6079,6320,1e-05,0.0,1e-05,-2e-05,-1e-05,-2.9999999999999997e-05,0.0002,5e-05,2
6080,6321,1e-05,0.0,1e-05,-2e-05,-1e-05,-2.9999999999999997e-05,0.0002,5e-05,2
6081,6322,1e-05,0.0,1e-05,-2e-05,-1e-05,-2.9999999999999997e-05,0.0002,5e-05,2
6082,6323,1e-05,0.0,1e-05,-2e-05,-1e-05,-2.9999999999999997e-05,0.0002,5e-05,2
6083,6324,1e-05,0.0,1e-05,-2e-05,-1e-05,-2.9999999999999997e-05,0.0002,5e-05,2
6084,6325,1e-05,0.0,1e-05,-2e-05,-1e-05,-2.9999999999999997e-05,0.0002,5e-05,2
6085,6326,1e-05,0.0,1e-05,-2e-05,-1e-05,-2.9999999999999997e-05,0.0002,5e-05,2
6086,6327,1e-05,0.0,1e-05,-2e-05,-1e-05,-2.9999999999999997e-05,0.0002,5e-05,2
6087,6328,1e-05,0.0,1e-05,-2e-05,-1e-05,-2.9999999999999997e-05,0.0002,5e-05,2
6088,6329,1e-05,0.0,1e-05,-2e-05,-1e-05,-2.9999999999999997e-05,0.0002,5e-05,2
6089,6330,1e-05,0.0,1e-05,-2e-05,-1e-05,-2.9999999999999997e-05,0.0002,5e-05,2
6090,6331,2e-05,-1e-05,5.9999999999999995e-05,2.9999999999999997e-05,1e-05,7e-05,0.00029,5.9999999999999995e-05,2
6091,6332,2e-05,-1e-05,5.9999999999999995e-05,2.9999999999999997e-05,1e-05,7e-05,0.00029,5.9999999999999995e-05,2
6092,6333,2e-05,-1e-05,5.9999999999999995e-05,2.9999999999999997e-05,1e-05,7e-05,0.00029,5.9999999999999995e-05,2
6093,6334,2e-05,-1e-05,5.9999999999999995e-05,2.9999999999999997e-05,1e-05,7e-05,0.00029,5.9999999999999995e-05,2
6094,6335,2e-05,-1e-05,5.9999999999999995e-05,2.9999999999999997e-05,1e-05,7e-05,0.00029,5.9999999999999995e-05,2
6095,6336,2e-05,-1e-05,5.9999999999999995e-05,2.9999999999999997e-05,1e-05,7e-05,0.00029,5.9999999999999995e-05,2
6096,6338,1e-05,-1e-05,7e-05,0.00011,0.0,-2e-05,-7e-05,2.9999999999999997e-05,2
6097,6339,1e-05,-1e-05,7e-05,0.00011,0.0,-2e-05,-7e-05,2.9999999999999997e-05,2
6098,6340,1e-05,-1e-05,7e-05,0.00011,0.0,-2e-05,-7e-05,2.9999999999999997e-05,2
6099,6341,1e-05,-1e-05,7e-05,0.00011,0.0,-2e-05,-7e-05,2.9999999999999997e-05,2
6100,6342,1e-05,-1e-05,7e-05,0.00011,0.0,-2e-05,-7e-05,2.9999999999999997e-05,2
6101,6343,1e-05,-1e-05,7e-05,0.00011,0.0,-2e-05,-7e-05,2.9999999999999997e-05,2
6102,6344,1e-05,-1e-05,7e-05,0.00011,0.0,-2e-05,-7e-05,2.9999999999999997e-05,2
6103,6345,1e-05,-1e-05,7e-05,0.00011,0.0,-2e-05,-7e-05,2.9999999999999997e-05,2
6104,6346,1e-05,-1e-05,7e-05,0.00011,0.0,-2e-05,-7e-05,2.9999999999999997e-05,2
6105,6347,1e-05,-1e-05,7e-05,0.00011,0.0,-2e-05,-7e-05,2.9999999999999997e-05,2
6106,6348,1e-05,-1e-05,7e-05,0.00011,0.0,-2e-05,-7e-05,2.9999999999999997e-05,2
6107,6349,1e-05,-1e-05,7e-05,0.00011,0.0,-2e-05,-7e-05,2.9999999999999997e-05,2
6108,6350,1e-05,-1e-05,7e-05,0.00011,0.0,-2e-05,-7e-05,2.9999999999999997e-05,2
6109,6351,1e-05,-1e-05,7e-05,0.00011,0.0,-2e-05,-7e-05,2.9999999999999997e-05,2
6110,6352,1e-05,-1e-05,7e-05,0.00011,0.0,-2e-05,-7e-05,2.9999999999999997e-05,2
6111,6353,1e-05,-1e-05,7e-05,0.00011,0.0,-2e-05,-7e-05,2.9999999999999997e-05,2
6112,6354,2e-05,-2.9999999999999997e-05,-0.00016999999999999999,-5.9999999999999995e-05,-4e-05,-2e-05,0.00016999999999999999,8e-05,2
6113,6355,-1e-05,5e-05,1e-05,-2e-05,2.9999999999999997e-05,0.0002,0.00062,0.00014,2
6114,6356,-1e-05,5e-05,1e-05,-2e-05,2.9999999999999997e-05,0.0002,0.00062,0.00014,2
6115,6357,-1e-05,5e-05,1e-05,-2e-05,2.9999999999999997e-05,0.0002,0.00062,0.00014,2
6116,6358,-1e-05,5e-05,1e-05,-2e-05,2.9999999999999997e-05,0.0002,0.00062,0.00014,2
6117,6359,-1e-05,5e-05,1e-05,-2e-05,2.9999999999999997e-05,0.0002,0.00062,0.00014,2
6118,6360,-1e-05,5e-05,1e-05,-2e-05,2.9999999999999997e-05,0.0002,0.00062,0.00014,2
6119,6361,-1e-05,5e-05,1e-05,-2e-05,2.9999999999999997e-05,0.0002,0.00062,0.00014,2
6120,6362,-1e-05,5e-05,1e-05,-2e-05,2.9999999999999997e-05,0.0002,0.00062,0.00014,2
6121,6363,-1e-05,5e-05,1e-05,-2e-05,2.9999999999999997e-05,0.0002,0.00062,0.00014,2
6122,6364,-1e-05,5e-05,1e-05,-2e-05,2.9999999999999997e-05,0.0002,0.00062,0.00014,2
6123,6365,-1e-05,5e-05,1e-05,-2e-05,2.9999999999999997e-05,0.0002,0.00062,0.00014,2
6124,6366,-1e-05,5e-05,1e-05,-2e-05,2.9999999999999997e-05,0.0002,0.00062,0.00014,2
6125,6367,-1e-05,5e-05,1e-05,-2e-05,2.9999999999999997e-05,0.0002,0.00062,0.00014,2
6126,6368,-1e-05,5e-05,1e-05,-2e-05,2.9999999999999997e-05,0.0002,0.00062,0.00014,2
6127,6369,-1e-05,5e-05,1e-05,-2e-05,2.9999999999999997e-05,0.0002,0.00062,0.00014,2
6128,6370,-1e-05,5e-05,1e-05,-2e-05,2.9999999999999997e-05,0.0002,0.00062,0.00014,2
6129,6371,-1e-05,5e-05,1e-05,-2e-05,2.9999999999999997e-05,0.0002,0.00062,0.00014,2
6130,6372,-1e-05,5e-05,1e-05,-2e-05,2.9999999999999997e-05,0.0002,0.00062,0.00014,2
6131,6373,-1e-05,5e-05,1e-05,-2e-05,2.9999999999999997e-05,0.0002,0.00062,0.00014,2
6132,6374,-1e-05,5e-05,1e-05,-2e-05,2.9999999999999997e-05,0.0002,0.00062,0.00014,2
6133,6375,-1e-05,5e-05,1e-05,-2e-05,2.9999999999999997e-05,0.0002,0.00062,0.00014,2
6134,6376,-2.9999999999999997e-05,-1e-05,-2.9999999999999997e-05,7e-05,-2.9999999999999997e-05,-2e-05,-8e-05,-4e-05,2
6135,6377,-2.9999999999999997e-05,-1e-05,-2.9999999999999997e-05,7e-05,-2.9999999999999997e-05,-2e-05,-8e-05,-4e-05,2
6136,6378,-1e-05,-2.9999999999999997e-05,-9e-05,-4e-05,-8e-05,-0.0002,-2e-05,-5e-05,2
6137,6379,-1e-05,-2.9999999999999997e-05,-9e-05,-4e-05,-8e-05,-0.0002,-2e-05,-5e-05,2
6138,6380,-1e-05,-2.9999999999999997e-05,-9e-05,-4e-05,-8e-05,-0.0002,-2e-05,-5e-05,2
6139,6381,-1e-05,-2.9999999999999997e-05,-9e-05,-4e-05,-8e-05,-0.0002,-2e-05,-5e-05,2
6140,6382,-1e-05,-2.9999999999999997e-05,-9e-05,-4e-05,-8e-05,-0.0002,-2e-05,-5e-05,2
6141,6383,-1e-05,-2.9999999999999997e-05,-9e-05,-4e-05,-8e-05,-0.0002,-2e-05,-5e-05,2
6142,6384,-1e-05,-2.9999999999999997e-05,-9e-05,-4e-05,-8e-05,-0.0002,-2e-05,-5e-05,2
6143,6385,-1e-05,-2.9999999999999997e-05,-9e-05,-4e-05,-8e-05,-0.0002,-2e-05,-5e-05,2
6144,6386,-1e-05,-2.9999999999999997e-05,-9e-05,-4e-05,-8e-05,-0.0002,-2e-05,-5e-05,2
6145,6388,-1e-05,-2.9999999999999997e-05,-9e-05,-4e-05,-8e-05,-0.0002,-2e-05,-5e-05,2
6146,6389,-1e-05,-2.9999999999999997e-05,-9e-05,-4e-05,-8e-05,-0.0002,-2e-05,-5e-05,2
6147,6390,-1e-05,-2.9999999999999997e-05,-9e-05,-4e-05,-8e-05,-0.0002,-2e-05,-5e-05,2
6148,6391,1e-05,1e-05,1e-05,-5e-05,1e-05,8e-05,0.00033999999999999997,5e-05,2
6149,6392,1e-05,1e-05,1e-05,-5e-05,1e-05,8e-05,0.00033999999999999997,5e-05,2
6150,6393,1e-05,1e-05,1e-05,-5e-05,1e-05,8e-05,0.00033999999999999997,5e-05,2
6151,6394,1e-05,1e-05,1e-05,-5e-05,1e-05,8e-05,0.00033999999999999997,5e-05,2
6152,6395,1e-05,1e-05,1e-05,-5e-05,1e-05,8e-05,0.00033999999999999997,5e-05,2
6153,6396,1e-05,1e-05,1e-05,-5e-05,1e-05,8e-05,0.00033999999999999997,5e-05,2
6154,6397,-2.9999999999999997e-05,-1e-05,0.00013000000000000002,-0.00016999999999999999,-2.9999999999999997e-05,-4e-05,-0.00022,-9e-05,2
6155,6398,-2.9999999999999997e-05,-1e-05,0.00013000000000000002,-0.00016999999999999999,-2.9999999999999997e-05,-4e-05,-0.00022,-9e-05,2
6156,6399,-2.9999999999999997e-05,-1e-05,0.00013000000000000002,-0.00016999999999999999,-2.9999999999999997e-05,-4e-05,-0.00022,-9e-05,2
6157,6400,-2.9999999999999997e-05,-1e-05,0.00013000000000000002,-0.00016999999999999999,-2.9999999999999997e-05,-4e-05,-0.00022,-9e-05,2
6158,6401,-2.9999999999999997e-05,-1e-05,0.00013000000000000002,-0.00016999999999999999,-2.9999999999999997e-05,-4e-05,-0.00022,-9e-05,2
6159,6402,-2.9999999999999997e-05,-1e-05,0.00013000000000000002,-0.00016999999999999999,-2.9999999999999997e-05,-4e-05,-0.00022,-9e-05,2
6160,6403,-2.9999999999999997e-05,-1e-05,0.00013000000000000002,-0.00016999999999999999,-2.9999999999999997e-05,-4e-05,-0.00022,-9e-05,2
6161,6404,-2.9999999999999997e-05,-1e-05,0.00013000000000000002,-0.00016999999999999999,-2.9999999999999997e-05,-4e-05,-0.00022,-9e-05,2
6162,6405,-2.9999999999999997e-05,-1e-05,0.00013000000000000002,-0.00016999999999999999,-2.9999999999999997e-05,-4e-05,-0.00022,-9e-05,2
6163,6406,-2.9999999999999997e-05,-1e-05,0.00013000000000000002,-0.00016999999999999999,-2.9999999999999997e-05,-4e-05,-0.00022,-9e-05,2
6164,6407,-2.9999999999999997e-05,-1e-05,0.00013000000000000002,-0.00016999999999999999,-2.9999999999999997e-05,-4e-05,-0.00022,-9e-05,2
6165,6408,-2.9999999999999997e-05,-1e-05,0.00013000000000000002,-0.00016999999999999999,-2.9999999999999997e-05,-4e-05,-0.00022,-9e-05,2
6166,6409,-2.9999999999999997e-05,-1e-05,0.00013000000000000002,-0.00016999999999999999,-2.9999999999999997e-05,-4e-05,-0.00022,-9e-05,2
6167,6410,-2.9999999999999997e-05,-1e-05,0.00013000000000000002,-0.00016999999999999999,-2.9999999999999997e-05,-4e-05,-0.00022,-9e-05,2
6168,6411,-2.9999999999999997e-05,-1e-05,0.00013000000000000002,-0.00016999999999999999,-2.9999999999999997e-05,-4e-05,-0.00022,-9e-05,2
6169,6412,-2.9999999999999997e-05,-1e-05,0.00013000000000000002,-0.00016999999999999999,-2.9999999999999997e-05,-4e-05,-0.00022,-9e-05,2
6170,6413,-2.9999999999999997e-05,-1e-05,0.00013000000000000002,-0.00016999999999999999,-2.9999999999999997e-05,-4e-05,-0.00022,-9e-05,2
6171,6414,-1e-05,0.0,-1e-05,-0.00014,2e-05,-2e-05,-0.00029,-2.9999999999999997e-05,2
6172,6415,1e-05,2e-05,9e-05,9e-05,4e-05,0.00013000000000000002,0.00027,0.00014,2
6173,6416,1e-05,2e-05,9e-05,9e-05,4e-05,0.00013000000000000002,0.00027,0.00014,2
6174,6417,1e-05,2e-05,9e-05,9e-05,4e-05,0.00013000000000000002,0.00027,0.00014,2
6175,6418,1e-05,2e-05,9e-05,9e-05,4e-05,0.00013000000000000002,0.00027,0.00014,2
6176,6419,1e-05,2e-05,9e-05,9e-05,4e-05,0.00013000000000000002,0.00027,0.00014,2
6177,6420,1e-05,2e-05,9e-05,9e-05,4e-05,0.00013000000000000002,0.00027,0.00014,2
6178,6421,1e-05,2e-05,9e-05,9e-05,4e-05,0.00013000000000000002,0.00027,0.00014,2
6179,6422,1e-05,2e-05,9e-05,9e-05,4e-05,0.00013000000000000002,0.00027,0.00014,2
6180,6423,1e-05,2e-05,9e-05,9e-05,4e-05,0.00013000000000000002,0.00027,0.00014,2
6181,6424,1e-05,2e-05,9e-05,9e-05,4e-05,0.00013000000000000002,0.00027,0.00014,2
6182,6425,1e-05,2e-05,9e-05,9e-05,4e-05,0.00013000000000000002,0.00027,0.00014,2
6183,6426,1e-05,2e-05,9e-05,9e-05,4e-05,0.00013000000000000002,0.00027,0.00014,2
6184,6427,1e-05,2e-05,9e-05,9e-05,4e-05,0.00013000000000000002,0.00027,0.00014,2
6185,6428,1e-05,2e-05,9e-05,9e-05,4e-05,0.00013000000000000002,0.00027,0.00014,2
6186,6429,1e-05,2e-05,9e-05,9e-05,4e-05,0.00013000000000000002,0.00027,0.00014,2
6187,6430,1e-05,2e-05,9e-05,9e-05,4e-05,0.00013000000000000002,0.00027,0.00014,2
6188,6431,1e-05,2e-05,9e-05,9e-05,4e-05,0.00013000000000000002,0.00027,0.00014,2
6189,6432,1e-05,2e-05,9e-05,9e-05,4e-05,0.00013000000000000002,0.00027,0.00014,2
6190,6433,1e-05,2e-05,9e-05,9e-05,4e-05,0.00013000000000000002,0.00027,0.00014,2
6191,6434,1e-05,2e-05,9e-05,9e-05,4e-05,0.00013000000000000002,0.00027,0.00014,2
6192,6435,1e-05,2e-05,9e-05,9e-05,4e-05,0.00013000000000000002,0.00027,0.00014,2
6193,6436,-2e-05,-2.9999999999999997e-05,-8e-05,-0.00023999999999999998,-5e-05,-9e-05,-0.00011,-1e-05,2
6194,6438,0.0,-2.9999999999999997e-05,-5.9999999999999995e-05,-0.00013000000000000002,-5e-05,-5e-05,-0.00011999999999999999,-2.9999999999999997e-05,2
6195,6439,0.0,-2.9999999999999997e-05,-5.9999999999999995e-05,-0.00013000000000000002,-5e-05,-5e-05,-0.00011999999999999999,-2.9999999999999997e-05,2
6196,6440,0.0,-2.9999999999999997e-05,-5.9999999999999995e-05,-0.00013000000000000002,-5e-05,-5e-05,-0.00011999999999999999,-2.9999999999999997e-05,2
6197,6441,0.0,-2.9999999999999997e-05,-5.9999999999999995e-05,-0.00013000000000000002,-5e-05,-5e-05,-0.00011999999999999999,-2.9999999999999997e-05,2
6198,6442,0.0,-2.9999999999999997e-05,-5.9999999999999995e-05,-0.00013000000000000002,-5e-05,-5e-05,-0.00011999999999999999,-2.9999999999999997e-05,2
6199,6443,0.0,-2.9999999999999997e-05,-5.9999999999999995e-05,-0.00013000000000000002,-5e-05,-5e-05,-0.00011999999999999999,-2.9999999999999997e-05,2
6200,6444,0.0,-2.9999999999999997e-05,-5.9999999999999995e-05,-0.00013000000000000002,-5e-05,-5e-05,-0.00011999999999999999,-2.9999999999999997e-05,2
6201,6445,0.0,-2.9999999999999997e-05,-5.9999999999999995e-05,-0.00013000000000000002,-5e-05,-5e-05,-0.00011999999999999999,-2.9999999999999997e-05,2
6202,6446,0.0,-2.9999999999999997e-05,-5.9999999999999995e-05,-0.00013000000000000002,-5e-05,-5e-05,-0.00011999999999999999,-2.9999999999999997e-05,2
6203,6447,0.0,-2.9999999999999997e-05,-5.9999999999999995e-05,-0.00013000000000000002,-5e-05,-5e-05,-0.00011999999999999999,-2.9999999999999997e-05,2
6204,6448,0.0,-2.9999999999999997e-05,-5.9999999999999995e-05,-0.00013000000000000002,-5e-05,-5e-05,-0.00011999999999999999,-2.9999999999999997e-05,2
6205,6449,0.0,-2.9999999999999997e-05,-5.9999999999999995e-05,-0.00013000000000000002,-5e-05,-5e-05,-0.00011999999999999999,-2.9999999999999997e-05,2
6206,6450,0.0,-2.9999999999999997e-05,-5.9999999999999995e-05,-0.00013000000000000002,-5e-05,-5e-05,-0.00011999999999999999,-2.9999999999999997e-05,2
6207,6451,5e-05,2e-05,-1e-05,-7e-05,5e-05,9e-05,0.00014,0.00011,2
6208,6452,5e-05,2e-05,-1e-05,-7e-05,5e-05,9e-05,0.00014,0.00011,2
6209,6453,5e-05,2e-05,-1e-05,-7e-05,5e-05,9e-05,0.00014,0.00011,2
6210,6454,5e-05,2e-05,-1e-05,-7e-05,5e-05,9e-05,0.00014,0.00011,2
6211,6455,5e-05,2e-05,-1e-05,-7e-05,5e-05,9e-05,0.00014,0.00011,2
6212,6456,5e-05,2e-05,-1e-05,-7e-05,5e-05,9e-05,0.00014,0.00011,2
6213,6457,-2.9999999999999997e-05,-2e-05,4e-05,0.00023999999999999998,-2.9999999999999997e-05,-7e-05,-9e-05,-5e-05,2
6214,6458,-2.9999999999999997e-05,-2e-05,4e-05,0.00023999999999999998,-2.9999999999999997e-05,-7e-05,-9e-05,-5e-05,2
6215,6459,-2.9999999999999997e-05,-2e-05,4e-05,0.00023999999999999998,-2.9999999999999997e-05,-7e-05,-9e-05,-5e-05,2
6216,6460,-2.9999999999999997e-05,-2e-05,4e-05,0.00023999999999999998,-2.9999999999999997e-05,-7e-05,-9e-05,-5e-05,2
6217,6461,-2.9999999999999997e-05,-2e-05,4e-05,0.00023999999999999998,-2.9999999999999997e-05,-7e-05,-9e-05,-5e-05,2
6218,6462,-2.9999999999999997e-05,-2e-05,4e-05,0.00023999999999999998,-2.9999999999999997e-05,-7e-05,-9e-05,-5e-05,2
6219,6463,-2.9999999999999997e-05,-2e-05,4e-05,0.00023999999999999998,-2.9999999999999997e-05,-7e-05,-9e-05,-5e-05,2
6220,6464,-2.9999999999999997e-05,-2e-05,4e-05,0.00023999999999999998,-2.9999999999999997e-05,-7e-05,-9e-05,-5e-05,2
6221,6465,-2.9999999999999997e-05,-2e-05,4e-05,0.00023999999999999998,-2.9999999999999997e-05,-7e-05,-9e-05,-5e-05,2
6222,6466,-2.9999999999999997e-05,-2e-05,4e-05,0.00023999999999999998,-2.9999999999999997e-05,-7e-05,-9e-05,-5e-05,2
6223,6467,-2.9999999999999997e-05,-2e-05,4e-05,0.00023999999999999998,-2.9999999999999997e-05,-7e-05,-9e-05,-5e-05,2
6224,6468,-2.9999999999999997e-05,-2e-05,4e-05,0.00023999999999999998,-2.9999999999999997e-05,-7e-05,-9e-05,-5e-05,2
6225,6469,-2.9999999999999997e-05,-2e-05,4e-05,0.00023999999999999998,-2.9999999999999997e-05,-7e-05,-9e-05,-5e-05,2
6226,6470,-2.9999999999999997e-05,-2e-05,4e-05,0.00023999999999999998,-2.9999999999999997e-05,-7e-05,-9e-05,-5e-05,2
6227,6471,-2.9999999999999997e-05,-2e-05,4e-05,0.00023999999999999998,-2.9999999999999997e-05,-7e-05,-9e-05,-5e-05,2
6228,6472,-2.9999999999999997e-05,-2e-05,4e-05,0.00023999999999999998,-2.9999999999999997e-05,-7e-05,-9e-05,-5e-05,2
6229,6473,-2.9999999999999997e-05,-2e-05,4e-05,0.00023999999999999998,-2.9999999999999997e-05,-7e-05,-9e-05,-5e-05,2
6230,6474,-7e-05,-5e-05,2e-05,5.9999999999999995e-05,-2.9999999999999997e-05,-9e-05,-5.9999999999999995e-05,-0.00011999999999999999,2
6231,6475,-7e-05,-5e-05,2e-05,5.9999999999999995e-05,-2.9999999999999997e-05,-9e-05,-5.9999999999999995e-05,-0.00011999999999999999,2
6232,6476,2.9999999999999997e-05,0.0,2e-05,5.9999999999999995e-05,4e-05,5.9999999999999995e-05,-0.00015,2e-05,2
6233,6477,2.9999999999999997e-05,0.0,2e-05,5.9999999999999995e-05,4e-05,5.9999999999999995e-05,-0.00015,2e-05,2
6234,6478,2.9999999999999997e-05,0.0,2e-05,5.9999999999999995e-05,4e-05,5.9999999999999995e-05,-0.00015,2e-05,2
6235,6479,2.9999999999999997e-05,0.0,2e-05,5.9999999999999995e-05,4e-05,5.9999999999999995e-05,-0.00015,2e-05,2
6236,6480,2.9999999999999997e-05,0.0,2e-05,5.9999999999999995e-05,4e-05,5.9999999999999995e-05,-0.00015,2e-05,2
6237,6481,2.9999999999999997e-05,0.0,2e-05,5.9999999999999995e-05,4e-05,5.9999999999999995e-05,-0.00015,2e-05,2
6238,6482,2.9999999999999997e-05,0.0,2e-05,5.9999999999999995e-05,4e-05,5.9999999999999995e-05,-0.00015,2e-05,2
6239,6483,2.9999999999999997e-05,0.0,2e-05,5.9999999999999995e-05,4e-05,5.9999999999999995e-05,-0.00015,2e-05,2
6240,6484,2.9999999999999997e-05,0.0,2e-05,5.9999999999999995e-05,4e-05,5.9999999999999995e-05,-0.00015,2e-05,2
6241,6485,2.9999999999999997e-05,0.0,2e-05,5.9999999999999995e-05,4e-05,5.9999999999999995e-05,-0.00015,2e-05,2
6242,6486,2.9999999999999997e-05,0.0,2e-05,5.9999999999999995e-05,4e-05,5.9999999999999995e-05,-0.00015,2e-05,2
6243,6488,2.9999999999999997e-05,0.0,2e-05,5.9999999999999995e-05,4e-05,5.9999999999999995e-05,-0.00015,2e-05,2
6244,6489,2.9999999999999997e-05,0.0,2e-05,5.9999999999999995e-05,4e-05,5.9999999999999995e-05,-0.00015,2e-05,2
6245,6490,2.9999999999999997e-05,0.0,2e-05,5.9999999999999995e-05,4e-05,5.9999999999999995e-05,-0.00015,2e-05,2
6246,6491,2.9999999999999997e-05,0.0,2e-05,5.9999999999999995e-05,4e-05,5.9999999999999995e-05,-0.00015,2e-05,2
6247,6492,2.9999999999999997e-05,0.0,2e-05,5.9999999999999995e-05,4e-05,5.9999999999999995e-05,-0.00015,2e-05,2
6248,6493,2.9999999999999997e-05,0.0,2e-05,5.9999999999999995e-05,4e-05,5.9999999999999995e-05,-0.00015,2e-05,2
6249,6494,2.9999999999999997e-05,0.0,2e-05,5.9999999999999995e-05,4e-05,5.9999999999999995e-05,-0.00015,2e-05,2
6250,6495,2.9999999999999997e-05,0.0,2e-05,5.9999999999999995e-05,4e-05,5.9999999999999995e-05,-0.00015,2e-05,2
6251,6496,0.0,-5e-05,-8e-05,-0.00015,-4e-05,-1e-05,-0.00016,-1e-05,2
6252,6497,0.0,-5e-05,-8e-05,-0.00015,-4e-05,-1e-05,-0.00016,-1e-05,2
6253,6498,-2e-05,1e-05,1e-05,-2e-05,0.0,-1e-05,-8e-05,2e-05,2
6254,6499,-2e-05,1e-05,1e-05,-2e-05,0.0,-1e-05,-8e-05,2e-05,2
6255,6500,-2e-05,1e-05,1e-05,-2e-05,0.0,-1e-05,-8e-05,2e-05,2
6256,6501,-2e-05,1e-05,1e-05,-2e-05,0.0,-1e-05,-8e-05,2e-05,2
6257,6502,-2e-05,1e-05,1e-05,-2e-05,0.0,-1e-05,-8e-05,2e-05,2
6258,6503,-2e-05,1e-05,1e-05,-2e-05,0.0,-1e-05,-8e-05,2e-05,2
6259,6504,-2e-05,1e-05,1e-05,-2e-05,0.0,-1e-05,-8e-05,2e-05,2
6260,6505,-2e-05,1e-05,1e-05,-2e-05,0.0,-1e-05,-8e-05,2e-05,2
6261,6506,-2e-05,1e-05,1e-05,-2e-05,0.0,-1e-05,-8e-05,2e-05,2
6262,6507,-2e-05,1e-05,1e-05,-2e-05,0.0,-1e-05,-8e-05,2e-05,2
6263,6508,-2e-05,1e-05,1e-05,-2e-05,0.0,-1e-05,-8e-05,2e-05,2
6264,6509,-2e-05,1e-05,1e-05,-2e-05,0.0,-1e-05,-8e-05,2e-05,2
6265,6510,-2e-05,1e-05,1e-05,-2e-05,0.0,-1e-05,-8e-05,2e-05,2
6266,6511,-4e-05,-5.9999999999999995e-05,-0.00016,5.9999999999999995e-05,0.0,-4e-05,-0.00014,-8e-05,2
6267,6512,-4e-05,-5.9999999999999995e-05,-0.00016,5.9999999999999995e-05,0.0,-4e-05,-0.00014,-8e-05,2
6268,6513,-4e-05,-5.9999999999999995e-05,-0.00016,5.9999999999999995e-05,0.0,-4e-05,-0.00014,-8e-05,2
6269,6514,-4e-05,-5.9999999999999995e-05,-0.00016,5.9999999999999995e-05,0.0,-4e-05,-0.00014,-8e-05,2
6270,6515,-4e-05,-5.9999999999999995e-05,-0.00016,5.9999999999999995e-05,0.0,-4e-05,-0.00014,-8e-05,2
6271,6516,-4e-05,-5.9999999999999995e-05,-0.00016,5.9999999999999995e-05,0.0,-4e-05,-0.00014,-8e-05,2
6272,6517,-8e-05,-1e-05,-2.9999999999999997e-05,-0.00018999999999999998,-5e-05,-5.9999999999999995e-05,-0.00026000000000000003,-0.0003,2
6273,6518,-8e-05,-1e-05,-2.9999999999999997e-05,-0.00018999999999999998,-5e-05,-5.9999999999999995e-05,-0.00026000000000000003,-0.0003,2
6274,6519,-8e-05,-1e-05,-2.9999999999999997e-05,-0.00018999999999999998,-5e-05,-5.9999999999999995e-05,-0.00026000000000000003,-0.0003,2
6275,6520,-8e-05,-1e-05,-2.9999999999999997e-05,-0.00018999999999999998,-5e-05,-5.9999999999999995e-05,-0.00026000000000000003,-0.0003,2
6276,6521,-8e-05,-1e-05,-2.9999999999999997e-05,-0.00018999999999999998,-5e-05,-5.9999999999999995e-05,-0.00026000000000000003,-0.0003,2
6277,6522,-8e-05,-1e-05,-2.9999999999999997e-05,-0.00018999999999999998,-5e-05,-5.9999999999999995e-05,-0.00026000000000000003,-0.0003,2
6278,6523,-8e-05,-1e-05,-2.9999999999999997e-05,-0.00018999999999999998,-5e-05,-5.9999999999999995e-05,-0.00026000000000000003,-0.0003,2
6279,6524,-8e-05,-1e-05,-2.9999999999999997e-05,-0.00018999999999999998,-5e-05,-5.9999999999999995e-05,-0.00026000000000000003,-0.0003,2
6280,6525,-8e-05,-1e-05,-2.9999999999999997e-05,-0.00018999999999999998,-5e-05,-5.9999999999999995e-05,-0.00026000000000000003,-0.0003,2
6281,6526,-8e-05,-1e-05,-2.9999999999999997e-05,-0.00018999999999999998,-5e-05,-5.9999999999999995e-05,-0.00026000000000000003,-0.0003,2
6282,6527,-8e-05,-1e-05,-2.9999999999999997e-05,-0.00018999999999999998,-5e-05,-5.9999999999999995e-05,-0.00026000000000000003,-0.0003,2
6283,6528,-8e-05,-1e-05,-2.9999999999999997e-05,-0.00018999999999999998,-5e-05,-5.9999999999999995e-05,-0.00026000000000000003,-0.0003,2
6284,6529,-8e-05,-1e-05,-2.9999999999999997e-05,-0.00018999999999999998,-5e-05,-5.9999999999999995e-05,-0.00026000000000000003,-0.0003,2
6285,6530,-8e-05,-1e-05,-2.9999999999999997e-05,-0.00018999999999999998,-5e-05,-5.9999999999999995e-05,-0.00026000000000000003,-0.0003,2
6286,6531,-8e-05,-1e-05,-2.9999999999999997e-05,-0.00018999999999999998,-5e-05,-5.9999999999999995e-05,-0.00026000000000000003,-0.0003,2
6287,6532,-8e-05,-1e-05,-2.9999999999999997e-05,-0.00018999999999999998,-5e-05,-5.9999999999999995e-05,-0.00026000000000000003,-0.0003,2
6288,6533,-8e-05,-1e-05,-2.9999999999999997e-05,-0.00018999999999999998,-5e-05,-5.9999999999999995e-05,-0.00026000000000000003,-0.0003,2
6289,6534,2.9999999999999997e-05,0.0,0.00011999999999999999,0.0,-4e-05,-2e-05,0.0002,8e-05,2
6290,6535,1e-05,0.0,4e-05,0.00016,2e-05,0.00015,-0.0002,-2e-05,2
6291,6536,1e-05,0.0,4e-05,0.00016,2e-05,0.00015,-0.0002,-2e-05,2
6292,6539,1e-05,0.0,4e-05,0.00016,2e-05,0.00015,-0.0002,-2e-05,2
6293,6540,1e-05,0.0,4e-05,0.00016,2e-05,0.00015,-0.0002,-2e-05,2
6294,6541,1e-05,0.0,4e-05,0.00016,2e-05,0.00015,-0.0002,-2e-05,2
6295,6542,1e-05,0.0,4e-05,0.00016,2e-05,0.00015,-0.0002,-2e-05,2
6296,6543,1e-05,0.0,4e-05,0.00016,2e-05,0.00015,-0.0002,-2e-05,2
6297,6544,1e-05,0.0,4e-05,0.00016,2e-05,0.00015,-0.0002,-2e-05,2
6298,6545,1e-05,0.0,4e-05,0.00016,2e-05,0.00015,-0.0002,-2e-05,2
6299,6546,1e-05,0.0,4e-05,0.00016,2e-05,0.00015,-0.0002,-2e-05,2
6300,6547,1e-05,0.0,4e-05,0.00016,2e-05,0.00015,-0.0002,-2e-05,2
6301,6548,1e-05,0.0,4e-05,0.00016,2e-05,0.00015,-0.0002,-2e-05,2
6302,6549,1e-05,0.0,4e-05,0.00016,2e-05,0.00015,-0.0002,-2e-05,2
6303,6550,1e-05,0.0,4e-05,0.00016,2e-05,0.00015,-0.0002,-2e-05,2
6304,6551,1e-05,0.0,4e-05,0.00016,2e-05,0.00015,-0.0002,-2e-05,2
6305,6552,1e-05,0.0,4e-05,0.00016,2e-05,0.00015,-0.0002,-2e-05,2
6306,6553,1e-05,0.0,4e-05,0.00016,2e-05,0.00015,-0.0002,-2e-05,2
6307,6554,1e-05,0.0,4e-05,0.00016,2e-05,0.00015,-0.0002,-2e-05,2
6308,6555,1e-05,0.0,4e-05,0.00016,2e-05,0.00015,-0.0002,-2e-05,2
6309,6556,-4e-05,-2.9999999999999997e-05,-0.00018999999999999998,-0.00021,-2e-05,2.9999999999999997e-05,-9e-05,-5.9999999999999995e-05,2
6310,6557,-4e-05,-2.9999999999999997e-05,-0.00018999999999999998,-0.00021,-2e-05,2.9999999999999997e-05,-9e-05,-5.9999999999999995e-05,2
6311,6558,1e-05,-2e-05,-4e-05,0.00011,-4e-05,-0.00013000000000000002,1e-05,-5e-05,2
6312,6559,1e-05,-2e-05,-4e-05,0.00011,-4e-05,-0.00013000000000000002,1e-05,-5e-05,2
6313,6560,1e-05,-2e-05,-4e-05,0.00011,-4e-05,-0.00013000000000000002,1e-05,-5e-05,2
6314,6561,1e-05,-2e-05,-4e-05,0.00011,-4e-05,-0.00013000000000000002,1e-05,-5e-05,2
6315,6562,1e-05,-2e-05,-4e-05,0.00011,-4e-05,-0.00013000000000000002,1e-05,-5e-05,2
6316,6563,1e-05,-2e-05,-4e-05,0.00011,-4e-05,-0.00013000000000000002,1e-05,-5e-05,2
6317,6564,1e-05,-2e-05,-4e-05,0.00011,-4e-05,-0.00013000000000000002,1e-05,-5e-05,2
6318,6565,1e-05,-2e-05,-4e-05,0.00011,-4e-05,-0.00013000000000000002,1e-05,-5e-05,2
6319,6566,1e-05,-2e-05,-4e-05,0.00011,-4e-05,-0.00013000000000000002,1e-05,-5e-05,2
6320,6567,1e-05,-2e-05,-4e-05,0.00011,-4e-05,-0.00013000000000000002,1e-05,-5e-05,2
6321,6568,1e-05,-2e-05,-4e-05,0.00011,-4e-05,-0.00013000000000000002,1e-05,-5e-05,2
6322,6569,1e-05,-2e-05,-4e-05,0.00011,-4e-05,-0.00013000000000000002,1e-05,-5e-05,2
6323,6570,2.9999999999999997e-05,2.9999999999999997e-05,-1e-05,4e-05,0.0,0.0,-7e-05,2.9999999999999997e-05,2
6324,6571,2.9999999999999997e-05,2.9999999999999997e-05,-1e-05,4e-05,0.0,0.0,-7e-05,2.9999999999999997e-05,2
6325,6572,2.9999999999999997e-05,2.9999999999999997e-05,-1e-05,4e-05,0.0,0.0,-7e-05,2.9999999999999997e-05,2
6326,6573,2.9999999999999997e-05,2.9999999999999997e-05,-1e-05,4e-05,0.0,0.0,-7e-05,2.9999999999999997e-05,2
6327,6574,2.9999999999999997e-05,2.9999999999999997e-05,-1e-05,4e-05,0.0,0.0,-7e-05,2.9999999999999997e-05,2
6328,6575,2.9999999999999997e-05,2.9999999999999997e-05,-1e-05,4e-05,0.0,0.0,-7e-05,2.9999999999999997e-05,2
6329,6576,2.9999999999999997e-05,2.9999999999999997e-05,-1e-05,4e-05,0.0,0.0,-7e-05,2.9999999999999997e-05,2
6330,6577,0.0,-2.9999999999999997e-05,-0.00013000000000000002,-7e-05,-2e-05,-0.00016999999999999999,-0.00033,-5.9999999999999995e-05,2
6331,6578,0.0,-2.9999999999999997e-05,-0.00013000000000000002,-7e-05,-2e-05,-0.00016999999999999999,-0.00033,-5.9999999999999995e-05,2
6332,6579,0.0,-2.9999999999999997e-05,-0.00013000000000000002,-7e-05,-2e-05,-0.00016999999999999999,-0.00033,-5.9999999999999995e-05,2
6333,6580,0.0,-2.9999999999999997e-05,-0.00013000000000000002,-7e-05,-2e-05,-0.00016999999999999999,-0.00033,-5.9999999999999995e-05,2
6334,6581,0.0,-2.9999999999999997e-05,-0.00013000000000000002,-7e-05,-2e-05,-0.00016999999999999999,-0.00033,-5.9999999999999995e-05,2
6335,6582,0.0,-2.9999999999999997e-05,-0.00013000000000000002,-7e-05,-2e-05,-0.00016999999999999999,-0.00033,-5.9999999999999995e-05,2
6336,6583,0.0,-2.9999999999999997e-05,-0.00013000000000000002,-7e-05,-2e-05,-0.00016999999999999999,-0.00033,-5.9999999999999995e-05,2
6337,6584,0.0,-2.9999999999999997e-05,-0.00013000000000000002,-7e-05,-2e-05,-0.00016999999999999999,-0.00033,-5.9999999999999995e-05,2
6338,6585,0.0,-2.9999999999999997e-05,-0.00013000000000000002,-7e-05,-2e-05,-0.00016999999999999999,-0.00033,-5.9999999999999995e-05,2
6339,6586,0.0,-2.9999999999999997e-05,-0.00013000000000000002,-7e-05,-2e-05,-0.00016999999999999999,-0.00033,-5.9999999999999995e-05,2
6340,6588,0.0,-2.9999999999999997e-05,-0.00013000000000000002,-7e-05,-2e-05,-0.00016999999999999999,-0.00033,-5.9999999999999995e-05,2
6341,6589,0.0,-2.9999999999999997e-05,-0.00013000000000000002,-7e-05,-2e-05,-0.00016999999999999999,-0.00033,-5.9999999999999995e-05,2
6342,6590,0.0,-2.9999999999999997e-05,-0.00013000000000000002,-7e-05,-2e-05,-0.00016999999999999999,-0.00033,-5.9999999999999995e-05,2
6343,6591,0.0,-2.9999999999999997e-05,-0.00013000000000000002,-7e-05,-2e-05,-0.00016999999999999999,-0.00033,-5.9999999999999995e-05,2
6344,6592,0.0,-2.9999999999999997e-05,-0.00013000000000000002,-7e-05,-2e-05,-0.00016999999999999999,-0.00033,-5.9999999999999995e-05,2
6345,6593,0.0,-2.9999999999999997e-05,-0.00013000000000000002,-7e-05,-2e-05,-0.00016999999999999999,-0.00033,-5.9999999999999995e-05,2
6346,6594,0.0,0.0,7e-05,0.00013000000000000002,4e-05,-1e-05,0.00018,5e-05,2
6347,6595,-8e-05,-5.9999999999999995e-05,-9e-05,-0.00014,-1e-05,-2.9999999999999997e-05,0.00014,-2.9999999999999997e-05,2
6348,6596,-8e-05,-5.9999999999999995e-05,-9e-05,-0.00014,-1e-05,-2.9999999999999997e-05,0.00014,-2.9999999999999997e-05,2
6349,6597,-8e-05,-5.9999999999999995e-05,-9e-05,-0.00014,-1e-05,-2.9999999999999997e-05,0.00014,-2.9999999999999997e-05,2
6350,6598,-8e-05,-5.9999999999999995e-05,-9e-05,-0.00014,-1e-05,-2.9999999999999997e-05,0.00014,-2.9999999999999997e-05,2
6351,6599,-8e-05,-5.9999999999999995e-05,-9e-05,-0.00014,-1e-05,-2.9999999999999997e-05,0.00014,-2.9999999999999997e-05,2
6352,6600,-8e-05,-5.9999999999999995e-05,-9e-05,-0.00014,-1e-05,-2.9999999999999997e-05,0.00014,-2.9999999999999997e-05,2
6353,6601,-8e-05,-5.9999999999999995e-05,-9e-05,-0.00014,-1e-05,-2.9999999999999997e-05,0.00014,-2.9999999999999997e-05,2
6354,6602,-8e-05,-5.9999999999999995e-05,-9e-05,-0.00014,-1e-05,-2.9999999999999997e-05,0.00014,-2.9999999999999997e-05,2
6355,6603,-8e-05,-5.9999999999999995e-05,-9e-05,-0.00014,-1e-05,-2.9999999999999997e-05,0.00014,-2.9999999999999997e-05,2
6356,6604,-8e-05,-5.9999999999999995e-05,-9e-05,-0.00014,-1e-05,-2.9999999999999997e-05,0.00014,-2.9999999999999997e-05,2
6357,6605,-8e-05,-5.9999999999999995e-05,-9e-05,-0.00014,-1e-05,-2.9999999999999997e-05,0.00014,-2.9999999999999997e-05,2
6358,6606,-8e-05,-5.9999999999999995e-05,-9e-05,-0.00014,-1e-05,-2.9999999999999997e-05,0.00014,-2.9999999999999997e-05,2
6359,6607,-8e-05,-5.9999999999999995e-05,-9e-05,-0.00014,-1e-05,-2.9999999999999997e-05,0.00014,-2.9999999999999997e-05,2
6360,6608,-8e-05,-5.9999999999999995e-05,-9e-05,-0.00014,-1e-05,-2.9999999999999997e-05,0.00014,-2.9999999999999997e-05,2
6361,6609,-8e-05,-5.9999999999999995e-05,-9e-05,-0.00014,-1e-05,-2.9999999999999997e-05,0.00014,-2.9999999999999997e-05,2
6362,6610,-8e-05,-5.9999999999999995e-05,-9e-05,-0.00014,-1e-05,-2.9999999999999997e-05,0.00014,-2.9999999999999997e-05,2
6363,6611,-8e-05,-5.9999999999999995e-05,-9e-05,-0.00014,-1e-05,-2.9999999999999997e-05,0.00014,-2.9999999999999997e-05,2
6364,6612,-8e-05,-5.9999999999999995e-05,-9e-05,-0.00014,-1e-05,-2.9999999999999997e-05,0.00014,-2.9999999999999997e-05,2
6365,6613,-8e-05,-5.9999999999999995e-05,-9e-05,-0.00014,-1e-05,-2.9999999999999997e-05,0.00014,-2.9999999999999997e-05,2
6366,6614,-8e-05,-5.9999999999999995e-05,-9e-05,-0.00014,-1e-05,-2.9999999999999997e-05,0.00014,-2.9999999999999997e-05,2
6367,6615,-8e-05,-5.9999999999999995e-05,-9e-05,-0.00014,-1e-05,-2.9999999999999997e-05,0.00014,-2.9999999999999997e-05,2
