,time,channel1,channel2,channel3,channel4,channel5,channel6,channel7,channel8,class
4894,5102,-0.00027,-0.00016,-0.00027,-0.00013000000000000002,0.0008699999999999999,0.00064,0.00067,0.00022,2
4895,5103,-0.00027,-0.00016,-0.00027,-0.00013000000000000002,0.0008699999999999999,0.00064,0.00067,0.00022,2
4896,5104,-0.00027,-0.00016,-0.00027,-0.00013000000000000002,0.0008699999999999999,0.00064,0.00067,0.00022,2
4897,5105,-0.00027,-0.00016,-0.00027,-0.00013000000000000002,0.0008699999999999999,0.00064,0.00067,0.00022,2
4898,5106,-0.00027,-0.00016,-0.00027,-0.00013000000000000002,0.0008699999999999999,0.00064,0.00067,0.00022,2
4899,5107,4e-05,0.0,0.00015,0.0008,-4e-05,0.0,-0.00047000000000000004,0.00025,2
4900,5108,4e-05,0.0,0.00015,0.0008,-4e-05,0.0,-0.00047000000000000004,0.00025,2
4901,5109,4e-05,0.0,0.00015,0.0008,-4e-05,0.0,-0.00047000000000000004,0.00025,2
4902,5110,4e-05,0.0,0.00015,0.0008,-4e-05,0.0,-0.00047000000000000004,0.00025,2
4903,5111,4e-05,0.0,0.00015,0.0008,-4e-05,0.0,-0.00047000000000000004,0.00025,2
4904,5112,4e-05,0.0,0.00015,0.0008,-4e-05,0.0,-0.00047000000000000004,0.00025,2
4905,5113,4e-05,0.0,0.00015,0.0008,-4e-05,0.0,-0.00047000000000000004,0.00025,2
4906,5114,4e-05,0.0,0.00015,0.0008,-4e-05,0.0,-0.00047000000000000004,0.00025,2
4907,5115,4e-05,0.0,0.00015,0.0008,-4e-05,0.0,-0.00047000000000000004,0.00025,2
4908,5116,4e-05,0.0,0.00015,0.0008,-4e-05,0.0,-0.00047000000000000004,0.00025,2
4909,5117,4e-05,0.0,0.00015,0.0008,-4e-05,0.0,-0.00047000000000000004,0.00025,2
4910,5118,4e-05,0.0,0.00015,0.0008,-4e-05,0.0,-0.00047000000000000004,0.00025,2
4911,5119,4e-05,0.0,0.00015,0.0008,-4e-05,0.0,-0.00047000000000000004,0.00025,2
4912,5120,4e-05,0.0,0.00015,0.0008,-4e-05,0.0,-0.00047000000000000004,0.00025,2
4913,5121,4e-05,0.0,0.00015,0.0008,-4e-05,0.0,-0.00047000000000000004,0.00025,2
4914,5122,4e-05,0.0,0.00015,0.0008,-4e-05,0.0,-0.00047000000000000004,0.00025,2
4915,5123,-0.00021,-2e-05,-2.9999999999999997e-05,0.0004,-0.00033999999999999997,-9e-05,4e-05,0.00015,2
4916,5124,-0.00021,-2e-05,-2.9999999999999997e-05,0.0004,-0.00033999999999999997,-9e-05,4e-05,0.00015,2
4917,5125,-0.00021,-2e-05,-2.9999999999999997e-05,0.0004,-0.00033999999999999997,-9e-05,4e-05,0.00015,2
4918,5126,-0.00021,-2e-05,-2.9999999999999997e-05,0.0004,-0.00033999999999999997,-9e-05,4e-05,0.00015,2
4919,5127,-0.00021,-2e-05,-2.9999999999999997e-05,0.0004,-0.00033999999999999997,-9e-05,4e-05,0.00015,2
4920,5128,-0.00021,-2e-05,-2.9999999999999997e-05,0.0004,-0.00033999999999999997,-9e-05,4e-05,0.00015,2
4921,5129,0.0008300000000000001,4e-05,-8e-05,-9e-05,-7e-05,0.00042,0.00099,0.00021,2
4922,5130,0.0008300000000000001,4e-05,-8e-05,-9e-05,-7e-05,0.00042,0.00099,0.00021,2
4923,5131,0.0008300000000000001,4e-05,-8e-05,-9e-05,-7e-05,0.00042,0.00099,0.00021,2
4924,5132,0.0008300000000000001,4e-05,-8e-05,-9e-05,-7e-05,0.00042,0.00099,0.00021,2
4925,5133,0.0008300000000000001,4e-05,-8e-05,-9e-05,-7e-05,0.00042,0.00099,0.00021,2
4926,5134,0.0008300000000000001,4e-05,-8e-05,-9e-05,-7e-05,0.00042,0.00099,0.00021,2
4927,5135,0.0008300000000000001,4e-05,-8e-05,-9e-05,-7e-05,0.00042,0.00099,0.00021,2
4928,5136,-0.00047999999999999996,5e-05,2.9999999999999997e-05,7e-05,1e-05,-0.00037999999999999997,-2.9999999999999997e-05,-0.0002,2
4929,5138,-0.00018,-1e-05,2e-05,0.00022999999999999998,-0.00014,7e-05,-0.0008300000000000001,-0.0005,2
4930,5139,-0.00018,-1e-05,2e-05,0.00022999999999999998,-0.00014,7e-05,-0.0008300000000000001,-0.0005,2
4931,5141,-0.00018,-1e-05,2e-05,0.00022999999999999998,-0.00014,7e-05,-0.0008300000000000001,-0.0005,2
4932,5142,-0.00018,-1e-05,2e-05,0.00022999999999999998,-0.00014,7e-05,-0.0008300000000000001,-0.0005,2
4933,5143,-0.00018,-1e-05,2e-05,0.00022999999999999998,-0.00014,7e-05,-0.0008300000000000001,-0.0005,2
4934,5144,-0.00018,-1e-05,2e-05,0.00022999999999999998,-0.00014,7e-05,-0.0008300000000000001,-0.0005,2
4935,5145,0.00043,2.9999999999999997e-05,0.0001,0.00037999999999999997,-0.0001,-0.00011,0.0011099999999999999,0.0009599999999999999,2
4936,5146,0.00047999999999999996,-0.0001,-7e-05,0.00039,9e-05,-0.00016999999999999999,-0.00099,-0.00011,2
4937,5147,0.00047999999999999996,-0.0001,-7e-05,0.00039,9e-05,-0.00016999999999999999,-0.00099,-0.00011,2
4938,5148,0.00047999999999999996,-0.0001,-7e-05,0.00039,9e-05,-0.00016999999999999999,-0.00099,-0.00011,2
4939,5149,0.00047999999999999996,-0.0001,-7e-05,0.00039,9e-05,-0.00016999999999999999,-0.00099,-0.00011,2
4940,5150,0.00047999999999999996,-0.0001,-7e-05,0.00039,9e-05,-0.00016999999999999999,-0.00099,-0.00011,2
4941,5151,0.00047999999999999996,-0.0001,-7e-05,0.00039,9e-05,-0.00016999999999999999,-0.00099,-0.00011,2
4942,5152,0.00047999999999999996,-0.0001,-7e-05,0.00039,9e-05,-0.00016999999999999999,-0.00099,-0.00011,2
4943,5153,0.00047999999999999996,-0.0001,-7e-05,0.00039,9e-05,-0.00016999999999999999,-0.00099,-0.00011,2
4944,5154,0.00047999999999999996,-0.0001,-7e-05,0.00039,9e-05,-0.00016999999999999999,-0.00099,-0.00011,2
4945,5155,0.00047999999999999996,-0.0001,-7e-05,0.00039,9e-05,-0.00016999999999999999,-0.00099,-0.00011,2
4946,5156,0.00047999999999999996,-0.0001,-7e-05,0.00039,9e-05,-0.00016999999999999999,-0.00099,-0.00011,2
4947,5157,0.00047999999999999996,-0.0001,-7e-05,0.00039,9e-05,-0.00016999999999999999,-0.00099,-0.00011,2
4948,5158,0.00047999999999999996,-0.0001,-7e-05,0.00039,9e-05,-0.00016999999999999999,-0.00099,-0.00011,2
4949,5159,0.00047999999999999996,-0.0001,-7e-05,0.00039,9e-05,-0.00016999999999999999,-0.00099,-0.00011,2
4950,5160,0.00047999999999999996,-0.0001,-7e-05,0.00039,9e-05,-0.00016999999999999999,-0.00099,-0.00011,2
4951,5161,0.00072,1e-05,-0.00018999999999999998,-0.00049,0.00037,-0.00015,-5e-05,-1e-05,2
4952,5162,0.00072,1e-05,-0.00018999999999999998,-0.00049,0.00037,-0.00015,-5e-05,-1e-05,2
4953,5163,0.00072,1e-05,-0.00018999999999999998,-0.00049,0.00037,-0.00015,-5e-05,-1e-05,2
4954,5164,0.00072,1e-05,-0.00018999999999999998,-0.00049,0.00037,-0.00015,-5e-05,-1e-05,2
4955,5165,0.00072,1e-05,-0.00018999999999999998,-0.00049,0.00037,-0.00015,-5e-05,-1e-05,2
4956,5166,-0.00011999999999999999,0.00013000000000000002,0.0003,0.0008699999999999999,-9e-05,0.00011999999999999999,0.00021,7e-05,2
4957,5167,-0.00106,-0.00011999999999999999,0.0,0.00018,-0.0005099999999999999,-0.00016,-1e-05,-0.00023999999999999998,2
4958,5168,-0.00106,-0.00011999999999999999,0.0,0.00018,-0.0005099999999999999,-0.00016,-1e-05,-0.00023999999999999998,2
4959,5169,-0.00106,-0.00011999999999999999,0.0,0.00018,-0.0005099999999999999,-0.00016,-1e-05,-0.00023999999999999998,2
4960,5170,-0.00106,-0.00011999999999999999,0.0,0.00018,-0.0005099999999999999,-0.00016,-1e-05,-0.00023999999999999998,2
4961,5171,-0.00106,-0.00011999999999999999,0.0,0.00018,-0.0005099999999999999,-0.00016,-1e-05,-0.00023999999999999998,2
4962,5172,-0.00106,-0.00011999999999999999,0.0,0.00018,-0.0005099999999999999,-0.00016,-1e-05,-0.00023999999999999998,2
4963,5173,-0.00106,-0.00011999999999999999,0.0,0.00018,-0.0005099999999999999,-0.00016,-1e-05,-0.00023999999999999998,2
4964,5174,-0.00106,-0.00011999999999999999,0.0,0.00018,-0.0005099999999999999,-0.00016,-1e-05,-0.00023999999999999998,2
4965,5175,-0.00106,-0.00011999999999999999,0.0,0.00018,-0.0005099999999999999,-0.00016,-1e-05,-0.00023999999999999998,2
4966,5176,-0.00106,-0.00011999999999999999,0.0,0.00018,-0.0005099999999999999,-0.00016,-1e-05,-0.00023999999999999998,2
4967,5177,-0.00106,-0.00011999999999999999,0.0,0.00018,-0.0005099999999999999,-0.00016,-1e-05,-0.00023999999999999998,2
4968,5178,-0.00106,-0.00011999999999999999,0.0,0.00018,-0.0005099999999999999,-0.00016,-1e-05,-0.00023999999999999998,2
4969,5179,-0.00106,-0.00011999999999999999,0.0,0.00018,-0.0005099999999999999,-0.00016,-1e-05,-0.00023999999999999998,2
4970,5180,-0.00106,-0.00011999999999999999,0.0,0.00018,-0.0005099999999999999,-0.00016,-1e-05,-0.00023999999999999998,2
4971,5181,-0.00106,-0.00011999999999999999,0.0,0.00018,-0.0005099999999999999,-0.00016,-1e-05,-0.00023999999999999998,2
4972,5182,-0.00106,-0.00011999999999999999,0.0,0.00018,-0.0005099999999999999,-0.00016,-1e-05,-0.00023999999999999998,2
4973,5183,-0.00011,0.0,5.9999999999999995e-05,0.00022999999999999998,-0.00022999999999999998,-0.00013000000000000002,-0.00016,-0.00022,2
4974,5184,-0.00042,-2e-05,-2.9999999999999997e-05,-2.9999999999999997e-05,5e-05,2e-05,0.00057,-5e-05,2
4975,5185,0.00033999999999999997,4e-05,4e-05,-0.00023999999999999998,-5.9999999999999995e-05,-0.00033,-0.00022,-0.00018,2
4976,5186,0.00033999999999999997,4e-05,4e-05,-0.00023999999999999998,-5.9999999999999995e-05,-0.00033,-0.00022,-0.00018,2
4977,5188,0.00033999999999999997,4e-05,4e-05,-0.00023999999999999998,-5.9999999999999995e-05,-0.00033,-0.00022,-0.00018,2
4978,5190,0.00033999999999999997,4e-05,4e-05,-0.00023999999999999998,-5.9999999999999995e-05,-0.00033,-0.00022,-0.00018,2
4979,5191,0.00033999999999999997,4e-05,4e-05,-0.00023999999999999998,-5.9999999999999995e-05,-0.00033,-0.00022,-0.00018,2
4980,5192,0.00033999999999999997,4e-05,4e-05,-0.00023999999999999998,-5.9999999999999995e-05,-0.00033,-0.00022,-0.00018,2
4981,5193,0.00033999999999999997,4e-05,4e-05,-0.00023999999999999998,-5.9999999999999995e-05,-0.00033,-0.00022,-0.00018,2
4982,5194,0.00033999999999999997,4e-05,4e-05,-0.00023999999999999998,-5.9999999999999995e-05,-0.00033,-0.00022,-0.00018,2
4983,5195,0.00033999999999999997,4e-05,4e-05,-0.00023999999999999998,-5.9999999999999995e-05,-0.00033,-0.00022,-0.00018,2
4984,5196,0.00033999999999999997,4e-05,4e-05,-0.00023999999999999998,-5.9999999999999995e-05,-0.00033,-0.00022,-0.00018,2
4985,5197,0.00033999999999999997,4e-05,4e-05,-0.00023999999999999998,-5.9999999999999995e-05,-0.00033,-0.00022,-0.00018,2
4986,5198,0.00033999999999999997,4e-05,4e-05,-0.00023999999999999998,-5.9999999999999995e-05,-0.00033,-0.00022,-0.00018,2
4987,5199,0.00033999999999999997,4e-05,4e-05,-0.00023999999999999998,-5.9999999999999995e-05,-0.00033,-0.00022,-0.00018,2
4988,5200,0.00033999999999999997,4e-05,4e-05,-0.00023999999999999998,-5.9999999999999995e-05,-0.00033,-0.00022,-0.00018,2
4989,5201,0.00033999999999999997,4e-05,4e-05,-0.00023999999999999998,-5.9999999999999995e-05,-0.00033,-0.00022,-0.00018,2
4990,5202,0.00033999999999999997,4e-05,4e-05,-0.00023999999999999998,-5.9999999999999995e-05,-0.00033,-0.00022,-0.00018,2
4991,5203,0.00033999999999999997,4e-05,4e-05,-0.00023999999999999998,-5.9999999999999995e-05,-0.00033,-0.00022,-0.00018,2
4992,5204,0.00033999999999999997,4e-05,4e-05,-0.00023999999999999998,-5.9999999999999995e-05,-0.00033,-0.00022,-0.00018,2
4993,5205,0.00042,-0.00011,-1e-05,0.0007599999999999999,-0.00037,-0.00021,0.00035,-0.0001,2
4994,5206,0.00042,-0.00011,-1e-05,0.0007599999999999999,-0.00037,-0.00021,0.00035,-0.0001,2
4995,5207,0.00022,5e-05,0.00014,0.0009,-8e-05,0.00016999999999999999,-0.0002,-2.9999999999999997e-05,2
4996,5208,0.00022,5e-05,0.00014,0.0009,-8e-05,0.00016999999999999999,-0.0002,-2.9999999999999997e-05,2
4997,5209,0.00022,5e-05,0.00014,0.0009,-8e-05,0.00016999999999999999,-0.0002,-2.9999999999999997e-05,2
4998,5210,0.00022,5e-05,0.00014,0.0009,-8e-05,0.00016999999999999999,-0.0002,-2.9999999999999997e-05,2
4999,5211,0.00022,5e-05,0.00014,0.0009,-8e-05,0.00016999999999999999,-0.0002,-2.9999999999999997e-05,2
5000,5212,0.00022,5e-05,0.00014,0.0009,-8e-05,0.00016999999999999999,-0.0002,-2.9999999999999997e-05,2
5001,5213,0.00022,5e-05,0.00014,0.0009,-8e-05,0.00016999999999999999,-0.0002,-2.9999999999999997e-05,2
5002,5214,0.00022,5e-05,0.00014,0.0009,-8e-05,0.00016999999999999999,-0.0002,-2.9999999999999997e-05,2
5003,5215,0.00022,5e-05,0.00014,0.0009,-8e-05,0.00016999999999999999,-0.0002,-2.9999999999999997e-05,2
5004,5216,0.00022,5e-05,0.00014,0.0009,-8e-05,0.00016999999999999999,-0.0002,-2.9999999999999997e-05,2
5005,5217,0.00022,5e-05,0.00014,0.0009,-8e-05,0.00016999999999999999,-0.0002,-2.9999999999999997e-05,2
5006,5218,0.00022,5e-05,0.00014,0.0009,-8e-05,0.00016999999999999999,-0.0002,-2.9999999999999997e-05,2
5007,5219,0.00022,5e-05,0.00014,0.0009,-8e-05,0.00016999999999999999,-0.0002,-2.9999999999999997e-05,2
5008,5220,0.00022,5e-05,0.00014,0.0009,-8e-05,0.00016999999999999999,-0.0002,-2.9999999999999997e-05,2
5009,5221,0.00022,5e-05,0.00014,0.0009,-8e-05,0.00016999999999999999,-0.0002,-2.9999999999999997e-05,2
5010,5222,0.00022,5e-05,0.00014,0.0009,-8e-05,0.00016999999999999999,-0.0002,-2.9999999999999997e-05,2
5011,5223,0.00022,5e-05,0.00014,0.0009,-8e-05,0.00016999999999999999,-0.0002,-2.9999999999999997e-05,2
5012,5224,0.00022,5e-05,0.00014,0.0009,-8e-05,0.00016999999999999999,-0.0002,-2.9999999999999997e-05,2
5013,5225,0.00022,5e-05,0.00014,0.0009,-8e-05,0.00016999999999999999,-0.0002,-2.9999999999999997e-05,2
5014,5226,0.00022,5e-05,0.00014,0.0009,-8e-05,0.00016999999999999999,-0.0002,-2.9999999999999997e-05,2
5015,5227,0.00022,5e-05,0.00014,0.0009,-8e-05,0.00016999999999999999,-0.0002,-2.9999999999999997e-05,2
5016,5228,0.00047999999999999996,0.00016999999999999999,0.00027,0.00037999999999999997,0.00011,0.00058,0.00065,0.0005200000000000001,2
5017,5229,-0.00021,-2.9999999999999997e-05,-0.00013000000000000002,-0.00064,0.00016999999999999999,0.00022,9e-05,8e-05,2
5018,5230,-0.00021,-2.9999999999999997e-05,-0.00013000000000000002,-0.00064,0.00016999999999999999,0.00022,9e-05,8e-05,2
5019,5231,-0.00021,-2.9999999999999997e-05,-0.00013000000000000002,-0.00064,0.00016999999999999999,0.00022,9e-05,8e-05,2
5020,5232,-0.00021,-2.9999999999999997e-05,-0.00013000000000000002,-0.00064,0.00016999999999999999,0.00022,9e-05,8e-05,2
5021,5234,-0.00021,-2.9999999999999997e-05,-0.00013000000000000002,-0.00064,0.00016999999999999999,0.00022,9e-05,8e-05,2
5022,5235,-0.00021,-2.9999999999999997e-05,-0.00013000000000000002,-0.00064,0.00016999999999999999,0.00022,9e-05,8e-05,2
5023,5236,-0.00021,-2.9999999999999997e-05,-0.00013000000000000002,-0.00064,0.00016999999999999999,0.00022,9e-05,8e-05,2
5024,5238,-0.00021,-2.9999999999999997e-05,-0.00013000000000000002,-0.00064,0.00016999999999999999,0.00022,9e-05,8e-05,2
5025,5239,-0.00021,-2.9999999999999997e-05,-0.00013000000000000002,-0.00064,0.00016999999999999999,0.00022,9e-05,8e-05,2
5026,5240,-0.00021,-2.9999999999999997e-05,-0.00013000000000000002,-0.00064,0.00016999999999999999,0.00022,9e-05,8e-05,2
5027,5241,-0.00021,-2.9999999999999997e-05,-0.00013000000000000002,-0.00064,0.00016999999999999999,0.00022,9e-05,8e-05,2
5028,5242,-0.00021,-2.9999999999999997e-05,-0.00013000000000000002,-0.00064,0.00016999999999999999,0.00022,9e-05,8e-05,2
5029,5243,-0.00021,-2.9999999999999997e-05,-0.00013000000000000002,-0.00064,0.00016999999999999999,0.00022,9e-05,8e-05,2
5030,5244,-0.00042,-5.9999999999999995e-05,0.0,-0.00014,-0.0002,-0.0001,-0.0003,-0.00022,2
5031,5245,-0.00041,-7e-05,-2.9999999999999997e-05,0.00018,0.00025,0.00021,0.0002,7e-05,2
5032,5246,-0.00041,-7e-05,-2.9999999999999997e-05,0.00018,0.00025,0.00021,0.0002,7e-05,2
5033,5247,-0.00041,-7e-05,-2.9999999999999997e-05,0.00018,0.00025,0.00021,0.0002,7e-05,2
5034,5248,-0.00041,-7e-05,-2.9999999999999997e-05,0.00018,0.00025,0.00021,0.0002,7e-05,2
5035,5249,-0.00041,-7e-05,-2.9999999999999997e-05,0.00018,0.00025,0.00021,0.0002,7e-05,2
5036,5250,-0.00041,-7e-05,-2.9999999999999997e-05,0.00018,0.00025,0.00021,0.0002,7e-05,2
5037,5251,-0.00041,-7e-05,-2.9999999999999997e-05,0.00018,0.00025,0.00021,0.0002,7e-05,2
5038,5252,-0.00041,-7e-05,-2.9999999999999997e-05,0.00018,0.00025,0.00021,0.0002,7e-05,2
5039,5253,-0.00041,-7e-05,-2.9999999999999997e-05,0.00018,0.00025,0.00021,0.0002,7e-05,2
5040,5254,-0.00041,-7e-05,-2.9999999999999997e-05,0.00018,0.00025,0.00021,0.0002,7e-05,2
5041,5255,-0.00041,-7e-05,-2.9999999999999997e-05,0.00018,0.00025,0.00021,0.0002,7e-05,2
5042,5256,-0.00041,-7e-05,-2.9999999999999997e-05,0.00018,0.00025,0.00021,0.0002,7e-05,2
5043,5257,-0.00041,-7e-05,-2.9999999999999997e-05,0.00018,0.00025,0.00021,0.0002,7e-05,2
5044,5258,-0.00041,-7e-05,-2.9999999999999997e-05,0.00018,0.00025,0.00021,0.0002,7e-05,2
5045,5259,-0.00041,-7e-05,-2.9999999999999997e-05,0.00018,0.00025,0.00021,0.0002,7e-05,2
5046,5260,-0.00041,-7e-05,-2.9999999999999997e-05,0.00018,0.00025,0.00021,0.0002,7e-05,2
5047,5261,-0.00041,-7e-05,-2.9999999999999997e-05,0.00018,0.00025,0.00021,0.0002,7e-05,2
5048,5262,-0.00041,-7e-05,-2.9999999999999997e-05,0.00018,0.00025,0.00021,0.0002,7e-05,2
5049,5263,-0.00041,-7e-05,-2.9999999999999997e-05,0.00018,0.00025,0.00021,0.0002,7e-05,2
5050,5264,-0.00041,-7e-05,-2.9999999999999997e-05,0.00018,0.00025,0.00021,0.0002,7e-05,2
5051,5265,-0.00011,2.9999999999999997e-05,2e-05,0.00014,-5.9999999999999995e-05,-0.00023999999999999998,-0.00047999999999999996,-7e-05,2
5052,5266,-0.00011,2.9999999999999997e-05,2e-05,0.00014,-5.9999999999999995e-05,-0.00023999999999999998,-0.00047999999999999996,-7e-05,2
5053,5267,5e-05,5.9999999999999995e-05,-2.9999999999999997e-05,-2.9999999999999997e-05,0.00022,0.0003,0.00043,-0.00031,2
5054,5268,5e-05,5.9999999999999995e-05,-2.9999999999999997e-05,-2.9999999999999997e-05,0.00022,0.0003,0.00043,-0.00031,2
5055,5269,5e-05,5.9999999999999995e-05,-2.9999999999999997e-05,-2.9999999999999997e-05,0.00022,0.0003,0.00043,-0.00031,2
5056,5270,5e-05,5.9999999999999995e-05,-2.9999999999999997e-05,-2.9999999999999997e-05,0.00022,0.0003,0.00043,-0.00031,2
5057,5271,5e-05,5.9999999999999995e-05,-2.9999999999999997e-05,-2.9999999999999997e-05,0.00022,0.0003,0.00043,-0.00031,2
5058,5272,5e-05,5.9999999999999995e-05,-2.9999999999999997e-05,-2.9999999999999997e-05,0.00022,0.0003,0.00043,-0.00031,2
5059,5273,5e-05,5.9999999999999995e-05,-2.9999999999999997e-05,-2.9999999999999997e-05,0.00022,0.0003,0.00043,-0.00031,2
5060,5274,5e-05,5.9999999999999995e-05,-2.9999999999999997e-05,-2.9999999999999997e-05,0.00022,0.0003,0.00043,-0.00031,2
5061,5275,5e-05,5.9999999999999995e-05,-2.9999999999999997e-05,-2.9999999999999997e-05,0.00022,0.0003,0.00043,-0.00031,2
5062,5276,5e-05,5.9999999999999995e-05,-2.9999999999999997e-05,-2.9999999999999997e-05,0.00022,0.0003,0.00043,-0.00031,2
5063,5277,5e-05,5.9999999999999995e-05,-2.9999999999999997e-05,-2.9999999999999997e-05,0.00022,0.0003,0.00043,-0.00031,2
5064,5278,5e-05,5.9999999999999995e-05,-2.9999999999999997e-05,-2.9999999999999997e-05,0.00022,0.0003,0.00043,-0.00031,2
5065,5279,5e-05,5.9999999999999995e-05,-2.9999999999999997e-05,-2.9999999999999997e-05,0.00022,0.0003,0.00043,-0.00031,2
5066,5280,5e-05,5.9999999999999995e-05,-2.9999999999999997e-05,-2.9999999999999997e-05,0.00022,0.0003,0.00043,-0.00031,2
5067,5281,5e-05,5.9999999999999995e-05,-2.9999999999999997e-05,-2.9999999999999997e-05,0.00022,0.0003,0.00043,-0.00031,2
5068,5282,5e-05,5.9999999999999995e-05,-2.9999999999999997e-05,-2.9999999999999997e-05,0.00022,0.0003,0.00043,-0.00031,2
5069,5283,5e-05,5.9999999999999995e-05,-2.9999999999999997e-05,-2.9999999999999997e-05,0.00022,0.0003,0.00043,-0.00031,2
5070,5284,5e-05,5.9999999999999995e-05,-2.9999999999999997e-05,-2.9999999999999997e-05,0.00022,0.0003,0.00043,-0.00031,2
5071,5285,5e-05,5.9999999999999995e-05,-2.9999999999999997e-05,-2.9999999999999997e-05,0.00022,0.0003,0.00043,-0.00031,2
5072,5286,5e-05,5.9999999999999995e-05,-2.9999999999999997e-05,-2.9999999999999997e-05,0.00022,0.0003,0.00043,-0.00031,2
5073,5289,-0.00023999999999999998,-2e-05,1e-05,-0.00057,-0.00023999999999999998,-0.00036,-0.00061,-5.9999999999999995e-05,2
5074,5290,-0.00047000000000000004,-5.9999999999999995e-05,-1e-05,0.00018999999999999998,-0.00049,0.00037,7e-05,-4e-05,2
5075,5291,-0.00047000000000000004,-5.9999999999999995e-05,-1e-05,0.00018999999999999998,-0.00049,0.00037,7e-05,-4e-05,2
5076,5292,-0.00047000000000000004,-5.9999999999999995e-05,-1e-05,0.00018999999999999998,-0.00049,0.00037,7e-05,-4e-05,2
5077,5293,-0.00047000000000000004,-5.9999999999999995e-05,-1e-05,0.00018999999999999998,-0.00049,0.00037,7e-05,-4e-05,2
5078,5294,-0.00047000000000000004,-5.9999999999999995e-05,-1e-05,0.00018999999999999998,-0.00049,0.00037,7e-05,-4e-05,2
5079,5295,-0.00047000000000000004,-5.9999999999999995e-05,-1e-05,0.00018999999999999998,-0.00049,0.00037,7e-05,-4e-05,2
5080,5296,-0.00047000000000000004,-5.9999999999999995e-05,-1e-05,0.00018999999999999998,-0.00049,0.00037,7e-05,-4e-05,2
5081,5297,-0.00047000000000000004,-5.9999999999999995e-05,-1e-05,0.00018999999999999998,-0.00049,0.00037,7e-05,-4e-05,2
5082,5298,-0.00047000000000000004,-5.9999999999999995e-05,-1e-05,0.00018999999999999998,-0.00049,0.00037,7e-05,-4e-05,2
5083,5299,-0.00047000000000000004,-5.9999999999999995e-05,-1e-05,0.00018999999999999998,-0.00049,0.00037,7e-05,-4e-05,2
5084,5300,-0.00047000000000000004,-5.9999999999999995e-05,-1e-05,0.00018999999999999998,-0.00049,0.00037,7e-05,-4e-05,2
5085,5301,-0.00047000000000000004,-5.9999999999999995e-05,-1e-05,0.00018999999999999998,-0.00049,0.00037,7e-05,-4e-05,2
5086,5302,-0.00047000000000000004,-5.9999999999999995e-05,-1e-05,0.00018999999999999998,-0.00049,0.00037,7e-05,-4e-05,2
5087,5303,-0.00047000000000000004,-5.9999999999999995e-05,-1e-05,0.00018999999999999998,-0.00049,0.00037,7e-05,-4e-05,2
5088,5304,-0.00047000000000000004,-5.9999999999999995e-05,-1e-05,0.00018999999999999998,-0.00049,0.00037,7e-05,-4e-05,2
5089,5305,-0.00047000000000000004,-5.9999999999999995e-05,-1e-05,0.00018999999999999998,-0.00049,0.00037,7e-05,-4e-05,2
5090,5306,-0.00047000000000000004,-5.9999999999999995e-05,-1e-05,0.00018999999999999998,-0.00049,0.00037,7e-05,-4e-05,2
5091,5307,-0.00047000000000000004,-5.9999999999999995e-05,-1e-05,0.00018999999999999998,-0.00049,0.00037,7e-05,-4e-05,2
5092,5308,-0.00047000000000000004,-5.9999999999999995e-05,-1e-05,0.00018999999999999998,-0.00049,0.00037,7e-05,-4e-05,2
5093,5309,-0.00047000000000000004,-5.9999999999999995e-05,-1e-05,0.00018999999999999998,-0.00049,0.00037,7e-05,-4e-05,2
5094,5310,-0.00047000000000000004,-5.9999999999999995e-05,-1e-05,0.00018999999999999998,-0.00049,0.00037,7e-05,-4e-05,2
5095,5311,-0.00047000000000000004,-5.9999999999999995e-05,-1e-05,0.00018999999999999998,-0.00049,0.00037,7e-05,-4e-05,2
5096,5312,-0.00047000000000000004,-5.9999999999999995e-05,-1e-05,0.00018999999999999998,-0.00049,0.00037,7e-05,-4e-05,2
5097,5313,-0.00047000000000000004,-5.9999999999999995e-05,-1e-05,0.00018999999999999998,-0.00049,0.00037,7e-05,-4e-05,2
5098,5314,-0.00047000000000000004,-5.9999999999999995e-05,-1e-05,0.00018999999999999998,-0.00049,0.00037,7e-05,-4e-05,2
5099,5315,-0.00047000000000000004,-5.9999999999999995e-05,-1e-05,0.00018999999999999998,-0.00049,0.00037,7e-05,-4e-05,2
5100,5316,-0.00047000000000000004,-5.9999999999999995e-05,-1e-05,0.00018999999999999998,-0.00049,0.00037,7e-05,-4e-05,2
5101,5317,-0.00047000000000000004,-5.9999999999999995e-05,-1e-05,0.00018999999999999998,-0.00049,0.00037,7e-05,-4e-05,2
5102,5318,-0.00029,-5.9999999999999995e-05,-5e-05,-0.00053,-0.00014,-0.00016999999999999999,-0.00047000000000000004,-0.00016999999999999999,2
5103,5319,0.00033999999999999997,2.9999999999999997e-05,1e-05,0.00067,-5.9999999999999995e-05,5.9999999999999995e-05,-0.00026000000000000003,5e-05,2
5104,5320,-0.0005,7e-05,0.00011,0.00037999999999999997,0.00015,-0.00011,0.00011999999999999999,0.00033,2
5105,5321,-0.0005,7e-05,0.00011,0.00037999999999999997,0.00015,-0.00011,0.00011999999999999999,0.00033,2
5106,5322,-0.0005,7e-05,0.00011,0.00037999999999999997,0.00015,-0.00011,0.00011999999999999999,0.00033,2
5107,5323,-0.0005,7e-05,0.00011,0.00037999999999999997,0.00015,-0.00011,0.00011999999999999999,0.00033,2
5108,5324,-0.0005,7e-05,0.00011,0.00037999999999999997,0.00015,-0.00011,0.00011999999999999999,0.00033,2
5109,5325,0.0001,-1e-05,-2.9999999999999997e-05,2.9999999999999997e-05,-2.9999999999999997e-05,-0.00014,0.00033999999999999997,0.00029,2
5110,5326,0.0001,-1e-05,-2.9999999999999997e-05,2.9999999999999997e-05,-2.9999999999999997e-05,-0.00014,0.00033999999999999997,0.00029,2
5111,5327,0.00047999999999999996,-2.9999999999999997e-05,-4e-05,-0.00035,0.00016,0.0001,-2e-05,9e-05,2
5112,5328,0.00047999999999999996,-2.9999999999999997e-05,-4e-05,-0.00035,0.00016,0.0001,-2e-05,9e-05,2
5113,5329,0.00047999999999999996,-2.9999999999999997e-05,-4e-05,-0.00035,0.00016,0.0001,-2e-05,9e-05,2
5114,5330,0.00047999999999999996,-2.9999999999999997e-05,-4e-05,-0.00035,0.00016,0.0001,-2e-05,9e-05,2
5115,5331,0.00047999999999999996,-2.9999999999999997e-05,-4e-05,-0.00035,0.00016,0.0001,-2e-05,9e-05,2
5116,5332,0.00047999999999999996,-2.9999999999999997e-05,-4e-05,-0.00035,0.00016,0.0001,-2e-05,9e-05,2
5117,5333,0.00047999999999999996,-2.9999999999999997e-05,-4e-05,-0.00035,0.00016,0.0001,-2e-05,9e-05,2
5118,5334,0.00047999999999999996,-2.9999999999999997e-05,-4e-05,-0.00035,0.00016,0.0001,-2e-05,9e-05,2
5119,5335,0.00047999999999999996,-2.9999999999999997e-05,-4e-05,-0.00035,0.00016,0.0001,-2e-05,9e-05,2
5120,5336,0.00047999999999999996,-2.9999999999999997e-05,-4e-05,-0.00035,0.00016,0.0001,-2e-05,9e-05,2
5121,5338,0.00047999999999999996,-2.9999999999999997e-05,-4e-05,-0.00035,0.00016,0.0001,-2e-05,9e-05,2
5122,5339,0.00047999999999999996,-2.9999999999999997e-05,-4e-05,-0.00035,0.00016,0.0001,-2e-05,9e-05,2
5123,5340,0.00047999999999999996,-2.9999999999999997e-05,-4e-05,-0.00035,0.00016,0.0001,-2e-05,9e-05,2
5124,5341,0.00047999999999999996,-2.9999999999999997e-05,-4e-05,-0.00035,0.00016,0.0001,-2e-05,9e-05,2
5125,5342,0.00047999999999999996,-2.9999999999999997e-05,-4e-05,-0.00035,0.00016,0.0001,-2e-05,9e-05,2
5126,5343,0.00047999999999999996,-2.9999999999999997e-05,-4e-05,-0.00035,0.00016,0.0001,-2e-05,9e-05,2
5127,5344,0.00047999999999999996,-2.9999999999999997e-05,-4e-05,-0.00035,0.00016,0.0001,-2e-05,9e-05,2
5128,5345,0.00047999999999999996,-2.9999999999999997e-05,-4e-05,-0.00035,0.00016,0.0001,-2e-05,9e-05,2
5129,5346,0.00047999999999999996,-2.9999999999999997e-05,-4e-05,-0.00035,0.00016,0.0001,-2e-05,9e-05,2
5130,5347,0.00047999999999999996,-2.9999999999999997e-05,-4e-05,-0.00035,0.00016,0.0001,-2e-05,9e-05,2
5131,5348,-0.00035,0.0,-0.00021,-0.00078,0.00011999999999999999,-5e-05,0.00054,5.9999999999999995e-05,2
5132,5349,0.0,-0.0001,5e-05,1e-05,0.00021,8e-05,-0.00033,-0.00011999999999999999,2
5133,5350,0.00018,0.0,2.9999999999999997e-05,-0.0005099999999999999,-5.9999999999999995e-05,0.00011999999999999999,-0.00014,1e-05,2
5134,5351,0.00018,0.0,2.9999999999999997e-05,-0.0005099999999999999,-5.9999999999999995e-05,0.00011999999999999999,-0.00014,1e-05,2
5135,5352,0.00018,0.0,2.9999999999999997e-05,-0.0005099999999999999,-5.9999999999999995e-05,0.00011999999999999999,-0.00014,1e-05,2
5136,5353,0.00018,0.0,2.9999999999999997e-05,-0.0005099999999999999,-5.9999999999999995e-05,0.00011999999999999999,-0.00014,1e-05,2
5137,5354,0.00018,0.0,2.9999999999999997e-05,-0.0005099999999999999,-5.9999999999999995e-05,0.00011999999999999999,-0.00014,1e-05,2
5138,5355,0.00018,0.0,2.9999999999999997e-05,-0.0005099999999999999,-5.9999999999999995e-05,0.00011999999999999999,-0.00014,1e-05,2
5139,5356,0.00018,0.0,2.9999999999999997e-05,-0.0005099999999999999,-5.9999999999999995e-05,0.00011999999999999999,-0.00014,1e-05,2
5140,5357,0.00018,0.0,2.9999999999999997e-05,-0.0005099999999999999,-5.9999999999999995e-05,0.00011999999999999999,-0.00014,1e-05,2
5141,5358,0.00018,0.0,2.9999999999999997e-05,-0.0005099999999999999,-5.9999999999999995e-05,0.00011999999999999999,-0.00014,1e-05,2
5142,5359,0.00018,0.0,2.9999999999999997e-05,-0.0005099999999999999,-5.9999999999999995e-05,0.00011999999999999999,-0.00014,1e-05,2
5143,5360,0.00018,0.0,2.9999999999999997e-05,-0.0005099999999999999,-5.9999999999999995e-05,0.00011999999999999999,-0.00014,1e-05,2
5144,5361,0.00018,0.0,2.9999999999999997e-05,-0.0005099999999999999,-5.9999999999999995e-05,0.00011999999999999999,-0.00014,1e-05,2
5145,5362,0.00018,0.0,2.9999999999999997e-05,-0.0005099999999999999,-5.9999999999999995e-05,0.00011999999999999999,-0.00014,1e-05,2
5146,5363,-5.9999999999999995e-05,-2e-05,-7e-05,-5.9999999999999995e-05,-0.00011,-4e-05,2e-05,0.0,2
5147,5364,0.00018,4e-05,9e-05,0.0001,2.9999999999999997e-05,0.00055,-2.9999999999999997e-05,0.00013000000000000002,2
5148,5365,0.00037,-2e-05,-0.00011,-0.00027,2.9999999999999997e-05,-0.00047999999999999996,0.00022,0.00016,2
5149,5366,0.00037,-2e-05,-0.00011,-0.00027,2.9999999999999997e-05,-0.00047999999999999996,0.00022,0.00016,2
5150,5367,0.00037,-2e-05,-0.00011,-0.00027,2.9999999999999997e-05,-0.00047999999999999996,0.00022,0.00016,2
5151,5368,0.00037,-2e-05,-0.00011,-0.00027,2.9999999999999997e-05,-0.00047999999999999996,0.00022,0.00016,2
5152,5369,0.00037,-2e-05,-0.00011,-0.00027,2.9999999999999997e-05,-0.00047999999999999996,0.00022,0.00016,2
5153,5370,0.00037,-2e-05,-0.00011,-0.00027,2.9999999999999997e-05,-0.00047999999999999996,0.00022,0.00016,2
5154,5371,0.00037,-2e-05,-0.00011,-0.00027,2.9999999999999997e-05,-0.00047999999999999996,0.00022,0.00016,2
5155,5372,0.00037,-2e-05,-0.00011,-0.00027,2.9999999999999997e-05,-0.00047999999999999996,0.00022,0.00016,2
5156,5373,0.00037,-2e-05,-0.00011,-0.00027,2.9999999999999997e-05,-0.00047999999999999996,0.00022,0.00016,2
5157,5374,0.00037,-2e-05,-0.00011,-0.00027,2.9999999999999997e-05,-0.00047999999999999996,0.00022,0.00016,2
5158,5376,0.00037,-2e-05,-0.00011,-0.00027,2.9999999999999997e-05,-0.00047999999999999996,0.00022,0.00016,2
5159,5377,0.00037,-2e-05,-0.00011,-0.00027,2.9999999999999997e-05,-0.00047999999999999996,0.00022,0.00016,2
5160,5378,0.00037,-2e-05,-0.00011,-0.00027,2.9999999999999997e-05,-0.00047999999999999996,0.00022,0.00016,2
5161,5379,0.00037,-2e-05,-0.00011,-0.00027,2.9999999999999997e-05,-0.00047999999999999996,0.00022,0.00016,2
5162,5380,0.00037,-2e-05,-0.00011,-0.00027,2.9999999999999997e-05,-0.00047999999999999996,0.00022,0.00016,2
5163,5381,0.00037,-2e-05,-0.00011,-0.00027,2.9999999999999997e-05,-0.00047999999999999996,0.00022,0.00016,2
5164,5382,0.00037,-2e-05,-0.00011,-0.00027,2.9999999999999997e-05,-0.00047999999999999996,0.00022,0.00016,2
5165,5383,0.00037,-2e-05,-0.00011,-0.00027,2.9999999999999997e-05,-0.00047999999999999996,0.00022,0.00016,2
5166,5384,0.00037,-2e-05,-0.00011,-0.00027,2.9999999999999997e-05,-0.00047999999999999996,0.00022,0.00016,2
5167,5385,0.0002,-4e-05,-9e-05,-0.00061,-2.9999999999999997e-05,0.00022,-0.00016999999999999999,-0.00016,2
5168,5386,0.0002,-4e-05,-9e-05,-0.00061,-2.9999999999999997e-05,0.00022,-0.00016999999999999999,-0.00016,2
5169,5388,9e-05,0.0,-7e-05,-0.00032,-0.00016,5e-05,0.00053,0.0001,2
5170,5389,9e-05,0.0,-7e-05,-0.00032,-0.00016,5e-05,0.00053,0.0001,2
5171,5390,9e-05,0.0,-7e-05,-0.00032,-0.00016,5e-05,0.00053,0.0001,2
5172,5391,9e-05,0.0,-7e-05,-0.00032,-0.00016,5e-05,0.00053,0.0001,2
5173,5392,9e-05,0.0,-7e-05,-0.00032,-0.00016,5e-05,0.00053,0.0001,2
5174,5393,9e-05,0.0,-7e-05,-0.00032,-0.00016,5e-05,0.00053,0.0001,2
5175,5394,9e-05,0.0,-7e-05,-0.00032,-0.00016,5e-05,0.00053,0.0001,2
5176,5395,9e-05,0.0,-7e-05,-0.00032,-0.00016,5e-05,0.00053,0.0001,2
5177,5396,9e-05,0.0,-7e-05,-0.00032,-0.00016,5e-05,0.00053,0.0001,2
5178,5397,9e-05,0.0,-7e-05,-0.00032,-0.00016,5e-05,0.00053,0.0001,2
5179,5398,9e-05,0.0,-7e-05,-0.00032,-0.00016,5e-05,0.00053,0.0001,2
5180,5399,9e-05,0.0,-7e-05,-0.00032,-0.00016,5e-05,0.00053,0.0001,2
5181,5400,9e-05,0.0,-7e-05,-0.00032,-0.00016,5e-05,0.00053,0.0001,2
5182,5401,9e-05,0.0,-7e-05,-0.00032,-0.00016,5e-05,0.00053,0.0001,2
5183,5402,9e-05,0.0,-7e-05,-0.00032,-0.00016,5e-05,0.00053,0.0001,2
5184,5403,9e-05,0.0,-7e-05,-0.00032,-0.00016,5e-05,0.00053,0.0001,2
5185,5404,9e-05,0.0,-7e-05,-0.00032,-0.00016,5e-05,0.00053,0.0001,2
5186,5405,9e-05,0.0,-7e-05,-0.00032,-0.00016,5e-05,0.00053,0.0001,2
5187,5406,9e-05,0.0,-7e-05,-0.00032,-0.00016,5e-05,0.00053,0.0001,2
5188,5407,9e-05,0.0,-7e-05,-0.00032,-0.00016,5e-05,0.00053,0.0001,2
5189,5408,-0.00022999999999999998,-2e-05,2.9999999999999997e-05,0.0003,-0.0001,-0.00016,0.00033999999999999997,0.00011,2
5190,5409,-0.00022999999999999998,-2e-05,2.9999999999999997e-05,0.0003,-0.0001,-0.00016,0.00033999999999999997,0.00011,2
5191,5410,-0.00064,-4e-05,-8e-05,-0.00098,-0.00011,-5e-05,0.00016,-1e-05,2
5192,5411,-0.00064,-4e-05,-8e-05,-0.00098,-0.00011,-5e-05,0.00016,-1e-05,2
5193,5412,-0.00064,-4e-05,-8e-05,-0.00098,-0.00011,-5e-05,0.00016,-1e-05,2
5194,5413,-0.00064,-4e-05,-8e-05,-0.00098,-0.00011,-5e-05,0.00016,-1e-05,2
5195,5414,-0.00064,-4e-05,-8e-05,-0.00098,-0.00011,-5e-05,0.00016,-1e-05,2
5196,5415,-0.00064,-4e-05,-8e-05,-0.00098,-0.00011,-5e-05,0.00016,-1e-05,2
5197,5416,-0.00064,-4e-05,-8e-05,-0.00098,-0.00011,-5e-05,0.00016,-1e-05,2
5198,5417,-0.00064,-4e-05,-8e-05,-0.00098,-0.00011,-5e-05,0.00016,-1e-05,2
5199,5418,-0.00064,-4e-05,-8e-05,-0.00098,-0.00011,-5e-05,0.00016,-1e-05,2
5200,5419,-0.00064,-4e-05,-8e-05,-0.00098,-0.00011,-5e-05,0.00016,-1e-05,2
5201,5420,-0.00064,-4e-05,-8e-05,-0.00098,-0.00011,-5e-05,0.00016,-1e-05,2
5202,5421,-0.00064,-4e-05,-8e-05,-0.00098,-0.00011,-5e-05,0.00016,-1e-05,2
5203,5422,-0.00064,-4e-05,-8e-05,-0.00098,-0.00011,-5e-05,0.00016,-1e-05,2
5204,5423,0.00028,4e-05,7e-05,0.00037,0.00011,-0.00042,-0.00031,8e-05,2
5205,5424,0.0006900000000000001,-5e-05,-4e-05,4e-05,-0.00021,-0.00015,1e-05,-1e-05,2
5206,5425,-0.00116,-9e-05,-0.0001,0.00032,0.0003,0.00042,-0.00047000000000000004,-0.00027,2
5207,5426,-0.00116,-9e-05,-0.0001,0.00032,0.0003,0.00042,-0.00047000000000000004,-0.00027,2
5208,5427,-0.00116,-9e-05,-0.0001,0.00032,0.0003,0.00042,-0.00047000000000000004,-0.00027,2
5209,5428,-0.00116,-9e-05,-0.0001,0.00032,0.0003,0.00042,-0.00047000000000000004,-0.00027,2
5210,5429,-0.00116,-9e-05,-0.0001,0.00032,0.0003,0.00042,-0.00047000000000000004,-0.00027,2
5211,5430,-0.00116,-9e-05,-0.0001,0.00032,0.0003,0.00042,-0.00047000000000000004,-0.00027,2
5212,5431,-0.00116,-9e-05,-0.0001,0.00032,0.0003,0.00042,-0.00047000000000000004,-0.00027,2
5213,5432,-0.00116,-9e-05,-0.0001,0.00032,0.0003,0.00042,-0.00047000000000000004,-0.00027,2
5214,5433,-0.00116,-9e-05,-0.0001,0.00032,0.0003,0.00042,-0.00047000000000000004,-0.00027,2
5215,5434,-0.00116,-9e-05,-0.0001,0.00032,0.0003,0.00042,-0.00047000000000000004,-0.00027,2
5216,5435,-0.00116,-9e-05,-0.0001,0.00032,0.0003,0.00042,-0.00047000000000000004,-0.00027,2
5217,5436,-0.00116,-9e-05,-0.0001,0.00032,0.0003,0.00042,-0.00047000000000000004,-0.00027,2
5218,5438,-0.00116,-9e-05,-0.0001,0.00032,0.0003,0.00042,-0.00047000000000000004,-0.00027,2
5219,5439,-0.00116,-9e-05,-0.0001,0.00032,0.0003,0.00042,-0.00047000000000000004,-0.00027,2
5220,5440,-0.00116,-9e-05,-0.0001,0.00032,0.0003,0.00042,-0.00047000000000000004,-0.00027,2
5221,5441,-0.00116,-9e-05,-0.0001,0.00032,0.0003,0.00042,-0.00047000000000000004,-0.00027,2
5222,5442,-0.00116,-9e-05,-0.0001,0.00032,0.0003,0.00042,-0.00047000000000000004,-0.00027,2
5223,5443,-0.00116,-9e-05,-0.0001,0.00032,0.0003,0.00042,-0.00047000000000000004,-0.00027,2
5224,5444,-0.00116,-9e-05,-0.0001,0.00032,0.0003,0.00042,-0.00047000000000000004,-0.00027,2
5225,5445,0.00045999999999999996,5e-05,2.9999999999999997e-05,-0.00027,-0.0001,4e-05,0.00047000000000000004,0.00025,2
5226,5446,-0.0003,5e-05,0.00015,0.00039,5e-05,-0.00022999999999999998,0.00079,0.00027,2
5227,5447,0.00035,-5.9999999999999995e-05,-0.0001,0.0,-5.9999999999999995e-05,-0.00018,-0.0007700000000000001,-0.00033999999999999997,2
5228,5448,0.00035,-5.9999999999999995e-05,-0.0001,0.0,-5.9999999999999995e-05,-0.00018,-0.0007700000000000001,-0.00033999999999999997,2
5229,5449,0.00035,-5.9999999999999995e-05,-0.0001,0.0,-5.9999999999999995e-05,-0.00018,-0.0007700000000000001,-0.00033999999999999997,2
5230,5450,0.00035,-5.9999999999999995e-05,-0.0001,0.0,-5.9999999999999995e-05,-0.00018,-0.0007700000000000001,-0.00033999999999999997,2
5231,5451,0.00035,-5.9999999999999995e-05,-0.0001,0.0,-5.9999999999999995e-05,-0.00018,-0.0007700000000000001,-0.00033999999999999997,2
5232,5452,0.00035,-5.9999999999999995e-05,-0.0001,0.0,-5.9999999999999995e-05,-0.00018,-0.0007700000000000001,-0.00033999999999999997,2
5233,5453,0.00035,-5.9999999999999995e-05,-0.0001,0.0,-5.9999999999999995e-05,-0.00018,-0.0007700000000000001,-0.00033999999999999997,2
5234,5454,0.00035,-5.9999999999999995e-05,-0.0001,0.0,-5.9999999999999995e-05,-0.00018,-0.0007700000000000001,-0.00033999999999999997,2
5235,5455,0.00035,-5.9999999999999995e-05,-0.0001,0.0,-5.9999999999999995e-05,-0.00018,-0.0007700000000000001,-0.00033999999999999997,2
5236,5456,0.00035,-5.9999999999999995e-05,-0.0001,0.0,-5.9999999999999995e-05,-0.00018,-0.0007700000000000001,-0.00033999999999999997,2
5237,5457,0.00035,-5.9999999999999995e-05,-0.0001,0.0,-5.9999999999999995e-05,-0.00018,-0.0007700000000000001,-0.00033999999999999997,2
5238,5458,0.00035,-5.9999999999999995e-05,-0.0001,0.0,-5.9999999999999995e-05,-0.00018,-0.0007700000000000001,-0.00033999999999999997,2
5239,5459,0.00035,-5.9999999999999995e-05,-0.0001,0.0,-5.9999999999999995e-05,-0.00018,-0.0007700000000000001,-0.00033999999999999997,2
5240,5460,0.00057,0.0,-1e-05,-9e-05,-0.00011999999999999999,0.00031,-1e-05,-0.00022,2
5241,5461,0.00057,0.0,-1e-05,-9e-05,-0.00011999999999999999,0.00031,-1e-05,-0.00022,2
5242,5462,0.00057,0.0,-1e-05,-9e-05,-0.00011999999999999999,0.00031,-1e-05,-0.00022,2
5243,5463,0.00057,0.0,-1e-05,-9e-05,-0.00011999999999999999,0.00031,-1e-05,-0.00022,2
5244,5464,0.00057,0.0,-1e-05,-9e-05,-0.00011999999999999999,0.00031,-1e-05,-0.00022,2
5245,5465,0.00057,0.0,-1e-05,-9e-05,-0.00011999999999999999,0.00031,-1e-05,-0.00022,2
5246,5466,-0.00053,0.0001,2.9999999999999997e-05,-0.00022,2.9999999999999997e-05,2e-05,0.00061,0.00039,2
5247,5467,0.00039,-2.9999999999999997e-05,5e-05,0.00033999999999999997,0.00014,-2e-05,-0.00025,0.00011,2
5248,5468,0.00039,-2.9999999999999997e-05,5e-05,0.00033999999999999997,0.00014,-2e-05,-0.00025,0.00011,2
5249,5469,0.00039,-2.9999999999999997e-05,5e-05,0.00033999999999999997,0.00014,-2e-05,-0.00025,0.00011,2
5250,5470,0.00039,-2.9999999999999997e-05,5e-05,0.00033999999999999997,0.00014,-2e-05,-0.00025,0.00011,2
5251,5471,0.00039,-2.9999999999999997e-05,5e-05,0.00033999999999999997,0.00014,-2e-05,-0.00025,0.00011,2
5252,5472,0.00039,-2.9999999999999997e-05,5e-05,0.00033999999999999997,0.00014,-2e-05,-0.00025,0.00011,2
5253,5473,0.00039,-2.9999999999999997e-05,5e-05,0.00033999999999999997,0.00014,-2e-05,-0.00025,0.00011,2
5254,5474,0.00039,-2.9999999999999997e-05,5e-05,0.00033999999999999997,0.00014,-2e-05,-0.00025,0.00011,2
5255,5475,0.00039,-2.9999999999999997e-05,5e-05,0.00033999999999999997,0.00014,-2e-05,-0.00025,0.00011,2
5256,5476,0.00039,-2.9999999999999997e-05,5e-05,0.00033999999999999997,0.00014,-2e-05,-0.00025,0.00011,2
5257,5477,0.00039,-2.9999999999999997e-05,5e-05,0.00033999999999999997,0.00014,-2e-05,-0.00025,0.00011,2
5258,5478,0.00039,-2.9999999999999997e-05,5e-05,0.00033999999999999997,0.00014,-2e-05,-0.00025,0.00011,2
5259,5479,0.00039,-2.9999999999999997e-05,5e-05,0.00033999999999999997,0.00014,-2e-05,-0.00025,0.00011,2
5260,5480,0.00039,-2.9999999999999997e-05,5e-05,0.00033999999999999997,0.00014,-2e-05,-0.00025,0.00011,2
5261,5481,0.00039,-2.9999999999999997e-05,5e-05,0.00033999999999999997,0.00014,-2e-05,-0.00025,0.00011,2
5262,5482,0.00039,-2.9999999999999997e-05,5e-05,0.00033999999999999997,0.00014,-2e-05,-0.00025,0.00011,2
5263,5483,-0.00042,-1e-05,0.0,-0.00015,-2e-05,-4e-05,-8e-05,-5e-05,2
5264,5484,-5.9999999999999995e-05,-5e-05,-0.00018,-0.00031,0.00047000000000000004,0.00027,-0.00029,2e-05,2
5265,5485,-5.9999999999999995e-05,-5e-05,-0.00018,-0.00031,0.00047000000000000004,0.00027,-0.00029,2e-05,2
5266,5486,-5.9999999999999995e-05,-5e-05,-0.00018,-0.00031,0.00047000000000000004,0.00027,-0.00029,2e-05,2
5267,5488,-5.9999999999999995e-05,-5e-05,-0.00018,-0.00031,0.00047000000000000004,0.00027,-0.00029,2e-05,2
5268,5489,-5.9999999999999995e-05,-5e-05,-0.00018,-0.00031,0.00047000000000000004,0.00027,-0.00029,2e-05,2
5269,5490,-5.9999999999999995e-05,-5e-05,-0.00018,-0.00031,0.00047000000000000004,0.00027,-0.00029,2e-05,2
5270,5491,-5.9999999999999995e-05,-5e-05,-0.00018,-0.00031,0.00047000000000000004,0.00027,-0.00029,2e-05,2
5271,5492,-5.9999999999999995e-05,-5e-05,-0.00018,-0.00031,0.00047000000000000004,0.00027,-0.00029,2e-05,2
5272,5493,-5.9999999999999995e-05,-5e-05,-0.00018,-0.00031,0.00047000000000000004,0.00027,-0.00029,2e-05,2
5273,5494,-5.9999999999999995e-05,-5e-05,-0.00018,-0.00031,0.00047000000000000004,0.00027,-0.00029,2e-05,2
5274,5495,-5.9999999999999995e-05,-5e-05,-0.00018,-0.00031,0.00047000000000000004,0.00027,-0.00029,2e-05,2
5275,5496,-5.9999999999999995e-05,-5e-05,-0.00018,-0.00031,0.00047000000000000004,0.00027,-0.00029,2e-05,2
5276,5497,-5.9999999999999995e-05,-5e-05,-0.00018,-0.00031,0.00047000000000000004,0.00027,-0.00029,2e-05,2
5277,5498,-5.9999999999999995e-05,-5e-05,-0.00018,-0.00031,0.00047000000000000004,0.00027,-0.00029,2e-05,2
5278,5499,-5.9999999999999995e-05,-5e-05,-0.00018,-0.00031,0.00047000000000000004,0.00027,-0.00029,2e-05,2
5279,5500,-5.9999999999999995e-05,-5e-05,-0.00018,-0.00031,0.00047000000000000004,0.00027,-0.00029,2e-05,2
5280,5501,-5.9999999999999995e-05,-5e-05,-0.00018,-0.00031,0.00047000000000000004,0.00027,-0.00029,2e-05,2
5281,5502,-5.9999999999999995e-05,-5e-05,-0.00018,-0.00031,0.00047000000000000004,0.00027,-0.00029,2e-05,2
5282,5503,-5.9999999999999995e-05,-5e-05,-0.00018,-0.00031,0.00047000000000000004,0.00027,-0.00029,2e-05,2
5283,5504,-5.9999999999999995e-05,-5e-05,-0.00018,-0.00031,0.00047000000000000004,0.00027,-0.00029,2e-05,2
5284,5505,-0.00041,-1e-05,-2.9999999999999997e-05,0.0,-1e-05,8e-05,0.00061,5e-05,2
5285,5506,-0.00041,-1e-05,-2.9999999999999997e-05,0.0,-1e-05,8e-05,0.00061,5e-05,2
5286,5507,0.0008300000000000001,-2.9999999999999997e-05,2e-05,0.00037,-0.00018999999999999998,-0.00013000000000000002,0.0003,2e-05,2
5287,5508,0.0008300000000000001,-2.9999999999999997e-05,2e-05,0.00037,-0.00018999999999999998,-0.00013000000000000002,0.0003,2e-05,2
5288,5509,0.0008300000000000001,-2.9999999999999997e-05,2e-05,0.00037,-0.00018999999999999998,-0.00013000000000000002,0.0003,2e-05,2
5289,5510,0.0008300000000000001,-2.9999999999999997e-05,2e-05,0.00037,-0.00018999999999999998,-0.00013000000000000002,0.0003,2e-05,2
5290,5511,0.0008300000000000001,-2.9999999999999997e-05,2e-05,0.00037,-0.00018999999999999998,-0.00013000000000000002,0.0003,2e-05,2
5291,5512,0.0008300000000000001,-2.9999999999999997e-05,2e-05,0.00037,-0.00018999999999999998,-0.00013000000000000002,0.0003,2e-05,2
5292,5513,0.0008300000000000001,-2.9999999999999997e-05,2e-05,0.00037,-0.00018999999999999998,-0.00013000000000000002,0.0003,2e-05,2
5293,5514,0.0008300000000000001,-2.9999999999999997e-05,2e-05,0.00037,-0.00018999999999999998,-0.00013000000000000002,0.0003,2e-05,2
5294,5516,0.0008300000000000001,-2.9999999999999997e-05,2e-05,0.00037,-0.00018999999999999998,-0.00013000000000000002,0.0003,2e-05,2
5295,5517,0.0008300000000000001,-2.9999999999999997e-05,2e-05,0.00037,-0.00018999999999999998,-0.00013000000000000002,0.0003,2e-05,2
5296,5518,0.0008300000000000001,-2.9999999999999997e-05,2e-05,0.00037,-0.00018999999999999998,-0.00013000000000000002,0.0003,2e-05,2
5297,5519,0.0008300000000000001,-2.9999999999999997e-05,2e-05,0.00037,-0.00018999999999999998,-0.00013000000000000002,0.0003,2e-05,2
5298,5520,0.0002,-7e-05,2.9999999999999997e-05,0.00054,0.00027,0.00073,-0.00011999999999999999,-0.00023999999999999998,2
5299,5521,0.0002,-7e-05,2.9999999999999997e-05,0.00054,0.00027,0.00073,-0.00011999999999999999,-0.00023999999999999998,2
5300,5522,0.0002,-7e-05,2.9999999999999997e-05,0.00054,0.00027,0.00073,-0.00011999999999999999,-0.00023999999999999998,2
5301,5523,0.0002,-7e-05,2.9999999999999997e-05,0.00054,0.00027,0.00073,-0.00011999999999999999,-0.00023999999999999998,2
5302,5524,0.0002,-7e-05,2.9999999999999997e-05,0.00054,0.00027,0.00073,-0.00011999999999999999,-0.00023999999999999998,2
5303,5525,0.0002,-7e-05,2.9999999999999997e-05,0.00054,0.00027,0.00073,-0.00011999999999999999,-0.00023999999999999998,2
5304,5526,0.0002,-7e-05,2.9999999999999997e-05,0.00054,0.00027,0.00073,-0.00011999999999999999,-0.00023999999999999998,2
5305,5527,5.9999999999999995e-05,-8e-05,-0.0001,-0.00055,0.00033,0.00013000000000000002,0.0007,-9e-05,2
5306,5528,5.9999999999999995e-05,-8e-05,-0.0001,-0.00055,0.00033,0.00013000000000000002,0.0007,-9e-05,2
5307,5529,5.9999999999999995e-05,-8e-05,-0.0001,-0.00055,0.00033,0.00013000000000000002,0.0007,-9e-05,2
5308,5530,5.9999999999999995e-05,-8e-05,-0.0001,-0.00055,0.00033,0.00013000000000000002,0.0007,-9e-05,2
5309,5531,5.9999999999999995e-05,-8e-05,-0.0001,-0.00055,0.00033,0.00013000000000000002,0.0007,-9e-05,2
5310,5532,5.9999999999999995e-05,-8e-05,-0.0001,-0.00055,0.00033,0.00013000000000000002,0.0007,-9e-05,2
5311,5533,5.9999999999999995e-05,-8e-05,-0.0001,-0.00055,0.00033,0.00013000000000000002,0.0007,-9e-05,2
5312,5534,5.9999999999999995e-05,-8e-05,-0.0001,-0.00055,0.00033,0.00013000000000000002,0.0007,-9e-05,2
5313,5535,5.9999999999999995e-05,-8e-05,-0.0001,-0.00055,0.00033,0.00013000000000000002,0.0007,-9e-05,2
5314,5536,5.9999999999999995e-05,-8e-05,-0.0001,-0.00055,0.00033,0.00013000000000000002,0.0007,-9e-05,2
5315,5538,5.9999999999999995e-05,-8e-05,-0.0001,-0.00055,0.00033,0.00013000000000000002,0.0007,-9e-05,2
5316,5539,5.9999999999999995e-05,-8e-05,-0.0001,-0.00055,0.00033,0.00013000000000000002,0.0007,-9e-05,2
5317,5540,5.9999999999999995e-05,-8e-05,-0.0001,-0.00055,0.00033,0.00013000000000000002,0.0007,-9e-05,2
5318,5541,5.9999999999999995e-05,-8e-05,-0.0001,-0.00055,0.00033,0.00013000000000000002,0.0007,-9e-05,2
5319,5542,5.9999999999999995e-05,-8e-05,-0.0001,-0.00055,0.00033,0.00013000000000000002,0.0007,-9e-05,2
5320,5543,5.9999999999999995e-05,-8e-05,-0.0001,-0.00055,0.00033,0.00013000000000000002,0.0007,-9e-05,2
5321,5544,0.00025,-2e-05,-5.9999999999999995e-05,-0.00042,1e-05,9e-05,5e-05,0.00016,2
5322,5545,0.00023999999999999998,0.00021,5.9999999999999995e-05,0.0001,0.00022,2.9999999999999997e-05,-0.00028,-0.00014,2
5323,5546,0.00023999999999999998,0.00021,5.9999999999999995e-05,0.0001,0.00022,2.9999999999999997e-05,-0.00028,-0.00014,2
5324,5547,0.00023999999999999998,0.00021,5.9999999999999995e-05,0.0001,0.00022,2.9999999999999997e-05,-0.00028,-0.00014,2
5325,5548,0.00023999999999999998,0.00021,5.9999999999999995e-05,0.0001,0.00022,2.9999999999999997e-05,-0.00028,-0.00014,2
5326,5549,0.00023999999999999998,0.00021,5.9999999999999995e-05,0.0001,0.00022,2.9999999999999997e-05,-0.00028,-0.00014,2
5327,5550,0.00023999999999999998,0.00021,5.9999999999999995e-05,0.0001,0.00022,2.9999999999999997e-05,-0.00028,-0.00014,2
5328,5551,0.00023999999999999998,0.00021,5.9999999999999995e-05,0.0001,0.00022,2.9999999999999997e-05,-0.00028,-0.00014,2
5329,5552,0.00023999999999999998,0.00021,5.9999999999999995e-05,0.0001,0.00022,2.9999999999999997e-05,-0.00028,-0.00014,2
5330,5553,0.00023999999999999998,0.00021,5.9999999999999995e-05,0.0001,0.00022,2.9999999999999997e-05,-0.00028,-0.00014,2
5331,5554,0.00023999999999999998,0.00021,5.9999999999999995e-05,0.0001,0.00022,2.9999999999999997e-05,-0.00028,-0.00014,2
5332,5555,0.00023999999999999998,0.00021,5.9999999999999995e-05,0.0001,0.00022,2.9999999999999997e-05,-0.00028,-0.00014,2
5333,5556,0.00023999999999999998,0.00021,5.9999999999999995e-05,0.0001,0.00022,2.9999999999999997e-05,-0.00028,-0.00014,2
5334,5557,0.00023999999999999998,0.00021,5.9999999999999995e-05,0.0001,0.00022,2.9999999999999997e-05,-0.00028,-0.00014,2
5335,5558,0.00023999999999999998,0.00021,5.9999999999999995e-05,0.0001,0.00022,2.9999999999999997e-05,-0.00028,-0.00014,2
5336,5559,0.00023999999999999998,0.00021,5.9999999999999995e-05,0.0001,0.00022,2.9999999999999997e-05,-0.00028,-0.00014,2
5337,5560,0.00023999999999999998,0.00021,5.9999999999999995e-05,0.0001,0.00022,2.9999999999999997e-05,-0.00028,-0.00014,2
5338,5561,0.00023999999999999998,0.00021,5.9999999999999995e-05,0.0001,0.00022,2.9999999999999997e-05,-0.00028,-0.00014,2
5339,5562,0.00023999999999999998,0.00021,5.9999999999999995e-05,0.0001,0.00022,2.9999999999999997e-05,-0.00028,-0.00014,2
5340,5563,0.00023999999999999998,0.00021,5.9999999999999995e-05,0.0001,0.00022,2.9999999999999997e-05,-0.00028,-0.00014,2
5341,5564,0.00023999999999999998,0.00021,5.9999999999999995e-05,0.0001,0.00022,2.9999999999999997e-05,-0.00028,-0.00014,2
5342,5565,-7e-05,-2e-05,-0.00013000000000000002,-0.0008699999999999999,-5e-05,-0.00016999999999999999,-4e-05,-2e-05,2
5343,5566,-0.00036,-5.9999999999999995e-05,8e-05,-0.00023999999999999998,2.9999999999999997e-05,0.00011,0.0001,-5.9999999999999995e-05,2
5344,5567,-0.00029,7e-05,0.00013000000000000002,0.00041,-0.00022,-0.00011,-0.00021,9e-05,2
5345,5568,-0.00029,7e-05,0.00013000000000000002,0.00041,-0.00022,-0.00011,-0.00021,9e-05,2
5346,5569,-0.00029,7e-05,0.00013000000000000002,0.00041,-0.00022,-0.00011,-0.00021,9e-05,2
5347,5570,-0.00029,7e-05,0.00013000000000000002,0.00041,-0.00022,-0.00011,-0.00021,9e-05,2
5348,5571,-0.00029,7e-05,0.00013000000000000002,0.00041,-0.00022,-0.00011,-0.00021,9e-05,2
5349,5572,-0.00029,7e-05,0.00013000000000000002,0.00041,-0.00022,-0.00011,-0.00021,9e-05,2
5350,5573,-0.00029,7e-05,0.00013000000000000002,0.00041,-0.00022,-0.00011,-0.00021,9e-05,2
5351,5574,-0.00029,7e-05,0.00013000000000000002,0.00041,-0.00022,-0.00011,-0.00021,9e-05,2
5352,5575,-0.00029,7e-05,0.00013000000000000002,0.00041,-0.00022,-0.00011,-0.00021,9e-05,2
5353,5576,-0.00029,7e-05,0.00013000000000000002,0.00041,-0.00022,-0.00011,-0.00021,9e-05,2
5354,5577,-0.00029,7e-05,0.00013000000000000002,0.00041,-0.00022,-0.00011,-0.00021,9e-05,2
5355,5578,-0.00029,7e-05,0.00013000000000000002,0.00041,-0.00022,-0.00011,-0.00021,9e-05,2
5356,5579,-0.00029,7e-05,0.00013000000000000002,0.00041,-0.00022,-0.00011,-0.00021,9e-05,2
5357,5580,-0.00029,7e-05,0.00013000000000000002,0.00041,-0.00022,-0.00011,-0.00021,9e-05,2
5358,5581,-0.00029,7e-05,0.00013000000000000002,0.00041,-0.00022,-0.00011,-0.00021,9e-05,2
5359,5582,-0.00029,7e-05,0.00013000000000000002,0.00041,-0.00022,-0.00011,-0.00021,9e-05,2
5360,5583,-0.00029,7e-05,0.00013000000000000002,0.00041,-0.00022,-0.00011,-0.00021,9e-05,2
5361,5584,-0.00029,7e-05,0.00013000000000000002,0.00041,-0.00022,-0.00011,-0.00021,9e-05,2
5362,5585,-0.00029,7e-05,0.00013000000000000002,0.00041,-0.00022,-0.00011,-0.00021,9e-05,2
5363,5586,-0.00029,7e-05,0.00013000000000000002,0.00041,-0.00022,-0.00011,-0.00021,9e-05,2
5364,5588,-0.00031,-5e-05,-5e-05,-0.0004,5e-05,0.00015,0.0001,-4e-05,2
5365,5589,0.00057,-7e-05,-2.9999999999999997e-05,-0.00033999999999999997,0.0,-0.00018,-0.00016,-0.00015,2
5366,5590,0.00057,-7e-05,-2.9999999999999997e-05,-0.00033999999999999997,0.0,-0.00018,-0.00016,-0.00015,2
5367,5591,0.00057,-7e-05,-2.9999999999999997e-05,-0.00033999999999999997,0.0,-0.00018,-0.00016,-0.00015,2
5368,5592,0.00057,-7e-05,-2.9999999999999997e-05,-0.00033999999999999997,0.0,-0.00018,-0.00016,-0.00015,2
5369,5593,0.00057,-7e-05,-2.9999999999999997e-05,-0.00033999999999999997,0.0,-0.00018,-0.00016,-0.00015,2
5370,5594,0.00057,-7e-05,-2.9999999999999997e-05,-0.00033999999999999997,0.0,-0.00018,-0.00016,-0.00015,2
5371,5595,0.00057,-7e-05,-2.9999999999999997e-05,-0.00033999999999999997,0.0,-0.00018,-0.00016,-0.00015,2
5372,5596,-0.00011999999999999999,-2.9999999999999997e-05,4e-05,0.00011,-0.00021,-0.00013000000000000002,0.00016,-4e-05,2
5373,5597,-0.00011999999999999999,-2.9999999999999997e-05,4e-05,0.00011,-0.00021,-0.00013000000000000002,0.00016,-4e-05,2
5374,5598,-0.00011999999999999999,-2.9999999999999997e-05,4e-05,0.00011,-0.00021,-0.00013000000000000002,0.00016,-4e-05,2
5375,5599,-0.00011999999999999999,-2.9999999999999997e-05,4e-05,0.00011,-0.00021,-0.00013000000000000002,0.00016,-4e-05,2
5376,5600,-0.00011999999999999999,-2.9999999999999997e-05,4e-05,0.00011,-0.00021,-0.00013000000000000002,0.00016,-4e-05,2
5377,5601,-0.00011999999999999999,-2.9999999999999997e-05,4e-05,0.00011,-0.00021,-0.00013000000000000002,0.00016,-4e-05,2
5378,5602,-0.00011999999999999999,-2.9999999999999997e-05,4e-05,0.00011,-0.00021,-0.00013000000000000002,0.00016,-4e-05,2
5379,5603,-0.00026000000000000003,-4e-05,-0.00029,-0.00056,0.00061,0.0005200000000000001,-0.00037,0.00035,2
5380,5604,5.9999999999999995e-05,5.9999999999999995e-05,0.00023999999999999998,0.0012,0.00016,0.00016,0.00016,0.00022999999999999998,2
5381,5605,5.9999999999999995e-05,5.9999999999999995e-05,0.00023999999999999998,0.0012,0.00016,0.00016,0.00016,0.00022999999999999998,2
5382,5606,5.9999999999999995e-05,5.9999999999999995e-05,0.00023999999999999998,0.0012,0.00016,0.00016,0.00016,0.00022999999999999998,2
5383,5607,5.9999999999999995e-05,5.9999999999999995e-05,0.00023999999999999998,0.0012,0.00016,0.00016,0.00016,0.00022999999999999998,2
5384,5608,5.9999999999999995e-05,5.9999999999999995e-05,0.00023999999999999998,0.0012,0.00016,0.00016,0.00016,0.00022999999999999998,2
5385,5609,5.9999999999999995e-05,5.9999999999999995e-05,0.00023999999999999998,0.0012,0.00016,0.00016,0.00016,0.00022999999999999998,2
5386,5610,5.9999999999999995e-05,5.9999999999999995e-05,0.00023999999999999998,0.0012,0.00016,0.00016,0.00016,0.00022999999999999998,2
5387,5611,5.9999999999999995e-05,5.9999999999999995e-05,0.00023999999999999998,0.0012,0.00016,0.00016,0.00016,0.00022999999999999998,2
5388,5612,5.9999999999999995e-05,5.9999999999999995e-05,0.00023999999999999998,0.0012,0.00016,0.00016,0.00016,0.00022999999999999998,2
5389,5613,5.9999999999999995e-05,5.9999999999999995e-05,0.00023999999999999998,0.0012,0.00016,0.00016,0.00016,0.00022999999999999998,2
5390,5614,5.9999999999999995e-05,5.9999999999999995e-05,0.00023999999999999998,0.0012,0.00016,0.00016,0.00016,0.00022999999999999998,2
5391,5615,5.9999999999999995e-05,5.9999999999999995e-05,0.00023999999999999998,0.0012,0.00016,0.00016,0.00016,0.00022999999999999998,2
5392,5616,5.9999999999999995e-05,5.9999999999999995e-05,0.00023999999999999998,0.0012,0.00016,0.00016,0.00016,0.00022999999999999998,2
5393,5617,5.9999999999999995e-05,5.9999999999999995e-05,0.00023999999999999998,0.0012,0.00016,0.00016,0.00016,0.00022999999999999998,2
5394,5618,5.9999999999999995e-05,5.9999999999999995e-05,0.00023999999999999998,0.0012,0.00016,0.00016,0.00016,0.00022999999999999998,2
5395,5619,5.9999999999999995e-05,5.9999999999999995e-05,0.00023999999999999998,0.0012,0.00016,0.00016,0.00016,0.00022999999999999998,2
5396,5620,5.9999999999999995e-05,5.9999999999999995e-05,0.00023999999999999998,0.0012,0.00016,0.00016,0.00016,0.00022999999999999998,2
5397,5621,5.9999999999999995e-05,5.9999999999999995e-05,0.00023999999999999998,0.0012,0.00016,0.00016,0.00016,0.00022999999999999998,2
5398,5622,5.9999999999999995e-05,5.9999999999999995e-05,0.00023999999999999998,0.0012,0.00016,0.00016,0.00016,0.00022999999999999998,2
5399,5623,5.9999999999999995e-05,5.9999999999999995e-05,0.00023999999999999998,0.0012,0.00016,0.00016,0.00016,0.00022999999999999998,2
5400,5624,5.9999999999999995e-05,5.9999999999999995e-05,0.00023999999999999998,0.0012,0.00016,0.00016,0.00016,0.00022999999999999998,2
5401,5625,-0.00041,-5e-05,5e-05,0.0002,-0.00022,-0.00028,-0.00061,5e-05,2
5402,5626,-0.00041,-5e-05,5e-05,0.0002,-0.00022,-0.00028,-0.00061,5e-05,2
5403,5627,-0.0011,-2e-05,1e-05,5e-05,-0.00016,-0.00037999999999999997,-0.0003,-4e-05,2
5404,5628,-0.0011,-2e-05,1e-05,5e-05,-0.00016,-0.00037999999999999997,-0.0003,-4e-05,2
5405,5629,-0.0011,-2e-05,1e-05,5e-05,-0.00016,-0.00037999999999999997,-0.0003,-4e-05,2
5406,5630,-0.0011,-2e-05,1e-05,5e-05,-0.00016,-0.00037999999999999997,-0.0003,-4e-05,2
5407,5631,-0.0011,-2e-05,1e-05,5e-05,-0.00016,-0.00037999999999999997,-0.0003,-4e-05,2
5408,5632,-0.0011,-2e-05,1e-05,5e-05,-0.00016,-0.00037999999999999997,-0.0003,-4e-05,2
5409,5633,-0.0011,-2e-05,1e-05,5e-05,-0.00016,-0.00037999999999999997,-0.0003,-4e-05,2
5410,5634,-0.0011,-2e-05,1e-05,5e-05,-0.00016,-0.00037999999999999997,-0.0003,-4e-05,2
5411,5635,-0.0011,-2e-05,1e-05,5e-05,-0.00016,-0.00037999999999999997,-0.0003,-4e-05,2
5412,5636,-0.0011,-2e-05,1e-05,5e-05,-0.00016,-0.00037999999999999997,-0.0003,-4e-05,2
5413,5638,-0.0011,-2e-05,1e-05,5e-05,-0.00016,-0.00037999999999999997,-0.0003,-4e-05,2
5414,5639,-0.0011,-2e-05,1e-05,5e-05,-0.00016,-0.00037999999999999997,-0.0003,-4e-05,2
5415,5640,0.0,5.9999999999999995e-05,5e-05,0.00011999999999999999,-2e-05,-4e-05,-0.0001,-7e-05,2
5416,5641,0.0,5.9999999999999995e-05,5e-05,0.00011999999999999999,-2e-05,-4e-05,-0.0001,-7e-05,2
5417,5642,0.0,5.9999999999999995e-05,5e-05,0.00011999999999999999,-2e-05,-4e-05,-0.0001,-7e-05,2
5418,5643,0.0,5.9999999999999995e-05,5e-05,0.00011999999999999999,-2e-05,-4e-05,-0.0001,-7e-05,2
5419,5644,0.0,5.9999999999999995e-05,5e-05,0.00011999999999999999,-2e-05,-4e-05,-0.0001,-7e-05,2
5420,5645,0.0,5.9999999999999995e-05,5e-05,0.00011999999999999999,-2e-05,-4e-05,-0.0001,-7e-05,2
5421,5646,0.0,5.9999999999999995e-05,5e-05,0.00011999999999999999,-2e-05,-4e-05,-0.0001,-7e-05,2
5422,5647,0.0,5.9999999999999995e-05,5e-05,0.00011999999999999999,-2e-05,-4e-05,-0.0001,-7e-05,2
5423,5648,0.0005200000000000001,4e-05,5e-05,-0.00022999999999999998,-1e-05,0.0,0.00021,9e-05,2
5424,5649,0.0005200000000000001,4e-05,5e-05,-0.00022999999999999998,-1e-05,0.0,0.00021,9e-05,2
5425,5650,0.0005200000000000001,4e-05,5e-05,-0.00022999999999999998,-1e-05,0.0,0.00021,9e-05,2
5426,5651,0.0005200000000000001,4e-05,5e-05,-0.00022999999999999998,-1e-05,0.0,0.00021,9e-05,2
5427,5652,0.0005200000000000001,4e-05,5e-05,-0.00022999999999999998,-1e-05,0.0,0.00021,9e-05,2
5428,5653,0.0005200000000000001,4e-05,5e-05,-0.00022999999999999998,-1e-05,0.0,0.00021,9e-05,2
5429,5654,0.0005200000000000001,4e-05,5e-05,-0.00022999999999999998,-1e-05,0.0,0.00021,9e-05,2
5430,5655,0.0005200000000000001,4e-05,5e-05,-0.00022999999999999998,-1e-05,0.0,0.00021,9e-05,2
5431,5656,0.0005200000000000001,4e-05,5e-05,-0.00022999999999999998,-1e-05,0.0,0.00021,9e-05,2
5432,5657,0.0005200000000000001,4e-05,5e-05,-0.00022999999999999998,-1e-05,0.0,0.00021,9e-05,2
5433,5658,0.0005200000000000001,4e-05,5e-05,-0.00022999999999999998,-1e-05,0.0,0.00021,9e-05,2
5434,5659,0.0005200000000000001,4e-05,5e-05,-0.00022999999999999998,-1e-05,0.0,0.00021,9e-05,2
5435,5660,0.0005200000000000001,4e-05,5e-05,-0.00022999999999999998,-1e-05,0.0,0.00021,9e-05,2
5436,5661,0.0005200000000000001,4e-05,5e-05,-0.00022999999999999998,-1e-05,0.0,0.00021,9e-05,2
5437,5662,0.0005200000000000001,4e-05,5e-05,-0.00022999999999999998,-1e-05,0.0,0.00021,9e-05,2
5438,5663,-2.9999999999999997e-05,0.0,-5.9999999999999995e-05,-0.00022,4e-05,5e-05,0.00056,9e-05,2
5439,5664,-0.00025,5.9999999999999995e-05,0.00027,0.00022999999999999998,-0.00049,-0.00023999999999999998,-0.00028,9e-05,2
5440,5665,-0.00025,5.9999999999999995e-05,0.00027,0.00022999999999999998,-0.00049,-0.00023999999999999998,-0.00028,9e-05,2
5441,5666,-0.00025,5.9999999999999995e-05,0.00027,0.00022999999999999998,-0.00049,-0.00023999999999999998,-0.00028,9e-05,2
5442,5667,-0.00025,5.9999999999999995e-05,0.00027,0.00022999999999999998,-0.00049,-0.00023999999999999998,-0.00028,9e-05,2
5443,5668,-0.00025,5.9999999999999995e-05,0.00027,0.00022999999999999998,-0.00049,-0.00023999999999999998,-0.00028,9e-05,2
5444,5669,-0.00025,5.9999999999999995e-05,0.00027,0.00022999999999999998,-0.00049,-0.00023999999999999998,-0.00028,9e-05,2
5445,5670,-0.00025,5.9999999999999995e-05,0.00027,0.00022999999999999998,-0.00049,-0.00023999999999999998,-0.00028,9e-05,2
5446,5671,-0.00025,5.9999999999999995e-05,0.00027,0.00022999999999999998,-0.00049,-0.00023999999999999998,-0.00028,9e-05,2
5447,5672,-0.00025,5.9999999999999995e-05,0.00027,0.00022999999999999998,-0.00049,-0.00023999999999999998,-0.00028,9e-05,2
5448,5673,-0.00025,5.9999999999999995e-05,0.00027,0.00022999999999999998,-0.00049,-0.00023999999999999998,-0.00028,9e-05,2
5449,5674,-0.00025,5.9999999999999995e-05,0.00027,0.00022999999999999998,-0.00049,-0.00023999999999999998,-0.00028,9e-05,2
5450,5675,-0.00025,5.9999999999999995e-05,0.00027,0.00022999999999999998,-0.00049,-0.00023999999999999998,-0.00028,9e-05,2
5451,5676,-0.00025,5.9999999999999995e-05,0.00027,0.00022999999999999998,-0.00049,-0.00023999999999999998,-0.00028,9e-05,2
5452,5677,-0.00025,5.9999999999999995e-05,0.00027,0.00022999999999999998,-0.00049,-0.00023999999999999998,-0.00028,9e-05,2
5453,5678,-0.00025,5.9999999999999995e-05,0.00027,0.00022999999999999998,-0.00049,-0.00023999999999999998,-0.00028,9e-05,2
5454,5679,-0.00025,5.9999999999999995e-05,0.00027,0.00022999999999999998,-0.00049,-0.00023999999999999998,-0.00028,9e-05,2
5455,5680,-0.00025,5.9999999999999995e-05,0.00027,0.00022999999999999998,-0.00049,-0.00023999999999999998,-0.00028,9e-05,2
5456,5681,-0.00025,5.9999999999999995e-05,0.00027,0.00022999999999999998,-0.00049,-0.00023999999999999998,-0.00028,9e-05,2
5457,5682,-0.00025,5.9999999999999995e-05,0.00027,0.00022999999999999998,-0.00049,-0.00023999999999999998,-0.00028,9e-05,2
5458,5683,-0.00025,5.9999999999999995e-05,0.00027,0.00022999999999999998,-0.00049,-0.00023999999999999998,-0.00028,9e-05,2
5459,5684,-0.00025,5.9999999999999995e-05,0.00027,0.00022999999999999998,-0.00049,-0.00023999999999999998,-0.00028,9e-05,2
5460,5685,0.0001,-1e-05,5e-05,0.0008,-0.00011,0.0006799999999999999,0.0008900000000000001,-2e-05,2
5461,5686,0.0001,-1e-05,5e-05,0.0008,-0.00011,0.0006799999999999999,0.0008900000000000001,-2e-05,2
5462,5688,-0.00031,8e-05,0.0001,0.00018999999999999998,-0.00022999999999999998,-8e-05,0.00031,-9e-05,2
5463,5689,-0.00031,8e-05,0.0001,0.00018999999999999998,-0.00022999999999999998,-8e-05,0.00031,-9e-05,2
5464,5690,-0.00031,8e-05,0.0001,0.00018999999999999998,-0.00022999999999999998,-8e-05,0.00031,-9e-05,2
5465,5691,-0.00031,8e-05,0.0001,0.00018999999999999998,-0.00022999999999999998,-8e-05,0.00031,-9e-05,2
5466,5692,-0.00031,8e-05,0.0001,0.00018999999999999998,-0.00022999999999999998,-8e-05,0.00031,-9e-05,2
5467,5693,-0.00031,8e-05,0.0001,0.00018999999999999998,-0.00022999999999999998,-8e-05,0.00031,-9e-05,2
5468,5694,-0.00031,8e-05,0.0001,0.00018999999999999998,-0.00022999999999999998,-8e-05,0.00031,-9e-05,2
5469,5695,-0.00031,8e-05,0.0001,0.00018999999999999998,-0.00022999999999999998,-8e-05,0.00031,-9e-05,2
5470,5696,-0.00031,8e-05,0.0001,0.00018999999999999998,-0.00022999999999999998,-8e-05,0.00031,-9e-05,2
5471,5697,-0.00031,8e-05,0.0001,0.00018999999999999998,-0.00022999999999999998,-8e-05,0.00031,-9e-05,2
5472,5698,-0.00031,8e-05,0.0001,0.00018999999999999998,-0.00022999999999999998,-8e-05,0.00031,-9e-05,2
5473,5699,-0.00031,8e-05,0.0001,0.00018999999999999998,-0.00022999999999999998,-8e-05,0.00031,-9e-05,2
5474,5700,-0.0005,5e-05,9e-05,-0.0002,-8e-05,-0.00015,0.00095,2e-05,2
5475,5702,-0.0005,5e-05,9e-05,-0.0002,-8e-05,-0.00015,0.00095,2e-05,2
5476,5703,-0.0005,5e-05,9e-05,-0.0002,-8e-05,-0.00015,0.00095,2e-05,2
5477,5704,-0.0005,5e-05,9e-05,-0.0002,-8e-05,-0.00015,0.00095,2e-05,2
5478,5705,-0.0005,5e-05,9e-05,-0.0002,-8e-05,-0.00015,0.00095,2e-05,2
5479,5706,-0.0005,5e-05,9e-05,-0.0002,-8e-05,-0.00015,0.00095,2e-05,2
5480,5707,-0.0005,5e-05,9e-05,-0.0002,-8e-05,-0.00015,0.00095,2e-05,2
5481,5708,-0.0005,5e-05,9e-05,-0.0002,-8e-05,-0.00015,0.00095,2e-05,2
5482,5709,-0.0005,5e-05,9e-05,-0.0002,-8e-05,-0.00015,0.00095,2e-05,2
5483,5710,-0.0005,5e-05,9e-05,-0.0002,-8e-05,-0.00015,0.00095,2e-05,2
5484,5711,-0.0005,5e-05,9e-05,-0.0002,-8e-05,-0.00015,0.00095,2e-05,2
5485,5712,-0.0005,5e-05,9e-05,-0.0002,-8e-05,-0.00015,0.00095,2e-05,2
5486,5714,0.00082,-7e-05,-0.00015,-0.00018999999999999998,4e-05,-1e-05,-2e-05,-4e-05,2
5487,5715,0.00082,-7e-05,-0.00015,-0.00018999999999999998,4e-05,-1e-05,-2e-05,-4e-05,2
5488,5716,0.00082,-7e-05,-0.00015,-0.00018999999999999998,4e-05,-1e-05,-2e-05,-4e-05,2
5489,5717,0.00082,-7e-05,-0.00015,-0.00018999999999999998,4e-05,-1e-05,-2e-05,-4e-05,2
5490,5718,0.00082,-7e-05,-0.00015,-0.00018999999999999998,4e-05,-1e-05,-2e-05,-4e-05,2
5491,5719,0.00082,-7e-05,-0.00015,-0.00018999999999999998,4e-05,-1e-05,-2e-05,-4e-05,2
5492,5720,0.00082,-7e-05,-0.00015,-0.00018999999999999998,4e-05,-1e-05,-2e-05,-4e-05,2
5493,5721,0.00082,-7e-05,-0.00015,-0.00018999999999999998,4e-05,-1e-05,-2e-05,-4e-05,2
5494,5722,0.00082,-7e-05,-0.00015,-0.00018999999999999998,4e-05,-1e-05,-2e-05,-4e-05,2
5495,5723,0.00123,-2e-05,-7e-05,0.00026000000000000003,2.9999999999999997e-05,-0.00016,0.00022999999999999998,0.00018,2
5496,5724,-0.00044,0.0001,0.00015,0.00035,0.00011,0.00027,-0.0005200000000000001,-2e-05,2
5497,5725,-0.00056,-2e-05,-0.0002,-0.0007,7e-05,-0.00018,0.00013000000000000002,-0.0003,2
5498,5726,-0.00056,-2e-05,-0.0002,-0.0007,7e-05,-0.00018,0.00013000000000000002,-0.0003,2
5499,5727,-0.00056,-2e-05,-0.0002,-0.0007,7e-05,-0.00018,0.00013000000000000002,-0.0003,2
5500,5728,-0.00056,-2e-05,-0.0002,-0.0007,7e-05,-0.00018,0.00013000000000000002,-0.0003,2
5501,5729,-0.00056,-2e-05,-0.0002,-0.0007,7e-05,-0.00018,0.00013000000000000002,-0.0003,2
5502,5730,-0.00056,-2e-05,-0.0002,-0.0007,7e-05,-0.00018,0.00013000000000000002,-0.0003,2
5503,5731,-0.00056,-2e-05,-0.0002,-0.0007,7e-05,-0.00018,0.00013000000000000002,-0.0003,2
5504,5732,-0.00056,-2e-05,-0.0002,-0.0007,7e-05,-0.00018,0.00013000000000000002,-0.0003,2
5505,5733,-0.00056,-2e-05,-0.0002,-0.0007,7e-05,-0.00018,0.00013000000000000002,-0.0003,2
5506,5734,-0.00056,-2e-05,-0.0002,-0.0007,7e-05,-0.00018,0.00013000000000000002,-0.0003,2
5507,5735,-0.00056,-2e-05,-0.0002,-0.0007,7e-05,-0.00018,0.00013000000000000002,-0.0003,2
5508,5736,-0.00056,-2e-05,-0.0002,-0.0007,7e-05,-0.00018,0.00013000000000000002,-0.0003,2
5509,5738,-0.00056,-2e-05,-0.0002,-0.0007,7e-05,-0.00018,0.00013000000000000002,-0.0003,2
5510,5739,-0.00056,-2e-05,-0.0002,-0.0007,7e-05,-0.00018,0.00013000000000000002,-0.0003,2
5511,5740,-0.00056,-2e-05,-0.0002,-0.0007,7e-05,-0.00018,0.00013000000000000002,-0.0003,2
5512,5741,-0.00056,-2e-05,-0.0002,-0.0007,7e-05,-0.00018,0.00013000000000000002,-0.0003,2
5513,5742,-0.00056,-2e-05,-0.0002,-0.0007,7e-05,-0.00018,0.00013000000000000002,-0.0003,2
5514,5743,-0.00056,-2e-05,-0.0002,-0.0007,7e-05,-0.00018,0.00013000000000000002,-0.0003,2
5515,5744,-0.00056,-2e-05,-0.0002,-0.0007,7e-05,-0.00018,0.00013000000000000002,-0.0003,2
5516,5745,0.0008,-2.9999999999999997e-05,-2e-05,-0.00022,-0.00023999999999999998,-0.00029,-0.0007599999999999999,0.00014,2
5517,5746,-0.00105,4e-05,0.00016,0.00037999999999999997,-0.00036,-0.00032,-0.00036,0.0,2
5518,5747,1e-05,-1e-05,5e-05,0.00067,-4e-05,0.00022999999999999998,-8e-05,-2.9999999999999997e-05,2
5519,5748,1e-05,-1e-05,5e-05,0.00067,-4e-05,0.00022999999999999998,-8e-05,-2.9999999999999997e-05,2
5520,5749,1e-05,-1e-05,5e-05,0.00067,-4e-05,0.00022999999999999998,-8e-05,-2.9999999999999997e-05,2
5521,5750,1e-05,-1e-05,5e-05,0.00067,-4e-05,0.00022999999999999998,-8e-05,-2.9999999999999997e-05,2
5522,5751,1e-05,-1e-05,5e-05,0.00067,-4e-05,0.00022999999999999998,-8e-05,-2.9999999999999997e-05,2
5523,5752,1e-05,-1e-05,5e-05,0.00067,-4e-05,0.00022999999999999998,-8e-05,-2.9999999999999997e-05,2
5524,5753,1e-05,-1e-05,5e-05,0.00067,-4e-05,0.00022999999999999998,-8e-05,-2.9999999999999997e-05,2
5525,5754,1e-05,-1e-05,5e-05,0.00067,-4e-05,0.00022999999999999998,-8e-05,-2.9999999999999997e-05,2
5526,5755,1e-05,-1e-05,5e-05,0.00067,-4e-05,0.00022999999999999998,-8e-05,-2.9999999999999997e-05,2
5527,5756,1e-05,-1e-05,5e-05,0.00067,-4e-05,0.00022999999999999998,-8e-05,-2.9999999999999997e-05,2
5528,5757,1e-05,-1e-05,5e-05,0.00067,-4e-05,0.00022999999999999998,-8e-05,-2.9999999999999997e-05,2
5529,5758,1e-05,-1e-05,5e-05,0.00067,-4e-05,0.00022999999999999998,-8e-05,-2.9999999999999997e-05,2
5530,5759,-0.00011,-2e-05,4e-05,2e-05,-0.00029,2.9999999999999997e-05,0.00018,-2e-05,2
5531,5760,-0.00011,-2e-05,4e-05,2e-05,-0.00029,2.9999999999999997e-05,0.00018,-2e-05,2
5532,5761,-0.00011,-2e-05,4e-05,2e-05,-0.00029,2.9999999999999997e-05,0.00018,-2e-05,2
5533,5762,-0.00011,-2e-05,4e-05,2e-05,-0.00029,2.9999999999999997e-05,0.00018,-2e-05,2
5534,5763,-0.00011,-2e-05,4e-05,2e-05,-0.00029,2.9999999999999997e-05,0.00018,-2e-05,2
5535,5764,-0.00011,-2e-05,4e-05,2e-05,-0.00029,2.9999999999999997e-05,0.00018,-2e-05,2
5536,5765,-0.00011,-2e-05,4e-05,2e-05,-0.00029,2.9999999999999997e-05,0.00018,-2e-05,2
5537,5766,-0.00011,-2e-05,4e-05,2e-05,-0.00029,2.9999999999999997e-05,0.00018,-2e-05,2
5538,5767,-0.00011,-2e-05,4e-05,2e-05,-0.00029,2.9999999999999997e-05,0.00018,-2e-05,2
5539,5768,-0.00022999999999999998,-0.00015,-0.00041,-0.00085,0.00041,5e-05,-0.00037,-0.00043,2
5540,5769,-0.00022999999999999998,-0.00015,-0.00041,-0.00085,0.00041,5e-05,-0.00037,-0.00043,2
5541,5770,-0.00022999999999999998,-0.00015,-0.00041,-0.00085,0.00041,5e-05,-0.00037,-0.00043,2
5542,5771,-0.00022999999999999998,-0.00015,-0.00041,-0.00085,0.00041,5e-05,-0.00037,-0.00043,2
5543,5772,-0.00022999999999999998,-0.00015,-0.00041,-0.00085,0.00041,5e-05,-0.00037,-0.00043,2
5544,5773,-0.00022999999999999998,-0.00015,-0.00041,-0.00085,0.00041,5e-05,-0.00037,-0.00043,2
5545,5774,-0.00022999999999999998,-0.00015,-0.00041,-0.00085,0.00041,5e-05,-0.00037,-0.00043,2
5546,5775,-0.00022999999999999998,-0.00015,-0.00041,-0.00085,0.00041,5e-05,-0.00037,-0.00043,2
5547,5776,-0.00022999999999999998,-0.00015,-0.00041,-0.00085,0.00041,5e-05,-0.00037,-0.00043,2
5548,5777,-0.00022999999999999998,-0.00015,-0.00041,-0.00085,0.00041,5e-05,-0.00037,-0.00043,2
5549,5778,-0.00022999999999999998,-0.00015,-0.00041,-0.00085,0.00041,5e-05,-0.00037,-0.00043,2
5550,5779,-0.00022999999999999998,-0.00015,-0.00041,-0.00085,0.00041,5e-05,-0.00037,-0.00043,2
5551,5780,-0.00022999999999999998,-0.00015,-0.00041,-0.00085,0.00041,5e-05,-0.00037,-0.00043,2
5552,5781,-0.00022999999999999998,-0.00015,-0.00041,-0.00085,0.00041,5e-05,-0.00037,-0.00043,2
5553,5782,-0.00022999999999999998,-0.00015,-0.00041,-0.00085,0.00041,5e-05,-0.00037,-0.00043,2
5554,5783,-0.00028,2e-05,1e-05,0.00016999999999999999,0.0,-0.00018999999999999998,-0.00054,-4e-05,2
5555,5784,-0.00018,-2.9999999999999997e-05,-8e-05,-0.00042,-5e-05,2e-05,0.00039,-0.00016,2
5556,5785,0.0007099999999999999,2.9999999999999997e-05,-2.9999999999999997e-05,0.00016,5e-05,-4e-05,-0.00033,0.0002,2
5557,5786,0.0007099999999999999,2.9999999999999997e-05,-2.9999999999999997e-05,0.00016,5e-05,-4e-05,-0.00033,0.0002,2
5558,5788,0.0007099999999999999,2.9999999999999997e-05,-2.9999999999999997e-05,0.00016,5e-05,-4e-05,-0.00033,0.0002,2
5559,5789,0.0007099999999999999,2.9999999999999997e-05,-2.9999999999999997e-05,0.00016,5e-05,-4e-05,-0.00033,0.0002,2
5560,5790,0.0007099999999999999,2.9999999999999997e-05,-2.9999999999999997e-05,0.00016,5e-05,-4e-05,-0.00033,0.0002,2
5561,5791,0.0007099999999999999,2.9999999999999997e-05,-2.9999999999999997e-05,0.00016,5e-05,-4e-05,-0.00033,0.0002,2
5562,5792,0.0007099999999999999,2.9999999999999997e-05,-2.9999999999999997e-05,0.00016,5e-05,-4e-05,-0.00033,0.0002,2
5563,5793,0.0007099999999999999,2.9999999999999997e-05,-2.9999999999999997e-05,0.00016,5e-05,-4e-05,-0.00033,0.0002,2
5564,5794,0.0007099999999999999,2.9999999999999997e-05,-2.9999999999999997e-05,0.00016,5e-05,-4e-05,-0.00033,0.0002,2
5565,5795,0.0007099999999999999,2.9999999999999997e-05,-2.9999999999999997e-05,0.00016,5e-05,-4e-05,-0.00033,0.0002,2
5566,5796,0.0007099999999999999,2.9999999999999997e-05,-2.9999999999999997e-05,0.00016,5e-05,-4e-05,-0.00033,0.0002,2
5567,5797,0.0007099999999999999,2.9999999999999997e-05,-2.9999999999999997e-05,0.00016,5e-05,-4e-05,-0.00033,0.0002,2
5568,5798,0.0007099999999999999,2.9999999999999997e-05,-2.9999999999999997e-05,0.00016,5e-05,-4e-05,-0.00033,0.0002,2
5569,5799,0.0007099999999999999,2.9999999999999997e-05,-2.9999999999999997e-05,0.00016,5e-05,-4e-05,-0.00033,0.0002,2
5570,5800,0.0007099999999999999,2.9999999999999997e-05,-2.9999999999999997e-05,0.00016,5e-05,-4e-05,-0.00033,0.0002,2
5571,5801,0.0007099999999999999,2.9999999999999997e-05,-2.9999999999999997e-05,0.00016,5e-05,-4e-05,-0.00033,0.0002,2
5572,5802,0.0007099999999999999,2.9999999999999997e-05,-2.9999999999999997e-05,0.00016,5e-05,-4e-05,-0.00033,0.0002,2
5573,5803,0.0007099999999999999,2.9999999999999997e-05,-2.9999999999999997e-05,0.00016,5e-05,-4e-05,-0.00033,0.0002,2
5574,5804,0.0007099999999999999,2.9999999999999997e-05,-2.9999999999999997e-05,0.00016,5e-05,-4e-05,-0.00033,0.0002,2
5575,5805,0.00014,-0.00011999999999999999,-0.00016999999999999999,-0.0005200000000000001,0.00018999999999999998,0.0009400000000000001,0.00027,-8e-05,2
5576,5806,0.0,2e-05,-2e-05,0.0,-0.00022,-0.00039,0.0,0.00021,2
5577,5807,0.00045999999999999996,-9e-05,5e-05,0.0009,0.00011999999999999999,-5.9999999999999995e-05,0.00022,0.00013000000000000002,2
5578,5808,0.00045999999999999996,-9e-05,5e-05,0.0009,0.00011999999999999999,-5.9999999999999995e-05,0.00022,0.00013000000000000002,2
5579,5809,0.00045999999999999996,-9e-05,5e-05,0.0009,0.00011999999999999999,-5.9999999999999995e-05,0.00022,0.00013000000000000002,2
5580,5810,0.00045999999999999996,-9e-05,5e-05,0.0009,0.00011999999999999999,-5.9999999999999995e-05,0.00022,0.00013000000000000002,2
5581,5811,0.00045999999999999996,-9e-05,5e-05,0.0009,0.00011999999999999999,-5.9999999999999995e-05,0.00022,0.00013000000000000002,2
5582,5812,0.00045999999999999996,-9e-05,5e-05,0.0009,0.00011999999999999999,-5.9999999999999995e-05,0.00022,0.00013000000000000002,2
5583,5813,0.00045999999999999996,-9e-05,5e-05,0.0009,0.00011999999999999999,-5.9999999999999995e-05,0.00022,0.00013000000000000002,2
5584,5814,0.00045999999999999996,-9e-05,5e-05,0.0009,0.00011999999999999999,-5.9999999999999995e-05,0.00022,0.00013000000000000002,2
5585,5815,0.00045999999999999996,-9e-05,5e-05,0.0009,0.00011999999999999999,-5.9999999999999995e-05,0.00022,0.00013000000000000002,2
5586,5816,0.00045999999999999996,-9e-05,5e-05,0.0009,0.00011999999999999999,-5.9999999999999995e-05,0.00022,0.00013000000000000002,2
5587,5817,0.00045999999999999996,-9e-05,5e-05,0.0009,0.00011999999999999999,-5.9999999999999995e-05,0.00022,0.00013000000000000002,2
5588,5818,0.00045999999999999996,-9e-05,5e-05,0.0009,0.00011999999999999999,-5.9999999999999995e-05,0.00022,0.00013000000000000002,2
5589,5819,-9e-05,0.00011,0.00013000000000000002,0.00073,-0.00011999999999999999,-0.00035,-0.0009,-0.00018999999999999998,2
5590,5820,-9e-05,0.00011,0.00013000000000000002,0.00073,-0.00011999999999999999,-0.00035,-0.0009,-0.00018999999999999998,2
5591,5821,-9e-05,0.00011,0.00013000000000000002,0.00073,-0.00011999999999999999,-0.00035,-0.0009,-0.00018999999999999998,2
5592,5822,-9e-05,0.00011,0.00013000000000000002,0.00073,-0.00011999999999999999,-0.00035,-0.0009,-0.00018999999999999998,2
5593,5823,-9e-05,0.00011,0.00013000000000000002,0.00073,-0.00011999999999999999,-0.00035,-0.0009,-0.00018999999999999998,2
5594,5824,-9e-05,0.00011,0.00013000000000000002,0.00073,-0.00011999999999999999,-0.00035,-0.0009,-0.00018999999999999998,2
5595,5825,-9e-05,0.00011,0.00013000000000000002,0.00073,-0.00011999999999999999,-0.00035,-0.0009,-0.00018999999999999998,2
5596,5826,-9e-05,0.00011,0.00013000000000000002,0.00073,-0.00011999999999999999,-0.00035,-0.0009,-0.00018999999999999998,2
5597,5827,-9e-05,0.00011,0.00013000000000000002,0.00073,-0.00011999999999999999,-0.00035,-0.0009,-0.00018999999999999998,2
5598,5828,-0.00022999999999999998,-7e-05,-0.00011999999999999999,-0.00018,-0.00022999999999999998,0.00027,-0.00037999999999999997,0.00013000000000000002,2
5599,5830,-0.00022999999999999998,-7e-05,-0.00011999999999999999,-0.00018,-0.00022999999999999998,0.00027,-0.00037999999999999997,0.00013000000000000002,2
5600,5831,-0.00022999999999999998,-7e-05,-0.00011999999999999999,-0.00018,-0.00022999999999999998,0.00027,-0.00037999999999999997,0.00013000000000000002,2
5601,5832,-0.00022999999999999998,-7e-05,-0.00011999999999999999,-0.00018,-0.00022999999999999998,0.00027,-0.00037999999999999997,0.00013000000000000002,2
5602,5833,-0.00022999999999999998,-7e-05,-0.00011999999999999999,-0.00018,-0.00022999999999999998,0.00027,-0.00037999999999999997,0.00013000000000000002,2
5603,5834,-0.00022999999999999998,-7e-05,-0.00011999999999999999,-0.00018,-0.00022999999999999998,0.00027,-0.00037999999999999997,0.00013000000000000002,2
5604,5835,-0.00022999999999999998,-7e-05,-0.00011999999999999999,-0.00018,-0.00022999999999999998,0.00027,-0.00037999999999999997,0.00013000000000000002,2
5605,5836,-0.00022999999999999998,-7e-05,-0.00011999999999999999,-0.00018,-0.00022999999999999998,0.00027,-0.00037999999999999997,0.00013000000000000002,2
5606,5838,-0.00022999999999999998,-7e-05,-0.00011999999999999999,-0.00018,-0.00022999999999999998,0.00027,-0.00037999999999999997,0.00013000000000000002,2
5607,5839,-0.00022999999999999998,-7e-05,-0.00011999999999999999,-0.00018,-0.00022999999999999998,0.00027,-0.00037999999999999997,0.00013000000000000002,2
5608,5840,-0.00022999999999999998,-7e-05,-0.00011999999999999999,-0.00018,-0.00022999999999999998,0.00027,-0.00037999999999999997,0.00013000000000000002,2
5609,5841,-0.00022999999999999998,-7e-05,-0.00011999999999999999,-0.00018,-0.00022999999999999998,0.00027,-0.00037999999999999997,0.00013000000000000002,2
5610,5842,-0.00022999999999999998,-7e-05,-0.00011999999999999999,-0.00018,-0.00022999999999999998,0.00027,-0.00037999999999999997,0.00013000000000000002,2
5611,5843,-0.00075,-0.00016,-0.00022999999999999998,-0.00027,0.00011,-0.00016999999999999999,4e-05,-8e-05,2
5612,5844,-0.00075,-0.00016,-0.00022999999999999998,-0.00027,0.00011,-0.00016999999999999999,4e-05,-8e-05,2
5613,5845,-1e-05,5.9999999999999995e-05,0.00014,0.00018999999999999998,-0.00011,0.00063,-0.00044,-1e-05,2
5614,5846,-1e-05,5.9999999999999995e-05,0.00014,0.00018999999999999998,-0.00011,0.00063,-0.00044,-1e-05,2
5615,5847,-1e-05,5.9999999999999995e-05,0.00014,0.00018999999999999998,-0.00011,0.00063,-0.00044,-1e-05,2
5616,5848,-1e-05,5.9999999999999995e-05,0.00014,0.00018999999999999998,-0.00011,0.00063,-0.00044,-1e-05,2
5617,5849,-1e-05,5.9999999999999995e-05,0.00014,0.00018999999999999998,-0.00011,0.00063,-0.00044,-1e-05,2
5618,5850,-1e-05,5.9999999999999995e-05,0.00014,0.00018999999999999998,-0.00011,0.00063,-0.00044,-1e-05,2
5619,5851,-1e-05,5.9999999999999995e-05,0.00014,0.00018999999999999998,-0.00011,0.00063,-0.00044,-1e-05,2
5620,5852,-1e-05,5.9999999999999995e-05,0.00014,0.00018999999999999998,-0.00011,0.00063,-0.00044,-1e-05,2
5621,5853,-1e-05,5.9999999999999995e-05,0.00014,0.00018999999999999998,-0.00011,0.00063,-0.00044,-1e-05,2
5622,5854,-1e-05,5.9999999999999995e-05,0.00014,0.00018999999999999998,-0.00011,0.00063,-0.00044,-1e-05,2
5623,5855,-1e-05,5.9999999999999995e-05,0.00014,0.00018999999999999998,-0.00011,0.00063,-0.00044,-1e-05,2
5624,5856,-1e-05,5.9999999999999995e-05,0.00014,0.00018999999999999998,-0.00011,0.00063,-0.00044,-1e-05,2
5625,5857,-1e-05,5.9999999999999995e-05,0.00014,0.00018999999999999998,-0.00011,0.00063,-0.00044,-1e-05,2
5626,5858,-1e-05,5.9999999999999995e-05,0.00014,0.00018999999999999998,-0.00011,0.00063,-0.00044,-1e-05,2
5627,5859,-1e-05,5.9999999999999995e-05,0.00014,0.00018999999999999998,-0.00011,0.00063,-0.00044,-1e-05,2
5628,5860,-1e-05,5.9999999999999995e-05,0.00014,0.00018999999999999998,-0.00011,0.00063,-0.00044,-1e-05,2
5629,5861,-1e-05,5.9999999999999995e-05,0.00014,0.00018999999999999998,-0.00011,0.00063,-0.00044,-1e-05,2
5630,5862,-1e-05,5.9999999999999995e-05,0.00014,0.00018999999999999998,-0.00011,0.00063,-0.00044,-1e-05,2
5631,5863,-1e-05,5.9999999999999995e-05,0.00014,0.00018999999999999998,-0.00011,0.00063,-0.00044,-1e-05,2
5632,5864,-1e-05,5.9999999999999995e-05,0.00014,0.00018999999999999998,-0.00011,0.00063,-0.00044,-1e-05,2
5633,5865,0.00022,4e-05,5e-05,0.00047000000000000004,2.9999999999999997e-05,-0.00022,-0.00018,5.9999999999999995e-05,2
5634,5866,0.00022,4e-05,5e-05,0.00047000000000000004,2.9999999999999997e-05,-0.00022,-0.00018,5.9999999999999995e-05,2
5635,5867,-0.00029,-1e-05,-0.00018,-0.0005,0.00021,-5e-05,0.00065,0.00011,2
5636,5868,-0.00029,-1e-05,-0.00018,-0.0005,0.00021,-5e-05,0.00065,0.00011,2
5637,5869,-0.00029,-1e-05,-0.00018,-0.0005,0.00021,-5e-05,0.00065,0.00011,2
5638,5870,-0.00029,-1e-05,-0.00018,-0.0005,0.00021,-5e-05,0.00065,0.00011,2
5639,5871,-0.00029,-1e-05,-0.00018,-0.0005,0.00021,-5e-05,0.00065,0.00011,2
5640,5872,-0.00029,-1e-05,-0.00018,-0.0005,0.00021,-5e-05,0.00065,0.00011,2
5641,5873,-0.00029,-1e-05,-0.00018,-0.0005,0.00021,-5e-05,0.00065,0.00011,2
5642,5874,-0.00029,-1e-05,-0.00018,-0.0005,0.00021,-5e-05,0.00065,0.00011,2
5643,5875,-0.00029,-1e-05,-0.00018,-0.0005,0.00021,-5e-05,0.00065,0.00011,2
5644,5876,-0.00029,-1e-05,-0.00018,-0.0005,0.00021,-5e-05,0.00065,0.00011,2
5645,5877,-0.00029,-1e-05,-0.00018,-0.0005,0.00021,-5e-05,0.00065,0.00011,2
5646,5878,-0.00029,-1e-05,-0.00018,-0.0005,0.00021,-5e-05,0.00065,0.00011,2
5647,5879,0.0005200000000000001,0.00015,0.00013000000000000002,0.00098,0.00011999999999999999,0.0005099999999999999,0.00044,0.00031,2
5648,5880,0.0005200000000000001,0.00015,0.00013000000000000002,0.00098,0.00011999999999999999,0.0005099999999999999,0.00044,0.00031,2
5649,5881,0.0005200000000000001,0.00015,0.00013000000000000002,0.00098,0.00011999999999999999,0.0005099999999999999,0.00044,0.00031,2
5650,5882,0.0005200000000000001,0.00015,0.00013000000000000002,0.00098,0.00011999999999999999,0.0005099999999999999,0.00044,0.00031,2
5651,5883,0.0005200000000000001,0.00015,0.00013000000000000002,0.00098,0.00011999999999999999,0.0005099999999999999,0.00044,0.00031,2
5652,5884,0.0005200000000000001,0.00015,0.00013000000000000002,0.00098,0.00011999999999999999,0.0005099999999999999,0.00044,0.00031,2
5653,5885,0.0005200000000000001,0.00015,0.00013000000000000002,0.00098,0.00011999999999999999,0.0005099999999999999,0.00044,0.00031,2
5654,5886,0.0005200000000000001,0.00015,0.00013000000000000002,0.00098,0.00011999999999999999,0.0005099999999999999,0.00044,0.00031,2
5655,5889,0.00081,4e-05,0.00011,0.0002,-9e-05,-4e-05,-8e-05,0.00011,2
5656,5890,0.00081,4e-05,0.00011,0.0002,-9e-05,-4e-05,-8e-05,0.00011,2
5657,5891,0.00081,4e-05,0.00011,0.0002,-9e-05,-4e-05,-8e-05,0.00011,2
5658,5892,0.00081,4e-05,0.00011,0.0002,-9e-05,-4e-05,-8e-05,0.00011,2
5659,5893,0.00081,4e-05,0.00011,0.0002,-9e-05,-4e-05,-8e-05,0.00011,2
5660,5894,0.00081,4e-05,0.00011,0.0002,-9e-05,-4e-05,-8e-05,0.00011,2
5661,5895,0.00081,4e-05,0.00011,0.0002,-9e-05,-4e-05,-8e-05,0.00011,2
5662,5896,0.00081,4e-05,0.00011,0.0002,-9e-05,-4e-05,-8e-05,0.00011,2
5663,5897,0.00081,4e-05,0.00011,0.0002,-9e-05,-4e-05,-8e-05,0.00011,2
5664,5898,0.00081,4e-05,0.00011,0.0002,-9e-05,-4e-05,-8e-05,0.00011,2
5665,5899,0.00081,4e-05,0.00011,0.0002,-9e-05,-4e-05,-8e-05,0.00011,2
5666,5900,0.00081,4e-05,0.00011,0.0002,-9e-05,-4e-05,-8e-05,0.00011,2
5667,5901,0.00081,4e-05,0.00011,0.0002,-9e-05,-4e-05,-8e-05,0.00011,2
5668,5902,0.00081,4e-05,0.00011,0.0002,-9e-05,-4e-05,-8e-05,0.00011,2
5669,5903,0.00033999999999999997,-4e-05,-0.00014,-0.0005200000000000001,-7e-05,-0.00055,-2e-05,-0.00033,2
5670,5904,-0.00039,9e-05,4e-05,7e-05,-5.9999999999999995e-05,0.00026000000000000003,-8e-05,-0.00018,2
5671,5905,-0.00039,9e-05,4e-05,7e-05,-5.9999999999999995e-05,0.00026000000000000003,-8e-05,-0.00018,2
5672,5906,-0.00039,9e-05,4e-05,7e-05,-5.9999999999999995e-05,0.00026000000000000003,-8e-05,-0.00018,2
5673,5907,-0.00039,9e-05,4e-05,7e-05,-5.9999999999999995e-05,0.00026000000000000003,-8e-05,-0.00018,2
5674,5908,-0.00039,9e-05,4e-05,7e-05,-5.9999999999999995e-05,0.00026000000000000003,-8e-05,-0.00018,2
5675,5909,-0.00039,9e-05,4e-05,7e-05,-5.9999999999999995e-05,0.00026000000000000003,-8e-05,-0.00018,2
5676,5910,-0.00039,9e-05,4e-05,7e-05,-5.9999999999999995e-05,0.00026000000000000003,-8e-05,-0.00018,2
5677,5911,-0.00039,9e-05,4e-05,7e-05,-5.9999999999999995e-05,0.00026000000000000003,-8e-05,-0.00018,2
5678,5912,-0.00039,9e-05,4e-05,7e-05,-5.9999999999999995e-05,0.00026000000000000003,-8e-05,-0.00018,2
5679,5913,-0.00039,9e-05,4e-05,7e-05,-5.9999999999999995e-05,0.00026000000000000003,-8e-05,-0.00018,2
5680,5914,-0.00039,9e-05,4e-05,7e-05,-5.9999999999999995e-05,0.00026000000000000003,-8e-05,-0.00018,2
5681,5915,-0.00039,9e-05,4e-05,7e-05,-5.9999999999999995e-05,0.00026000000000000003,-8e-05,-0.00018,2
5682,5916,-0.00039,9e-05,4e-05,7e-05,-5.9999999999999995e-05,0.00026000000000000003,-8e-05,-0.00018,2
5683,5917,-0.00039,9e-05,4e-05,7e-05,-5.9999999999999995e-05,0.00026000000000000003,-8e-05,-0.00018,2
5684,5918,-0.00039,9e-05,4e-05,7e-05,-5.9999999999999995e-05,0.00026000000000000003,-8e-05,-0.00018,2
5685,5919,-0.00039,9e-05,4e-05,7e-05,-5.9999999999999995e-05,0.00026000000000000003,-8e-05,-0.00018,2
5686,5920,-0.00039,9e-05,4e-05,7e-05,-5.9999999999999995e-05,0.00026000000000000003,-8e-05,-0.00018,2
5687,5921,-0.00039,9e-05,4e-05,7e-05,-5.9999999999999995e-05,0.00026000000000000003,-8e-05,-0.00018,2
5688,5922,-0.00039,9e-05,4e-05,7e-05,-5.9999999999999995e-05,0.00026000000000000003,-8e-05,-0.00018,2
5689,5923,-0.00039,9e-05,4e-05,7e-05,-5.9999999999999995e-05,0.00026000000000000003,-8e-05,-0.00018,2
5690,5924,-0.00039,9e-05,4e-05,7e-05,-5.9999999999999995e-05,0.00026000000000000003,-8e-05,-0.00018,2
5691,5925,0.00011999999999999999,-4e-05,7e-05,-0.00033999999999999997,-0.0001,-0.00027,-1e-05,0.00025,2
5692,5926,0.00011999999999999999,-4e-05,7e-05,-0.00033999999999999997,-0.0001,-0.00027,-1e-05,0.00025,2
5693,5927,-0.00014,-1e-05,7e-05,-7e-05,-7e-05,-0.00074,-0.0002,0.0,2
5694,5928,-0.00014,-1e-05,7e-05,-7e-05,-7e-05,-0.00074,-0.0002,0.0,2
5695,5929,-0.00014,-1e-05,7e-05,-7e-05,-7e-05,-0.00074,-0.0002,0.0,2
5696,5930,-0.00014,-1e-05,7e-05,-7e-05,-7e-05,-0.00074,-0.0002,0.0,2
5697,5931,-0.00014,-1e-05,7e-05,-7e-05,-7e-05,-0.00074,-0.0002,0.0,2
5698,5932,-0.00014,-1e-05,7e-05,-7e-05,-7e-05,-0.00074,-0.0002,0.0,2
5699,5933,-0.00014,-1e-05,7e-05,-7e-05,-7e-05,-0.00074,-0.0002,0.0,2
5700,5934,-0.00014,-1e-05,7e-05,-7e-05,-7e-05,-0.00074,-0.0002,0.0,2
5701,5935,-0.00014,-1e-05,7e-05,-7e-05,-7e-05,-0.00074,-0.0002,0.0,2
5702,5936,-0.00014,-1e-05,7e-05,-7e-05,-7e-05,-0.00074,-0.0002,0.0,2
5703,5938,-0.00014,-1e-05,7e-05,-7e-05,-7e-05,-0.00074,-0.0002,0.0,2
5704,5939,-0.00014,-1e-05,7e-05,-7e-05,-7e-05,-0.00074,-0.0002,0.0,2
5705,5940,-0.00014,-1e-05,7e-05,-7e-05,-7e-05,-0.00074,-0.0002,0.0,2
5706,5941,-0.00014,-1e-05,7e-05,-7e-05,-7e-05,-0.00074,-0.0002,0.0,2
5707,5942,-0.00014,-1e-05,7e-05,-7e-05,-7e-05,-0.00074,-0.0002,0.0,2
5708,5943,-0.00014,-1e-05,7e-05,-7e-05,-7e-05,-0.00074,-0.0002,0.0,2
5709,5944,-0.00014,-1e-05,7e-05,-7e-05,-7e-05,-0.00074,-0.0002,0.0,2
5710,5945,-0.00014,-1e-05,7e-05,-7e-05,-7e-05,-0.00074,-0.0002,0.0,2
5711,5946,-0.00014,-1e-05,7e-05,-7e-05,-7e-05,-0.00074,-0.0002,0.0,2
5712,5947,-0.00014,-1e-05,7e-05,-7e-05,-7e-05,-0.00074,-0.0002,0.0,2
5713,5948,-0.00072,0.0,-1e-05,-0.00011999999999999999,-7e-05,-8e-05,0.00018999999999999998,-4e-05,2
5714,5949,-0.00066,-0.00014,-5.9999999999999995e-05,-0.00016,0.0,-0.00022,0.00033,0.00018,2
5715,5950,-0.00066,-0.00014,-5.9999999999999995e-05,-0.00016,0.0,-0.00022,0.00033,0.00018,2
5716,5951,-0.00066,-0.00014,-5.9999999999999995e-05,-0.00016,0.0,-0.00022,0.00033,0.00018,2
5717,5952,-0.00066,-0.00014,-5.9999999999999995e-05,-0.00016,0.0,-0.00022,0.00033,0.00018,2
5718,5953,-0.00066,-0.00014,-5.9999999999999995e-05,-0.00016,0.0,-0.00022,0.00033,0.00018,2
5719,5954,-0.00066,-0.00014,-5.9999999999999995e-05,-0.00016,0.0,-0.00022,0.00033,0.00018,2
5720,5955,-0.00066,-0.00014,-5.9999999999999995e-05,-0.00016,0.0,-0.00022,0.00033,0.00018,2
5721,5956,-0.00066,-0.00014,-5.9999999999999995e-05,-0.00016,0.0,-0.00022,0.00033,0.00018,2
5722,5957,-0.00066,-0.00014,-5.9999999999999995e-05,-0.00016,0.0,-0.00022,0.00033,0.00018,2
5723,5958,-0.00066,-0.00014,-5.9999999999999995e-05,-0.00016,0.0,-0.00022,0.00033,0.00018,2
5724,5959,-0.00066,-0.00014,-5.9999999999999995e-05,-0.00016,0.0,-0.00022,0.00033,0.00018,2
5725,5960,-0.00066,-0.00014,-5.9999999999999995e-05,-0.00016,0.0,-0.00022,0.00033,0.00018,2
5726,5961,-0.00066,-0.00014,-5.9999999999999995e-05,-0.00016,0.0,-0.00022,0.00033,0.00018,2
5727,5962,-0.00066,-0.00014,-5.9999999999999995e-05,-0.00016,0.0,-0.00022,0.00033,0.00018,2
5728,5963,0.00059,9e-05,0.00026000000000000003,0.0012699999999999999,9e-05,8e-05,-0.00018999999999999998,0.00015,2
5729,5964,-0.00044,-2.9999999999999997e-05,-2.9999999999999997e-05,-9e-05,0.00013000000000000002,0.00045999999999999996,0.00056,-2.9999999999999997e-05,2
5730,5965,-0.00044,-2.9999999999999997e-05,-2.9999999999999997e-05,-9e-05,0.00013000000000000002,0.00045999999999999996,0.00056,-2.9999999999999997e-05,2
5731,5966,-0.00044,-2.9999999999999997e-05,-2.9999999999999997e-05,-9e-05,0.00013000000000000002,0.00045999999999999996,0.00056,-2.9999999999999997e-05,2
5732,5967,-0.00044,-2.9999999999999997e-05,-2.9999999999999997e-05,-9e-05,0.00013000000000000002,0.00045999999999999996,0.00056,-2.9999999999999997e-05,2
5733,5968,-0.00044,-2.9999999999999997e-05,-2.9999999999999997e-05,-9e-05,0.00013000000000000002,0.00045999999999999996,0.00056,-2.9999999999999997e-05,2
5734,5969,-0.00044,-2.9999999999999997e-05,-2.9999999999999997e-05,-9e-05,0.00013000000000000002,0.00045999999999999996,0.00056,-2.9999999999999997e-05,2
5735,5970,-0.00044,-2.9999999999999997e-05,-2.9999999999999997e-05,-9e-05,0.00013000000000000002,0.00045999999999999996,0.00056,-2.9999999999999997e-05,2
5736,5971,-0.00044,-2.9999999999999997e-05,-2.9999999999999997e-05,-9e-05,0.00013000000000000002,0.00045999999999999996,0.00056,-2.9999999999999997e-05,2
5737,5972,-0.00044,-2.9999999999999997e-05,-2.9999999999999997e-05,-9e-05,0.00013000000000000002,0.00045999999999999996,0.00056,-2.9999999999999997e-05,2
5738,5973,-0.00044,-2.9999999999999997e-05,-2.9999999999999997e-05,-9e-05,0.00013000000000000002,0.00045999999999999996,0.00056,-2.9999999999999997e-05,2
5739,5974,-0.00044,-2.9999999999999997e-05,-2.9999999999999997e-05,-9e-05,0.00013000000000000002,0.00045999999999999996,0.00056,-2.9999999999999997e-05,2
5740,5975,-0.00044,-2.9999999999999997e-05,-2.9999999999999997e-05,-9e-05,0.00013000000000000002,0.00045999999999999996,0.00056,-2.9999999999999997e-05,2
5741,5976,-0.00044,-2.9999999999999997e-05,-2.9999999999999997e-05,-9e-05,0.00013000000000000002,0.00045999999999999996,0.00056,-2.9999999999999997e-05,2
5742,5977,-0.00044,-2.9999999999999997e-05,-2.9999999999999997e-05,-9e-05,0.00013000000000000002,0.00045999999999999996,0.00056,-2.9999999999999997e-05,2
5743,5978,-0.00044,-2.9999999999999997e-05,-2.9999999999999997e-05,-9e-05,0.00013000000000000002,0.00045999999999999996,0.00056,-2.9999999999999997e-05,2
5744,5979,-0.00044,-2.9999999999999997e-05,-2.9999999999999997e-05,-9e-05,0.00013000000000000002,0.00045999999999999996,0.00056,-2.9999999999999997e-05,2
5745,5980,-0.00044,-2.9999999999999997e-05,-2.9999999999999997e-05,-9e-05,0.00013000000000000002,0.00045999999999999996,0.00056,-2.9999999999999997e-05,2
5746,5981,-0.00044,-2.9999999999999997e-05,-2.9999999999999997e-05,-9e-05,0.00013000000000000002,0.00045999999999999996,0.00056,-2.9999999999999997e-05,2
5747,5982,-0.00044,-2.9999999999999997e-05,-2.9999999999999997e-05,-9e-05,0.00013000000000000002,0.00045999999999999996,0.00056,-2.9999999999999997e-05,2
5748,5983,-0.00044,-2.9999999999999997e-05,-2.9999999999999997e-05,-9e-05,0.00013000000000000002,0.00045999999999999996,0.00056,-2.9999999999999997e-05,2
5749,5984,-0.00044,-2.9999999999999997e-05,-2.9999999999999997e-05,-9e-05,0.00013000000000000002,0.00045999999999999996,0.00056,-2.9999999999999997e-05,2
5750,5985,8e-05,0.0,5.9999999999999995e-05,0.00059,0.0,0.00011999999999999999,-0.00013000000000000002,0.0001,2
5751,5987,1e-05,-2e-05,2.9999999999999997e-05,0.00039,-9e-05,0.00036,-0.00015,4e-05,2
5752,5989,1e-05,-2e-05,2.9999999999999997e-05,0.00039,-9e-05,0.00036,-0.00015,4e-05,2
5753,5990,1e-05,-2e-05,2.9999999999999997e-05,0.00039,-9e-05,0.00036,-0.00015,4e-05,2
5754,5991,1e-05,-2e-05,2.9999999999999997e-05,0.00039,-9e-05,0.00036,-0.00015,4e-05,2
5755,5992,1e-05,-2e-05,2.9999999999999997e-05,0.00039,-9e-05,0.00036,-0.00015,4e-05,2
5756,5994,1e-05,-2e-05,2.9999999999999997e-05,0.00039,-9e-05,0.00036,-0.00015,4e-05,2
5757,5995,1e-05,-2e-05,2.9999999999999997e-05,0.00039,-9e-05,0.00036,-0.00015,4e-05,2
5758,5996,1e-05,-2e-05,2.9999999999999997e-05,0.00039,-9e-05,0.00036,-0.00015,4e-05,2
5759,5997,1e-05,-2e-05,2.9999999999999997e-05,0.00039,-9e-05,0.00036,-0.00015,4e-05,2
5760,5998,1e-05,-2e-05,2.9999999999999997e-05,0.00039,-9e-05,0.00036,-0.00015,4e-05,2
5761,5999,0.0006,5e-05,0.00011999999999999999,0.00016,-5.9999999999999995e-05,-0.00037,-0.00021,-9e-05,2
5762,6000,0.0006,5e-05,0.00011999999999999999,0.00016,-5.9999999999999995e-05,-0.00037,-0.00021,-9e-05,2
5763,6001,0.0006,5e-05,0.00011999999999999999,0.00016,-5.9999999999999995e-05,-0.00037,-0.00021,-9e-05,2
5764,6002,0.0006,5e-05,0.00011999999999999999,0.00016,-5.9999999999999995e-05,-0.00037,-0.00021,-9e-05,2
5765,6003,0.0006,5e-05,0.00011999999999999999,0.00016,-5.9999999999999995e-05,-0.00037,-0.00021,-9e-05,2
5766,6004,0.0006,5e-05,0.00011999999999999999,0.00016,-5.9999999999999995e-05,-0.00037,-0.00021,-9e-05,2
5767,6005,0.0006,5e-05,0.00011999999999999999,0.00016,-5.9999999999999995e-05,-0.00037,-0.00021,-9e-05,2
5768,6006,0.0006,5e-05,0.00011999999999999999,0.00016,-5.9999999999999995e-05,-0.00037,-0.00021,-9e-05,2
5769,6007,0.0006,5e-05,0.00011999999999999999,0.00016,-5.9999999999999995e-05,-0.00037,-0.00021,-9e-05,2
5770,6008,4e-05,0.00018,4e-05,-0.00014,8e-05,-0.00047000000000000004,-0.00054,-0.00022,2
5771,6009,4e-05,0.00018,4e-05,-0.00014,8e-05,-0.00047000000000000004,-0.00054,-0.00022,2
5772,6010,4e-05,0.00018,4e-05,-0.00014,8e-05,-0.00047000000000000004,-0.00054,-0.00022,2
5773,6011,4e-05,0.00018,4e-05,-0.00014,8e-05,-0.00047000000000000004,-0.00054,-0.00022,2
5774,6012,4e-05,0.00018,4e-05,-0.00014,8e-05,-0.00047000000000000004,-0.00054,-0.00022,2
5775,6013,4e-05,0.00018,4e-05,-0.00014,8e-05,-0.00047000000000000004,-0.00054,-0.00022,2
5776,6014,4e-05,0.00018,4e-05,-0.00014,8e-05,-0.00047000000000000004,-0.00054,-0.00022,2
5777,6015,4e-05,0.00018,4e-05,-0.00014,8e-05,-0.00047000000000000004,-0.00054,-0.00022,2
5778,6016,4e-05,0.00018,4e-05,-0.00014,8e-05,-0.00047000000000000004,-0.00054,-0.00022,2
5779,6017,4e-05,0.00018,4e-05,-0.00014,8e-05,-0.00047000000000000004,-0.00054,-0.00022,2
5780,6018,4e-05,0.00018,4e-05,-0.00014,8e-05,-0.00047000000000000004,-0.00054,-0.00022,2
5781,6019,4e-05,0.00018,4e-05,-0.00014,8e-05,-0.00047000000000000004,-0.00054,-0.00022,2
5782,6020,4e-05,0.00018,4e-05,-0.00014,8e-05,-0.00047000000000000004,-0.00054,-0.00022,2
5783,6021,4e-05,0.00018,4e-05,-0.00014,8e-05,-0.00047000000000000004,-0.00054,-0.00022,2
5784,6022,4e-05,0.00018,4e-05,-0.00014,8e-05,-0.00047000000000000004,-0.00054,-0.00022,2
5785,6023,9e-05,-0.00011999999999999999,-5.9999999999999995e-05,0.00016999999999999999,7e-05,-0.00064,-0.0005,4e-05,2
5786,6024,9e-05,-0.00011999999999999999,-5.9999999999999995e-05,0.00016999999999999999,7e-05,-0.00064,-0.0005,4e-05,2
5787,6025,9e-05,-0.00011999999999999999,-5.9999999999999995e-05,0.00016999999999999999,7e-05,-0.00064,-0.0005,4e-05,2
5788,6026,9e-05,-0.00011999999999999999,-5.9999999999999995e-05,0.00016999999999999999,7e-05,-0.00064,-0.0005,4e-05,2
5789,6027,9e-05,-0.00011999999999999999,-5.9999999999999995e-05,0.00016999999999999999,7e-05,-0.00064,-0.0005,4e-05,2
5790,6028,9e-05,-0.00011999999999999999,-5.9999999999999995e-05,0.00016999999999999999,7e-05,-0.00064,-0.0005,4e-05,2
5791,6029,-0.00022999999999999998,0.00014,0.00011999999999999999,0.0,-7e-05,5.9999999999999995e-05,0.00067,2e-05,2
5792,6030,-0.00022999999999999998,0.00014,0.00011999999999999999,0.0,-7e-05,5.9999999999999995e-05,0.00067,2e-05,2
5793,6031,-0.00022999999999999998,0.00014,0.00011999999999999999,0.0,-7e-05,5.9999999999999995e-05,0.00067,2e-05,2
5794,6032,-0.00022999999999999998,0.00014,0.00011999999999999999,0.0,-7e-05,5.9999999999999995e-05,0.00067,2e-05,2
5795,6033,-0.00022999999999999998,0.00014,0.00011999999999999999,0.0,-7e-05,5.9999999999999995e-05,0.00067,2e-05,2
5796,6034,-0.00022999999999999998,0.00014,0.00011999999999999999,0.0,-7e-05,5.9999999999999995e-05,0.00067,2e-05,2
5797,6035,-0.00022999999999999998,0.00014,0.00011999999999999999,0.0,-7e-05,5.9999999999999995e-05,0.00067,2e-05,2
5798,6036,-0.00022999999999999998,0.00014,0.00011999999999999999,0.0,-7e-05,5.9999999999999995e-05,0.00067,2e-05,2
5799,6038,-0.00022999999999999998,0.00014,0.00011999999999999999,0.0,-7e-05,5.9999999999999995e-05,0.00067,2e-05,2
5800,6039,-0.00022999999999999998,0.00014,0.00011999999999999999,0.0,-7e-05,5.9999999999999995e-05,0.00067,2e-05,2
5801,6040,-0.00022999999999999998,0.00014,0.00011999999999999999,0.0,-7e-05,5.9999999999999995e-05,0.00067,2e-05,2
5802,6041,-0.00022999999999999998,0.00014,0.00011999999999999999,0.0,-7e-05,5.9999999999999995e-05,0.00067,2e-05,2
5803,6042,-0.00022999999999999998,0.00014,0.00011999999999999999,0.0,-7e-05,5.9999999999999995e-05,0.00067,2e-05,2
5804,6043,-0.00022999999999999998,0.00014,0.00011999999999999999,0.0,-7e-05,5.9999999999999995e-05,0.00067,2e-05,2
5805,6044,-0.00022999999999999998,0.00014,0.00011999999999999999,0.0,-7e-05,5.9999999999999995e-05,0.00067,2e-05,2
5806,6045,-0.00022999999999999998,0.00014,0.00011999999999999999,0.0,-7e-05,5.9999999999999995e-05,0.00067,2e-05,2
5807,6046,-0.00018999999999999998,-4e-05,0.00011999999999999999,0.00075,-2.9999999999999997e-05,-5.9999999999999995e-05,-0.00022,-0.00011,2
5808,6047,-0.00015,-9e-05,5.9999999999999995e-05,0.0006,-0.0003,-0.00026000000000000003,-0.0001,-0.00013000000000000002,2
5809,6048,-0.00015,-9e-05,5.9999999999999995e-05,0.0006,-0.0003,-0.00026000000000000003,-0.0001,-0.00013000000000000002,2
5810,6049,-0.00015,-9e-05,5.9999999999999995e-05,0.0006,-0.0003,-0.00026000000000000003,-0.0001,-0.00013000000000000002,2
5811,6050,-0.00015,-9e-05,5.9999999999999995e-05,0.0006,-0.0003,-0.00026000000000000003,-0.0001,-0.00013000000000000002,2
5812,6051,-0.00015,-9e-05,5.9999999999999995e-05,0.0006,-0.0003,-0.00026000000000000003,-0.0001,-0.00013000000000000002,2
5813,6052,-0.00015,-9e-05,5.9999999999999995e-05,0.0006,-0.0003,-0.00026000000000000003,-0.0001,-0.00013000000000000002,2
5814,6053,-0.00015,-9e-05,5.9999999999999995e-05,0.0006,-0.0003,-0.00026000000000000003,-0.0001,-0.00013000000000000002,2
5815,6054,-0.00015,-9e-05,5.9999999999999995e-05,0.0006,-0.0003,-0.00026000000000000003,-0.0001,-0.00013000000000000002,2
5816,6055,-0.00015,-9e-05,5.9999999999999995e-05,0.0006,-0.0003,-0.00026000000000000003,-0.0001,-0.00013000000000000002,2
5817,6056,-0.00015,-9e-05,5.9999999999999995e-05,0.0006,-0.0003,-0.00026000000000000003,-0.0001,-0.00013000000000000002,2
5818,6057,-0.00015,-9e-05,5.9999999999999995e-05,0.0006,-0.0003,-0.00026000000000000003,-0.0001,-0.00013000000000000002,2
5819,6058,-0.00015,-9e-05,5.9999999999999995e-05,0.0006,-0.0003,-0.00026000000000000003,-0.0001,-0.00013000000000000002,2
5820,6059,-0.00023999999999999998,-2e-05,-0.00011999999999999999,-0.0005200000000000001,4e-05,-0.00011,4e-05,0.0,2
5821,6060,0.0002,-7e-05,-0.00016999999999999999,4e-05,0.00018,-0.00028,-1e-05,5e-05,2
5822,6061,0.0002,-7e-05,-0.00016999999999999999,4e-05,0.00018,-0.00028,-1e-05,5e-05,2
5823,6062,0.0002,-7e-05,-0.00016999999999999999,4e-05,0.00018,-0.00028,-1e-05,5e-05,2
5824,6063,0.0002,-7e-05,-0.00016999999999999999,4e-05,0.00018,-0.00028,-1e-05,5e-05,2
5825,6064,0.0002,-7e-05,-0.00016999999999999999,4e-05,0.00018,-0.00028,-1e-05,5e-05,2
5826,6065,0.0002,-7e-05,-0.00016999999999999999,4e-05,0.00018,-0.00028,-1e-05,5e-05,2
5827,6066,0.0002,-7e-05,-0.00016999999999999999,4e-05,0.00018,-0.00028,-1e-05,5e-05,2
5828,6067,0.0002,-7e-05,-0.00016999999999999999,4e-05,0.00018,-0.00028,-1e-05,5e-05,2
5829,6068,0.00047000000000000004,-7e-05,7e-05,0.00029,-0.00013000000000000002,5.9999999999999995e-05,0.00044,5.9999999999999995e-05,2
5830,6069,0.00047000000000000004,-7e-05,7e-05,0.00029,-0.00013000000000000002,5.9999999999999995e-05,0.00044,5.9999999999999995e-05,2
5831,6070,0.00047000000000000004,-7e-05,7e-05,0.00029,-0.00013000000000000002,5.9999999999999995e-05,0.00044,5.9999999999999995e-05,2
5832,6071,0.00047000000000000004,-7e-05,7e-05,0.00029,-0.00013000000000000002,5.9999999999999995e-05,0.00044,5.9999999999999995e-05,2
5833,6072,0.00047000000000000004,-7e-05,7e-05,0.00029,-0.00013000000000000002,5.9999999999999995e-05,0.00044,5.9999999999999995e-05,2
5834,6073,0.00047000000000000004,-7e-05,7e-05,0.00029,-0.00013000000000000002,5.9999999999999995e-05,0.00044,5.9999999999999995e-05,2
5835,6074,0.00047000000000000004,-7e-05,7e-05,0.00029,-0.00013000000000000002,5.9999999999999995e-05,0.00044,5.9999999999999995e-05,2
5836,6075,0.00047000000000000004,-7e-05,7e-05,0.00029,-0.00013000000000000002,5.9999999999999995e-05,0.00044,5.9999999999999995e-05,2
5837,6076,0.00047000000000000004,-7e-05,7e-05,0.00029,-0.00013000000000000002,5.9999999999999995e-05,0.00044,5.9999999999999995e-05,2
5838,6077,0.00047000000000000004,-7e-05,7e-05,0.00029,-0.00013000000000000002,5.9999999999999995e-05,0.00044,5.9999999999999995e-05,2
5839,6078,0.00047000000000000004,-7e-05,7e-05,0.00029,-0.00013000000000000002,5.9999999999999995e-05,0.00044,5.9999999999999995e-05,2
5840,6079,0.00047000000000000004,-7e-05,7e-05,0.00029,-0.00013000000000000002,5.9999999999999995e-05,0.00044,5.9999999999999995e-05,2
5841,6080,0.00047000000000000004,-7e-05,7e-05,0.00029,-0.00013000000000000002,5.9999999999999995e-05,0.00044,5.9999999999999995e-05,2
5842,6081,0.00047000000000000004,-7e-05,7e-05,0.00029,-0.00013000000000000002,5.9999999999999995e-05,0.00044,5.9999999999999995e-05,2
5843,6082,0.00047000000000000004,-7e-05,7e-05,0.00029,-0.00013000000000000002,5.9999999999999995e-05,0.00044,5.9999999999999995e-05,2
5844,6083,0.00047000000000000004,-7e-05,7e-05,0.00029,-0.00013000000000000002,5.9999999999999995e-05,0.00044,5.9999999999999995e-05,2
5845,6084,0.00047000000000000004,-7e-05,7e-05,0.00029,-0.00013000000000000002,5.9999999999999995e-05,0.00044,5.9999999999999995e-05,2
5846,6085,0.00047000000000000004,-7e-05,7e-05,0.00029,-0.00013000000000000002,5.9999999999999995e-05,0.00044,5.9999999999999995e-05,2
5847,6086,0.00047000000000000004,-7e-05,7e-05,0.00029,-0.00013000000000000002,5.9999999999999995e-05,0.00044,5.9999999999999995e-05,2
5848,6088,0.00047000000000000004,-7e-05,7e-05,0.00029,-0.00013000000000000002,5.9999999999999995e-05,0.00044,5.9999999999999995e-05,2
5849,6089,0.00047000000000000004,-7e-05,7e-05,0.00029,-0.00013000000000000002,5.9999999999999995e-05,0.00044,5.9999999999999995e-05,2
5850,6090,-0.00018999999999999998,1e-05,1e-05,0.00011,0.00013000000000000002,0.0002,-0.00021,-2.9999999999999997e-05,2
5851,6091,-0.00018999999999999998,1e-05,1e-05,0.00011,0.00013000000000000002,0.0002,-0.00021,-2.9999999999999997e-05,2
5852,6092,-0.00018999999999999998,-0.00011,-0.00011999999999999999,-0.0006,-0.00013000000000000002,-0.00039,-1e-05,-0.00013000000000000002,2
5853,6093,-0.00018999999999999998,-0.00011,-0.00011999999999999999,-0.0006,-0.00013000000000000002,-0.00039,-1e-05,-0.00013000000000000002,2
5854,6094,-0.00018999999999999998,-0.00011,-0.00011999999999999999,-0.0006,-0.00013000000000000002,-0.00039,-1e-05,-0.00013000000000000002,2
5855,6095,-0.00018999999999999998,-0.00011,-0.00011999999999999999,-0.0006,-0.00013000000000000002,-0.00039,-1e-05,-0.00013000000000000002,2
5856,6096,-0.00018999999999999998,-0.00011,-0.00011999999999999999,-0.0006,-0.00013000000000000002,-0.00039,-1e-05,-0.00013000000000000002,2
5857,6097,-0.00018999999999999998,-0.00011,-0.00011999999999999999,-0.0006,-0.00013000000000000002,-0.00039,-1e-05,-0.00013000000000000002,2
5858,6098,-0.00018999999999999998,-0.00011,-0.00011999999999999999,-0.0006,-0.00013000000000000002,-0.00039,-1e-05,-0.00013000000000000002,2
5859,6099,-0.00018999999999999998,-0.00011,-0.00011999999999999999,-0.0006,-0.00013000000000000002,-0.00039,-1e-05,-0.00013000000000000002,2
5860,6100,-0.00018999999999999998,-0.00011,-0.00011999999999999999,-0.0006,-0.00013000000000000002,-0.00039,-1e-05,-0.00013000000000000002,2
5861,6101,-0.00018999999999999998,-0.00011,-0.00011999999999999999,-0.0006,-0.00013000000000000002,-0.00039,-1e-05,-0.00013000000000000002,2
5862,6102,-0.00018999999999999998,-0.00011,-0.00011999999999999999,-0.0006,-0.00013000000000000002,-0.00039,-1e-05,-0.00013000000000000002,2
5863,6103,-0.00018999999999999998,-0.00011,-0.00011999999999999999,-0.0006,-0.00013000000000000002,-0.00039,-1e-05,-0.00013000000000000002,2
5864,6104,-0.00045,-2.9999999999999997e-05,-5e-05,-0.00021,2.9999999999999997e-05,0.00039,0.00047999999999999996,-8e-05,2
5865,6105,-0.00045,-2.9999999999999997e-05,-5e-05,-0.00021,2.9999999999999997e-05,0.00039,0.00047999999999999996,-8e-05,2
5866,6106,-0.00045,-2.9999999999999997e-05,-5e-05,-0.00021,2.9999999999999997e-05,0.00039,0.00047999999999999996,-8e-05,2
5867,6107,-0.00045,-2.9999999999999997e-05,-5e-05,-0.00021,2.9999999999999997e-05,0.00039,0.00047999999999999996,-8e-05,2
5868,6108,-0.00045,-2.9999999999999997e-05,-5e-05,-0.00021,2.9999999999999997e-05,0.00039,0.00047999999999999996,-8e-05,2
5869,6109,-0.00045,-2.9999999999999997e-05,-5e-05,-0.00021,2.9999999999999997e-05,0.00039,0.00047999999999999996,-8e-05,2
5870,6110,-0.00045,-2.9999999999999997e-05,-5e-05,-0.00021,2.9999999999999997e-05,0.00039,0.00047999999999999996,-8e-05,2
5871,6111,-0.00045,-2.9999999999999997e-05,-5e-05,-0.00021,2.9999999999999997e-05,0.00039,0.00047999999999999996,-8e-05,2
5872,6112,-0.00045,-2.9999999999999997e-05,-5e-05,-0.00021,2.9999999999999997e-05,0.00039,0.00047999999999999996,-8e-05,2
5873,6113,-0.00045,-2.9999999999999997e-05,-5e-05,-0.00021,2.9999999999999997e-05,0.00039,0.00047999999999999996,-8e-05,2
5874,6114,-0.00045,-2.9999999999999997e-05,-5e-05,-0.00021,2.9999999999999997e-05,0.00039,0.00047999999999999996,-8e-05,2
5875,6115,-0.00045,-2.9999999999999997e-05,-5e-05,-0.00021,2.9999999999999997e-05,0.00039,0.00047999999999999996,-8e-05,2
5876,6116,-0.00045,-2.9999999999999997e-05,-5e-05,-0.00021,2.9999999999999997e-05,0.00039,0.00047999999999999996,-8e-05,2
5877,6117,-0.00045,-2.9999999999999997e-05,-5e-05,-0.00021,2.9999999999999997e-05,0.00039,0.00047999999999999996,-8e-05,2
5878,6118,-0.00045,-2.9999999999999997e-05,-5e-05,-0.00021,2.9999999999999997e-05,0.00039,0.00047999999999999996,-8e-05,2
5879,6119,-0.00045,-2.9999999999999997e-05,-5e-05,-0.00021,2.9999999999999997e-05,0.00039,0.00047999999999999996,-8e-05,2
5880,6120,-0.00045,-2.9999999999999997e-05,-5e-05,-0.00021,2.9999999999999997e-05,0.00039,0.00047999999999999996,-8e-05,2
5881,6121,2.9999999999999997e-05,-5e-05,-2e-05,0.00035,-0.0001,-7e-05,-0.00016,-2.9999999999999997e-05,2
5882,6122,-0.00033999999999999997,5.9999999999999995e-05,5e-05,-0.00023999999999999998,7e-05,0.00018999999999999998,0.00049,2e-05,2
5883,6123,-0.00033999999999999997,5.9999999999999995e-05,5e-05,-0.00023999999999999998,7e-05,0.00018999999999999998,0.00049,2e-05,2
5884,6124,-0.00033999999999999997,5.9999999999999995e-05,5e-05,-0.00023999999999999998,7e-05,0.00018999999999999998,0.00049,2e-05,2
5885,6125,-0.00033999999999999997,5.9999999999999995e-05,5e-05,-0.00023999999999999998,7e-05,0.00018999999999999998,0.00049,2e-05,2
5886,6126,-0.00033999999999999997,5.9999999999999995e-05,5e-05,-0.00023999999999999998,7e-05,0.00018999999999999998,0.00049,2e-05,2
5887,6127,-0.00033999999999999997,5.9999999999999995e-05,5e-05,-0.00023999999999999998,7e-05,0.00018999999999999998,0.00049,2e-05,2
5888,6128,0.00022,-0.00011,-0.00027,-0.00114,-0.00016,-9e-05,-0.00035,-5e-05,2
5889,6129,0.00022,-0.00011,-0.00027,-0.00114,-0.00016,-9e-05,-0.00035,-5e-05,2
5890,6130,0.00022,-0.00011,-0.00027,-0.00114,-0.00016,-9e-05,-0.00035,-5e-05,2
5891,6131,0.00022,-0.00011,-0.00027,-0.00114,-0.00016,-9e-05,-0.00035,-5e-05,2
5892,6132,0.00022,-0.00011,-0.00027,-0.00114,-0.00016,-9e-05,-0.00035,-5e-05,2
5893,6133,0.00022,-0.00011,-0.00027,-0.00114,-0.00016,-9e-05,-0.00035,-5e-05,2
5894,6134,0.00022,-0.00011,-0.00027,-0.00114,-0.00016,-9e-05,-0.00035,-5e-05,2
5895,6135,0.00022,-0.00011,-0.00027,-0.00114,-0.00016,-9e-05,-0.00035,-5e-05,2
5896,6136,0.00022,-0.00011,-0.00027,-0.00114,-0.00016,-9e-05,-0.00035,-5e-05,2
5897,6138,0.00022,-0.00011,-0.00027,-0.00114,-0.00016,-9e-05,-0.00035,-5e-05,2
5898,6139,0.00022,-0.00011,-0.00027,-0.00114,-0.00016,-9e-05,-0.00035,-5e-05,2
5899,6140,0.00022,-0.00011,-0.00027,-0.00114,-0.00016,-9e-05,-0.00035,-5e-05,2
5900,6141,0.00022,-0.00011,-0.00027,-0.00114,-0.00016,-9e-05,-0.00035,-5e-05,2
5901,6142,0.00022,-0.00011,-0.00027,-0.00114,-0.00016,-9e-05,-0.00035,-5e-05,2
5902,6143,0.00022,-0.00011,-0.00027,-0.00114,-0.00016,-9e-05,-0.00035,-5e-05,2
5903,6144,0.00022,-0.00011,-0.00027,-0.00114,-0.00016,-9e-05,-0.00035,-5e-05,2
5904,6145,0.00022,-0.00011,-0.00027,-0.00114,-0.00016,-9e-05,-0.00035,-5e-05,2
5905,6146,0.00022,-0.00011,-0.00027,-0.00114,-0.00016,-9e-05,-0.00035,-5e-05,2
5906,6147,0.00022,-0.00011,-0.00027,-0.00114,-0.00016,-9e-05,-0.00035,-5e-05,2
5907,6148,0.00022,-0.00011,-0.00027,-0.00114,-0.00016,-9e-05,-0.00035,-5e-05,2
5908,6149,0.00022,-0.00011,-0.00027,-0.00114,-0.00016,-9e-05,-0.00035,-5e-05,2
5909,6150,-0.00023999999999999998,-4e-05,-2e-05,-9e-05,0.0,4e-05,2e-05,1e-05,2
5910,6151,0.00037999999999999997,4e-05,9e-05,0.0002,2.9999999999999997e-05,9e-05,0.0,4e-05,2
5911,6152,-0.00081,8e-05,0.0,0.00016,0.00018,-0.0003,0.00035,0.00033,2
5912,6153,-0.00081,8e-05,0.0,0.00016,0.00018,-0.0003,0.00035,0.00033,2
5913,6154,-0.00081,8e-05,0.0,0.00016,0.00018,-0.0003,0.00035,0.00033,2
5914,6155,-0.00081,8e-05,0.0,0.00016,0.00018,-0.0003,0.00035,0.00033,2
5915,6156,-0.00081,8e-05,0.0,0.00016,0.00018,-0.0003,0.00035,0.00033,2
5916,6157,-0.00081,8e-05,0.0,0.00016,0.00018,-0.0003,0.00035,0.00033,2
5917,6158,-0.00081,8e-05,0.0,0.00016,0.00018,-0.0003,0.00035,0.00033,2
5918,6159,-0.00081,8e-05,0.0,0.00016,0.00018,-0.0003,0.00035,0.00033,2
5919,6160,-0.00081,8e-05,0.0,0.00016,0.00018,-0.0003,0.00035,0.00033,2
5920,6161,-0.00081,8e-05,0.0,0.00016,0.00018,-0.0003,0.00035,0.00033,2
5921,6162,-0.00081,8e-05,0.0,0.00016,0.00018,-0.0003,0.00035,0.00033,2
5922,6163,-0.00081,8e-05,0.0,0.00016,0.00018,-0.0003,0.00035,0.00033,2
5923,6164,-0.00081,8e-05,0.0,0.00016,0.00018,-0.0003,0.00035,0.00033,2
5924,6165,-0.00093,-5e-05,1e-05,0.00016999999999999999,0.00022999999999999998,0.0005200000000000001,5.9999999999999995e-05,-0.00015,2
5925,6166,0.00029,-4e-05,-9e-05,-9e-05,-0.00043,-0.00031,0.00018999999999999998,0.0,2
5926,6167,0.00059,-5e-05,-0.0001,0.00016,0.00056,0.00016999999999999999,-0.00026000000000000003,9e-05,2
5927,6168,0.00059,-5e-05,-0.0001,0.00016,0.00056,0.00016999999999999999,-0.00026000000000000003,9e-05,2
5928,6169,0.00059,-5e-05,-0.0001,0.00016,0.00056,0.00016999999999999999,-0.00026000000000000003,9e-05,2
5929,6170,0.00059,-5e-05,-0.0001,0.00016,0.00056,0.00016999999999999999,-0.00026000000000000003,9e-05,2
5930,6171,0.00059,-5e-05,-0.0001,0.00016,0.00056,0.00016999999999999999,-0.00026000000000000003,9e-05,2
5931,6172,0.00059,-5e-05,-0.0001,0.00016,0.00056,0.00016999999999999999,-0.00026000000000000003,9e-05,2
5932,6173,0.00059,-5e-05,-0.0001,0.00016,0.00056,0.00016999999999999999,-0.00026000000000000003,9e-05,2
5933,6174,0.00059,-5e-05,-0.0001,0.00016,0.00056,0.00016999999999999999,-0.00026000000000000003,9e-05,2
5934,6175,0.00059,-5e-05,-0.0001,0.00016,0.00056,0.00016999999999999999,-0.00026000000000000003,9e-05,2
5935,6176,0.00059,-5e-05,-0.0001,0.00016,0.00056,0.00016999999999999999,-0.00026000000000000003,9e-05,2
5936,6177,0.00059,-5e-05,-0.0001,0.00016,0.00056,0.00016999999999999999,-0.00026000000000000003,9e-05,2
5937,6178,0.00059,-5e-05,-0.0001,0.00016,0.00056,0.00016999999999999999,-0.00026000000000000003,9e-05,2
5938,6179,0.00059,-5e-05,-0.0001,0.00016,0.00056,0.00016999999999999999,-0.00026000000000000003,9e-05,2
5939,6180,0.00059,-5e-05,-0.0001,0.00016,0.00056,0.00016999999999999999,-0.00026000000000000003,9e-05,2
5940,6181,0.00059,-5e-05,-0.0001,0.00016,0.00056,0.00016999999999999999,-0.00026000000000000003,9e-05,2
5941,6182,0.00059,-5e-05,-0.0001,0.00016,0.00056,0.00016999999999999999,-0.00026000000000000003,9e-05,2
5942,6183,0.00059,-5e-05,-0.0001,0.00016,0.00056,0.00016999999999999999,-0.00026000000000000003,9e-05,2
5943,6184,0.00059,-5e-05,-0.0001,0.00016,0.00056,0.00016999999999999999,-0.00026000000000000003,9e-05,2
5944,6185,0.00059,-5e-05,-0.0001,0.00016,0.00056,0.00016999999999999999,-0.00026000000000000003,9e-05,2
5945,6186,0.00059,-5e-05,-0.0001,0.00016,0.00056,0.00016999999999999999,-0.00026000000000000003,9e-05,2
5946,6188,0.00011,5e-05,1e-05,-0.00023999999999999998,-8e-05,-4e-05,-0.00011,-9e-05,2
5947,6189,0.00011,5e-05,1e-05,-0.00023999999999999998,-8e-05,-4e-05,-0.00011,-9e-05,2
5948,6190,0.00011,5e-05,1e-05,-0.00023999999999999998,-8e-05,-4e-05,-0.00011,-9e-05,2
5949,6191,0.00011,5e-05,1e-05,-0.00023999999999999998,-8e-05,-4e-05,-0.00011,-9e-05,2
5950,6192,0.00011,5e-05,1e-05,-0.00023999999999999998,-8e-05,-4e-05,-0.00011,-9e-05,2
5951,6193,0.00011,5e-05,1e-05,-0.00023999999999999998,-8e-05,-4e-05,-0.00011,-9e-05,2
5952,6194,2.9999999999999997e-05,5e-05,7e-05,0.00065,-4e-05,0.00014,0.00033,8e-05,2
5953,6195,2.9999999999999997e-05,5e-05,7e-05,0.00065,-4e-05,0.00014,0.00033,8e-05,2
5954,6196,2.9999999999999997e-05,5e-05,7e-05,0.00065,-4e-05,0.00014,0.00033,8e-05,2
5955,6197,2.9999999999999997e-05,5e-05,7e-05,0.00065,-4e-05,0.00014,0.00033,8e-05,2
5956,6198,2.9999999999999997e-05,5e-05,7e-05,0.00065,-4e-05,0.00014,0.00033,8e-05,2
5957,6199,2.9999999999999997e-05,5e-05,7e-05,0.00065,-4e-05,0.00014,0.00033,8e-05,2
5958,6200,2.9999999999999997e-05,5e-05,7e-05,0.00065,-4e-05,0.00014,0.00033,8e-05,2
5959,6201,2.9999999999999997e-05,5e-05,7e-05,0.00065,-4e-05,0.00014,0.00033,8e-05,2
5960,6202,2.9999999999999997e-05,5e-05,7e-05,0.00065,-4e-05,0.00014,0.00033,8e-05,2
5961,6203,0.00075,-5.9999999999999995e-05,-2e-05,-0.00039,-0.00018,0.0001,-0.00047999999999999996,1e-05,2
5962,6204,0.00075,-5.9999999999999995e-05,-2e-05,-0.00039,-0.00018,0.0001,-0.00047999999999999996,1e-05,2
5963,6205,0.00075,-5.9999999999999995e-05,-2e-05,-0.00039,-0.00018,0.0001,-0.00047999999999999996,1e-05,2
5964,6206,0.00075,-5.9999999999999995e-05,-2e-05,-0.00039,-0.00018,0.0001,-0.00047999999999999996,1e-05,2
5965,6207,0.00075,-5.9999999999999995e-05,-2e-05,-0.00039,-0.00018,0.0001,-0.00047999999999999996,1e-05,2
5966,6208,0.00075,-5.9999999999999995e-05,-2e-05,-0.00039,-0.00018,0.0001,-0.00047999999999999996,1e-05,2
5967,6209,0.0005,-1e-05,0.00015,0.00059,-0.00022999999999999998,-2e-05,-0.00028,0.0,2
5968,6210,0.0005,-1e-05,0.00015,0.00059,-0.00022999999999999998,-2e-05,-0.00028,0.0,2
5969,6211,0.0005,-1e-05,0.00015,0.00059,-0.00022999999999999998,-2e-05,-0.00028,0.0,2
5970,6212,0.0005,-1e-05,0.00015,0.00059,-0.00022999999999999998,-2e-05,-0.00028,0.0,2
5971,6213,0.0005,-1e-05,0.00015,0.00059,-0.00022999999999999998,-2e-05,-0.00028,0.0,2
5972,6214,0.0005,-1e-05,0.00015,0.00059,-0.00022999999999999998,-2e-05,-0.00028,0.0,2
5973,6215,0.0005,-1e-05,0.00015,0.00059,-0.00022999999999999998,-2e-05,-0.00028,0.0,2
5974,6216,0.0005,-1e-05,0.00015,0.00059,-0.00022999999999999998,-2e-05,-0.00028,0.0,2
5975,6217,0.0005,-1e-05,0.00015,0.00059,-0.00022999999999999998,-2e-05,-0.00028,0.0,2
5976,6218,0.0005,-1e-05,0.00015,0.00059,-0.00022999999999999998,-2e-05,-0.00028,0.0,2
5977,6219,0.0005,-1e-05,0.00015,0.00059,-0.00022999999999999998,-2e-05,-0.00028,0.0,2
5978,6220,0.0005,-1e-05,0.00015,0.00059,-0.00022999999999999998,-2e-05,-0.00028,0.0,2
5979,6221,0.0005,-1e-05,0.00015,0.00059,-0.00022999999999999998,-2e-05,-0.00028,0.0,2
5980,6222,0.0005,-1e-05,0.00015,0.00059,-0.00022999999999999998,-2e-05,-0.00028,0.0,2
5981,6223,0.0005,-1e-05,0.00015,0.00059,-0.00022999999999999998,-2e-05,-0.00028,0.0,2
5982,6224,0.0005,-1e-05,0.00015,0.00059,-0.00022999999999999998,-2e-05,-0.00028,0.0,2
5983,6225,0.00041,2e-05,0.00011,0.0003,-0.00018,-0.00047999999999999996,2e-05,-0.00011,2
5984,6226,0.00041,2e-05,0.00011,0.0003,-0.00018,-0.00047999999999999996,2e-05,-0.00011,2
5985,6227,-0.0009400000000000001,-0.00011,0.0002,0.00108,-0.00049,8e-05,-0.00028,-0.0002,2
5986,6228,-0.0009400000000000001,-0.00011,0.0002,0.00108,-0.00049,8e-05,-0.00028,-0.0002,2
5987,6229,-0.0009400000000000001,-0.00011,0.0002,0.00108,-0.00049,8e-05,-0.00028,-0.0002,2
5988,6230,-0.0009400000000000001,-0.00011,0.0002,0.00108,-0.00049,8e-05,-0.00028,-0.0002,2
5989,6231,-0.0009400000000000001,-0.00011,0.0002,0.00108,-0.00049,8e-05,-0.00028,-0.0002,2
5990,6232,-0.0009400000000000001,-0.00011,0.0002,0.00108,-0.00049,8e-05,-0.00028,-0.0002,2
5991,6233,-0.0009400000000000001,-0.00011,0.0002,0.00108,-0.00049,8e-05,-0.00028,-0.0002,2
5992,6234,-0.0009400000000000001,-0.00011,0.0002,0.00108,-0.00049,8e-05,-0.00028,-0.0002,2
5993,6235,-0.0009400000000000001,-0.00011,0.0002,0.00108,-0.00049,8e-05,-0.00028,-0.0002,2
5994,6236,-0.0009400000000000001,-0.00011,0.0002,0.00108,-0.00049,8e-05,-0.00028,-0.0002,2
5995,6238,-0.0009400000000000001,-0.00011,0.0002,0.00108,-0.00049,8e-05,-0.00028,-0.0002,2
5996,6239,-0.0009400000000000001,-0.00011,0.0002,0.00108,-0.00049,8e-05,-0.00028,-0.0002,2
5997,6240,-0.0009400000000000001,-0.00011,0.0002,0.00108,-0.00049,8e-05,-0.00028,-0.0002,2
5998,6241,-0.0009400000000000001,-0.00011,0.0002,0.00108,-0.00049,8e-05,-0.00028,-0.0002,2
5999,6242,-0.0009400000000000001,-0.00011,0.0002,0.00108,-0.00049,8e-05,-0.00028,-0.0002,2
6000,6243,-0.0009400000000000001,-0.00011,0.0002,0.00108,-0.00049,8e-05,-0.00028,-0.0002,2
6001,6244,-0.0009400000000000001,-0.00011,0.0002,0.00108,-0.00049,8e-05,-0.00028,-0.0002,2
6002,6245,-0.0009400000000000001,-0.00011,0.0002,0.00108,-0.00049,8e-05,-0.00028,-0.0002,2
6003,6246,-0.0009400000000000001,-0.00011,0.0002,0.00108,-0.00049,8e-05,-0.00028,-0.0002,2
6004,6247,-0.0009400000000000001,-0.00011,0.0002,0.00108,-0.00049,8e-05,-0.00028,-0.0002,2
6005,6248,-0.0007,-1e-05,-4e-05,0.00055,-9e-05,-1e-05,-0.00029,-5.9999999999999995e-05,2
6006,6249,-0.0007,-1e-05,-4e-05,0.00055,-9e-05,-1e-05,-0.00029,-5.9999999999999995e-05,2
6007,6250,-0.0007,-1e-05,-4e-05,0.00055,-9e-05,-1e-05,-0.00029,-5.9999999999999995e-05,2
6008,6251,-0.0007,-1e-05,-4e-05,0.00055,-9e-05,-1e-05,-0.00029,-5.9999999999999995e-05,2
6009,6252,-0.0007,-1e-05,-4e-05,0.00055,-9e-05,-1e-05,-0.00029,-5.9999999999999995e-05,2
6010,6253,-0.0007,-1e-05,-4e-05,0.00055,-9e-05,-1e-05,-0.00029,-5.9999999999999995e-05,2
6011,6254,0.00047999999999999996,5e-05,0.0001,1e-05,8e-05,8e-05,2.9999999999999997e-05,0.00022999999999999998,2
6012,6255,0.00047999999999999996,5e-05,0.0001,1e-05,8e-05,8e-05,2.9999999999999997e-05,0.00022999999999999998,2
6013,6256,0.00047999999999999996,5e-05,0.0001,1e-05,8e-05,8e-05,2.9999999999999997e-05,0.00022999999999999998,2
6014,6257,0.00047999999999999996,5e-05,0.0001,1e-05,8e-05,8e-05,2.9999999999999997e-05,0.00022999999999999998,2
6015,6258,0.00047999999999999996,5e-05,0.0001,1e-05,8e-05,8e-05,2.9999999999999997e-05,0.00022999999999999998,2
6016,6259,0.00047999999999999996,5e-05,0.0001,1e-05,8e-05,8e-05,2.9999999999999997e-05,0.00022999999999999998,2
6017,6260,0.00047999999999999996,5e-05,0.0001,1e-05,8e-05,8e-05,2.9999999999999997e-05,0.00022999999999999998,2
6018,6261,0.00047999999999999996,5e-05,0.0001,1e-05,8e-05,8e-05,2.9999999999999997e-05,0.00022999999999999998,2
6019,6262,0.00047999999999999996,5e-05,0.0001,1e-05,8e-05,8e-05,2.9999999999999997e-05,0.00022999999999999998,2
6020,6264,0.00047999999999999996,5e-05,0.0001,1e-05,8e-05,8e-05,2.9999999999999997e-05,0.00022999999999999998,2
6021,6265,0.00047999999999999996,5e-05,0.0001,1e-05,8e-05,8e-05,2.9999999999999997e-05,0.00022999999999999998,2
6022,6266,0.00029,-0.00015,-0.00022,-0.0008900000000000001,0.00011999999999999999,0.00014,-4e-05,-8e-05,2
6023,6267,0.00029,-0.00015,-0.00022,-0.0008900000000000001,0.00011999999999999999,0.00014,-4e-05,-8e-05,2
6024,6268,0.00029,-0.00015,-0.00022,-0.0008900000000000001,0.00011999999999999999,0.00014,-4e-05,-8e-05,2
6025,6269,0.00029,-0.00015,-0.00022,-0.0008900000000000001,0.00011999999999999999,0.00014,-4e-05,-8e-05,2
6026,6270,0.00029,-0.00015,-0.00022,-0.0008900000000000001,0.00011999999999999999,0.00014,-4e-05,-8e-05,2
6027,6271,0.00029,-0.00015,-0.00022,-0.0008900000000000001,0.00011999999999999999,0.00014,-4e-05,-8e-05,2
6028,6272,0.00029,-0.00015,-0.00022,-0.0008900000000000001,0.00011999999999999999,0.00014,-4e-05,-8e-05,2
6029,6273,0.00029,-0.00015,-0.00022,-0.0008900000000000001,0.00011999999999999999,0.00014,-4e-05,-8e-05,2
6030,6274,0.00029,-0.00015,-0.00022,-0.0008900000000000001,0.00011999999999999999,0.00014,-4e-05,-8e-05,2
6031,6275,0.00029,-0.00015,-0.00022,-0.0008900000000000001,0.00011999999999999999,0.00014,-4e-05,-8e-05,2
6032,6276,0.00029,-0.00015,-0.00022,-0.0008900000000000001,0.00011999999999999999,0.00014,-4e-05,-8e-05,2
