,time,channel1,channel2,channel3,channel4,channel5,channel6,channel7,channel8,class
5097,5350,-5.9999999999999995e-05,0.0,-4e-05,7e-05,0.0001,0.00011,0.0,-0.00028,2
5098,5351,-5.9999999999999995e-05,0.0,-4e-05,7e-05,0.0001,0.00011,0.0,-0.00028,2
5099,5352,-5.9999999999999995e-05,0.0,-4e-05,7e-05,0.0001,0.00011,0.0,-0.00028,2
5100,5353,-5.9999999999999995e-05,0.0,-4e-05,7e-05,0.0001,0.00011,0.0,-0.00028,2
5101,5354,-5.9999999999999995e-05,0.0,-4e-05,7e-05,0.0001,0.00011,0.0,-0.00028,2
5102,5355,-5.9999999999999995e-05,0.0,-4e-05,7e-05,0.0001,0.00011,0.0,-0.00028,2
5103,5356,-5.9999999999999995e-05,0.0,-4e-05,7e-05,0.0001,0.00011,0.0,-0.00028,2
5104,5357,-5.9999999999999995e-05,0.0,-4e-05,7e-05,0.0001,0.00011,0.0,-0.00028,2
5105,5358,-5.9999999999999995e-05,0.0,-4e-05,7e-05,0.0001,0.00011,0.0,-0.00028,2
5106,5359,-5.9999999999999995e-05,0.0,-4e-05,7e-05,0.0001,0.00011,0.0,-0.00028,2
5107,5360,-5.9999999999999995e-05,0.0,-4e-05,7e-05,0.0001,0.00011,0.0,-0.00028,2
5108,5361,-5.9999999999999995e-05,0.0,-4e-05,7e-05,0.0001,0.00011,0.0,-0.00028,2
5109,5362,-5.9999999999999995e-05,0.0,-4e-05,7e-05,0.0001,0.00011,0.0,-0.00028,2
5110,5363,-5.9999999999999995e-05,0.0,-4e-05,7e-05,0.0001,0.00011,0.0,-0.00028,2
5111,5364,-5.9999999999999995e-05,0.0,-4e-05,7e-05,0.0001,0.00011,0.0,-0.00028,2
5112,5365,-5.9999999999999995e-05,0.0,-4e-05,7e-05,0.0001,0.00011,0.0,-0.00028,2
5113,5366,-5.9999999999999995e-05,0.0,-4e-05,7e-05,0.0001,0.00011,0.0,-0.00028,2
5114,5367,-5.9999999999999995e-05,0.0,-4e-05,7e-05,0.0001,0.00011,0.0,-0.00028,2
5115,5368,-5.9999999999999995e-05,0.0,-4e-05,7e-05,0.0001,0.00011,0.0,-0.00028,2
5116,5369,0.00011,-2e-05,-0.0001,0.00114,2.9999999999999997e-05,9e-05,0.00018999999999999998,0.00016,2
5117,5370,0.0,-1e-05,0.0001,0.00016,2.9999999999999997e-05,-0.0001,-7e-05,1e-05,2
5118,5371,0.0,-1e-05,0.0001,0.00016,2.9999999999999997e-05,-0.0001,-7e-05,1e-05,2
5119,5372,0.0,-1e-05,0.0001,0.00016,2.9999999999999997e-05,-0.0001,-7e-05,1e-05,2
5120,5373,0.0,-1e-05,0.0001,0.00016,2.9999999999999997e-05,-0.0001,-7e-05,1e-05,2
5121,5374,0.0,-1e-05,0.0001,0.00016,2.9999999999999997e-05,-0.0001,-7e-05,1e-05,2
5122,5375,0.0,-1e-05,0.0001,0.00016,2.9999999999999997e-05,-0.0001,-7e-05,1e-05,2
5123,5376,0.0,-1e-05,0.0001,0.00016,2.9999999999999997e-05,-0.0001,-7e-05,1e-05,2
5124,5377,0.0,-1e-05,0.0001,0.00016,2.9999999999999997e-05,-0.0001,-7e-05,1e-05,2
5125,5378,0.0,-1e-05,0.0001,0.00016,2.9999999999999997e-05,-0.0001,-7e-05,1e-05,2
5126,5379,0.0,-1e-05,0.0001,0.00016,2.9999999999999997e-05,-0.0001,-7e-05,1e-05,2
5127,5380,0.0,-1e-05,0.0001,0.00016,2.9999999999999997e-05,-0.0001,-7e-05,1e-05,2
5128,5381,0.0,-1e-05,0.0001,0.00016,2.9999999999999997e-05,-0.0001,-7e-05,1e-05,2
5129,5382,0.0,-1e-05,0.0001,0.00016,2.9999999999999997e-05,-0.0001,-7e-05,1e-05,2
5130,5383,0.0,-1e-05,0.0001,0.00016,2.9999999999999997e-05,-0.0001,-7e-05,1e-05,2
5131,5384,0.0,-1e-05,0.0001,0.00016,2.9999999999999997e-05,-0.0001,-7e-05,1e-05,2
5132,5385,0.0,-1e-05,0.0001,0.00016,2.9999999999999997e-05,-0.0001,-7e-05,1e-05,2
5133,5386,0.0,-1e-05,0.0001,0.00016,2.9999999999999997e-05,-0.0001,-7e-05,1e-05,2
5134,5388,0.0,-1e-05,0.0001,0.00016,2.9999999999999997e-05,-0.0001,-7e-05,1e-05,2
5135,5389,0.0,-1e-05,0.0001,0.00016,2.9999999999999997e-05,-0.0001,-7e-05,1e-05,2
5136,5390,-0.00013000000000000002,-2e-05,-0.00014,-0.0005099999999999999,2.9999999999999997e-05,-0.00011,-5e-05,-5e-05,2
5137,5391,2.9999999999999997e-05,-5.9999999999999995e-05,-4e-05,5e-05,-2e-05,-0.00011999999999999999,-0.00014,0.0002,2
5138,5392,2.9999999999999997e-05,-5.9999999999999995e-05,-4e-05,5e-05,-2e-05,-0.00011999999999999999,-0.00014,0.0002,2
5139,5393,2.9999999999999997e-05,-5.9999999999999995e-05,-4e-05,5e-05,-2e-05,-0.00011999999999999999,-0.00014,0.0002,2
5140,5394,2.9999999999999997e-05,-5.9999999999999995e-05,-4e-05,5e-05,-2e-05,-0.00011999999999999999,-0.00014,0.0002,2
5141,5395,2.9999999999999997e-05,-5.9999999999999995e-05,-4e-05,5e-05,-2e-05,-0.00011999999999999999,-0.00014,0.0002,2
5142,5396,2.9999999999999997e-05,-5.9999999999999995e-05,-4e-05,5e-05,-2e-05,-0.00011999999999999999,-0.00014,0.0002,2
5143,5397,2.9999999999999997e-05,-5.9999999999999995e-05,-4e-05,5e-05,-2e-05,-0.00011999999999999999,-0.00014,0.0002,2
5144,5398,2.9999999999999997e-05,-5.9999999999999995e-05,-4e-05,5e-05,-2e-05,-0.00011999999999999999,-0.00014,0.0002,2
5145,5399,2.9999999999999997e-05,-5.9999999999999995e-05,-4e-05,5e-05,-2e-05,-0.00011999999999999999,-0.00014,0.0002,2
5146,5400,2.9999999999999997e-05,-5.9999999999999995e-05,-4e-05,5e-05,-2e-05,-0.00011999999999999999,-0.00014,0.0002,2
5147,5401,2.9999999999999997e-05,-5.9999999999999995e-05,-4e-05,5e-05,-2e-05,-0.00011999999999999999,-0.00014,0.0002,2
5148,5402,2.9999999999999997e-05,-5.9999999999999995e-05,-4e-05,5e-05,-2e-05,-0.00011999999999999999,-0.00014,0.0002,2
5149,5403,2.9999999999999997e-05,-5.9999999999999995e-05,-4e-05,5e-05,-2e-05,-0.00011999999999999999,-0.00014,0.0002,2
5150,5404,2.9999999999999997e-05,-5.9999999999999995e-05,-4e-05,5e-05,-2e-05,-0.00011999999999999999,-0.00014,0.0002,2
5151,5405,2.9999999999999997e-05,-5.9999999999999995e-05,-4e-05,5e-05,-2e-05,-0.00011999999999999999,-0.00014,0.0002,2
5152,5406,2.9999999999999997e-05,-5.9999999999999995e-05,-4e-05,5e-05,-2e-05,-0.00011999999999999999,-0.00014,0.0002,2
5153,5407,2.9999999999999997e-05,-5.9999999999999995e-05,-4e-05,5e-05,-2e-05,-0.00011999999999999999,-0.00014,0.0002,2
5154,5408,2.9999999999999997e-05,-5.9999999999999995e-05,-4e-05,5e-05,-2e-05,-0.00011999999999999999,-0.00014,0.0002,2
5155,5409,2.9999999999999997e-05,-5.9999999999999995e-05,-4e-05,5e-05,-2e-05,-0.00011999999999999999,-0.00014,0.0002,2
5156,5410,2.9999999999999997e-05,-5.9999999999999995e-05,-4e-05,5e-05,-2e-05,-0.00011999999999999999,-0.00014,0.0002,2
5157,5411,2.9999999999999997e-05,-5.9999999999999995e-05,-4e-05,5e-05,-2e-05,-0.00011999999999999999,-0.00014,0.0002,2
5158,5412,-2e-05,-1e-05,-8e-05,-0.00021,1e-05,2e-05,-1e-05,-0.00011,2
5159,5413,-2e-05,-1e-05,-8e-05,-0.00021,1e-05,2e-05,-1e-05,-0.00011,2
5160,5414,-1e-05,-1e-05,4e-05,-4e-05,-5.9999999999999995e-05,2.9999999999999997e-05,7e-05,5e-05,2
5161,5415,-0.00016,-4e-05,-2.9999999999999997e-05,0.00029,-2e-05,-2.9999999999999997e-05,-0.00016999999999999999,-0.00033,2
5162,5416,-0.00016,-4e-05,-2.9999999999999997e-05,0.00029,-2e-05,-2.9999999999999997e-05,-0.00016999999999999999,-0.00033,2
5163,5417,-0.00016,-4e-05,-2.9999999999999997e-05,0.00029,-2e-05,-2.9999999999999997e-05,-0.00016999999999999999,-0.00033,2
5164,5418,-0.00016,-4e-05,-2.9999999999999997e-05,0.00029,-2e-05,-2.9999999999999997e-05,-0.00016999999999999999,-0.00033,2
5165,5419,-0.00016,-4e-05,-2.9999999999999997e-05,0.00029,-2e-05,-2.9999999999999997e-05,-0.00016999999999999999,-0.00033,2
5166,5420,-0.00016,-4e-05,-2.9999999999999997e-05,0.00029,-2e-05,-2.9999999999999997e-05,-0.00016999999999999999,-0.00033,2
5167,5421,-0.00016,-4e-05,-2.9999999999999997e-05,0.00029,-2e-05,-2.9999999999999997e-05,-0.00016999999999999999,-0.00033,2
5168,5422,-0.00016,-4e-05,-2.9999999999999997e-05,0.00029,-2e-05,-2.9999999999999997e-05,-0.00016999999999999999,-0.00033,2
5169,5423,-0.00016,-4e-05,-2.9999999999999997e-05,0.00029,-2e-05,-2.9999999999999997e-05,-0.00016999999999999999,-0.00033,2
5170,5424,-0.00016,-4e-05,-2.9999999999999997e-05,0.00029,-2e-05,-2.9999999999999997e-05,-0.00016999999999999999,-0.00033,2
5171,5425,-0.00016,-4e-05,-2.9999999999999997e-05,0.00029,-2e-05,-2.9999999999999997e-05,-0.00016999999999999999,-0.00033,2
5172,5426,-0.00016,-4e-05,-2.9999999999999997e-05,0.00029,-2e-05,-2.9999999999999997e-05,-0.00016999999999999999,-0.00033,2
5173,5427,-0.00016,-4e-05,-2.9999999999999997e-05,0.00029,-2e-05,-2.9999999999999997e-05,-0.00016999999999999999,-0.00033,2
5174,5428,-0.00016,-4e-05,-2.9999999999999997e-05,0.00029,-2e-05,-2.9999999999999997e-05,-0.00016999999999999999,-0.00033,2
5175,5429,-0.00016,-4e-05,-2.9999999999999997e-05,0.00029,-2e-05,-2.9999999999999997e-05,-0.00016999999999999999,-0.00033,2
5176,5430,-0.00016,-4e-05,-2.9999999999999997e-05,0.00029,-2e-05,-2.9999999999999997e-05,-0.00016999999999999999,-0.00033,2
5177,5431,-0.00016,-4e-05,-2.9999999999999997e-05,0.00029,-2e-05,-2.9999999999999997e-05,-0.00016999999999999999,-0.00033,2
5178,5432,-0.00016,-4e-05,-2.9999999999999997e-05,0.00029,-2e-05,-2.9999999999999997e-05,-0.00016999999999999999,-0.00033,2
5179,5433,-0.00016,-4e-05,-2.9999999999999997e-05,0.00029,-2e-05,-2.9999999999999997e-05,-0.00016999999999999999,-0.00033,2
5180,5434,0.00015,0.0,2.9999999999999997e-05,-0.0001,-4e-05,-0.00016999999999999999,5.9999999999999995e-05,0.00025,2
5181,5435,0.00015,0.0,2.9999999999999997e-05,-0.0001,-4e-05,-0.00016999999999999999,5.9999999999999995e-05,0.00025,2
5182,5436,0.00015,0.0,2.9999999999999997e-05,-0.0001,-4e-05,-0.00016999999999999999,5.9999999999999995e-05,0.00025,2
5183,5439,0.00015,0.0,2.9999999999999997e-05,-0.0001,-4e-05,-0.00016999999999999999,5.9999999999999995e-05,0.00025,2
5184,5440,0.00015,0.0,2.9999999999999997e-05,-0.0001,-4e-05,-0.00016999999999999999,5.9999999999999995e-05,0.00025,2
5185,5441,0.00015,0.0,2.9999999999999997e-05,-0.0001,-4e-05,-0.00016999999999999999,5.9999999999999995e-05,0.00025,2
5186,5442,-0.00014,-2e-05,-5e-05,0.0001,2e-05,-0.00011999999999999999,-0.00011,-0.00015,2
5187,5443,0.00016999999999999999,2.9999999999999997e-05,-1e-05,-0.00023999999999999998,-5e-05,5e-05,0.00015,4e-05,2
5188,5444,0.00016999999999999999,2.9999999999999997e-05,-1e-05,-0.00023999999999999998,-5e-05,5e-05,0.00015,4e-05,2
5189,5445,0.00016999999999999999,2.9999999999999997e-05,-1e-05,-0.00023999999999999998,-5e-05,5e-05,0.00015,4e-05,2
5190,5446,0.00016999999999999999,2.9999999999999997e-05,-1e-05,-0.00023999999999999998,-5e-05,5e-05,0.00015,4e-05,2
5191,5447,0.00016999999999999999,2.9999999999999997e-05,-1e-05,-0.00023999999999999998,-5e-05,5e-05,0.00015,4e-05,2
5192,5448,0.00016999999999999999,2.9999999999999997e-05,-1e-05,-0.00023999999999999998,-5e-05,5e-05,0.00015,4e-05,2
5193,5449,0.00016999999999999999,2.9999999999999997e-05,-1e-05,-0.00023999999999999998,-5e-05,5e-05,0.00015,4e-05,2
5194,5450,0.00016999999999999999,2.9999999999999997e-05,-1e-05,-0.00023999999999999998,-5e-05,5e-05,0.00015,4e-05,2
5195,5451,0.00016999999999999999,2.9999999999999997e-05,-1e-05,-0.00023999999999999998,-5e-05,5e-05,0.00015,4e-05,2
5196,5452,0.00016999999999999999,2.9999999999999997e-05,-1e-05,-0.00023999999999999998,-5e-05,5e-05,0.00015,4e-05,2
5197,5453,0.00016999999999999999,2.9999999999999997e-05,-1e-05,-0.00023999999999999998,-5e-05,5e-05,0.00015,4e-05,2
5198,5454,0.00016999999999999999,2.9999999999999997e-05,-1e-05,-0.00023999999999999998,-5e-05,5e-05,0.00015,4e-05,2
5199,5455,0.00016999999999999999,2.9999999999999997e-05,-1e-05,-0.00023999999999999998,-5e-05,5e-05,0.00015,4e-05,2
5200,5456,0.00016999999999999999,2.9999999999999997e-05,-1e-05,-0.00023999999999999998,-5e-05,5e-05,0.00015,4e-05,2
5201,5457,0.00016999999999999999,2.9999999999999997e-05,-1e-05,-0.00023999999999999998,-5e-05,5e-05,0.00015,4e-05,2
5202,5458,0.00016999999999999999,2.9999999999999997e-05,-1e-05,-0.00023999999999999998,-5e-05,5e-05,0.00015,4e-05,2
5203,5459,0.00016999999999999999,2.9999999999999997e-05,-1e-05,-0.00023999999999999998,-5e-05,5e-05,0.00015,4e-05,2
5204,5460,0.00016999999999999999,2.9999999999999997e-05,-1e-05,-0.00023999999999999998,-5e-05,5e-05,0.00015,4e-05,2
5205,5462,0.00016999999999999999,2.9999999999999997e-05,-1e-05,-0.00023999999999999998,-5e-05,5e-05,0.00015,4e-05,2
5206,5463,0.00016999999999999999,2.9999999999999997e-05,-1e-05,-0.00023999999999999998,-5e-05,5e-05,0.00015,4e-05,2
5207,5464,0.00016999999999999999,2.9999999999999997e-05,-1e-05,-0.00023999999999999998,-5e-05,5e-05,0.00015,4e-05,2
5208,5465,-0.0001,-1e-05,7e-05,-0.0002,-4e-05,-4e-05,-8e-05,-0.0002,2
5209,5466,-7e-05,-2.9999999999999997e-05,-5.9999999999999995e-05,0.00032,-5e-05,0.00011999999999999999,0.0,-0.00022999999999999998,2
5210,5467,-7e-05,-2.9999999999999997e-05,-5.9999999999999995e-05,0.00032,-5e-05,0.00011999999999999999,0.0,-0.00022999999999999998,2
5211,5468,-7e-05,-2.9999999999999997e-05,-5.9999999999999995e-05,0.00032,-5e-05,0.00011999999999999999,0.0,-0.00022999999999999998,2
5212,5469,-7e-05,-2.9999999999999997e-05,-5.9999999999999995e-05,0.00032,-5e-05,0.00011999999999999999,0.0,-0.00022999999999999998,2
5213,5470,-7e-05,-2.9999999999999997e-05,-5.9999999999999995e-05,0.00032,-5e-05,0.00011999999999999999,0.0,-0.00022999999999999998,2
5214,5471,-7e-05,-2.9999999999999997e-05,-5.9999999999999995e-05,0.00032,-5e-05,0.00011999999999999999,0.0,-0.00022999999999999998,2
5215,5472,-7e-05,-2.9999999999999997e-05,-5.9999999999999995e-05,0.00032,-5e-05,0.00011999999999999999,0.0,-0.00022999999999999998,2
5216,5473,-7e-05,-2.9999999999999997e-05,-5.9999999999999995e-05,0.00032,-5e-05,0.00011999999999999999,0.0,-0.00022999999999999998,2
5217,5474,-7e-05,-2.9999999999999997e-05,-5.9999999999999995e-05,0.00032,-5e-05,0.00011999999999999999,0.0,-0.00022999999999999998,2
5218,5475,-7e-05,-2.9999999999999997e-05,-5.9999999999999995e-05,0.00032,-5e-05,0.00011999999999999999,0.0,-0.00022999999999999998,2
5219,5476,-7e-05,-2.9999999999999997e-05,-5.9999999999999995e-05,0.00032,-5e-05,0.00011999999999999999,0.0,-0.00022999999999999998,2
5220,5477,-7e-05,-2.9999999999999997e-05,-5.9999999999999995e-05,0.00032,-5e-05,0.00011999999999999999,0.0,-0.00022999999999999998,2
5221,5478,-7e-05,-2.9999999999999997e-05,-5.9999999999999995e-05,0.00032,-5e-05,0.00011999999999999999,0.0,-0.00022999999999999998,2
5222,5479,-7e-05,-2.9999999999999997e-05,-5.9999999999999995e-05,0.00032,-5e-05,0.00011999999999999999,0.0,-0.00022999999999999998,2
5223,5480,-7e-05,-2.9999999999999997e-05,-5.9999999999999995e-05,0.00032,-5e-05,0.00011999999999999999,0.0,-0.00022999999999999998,2
5224,5481,-7e-05,-2.9999999999999997e-05,-5.9999999999999995e-05,0.00032,-5e-05,0.00011999999999999999,0.0,-0.00022999999999999998,2
5225,5482,-7e-05,-2.9999999999999997e-05,-5.9999999999999995e-05,0.00032,-5e-05,0.00011999999999999999,0.0,-0.00022999999999999998,2
5226,5483,-7e-05,-2.9999999999999997e-05,-5.9999999999999995e-05,0.00032,-5e-05,0.00011999999999999999,0.0,-0.00022999999999999998,2
5227,5484,-7e-05,-2.9999999999999997e-05,-5.9999999999999995e-05,0.00032,-5e-05,0.00011999999999999999,0.0,-0.00022999999999999998,2
5228,5485,-7e-05,-2.9999999999999997e-05,-5.9999999999999995e-05,0.00032,-5e-05,0.00011999999999999999,0.0,-0.00022999999999999998,2
5229,5486,-7e-05,-2.9999999999999997e-05,-5.9999999999999995e-05,0.00032,-5e-05,0.00011999999999999999,0.0,-0.00022999999999999998,2
5230,5489,-0.0001,-2.9999999999999997e-05,4e-05,-0.00032,2e-05,-0.00013000000000000002,-7e-05,0.0,2
5231,5490,-0.0001,-2.9999999999999997e-05,4e-05,-0.00032,2e-05,-0.00013000000000000002,-7e-05,0.0,2
5232,5491,-0.0001,-2.9999999999999997e-05,4e-05,-0.00032,2e-05,-0.00013000000000000002,-7e-05,0.0,2
5233,5492,-0.0001,-2.9999999999999997e-05,4e-05,-0.00032,2e-05,-0.00013000000000000002,-7e-05,0.0,2
5234,5493,-0.0001,-2.9999999999999997e-05,4e-05,-0.00032,2e-05,-0.00013000000000000002,-7e-05,0.0,2
5235,5494,-0.0001,-2.9999999999999997e-05,4e-05,-0.00032,2e-05,-0.00013000000000000002,-7e-05,0.0,2
5236,5495,-0.0001,-2.9999999999999997e-05,4e-05,-0.00032,2e-05,-0.00013000000000000002,-7e-05,0.0,2
5237,5496,-0.0001,-2.9999999999999997e-05,4e-05,-0.00032,2e-05,-0.00013000000000000002,-7e-05,0.0,2
5238,5497,-0.0001,-2.9999999999999997e-05,4e-05,-0.00032,2e-05,-0.00013000000000000002,-7e-05,0.0,2
5239,5498,-0.0001,-2.9999999999999997e-05,4e-05,-0.00032,2e-05,-0.00013000000000000002,-7e-05,0.0,2
5240,5499,-0.0001,-2.9999999999999997e-05,4e-05,-0.00032,2e-05,-0.00013000000000000002,-7e-05,0.0,2
5241,5500,-0.0001,-2.9999999999999997e-05,4e-05,-0.00032,2e-05,-0.00013000000000000002,-7e-05,0.0,2
5242,5501,-0.0001,-2.9999999999999997e-05,4e-05,-0.00032,2e-05,-0.00013000000000000002,-7e-05,0.0,2
5243,5502,-0.0001,-2.9999999999999997e-05,4e-05,-0.00032,2e-05,-0.00013000000000000002,-7e-05,0.0,2
5244,5503,-0.0001,-2.9999999999999997e-05,4e-05,-0.00032,2e-05,-0.00013000000000000002,-7e-05,0.0,2
5245,5504,-0.0001,-2.9999999999999997e-05,4e-05,-0.00032,2e-05,-0.00013000000000000002,-7e-05,0.0,2
5246,5505,-0.0001,-2.9999999999999997e-05,4e-05,-0.00032,2e-05,-0.00013000000000000002,-7e-05,0.0,2
5247,5506,-0.0001,-2.9999999999999997e-05,4e-05,-0.00032,2e-05,-0.00013000000000000002,-7e-05,0.0,2
5248,5507,-0.0001,-2.9999999999999997e-05,4e-05,-0.00032,2e-05,-0.00013000000000000002,-7e-05,0.0,2
5249,5508,-8e-05,-2e-05,-0.00018999999999999998,-5.9999999999999995e-05,-2e-05,4e-05,7e-05,-1e-05,2
5250,5509,0.0,0.0,2.9999999999999997e-05,0.00018999999999999998,4e-05,2e-05,-0.00015,-0.00018,2
5251,5510,0.0,0.0,2.9999999999999997e-05,0.00018999999999999998,4e-05,2e-05,-0.00015,-0.00018,2
5252,5511,0.0,0.0,2.9999999999999997e-05,0.00018999999999999998,4e-05,2e-05,-0.00015,-0.00018,2
5253,5512,0.0,0.0,2.9999999999999997e-05,0.00018999999999999998,4e-05,2e-05,-0.00015,-0.00018,2
5254,5513,0.0,0.0,2.9999999999999997e-05,0.00018999999999999998,4e-05,2e-05,-0.00015,-0.00018,2
5255,5514,0.0,0.0,2.9999999999999997e-05,0.00018999999999999998,4e-05,2e-05,-0.00015,-0.00018,2
5256,5515,0.0,0.0,2.9999999999999997e-05,0.00018999999999999998,4e-05,2e-05,-0.00015,-0.00018,2
5257,5516,0.0,0.0,2.9999999999999997e-05,0.00018999999999999998,4e-05,2e-05,-0.00015,-0.00018,2
5258,5517,-8e-05,-5e-05,-2.9999999999999997e-05,9e-05,5.9999999999999995e-05,-0.00015,0.00018,-0.0001,2
5259,5518,0.00011,5e-05,8e-05,-0.00033999999999999997,-5.9999999999999995e-05,-4e-05,-7e-05,4e-05,2
5260,5519,0.00011,5e-05,8e-05,-0.00033999999999999997,-5.9999999999999995e-05,-4e-05,-7e-05,4e-05,2
5261,5520,0.00011,5e-05,8e-05,-0.00033999999999999997,-5.9999999999999995e-05,-4e-05,-7e-05,4e-05,2
5262,5521,0.00011,5e-05,8e-05,-0.00033999999999999997,-5.9999999999999995e-05,-4e-05,-7e-05,4e-05,2
5263,5522,0.00011,5e-05,8e-05,-0.00033999999999999997,-5.9999999999999995e-05,-4e-05,-7e-05,4e-05,2
5264,5523,0.00011,5e-05,8e-05,-0.00033999999999999997,-5.9999999999999995e-05,-4e-05,-7e-05,4e-05,2
5265,5524,0.00011,5e-05,8e-05,-0.00033999999999999997,-5.9999999999999995e-05,-4e-05,-7e-05,4e-05,2
5266,5525,0.00011,5e-05,8e-05,-0.00033999999999999997,-5.9999999999999995e-05,-4e-05,-7e-05,4e-05,2
5267,5526,0.00011,5e-05,8e-05,-0.00033999999999999997,-5.9999999999999995e-05,-4e-05,-7e-05,4e-05,2
5268,5527,0.00011,5e-05,8e-05,-0.00033999999999999997,-5.9999999999999995e-05,-4e-05,-7e-05,4e-05,2
5269,5528,0.00011,5e-05,8e-05,-0.00033999999999999997,-5.9999999999999995e-05,-4e-05,-7e-05,4e-05,2
5270,5529,0.00011,5e-05,8e-05,-0.00033999999999999997,-5.9999999999999995e-05,-4e-05,-7e-05,4e-05,2
5271,5530,0.00011,5e-05,8e-05,-0.00033999999999999997,-5.9999999999999995e-05,-4e-05,-7e-05,4e-05,2
5272,5531,0.00011,5e-05,8e-05,-0.00033999999999999997,-5.9999999999999995e-05,-4e-05,-7e-05,4e-05,2
5273,5532,0.00011,5e-05,8e-05,-0.00033999999999999997,-5.9999999999999995e-05,-4e-05,-7e-05,4e-05,2
5274,5533,0.00011,5e-05,8e-05,-0.00033999999999999997,-5.9999999999999995e-05,-4e-05,-7e-05,4e-05,2
5275,5534,0.00011,5e-05,8e-05,-0.00033999999999999997,-5.9999999999999995e-05,-4e-05,-7e-05,4e-05,2
5276,5535,0.00011,5e-05,8e-05,-0.00033999999999999997,-5.9999999999999995e-05,-4e-05,-7e-05,4e-05,2
5277,5536,0.00011,5e-05,8e-05,-0.00033999999999999997,-5.9999999999999995e-05,-4e-05,-7e-05,4e-05,2
5278,5538,0.00011,5e-05,8e-05,-0.00033999999999999997,-5.9999999999999995e-05,-4e-05,-7e-05,4e-05,2
5279,5539,0.00011,5e-05,8e-05,-0.00033999999999999997,-5.9999999999999995e-05,-4e-05,-7e-05,4e-05,2
5280,5540,-8e-05,0.0,-2.9999999999999997e-05,0.00023999999999999998,-1e-05,0.0,-2e-05,-0.00026000000000000003,2
5281,5541,-8e-05,0.0,-2.9999999999999997e-05,0.00023999999999999998,-1e-05,0.0,-2e-05,-0.00026000000000000003,2
5282,5542,-8e-05,0.0,-2.9999999999999997e-05,0.00023999999999999998,-1e-05,0.0,-2e-05,-0.00026000000000000003,2
5283,5543,-8e-05,0.0,-2.9999999999999997e-05,0.00023999999999999998,-1e-05,0.0,-2e-05,-0.00026000000000000003,2
5284,5544,-8e-05,0.0,-2.9999999999999997e-05,0.00023999999999999998,-1e-05,0.0,-2e-05,-0.00026000000000000003,2
5285,5545,-8e-05,0.0,-2.9999999999999997e-05,0.00023999999999999998,-1e-05,0.0,-2e-05,-0.00026000000000000003,2
5286,5546,-0.00013000000000000002,-2e-05,4e-05,0.00047999999999999996,-5.9999999999999995e-05,4e-05,-0.0002,-0.00036,2
5287,5547,-0.00013000000000000002,-2e-05,4e-05,0.00047999999999999996,-5.9999999999999995e-05,4e-05,-0.0002,-0.00036,2
5288,5548,-0.00013000000000000002,-2e-05,4e-05,0.00047999999999999996,-5.9999999999999995e-05,4e-05,-0.0002,-0.00036,2
5289,5549,-0.00013000000000000002,-2e-05,4e-05,0.00047999999999999996,-5.9999999999999995e-05,4e-05,-0.0002,-0.00036,2
5290,5550,-0.00013000000000000002,-2e-05,4e-05,0.00047999999999999996,-5.9999999999999995e-05,4e-05,-0.0002,-0.00036,2
5291,5551,-0.00013000000000000002,-2e-05,4e-05,0.00047999999999999996,-5.9999999999999995e-05,4e-05,-0.0002,-0.00036,2
5292,5552,-0.00013000000000000002,-2e-05,4e-05,0.00047999999999999996,-5.9999999999999995e-05,4e-05,-0.0002,-0.00036,2
5293,5553,-0.00013000000000000002,-2e-05,4e-05,0.00047999999999999996,-5.9999999999999995e-05,4e-05,-0.0002,-0.00036,2
5294,5554,-0.00013000000000000002,-2e-05,4e-05,0.00047999999999999996,-5.9999999999999995e-05,4e-05,-0.0002,-0.00036,2
5295,5555,-0.00013000000000000002,-2e-05,4e-05,0.00047999999999999996,-5.9999999999999995e-05,4e-05,-0.0002,-0.00036,2
5296,5556,-0.00013000000000000002,-2e-05,4e-05,0.00047999999999999996,-5.9999999999999995e-05,4e-05,-0.0002,-0.00036,2
5297,5557,-0.00013000000000000002,-2e-05,4e-05,0.00047999999999999996,-5.9999999999999995e-05,4e-05,-0.0002,-0.00036,2
5298,5558,-0.00013000000000000002,-2e-05,4e-05,0.00047999999999999996,-5.9999999999999995e-05,4e-05,-0.0002,-0.00036,2
5299,5559,-0.00013000000000000002,-2e-05,4e-05,0.00047999999999999996,-5.9999999999999995e-05,4e-05,-0.0002,-0.00036,2
5300,5560,-0.00013000000000000002,-2e-05,4e-05,0.00047999999999999996,-5.9999999999999995e-05,4e-05,-0.0002,-0.00036,2
5301,5561,-0.00013000000000000002,-2e-05,4e-05,0.00047999999999999996,-5.9999999999999995e-05,4e-05,-0.0002,-0.00036,2
5302,5562,-0.00013000000000000002,-2e-05,4e-05,0.00047999999999999996,-5.9999999999999995e-05,4e-05,-0.0002,-0.00036,2
5303,5563,5e-05,0.0,2e-05,-0.00021,-5e-05,5.9999999999999995e-05,-0.00022999999999999998,0.00031,2
5304,5564,5e-05,0.0,2e-05,-0.00021,-5e-05,5.9999999999999995e-05,-0.00022999999999999998,0.00031,2
5305,5565,5e-05,1e-05,1e-05,1e-05,5.9999999999999995e-05,-5.9999999999999995e-05,4e-05,0.00014,2
5306,5566,5e-05,1e-05,1e-05,1e-05,5.9999999999999995e-05,-5.9999999999999995e-05,4e-05,0.00014,2
5307,5567,5e-05,1e-05,1e-05,1e-05,5.9999999999999995e-05,-5.9999999999999995e-05,4e-05,0.00014,2
5308,5568,5e-05,1e-05,1e-05,1e-05,5.9999999999999995e-05,-5.9999999999999995e-05,4e-05,0.00014,2
5309,5569,5e-05,1e-05,1e-05,1e-05,5.9999999999999995e-05,-5.9999999999999995e-05,4e-05,0.00014,2
5310,5570,5e-05,1e-05,1e-05,1e-05,5.9999999999999995e-05,-5.9999999999999995e-05,4e-05,0.00014,2
5311,5571,5e-05,1e-05,1e-05,1e-05,5.9999999999999995e-05,-5.9999999999999995e-05,4e-05,0.00014,2
5312,5572,5e-05,1e-05,1e-05,1e-05,5.9999999999999995e-05,-5.9999999999999995e-05,4e-05,0.00014,2
5313,5573,5e-05,1e-05,1e-05,1e-05,5.9999999999999995e-05,-5.9999999999999995e-05,4e-05,0.00014,2
5314,5574,5e-05,1e-05,1e-05,1e-05,5.9999999999999995e-05,-5.9999999999999995e-05,4e-05,0.00014,2
5315,5575,5e-05,1e-05,1e-05,1e-05,5.9999999999999995e-05,-5.9999999999999995e-05,4e-05,0.00014,2
5316,5576,5e-05,1e-05,1e-05,1e-05,5.9999999999999995e-05,-5.9999999999999995e-05,4e-05,0.00014,2
5317,5577,5e-05,1e-05,1e-05,1e-05,5.9999999999999995e-05,-5.9999999999999995e-05,4e-05,0.00014,2
5318,5578,5e-05,1e-05,1e-05,1e-05,5.9999999999999995e-05,-5.9999999999999995e-05,4e-05,0.00014,2
5319,5579,5e-05,1e-05,1e-05,1e-05,5.9999999999999995e-05,-5.9999999999999995e-05,4e-05,0.00014,2
5320,5580,5e-05,1e-05,1e-05,1e-05,5.9999999999999995e-05,-5.9999999999999995e-05,4e-05,0.00014,2
5321,5581,5e-05,1e-05,1e-05,1e-05,5.9999999999999995e-05,-5.9999999999999995e-05,4e-05,0.00014,2
5322,5582,5e-05,1e-05,1e-05,1e-05,5.9999999999999995e-05,-5.9999999999999995e-05,4e-05,0.00014,2
5323,5583,0.00022999999999999998,5e-05,0.0,-0.00016,-0.0001,7e-05,0.00029,0.0003,2
5324,5584,0.00022999999999999998,5e-05,0.0,-0.00016,-0.0001,7e-05,0.00029,0.0003,2
5325,5585,0.00022999999999999998,5e-05,0.0,-0.00016,-0.0001,7e-05,0.00029,0.0003,2
5326,5586,0.00022999999999999998,5e-05,0.0,-0.00016,-0.0001,7e-05,0.00029,0.0003,2
5327,5588,0.00022999999999999998,5e-05,0.0,-0.00016,-0.0001,7e-05,0.00029,0.0003,2
5328,5589,0.00022999999999999998,5e-05,0.0,-0.00016,-0.0001,7e-05,0.00029,0.0003,2
5329,5590,0.00022999999999999998,5e-05,0.0,-0.00016,-0.0001,7e-05,0.00029,0.0003,2
5330,5591,0.00022999999999999998,5e-05,0.0,-0.00016,-0.0001,7e-05,0.00029,0.0003,2
5331,5592,-8e-05,-4e-05,4e-05,-0.00056,0.00011999999999999999,-1e-05,-7e-05,-2e-05,2
5332,5593,-8e-05,-4e-05,4e-05,-0.00056,0.00011999999999999999,-1e-05,-7e-05,-2e-05,2
5333,5594,-8e-05,-4e-05,4e-05,-0.00056,0.00011999999999999999,-1e-05,-7e-05,-2e-05,2
5334,5595,-8e-05,-4e-05,4e-05,-0.00056,0.00011999999999999999,-1e-05,-7e-05,-2e-05,2
5335,5596,-8e-05,-4e-05,4e-05,-0.00056,0.00011999999999999999,-1e-05,-7e-05,-2e-05,2
5336,5597,-8e-05,-4e-05,4e-05,-0.00056,0.00011999999999999999,-1e-05,-7e-05,-2e-05,2
5337,5598,-8e-05,-4e-05,4e-05,-0.00056,0.00011999999999999999,-1e-05,-7e-05,-2e-05,2
5338,5599,-8e-05,-4e-05,4e-05,-0.00056,0.00011999999999999999,-1e-05,-7e-05,-2e-05,2
5339,5600,-8e-05,-4e-05,4e-05,-0.00056,0.00011999999999999999,-1e-05,-7e-05,-2e-05,2
5340,5601,-8e-05,-4e-05,4e-05,-0.00056,0.00011999999999999999,-1e-05,-7e-05,-2e-05,2
5341,5602,-8e-05,-4e-05,4e-05,-0.00056,0.00011999999999999999,-1e-05,-7e-05,-2e-05,2
5342,5603,-8e-05,-4e-05,4e-05,-0.00056,0.00011999999999999999,-1e-05,-7e-05,-2e-05,2
5343,5604,-8e-05,-4e-05,4e-05,-0.00056,0.00011999999999999999,-1e-05,-7e-05,-2e-05,2
5344,5605,-8e-05,-4e-05,4e-05,-0.00056,0.00011999999999999999,-1e-05,-7e-05,-2e-05,2
5345,5606,-8e-05,-4e-05,4e-05,-0.00056,0.00011999999999999999,-1e-05,-7e-05,-2e-05,2
5346,5607,-8e-05,-4e-05,4e-05,-0.00056,0.00011999999999999999,-1e-05,-7e-05,-2e-05,2
5347,5608,-8e-05,-4e-05,4e-05,-0.00056,0.00011999999999999999,-1e-05,-7e-05,-2e-05,2
5348,5609,-8e-05,-4e-05,4e-05,-0.00056,0.00011999999999999999,-1e-05,-7e-05,-2e-05,2
5349,5610,-8e-05,-4e-05,4e-05,-0.00056,0.00011999999999999999,-1e-05,-7e-05,-2e-05,2
5350,5611,-8e-05,-4e-05,4e-05,-0.00056,0.00011999999999999999,-1e-05,-7e-05,-2e-05,2
5351,5612,-8e-05,-4e-05,4e-05,-0.00056,0.00011999999999999999,-1e-05,-7e-05,-2e-05,2
5352,5613,-8e-05,-4e-05,4e-05,-0.00056,0.00011999999999999999,-1e-05,-7e-05,-2e-05,2
5353,5614,-8e-05,-4e-05,4e-05,-0.00056,0.00011999999999999999,-1e-05,-7e-05,-2e-05,2
5354,5615,-0.00015,1e-05,0.00014,-0.0004,2e-05,-0.0001,-0.00016999999999999999,-0.00016999999999999999,2
5355,5616,4e-05,1e-05,0.0,0.00088,-4e-05,-4e-05,-7e-05,7e-05,2
5356,5617,4e-05,1e-05,0.0,0.00088,-4e-05,-4e-05,-7e-05,7e-05,2
5357,5618,4e-05,1e-05,0.0,0.00088,-4e-05,-4e-05,-7e-05,7e-05,2
5358,5619,4e-05,1e-05,0.0,0.00088,-4e-05,-4e-05,-7e-05,7e-05,2
5359,5620,4e-05,1e-05,0.0,0.00088,-4e-05,-4e-05,-7e-05,7e-05,2
5360,5621,4e-05,1e-05,0.0,0.00088,-4e-05,-4e-05,-7e-05,7e-05,2
5361,5622,4e-05,1e-05,0.0,0.00088,-4e-05,-4e-05,-7e-05,7e-05,2
5362,5623,4e-05,1e-05,0.0,0.00088,-4e-05,-4e-05,-7e-05,7e-05,2
5363,5624,4e-05,1e-05,0.0,0.00088,-4e-05,-4e-05,-7e-05,7e-05,2
5364,5625,4e-05,1e-05,0.0,0.00088,-4e-05,-4e-05,-7e-05,7e-05,2
5365,5626,4e-05,1e-05,0.0,0.00088,-4e-05,-4e-05,-7e-05,7e-05,2
5366,5627,4e-05,1e-05,0.0,0.00088,-4e-05,-4e-05,-7e-05,7e-05,2
5367,5628,4e-05,1e-05,0.0,0.00088,-4e-05,-4e-05,-7e-05,7e-05,2
5368,5629,4e-05,1e-05,0.0,0.00088,-4e-05,-4e-05,-7e-05,7e-05,2
5369,5630,4e-05,1e-05,0.0,0.00088,-4e-05,-4e-05,-7e-05,7e-05,2
5370,5631,4e-05,1e-05,0.0,0.00088,-4e-05,-4e-05,-7e-05,7e-05,2
5371,5632,4e-05,1e-05,0.0,0.00088,-4e-05,-4e-05,-7e-05,7e-05,2
5372,5633,4e-05,1e-05,0.0,0.00088,-4e-05,-4e-05,-7e-05,7e-05,2
5373,5634,4e-05,1e-05,0.0,0.00088,-4e-05,-4e-05,-7e-05,7e-05,2
5374,5635,4e-05,1e-05,0.0,0.00088,-4e-05,-4e-05,-7e-05,7e-05,2
5375,5637,-0.00016999999999999999,-5e-05,-2e-05,0.00022,2.9999999999999997e-05,0.00014,2e-05,-0.00028,2
5376,5640,-5.9999999999999995e-05,-5e-05,-7e-05,0.00057,-7e-05,2e-05,0.00023999999999999998,-0.00014,2
5377,5641,-5.9999999999999995e-05,-5e-05,-7e-05,0.00057,-7e-05,2e-05,0.00023999999999999998,-0.00014,2
5378,5642,-5.9999999999999995e-05,-5e-05,-7e-05,0.00057,-7e-05,2e-05,0.00023999999999999998,-0.00014,2
5379,5643,-5.9999999999999995e-05,-5e-05,-7e-05,0.00057,-7e-05,2e-05,0.00023999999999999998,-0.00014,2
5380,5644,-5.9999999999999995e-05,-5e-05,-7e-05,0.00057,-7e-05,2e-05,0.00023999999999999998,-0.00014,2
5381,5645,-5.9999999999999995e-05,-5e-05,-7e-05,0.00057,-7e-05,2e-05,0.00023999999999999998,-0.00014,2
5382,5646,-5.9999999999999995e-05,-5e-05,-7e-05,0.00057,-7e-05,2e-05,0.00023999999999999998,-0.00014,2
5383,5648,-5.9999999999999995e-05,-5e-05,-7e-05,0.00057,-7e-05,2e-05,0.00023999999999999998,-0.00014,2
5384,5649,-5.9999999999999995e-05,-5e-05,-7e-05,0.00057,-7e-05,2e-05,0.00023999999999999998,-0.00014,2
5385,5650,-5.9999999999999995e-05,-5e-05,-7e-05,0.00057,-7e-05,2e-05,0.00023999999999999998,-0.00014,2
5386,5651,-5.9999999999999995e-05,-5e-05,-7e-05,0.00057,-7e-05,2e-05,0.00023999999999999998,-0.00014,2
5387,5652,-5.9999999999999995e-05,-5e-05,-7e-05,0.00057,-7e-05,2e-05,0.00023999999999999998,-0.00014,2
5388,5653,-5.9999999999999995e-05,-5e-05,-7e-05,0.00057,-7e-05,2e-05,0.00023999999999999998,-0.00014,2
5389,5654,-5.9999999999999995e-05,-5e-05,-7e-05,0.00057,-7e-05,2e-05,0.00023999999999999998,-0.00014,2
5390,5655,-5.9999999999999995e-05,-5e-05,-7e-05,0.00057,-7e-05,2e-05,0.00023999999999999998,-0.00014,2
5391,5656,-5.9999999999999995e-05,-5e-05,-7e-05,0.00057,-7e-05,2e-05,0.00023999999999999998,-0.00014,2
5392,5657,-5.9999999999999995e-05,-5e-05,-7e-05,0.00057,-7e-05,2e-05,0.00023999999999999998,-0.00014,2
5393,5658,-5.9999999999999995e-05,-5e-05,-7e-05,0.00057,-7e-05,2e-05,0.00023999999999999998,-0.00014,2
5394,5659,-1e-05,-4e-05,-2.9999999999999997e-05,0.00033,-5.9999999999999995e-05,-2e-05,1e-05,0.00027,2
5395,5660,-1e-05,-4e-05,-2.9999999999999997e-05,0.00033,-5.9999999999999995e-05,-2e-05,1e-05,0.00027,2
5396,5661,-1e-05,-4e-05,-2.9999999999999997e-05,0.00033,-5.9999999999999995e-05,-2e-05,1e-05,0.00027,2
5397,5662,-1e-05,-4e-05,-2.9999999999999997e-05,0.00033,-5.9999999999999995e-05,-2e-05,1e-05,0.00027,2
5398,5663,-1e-05,-4e-05,-2.9999999999999997e-05,0.00033,-5.9999999999999995e-05,-2e-05,1e-05,0.00027,2
5399,5664,-1e-05,-4e-05,-2.9999999999999997e-05,0.00033,-5.9999999999999995e-05,-2e-05,1e-05,0.00027,2
5400,5665,-1e-05,-4e-05,-2.9999999999999997e-05,0.00033,-5.9999999999999995e-05,-2e-05,1e-05,0.00027,2
5401,5666,-1e-05,-4e-05,-2.9999999999999997e-05,0.00033,-5.9999999999999995e-05,-2e-05,1e-05,0.00027,2
5402,5667,0.0,-2e-05,2e-05,-0.00057,-5e-05,7e-05,0.0001,5.9999999999999995e-05,2
5403,5668,0.0,-2e-05,2e-05,-0.00057,-5e-05,7e-05,0.0001,5.9999999999999995e-05,2
5404,5669,0.0,-2e-05,2e-05,-0.00057,-5e-05,7e-05,0.0001,5.9999999999999995e-05,2
5405,5670,0.0,-2e-05,2e-05,-0.00057,-5e-05,7e-05,0.0001,5.9999999999999995e-05,2
5406,5671,0.0,-2e-05,2e-05,-0.00057,-5e-05,7e-05,0.0001,5.9999999999999995e-05,2
5407,5672,0.0,-2e-05,2e-05,-0.00057,-5e-05,7e-05,0.0001,5.9999999999999995e-05,2
5408,5673,0.0,-2e-05,2e-05,-0.00057,-5e-05,7e-05,0.0001,5.9999999999999995e-05,2
5409,5674,0.0,-2e-05,2e-05,-0.00057,-5e-05,7e-05,0.0001,5.9999999999999995e-05,2
5410,5675,0.0,-2e-05,2e-05,-0.00057,-5e-05,7e-05,0.0001,5.9999999999999995e-05,2
5411,5676,0.0,-2e-05,2e-05,-0.00057,-5e-05,7e-05,0.0001,5.9999999999999995e-05,2
5412,5677,0.0,-2e-05,2e-05,-0.00057,-5e-05,7e-05,0.0001,5.9999999999999995e-05,2
5413,5678,0.0,-2e-05,2e-05,-0.00057,-5e-05,7e-05,0.0001,5.9999999999999995e-05,2
5414,5679,0.0,-2e-05,2e-05,-0.00057,-5e-05,7e-05,0.0001,5.9999999999999995e-05,2
5415,5680,0.0,-2e-05,2e-05,-0.00057,-5e-05,7e-05,0.0001,5.9999999999999995e-05,2
5416,5681,0.0,-2e-05,2e-05,-0.00057,-5e-05,7e-05,0.0001,5.9999999999999995e-05,2
5417,5682,0.0,-2e-05,2e-05,-0.00057,-5e-05,7e-05,0.0001,5.9999999999999995e-05,2
5418,5683,0.0,-2e-05,2e-05,-0.00057,-5e-05,7e-05,0.0001,5.9999999999999995e-05,2
5419,5684,0.0,-2e-05,2e-05,-0.00057,-5e-05,7e-05,0.0001,5.9999999999999995e-05,2
5420,5685,0.0,-2e-05,2e-05,-0.00057,-5e-05,7e-05,0.0001,5.9999999999999995e-05,2
5421,5686,0.0,-2e-05,2e-05,-0.00057,-5e-05,7e-05,0.0001,5.9999999999999995e-05,2
5422,5688,0.0,-2e-05,2e-05,-0.00057,-5e-05,7e-05,0.0001,5.9999999999999995e-05,2
5423,5689,0.0,-2e-05,2e-05,-0.00057,-5e-05,7e-05,0.0001,5.9999999999999995e-05,2
5424,5690,0.00011999999999999999,-2e-05,-1e-05,-0.0005200000000000001,-5e-05,9e-05,4e-05,0.00013000000000000002,2
5425,5691,-2.9999999999999997e-05,1e-05,0.00011,-0.00022999999999999998,5e-05,1e-05,-0.00018999999999999998,-1e-05,2
5426,5692,-2.9999999999999997e-05,1e-05,0.00011,-0.00022999999999999998,5e-05,1e-05,-0.00018999999999999998,-1e-05,2
5427,5693,-2.9999999999999997e-05,1e-05,0.00011,-0.00022999999999999998,5e-05,1e-05,-0.00018999999999999998,-1e-05,2
5428,5694,-2.9999999999999997e-05,1e-05,0.00011,-0.00022999999999999998,5e-05,1e-05,-0.00018999999999999998,-1e-05,2
5429,5695,-2.9999999999999997e-05,1e-05,0.00011,-0.00022999999999999998,5e-05,1e-05,-0.00018999999999999998,-1e-05,2
5430,5696,-2.9999999999999997e-05,1e-05,0.00011,-0.00022999999999999998,5e-05,1e-05,-0.00018999999999999998,-1e-05,2
5431,5697,-2.9999999999999997e-05,1e-05,0.00011,-0.00022999999999999998,5e-05,1e-05,-0.00018999999999999998,-1e-05,2
5432,5698,-2.9999999999999997e-05,1e-05,0.00011,-0.00022999999999999998,5e-05,1e-05,-0.00018999999999999998,-1e-05,2
5433,5699,-2.9999999999999997e-05,1e-05,0.00011,-0.00022999999999999998,5e-05,1e-05,-0.00018999999999999998,-1e-05,2
5434,5700,-2.9999999999999997e-05,1e-05,0.00011,-0.00022999999999999998,5e-05,1e-05,-0.00018999999999999998,-1e-05,2
5435,5701,-2.9999999999999997e-05,1e-05,0.00011,-0.00022999999999999998,5e-05,1e-05,-0.00018999999999999998,-1e-05,2
5436,5702,-2.9999999999999997e-05,1e-05,0.00011,-0.00022999999999999998,5e-05,1e-05,-0.00018999999999999998,-1e-05,2
5437,5703,-2.9999999999999997e-05,1e-05,0.00011,-0.00022999999999999998,5e-05,1e-05,-0.00018999999999999998,-1e-05,2
5438,5704,-2.9999999999999997e-05,1e-05,0.00011,-0.00022999999999999998,5e-05,1e-05,-0.00018999999999999998,-1e-05,2
5439,5705,-2.9999999999999997e-05,1e-05,0.00011,-0.00022999999999999998,5e-05,1e-05,-0.00018999999999999998,-1e-05,2
5440,5706,-2.9999999999999997e-05,1e-05,0.00011,-0.00022999999999999998,5e-05,1e-05,-0.00018999999999999998,-1e-05,2
5441,5707,-2.9999999999999997e-05,1e-05,0.00011,-0.00022999999999999998,5e-05,1e-05,-0.00018999999999999998,-1e-05,2
5442,5708,-2.9999999999999997e-05,1e-05,0.00011,-0.00022999999999999998,5e-05,1e-05,-0.00018999999999999998,-1e-05,2
5443,5709,-2.9999999999999997e-05,1e-05,0.00011,-0.00022999999999999998,5e-05,1e-05,-0.00018999999999999998,-1e-05,2
5444,5710,-2.9999999999999997e-05,1e-05,0.00011,-0.00022999999999999998,5e-05,1e-05,-0.00018999999999999998,-1e-05,2
5445,5711,-2.9999999999999997e-05,1e-05,0.00011,-0.00022999999999999998,5e-05,1e-05,-0.00018999999999999998,-1e-05,2
5446,5712,0.0001,2e-05,0.0001,-0.00018,-8e-05,-9e-05,-0.00016,0.00027,2
5447,5713,0.0001,2e-05,0.0001,-0.00018,-8e-05,-9e-05,-0.00016,0.00027,2
5448,5714,-4e-05,-5e-05,-5e-05,0.00022999999999999998,-2e-05,2.9999999999999997e-05,-2.9999999999999997e-05,-5e-05,2
5449,5715,-4e-05,-5e-05,-5e-05,0.00022999999999999998,-2e-05,2.9999999999999997e-05,-2.9999999999999997e-05,-5e-05,2
5450,5716,-4e-05,-5e-05,-5e-05,0.00022999999999999998,-2e-05,2.9999999999999997e-05,-2.9999999999999997e-05,-5e-05,2
5451,5717,-4e-05,-5e-05,-5e-05,0.00022999999999999998,-2e-05,2.9999999999999997e-05,-2.9999999999999997e-05,-5e-05,2
5452,5718,-4e-05,-5e-05,-5e-05,0.00022999999999999998,-2e-05,2.9999999999999997e-05,-2.9999999999999997e-05,-5e-05,2
5453,5719,-4e-05,-5e-05,-5e-05,0.00022999999999999998,-2e-05,2.9999999999999997e-05,-2.9999999999999997e-05,-5e-05,2
5454,5720,-4e-05,-5e-05,-5e-05,0.00022999999999999998,-2e-05,2.9999999999999997e-05,-2.9999999999999997e-05,-5e-05,2
5455,5721,-4e-05,-5e-05,-5e-05,0.00022999999999999998,-2e-05,2.9999999999999997e-05,-2.9999999999999997e-05,-5e-05,2
5456,5722,-4e-05,-5e-05,-5e-05,0.00022999999999999998,-2e-05,2.9999999999999997e-05,-2.9999999999999997e-05,-5e-05,2
5457,5723,-4e-05,-5e-05,-5e-05,0.00022999999999999998,-2e-05,2.9999999999999997e-05,-2.9999999999999997e-05,-5e-05,2
5458,5724,-4e-05,-5e-05,-5e-05,0.00022999999999999998,-2e-05,2.9999999999999997e-05,-2.9999999999999997e-05,-5e-05,2
5459,5725,-4e-05,-5e-05,-5e-05,0.00022999999999999998,-2e-05,2.9999999999999997e-05,-2.9999999999999997e-05,-5e-05,2
5460,5726,-4e-05,-5e-05,-5e-05,0.00022999999999999998,-2e-05,2.9999999999999997e-05,-2.9999999999999997e-05,-5e-05,2
5461,5727,-4e-05,-5e-05,-5e-05,0.00022999999999999998,-2e-05,2.9999999999999997e-05,-2.9999999999999997e-05,-5e-05,2
5462,5728,-4e-05,-5e-05,-5e-05,0.00022999999999999998,-2e-05,2.9999999999999997e-05,-2.9999999999999997e-05,-5e-05,2
5463,5729,-4e-05,-5e-05,-5e-05,0.00022999999999999998,-2e-05,2.9999999999999997e-05,-2.9999999999999997e-05,-5e-05,2
5464,5730,-4e-05,-5e-05,-5e-05,0.00022999999999999998,-2e-05,2.9999999999999997e-05,-2.9999999999999997e-05,-5e-05,2
5465,5731,-4e-05,-5e-05,-5e-05,0.00022999999999999998,-2e-05,2.9999999999999997e-05,-2.9999999999999997e-05,-5e-05,2
5466,5732,-4e-05,-5e-05,-5e-05,0.00022999999999999998,-2e-05,2.9999999999999997e-05,-2.9999999999999997e-05,-5e-05,2
5467,5733,-4e-05,-5e-05,-5e-05,0.00022999999999999998,-2e-05,2.9999999999999997e-05,-2.9999999999999997e-05,-5e-05,2
5468,5734,-2.9999999999999997e-05,2.9999999999999997e-05,0.0,0.00018,-2.9999999999999997e-05,-5.9999999999999995e-05,-8e-05,-5.9999999999999995e-05,2
5469,5735,-2.9999999999999997e-05,2.9999999999999997e-05,0.0,0.00018,-2.9999999999999997e-05,-5.9999999999999995e-05,-8e-05,-5.9999999999999995e-05,2
5470,5736,-2.9999999999999997e-05,2.9999999999999997e-05,0.0,0.00018,-2.9999999999999997e-05,-5.9999999999999995e-05,-8e-05,-5.9999999999999995e-05,2
5471,5738,-2.9999999999999997e-05,2.9999999999999997e-05,0.0,0.00018,-2.9999999999999997e-05,-5.9999999999999995e-05,-8e-05,-5.9999999999999995e-05,2
5472,5739,-2.9999999999999997e-05,2.9999999999999997e-05,0.0,0.00018,-2.9999999999999997e-05,-5.9999999999999995e-05,-8e-05,-5.9999999999999995e-05,2
5473,5740,-2.9999999999999997e-05,2.9999999999999997e-05,0.0,0.00018,-2.9999999999999997e-05,-5.9999999999999995e-05,-8e-05,-5.9999999999999995e-05,2
5474,5742,2e-05,-4e-05,-0.00011999999999999999,0.00035,1e-05,-9e-05,-1e-05,5.9999999999999995e-05,2
5475,5743,2e-05,-4e-05,-0.00011999999999999999,0.00035,1e-05,-9e-05,-1e-05,5.9999999999999995e-05,2
5476,5744,2e-05,-4e-05,-0.00011999999999999999,0.00035,1e-05,-9e-05,-1e-05,5.9999999999999995e-05,2
5477,5745,2e-05,-4e-05,-0.00011999999999999999,0.00035,1e-05,-9e-05,-1e-05,5.9999999999999995e-05,2
5478,5746,2e-05,-4e-05,-0.00011999999999999999,0.00035,1e-05,-9e-05,-1e-05,5.9999999999999995e-05,2
5479,5747,2e-05,-4e-05,-0.00011999999999999999,0.00035,1e-05,-9e-05,-1e-05,5.9999999999999995e-05,2
5480,5748,2e-05,-4e-05,-0.00011999999999999999,0.00035,1e-05,-9e-05,-1e-05,5.9999999999999995e-05,2
5481,5749,2e-05,-4e-05,-0.00011999999999999999,0.00035,1e-05,-9e-05,-1e-05,5.9999999999999995e-05,2
5482,5750,2e-05,-4e-05,-0.00011999999999999999,0.00035,1e-05,-9e-05,-1e-05,5.9999999999999995e-05,2
5483,5751,2e-05,-4e-05,-0.00011999999999999999,0.00035,1e-05,-9e-05,-1e-05,5.9999999999999995e-05,2
5484,5752,2e-05,-4e-05,-0.00011999999999999999,0.00035,1e-05,-9e-05,-1e-05,5.9999999999999995e-05,2
5485,5753,2e-05,-4e-05,-0.00011999999999999999,0.00035,1e-05,-9e-05,-1e-05,5.9999999999999995e-05,2
5486,5754,2e-05,-4e-05,-0.00011999999999999999,0.00035,1e-05,-9e-05,-1e-05,5.9999999999999995e-05,2
5487,5755,2e-05,-4e-05,-0.00011999999999999999,0.00035,1e-05,-9e-05,-1e-05,5.9999999999999995e-05,2
5488,5756,2e-05,-4e-05,-0.00011999999999999999,0.00035,1e-05,-9e-05,-1e-05,5.9999999999999995e-05,2
5489,5757,2e-05,-4e-05,-0.00011999999999999999,0.00035,1e-05,-9e-05,-1e-05,5.9999999999999995e-05,2
5490,5758,2e-05,-4e-05,-0.00011999999999999999,0.00035,1e-05,-9e-05,-1e-05,5.9999999999999995e-05,2
5491,5759,2e-05,-4e-05,-0.00011999999999999999,0.00035,1e-05,-9e-05,-1e-05,5.9999999999999995e-05,2
5492,5760,2e-05,-4e-05,-0.00011999999999999999,0.00035,1e-05,-9e-05,-1e-05,5.9999999999999995e-05,2
5493,5761,2e-05,-4e-05,-0.00011999999999999999,0.00035,1e-05,-9e-05,-1e-05,5.9999999999999995e-05,2
5494,5762,2e-05,-4e-05,-0.00011999999999999999,0.00035,1e-05,-9e-05,-1e-05,5.9999999999999995e-05,2
5495,5763,2e-05,-4e-05,-0.00011999999999999999,0.00035,1e-05,-9e-05,-1e-05,5.9999999999999995e-05,2
5496,5764,2e-05,-4e-05,-0.00011999999999999999,0.00035,1e-05,-9e-05,-1e-05,5.9999999999999995e-05,2
5497,5765,0.0,-1e-05,4e-05,-4e-05,2.9999999999999997e-05,-9e-05,-9e-05,-0.00018,2
5498,5766,-5.9999999999999995e-05,-4e-05,-8e-05,4e-05,-2e-05,1e-05,2e-05,-4e-05,2
5499,5767,-5.9999999999999995e-05,1e-05,-5e-05,-0.00041,2e-05,0.00015,2.9999999999999997e-05,9e-05,2
5500,5768,-5.9999999999999995e-05,1e-05,-5e-05,-0.00041,2e-05,0.00015,2.9999999999999997e-05,9e-05,2
5501,5769,-5.9999999999999995e-05,1e-05,-5e-05,-0.00041,2e-05,0.00015,2.9999999999999997e-05,9e-05,2
5502,5770,-5.9999999999999995e-05,1e-05,-5e-05,-0.00041,2e-05,0.00015,2.9999999999999997e-05,9e-05,2
5503,5771,-5.9999999999999995e-05,1e-05,-5e-05,-0.00041,2e-05,0.00015,2.9999999999999997e-05,9e-05,2
5504,5772,-5.9999999999999995e-05,1e-05,-5e-05,-0.00041,2e-05,0.00015,2.9999999999999997e-05,9e-05,2
5505,5773,-5.9999999999999995e-05,1e-05,-5e-05,-0.00041,2e-05,0.00015,2.9999999999999997e-05,9e-05,2
5506,5774,-5.9999999999999995e-05,1e-05,-5e-05,-0.00041,2e-05,0.00015,2.9999999999999997e-05,9e-05,2
5507,5775,-5.9999999999999995e-05,1e-05,-5e-05,-0.00041,2e-05,0.00015,2.9999999999999997e-05,9e-05,2
5508,5776,-5.9999999999999995e-05,1e-05,-5e-05,-0.00041,2e-05,0.00015,2.9999999999999997e-05,9e-05,2
5509,5777,-5.9999999999999995e-05,1e-05,-5e-05,-0.00041,2e-05,0.00015,2.9999999999999997e-05,9e-05,2
5510,5778,-5.9999999999999995e-05,1e-05,-5e-05,-0.00041,2e-05,0.00015,2.9999999999999997e-05,9e-05,2
5511,5779,-5.9999999999999995e-05,1e-05,-5e-05,-0.00041,2e-05,0.00015,2.9999999999999997e-05,9e-05,2
5512,5780,-5.9999999999999995e-05,1e-05,-5e-05,-0.00041,2e-05,0.00015,2.9999999999999997e-05,9e-05,2
5513,5781,-5.9999999999999995e-05,1e-05,-5e-05,-0.00041,2e-05,0.00015,2.9999999999999997e-05,9e-05,2
5514,5782,-5.9999999999999995e-05,1e-05,-5e-05,-0.00041,2e-05,0.00015,2.9999999999999997e-05,9e-05,2
5515,5783,-5.9999999999999995e-05,1e-05,-5e-05,-0.00041,2e-05,0.00015,2.9999999999999997e-05,9e-05,2
5516,5784,-5.9999999999999995e-05,1e-05,-5e-05,-0.00041,2e-05,0.00015,2.9999999999999997e-05,9e-05,2
5517,5785,-5.9999999999999995e-05,1e-05,-5e-05,-0.00041,2e-05,0.00015,2.9999999999999997e-05,9e-05,2
5518,5786,-5.9999999999999995e-05,1e-05,-5e-05,-0.00041,2e-05,0.00015,2.9999999999999997e-05,9e-05,2
5519,5790,4e-05,-2.9999999999999997e-05,-0.0001,0.00016999999999999999,-5e-05,-7e-05,0.00016,0.00018999999999999998,2
5520,5791,4e-05,-2.9999999999999997e-05,-0.0001,0.00016999999999999999,-5e-05,-7e-05,0.00016,0.00018999999999999998,2
5521,5792,4e-05,-2.9999999999999997e-05,-0.0001,0.00016999999999999999,-5e-05,-7e-05,0.00016,0.00018999999999999998,2
5522,5793,4e-05,-2.9999999999999997e-05,-0.0001,0.00016999999999999999,-5e-05,-7e-05,0.00016,0.00018999999999999998,2
5523,5794,4e-05,-2.9999999999999997e-05,-0.0001,0.00016999999999999999,-5e-05,-7e-05,0.00016,0.00018999999999999998,2
5524,5795,4e-05,-2.9999999999999997e-05,-0.0001,0.00016999999999999999,-5e-05,-7e-05,0.00016,0.00018999999999999998,2
5525,5796,4e-05,-2.9999999999999997e-05,-0.0001,0.00016999999999999999,-5e-05,-7e-05,0.00016,0.00018999999999999998,2
5526,5797,4e-05,-2.9999999999999997e-05,-0.0001,0.00016999999999999999,-5e-05,-7e-05,0.00016,0.00018999999999999998,2
5527,5798,4e-05,-2.9999999999999997e-05,-0.0001,0.00016999999999999999,-5e-05,-7e-05,0.00016,0.00018999999999999998,2
5528,5799,4e-05,-2.9999999999999997e-05,-0.0001,0.00016999999999999999,-5e-05,-7e-05,0.00016,0.00018999999999999998,2
5529,5800,4e-05,-2.9999999999999997e-05,-0.0001,0.00016999999999999999,-5e-05,-7e-05,0.00016,0.00018999999999999998,2
5530,5801,4e-05,-2.9999999999999997e-05,-0.0001,0.00016999999999999999,-5e-05,-7e-05,0.00016,0.00018999999999999998,2
5531,5802,4e-05,-2.9999999999999997e-05,-0.0001,0.00016999999999999999,-5e-05,-7e-05,0.00016,0.00018999999999999998,2
5532,5803,4e-05,-2.9999999999999997e-05,-0.0001,0.00016999999999999999,-5e-05,-7e-05,0.00016,0.00018999999999999998,2
5533,5804,4e-05,-2.9999999999999997e-05,-0.0001,0.00016999999999999999,-5e-05,-7e-05,0.00016,0.00018999999999999998,2
5534,5805,4e-05,-2.9999999999999997e-05,-0.0001,0.00016999999999999999,-5e-05,-7e-05,0.00016,0.00018999999999999998,2
5535,5806,4e-05,-2.9999999999999997e-05,-0.0001,0.00016999999999999999,-5e-05,-7e-05,0.00016,0.00018999999999999998,2
5536,5807,4e-05,-2.9999999999999997e-05,-0.0001,0.00016999999999999999,-5e-05,-7e-05,0.00016,0.00018999999999999998,2
5537,5808,-7e-05,2e-05,0.0001,-0.00018,5.9999999999999995e-05,2e-05,0.00028,-0.00016999999999999999,2
5538,5809,-7e-05,2e-05,0.0001,-0.00018,5.9999999999999995e-05,2e-05,0.00028,-0.00016999999999999999,2
5539,5810,-7e-05,2e-05,0.0001,-0.00018,5.9999999999999995e-05,2e-05,0.00028,-0.00016999999999999999,2
5540,5811,-7e-05,2e-05,0.0001,-0.00018,5.9999999999999995e-05,2e-05,0.00028,-0.00016999999999999999,2
5541,5812,-7e-05,2e-05,0.0001,-0.00018,5.9999999999999995e-05,2e-05,0.00028,-0.00016999999999999999,2
5542,5813,-7e-05,2e-05,0.0001,-0.00018,5.9999999999999995e-05,2e-05,0.00028,-0.00016999999999999999,2
5543,5814,-7e-05,2e-05,0.0001,-0.00018,5.9999999999999995e-05,2e-05,0.00028,-0.00016999999999999999,2
5544,5815,-7e-05,2e-05,0.0001,-0.00018,5.9999999999999995e-05,2e-05,0.00028,-0.00016999999999999999,2
5545,5816,-7e-05,2e-05,0.0001,-0.00018,5.9999999999999995e-05,2e-05,0.00028,-0.00016999999999999999,2
5546,5817,-7e-05,2e-05,0.0001,-0.00018,5.9999999999999995e-05,2e-05,0.00028,-0.00016999999999999999,2
5547,5818,-7e-05,2e-05,0.0001,-0.00018,5.9999999999999995e-05,2e-05,0.00028,-0.00016999999999999999,2
5548,5819,-7e-05,2e-05,0.0001,-0.00018,5.9999999999999995e-05,2e-05,0.00028,-0.00016999999999999999,2
5549,5820,-7e-05,2e-05,0.0001,-0.00018,5.9999999999999995e-05,2e-05,0.00028,-0.00016999999999999999,2
5550,5821,-7e-05,2e-05,0.0001,-0.00018,5.9999999999999995e-05,2e-05,0.00028,-0.00016999999999999999,2
5551,5822,-7e-05,2e-05,0.0001,-0.00018,5.9999999999999995e-05,2e-05,0.00028,-0.00016999999999999999,2
5552,5823,-7e-05,2e-05,0.0001,-0.00018,5.9999999999999995e-05,2e-05,0.00028,-0.00016999999999999999,2
5553,5824,-7e-05,2e-05,0.0001,-0.00018,5.9999999999999995e-05,2e-05,0.00028,-0.00016999999999999999,2
5554,5825,7e-05,4e-05,-1e-05,-0.00041,5.9999999999999995e-05,-4e-05,-1e-05,5.9999999999999995e-05,2
5555,5826,7e-05,4e-05,-1e-05,-0.00041,5.9999999999999995e-05,-4e-05,-1e-05,5.9999999999999995e-05,2
5556,5827,7e-05,4e-05,-1e-05,-0.00041,5.9999999999999995e-05,-4e-05,-1e-05,5.9999999999999995e-05,2
5557,5828,7e-05,4e-05,-1e-05,-0.00041,5.9999999999999995e-05,-4e-05,-1e-05,5.9999999999999995e-05,2
5558,5829,7e-05,4e-05,-1e-05,-0.00041,5.9999999999999995e-05,-4e-05,-1e-05,5.9999999999999995e-05,2
5559,5830,7e-05,4e-05,-1e-05,-0.00041,5.9999999999999995e-05,-4e-05,-1e-05,5.9999999999999995e-05,2
5560,5831,7e-05,4e-05,-1e-05,-0.00041,5.9999999999999995e-05,-4e-05,-1e-05,5.9999999999999995e-05,2
5561,5832,7e-05,4e-05,-1e-05,-0.00041,5.9999999999999995e-05,-4e-05,-1e-05,5.9999999999999995e-05,2
5562,5833,7e-05,4e-05,-1e-05,-0.00041,5.9999999999999995e-05,-4e-05,-1e-05,5.9999999999999995e-05,2
5563,5834,7e-05,4e-05,-1e-05,-0.00041,5.9999999999999995e-05,-4e-05,-1e-05,5.9999999999999995e-05,2
5564,5835,7e-05,4e-05,-1e-05,-0.00041,5.9999999999999995e-05,-4e-05,-1e-05,5.9999999999999995e-05,2
5565,5836,7e-05,4e-05,-1e-05,-0.00041,5.9999999999999995e-05,-4e-05,-1e-05,5.9999999999999995e-05,2
5566,5839,7e-05,4e-05,-1e-05,-0.00041,5.9999999999999995e-05,-4e-05,-1e-05,5.9999999999999995e-05,2
5567,5840,-5e-05,-2.9999999999999997e-05,1e-05,-0.00018,-2.9999999999999997e-05,-5e-05,-0.00021,0.00043,2
5568,5841,-7e-05,-4e-05,-7e-05,-0.00015,1e-05,0.00011,0.00029,-9e-05,2
5569,5842,-7e-05,-4e-05,-7e-05,-0.00015,1e-05,0.00011,0.00029,-9e-05,2
5570,5843,-7e-05,-4e-05,-7e-05,-0.00015,1e-05,0.00011,0.00029,-9e-05,2
5571,5844,-7e-05,-4e-05,-7e-05,-0.00015,1e-05,0.00011,0.00029,-9e-05,2
5572,5845,-7e-05,-4e-05,-7e-05,-0.00015,1e-05,0.00011,0.00029,-9e-05,2
5573,5846,-7e-05,-4e-05,-7e-05,-0.00015,1e-05,0.00011,0.00029,-9e-05,2
5574,5847,-7e-05,-4e-05,-7e-05,-0.00015,1e-05,0.00011,0.00029,-9e-05,2
5575,5848,-7e-05,-4e-05,-7e-05,-0.00015,1e-05,0.00011,0.00029,-9e-05,2
5576,5849,-7e-05,-4e-05,-7e-05,-0.00015,1e-05,0.00011,0.00029,-9e-05,2
5577,5850,-7e-05,-4e-05,-7e-05,-0.00015,1e-05,0.00011,0.00029,-9e-05,2
5578,5851,-7e-05,-4e-05,-7e-05,-0.00015,1e-05,0.00011,0.00029,-9e-05,2
5579,5852,-7e-05,-4e-05,-7e-05,-0.00015,1e-05,0.00011,0.00029,-9e-05,2
5580,5853,-7e-05,-4e-05,-7e-05,-0.00015,1e-05,0.00011,0.00029,-9e-05,2
5581,5854,-7e-05,-4e-05,-7e-05,-0.00015,1e-05,0.00011,0.00029,-9e-05,2
5582,5855,-7e-05,-4e-05,-7e-05,-0.00015,1e-05,0.00011,0.00029,-9e-05,2
5583,5856,-7e-05,-4e-05,-7e-05,-0.00015,1e-05,0.00011,0.00029,-9e-05,2
5584,5857,-7e-05,-4e-05,-7e-05,-0.00015,1e-05,0.00011,0.00029,-9e-05,2
5585,5858,-7e-05,-4e-05,-7e-05,-0.00015,1e-05,0.00011,0.00029,-9e-05,2
5586,5859,-7e-05,-4e-05,-7e-05,-0.00015,1e-05,0.00011,0.00029,-9e-05,2
5587,5860,-7e-05,-4e-05,-7e-05,-0.00015,1e-05,0.00011,0.00029,-9e-05,2
5588,5861,-7e-05,-4e-05,-7e-05,-0.00015,1e-05,0.00011,0.00029,-9e-05,2
5589,5862,-7e-05,-4e-05,-7e-05,-0.00015,1e-05,0.00011,0.00029,-9e-05,2
5590,5863,0.00016999999999999999,-2e-05,-4e-05,-0.00018,5e-05,-2e-05,1e-05,0.00013000000000000002,2
5591,5864,0.00016999999999999999,-2e-05,-4e-05,-0.00018,5e-05,-2e-05,1e-05,0.00013000000000000002,2
5592,5865,-5e-05,-2e-05,-0.00011,-0.00016999999999999999,-1e-05,-1e-05,-0.00015,-0.00025,2
5593,5866,-5e-05,-2e-05,-0.00011,-0.00016999999999999999,-1e-05,-1e-05,-0.00015,-0.00025,2
5594,5867,-5e-05,-2e-05,-0.00011,-0.00016999999999999999,-1e-05,-1e-05,-0.00015,-0.00025,2
5595,5868,-5e-05,-2e-05,-0.00011,-0.00016999999999999999,-1e-05,-1e-05,-0.00015,-0.00025,2
5596,5869,-5e-05,-2e-05,-0.00011,-0.00016999999999999999,-1e-05,-1e-05,-0.00015,-0.00025,2
5597,5870,-5e-05,-2e-05,-0.00011,-0.00016999999999999999,-1e-05,-1e-05,-0.00015,-0.00025,2
5598,5871,-5e-05,-2e-05,-0.00011,-0.00016999999999999999,-1e-05,-1e-05,-0.00015,-0.00025,2
5599,5872,-5e-05,-2e-05,-0.00011,-0.00016999999999999999,-1e-05,-1e-05,-0.00015,-0.00025,2
5600,5873,-5e-05,-2e-05,-0.00011,-0.00016999999999999999,-1e-05,-1e-05,-0.00015,-0.00025,2
5601,5874,-5e-05,-2e-05,-0.00011,-0.00016999999999999999,-1e-05,-1e-05,-0.00015,-0.00025,2
5602,5875,-5e-05,-2e-05,-0.00011,-0.00016999999999999999,-1e-05,-1e-05,-0.00015,-0.00025,2
5603,5876,-5e-05,-2e-05,-0.00011,-0.00016999999999999999,-1e-05,-1e-05,-0.00015,-0.00025,2
5604,5877,-5e-05,-2e-05,-0.00011,-0.00016999999999999999,-1e-05,-1e-05,-0.00015,-0.00025,2
5605,5878,-5e-05,-2e-05,-0.00011,-0.00016999999999999999,-1e-05,-1e-05,-0.00015,-0.00025,2
5606,5879,-5e-05,-2e-05,-0.00011,-0.00016999999999999999,-1e-05,-1e-05,-0.00015,-0.00025,2
5607,5880,-5e-05,-2e-05,-0.00011,-0.00016999999999999999,-1e-05,-1e-05,-0.00015,-0.00025,2
5608,5881,-5e-05,-2e-05,-0.00011,-0.00016999999999999999,-1e-05,-1e-05,-0.00015,-0.00025,2
5609,5882,-5e-05,-2e-05,-0.00011,-0.00016999999999999999,-1e-05,-1e-05,-0.00015,-0.00025,2
5610,5883,2e-05,0.0,-2e-05,-0.00045,2e-05,-2.9999999999999997e-05,-0.00028,0.00016,2
5611,5884,2e-05,0.0,-2e-05,-0.00045,2e-05,-2.9999999999999997e-05,-0.00028,0.00016,2
5612,5885,2e-05,0.0,-2e-05,-0.00045,2e-05,-2.9999999999999997e-05,-0.00028,0.00016,2
5613,5887,2e-05,0.0,-2e-05,-0.00045,2e-05,-2.9999999999999997e-05,-0.00028,0.00016,2
5614,5890,2e-05,0.0,-2e-05,-0.00045,2e-05,-2.9999999999999997e-05,-0.00028,0.00016,2
5615,5891,2e-05,0.0,-2e-05,-0.00045,2e-05,-2.9999999999999997e-05,-0.00028,0.00016,2
5616,5892,-9e-05,-1e-05,8e-05,-0.00016999999999999999,0.0,-5e-05,-2e-05,-0.00011999999999999999,2
5617,5893,-9e-05,-1e-05,8e-05,-0.00016999999999999999,0.0,-5e-05,-2e-05,-0.00011999999999999999,2
5618,5894,-9e-05,-1e-05,8e-05,-0.00016999999999999999,0.0,-5e-05,-2e-05,-0.00011999999999999999,2
5619,5895,-9e-05,-1e-05,8e-05,-0.00016999999999999999,0.0,-5e-05,-2e-05,-0.00011999999999999999,2
5620,5896,-9e-05,-1e-05,8e-05,-0.00016999999999999999,0.0,-5e-05,-2e-05,-0.00011999999999999999,2
5621,5897,-9e-05,-1e-05,8e-05,-0.00016999999999999999,0.0,-5e-05,-2e-05,-0.00011999999999999999,2
5622,5898,-9e-05,-1e-05,8e-05,-0.00016999999999999999,0.0,-5e-05,-2e-05,-0.00011999999999999999,2
5623,5899,-9e-05,-1e-05,8e-05,-0.00016999999999999999,0.0,-5e-05,-2e-05,-0.00011999999999999999,2
5624,5900,-9e-05,-1e-05,8e-05,-0.00016999999999999999,0.0,-5e-05,-2e-05,-0.00011999999999999999,2
5625,5901,-9e-05,-1e-05,8e-05,-0.00016999999999999999,0.0,-5e-05,-2e-05,-0.00011999999999999999,2
5626,5902,-9e-05,-1e-05,8e-05,-0.00016999999999999999,0.0,-5e-05,-2e-05,-0.00011999999999999999,2
5627,5903,-9e-05,-1e-05,8e-05,-0.00016999999999999999,0.0,-5e-05,-2e-05,-0.00011999999999999999,2
5628,5904,-9e-05,-1e-05,8e-05,-0.00016999999999999999,0.0,-5e-05,-2e-05,-0.00011999999999999999,2
5629,5905,-9e-05,-1e-05,8e-05,-0.00016999999999999999,0.0,-5e-05,-2e-05,-0.00011999999999999999,2
5630,5906,-9e-05,-1e-05,8e-05,-0.00016999999999999999,0.0,-5e-05,-2e-05,-0.00011999999999999999,2
5631,5907,-9e-05,-1e-05,8e-05,-0.00016999999999999999,0.0,-5e-05,-2e-05,-0.00011999999999999999,2
5632,5908,-9e-05,-1e-05,8e-05,-0.00016999999999999999,0.0,-5e-05,-2e-05,-0.00011999999999999999,2
5633,5909,-9e-05,-1e-05,8e-05,-0.00016999999999999999,0.0,-5e-05,-2e-05,-0.00011999999999999999,2
5634,5910,-9e-05,-1e-05,8e-05,-0.00016999999999999999,0.0,-5e-05,-2e-05,-0.00011999999999999999,2
5635,5911,-9e-05,-1e-05,8e-05,-0.00016999999999999999,0.0,-5e-05,-2e-05,-0.00011999999999999999,2
5636,5912,-9e-05,-1e-05,8e-05,-0.00016999999999999999,0.0,-5e-05,-2e-05,-0.00011999999999999999,2
5637,5913,-9e-05,-1e-05,8e-05,-0.00016999999999999999,0.0,-5e-05,-2e-05,-0.00011999999999999999,2
5638,5914,-9e-05,-1e-05,8e-05,-0.00016999999999999999,0.0,-5e-05,-2e-05,-0.00011999999999999999,2
5639,5915,-0.00025,-9e-05,-0.00011,-7e-05,1e-05,-0.00011,-0.00026000000000000003,-0.00043,2
5640,5916,0.00014,2e-05,1e-05,-0.00018999999999999998,-4e-05,5e-05,-4e-05,0.00021,2
5641,5917,0.00014,2e-05,1e-05,-0.00018999999999999998,-4e-05,5e-05,-4e-05,0.00021,2
5642,5918,0.00014,2e-05,1e-05,-0.00018999999999999998,-4e-05,5e-05,-4e-05,0.00021,2
5643,5919,0.00014,2e-05,1e-05,-0.00018999999999999998,-4e-05,5e-05,-4e-05,0.00021,2
5644,5920,0.00014,2e-05,1e-05,-0.00018999999999999998,-4e-05,5e-05,-4e-05,0.00021,2
5645,5921,0.00014,2e-05,1e-05,-0.00018999999999999998,-4e-05,5e-05,-4e-05,0.00021,2
5646,5922,0.00014,2e-05,1e-05,-0.00018999999999999998,-4e-05,5e-05,-4e-05,0.00021,2
5647,5923,0.00014,2e-05,1e-05,-0.00018999999999999998,-4e-05,5e-05,-4e-05,0.00021,2
5648,5924,0.00014,2e-05,1e-05,-0.00018999999999999998,-4e-05,5e-05,-4e-05,0.00021,2
5649,5925,0.00014,2e-05,1e-05,-0.00018999999999999998,-4e-05,5e-05,-4e-05,0.00021,2
5650,5926,0.00014,2e-05,1e-05,-0.00018999999999999998,-4e-05,5e-05,-4e-05,0.00021,2
5651,5927,0.00014,2e-05,1e-05,-0.00018999999999999998,-4e-05,5e-05,-4e-05,0.00021,2
5652,5928,0.00014,2e-05,1e-05,-0.00018999999999999998,-4e-05,5e-05,-4e-05,0.00021,2
5653,5929,0.00014,2e-05,1e-05,-0.00018999999999999998,-4e-05,5e-05,-4e-05,0.00021,2
5654,5930,0.00014,2e-05,1e-05,-0.00018999999999999998,-4e-05,5e-05,-4e-05,0.00021,2
5655,5931,0.00014,2e-05,1e-05,-0.00018999999999999998,-4e-05,5e-05,-4e-05,0.00021,2
5656,5932,0.00014,2e-05,1e-05,-0.00018999999999999998,-4e-05,5e-05,-4e-05,0.00021,2
5657,5933,0.00014,2e-05,1e-05,-0.00018999999999999998,-4e-05,5e-05,-4e-05,0.00021,2
5658,5934,0.00014,2e-05,1e-05,-0.00018999999999999998,-4e-05,5e-05,-4e-05,0.00021,2
5659,5935,0.00014,2e-05,1e-05,-0.00018999999999999998,-4e-05,5e-05,-4e-05,0.00021,2
5660,5936,-1e-05,2e-05,4e-05,-5.9999999999999995e-05,1e-05,5.9999999999999995e-05,1e-05,0.0,2
5661,5940,2.9999999999999997e-05,-2e-05,-2e-05,0.00065,-1e-05,0.00014,0.00023999999999999998,-1e-05,2
5662,5941,2.9999999999999997e-05,-2e-05,-2e-05,0.00065,-1e-05,0.00014,0.00023999999999999998,-1e-05,2
5663,5942,2.9999999999999997e-05,-2e-05,-2e-05,0.00065,-1e-05,0.00014,0.00023999999999999998,-1e-05,2
5664,5943,2.9999999999999997e-05,-2e-05,-2e-05,0.00065,-1e-05,0.00014,0.00023999999999999998,-1e-05,2
5665,5944,2.9999999999999997e-05,-2e-05,-2e-05,0.00065,-1e-05,0.00014,0.00023999999999999998,-1e-05,2
5666,5945,2.9999999999999997e-05,-2e-05,-2e-05,0.00065,-1e-05,0.00014,0.00023999999999999998,-1e-05,2
5667,5946,2.9999999999999997e-05,-2e-05,-2e-05,0.00065,-1e-05,0.00014,0.00023999999999999998,-1e-05,2
5668,5947,2.9999999999999997e-05,-2e-05,-2e-05,0.00065,-1e-05,0.00014,0.00023999999999999998,-1e-05,2
5669,5948,2.9999999999999997e-05,-2e-05,-2e-05,0.00065,-1e-05,0.00014,0.00023999999999999998,-1e-05,2
5670,5949,2.9999999999999997e-05,-2e-05,-2e-05,0.00065,-1e-05,0.00014,0.00023999999999999998,-1e-05,2
5671,5950,2.9999999999999997e-05,-2e-05,-2e-05,0.00065,-1e-05,0.00014,0.00023999999999999998,-1e-05,2
5672,5951,2.9999999999999997e-05,-2e-05,-2e-05,0.00065,-1e-05,0.00014,0.00023999999999999998,-1e-05,2
5673,5952,2.9999999999999997e-05,-2e-05,-2e-05,0.00065,-1e-05,0.00014,0.00023999999999999998,-1e-05,2
5674,5953,2.9999999999999997e-05,-2e-05,-2e-05,0.00065,-1e-05,0.00014,0.00023999999999999998,-1e-05,2
5675,5954,2.9999999999999997e-05,-2e-05,-2e-05,0.00065,-1e-05,0.00014,0.00023999999999999998,-1e-05,2
5676,5955,2.9999999999999997e-05,-2e-05,-2e-05,0.00065,-1e-05,0.00014,0.00023999999999999998,-1e-05,2
5677,5956,2.9999999999999997e-05,-2e-05,-2e-05,0.00065,-1e-05,0.00014,0.00023999999999999998,-1e-05,2
5678,5957,2.9999999999999997e-05,-2e-05,-2e-05,0.00065,-1e-05,0.00014,0.00023999999999999998,-1e-05,2
5679,5958,2.9999999999999997e-05,-2e-05,-2e-05,0.00065,-1e-05,0.00014,0.00023999999999999998,-1e-05,2
5680,5959,5.9999999999999995e-05,0.0,4e-05,0.00025,-2.9999999999999997e-05,5.9999999999999995e-05,4e-05,0.00013000000000000002,2
5681,5960,5.9999999999999995e-05,0.0,4e-05,0.00025,-2.9999999999999997e-05,5.9999999999999995e-05,4e-05,0.00013000000000000002,2
5682,5961,5.9999999999999995e-05,0.0,4e-05,0.00025,-2.9999999999999997e-05,5.9999999999999995e-05,4e-05,0.00013000000000000002,2
5683,5962,5.9999999999999995e-05,0.0,4e-05,0.00025,-2.9999999999999997e-05,5.9999999999999995e-05,4e-05,0.00013000000000000002,2
5684,5963,5.9999999999999995e-05,0.0,4e-05,0.00025,-2.9999999999999997e-05,5.9999999999999995e-05,4e-05,0.00013000000000000002,2
5685,5964,5.9999999999999995e-05,0.0,4e-05,0.00025,-2.9999999999999997e-05,5.9999999999999995e-05,4e-05,0.00013000000000000002,2
5686,5965,5.9999999999999995e-05,0.0,4e-05,0.00025,-2.9999999999999997e-05,5.9999999999999995e-05,4e-05,0.00013000000000000002,2
5687,5966,5.9999999999999995e-05,0.0,4e-05,0.00025,-2.9999999999999997e-05,5.9999999999999995e-05,4e-05,0.00013000000000000002,2
5688,5967,-4e-05,4e-05,0.0001,0.00021,0.0,-9e-05,0.00014,1e-05,2
5689,5968,-4e-05,4e-05,0.0001,0.00021,0.0,-9e-05,0.00014,1e-05,2
5690,5969,-4e-05,4e-05,0.0001,0.00021,0.0,-9e-05,0.00014,1e-05,2
5691,5970,-4e-05,4e-05,0.0001,0.00021,0.0,-9e-05,0.00014,1e-05,2
5692,5971,-4e-05,4e-05,0.0001,0.00021,0.0,-9e-05,0.00014,1e-05,2
5693,5972,-4e-05,4e-05,0.0001,0.00021,0.0,-9e-05,0.00014,1e-05,2
5694,5973,-4e-05,4e-05,0.0001,0.00021,0.0,-9e-05,0.00014,1e-05,2
5695,5974,-4e-05,4e-05,0.0001,0.00021,0.0,-9e-05,0.00014,1e-05,2
5696,5975,-4e-05,4e-05,0.0001,0.00021,0.0,-9e-05,0.00014,1e-05,2
5697,5977,-4e-05,4e-05,0.0001,0.00021,0.0,-9e-05,0.00014,1e-05,2
5698,5978,-4e-05,4e-05,0.0001,0.00021,0.0,-9e-05,0.00014,1e-05,2
5699,5979,-4e-05,4e-05,0.0001,0.00021,0.0,-9e-05,0.00014,1e-05,2
5700,5980,-4e-05,4e-05,0.0001,0.00021,0.0,-9e-05,0.00014,1e-05,2
5701,5981,-4e-05,4e-05,0.0001,0.00021,0.0,-9e-05,0.00014,1e-05,2
5702,5982,-4e-05,4e-05,0.0001,0.00021,0.0,-9e-05,0.00014,1e-05,2
5703,5983,-4e-05,4e-05,0.0001,0.00021,0.0,-9e-05,0.00014,1e-05,2
5704,5984,-4e-05,4e-05,0.0001,0.00021,0.0,-9e-05,0.00014,1e-05,2
5705,5985,-4e-05,4e-05,0.0001,0.00021,0.0,-9e-05,0.00014,1e-05,2
5706,5987,-4e-05,4e-05,0.0001,0.00021,0.0,-9e-05,0.00014,1e-05,2
5707,5990,0.00011,-1e-05,-2e-05,0.00057,-2e-05,-2.9999999999999997e-05,0.0,7e-05,2
5708,5991,-2e-05,0.0,2e-05,0.00029,-5.9999999999999995e-05,7e-05,-0.00013000000000000002,-9e-05,2
5709,5992,-2e-05,0.0,2e-05,0.00029,-5.9999999999999995e-05,7e-05,-0.00013000000000000002,-9e-05,2
5710,5993,-2e-05,0.0,2e-05,0.00029,-5.9999999999999995e-05,7e-05,-0.00013000000000000002,-9e-05,2
5711,5994,-2e-05,0.0,2e-05,0.00029,-5.9999999999999995e-05,7e-05,-0.00013000000000000002,-9e-05,2
5712,5995,-2e-05,0.0,2e-05,0.00029,-5.9999999999999995e-05,7e-05,-0.00013000000000000002,-9e-05,2
5713,5996,-2e-05,0.0,2e-05,0.00029,-5.9999999999999995e-05,7e-05,-0.00013000000000000002,-9e-05,2
5714,5997,-2e-05,0.0,2e-05,0.00029,-5.9999999999999995e-05,7e-05,-0.00013000000000000002,-9e-05,2
5715,5998,-2e-05,0.0,2e-05,0.00029,-5.9999999999999995e-05,7e-05,-0.00013000000000000002,-9e-05,2
5716,5999,-2e-05,0.0,2e-05,0.00029,-5.9999999999999995e-05,7e-05,-0.00013000000000000002,-9e-05,2
5717,6000,-2e-05,0.0,2e-05,0.00029,-5.9999999999999995e-05,7e-05,-0.00013000000000000002,-9e-05,2
5718,6001,-2e-05,0.0,2e-05,0.00029,-5.9999999999999995e-05,7e-05,-0.00013000000000000002,-9e-05,2
5719,6002,-2e-05,0.0,2e-05,0.00029,-5.9999999999999995e-05,7e-05,-0.00013000000000000002,-9e-05,2
5720,6003,-2e-05,0.0,2e-05,0.00029,-5.9999999999999995e-05,7e-05,-0.00013000000000000002,-9e-05,2
5721,6004,-2e-05,0.0,2e-05,0.00029,-5.9999999999999995e-05,7e-05,-0.00013000000000000002,-9e-05,2
5722,6005,-2e-05,0.0,2e-05,0.00029,-5.9999999999999995e-05,7e-05,-0.00013000000000000002,-9e-05,2
5723,6006,-2e-05,0.0,2e-05,0.00029,-5.9999999999999995e-05,7e-05,-0.00013000000000000002,-9e-05,2
5724,6007,-2e-05,0.0,2e-05,0.00029,-5.9999999999999995e-05,7e-05,-0.00013000000000000002,-9e-05,2
5725,6008,-2e-05,0.0,2e-05,0.00029,-5.9999999999999995e-05,7e-05,-0.00013000000000000002,-9e-05,2
5726,6009,-2e-05,0.0,2e-05,0.00029,-5.9999999999999995e-05,7e-05,-0.00013000000000000002,-9e-05,2
5727,6010,-2e-05,0.0,2e-05,0.00029,-5.9999999999999995e-05,7e-05,-0.00013000000000000002,-9e-05,2
5728,6011,-2e-05,0.0,2e-05,0.00029,-5.9999999999999995e-05,7e-05,-0.00013000000000000002,-9e-05,2
5729,6012,-0.00011,-2.9999999999999997e-05,-8e-05,-0.00047999999999999996,-7e-05,-0.00011999999999999999,0.00014,-0.00011,2
5730,6013,-0.00011,-2.9999999999999997e-05,-8e-05,-0.00047999999999999996,-7e-05,-0.00011999999999999999,0.00014,-0.00011,2
5731,6014,-5.9999999999999995e-05,-5e-05,-0.00018,-0.00015,0.0,-9e-05,-0.00016999999999999999,2.9999999999999997e-05,2
5732,6015,-5.9999999999999995e-05,-5e-05,-0.00018,-0.00015,0.0,-9e-05,-0.00016999999999999999,2.9999999999999997e-05,2
5733,6016,-5.9999999999999995e-05,-5e-05,-0.00018,-0.00015,0.0,-9e-05,-0.00016999999999999999,2.9999999999999997e-05,2
5734,6017,-5.9999999999999995e-05,-5e-05,-0.00018,-0.00015,0.0,-9e-05,-0.00016999999999999999,2.9999999999999997e-05,2
5735,6018,-5.9999999999999995e-05,-5e-05,-0.00018,-0.00015,0.0,-9e-05,-0.00016999999999999999,2.9999999999999997e-05,2
5736,6019,-5.9999999999999995e-05,-5e-05,-0.00018,-0.00015,0.0,-9e-05,-0.00016999999999999999,2.9999999999999997e-05,2
5737,6020,-5.9999999999999995e-05,-5e-05,-0.00018,-0.00015,0.0,-9e-05,-0.00016999999999999999,2.9999999999999997e-05,2
5738,6021,-5.9999999999999995e-05,-5e-05,-0.00018,-0.00015,0.0,-9e-05,-0.00016999999999999999,2.9999999999999997e-05,2
5739,6022,-5.9999999999999995e-05,-5e-05,-0.00018,-0.00015,0.0,-9e-05,-0.00016999999999999999,2.9999999999999997e-05,2
5740,6023,-5.9999999999999995e-05,-5e-05,-0.00018,-0.00015,0.0,-9e-05,-0.00016999999999999999,2.9999999999999997e-05,2
5741,6024,-5.9999999999999995e-05,-5e-05,-0.00018,-0.00015,0.0,-9e-05,-0.00016999999999999999,2.9999999999999997e-05,2
5742,6025,-5.9999999999999995e-05,-5e-05,-0.00018,-0.00015,0.0,-9e-05,-0.00016999999999999999,2.9999999999999997e-05,2
5743,6026,-5.9999999999999995e-05,-5e-05,-0.00018,-0.00015,0.0,-9e-05,-0.00016999999999999999,2.9999999999999997e-05,2
5744,6027,-5.9999999999999995e-05,-5e-05,-0.00018,-0.00015,0.0,-9e-05,-0.00016999999999999999,2.9999999999999997e-05,2
5745,6028,-5.9999999999999995e-05,-5e-05,-0.00018,-0.00015,0.0,-9e-05,-0.00016999999999999999,2.9999999999999997e-05,2
5746,6029,-5.9999999999999995e-05,-5e-05,-0.00018,-0.00015,0.0,-9e-05,-0.00016999999999999999,2.9999999999999997e-05,2
5747,6030,-5.9999999999999995e-05,-5e-05,-0.00018,-0.00015,0.0,-9e-05,-0.00016999999999999999,2.9999999999999997e-05,2
5748,6031,-5.9999999999999995e-05,-5e-05,-0.00018,-0.00015,0.0,-9e-05,-0.00016999999999999999,2.9999999999999997e-05,2
5749,6032,-5.9999999999999995e-05,-5e-05,-0.00018,-0.00015,0.0,-9e-05,-0.00016999999999999999,2.9999999999999997e-05,2
5750,6033,-5.9999999999999995e-05,-5e-05,-0.00018,-0.00015,0.0,-9e-05,-0.00016999999999999999,2.9999999999999997e-05,2
5751,6034,-5.9999999999999995e-05,-5e-05,-0.00018,-0.00015,0.0,-9e-05,-0.00016999999999999999,2.9999999999999997e-05,2
5752,6035,8e-05,-5.9999999999999995e-05,-0.00027,0.00037999999999999997,-0.00011,0.0,-8e-05,2e-05,2
5753,6037,-1e-05,-2e-05,0.00011999999999999999,0.00035,0.0,-8e-05,-2.9999999999999997e-05,0.00013000000000000002,2
5754,6040,-1e-05,-2e-05,0.00011999999999999999,0.00035,0.0,-8e-05,-2.9999999999999997e-05,0.00013000000000000002,2
5755,6041,-1e-05,-2e-05,0.00011999999999999999,0.00035,0.0,-8e-05,-2.9999999999999997e-05,0.00013000000000000002,2
5756,6042,-1e-05,-2e-05,0.00011999999999999999,0.00035,0.0,-8e-05,-2.9999999999999997e-05,0.00013000000000000002,2
5757,6043,-1e-05,-2e-05,0.00011999999999999999,0.00035,0.0,-8e-05,-2.9999999999999997e-05,0.00013000000000000002,2
5758,6044,-1e-05,-2e-05,0.00011999999999999999,0.00035,0.0,-8e-05,-2.9999999999999997e-05,0.00013000000000000002,2
5759,6045,-1e-05,-2e-05,0.00011999999999999999,0.00035,0.0,-8e-05,-2.9999999999999997e-05,0.00013000000000000002,2
5760,6046,-1e-05,-2e-05,0.00011999999999999999,0.00035,0.0,-8e-05,-2.9999999999999997e-05,0.00013000000000000002,2
5761,6047,-1e-05,-2e-05,0.00011999999999999999,0.00035,0.0,-8e-05,-2.9999999999999997e-05,0.00013000000000000002,2
5762,6048,-1e-05,-2e-05,0.00011999999999999999,0.00035,0.0,-8e-05,-2.9999999999999997e-05,0.00013000000000000002,2
5763,6049,-1e-05,-2e-05,0.00011999999999999999,0.00035,0.0,-8e-05,-2.9999999999999997e-05,0.00013000000000000002,2
5764,6050,-1e-05,-2e-05,0.00011999999999999999,0.00035,0.0,-8e-05,-2.9999999999999997e-05,0.00013000000000000002,2
5765,6051,-1e-05,-2e-05,0.00011999999999999999,0.00035,0.0,-8e-05,-2.9999999999999997e-05,0.00013000000000000002,2
5766,6052,-1e-05,-2e-05,0.00011999999999999999,0.00035,0.0,-8e-05,-2.9999999999999997e-05,0.00013000000000000002,2
5767,6053,-1e-05,-2e-05,0.00011999999999999999,0.00035,0.0,-8e-05,-2.9999999999999997e-05,0.00013000000000000002,2
5768,6054,-1e-05,-2e-05,0.00011999999999999999,0.00035,0.0,-8e-05,-2.9999999999999997e-05,0.00013000000000000002,2
5769,6055,-1e-05,-2e-05,0.00011999999999999999,0.00035,0.0,-8e-05,-2.9999999999999997e-05,0.00013000000000000002,2
5770,6056,-1e-05,-2e-05,0.00011999999999999999,0.00035,0.0,-8e-05,-2.9999999999999997e-05,0.00013000000000000002,2
5771,6057,-7e-05,-1e-05,0.00011999999999999999,0.00015,-2.9999999999999997e-05,-9e-05,2.9999999999999997e-05,-0.00013000000000000002,2
5772,6058,-7e-05,-1e-05,0.00011999999999999999,0.00015,-2.9999999999999997e-05,-9e-05,2.9999999999999997e-05,-0.00013000000000000002,2
5773,6059,-7e-05,-1e-05,0.00011999999999999999,0.00015,-2.9999999999999997e-05,-9e-05,2.9999999999999997e-05,-0.00013000000000000002,2
5774,6060,-7e-05,-1e-05,0.00011999999999999999,0.00015,-2.9999999999999997e-05,-9e-05,2.9999999999999997e-05,-0.00013000000000000002,2
5775,6061,-7e-05,-1e-05,0.00011999999999999999,0.00015,-2.9999999999999997e-05,-9e-05,2.9999999999999997e-05,-0.00013000000000000002,2
5776,6062,-7e-05,-1e-05,0.00011999999999999999,0.00015,-2.9999999999999997e-05,-9e-05,2.9999999999999997e-05,-0.00013000000000000002,2
5777,6063,-7e-05,-1e-05,0.00011999999999999999,0.00015,-2.9999999999999997e-05,-9e-05,2.9999999999999997e-05,-0.00013000000000000002,2
5778,6064,-7e-05,-1e-05,0.00011999999999999999,0.00015,-2.9999999999999997e-05,-9e-05,2.9999999999999997e-05,-0.00013000000000000002,2
5779,6065,-1e-05,-2e-05,-4e-05,-0.0006799999999999999,-8e-05,1e-05,0.00018,-7e-05,2
5780,6066,-1e-05,-2e-05,-4e-05,-0.0006799999999999999,-8e-05,1e-05,0.00018,-7e-05,2
5781,6067,-1e-05,-2e-05,-4e-05,-0.0006799999999999999,-8e-05,1e-05,0.00018,-7e-05,2
5782,6068,-1e-05,-2e-05,-4e-05,-0.0006799999999999999,-8e-05,1e-05,0.00018,-7e-05,2
5783,6072,-1e-05,-2e-05,-4e-05,-0.0006799999999999999,-8e-05,1e-05,0.00018,-7e-05,2
5784,6073,-1e-05,-2e-05,-4e-05,-0.0006799999999999999,-8e-05,1e-05,0.00018,-7e-05,2
5785,6074,-1e-05,-2e-05,-4e-05,-0.0006799999999999999,-8e-05,1e-05,0.00018,-7e-05,2
5786,6075,-1e-05,-2e-05,-4e-05,-0.0006799999999999999,-8e-05,1e-05,0.00018,-7e-05,2
5787,6076,-1e-05,-2e-05,-4e-05,-0.0006799999999999999,-8e-05,1e-05,0.00018,-7e-05,2
5788,6077,-1e-05,-2e-05,-4e-05,-0.0006799999999999999,-8e-05,1e-05,0.00018,-7e-05,2
5789,6078,-1e-05,-2e-05,-4e-05,-0.0006799999999999999,-8e-05,1e-05,0.00018,-7e-05,2
5790,6079,-1e-05,-2e-05,-4e-05,-0.0006799999999999999,-8e-05,1e-05,0.00018,-7e-05,2
5791,6080,-1e-05,-2e-05,-4e-05,-0.0006799999999999999,-8e-05,1e-05,0.00018,-7e-05,2
5792,6081,-1e-05,-2e-05,-4e-05,-0.0006799999999999999,-8e-05,1e-05,0.00018,-7e-05,2
5793,6082,-1e-05,-2e-05,-4e-05,-0.0006799999999999999,-8e-05,1e-05,0.00018,-7e-05,2
5794,6083,-1e-05,-2e-05,-4e-05,-0.0006799999999999999,-8e-05,1e-05,0.00018,-7e-05,2
5795,6084,-1e-05,-2e-05,-4e-05,-0.0006799999999999999,-8e-05,1e-05,0.00018,-7e-05,2
5796,6085,-1e-05,-2e-05,-4e-05,-0.0006799999999999999,-8e-05,1e-05,0.00018,-7e-05,2
5797,6087,-4e-05,-2.9999999999999997e-05,2e-05,0.00022,-2.9999999999999997e-05,-1e-05,1e-05,0.00032,2
5798,6090,-8e-05,0.0,7e-05,-5.9999999999999995e-05,2e-05,-0.0001,-2e-05,-0.00018999999999999998,2
5799,6091,-8e-05,0.0,7e-05,-5.9999999999999995e-05,2e-05,-0.0001,-2e-05,-0.00018999999999999998,2
5800,6092,-8e-05,0.0,7e-05,-5.9999999999999995e-05,2e-05,-0.0001,-2e-05,-0.00018999999999999998,2
5801,6093,-8e-05,0.0,7e-05,-5.9999999999999995e-05,2e-05,-0.0001,-2e-05,-0.00018999999999999998,2
5802,6094,-8e-05,0.0,7e-05,-5.9999999999999995e-05,2e-05,-0.0001,-2e-05,-0.00018999999999999998,2
5803,6095,-8e-05,0.0,7e-05,-5.9999999999999995e-05,2e-05,-0.0001,-2e-05,-0.00018999999999999998,2
5804,6096,-8e-05,0.0,7e-05,-5.9999999999999995e-05,2e-05,-0.0001,-2e-05,-0.00018999999999999998,2
5805,6097,-8e-05,0.0,7e-05,-5.9999999999999995e-05,2e-05,-0.0001,-2e-05,-0.00018999999999999998,2
5806,6098,-8e-05,0.0,7e-05,-5.9999999999999995e-05,2e-05,-0.0001,-2e-05,-0.00018999999999999998,2
5807,6099,-8e-05,0.0,7e-05,-5.9999999999999995e-05,2e-05,-0.0001,-2e-05,-0.00018999999999999998,2
5808,6100,-8e-05,0.0,7e-05,-5.9999999999999995e-05,2e-05,-0.0001,-2e-05,-0.00018999999999999998,2
5809,6101,-8e-05,0.0,7e-05,-5.9999999999999995e-05,2e-05,-0.0001,-2e-05,-0.00018999999999999998,2
5810,6102,-8e-05,0.0,7e-05,-5.9999999999999995e-05,2e-05,-0.0001,-2e-05,-0.00018999999999999998,2
5811,6103,-8e-05,0.0,7e-05,-5.9999999999999995e-05,2e-05,-0.0001,-2e-05,-0.00018999999999999998,2
5812,6104,-8e-05,0.0,7e-05,-5.9999999999999995e-05,2e-05,-0.0001,-2e-05,-0.00018999999999999998,2
5813,6105,-8e-05,0.0,7e-05,-5.9999999999999995e-05,2e-05,-0.0001,-2e-05,-0.00018999999999999998,2
5814,6106,-8e-05,0.0,7e-05,-5.9999999999999995e-05,2e-05,-0.0001,-2e-05,-0.00018999999999999998,2
5815,6107,-8e-05,0.0,7e-05,-5.9999999999999995e-05,2e-05,-0.0001,-2e-05,-0.00018999999999999998,2
5816,6108,-8e-05,0.0,7e-05,-5.9999999999999995e-05,2e-05,-0.0001,-2e-05,-0.00018999999999999998,2
5817,6109,-8e-05,0.0,7e-05,-5.9999999999999995e-05,2e-05,-0.0001,-2e-05,-0.00018999999999999998,2
5818,6110,9e-05,5e-05,0.0,-2e-05,4e-05,9e-05,1e-05,-0.00013000000000000002,2
5819,6111,-1e-05,0.0,-5.9999999999999995e-05,-0.00035,-1e-05,-0.00018,-0.0003,7e-05,2
5820,6112,-1e-05,0.0,-5.9999999999999995e-05,-0.00035,-1e-05,-0.00018,-0.0003,7e-05,2
5821,6113,-1e-05,0.0,-5.9999999999999995e-05,-0.00035,-1e-05,-0.00018,-0.0003,7e-05,2
5822,6114,-1e-05,0.0,-5.9999999999999995e-05,-0.00035,-1e-05,-0.00018,-0.0003,7e-05,2
5823,6115,-1e-05,0.0,-5.9999999999999995e-05,-0.00035,-1e-05,-0.00018,-0.0003,7e-05,2
5824,6116,-1e-05,0.0,-5.9999999999999995e-05,-0.00035,-1e-05,-0.00018,-0.0003,7e-05,2
5825,6117,-1e-05,0.0,-5.9999999999999995e-05,-0.00035,-1e-05,-0.00018,-0.0003,7e-05,2
5826,6118,-1e-05,0.0,-5.9999999999999995e-05,-0.00035,-1e-05,-0.00018,-0.0003,7e-05,2
5827,6119,-1e-05,0.0,-5.9999999999999995e-05,-0.00035,-1e-05,-0.00018,-0.0003,7e-05,2
5828,6120,-1e-05,0.0,-5.9999999999999995e-05,-0.00035,-1e-05,-0.00018,-0.0003,7e-05,2
5829,6121,-1e-05,0.0,-5.9999999999999995e-05,-0.00035,-1e-05,-0.00018,-0.0003,7e-05,2
5830,6122,-1e-05,0.0,-5.9999999999999995e-05,-0.00035,-1e-05,-0.00018,-0.0003,7e-05,2
5831,6123,-1e-05,0.0,-5.9999999999999995e-05,-0.00035,-1e-05,-0.00018,-0.0003,7e-05,2
5832,6124,-1e-05,0.0,-5.9999999999999995e-05,-0.00035,-1e-05,-0.00018,-0.0003,7e-05,2
5833,6125,-1e-05,0.0,-5.9999999999999995e-05,-0.00035,-1e-05,-0.00018,-0.0003,7e-05,2
5834,6126,-1e-05,0.0,-5.9999999999999995e-05,-0.00035,-1e-05,-0.00018,-0.0003,7e-05,2
5835,6127,-1e-05,0.0,-5.9999999999999995e-05,-0.00035,-1e-05,-0.00018,-0.0003,7e-05,2
5836,6128,-1e-05,0.0,-5.9999999999999995e-05,-0.00035,-1e-05,-0.00018,-0.0003,7e-05,2
5837,6129,-1e-05,0.0,-5.9999999999999995e-05,-0.00035,-1e-05,-0.00018,-0.0003,7e-05,2
5838,6130,-1e-05,0.0,-5.9999999999999995e-05,-0.00035,-1e-05,-0.00018,-0.0003,7e-05,2
5839,6131,0.0,-1e-05,4e-05,0.00016999999999999999,2.9999999999999997e-05,5e-05,5e-05,-0.00011,2
5840,6132,0.0,-1e-05,4e-05,0.00016999999999999999,2.9999999999999997e-05,5e-05,5e-05,-0.00011,2
5841,6133,0.0,-1e-05,4e-05,0.00016999999999999999,2.9999999999999997e-05,5e-05,5e-05,-0.00011,2
5842,6134,0.0,-1e-05,4e-05,0.00016999999999999999,2.9999999999999997e-05,5e-05,5e-05,-0.00011,2
5843,6135,0.0,-1e-05,4e-05,0.00016999999999999999,2.9999999999999997e-05,5e-05,5e-05,-0.00011,2
5844,6136,0.0,-1e-05,4e-05,0.00016999999999999999,2.9999999999999997e-05,5e-05,5e-05,-0.00011,2
5845,6139,0.0,-1e-05,4e-05,0.00016999999999999999,2.9999999999999997e-05,5e-05,5e-05,-0.00011,2
5846,6140,-4e-05,1e-05,-9e-05,0.0009,-2e-05,2e-05,9e-05,-0.0004,2
5847,6141,-4e-05,1e-05,-9e-05,0.0009,-2e-05,2e-05,9e-05,-0.0004,2
5848,6142,-4e-05,1e-05,-9e-05,0.0009,-2e-05,2e-05,9e-05,-0.0004,2
5849,6143,-4e-05,1e-05,-9e-05,0.0009,-2e-05,2e-05,9e-05,-0.0004,2
5850,6144,-4e-05,1e-05,-9e-05,0.0009,-2e-05,2e-05,9e-05,-0.0004,2
5851,6145,-4e-05,1e-05,-9e-05,0.0009,-2e-05,2e-05,9e-05,-0.0004,2
5852,6146,-4e-05,1e-05,-9e-05,0.0009,-2e-05,2e-05,9e-05,-0.0004,2
5853,6147,-4e-05,1e-05,-9e-05,0.0009,-2e-05,2e-05,9e-05,-0.0004,2
5854,6148,-4e-05,1e-05,-9e-05,0.0009,-2e-05,2e-05,9e-05,-0.0004,2
5855,6149,-4e-05,1e-05,-9e-05,0.0009,-2e-05,2e-05,9e-05,-0.0004,2
5856,6150,-4e-05,1e-05,-9e-05,0.0009,-2e-05,2e-05,9e-05,-0.0004,2
5857,6151,-4e-05,1e-05,-9e-05,0.0009,-2e-05,2e-05,9e-05,-0.0004,2
5858,6152,-4e-05,1e-05,-9e-05,0.0009,-2e-05,2e-05,9e-05,-0.0004,2
5859,6153,-4e-05,1e-05,-9e-05,0.0009,-2e-05,2e-05,9e-05,-0.0004,2
5860,6154,-4e-05,1e-05,-9e-05,0.0009,-2e-05,2e-05,9e-05,-0.0004,2
5861,6155,-4e-05,1e-05,-9e-05,0.0009,-2e-05,2e-05,9e-05,-0.0004,2
5862,6156,-4e-05,1e-05,-9e-05,0.0009,-2e-05,2e-05,9e-05,-0.0004,2
5863,6157,-4e-05,1e-05,-9e-05,0.0009,-2e-05,2e-05,9e-05,-0.0004,2
5864,6158,-4e-05,1e-05,-9e-05,0.0009,-2e-05,2e-05,9e-05,-0.0004,2
5865,6159,-4e-05,1e-05,-9e-05,0.0009,-2e-05,2e-05,9e-05,-0.0004,2
5866,6160,-4e-05,1e-05,-9e-05,0.0009,-2e-05,2e-05,9e-05,-0.0004,2
5867,6161,-4e-05,1e-05,-9e-05,0.0009,-2e-05,2e-05,9e-05,-0.0004,2
5868,6162,-7e-05,-2e-05,2.9999999999999997e-05,-8e-05,-2e-05,-4e-05,-0.00011999999999999999,-0.00014,2
5869,6163,-7e-05,-2e-05,2.9999999999999997e-05,-8e-05,-2e-05,-4e-05,-0.00011999999999999999,-0.00014,2
5870,6164,0.00011,-2.9999999999999997e-05,-2e-05,-0.00039,-2e-05,0.0,-5.9999999999999995e-05,0.00022999999999999998,2
5871,6165,0.00011,-2.9999999999999997e-05,-2e-05,-0.00039,-2e-05,0.0,-5.9999999999999995e-05,0.00022999999999999998,2
5872,6166,0.00011,-2.9999999999999997e-05,-2e-05,-0.00039,-2e-05,0.0,-5.9999999999999995e-05,0.00022999999999999998,2
5873,6167,0.00011,-2.9999999999999997e-05,-2e-05,-0.00039,-2e-05,0.0,-5.9999999999999995e-05,0.00022999999999999998,2
5874,6168,0.00011,-2.9999999999999997e-05,-2e-05,-0.00039,-2e-05,0.0,-5.9999999999999995e-05,0.00022999999999999998,2
5875,6169,0.00011,-2.9999999999999997e-05,-2e-05,-0.00039,-2e-05,0.0,-5.9999999999999995e-05,0.00022999999999999998,2
5876,6170,0.00011,-2.9999999999999997e-05,-2e-05,-0.00039,-2e-05,0.0,-5.9999999999999995e-05,0.00022999999999999998,2
5877,6171,0.00011,-2.9999999999999997e-05,-2e-05,-0.00039,-2e-05,0.0,-5.9999999999999995e-05,0.00022999999999999998,2
5878,6172,0.00011,-2.9999999999999997e-05,-2e-05,-0.00039,-2e-05,0.0,-5.9999999999999995e-05,0.00022999999999999998,2
5879,6173,0.00011,-2.9999999999999997e-05,-2e-05,-0.00039,-2e-05,0.0,-5.9999999999999995e-05,0.00022999999999999998,2
5880,6174,0.00011,-2.9999999999999997e-05,-2e-05,-0.00039,-2e-05,0.0,-5.9999999999999995e-05,0.00022999999999999998,2
5881,6175,0.00011,-2.9999999999999997e-05,-2e-05,-0.00039,-2e-05,0.0,-5.9999999999999995e-05,0.00022999999999999998,2
5882,6176,0.00011,-2.9999999999999997e-05,-2e-05,-0.00039,-2e-05,0.0,-5.9999999999999995e-05,0.00022999999999999998,2
5883,6177,0.00011,-2.9999999999999997e-05,-2e-05,-0.00039,-2e-05,0.0,-5.9999999999999995e-05,0.00022999999999999998,2
5884,6178,0.00011,-2.9999999999999997e-05,-2e-05,-0.00039,-2e-05,0.0,-5.9999999999999995e-05,0.00022999999999999998,2
5885,6179,0.00011,-2.9999999999999997e-05,-2e-05,-0.00039,-2e-05,0.0,-5.9999999999999995e-05,0.00022999999999999998,2
5886,6180,0.00011,-2.9999999999999997e-05,-2e-05,-0.00039,-2e-05,0.0,-5.9999999999999995e-05,0.00022999999999999998,2
5887,6181,0.00011,-2.9999999999999997e-05,-2e-05,-0.00039,-2e-05,0.0,-5.9999999999999995e-05,0.00022999999999999998,2
5888,6182,0.00011,-2.9999999999999997e-05,-2e-05,-0.00039,-2e-05,0.0,-5.9999999999999995e-05,0.00022999999999999998,2
5889,6183,0.00011,-2.9999999999999997e-05,-2e-05,-0.00039,-2e-05,0.0,-5.9999999999999995e-05,0.00022999999999999998,2
5890,6184,0.00011,-2.9999999999999997e-05,-2e-05,-0.00039,-2e-05,0.0,-5.9999999999999995e-05,0.00022999999999999998,2
5891,6185,2.9999999999999997e-05,4e-05,0.00016,0.00047000000000000004,-1e-05,-5e-05,2.9999999999999997e-05,-0.00013000000000000002,2
5892,6186,-5.9999999999999995e-05,-2e-05,-0.00027,-0.00011,-1e-05,0.0,1e-05,0.0,2
5893,6190,-9e-05,-2.9999999999999997e-05,-2.9999999999999997e-05,-0.00045,4e-05,-1e-05,-0.00023999999999999998,-9e-05,2
5894,6191,-9e-05,-2.9999999999999997e-05,-2.9999999999999997e-05,-0.00045,4e-05,-1e-05,-0.00023999999999999998,-9e-05,2
5895,6192,-9e-05,-2.9999999999999997e-05,-2.9999999999999997e-05,-0.00045,4e-05,-1e-05,-0.00023999999999999998,-9e-05,2
5896,6193,-9e-05,-2.9999999999999997e-05,-2.9999999999999997e-05,-0.00045,4e-05,-1e-05,-0.00023999999999999998,-9e-05,2
5897,6194,-9e-05,-2.9999999999999997e-05,-2.9999999999999997e-05,-0.00045,4e-05,-1e-05,-0.00023999999999999998,-9e-05,2
5898,6195,-9e-05,-2.9999999999999997e-05,-2.9999999999999997e-05,-0.00045,4e-05,-1e-05,-0.00023999999999999998,-9e-05,2
5899,6196,-9e-05,-2.9999999999999997e-05,-2.9999999999999997e-05,-0.00045,4e-05,-1e-05,-0.00023999999999999998,-9e-05,2
5900,6197,-9e-05,-2.9999999999999997e-05,-2.9999999999999997e-05,-0.00045,4e-05,-1e-05,-0.00023999999999999998,-9e-05,2
5901,6198,-9e-05,-2.9999999999999997e-05,-2.9999999999999997e-05,-0.00045,4e-05,-1e-05,-0.00023999999999999998,-9e-05,2
5902,6199,-9e-05,-2.9999999999999997e-05,-2.9999999999999997e-05,-0.00045,4e-05,-1e-05,-0.00023999999999999998,-9e-05,2
5903,6200,-9e-05,-2.9999999999999997e-05,-2.9999999999999997e-05,-0.00045,4e-05,-1e-05,-0.00023999999999999998,-9e-05,2
5904,6201,-9e-05,-2.9999999999999997e-05,-2.9999999999999997e-05,-0.00045,4e-05,-1e-05,-0.00023999999999999998,-9e-05,2
5905,6202,-9e-05,-2.9999999999999997e-05,-2.9999999999999997e-05,-0.00045,4e-05,-1e-05,-0.00023999999999999998,-9e-05,2
5906,6203,-9e-05,-2.9999999999999997e-05,-2.9999999999999997e-05,-0.00045,4e-05,-1e-05,-0.00023999999999999998,-9e-05,2
5907,6204,-9e-05,-2.9999999999999997e-05,-2.9999999999999997e-05,-0.00045,4e-05,-1e-05,-0.00023999999999999998,-9e-05,2
5908,6205,-9e-05,-2.9999999999999997e-05,-2.9999999999999997e-05,-0.00045,4e-05,-1e-05,-0.00023999999999999998,-9e-05,2
5909,6206,-9e-05,-2.9999999999999997e-05,-2.9999999999999997e-05,-0.00045,4e-05,-1e-05,-0.00023999999999999998,-9e-05,2
5910,6207,-0.00013000000000000002,-5e-05,4e-05,-0.00011999999999999999,5.9999999999999995e-05,-7e-05,-7e-05,-0.00018,2
5911,6208,-0.00013000000000000002,-5e-05,4e-05,-0.00011999999999999999,5.9999999999999995e-05,-7e-05,-7e-05,-0.00018,2
5912,6209,-0.00013000000000000002,-5e-05,4e-05,-0.00011999999999999999,5.9999999999999995e-05,-7e-05,-7e-05,-0.00018,2
5913,6210,-0.00013000000000000002,-5e-05,4e-05,-0.00011999999999999999,5.9999999999999995e-05,-7e-05,-7e-05,-0.00018,2
5914,6211,-0.00013000000000000002,-5e-05,4e-05,-0.00011999999999999999,5.9999999999999995e-05,-7e-05,-7e-05,-0.00018,2
5915,6212,-0.00013000000000000002,-5e-05,4e-05,-0.00011999999999999999,5.9999999999999995e-05,-7e-05,-7e-05,-0.00018,2
5916,6213,-9e-05,-4e-05,0.0,-0.00021,0.0,-5e-05,-0.00014,-1e-05,2
5917,6214,-9e-05,-4e-05,0.0,-0.00021,0.0,-5e-05,-0.00014,-1e-05,2
5918,6215,-9e-05,-4e-05,0.0,-0.00021,0.0,-5e-05,-0.00014,-1e-05,2
5919,6216,-9e-05,-4e-05,0.0,-0.00021,0.0,-5e-05,-0.00014,-1e-05,2
5920,6217,-9e-05,-4e-05,0.0,-0.00021,0.0,-5e-05,-0.00014,-1e-05,2
5921,6218,-9e-05,-4e-05,0.0,-0.00021,0.0,-5e-05,-0.00014,-1e-05,2
5922,6219,-9e-05,-4e-05,0.0,-0.00021,0.0,-5e-05,-0.00014,-1e-05,2
5923,6220,-9e-05,-4e-05,0.0,-0.00021,0.0,-5e-05,-0.00014,-1e-05,2
5924,6221,-9e-05,-4e-05,0.0,-0.00021,0.0,-5e-05,-0.00014,-1e-05,2
5925,6222,-9e-05,-4e-05,0.0,-0.00021,0.0,-5e-05,-0.00014,-1e-05,2
5926,6223,-9e-05,-4e-05,0.0,-0.00021,0.0,-5e-05,-0.00014,-1e-05,2
5927,6224,-9e-05,-4e-05,0.0,-0.00021,0.0,-5e-05,-0.00014,-1e-05,2
5928,6225,-9e-05,-4e-05,0.0,-0.00021,0.0,-5e-05,-0.00014,-1e-05,2
5929,6226,-9e-05,-4e-05,0.0,-0.00021,0.0,-5e-05,-0.00014,-1e-05,2
5930,6227,-9e-05,-4e-05,0.0,-0.00021,0.0,-5e-05,-0.00014,-1e-05,2
5931,6228,-9e-05,-4e-05,0.0,-0.00021,0.0,-5e-05,-0.00014,-1e-05,2
5932,6229,-9e-05,-4e-05,0.0,-0.00021,0.0,-5e-05,-0.00014,-1e-05,2
5933,6230,-9e-05,-4e-05,0.0,-0.00021,0.0,-5e-05,-0.00014,-1e-05,2
5934,6231,-9e-05,-4e-05,0.0,-0.00021,0.0,-5e-05,-0.00014,-1e-05,2
5935,6232,-9e-05,-4e-05,0.0,-0.00021,0.0,-5e-05,-0.00014,-1e-05,2
5936,6233,-9e-05,-4e-05,0.0,-0.00021,0.0,-5e-05,-0.00014,-1e-05,2
5937,6234,-9e-05,-4e-05,0.0,-0.00021,0.0,-5e-05,-0.00014,-1e-05,2
5938,6235,-9e-05,-4e-05,0.0,-0.00021,0.0,-5e-05,-0.00014,-1e-05,2
5939,6236,-9e-05,-4e-05,0.0,-0.00021,0.0,-5e-05,-0.00014,-1e-05,2
5940,6240,-8e-05,-5.9999999999999995e-05,-5.9999999999999995e-05,5.9999999999999995e-05,0.0,2e-05,-1e-05,-0.00011,2
5941,6241,-8e-05,-5.9999999999999995e-05,-5.9999999999999995e-05,5.9999999999999995e-05,0.0,2e-05,-1e-05,-0.00011,2
5942,6242,-8e-05,-5.9999999999999995e-05,-5.9999999999999995e-05,5.9999999999999995e-05,0.0,2e-05,-1e-05,-0.00011,2
5943,6243,-8e-05,-5.9999999999999995e-05,-5.9999999999999995e-05,5.9999999999999995e-05,0.0,2e-05,-1e-05,-0.00011,2
5944,6244,-8e-05,-5.9999999999999995e-05,-5.9999999999999995e-05,5.9999999999999995e-05,0.0,2e-05,-1e-05,-0.00011,2
5945,6245,-8e-05,-5.9999999999999995e-05,-5.9999999999999995e-05,5.9999999999999995e-05,0.0,2e-05,-1e-05,-0.00011,2
5946,6246,-8e-05,-5.9999999999999995e-05,-5.9999999999999995e-05,5.9999999999999995e-05,0.0,2e-05,-1e-05,-0.00011,2
5947,6247,-8e-05,-5.9999999999999995e-05,-5.9999999999999995e-05,5.9999999999999995e-05,0.0,2e-05,-1e-05,-0.00011,2
5948,6248,-8e-05,-5.9999999999999995e-05,-5.9999999999999995e-05,5.9999999999999995e-05,0.0,2e-05,-1e-05,-0.00011,2
5949,6249,-8e-05,-5.9999999999999995e-05,-5.9999999999999995e-05,5.9999999999999995e-05,0.0,2e-05,-1e-05,-0.00011,2
5950,6250,-8e-05,-5.9999999999999995e-05,-5.9999999999999995e-05,5.9999999999999995e-05,0.0,2e-05,-1e-05,-0.00011,2
5951,6251,-8e-05,-5.9999999999999995e-05,-5.9999999999999995e-05,5.9999999999999995e-05,0.0,2e-05,-1e-05,-0.00011,2
5952,6252,-8e-05,-5.9999999999999995e-05,-5.9999999999999995e-05,5.9999999999999995e-05,0.0,2e-05,-1e-05,-0.00011,2
5953,6253,-8e-05,-5.9999999999999995e-05,-5.9999999999999995e-05,5.9999999999999995e-05,0.0,2e-05,-1e-05,-0.00011,2
5954,6254,-8e-05,-5.9999999999999995e-05,-5.9999999999999995e-05,5.9999999999999995e-05,0.0,2e-05,-1e-05,-0.00011,2
5955,6255,-8e-05,-5.9999999999999995e-05,-5.9999999999999995e-05,5.9999999999999995e-05,0.0,2e-05,-1e-05,-0.00011,2
5956,6256,-8e-05,-5.9999999999999995e-05,-5.9999999999999995e-05,5.9999999999999995e-05,0.0,2e-05,-1e-05,-0.00011,2
5957,6257,-8e-05,-5.9999999999999995e-05,-5.9999999999999995e-05,5.9999999999999995e-05,0.0,2e-05,-1e-05,-0.00011,2
5958,6258,-8e-05,-5.9999999999999995e-05,-5.9999999999999995e-05,5.9999999999999995e-05,0.0,2e-05,-1e-05,-0.00011,2
5959,6259,0.00011,2.9999999999999997e-05,0.00015,-0.00018,-4e-05,0.00014,0.00013000000000000002,0.0005,2
5960,6260,0.00011,2.9999999999999997e-05,0.00015,-0.00018,-4e-05,0.00014,0.00013000000000000002,0.0005,2
5961,6261,0.00011,2.9999999999999997e-05,0.00015,-0.00018,-4e-05,0.00014,0.00013000000000000002,0.0005,2
5962,6262,0.00011,2.9999999999999997e-05,0.00015,-0.00018,-4e-05,0.00014,0.00013000000000000002,0.0005,2
5963,6263,0.00011,2.9999999999999997e-05,0.00015,-0.00018,-4e-05,0.00014,0.00013000000000000002,0.0005,2
5964,6264,0.00011,2.9999999999999997e-05,0.00015,-0.00018,-4e-05,0.00014,0.00013000000000000002,0.0005,2
5965,6265,0.00011,2.9999999999999997e-05,0.00015,-0.00018,-4e-05,0.00014,0.00013000000000000002,0.0005,2
5966,6266,0.00011,2.9999999999999997e-05,0.00015,-0.00018,-4e-05,0.00014,0.00013000000000000002,0.0005,2
5967,6267,0.00011,2.9999999999999997e-05,0.00015,-0.00018,-4e-05,0.00014,0.00013000000000000002,0.0005,2
5968,6268,7e-05,5.9999999999999995e-05,2e-05,-0.00053,4e-05,2e-05,1e-05,0.00011,2
5969,6269,7e-05,5.9999999999999995e-05,2e-05,-0.00053,4e-05,2e-05,1e-05,0.00011,2
5970,6270,7e-05,5.9999999999999995e-05,2e-05,-0.00053,4e-05,2e-05,1e-05,0.00011,2
5971,6271,7e-05,5.9999999999999995e-05,2e-05,-0.00053,4e-05,2e-05,1e-05,0.00011,2
5972,6272,7e-05,5.9999999999999995e-05,2e-05,-0.00053,4e-05,2e-05,1e-05,0.00011,2
5973,6273,7e-05,5.9999999999999995e-05,2e-05,-0.00053,4e-05,2e-05,1e-05,0.00011,2
5974,6274,7e-05,5.9999999999999995e-05,2e-05,-0.00053,4e-05,2e-05,1e-05,0.00011,2
5975,6275,7e-05,5.9999999999999995e-05,2e-05,-0.00053,4e-05,2e-05,1e-05,0.00011,2
5976,6276,7e-05,5.9999999999999995e-05,2e-05,-0.00053,4e-05,2e-05,1e-05,0.00011,2
5977,6277,7e-05,5.9999999999999995e-05,2e-05,-0.00053,4e-05,2e-05,1e-05,0.00011,2
5978,6278,7e-05,5.9999999999999995e-05,2e-05,-0.00053,4e-05,2e-05,1e-05,0.00011,2
5979,6279,7e-05,5.9999999999999995e-05,2e-05,-0.00053,4e-05,2e-05,1e-05,0.00011,2
5980,6280,7e-05,5.9999999999999995e-05,2e-05,-0.00053,4e-05,2e-05,1e-05,0.00011,2
5981,6281,7e-05,5.9999999999999995e-05,2e-05,-0.00053,4e-05,2e-05,1e-05,0.00011,2
5982,6282,1e-05,-1e-05,0.0,0.0002,-4e-05,-2.9999999999999997e-05,2.9999999999999997e-05,-5e-05,2
5983,6283,1e-05,-1e-05,0.0,0.0002,-4e-05,-2.9999999999999997e-05,2.9999999999999997e-05,-5e-05,2
5984,6284,-4e-05,-2e-05,-2e-05,0.00018999999999999998,-1e-05,0.0001,0.00022999999999999998,9e-05,2
5985,6285,-4e-05,-2e-05,-2e-05,0.00018999999999999998,-1e-05,0.0001,0.00022999999999999998,9e-05,2
5986,6286,-4e-05,-2e-05,-2e-05,0.00018999999999999998,-1e-05,0.0001,0.00022999999999999998,9e-05,2
5987,6290,-4e-05,-2e-05,-2e-05,0.00018999999999999998,-1e-05,0.0001,0.00022999999999999998,9e-05,2
5988,6291,-4e-05,-2e-05,-2e-05,0.00018999999999999998,-1e-05,0.0001,0.00022999999999999998,9e-05,2
5989,6292,-4e-05,-2e-05,-2e-05,0.00018999999999999998,-1e-05,0.0001,0.00022999999999999998,9e-05,2
5990,6293,-4e-05,-2e-05,-2e-05,0.00018999999999999998,-1e-05,0.0001,0.00022999999999999998,9e-05,2
5991,6294,-4e-05,-2e-05,-2e-05,0.00018999999999999998,-1e-05,0.0001,0.00022999999999999998,9e-05,2
5992,6295,-4e-05,-2e-05,-2e-05,0.00018999999999999998,-1e-05,0.0001,0.00022999999999999998,9e-05,2
5993,6296,-4e-05,-2e-05,-2e-05,0.00018999999999999998,-1e-05,0.0001,0.00022999999999999998,9e-05,2
5994,6297,-4e-05,-2e-05,-2e-05,0.00018999999999999998,-1e-05,0.0001,0.00022999999999999998,9e-05,2
5995,6298,-4e-05,-2e-05,-2e-05,0.00018999999999999998,-1e-05,0.0001,0.00022999999999999998,9e-05,2
5996,6299,-4e-05,-2e-05,-2e-05,0.00018999999999999998,-1e-05,0.0001,0.00022999999999999998,9e-05,2
5997,6300,-4e-05,-2e-05,-2e-05,0.00018999999999999998,-1e-05,0.0001,0.00022999999999999998,9e-05,2
5998,6301,-4e-05,-2e-05,-2e-05,0.00018999999999999998,-1e-05,0.0001,0.00022999999999999998,9e-05,2
5999,6302,-4e-05,-2e-05,-2e-05,0.00018999999999999998,-1e-05,0.0001,0.00022999999999999998,9e-05,2
6000,6303,7e-05,-1e-05,0.00014,-0.00025,0.0,2e-05,-4e-05,-4e-05,2
6001,6304,-2e-05,-2e-05,-0.00016999999999999999,1e-05,8e-05,7e-05,5.9999999999999995e-05,-0.00015,2
6002,6305,-2e-05,-2e-05,-0.00016999999999999999,1e-05,8e-05,7e-05,5.9999999999999995e-05,-0.00015,2
6003,6306,-2e-05,-2e-05,-0.00016999999999999999,1e-05,8e-05,7e-05,5.9999999999999995e-05,-0.00015,2
6004,6307,-2e-05,-2e-05,-0.00016999999999999999,1e-05,8e-05,7e-05,5.9999999999999995e-05,-0.00015,2
6005,6308,-2e-05,-2e-05,-0.00016999999999999999,1e-05,8e-05,7e-05,5.9999999999999995e-05,-0.00015,2
6006,6309,-2e-05,-2e-05,-0.00016999999999999999,1e-05,8e-05,7e-05,5.9999999999999995e-05,-0.00015,2
6007,6310,-2e-05,-2e-05,-0.00016999999999999999,1e-05,8e-05,7e-05,5.9999999999999995e-05,-0.00015,2
6008,6311,-2e-05,-2e-05,-0.00016999999999999999,1e-05,8e-05,7e-05,5.9999999999999995e-05,-0.00015,2
6009,6312,5.9999999999999995e-05,2.9999999999999997e-05,2.9999999999999997e-05,4e-05,-2e-05,-8e-05,0.00023999999999999998,4e-05,2
6010,6313,5.9999999999999995e-05,2.9999999999999997e-05,2.9999999999999997e-05,4e-05,-2e-05,-8e-05,0.00023999999999999998,4e-05,2
6011,6314,5.9999999999999995e-05,2.9999999999999997e-05,2.9999999999999997e-05,4e-05,-2e-05,-8e-05,0.00023999999999999998,4e-05,2
6012,6315,5.9999999999999995e-05,2.9999999999999997e-05,2.9999999999999997e-05,4e-05,-2e-05,-8e-05,0.00023999999999999998,4e-05,2
6013,6316,5.9999999999999995e-05,2.9999999999999997e-05,2.9999999999999997e-05,4e-05,-2e-05,-8e-05,0.00023999999999999998,4e-05,2
6014,6317,5.9999999999999995e-05,2.9999999999999997e-05,2.9999999999999997e-05,4e-05,-2e-05,-8e-05,0.00023999999999999998,4e-05,2
6015,6318,5.9999999999999995e-05,2.9999999999999997e-05,2.9999999999999997e-05,4e-05,-2e-05,-8e-05,0.00023999999999999998,4e-05,2
6016,6319,5.9999999999999995e-05,2.9999999999999997e-05,2.9999999999999997e-05,4e-05,-2e-05,-8e-05,0.00023999999999999998,4e-05,2
6017,6320,5.9999999999999995e-05,2.9999999999999997e-05,2.9999999999999997e-05,4e-05,-2e-05,-8e-05,0.00023999999999999998,4e-05,2
6018,6321,5.9999999999999995e-05,2.9999999999999997e-05,2.9999999999999997e-05,4e-05,-2e-05,-8e-05,0.00023999999999999998,4e-05,2
6019,6322,5.9999999999999995e-05,2.9999999999999997e-05,2.9999999999999997e-05,4e-05,-2e-05,-8e-05,0.00023999999999999998,4e-05,2
6020,6323,5.9999999999999995e-05,2.9999999999999997e-05,2.9999999999999997e-05,4e-05,-2e-05,-8e-05,0.00023999999999999998,4e-05,2
6021,6324,5.9999999999999995e-05,2.9999999999999997e-05,2.9999999999999997e-05,4e-05,-2e-05,-8e-05,0.00023999999999999998,4e-05,2
6022,6325,5.9999999999999995e-05,2.9999999999999997e-05,2.9999999999999997e-05,4e-05,-2e-05,-8e-05,0.00023999999999999998,4e-05,2
6023,6326,5.9999999999999995e-05,2.9999999999999997e-05,2.9999999999999997e-05,4e-05,-2e-05,-8e-05,0.00023999999999999998,4e-05,2
6024,6327,5.9999999999999995e-05,2.9999999999999997e-05,2.9999999999999997e-05,4e-05,-2e-05,-8e-05,0.00023999999999999998,4e-05,2
6025,6328,5.9999999999999995e-05,2.9999999999999997e-05,2.9999999999999997e-05,4e-05,-2e-05,-8e-05,0.00023999999999999998,4e-05,2
6026,6329,5.9999999999999995e-05,2.9999999999999997e-05,2.9999999999999997e-05,4e-05,-2e-05,-8e-05,0.00023999999999999998,4e-05,2
6027,6330,5.9999999999999995e-05,2.9999999999999997e-05,2.9999999999999997e-05,4e-05,-2e-05,-8e-05,0.00023999999999999998,4e-05,2
6028,6331,5.9999999999999995e-05,2.9999999999999997e-05,2.9999999999999997e-05,4e-05,-2e-05,-8e-05,0.00023999999999999998,4e-05,2
6029,6332,5.9999999999999995e-05,2.9999999999999997e-05,2.9999999999999997e-05,4e-05,-2e-05,-8e-05,0.00023999999999999998,4e-05,2
6030,6333,5.9999999999999995e-05,2.9999999999999997e-05,2.9999999999999997e-05,4e-05,-2e-05,-8e-05,0.00023999999999999998,4e-05,2
6031,6334,5.9999999999999995e-05,2.9999999999999997e-05,2.9999999999999997e-05,4e-05,-2e-05,-8e-05,0.00023999999999999998,4e-05,2
6032,6335,2.9999999999999997e-05,-1e-05,0.0001,0.0003,4e-05,5.9999999999999995e-05,0.00011,-0.00027,2
6033,6336,-2.9999999999999997e-05,-2e-05,-5.9999999999999995e-05,-0.00016999999999999999,-5e-05,5e-05,2e-05,-0.0001,2
6034,6338,5e-05,2.9999999999999997e-05,-4e-05,7e-05,2e-05,-9e-05,-0.00015,-0.00011,2
6035,6339,5e-05,2.9999999999999997e-05,-4e-05,7e-05,2e-05,-9e-05,-0.00015,-0.00011,2
6036,6340,5e-05,2.9999999999999997e-05,-4e-05,7e-05,2e-05,-9e-05,-0.00015,-0.00011,2
6037,6341,5e-05,2.9999999999999997e-05,-4e-05,7e-05,2e-05,-9e-05,-0.00015,-0.00011,2
6038,6342,5e-05,2.9999999999999997e-05,-4e-05,7e-05,2e-05,-9e-05,-0.00015,-0.00011,2
6039,6343,5e-05,2.9999999999999997e-05,-4e-05,7e-05,2e-05,-9e-05,-0.00015,-0.00011,2
6040,6344,5e-05,2.9999999999999997e-05,-4e-05,7e-05,2e-05,-9e-05,-0.00015,-0.00011,2
6041,6345,5e-05,2.9999999999999997e-05,-4e-05,7e-05,2e-05,-9e-05,-0.00015,-0.00011,2
6042,6346,5e-05,2.9999999999999997e-05,-4e-05,7e-05,2e-05,-9e-05,-0.00015,-0.00011,2
6043,6347,5e-05,2.9999999999999997e-05,-4e-05,7e-05,2e-05,-9e-05,-0.00015,-0.00011,2
6044,6348,5e-05,2.9999999999999997e-05,-4e-05,7e-05,2e-05,-9e-05,-0.00015,-0.00011,2
6045,6349,5e-05,2.9999999999999997e-05,-4e-05,7e-05,2e-05,-9e-05,-0.00015,-0.00011,2
6046,6350,5e-05,2.9999999999999997e-05,-4e-05,7e-05,2e-05,-9e-05,-0.00015,-0.00011,2
6047,6351,5e-05,2.9999999999999997e-05,-4e-05,7e-05,2e-05,-9e-05,-0.00015,-0.00011,2
6048,6352,5e-05,2.9999999999999997e-05,-4e-05,7e-05,2e-05,-9e-05,-0.00015,-0.00011,2
6049,6353,5e-05,2.9999999999999997e-05,-4e-05,7e-05,2e-05,-9e-05,-0.00015,-0.00011,2
6050,6354,5e-05,2.9999999999999997e-05,-4e-05,7e-05,2e-05,-9e-05,-0.00015,-0.00011,2
6051,6355,5e-05,2.9999999999999997e-05,-4e-05,7e-05,2e-05,-9e-05,-0.00015,-0.00011,2
6052,6356,5e-05,2.9999999999999997e-05,-4e-05,7e-05,2e-05,-9e-05,-0.00015,-0.00011,2
6053,6357,0.0,2e-05,5e-05,0.00025,4e-05,8e-05,0.0,-8e-05,2
6054,6358,-5.9999999999999995e-05,-2.9999999999999997e-05,-0.00014,-0.0006900000000000001,-2e-05,-4e-05,0.00015,0.00023999999999999998,2
6055,6359,1e-05,-2e-05,0.00011,0.00085,5.9999999999999995e-05,-2.9999999999999997e-05,-9e-05,-0.00018,2
6056,6360,1e-05,-2e-05,0.00011,0.00085,5.9999999999999995e-05,-2.9999999999999997e-05,-9e-05,-0.00018,2
6057,6361,1e-05,-2e-05,0.00011,0.00085,5.9999999999999995e-05,-2.9999999999999997e-05,-9e-05,-0.00018,2
6058,6362,1e-05,-2e-05,0.00011,0.00085,5.9999999999999995e-05,-2.9999999999999997e-05,-9e-05,-0.00018,2
6059,6363,1e-05,-2e-05,0.00011,0.00085,5.9999999999999995e-05,-2.9999999999999997e-05,-9e-05,-0.00018,2
6060,6364,1e-05,-2e-05,0.00011,0.00085,5.9999999999999995e-05,-2.9999999999999997e-05,-9e-05,-0.00018,2
6061,6365,1e-05,-2e-05,0.00011,0.00085,5.9999999999999995e-05,-2.9999999999999997e-05,-9e-05,-0.00018,2
6062,6366,1e-05,-2e-05,0.00011,0.00085,5.9999999999999995e-05,-2.9999999999999997e-05,-9e-05,-0.00018,2
6063,6367,1e-05,-2e-05,0.00011,0.00085,5.9999999999999995e-05,-2.9999999999999997e-05,-9e-05,-0.00018,2
6064,6368,1e-05,-2e-05,0.00011,0.00085,5.9999999999999995e-05,-2.9999999999999997e-05,-9e-05,-0.00018,2
6065,6369,1e-05,-2e-05,0.00011,0.00085,5.9999999999999995e-05,-2.9999999999999997e-05,-9e-05,-0.00018,2
6066,6370,1e-05,-2e-05,0.00011,0.00085,5.9999999999999995e-05,-2.9999999999999997e-05,-9e-05,-0.00018,2
6067,6371,1e-05,-2e-05,0.00011,0.00085,5.9999999999999995e-05,-2.9999999999999997e-05,-9e-05,-0.00018,2
6068,6372,1e-05,-2e-05,0.00011,0.00085,5.9999999999999995e-05,-2.9999999999999997e-05,-9e-05,-0.00018,2
6069,6373,1e-05,-2e-05,0.00011,0.00085,5.9999999999999995e-05,-2.9999999999999997e-05,-9e-05,-0.00018,2
6070,6374,1e-05,-2e-05,0.00011,0.00085,5.9999999999999995e-05,-2.9999999999999997e-05,-9e-05,-0.00018,2
6071,6375,1e-05,-2e-05,0.00011,0.00085,5.9999999999999995e-05,-2.9999999999999997e-05,-9e-05,-0.00018,2
6072,6376,1e-05,-2e-05,0.00011,0.00085,5.9999999999999995e-05,-2.9999999999999997e-05,-9e-05,-0.00018,2
6073,6377,1e-05,-2e-05,0.00011,0.00085,5.9999999999999995e-05,-2.9999999999999997e-05,-9e-05,-0.00018,2
6074,6378,1e-05,-2e-05,0.00011,0.00085,5.9999999999999995e-05,-2.9999999999999997e-05,-9e-05,-0.00018,2
6075,6379,1e-05,-2e-05,0.00011,0.00085,5.9999999999999995e-05,-2.9999999999999997e-05,-9e-05,-0.00018,2
6076,6380,1e-05,-2.9999999999999997e-05,-7e-05,-2e-05,-1e-05,-2e-05,1e-05,9e-05,2
6077,6381,1e-05,-2.9999999999999997e-05,-7e-05,-2e-05,-1e-05,-2e-05,1e-05,9e-05,2
6078,6382,-2e-05,1e-05,8e-05,-0.00023999999999999998,-0.0001,0.0,-4e-05,0.00014,2
6079,6383,-2e-05,1e-05,8e-05,-0.00023999999999999998,-0.0001,0.0,-4e-05,0.00014,2
6080,6384,-2e-05,1e-05,8e-05,-0.00023999999999999998,-0.0001,0.0,-4e-05,0.00014,2
6081,6385,-2e-05,1e-05,8e-05,-0.00023999999999999998,-0.0001,0.0,-4e-05,0.00014,2
6082,6386,-2e-05,1e-05,8e-05,-0.00023999999999999998,-0.0001,0.0,-4e-05,0.00014,2
6083,6388,-2e-05,1e-05,8e-05,-0.00023999999999999998,-0.0001,0.0,-4e-05,0.00014,2
6084,6389,-2e-05,1e-05,8e-05,-0.00023999999999999998,-0.0001,0.0,-4e-05,0.00014,2
6085,6390,-2e-05,1e-05,8e-05,-0.00023999999999999998,-0.0001,0.0,-4e-05,0.00014,2
6086,6391,-2e-05,1e-05,8e-05,-0.00023999999999999998,-0.0001,0.0,-4e-05,0.00014,2
6087,6392,-2e-05,1e-05,8e-05,-0.00023999999999999998,-0.0001,0.0,-4e-05,0.00014,2
6088,6393,-2e-05,1e-05,8e-05,-0.00023999999999999998,-0.0001,0.0,-4e-05,0.00014,2
6089,6394,-2e-05,1e-05,8e-05,-0.00023999999999999998,-0.0001,0.0,-4e-05,0.00014,2
6090,6395,-2e-05,1e-05,8e-05,-0.00023999999999999998,-0.0001,0.0,-4e-05,0.00014,2
6091,6396,-2e-05,1e-05,8e-05,-0.00023999999999999998,-0.0001,0.0,-4e-05,0.00014,2
6092,6397,-2e-05,1e-05,8e-05,-0.00023999999999999998,-0.0001,0.0,-4e-05,0.00014,2
6093,6398,-2e-05,1e-05,8e-05,-0.00023999999999999998,-0.0001,0.0,-4e-05,0.00014,2
6094,6399,-2e-05,1e-05,8e-05,-0.00023999999999999998,-0.0001,0.0,-4e-05,0.00014,2
6095,6400,-2e-05,1e-05,8e-05,-0.00023999999999999998,-0.0001,0.0,-4e-05,0.00014,2
6096,6401,-1e-05,0.0,-9e-05,-0.00028,2e-05,5.9999999999999995e-05,1e-05,-2e-05,2
6097,6402,-9e-05,-2.9999999999999997e-05,1e-05,0.00016999999999999999,-2.9999999999999997e-05,-0.00013000000000000002,-8e-05,-7e-05,2
6098,6403,-9e-05,-2.9999999999999997e-05,1e-05,0.00016999999999999999,-2.9999999999999997e-05,-0.00013000000000000002,-8e-05,-7e-05,2
6099,6404,-9e-05,-2.9999999999999997e-05,1e-05,0.00016999999999999999,-2.9999999999999997e-05,-0.00013000000000000002,-8e-05,-7e-05,2
6100,6405,-9e-05,-2.9999999999999997e-05,1e-05,0.00016999999999999999,-2.9999999999999997e-05,-0.00013000000000000002,-8e-05,-7e-05,2
6101,6406,-9e-05,-2.9999999999999997e-05,1e-05,0.00016999999999999999,-2.9999999999999997e-05,-0.00013000000000000002,-8e-05,-7e-05,2
6102,6407,-9e-05,-2.9999999999999997e-05,1e-05,0.00016999999999999999,-2.9999999999999997e-05,-0.00013000000000000002,-8e-05,-7e-05,2
6103,6408,-9e-05,-2.9999999999999997e-05,1e-05,0.00016999999999999999,-2.9999999999999997e-05,-0.00013000000000000002,-8e-05,-7e-05,2
6104,6409,-9e-05,-2.9999999999999997e-05,1e-05,0.00016999999999999999,-2.9999999999999997e-05,-0.00013000000000000002,-8e-05,-7e-05,2
6105,6410,9e-05,2e-05,1e-05,-0.00044,-2.9999999999999997e-05,1e-05,5e-05,0.0,2
6106,6411,9e-05,2e-05,1e-05,-0.00044,-2.9999999999999997e-05,1e-05,5e-05,0.0,2
6107,6412,9e-05,2e-05,1e-05,-0.00044,-2.9999999999999997e-05,1e-05,5e-05,0.0,2
6108,6413,9e-05,2e-05,1e-05,-0.00044,-2.9999999999999997e-05,1e-05,5e-05,0.0,2
6109,6414,9e-05,2e-05,1e-05,-0.00044,-2.9999999999999997e-05,1e-05,5e-05,0.0,2
6110,6415,9e-05,2e-05,1e-05,-0.00044,-2.9999999999999997e-05,1e-05,5e-05,0.0,2
6111,6416,9e-05,2e-05,1e-05,-0.00044,-2.9999999999999997e-05,1e-05,5e-05,0.0,2
6112,6417,9e-05,2e-05,1e-05,-0.00044,-2.9999999999999997e-05,1e-05,5e-05,0.0,2
6113,6418,9e-05,2e-05,1e-05,-0.00044,-2.9999999999999997e-05,1e-05,5e-05,0.0,2
6114,6419,9e-05,2e-05,1e-05,-0.00044,-2.9999999999999997e-05,1e-05,5e-05,0.0,2
6115,6420,9e-05,2e-05,1e-05,-0.00044,-2.9999999999999997e-05,1e-05,5e-05,0.0,2
6116,6421,9e-05,2e-05,1e-05,-0.00044,-2.9999999999999997e-05,1e-05,5e-05,0.0,2
6117,6422,9e-05,2e-05,1e-05,-0.00044,-2.9999999999999997e-05,1e-05,5e-05,0.0,2
6118,6423,9e-05,2e-05,1e-05,-0.00044,-2.9999999999999997e-05,1e-05,5e-05,0.0,2
6119,6424,9e-05,2e-05,1e-05,-0.00044,-2.9999999999999997e-05,1e-05,5e-05,0.0,2
6120,6425,9e-05,2e-05,1e-05,-0.00044,-2.9999999999999997e-05,1e-05,5e-05,0.0,2
6121,6426,9e-05,2e-05,1e-05,-0.00044,-2.9999999999999997e-05,1e-05,5e-05,0.0,2
6122,6427,9e-05,2e-05,1e-05,-0.00044,-2.9999999999999997e-05,1e-05,5e-05,0.0,2
6123,6428,9e-05,2e-05,1e-05,-0.00044,-2.9999999999999997e-05,1e-05,5e-05,0.0,2
6124,6429,9e-05,2e-05,1e-05,-0.00044,-2.9999999999999997e-05,1e-05,5e-05,0.0,2
6125,6430,9e-05,2e-05,1e-05,-0.00044,-2.9999999999999997e-05,1e-05,5e-05,0.0,2
6126,6431,9e-05,2e-05,1e-05,-0.00044,-2.9999999999999997e-05,1e-05,5e-05,0.0,2
6127,6432,0.0,2.9999999999999997e-05,4e-05,0.00016999999999999999,-9e-05,-8e-05,4e-05,-2.9999999999999997e-05,2
6128,6433,0.0,2.9999999999999997e-05,4e-05,0.00016999999999999999,-9e-05,-8e-05,4e-05,-2.9999999999999997e-05,2
6129,6434,-8e-05,-5e-05,-8e-05,0.00021,0.0,9e-05,-8e-05,-9e-05,2
6130,6435,-8e-05,-5e-05,-8e-05,0.00021,0.0,9e-05,-8e-05,-9e-05,2
6131,6436,-8e-05,-5e-05,-8e-05,0.00021,0.0,9e-05,-8e-05,-9e-05,2
6132,6439,-8e-05,-5e-05,-8e-05,0.00021,0.0,9e-05,-8e-05,-9e-05,2
6133,6440,-8e-05,-5e-05,-8e-05,0.00021,0.0,9e-05,-8e-05,-9e-05,2
6134,6441,-8e-05,-5e-05,-8e-05,0.00021,0.0,9e-05,-8e-05,-9e-05,2
6135,6442,-8e-05,-5e-05,-8e-05,0.00021,0.0,9e-05,-8e-05,-9e-05,2
6136,6443,-8e-05,-5e-05,-8e-05,0.00021,0.0,9e-05,-8e-05,-9e-05,2
6137,6444,-8e-05,-5e-05,-8e-05,0.00021,0.0,9e-05,-8e-05,-9e-05,2
6138,6445,-8e-05,-5e-05,-8e-05,0.00021,0.0,9e-05,-8e-05,-9e-05,2
6139,6446,-8e-05,-5e-05,-8e-05,0.00021,0.0,9e-05,-8e-05,-9e-05,2
6140,6447,-8e-05,-5e-05,-8e-05,0.00021,0.0,9e-05,-8e-05,-9e-05,2
6141,6448,-8e-05,-5e-05,-8e-05,0.00021,0.0,9e-05,-8e-05,-9e-05,2
6142,6449,-8e-05,-5e-05,-8e-05,0.00021,0.0,9e-05,-8e-05,-9e-05,2
6143,6450,-8e-05,-5e-05,-8e-05,0.00021,0.0,9e-05,-8e-05,-9e-05,2
6144,6451,-8e-05,-5e-05,-8e-05,0.00021,0.0,9e-05,-8e-05,-9e-05,2
6145,6452,-8e-05,-5e-05,-8e-05,0.00021,0.0,9e-05,-8e-05,-9e-05,2
6146,6453,-8e-05,-5e-05,-8e-05,0.00021,0.0,9e-05,-8e-05,-9e-05,2
6147,6454,-8e-05,-5e-05,-8e-05,0.00021,0.0,9e-05,-8e-05,-9e-05,2
6148,6455,-9e-05,0.0,-0.00039,-0.00037,2.9999999999999997e-05,0.00011,-5e-05,-2e-05,2
6149,6456,-8e-05,-2.9999999999999997e-05,-2.9999999999999997e-05,-0.00013000000000000002,4e-05,-8e-05,-5.9999999999999995e-05,0.00015,2
6150,6457,-8e-05,-2.9999999999999997e-05,-2.9999999999999997e-05,-0.00013000000000000002,4e-05,-8e-05,-5.9999999999999995e-05,0.00015,2
6151,6458,-8e-05,-2.9999999999999997e-05,-2.9999999999999997e-05,-0.00013000000000000002,4e-05,-8e-05,-5.9999999999999995e-05,0.00015,2
6152,6459,-8e-05,-2.9999999999999997e-05,-2.9999999999999997e-05,-0.00013000000000000002,4e-05,-8e-05,-5.9999999999999995e-05,0.00015,2
6153,6460,-8e-05,-2.9999999999999997e-05,-2.9999999999999997e-05,-0.00013000000000000002,4e-05,-8e-05,-5.9999999999999995e-05,0.00015,2
6154,6461,-8e-05,-2.9999999999999997e-05,-2.9999999999999997e-05,-0.00013000000000000002,4e-05,-8e-05,-5.9999999999999995e-05,0.00015,2
6155,6462,-8e-05,-2.9999999999999997e-05,-2.9999999999999997e-05,-0.00013000000000000002,4e-05,-8e-05,-5.9999999999999995e-05,0.00015,2
6156,6463,-8e-05,-2.9999999999999997e-05,-2.9999999999999997e-05,-0.00013000000000000002,4e-05,-8e-05,-5.9999999999999995e-05,0.00015,2
6157,6464,-8e-05,-2.9999999999999997e-05,-2.9999999999999997e-05,-0.00013000000000000002,4e-05,-8e-05,-5.9999999999999995e-05,0.00015,2
6158,6465,-8e-05,-2.9999999999999997e-05,-2.9999999999999997e-05,-0.00013000000000000002,4e-05,-8e-05,-5.9999999999999995e-05,0.00015,2
6159,6466,-8e-05,-2.9999999999999997e-05,-2.9999999999999997e-05,-0.00013000000000000002,4e-05,-8e-05,-5.9999999999999995e-05,0.00015,2
6160,6467,-8e-05,-2.9999999999999997e-05,-2.9999999999999997e-05,-0.00013000000000000002,4e-05,-8e-05,-5.9999999999999995e-05,0.00015,2
6161,6468,-8e-05,-2.9999999999999997e-05,-2.9999999999999997e-05,-0.00013000000000000002,4e-05,-8e-05,-5.9999999999999995e-05,0.00015,2
6162,6469,-8e-05,-2.9999999999999997e-05,-2.9999999999999997e-05,-0.00013000000000000002,4e-05,-8e-05,-5.9999999999999995e-05,0.00015,2
6163,6470,-8e-05,-2.9999999999999997e-05,-2.9999999999999997e-05,-0.00013000000000000002,4e-05,-8e-05,-5.9999999999999995e-05,0.00015,2
6164,6471,-8e-05,-2.9999999999999997e-05,-2.9999999999999997e-05,-0.00013000000000000002,4e-05,-8e-05,-5.9999999999999995e-05,0.00015,2
6165,6472,-8e-05,-2.9999999999999997e-05,-2.9999999999999997e-05,-0.00013000000000000002,4e-05,-8e-05,-5.9999999999999995e-05,0.00015,2
6166,6473,-8e-05,-2.9999999999999997e-05,-2.9999999999999997e-05,-0.00013000000000000002,4e-05,-8e-05,-5.9999999999999995e-05,0.00015,2
6167,6474,-8e-05,-2.9999999999999997e-05,-2.9999999999999997e-05,-0.00013000000000000002,4e-05,-8e-05,-5.9999999999999995e-05,0.00015,2
6168,6475,-8e-05,-2.9999999999999997e-05,-2.9999999999999997e-05,-0.00013000000000000002,4e-05,-8e-05,-5.9999999999999995e-05,0.00015,2
6169,6476,-2e-05,-2e-05,5.9999999999999995e-05,-5e-05,2e-05,-7e-05,-2.9999999999999997e-05,-0.0002,2
6170,6477,-2e-05,0.0,0.0001,5e-05,-5.9999999999999995e-05,-2.9999999999999997e-05,7e-05,-9e-05,2
6171,6478,-2e-05,0.0,0.0001,5e-05,-5.9999999999999995e-05,-2.9999999999999997e-05,7e-05,-9e-05,2
6172,6479,-2e-05,0.0,0.0001,5e-05,-5.9999999999999995e-05,-2.9999999999999997e-05,7e-05,-9e-05,2
6173,6480,-2e-05,0.0,0.0001,5e-05,-5.9999999999999995e-05,-2.9999999999999997e-05,7e-05,-9e-05,2
6174,6481,-2e-05,0.0,0.0001,5e-05,-5.9999999999999995e-05,-2.9999999999999997e-05,7e-05,-9e-05,2
6175,6482,-2e-05,0.0,0.0001,5e-05,-5.9999999999999995e-05,-2.9999999999999997e-05,7e-05,-9e-05,2
6176,6483,-2e-05,0.0,0.0001,5e-05,-5.9999999999999995e-05,-2.9999999999999997e-05,7e-05,-9e-05,2
6177,6484,-2e-05,0.0,0.0001,5e-05,-5.9999999999999995e-05,-2.9999999999999997e-05,7e-05,-9e-05,2
6178,6485,0.0,-2e-05,4e-05,-0.00042,2.9999999999999997e-05,-4e-05,-0.00011999999999999999,0.0,2
6179,6486,0.0,-2e-05,4e-05,-0.00042,2.9999999999999997e-05,-4e-05,-0.00011999999999999999,0.0,2
6180,6489,0.0,-2e-05,4e-05,-0.00042,2.9999999999999997e-05,-4e-05,-0.00011999999999999999,0.0,2
6181,6490,0.0,-2e-05,4e-05,-0.00042,2.9999999999999997e-05,-4e-05,-0.00011999999999999999,0.0,2
6182,6491,0.0,-2e-05,4e-05,-0.00042,2.9999999999999997e-05,-4e-05,-0.00011999999999999999,0.0,2
6183,6492,0.0,-2e-05,4e-05,-0.00042,2.9999999999999997e-05,-4e-05,-0.00011999999999999999,0.0,2
6184,6493,0.0,-2e-05,4e-05,-0.00042,2.9999999999999997e-05,-4e-05,-0.00011999999999999999,0.0,2
6185,6494,0.0,-2e-05,4e-05,-0.00042,2.9999999999999997e-05,-4e-05,-0.00011999999999999999,0.0,2
6186,6495,0.0,-2e-05,4e-05,-0.00042,2.9999999999999997e-05,-4e-05,-0.00011999999999999999,0.0,2
6187,6496,0.0,-2e-05,4e-05,-0.00042,2.9999999999999997e-05,-4e-05,-0.00011999999999999999,0.0,2
6188,6497,0.0,-2e-05,4e-05,-0.00042,2.9999999999999997e-05,-4e-05,-0.00011999999999999999,0.0,2
6189,6498,0.0,-2e-05,4e-05,-0.00042,2.9999999999999997e-05,-4e-05,-0.00011999999999999999,0.0,2
6190,6499,0.0,-2e-05,4e-05,-0.00042,2.9999999999999997e-05,-4e-05,-0.00011999999999999999,0.0,2
6191,6500,0.0,-2e-05,4e-05,-0.00042,2.9999999999999997e-05,-4e-05,-0.00011999999999999999,0.0,2
6192,6501,0.0,-2e-05,4e-05,-0.00042,2.9999999999999997e-05,-4e-05,-0.00011999999999999999,0.0,2
6193,6502,0.0,-2e-05,4e-05,-0.00042,2.9999999999999997e-05,-4e-05,-0.00011999999999999999,0.0,2
6194,6503,0.0,-2e-05,4e-05,-0.00042,2.9999999999999997e-05,-4e-05,-0.00011999999999999999,0.0,2
6195,6504,0.0,-2e-05,4e-05,-0.00042,2.9999999999999997e-05,-4e-05,-0.00011999999999999999,0.0,2
6196,6505,0.0,-2e-05,4e-05,-0.00042,2.9999999999999997e-05,-4e-05,-0.00011999999999999999,0.0,2
6197,6506,0.0,-2e-05,4e-05,-0.00042,2.9999999999999997e-05,-4e-05,-0.00011999999999999999,0.0,2
6198,6507,2.9999999999999997e-05,-2e-05,-1e-05,-0.00029,-2e-05,-5.9999999999999995e-05,-5.9999999999999995e-05,0.00013000000000000002,2
6199,6508,2.9999999999999997e-05,-2e-05,-1e-05,-0.00029,-2e-05,-5.9999999999999995e-05,-5.9999999999999995e-05,0.00013000000000000002,2
6200,6509,-8e-05,-4e-05,0.0,-0.00037999999999999997,1e-05,0.0,0.0003,-5e-05,2
6201,6510,-8e-05,-4e-05,0.0,-0.00037999999999999997,1e-05,0.0,0.0003,-5e-05,2
6202,6511,-8e-05,-4e-05,0.0,-0.00037999999999999997,1e-05,0.0,0.0003,-5e-05,2
6203,6512,-8e-05,-4e-05,0.0,-0.00037999999999999997,1e-05,0.0,0.0003,-5e-05,2
6204,6513,-8e-05,-4e-05,0.0,-0.00037999999999999997,1e-05,0.0,0.0003,-5e-05,2
6205,6514,-8e-05,-4e-05,0.0,-0.00037999999999999997,1e-05,0.0,0.0003,-5e-05,2
6206,6515,-8e-05,-4e-05,0.0,-0.00037999999999999997,1e-05,0.0,0.0003,-5e-05,2
6207,6516,-8e-05,-4e-05,0.0,-0.00037999999999999997,1e-05,0.0,0.0003,-5e-05,2
6208,6517,-8e-05,-4e-05,0.0,-0.00037999999999999997,1e-05,0.0,0.0003,-5e-05,2
6209,6518,-8e-05,-4e-05,0.0,-0.00037999999999999997,1e-05,0.0,0.0003,-5e-05,2
6210,6519,-8e-05,-4e-05,0.0,-0.00037999999999999997,1e-05,0.0,0.0003,-5e-05,2
6211,6520,-8e-05,-4e-05,0.0,-0.00037999999999999997,1e-05,0.0,0.0003,-5e-05,2
6212,6521,-8e-05,-4e-05,0.0,-0.00037999999999999997,1e-05,0.0,0.0003,-5e-05,2
6213,6522,-8e-05,-4e-05,0.0,-0.00037999999999999997,1e-05,0.0,0.0003,-5e-05,2
6214,6523,-8e-05,-4e-05,0.0,-0.00037999999999999997,1e-05,0.0,0.0003,-5e-05,2
6215,6524,-8e-05,-4e-05,0.0,-0.00037999999999999997,1e-05,0.0,0.0003,-5e-05,2
6216,6525,-8e-05,-4e-05,0.0,-0.00037999999999999997,1e-05,0.0,0.0003,-5e-05,2
6217,6526,-8e-05,-4e-05,0.0,-0.00037999999999999997,1e-05,0.0,0.0003,-5e-05,2
6218,6527,-8e-05,-4e-05,0.0,-0.00037999999999999997,1e-05,0.0,0.0003,-5e-05,2
6219,6528,-8e-05,-4e-05,0.0,-0.00037999999999999997,1e-05,0.0,0.0003,-5e-05,2
6220,6529,-8e-05,-4e-05,0.0,-0.00037999999999999997,1e-05,0.0,0.0003,-5e-05,2
6221,6530,4e-05,-1e-05,5e-05,9e-05,1e-05,0.0001,-2e-05,0.00021,2
6222,6531,0.00011999999999999999,4e-05,0.0,0.00023999999999999998,-2.9999999999999997e-05,9e-05,2e-05,0.00021,2
6223,6532,0.00011999999999999999,4e-05,0.0,0.00023999999999999998,-2.9999999999999997e-05,9e-05,2e-05,0.00021,2
6224,6533,0.00011999999999999999,4e-05,0.0,0.00023999999999999998,-2.9999999999999997e-05,9e-05,2e-05,0.00021,2
6225,6534,0.00011999999999999999,4e-05,0.0,0.00023999999999999998,-2.9999999999999997e-05,9e-05,2e-05,0.00021,2
6226,6535,0.00011999999999999999,4e-05,0.0,0.00023999999999999998,-2.9999999999999997e-05,9e-05,2e-05,0.00021,2
6227,6536,0.00011999999999999999,4e-05,0.0,0.00023999999999999998,-2.9999999999999997e-05,9e-05,2e-05,0.00021,2
6228,6539,0.00011999999999999999,4e-05,0.0,0.00023999999999999998,-2.9999999999999997e-05,9e-05,2e-05,0.00021,2
6229,6540,0.00011999999999999999,4e-05,0.0,0.00023999999999999998,-2.9999999999999997e-05,9e-05,2e-05,0.00021,2
6230,6541,0.00011999999999999999,4e-05,0.0,0.00023999999999999998,-2.9999999999999997e-05,9e-05,2e-05,0.00021,2
6231,6542,0.00011999999999999999,4e-05,0.0,0.00023999999999999998,-2.9999999999999997e-05,9e-05,2e-05,0.00021,2
6232,6543,0.00011999999999999999,4e-05,0.0,0.00023999999999999998,-2.9999999999999997e-05,9e-05,2e-05,0.00021,2
6233,6544,0.00011999999999999999,4e-05,0.0,0.00023999999999999998,-2.9999999999999997e-05,9e-05,2e-05,0.00021,2
6234,6545,0.00011999999999999999,4e-05,0.0,0.00023999999999999998,-2.9999999999999997e-05,9e-05,2e-05,0.00021,2
6235,6546,0.00011999999999999999,4e-05,0.0,0.00023999999999999998,-2.9999999999999997e-05,9e-05,2e-05,0.00021,2
6236,6547,0.00011999999999999999,4e-05,0.0,0.00023999999999999998,-2.9999999999999997e-05,9e-05,2e-05,0.00021,2
6237,6548,0.00011999999999999999,4e-05,0.0,0.00023999999999999998,-2.9999999999999997e-05,9e-05,2e-05,0.00021,2
6238,6549,0.00011999999999999999,4e-05,0.0,0.00023999999999999998,-2.9999999999999997e-05,9e-05,2e-05,0.00021,2
6239,6550,0.00011999999999999999,4e-05,0.0,0.00023999999999999998,-2.9999999999999997e-05,9e-05,2e-05,0.00021,2
6240,6551,0.00011999999999999999,4e-05,0.0,0.00023999999999999998,-2.9999999999999997e-05,9e-05,2e-05,0.00021,2
6241,6552,0.0,0.0,4e-05,0.00018,-5e-05,-4e-05,7e-05,0.00011999999999999999,2
6242,6553,0.0,0.0,4e-05,0.00018,-5e-05,-4e-05,7e-05,0.00011999999999999999,2
6243,6554,0.0,0.0,4e-05,0.00018,-5e-05,-4e-05,7e-05,0.00011999999999999999,2
6244,6555,0.0,0.0,4e-05,0.00018,-5e-05,-4e-05,7e-05,0.00011999999999999999,2
6245,6556,0.0,0.0,4e-05,0.00018,-5e-05,-4e-05,7e-05,0.00011999999999999999,2
6246,6557,0.0,0.0,4e-05,0.00018,-5e-05,-4e-05,7e-05,0.00011999999999999999,2
6247,6558,-2.9999999999999997e-05,-5.9999999999999995e-05,-7e-05,0.00041,-2.9999999999999997e-05,-2e-05,0.0002,2e-05,2
6248,6559,-2.9999999999999997e-05,-5.9999999999999995e-05,-7e-05,0.00041,-2.9999999999999997e-05,-2e-05,0.0002,2e-05,2
6249,6560,-2.9999999999999997e-05,-5.9999999999999995e-05,-7e-05,0.00041,-2.9999999999999997e-05,-2e-05,0.0002,2e-05,2
6250,6561,-2.9999999999999997e-05,-5.9999999999999995e-05,-7e-05,0.00041,-2.9999999999999997e-05,-2e-05,0.0002,2e-05,2
6251,6562,-2.9999999999999997e-05,-5.9999999999999995e-05,-7e-05,0.00041,-2.9999999999999997e-05,-2e-05,0.0002,2e-05,2
6252,6563,-2.9999999999999997e-05,-5.9999999999999995e-05,-7e-05,0.00041,-2.9999999999999997e-05,-2e-05,0.0002,2e-05,2
6253,6564,-2.9999999999999997e-05,-5.9999999999999995e-05,-7e-05,0.00041,-2.9999999999999997e-05,-2e-05,0.0002,2e-05,2
6254,6565,-2.9999999999999997e-05,-5.9999999999999995e-05,-7e-05,0.00041,-2.9999999999999997e-05,-2e-05,0.0002,2e-05,2
6255,6566,-2.9999999999999997e-05,-5.9999999999999995e-05,-7e-05,0.00041,-2.9999999999999997e-05,-2e-05,0.0002,2e-05,2
6256,6567,-2.9999999999999997e-05,-5.9999999999999995e-05,-7e-05,0.00041,-2.9999999999999997e-05,-2e-05,0.0002,2e-05,2
6257,6568,-2.9999999999999997e-05,-5.9999999999999995e-05,-7e-05,0.00041,-2.9999999999999997e-05,-2e-05,0.0002,2e-05,2
6258,6569,-2.9999999999999997e-05,-5.9999999999999995e-05,-7e-05,0.00041,-2.9999999999999997e-05,-2e-05,0.0002,2e-05,2
6259,6570,-2.9999999999999997e-05,-5.9999999999999995e-05,-7e-05,0.00041,-2.9999999999999997e-05,-2e-05,0.0002,2e-05,2
6260,6571,-2.9999999999999997e-05,-5.9999999999999995e-05,-7e-05,0.00041,-2.9999999999999997e-05,-2e-05,0.0002,2e-05,2
6261,6572,-2.9999999999999997e-05,-5.9999999999999995e-05,-7e-05,0.00041,-2.9999999999999997e-05,-2e-05,0.0002,2e-05,2
6262,6573,-2.9999999999999997e-05,-5.9999999999999995e-05,-7e-05,0.00041,-2.9999999999999997e-05,-2e-05,0.0002,2e-05,2
6263,6574,-1e-05,-2.9999999999999997e-05,-2.9999999999999997e-05,-0.00033,1e-05,0.0,-0.00036,-0.00016,2
6264,6575,-1e-05,-2.9999999999999997e-05,-2.9999999999999997e-05,-0.00033,1e-05,0.0,-0.00036,-0.00016,2
6265,6576,-1e-05,-2.9999999999999997e-05,-2.9999999999999997e-05,-0.00033,1e-05,0.0,-0.00036,-0.00016,2
6266,6577,-1e-05,-2.9999999999999997e-05,-2.9999999999999997e-05,-0.00033,1e-05,0.0,-0.00036,-0.00016,2
6267,6578,-1e-05,-2.9999999999999997e-05,-2.9999999999999997e-05,-0.00033,1e-05,0.0,-0.00036,-0.00016,2
6268,6579,-1e-05,-2.9999999999999997e-05,-2.9999999999999997e-05,-0.00033,1e-05,0.0,-0.00036,-0.00016,2
6269,6580,-1e-05,-2.9999999999999997e-05,-2.9999999999999997e-05,-0.00033,1e-05,0.0,-0.00036,-0.00016,2
6270,6581,-1e-05,-2.9999999999999997e-05,-2.9999999999999997e-05,-0.00033,1e-05,0.0,-0.00036,-0.00016,2
6271,6582,-1e-05,-2.9999999999999997e-05,-2.9999999999999997e-05,-0.00033,1e-05,0.0,-0.00036,-0.00016,2
6272,6583,-1e-05,-2.9999999999999997e-05,-2.9999999999999997e-05,-0.00033,1e-05,0.0,-0.00036,-0.00016,2
6273,6584,-1e-05,2.9999999999999997e-05,-2.9999999999999997e-05,-0.00016999999999999999,-2.9999999999999997e-05,-5e-05,-0.00015,-0.00013000000000000002,2
6274,6585,-1e-05,2.9999999999999997e-05,-2.9999999999999997e-05,-0.00016999999999999999,-2.9999999999999997e-05,-5e-05,-0.00015,-0.00013000000000000002,2
6275,6586,-1e-05,2.9999999999999997e-05,-2.9999999999999997e-05,-0.00016999999999999999,-2.9999999999999997e-05,-5e-05,-0.00015,-0.00013000000000000002,2
6276,6589,-1e-05,2.9999999999999997e-05,-2.9999999999999997e-05,-0.00016999999999999999,-2.9999999999999997e-05,-5e-05,-0.00015,-0.00013000000000000002,2
6277,6590,-1e-05,2.9999999999999997e-05,-2.9999999999999997e-05,-0.00016999999999999999,-2.9999999999999997e-05,-5e-05,-0.00015,-0.00013000000000000002,2
6278,6591,-1e-05,2.9999999999999997e-05,-2.9999999999999997e-05,-0.00016999999999999999,-2.9999999999999997e-05,-5e-05,-0.00015,-0.00013000000000000002,2
6279,6592,-1e-05,2.9999999999999997e-05,-2.9999999999999997e-05,-0.00016999999999999999,-2.9999999999999997e-05,-5e-05,-0.00015,-0.00013000000000000002,2
6280,6593,-1e-05,2.9999999999999997e-05,-2.9999999999999997e-05,-0.00016999999999999999,-2.9999999999999997e-05,-5e-05,-0.00015,-0.00013000000000000002,2
6281,6594,-1e-05,2.9999999999999997e-05,-2.9999999999999997e-05,-0.00016999999999999999,-2.9999999999999997e-05,-5e-05,-0.00015,-0.00013000000000000002,2
6282,6595,-1e-05,2.9999999999999997e-05,-2.9999999999999997e-05,-0.00016999999999999999,-2.9999999999999997e-05,-5e-05,-0.00015,-0.00013000000000000002,2
6283,6596,-1e-05,2.9999999999999997e-05,-2.9999999999999997e-05,-0.00016999999999999999,-2.9999999999999997e-05,-5e-05,-0.00015,-0.00013000000000000002,2
6284,6597,-1e-05,2.9999999999999997e-05,-2.9999999999999997e-05,-0.00016999999999999999,-2.9999999999999997e-05,-5e-05,-0.00015,-0.00013000000000000002,2
6285,6598,-1e-05,2.9999999999999997e-05,-2.9999999999999997e-05,-0.00016999999999999999,-2.9999999999999997e-05,-5e-05,-0.00015,-0.00013000000000000002,2
6286,6599,-1e-05,2.9999999999999997e-05,-2.9999999999999997e-05,-0.00016999999999999999,-2.9999999999999997e-05,-5e-05,-0.00015,-0.00013000000000000002,2
6287,6600,-1e-05,2.9999999999999997e-05,-2.9999999999999997e-05,-0.00016999999999999999,-2.9999999999999997e-05,-5e-05,-0.00015,-0.00013000000000000002,2
6288,6601,-1e-05,2.9999999999999997e-05,-2.9999999999999997e-05,-0.00016999999999999999,-2.9999999999999997e-05,-5e-05,-0.00015,-0.00013000000000000002,2
6289,6602,-1e-05,2.9999999999999997e-05,-2.9999999999999997e-05,-0.00016999999999999999,-2.9999999999999997e-05,-5e-05,-0.00015,-0.00013000000000000002,2
6290,6603,-1e-05,2.9999999999999997e-05,-2.9999999999999997e-05,-0.00016999999999999999,-2.9999999999999997e-05,-5e-05,-0.00015,-0.00013000000000000002,2
6291,6604,-1e-05,2.9999999999999997e-05,-2.9999999999999997e-05,-0.00016999999999999999,-2.9999999999999997e-05,-5e-05,-0.00015,-0.00013000000000000002,2
6292,6605,5.9999999999999995e-05,4e-05,0.00013000000000000002,0.0004,-5e-05,-2e-05,-9e-05,0.00037,2
6293,6606,0.0,1e-05,-7e-05,-0.00031,5e-05,-2e-05,-1e-05,-0.00011,2
6294,6607,0.0,1e-05,-7e-05,-0.00031,5e-05,-2e-05,-1e-05,-0.00011,2
