,time,channel1,channel2,channel3,channel4,channel5,channel6,channel7,channel8,class
4372,4568,-0.0002,-7e-05,0.00016,5.9999999999999995e-05,-2e-05,-0.00028,-5.9999999999999995e-05,-0.00025,2
4373,4569,-0.0002,-7e-05,0.00016,5.9999999999999995e-05,-2e-05,-0.00028,-5.9999999999999995e-05,-0.00025,2
4374,4570,-0.0002,-7e-05,0.00016,5.9999999999999995e-05,-2e-05,-0.00028,-5.9999999999999995e-05,-0.00025,2
4375,4571,-0.0002,-7e-05,0.00016,5.9999999999999995e-05,-2e-05,-0.00028,-5.9999999999999995e-05,-0.00025,2
4376,4572,-0.0002,-7e-05,0.00016,5.9999999999999995e-05,-2e-05,-0.00028,-5.9999999999999995e-05,-0.00025,2
4377,4573,-0.0002,-7e-05,0.00016,5.9999999999999995e-05,-2e-05,-0.00028,-5.9999999999999995e-05,-0.00025,2
4378,4574,-0.0002,-7e-05,0.00016,5.9999999999999995e-05,-2e-05,-0.00028,-5.9999999999999995e-05,-0.00025,2
4379,4575,-0.0002,-7e-05,0.00016,5.9999999999999995e-05,-2e-05,-0.00028,-5.9999999999999995e-05,-0.00025,2
4380,4576,-0.0002,-7e-05,0.00016,5.9999999999999995e-05,-2e-05,-0.00028,-5.9999999999999995e-05,-0.00025,2
4381,4577,-0.0002,-7e-05,0.00016,5.9999999999999995e-05,-2e-05,-0.00028,-5.9999999999999995e-05,-0.00025,2
4382,4578,-0.0002,-7e-05,0.00016,5.9999999999999995e-05,-2e-05,-0.00028,-5.9999999999999995e-05,-0.00025,2
4383,4579,-0.0002,-7e-05,0.00016,5.9999999999999995e-05,-2e-05,-0.00028,-5.9999999999999995e-05,-0.00025,2
4384,4580,-0.0002,-7e-05,0.00016,5.9999999999999995e-05,-2e-05,-0.00028,-5.9999999999999995e-05,-0.00025,2
4385,4581,-0.0002,-7e-05,0.00016,5.9999999999999995e-05,-2e-05,-0.00028,-5.9999999999999995e-05,-0.00025,2
4386,4582,-0.0002,-7e-05,0.00016,5.9999999999999995e-05,-2e-05,-0.00028,-5.9999999999999995e-05,-0.00025,2
4387,4583,-0.0002,-7e-05,0.00016,5.9999999999999995e-05,-2e-05,-0.00028,-5.9999999999999995e-05,-0.00025,2
4388,4584,-0.0002,-7e-05,0.00016,5.9999999999999995e-05,-2e-05,-0.00028,-5.9999999999999995e-05,-0.00025,2
4389,4585,-0.0002,-7e-05,0.00016,5.9999999999999995e-05,-2e-05,-0.00028,-5.9999999999999995e-05,-0.00025,2
4390,4586,-0.0002,-7e-05,0.00016,5.9999999999999995e-05,-2e-05,-0.00028,-5.9999999999999995e-05,-0.00025,2
4391,4588,-0.0002,-7e-05,0.00016,5.9999999999999995e-05,-2e-05,-0.00028,-5.9999999999999995e-05,-0.00025,2
4392,4589,-0.0002,-7e-05,0.00016,5.9999999999999995e-05,-2e-05,-0.00028,-5.9999999999999995e-05,-0.00025,2
4393,4590,-0.0002,-7e-05,0.00016,5.9999999999999995e-05,-2e-05,-0.00028,-5.9999999999999995e-05,-0.00025,2
4394,4591,-0.0002,-7e-05,0.00016,5.9999999999999995e-05,-2e-05,-0.00028,-5.9999999999999995e-05,-0.00025,2
4395,4592,-0.0002,-7e-05,0.00016,5.9999999999999995e-05,-2e-05,-0.00028,-5.9999999999999995e-05,-0.00025,2
4396,4593,-0.0002,-7e-05,0.00016,5.9999999999999995e-05,-2e-05,-0.00028,-5.9999999999999995e-05,-0.00025,2
4397,4594,-0.0001,-1e-05,0.00018,4e-05,-4e-05,-0.00026000000000000003,-9e-05,-0.00023999999999999998,2
4398,4595,-0.0001,-1e-05,0.00018,4e-05,-4e-05,-0.00026000000000000003,-9e-05,-0.00023999999999999998,2
4399,4596,-0.0001,-1e-05,0.00018,4e-05,-4e-05,-0.00026000000000000003,-9e-05,-0.00023999999999999998,2
4400,4597,-0.0001,-1e-05,0.00018,4e-05,-4e-05,-0.00026000000000000003,-9e-05,-0.00023999999999999998,2
4401,4598,-0.0001,-1e-05,0.00018,4e-05,-4e-05,-0.00026000000000000003,-9e-05,-0.00023999999999999998,2
4402,4599,-0.0001,-1e-05,0.00018,4e-05,-4e-05,-0.00026000000000000003,-9e-05,-0.00023999999999999998,2
4403,4600,-0.0001,-1e-05,0.00018,4e-05,-4e-05,-0.00026000000000000003,-9e-05,-0.00023999999999999998,2
4404,4601,-0.0001,-1e-05,0.00018,4e-05,-4e-05,-0.00026000000000000003,-9e-05,-0.00023999999999999998,2
4405,4602,-0.0001,-1e-05,0.00018,4e-05,-4e-05,-0.00026000000000000003,-9e-05,-0.00023999999999999998,2
4406,4603,2.9999999999999997e-05,4e-05,2e-05,4e-05,4e-05,8e-05,1e-05,-5e-05,2
4407,4604,5e-05,5.9999999999999995e-05,-5e-05,0.0003,-1e-05,-2e-05,-9e-05,1e-05,2
4408,4605,5e-05,5.9999999999999995e-05,-5e-05,0.0003,-1e-05,-2e-05,-9e-05,1e-05,2
4409,4606,5e-05,5.9999999999999995e-05,-5e-05,0.0003,-1e-05,-2e-05,-9e-05,1e-05,2
4410,4607,5e-05,5.9999999999999995e-05,-5e-05,0.0003,-1e-05,-2e-05,-9e-05,1e-05,2
4411,4608,5e-05,5.9999999999999995e-05,-5e-05,0.0003,-1e-05,-2e-05,-9e-05,1e-05,2
4412,4609,0.0001,8e-05,0.00015,-5e-05,1e-05,-2e-05,-2e-05,0.0,2
4413,4610,7e-05,4e-05,4e-05,-2e-05,-5e-05,0.00049,0.00011,8e-05,2
4414,4611,0.0002,0.00011999999999999999,0.00022,0.00029,-2.9999999999999997e-05,0.00018999999999999998,5e-05,0.00014,2
4415,4612,0.0002,0.00011999999999999999,0.00022,0.00029,-2.9999999999999997e-05,0.00018999999999999998,5e-05,0.00014,2
4416,4613,0.0002,0.00011999999999999999,0.00022,0.00029,-2.9999999999999997e-05,0.00018999999999999998,5e-05,0.00014,2
4417,4614,0.0002,0.00011999999999999999,0.00022,0.00029,-2.9999999999999997e-05,0.00018999999999999998,5e-05,0.00014,2
4418,4615,0.0002,0.00011999999999999999,0.00022,0.00029,-2.9999999999999997e-05,0.00018999999999999998,5e-05,0.00014,2
4419,4616,0.0002,0.00011999999999999999,0.00022,0.00029,-2.9999999999999997e-05,0.00018999999999999998,5e-05,0.00014,2
4420,4617,0.0002,0.00011999999999999999,0.00022,0.00029,-2.9999999999999997e-05,0.00018999999999999998,5e-05,0.00014,2
4421,4618,0.0002,0.00011999999999999999,0.00022,0.00029,-2.9999999999999997e-05,0.00018999999999999998,5e-05,0.00014,2
4422,4619,0.0002,0.00011999999999999999,0.00022,0.00029,-2.9999999999999997e-05,0.00018999999999999998,5e-05,0.00014,2
4423,4620,0.0002,0.00011999999999999999,0.00022,0.00029,-2.9999999999999997e-05,0.00018999999999999998,5e-05,0.00014,2
4424,4621,0.0002,0.00011999999999999999,0.00022,0.00029,-2.9999999999999997e-05,0.00018999999999999998,5e-05,0.00014,2
4425,4622,0.0002,0.00011999999999999999,0.00022,0.00029,-2.9999999999999997e-05,0.00018999999999999998,5e-05,0.00014,2
4426,4623,0.0002,0.00011999999999999999,0.00022,0.00029,-2.9999999999999997e-05,0.00018999999999999998,5e-05,0.00014,2
4427,4624,0.0002,0.00011999999999999999,0.00022,0.00029,-2.9999999999999997e-05,0.00018999999999999998,5e-05,0.00014,2
4428,4625,0.0002,0.00011999999999999999,0.00022,0.00029,-2.9999999999999997e-05,0.00018999999999999998,5e-05,0.00014,2
4429,4626,0.0002,0.00011999999999999999,0.00022,0.00029,-2.9999999999999997e-05,0.00018999999999999998,5e-05,0.00014,2
4430,4627,0.0002,0.00011999999999999999,0.00022,0.00029,-2.9999999999999997e-05,0.00018999999999999998,5e-05,0.00014,2
4431,4628,0.0002,0.00011999999999999999,0.00022,0.00029,-2.9999999999999997e-05,0.00018999999999999998,5e-05,0.00014,2
4432,4629,0.0002,0.00011999999999999999,0.00022,0.00029,-2.9999999999999997e-05,0.00018999999999999998,5e-05,0.00014,2
4433,4630,0.0002,0.00011999999999999999,0.00022,0.00029,-2.9999999999999997e-05,0.00018999999999999998,5e-05,0.00014,2
4434,4631,0.0002,0.00011999999999999999,0.00022,0.00029,-2.9999999999999997e-05,0.00018999999999999998,5e-05,0.00014,2
4435,4632,0.0002,0.00011999999999999999,0.00022,0.00029,-2.9999999999999997e-05,0.00018999999999999998,5e-05,0.00014,2
4436,4633,0.0002,0.00011999999999999999,0.00022,0.00029,-2.9999999999999997e-05,0.00018999999999999998,5e-05,0.00014,2
4437,4634,0.0002,0.00011999999999999999,0.00022,0.00029,-2.9999999999999997e-05,0.00018999999999999998,5e-05,0.00014,2
4438,4635,0.0002,0.00011999999999999999,0.00022,0.00029,-2.9999999999999997e-05,0.00018999999999999998,5e-05,0.00014,2
4439,4636,0.0002,0.00011999999999999999,0.00022,0.00029,-2.9999999999999997e-05,0.00018999999999999998,5e-05,0.00014,2
4440,4638,0.0002,0.00011999999999999999,0.00022,0.00029,-2.9999999999999997e-05,0.00018999999999999998,5e-05,0.00014,2
4441,4639,0.0002,0.00011999999999999999,0.00022,0.00029,-2.9999999999999997e-05,0.00018999999999999998,5e-05,0.00014,2
4442,4640,0.0002,0.00011999999999999999,0.00022,0.00029,-2.9999999999999997e-05,0.00018999999999999998,5e-05,0.00014,2
4443,4641,0.0002,0.00011999999999999999,0.00022,0.00029,-2.9999999999999997e-05,0.00018999999999999998,5e-05,0.00014,2
4444,4642,0.0002,0.00011999999999999999,0.00022,0.00029,-2.9999999999999997e-05,0.00018999999999999998,5e-05,0.00014,2
4445,4643,0.0002,0.00011999999999999999,0.00022,0.00029,-2.9999999999999997e-05,0.00018999999999999998,5e-05,0.00014,2
4446,4644,0.0002,0.00011999999999999999,0.00022,0.00029,-2.9999999999999997e-05,0.00018999999999999998,5e-05,0.00014,2
4447,4645,0.0002,0.00011999999999999999,0.00022,0.00029,-2.9999999999999997e-05,0.00018999999999999998,5e-05,0.00014,2
4448,4646,0.0002,0.00011999999999999999,0.00022,0.00029,-2.9999999999999997e-05,0.00018999999999999998,5e-05,0.00014,2
4449,4647,0.0002,0.00011999999999999999,0.00022,0.00029,-2.9999999999999997e-05,0.00018999999999999998,5e-05,0.00014,2
4450,4648,0.0002,0.00011999999999999999,0.00022,0.00029,-2.9999999999999997e-05,0.00018999999999999998,5e-05,0.00014,2
4451,4649,0.0002,0.00011999999999999999,0.00022,0.00029,-2.9999999999999997e-05,0.00018999999999999998,5e-05,0.00014,2
4452,4650,0.0002,0.00011999999999999999,0.00022,0.00029,-2.9999999999999997e-05,0.00018999999999999998,5e-05,0.00014,2
4453,4651,0.0002,0.00011999999999999999,0.00022,0.00029,-2.9999999999999997e-05,0.00018999999999999998,5e-05,0.00014,2
4454,4652,0.0002,0.00011999999999999999,0.00022,0.00029,-2.9999999999999997e-05,0.00018999999999999998,5e-05,0.00014,2
4455,4653,0.0002,0.00011999999999999999,0.00022,0.00029,-2.9999999999999997e-05,0.00018999999999999998,5e-05,0.00014,2
4456,4654,0.0002,0.00011999999999999999,0.00022,0.00029,-2.9999999999999997e-05,0.00018999999999999998,5e-05,0.00014,2
4457,4655,-0.00015,-9e-05,-5e-05,0.00014,-1e-05,5e-05,2e-05,-0.00016999999999999999,2
4458,4656,0.00025,0.0,-2.9999999999999997e-05,-9e-05,-9e-05,0.00016,5.9999999999999995e-05,0.00016,2
4459,4657,-0.00011,-2e-05,9e-05,0.00016999999999999999,-2.9999999999999997e-05,-0.00021,-0.00011,0.00029,2
4460,4658,-0.00011,-2e-05,9e-05,0.00016999999999999999,-2.9999999999999997e-05,-0.00021,-0.00011,0.00029,2
4461,4659,-0.00011,-2e-05,9e-05,0.00016999999999999999,-2.9999999999999997e-05,-0.00021,-0.00011,0.00029,2
4462,4660,-0.00011,-2e-05,9e-05,0.00016999999999999999,-2.9999999999999997e-05,-0.00021,-0.00011,0.00029,2
4463,4661,-0.0001,-5e-05,-0.00021,-7e-05,-1e-05,-5e-05,-0.00016999999999999999,-8e-05,2
4464,4662,-9e-05,-4e-05,-0.00021,-0.00016999999999999999,0.0,-4e-05,-1e-05,-5e-05,2
4465,4663,-9e-05,-4e-05,-0.00021,-0.00016999999999999999,0.0,-4e-05,-1e-05,-5e-05,2
4466,4664,-9e-05,-4e-05,-0.00021,-0.00016999999999999999,0.0,-4e-05,-1e-05,-5e-05,2
4467,4665,-9e-05,-4e-05,-0.00021,-0.00016999999999999999,0.0,-4e-05,-1e-05,-5e-05,2
4468,4666,-9e-05,-4e-05,-0.00021,-0.00016999999999999999,0.0,-4e-05,-1e-05,-5e-05,2
4469,4667,-9e-05,-4e-05,-0.00021,-0.00016999999999999999,0.0,-4e-05,-1e-05,-5e-05,2
4470,4668,-2.9999999999999997e-05,2.9999999999999997e-05,0.0,-0.00011999999999999999,0.0,-0.00016999999999999999,0.0001,-7e-05,2
4471,4669,-2.9999999999999997e-05,2.9999999999999997e-05,0.0,-0.00011999999999999999,0.0,-0.00016999999999999999,0.0001,-7e-05,2
4472,4670,-2.9999999999999997e-05,2.9999999999999997e-05,0.0,-0.00011999999999999999,0.0,-0.00016999999999999999,0.0001,-7e-05,2
4473,4671,-2.9999999999999997e-05,2.9999999999999997e-05,0.0,-0.00011999999999999999,0.0,-0.00016999999999999999,0.0001,-7e-05,2
4474,4672,-2.9999999999999997e-05,2.9999999999999997e-05,0.0,-0.00011999999999999999,0.0,-0.00016999999999999999,0.0001,-7e-05,2
4475,4673,-2.9999999999999997e-05,2.9999999999999997e-05,0.0,-0.00011999999999999999,0.0,-0.00016999999999999999,0.0001,-7e-05,2
4476,4674,-2.9999999999999997e-05,2.9999999999999997e-05,0.0,-0.00011999999999999999,0.0,-0.00016999999999999999,0.0001,-7e-05,2
4477,4675,-2.9999999999999997e-05,2.9999999999999997e-05,0.0,-0.00011999999999999999,0.0,-0.00016999999999999999,0.0001,-7e-05,2
4478,4676,-2.9999999999999997e-05,2.9999999999999997e-05,0.0,-0.00011999999999999999,0.0,-0.00016999999999999999,0.0001,-7e-05,2
4479,4677,-2.9999999999999997e-05,2.9999999999999997e-05,0.0,-0.00011999999999999999,0.0,-0.00016999999999999999,0.0001,-7e-05,2
4480,4678,-2.9999999999999997e-05,2.9999999999999997e-05,0.0,-0.00011999999999999999,0.0,-0.00016999999999999999,0.0001,-7e-05,2
4481,4679,-2.9999999999999997e-05,2.9999999999999997e-05,0.0,-0.00011999999999999999,0.0,-0.00016999999999999999,0.0001,-7e-05,2
4482,4680,-2.9999999999999997e-05,2.9999999999999997e-05,0.0,-0.00011999999999999999,0.0,-0.00016999999999999999,0.0001,-7e-05,2
4483,4681,-2.9999999999999997e-05,2.9999999999999997e-05,0.0,-0.00011999999999999999,0.0,-0.00016999999999999999,0.0001,-7e-05,2
4484,4682,-2.9999999999999997e-05,2.9999999999999997e-05,0.0,-0.00011999999999999999,0.0,-0.00016999999999999999,0.0001,-7e-05,2
4485,4683,-2.9999999999999997e-05,2.9999999999999997e-05,0.0,-0.00011999999999999999,0.0,-0.00016999999999999999,0.0001,-7e-05,2
4486,4684,-2.9999999999999997e-05,2.9999999999999997e-05,0.0,-0.00011999999999999999,0.0,-0.00016999999999999999,0.0001,-7e-05,2
4487,4685,-2.9999999999999997e-05,2.9999999999999997e-05,0.0,-0.00011999999999999999,0.0,-0.00016999999999999999,0.0001,-7e-05,2
4488,4686,-2.9999999999999997e-05,2.9999999999999997e-05,0.0,-0.00011999999999999999,0.0,-0.00016999999999999999,0.0001,-7e-05,2
4489,4688,-2.9999999999999997e-05,2.9999999999999997e-05,0.0,-0.00011999999999999999,0.0,-0.00016999999999999999,0.0001,-7e-05,2
4490,4689,-2.9999999999999997e-05,2.9999999999999997e-05,0.0,-0.00011999999999999999,0.0,-0.00016999999999999999,0.0001,-7e-05,2
4491,4690,-2.9999999999999997e-05,2.9999999999999997e-05,0.0,-0.00011999999999999999,0.0,-0.00016999999999999999,0.0001,-7e-05,2
4492,4691,-2.9999999999999997e-05,2.9999999999999997e-05,0.0,-0.00011999999999999999,0.0,-0.00016999999999999999,0.0001,-7e-05,2
4493,4692,-2.9999999999999997e-05,2.9999999999999997e-05,0.0,-0.00011999999999999999,0.0,-0.00016999999999999999,0.0001,-7e-05,2
4494,4693,-2.9999999999999997e-05,2.9999999999999997e-05,0.0,-0.00011999999999999999,0.0,-0.00016999999999999999,0.0001,-7e-05,2
4495,4694,-2.9999999999999997e-05,2.9999999999999997e-05,0.0,-0.00011999999999999999,0.0,-0.00016999999999999999,0.0001,-7e-05,2
4496,4695,-2.9999999999999997e-05,2.9999999999999997e-05,0.0,-0.00011999999999999999,0.0,-0.00016999999999999999,0.0001,-7e-05,2
4497,4696,-2.9999999999999997e-05,2.9999999999999997e-05,0.0,-0.00011999999999999999,0.0,-0.00016999999999999999,0.0001,-7e-05,2
4498,4697,-2.9999999999999997e-05,2.9999999999999997e-05,0.0,-0.00011999999999999999,0.0,-0.00016999999999999999,0.0001,-7e-05,2
4499,4698,-2.9999999999999997e-05,2.9999999999999997e-05,0.0,-0.00011999999999999999,0.0,-0.00016999999999999999,0.0001,-7e-05,2
4500,4699,-2.9999999999999997e-05,2.9999999999999997e-05,0.0,-0.00011999999999999999,0.0,-0.00016999999999999999,0.0001,-7e-05,2
4501,4700,-2.9999999999999997e-05,2.9999999999999997e-05,0.0,-0.00011999999999999999,0.0,-0.00016999999999999999,0.0001,-7e-05,2
4502,4701,-2.9999999999999997e-05,2.9999999999999997e-05,0.0,-0.00011999999999999999,0.0,-0.00016999999999999999,0.0001,-7e-05,2
4503,4702,-2.9999999999999997e-05,2.9999999999999997e-05,0.0,-0.00011999999999999999,0.0,-0.00016999999999999999,0.0001,-7e-05,2
4504,4703,-2.9999999999999997e-05,2.9999999999999997e-05,0.0,-0.00011999999999999999,0.0,-0.00016999999999999999,0.0001,-7e-05,2
4505,4704,-2.9999999999999997e-05,2.9999999999999997e-05,0.0,-0.00011999999999999999,0.0,-0.00016999999999999999,0.0001,-7e-05,2
4506,4705,-2.9999999999999997e-05,2.9999999999999997e-05,0.0,-0.00011999999999999999,0.0,-0.00016999999999999999,0.0001,-7e-05,2
4507,4706,-2.9999999999999997e-05,2.9999999999999997e-05,0.0,-0.00011999999999999999,0.0,-0.00016999999999999999,0.0001,-7e-05,2
4508,4707,-2.9999999999999997e-05,2.9999999999999997e-05,0.0,-0.00011999999999999999,0.0,-0.00016999999999999999,0.0001,-7e-05,2
4509,4708,-2.9999999999999997e-05,2.9999999999999997e-05,0.0,-0.00011999999999999999,0.0,-0.00016999999999999999,0.0001,-7e-05,2
4510,4709,-2.9999999999999997e-05,2.9999999999999997e-05,0.0,-0.00011999999999999999,0.0,-0.00016999999999999999,0.0001,-7e-05,2
4511,4710,-2.9999999999999997e-05,2.9999999999999997e-05,0.0,-0.00011999999999999999,0.0,-0.00016999999999999999,0.0001,-7e-05,2
4512,4711,-2.9999999999999997e-05,2.9999999999999997e-05,0.0,-0.00011999999999999999,0.0,-0.00016999999999999999,0.0001,-7e-05,2
4513,4712,-2.9999999999999997e-05,2.9999999999999997e-05,0.0,-0.00011999999999999999,0.0,-0.00016999999999999999,0.0001,-7e-05,2
4514,4713,-2.9999999999999997e-05,2.9999999999999997e-05,0.0,-0.00011999999999999999,0.0,-0.00016999999999999999,0.0001,-7e-05,2
4515,4714,-2.9999999999999997e-05,2.9999999999999997e-05,0.0,-0.00011999999999999999,0.0,-0.00016999999999999999,0.0001,-7e-05,2
4516,4715,-0.00018,-0.00016999999999999999,-0.00011,-0.0001,2.9999999999999997e-05,-7e-05,0.0,-0.00022,2
4517,4716,-0.00018,-0.00016999999999999999,-0.00011,-0.0001,2.9999999999999997e-05,-7e-05,0.0,-0.00022,2
4518,4717,0.00023999999999999998,4e-05,0.00013000000000000002,-0.00014,7e-05,0.0001,2.9999999999999997e-05,0.0001,2
4519,4718,0.00023999999999999998,4e-05,0.00013000000000000002,-0.00014,7e-05,0.0001,2.9999999999999997e-05,0.0001,2
4520,4719,0.00023999999999999998,4e-05,0.00013000000000000002,-0.00014,7e-05,0.0001,2.9999999999999997e-05,0.0001,2
4521,4720,0.00023999999999999998,4e-05,0.00013000000000000002,-0.00014,7e-05,0.0001,2.9999999999999997e-05,0.0001,2
4522,4721,-1e-05,4e-05,5e-05,0.00015,-0.00013000000000000002,-8e-05,5e-05,2.9999999999999997e-05,2
4523,4722,-1e-05,-7e-05,-0.00011999999999999999,0.00011,1e-05,0.00011,1e-05,1e-05,2
4524,4723,-1e-05,-7e-05,-0.00011999999999999999,0.00011,1e-05,0.00011,1e-05,1e-05,2
4525,4724,-1e-05,-7e-05,-0.00011999999999999999,0.00011,1e-05,0.00011,1e-05,1e-05,2
4526,4725,-1e-05,-7e-05,-0.00011999999999999999,0.00011,1e-05,0.00011,1e-05,1e-05,2
4527,4726,-1e-05,-7e-05,-0.00011999999999999999,0.00011,1e-05,0.00011,1e-05,1e-05,2
4528,4727,-1e-05,-7e-05,-0.00011999999999999999,0.00011,1e-05,0.00011,1e-05,1e-05,2
4529,4728,-1e-05,-7e-05,-0.00011999999999999999,0.00011,1e-05,0.00011,1e-05,1e-05,2
4530,4729,-1e-05,-7e-05,-0.00011999999999999999,0.00011,1e-05,0.00011,1e-05,1e-05,2
4531,4730,-1e-05,-7e-05,-0.00011999999999999999,0.00011,1e-05,0.00011,1e-05,1e-05,2
4532,4731,-1e-05,-7e-05,-0.00011999999999999999,0.00011,1e-05,0.00011,1e-05,1e-05,2
4533,4732,-1e-05,-7e-05,-0.00011999999999999999,0.00011,1e-05,0.00011,1e-05,1e-05,2
4534,4733,-1e-05,-7e-05,-0.00011999999999999999,0.00011,1e-05,0.00011,1e-05,1e-05,2
4535,4734,-1e-05,-7e-05,-0.00011999999999999999,0.00011,1e-05,0.00011,1e-05,1e-05,2
4536,4735,-1e-05,-7e-05,-0.00011999999999999999,0.00011,1e-05,0.00011,1e-05,1e-05,2
4537,4736,-1e-05,-7e-05,-0.00011999999999999999,0.00011,1e-05,0.00011,1e-05,1e-05,2
4538,4738,-1e-05,-7e-05,-0.00011999999999999999,0.00011,1e-05,0.00011,1e-05,1e-05,2
4539,4739,-1e-05,-7e-05,-0.00011999999999999999,0.00011,1e-05,0.00011,1e-05,1e-05,2
4540,4740,-1e-05,-7e-05,-0.00011999999999999999,0.00011,1e-05,0.00011,1e-05,1e-05,2
4541,4741,-1e-05,-7e-05,-0.00011999999999999999,0.00011,1e-05,0.00011,1e-05,1e-05,2
4542,4742,-1e-05,-7e-05,-0.00011999999999999999,0.00011,1e-05,0.00011,1e-05,1e-05,2
4543,4743,-1e-05,-7e-05,-0.00011999999999999999,0.00011,1e-05,0.00011,1e-05,1e-05,2
4544,4744,-1e-05,-7e-05,-0.00011999999999999999,0.00011,1e-05,0.00011,1e-05,1e-05,2
4545,4745,-1e-05,-7e-05,-0.00011999999999999999,0.00011,1e-05,0.00011,1e-05,1e-05,2
4546,4746,-1e-05,-7e-05,-0.00011999999999999999,0.00011,1e-05,0.00011,1e-05,1e-05,2
4547,4747,-1e-05,-7e-05,-0.00011999999999999999,0.00011,1e-05,0.00011,1e-05,1e-05,2
4548,4748,-1e-05,-7e-05,-0.00011999999999999999,0.00011,1e-05,0.00011,1e-05,1e-05,2
4549,4749,-1e-05,-7e-05,-0.00011999999999999999,0.00011,1e-05,0.00011,1e-05,1e-05,2
4550,4750,-1e-05,-7e-05,-0.00011999999999999999,0.00011,1e-05,0.00011,1e-05,1e-05,2
4551,4751,-1e-05,-7e-05,-0.00011999999999999999,0.00011,1e-05,0.00011,1e-05,1e-05,2
4552,4752,-1e-05,-7e-05,-0.00011999999999999999,0.00011,1e-05,0.00011,1e-05,1e-05,2
4553,4753,-1e-05,-7e-05,-0.00011999999999999999,0.00011,1e-05,0.00011,1e-05,1e-05,2
4554,4754,-1e-05,-7e-05,-0.00011999999999999999,0.00011,1e-05,0.00011,1e-05,1e-05,2
4555,4755,-1e-05,-7e-05,-0.00011999999999999999,0.00011,1e-05,0.00011,1e-05,1e-05,2
4556,4756,-1e-05,-7e-05,-0.00011999999999999999,0.00011,1e-05,0.00011,1e-05,1e-05,2
4557,4757,-1e-05,-7e-05,-0.00011999999999999999,0.00011,1e-05,0.00011,1e-05,1e-05,2
4558,4758,-1e-05,-7e-05,-0.00011999999999999999,0.00011,1e-05,0.00011,1e-05,1e-05,2
4559,4759,-1e-05,-7e-05,-0.00011999999999999999,0.00011,1e-05,0.00011,1e-05,1e-05,2
4560,4760,-1e-05,-7e-05,-0.00011999999999999999,0.00011,1e-05,0.00011,1e-05,1e-05,2
4561,4761,-1e-05,-7e-05,-0.00011999999999999999,0.00011,1e-05,0.00011,1e-05,1e-05,2
4562,4762,-1e-05,-7e-05,-0.00011999999999999999,0.00011,1e-05,0.00011,1e-05,1e-05,2
4563,4763,-1e-05,-7e-05,-0.00011999999999999999,0.00011,1e-05,0.00011,1e-05,1e-05,2
4564,4764,-1e-05,-7e-05,-0.00011999999999999999,0.00011,1e-05,0.00011,1e-05,1e-05,2
4565,4765,-1e-05,-7e-05,-0.00011999999999999999,0.00011,1e-05,0.00011,1e-05,1e-05,2
4566,4766,-1e-05,-7e-05,-0.00011999999999999999,0.00011,1e-05,0.00011,1e-05,1e-05,2
4567,4767,-1e-05,-7e-05,-0.00011999999999999999,0.00011,1e-05,0.00011,1e-05,1e-05,2
4568,4768,-1e-05,-7e-05,-0.00011999999999999999,0.00011,1e-05,0.00011,1e-05,1e-05,2
4569,4769,-1e-05,-7e-05,-0.00011999999999999999,0.00011,1e-05,0.00011,1e-05,1e-05,2
4570,4770,-1e-05,-7e-05,-0.00011999999999999999,0.00011,1e-05,0.00011,1e-05,1e-05,2
4571,4771,-1e-05,-7e-05,-0.00011999999999999999,0.00011,1e-05,0.00011,1e-05,1e-05,2
4572,4772,-1e-05,-7e-05,-0.00011999999999999999,0.00011,1e-05,0.00011,1e-05,1e-05,2
4573,4773,-1e-05,-7e-05,-0.00011999999999999999,0.00011,1e-05,0.00011,1e-05,1e-05,2
4574,4774,2.9999999999999997e-05,-0.00011,-0.00033999999999999997,-0.00032,-5.9999999999999995e-05,7e-05,0.0,-5.9999999999999995e-05,2
4575,4775,0.00011999999999999999,0.00013000000000000002,8e-05,-1e-05,-7e-05,-0.00016999999999999999,4e-05,2.9999999999999997e-05,2
4576,4776,0.00011999999999999999,0.00013000000000000002,8e-05,-1e-05,-7e-05,-0.00016999999999999999,4e-05,2.9999999999999997e-05,2
4577,4777,-0.00016,-0.00013000000000000002,-0.00033,-0.00018999999999999998,-2e-05,0.0,4e-05,-5.9999999999999995e-05,2
4578,4778,-0.00016,-0.00013000000000000002,-0.00033,-0.00018999999999999998,-2e-05,0.0,4e-05,-5.9999999999999995e-05,2
4579,4779,-0.00016,-0.00013000000000000002,-0.00033,-0.00018999999999999998,-2e-05,0.0,4e-05,-5.9999999999999995e-05,2
4580,4780,-0.00016,-0.00013000000000000002,-0.00033,-0.00018999999999999998,-2e-05,0.0,4e-05,-5.9999999999999995e-05,2
4581,4781,-7e-05,-5e-05,-0.00035,-0.00013000000000000002,-5.9999999999999995e-05,0.00013000000000000002,-4e-05,-2e-05,2
4582,4782,-2e-05,-2e-05,-9e-05,-2e-05,0.0,-0.00023999999999999998,-0.00015,-0.00013000000000000002,2
4583,4784,-2e-05,-2e-05,-9e-05,-2e-05,0.0,-0.00023999999999999998,-0.00015,-0.00013000000000000002,2
4584,4785,-2e-05,-2e-05,-9e-05,-2e-05,0.0,-0.00023999999999999998,-0.00015,-0.00013000000000000002,2
4585,4786,-2e-05,-2e-05,-9e-05,-2e-05,0.0,-0.00023999999999999998,-0.00015,-0.00013000000000000002,2
4586,4788,-2e-05,-2e-05,-9e-05,-2e-05,0.0,-0.00023999999999999998,-0.00015,-0.00013000000000000002,2
4587,4789,-2e-05,-2e-05,-9e-05,-2e-05,0.0,-0.00023999999999999998,-0.00015,-0.00013000000000000002,2
4588,4790,-2e-05,-2e-05,-9e-05,-2e-05,0.0,-0.00023999999999999998,-0.00015,-0.00013000000000000002,2
4589,4791,-2e-05,-2e-05,-9e-05,-2e-05,0.0,-0.00023999999999999998,-0.00015,-0.00013000000000000002,2
4590,4792,-2e-05,-2e-05,-9e-05,-2e-05,0.0,-0.00023999999999999998,-0.00015,-0.00013000000000000002,2
4591,4793,-2e-05,-2e-05,-9e-05,-2e-05,0.0,-0.00023999999999999998,-0.00015,-0.00013000000000000002,2
4592,4794,-2e-05,-2e-05,-9e-05,-2e-05,0.0,-0.00023999999999999998,-0.00015,-0.00013000000000000002,2
4593,4795,-2e-05,-2e-05,-9e-05,-2e-05,0.0,-0.00023999999999999998,-0.00015,-0.00013000000000000002,2
4594,4796,-2e-05,-2e-05,-9e-05,-2e-05,0.0,-0.00023999999999999998,-0.00015,-0.00013000000000000002,2
4595,4797,-2e-05,-2e-05,-9e-05,-2e-05,0.0,-0.00023999999999999998,-0.00015,-0.00013000000000000002,2
4596,4798,-2e-05,-2e-05,-9e-05,-2e-05,0.0,-0.00023999999999999998,-0.00015,-0.00013000000000000002,2
4597,4799,-2e-05,-2e-05,-9e-05,-2e-05,0.0,-0.00023999999999999998,-0.00015,-0.00013000000000000002,2
4598,4800,-2e-05,-2e-05,-9e-05,-2e-05,0.0,-0.00023999999999999998,-0.00015,-0.00013000000000000002,2
4599,4801,-2e-05,-2e-05,-9e-05,-2e-05,0.0,-0.00023999999999999998,-0.00015,-0.00013000000000000002,2
4600,4802,-2e-05,-2e-05,-9e-05,-2e-05,0.0,-0.00023999999999999998,-0.00015,-0.00013000000000000002,2
4601,4803,-2e-05,-2e-05,-9e-05,-2e-05,0.0,-0.00023999999999999998,-0.00015,-0.00013000000000000002,2
4602,4804,-2e-05,-2e-05,-9e-05,-2e-05,0.0,-0.00023999999999999998,-0.00015,-0.00013000000000000002,2
4603,4805,-2e-05,-2e-05,-9e-05,-2e-05,0.0,-0.00023999999999999998,-0.00015,-0.00013000000000000002,2
4604,4806,-2e-05,-2e-05,-9e-05,-2e-05,0.0,-0.00023999999999999998,-0.00015,-0.00013000000000000002,2
4605,4807,-2e-05,-2e-05,-9e-05,-2e-05,0.0,-0.00023999999999999998,-0.00015,-0.00013000000000000002,2
4606,4808,-2e-05,-2e-05,-9e-05,-2e-05,0.0,-0.00023999999999999998,-0.00015,-0.00013000000000000002,2
4607,4809,-2e-05,-2e-05,-9e-05,-2e-05,0.0,-0.00023999999999999998,-0.00015,-0.00013000000000000002,2
4608,4810,-2e-05,-2e-05,-9e-05,-2e-05,0.0,-0.00023999999999999998,-0.00015,-0.00013000000000000002,2
4609,4811,-2e-05,-2e-05,-9e-05,-2e-05,0.0,-0.00023999999999999998,-0.00015,-0.00013000000000000002,2
4610,4812,-2e-05,-2e-05,-9e-05,-2e-05,0.0,-0.00023999999999999998,-0.00015,-0.00013000000000000002,2
4611,4813,-2e-05,-2e-05,-9e-05,-2e-05,0.0,-0.00023999999999999998,-0.00015,-0.00013000000000000002,2
4612,4814,-2e-05,-2e-05,-9e-05,-2e-05,0.0,-0.00023999999999999998,-0.00015,-0.00013000000000000002,2
4613,4815,-2e-05,-2e-05,-9e-05,-2e-05,0.0,-0.00023999999999999998,-0.00015,-0.00013000000000000002,2
4614,4816,-2e-05,-2e-05,-9e-05,-2e-05,0.0,-0.00023999999999999998,-0.00015,-0.00013000000000000002,2
4615,4817,-2e-05,-2e-05,-9e-05,-2e-05,0.0,-0.00023999999999999998,-0.00015,-0.00013000000000000002,2
4616,4818,-2e-05,-2e-05,-9e-05,-2e-05,0.0,-0.00023999999999999998,-0.00015,-0.00013000000000000002,2
4617,4819,-2e-05,-2e-05,-9e-05,-2e-05,0.0,-0.00023999999999999998,-0.00015,-0.00013000000000000002,2
4618,4820,-2e-05,-2e-05,-9e-05,-2e-05,0.0,-0.00023999999999999998,-0.00015,-0.00013000000000000002,2
4619,4821,-2e-05,-2e-05,-9e-05,-2e-05,0.0,-0.00023999999999999998,-0.00015,-0.00013000000000000002,2
4620,4822,-2e-05,-2e-05,-9e-05,-2e-05,0.0,-0.00023999999999999998,-0.00015,-0.00013000000000000002,2
4621,4823,-2e-05,-2e-05,-9e-05,-2e-05,0.0,-0.00023999999999999998,-0.00015,-0.00013000000000000002,2
4622,4824,-2e-05,-2e-05,-9e-05,-2e-05,0.0,-0.00023999999999999998,-0.00015,-0.00013000000000000002,2
4623,4825,-2e-05,-2e-05,-9e-05,-2e-05,0.0,-0.00023999999999999998,-0.00015,-0.00013000000000000002,2
4624,4826,-2e-05,-2e-05,-9e-05,-2e-05,0.0,-0.00023999999999999998,-0.00015,-0.00013000000000000002,2
4625,4827,-4e-05,-4e-05,5e-05,0.00011,-4e-05,-9e-05,-0.00011,4e-05,2
4626,4828,-4e-05,2e-05,2.9999999999999997e-05,0.00011,-2e-05,-0.00013000000000000002,-5.9999999999999995e-05,2e-05,2
4627,4829,-5.9999999999999995e-05,-1e-05,4e-05,0.00011999999999999999,1e-05,-5e-05,-4e-05,-5e-05,2
4628,4830,5.9999999999999995e-05,2e-05,2e-05,-5e-05,0.0,-4e-05,0.00011999999999999999,-2.9999999999999997e-05,2
4629,4831,5.9999999999999995e-05,2e-05,2e-05,-5e-05,0.0,-4e-05,0.00011999999999999999,-2.9999999999999997e-05,2
4630,4832,5.9999999999999995e-05,2e-05,2e-05,-5e-05,0.0,-4e-05,0.00011999999999999999,-2.9999999999999997e-05,2
4631,4833,-0.00015,-0.00018999999999999998,-0.00016999999999999999,-0.00016,-5e-05,-0.00021,-0.00011,-0.00014,2
4632,4834,-0.00015,-0.00018999999999999998,-0.00016999999999999999,-0.00016,-5e-05,-0.00021,-0.00011,-0.00014,2
4633,4835,0.00011,2e-05,-2e-05,-5e-05,-8e-05,-0.00018999999999999998,-8e-05,0.0001,2
4634,4836,0.00011,2e-05,-2e-05,-5e-05,-8e-05,-0.00018999999999999998,-8e-05,0.0001,2
4635,4838,0.00011,2e-05,-2e-05,-5e-05,-8e-05,-0.00018999999999999998,-8e-05,0.0001,2
4636,4839,0.00011,2e-05,-2e-05,-5e-05,-8e-05,-0.00018999999999999998,-8e-05,0.0001,2
4637,4840,0.00011,2e-05,-2e-05,-5e-05,-8e-05,-0.00018999999999999998,-8e-05,0.0001,2
4638,4841,0.00011,2e-05,-2e-05,-5e-05,-8e-05,-0.00018999999999999998,-8e-05,0.0001,2
4639,4842,0.00011,2e-05,-2e-05,-5e-05,-8e-05,-0.00018999999999999998,-8e-05,0.0001,2
4640,4843,0.00011,2e-05,-2e-05,-5e-05,-8e-05,-0.00018999999999999998,-8e-05,0.0001,2
4641,4844,0.00011,2e-05,-2e-05,-5e-05,-8e-05,-0.00018999999999999998,-8e-05,0.0001,2
4642,4845,0.00011,2e-05,-2e-05,-5e-05,-8e-05,-0.00018999999999999998,-8e-05,0.0001,2
4643,4846,0.00011,2e-05,-2e-05,-5e-05,-8e-05,-0.00018999999999999998,-8e-05,0.0001,2
4644,4847,0.00011,2e-05,-2e-05,-5e-05,-8e-05,-0.00018999999999999998,-8e-05,0.0001,2
4645,4848,0.00011,2e-05,-2e-05,-5e-05,-8e-05,-0.00018999999999999998,-8e-05,0.0001,2
4646,4849,0.00011,2e-05,-2e-05,-5e-05,-8e-05,-0.00018999999999999998,-8e-05,0.0001,2
4647,4850,0.00011,2e-05,-2e-05,-5e-05,-8e-05,-0.00018999999999999998,-8e-05,0.0001,2
4648,4851,0.00011,2e-05,-2e-05,-5e-05,-8e-05,-0.00018999999999999998,-8e-05,0.0001,2
4649,4852,0.00011,2e-05,-2e-05,-5e-05,-8e-05,-0.00018999999999999998,-8e-05,0.0001,2
4650,4853,0.00011,2e-05,-2e-05,-5e-05,-8e-05,-0.00018999999999999998,-8e-05,0.0001,2
4651,4854,0.00011,2e-05,-2e-05,-5e-05,-8e-05,-0.00018999999999999998,-8e-05,0.0001,2
4652,4855,0.00011,2e-05,-2e-05,-5e-05,-8e-05,-0.00018999999999999998,-8e-05,0.0001,2
4653,4856,0.00011,2e-05,-2e-05,-5e-05,-8e-05,-0.00018999999999999998,-8e-05,0.0001,2
4654,4857,0.00011,2e-05,-2e-05,-5e-05,-8e-05,-0.00018999999999999998,-8e-05,0.0001,2
4655,4858,0.00011,2e-05,-2e-05,-5e-05,-8e-05,-0.00018999999999999998,-8e-05,0.0001,2
4656,4859,0.00011,2e-05,-2e-05,-5e-05,-8e-05,-0.00018999999999999998,-8e-05,0.0001,2
4657,4860,0.00011,2e-05,-2e-05,-5e-05,-8e-05,-0.00018999999999999998,-8e-05,0.0001,2
4658,4861,0.00011,2e-05,-2e-05,-5e-05,-8e-05,-0.00018999999999999998,-8e-05,0.0001,2
4659,4862,0.00011,2e-05,-2e-05,-5e-05,-8e-05,-0.00018999999999999998,-8e-05,0.0001,2
4660,4863,0.00011,2e-05,-2e-05,-5e-05,-8e-05,-0.00018999999999999998,-8e-05,0.0001,2
4661,4864,0.00011,2e-05,-2e-05,-5e-05,-8e-05,-0.00018999999999999998,-8e-05,0.0001,2
4662,4865,0.00011,2e-05,-2e-05,-5e-05,-8e-05,-0.00018999999999999998,-8e-05,0.0001,2
4663,4866,0.00011,2e-05,-2e-05,-5e-05,-8e-05,-0.00018999999999999998,-8e-05,0.0001,2
4664,4867,0.00011,2e-05,-2e-05,-5e-05,-8e-05,-0.00018999999999999998,-8e-05,0.0001,2
4665,4868,0.00011,2e-05,-2e-05,-5e-05,-8e-05,-0.00018999999999999998,-8e-05,0.0001,2
4666,4869,0.00011,2e-05,-2e-05,-5e-05,-8e-05,-0.00018999999999999998,-8e-05,0.0001,2
4667,4870,0.00011,2e-05,-2e-05,-5e-05,-8e-05,-0.00018999999999999998,-8e-05,0.0001,2
4668,4871,0.00011,2e-05,-2e-05,-5e-05,-8e-05,-0.00018999999999999998,-8e-05,0.0001,2
4669,4872,0.00011,2e-05,-2e-05,-5e-05,-8e-05,-0.00018999999999999998,-8e-05,0.0001,2
4670,4873,0.00011,2e-05,-2e-05,-5e-05,-8e-05,-0.00018999999999999998,-8e-05,0.0001,2
4671,4874,0.00011,2e-05,-2e-05,-5e-05,-8e-05,-0.00018999999999999998,-8e-05,0.0001,2
4672,4875,0.00011,2e-05,-2e-05,-5e-05,-8e-05,-0.00018999999999999998,-8e-05,0.0001,2
4673,4876,0.00011,2e-05,-2e-05,-5e-05,-8e-05,-0.00018999999999999998,-8e-05,0.0001,2
4674,4877,0.00011,2e-05,-2e-05,-5e-05,-8e-05,-0.00018999999999999998,-8e-05,0.0001,2
4675,4878,0.00011,2e-05,-2e-05,-5e-05,-8e-05,-0.00018999999999999998,-8e-05,0.0001,2
4676,4879,0.00011,2e-05,-2e-05,-5e-05,-8e-05,-0.00018999999999999998,-8e-05,0.0001,2
4677,4880,0.0002,5e-05,-0.0001,-5.9999999999999995e-05,-2e-05,0.0,2e-05,0.00011999999999999999,2
4678,4881,-2e-05,2e-05,9e-05,-1e-05,-1e-05,8e-05,2e-05,-8e-05,2
4679,4882,-1e-05,7e-05,0.00029,1e-05,1e-05,2e-05,-8e-05,-4e-05,2
4680,4883,-1e-05,7e-05,0.00029,1e-05,1e-05,2e-05,-8e-05,-4e-05,2
4681,4884,-1e-05,7e-05,0.00029,1e-05,1e-05,2e-05,-8e-05,-4e-05,2
4682,4885,-1e-05,7e-05,0.00029,1e-05,1e-05,2e-05,-8e-05,-4e-05,2
4683,4886,-1e-05,7e-05,0.00029,1e-05,1e-05,2e-05,-8e-05,-4e-05,2
4684,4889,-2.9999999999999997e-05,0.00011,0.00022999999999999998,0.00013000000000000002,0.0,7e-05,0.0,-1e-05,2
4685,4890,-2.9999999999999997e-05,0.00011,0.00022999999999999998,0.00013000000000000002,0.0,7e-05,0.0,-1e-05,2
4686,4891,-2.9999999999999997e-05,0.00011,0.00022999999999999998,0.00013000000000000002,0.0,7e-05,0.0,-1e-05,2
4687,4892,-2.9999999999999997e-05,0.00011,0.00022999999999999998,0.00013000000000000002,0.0,7e-05,0.0,-1e-05,2
4688,4893,-2.9999999999999997e-05,0.00011,0.00022999999999999998,0.00013000000000000002,0.0,7e-05,0.0,-1e-05,2
4689,4894,-2.9999999999999997e-05,0.00011,0.00022999999999999998,0.00013000000000000002,0.0,7e-05,0.0,-1e-05,2
4690,4895,-2.9999999999999997e-05,0.00011,0.00022999999999999998,0.00013000000000000002,0.0,7e-05,0.0,-1e-05,2
4691,4896,-2.9999999999999997e-05,0.00011,0.00022999999999999998,0.00013000000000000002,0.0,7e-05,0.0,-1e-05,2
4692,4897,-2.9999999999999997e-05,0.00011,0.00022999999999999998,0.00013000000000000002,0.0,7e-05,0.0,-1e-05,2
4693,4898,-2.9999999999999997e-05,0.00011,0.00022999999999999998,0.00013000000000000002,0.0,7e-05,0.0,-1e-05,2
4694,4899,-2.9999999999999997e-05,0.00011,0.00022999999999999998,0.00013000000000000002,0.0,7e-05,0.0,-1e-05,2
4695,4900,-2.9999999999999997e-05,0.00011,0.00022999999999999998,0.00013000000000000002,0.0,7e-05,0.0,-1e-05,2
4696,4901,-2.9999999999999997e-05,0.00011,0.00022999999999999998,0.00013000000000000002,0.0,7e-05,0.0,-1e-05,2
4697,4902,-2.9999999999999997e-05,0.00011,0.00022999999999999998,0.00013000000000000002,0.0,7e-05,0.0,-1e-05,2
4698,4903,-2.9999999999999997e-05,0.00011,0.00022999999999999998,0.00013000000000000002,0.0,7e-05,0.0,-1e-05,2
4699,4904,-2.9999999999999997e-05,0.00011,0.00022999999999999998,0.00013000000000000002,0.0,7e-05,0.0,-1e-05,2
4700,4905,-2.9999999999999997e-05,0.00011,0.00022999999999999998,0.00013000000000000002,0.0,7e-05,0.0,-1e-05,2
4701,4906,-2.9999999999999997e-05,0.00011,0.00022999999999999998,0.00013000000000000002,0.0,7e-05,0.0,-1e-05,2
4702,4907,-2.9999999999999997e-05,0.00011,0.00022999999999999998,0.00013000000000000002,0.0,7e-05,0.0,-1e-05,2
4703,4908,-2.9999999999999997e-05,0.00011,0.00022999999999999998,0.00013000000000000002,0.0,7e-05,0.0,-1e-05,2
4704,4909,-2.9999999999999997e-05,0.00011,0.00022999999999999998,0.00013000000000000002,0.0,7e-05,0.0,-1e-05,2
4705,4910,-2.9999999999999997e-05,0.00011,0.00022999999999999998,0.00013000000000000002,0.0,7e-05,0.0,-1e-05,2
4706,4911,-2.9999999999999997e-05,0.00011,0.00022999999999999998,0.00013000000000000002,0.0,7e-05,0.0,-1e-05,2
4707,4912,-2.9999999999999997e-05,0.00011,0.00022999999999999998,0.00013000000000000002,0.0,7e-05,0.0,-1e-05,2
4708,4913,-2.9999999999999997e-05,0.00011,0.00022999999999999998,0.00013000000000000002,0.0,7e-05,0.0,-1e-05,2
4709,4914,-2.9999999999999997e-05,0.00011,0.00022999999999999998,0.00013000000000000002,0.0,7e-05,0.0,-1e-05,2
4710,4915,-2.9999999999999997e-05,0.00011,0.00022999999999999998,0.00013000000000000002,0.0,7e-05,0.0,-1e-05,2
4711,4916,-2.9999999999999997e-05,0.00011,0.00022999999999999998,0.00013000000000000002,0.0,7e-05,0.0,-1e-05,2
4712,4917,-2.9999999999999997e-05,0.00011,0.00022999999999999998,0.00013000000000000002,0.0,7e-05,0.0,-1e-05,2
4713,4918,-2.9999999999999997e-05,0.00011,0.00022999999999999998,0.00013000000000000002,0.0,7e-05,0.0,-1e-05,2
4714,4919,-2.9999999999999997e-05,0.00011,0.00022999999999999998,0.00013000000000000002,0.0,7e-05,0.0,-1e-05,2
4715,4920,-2.9999999999999997e-05,0.00011,0.00022999999999999998,0.00013000000000000002,0.0,7e-05,0.0,-1e-05,2
4716,4921,-2.9999999999999997e-05,0.00011,0.00022999999999999998,0.00013000000000000002,0.0,7e-05,0.0,-1e-05,2
4717,4922,-2.9999999999999997e-05,0.00011,0.00022999999999999998,0.00013000000000000002,0.0,7e-05,0.0,-1e-05,2
4718,4923,-2.9999999999999997e-05,0.00011,0.00022999999999999998,0.00013000000000000002,0.0,7e-05,0.0,-1e-05,2
4719,4924,-2.9999999999999997e-05,0.00011,0.00022999999999999998,0.00013000000000000002,0.0,7e-05,0.0,-1e-05,2
4720,4925,-2.9999999999999997e-05,0.00011,0.00022999999999999998,0.00013000000000000002,0.0,7e-05,0.0,-1e-05,2
4721,4926,-2.9999999999999997e-05,0.00011,0.00022999999999999998,0.00013000000000000002,0.0,7e-05,0.0,-1e-05,2
4722,4927,-2.9999999999999997e-05,0.00011,0.00022999999999999998,0.00013000000000000002,0.0,7e-05,0.0,-1e-05,2
4723,4928,-2.9999999999999997e-05,0.00011,0.00022999999999999998,0.00013000000000000002,0.0,7e-05,0.0,-1e-05,2
4724,4929,-2.9999999999999997e-05,0.00011,0.00022999999999999998,0.00013000000000000002,0.0,7e-05,0.0,-1e-05,2
4725,4930,-2.9999999999999997e-05,0.00011,0.00022999999999999998,0.00013000000000000002,0.0,7e-05,0.0,-1e-05,2
4726,4931,-2.9999999999999997e-05,0.00011,0.00022999999999999998,0.00013000000000000002,0.0,7e-05,0.0,-1e-05,2
4727,4932,7e-05,-2e-05,-0.00016,-0.00011,-5.9999999999999995e-05,-0.0001,-0.00011,4e-05,2
4728,4933,7e-05,-2e-05,-0.00016,-0.00011,-5.9999999999999995e-05,-0.0001,-0.00011,4e-05,2
4729,4934,7e-05,-2e-05,-0.00016,-0.00011,-5.9999999999999995e-05,-0.0001,-0.00011,4e-05,2
4730,4935,7e-05,-2e-05,-0.00016,-0.00011,-5.9999999999999995e-05,-0.0001,-0.00011,4e-05,2
4731,4936,7e-05,-2e-05,-0.00016,-0.00011,-5.9999999999999995e-05,-0.0001,-0.00011,4e-05,2
4732,4938,7e-05,-2e-05,-0.00016,-0.00011,-5.9999999999999995e-05,-0.0001,-0.00011,4e-05,2
4733,4939,7e-05,-2e-05,-0.00016,-0.00011,-5.9999999999999995e-05,-0.0001,-0.00011,4e-05,2
4734,4940,-7e-05,-0.00011,1e-05,-5e-05,0.00015,-0.0001,-2.9999999999999997e-05,-0.0001,2
4735,4941,-5.9999999999999995e-05,-2.9999999999999997e-05,2.9999999999999997e-05,-1e-05,-2e-05,-0.0002,-2.9999999999999997e-05,-7e-05,2
4736,4942,-5.9999999999999995e-05,-2.9999999999999997e-05,2.9999999999999997e-05,-1e-05,-2e-05,-0.0002,-2.9999999999999997e-05,-7e-05,2
4737,4943,-5.9999999999999995e-05,-2.9999999999999997e-05,2.9999999999999997e-05,-1e-05,-2e-05,-0.0002,-2.9999999999999997e-05,-7e-05,2
4738,4944,-5.9999999999999995e-05,-2.9999999999999997e-05,2.9999999999999997e-05,-1e-05,-2e-05,-0.0002,-2.9999999999999997e-05,-7e-05,2
4739,4945,-5.9999999999999995e-05,-2.9999999999999997e-05,2.9999999999999997e-05,-1e-05,-2e-05,-0.0002,-2.9999999999999997e-05,-7e-05,2
4740,4946,-5e-05,0.0,0.00011,-1e-05,-2e-05,0.00011999999999999999,1e-05,1e-05,2
4741,4947,5e-05,-1e-05,2e-05,4e-05,-1e-05,-0.00011,-7e-05,-0.00014,2
4742,4948,-9e-05,-2e-05,7e-05,-1e-05,-2e-05,-0.00015,2e-05,-2e-05,2
4743,4949,0.0,-1e-05,0.00013000000000000002,0.00016,4e-05,5.9999999999999995e-05,-7e-05,0.00015,2
4744,4950,0.0,-1e-05,0.00013000000000000002,0.00016,4e-05,5.9999999999999995e-05,-7e-05,0.00015,2
4745,4951,0.0,-1e-05,0.00013000000000000002,0.00016,4e-05,5.9999999999999995e-05,-7e-05,0.00015,2
4746,4952,0.0,-1e-05,0.00013000000000000002,0.00016,4e-05,5.9999999999999995e-05,-7e-05,0.00015,2
4747,4953,0.0,-1e-05,0.00013000000000000002,0.00016,4e-05,5.9999999999999995e-05,-7e-05,0.00015,2
4748,4954,0.0,-1e-05,0.00013000000000000002,0.00016,4e-05,5.9999999999999995e-05,-7e-05,0.00015,2
4749,4955,0.0,-1e-05,0.00013000000000000002,0.00016,4e-05,5.9999999999999995e-05,-7e-05,0.00015,2
4750,4956,0.0,-1e-05,0.00013000000000000002,0.00016,4e-05,5.9999999999999995e-05,-7e-05,0.00015,2
4751,4957,0.0,-1e-05,0.00013000000000000002,0.00016,4e-05,5.9999999999999995e-05,-7e-05,0.00015,2
4752,4958,0.0,-1e-05,0.00013000000000000002,0.00016,4e-05,5.9999999999999995e-05,-7e-05,0.00015,2
4753,4959,0.0,-1e-05,0.00013000000000000002,0.00016,4e-05,5.9999999999999995e-05,-7e-05,0.00015,2
4754,4960,0.0,-1e-05,0.00013000000000000002,0.00016,4e-05,5.9999999999999995e-05,-7e-05,0.00015,2
4755,4961,0.0,-1e-05,0.00013000000000000002,0.00016,4e-05,5.9999999999999995e-05,-7e-05,0.00015,2
4756,4962,0.0,-1e-05,0.00013000000000000002,0.00016,4e-05,5.9999999999999995e-05,-7e-05,0.00015,2
4757,4963,0.0,-1e-05,0.00013000000000000002,0.00016,4e-05,5.9999999999999995e-05,-7e-05,0.00015,2
4758,4964,0.0,-1e-05,0.00013000000000000002,0.00016,4e-05,5.9999999999999995e-05,-7e-05,0.00015,2
4759,4965,0.0,-1e-05,0.00013000000000000002,0.00016,4e-05,5.9999999999999995e-05,-7e-05,0.00015,2
4760,4966,0.0,-1e-05,0.00013000000000000002,0.00016,4e-05,5.9999999999999995e-05,-7e-05,0.00015,2
4761,4967,0.0,-1e-05,0.00013000000000000002,0.00016,4e-05,5.9999999999999995e-05,-7e-05,0.00015,2
4762,4968,0.0,-1e-05,0.00013000000000000002,0.00016,4e-05,5.9999999999999995e-05,-7e-05,0.00015,2
4763,4969,0.0,-1e-05,0.00013000000000000002,0.00016,4e-05,5.9999999999999995e-05,-7e-05,0.00015,2
4764,4970,0.0,-1e-05,0.00013000000000000002,0.00016,4e-05,5.9999999999999995e-05,-7e-05,0.00015,2
4765,4971,0.0,-1e-05,0.00013000000000000002,0.00016,4e-05,5.9999999999999995e-05,-7e-05,0.00015,2
4766,4972,0.0,-1e-05,0.00013000000000000002,0.00016,4e-05,5.9999999999999995e-05,-7e-05,0.00015,2
4767,4973,0.0,-1e-05,0.00013000000000000002,0.00016,4e-05,5.9999999999999995e-05,-7e-05,0.00015,2
4768,4974,0.0,-1e-05,0.00013000000000000002,0.00016,4e-05,5.9999999999999995e-05,-7e-05,0.00015,2
4769,4975,0.0,-1e-05,0.00013000000000000002,0.00016,4e-05,5.9999999999999995e-05,-7e-05,0.00015,2
4770,4976,0.0,-1e-05,0.00013000000000000002,0.00016,4e-05,5.9999999999999995e-05,-7e-05,0.00015,2
4771,4977,0.0,-1e-05,0.00013000000000000002,0.00016,4e-05,5.9999999999999995e-05,-7e-05,0.00015,2
4772,4978,0.0,-1e-05,0.00013000000000000002,0.00016,4e-05,5.9999999999999995e-05,-7e-05,0.00015,2
4773,4979,0.0,-1e-05,0.00013000000000000002,0.00016,4e-05,5.9999999999999995e-05,-7e-05,0.00015,2
4774,4980,0.0,-1e-05,0.00013000000000000002,0.00016,4e-05,5.9999999999999995e-05,-7e-05,0.00015,2
4775,4981,0.0,-1e-05,0.00013000000000000002,0.00016,4e-05,5.9999999999999995e-05,-7e-05,0.00015,2
4776,4982,0.0,-1e-05,0.00013000000000000002,0.00016,4e-05,5.9999999999999995e-05,-7e-05,0.00015,2
4777,4983,0.0,-1e-05,0.00013000000000000002,0.00016,4e-05,5.9999999999999995e-05,-7e-05,0.00015,2
4778,4984,0.0,-1e-05,0.00013000000000000002,0.00016,4e-05,5.9999999999999995e-05,-7e-05,0.00015,2
4779,4985,0.0,-1e-05,0.00013000000000000002,0.00016,4e-05,5.9999999999999995e-05,-7e-05,0.00015,2
4780,4986,0.0,-1e-05,0.00013000000000000002,0.00016,4e-05,5.9999999999999995e-05,-7e-05,0.00015,2
4781,4988,0.0,-1e-05,0.00013000000000000002,0.00016,4e-05,5.9999999999999995e-05,-7e-05,0.00015,2
4782,4989,0.0,-1e-05,0.00013000000000000002,0.00016,4e-05,5.9999999999999995e-05,-7e-05,0.00015,2
4783,4990,0.0,-1e-05,0.00013000000000000002,0.00016,4e-05,5.9999999999999995e-05,-7e-05,0.00015,2
4784,4991,0.0,-1e-05,0.00013000000000000002,0.00016,4e-05,5.9999999999999995e-05,-7e-05,0.00015,2
4785,4992,-4e-05,-7e-05,-9e-05,-7e-05,1e-05,0.00016999999999999999,9e-05,1e-05,2
4786,4993,-4e-05,-7e-05,-9e-05,-7e-05,1e-05,0.00016999999999999999,9e-05,1e-05,2
4787,4994,-2e-05,0.00018,0.00028,5e-05,-4e-05,-0.00018,-4e-05,-5.9999999999999995e-05,2
4788,4996,-2e-05,0.00018,0.00028,5e-05,-4e-05,-0.00018,-4e-05,-5.9999999999999995e-05,2
4789,4997,-2e-05,0.00018,0.00028,5e-05,-4e-05,-0.00018,-4e-05,-5.9999999999999995e-05,2
4790,4998,2e-05,-5.9999999999999995e-05,-0.00011999999999999999,-0.00015,0.0,0.0,5e-05,-1e-05,2
4791,4999,0.00014,7e-05,-0.00026000000000000003,-2.9999999999999997e-05,-4e-05,0.00014,5.9999999999999995e-05,0.00013000000000000002,2
4792,5000,0.00014,7e-05,-0.00026000000000000003,-2.9999999999999997e-05,-4e-05,0.00014,5.9999999999999995e-05,0.00013000000000000002,2
4793,5001,0.00014,7e-05,-0.00026000000000000003,-2.9999999999999997e-05,-4e-05,0.00014,5.9999999999999995e-05,0.00013000000000000002,2
4794,5002,0.00014,7e-05,-0.00026000000000000003,-2.9999999999999997e-05,-4e-05,0.00014,5.9999999999999995e-05,0.00013000000000000002,2
4795,5003,0.00014,7e-05,-0.00026000000000000003,-2.9999999999999997e-05,-4e-05,0.00014,5.9999999999999995e-05,0.00013000000000000002,2
4796,5004,0.00014,7e-05,-0.00026000000000000003,-2.9999999999999997e-05,-4e-05,0.00014,5.9999999999999995e-05,0.00013000000000000002,2
4797,5005,0.00014,7e-05,-0.00026000000000000003,-2.9999999999999997e-05,-4e-05,0.00014,5.9999999999999995e-05,0.00013000000000000002,2
4798,5006,0.00014,7e-05,-0.00026000000000000003,-2.9999999999999997e-05,-4e-05,0.00014,5.9999999999999995e-05,0.00013000000000000002,2
4799,5007,0.00014,7e-05,-0.00026000000000000003,-2.9999999999999997e-05,-4e-05,0.00014,5.9999999999999995e-05,0.00013000000000000002,2
4800,5008,0.00014,7e-05,-0.00026000000000000003,-2.9999999999999997e-05,-4e-05,0.00014,5.9999999999999995e-05,0.00013000000000000002,2
4801,5009,0.00014,7e-05,-0.00026000000000000003,-2.9999999999999997e-05,-4e-05,0.00014,5.9999999999999995e-05,0.00013000000000000002,2
4802,5010,0.00014,7e-05,-0.00026000000000000003,-2.9999999999999997e-05,-4e-05,0.00014,5.9999999999999995e-05,0.00013000000000000002,2
4803,5011,0.00014,7e-05,-0.00026000000000000003,-2.9999999999999997e-05,-4e-05,0.00014,5.9999999999999995e-05,0.00013000000000000002,2
4804,5012,0.00014,7e-05,-0.00026000000000000003,-2.9999999999999997e-05,-4e-05,0.00014,5.9999999999999995e-05,0.00013000000000000002,2
4805,5013,0.00014,7e-05,-0.00026000000000000003,-2.9999999999999997e-05,-4e-05,0.00014,5.9999999999999995e-05,0.00013000000000000002,2
4806,5014,0.00014,7e-05,-0.00026000000000000003,-2.9999999999999997e-05,-4e-05,0.00014,5.9999999999999995e-05,0.00013000000000000002,2
4807,5015,0.00014,7e-05,-0.00026000000000000003,-2.9999999999999997e-05,-4e-05,0.00014,5.9999999999999995e-05,0.00013000000000000002,2
4808,5016,0.00014,7e-05,-0.00026000000000000003,-2.9999999999999997e-05,-4e-05,0.00014,5.9999999999999995e-05,0.00013000000000000002,2
4809,5017,0.00014,7e-05,-0.00026000000000000003,-2.9999999999999997e-05,-4e-05,0.00014,5.9999999999999995e-05,0.00013000000000000002,2
4810,5018,0.00014,7e-05,-0.00026000000000000003,-2.9999999999999997e-05,-4e-05,0.00014,5.9999999999999995e-05,0.00013000000000000002,2
4811,5019,0.00014,7e-05,-0.00026000000000000003,-2.9999999999999997e-05,-4e-05,0.00014,5.9999999999999995e-05,0.00013000000000000002,2
4812,5020,0.00014,7e-05,-0.00026000000000000003,-2.9999999999999997e-05,-4e-05,0.00014,5.9999999999999995e-05,0.00013000000000000002,2
4813,5021,0.00014,7e-05,-0.00026000000000000003,-2.9999999999999997e-05,-4e-05,0.00014,5.9999999999999995e-05,0.00013000000000000002,2
4814,5022,0.00014,7e-05,-0.00026000000000000003,-2.9999999999999997e-05,-4e-05,0.00014,5.9999999999999995e-05,0.00013000000000000002,2
4815,5023,0.00014,7e-05,-0.00026000000000000003,-2.9999999999999997e-05,-4e-05,0.00014,5.9999999999999995e-05,0.00013000000000000002,2
4816,5024,0.00014,7e-05,-0.00026000000000000003,-2.9999999999999997e-05,-4e-05,0.00014,5.9999999999999995e-05,0.00013000000000000002,2
4817,5025,0.00014,7e-05,-0.00026000000000000003,-2.9999999999999997e-05,-4e-05,0.00014,5.9999999999999995e-05,0.00013000000000000002,2
4818,5026,0.00014,7e-05,-0.00026000000000000003,-2.9999999999999997e-05,-4e-05,0.00014,5.9999999999999995e-05,0.00013000000000000002,2
4819,5027,0.00014,7e-05,-0.00026000000000000003,-2.9999999999999997e-05,-4e-05,0.00014,5.9999999999999995e-05,0.00013000000000000002,2
4820,5028,0.00014,7e-05,-0.00026000000000000003,-2.9999999999999997e-05,-4e-05,0.00014,5.9999999999999995e-05,0.00013000000000000002,2
4821,5029,0.00014,7e-05,-0.00026000000000000003,-2.9999999999999997e-05,-4e-05,0.00014,5.9999999999999995e-05,0.00013000000000000002,2
4822,5030,0.00014,7e-05,-0.00026000000000000003,-2.9999999999999997e-05,-4e-05,0.00014,5.9999999999999995e-05,0.00013000000000000002,2
4823,5031,0.00014,7e-05,-0.00026000000000000003,-2.9999999999999997e-05,-4e-05,0.00014,5.9999999999999995e-05,0.00013000000000000002,2
4824,5033,0.00014,7e-05,-0.00026000000000000003,-2.9999999999999997e-05,-4e-05,0.00014,5.9999999999999995e-05,0.00013000000000000002,2
4825,5034,0.00014,7e-05,-0.00026000000000000003,-2.9999999999999997e-05,-4e-05,0.00014,5.9999999999999995e-05,0.00013000000000000002,2
4826,5035,0.00014,7e-05,-0.00026000000000000003,-2.9999999999999997e-05,-4e-05,0.00014,5.9999999999999995e-05,0.00013000000000000002,2
4827,5036,0.00014,7e-05,-0.00026000000000000003,-2.9999999999999997e-05,-4e-05,0.00014,5.9999999999999995e-05,0.00013000000000000002,2
4828,5038,0.00014,7e-05,-0.00026000000000000003,-2.9999999999999997e-05,-4e-05,0.00014,5.9999999999999995e-05,0.00013000000000000002,2
4829,5039,0.00014,7e-05,-0.00026000000000000003,-2.9999999999999997e-05,-4e-05,0.00014,5.9999999999999995e-05,0.00013000000000000002,2
4830,5040,0.00014,7e-05,-0.00026000000000000003,-2.9999999999999997e-05,-4e-05,0.00014,5.9999999999999995e-05,0.00013000000000000002,2
4831,5041,0.00014,7e-05,-0.00026000000000000003,-2.9999999999999997e-05,-4e-05,0.00014,5.9999999999999995e-05,0.00013000000000000002,2
4832,5042,0.00014,7e-05,-0.00026000000000000003,-2.9999999999999997e-05,-4e-05,0.00014,5.9999999999999995e-05,0.00013000000000000002,2
4833,5043,0.00014,7e-05,-0.00026000000000000003,-2.9999999999999997e-05,-4e-05,0.00014,5.9999999999999995e-05,0.00013000000000000002,2
4834,5044,0.00014,7e-05,-0.00026000000000000003,-2.9999999999999997e-05,-4e-05,0.00014,5.9999999999999995e-05,0.00013000000000000002,2
4835,5045,-2.9999999999999997e-05,-0.00011999999999999999,-0.00011,-0.00011,5e-05,0.00013000000000000002,-1e-05,-5.9999999999999995e-05,2
4836,5046,-2.9999999999999997e-05,-0.00011999999999999999,-0.00011,-0.00011,5e-05,0.00013000000000000002,-1e-05,-5.9999999999999995e-05,2
4837,5047,-2.9999999999999997e-05,-0.00011999999999999999,-0.00011,-0.00011,5e-05,0.00013000000000000002,-1e-05,-5.9999999999999995e-05,2
4838,5048,-9e-05,-1e-05,-4e-05,-7e-05,0.0,8e-05,-2e-05,-2.9999999999999997e-05,2
4839,5049,-9e-05,-1e-05,-4e-05,-7e-05,0.0,8e-05,-2e-05,-2.9999999999999997e-05,2
4840,5050,-9e-05,-1e-05,-4e-05,-7e-05,0.0,8e-05,-2e-05,-2.9999999999999997e-05,2
4841,5051,0.00011,1e-05,0.00014,-2e-05,5e-05,-8e-05,-1e-05,-2.9999999999999997e-05,2
4842,5052,-5.9999999999999995e-05,-7e-05,-0.00022,-0.0001,-5.9999999999999995e-05,-5e-05,0.0,-0.00023999999999999998,2
4843,5053,0.00013000000000000002,0.00013000000000000002,0.00018,5e-05,-1e-05,0.00014,5.9999999999999995e-05,0.00016,2
4844,5054,0.00013000000000000002,0.00013000000000000002,0.00018,5e-05,-1e-05,0.00014,5.9999999999999995e-05,0.00016,2
4845,5055,0.00013000000000000002,0.00013000000000000002,0.00018,5e-05,-1e-05,0.00014,5.9999999999999995e-05,0.00016,2
4846,5056,0.00013000000000000002,0.00013000000000000002,0.00018,5e-05,-1e-05,0.00014,5.9999999999999995e-05,0.00016,2
4847,5057,0.00013000000000000002,0.00013000000000000002,0.00018,5e-05,-1e-05,0.00014,5.9999999999999995e-05,0.00016,2
4848,5058,0.00013000000000000002,0.00013000000000000002,0.00018,5e-05,-1e-05,0.00014,5.9999999999999995e-05,0.00016,2
4849,5059,0.00013000000000000002,0.00013000000000000002,0.00018,5e-05,-1e-05,0.00014,5.9999999999999995e-05,0.00016,2
4850,5060,0.00013000000000000002,0.00013000000000000002,0.00018,5e-05,-1e-05,0.00014,5.9999999999999995e-05,0.00016,2
4851,5061,0.00013000000000000002,0.00013000000000000002,0.00018,5e-05,-1e-05,0.00014,5.9999999999999995e-05,0.00016,2
4852,5062,0.00013000000000000002,0.00013000000000000002,0.00018,5e-05,-1e-05,0.00014,5.9999999999999995e-05,0.00016,2
4853,5063,0.00013000000000000002,0.00013000000000000002,0.00018,5e-05,-1e-05,0.00014,5.9999999999999995e-05,0.00016,2
4854,5064,0.00013000000000000002,0.00013000000000000002,0.00018,5e-05,-1e-05,0.00014,5.9999999999999995e-05,0.00016,2
4855,5065,-2e-05,-2.9999999999999997e-05,-2.9999999999999997e-05,-2.9999999999999997e-05,-2.9999999999999997e-05,2.9999999999999997e-05,-2e-05,2e-05,2
4856,5066,4e-05,-2e-05,0.00022,0.0001,-7e-05,-5e-05,-5e-05,9e-05,2
4857,5067,4e-05,-2e-05,0.00022,0.0001,-7e-05,-5e-05,-5e-05,9e-05,2
4858,5068,4e-05,-2e-05,0.00022,0.0001,-7e-05,-5e-05,-5e-05,9e-05,2
4859,5069,4e-05,-2e-05,0.00022,0.0001,-7e-05,-5e-05,-5e-05,9e-05,2
4860,5070,4e-05,-2e-05,0.00022,0.0001,-7e-05,-5e-05,-5e-05,9e-05,2
4861,5071,4e-05,-2e-05,0.00022,0.0001,-7e-05,-5e-05,-5e-05,9e-05,2
4862,5072,4e-05,-2e-05,0.00022,0.0001,-7e-05,-5e-05,-5e-05,9e-05,2
4863,5073,4e-05,-2e-05,0.00022,0.0001,-7e-05,-5e-05,-5e-05,9e-05,2
4864,5074,4e-05,-2e-05,0.00022,0.0001,-7e-05,-5e-05,-5e-05,9e-05,2
4865,5075,4e-05,-2e-05,0.00022,0.0001,-7e-05,-5e-05,-5e-05,9e-05,2
4866,5076,4e-05,-2e-05,0.00022,0.0001,-7e-05,-5e-05,-5e-05,9e-05,2
4867,5077,4e-05,-2e-05,0.00022,0.0001,-7e-05,-5e-05,-5e-05,9e-05,2
4868,5078,4e-05,-2e-05,0.00022,0.0001,-7e-05,-5e-05,-5e-05,9e-05,2
4869,5079,4e-05,-2e-05,0.00022,0.0001,-7e-05,-5e-05,-5e-05,9e-05,2
4870,5080,4e-05,-2e-05,0.00022,0.0001,-7e-05,-5e-05,-5e-05,9e-05,2
4871,5081,4e-05,-2e-05,0.00022,0.0001,-7e-05,-5e-05,-5e-05,9e-05,2
4872,5082,4e-05,-2e-05,0.00022,0.0001,-7e-05,-5e-05,-5e-05,9e-05,2
4873,5083,4e-05,-2e-05,0.00022,0.0001,-7e-05,-5e-05,-5e-05,9e-05,2
4874,5084,4e-05,-2e-05,0.00022,0.0001,-7e-05,-5e-05,-5e-05,9e-05,2
4875,5085,4e-05,-2e-05,0.00022,0.0001,-7e-05,-5e-05,-5e-05,9e-05,2
4876,5086,4e-05,-2e-05,0.00022,0.0001,-7e-05,-5e-05,-5e-05,9e-05,2
4877,5088,4e-05,-2e-05,0.00022,0.0001,-7e-05,-5e-05,-5e-05,9e-05,2
4878,5089,4e-05,-2e-05,0.00022,0.0001,-7e-05,-5e-05,-5e-05,9e-05,2
4879,5090,4e-05,-2e-05,0.00022,0.0001,-7e-05,-5e-05,-5e-05,9e-05,2
4880,5091,4e-05,-2e-05,0.00022,0.0001,-7e-05,-5e-05,-5e-05,9e-05,2
4881,5092,4e-05,-2e-05,0.00022,0.0001,-7e-05,-5e-05,-5e-05,9e-05,2
4882,5093,4e-05,-2e-05,0.00022,0.0001,-7e-05,-5e-05,-5e-05,9e-05,2
4883,5094,4e-05,-2e-05,0.00022,0.0001,-7e-05,-5e-05,-5e-05,9e-05,2
4884,5095,4e-05,-2e-05,0.00022,0.0001,-7e-05,-5e-05,-5e-05,9e-05,2
4885,5096,4e-05,-2e-05,0.00022,0.0001,-7e-05,-5e-05,-5e-05,9e-05,2
4886,5099,4e-05,-2e-05,0.00022,0.0001,-7e-05,-5e-05,-5e-05,9e-05,2
4887,5100,0.00014,0.00016,0.00022999999999999998,0.00011,-1e-05,2e-05,-1e-05,2.9999999999999997e-05,2
4888,5103,-8e-05,-4e-05,-2.9999999999999997e-05,-4e-05,-1e-05,-4e-05,-9e-05,-5.9999999999999995e-05,2
4889,5104,-0.00011999999999999999,-8e-05,0.00011999999999999999,-2.9999999999999997e-05,2.9999999999999997e-05,7e-05,8e-05,-2.9999999999999997e-05,2
4890,5105,8e-05,9e-05,9e-05,-2.9999999999999997e-05,5.9999999999999995e-05,4e-05,0.0001,0.00011999999999999999,2
4891,5106,8e-05,9e-05,9e-05,-2.9999999999999997e-05,5.9999999999999995e-05,4e-05,0.0001,0.00011999999999999999,2
4892,5107,8e-05,9e-05,9e-05,-2.9999999999999997e-05,5.9999999999999995e-05,4e-05,0.0001,0.00011999999999999999,2
4893,5108,8e-05,9e-05,9e-05,-2.9999999999999997e-05,5.9999999999999995e-05,4e-05,0.0001,0.00011999999999999999,2
4894,5109,8e-05,9e-05,9e-05,-2.9999999999999997e-05,5.9999999999999995e-05,4e-05,0.0001,0.00011999999999999999,2
4895,5110,8e-05,9e-05,9e-05,-2.9999999999999997e-05,5.9999999999999995e-05,4e-05,0.0001,0.00011999999999999999,2
4896,5111,8e-05,9e-05,9e-05,-2.9999999999999997e-05,5.9999999999999995e-05,4e-05,0.0001,0.00011999999999999999,2
4897,5112,8e-05,9e-05,9e-05,-2.9999999999999997e-05,5.9999999999999995e-05,4e-05,0.0001,0.00011999999999999999,2
4898,5113,8e-05,9e-05,9e-05,-2.9999999999999997e-05,5.9999999999999995e-05,4e-05,0.0001,0.00011999999999999999,2
4899,5114,8e-05,9e-05,9e-05,-2.9999999999999997e-05,5.9999999999999995e-05,4e-05,0.0001,0.00011999999999999999,2
4900,5115,8e-05,9e-05,9e-05,-2.9999999999999997e-05,5.9999999999999995e-05,4e-05,0.0001,0.00011999999999999999,2
4901,5116,8e-05,9e-05,9e-05,-2.9999999999999997e-05,5.9999999999999995e-05,4e-05,0.0001,0.00011999999999999999,2
4902,5117,8e-05,9e-05,9e-05,-2.9999999999999997e-05,5.9999999999999995e-05,4e-05,0.0001,0.00011999999999999999,2
4903,5118,8e-05,9e-05,9e-05,-2.9999999999999997e-05,5.9999999999999995e-05,4e-05,0.0001,0.00011999999999999999,2
4904,5119,8e-05,9e-05,9e-05,-2.9999999999999997e-05,5.9999999999999995e-05,4e-05,0.0001,0.00011999999999999999,2
4905,5120,8e-05,9e-05,9e-05,-2.9999999999999997e-05,5.9999999999999995e-05,4e-05,0.0001,0.00011999999999999999,2
4906,5121,8e-05,9e-05,9e-05,-2.9999999999999997e-05,5.9999999999999995e-05,4e-05,0.0001,0.00011999999999999999,2
4907,5122,8e-05,9e-05,9e-05,-2.9999999999999997e-05,5.9999999999999995e-05,4e-05,0.0001,0.00011999999999999999,2
4908,5123,8e-05,9e-05,9e-05,-2.9999999999999997e-05,5.9999999999999995e-05,4e-05,0.0001,0.00011999999999999999,2
4909,5124,8e-05,9e-05,9e-05,-2.9999999999999997e-05,5.9999999999999995e-05,4e-05,0.0001,0.00011999999999999999,2
4910,5125,8e-05,9e-05,9e-05,-2.9999999999999997e-05,5.9999999999999995e-05,4e-05,0.0001,0.00011999999999999999,2
4911,5126,8e-05,9e-05,9e-05,-2.9999999999999997e-05,5.9999999999999995e-05,4e-05,0.0001,0.00011999999999999999,2
4912,5127,8e-05,9e-05,9e-05,-2.9999999999999997e-05,5.9999999999999995e-05,4e-05,0.0001,0.00011999999999999999,2
4913,5128,8e-05,9e-05,9e-05,-2.9999999999999997e-05,5.9999999999999995e-05,4e-05,0.0001,0.00011999999999999999,2
4914,5129,8e-05,9e-05,9e-05,-2.9999999999999997e-05,5.9999999999999995e-05,4e-05,0.0001,0.00011999999999999999,2
4915,5130,8e-05,9e-05,9e-05,-2.9999999999999997e-05,5.9999999999999995e-05,4e-05,0.0001,0.00011999999999999999,2
4916,5131,8e-05,9e-05,9e-05,-2.9999999999999997e-05,5.9999999999999995e-05,4e-05,0.0001,0.00011999999999999999,2
4917,5132,8e-05,9e-05,9e-05,-2.9999999999999997e-05,5.9999999999999995e-05,4e-05,0.0001,0.00011999999999999999,2
4918,5133,8e-05,9e-05,9e-05,-2.9999999999999997e-05,5.9999999999999995e-05,4e-05,0.0001,0.00011999999999999999,2
4919,5134,8e-05,9e-05,9e-05,-2.9999999999999997e-05,5.9999999999999995e-05,4e-05,0.0001,0.00011999999999999999,2
4920,5135,8e-05,9e-05,9e-05,-2.9999999999999997e-05,5.9999999999999995e-05,4e-05,0.0001,0.00011999999999999999,2
4921,5136,8e-05,9e-05,9e-05,-2.9999999999999997e-05,5.9999999999999995e-05,4e-05,0.0001,0.00011999999999999999,2
4922,5138,8e-05,9e-05,9e-05,-2.9999999999999997e-05,5.9999999999999995e-05,4e-05,0.0001,0.00011999999999999999,2
4923,5139,8e-05,9e-05,9e-05,-2.9999999999999997e-05,5.9999999999999995e-05,4e-05,0.0001,0.00011999999999999999,2
4924,5140,8e-05,9e-05,9e-05,-2.9999999999999997e-05,5.9999999999999995e-05,4e-05,0.0001,0.00011999999999999999,2
4925,5141,8e-05,9e-05,9e-05,-2.9999999999999997e-05,5.9999999999999995e-05,4e-05,0.0001,0.00011999999999999999,2
4926,5142,8e-05,9e-05,9e-05,-2.9999999999999997e-05,5.9999999999999995e-05,4e-05,0.0001,0.00011999999999999999,2
4927,5143,8e-05,9e-05,9e-05,-2.9999999999999997e-05,5.9999999999999995e-05,4e-05,0.0001,0.00011999999999999999,2
4928,5144,8e-05,9e-05,9e-05,-2.9999999999999997e-05,5.9999999999999995e-05,4e-05,0.0001,0.00011999999999999999,2
4929,5145,8e-05,9e-05,9e-05,-2.9999999999999997e-05,5.9999999999999995e-05,4e-05,0.0001,0.00011999999999999999,2
4930,5146,8e-05,9e-05,9e-05,-2.9999999999999997e-05,5.9999999999999995e-05,4e-05,0.0001,0.00011999999999999999,2
4931,5147,8e-05,9e-05,9e-05,-2.9999999999999997e-05,5.9999999999999995e-05,4e-05,0.0001,0.00011999999999999999,2
4932,5148,8e-05,9e-05,9e-05,-2.9999999999999997e-05,5.9999999999999995e-05,4e-05,0.0001,0.00011999999999999999,2
4933,5149,8e-05,9e-05,9e-05,-2.9999999999999997e-05,5.9999999999999995e-05,4e-05,0.0001,0.00011999999999999999,2
4934,5150,8e-05,9e-05,9e-05,-2.9999999999999997e-05,5.9999999999999995e-05,4e-05,0.0001,0.00011999999999999999,2
4935,5151,8e-05,9e-05,9e-05,-2.9999999999999997e-05,5.9999999999999995e-05,4e-05,0.0001,0.00011999999999999999,2
4936,5152,8e-05,9e-05,9e-05,-2.9999999999999997e-05,5.9999999999999995e-05,4e-05,0.0001,0.00011999999999999999,2
4937,5153,8e-05,9e-05,9e-05,-2.9999999999999997e-05,5.9999999999999995e-05,4e-05,0.0001,0.00011999999999999999,2
4938,5154,8e-05,9e-05,9e-05,-2.9999999999999997e-05,5.9999999999999995e-05,4e-05,0.0001,0.00011999999999999999,2
4939,5155,8e-05,9e-05,9e-05,-2.9999999999999997e-05,5.9999999999999995e-05,4e-05,0.0001,0.00011999999999999999,2
4940,5156,8e-05,9e-05,9e-05,-2.9999999999999997e-05,5.9999999999999995e-05,4e-05,0.0001,0.00011999999999999999,2
4941,5157,-5e-05,-2.9999999999999997e-05,5e-05,8e-05,-2e-05,-5e-05,-0.0001,-0.00023999999999999998,2
4942,5158,7e-05,7e-05,0.0,-0.00013000000000000002,-2e-05,-0.0001,0.0,0.0001,2
4943,5159,7e-05,7e-05,0.0,-0.00013000000000000002,-2e-05,-0.0001,0.0,0.0001,2
4944,5160,0.0,0.0,9e-05,0.00011,5e-05,9e-05,2e-05,2.9999999999999997e-05,2
4945,5161,0.0,0.0,9e-05,0.00011,5e-05,9e-05,2e-05,2.9999999999999997e-05,2
4946,5162,0.0,0.0,9e-05,0.00011,5e-05,9e-05,2e-05,2.9999999999999997e-05,2
4947,5163,0.0,0.0,9e-05,0.00011,5e-05,9e-05,2e-05,2.9999999999999997e-05,2
4948,5164,-2.9999999999999997e-05,0.0,-1e-05,2e-05,0.0,0.00021,0.0001,9e-05,2
4949,5165,-2.9999999999999997e-05,0.0,-1e-05,2e-05,0.0,0.00021,0.0001,9e-05,2
4950,5166,-1e-05,0.0,0.00011,5.9999999999999995e-05,2e-05,-0.00014,-2e-05,-2.9999999999999997e-05,2
4951,5167,-9e-05,-2e-05,0.00027,0.00015,-1e-05,-0.00022,4e-05,0.00018,2
4952,5168,-9e-05,-2e-05,0.00027,0.00015,-1e-05,-0.00022,4e-05,0.00018,2
4953,5169,-9e-05,-2e-05,0.00027,0.00015,-1e-05,-0.00022,4e-05,0.00018,2
4954,5170,-9e-05,-2e-05,0.00027,0.00015,-1e-05,-0.00022,4e-05,0.00018,2
4955,5171,-9e-05,-2e-05,0.00027,0.00015,-1e-05,-0.00022,4e-05,0.00018,2
4956,5172,-9e-05,-2e-05,0.00027,0.00015,-1e-05,-0.00022,4e-05,0.00018,2
4957,5173,-9e-05,-2e-05,0.00027,0.00015,-1e-05,-0.00022,4e-05,0.00018,2
4958,5174,-9e-05,-2e-05,0.00027,0.00015,-1e-05,-0.00022,4e-05,0.00018,2
4959,5175,-9e-05,-2e-05,0.00027,0.00015,-1e-05,-0.00022,4e-05,0.00018,2
4960,5176,-9e-05,-2e-05,0.00027,0.00015,-1e-05,-0.00022,4e-05,0.00018,2
4961,5177,-9e-05,-2e-05,0.00027,0.00015,-1e-05,-0.00022,4e-05,0.00018,2
4962,5178,-9e-05,-2e-05,0.00027,0.00015,-1e-05,-0.00022,4e-05,0.00018,2
4963,5179,-9e-05,-2e-05,0.00027,0.00015,-1e-05,-0.00022,4e-05,0.00018,2
4964,5180,-9e-05,-2e-05,0.00027,0.00015,-1e-05,-0.00022,4e-05,0.00018,2
4965,5181,-9e-05,-2e-05,0.00027,0.00015,-1e-05,-0.00022,4e-05,0.00018,2
4966,5182,-9e-05,-2e-05,0.00027,0.00015,-1e-05,-0.00022,4e-05,0.00018,2
4967,5183,-9e-05,-2e-05,0.00027,0.00015,-1e-05,-0.00022,4e-05,0.00018,2
4968,5184,-9e-05,-2e-05,0.00027,0.00015,-1e-05,-0.00022,4e-05,0.00018,2
4969,5185,-9e-05,-2e-05,0.00027,0.00015,-1e-05,-0.00022,4e-05,0.00018,2
4970,5186,-9e-05,-2e-05,0.00027,0.00015,-1e-05,-0.00022,4e-05,0.00018,2
4971,5188,-9e-05,-2e-05,0.00027,0.00015,-1e-05,-0.00022,4e-05,0.00018,2
4972,5189,-9e-05,-2e-05,0.00027,0.00015,-1e-05,-0.00022,4e-05,0.00018,2
4973,5190,-9e-05,-2e-05,0.00027,0.00015,-1e-05,-0.00022,4e-05,0.00018,2
4974,5191,-9e-05,-2e-05,0.00027,0.00015,-1e-05,-0.00022,4e-05,0.00018,2
4975,5192,-9e-05,-2e-05,0.00027,0.00015,-1e-05,-0.00022,4e-05,0.00018,2
4976,5193,-9e-05,-2e-05,0.00027,0.00015,-1e-05,-0.00022,4e-05,0.00018,2
4977,5194,-9e-05,-2e-05,0.00027,0.00015,-1e-05,-0.00022,4e-05,0.00018,2
4978,5195,-9e-05,-2e-05,0.00027,0.00015,-1e-05,-0.00022,4e-05,0.00018,2
4979,5196,-9e-05,-2e-05,0.00027,0.00015,-1e-05,-0.00022,4e-05,0.00018,2
4980,5197,-9e-05,-2e-05,0.00027,0.00015,-1e-05,-0.00022,4e-05,0.00018,2
4981,5198,-9e-05,-2e-05,0.00027,0.00015,-1e-05,-0.00022,4e-05,0.00018,2
4982,5199,-9e-05,-2e-05,0.00027,0.00015,-1e-05,-0.00022,4e-05,0.00018,2
4983,5200,-9e-05,-2e-05,0.00027,0.00015,-1e-05,-0.00022,4e-05,0.00018,2
4984,5201,-9e-05,-2e-05,0.00027,0.00015,-1e-05,-0.00022,4e-05,0.00018,2
4985,5202,-9e-05,-2e-05,0.00027,0.00015,-1e-05,-0.00022,4e-05,0.00018,2
4986,5203,-9e-05,-2e-05,0.00027,0.00015,-1e-05,-0.00022,4e-05,0.00018,2
4987,5204,-9e-05,-2e-05,0.00027,0.00015,-1e-05,-0.00022,4e-05,0.00018,2
4988,5205,-9e-05,-2e-05,0.00027,0.00015,-1e-05,-0.00022,4e-05,0.00018,2
4989,5206,-9e-05,-2e-05,0.00027,0.00015,-1e-05,-0.00022,4e-05,0.00018,2
4990,5207,-2.9999999999999997e-05,-2.9999999999999997e-05,2e-05,2.9999999999999997e-05,-2e-05,-4e-05,-1e-05,-9e-05,2
4991,5208,-2.9999999999999997e-05,-2.9999999999999997e-05,2e-05,2.9999999999999997e-05,-2e-05,-4e-05,-1e-05,-9e-05,2
4992,5209,-2.9999999999999997e-05,-2.9999999999999997e-05,2e-05,2.9999999999999997e-05,-2e-05,-4e-05,-1e-05,-9e-05,2
4993,5210,-2.9999999999999997e-05,-2.9999999999999997e-05,2e-05,2.9999999999999997e-05,-2e-05,-4e-05,-1e-05,-9e-05,2
4994,5211,-2.9999999999999997e-05,-2.9999999999999997e-05,2e-05,2.9999999999999997e-05,-2e-05,-4e-05,-1e-05,-9e-05,2
4995,5212,-2.9999999999999997e-05,-2.9999999999999997e-05,2e-05,2.9999999999999997e-05,-2e-05,-4e-05,-1e-05,-9e-05,2
4996,5213,-2.9999999999999997e-05,-2.9999999999999997e-05,2e-05,2.9999999999999997e-05,-2e-05,-4e-05,-1e-05,-9e-05,2
4997,5214,-2.9999999999999997e-05,-2.9999999999999997e-05,2e-05,2.9999999999999997e-05,-2e-05,-4e-05,-1e-05,-9e-05,2
4998,5215,-2.9999999999999997e-05,-2.9999999999999997e-05,2e-05,2.9999999999999997e-05,-2e-05,-4e-05,-1e-05,-9e-05,2
4999,5216,-2.9999999999999997e-05,-2.9999999999999997e-05,2e-05,2.9999999999999997e-05,-2e-05,-4e-05,-1e-05,-9e-05,2
5000,5217,-2e-05,-1e-05,7e-05,-1e-05,4e-05,-7e-05,2.9999999999999997e-05,-8e-05,2
5001,5218,-2e-05,-1e-05,7e-05,-1e-05,4e-05,-7e-05,2.9999999999999997e-05,-8e-05,2
5002,5219,-0.00015,-0.00014,-0.00013000000000000002,-5.9999999999999995e-05,-7e-05,-2.9999999999999997e-05,-2.9999999999999997e-05,-2.9999999999999997e-05,2
5003,5220,-0.00015,-0.00014,-0.00013000000000000002,-5.9999999999999995e-05,-7e-05,-2.9999999999999997e-05,-2.9999999999999997e-05,-2.9999999999999997e-05,2
5004,5221,-0.00015,-0.00014,-0.00013000000000000002,-5.9999999999999995e-05,-7e-05,-2.9999999999999997e-05,-2.9999999999999997e-05,-2.9999999999999997e-05,2
5005,5222,-0.00015,-0.00014,-0.00013000000000000002,-5.9999999999999995e-05,-7e-05,-2.9999999999999997e-05,-2.9999999999999997e-05,-2.9999999999999997e-05,2
5006,5223,-0.00015,-0.00014,-0.00013000000000000002,-5.9999999999999995e-05,-7e-05,-2.9999999999999997e-05,-2.9999999999999997e-05,-2.9999999999999997e-05,2
5007,5224,8e-05,0.00011,2.9999999999999997e-05,0.00015,4e-05,-7e-05,-9e-05,4e-05,2
5008,5225,-2e-05,1e-05,-0.00014,-5e-05,-2e-05,-0.00011,-7e-05,-5e-05,2
5009,5226,-2e-05,1e-05,-0.00014,-5e-05,-2e-05,-0.00011,-7e-05,-5e-05,2
5010,5227,-2e-05,1e-05,-0.00014,-5e-05,-2e-05,-0.00011,-7e-05,-5e-05,2
5011,5228,-2e-05,1e-05,-0.00014,-5e-05,-2e-05,-0.00011,-7e-05,-5e-05,2
5012,5229,-2e-05,1e-05,-0.00014,-5e-05,-2e-05,-0.00011,-7e-05,-5e-05,2
5013,5230,-2e-05,1e-05,-0.00014,-5e-05,-2e-05,-0.00011,-7e-05,-5e-05,2
5014,5231,-2e-05,1e-05,-0.00014,-5e-05,-2e-05,-0.00011,-7e-05,-5e-05,2
5015,5232,-2e-05,1e-05,-0.00014,-5e-05,-2e-05,-0.00011,-7e-05,-5e-05,2
5016,5233,-2e-05,1e-05,-0.00014,-5e-05,-2e-05,-0.00011,-7e-05,-5e-05,2
5017,5234,-2e-05,1e-05,-0.00014,-5e-05,-2e-05,-0.00011,-7e-05,-5e-05,2
5018,5235,-2e-05,1e-05,-0.00014,-5e-05,-2e-05,-0.00011,-7e-05,-5e-05,2
5019,5236,-2e-05,1e-05,-0.00014,-5e-05,-2e-05,-0.00011,-7e-05,-5e-05,2
5020,5239,-2e-05,1e-05,-0.00014,-5e-05,-2e-05,-0.00011,-7e-05,-5e-05,2
5021,5240,-2e-05,1e-05,-0.00014,-5e-05,-2e-05,-0.00011,-7e-05,-5e-05,2
5022,5241,-2e-05,1e-05,-0.00014,-5e-05,-2e-05,-0.00011,-7e-05,-5e-05,2
5023,5242,-2e-05,1e-05,-0.00014,-5e-05,-2e-05,-0.00011,-7e-05,-5e-05,2
5024,5243,-2e-05,1e-05,-0.00014,-5e-05,-2e-05,-0.00011,-7e-05,-5e-05,2
5025,5244,-2e-05,1e-05,-0.00014,-5e-05,-2e-05,-0.00011,-7e-05,-5e-05,2
5026,5245,-2e-05,1e-05,-0.00014,-5e-05,-2e-05,-0.00011,-7e-05,-5e-05,2
5027,5246,-2e-05,1e-05,-0.00014,-5e-05,-2e-05,-0.00011,-7e-05,-5e-05,2
5028,5247,-2e-05,1e-05,-0.00014,-5e-05,-2e-05,-0.00011,-7e-05,-5e-05,2
5029,5248,-2e-05,1e-05,-0.00014,-5e-05,-2e-05,-0.00011,-7e-05,-5e-05,2
5030,5249,-2e-05,1e-05,-0.00014,-5e-05,-2e-05,-0.00011,-7e-05,-5e-05,2
5031,5250,-2e-05,1e-05,-0.00014,-5e-05,-2e-05,-0.00011,-7e-05,-5e-05,2
5032,5251,-2e-05,1e-05,-0.00014,-5e-05,-2e-05,-0.00011,-7e-05,-5e-05,2
5033,5252,-2e-05,1e-05,-0.00014,-5e-05,-2e-05,-0.00011,-7e-05,-5e-05,2
5034,5253,-2e-05,1e-05,-0.00014,-5e-05,-2e-05,-0.00011,-7e-05,-5e-05,2
5035,5254,-2e-05,1e-05,-0.00014,-5e-05,-2e-05,-0.00011,-7e-05,-5e-05,2
5036,5255,-2e-05,1e-05,-0.00014,-5e-05,-2e-05,-0.00011,-7e-05,-5e-05,2
5037,5256,-2e-05,1e-05,-0.00014,-5e-05,-2e-05,-0.00011,-7e-05,-5e-05,2
5038,5257,-2e-05,1e-05,-0.00014,-5e-05,-2e-05,-0.00011,-7e-05,-5e-05,2
5039,5258,-2e-05,1e-05,-0.00014,-5e-05,-2e-05,-0.00011,-7e-05,-5e-05,2
5040,5259,-2e-05,1e-05,-0.00014,-5e-05,-2e-05,-0.00011,-7e-05,-5e-05,2
5041,5260,-2e-05,1e-05,-0.00014,-5e-05,-2e-05,-0.00011,-7e-05,-5e-05,2
5042,5261,-2e-05,1e-05,-0.00014,-5e-05,-2e-05,-0.00011,-7e-05,-5e-05,2
5043,5263,-2e-05,1e-05,-0.00014,-5e-05,-2e-05,-0.00011,-7e-05,-5e-05,2
5044,5264,-2e-05,1e-05,-0.00014,-5e-05,-2e-05,-0.00011,-7e-05,-5e-05,2
5045,5265,-2e-05,1e-05,-0.00014,-5e-05,-2e-05,-0.00011,-7e-05,-5e-05,2
5046,5266,-2e-05,1e-05,-0.00014,-5e-05,-2e-05,-0.00011,-7e-05,-5e-05,2
5047,5267,-2e-05,1e-05,-0.00014,-5e-05,-2e-05,-0.00011,-7e-05,-5e-05,2
5048,5268,-2e-05,1e-05,-0.00014,-5e-05,-2e-05,-0.00011,-7e-05,-5e-05,2
5049,5269,-0.00018,-2e-05,0.00016999999999999999,0.00011,-5e-05,-4e-05,-5e-05,-0.00013000000000000002,2
5050,5270,2e-05,-1e-05,7e-05,4e-05,2e-05,0.00018,2.9999999999999997e-05,-0.00014,2
5051,5271,2e-05,-1e-05,7e-05,4e-05,2e-05,0.00018,2.9999999999999997e-05,-0.00014,2
5052,5272,-2.9999999999999997e-05,0.0,-4e-05,-5.9999999999999995e-05,2e-05,0.0,-2e-05,-1e-05,2
5053,5273,-2.9999999999999997e-05,0.0,-4e-05,-5.9999999999999995e-05,2e-05,0.0,-2e-05,-1e-05,2
5054,5274,-2.9999999999999997e-05,0.0,-4e-05,-5.9999999999999995e-05,2e-05,0.0,-2e-05,-1e-05,2
5055,5275,1e-05,4e-05,-0.00011,-0.00016,-5e-05,2e-05,4e-05,-2.9999999999999997e-05,2
5056,5276,1e-05,4e-05,-0.00011,-0.00016,-5e-05,2e-05,4e-05,-2.9999999999999997e-05,2
5057,5277,1e-05,4e-05,-0.00011,-0.00016,-5e-05,2e-05,4e-05,-2.9999999999999997e-05,2
5058,5278,1e-05,4e-05,-0.00011,-0.00016,-5e-05,2e-05,4e-05,-2.9999999999999997e-05,2
5059,5279,1e-05,4e-05,-0.00011,-0.00016,-5e-05,2e-05,4e-05,-2.9999999999999997e-05,2
5060,5280,1e-05,4e-05,-0.00011,-0.00016,-5e-05,2e-05,4e-05,-2.9999999999999997e-05,2
5061,5281,1e-05,4e-05,-0.00011,-0.00016,-5e-05,2e-05,4e-05,-2.9999999999999997e-05,2
5062,5282,1e-05,4e-05,-0.00011,-0.00016,-5e-05,2e-05,4e-05,-2.9999999999999997e-05,2
5063,5283,1e-05,4e-05,-0.00011,-0.00016,-5e-05,2e-05,4e-05,-2.9999999999999997e-05,2
5064,5284,1e-05,4e-05,-0.00011,-0.00016,-5e-05,2e-05,4e-05,-2.9999999999999997e-05,2
5065,5285,1e-05,4e-05,-0.00011,-0.00016,-5e-05,2e-05,4e-05,-2.9999999999999997e-05,2
5066,5286,1e-05,4e-05,-0.00011,-0.00016,-5e-05,2e-05,4e-05,-2.9999999999999997e-05,2
5067,5288,1e-05,4e-05,-0.00011,-0.00016,-5e-05,2e-05,4e-05,-2.9999999999999997e-05,2
5068,5289,1e-05,4e-05,-0.00011,-0.00016,-5e-05,2e-05,4e-05,-2.9999999999999997e-05,2
5069,5290,1e-05,4e-05,-0.00011,-0.00016,-5e-05,2e-05,4e-05,-2.9999999999999997e-05,2
5070,5291,1e-05,4e-05,-0.00011,-0.00016,-5e-05,2e-05,4e-05,-2.9999999999999997e-05,2
5071,5292,1e-05,4e-05,-0.00011,-0.00016,-5e-05,2e-05,4e-05,-2.9999999999999997e-05,2
5072,5293,1e-05,4e-05,-0.00011,-0.00016,-5e-05,2e-05,4e-05,-2.9999999999999997e-05,2
5073,5294,1e-05,4e-05,-0.00011,-0.00016,-5e-05,2e-05,4e-05,-2.9999999999999997e-05,2
5074,5295,1e-05,4e-05,-0.00011,-0.00016,-5e-05,2e-05,4e-05,-2.9999999999999997e-05,2
5075,5296,1e-05,4e-05,-0.00011,-0.00016,-5e-05,2e-05,4e-05,-2.9999999999999997e-05,2
5076,5297,1e-05,4e-05,-0.00011,-0.00016,-5e-05,2e-05,4e-05,-2.9999999999999997e-05,2
5077,5298,1e-05,4e-05,-0.00011,-0.00016,-5e-05,2e-05,4e-05,-2.9999999999999997e-05,2
5078,5299,1e-05,4e-05,-0.00011,-0.00016,-5e-05,2e-05,4e-05,-2.9999999999999997e-05,2
5079,5300,1e-05,4e-05,-0.00011,-0.00016,-5e-05,2e-05,4e-05,-2.9999999999999997e-05,2
5080,5301,1e-05,4e-05,-0.00011,-0.00016,-5e-05,2e-05,4e-05,-2.9999999999999997e-05,2
5081,5302,1e-05,4e-05,-0.00011,-0.00016,-5e-05,2e-05,4e-05,-2.9999999999999997e-05,2
5082,5303,1e-05,4e-05,-0.00011,-0.00016,-5e-05,2e-05,4e-05,-2.9999999999999997e-05,2
5083,5304,1e-05,4e-05,-0.00011,-0.00016,-5e-05,2e-05,4e-05,-2.9999999999999997e-05,2
5084,5305,1e-05,4e-05,-0.00011,-0.00016,-5e-05,2e-05,4e-05,-2.9999999999999997e-05,2
5085,5306,1e-05,4e-05,-0.00011,-0.00016,-5e-05,2e-05,4e-05,-2.9999999999999997e-05,2
5086,5307,1e-05,4e-05,-0.00011,-0.00016,-5e-05,2e-05,4e-05,-2.9999999999999997e-05,2
5087,5308,1e-05,4e-05,-0.00011,-0.00016,-5e-05,2e-05,4e-05,-2.9999999999999997e-05,2
5088,5309,1e-05,4e-05,-0.00011,-0.00016,-5e-05,2e-05,4e-05,-2.9999999999999997e-05,2
5089,5310,1e-05,4e-05,-0.00011,-0.00016,-5e-05,2e-05,4e-05,-2.9999999999999997e-05,2
5090,5311,1e-05,4e-05,-0.00011,-0.00016,-5e-05,2e-05,4e-05,-2.9999999999999997e-05,2
5091,5312,1e-05,4e-05,-0.00011,-0.00016,-5e-05,2e-05,4e-05,-2.9999999999999997e-05,2
5092,5313,0.00022,8e-05,2e-05,0.0001,0.0,0.00023999999999999998,-2.9999999999999997e-05,2e-05,2
5093,5314,0.00022,8e-05,2e-05,0.0001,0.0,0.00023999999999999998,-2.9999999999999997e-05,2e-05,2
5094,5315,0.00022,8e-05,2e-05,0.0001,0.0,0.00023999999999999998,-2.9999999999999997e-05,2e-05,2
5095,5316,0.00022,8e-05,2e-05,0.0001,0.0,0.00023999999999999998,-2.9999999999999997e-05,2e-05,2
5096,5317,0.00022,8e-05,2e-05,0.0001,0.0,0.00023999999999999998,-2.9999999999999997e-05,2e-05,2
5097,5318,0.00022,8e-05,2e-05,0.0001,0.0,0.00023999999999999998,-2.9999999999999997e-05,2e-05,2
5098,5319,0.00022,8e-05,2e-05,0.0001,0.0,0.00023999999999999998,-2.9999999999999997e-05,2e-05,2
5099,5320,0.00022,8e-05,2e-05,0.0001,0.0,0.00023999999999999998,-2.9999999999999997e-05,2e-05,2
5100,5321,0.00022,8e-05,2e-05,0.0001,0.0,0.00023999999999999998,-2.9999999999999997e-05,2e-05,2
5101,5322,0.0,0.00011999999999999999,0.00023999999999999998,0.00011999999999999999,4e-05,-8e-05,-2e-05,-7e-05,2
5102,5323,0.0,0.00011999999999999999,0.00023999999999999998,0.00011999999999999999,4e-05,-8e-05,-2e-05,-7e-05,2
5103,5324,0.0001,2e-05,-2.9999999999999997e-05,0.0,-5e-05,0.00021,-2e-05,1e-05,2
5104,5325,0.0001,2e-05,-2.9999999999999997e-05,0.0,-5e-05,0.00021,-2e-05,1e-05,2
5105,5326,0.0001,2e-05,-2.9999999999999997e-05,0.0,-5e-05,0.00021,-2e-05,1e-05,2
5106,5327,0.0001,2e-05,-2.9999999999999997e-05,0.0,-5e-05,0.00021,-2e-05,1e-05,2
5107,5328,0.0001,2e-05,-2.9999999999999997e-05,0.0,-5e-05,0.00021,-2e-05,1e-05,2
5108,5329,-4e-05,-7e-05,-0.00015,-0.00016,4e-05,0.0,5e-05,0.00011999999999999999,2
5109,5330,-9e-05,-0.00015,-0.00028,-9e-05,-5e-05,-0.00025,1e-05,-7e-05,2
5110,5331,-9e-05,-0.00015,-0.00028,-9e-05,-5e-05,-0.00025,1e-05,-7e-05,2
5111,5332,-9e-05,-0.00015,-0.00028,-9e-05,-5e-05,-0.00025,1e-05,-7e-05,2
5112,5333,-9e-05,-0.00015,-0.00028,-9e-05,-5e-05,-0.00025,1e-05,-7e-05,2
5113,5334,-9e-05,-0.00015,-0.00028,-9e-05,-5e-05,-0.00025,1e-05,-7e-05,2
5114,5335,-9e-05,-0.00015,-0.00028,-9e-05,-5e-05,-0.00025,1e-05,-7e-05,2
5115,5336,-9e-05,-0.00015,-0.00028,-9e-05,-5e-05,-0.00025,1e-05,-7e-05,2
5116,5338,-9e-05,-0.00015,-0.00028,-9e-05,-5e-05,-0.00025,1e-05,-7e-05,2
5117,5339,-9e-05,-0.00015,-0.00028,-9e-05,-5e-05,-0.00025,1e-05,-7e-05,2
5118,5340,-9e-05,-0.00015,-0.00028,-9e-05,-5e-05,-0.00025,1e-05,-7e-05,2
5119,5341,-9e-05,-0.00015,-0.00028,-9e-05,-5e-05,-0.00025,1e-05,-7e-05,2
5120,5342,-9e-05,-0.00015,-0.00028,-9e-05,-5e-05,-0.00025,1e-05,-7e-05,2
5121,5343,-9e-05,-0.00015,-0.00028,-9e-05,-5e-05,-0.00025,1e-05,-7e-05,2
5122,5344,-9e-05,-0.00015,-0.00028,-9e-05,-5e-05,-0.00025,1e-05,-7e-05,2
5123,5345,-9e-05,-0.00015,-0.00028,-9e-05,-5e-05,-0.00025,1e-05,-7e-05,2
5124,5346,-9e-05,-0.00015,-0.00028,-9e-05,-5e-05,-0.00025,1e-05,-7e-05,2
5125,5347,-9e-05,-0.00015,-0.00028,-9e-05,-5e-05,-0.00025,1e-05,-7e-05,2
5126,5348,-9e-05,-0.00015,-0.00028,-9e-05,-5e-05,-0.00025,1e-05,-7e-05,2
5127,5349,-9e-05,-0.00015,-0.00028,-9e-05,-5e-05,-0.00025,1e-05,-7e-05,2
5128,5350,-9e-05,-0.00015,-0.00028,-9e-05,-5e-05,-0.00025,1e-05,-7e-05,2
5129,5351,-9e-05,-0.00015,-0.00028,-9e-05,-5e-05,-0.00025,1e-05,-7e-05,2
5130,5352,-9e-05,-0.00015,-0.00028,-9e-05,-5e-05,-0.00025,1e-05,-7e-05,2
5131,5353,-9e-05,-0.00015,-0.00028,-9e-05,-5e-05,-0.00025,1e-05,-7e-05,2
5132,5354,-9e-05,-0.00015,-0.00028,-9e-05,-5e-05,-0.00025,1e-05,-7e-05,2
5133,5355,-9e-05,-0.00015,-0.00028,-9e-05,-5e-05,-0.00025,1e-05,-7e-05,2
5134,5356,-9e-05,-0.00015,-0.00028,-9e-05,-5e-05,-0.00025,1e-05,-7e-05,2
5135,5357,-9e-05,-0.00015,-0.00028,-9e-05,-5e-05,-0.00025,1e-05,-7e-05,2
5136,5358,-9e-05,-0.00015,-0.00028,-9e-05,-5e-05,-0.00025,1e-05,-7e-05,2
5137,5359,-9e-05,-0.00015,-0.00028,-9e-05,-5e-05,-0.00025,1e-05,-7e-05,2
5138,5360,-9e-05,-0.00015,-0.00028,-9e-05,-5e-05,-0.00025,1e-05,-7e-05,2
5139,5361,-9e-05,-0.00015,-0.00028,-9e-05,-5e-05,-0.00025,1e-05,-7e-05,2
5140,5362,-9e-05,-0.00015,-0.00028,-9e-05,-5e-05,-0.00025,1e-05,-7e-05,2
5141,5363,-9e-05,-0.00015,-0.00028,-9e-05,-5e-05,-0.00025,1e-05,-7e-05,2
5142,5364,-9e-05,-0.00015,-0.00028,-9e-05,-5e-05,-0.00025,1e-05,-7e-05,2
5143,5365,-9e-05,-0.00015,-0.00028,-9e-05,-5e-05,-0.00025,1e-05,-7e-05,2
5144,5366,-9e-05,-0.00015,-0.00028,-9e-05,-5e-05,-0.00025,1e-05,-7e-05,2
5145,5367,-9e-05,-0.00015,-0.00028,-9e-05,-5e-05,-0.00025,1e-05,-7e-05,2
5146,5368,-9e-05,-0.00015,-0.00028,-9e-05,-5e-05,-0.00025,1e-05,-7e-05,2
5147,5369,-9e-05,-0.00015,-0.00028,-9e-05,-5e-05,-0.00025,1e-05,-7e-05,2
5148,5370,-9e-05,-0.00015,-0.00028,-9e-05,-5e-05,-0.00025,1e-05,-7e-05,2
5149,5371,-9e-05,-0.00015,-0.00028,-9e-05,-5e-05,-0.00025,1e-05,-7e-05,2
5150,5372,-9e-05,-0.00015,-0.00028,-9e-05,-5e-05,-0.00025,1e-05,-7e-05,2
5151,5373,7e-05,0.00015,0.00022,0.00014,1e-05,-4e-05,-0.00011999999999999999,-4e-05,2
5152,5374,-2.9999999999999997e-05,-1e-05,0.0,-9e-05,2e-05,-2e-05,-5e-05,5e-05,2
5153,5375,-2.9999999999999997e-05,-1e-05,0.0,-9e-05,2e-05,-2e-05,-5e-05,5e-05,2
5154,5376,-2.9999999999999997e-05,-1e-05,0.0,-9e-05,2e-05,-2e-05,-5e-05,5e-05,2
5155,5377,-2.9999999999999997e-05,-1e-05,0.0,-9e-05,2e-05,-2e-05,-5e-05,5e-05,2
5156,5378,-2.9999999999999997e-05,-1e-05,0.0,-9e-05,2e-05,-2e-05,-5e-05,5e-05,2
5157,5379,-2.9999999999999997e-05,-1e-05,0.0,-9e-05,2e-05,-2e-05,-5e-05,5e-05,2
5158,5380,-2.9999999999999997e-05,-1e-05,0.0,-9e-05,2e-05,-2e-05,-5e-05,5e-05,2
5159,5381,-2.9999999999999997e-05,-1e-05,0.0,-9e-05,2e-05,-2e-05,-5e-05,5e-05,2
5160,5382,-0.00011999999999999999,-9e-05,-0.00015,-1e-05,-1e-05,-7e-05,-2e-05,-9e-05,2
5161,5383,0.0001,0.00011,0.0,5e-05,1e-05,2e-05,-4e-05,5.9999999999999995e-05,2
5162,5384,0.0001,0.00011,0.0,5e-05,1e-05,2e-05,-4e-05,5.9999999999999995e-05,2
5163,5385,0.0001,0.00011,0.0,5e-05,1e-05,2e-05,-4e-05,5.9999999999999995e-05,2
5164,5386,0.0001,0.00011,0.0,5e-05,1e-05,2e-05,-4e-05,5.9999999999999995e-05,2
5165,5388,-0.0003,-2.9999999999999997e-05,7e-05,-0.00011,-5e-05,-0.00011,-5.9999999999999995e-05,-1e-05,2
5166,5389,0.0001,8e-05,0.00016999999999999999,0.00011,1e-05,0.00015,-4e-05,0.0001,2
5167,5390,0.0001,8e-05,0.00016999999999999999,0.00011,1e-05,0.00015,-4e-05,0.0001,2
5168,5391,0.0001,8e-05,0.00016999999999999999,0.00011,1e-05,0.00015,-4e-05,0.0001,2
5169,5392,0.0001,8e-05,0.00016999999999999999,0.00011,1e-05,0.00015,-4e-05,0.0001,2
5170,5393,0.0001,8e-05,0.00016999999999999999,0.00011,1e-05,0.00015,-4e-05,0.0001,2
5171,5394,0.0001,8e-05,0.00016999999999999999,0.00011,1e-05,0.00015,-4e-05,0.0001,2
5172,5395,0.0001,8e-05,0.00016999999999999999,0.00011,1e-05,0.00015,-4e-05,0.0001,2
5173,5396,0.0001,8e-05,0.00016999999999999999,0.00011,1e-05,0.00015,-4e-05,0.0001,2
5174,5397,0.0001,8e-05,0.00016999999999999999,0.00011,1e-05,0.00015,-4e-05,0.0001,2
5175,5398,0.0001,8e-05,0.00016999999999999999,0.00011,1e-05,0.00015,-4e-05,0.0001,2
5176,5399,0.0001,8e-05,0.00016999999999999999,0.00011,1e-05,0.00015,-4e-05,0.0001,2
5177,5400,0.0001,8e-05,0.00016999999999999999,0.00011,1e-05,0.00015,-4e-05,0.0001,2
5178,5401,0.0001,8e-05,0.00016999999999999999,0.00011,1e-05,0.00015,-4e-05,0.0001,2
5179,5402,0.0001,8e-05,0.00016999999999999999,0.00011,1e-05,0.00015,-4e-05,0.0001,2
5180,5403,0.0001,8e-05,0.00016999999999999999,0.00011,1e-05,0.00015,-4e-05,0.0001,2
5181,5404,0.0001,8e-05,0.00016999999999999999,0.00011,1e-05,0.00015,-4e-05,0.0001,2
5182,5405,0.0001,8e-05,0.00016999999999999999,0.00011,1e-05,0.00015,-4e-05,0.0001,2
5183,5406,0.0001,8e-05,0.00016999999999999999,0.00011,1e-05,0.00015,-4e-05,0.0001,2
5184,5407,0.0001,8e-05,0.00016999999999999999,0.00011,1e-05,0.00015,-4e-05,0.0001,2
5185,5408,0.0001,8e-05,0.00016999999999999999,0.00011,1e-05,0.00015,-4e-05,0.0001,2
5186,5409,0.0001,8e-05,0.00016999999999999999,0.00011,1e-05,0.00015,-4e-05,0.0001,2
5187,5410,0.0001,8e-05,0.00016999999999999999,0.00011,1e-05,0.00015,-4e-05,0.0001,2
5188,5411,0.0001,8e-05,0.00016999999999999999,0.00011,1e-05,0.00015,-4e-05,0.0001,2
5189,5412,0.0001,8e-05,0.00016999999999999999,0.00011,1e-05,0.00015,-4e-05,0.0001,2
5190,5413,0.0001,8e-05,0.00016999999999999999,0.00011,1e-05,0.00015,-4e-05,0.0001,2
5191,5414,0.0001,8e-05,0.00016999999999999999,0.00011,1e-05,0.00015,-4e-05,0.0001,2
5192,5415,0.0001,8e-05,0.00016999999999999999,0.00011,1e-05,0.00015,-4e-05,0.0001,2
5193,5416,0.0001,8e-05,0.00016999999999999999,0.00011,1e-05,0.00015,-4e-05,0.0001,2
5194,5417,0.0001,8e-05,0.00016999999999999999,0.00011,1e-05,0.00015,-4e-05,0.0001,2
5195,5418,0.0001,8e-05,0.00016999999999999999,0.00011,1e-05,0.00015,-4e-05,0.0001,2
5196,5419,0.0001,8e-05,0.00016999999999999999,0.00011,1e-05,0.00015,-4e-05,0.0001,2
5197,5420,0.0001,8e-05,0.00016999999999999999,0.00011,1e-05,0.00015,-4e-05,0.0001,2
5198,5421,0.0001,8e-05,0.00016999999999999999,0.00011,1e-05,0.00015,-4e-05,0.0001,2
5199,5422,0.0001,8e-05,0.00016999999999999999,0.00011,1e-05,0.00015,-4e-05,0.0001,2
5200,5423,0.0001,8e-05,0.00016999999999999999,0.00011,1e-05,0.00015,-4e-05,0.0001,2
5201,5424,0.0001,8e-05,0.00016999999999999999,0.00011,1e-05,0.00015,-4e-05,0.0001,2
5202,5425,0.0001,8e-05,0.00016999999999999999,0.00011,1e-05,0.00015,-4e-05,0.0001,2
5203,5426,0.0001,8e-05,0.00016999999999999999,0.00011,1e-05,0.00015,-4e-05,0.0001,2
5204,5427,0.0001,8e-05,0.00016999999999999999,0.00011,1e-05,0.00015,-4e-05,0.0001,2
5205,5428,0.0001,8e-05,0.00016999999999999999,0.00011,1e-05,0.00015,-4e-05,0.0001,2
5206,5429,0.0001,8e-05,0.00016999999999999999,0.00011,1e-05,0.00015,-4e-05,0.0001,2
5207,5430,0.0001,8e-05,0.00016999999999999999,0.00011,1e-05,0.00015,-4e-05,0.0001,2
5208,5431,0.0001,8e-05,0.00016999999999999999,0.00011,1e-05,0.00015,-4e-05,0.0001,2
5209,5432,0.0001,8e-05,0.00016999999999999999,0.00011,1e-05,0.00015,-4e-05,0.0001,2
5210,5433,0.0001,8e-05,0.00016999999999999999,0.00011,1e-05,0.00015,-4e-05,0.0001,2
5211,5434,-0.0001,-4e-05,0.00011,-8e-05,-7e-05,-0.00037,-0.00013000000000000002,-0.00014,2
5212,5435,-0.00014,-0.00014,-0.00027,-0.00011,-1e-05,-8e-05,-0.00011,-0.00025,2
5213,5437,-4e-05,-5.9999999999999995e-05,-4e-05,-1e-05,-2.9999999999999997e-05,-2e-05,0.0,0.0,2
5214,5439,-4e-05,-5.9999999999999995e-05,-4e-05,-1e-05,-2.9999999999999997e-05,-2e-05,0.0,0.0,2
5215,5440,5.9999999999999995e-05,-8e-05,-0.00054,-0.00047000000000000004,1e-05,0.00028,0.00022,0.00037,2
5216,5441,5.9999999999999995e-05,-8e-05,-0.00054,-0.00047000000000000004,1e-05,0.00028,0.00022,0.00037,2
5217,5442,5.9999999999999995e-05,-8e-05,-0.00054,-0.00047000000000000004,1e-05,0.00028,0.00022,0.00037,2
5218,5443,5.9999999999999995e-05,-8e-05,-0.00054,-0.00047000000000000004,1e-05,0.00028,0.00022,0.00037,2
5219,5444,5.9999999999999995e-05,-8e-05,-0.00054,-0.00047000000000000004,1e-05,0.00028,0.00022,0.00037,2
5220,5445,5.9999999999999995e-05,-8e-05,-0.00054,-0.00047000000000000004,1e-05,0.00028,0.00022,0.00037,2
5221,5446,5.9999999999999995e-05,-8e-05,-0.00054,-0.00047000000000000004,1e-05,0.00028,0.00022,0.00037,2
5222,5447,2.9999999999999997e-05,-2e-05,4e-05,-4e-05,-7e-05,-0.00013000000000000002,-4e-05,0.0,2
5223,5448,2.9999999999999997e-05,-2e-05,4e-05,-4e-05,-7e-05,-0.00013000000000000002,-4e-05,0.0,2
5224,5449,2.9999999999999997e-05,-2e-05,4e-05,-4e-05,-7e-05,-0.00013000000000000002,-4e-05,0.0,2
5225,5450,2.9999999999999997e-05,-2e-05,4e-05,-4e-05,-7e-05,-0.00013000000000000002,-4e-05,0.0,2
5226,5451,2.9999999999999997e-05,-2e-05,4e-05,-4e-05,-7e-05,-0.00013000000000000002,-4e-05,0.0,2
5227,5452,2.9999999999999997e-05,-2e-05,4e-05,-4e-05,-7e-05,-0.00013000000000000002,-4e-05,0.0,2
5228,5453,2.9999999999999997e-05,-2e-05,4e-05,-4e-05,-7e-05,-0.00013000000000000002,-4e-05,0.0,2
5229,5454,2.9999999999999997e-05,-2e-05,4e-05,-4e-05,-7e-05,-0.00013000000000000002,-4e-05,0.0,2
5230,5455,2.9999999999999997e-05,-2e-05,4e-05,-4e-05,-7e-05,-0.00013000000000000002,-4e-05,0.0,2
5231,5456,2.9999999999999997e-05,-2e-05,4e-05,-4e-05,-7e-05,-0.00013000000000000002,-4e-05,0.0,2
5232,5457,2.9999999999999997e-05,-2e-05,4e-05,-4e-05,-7e-05,-0.00013000000000000002,-4e-05,0.0,2
5233,5458,2.9999999999999997e-05,-2e-05,4e-05,-4e-05,-7e-05,-0.00013000000000000002,-4e-05,0.0,2
5234,5459,2.9999999999999997e-05,-2e-05,4e-05,-4e-05,-7e-05,-0.00013000000000000002,-4e-05,0.0,2
5235,5460,2.9999999999999997e-05,-2e-05,4e-05,-4e-05,-7e-05,-0.00013000000000000002,-4e-05,0.0,2
5236,5461,2.9999999999999997e-05,-2e-05,4e-05,-4e-05,-7e-05,-0.00013000000000000002,-4e-05,0.0,2
5237,5462,2.9999999999999997e-05,-2e-05,4e-05,-4e-05,-7e-05,-0.00013000000000000002,-4e-05,0.0,2
5238,5463,2.9999999999999997e-05,-2e-05,4e-05,-4e-05,-7e-05,-0.00013000000000000002,-4e-05,0.0,2
5239,5464,2.9999999999999997e-05,-2e-05,4e-05,-4e-05,-7e-05,-0.00013000000000000002,-4e-05,0.0,2
5240,5465,2.9999999999999997e-05,-2e-05,4e-05,-4e-05,-7e-05,-0.00013000000000000002,-4e-05,0.0,2
5241,5466,2.9999999999999997e-05,-2e-05,4e-05,-4e-05,-7e-05,-0.00013000000000000002,-4e-05,0.0,2
5242,5467,2.9999999999999997e-05,-2e-05,4e-05,-4e-05,-7e-05,-0.00013000000000000002,-4e-05,0.0,2
5243,5468,2.9999999999999997e-05,-2e-05,4e-05,-4e-05,-7e-05,-0.00013000000000000002,-4e-05,0.0,2
5244,5469,2.9999999999999997e-05,-2e-05,4e-05,-4e-05,-7e-05,-0.00013000000000000002,-4e-05,0.0,2
5245,5470,2.9999999999999997e-05,-2e-05,4e-05,-4e-05,-7e-05,-0.00013000000000000002,-4e-05,0.0,2
5246,5471,2.9999999999999997e-05,-2e-05,4e-05,-4e-05,-7e-05,-0.00013000000000000002,-4e-05,0.0,2
5247,5472,2.9999999999999997e-05,-2e-05,4e-05,-4e-05,-7e-05,-0.00013000000000000002,-4e-05,0.0,2
5248,5473,2.9999999999999997e-05,-2e-05,4e-05,-4e-05,-7e-05,-0.00013000000000000002,-4e-05,0.0,2
5249,5474,2.9999999999999997e-05,-2e-05,4e-05,-4e-05,-7e-05,-0.00013000000000000002,-4e-05,0.0,2
5250,5475,2.9999999999999997e-05,-2e-05,4e-05,-4e-05,-7e-05,-0.00013000000000000002,-4e-05,0.0,2
5251,5476,2.9999999999999997e-05,-2e-05,4e-05,-4e-05,-7e-05,-0.00013000000000000002,-4e-05,0.0,2
5252,5477,2.9999999999999997e-05,-2e-05,4e-05,-4e-05,-7e-05,-0.00013000000000000002,-4e-05,0.0,2
5253,5478,2.9999999999999997e-05,-2e-05,4e-05,-4e-05,-7e-05,-0.00013000000000000002,-4e-05,0.0,2
5254,5479,2.9999999999999997e-05,-2e-05,4e-05,-4e-05,-7e-05,-0.00013000000000000002,-4e-05,0.0,2
5255,5480,2.9999999999999997e-05,-2e-05,4e-05,-4e-05,-7e-05,-0.00013000000000000002,-4e-05,0.0,2
5256,5481,2.9999999999999997e-05,-2e-05,4e-05,-4e-05,-7e-05,-0.00013000000000000002,-4e-05,0.0,2
5257,5482,2.9999999999999997e-05,-2e-05,4e-05,-4e-05,-7e-05,-0.00013000000000000002,-4e-05,0.0,2
5258,5483,2.9999999999999997e-05,-2e-05,4e-05,-4e-05,-7e-05,-0.00013000000000000002,-4e-05,0.0,2
5259,5484,2.9999999999999997e-05,-2e-05,4e-05,-4e-05,-7e-05,-0.00013000000000000002,-4e-05,0.0,2
5260,5485,2.9999999999999997e-05,-2e-05,4e-05,-4e-05,-7e-05,-0.00013000000000000002,-4e-05,0.0,2
5261,5486,2.9999999999999997e-05,-2e-05,4e-05,-4e-05,-7e-05,-0.00013000000000000002,-4e-05,0.0,2
5262,5489,7e-05,-5.9999999999999995e-05,-0.00018,-5.9999999999999995e-05,2.9999999999999997e-05,5e-05,4e-05,0.00014,2
5263,5490,7e-05,-5.9999999999999995e-05,-0.00018,-5.9999999999999995e-05,2.9999999999999997e-05,5e-05,4e-05,0.00014,2
5264,5491,7e-05,-5.9999999999999995e-05,-0.00018,-5.9999999999999995e-05,2.9999999999999997e-05,5e-05,4e-05,0.00014,2
5265,5492,7e-05,-5.9999999999999995e-05,-0.00018,-5.9999999999999995e-05,2.9999999999999997e-05,5e-05,4e-05,0.00014,2
5266,5493,7e-05,-5.9999999999999995e-05,-0.00018,-5.9999999999999995e-05,2.9999999999999997e-05,5e-05,4e-05,0.00014,2
5267,5494,7e-05,-5.9999999999999995e-05,-0.00018,-5.9999999999999995e-05,2.9999999999999997e-05,5e-05,4e-05,0.00014,2
5268,5495,-8e-05,-0.00011,-5.9999999999999995e-05,-0.0001,0.0,0.00022,0.00014,0.0,2
5269,5496,-4e-05,2e-05,5e-05,0.0001,-1e-05,-5.9999999999999995e-05,-2e-05,-5.9999999999999995e-05,2
5270,5497,9e-05,0.0001,0.00023999999999999998,0.00015,0.0,-0.00018,-2.9999999999999997e-05,0.00016999999999999999,2
5271,5498,9e-05,0.0001,0.00023999999999999998,0.00015,0.0,-0.00018,-2.9999999999999997e-05,0.00016999999999999999,2
5272,5499,9e-05,0.0001,0.00023999999999999998,0.00015,0.0,-0.00018,-2.9999999999999997e-05,0.00016999999999999999,2
5273,5500,9e-05,0.0001,0.00023999999999999998,0.00015,0.0,-0.00018,-2.9999999999999997e-05,0.00016999999999999999,2
5274,5501,9e-05,0.0001,0.00023999999999999998,0.00015,0.0,-0.00018,-2.9999999999999997e-05,0.00016999999999999999,2
5275,5502,9e-05,0.0001,0.00023999999999999998,0.00015,0.0,-0.00018,-2.9999999999999997e-05,0.00016999999999999999,2
5276,5503,9e-05,0.0001,0.00023999999999999998,0.00015,0.0,-0.00018,-2.9999999999999997e-05,0.00016999999999999999,2
5277,5504,9e-05,0.0001,0.00023999999999999998,0.00015,0.0,-0.00018,-2.9999999999999997e-05,0.00016999999999999999,2
5278,5505,9e-05,0.0001,0.00023999999999999998,0.00015,0.0,-0.00018,-2.9999999999999997e-05,0.00016999999999999999,2
5279,5506,9e-05,0.0001,0.00023999999999999998,0.00015,0.0,-0.00018,-2.9999999999999997e-05,0.00016999999999999999,2
5280,5507,9e-05,0.0001,0.00023999999999999998,0.00015,0.0,-0.00018,-2.9999999999999997e-05,0.00016999999999999999,2
5281,5508,9e-05,0.0001,0.00023999999999999998,0.00015,0.0,-0.00018,-2.9999999999999997e-05,0.00016999999999999999,2
5282,5509,9e-05,0.0001,0.00023999999999999998,0.00015,0.0,-0.00018,-2.9999999999999997e-05,0.00016999999999999999,2
5283,5510,9e-05,0.0001,0.00023999999999999998,0.00015,0.0,-0.00018,-2.9999999999999997e-05,0.00016999999999999999,2
5284,5511,9e-05,0.0001,0.00023999999999999998,0.00015,0.0,-0.00018,-2.9999999999999997e-05,0.00016999999999999999,2
5285,5512,9e-05,0.0001,0.00023999999999999998,0.00015,0.0,-0.00018,-2.9999999999999997e-05,0.00016999999999999999,2
5286,5513,9e-05,0.0001,0.00023999999999999998,0.00015,0.0,-0.00018,-2.9999999999999997e-05,0.00016999999999999999,2
5287,5514,9e-05,0.0001,0.00023999999999999998,0.00015,0.0,-0.00018,-2.9999999999999997e-05,0.00016999999999999999,2
5288,5515,9e-05,0.0001,0.00023999999999999998,0.00015,0.0,-0.00018,-2.9999999999999997e-05,0.00016999999999999999,2
5289,5516,9e-05,0.0001,0.00023999999999999998,0.00015,0.0,-0.00018,-2.9999999999999997e-05,0.00016999999999999999,2
5290,5517,9e-05,0.0001,0.00023999999999999998,0.00015,0.0,-0.00018,-2.9999999999999997e-05,0.00016999999999999999,2
5291,5518,9e-05,0.0001,0.00023999999999999998,0.00015,0.0,-0.00018,-2.9999999999999997e-05,0.00016999999999999999,2
5292,5519,9e-05,0.0001,0.00023999999999999998,0.00015,0.0,-0.00018,-2.9999999999999997e-05,0.00016999999999999999,2
5293,5520,9e-05,0.0001,0.00023999999999999998,0.00015,0.0,-0.00018,-2.9999999999999997e-05,0.00016999999999999999,2
5294,5521,9e-05,0.0001,0.00023999999999999998,0.00015,0.0,-0.00018,-2.9999999999999997e-05,0.00016999999999999999,2
5295,5522,9e-05,0.0001,0.00023999999999999998,0.00015,0.0,-0.00018,-2.9999999999999997e-05,0.00016999999999999999,2
5296,5523,9e-05,0.0001,0.00023999999999999998,0.00015,0.0,-0.00018,-2.9999999999999997e-05,0.00016999999999999999,2
5297,5524,9e-05,0.0001,0.00023999999999999998,0.00015,0.0,-0.00018,-2.9999999999999997e-05,0.00016999999999999999,2
5298,5525,9e-05,0.0001,0.00023999999999999998,0.00015,0.0,-0.00018,-2.9999999999999997e-05,0.00016999999999999999,2
5299,5526,9e-05,0.0001,0.00023999999999999998,0.00015,0.0,-0.00018,-2.9999999999999997e-05,0.00016999999999999999,2
5300,5527,9e-05,0.0001,0.00023999999999999998,0.00015,0.0,-0.00018,-2.9999999999999997e-05,0.00016999999999999999,2
5301,5528,9e-05,0.0001,0.00023999999999999998,0.00015,0.0,-0.00018,-2.9999999999999997e-05,0.00016999999999999999,2
5302,5529,9e-05,0.0001,0.00023999999999999998,0.00015,0.0,-0.00018,-2.9999999999999997e-05,0.00016999999999999999,2
5303,5530,9e-05,0.0001,0.00023999999999999998,0.00015,0.0,-0.00018,-2.9999999999999997e-05,0.00016999999999999999,2
5304,5531,9e-05,0.0001,0.00023999999999999998,0.00015,0.0,-0.00018,-2.9999999999999997e-05,0.00016999999999999999,2
5305,5532,9e-05,0.0001,0.00023999999999999998,0.00015,0.0,-0.00018,-2.9999999999999997e-05,0.00016999999999999999,2
5306,5533,9e-05,0.0001,0.00023999999999999998,0.00015,0.0,-0.00018,-2.9999999999999997e-05,0.00016999999999999999,2
5307,5534,9e-05,0.0001,0.00023999999999999998,0.00015,0.0,-0.00018,-2.9999999999999997e-05,0.00016999999999999999,2
5308,5535,9e-05,0.0001,0.00023999999999999998,0.00015,0.0,-0.00018,-2.9999999999999997e-05,0.00016999999999999999,2
5309,5536,9e-05,0.0001,0.00023999999999999998,0.00015,0.0,-0.00018,-2.9999999999999997e-05,0.00016999999999999999,2
5310,5538,9e-05,0.0001,0.00023999999999999998,0.00015,0.0,-0.00018,-2.9999999999999997e-05,0.00016999999999999999,2
5311,5539,9e-05,0.0001,0.00023999999999999998,0.00015,0.0,-0.00018,-2.9999999999999997e-05,0.00016999999999999999,2
5312,5540,9e-05,0.0001,0.00023999999999999998,0.00015,0.0,-0.00018,-2.9999999999999997e-05,0.00016999999999999999,2
5313,5541,9e-05,0.0001,0.00023999999999999998,0.00015,0.0,-0.00018,-2.9999999999999997e-05,0.00016999999999999999,2
5314,5542,9e-05,0.0001,0.00023999999999999998,0.00015,0.0,-0.00018,-2.9999999999999997e-05,0.00016999999999999999,2
5315,5543,9e-05,0.0001,0.00023999999999999998,0.00015,0.0,-0.00018,-2.9999999999999997e-05,0.00016999999999999999,2
5316,5544,9e-05,0.0001,0.00023999999999999998,0.00015,0.0,-0.00018,-2.9999999999999997e-05,0.00016999999999999999,2
5317,5545,9e-05,0.0001,0.00023999999999999998,0.00015,0.0,-0.00018,-2.9999999999999997e-05,0.00016999999999999999,2
5318,5546,9e-05,0.0001,0.00023999999999999998,0.00015,0.0,-0.00018,-2.9999999999999997e-05,0.00016999999999999999,2
5319,5547,0.00011999999999999999,-2.9999999999999997e-05,-0.00021,-0.00022,-5.9999999999999995e-05,0.00015,7e-05,-2e-05,2
5320,5548,2e-05,2.9999999999999997e-05,5e-05,7e-05,1e-05,-4e-05,-2e-05,4e-05,2
5321,5549,2e-05,2.9999999999999997e-05,5e-05,7e-05,1e-05,-4e-05,-2e-05,4e-05,2
5322,5550,-7e-05,-7e-05,-0.00016999999999999999,-5.9999999999999995e-05,0.0,-0.00018999999999999998,1e-05,2.9999999999999997e-05,2
5323,5551,-7e-05,-7e-05,-0.00016999999999999999,-5.9999999999999995e-05,0.0,-0.00018999999999999998,1e-05,2.9999999999999997e-05,2
5324,5552,-7e-05,-7e-05,-0.00016999999999999999,-5.9999999999999995e-05,0.0,-0.00018999999999999998,1e-05,2.9999999999999997e-05,2
5325,5553,-7e-05,-7e-05,-0.00016999999999999999,-5.9999999999999995e-05,0.0,-0.00018999999999999998,1e-05,2.9999999999999997e-05,2
5326,5554,5.9999999999999995e-05,-9e-05,2.9999999999999997e-05,1e-05,-0.00014,-0.00016999999999999999,-4e-05,2e-05,2
5327,5555,2e-05,0.0001,-1e-05,-5.9999999999999995e-05,2e-05,0.00016,2.9999999999999997e-05,-5.9999999999999995e-05,2
5328,5556,-0.0001,-0.00011999999999999999,-0.00022999999999999998,-5e-05,-1e-05,2.9999999999999997e-05,-7e-05,-5e-05,2
5329,5557,-0.0001,-0.00011999999999999999,-0.00022999999999999998,-5e-05,-1e-05,2.9999999999999997e-05,-7e-05,-5e-05,2
5330,5558,-0.0001,-0.00011999999999999999,-0.00022999999999999998,-5e-05,-1e-05,2.9999999999999997e-05,-7e-05,-5e-05,2
5331,5559,-0.0001,-0.00011999999999999999,-0.00022999999999999998,-5e-05,-1e-05,2.9999999999999997e-05,-7e-05,-5e-05,2
5332,5560,-0.0001,-0.00011999999999999999,-0.00022999999999999998,-5e-05,-1e-05,2.9999999999999997e-05,-7e-05,-5e-05,2
5333,5561,-0.0001,-0.00011999999999999999,-0.00022999999999999998,-5e-05,-1e-05,2.9999999999999997e-05,-7e-05,-5e-05,2
5334,5562,-0.0001,-0.00011999999999999999,-0.00022999999999999998,-5e-05,-1e-05,2.9999999999999997e-05,-7e-05,-5e-05,2
5335,5563,-0.0001,-0.00011999999999999999,-0.00022999999999999998,-5e-05,-1e-05,2.9999999999999997e-05,-7e-05,-5e-05,2
5336,5564,-0.0001,-0.00011999999999999999,-0.00022999999999999998,-5e-05,-1e-05,2.9999999999999997e-05,-7e-05,-5e-05,2
5337,5565,-0.0001,-0.00011999999999999999,-0.00022999999999999998,-5e-05,-1e-05,2.9999999999999997e-05,-7e-05,-5e-05,2
5338,5566,-0.0001,-0.00011999999999999999,-0.00022999999999999998,-5e-05,-1e-05,2.9999999999999997e-05,-7e-05,-5e-05,2
5339,5567,-0.0001,-0.00011999999999999999,-0.00022999999999999998,-5e-05,-1e-05,2.9999999999999997e-05,-7e-05,-5e-05,2
5340,5568,-0.0001,-0.00011999999999999999,-0.00022999999999999998,-5e-05,-1e-05,2.9999999999999997e-05,-7e-05,-5e-05,2
5341,5569,-0.0001,-0.00011999999999999999,-0.00022999999999999998,-5e-05,-1e-05,2.9999999999999997e-05,-7e-05,-5e-05,2
5342,5570,-0.0001,-0.00011999999999999999,-0.00022999999999999998,-5e-05,-1e-05,2.9999999999999997e-05,-7e-05,-5e-05,2
5343,5571,-0.0001,-0.00011999999999999999,-0.00022999999999999998,-5e-05,-1e-05,2.9999999999999997e-05,-7e-05,-5e-05,2
5344,5572,-0.0001,-0.00011999999999999999,-0.00022999999999999998,-5e-05,-1e-05,2.9999999999999997e-05,-7e-05,-5e-05,2
5345,5573,-0.0001,-0.00011999999999999999,-0.00022999999999999998,-5e-05,-1e-05,2.9999999999999997e-05,-7e-05,-5e-05,2
5346,5574,-0.0001,-0.00011999999999999999,-0.00022999999999999998,-5e-05,-1e-05,2.9999999999999997e-05,-7e-05,-5e-05,2
5347,5575,-0.0001,-0.00011999999999999999,-0.00022999999999999998,-5e-05,-1e-05,2.9999999999999997e-05,-7e-05,-5e-05,2
5348,5576,-0.0001,-0.00011999999999999999,-0.00022999999999999998,-5e-05,-1e-05,2.9999999999999997e-05,-7e-05,-5e-05,2
5349,5577,-0.0001,-0.00011999999999999999,-0.00022999999999999998,-5e-05,-1e-05,2.9999999999999997e-05,-7e-05,-5e-05,2
5350,5578,-0.0001,-0.00011999999999999999,-0.00022999999999999998,-5e-05,-1e-05,2.9999999999999997e-05,-7e-05,-5e-05,2
5351,5579,-0.0001,-0.00011999999999999999,-0.00022999999999999998,-5e-05,-1e-05,2.9999999999999997e-05,-7e-05,-5e-05,2
5352,5580,-0.0001,-0.00011999999999999999,-0.00022999999999999998,-5e-05,-1e-05,2.9999999999999997e-05,-7e-05,-5e-05,2
5353,5581,-0.0001,-0.00011999999999999999,-0.00022999999999999998,-5e-05,-1e-05,2.9999999999999997e-05,-7e-05,-5e-05,2
5354,5582,-0.0001,-0.00011999999999999999,-0.00022999999999999998,-5e-05,-1e-05,2.9999999999999997e-05,-7e-05,-5e-05,2
5355,5583,-0.0001,-0.00011999999999999999,-0.00022999999999999998,-5e-05,-1e-05,2.9999999999999997e-05,-7e-05,-5e-05,2
5356,5584,-0.0001,-0.00011999999999999999,-0.00022999999999999998,-5e-05,-1e-05,2.9999999999999997e-05,-7e-05,-5e-05,2
5357,5585,-0.0001,-0.00011999999999999999,-0.00022999999999999998,-5e-05,-1e-05,2.9999999999999997e-05,-7e-05,-5e-05,2
5358,5586,-0.0001,-0.00011999999999999999,-0.00022999999999999998,-5e-05,-1e-05,2.9999999999999997e-05,-7e-05,-5e-05,2
5359,5588,-0.0001,-0.00011999999999999999,-0.00022999999999999998,-5e-05,-1e-05,2.9999999999999997e-05,-7e-05,-5e-05,2
5360,5589,-0.0001,-0.00011999999999999999,-0.00022999999999999998,-5e-05,-1e-05,2.9999999999999997e-05,-7e-05,-5e-05,2
5361,5590,-0.0001,-0.00011999999999999999,-0.00022999999999999998,-5e-05,-1e-05,2.9999999999999997e-05,-7e-05,-5e-05,2
5362,5591,-0.0001,-0.00011999999999999999,-0.00022999999999999998,-5e-05,-1e-05,2.9999999999999997e-05,-7e-05,-5e-05,2
5363,5592,-0.0001,-0.00011999999999999999,-0.00022999999999999998,-5e-05,-1e-05,2.9999999999999997e-05,-7e-05,-5e-05,2
5364,5593,-0.0001,-0.00011999999999999999,-0.00022999999999999998,-5e-05,-1e-05,2.9999999999999997e-05,-7e-05,-5e-05,2
5365,5594,-0.0001,-0.00011999999999999999,-0.00022999999999999998,-5e-05,-1e-05,2.9999999999999997e-05,-7e-05,-5e-05,2
5366,5595,-0.0001,-0.00011999999999999999,-0.00022999999999999998,-5e-05,-1e-05,2.9999999999999997e-05,-7e-05,-5e-05,2
5367,5596,-0.0001,-0.00011999999999999999,-0.00022999999999999998,-5e-05,-1e-05,2.9999999999999997e-05,-7e-05,-5e-05,2
5368,5597,-0.0001,-0.00011999999999999999,-0.00022999999999999998,-5e-05,-1e-05,2.9999999999999997e-05,-7e-05,-5e-05,2
5369,5598,-0.0001,-0.00011999999999999999,-0.00022999999999999998,-5e-05,-1e-05,2.9999999999999997e-05,-7e-05,-5e-05,2
5370,5599,-0.0001,-0.00011999999999999999,-0.00022999999999999998,-5e-05,-1e-05,2.9999999999999997e-05,-7e-05,-5e-05,2
5371,5600,-5.9999999999999995e-05,-1e-05,0.00016999999999999999,0.0001,-7e-05,-7e-05,-0.00015,-0.00018999999999999998,2
5372,5601,-5.9999999999999995e-05,-1e-05,0.00016999999999999999,0.0001,-7e-05,-7e-05,-0.00015,-0.00018999999999999998,2
5373,5602,-4e-05,1e-05,8e-05,-0.0001,5e-05,-0.00018,-0.00011,-2e-05,2
5374,5603,-4e-05,1e-05,8e-05,-0.0001,5e-05,-0.00018,-0.00011,-2e-05,2
5375,5604,-4e-05,1e-05,8e-05,-0.0001,5e-05,-0.00018,-0.00011,-2e-05,2
5376,5605,-4e-05,1e-05,8e-05,-0.0001,5e-05,-0.00018,-0.00011,-2e-05,2
5377,5606,-0.00011999999999999999,0.0,-2.9999999999999997e-05,-2.9999999999999997e-05,-2.9999999999999997e-05,5e-05,8e-05,-8e-05,2
5378,5607,-0.00011999999999999999,0.0,-2.9999999999999997e-05,-2.9999999999999997e-05,-2.9999999999999997e-05,5e-05,8e-05,-8e-05,2
5379,5608,8e-05,5.9999999999999995e-05,0.00015,4e-05,2.9999999999999997e-05,-0.00011,0.00011999999999999999,-5e-05,2
5380,5609,4e-05,9e-05,2.9999999999999997e-05,-2e-05,-4e-05,-0.00018,2e-05,-7e-05,2
5381,5610,4e-05,9e-05,2.9999999999999997e-05,-2e-05,-4e-05,-0.00018,2e-05,-7e-05,2
5382,5611,4e-05,9e-05,2.9999999999999997e-05,-2e-05,-4e-05,-0.00018,2e-05,-7e-05,2
5383,5612,4e-05,9e-05,2.9999999999999997e-05,-2e-05,-4e-05,-0.00018,2e-05,-7e-05,2
5384,5614,4e-05,9e-05,2.9999999999999997e-05,-2e-05,-4e-05,-0.00018,2e-05,-7e-05,2
5385,5615,4e-05,9e-05,2.9999999999999997e-05,-2e-05,-4e-05,-0.00018,2e-05,-7e-05,2
5386,5616,4e-05,9e-05,2.9999999999999997e-05,-2e-05,-4e-05,-0.00018,2e-05,-7e-05,2
5387,5617,4e-05,9e-05,2.9999999999999997e-05,-2e-05,-4e-05,-0.00018,2e-05,-7e-05,2
5388,5618,4e-05,9e-05,2.9999999999999997e-05,-2e-05,-4e-05,-0.00018,2e-05,-7e-05,2
5389,5619,4e-05,9e-05,2.9999999999999997e-05,-2e-05,-4e-05,-0.00018,2e-05,-7e-05,2
5390,5620,4e-05,9e-05,2.9999999999999997e-05,-2e-05,-4e-05,-0.00018,2e-05,-7e-05,2
5391,5621,4e-05,9e-05,2.9999999999999997e-05,-2e-05,-4e-05,-0.00018,2e-05,-7e-05,2
5392,5622,4e-05,9e-05,2.9999999999999997e-05,-2e-05,-4e-05,-0.00018,2e-05,-7e-05,2
5393,5623,4e-05,9e-05,2.9999999999999997e-05,-2e-05,-4e-05,-0.00018,2e-05,-7e-05,2
5394,5624,4e-05,9e-05,2.9999999999999997e-05,-2e-05,-4e-05,-0.00018,2e-05,-7e-05,2
5395,5625,4e-05,9e-05,2.9999999999999997e-05,-2e-05,-4e-05,-0.00018,2e-05,-7e-05,2
5396,5626,4e-05,9e-05,2.9999999999999997e-05,-2e-05,-4e-05,-0.00018,2e-05,-7e-05,2
5397,5627,4e-05,9e-05,2.9999999999999997e-05,-2e-05,-4e-05,-0.00018,2e-05,-7e-05,2
5398,5628,4e-05,9e-05,2.9999999999999997e-05,-2e-05,-4e-05,-0.00018,2e-05,-7e-05,2
5399,5629,4e-05,9e-05,2.9999999999999997e-05,-2e-05,-4e-05,-0.00018,2e-05,-7e-05,2
5400,5630,4e-05,9e-05,2.9999999999999997e-05,-2e-05,-4e-05,-0.00018,2e-05,-7e-05,2
5401,5631,4e-05,9e-05,2.9999999999999997e-05,-2e-05,-4e-05,-0.00018,2e-05,-7e-05,2
5402,5632,4e-05,9e-05,2.9999999999999997e-05,-2e-05,-4e-05,-0.00018,2e-05,-7e-05,2
5403,5633,4e-05,9e-05,2.9999999999999997e-05,-2e-05,-4e-05,-0.00018,2e-05,-7e-05,2
5404,5634,4e-05,9e-05,2.9999999999999997e-05,-2e-05,-4e-05,-0.00018,2e-05,-7e-05,2
5405,5635,4e-05,9e-05,2.9999999999999997e-05,-2e-05,-4e-05,-0.00018,2e-05,-7e-05,2
5406,5636,4e-05,9e-05,2.9999999999999997e-05,-2e-05,-4e-05,-0.00018,2e-05,-7e-05,2
5407,5638,4e-05,9e-05,2.9999999999999997e-05,-2e-05,-4e-05,-0.00018,2e-05,-7e-05,2
5408,5639,4e-05,9e-05,2.9999999999999997e-05,-2e-05,-4e-05,-0.00018,2e-05,-7e-05,2
5409,5640,4e-05,9e-05,2.9999999999999997e-05,-2e-05,-4e-05,-0.00018,2e-05,-7e-05,2
5410,5641,4e-05,9e-05,2.9999999999999997e-05,-2e-05,-4e-05,-0.00018,2e-05,-7e-05,2
5411,5642,4e-05,9e-05,2.9999999999999997e-05,-2e-05,-4e-05,-0.00018,2e-05,-7e-05,2
5412,5643,4e-05,9e-05,2.9999999999999997e-05,-2e-05,-4e-05,-0.00018,2e-05,-7e-05,2
5413,5644,0.0001,0.00013000000000000002,0.00022999999999999998,5.9999999999999995e-05,-4e-05,0.00014,-0.0001,0.00013000000000000002,2
5414,5645,0.0001,0.00013000000000000002,0.00022999999999999998,5.9999999999999995e-05,-4e-05,0.00014,-0.0001,0.00013000000000000002,2
5415,5646,0.0001,0.00013000000000000002,0.00022999999999999998,5.9999999999999995e-05,-4e-05,0.00014,-0.0001,0.00013000000000000002,2
5416,5647,0.0001,0.00013000000000000002,0.00022999999999999998,5.9999999999999995e-05,-4e-05,0.00014,-0.0001,0.00013000000000000002,2
5417,5648,0.0001,0.00013000000000000002,0.00022999999999999998,5.9999999999999995e-05,-4e-05,0.00014,-0.0001,0.00013000000000000002,2
5418,5649,0.0001,0.00013000000000000002,0.00022999999999999998,5.9999999999999995e-05,-4e-05,0.00014,-0.0001,0.00013000000000000002,2
5419,5650,0.0001,0.00013000000000000002,0.00022999999999999998,5.9999999999999995e-05,-4e-05,0.00014,-0.0001,0.00013000000000000002,2
5420,5651,2.9999999999999997e-05,-1e-05,0.00011999999999999999,0.00016999999999999999,5e-05,-0.00011,-0.00015,-0.00011,2
5421,5652,2.9999999999999997e-05,-1e-05,0.00011999999999999999,0.00016999999999999999,5e-05,-0.00011,-0.00015,-0.00011,2
5422,5653,2.9999999999999997e-05,-1e-05,0.00011999999999999999,0.00016999999999999999,5e-05,-0.00011,-0.00015,-0.00011,2
5423,5654,2.9999999999999997e-05,-1e-05,0.00011999999999999999,0.00016999999999999999,5e-05,-0.00011,-0.00015,-0.00011,2
5424,5655,2.9999999999999997e-05,-1e-05,0.00011999999999999999,0.00016999999999999999,5e-05,-0.00011,-0.00015,-0.00011,2
5425,5656,2.9999999999999997e-05,-1e-05,0.00011999999999999999,0.00016999999999999999,5e-05,-0.00011,-0.00015,-0.00011,2
5426,5657,2.9999999999999997e-05,-1e-05,0.00011999999999999999,0.00016999999999999999,5e-05,-0.00011,-0.00015,-0.00011,2
5427,5658,2.9999999999999997e-05,-1e-05,0.00011999999999999999,0.00016999999999999999,5e-05,-0.00011,-0.00015,-0.00011,2
5428,5659,2.9999999999999997e-05,-1e-05,0.00011999999999999999,0.00016999999999999999,5e-05,-0.00011,-0.00015,-0.00011,2
5429,5660,-0.00018,-0.00025,-0.0005200000000000001,-0.0003,4e-05,-0.00011,2.9999999999999997e-05,-5.9999999999999995e-05,2
5430,5661,4e-05,7e-05,8e-05,-1e-05,-2.9999999999999997e-05,-7e-05,-4e-05,7e-05,2
5431,5662,4e-05,7e-05,8e-05,-1e-05,-2.9999999999999997e-05,-7e-05,-4e-05,7e-05,2
5432,5663,4e-05,7e-05,8e-05,-1e-05,-2.9999999999999997e-05,-7e-05,-4e-05,7e-05,2
5433,5664,4e-05,7e-05,8e-05,-1e-05,-2.9999999999999997e-05,-7e-05,-4e-05,7e-05,2
5434,5665,0.00015,5.9999999999999995e-05,0.00026000000000000003,0.00018999999999999998,-2.9999999999999997e-05,-5e-05,1e-05,2.9999999999999997e-05,2
5435,5666,0.00015,5.9999999999999995e-05,0.00026000000000000003,0.00018999999999999998,-2.9999999999999997e-05,-5e-05,1e-05,2.9999999999999997e-05,2
5436,5667,-0.00011,-0.00011,-0.00018999999999999998,-7e-05,2.9999999999999997e-05,-5.9999999999999995e-05,8e-05,0.00015,2
5437,5668,-0.00011,-0.00011,-0.00018999999999999998,-7e-05,2.9999999999999997e-05,-5.9999999999999995e-05,8e-05,0.00015,2
5438,5669,-0.00011,-0.00011,-0.00018999999999999998,-7e-05,2.9999999999999997e-05,-5.9999999999999995e-05,8e-05,0.00015,2
5439,5670,-0.00011,-0.00011,-0.00018999999999999998,-7e-05,2.9999999999999997e-05,-5.9999999999999995e-05,8e-05,0.00015,2
5440,5671,-0.00011,-0.00011,-0.00018999999999999998,-7e-05,2.9999999999999997e-05,-5.9999999999999995e-05,8e-05,0.00015,2
5441,5672,-0.00011,-0.00011,-0.00018999999999999998,-7e-05,2.9999999999999997e-05,-5.9999999999999995e-05,8e-05,0.00015,2
5442,5673,-0.00011,-0.00011,-0.00018999999999999998,-7e-05,2.9999999999999997e-05,-5.9999999999999995e-05,8e-05,0.00015,2
5443,5674,-0.00011,-0.00011,-0.00018999999999999998,-7e-05,2.9999999999999997e-05,-5.9999999999999995e-05,8e-05,0.00015,2
5444,5675,-0.00011,-0.00011,-0.00018999999999999998,-7e-05,2.9999999999999997e-05,-5.9999999999999995e-05,8e-05,0.00015,2
5445,5676,-0.00011,-0.00011,-0.00018999999999999998,-7e-05,2.9999999999999997e-05,-5.9999999999999995e-05,8e-05,0.00015,2
5446,5677,-0.00011,-0.00011,-0.00018999999999999998,-7e-05,2.9999999999999997e-05,-5.9999999999999995e-05,8e-05,0.00015,2
5447,5678,-0.00011,-0.00011,-0.00018999999999999998,-7e-05,2.9999999999999997e-05,-5.9999999999999995e-05,8e-05,0.00015,2
5448,5679,-0.00011,-0.00011,-0.00018999999999999998,-7e-05,2.9999999999999997e-05,-5.9999999999999995e-05,8e-05,0.00015,2
5449,5680,-0.00011,-0.00011,-0.00018999999999999998,-7e-05,2.9999999999999997e-05,-5.9999999999999995e-05,8e-05,0.00015,2
5450,5681,-0.00011,-0.00011,-0.00018999999999999998,-7e-05,2.9999999999999997e-05,-5.9999999999999995e-05,8e-05,0.00015,2
5451,5682,-0.00011,-0.00011,-0.00018999999999999998,-7e-05,2.9999999999999997e-05,-5.9999999999999995e-05,8e-05,0.00015,2
5452,5683,-0.00011,-0.00011,-0.00018999999999999998,-7e-05,2.9999999999999997e-05,-5.9999999999999995e-05,8e-05,0.00015,2
5453,5684,-0.00011,-0.00011,-0.00018999999999999998,-7e-05,2.9999999999999997e-05,-5.9999999999999995e-05,8e-05,0.00015,2
5454,5685,-0.00011,-0.00011,-0.00018999999999999998,-7e-05,2.9999999999999997e-05,-5.9999999999999995e-05,8e-05,0.00015,2
5455,5686,-0.00011,-0.00011,-0.00018999999999999998,-7e-05,2.9999999999999997e-05,-5.9999999999999995e-05,8e-05,0.00015,2
5456,5688,-0.00011,-0.00011,-0.00018999999999999998,-7e-05,2.9999999999999997e-05,-5.9999999999999995e-05,8e-05,0.00015,2
5457,5689,-0.00011,-0.00011,-0.00018999999999999998,-7e-05,2.9999999999999997e-05,-5.9999999999999995e-05,8e-05,0.00015,2
5458,5690,-0.00011,-0.00011,-0.00018999999999999998,-7e-05,2.9999999999999997e-05,-5.9999999999999995e-05,8e-05,0.00015,2
5459,5691,-0.00011,-0.00011,-0.00018999999999999998,-7e-05,2.9999999999999997e-05,-5.9999999999999995e-05,8e-05,0.00015,2
5460,5692,-0.00011,-0.00011,-0.00018999999999999998,-7e-05,2.9999999999999997e-05,-5.9999999999999995e-05,8e-05,0.00015,2
5461,5693,-0.00011,-0.00011,-0.00018999999999999998,-7e-05,2.9999999999999997e-05,-5.9999999999999995e-05,8e-05,0.00015,2
5462,5694,-0.00011,-0.00011,-0.00018999999999999998,-7e-05,2.9999999999999997e-05,-5.9999999999999995e-05,8e-05,0.00015,2
5463,5695,-0.00011,-0.00011,-0.00018999999999999998,-7e-05,2.9999999999999997e-05,-5.9999999999999995e-05,8e-05,0.00015,2
5464,5696,-0.00011,-0.00011,-0.00018999999999999998,-7e-05,2.9999999999999997e-05,-5.9999999999999995e-05,8e-05,0.00015,2
5465,5697,-0.00011,-0.00011,-0.00018999999999999998,-7e-05,2.9999999999999997e-05,-5.9999999999999995e-05,8e-05,0.00015,2
5466,5698,-0.00011,-0.00011,-0.00018999999999999998,-7e-05,2.9999999999999997e-05,-5.9999999999999995e-05,8e-05,0.00015,2
5467,5699,-0.00011,-0.00011,-0.00018999999999999998,-7e-05,2.9999999999999997e-05,-5.9999999999999995e-05,8e-05,0.00015,2
5468,5700,-0.00011,-0.00011,-0.00018999999999999998,-7e-05,2.9999999999999997e-05,-5.9999999999999995e-05,8e-05,0.00015,2
5469,5701,-0.00011,-0.00011,-0.00018999999999999998,-7e-05,2.9999999999999997e-05,-5.9999999999999995e-05,8e-05,0.00015,2
5470,5702,-0.00011,-0.00011,-0.00018999999999999998,-7e-05,2.9999999999999997e-05,-5.9999999999999995e-05,8e-05,0.00015,2
5471,5703,-0.00011,-0.00011,-0.00018999999999999998,-7e-05,2.9999999999999997e-05,-5.9999999999999995e-05,8e-05,0.00015,2
5472,5704,-1e-05,7e-05,-4e-05,-0.00014,-2.9999999999999997e-05,-5.9999999999999995e-05,-4e-05,-2.9999999999999997e-05,2
5473,5705,-1e-05,7e-05,-4e-05,-0.00014,-2.9999999999999997e-05,-5.9999999999999995e-05,-4e-05,-2.9999999999999997e-05,2
5474,5706,-1e-05,7e-05,-4e-05,-0.00014,-2.9999999999999997e-05,-5.9999999999999995e-05,-4e-05,-2.9999999999999997e-05,2
5475,5707,-1e-05,7e-05,-4e-05,-0.00014,-2.9999999999999997e-05,-5.9999999999999995e-05,-4e-05,-2.9999999999999997e-05,2
5476,5708,-1e-05,7e-05,-4e-05,-0.00014,-2.9999999999999997e-05,-5.9999999999999995e-05,-4e-05,-2.9999999999999997e-05,2
5477,5709,-1e-05,7e-05,-4e-05,-0.00014,-2.9999999999999997e-05,-5.9999999999999995e-05,-4e-05,-2.9999999999999997e-05,2
5478,5710,-1e-05,7e-05,-4e-05,-0.00014,-2.9999999999999997e-05,-5.9999999999999995e-05,-4e-05,-2.9999999999999997e-05,2
5479,5711,-1e-05,7e-05,-4e-05,-0.00014,-2.9999999999999997e-05,-5.9999999999999995e-05,-4e-05,-2.9999999999999997e-05,2
5480,5712,4e-05,1e-05,7e-05,0.0,-1e-05,-0.00016999999999999999,-2e-05,0.00013000000000000002,2
5481,5713,4e-05,1e-05,7e-05,0.0,-1e-05,-0.00016999999999999999,-2e-05,0.00013000000000000002,2
5482,5714,-2.9999999999999997e-05,-2e-05,-2e-05,4e-05,-9e-05,-1e-05,-7e-05,-1e-05,2
5483,5715,-2.9999999999999997e-05,-2e-05,-2e-05,4e-05,-9e-05,-1e-05,-7e-05,-1e-05,2
5484,5716,-2.9999999999999997e-05,-2e-05,-2e-05,4e-05,-9e-05,-1e-05,-7e-05,-1e-05,2
5485,5717,-2.9999999999999997e-05,-2e-05,-2e-05,4e-05,-9e-05,-1e-05,-7e-05,-1e-05,2
5486,5718,-2.9999999999999997e-05,-2e-05,-2e-05,4e-05,-9e-05,-1e-05,-7e-05,-1e-05,2
5487,5719,-2.9999999999999997e-05,-2e-05,-2e-05,4e-05,-9e-05,-1e-05,-7e-05,-1e-05,2
5488,5720,-2.9999999999999997e-05,-2e-05,-2e-05,4e-05,-9e-05,-1e-05,-7e-05,-1e-05,2
5489,5721,-2.9999999999999997e-05,-2e-05,-2e-05,4e-05,-9e-05,-1e-05,-7e-05,-1e-05,2
5490,5722,-2.9999999999999997e-05,-2e-05,-2e-05,4e-05,-9e-05,-1e-05,-7e-05,-1e-05,2
5491,5723,-2.9999999999999997e-05,-2e-05,-2e-05,4e-05,-9e-05,-1e-05,-7e-05,-1e-05,2
5492,5724,-2.9999999999999997e-05,-2e-05,-2e-05,4e-05,-9e-05,-1e-05,-7e-05,-1e-05,2
5493,5725,1e-05,5.9999999999999995e-05,1e-05,5.9999999999999995e-05,7e-05,8e-05,-1e-05,-2.9999999999999997e-05,2
5494,5726,-5e-05,-7e-05,-5e-05,4e-05,5e-05,-2e-05,-1e-05,-0.00015,2
5495,5727,-5e-05,-7e-05,-5e-05,4e-05,5e-05,-2e-05,-1e-05,-0.00015,2
5496,5728,-5e-05,-7e-05,-5e-05,4e-05,5e-05,-2e-05,-1e-05,-0.00015,2
5497,5729,-5e-05,-7e-05,-5e-05,4e-05,5e-05,-2e-05,-1e-05,-0.00015,2
5498,5730,-5e-05,-7e-05,-5e-05,4e-05,5e-05,-2e-05,-1e-05,-0.00015,2
5499,5731,-5e-05,-7e-05,-5e-05,4e-05,5e-05,-2e-05,-1e-05,-0.00015,2
5500,5732,-5e-05,-7e-05,-5e-05,4e-05,5e-05,-2e-05,-1e-05,-0.00015,2
5501,5733,-5e-05,-7e-05,-5e-05,4e-05,5e-05,-2e-05,-1e-05,-0.00015,2
5502,5734,-5e-05,-7e-05,-5e-05,4e-05,5e-05,-2e-05,-1e-05,-0.00015,2
5503,5735,-5e-05,-7e-05,-5e-05,4e-05,5e-05,-2e-05,-1e-05,-0.00015,2
5504,5736,-5e-05,-7e-05,-5e-05,4e-05,5e-05,-2e-05,-1e-05,-0.00015,2
5505,5738,-5e-05,-7e-05,-5e-05,4e-05,5e-05,-2e-05,-1e-05,-0.00015,2
5506,5739,-5e-05,-7e-05,-5e-05,4e-05,5e-05,-2e-05,-1e-05,-0.00015,2
5507,5740,-5e-05,-7e-05,-5e-05,4e-05,5e-05,-2e-05,-1e-05,-0.00015,2
5508,5741,-5e-05,-7e-05,-5e-05,4e-05,5e-05,-2e-05,-1e-05,-0.00015,2
5509,5742,-5e-05,-7e-05,-5e-05,4e-05,5e-05,-2e-05,-1e-05,-0.00015,2
5510,5743,-5e-05,-7e-05,-5e-05,4e-05,5e-05,-2e-05,-1e-05,-0.00015,2
5511,5744,-5e-05,-7e-05,-5e-05,4e-05,5e-05,-2e-05,-1e-05,-0.00015,2
5512,5745,-5e-05,-7e-05,-5e-05,4e-05,5e-05,-2e-05,-1e-05,-0.00015,2
5513,5746,-5e-05,-7e-05,-5e-05,4e-05,5e-05,-2e-05,-1e-05,-0.00015,2
5514,5747,-5e-05,-7e-05,-5e-05,4e-05,5e-05,-2e-05,-1e-05,-0.00015,2
5515,5748,-5e-05,-7e-05,-5e-05,4e-05,5e-05,-2e-05,-1e-05,-0.00015,2
5516,5749,-5e-05,-7e-05,-5e-05,4e-05,5e-05,-2e-05,-1e-05,-0.00015,2
5517,5750,-5e-05,-7e-05,-5e-05,4e-05,5e-05,-2e-05,-1e-05,-0.00015,2
5518,5751,-5e-05,-7e-05,-5e-05,4e-05,5e-05,-2e-05,-1e-05,-0.00015,2
5519,5752,-5e-05,-7e-05,-5e-05,4e-05,5e-05,-2e-05,-1e-05,-0.00015,2
5520,5753,-5e-05,-7e-05,-5e-05,4e-05,5e-05,-2e-05,-1e-05,-0.00015,2
5521,5754,-5e-05,-7e-05,-5e-05,4e-05,5e-05,-2e-05,-1e-05,-0.00015,2
5522,5755,-5e-05,-7e-05,-5e-05,4e-05,5e-05,-2e-05,-1e-05,-0.00015,2
5523,5756,-5e-05,-7e-05,-5e-05,4e-05,5e-05,-2e-05,-1e-05,-0.00015,2
5524,5757,-5e-05,-7e-05,-5e-05,4e-05,5e-05,-2e-05,-1e-05,-0.00015,2
5525,5758,-5e-05,-7e-05,-5e-05,4e-05,5e-05,-2e-05,-1e-05,-0.00015,2
5526,5759,-5e-05,-7e-05,-5e-05,4e-05,5e-05,-2e-05,-1e-05,-0.00015,2
5527,5760,-5e-05,-7e-05,-5e-05,4e-05,5e-05,-2e-05,-1e-05,-0.00015,2
5528,5761,-5e-05,-7e-05,-5e-05,4e-05,5e-05,-2e-05,-1e-05,-0.00015,2
5529,5762,-5e-05,-7e-05,-5e-05,4e-05,5e-05,-2e-05,-1e-05,-0.00015,2
5530,5763,-5e-05,-7e-05,-5e-05,4e-05,5e-05,-2e-05,-1e-05,-0.00015,2
5531,5764,2.9999999999999997e-05,0.0,-0.00026000000000000003,-0.00033999999999999997,2e-05,0.00016999999999999999,1e-05,-4e-05,2
5532,5765,2.9999999999999997e-05,0.0,-0.00026000000000000003,-0.00033999999999999997,2e-05,0.00016999999999999999,1e-05,-4e-05,2
5533,5766,2.9999999999999997e-05,0.0,-0.00026000000000000003,-0.00033999999999999997,2e-05,0.00016999999999999999,1e-05,-4e-05,2
5534,5767,2.9999999999999997e-05,0.0,-0.00026000000000000003,-0.00033999999999999997,2e-05,0.00016999999999999999,1e-05,-4e-05,2
5535,5768,2.9999999999999997e-05,0.0,-0.00026000000000000003,-0.00033999999999999997,2e-05,0.00016999999999999999,1e-05,-4e-05,2
5536,5769,2.9999999999999997e-05,0.0,-0.00026000000000000003,-0.00033999999999999997,2e-05,0.00016999999999999999,1e-05,-4e-05,2
5537,5770,2.9999999999999997e-05,0.0,-0.00026000000000000003,-0.00033999999999999997,2e-05,0.00016999999999999999,1e-05,-4e-05,2
5538,5771,1e-05,5e-05,5.9999999999999995e-05,0.00014,1e-05,-0.00015,-8e-05,-1e-05,2
5539,5772,-8e-05,-7e-05,1e-05,-1e-05,-2e-05,4e-05,-2e-05,-2.9999999999999997e-05,2
5540,5773,-8e-05,-7e-05,1e-05,-1e-05,-2e-05,4e-05,-2e-05,-2.9999999999999997e-05,2
5541,5774,-8e-05,-7e-05,1e-05,-1e-05,-2e-05,4e-05,-2e-05,-2.9999999999999997e-05,2
5542,5775,-8e-05,-7e-05,1e-05,-1e-05,-2e-05,4e-05,-2e-05,-2.9999999999999997e-05,2
5543,5776,-8e-05,-7e-05,1e-05,-1e-05,-2e-05,4e-05,-2e-05,-2.9999999999999997e-05,2
5544,5777,-8e-05,-7e-05,1e-05,-1e-05,-2e-05,4e-05,-2e-05,-2.9999999999999997e-05,2
5545,5778,-8e-05,-7e-05,1e-05,-1e-05,-2e-05,4e-05,-2e-05,-2.9999999999999997e-05,2
5546,5779,-8e-05,-7e-05,1e-05,-1e-05,-2e-05,4e-05,-2e-05,-2.9999999999999997e-05,2
5547,5780,-8e-05,-7e-05,1e-05,-1e-05,-2e-05,4e-05,-2e-05,-2.9999999999999997e-05,2
5548,5781,-8e-05,-7e-05,1e-05,-1e-05,-2e-05,4e-05,-2e-05,-2.9999999999999997e-05,2
5549,5782,-8e-05,-7e-05,1e-05,-1e-05,-2e-05,4e-05,-2e-05,-2.9999999999999997e-05,2
5550,5783,-8e-05,-7e-05,1e-05,-1e-05,-2e-05,4e-05,-2e-05,-2.9999999999999997e-05,2
5551,5784,-8e-05,-7e-05,1e-05,-1e-05,-2e-05,4e-05,-2e-05,-2.9999999999999997e-05,2
5552,5785,-4e-05,-9e-05,-0.00032,-0.00021,-2e-05,-1e-05,-2.9999999999999997e-05,-4e-05,2
5553,5786,-0.00011999999999999999,-2.9999999999999997e-05,-0.00014,1e-05,-2.9999999999999997e-05,-2e-05,-1e-05,-0.00011999999999999999,2
5554,5788,-0.00011999999999999999,-2.9999999999999997e-05,-0.00014,1e-05,-2.9999999999999997e-05,-2e-05,-1e-05,-0.00011999999999999999,2
5555,5789,-0.00011999999999999999,-2.9999999999999997e-05,-0.00014,1e-05,-2.9999999999999997e-05,-2e-05,-1e-05,-0.00011999999999999999,2
5556,5790,-0.00011999999999999999,-2.9999999999999997e-05,-0.00014,1e-05,-2.9999999999999997e-05,-2e-05,-1e-05,-0.00011999999999999999,2
5557,5791,-0.00011999999999999999,-2.9999999999999997e-05,-0.00014,1e-05,-2.9999999999999997e-05,-2e-05,-1e-05,-0.00011999999999999999,2
5558,5792,-0.00011999999999999999,-2.9999999999999997e-05,-0.00014,1e-05,-2.9999999999999997e-05,-2e-05,-1e-05,-0.00011999999999999999,2
5559,5793,-0.00011999999999999999,-2.9999999999999997e-05,-0.00014,1e-05,-2.9999999999999997e-05,-2e-05,-1e-05,-0.00011999999999999999,2
5560,5794,-0.00011999999999999999,-2.9999999999999997e-05,-0.00014,1e-05,-2.9999999999999997e-05,-2e-05,-1e-05,-0.00011999999999999999,2
5561,5795,-0.00011999999999999999,-2.9999999999999997e-05,-0.00014,1e-05,-2.9999999999999997e-05,-2e-05,-1e-05,-0.00011999999999999999,2
5562,5796,-0.00011999999999999999,-2.9999999999999997e-05,-0.00014,1e-05,-2.9999999999999997e-05,-2e-05,-1e-05,-0.00011999999999999999,2
5563,5797,-0.00011999999999999999,-2.9999999999999997e-05,-0.00014,1e-05,-2.9999999999999997e-05,-2e-05,-1e-05,-0.00011999999999999999,2
5564,5798,-0.00011999999999999999,-2.9999999999999997e-05,-0.00014,1e-05,-2.9999999999999997e-05,-2e-05,-1e-05,-0.00011999999999999999,2
5565,5799,-0.00011999999999999999,-2.9999999999999997e-05,-0.00014,1e-05,-2.9999999999999997e-05,-2e-05,-1e-05,-0.00011999999999999999,2
5566,5800,-0.00011999999999999999,-2.9999999999999997e-05,-0.00014,1e-05,-2.9999999999999997e-05,-2e-05,-1e-05,-0.00011999999999999999,2
5567,5801,-0.00011999999999999999,-2.9999999999999997e-05,-0.00014,1e-05,-2.9999999999999997e-05,-2e-05,-1e-05,-0.00011999999999999999,2
5568,5802,-0.00011999999999999999,-2.9999999999999997e-05,-0.00014,1e-05,-2.9999999999999997e-05,-2e-05,-1e-05,-0.00011999999999999999,2
5569,5803,-0.00011999999999999999,-2.9999999999999997e-05,-0.00014,1e-05,-2.9999999999999997e-05,-2e-05,-1e-05,-0.00011999999999999999,2
5570,5804,-0.00011999999999999999,-2.9999999999999997e-05,-0.00014,1e-05,-2.9999999999999997e-05,-2e-05,-1e-05,-0.00011999999999999999,2
5571,5805,-0.00011999999999999999,-2.9999999999999997e-05,-0.00014,1e-05,-2.9999999999999997e-05,-2e-05,-1e-05,-0.00011999999999999999,2
5572,5806,-0.00011999999999999999,-2.9999999999999997e-05,-0.00014,1e-05,-2.9999999999999997e-05,-2e-05,-1e-05,-0.00011999999999999999,2
5573,5807,-0.00011999999999999999,-2.9999999999999997e-05,-0.00014,1e-05,-2.9999999999999997e-05,-2e-05,-1e-05,-0.00011999999999999999,2
