,time,channel1,channel2,channel3,channel4,channel5,channel6,channel7,channel8,class
6358,6614,0.00027,0.00032,-0.00014,-0.00036,-7e-05,2e-05,2.9999999999999997e-05,0.0001,2
6359,6615,0.00027,0.00032,-0.00014,-0.00036,-7e-05,2e-05,2.9999999999999997e-05,0.0001,2
6360,6616,0.00027,0.00032,-0.00014,-0.00036,-7e-05,2e-05,2.9999999999999997e-05,0.0001,2
6361,6617,0.0,7e-05,0.00011,-2e-05,1e-05,2.9999999999999997e-05,-1e-05,0.0,2
6362,6618,0.0,7e-05,0.00011,-2e-05,1e-05,2.9999999999999997e-05,-1e-05,0.0,2
6363,6619,0.0,7e-05,0.00011,-2e-05,1e-05,2.9999999999999997e-05,-1e-05,0.0,2
6364,6620,0.0,7e-05,0.00011,-2e-05,1e-05,2.9999999999999997e-05,-1e-05,0.0,2
6365,6621,0.0,7e-05,0.00011,-2e-05,1e-05,2.9999999999999997e-05,-1e-05,0.0,2
6366,6622,0.0,7e-05,0.00011,-2e-05,1e-05,2.9999999999999997e-05,-1e-05,0.0,2
6367,6623,0.0,7e-05,0.00011,-2e-05,1e-05,2.9999999999999997e-05,-1e-05,0.0,2
6368,6624,-0.00088,-0.0009400000000000001,-4e-05,2.9999999999999997e-05,0.0,-5e-05,-2.9999999999999997e-05,-5e-05,2
6369,6625,-0.00088,-0.0009400000000000001,-4e-05,2.9999999999999997e-05,0.0,-5e-05,-2.9999999999999997e-05,-5e-05,2
6370,6626,-0.00088,-0.0009400000000000001,-4e-05,2.9999999999999997e-05,0.0,-5e-05,-2.9999999999999997e-05,-5e-05,2
6371,6627,-0.00088,-0.0009400000000000001,-4e-05,2.9999999999999997e-05,0.0,-5e-05,-2.9999999999999997e-05,-5e-05,2
6372,6628,-0.00088,-0.0009400000000000001,-4e-05,2.9999999999999997e-05,0.0,-5e-05,-2.9999999999999997e-05,-5e-05,2
6373,6629,-0.00088,-0.0009400000000000001,-4e-05,2.9999999999999997e-05,0.0,-5e-05,-2.9999999999999997e-05,-5e-05,2
6374,6630,-0.00088,-0.0009400000000000001,-4e-05,2.9999999999999997e-05,0.0,-5e-05,-2.9999999999999997e-05,-5e-05,2
6375,6631,5e-05,-1e-05,5.9999999999999995e-05,-0.0001,-5.9999999999999995e-05,-5.9999999999999995e-05,-2.9999999999999997e-05,-2e-05,2
6376,6632,5e-05,-1e-05,5.9999999999999995e-05,-0.0001,-5.9999999999999995e-05,-5.9999999999999995e-05,-2.9999999999999997e-05,-2e-05,2
6377,6633,5e-05,-1e-05,5.9999999999999995e-05,-0.0001,-5.9999999999999995e-05,-5.9999999999999995e-05,-2.9999999999999997e-05,-2e-05,2
6378,6634,5e-05,-1e-05,5.9999999999999995e-05,-0.0001,-5.9999999999999995e-05,-5.9999999999999995e-05,-2.9999999999999997e-05,-2e-05,2
6379,6635,5e-05,-1e-05,5.9999999999999995e-05,-0.0001,-5.9999999999999995e-05,-5.9999999999999995e-05,-2.9999999999999997e-05,-2e-05,2
6380,6636,5e-05,-1e-05,5.9999999999999995e-05,-0.0001,-5.9999999999999995e-05,-5.9999999999999995e-05,-2.9999999999999997e-05,-2e-05,2
6381,6638,5e-05,-1e-05,5.9999999999999995e-05,-0.0001,-5.9999999999999995e-05,-5.9999999999999995e-05,-2.9999999999999997e-05,-2e-05,2
6382,6639,0.00018999999999999998,0.00022,2e-05,0.00016999999999999999,0.00011,0.0,-7e-05,-5.9999999999999995e-05,2
6383,6640,0.00018999999999999998,0.00022,2e-05,0.00016999999999999999,0.00011,0.0,-7e-05,-5.9999999999999995e-05,2
6384,6641,0.00018999999999999998,0.00022,2e-05,0.00016999999999999999,0.00011,0.0,-7e-05,-5.9999999999999995e-05,2
6385,6642,0.00018999999999999998,0.00022,2e-05,0.00016999999999999999,0.00011,0.0,-7e-05,-5.9999999999999995e-05,2
6386,6643,0.00018999999999999998,0.00022,2e-05,0.00016999999999999999,0.00011,0.0,-7e-05,-5.9999999999999995e-05,2
6387,6644,0.00018999999999999998,0.00022,2e-05,0.00016999999999999999,0.00011,0.0,-7e-05,-5.9999999999999995e-05,2
6388,6645,0.00018999999999999998,0.00022,2e-05,0.00016999999999999999,0.00011,0.0,-7e-05,-5.9999999999999995e-05,2
6389,6646,0.00018999999999999998,0.00022,2e-05,0.00016999999999999999,0.00011,0.0,-7e-05,-5.9999999999999995e-05,2
6390,6647,0.00018999999999999998,0.00022,2e-05,0.00016999999999999999,0.00011,0.0,-7e-05,-5.9999999999999995e-05,2
6391,6648,0.00018999999999999998,0.00022,2e-05,0.00016999999999999999,0.00011,0.0,-7e-05,-5.9999999999999995e-05,2
6392,6649,0.00018999999999999998,0.00022,2e-05,0.00016999999999999999,0.00011,0.0,-7e-05,-5.9999999999999995e-05,2
6393,6650,0.00018999999999999998,0.00022,2e-05,0.00016999999999999999,0.00011,0.0,-7e-05,-5.9999999999999995e-05,2
6394,6651,0.00018999999999999998,0.00022,2e-05,0.00016999999999999999,0.00011,0.0,-7e-05,-5.9999999999999995e-05,2
6395,6652,0.00018999999999999998,0.00022,2e-05,0.00016999999999999999,0.00011,0.0,-7e-05,-5.9999999999999995e-05,2
6396,6653,0.00018999999999999998,0.00022,2e-05,0.00016999999999999999,0.00011,0.0,-7e-05,-5.9999999999999995e-05,2
6397,6654,0.00018999999999999998,0.00022,2e-05,0.00016999999999999999,0.00011,0.0,-7e-05,-5.9999999999999995e-05,2
6398,6655,-0.00045,-0.00045,-0.00011,-0.0001,-9e-05,-7e-05,-0.00014,-0.00022,2
6399,6656,0.00066,0.0007099999999999999,5.9999999999999995e-05,0.00015,9e-05,8e-05,0.0001,0.00028,2
6400,6657,0.00066,0.0007099999999999999,5.9999999999999995e-05,0.00015,9e-05,8e-05,0.0001,0.00028,2
6401,6658,0.00066,0.0007099999999999999,5.9999999999999995e-05,0.00015,9e-05,8e-05,0.0001,0.00028,2
6402,6659,0.00066,0.0007099999999999999,5.9999999999999995e-05,0.00015,9e-05,8e-05,0.0001,0.00028,2
6403,6660,0.00066,0.0007099999999999999,5.9999999999999995e-05,0.00015,9e-05,8e-05,0.0001,0.00028,2
6404,6661,0.00066,0.0007099999999999999,5.9999999999999995e-05,0.00015,9e-05,8e-05,0.0001,0.00028,2
6405,6662,0.00066,0.0007099999999999999,5.9999999999999995e-05,0.00015,9e-05,8e-05,0.0001,0.00028,2
6406,6663,0.00066,0.0007099999999999999,5.9999999999999995e-05,0.00015,9e-05,8e-05,0.0001,0.00028,2
6407,6664,0.00066,0.0007099999999999999,5.9999999999999995e-05,0.00015,9e-05,8e-05,0.0001,0.00028,2
6408,6665,0.00066,0.0007099999999999999,5.9999999999999995e-05,0.00015,9e-05,8e-05,0.0001,0.00028,2
6409,6666,0.00066,0.0007099999999999999,5.9999999999999995e-05,0.00015,9e-05,8e-05,0.0001,0.00028,2
6410,6667,0.00066,0.0007099999999999999,5.9999999999999995e-05,0.00015,9e-05,8e-05,0.0001,0.00028,2
6411,6668,0.00066,0.0007099999999999999,5.9999999999999995e-05,0.00015,9e-05,8e-05,0.0001,0.00028,2
6412,6669,0.00066,0.0007099999999999999,5.9999999999999995e-05,0.00015,9e-05,8e-05,0.0001,0.00028,2
6413,6670,0.00066,0.0007099999999999999,5.9999999999999995e-05,0.00015,9e-05,8e-05,0.0001,0.00028,2
6414,6671,0.00066,0.0007099999999999999,5.9999999999999995e-05,0.00015,9e-05,8e-05,0.0001,0.00028,2
6415,6672,0.00066,0.0007099999999999999,5.9999999999999995e-05,0.00015,9e-05,8e-05,0.0001,0.00028,2
6416,6673,0.00066,0.0007099999999999999,5.9999999999999995e-05,0.00015,9e-05,8e-05,0.0001,0.00028,2
6417,6674,0.00066,0.0007099999999999999,5.9999999999999995e-05,0.00015,9e-05,8e-05,0.0001,0.00028,2
6418,6675,0.00066,0.0007099999999999999,5.9999999999999995e-05,0.00015,9e-05,8e-05,0.0001,0.00028,2
6419,6676,0.00066,0.0007099999999999999,5.9999999999999995e-05,0.00015,9e-05,8e-05,0.0001,0.00028,2
6420,6677,-0.00023999999999999998,-0.00028,-7e-05,-0.00018,0.0,2.9999999999999997e-05,1e-05,-2.9999999999999997e-05,2
6421,6678,0.0002,0.00037,-0.00014,-0.0003,5.9999999999999995e-05,4e-05,0.0,0.0,2
6422,6679,0.0002,0.00037,-0.00014,-0.0003,5.9999999999999995e-05,4e-05,0.0,0.0,2
6423,6680,0.0002,0.00037,-0.00014,-0.0003,5.9999999999999995e-05,4e-05,0.0,0.0,2
6424,6681,0.0002,0.00037,-0.00014,-0.0003,5.9999999999999995e-05,4e-05,0.0,0.0,2
6425,6682,0.0002,0.00037,-0.00014,-0.0003,5.9999999999999995e-05,4e-05,0.0,0.0,2
6426,6683,0.0002,0.00037,-0.00014,-0.0003,5.9999999999999995e-05,4e-05,0.0,0.0,2
6427,6684,0.0002,0.00037,-0.00014,-0.0003,5.9999999999999995e-05,4e-05,0.0,0.0,2
6428,6685,0.0002,0.00037,-0.00014,-0.0003,5.9999999999999995e-05,4e-05,0.0,0.0,2
6429,6686,0.0002,0.00037,-0.00014,-0.0003,5.9999999999999995e-05,4e-05,0.0,0.0,2
6430,6688,0.0002,0.00037,-0.00014,-0.0003,5.9999999999999995e-05,4e-05,0.0,0.0,2
6431,6689,0.0002,0.00037,-0.00014,-0.0003,5.9999999999999995e-05,4e-05,0.0,0.0,2
6432,6690,0.0002,0.00037,-0.00014,-0.0003,5.9999999999999995e-05,4e-05,0.0,0.0,2
6433,6691,0.0002,0.00037,-0.00014,-0.0003,5.9999999999999995e-05,4e-05,0.0,0.0,2
6434,6692,-7e-05,-0.00018999999999999998,-0.00011999999999999999,0.00037,2e-05,0.0,2.9999999999999997e-05,2e-05,2
6435,6693,0.00018999999999999998,-0.00011999999999999999,7e-05,0.0002,9e-05,-1e-05,4e-05,5e-05,2
6436,6694,0.00018999999999999998,-0.00011999999999999999,7e-05,0.0002,9e-05,-1e-05,4e-05,5e-05,2
6437,6695,0.00018999999999999998,-0.00011999999999999999,7e-05,0.0002,9e-05,-1e-05,4e-05,5e-05,2
6438,6696,0.00018999999999999998,-0.00011999999999999999,7e-05,0.0002,9e-05,-1e-05,4e-05,5e-05,2
6439,6697,0.00018999999999999998,-0.00011999999999999999,7e-05,0.0002,9e-05,-1e-05,4e-05,5e-05,2
6440,6698,0.00018999999999999998,-0.00011999999999999999,7e-05,0.0002,9e-05,-1e-05,4e-05,5e-05,2
6441,6699,0.00018999999999999998,-0.00011999999999999999,7e-05,0.0002,9e-05,-1e-05,4e-05,5e-05,2
6442,6700,0.00018999999999999998,-0.00011999999999999999,7e-05,0.0002,9e-05,-1e-05,4e-05,5e-05,2
6443,6701,0.00018999999999999998,-0.00011999999999999999,7e-05,0.0002,9e-05,-1e-05,4e-05,5e-05,2
6444,6702,0.00018999999999999998,-0.00011999999999999999,7e-05,0.0002,9e-05,-1e-05,4e-05,5e-05,2
6445,6703,0.00018999999999999998,-0.00011999999999999999,7e-05,0.0002,9e-05,-1e-05,4e-05,5e-05,2
6446,6704,0.00018999999999999998,-0.00011999999999999999,7e-05,0.0002,9e-05,-1e-05,4e-05,5e-05,2
6447,6705,0.00018999999999999998,-0.00011999999999999999,7e-05,0.0002,9e-05,-1e-05,4e-05,5e-05,2
6448,6706,0.00018999999999999998,-0.00011999999999999999,7e-05,0.0002,9e-05,-1e-05,4e-05,5e-05,2
6449,6707,0.00018999999999999998,-0.00011999999999999999,7e-05,0.0002,9e-05,-1e-05,4e-05,5e-05,2
6450,6708,0.00018999999999999998,-0.00011999999999999999,7e-05,0.0002,9e-05,-1e-05,4e-05,5e-05,2
6451,6709,0.00018999999999999998,-0.00011999999999999999,7e-05,0.0002,9e-05,-1e-05,4e-05,5e-05,2
6452,6710,0.00018999999999999998,-0.00011999999999999999,7e-05,0.0002,9e-05,-1e-05,4e-05,5e-05,2
6453,6712,0.00018999999999999998,-0.00011999999999999999,7e-05,0.0002,9e-05,-1e-05,4e-05,5e-05,2
6454,6713,0.00018999999999999998,-0.00011999999999999999,7e-05,0.0002,9e-05,-1e-05,4e-05,5e-05,2
6455,6714,-0.0006900000000000001,-0.00027,0.0,-4e-05,-0.00016,-9e-05,-5e-05,-0.00014,2
6456,6715,0.00028,0.00018999999999999998,-1e-05,-0.00028,-4e-05,-2e-05,-2e-05,-5e-05,2
6457,6716,0.00028,0.00018999999999999998,-1e-05,-0.00028,-4e-05,-2e-05,-2e-05,-5e-05,2
6458,6717,0.00028,0.00018999999999999998,-1e-05,-0.00028,-4e-05,-2e-05,-2e-05,-5e-05,2
6459,6718,0.00028,0.00018999999999999998,-1e-05,-0.00028,-4e-05,-2e-05,-2e-05,-5e-05,2
6460,6719,0.00028,0.00018999999999999998,-1e-05,-0.00028,-4e-05,-2e-05,-2e-05,-5e-05,2
6461,6720,0.00028,0.00018999999999999998,-1e-05,-0.00028,-4e-05,-2e-05,-2e-05,-5e-05,2
6462,6721,0.00028,0.00018999999999999998,-1e-05,-0.00028,-4e-05,-2e-05,-2e-05,-5e-05,2
6463,6722,0.00028,0.00018999999999999998,-1e-05,-0.00028,-4e-05,-2e-05,-2e-05,-5e-05,2
6464,6723,0.00028,0.00018999999999999998,-1e-05,-0.00028,-4e-05,-2e-05,-2e-05,-5e-05,2
6465,6724,0.00028,0.00018999999999999998,-1e-05,-0.00028,-4e-05,-2e-05,-2e-05,-5e-05,2
6466,6725,0.00028,0.00018999999999999998,-1e-05,-0.00028,-4e-05,-2e-05,-2e-05,-5e-05,2
6467,6726,0.00028,0.00018999999999999998,-1e-05,-0.00028,-4e-05,-2e-05,-2e-05,-5e-05,2
6468,6727,0.00028,0.00018999999999999998,-1e-05,-0.00028,-4e-05,-2e-05,-2e-05,-5e-05,2
6469,6728,0.00028,0.00018999999999999998,-1e-05,-0.00028,-4e-05,-2e-05,-2e-05,-5e-05,2
6470,6729,0.00028,0.00018999999999999998,-1e-05,-0.00028,-4e-05,-2e-05,-2e-05,-5e-05,2
6471,6730,0.00028,0.00018999999999999998,-1e-05,-0.00028,-4e-05,-2e-05,-2e-05,-5e-05,2
6472,6731,0.00028,0.00018999999999999998,-1e-05,-0.00028,-4e-05,-2e-05,-2e-05,-5e-05,2
6473,6732,0.00028,0.00018999999999999998,-1e-05,-0.00028,-4e-05,-2e-05,-2e-05,-5e-05,2
6474,6733,0.00028,0.00018999999999999998,-1e-05,-0.00028,-4e-05,-2e-05,-2e-05,-5e-05,2
6475,6734,0.00028,0.00018999999999999998,-1e-05,-0.00028,-4e-05,-2e-05,-2e-05,-5e-05,2
6476,6735,0.00028,0.00018999999999999998,-1e-05,-0.00028,-4e-05,-2e-05,-2e-05,-5e-05,2
6477,6736,0.00028,0.00018999999999999998,-1e-05,-0.00028,-4e-05,-2e-05,-2e-05,-5e-05,2
6478,6738,-0.00049,-0.00056,-0.00029,-0.00016,-0.00025,-0.00015,-0.0001,-0.00022,2
6479,6739,-0.00049,-0.00056,-0.00029,-0.00016,-0.00025,-0.00015,-0.0001,-0.00022,2
6480,6740,-0.00049,-0.00056,-0.00029,-0.00016,-0.00025,-0.00015,-0.0001,-0.00022,2
6481,6741,-0.00049,-0.00056,-0.00029,-0.00016,-0.00025,-0.00015,-0.0001,-0.00022,2
6482,6742,-0.00049,-0.00056,-0.00029,-0.00016,-0.00025,-0.00015,-0.0001,-0.00022,2
6483,6743,-0.00049,-0.00056,-0.00029,-0.00016,-0.00025,-0.00015,-0.0001,-0.00022,2
6484,6744,-0.00049,-0.00056,-0.00029,-0.00016,-0.00025,-0.00015,-0.0001,-0.00022,2
6485,6745,-0.00049,-0.00056,-0.00029,-0.00016,-0.00025,-0.00015,-0.0001,-0.00022,2
6486,6746,-0.00049,-0.00056,-0.00029,-0.00016,-0.00025,-0.00015,-0.0001,-0.00022,2
6487,6747,-0.00049,-0.00056,-0.00029,-0.00016,-0.00025,-0.00015,-0.0001,-0.00022,2
6488,6748,-0.00049,-0.00056,-0.00029,-0.00016,-0.00025,-0.00015,-0.0001,-0.00022,2
6489,6749,-0.00049,-0.00056,-0.00029,-0.00016,-0.00025,-0.00015,-0.0001,-0.00022,2
6490,6750,-0.00049,-0.00056,-0.00029,-0.00016,-0.00025,-0.00015,-0.0001,-0.00022,2
6491,6751,-0.00049,-0.00056,-0.00029,-0.00016,-0.00025,-0.00015,-0.0001,-0.00022,2
6492,6752,-0.00049,-0.00056,-0.00029,-0.00016,-0.00025,-0.00015,-0.0001,-0.00022,2
6493,6753,4e-05,0.00016,-7e-05,2.9999999999999997e-05,0.00021,7e-05,5e-05,2.9999999999999997e-05,2
6494,6754,-0.00047999999999999996,-0.00074,1e-05,-1e-05,5e-05,5e-05,-1e-05,-0.00011,2
6495,6755,-0.00047999999999999996,-0.00074,1e-05,-1e-05,5e-05,5e-05,-1e-05,-0.00011,2
6496,6756,-0.00047999999999999996,-0.00074,1e-05,-1e-05,5e-05,5e-05,-1e-05,-0.00011,2
6497,6757,-0.00047999999999999996,-0.00074,1e-05,-1e-05,5e-05,5e-05,-1e-05,-0.00011,2
6498,6758,-0.00047999999999999996,-0.00074,1e-05,-1e-05,5e-05,5e-05,-1e-05,-0.00011,2
6499,6759,-0.00047999999999999996,-0.00074,1e-05,-1e-05,5e-05,5e-05,-1e-05,-0.00011,2
6500,6760,-0.00047999999999999996,-0.00074,1e-05,-1e-05,5e-05,5e-05,-1e-05,-0.00011,2
6501,6761,-0.00047999999999999996,-0.00074,1e-05,-1e-05,5e-05,5e-05,-1e-05,-0.00011,2
6502,6762,-0.00047999999999999996,-0.00074,1e-05,-1e-05,5e-05,5e-05,-1e-05,-0.00011,2
6503,6763,-0.00047999999999999996,-0.00074,1e-05,-1e-05,5e-05,5e-05,-1e-05,-0.00011,2
6504,6764,-0.00047999999999999996,-0.00074,1e-05,-1e-05,5e-05,5e-05,-1e-05,-0.00011,2
6505,6765,-0.00047999999999999996,-0.00074,1e-05,-1e-05,5e-05,5e-05,-1e-05,-0.00011,2
6506,6766,-0.00047999999999999996,-0.00074,1e-05,-1e-05,5e-05,5e-05,-1e-05,-0.00011,2
6507,6767,-0.00047999999999999996,-0.00074,1e-05,-1e-05,5e-05,5e-05,-1e-05,-0.00011,2
6508,6768,-0.00047999999999999996,-0.00074,1e-05,-1e-05,5e-05,5e-05,-1e-05,-0.00011,2
6509,6769,-0.00047999999999999996,-0.00074,1e-05,-1e-05,5e-05,5e-05,-1e-05,-0.00011,2
6510,6770,-0.00047999999999999996,-0.00074,1e-05,-1e-05,5e-05,5e-05,-1e-05,-0.00011,2
6511,6771,-0.00047999999999999996,-0.00074,1e-05,-1e-05,5e-05,5e-05,-1e-05,-0.00011,2
6512,6772,-0.00047999999999999996,-0.00074,1e-05,-1e-05,5e-05,5e-05,-1e-05,-0.00011,2
6513,6773,-0.00047999999999999996,-0.00074,1e-05,-1e-05,5e-05,5e-05,-1e-05,-0.00011,2
6514,6774,-0.00047999999999999996,-0.00074,1e-05,-1e-05,5e-05,5e-05,-1e-05,-0.00011,2
6515,6775,-0.00047999999999999996,-0.00074,1e-05,-1e-05,5e-05,5e-05,-1e-05,-0.00011,2
6516,6776,-0.00047999999999999996,-0.00074,1e-05,-1e-05,5e-05,5e-05,-1e-05,-0.00011,2
6517,6777,-0.00047999999999999996,-0.00074,1e-05,-1e-05,5e-05,5e-05,-1e-05,-0.00011,2
6518,6778,-0.00047999999999999996,-0.00074,1e-05,-1e-05,5e-05,5e-05,-1e-05,-0.00011,2
6519,6779,-0.00047999999999999996,-0.00074,1e-05,-1e-05,5e-05,5e-05,-1e-05,-0.00011,2
6520,6780,-0.00047999999999999996,-0.00074,1e-05,-1e-05,5e-05,5e-05,-1e-05,-0.00011,2
6521,6781,-0.00047999999999999996,-0.00074,1e-05,-1e-05,5e-05,5e-05,-1e-05,-0.00011,2
6522,6782,-0.00047999999999999996,-0.00074,1e-05,-1e-05,5e-05,5e-05,-1e-05,-0.00011,2
6523,6783,0.00028,0.00025,0.00016,0.0002,0.0,-1e-05,-2.9999999999999997e-05,8e-05,2
6524,6784,0.00028,0.00025,0.00016,0.0002,0.0,-1e-05,-2.9999999999999997e-05,8e-05,2
6525,6785,0.00028,0.00025,0.00016,0.0002,0.0,-1e-05,-2.9999999999999997e-05,8e-05,2
6526,6786,0.00028,0.00025,0.00016,0.0002,0.0,-1e-05,-2.9999999999999997e-05,8e-05,2
6527,6788,0.00028,0.00025,0.00016,0.0002,0.0,-1e-05,-2.9999999999999997e-05,8e-05,2
6528,6789,0.00028,0.00025,0.00016,0.0002,0.0,-1e-05,-2.9999999999999997e-05,8e-05,2
6529,6790,0.00028,0.00025,0.00016,0.0002,0.0,-1e-05,-2.9999999999999997e-05,8e-05,2
6530,6791,0.00028,0.00025,0.00016,0.0002,0.0,-1e-05,-2.9999999999999997e-05,8e-05,2
6531,6792,0.00028,0.00025,0.00016,0.0002,0.0,-1e-05,-2.9999999999999997e-05,8e-05,2
6532,6793,0.00028,0.00025,0.00016,0.0002,0.0,-1e-05,-2.9999999999999997e-05,8e-05,2
6533,6794,0.00028,0.00025,0.00016,0.0002,0.0,-1e-05,-2.9999999999999997e-05,8e-05,2
6534,6795,0.00028,0.00025,0.00016,0.0002,0.0,-1e-05,-2.9999999999999997e-05,8e-05,2
6535,6796,0.00028,0.00025,0.00016,0.0002,0.0,-1e-05,-2.9999999999999997e-05,8e-05,2
6536,6797,0.00028,0.00025,0.00016,0.0002,0.0,-1e-05,-2.9999999999999997e-05,8e-05,2
6537,6798,0.00028,0.00025,0.00016,0.0002,0.0,-1e-05,-2.9999999999999997e-05,8e-05,2
6538,6799,0.00028,0.00025,0.00016,0.0002,0.0,-1e-05,-2.9999999999999997e-05,8e-05,2
6539,6800,0.00028,0.00025,0.00016,0.0002,0.0,-1e-05,-2.9999999999999997e-05,8e-05,2
6540,6801,0.00028,0.00025,0.00016,0.0002,0.0,-1e-05,-2.9999999999999997e-05,8e-05,2
6541,6802,0.00028,0.00025,0.00016,0.0002,0.0,-1e-05,-2.9999999999999997e-05,8e-05,2
6542,6803,0.00028,0.00025,0.00016,0.0002,0.0,-1e-05,-2.9999999999999997e-05,8e-05,2
6543,6804,0.00028,0.00025,0.00016,0.0002,0.0,-1e-05,-2.9999999999999997e-05,8e-05,2
6544,6805,0.00028,0.00025,0.00016,0.0002,0.0,-1e-05,-2.9999999999999997e-05,8e-05,2
6545,6806,0.00032,0.00033,0.00042,0.00026000000000000003,0.0,-2e-05,-2e-05,2.9999999999999997e-05,2
6546,6807,-0.0005200000000000001,-0.00028,0.00016999999999999999,0.00025,5.9999999999999995e-05,-2e-05,-2e-05,-9e-05,2
6547,6808,-0.0005200000000000001,-0.00028,0.00016999999999999999,0.00025,5.9999999999999995e-05,-2e-05,-2e-05,-9e-05,2
6548,6809,-0.0005200000000000001,-0.00028,0.00016999999999999999,0.00025,5.9999999999999995e-05,-2e-05,-2e-05,-9e-05,2
6549,6810,-0.0005200000000000001,-0.00028,0.00016999999999999999,0.00025,5.9999999999999995e-05,-2e-05,-2e-05,-9e-05,2
6550,6811,-0.0005200000000000001,-0.00028,0.00016999999999999999,0.00025,5.9999999999999995e-05,-2e-05,-2e-05,-9e-05,2
6551,6812,-0.0005200000000000001,-0.00028,0.00016999999999999999,0.00025,5.9999999999999995e-05,-2e-05,-2e-05,-9e-05,2
6552,6813,0.00067,0.00059,-4e-05,7e-05,-2.9999999999999997e-05,-8e-05,-1e-05,0.00013000000000000002,2
6553,6814,0.00067,0.00059,-4e-05,7e-05,-2.9999999999999997e-05,-8e-05,-1e-05,0.00013000000000000002,2
6554,6815,0.00067,0.00059,-4e-05,7e-05,-2.9999999999999997e-05,-8e-05,-1e-05,0.00013000000000000002,2
6555,6816,0.00067,0.00059,-4e-05,7e-05,-2.9999999999999997e-05,-8e-05,-1e-05,0.00013000000000000002,2
6556,6817,0.00067,0.00059,-4e-05,7e-05,-2.9999999999999997e-05,-8e-05,-1e-05,0.00013000000000000002,2
6557,6818,0.00067,0.00059,-4e-05,7e-05,-2.9999999999999997e-05,-8e-05,-1e-05,0.00013000000000000002,2
6558,6819,0.00067,0.00059,-4e-05,7e-05,-2.9999999999999997e-05,-8e-05,-1e-05,0.00013000000000000002,2
6559,6820,0.00067,0.00059,-4e-05,7e-05,-2.9999999999999997e-05,-8e-05,-1e-05,0.00013000000000000002,2
6560,6821,0.00067,0.00059,-4e-05,7e-05,-2.9999999999999997e-05,-8e-05,-1e-05,0.00013000000000000002,2
6561,6822,0.00067,0.00059,-4e-05,7e-05,-2.9999999999999997e-05,-8e-05,-1e-05,0.00013000000000000002,2
6562,6823,0.00067,0.00059,-4e-05,7e-05,-2.9999999999999997e-05,-8e-05,-1e-05,0.00013000000000000002,2
6563,6824,0.00067,0.00059,-4e-05,7e-05,-2.9999999999999997e-05,-8e-05,-1e-05,0.00013000000000000002,2
6564,6825,0.00067,0.00059,-4e-05,7e-05,-2.9999999999999997e-05,-8e-05,-1e-05,0.00013000000000000002,2
6565,6826,0.00067,0.00059,-4e-05,7e-05,-2.9999999999999997e-05,-8e-05,-1e-05,0.00013000000000000002,2
6566,6827,4e-05,0.00018,2e-05,-0.00022999999999999998,-2.9999999999999997e-05,2.9999999999999997e-05,2.9999999999999997e-05,0.00011999999999999999,2
6567,6828,4e-05,0.00018,2e-05,-0.00022999999999999998,-2.9999999999999997e-05,2.9999999999999997e-05,2.9999999999999997e-05,0.00011999999999999999,2
6568,6829,4e-05,0.00018,2e-05,-0.00022999999999999998,-2.9999999999999997e-05,2.9999999999999997e-05,2.9999999999999997e-05,0.00011999999999999999,2
6569,6830,4e-05,0.00018,2e-05,-0.00022999999999999998,-2.9999999999999997e-05,2.9999999999999997e-05,2.9999999999999997e-05,0.00011999999999999999,2
6570,6831,4e-05,0.00018,2e-05,-0.00022999999999999998,-2.9999999999999997e-05,2.9999999999999997e-05,2.9999999999999997e-05,0.00011999999999999999,2
6571,6832,4e-05,0.00018,2e-05,-0.00022999999999999998,-2.9999999999999997e-05,2.9999999999999997e-05,2.9999999999999997e-05,0.00011999999999999999,2
6572,6833,4e-05,0.00018,2e-05,-0.00022999999999999998,-2.9999999999999997e-05,2.9999999999999997e-05,2.9999999999999997e-05,0.00011999999999999999,2
6573,6834,-0.00028,-0.00056,-4e-05,-0.00014,4e-05,-9e-05,-0.00013000000000000002,-0.0002,2
6574,6835,2.9999999999999997e-05,0.0001,2e-05,0.00032,-0.0001,-4e-05,-2.9999999999999997e-05,-1e-05,2
6575,6836,2.9999999999999997e-05,0.0001,2e-05,0.00032,-0.0001,-4e-05,-2.9999999999999997e-05,-1e-05,2
6576,6838,2.9999999999999997e-05,0.0001,2e-05,0.00032,-0.0001,-4e-05,-2.9999999999999997e-05,-1e-05,2
6577,6839,2.9999999999999997e-05,0.0001,2e-05,0.00032,-0.0001,-4e-05,-2.9999999999999997e-05,-1e-05,2
6578,6840,2.9999999999999997e-05,0.0001,2e-05,0.00032,-0.0001,-4e-05,-2.9999999999999997e-05,-1e-05,2
6579,6841,2.9999999999999997e-05,0.0001,2e-05,0.00032,-0.0001,-4e-05,-2.9999999999999997e-05,-1e-05,2
6580,6842,2.9999999999999997e-05,0.0001,2e-05,0.00032,-0.0001,-4e-05,-2.9999999999999997e-05,-1e-05,2
6581,6843,2.9999999999999997e-05,0.0001,2e-05,0.00032,-0.0001,-4e-05,-2.9999999999999997e-05,-1e-05,2
6582,6844,2.9999999999999997e-05,0.0001,2e-05,0.00032,-0.0001,-4e-05,-2.9999999999999997e-05,-1e-05,2
6583,6845,2.9999999999999997e-05,0.0001,2e-05,0.00032,-0.0001,-4e-05,-2.9999999999999997e-05,-1e-05,2
6584,6846,2.9999999999999997e-05,0.0001,2e-05,0.00032,-0.0001,-4e-05,-2.9999999999999997e-05,-1e-05,2
6585,6847,2.9999999999999997e-05,0.0001,2e-05,0.00032,-0.0001,-4e-05,-2.9999999999999997e-05,-1e-05,2
6586,6848,2.9999999999999997e-05,0.0001,2e-05,0.00032,-0.0001,-4e-05,-2.9999999999999997e-05,-1e-05,2
6587,6849,2.9999999999999997e-05,0.0001,2e-05,0.00032,-0.0001,-4e-05,-2.9999999999999997e-05,-1e-05,2
6588,6850,2.9999999999999997e-05,0.0001,2e-05,0.00032,-0.0001,-4e-05,-2.9999999999999997e-05,-1e-05,2
6589,6851,2.9999999999999997e-05,0.0001,2e-05,0.00032,-0.0001,-4e-05,-2.9999999999999997e-05,-1e-05,2
6590,6852,2.9999999999999997e-05,0.0001,2e-05,0.00032,-0.0001,-4e-05,-2.9999999999999997e-05,-1e-05,2
6591,6853,2.9999999999999997e-05,0.0001,2e-05,0.00032,-0.0001,-4e-05,-2.9999999999999997e-05,-1e-05,2
6592,6854,2.9999999999999997e-05,0.0001,2e-05,0.00032,-0.0001,-4e-05,-2.9999999999999997e-05,-1e-05,2
6593,6855,2.9999999999999997e-05,0.0001,2e-05,0.00032,-0.0001,-4e-05,-2.9999999999999997e-05,-1e-05,2
6594,6856,2.9999999999999997e-05,0.0001,2e-05,0.00032,-0.0001,-4e-05,-2.9999999999999997e-05,-1e-05,2
6595,6857,2.9999999999999997e-05,0.0001,2e-05,0.00032,-0.0001,-4e-05,-2.9999999999999997e-05,-1e-05,2
6596,6858,0.00047999999999999996,0.00011,-8e-05,-0.00025,0.00011,5.9999999999999995e-05,1e-05,4e-05,2
6597,6859,0.00047999999999999996,0.00011,-8e-05,-0.00025,0.00011,5.9999999999999995e-05,1e-05,4e-05,2
6598,6861,0.00047999999999999996,0.00011,-8e-05,-0.00025,0.00011,5.9999999999999995e-05,1e-05,4e-05,2
6599,6862,0.00047999999999999996,0.00011,-8e-05,-0.00025,0.00011,5.9999999999999995e-05,1e-05,4e-05,2
6600,6863,0.00047999999999999996,0.00011,-8e-05,-0.00025,0.00011,5.9999999999999995e-05,1e-05,4e-05,2
6601,6864,0.00047999999999999996,0.00011,-8e-05,-0.00025,0.00011,5.9999999999999995e-05,1e-05,4e-05,2
6602,6865,0.00047999999999999996,0.00011,-8e-05,-0.00025,0.00011,5.9999999999999995e-05,1e-05,4e-05,2
6603,6866,0.00047999999999999996,0.00011,-8e-05,-0.00025,0.00011,5.9999999999999995e-05,1e-05,4e-05,2
6604,6867,0.00047999999999999996,0.00011,-8e-05,-0.00025,0.00011,5.9999999999999995e-05,1e-05,4e-05,2
6605,6868,0.00047999999999999996,0.00011,-8e-05,-0.00025,0.00011,5.9999999999999995e-05,1e-05,4e-05,2
6606,6869,0.00047999999999999996,0.00011,-8e-05,-0.00025,0.00011,5.9999999999999995e-05,1e-05,4e-05,2
6607,6870,0.00047999999999999996,0.00011,-8e-05,-0.00025,0.00011,5.9999999999999995e-05,1e-05,4e-05,2
6608,6871,-0.00018,-7e-05,-0.00025,0.00037999999999999997,5e-05,-7e-05,-5e-05,-8e-05,2
6609,6872,-0.00018,-7e-05,-0.00025,0.00037999999999999997,5e-05,-7e-05,-5e-05,-8e-05,2
6610,6873,-0.00018,-7e-05,-0.00025,0.00037999999999999997,5e-05,-7e-05,-5e-05,-8e-05,2
6611,6874,-0.00018,-7e-05,-0.00025,0.00037999999999999997,5e-05,-7e-05,-5e-05,-8e-05,2
6612,6875,-0.00018,-7e-05,-0.00025,0.00037999999999999997,5e-05,-7e-05,-5e-05,-8e-05,2
6613,6876,-0.00018,-7e-05,-0.00025,0.00037999999999999997,5e-05,-7e-05,-5e-05,-8e-05,2
6614,6877,-0.00018,-7e-05,-0.00025,0.00037999999999999997,5e-05,-7e-05,-5e-05,-8e-05,2
6615,6878,-0.00018,-7e-05,-0.00025,0.00037999999999999997,5e-05,-7e-05,-5e-05,-8e-05,2
6616,6879,0.00014,-8e-05,0.00015,9e-05,0.00018,5e-05,-1e-05,-2e-05,2
6617,6880,0.00014,-8e-05,0.00015,9e-05,0.00018,5e-05,-1e-05,-2e-05,2
6618,6881,0.00014,-8e-05,0.00015,9e-05,0.00018,5e-05,-1e-05,-2e-05,2
6619,6882,0.00014,-8e-05,0.00015,9e-05,0.00018,5e-05,-1e-05,-2e-05,2
6620,6883,0.00014,-8e-05,0.00015,9e-05,0.00018,5e-05,-1e-05,-2e-05,2
6621,6884,0.00014,-8e-05,0.00015,9e-05,0.00018,5e-05,-1e-05,-2e-05,2
6622,6885,0.00014,-8e-05,0.00015,9e-05,0.00018,5e-05,-1e-05,-2e-05,2
6623,6886,0.00014,-8e-05,0.00015,9e-05,0.00018,5e-05,-1e-05,-2e-05,2
6624,6888,0.00014,-8e-05,0.00015,9e-05,0.00018,5e-05,-1e-05,-2e-05,2
6625,6889,0.00014,-8e-05,0.00015,9e-05,0.00018,5e-05,-1e-05,-2e-05,2
6626,6890,0.00014,-8e-05,0.00015,9e-05,0.00018,5e-05,-1e-05,-2e-05,2
6627,6891,0.00014,-8e-05,0.00015,9e-05,0.00018,5e-05,-1e-05,-2e-05,2
6628,6892,0.00014,-8e-05,0.00015,9e-05,0.00018,5e-05,-1e-05,-2e-05,2
6629,6893,0.00014,-8e-05,0.00015,9e-05,0.00018,5e-05,-1e-05,-2e-05,2
6630,6894,0.00018,0.00026000000000000003,1e-05,0.0,5e-05,-2.9999999999999997e-05,1e-05,-2.9999999999999997e-05,2
6631,6895,0.00032,0.00011999999999999999,-0.00016,-0.00053,-4e-05,1e-05,2e-05,0.0001,2
6632,6896,0.00032,0.00011999999999999999,-0.00016,-0.00053,-4e-05,1e-05,2e-05,0.0001,2
6633,6897,0.00032,0.00011999999999999999,-0.00016,-0.00053,-4e-05,1e-05,2e-05,0.0001,2
6634,6898,0.00032,0.00011999999999999999,-0.00016,-0.00053,-4e-05,1e-05,2e-05,0.0001,2
6635,6899,0.00032,0.00011999999999999999,-0.00016,-0.00053,-4e-05,1e-05,2e-05,0.0001,2
6636,6900,0.00032,0.00011999999999999999,-0.00016,-0.00053,-4e-05,1e-05,2e-05,0.0001,2
6637,6901,0.00032,0.00011999999999999999,-0.00016,-0.00053,-4e-05,1e-05,2e-05,0.0001,2
6638,6902,0.00032,0.00011999999999999999,-0.00016,-0.00053,-4e-05,1e-05,2e-05,0.0001,2
6639,6903,0.00032,0.00011999999999999999,-0.00016,-0.00053,-4e-05,1e-05,2e-05,0.0001,2
6640,6904,0.00032,0.00011999999999999999,-0.00016,-0.00053,-4e-05,1e-05,2e-05,0.0001,2
6641,6905,0.00032,0.00011999999999999999,-0.00016,-0.00053,-4e-05,1e-05,2e-05,0.0001,2
6642,6906,0.00032,0.00011999999999999999,-0.00016,-0.00053,-4e-05,1e-05,2e-05,0.0001,2
6643,6907,0.00032,0.00011999999999999999,-0.00016,-0.00053,-4e-05,1e-05,2e-05,0.0001,2
6644,6908,0.00032,0.00011999999999999999,-0.00016,-0.00053,-4e-05,1e-05,2e-05,0.0001,2
6645,6909,0.00032,0.00011999999999999999,-0.00016,-0.00053,-4e-05,1e-05,2e-05,0.0001,2
6646,6910,0.00032,0.00011999999999999999,-0.00016,-0.00053,-4e-05,1e-05,2e-05,0.0001,2
6647,6911,0.00032,0.00011999999999999999,-0.00016,-0.00053,-4e-05,1e-05,2e-05,0.0001,2
6648,6912,0.00032,0.00011999999999999999,-0.00016,-0.00053,-4e-05,1e-05,2e-05,0.0001,2
6649,6913,0.00032,0.00011999999999999999,-0.00016,-0.00053,-4e-05,1e-05,2e-05,0.0001,2
6650,6914,0.00032,0.00011999999999999999,-0.00016,-0.00053,-4e-05,1e-05,2e-05,0.0001,2
6651,6915,0.00032,0.00011999999999999999,-0.00016,-0.00053,-4e-05,1e-05,2e-05,0.0001,2
6652,6916,0.00032,0.00011999999999999999,-0.00016,-0.00053,-4e-05,1e-05,2e-05,0.0001,2
6653,6917,-1e-05,-0.00011999999999999999,-2e-05,0.00023999999999999998,8e-05,-2.9999999999999997e-05,-4e-05,-2e-05,2
6654,6918,-5.9999999999999995e-05,-0.00065,-7e-05,-0.00016,-0.00015,-0.0001,-2e-05,-2.9999999999999997e-05,2
6655,6919,-5.9999999999999995e-05,-0.00065,-7e-05,-0.00016,-0.00015,-0.0001,-2e-05,-2.9999999999999997e-05,2
6656,6920,-5.9999999999999995e-05,-0.00065,-7e-05,-0.00016,-0.00015,-0.0001,-2e-05,-2.9999999999999997e-05,2
6657,6921,-5.9999999999999995e-05,-0.00065,-7e-05,-0.00016,-0.00015,-0.0001,-2e-05,-2.9999999999999997e-05,2
6658,6922,-5.9999999999999995e-05,-0.00065,-7e-05,-0.00016,-0.00015,-0.0001,-2e-05,-2.9999999999999997e-05,2
6659,6923,-5.9999999999999995e-05,-0.00065,-7e-05,-0.00016,-0.00015,-0.0001,-2e-05,-2.9999999999999997e-05,2
6660,6924,-5.9999999999999995e-05,-0.00065,-7e-05,-0.00016,-0.00015,-0.0001,-2e-05,-2.9999999999999997e-05,2
6661,6925,-5.9999999999999995e-05,-0.00065,-7e-05,-0.00016,-0.00015,-0.0001,-2e-05,-2.9999999999999997e-05,2
6662,6926,-5.9999999999999995e-05,-0.00065,-7e-05,-0.00016,-0.00015,-0.0001,-2e-05,-2.9999999999999997e-05,2
6663,6927,-5.9999999999999995e-05,-0.00065,-7e-05,-0.00016,-0.00015,-0.0001,-2e-05,-2.9999999999999997e-05,2
6664,6928,-5.9999999999999995e-05,-0.00065,-7e-05,-0.00016,-0.00015,-0.0001,-2e-05,-2.9999999999999997e-05,2
6665,6929,-5.9999999999999995e-05,-0.00065,-7e-05,-0.00016,-0.00015,-0.0001,-2e-05,-2.9999999999999997e-05,2
6666,6930,-5.9999999999999995e-05,-0.00065,-7e-05,-0.00016,-0.00015,-0.0001,-2e-05,-2.9999999999999997e-05,2
6667,6931,0.00037999999999999997,0.00045999999999999996,-0.0002,-2e-05,-0.00011999999999999999,-9e-05,1e-05,0.0001,2
6668,6932,0.00037999999999999997,0.00045999999999999996,-0.0002,-2e-05,-0.00011999999999999999,-9e-05,1e-05,0.0001,2
6669,6933,0.00037999999999999997,0.00045999999999999996,-0.0002,-2e-05,-0.00011999999999999999,-9e-05,1e-05,0.0001,2
6670,6934,0.00037999999999999997,0.00045999999999999996,-0.0002,-2e-05,-0.00011999999999999999,-9e-05,1e-05,0.0001,2
6671,6935,0.00037999999999999997,0.00045999999999999996,-0.0002,-2e-05,-0.00011999999999999999,-9e-05,1e-05,0.0001,2
6672,6936,0.00037999999999999997,0.00045999999999999996,-0.0002,-2e-05,-0.00011999999999999999,-9e-05,1e-05,0.0001,2
6673,6938,0.00037999999999999997,0.00045999999999999996,-0.0002,-2e-05,-0.00011999999999999999,-9e-05,1e-05,0.0001,2
6674,6939,-0.00022999999999999998,-0.00011,-0.00029,-0.00095,-8e-05,1e-05,-0.00016999999999999999,-0.0002,2
6675,6940,-0.00022999999999999998,-0.00011,-0.00029,-0.00095,-8e-05,1e-05,-0.00016999999999999999,-0.0002,2
6676,6941,-0.00022999999999999998,-0.00011,-0.00029,-0.00095,-8e-05,1e-05,-0.00016999999999999999,-0.0002,2
6677,6942,-0.00022999999999999998,-0.00011,-0.00029,-0.00095,-8e-05,1e-05,-0.00016999999999999999,-0.0002,2
6678,6943,-0.00022999999999999998,-0.00011,-0.00029,-0.00095,-8e-05,1e-05,-0.00016999999999999999,-0.0002,2
6679,6944,-0.00022999999999999998,-0.00011,-0.00029,-0.00095,-8e-05,1e-05,-0.00016999999999999999,-0.0002,2
6680,6945,-0.00022999999999999998,-0.00011,-0.00029,-0.00095,-8e-05,1e-05,-0.00016999999999999999,-0.0002,2
6681,6946,-0.00022999999999999998,-0.00011,-0.00029,-0.00095,-8e-05,1e-05,-0.00016999999999999999,-0.0002,2
6682,6947,-0.00022999999999999998,-0.00011,-0.00029,-0.00095,-8e-05,1e-05,-0.00016999999999999999,-0.0002,2
6683,6948,-0.00022999999999999998,-0.00011,-0.00029,-0.00095,-8e-05,1e-05,-0.00016999999999999999,-0.0002,2
6684,6949,-0.00022999999999999998,-0.00011,-0.00029,-0.00095,-8e-05,1e-05,-0.00016999999999999999,-0.0002,2
6685,6950,-0.00022999999999999998,-0.00011,-0.00029,-0.00095,-8e-05,1e-05,-0.00016999999999999999,-0.0002,2
6686,6951,-0.00022999999999999998,-0.00011,-0.00029,-0.00095,-8e-05,1e-05,-0.00016999999999999999,-0.0002,2
6687,6952,-0.00022999999999999998,-0.00011,-0.00029,-0.00095,-8e-05,1e-05,-0.00016999999999999999,-0.0002,2
6688,6953,-0.00022999999999999998,-0.00011,-0.00029,-0.00095,-8e-05,1e-05,-0.00016999999999999999,-0.0002,2
6689,6954,0.0005,-7e-05,5.9999999999999995e-05,-0.00014,-2e-05,2.9999999999999997e-05,5e-05,9e-05,2
6690,6955,0.00036,0.00011999999999999999,5e-05,0.00035,-0.00018,-8e-05,5e-05,5.9999999999999995e-05,2
6691,6956,0.00036,0.00011999999999999999,5e-05,0.00035,-0.00018,-8e-05,5e-05,5.9999999999999995e-05,2
6692,6957,0.00036,0.00011999999999999999,5e-05,0.00035,-0.00018,-8e-05,5e-05,5.9999999999999995e-05,2
6693,6958,0.00036,0.00011999999999999999,5e-05,0.00035,-0.00018,-8e-05,5e-05,5.9999999999999995e-05,2
6694,6959,0.00036,0.00011999999999999999,5e-05,0.00035,-0.00018,-8e-05,5e-05,5.9999999999999995e-05,2
6695,6960,0.00036,0.00011999999999999999,5e-05,0.00035,-0.00018,-8e-05,5e-05,5.9999999999999995e-05,2
6696,6961,0.00036,0.00011999999999999999,5e-05,0.00035,-0.00018,-8e-05,5e-05,5.9999999999999995e-05,2
6697,6962,0.00036,0.00011999999999999999,5e-05,0.00035,-0.00018,-8e-05,5e-05,5.9999999999999995e-05,2
6698,6963,0.00036,0.00011999999999999999,5e-05,0.00035,-0.00018,-8e-05,5e-05,5.9999999999999995e-05,2
6699,6964,0.00036,0.00011999999999999999,5e-05,0.00035,-0.00018,-8e-05,5e-05,5.9999999999999995e-05,2
6700,6965,0.00036,0.00011999999999999999,5e-05,0.00035,-0.00018,-8e-05,5e-05,5.9999999999999995e-05,2
6701,6966,0.00036,0.00011999999999999999,5e-05,0.00035,-0.00018,-8e-05,5e-05,5.9999999999999995e-05,2
6702,6967,0.00036,0.00011999999999999999,5e-05,0.00035,-0.00018,-8e-05,5e-05,5.9999999999999995e-05,2
6703,6968,0.00036,0.00011999999999999999,5e-05,0.00035,-0.00018,-8e-05,5e-05,5.9999999999999995e-05,2
6704,6969,0.00036,0.00011999999999999999,5e-05,0.00035,-0.00018,-8e-05,5e-05,5.9999999999999995e-05,2
6705,6970,0.00036,0.00011999999999999999,5e-05,0.00035,-0.00018,-8e-05,5e-05,5.9999999999999995e-05,2
6706,6971,0.00036,0.00011999999999999999,5e-05,0.00035,-0.00018,-8e-05,5e-05,5.9999999999999995e-05,2
6707,6972,0.00036,0.00011999999999999999,5e-05,0.00035,-0.00018,-8e-05,5e-05,5.9999999999999995e-05,2
6708,6973,0.00036,0.00011999999999999999,5e-05,0.00035,-0.00018,-8e-05,5e-05,5.9999999999999995e-05,2
6709,6974,0.00036,0.00011999999999999999,5e-05,0.00035,-0.00018,-8e-05,5e-05,5.9999999999999995e-05,2
6710,6975,0.00036,0.00011999999999999999,5e-05,0.00035,-0.00018,-8e-05,5e-05,5.9999999999999995e-05,2
6711,6976,0.00036,0.00011999999999999999,5e-05,0.00035,-0.00018,-8e-05,5e-05,5.9999999999999995e-05,2
6712,6977,0.00036,0.00011999999999999999,5e-05,0.00035,-0.00018,-8e-05,5e-05,5.9999999999999995e-05,2
6713,6978,-0.00016,0.00031,0.0001,0.00016,-0.0002,-0.00011,-4e-05,-5.9999999999999995e-05,2
6714,6979,-0.00016,0.00031,0.0001,0.00016,-0.0002,-0.00011,-4e-05,-5.9999999999999995e-05,2
6715,6980,-0.00016,0.00031,0.0001,0.00016,-0.0002,-0.00011,-4e-05,-5.9999999999999995e-05,2
6716,6981,-0.00016,0.00031,0.0001,0.00016,-0.0002,-0.00011,-4e-05,-5.9999999999999995e-05,2
6717,6982,-0.00016,0.00031,0.0001,0.00016,-0.0002,-0.00011,-4e-05,-5.9999999999999995e-05,2
6718,6983,-0.00016,0.00031,0.0001,0.00016,-0.0002,-0.00011,-4e-05,-5.9999999999999995e-05,2
6719,6984,-0.00016,0.00031,0.0001,0.00016,-0.0002,-0.00011,-4e-05,-5.9999999999999995e-05,2
6720,6985,-0.00016,0.00031,0.0001,0.00016,-0.0002,-0.00011,-4e-05,-5.9999999999999995e-05,2
6721,6986,-0.00016,0.00031,0.0001,0.00016,-0.0002,-0.00011,-4e-05,-5.9999999999999995e-05,2
6722,6988,-0.00016,0.00031,0.0001,0.00016,-0.0002,-0.00011,-4e-05,-5.9999999999999995e-05,2
6723,6989,-0.00016,0.00031,0.0001,0.00016,-0.0002,-0.00011,-4e-05,-5.9999999999999995e-05,2
6724,6990,-0.00016,0.00031,0.0001,0.00016,-0.0002,-0.00011,-4e-05,-5.9999999999999995e-05,2
6725,6991,0.0001,0.00041,0.00013000000000000002,0.00027,-2e-05,0.0,0.0,1e-05,2
6726,6992,0.0001,0.00041,0.00013000000000000002,0.00027,-2e-05,0.0,0.0,1e-05,2
6727,6993,0.0001,0.00041,0.00013000000000000002,0.00027,-2e-05,0.0,0.0,1e-05,2
6728,6994,0.0001,0.00041,0.00013000000000000002,0.00027,-2e-05,0.0,0.0,1e-05,2
6729,6995,0.0001,0.00041,0.00013000000000000002,0.00027,-2e-05,0.0,0.0,1e-05,2
6730,6996,0.0001,0.00041,0.00013000000000000002,0.00027,-2e-05,0.0,0.0,1e-05,2
6731,6997,0.0001,0.00041,0.00013000000000000002,0.00027,-2e-05,0.0,0.0,1e-05,2
6732,6998,0.0001,0.00041,0.00013000000000000002,0.00027,-2e-05,0.0,0.0,1e-05,2
6733,6999,-0.00011,0.00022,4e-05,0.00014,7e-05,0.0,5e-05,1e-05,2
6734,7000,-0.00011,0.00022,4e-05,0.00014,7e-05,0.0,5e-05,1e-05,2
6735,7001,-0.00011,0.00022,4e-05,0.00014,7e-05,0.0,5e-05,1e-05,2
6736,7002,-0.00011,0.00022,4e-05,0.00014,7e-05,0.0,5e-05,1e-05,2
6737,7003,-0.00011,0.00022,4e-05,0.00014,7e-05,0.0,5e-05,1e-05,2
6738,7004,-0.00011,0.00022,4e-05,0.00014,7e-05,0.0,5e-05,1e-05,2
6739,7005,-0.00011,0.00022,4e-05,0.00014,7e-05,0.0,5e-05,1e-05,2
6740,7006,-0.00011,0.00022,4e-05,0.00014,7e-05,0.0,5e-05,1e-05,2
6741,7007,-0.00011,0.00022,4e-05,0.00014,7e-05,0.0,5e-05,1e-05,2
6742,7008,-0.00011,0.00022,4e-05,0.00014,7e-05,0.0,5e-05,1e-05,2
6743,7009,-0.00011,0.00022,4e-05,0.00014,7e-05,0.0,5e-05,1e-05,2
6744,7010,-0.00011,0.00022,4e-05,0.00014,7e-05,0.0,5e-05,1e-05,2
6745,7011,-0.00011,0.00022,4e-05,0.00014,7e-05,0.0,5e-05,1e-05,2
6746,7012,-0.00011,0.00022,4e-05,0.00014,7e-05,0.0,5e-05,1e-05,2
6747,7013,-0.00011,0.00022,4e-05,0.00014,7e-05,0.0,5e-05,1e-05,2
6748,7014,-1e-05,-0.00011,-4e-05,-5e-05,-0.00016,-8e-05,-4e-05,1e-05,2
6749,7015,-9e-05,-8e-05,-1e-05,0.00029,0.00025,4e-05,-0.00013000000000000002,-0.00021,2
6750,7016,-9e-05,-8e-05,-1e-05,0.00029,0.00025,4e-05,-0.00013000000000000002,-0.00021,2
6751,7017,-9e-05,-8e-05,-1e-05,0.00029,0.00025,4e-05,-0.00013000000000000002,-0.00021,2
6752,7018,-9e-05,-8e-05,-1e-05,0.00029,0.00025,4e-05,-0.00013000000000000002,-0.00021,2
6753,7019,-9e-05,-8e-05,-1e-05,0.00029,0.00025,4e-05,-0.00013000000000000002,-0.00021,2
6754,7020,-9e-05,-8e-05,-1e-05,0.00029,0.00025,4e-05,-0.00013000000000000002,-0.00021,2
6755,7021,-9e-05,-8e-05,-1e-05,0.00029,0.00025,4e-05,-0.00013000000000000002,-0.00021,2
6756,7022,-9e-05,-8e-05,-1e-05,0.00029,0.00025,4e-05,-0.00013000000000000002,-0.00021,2
6757,7023,-9e-05,-8e-05,-1e-05,0.00029,0.00025,4e-05,-0.00013000000000000002,-0.00021,2
6758,7024,-9e-05,-8e-05,-1e-05,0.00029,0.00025,4e-05,-0.00013000000000000002,-0.00021,2
6759,7025,-9e-05,-8e-05,-1e-05,0.00029,0.00025,4e-05,-0.00013000000000000002,-0.00021,2
6760,7026,-9e-05,-8e-05,-1e-05,0.00029,0.00025,4e-05,-0.00013000000000000002,-0.00021,2
6761,7027,-9e-05,-8e-05,-1e-05,0.00029,0.00025,4e-05,-0.00013000000000000002,-0.00021,2
6762,7028,-9e-05,-8e-05,-1e-05,0.00029,0.00025,4e-05,-0.00013000000000000002,-0.00021,2
6763,7029,-9e-05,-8e-05,-1e-05,0.00029,0.00025,4e-05,-0.00013000000000000002,-0.00021,2
6764,7030,-9e-05,-8e-05,-1e-05,0.00029,0.00025,4e-05,-0.00013000000000000002,-0.00021,2
6765,7031,-9e-05,-8e-05,-1e-05,0.00029,0.00025,4e-05,-0.00013000000000000002,-0.00021,2
6766,7032,-9e-05,-8e-05,-1e-05,0.00029,0.00025,4e-05,-0.00013000000000000002,-0.00021,2
6767,7033,-9e-05,-8e-05,-1e-05,0.00029,0.00025,4e-05,-0.00013000000000000002,-0.00021,2
6768,7034,-9e-05,-8e-05,-1e-05,0.00029,0.00025,4e-05,-0.00013000000000000002,-0.00021,2
6769,7035,-9e-05,-8e-05,-1e-05,0.00029,0.00025,4e-05,-0.00013000000000000002,-0.00021,2
6770,7036,-9e-05,-8e-05,-1e-05,0.00029,0.00025,4e-05,-0.00013000000000000002,-0.00021,2
6771,7039,-0.00045999999999999996,-0.00066,-5.9999999999999995e-05,0.00022,0.0,-5e-05,5e-05,-1e-05,2
6772,7040,-0.00045999999999999996,-0.00066,-5.9999999999999995e-05,0.00022,0.0,-5e-05,5e-05,-1e-05,2
6773,7041,-0.00045999999999999996,-0.00066,-5.9999999999999995e-05,0.00022,0.0,-5e-05,5e-05,-1e-05,2
6774,7042,-0.00045999999999999996,-0.00066,-5.9999999999999995e-05,0.00022,0.0,-5e-05,5e-05,-1e-05,2
6775,7043,-0.00045999999999999996,-0.00066,-5.9999999999999995e-05,0.00022,0.0,-5e-05,5e-05,-1e-05,2
6776,7044,-0.00045999999999999996,-0.00066,-5.9999999999999995e-05,0.00022,0.0,-5e-05,5e-05,-1e-05,2
6777,7045,-0.00045999999999999996,-0.00066,-5.9999999999999995e-05,0.00022,0.0,-5e-05,5e-05,-1e-05,2
6778,7046,-0.00045999999999999996,-0.00066,-5.9999999999999995e-05,0.00022,0.0,-5e-05,5e-05,-1e-05,2
6779,7047,-0.00045999999999999996,-0.00066,-5.9999999999999995e-05,0.00022,0.0,-5e-05,5e-05,-1e-05,2
6780,7048,-0.00045999999999999996,-0.00066,-5.9999999999999995e-05,0.00022,0.0,-5e-05,5e-05,-1e-05,2
6781,7049,-0.00045999999999999996,-0.00066,-5.9999999999999995e-05,0.00022,0.0,-5e-05,5e-05,-1e-05,2
6782,7050,-0.00045999999999999996,-0.00066,-5.9999999999999995e-05,0.00022,0.0,-5e-05,5e-05,-1e-05,2
6783,7051,2e-05,-0.00025,-5.9999999999999995e-05,-7e-05,-1e-05,-2.9999999999999997e-05,-5.9999999999999995e-05,-8e-05,2
6784,7052,2e-05,-0.00025,-5.9999999999999995e-05,-7e-05,-1e-05,-2.9999999999999997e-05,-5.9999999999999995e-05,-8e-05,2
6785,7053,2e-05,-0.00025,-5.9999999999999995e-05,-7e-05,-1e-05,-2.9999999999999997e-05,-5.9999999999999995e-05,-8e-05,2
6786,7054,2e-05,-0.00025,-5.9999999999999995e-05,-7e-05,-1e-05,-2.9999999999999997e-05,-5.9999999999999995e-05,-8e-05,2
6787,7055,2e-05,-0.00025,-5.9999999999999995e-05,-7e-05,-1e-05,-2.9999999999999997e-05,-5.9999999999999995e-05,-8e-05,2
6788,7056,2e-05,-0.00025,-5.9999999999999995e-05,-7e-05,-1e-05,-2.9999999999999997e-05,-5.9999999999999995e-05,-8e-05,2
6789,7057,2e-05,-0.00025,-5.9999999999999995e-05,-7e-05,-1e-05,-2.9999999999999997e-05,-5.9999999999999995e-05,-8e-05,2
6790,7058,2e-05,-0.00025,-5.9999999999999995e-05,-7e-05,-1e-05,-2.9999999999999997e-05,-5.9999999999999995e-05,-8e-05,2
6791,7059,-0.0003,-0.00018999999999999998,-0.00022999999999999998,-0.00033999999999999997,2e-05,-2e-05,-2.9999999999999997e-05,-8e-05,2
6792,7060,-0.0003,-0.00018999999999999998,-0.00022999999999999998,-0.00033999999999999997,2e-05,-2e-05,-2.9999999999999997e-05,-8e-05,2
6793,7061,-0.0003,-0.00018999999999999998,-0.00022999999999999998,-0.00033999999999999997,2e-05,-2e-05,-2.9999999999999997e-05,-8e-05,2
6794,7062,-0.0003,-0.00018999999999999998,-0.00022999999999999998,-0.00033999999999999997,2e-05,-2e-05,-2.9999999999999997e-05,-8e-05,2
6795,7063,-0.0003,-0.00018999999999999998,-0.00022999999999999998,-0.00033999999999999997,2e-05,-2e-05,-2.9999999999999997e-05,-8e-05,2
6796,7064,-0.0003,-0.00018999999999999998,-0.00022999999999999998,-0.00033999999999999997,2e-05,-2e-05,-2.9999999999999997e-05,-8e-05,2
6797,7065,-0.0003,-0.00018999999999999998,-0.00022999999999999998,-0.00033999999999999997,2e-05,-2e-05,-2.9999999999999997e-05,-8e-05,2
6798,7066,-0.0003,-0.00018999999999999998,-0.00022999999999999998,-0.00033999999999999997,2e-05,-2e-05,-2.9999999999999997e-05,-8e-05,2
6799,7067,-0.0003,-0.00018999999999999998,-0.00022999999999999998,-0.00033999999999999997,2e-05,-2e-05,-2.9999999999999997e-05,-8e-05,2
6800,7068,-0.0003,-0.00018999999999999998,-0.00022999999999999998,-0.00033999999999999997,2e-05,-2e-05,-2.9999999999999997e-05,-8e-05,2
6801,7069,-0.0003,-0.00018999999999999998,-0.00022999999999999998,-0.00033999999999999997,2e-05,-2e-05,-2.9999999999999997e-05,-8e-05,2
6802,7070,-0.0003,-0.00018999999999999998,-0.00022999999999999998,-0.00033999999999999997,2e-05,-2e-05,-2.9999999999999997e-05,-8e-05,2
6803,7071,-0.0003,-0.00018999999999999998,-0.00022999999999999998,-0.00033999999999999997,2e-05,-2e-05,-2.9999999999999997e-05,-8e-05,2
6804,7072,-0.0003,-0.00018999999999999998,-0.00022999999999999998,-0.00033999999999999997,2e-05,-2e-05,-2.9999999999999997e-05,-8e-05,2
6805,7073,-0.0003,-0.00018999999999999998,-0.00022999999999999998,-0.00033999999999999997,2e-05,-2e-05,-2.9999999999999997e-05,-8e-05,2
6806,7074,0.00011999999999999999,2e-05,-1e-05,-2e-05,-9e-05,-2.9999999999999997e-05,2.9999999999999997e-05,0.0,2
6807,7075,0.0007099999999999999,0.00072,0.0002,-5e-05,-4e-05,4e-05,-4e-05,2e-05,2
6808,7076,0.0007099999999999999,0.00072,0.0002,-5e-05,-4e-05,4e-05,-4e-05,2e-05,2
6809,7077,0.0007099999999999999,0.00072,0.0002,-5e-05,-4e-05,4e-05,-4e-05,2e-05,2
6810,7078,0.0007099999999999999,0.00072,0.0002,-5e-05,-4e-05,4e-05,-4e-05,2e-05,2
6811,7079,0.0007099999999999999,0.00072,0.0002,-5e-05,-4e-05,4e-05,-4e-05,2e-05,2
6812,7080,0.0007099999999999999,0.00072,0.0002,-5e-05,-4e-05,4e-05,-4e-05,2e-05,2
6813,7081,0.0007099999999999999,0.00072,0.0002,-5e-05,-4e-05,4e-05,-4e-05,2e-05,2
6814,7082,0.0007099999999999999,0.00072,0.0002,-5e-05,-4e-05,4e-05,-4e-05,2e-05,2
6815,7083,0.0007099999999999999,0.00072,0.0002,-5e-05,-4e-05,4e-05,-4e-05,2e-05,2
6816,7084,0.0007099999999999999,0.00072,0.0002,-5e-05,-4e-05,4e-05,-4e-05,2e-05,2
6817,7085,0.0007099999999999999,0.00072,0.0002,-5e-05,-4e-05,4e-05,-4e-05,2e-05,2
6818,7086,0.0007099999999999999,0.00072,0.0002,-5e-05,-4e-05,4e-05,-4e-05,2e-05,2
6819,7088,0.0007099999999999999,0.00072,0.0002,-5e-05,-4e-05,4e-05,-4e-05,2e-05,2
6820,7089,0.0007099999999999999,0.00072,0.0002,-5e-05,-4e-05,4e-05,-4e-05,2e-05,2
6821,7090,0.0007099999999999999,0.00072,0.0002,-5e-05,-4e-05,4e-05,-4e-05,2e-05,2
6822,7091,0.0007099999999999999,0.00072,0.0002,-5e-05,-4e-05,4e-05,-4e-05,2e-05,2
6823,7092,0.0007099999999999999,0.00072,0.0002,-5e-05,-4e-05,4e-05,-4e-05,2e-05,2
6824,7093,0.0007099999999999999,0.00072,0.0002,-5e-05,-4e-05,4e-05,-4e-05,2e-05,2
6825,7094,0.0007099999999999999,0.00072,0.0002,-5e-05,-4e-05,4e-05,-4e-05,2e-05,2
6826,7095,0.0007099999999999999,0.00072,0.0002,-5e-05,-4e-05,4e-05,-4e-05,2e-05,2
6827,7096,0.0007099999999999999,0.00072,0.0002,-5e-05,-4e-05,4e-05,-4e-05,2e-05,2
6828,7097,-0.00067,-0.00033999999999999997,-2e-05,0.00023999999999999998,5.9999999999999995e-05,-7e-05,-1e-05,-9e-05,2
6829,7098,7e-05,0.00011,-0.00021,-0.00029,-5.9999999999999995e-05,-1e-05,2.9999999999999997e-05,9e-05,2
6830,7099,7e-05,0.00011,-0.00021,-0.00029,-5.9999999999999995e-05,-1e-05,2.9999999999999997e-05,9e-05,2
6831,7100,7e-05,0.00011,-0.00021,-0.00029,-5.9999999999999995e-05,-1e-05,2.9999999999999997e-05,9e-05,2
6832,7101,7e-05,0.00011,-0.00021,-0.00029,-5.9999999999999995e-05,-1e-05,2.9999999999999997e-05,9e-05,2
6833,7102,7e-05,0.00011,-0.00021,-0.00029,-5.9999999999999995e-05,-1e-05,2.9999999999999997e-05,9e-05,2
6834,7103,7e-05,0.00011,-0.00021,-0.00029,-5.9999999999999995e-05,-1e-05,2.9999999999999997e-05,9e-05,2
6835,7104,-0.00025,2.9999999999999997e-05,-2e-05,0.00018,5e-05,-2e-05,-1e-05,7e-05,2
6836,7105,-0.00025,2.9999999999999997e-05,-2e-05,0.00018,5e-05,-2e-05,-1e-05,7e-05,2
6837,7106,-0.00025,2.9999999999999997e-05,-2e-05,0.00018,5e-05,-2e-05,-1e-05,7e-05,2
6838,7107,-0.00025,2.9999999999999997e-05,-2e-05,0.00018,5e-05,-2e-05,-1e-05,7e-05,2
6839,7108,-0.00025,2.9999999999999997e-05,-2e-05,0.00018,5e-05,-2e-05,-1e-05,7e-05,2
6840,7109,-0.00025,2.9999999999999997e-05,-2e-05,0.00018,5e-05,-2e-05,-1e-05,7e-05,2
6841,7110,-0.00025,2.9999999999999997e-05,-2e-05,0.00018,5e-05,-2e-05,-1e-05,7e-05,2
6842,7111,-0.00014,-0.00021,0.0001,0.00016999999999999999,0.00011999999999999999,-1e-05,-8e-05,-0.00016,2
6843,7112,-0.00014,-0.00021,0.0001,0.00016999999999999999,0.00011999999999999999,-1e-05,-8e-05,-0.00016,2
6844,7113,-0.00014,-0.00021,0.0001,0.00016999999999999999,0.00011999999999999999,-1e-05,-8e-05,-0.00016,2
6845,7114,-0.00014,-0.00021,0.0001,0.00016999999999999999,0.00011999999999999999,-1e-05,-8e-05,-0.00016,2
6846,7115,-0.00014,-0.00021,0.0001,0.00016999999999999999,0.00011999999999999999,-1e-05,-8e-05,-0.00016,2
6847,7116,-0.00014,-0.00021,0.0001,0.00016999999999999999,0.00011999999999999999,-1e-05,-8e-05,-0.00016,2
6848,7117,-0.00014,-0.00021,0.0001,0.00016999999999999999,0.00011999999999999999,-1e-05,-8e-05,-0.00016,2
6849,7118,-0.00014,-0.00021,0.0001,0.00016999999999999999,0.00011999999999999999,-1e-05,-8e-05,-0.00016,2
6850,7119,0.00057,0.00082,2e-05,-8e-05,-5e-05,-2e-05,0.00011,0.00011999999999999999,2
6851,7120,0.00057,0.00082,2e-05,-8e-05,-5e-05,-2e-05,0.00011,0.00011999999999999999,2
6852,7121,0.00057,0.00082,2e-05,-8e-05,-5e-05,-2e-05,0.00011,0.00011999999999999999,2
6853,7122,0.00057,0.00082,2e-05,-8e-05,-5e-05,-2e-05,0.00011,0.00011999999999999999,2
6854,7123,0.00057,0.00082,2e-05,-8e-05,-5e-05,-2e-05,0.00011,0.00011999999999999999,2
6855,7124,0.00057,0.00082,2e-05,-8e-05,-5e-05,-2e-05,0.00011,0.00011999999999999999,2
6856,7125,0.00057,0.00082,2e-05,-8e-05,-5e-05,-2e-05,0.00011,0.00011999999999999999,2
6857,7126,0.00057,0.00082,2e-05,-8e-05,-5e-05,-2e-05,0.00011,0.00011999999999999999,2
6858,7127,0.00057,0.00082,2e-05,-8e-05,-5e-05,-2e-05,0.00011,0.00011999999999999999,2
6859,7128,0.00057,0.00082,2e-05,-8e-05,-5e-05,-2e-05,0.00011,0.00011999999999999999,2
6860,7129,0.00057,0.00082,2e-05,-8e-05,-5e-05,-2e-05,0.00011,0.00011999999999999999,2
6861,7130,0.00057,0.00082,2e-05,-8e-05,-5e-05,-2e-05,0.00011,0.00011999999999999999,2
6862,7131,0.00057,0.00082,2e-05,-8e-05,-5e-05,-2e-05,0.00011,0.00011999999999999999,2
6863,7132,0.00057,0.00082,2e-05,-8e-05,-5e-05,-2e-05,0.00011,0.00011999999999999999,2
6864,7133,0.00057,0.00082,2e-05,-8e-05,-5e-05,-2e-05,0.00011,0.00011999999999999999,2
6865,7134,-0.00016,5.9999999999999995e-05,-5e-05,-0.00023999999999999998,0.00023999999999999998,9e-05,5e-05,-2.9999999999999997e-05,2
6866,7135,-0.00032,-8e-05,0.00011999999999999999,0.00035,-0.00015,-9e-05,-0.00014,-0.0003,2
6867,7136,-0.00032,-8e-05,0.00011999999999999999,0.00035,-0.00015,-9e-05,-0.00014,-0.0003,2
6868,7138,-0.00032,-8e-05,0.00011999999999999999,0.00035,-0.00015,-9e-05,-0.00014,-0.0003,2
6869,7139,-0.00032,-8e-05,0.00011999999999999999,0.00035,-0.00015,-9e-05,-0.00014,-0.0003,2
6870,7140,-0.00032,-8e-05,0.00011999999999999999,0.00035,-0.00015,-9e-05,-0.00014,-0.0003,2
6871,7141,-0.00032,-8e-05,0.00011999999999999999,0.00035,-0.00015,-9e-05,-0.00014,-0.0003,2
6872,7143,-0.00032,-8e-05,0.00011999999999999999,0.00035,-0.00015,-9e-05,-0.00014,-0.0003,2
6873,7144,-0.00032,-8e-05,0.00011999999999999999,0.00035,-0.00015,-9e-05,-0.00014,-0.0003,2
6874,7145,-0.00032,-8e-05,0.00011999999999999999,0.00035,-0.00015,-9e-05,-0.00014,-0.0003,2
6875,7146,-0.00032,-8e-05,0.00011999999999999999,0.00035,-0.00015,-9e-05,-0.00014,-0.0003,2
6876,7147,-0.00032,-8e-05,0.00011999999999999999,0.00035,-0.00015,-9e-05,-0.00014,-0.0003,2
6877,7148,-0.00032,-8e-05,0.00011999999999999999,0.00035,-0.00015,-9e-05,-0.00014,-0.0003,2
6878,7149,-0.00032,-8e-05,0.00011999999999999999,0.00035,-0.00015,-9e-05,-0.00014,-0.0003,2
6879,7150,-0.00032,-8e-05,0.00011999999999999999,0.00035,-0.00015,-9e-05,-0.00014,-0.0003,2
6880,7151,-0.00032,-8e-05,0.00011999999999999999,0.00035,-0.00015,-9e-05,-0.00014,-0.0003,2
6881,7152,-0.00032,-8e-05,0.00011999999999999999,0.00035,-0.00015,-9e-05,-0.00014,-0.0003,2
6882,7153,-0.00032,-8e-05,0.00011999999999999999,0.00035,-0.00015,-9e-05,-0.00014,-0.0003,2
6883,7154,-0.00032,-8e-05,0.00011999999999999999,0.00035,-0.00015,-9e-05,-0.00014,-0.0003,2
6884,7155,-0.00032,-8e-05,0.00011999999999999999,0.00035,-0.00015,-9e-05,-0.00014,-0.0003,2
6885,7156,-0.00032,-8e-05,0.00011999999999999999,0.00035,-0.00015,-9e-05,-0.00014,-0.0003,2
6886,7157,-0.00032,-8e-05,0.00011999999999999999,0.00035,-0.00015,-9e-05,-0.00014,-0.0003,2
6887,7158,0.00036,0.0006799999999999999,4e-05,5e-05,0.00013000000000000002,7e-05,8e-05,0.0002,2
6888,7159,0.00036,0.0006799999999999999,4e-05,5e-05,0.00013000000000000002,7e-05,8e-05,0.0002,2
6889,7160,0.00036,0.0006799999999999999,4e-05,5e-05,0.00013000000000000002,7e-05,8e-05,0.0002,2
6890,7161,0.00036,0.0006799999999999999,4e-05,5e-05,0.00013000000000000002,7e-05,8e-05,0.0002,2
6891,7162,0.00036,0.0006799999999999999,4e-05,5e-05,0.00013000000000000002,7e-05,8e-05,0.0002,2
6892,7163,0.00036,0.0006799999999999999,4e-05,5e-05,0.00013000000000000002,7e-05,8e-05,0.0002,2
6893,7164,0.00036,0.0006799999999999999,4e-05,5e-05,0.00013000000000000002,7e-05,8e-05,0.0002,2
6894,7165,0.00036,0.0006799999999999999,4e-05,5e-05,0.00013000000000000002,7e-05,8e-05,0.0002,2
6895,7166,0.00036,0.0006799999999999999,4e-05,5e-05,0.00013000000000000002,7e-05,8e-05,0.0002,2
6896,7167,0.00036,0.0006799999999999999,4e-05,5e-05,0.00013000000000000002,7e-05,8e-05,0.0002,2
6897,7168,0.00036,0.0006799999999999999,4e-05,5e-05,0.00013000000000000002,7e-05,8e-05,0.0002,2
6898,7169,0.00036,0.0006799999999999999,4e-05,5e-05,0.00013000000000000002,7e-05,8e-05,0.0002,2
6899,7170,0.00036,0.0006799999999999999,4e-05,5e-05,0.00013000000000000002,7e-05,8e-05,0.0002,2
6900,7171,0.00036,0.0006799999999999999,4e-05,5e-05,0.00013000000000000002,7e-05,8e-05,0.0002,2
6901,7172,0.00036,0.0006799999999999999,4e-05,5e-05,0.00013000000000000002,7e-05,8e-05,0.0002,2
6902,7173,0.00036,0.0006799999999999999,4e-05,5e-05,0.00013000000000000002,7e-05,8e-05,0.0002,2
6903,7174,0.00036,0.0006799999999999999,4e-05,5e-05,0.00013000000000000002,7e-05,8e-05,0.0002,2
6904,7175,0.00036,0.0006799999999999999,4e-05,5e-05,0.00013000000000000002,7e-05,8e-05,0.0002,2
6905,7176,0.00036,0.0006799999999999999,4e-05,5e-05,0.00013000000000000002,7e-05,8e-05,0.0002,2
6906,7177,0.00036,0.0006799999999999999,4e-05,5e-05,0.00013000000000000002,7e-05,8e-05,0.0002,2
6907,7178,0.00036,0.0006799999999999999,4e-05,5e-05,0.00013000000000000002,7e-05,8e-05,0.0002,2
6908,7179,0.00036,0.0006799999999999999,4e-05,5e-05,0.00013000000000000002,7e-05,8e-05,0.0002,2
6909,7180,0.00045999999999999996,-8e-05,0.0,0.00018999999999999998,-9e-05,1e-05,2e-05,9e-05,2
6910,7181,-9e-05,-0.00018999999999999998,-0.00011999999999999999,0.00037999999999999997,0.00018999999999999998,-5e-05,-1e-05,-5.9999999999999995e-05,2
6911,7182,-9e-05,-0.00018999999999999998,-0.00011999999999999999,0.00037999999999999997,0.00018999999999999998,-5e-05,-1e-05,-5.9999999999999995e-05,2
6912,7183,-9e-05,-0.00018999999999999998,-0.00011999999999999999,0.00037999999999999997,0.00018999999999999998,-5e-05,-1e-05,-5.9999999999999995e-05,2
6913,7184,-9e-05,-0.00018999999999999998,-0.00011999999999999999,0.00037999999999999997,0.00018999999999999998,-5e-05,-1e-05,-5.9999999999999995e-05,2
6914,7185,-9e-05,-0.00018999999999999998,-0.00011999999999999999,0.00037999999999999997,0.00018999999999999998,-5e-05,-1e-05,-5.9999999999999995e-05,2
6915,7186,-9e-05,-0.00018999999999999998,-0.00011999999999999999,0.00037999999999999997,0.00018999999999999998,-5e-05,-1e-05,-5.9999999999999995e-05,2
6916,7188,-9e-05,-0.00018999999999999998,-0.00011999999999999999,0.00037999999999999997,0.00018999999999999998,-5e-05,-1e-05,-5.9999999999999995e-05,2
6917,7189,-9e-05,-0.00018999999999999998,-0.00011999999999999999,0.00037999999999999997,0.00018999999999999998,-5e-05,-1e-05,-5.9999999999999995e-05,2
6918,7190,-9e-05,-0.00018999999999999998,-0.00011999999999999999,0.00037999999999999997,0.00018999999999999998,-5e-05,-1e-05,-5.9999999999999995e-05,2
6919,7191,-9e-05,-0.00018999999999999998,-0.00011999999999999999,0.00037999999999999997,0.00018999999999999998,-5e-05,-1e-05,-5.9999999999999995e-05,2
6920,7192,-9e-05,-0.00018999999999999998,-0.00011999999999999999,0.00037999999999999997,0.00018999999999999998,-5e-05,-1e-05,-5.9999999999999995e-05,2
6921,7193,-9e-05,-0.00018999999999999998,-0.00011999999999999999,0.00037999999999999997,0.00018999999999999998,-5e-05,-1e-05,-5.9999999999999995e-05,2
6922,7194,-9e-05,-0.00018999999999999998,-0.00011999999999999999,0.00037999999999999997,0.00018999999999999998,-5e-05,-1e-05,-5.9999999999999995e-05,2
6923,7195,-0.00036,-0.00058,-0.00018,-0.00033,5e-05,2.9999999999999997e-05,5.9999999999999995e-05,5e-05,2
6924,7196,-0.00036,-0.00058,-0.00018,-0.00033,5e-05,2.9999999999999997e-05,5.9999999999999995e-05,5e-05,2
6925,7197,-0.00036,-0.00058,-0.00018,-0.00033,5e-05,2.9999999999999997e-05,5.9999999999999995e-05,5e-05,2
6926,7198,-0.00036,-0.00058,-0.00018,-0.00033,5e-05,2.9999999999999997e-05,5.9999999999999995e-05,5e-05,2
6927,7199,-0.00036,-0.00058,-0.00018,-0.00033,5e-05,2.9999999999999997e-05,5.9999999999999995e-05,5e-05,2
6928,7200,-0.00036,-0.00058,-0.00018,-0.00033,5e-05,2.9999999999999997e-05,5.9999999999999995e-05,5e-05,2
6929,7201,-0.00036,-0.00058,-0.00018,-0.00033,5e-05,2.9999999999999997e-05,5.9999999999999995e-05,5e-05,2
6930,7202,-0.00036,-0.00058,-0.00018,-0.00033,5e-05,2.9999999999999997e-05,5.9999999999999995e-05,5e-05,2
6931,7203,-0.00036,-0.00058,-0.00018,-0.00033,5e-05,2.9999999999999997e-05,5.9999999999999995e-05,5e-05,2
6932,7204,-0.00036,-0.00058,-0.00018,-0.00033,5e-05,2.9999999999999997e-05,5.9999999999999995e-05,5e-05,2
6933,7205,-0.00036,-0.00058,-0.00018,-0.00033,5e-05,2.9999999999999997e-05,5.9999999999999995e-05,5e-05,2
6934,7206,-0.00036,-0.00058,-0.00018,-0.00033,5e-05,2.9999999999999997e-05,5.9999999999999995e-05,5e-05,2
6935,7207,-0.00036,-0.00058,-0.00018,-0.00033,5e-05,2.9999999999999997e-05,5.9999999999999995e-05,5e-05,2
6936,7208,-0.00036,-0.00058,-0.00018,-0.00033,5e-05,2.9999999999999997e-05,5.9999999999999995e-05,5e-05,2
6937,7209,-0.00036,-0.00058,-0.00018,-0.00033,5e-05,2.9999999999999997e-05,5.9999999999999995e-05,5e-05,2
6938,7210,-0.00036,-0.00058,-0.00018,-0.00033,5e-05,2.9999999999999997e-05,5.9999999999999995e-05,5e-05,2
6939,7211,-0.00036,-0.00058,-0.00018,-0.00033,5e-05,2.9999999999999997e-05,5.9999999999999995e-05,5e-05,2
6940,7212,-0.00036,-0.00058,-0.00018,-0.00033,5e-05,2.9999999999999997e-05,5.9999999999999995e-05,5e-05,2
6941,7213,-0.00036,-0.00058,-0.00018,-0.00033,5e-05,2.9999999999999997e-05,5.9999999999999995e-05,5e-05,2
6942,7214,-0.00036,-0.00058,-0.00018,-0.00033,5e-05,2.9999999999999997e-05,5.9999999999999995e-05,5e-05,2
6943,7215,-0.00036,-0.00058,-0.00018,-0.00033,5e-05,2.9999999999999997e-05,5.9999999999999995e-05,5e-05,2
6944,7216,-0.00036,-0.00058,-0.00018,-0.00033,5e-05,2.9999999999999997e-05,5.9999999999999995e-05,5e-05,2
6945,7217,8e-05,0.00011,0.0,0.00023999999999999998,-5.9999999999999995e-05,-5e-05,-4e-05,0.0,2
6946,7218,2.9999999999999997e-05,0.0,0.00016999999999999999,0.00023999999999999998,-5.9999999999999995e-05,2e-05,7e-05,0.0001,2
6947,7219,2.9999999999999997e-05,0.0,0.00016999999999999999,0.00023999999999999998,-5.9999999999999995e-05,2e-05,7e-05,0.0001,2
6948,7220,2.9999999999999997e-05,0.0,0.00016999999999999999,0.00023999999999999998,-5.9999999999999995e-05,2e-05,7e-05,0.0001,2
6949,7221,2.9999999999999997e-05,0.0,0.00016999999999999999,0.00023999999999999998,-5.9999999999999995e-05,2e-05,7e-05,0.0001,2
6950,7222,2.9999999999999997e-05,0.0,0.00016999999999999999,0.00023999999999999998,-5.9999999999999995e-05,2e-05,7e-05,0.0001,2
6951,7223,2.9999999999999997e-05,0.0,0.00016999999999999999,0.00023999999999999998,-5.9999999999999995e-05,2e-05,7e-05,0.0001,2
6952,7224,2.9999999999999997e-05,0.0,0.00016999999999999999,0.00023999999999999998,-5.9999999999999995e-05,2e-05,7e-05,0.0001,2
6953,7225,2.9999999999999997e-05,0.0,0.00016999999999999999,0.00023999999999999998,-5.9999999999999995e-05,2e-05,7e-05,0.0001,2
6954,7226,2.9999999999999997e-05,0.0,0.00016999999999999999,0.00023999999999999998,-5.9999999999999995e-05,2e-05,7e-05,0.0001,2
6955,7227,2.9999999999999997e-05,0.0,0.00016999999999999999,0.00023999999999999998,-5.9999999999999995e-05,2e-05,7e-05,0.0001,2
6956,7228,2.9999999999999997e-05,0.0,0.00016999999999999999,0.00023999999999999998,-5.9999999999999995e-05,2e-05,7e-05,0.0001,2
6957,7229,2.9999999999999997e-05,0.0,0.00016999999999999999,0.00023999999999999998,-5.9999999999999995e-05,2e-05,7e-05,0.0001,2
6958,7230,2.9999999999999997e-05,0.0,0.00016999999999999999,0.00023999999999999998,-5.9999999999999995e-05,2e-05,7e-05,0.0001,2
6959,7231,2.9999999999999997e-05,0.0,0.00016999999999999999,0.00023999999999999998,-5.9999999999999995e-05,2e-05,7e-05,0.0001,2
6960,7232,2.9999999999999997e-05,0.0,0.00016999999999999999,0.00023999999999999998,-5.9999999999999995e-05,2e-05,7e-05,0.0001,2
6961,7233,2.9999999999999997e-05,0.0,0.00016999999999999999,0.00023999999999999998,-5.9999999999999995e-05,2e-05,7e-05,0.0001,2
6962,7234,2.9999999999999997e-05,0.0,0.00016999999999999999,0.00023999999999999998,-5.9999999999999995e-05,2e-05,7e-05,0.0001,2
6963,7235,2.9999999999999997e-05,0.0,0.00016999999999999999,0.00023999999999999998,-5.9999999999999995e-05,2e-05,7e-05,0.0001,2
6964,7236,2.9999999999999997e-05,0.0,0.00016999999999999999,0.00023999999999999998,-5.9999999999999995e-05,2e-05,7e-05,0.0001,2
6965,7238,2.9999999999999997e-05,0.0,0.00016999999999999999,0.00023999999999999998,-5.9999999999999995e-05,2e-05,7e-05,0.0001,2
6966,7239,2.9999999999999997e-05,0.0,0.00016999999999999999,0.00023999999999999998,-5.9999999999999995e-05,2e-05,7e-05,0.0001,2
6967,7240,-0.00088,-0.00029,-0.00014,-0.00032,0.0001,-5.9999999999999995e-05,-4e-05,-8e-05,2
6968,7241,-0.0004,-0.00049,5e-05,0.00013000000000000002,-2e-05,-5.9999999999999995e-05,-4e-05,-2e-05,2
6969,7242,-0.0004,-0.00049,5e-05,0.00013000000000000002,-2e-05,-5.9999999999999995e-05,-4e-05,-2e-05,2
6970,7244,-0.0004,-0.00049,5e-05,0.00013000000000000002,-2e-05,-5.9999999999999995e-05,-4e-05,-2e-05,2
6971,7245,-0.0004,-0.00049,5e-05,0.00013000000000000002,-2e-05,-5.9999999999999995e-05,-4e-05,-2e-05,2
6972,7246,-0.0004,-0.00049,5e-05,0.00013000000000000002,-2e-05,-5.9999999999999995e-05,-4e-05,-2e-05,2
6973,7247,-0.0004,-0.00049,5e-05,0.00013000000000000002,-2e-05,-5.9999999999999995e-05,-4e-05,-2e-05,2
6974,7248,-0.0004,-0.00049,5e-05,0.00013000000000000002,-2e-05,-5.9999999999999995e-05,-4e-05,-2e-05,2
6975,7249,-0.0004,-0.00049,5e-05,0.00013000000000000002,-2e-05,-5.9999999999999995e-05,-4e-05,-2e-05,2
6976,7250,-0.0004,-0.00049,5e-05,0.00013000000000000002,-2e-05,-5.9999999999999995e-05,-4e-05,-2e-05,2
6977,7251,-0.0004,-0.00049,5e-05,0.00013000000000000002,-2e-05,-5.9999999999999995e-05,-4e-05,-2e-05,2
6978,7252,-0.0004,-0.00049,5e-05,0.00013000000000000002,-2e-05,-5.9999999999999995e-05,-4e-05,-2e-05,2
6979,7253,-0.0004,-0.00049,5e-05,0.00013000000000000002,-2e-05,-5.9999999999999995e-05,-4e-05,-2e-05,2
6980,7254,-0.00014,-0.00026000000000000003,-0.00027,-2e-05,-5.9999999999999995e-05,1e-05,2e-05,-4e-05,2
6981,7255,0.0004,0.0002,0.00016,0.00035,0.0002,2e-05,-4e-05,4e-05,2
6982,7256,0.0004,0.0002,0.00016,0.00035,0.0002,2e-05,-4e-05,4e-05,2
6983,7257,0.0004,0.0002,0.00016,0.00035,0.0002,2e-05,-4e-05,4e-05,2
6984,7258,0.0004,0.0002,0.00016,0.00035,0.0002,2e-05,-4e-05,4e-05,2
6985,7259,0.0004,0.0002,0.00016,0.00035,0.0002,2e-05,-4e-05,4e-05,2
6986,7260,0.0004,0.0002,0.00016,0.00035,0.0002,2e-05,-4e-05,4e-05,2
6987,7261,0.0004,0.0002,0.00016,0.00035,0.0002,2e-05,-4e-05,4e-05,2
6988,7262,0.0004,0.0002,0.00016,0.00035,0.0002,2e-05,-4e-05,4e-05,2
6989,7263,0.0004,0.0002,0.00016,0.00035,0.0002,2e-05,-4e-05,4e-05,2
6990,7264,0.0004,0.0002,0.00016,0.00035,0.0002,2e-05,-4e-05,4e-05,2
6991,7265,0.0004,0.0002,0.00016,0.00035,0.0002,2e-05,-4e-05,4e-05,2
6992,7266,0.0004,0.0002,0.00016,0.00035,0.0002,2e-05,-4e-05,4e-05,2
6993,7267,0.0004,0.0002,0.00016,0.00035,0.0002,2e-05,-4e-05,4e-05,2
6994,7268,0.0004,0.0002,0.00016,0.00035,0.0002,2e-05,-4e-05,4e-05,2
6995,7269,0.0004,0.0002,0.00016,0.00035,0.0002,2e-05,-4e-05,4e-05,2
6996,7270,0.0004,0.0002,0.00016,0.00035,0.0002,2e-05,-4e-05,4e-05,2
6997,7271,0.0004,0.0002,0.00016,0.00035,0.0002,2e-05,-4e-05,4e-05,2
6998,7272,0.0004,0.0002,0.00016,0.00035,0.0002,2e-05,-4e-05,4e-05,2
6999,7273,0.0004,0.0002,0.00016,0.00035,0.0002,2e-05,-4e-05,4e-05,2
7000,7274,0.0004,0.0002,0.00016,0.00035,0.0002,2e-05,-4e-05,4e-05,2
7001,7275,0.0004,0.0002,0.00016,0.00035,0.0002,2e-05,-4e-05,4e-05,2
7002,7276,0.0004,0.0002,0.00016,0.00035,0.0002,2e-05,-4e-05,4e-05,2
7003,7277,0.0004,0.0002,0.00016,0.00035,0.0002,2e-05,-4e-05,4e-05,2
7004,7278,0.0004,0.0002,0.00016,0.00035,0.0002,2e-05,-4e-05,4e-05,2
7005,7279,0.0004,0.0002,0.00016,0.00035,0.0002,2e-05,-4e-05,4e-05,2
7006,7280,0.0004,0.0002,0.00016,0.00035,0.0002,2e-05,-4e-05,4e-05,2
7007,7281,0.0004,0.0002,0.00016,0.00035,0.0002,2e-05,-4e-05,4e-05,2
7008,7282,0.0004,0.0002,0.00016,0.00035,0.0002,2e-05,-4e-05,4e-05,2
7009,7283,0.0004,0.0002,0.00016,0.00035,0.0002,2e-05,-4e-05,4e-05,2
7010,7284,0.00054,0.00028,9e-05,5.9999999999999995e-05,-2e-05,-2.9999999999999997e-05,2e-05,0.00011,2
7011,7285,0.00054,0.00028,9e-05,5.9999999999999995e-05,-2e-05,-2.9999999999999997e-05,2e-05,0.00011,2
7012,7286,0.00054,0.00028,9e-05,5.9999999999999995e-05,-2e-05,-2.9999999999999997e-05,2e-05,0.00011,2
7013,7288,0.00054,0.00028,9e-05,5.9999999999999995e-05,-2e-05,-2.9999999999999997e-05,2e-05,0.00011,2
7014,7289,0.00054,0.00028,9e-05,5.9999999999999995e-05,-2e-05,-2.9999999999999997e-05,2e-05,0.00011,2
7015,7290,0.00054,0.00028,9e-05,5.9999999999999995e-05,-2e-05,-2.9999999999999997e-05,2e-05,0.00011,2
7016,7291,0.00054,0.00028,9e-05,5.9999999999999995e-05,-2e-05,-2.9999999999999997e-05,2e-05,0.00011,2
7017,7292,0.0001,-0.00037,-2.9999999999999997e-05,-7e-05,-0.00016,-1e-05,-1e-05,0.0,2
7018,7293,0.0001,-0.00037,-2.9999999999999997e-05,-7e-05,-0.00016,-1e-05,-1e-05,0.0,2
7019,7294,0.0001,-0.00037,-2.9999999999999997e-05,-7e-05,-0.00016,-1e-05,-1e-05,0.0,2
7020,7295,0.0001,-0.00037,-2.9999999999999997e-05,-7e-05,-0.00016,-1e-05,-1e-05,0.0,2
7021,7296,0.0001,-0.00037,-2.9999999999999997e-05,-7e-05,-0.00016,-1e-05,-1e-05,0.0,2
7022,7297,0.0001,-0.00037,-2.9999999999999997e-05,-7e-05,-0.00016,-1e-05,-1e-05,0.0,2
7023,7298,0.0001,-0.00037,-2.9999999999999997e-05,-7e-05,-0.00016,-1e-05,-1e-05,0.0,2
7024,7299,0.0001,-0.00037,-2.9999999999999997e-05,-7e-05,-0.00016,-1e-05,-1e-05,0.0,2
7025,7300,-0.00011999999999999999,-0.00014,-0.0001,5.9999999999999995e-05,0.0001,5.9999999999999995e-05,0.00013000000000000002,0.00011999999999999999,2
7026,7301,-0.00011999999999999999,-0.00014,-0.0001,5.9999999999999995e-05,0.0001,5.9999999999999995e-05,0.00013000000000000002,0.00011999999999999999,2
7027,7302,-0.00011999999999999999,-0.00014,-0.0001,5.9999999999999995e-05,0.0001,5.9999999999999995e-05,0.00013000000000000002,0.00011999999999999999,2
7028,7303,-0.00011999999999999999,-0.00014,-0.0001,5.9999999999999995e-05,0.0001,5.9999999999999995e-05,0.00013000000000000002,0.00011999999999999999,2
7029,7304,-0.00011999999999999999,-0.00014,-0.0001,5.9999999999999995e-05,0.0001,5.9999999999999995e-05,0.00013000000000000002,0.00011999999999999999,2
7030,7305,-0.00011999999999999999,-0.00014,-0.0001,5.9999999999999995e-05,0.0001,5.9999999999999995e-05,0.00013000000000000002,0.00011999999999999999,2
7031,7306,-0.00011999999999999999,-0.00014,-0.0001,5.9999999999999995e-05,0.0001,5.9999999999999995e-05,0.00013000000000000002,0.00011999999999999999,2
7032,7307,-0.00011999999999999999,-0.0003,-9e-05,-7e-05,-1e-05,-5e-05,-8e-05,-9e-05,2
7033,7308,-0.00011999999999999999,-0.0003,-9e-05,-7e-05,-1e-05,-5e-05,-8e-05,-9e-05,2
7034,7309,-0.00011999999999999999,-0.0003,-9e-05,-7e-05,-1e-05,-5e-05,-8e-05,-9e-05,2
7035,7310,-0.00011999999999999999,-0.0003,-9e-05,-7e-05,-1e-05,-5e-05,-8e-05,-9e-05,2
7036,7311,-0.00011999999999999999,-0.0003,-9e-05,-7e-05,-1e-05,-5e-05,-8e-05,-9e-05,2
7037,7312,-0.00011999999999999999,-0.0003,-9e-05,-7e-05,-1e-05,-5e-05,-8e-05,-9e-05,2
7038,7313,-0.00011999999999999999,-0.0003,-9e-05,-7e-05,-1e-05,-5e-05,-8e-05,-9e-05,2
7039,7314,-0.00015,0.00043,2e-05,0.00023999999999999998,0.0,0.0,-1e-05,5.9999999999999995e-05,2
7040,7315,-0.00032,0.00026000000000000003,4e-05,-0.0003,0.00016,5e-05,5e-05,-5e-05,2
7041,7316,-0.00032,0.00026000000000000003,4e-05,-0.0003,0.00016,5e-05,5e-05,-5e-05,2
7042,7317,-0.00032,0.00026000000000000003,4e-05,-0.0003,0.00016,5e-05,5e-05,-5e-05,2
7043,7318,-0.00032,0.00026000000000000003,4e-05,-0.0003,0.00016,5e-05,5e-05,-5e-05,2
7044,7319,-0.00032,0.00026000000000000003,4e-05,-0.0003,0.00016,5e-05,5e-05,-5e-05,2
7045,7320,-0.00032,0.00026000000000000003,4e-05,-0.0003,0.00016,5e-05,5e-05,-5e-05,2
7046,7321,-0.00032,0.00026000000000000003,4e-05,-0.0003,0.00016,5e-05,5e-05,-5e-05,2
7047,7322,-0.00032,0.00026000000000000003,4e-05,-0.0003,0.00016,5e-05,5e-05,-5e-05,2
7048,7323,-0.00032,0.00026000000000000003,4e-05,-0.0003,0.00016,5e-05,5e-05,-5e-05,2
7049,7324,-0.00032,0.00026000000000000003,4e-05,-0.0003,0.00016,5e-05,5e-05,-5e-05,2
7050,7325,-0.00032,0.00026000000000000003,4e-05,-0.0003,0.00016,5e-05,5e-05,-5e-05,2
7051,7326,-0.00032,0.00026000000000000003,4e-05,-0.0003,0.00016,5e-05,5e-05,-5e-05,2
7052,7327,-0.00032,0.00026000000000000003,4e-05,-0.0003,0.00016,5e-05,5e-05,-5e-05,2
7053,7328,-0.00032,0.00026000000000000003,4e-05,-0.0003,0.00016,5e-05,5e-05,-5e-05,2
7054,7329,-0.00032,0.00026000000000000003,4e-05,-0.0003,0.00016,5e-05,5e-05,-5e-05,2
7055,7330,-0.00032,0.00026000000000000003,4e-05,-0.0003,0.00016,5e-05,5e-05,-5e-05,2
7056,7331,-0.00032,0.00026000000000000003,4e-05,-0.0003,0.00016,5e-05,5e-05,-5e-05,2
7057,7332,-0.00032,0.00026000000000000003,4e-05,-0.0003,0.00016,5e-05,5e-05,-5e-05,2
7058,7333,-0.00032,0.00026000000000000003,4e-05,-0.0003,0.00016,5e-05,5e-05,-5e-05,2
7059,7334,-0.00032,0.00026000000000000003,4e-05,-0.0003,0.00016,5e-05,5e-05,-5e-05,2
7060,7335,-0.00032,0.00026000000000000003,4e-05,-0.0003,0.00016,5e-05,5e-05,-5e-05,2
7061,7336,-0.00032,0.00026000000000000003,4e-05,-0.0003,0.00016,5e-05,5e-05,-5e-05,2
7062,7339,-0.00026000000000000003,-0.00028,8e-05,-0.00011999999999999999,-0.00014,-2.9999999999999997e-05,1e-05,0.0,2
7063,7340,-0.00026000000000000003,-0.00028,8e-05,-0.00011999999999999999,-0.00014,-2.9999999999999997e-05,1e-05,0.0,2
7064,7341,-0.00026000000000000003,-0.00028,8e-05,-0.00011999999999999999,-0.00014,-2.9999999999999997e-05,1e-05,0.0,2
7065,7342,-0.00026000000000000003,-0.00028,8e-05,-0.00011999999999999999,-0.00014,-2.9999999999999997e-05,1e-05,0.0,2
7066,7343,-0.00026000000000000003,-0.00028,8e-05,-0.00011999999999999999,-0.00014,-2.9999999999999997e-05,1e-05,0.0,2
7067,7344,-0.00026000000000000003,-0.00028,8e-05,-0.00011999999999999999,-0.00014,-2.9999999999999997e-05,1e-05,0.0,2
7068,7345,-0.00026000000000000003,-0.00028,8e-05,-0.00011999999999999999,-0.00014,-2.9999999999999997e-05,1e-05,0.0,2
7069,7346,-0.00026000000000000003,-0.00028,8e-05,-0.00011999999999999999,-0.00014,-2.9999999999999997e-05,1e-05,0.0,2
7070,7347,-0.00026000000000000003,-0.00028,8e-05,-0.00011999999999999999,-0.00014,-2.9999999999999997e-05,1e-05,0.0,2
7071,7348,-0.00026000000000000003,-0.00028,8e-05,-0.00011999999999999999,-0.00014,-2.9999999999999997e-05,1e-05,0.0,2
7072,7349,-0.00026000000000000003,-0.00028,8e-05,-0.00011999999999999999,-0.00014,-2.9999999999999997e-05,1e-05,0.0,2
7073,7350,-0.00026000000000000003,-0.00028,8e-05,-0.00011999999999999999,-0.00014,-2.9999999999999997e-05,1e-05,0.0,2
7074,7351,-0.00026000000000000003,-0.00028,8e-05,-0.00011999999999999999,-0.00014,-2.9999999999999997e-05,1e-05,0.0,2
7075,7352,-0.00026000000000000003,-0.00028,8e-05,-0.00011999999999999999,-0.00014,-2.9999999999999997e-05,1e-05,0.0,2
7076,7353,-0.00026000000000000003,-0.00028,8e-05,-0.00011999999999999999,-0.00014,-2.9999999999999997e-05,1e-05,0.0,2
7077,7354,-0.00026000000000000003,-0.00028,8e-05,-0.00011999999999999999,-0.00014,-2.9999999999999997e-05,1e-05,0.0,2
7078,7355,-0.00026000000000000003,-0.00028,8e-05,-0.00011999999999999999,-0.00014,-2.9999999999999997e-05,1e-05,0.0,2
7079,7356,-0.00026000000000000003,-0.00028,8e-05,-0.00011999999999999999,-0.00014,-2.9999999999999997e-05,1e-05,0.0,2
7080,7357,-0.00026000000000000003,-0.00028,8e-05,-0.00011999999999999999,-0.00014,-2.9999999999999997e-05,1e-05,0.0,2
7081,7358,-0.00026000000000000003,-0.00028,8e-05,-0.00011999999999999999,-0.00014,-2.9999999999999997e-05,1e-05,0.0,2
7082,7359,-0.00026000000000000003,-0.00028,8e-05,-0.00011999999999999999,-0.00014,-2.9999999999999997e-05,1e-05,0.0,2
7083,7360,-0.00047999999999999996,-0.00026000000000000003,-5.9999999999999995e-05,-0.00025,-0.00016999999999999999,-7e-05,-5e-05,-0.00011,2
7084,7361,2e-05,7e-05,-0.00016999999999999999,-0.00086,-0.00026000000000000003,-4e-05,-7e-05,-7e-05,2
7085,7362,2e-05,7e-05,-0.00016999999999999999,-0.00086,-0.00026000000000000003,-4e-05,-7e-05,-7e-05,2
7086,7363,2e-05,7e-05,-0.00016999999999999999,-0.00086,-0.00026000000000000003,-4e-05,-7e-05,-7e-05,2
7087,7364,2e-05,7e-05,-0.00016999999999999999,-0.00086,-0.00026000000000000003,-4e-05,-7e-05,-7e-05,2
7088,7365,2e-05,7e-05,-0.00016999999999999999,-0.00086,-0.00026000000000000003,-4e-05,-7e-05,-7e-05,2
7089,7366,2e-05,7e-05,-0.00016999999999999999,-0.00086,-0.00026000000000000003,-4e-05,-7e-05,-7e-05,2
7090,7367,2e-05,7e-05,-0.00016999999999999999,-0.00086,-0.00026000000000000003,-4e-05,-7e-05,-7e-05,2
7091,7368,2e-05,7e-05,-0.00016999999999999999,-0.00086,-0.00026000000000000003,-4e-05,-7e-05,-7e-05,2
7092,7369,2e-05,7e-05,-0.00016999999999999999,-0.00086,-0.00026000000000000003,-4e-05,-7e-05,-7e-05,2
7093,7370,2e-05,7e-05,-0.00016999999999999999,-0.00086,-0.00026000000000000003,-4e-05,-7e-05,-7e-05,2
7094,7371,2e-05,7e-05,-0.00016999999999999999,-0.00086,-0.00026000000000000003,-4e-05,-7e-05,-7e-05,2
7095,7372,2e-05,7e-05,-0.00016999999999999999,-0.00086,-0.00026000000000000003,-4e-05,-7e-05,-7e-05,2
7096,7373,2e-05,7e-05,-0.00016999999999999999,-0.00086,-0.00026000000000000003,-4e-05,-7e-05,-7e-05,2
7097,7374,-0.00022999999999999998,-0.0005099999999999999,-0.00013000000000000002,-0.00047999999999999996,-0.00023999999999999998,-5e-05,1e-05,1e-05,2
7098,7375,4e-05,0.0003,0.00011999999999999999,-5.9999999999999995e-05,-0.00014,0.0,5.9999999999999995e-05,5e-05,2
7099,7376,4e-05,0.0003,0.00011999999999999999,-5.9999999999999995e-05,-0.00014,0.0,5.9999999999999995e-05,5e-05,2
7100,7377,4e-05,0.0003,0.00011999999999999999,-5.9999999999999995e-05,-0.00014,0.0,5.9999999999999995e-05,5e-05,2
7101,7378,4e-05,0.0003,0.00011999999999999999,-5.9999999999999995e-05,-0.00014,0.0,5.9999999999999995e-05,5e-05,2
7102,7379,4e-05,0.0003,0.00011999999999999999,-5.9999999999999995e-05,-0.00014,0.0,5.9999999999999995e-05,5e-05,2
7103,7380,4e-05,0.0003,0.00011999999999999999,-5.9999999999999995e-05,-0.00014,0.0,5.9999999999999995e-05,5e-05,2
7104,7381,4e-05,0.0003,0.00011999999999999999,-5.9999999999999995e-05,-0.00014,0.0,5.9999999999999995e-05,5e-05,2
7105,7382,4e-05,0.0003,0.00011999999999999999,-5.9999999999999995e-05,-0.00014,0.0,5.9999999999999995e-05,5e-05,2
7106,7383,4e-05,0.0003,0.00011999999999999999,-5.9999999999999995e-05,-0.00014,0.0,5.9999999999999995e-05,5e-05,2
7107,7384,4e-05,0.0003,0.00011999999999999999,-5.9999999999999995e-05,-0.00014,0.0,5.9999999999999995e-05,5e-05,2
7108,7385,4e-05,0.0003,0.00011999999999999999,-5.9999999999999995e-05,-0.00014,0.0,5.9999999999999995e-05,5e-05,2
7109,7386,4e-05,0.0003,0.00011999999999999999,-5.9999999999999995e-05,-0.00014,0.0,5.9999999999999995e-05,5e-05,2
7110,7388,4e-05,0.0003,0.00011999999999999999,-5.9999999999999995e-05,-0.00014,0.0,5.9999999999999995e-05,5e-05,2
7111,7389,4e-05,0.0003,0.00011999999999999999,-5.9999999999999995e-05,-0.00014,0.0,5.9999999999999995e-05,5e-05,2
7112,7390,4e-05,0.0003,0.00011999999999999999,-5.9999999999999995e-05,-0.00014,0.0,5.9999999999999995e-05,5e-05,2
7113,7391,4e-05,0.0003,0.00011999999999999999,-5.9999999999999995e-05,-0.00014,0.0,5.9999999999999995e-05,5e-05,2
7114,7392,4e-05,0.0003,0.00011999999999999999,-5.9999999999999995e-05,-0.00014,0.0,5.9999999999999995e-05,5e-05,2
7115,7393,4e-05,0.0003,0.00011999999999999999,-5.9999999999999995e-05,-0.00014,0.0,5.9999999999999995e-05,5e-05,2
7116,7394,4e-05,0.0003,0.00011999999999999999,-5.9999999999999995e-05,-0.00014,0.0,5.9999999999999995e-05,5e-05,2
7117,7395,4e-05,0.0003,0.00011999999999999999,-5.9999999999999995e-05,-0.00014,0.0,5.9999999999999995e-05,5e-05,2
7118,7396,4e-05,0.0003,0.00011999999999999999,-5.9999999999999995e-05,-0.00014,0.0,5.9999999999999995e-05,5e-05,2
7119,7397,0.00041,-0.0003,-5.9999999999999995e-05,0.00011,7e-05,-4e-05,5.9999999999999995e-05,2e-05,2
7120,7398,-0.00036,0.00011999999999999999,-2e-05,-2e-05,-4e-05,-2e-05,-0.00021,-0.00022999999999999998,2
7121,7399,0.00027,0.00011,0.00016999999999999999,0.00011999999999999999,7e-05,4e-05,8e-05,0.00018999999999999998,2
7122,7400,0.00027,0.00011,0.00016999999999999999,0.00011999999999999999,7e-05,4e-05,8e-05,0.00018999999999999998,2
7123,7401,0.00027,0.00011,0.00016999999999999999,0.00011999999999999999,7e-05,4e-05,8e-05,0.00018999999999999998,2
7124,7402,0.00027,0.00011,0.00016999999999999999,0.00011999999999999999,7e-05,4e-05,8e-05,0.00018999999999999998,2
7125,7403,0.00027,0.00011,0.00016999999999999999,0.00011999999999999999,7e-05,4e-05,8e-05,0.00018999999999999998,2
7126,7404,0.00027,0.00011,0.00016999999999999999,0.00011999999999999999,7e-05,4e-05,8e-05,0.00018999999999999998,2
7127,7405,0.00027,0.00011,0.00016999999999999999,0.00011999999999999999,7e-05,4e-05,8e-05,0.00018999999999999998,2
7128,7406,0.00027,0.00011,0.00016999999999999999,0.00011999999999999999,7e-05,4e-05,8e-05,0.00018999999999999998,2
7129,7407,0.00027,0.00011,0.00016999999999999999,0.00011999999999999999,7e-05,4e-05,8e-05,0.00018999999999999998,2
7130,7408,0.00027,0.00011,0.00016999999999999999,0.00011999999999999999,7e-05,4e-05,8e-05,0.00018999999999999998,2
7131,7409,0.00027,0.00011,0.00016999999999999999,0.00011999999999999999,7e-05,4e-05,8e-05,0.00018999999999999998,2
7132,7410,0.00027,0.00011,0.00016999999999999999,0.00011999999999999999,7e-05,4e-05,8e-05,0.00018999999999999998,2
7133,7411,0.00027,0.00011,0.00016999999999999999,0.00011999999999999999,7e-05,4e-05,8e-05,0.00018999999999999998,2
7134,7412,0.00027,0.00011,0.00016999999999999999,0.00011999999999999999,7e-05,4e-05,8e-05,0.00018999999999999998,2
7135,7413,0.00027,0.00011,0.00016999999999999999,0.00011999999999999999,7e-05,4e-05,8e-05,0.00018999999999999998,2
7136,7414,0.00027,0.00011,0.00016999999999999999,0.00011999999999999999,7e-05,4e-05,8e-05,0.00018999999999999998,2
7137,7415,0.00027,0.00011,0.00016999999999999999,0.00011999999999999999,7e-05,4e-05,8e-05,0.00018999999999999998,2
7138,7416,0.00027,0.00011,0.00016999999999999999,0.00011999999999999999,7e-05,4e-05,8e-05,0.00018999999999999998,2
7139,7417,0.00027,0.00011,0.00016999999999999999,0.00011999999999999999,7e-05,4e-05,8e-05,0.00018999999999999998,2
7140,7418,0.00027,0.00011,0.00016999999999999999,0.00011999999999999999,7e-05,4e-05,8e-05,0.00018999999999999998,2
7141,7419,0.00027,0.00011,0.00016999999999999999,0.00011999999999999999,7e-05,4e-05,8e-05,0.00018999999999999998,2
7142,7420,0.00054,2e-05,-0.00028,-0.00011,-0.00015,-0.0001,-8e-05,-0.0001,2
7143,7421,-0.00025,7e-05,-0.00013000000000000002,0.00042,9e-05,-2e-05,0.0,5.9999999999999995e-05,2
7144,7422,-0.00025,7e-05,-0.00013000000000000002,0.00042,9e-05,-2e-05,0.0,5.9999999999999995e-05,2
7145,7423,-0.00025,7e-05,-0.00013000000000000002,0.00042,9e-05,-2e-05,0.0,5.9999999999999995e-05,2
7146,7424,-0.00025,7e-05,-0.00013000000000000002,0.00042,9e-05,-2e-05,0.0,5.9999999999999995e-05,2
7147,7425,-0.00025,7e-05,-0.00013000000000000002,0.00042,9e-05,-2e-05,0.0,5.9999999999999995e-05,2
7148,7426,-0.00025,7e-05,-0.00013000000000000002,0.00042,9e-05,-2e-05,0.0,5.9999999999999995e-05,2
7149,7427,-0.00025,7e-05,-0.00013000000000000002,0.00042,9e-05,-2e-05,0.0,5.9999999999999995e-05,2
7150,7428,-0.00025,7e-05,-0.00013000000000000002,0.00042,9e-05,-2e-05,0.0,5.9999999999999995e-05,2
7151,7429,-0.00025,7e-05,-0.00013000000000000002,0.00042,9e-05,-2e-05,0.0,5.9999999999999995e-05,2
7152,7430,-0.00025,7e-05,-0.00013000000000000002,0.00042,9e-05,-2e-05,0.0,5.9999999999999995e-05,2
7153,7431,-0.00025,7e-05,-0.00013000000000000002,0.00042,9e-05,-2e-05,0.0,5.9999999999999995e-05,2
7154,7432,-0.00025,7e-05,-0.00013000000000000002,0.00042,9e-05,-2e-05,0.0,5.9999999999999995e-05,2
7155,7433,-0.00025,7e-05,-0.00013000000000000002,0.00042,9e-05,-2e-05,0.0,5.9999999999999995e-05,2
7156,7434,-0.00025,7e-05,-0.00013000000000000002,0.00042,9e-05,-2e-05,0.0,5.9999999999999995e-05,2
7157,7435,0.0005099999999999999,0.0006900000000000001,0.00011,0.00031,0.00022999999999999998,4e-05,5e-05,5.9999999999999995e-05,2
7158,7436,0.0005099999999999999,0.0006900000000000001,0.00011,0.00031,0.00022999999999999998,4e-05,5e-05,5.9999999999999995e-05,2
7159,7438,0.0005099999999999999,0.0006900000000000001,0.00011,0.00031,0.00022999999999999998,4e-05,5e-05,5.9999999999999995e-05,2
7160,7439,0.0005099999999999999,0.0006900000000000001,0.00011,0.00031,0.00022999999999999998,4e-05,5e-05,5.9999999999999995e-05,2
7161,7440,0.0005099999999999999,0.0006900000000000001,0.00011,0.00031,0.00022999999999999998,4e-05,5e-05,5.9999999999999995e-05,2
7162,7441,0.0005099999999999999,0.0006900000000000001,0.00011,0.00031,0.00022999999999999998,4e-05,5e-05,5.9999999999999995e-05,2
7163,7442,0.0005099999999999999,0.0006900000000000001,0.00011,0.00031,0.00022999999999999998,4e-05,5e-05,5.9999999999999995e-05,2
7164,7443,0.0005099999999999999,0.0006900000000000001,0.00011,0.00031,0.00022999999999999998,4e-05,5e-05,5.9999999999999995e-05,2
7165,7444,0.0005099999999999999,0.0006900000000000001,0.00011,0.00031,0.00022999999999999998,4e-05,5e-05,5.9999999999999995e-05,2
7166,7445,0.0005099999999999999,0.0006900000000000001,0.00011,0.00031,0.00022999999999999998,4e-05,5e-05,5.9999999999999995e-05,2
7167,7446,0.0005099999999999999,0.0006900000000000001,0.00011,0.00031,0.00022999999999999998,4e-05,5e-05,5.9999999999999995e-05,2
7168,7447,0.0005099999999999999,0.0006900000000000001,0.00011,0.00031,0.00022999999999999998,4e-05,5e-05,5.9999999999999995e-05,2
7169,7448,0.0005099999999999999,0.0006900000000000001,0.00011,0.00031,0.00022999999999999998,4e-05,5e-05,5.9999999999999995e-05,2
7170,7449,0.0005099999999999999,0.0006900000000000001,0.00011,0.00031,0.00022999999999999998,4e-05,5e-05,5.9999999999999995e-05,2
7171,7450,0.0005099999999999999,0.0006900000000000001,0.00011,0.00031,0.00022999999999999998,4e-05,5e-05,5.9999999999999995e-05,2
7172,7451,0.0005099999999999999,0.0006900000000000001,0.00011,0.00031,0.00022999999999999998,4e-05,5e-05,5.9999999999999995e-05,2
7173,7452,0.0005099999999999999,0.0006900000000000001,0.00011,0.00031,0.00022999999999999998,4e-05,5e-05,5.9999999999999995e-05,2
7174,7453,0.0005099999999999999,0.0006900000000000001,0.00011,0.00031,0.00022999999999999998,4e-05,5e-05,5.9999999999999995e-05,2
7175,7454,0.0005099999999999999,0.0006900000000000001,0.00011,0.00031,0.00022999999999999998,4e-05,5e-05,5.9999999999999995e-05,2
7176,7455,0.0005099999999999999,0.0006900000000000001,0.00011,0.00031,0.00022999999999999998,4e-05,5e-05,5.9999999999999995e-05,2
7177,7456,0.0005099999999999999,0.0006900000000000001,0.00011,0.00031,0.00022999999999999998,4e-05,5e-05,5.9999999999999995e-05,2
7178,7457,0.0005099999999999999,0.0006900000000000001,0.00011,0.00031,0.00022999999999999998,4e-05,5e-05,5.9999999999999995e-05,2
7179,7458,0.00028,9e-05,2.9999999999999997e-05,0.0003,-2e-05,-5e-05,2e-05,1e-05,2
7180,7459,0.00028,9e-05,2.9999999999999997e-05,0.0003,-2e-05,-5e-05,2e-05,1e-05,2
7181,7460,0.00028,9e-05,2.9999999999999997e-05,0.0003,-2e-05,-5e-05,2e-05,1e-05,2
7182,7461,0.00028,9e-05,2.9999999999999997e-05,0.0003,-2e-05,-5e-05,2e-05,1e-05,2
7183,7462,0.00028,9e-05,2.9999999999999997e-05,0.0003,-2e-05,-5e-05,2e-05,1e-05,2
7184,7463,0.00028,9e-05,2.9999999999999997e-05,0.0003,-2e-05,-5e-05,2e-05,1e-05,2
7185,7464,0.00028,9e-05,2.9999999999999997e-05,0.0003,-2e-05,-5e-05,2e-05,1e-05,2
7186,7465,0.00028,9e-05,2.9999999999999997e-05,0.0003,-2e-05,-5e-05,2e-05,1e-05,2
7187,7466,0.00028,9e-05,2.9999999999999997e-05,0.0003,-2e-05,-5e-05,2e-05,1e-05,2
7188,7467,0.00028,9e-05,2.9999999999999997e-05,0.0003,-2e-05,-5e-05,2e-05,1e-05,2
7189,7468,0.00028,9e-05,2.9999999999999997e-05,0.0003,-2e-05,-5e-05,2e-05,1e-05,2
7190,7469,0.00028,9e-05,2.9999999999999997e-05,0.0003,-2e-05,-5e-05,2e-05,1e-05,2
7191,7470,0.00028,9e-05,2.9999999999999997e-05,0.0003,-2e-05,-5e-05,2e-05,1e-05,2
7192,7471,0.00028,9e-05,2.9999999999999997e-05,0.0003,-2e-05,-5e-05,2e-05,1e-05,2
7193,7472,0.00028,9e-05,2.9999999999999997e-05,0.0003,-2e-05,-5e-05,2e-05,1e-05,2
7194,7473,0.00028,9e-05,2.9999999999999997e-05,0.0003,-2e-05,-5e-05,2e-05,1e-05,2
7195,7474,0.00028,9e-05,2.9999999999999997e-05,0.0003,-2e-05,-5e-05,2e-05,1e-05,2
7196,7475,0.00028,9e-05,2.9999999999999997e-05,0.0003,-2e-05,-5e-05,2e-05,1e-05,2
7197,7476,0.00028,9e-05,2.9999999999999997e-05,0.0003,-2e-05,-5e-05,2e-05,1e-05,2
7198,7477,0.00028,9e-05,2.9999999999999997e-05,0.0003,-2e-05,-5e-05,2e-05,1e-05,2
7199,7478,0.00028,9e-05,2.9999999999999997e-05,0.0003,-2e-05,-5e-05,2e-05,1e-05,2
7200,7479,0.00028,9e-05,2.9999999999999997e-05,0.0003,-2e-05,-5e-05,2e-05,1e-05,2
7201,7480,0.00022999999999999998,0.0,0.0001,-4e-05,1e-05,2e-05,5e-05,0.0001,2
7202,7481,0.0,-0.00031,-0.00011999999999999999,-0.00032,-0.0002,-7e-05,-4e-05,-5.9999999999999995e-05,2
7203,7482,0.0,-0.00031,-0.00011999999999999999,-0.00032,-0.0002,-7e-05,-4e-05,-5.9999999999999995e-05,2
7204,7483,0.0,-0.00031,-0.00011999999999999999,-0.00032,-0.0002,-7e-05,-4e-05,-5.9999999999999995e-05,2
7205,7484,0.0,-0.00031,-0.00011999999999999999,-0.00032,-0.0002,-7e-05,-4e-05,-5.9999999999999995e-05,2
7206,7485,0.0,-0.00031,-0.00011999999999999999,-0.00032,-0.0002,-7e-05,-4e-05,-5.9999999999999995e-05,2
7207,7486,0.0,-0.00031,-0.00011999999999999999,-0.00032,-0.0002,-7e-05,-4e-05,-5.9999999999999995e-05,2
7208,7488,0.0,-0.00031,-0.00011999999999999999,-0.00032,-0.0002,-7e-05,-4e-05,-5.9999999999999995e-05,2
7209,7489,0.0,-0.00031,-0.00011999999999999999,-0.00032,-0.0002,-7e-05,-4e-05,-5.9999999999999995e-05,2
7210,7490,0.0,-0.00031,-0.00011999999999999999,-0.00032,-0.0002,-7e-05,-4e-05,-5.9999999999999995e-05,2
7211,7491,0.0,-0.00031,-0.00011999999999999999,-0.00032,-0.0002,-7e-05,-4e-05,-5.9999999999999995e-05,2
7212,7492,0.0,-0.00031,-0.00011999999999999999,-0.00032,-0.0002,-7e-05,-4e-05,-5.9999999999999995e-05,2
7213,7493,0.0,-0.00031,-0.00011999999999999999,-0.00032,-0.0002,-7e-05,-4e-05,-5.9999999999999995e-05,2
7214,7494,-0.00033999999999999997,0.00047000000000000004,0.0,-0.00018999999999999998,-0.00014,0.0,1e-05,-5e-05,2
7215,7495,-0.00033999999999999997,0.00047000000000000004,0.0,-0.00018999999999999998,-0.00014,0.0,1e-05,-5e-05,2
7216,7496,-0.00016,-0.00045,-0.00026000000000000003,-0.0008699999999999999,-0.00018999999999999998,-5e-05,-0.0001,-0.0002,2
7217,7497,-0.00016,-0.00045,-0.00026000000000000003,-0.0008699999999999999,-0.00018999999999999998,-5e-05,-0.0001,-0.0002,2
7218,7498,-0.00016,-0.00045,-0.00026000000000000003,-0.0008699999999999999,-0.00018999999999999998,-5e-05,-0.0001,-0.0002,2
7219,7499,-0.00016,-0.00045,-0.00026000000000000003,-0.0008699999999999999,-0.00018999999999999998,-5e-05,-0.0001,-0.0002,2
7220,7500,-0.00016,-0.00045,-0.00026000000000000003,-0.0008699999999999999,-0.00018999999999999998,-5e-05,-0.0001,-0.0002,2
7221,7501,-0.00016,-0.00045,-0.00026000000000000003,-0.0008699999999999999,-0.00018999999999999998,-5e-05,-0.0001,-0.0002,2
7222,7502,-0.00016,-0.00045,-0.00026000000000000003,-0.0008699999999999999,-0.00018999999999999998,-5e-05,-0.0001,-0.0002,2
7223,7503,-0.00016,-0.00045,-0.00026000000000000003,-0.0008699999999999999,-0.00018999999999999998,-5e-05,-0.0001,-0.0002,2
7224,7504,-0.00016,-0.00045,-0.00026000000000000003,-0.0008699999999999999,-0.00018999999999999998,-5e-05,-0.0001,-0.0002,2
7225,7505,-0.00016,-0.00045,-0.00026000000000000003,-0.0008699999999999999,-0.00018999999999999998,-5e-05,-0.0001,-0.0002,2
7226,7506,-0.00016,-0.00045,-0.00026000000000000003,-0.0008699999999999999,-0.00018999999999999998,-5e-05,-0.0001,-0.0002,2
7227,7507,-0.00016,-0.00045,-0.00026000000000000003,-0.0008699999999999999,-0.00018999999999999998,-5e-05,-0.0001,-0.0002,2
7228,7508,-0.00016,-0.00045,-0.00026000000000000003,-0.0008699999999999999,-0.00018999999999999998,-5e-05,-0.0001,-0.0002,2
7229,7509,-0.00016,-0.00045,-0.00026000000000000003,-0.0008699999999999999,-0.00018999999999999998,-5e-05,-0.0001,-0.0002,2
7230,7510,-0.00016,-0.00045,-0.00026000000000000003,-0.0008699999999999999,-0.00018999999999999998,-5e-05,-0.0001,-0.0002,2
7231,7511,-0.00016,-0.00045,-0.00026000000000000003,-0.0008699999999999999,-0.00018999999999999998,-5e-05,-0.0001,-0.0002,2
7232,7512,-0.00016,-0.00045,-0.00026000000000000003,-0.0008699999999999999,-0.00018999999999999998,-5e-05,-0.0001,-0.0002,2
7233,7513,-0.00016,-0.00045,-0.00026000000000000003,-0.0008699999999999999,-0.00018999999999999998,-5e-05,-0.0001,-0.0002,2
7234,7514,-0.00016,-0.00045,-0.00026000000000000003,-0.0008699999999999999,-0.00018999999999999998,-5e-05,-0.0001,-0.0002,2
7235,7515,-0.00016,-0.00045,-0.00026000000000000003,-0.0008699999999999999,-0.00018999999999999998,-5e-05,-0.0001,-0.0002,2
7236,7516,-0.00016,-0.00045,-0.00026000000000000003,-0.0008699999999999999,-0.00018999999999999998,-5e-05,-0.0001,-0.0002,2
7237,7517,0.00018999999999999998,9e-05,0.0001,0.00018,1e-05,1e-05,7e-05,7e-05,2
7238,7518,-0.00029,-0.00044,-0.0001,7e-05,5e-05,-2e-05,-4e-05,-0.00011999999999999999,2
7239,7519,-0.00029,-0.00044,-0.0001,7e-05,5e-05,-2e-05,-4e-05,-0.00011999999999999999,2
7240,7520,-0.00029,-0.00044,-0.0001,7e-05,5e-05,-2e-05,-4e-05,-0.00011999999999999999,2
7241,7521,-0.00029,-0.00044,-0.0001,7e-05,5e-05,-2e-05,-4e-05,-0.00011999999999999999,2
7242,7522,-0.00029,-0.00044,-0.0001,7e-05,5e-05,-2e-05,-4e-05,-0.00011999999999999999,2
7243,7523,-0.00029,-0.00044,-0.0001,7e-05,5e-05,-2e-05,-4e-05,-0.00011999999999999999,2
7244,7524,-0.00029,-0.00044,-0.0001,7e-05,5e-05,-2e-05,-4e-05,-0.00011999999999999999,2
7245,7525,-0.00029,-0.00044,-0.0001,7e-05,5e-05,-2e-05,-4e-05,-0.00011999999999999999,2
7246,7526,-0.00029,-0.00044,-0.0001,7e-05,5e-05,-2e-05,-4e-05,-0.00011999999999999999,2
7247,7527,-0.00029,-0.00044,-0.0001,7e-05,5e-05,-2e-05,-4e-05,-0.00011999999999999999,2
7248,7528,-0.00029,-0.00044,-0.0001,7e-05,5e-05,-2e-05,-4e-05,-0.00011999999999999999,2
7249,7529,-0.00029,-0.00044,-0.0001,7e-05,5e-05,-2e-05,-4e-05,-0.00011999999999999999,2
7250,7530,-0.00029,-0.00044,-0.0001,7e-05,5e-05,-2e-05,-4e-05,-0.00011999999999999999,2
7251,7531,-0.00029,-0.00044,-0.0001,7e-05,5e-05,-2e-05,-4e-05,-0.00011999999999999999,2
7252,7532,-0.00029,-0.00044,-0.0001,7e-05,5e-05,-2e-05,-4e-05,-0.00011999999999999999,2
7253,7533,-0.00029,-0.00044,-0.0001,7e-05,5e-05,-2e-05,-4e-05,-0.00011999999999999999,2
7254,7534,-0.00029,-0.00044,-0.0001,7e-05,5e-05,-2e-05,-4e-05,-0.00011999999999999999,2
7255,7535,-0.00029,-0.00044,-0.0001,7e-05,5e-05,-2e-05,-4e-05,-0.00011999999999999999,2
7256,7536,-0.00029,-0.00044,-0.0001,7e-05,5e-05,-2e-05,-4e-05,-0.00011999999999999999,2
7257,7538,-0.00029,-0.00044,-0.0001,7e-05,5e-05,-2e-05,-4e-05,-0.00011999999999999999,2
7258,7539,-0.00029,-0.00044,-0.0001,7e-05,5e-05,-2e-05,-4e-05,-0.00011999999999999999,2
7259,7540,0.0006900000000000001,0.00018,-0.00011,-0.00015,0.0001,9e-05,8e-05,0.00011999999999999999,2
7260,7541,2e-05,-0.00011999999999999999,0.00015,0.00015,5e-05,-2e-05,-4e-05,1e-05,2
7261,7542,2e-05,-0.00011999999999999999,0.00015,0.00015,5e-05,-2e-05,-4e-05,1e-05,2
7262,7543,2e-05,-0.00011999999999999999,0.00015,0.00015,5e-05,-2e-05,-4e-05,1e-05,2
7263,7544,2e-05,-0.00011999999999999999,0.00015,0.00015,5e-05,-2e-05,-4e-05,1e-05,2
7264,7545,2e-05,-0.00011999999999999999,0.00015,0.00015,5e-05,-2e-05,-4e-05,1e-05,2
7265,7546,2e-05,-0.00011999999999999999,0.00015,0.00015,5e-05,-2e-05,-4e-05,1e-05,2
7266,7547,2e-05,-0.00011999999999999999,0.00015,0.00015,5e-05,-2e-05,-4e-05,1e-05,2
7267,7548,2e-05,-0.00011999999999999999,0.00015,0.00015,5e-05,-2e-05,-4e-05,1e-05,2
7268,7549,2e-05,-0.00011999999999999999,0.00015,0.00015,5e-05,-2e-05,-4e-05,1e-05,2
7269,7550,2e-05,-0.00011999999999999999,0.00015,0.00015,5e-05,-2e-05,-4e-05,1e-05,2
7270,7551,2e-05,-0.00011999999999999999,0.00015,0.00015,5e-05,-2e-05,-4e-05,1e-05,2
7271,7552,2e-05,-0.00011999999999999999,0.00015,0.00015,5e-05,-2e-05,-4e-05,1e-05,2
7272,7553,2e-05,-0.00011999999999999999,0.00015,0.00015,5e-05,-2e-05,-4e-05,1e-05,2
7273,7554,2e-05,-0.00011999999999999999,0.00015,0.00015,5e-05,-2e-05,-4e-05,1e-05,2
7274,7555,2e-05,-0.00011999999999999999,0.00015,0.00015,5e-05,-2e-05,-4e-05,1e-05,2
7275,7556,2e-05,-0.00011999999999999999,0.00015,0.00015,5e-05,-2e-05,-4e-05,1e-05,2
7276,7557,2e-05,-0.00011999999999999999,0.00015,0.00015,5e-05,-2e-05,-4e-05,1e-05,2
7277,7558,2e-05,-0.00011999999999999999,0.00015,0.00015,5e-05,-2e-05,-4e-05,1e-05,2
7278,7559,2e-05,-0.00011999999999999999,0.00015,0.00015,5e-05,-2e-05,-4e-05,1e-05,2
7279,7560,2e-05,-0.00011999999999999999,0.00015,0.00015,5e-05,-2e-05,-4e-05,1e-05,2
7280,7561,2e-05,-0.00011999999999999999,0.00015,0.00015,5e-05,-2e-05,-4e-05,1e-05,2
7281,7562,2e-05,-0.00011999999999999999,0.00015,0.00015,5e-05,-2e-05,-4e-05,1e-05,2
7282,7563,-0.00039,-0.00042,4e-05,0.0003,9e-05,-2e-05,-2e-05,-0.00013000000000000002,2
7283,7564,0.00041,-2.9999999999999997e-05,-5.9999999999999995e-05,0.00016,0.00016999999999999999,5.9999999999999995e-05,-1e-05,2e-05,2
7284,7565,0.00041,-2.9999999999999997e-05,-5.9999999999999995e-05,0.00016,0.00016999999999999999,5.9999999999999995e-05,-1e-05,2e-05,2
7285,7566,0.00041,-2.9999999999999997e-05,-5.9999999999999995e-05,0.00016,0.00016999999999999999,5.9999999999999995e-05,-1e-05,2e-05,2
7286,7567,0.00041,-2.9999999999999997e-05,-5.9999999999999995e-05,0.00016,0.00016999999999999999,5.9999999999999995e-05,-1e-05,2e-05,2
7287,7568,0.00041,-2.9999999999999997e-05,-5.9999999999999995e-05,0.00016,0.00016999999999999999,5.9999999999999995e-05,-1e-05,2e-05,2
7288,7569,0.00041,-2.9999999999999997e-05,-5.9999999999999995e-05,0.00016,0.00016999999999999999,5.9999999999999995e-05,-1e-05,2e-05,2
7289,7570,0.00041,-2.9999999999999997e-05,-5.9999999999999995e-05,0.00016,0.00016999999999999999,5.9999999999999995e-05,-1e-05,2e-05,2
7290,7571,0.00041,-2.9999999999999997e-05,-5.9999999999999995e-05,0.00016,0.00016999999999999999,5.9999999999999995e-05,-1e-05,2e-05,2
7291,7572,0.00041,-2.9999999999999997e-05,-5.9999999999999995e-05,0.00016,0.00016999999999999999,5.9999999999999995e-05,-1e-05,2e-05,2
7292,7573,0.00041,-2.9999999999999997e-05,-5.9999999999999995e-05,0.00016,0.00016999999999999999,5.9999999999999995e-05,-1e-05,2e-05,2
7293,7574,0.00041,-2.9999999999999997e-05,-5.9999999999999995e-05,0.00016,0.00016999999999999999,5.9999999999999995e-05,-1e-05,2e-05,2
7294,7575,0.00041,-2.9999999999999997e-05,-5.9999999999999995e-05,0.00016,0.00016999999999999999,5.9999999999999995e-05,-1e-05,2e-05,2
7295,7576,0.00041,-2.9999999999999997e-05,-5.9999999999999995e-05,0.00016,0.00016999999999999999,5.9999999999999995e-05,-1e-05,2e-05,2
7296,7577,0.00041,-2.9999999999999997e-05,-5.9999999999999995e-05,0.00016,0.00016999999999999999,5.9999999999999995e-05,-1e-05,2e-05,2
7297,7578,0.00037,-0.00045,5e-05,0.0001,-0.00011999999999999999,-5.9999999999999995e-05,1e-05,9e-05,2
7298,7579,-4e-05,-0.00033,-0.00015,-0.00039,-0.00016999999999999999,-2e-05,-1e-05,-9e-05,2
7299,7580,-4e-05,-0.00033,-0.00015,-0.00039,-0.00016999999999999999,-2e-05,-1e-05,-9e-05,2
7300,7581,-4e-05,-0.00033,-0.00015,-0.00039,-0.00016999999999999999,-2e-05,-1e-05,-9e-05,2
7301,7582,-4e-05,-0.00033,-0.00015,-0.00039,-0.00016999999999999999,-2e-05,-1e-05,-9e-05,2
7302,7583,-4e-05,-0.00033,-0.00015,-0.00039,-0.00016999999999999999,-2e-05,-1e-05,-9e-05,2
7303,7584,-4e-05,-0.00033,-0.00015,-0.00039,-0.00016999999999999999,-2e-05,-1e-05,-9e-05,2
7304,7585,-4e-05,-0.00033,-0.00015,-0.00039,-0.00016999999999999999,-2e-05,-1e-05,-9e-05,2
7305,7586,-4e-05,-0.00033,-0.00015,-0.00039,-0.00016999999999999999,-2e-05,-1e-05,-9e-05,2
7306,7588,-4e-05,-0.00033,-0.00015,-0.00039,-0.00016999999999999999,-2e-05,-1e-05,-9e-05,2
7307,7589,-4e-05,-0.00033,-0.00015,-0.00039,-0.00016999999999999999,-2e-05,-1e-05,-9e-05,2
7308,7590,-4e-05,-0.00033,-0.00015,-0.00039,-0.00016999999999999999,-2e-05,-1e-05,-9e-05,2
7309,7591,-4e-05,-0.00033,-0.00015,-0.00039,-0.00016999999999999999,-2e-05,-1e-05,-9e-05,2
7310,7592,-4e-05,-0.00033,-0.00015,-0.00039,-0.00016999999999999999,-2e-05,-1e-05,-9e-05,2
7311,7593,-4e-05,-0.00033,-0.00015,-0.00039,-0.00016999999999999999,-2e-05,-1e-05,-9e-05,2
7312,7594,-4e-05,-0.00033,-0.00015,-0.00039,-0.00016999999999999999,-2e-05,-1e-05,-9e-05,2
7313,7595,-4e-05,-0.00033,-0.00015,-0.00039,-0.00016999999999999999,-2e-05,-1e-05,-9e-05,2
7314,7596,-4e-05,-0.00033,-0.00015,-0.00039,-0.00016999999999999999,-2e-05,-1e-05,-9e-05,2
7315,7597,-4e-05,-0.00033,-0.00015,-0.00039,-0.00016999999999999999,-2e-05,-1e-05,-9e-05,2
7316,7598,-4e-05,-0.00033,-0.00015,-0.00039,-0.00016999999999999999,-2e-05,-1e-05,-9e-05,2
7317,7599,-4e-05,-0.00033,-0.00015,-0.00039,-0.00016999999999999999,-2e-05,-1e-05,-9e-05,2
7318,7600,0.0002,0.0001,2e-05,0.00022999999999999998,-2.9999999999999997e-05,-5.9999999999999995e-05,1e-05,0.0001,2
7319,7601,0.00023999999999999998,-8e-05,2e-05,0.00016,-1e-05,1e-05,-1e-05,2.9999999999999997e-05,2
7320,7602,0.00023999999999999998,-8e-05,2e-05,0.00016,-1e-05,1e-05,-1e-05,2.9999999999999997e-05,2
7321,7603,0.00023999999999999998,-8e-05,2e-05,0.00016,-1e-05,1e-05,-1e-05,2.9999999999999997e-05,2
7322,7604,0.00023999999999999998,-8e-05,2e-05,0.00016,-1e-05,1e-05,-1e-05,2.9999999999999997e-05,2
7323,7605,0.00023999999999999998,-8e-05,2e-05,0.00016,-1e-05,1e-05,-1e-05,2.9999999999999997e-05,2
7324,7606,0.00023999999999999998,-8e-05,2e-05,0.00016,-1e-05,1e-05,-1e-05,2.9999999999999997e-05,2
7325,7607,0.00023999999999999998,-8e-05,2e-05,0.00016,-1e-05,1e-05,-1e-05,2.9999999999999997e-05,2
7326,7608,0.00023999999999999998,-8e-05,2e-05,0.00016,-1e-05,1e-05,-1e-05,2.9999999999999997e-05,2
7327,7609,0.00023999999999999998,-8e-05,2e-05,0.00016,-1e-05,1e-05,-1e-05,2.9999999999999997e-05,2
7328,7610,0.00023999999999999998,-8e-05,2e-05,0.00016,-1e-05,1e-05,-1e-05,2.9999999999999997e-05,2
7329,7611,0.00023999999999999998,-8e-05,2e-05,0.00016,-1e-05,1e-05,-1e-05,2.9999999999999997e-05,2
7330,7612,0.00023999999999999998,-8e-05,2e-05,0.00016,-1e-05,1e-05,-1e-05,2.9999999999999997e-05,2
7331,7613,0.00023999999999999998,-8e-05,2e-05,0.00016,-1e-05,1e-05,-1e-05,2.9999999999999997e-05,2
7332,7614,-0.00016999999999999999,0.00011,-4e-05,-0.00018999999999999998,-1e-05,2.9999999999999997e-05,-7e-05,-0.00011,2
7333,7615,-0.00011999999999999999,0.00015,-1e-05,0.00054,5e-05,2.9999999999999997e-05,4e-05,2e-05,2
7334,7616,-0.00011999999999999999,0.00015,-1e-05,0.00054,5e-05,2.9999999999999997e-05,4e-05,2e-05,2
7335,7617,-0.00011999999999999999,0.00015,-1e-05,0.00054,5e-05,2.9999999999999997e-05,4e-05,2e-05,2
7336,7618,-0.00011999999999999999,0.00015,-1e-05,0.00054,5e-05,2.9999999999999997e-05,4e-05,2e-05,2
7337,7619,-0.00011999999999999999,0.00015,-1e-05,0.00054,5e-05,2.9999999999999997e-05,4e-05,2e-05,2
7338,7620,-0.00011999999999999999,0.00015,-1e-05,0.00054,5e-05,2.9999999999999997e-05,4e-05,2e-05,2
7339,7621,-0.00011999999999999999,0.00015,-1e-05,0.00054,5e-05,2.9999999999999997e-05,4e-05,2e-05,2
7340,7622,-0.00011999999999999999,0.00015,-1e-05,0.00054,5e-05,2.9999999999999997e-05,4e-05,2e-05,2
7341,7623,-0.00011999999999999999,0.00015,-1e-05,0.00054,5e-05,2.9999999999999997e-05,4e-05,2e-05,2
7342,7624,-0.00011999999999999999,0.00015,-1e-05,0.00054,5e-05,2.9999999999999997e-05,4e-05,2e-05,2
7343,7625,-0.00011999999999999999,0.00015,-1e-05,0.00054,5e-05,2.9999999999999997e-05,4e-05,2e-05,2
7344,7626,-0.00011999999999999999,0.00015,-1e-05,0.00054,5e-05,2.9999999999999997e-05,4e-05,2e-05,2
7345,7627,-0.00011999999999999999,0.00015,-1e-05,0.00054,5e-05,2.9999999999999997e-05,4e-05,2e-05,2
7346,7628,-0.00011999999999999999,0.00015,-1e-05,0.00054,5e-05,2.9999999999999997e-05,4e-05,2e-05,2
7347,7629,-0.00011999999999999999,0.00015,-1e-05,0.00054,5e-05,2.9999999999999997e-05,4e-05,2e-05,2
7348,7630,-0.00011999999999999999,0.00015,-1e-05,0.00054,5e-05,2.9999999999999997e-05,4e-05,2e-05,2
7349,7631,-0.00011999999999999999,0.00015,-1e-05,0.00054,5e-05,2.9999999999999997e-05,4e-05,2e-05,2
7350,7632,-0.00011999999999999999,0.00015,-1e-05,0.00054,5e-05,2.9999999999999997e-05,4e-05,2e-05,2
7351,7633,-0.00011999999999999999,0.00015,-1e-05,0.00054,5e-05,2.9999999999999997e-05,4e-05,2e-05,2
7352,7634,-0.00011999999999999999,0.00015,-1e-05,0.00054,5e-05,2.9999999999999997e-05,4e-05,2e-05,2
7353,7635,-0.00011999999999999999,0.00015,-1e-05,0.00054,5e-05,2.9999999999999997e-05,4e-05,2e-05,2
7354,7636,-0.00011999999999999999,0.00015,-1e-05,0.00054,5e-05,2.9999999999999997e-05,4e-05,2e-05,2
7355,7638,-0.00011999999999999999,0.00015,-1e-05,0.00054,5e-05,2.9999999999999997e-05,4e-05,2e-05,2
7356,7639,0.00025,0.00028,0.00023999999999999998,0.00013000000000000002,-5e-05,-5.9999999999999995e-05,-1e-05,4e-05,2
7357,7640,-0.0001,0.0,5e-05,0.0003,-0.00016999999999999999,-7e-05,-0.00011,-9e-05,2
7358,7641,-0.0001,0.0,5e-05,0.0003,-0.00016999999999999999,-7e-05,-0.00011,-9e-05,2
7359,7642,-0.0001,0.0,5e-05,0.0003,-0.00016999999999999999,-7e-05,-0.00011,-9e-05,2
7360,7643,-0.0001,0.0,5e-05,0.0003,-0.00016999999999999999,-7e-05,-0.00011,-9e-05,2
7361,7644,-0.0001,0.0,5e-05,0.0003,-0.00016999999999999999,-7e-05,-0.00011,-9e-05,2
7362,7645,-0.0001,0.0,5e-05,0.0003,-0.00016999999999999999,-7e-05,-0.00011,-9e-05,2
7363,7646,-0.0001,0.0,5e-05,0.0003,-0.00016999999999999999,-7e-05,-0.00011,-9e-05,2
7364,7647,-0.0001,0.0,5e-05,0.0003,-0.00016999999999999999,-7e-05,-0.00011,-9e-05,2
7365,7648,-0.0001,0.0,5e-05,0.0003,-0.00016999999999999999,-7e-05,-0.00011,-9e-05,2
7366,7649,-0.0001,0.0,5e-05,0.0003,-0.00016999999999999999,-7e-05,-0.00011,-9e-05,2
7367,7650,-0.0001,0.0,5e-05,0.0003,-0.00016999999999999999,-7e-05,-0.00011,-9e-05,2
7368,7651,-0.0001,0.0,5e-05,0.0003,-0.00016999999999999999,-7e-05,-0.00011,-9e-05,2
7369,7652,-0.0001,0.0,5e-05,0.0003,-0.00016999999999999999,-7e-05,-0.00011,-9e-05,2
7370,7653,-0.0001,0.0,5e-05,0.0003,-0.00016999999999999999,-7e-05,-0.00011,-9e-05,2
7371,7654,-0.0001,0.0,5e-05,0.0003,-0.00016999999999999999,-7e-05,-0.00011,-9e-05,2
7372,7655,-0.0001,0.0,5e-05,0.0003,-0.00016999999999999999,-7e-05,-0.00011,-9e-05,2
7373,7656,-0.0001,0.0,5e-05,0.0003,-0.00016999999999999999,-7e-05,-0.00011,-9e-05,2
7374,7657,-0.0001,0.0,5e-05,0.0003,-0.00016999999999999999,-7e-05,-0.00011,-9e-05,2
7375,7658,-0.0001,0.0,5e-05,0.0003,-0.00016999999999999999,-7e-05,-0.00011,-9e-05,2
7376,7659,-0.0001,0.0,5e-05,0.0003,-0.00016999999999999999,-7e-05,-0.00011,-9e-05,2
7377,7660,-5.9999999999999995e-05,-0.00018999999999999998,-4e-05,7e-05,2e-05,2e-05,-7e-05,-9e-05,2
7378,7661,0.00022999999999999998,0.00025,-5.9999999999999995e-05,4e-05,-9e-05,-5e-05,0.0,2e-05,2
7379,7662,0.00022999999999999998,0.00025,-5.9999999999999995e-05,4e-05,-9e-05,-5e-05,0.0,2e-05,2
7380,7664,0.00022999999999999998,0.00025,-5.9999999999999995e-05,4e-05,-9e-05,-5e-05,0.0,2e-05,2
7381,7665,0.00022999999999999998,0.00025,-5.9999999999999995e-05,4e-05,-9e-05,-5e-05,0.0,2e-05,2
7382,7666,0.00022999999999999998,0.00025,-5.9999999999999995e-05,4e-05,-9e-05,-5e-05,0.0,2e-05,2
7383,7667,0.00022999999999999998,0.00025,-5.9999999999999995e-05,4e-05,-9e-05,-5e-05,0.0,2e-05,2
7384,7668,0.00022999999999999998,0.00025,-5.9999999999999995e-05,4e-05,-9e-05,-5e-05,0.0,2e-05,2
7385,7669,0.00022999999999999998,0.00025,-5.9999999999999995e-05,4e-05,-9e-05,-5e-05,0.0,2e-05,2
7386,7670,0.00022999999999999998,0.00025,-5.9999999999999995e-05,4e-05,-9e-05,-5e-05,0.0,2e-05,2
7387,7671,0.00022999999999999998,0.00025,-5.9999999999999995e-05,4e-05,-9e-05,-5e-05,0.0,2e-05,2
7388,7672,0.00022999999999999998,0.00025,-5.9999999999999995e-05,4e-05,-9e-05,-5e-05,0.0,2e-05,2
7389,7673,0.00022999999999999998,0.00025,-5.9999999999999995e-05,4e-05,-9e-05,-5e-05,0.0,2e-05,2
7390,7674,1e-05,-0.00016,-8e-05,-0.00011,-9e-05,-0.0001,-9e-05,-0.00011,2
7391,7675,-0.00025,-0.00014,1e-05,5e-05,0.0001,5.9999999999999995e-05,4e-05,7e-05,2
7392,7676,-0.00025,-0.00014,1e-05,5e-05,0.0001,5.9999999999999995e-05,4e-05,7e-05,2
7393,7677,-0.00025,-0.00014,1e-05,5e-05,0.0001,5.9999999999999995e-05,4e-05,7e-05,2
7394,7678,-0.00025,-0.00014,1e-05,5e-05,0.0001,5.9999999999999995e-05,4e-05,7e-05,2
7395,7679,-0.00025,-0.00014,1e-05,5e-05,0.0001,5.9999999999999995e-05,4e-05,7e-05,2
7396,7680,-0.00025,-0.00014,1e-05,5e-05,0.0001,5.9999999999999995e-05,4e-05,7e-05,2
7397,7681,-0.00025,-0.00014,1e-05,5e-05,0.0001,5.9999999999999995e-05,4e-05,7e-05,2
7398,7682,-0.00025,-0.00014,1e-05,5e-05,0.0001,5.9999999999999995e-05,4e-05,7e-05,2
7399,7683,-0.00025,-0.00014,1e-05,5e-05,0.0001,5.9999999999999995e-05,4e-05,7e-05,2
7400,7684,-0.00025,-0.00014,1e-05,5e-05,0.0001,5.9999999999999995e-05,4e-05,7e-05,2
7401,7685,-0.00025,-0.00014,1e-05,5e-05,0.0001,5.9999999999999995e-05,4e-05,7e-05,2
7402,7686,-0.00025,-0.00014,1e-05,5e-05,0.0001,5.9999999999999995e-05,4e-05,7e-05,2
7403,7688,-0.00025,-0.00014,1e-05,5e-05,0.0001,5.9999999999999995e-05,4e-05,7e-05,2
7404,7689,-0.00025,-0.00014,1e-05,5e-05,0.0001,5.9999999999999995e-05,4e-05,7e-05,2
7405,7690,-0.00025,-0.00014,1e-05,5e-05,0.0001,5.9999999999999995e-05,4e-05,7e-05,2
7406,7691,-0.00025,-0.00014,1e-05,5e-05,0.0001,5.9999999999999995e-05,4e-05,7e-05,2
7407,7692,-0.00025,-0.00014,1e-05,5e-05,0.0001,5.9999999999999995e-05,4e-05,7e-05,2
7408,7693,-0.00025,-0.00014,1e-05,5e-05,0.0001,5.9999999999999995e-05,4e-05,7e-05,2
7409,7694,-0.00025,-0.00014,1e-05,5e-05,0.0001,5.9999999999999995e-05,4e-05,7e-05,2
7410,7695,-0.00025,-0.00014,1e-05,5e-05,0.0001,5.9999999999999995e-05,4e-05,7e-05,2
7411,7696,-0.00025,-0.00014,1e-05,5e-05,0.0001,5.9999999999999995e-05,4e-05,7e-05,2
7412,7697,-0.00025,-0.00014,1e-05,5e-05,0.0001,5.9999999999999995e-05,4e-05,7e-05,2
7413,7698,-0.00042,-0.00011999999999999999,4e-05,4e-05,-9e-05,-7e-05,-4e-05,-8e-05,2
7414,7699,-0.00042,-0.00011999999999999999,4e-05,4e-05,-9e-05,-7e-05,-4e-05,-8e-05,2
7415,7700,-0.00042,-0.00011999999999999999,4e-05,4e-05,-9e-05,-7e-05,-4e-05,-8e-05,2
7416,7701,-0.00042,-0.00011999999999999999,4e-05,4e-05,-9e-05,-7e-05,-4e-05,-8e-05,2
7417,7702,-0.00042,-0.00011999999999999999,4e-05,4e-05,-9e-05,-7e-05,-4e-05,-8e-05,2
7418,7703,-0.00042,-0.00011999999999999999,4e-05,4e-05,-9e-05,-7e-05,-4e-05,-8e-05,2
7419,7704,-0.00042,-0.00011999999999999999,4e-05,4e-05,-9e-05,-7e-05,-4e-05,-8e-05,2
7420,7705,-0.00042,-0.00011999999999999999,4e-05,4e-05,-9e-05,-7e-05,-4e-05,-8e-05,2
7421,7706,-0.00042,-0.00011999999999999999,4e-05,4e-05,-9e-05,-7e-05,-4e-05,-8e-05,2
7422,7707,-0.00042,-0.00011999999999999999,4e-05,4e-05,-9e-05,-7e-05,-4e-05,-8e-05,2
7423,7708,-0.00042,-0.00011999999999999999,4e-05,4e-05,-9e-05,-7e-05,-4e-05,-8e-05,2
7424,7709,-0.00042,-0.00011999999999999999,4e-05,4e-05,-9e-05,-7e-05,-4e-05,-8e-05,2
7425,7710,-0.00042,-0.00011999999999999999,4e-05,4e-05,-9e-05,-7e-05,-4e-05,-8e-05,2
7426,7711,-0.00042,-0.00011999999999999999,4e-05,4e-05,-9e-05,-7e-05,-4e-05,-8e-05,2
7427,7712,-0.00042,-0.00011999999999999999,4e-05,4e-05,-9e-05,-7e-05,-4e-05,-8e-05,2
7428,7713,-0.00042,-0.00011999999999999999,4e-05,4e-05,-9e-05,-7e-05,-4e-05,-8e-05,2
7429,7714,-0.00042,-0.00011999999999999999,4e-05,4e-05,-9e-05,-7e-05,-4e-05,-8e-05,2
7430,7715,-0.00042,-0.00011999999999999999,4e-05,4e-05,-9e-05,-7e-05,-4e-05,-8e-05,2
7431,7716,-0.00042,-0.00011999999999999999,4e-05,4e-05,-9e-05,-7e-05,-4e-05,-8e-05,2
7432,7717,-0.00042,-0.00011999999999999999,4e-05,4e-05,-9e-05,-7e-05,-4e-05,-8e-05,2
7433,7718,-0.00042,-0.00011999999999999999,4e-05,4e-05,-9e-05,-7e-05,-4e-05,-8e-05,2
7434,7719,-0.00042,-0.00011999999999999999,4e-05,4e-05,-9e-05,-7e-05,-4e-05,-8e-05,2
7435,7720,0.0003,5e-05,-2.9999999999999997e-05,-0.00021,-1e-05,2.9999999999999997e-05,0.00014,0.00015,2
7436,7721,0.00016,0.0003,1e-05,0.00025,0.00014,2.9999999999999997e-05,0.0001,0.00022,2
7437,7722,0.00016,0.0003,1e-05,0.00025,0.00014,2.9999999999999997e-05,0.0001,0.00022,2
7438,7723,0.00016,0.0003,1e-05,0.00025,0.00014,2.9999999999999997e-05,0.0001,0.00022,2
7439,7724,0.00016,0.0003,1e-05,0.00025,0.00014,2.9999999999999997e-05,0.0001,0.00022,2
7440,7725,0.00016,0.0003,1e-05,0.00025,0.00014,2.9999999999999997e-05,0.0001,0.00022,2
7441,7726,0.00016,0.0003,1e-05,0.00025,0.00014,2.9999999999999997e-05,0.0001,0.00022,2
7442,7727,0.00016,0.0003,1e-05,0.00025,0.00014,2.9999999999999997e-05,0.0001,0.00022,2
7443,7728,0.00016,0.0003,1e-05,0.00025,0.00014,2.9999999999999997e-05,0.0001,0.00022,2
7444,7729,0.00016,0.0003,1e-05,0.00025,0.00014,2.9999999999999997e-05,0.0001,0.00022,2
7445,7730,0.00016,0.0003,1e-05,0.00025,0.00014,2.9999999999999997e-05,0.0001,0.00022,2
7446,7731,0.00016,0.0003,1e-05,0.00025,0.00014,2.9999999999999997e-05,0.0001,0.00022,2
7447,7732,0.00016,0.0003,1e-05,0.00025,0.00014,2.9999999999999997e-05,0.0001,0.00022,2
7448,7733,0.00016,0.0003,1e-05,0.00025,0.00014,2.9999999999999997e-05,0.0001,0.00022,2
7449,7734,-0.00022999999999999998,-8e-05,1e-05,-4e-05,0.0,-4e-05,-1e-05,-1e-05,2
7450,7735,7e-05,-0.00023999999999999998,2e-05,-0.00022,-0.0001,-5e-05,-5e-05,-0.0001,2
7451,7736,7e-05,-0.00023999999999999998,2e-05,-0.00022,-0.0001,-5e-05,-5e-05,-0.0001,2
7452,7738,7e-05,-0.00023999999999999998,2e-05,-0.00022,-0.0001,-5e-05,-5e-05,-0.0001,2
7453,7739,7e-05,-0.00023999999999999998,2e-05,-0.00022,-0.0001,-5e-05,-5e-05,-0.0001,2
7454,7740,7e-05,-0.00023999999999999998,2e-05,-0.00022,-0.0001,-5e-05,-5e-05,-0.0001,2
7455,7741,7e-05,-0.00023999999999999998,2e-05,-0.00022,-0.0001,-5e-05,-5e-05,-0.0001,2
7456,7742,7e-05,-0.00023999999999999998,2e-05,-0.00022,-0.0001,-5e-05,-5e-05,-0.0001,2
7457,7743,7e-05,-0.00023999999999999998,2e-05,-0.00022,-0.0001,-5e-05,-5e-05,-0.0001,2
7458,7744,7e-05,-0.00023999999999999998,2e-05,-0.00022,-0.0001,-5e-05,-5e-05,-0.0001,2
7459,7745,7e-05,-0.00023999999999999998,2e-05,-0.00022,-0.0001,-5e-05,-5e-05,-0.0001,2
7460,7746,7e-05,-0.00023999999999999998,2e-05,-0.00022,-0.0001,-5e-05,-5e-05,-0.0001,2
7461,7747,7e-05,-0.00023999999999999998,2e-05,-0.00022,-0.0001,-5e-05,-5e-05,-0.0001,2
7462,7748,7e-05,-0.00023999999999999998,2e-05,-0.00022,-0.0001,-5e-05,-5e-05,-0.0001,2
7463,7749,7e-05,-0.00023999999999999998,2e-05,-0.00022,-0.0001,-5e-05,-5e-05,-0.0001,2
7464,7750,7e-05,-0.00023999999999999998,2e-05,-0.00022,-0.0001,-5e-05,-5e-05,-0.0001,2
7465,7752,7e-05,-0.00023999999999999998,2e-05,-0.00022,-0.0001,-5e-05,-5e-05,-0.0001,2
7466,7753,7e-05,-0.00023999999999999998,2e-05,-0.00022,-0.0001,-5e-05,-5e-05,-0.0001,2
7467,7754,7e-05,-0.00023999999999999998,2e-05,-0.00022,-0.0001,-5e-05,-5e-05,-0.0001,2
7468,7755,7e-05,-0.00023999999999999998,2e-05,-0.00022,-0.0001,-5e-05,-5e-05,-0.0001,2
7469,7756,7e-05,-0.00023999999999999998,2e-05,-0.00022,-0.0001,-5e-05,-5e-05,-0.0001,2
7470,7757,7e-05,-0.00023999999999999998,2e-05,-0.00022,-0.0001,-5e-05,-5e-05,-0.0001,2
7471,7758,-9e-05,0.00011,-5.9999999999999995e-05,-0.00028,5e-05,2e-05,0.0,-1e-05,2
7472,7759,-9e-05,0.00011,-5.9999999999999995e-05,-0.00028,5e-05,2e-05,0.0,-1e-05,2
7473,7760,-9e-05,0.00011,-5.9999999999999995e-05,-0.00028,5e-05,2e-05,0.0,-1e-05,2
7474,7761,-9e-05,0.00011,-5.9999999999999995e-05,-0.00028,5e-05,2e-05,0.0,-1e-05,2
7475,7762,-9e-05,0.00011,-5.9999999999999995e-05,-0.00028,5e-05,2e-05,0.0,-1e-05,2
7476,7763,-9e-05,0.00011,-5.9999999999999995e-05,-0.00028,5e-05,2e-05,0.0,-1e-05,2
7477,7764,-9e-05,0.00011,-5.9999999999999995e-05,-0.00028,5e-05,2e-05,0.0,-1e-05,2
7478,7765,-9e-05,0.00011,-5.9999999999999995e-05,-0.00028,5e-05,2e-05,0.0,-1e-05,2
7479,7766,-9e-05,0.00011,-5.9999999999999995e-05,-0.00028,5e-05,2e-05,0.0,-1e-05,2
7480,7767,-9e-05,0.00011,-5.9999999999999995e-05,-0.00028,5e-05,2e-05,0.0,-1e-05,2
7481,7768,-9e-05,0.00011,-5.9999999999999995e-05,-0.00028,5e-05,2e-05,0.0,-1e-05,2
7482,7769,-9e-05,0.00011,-5.9999999999999995e-05,-0.00028,5e-05,2e-05,0.0,-1e-05,2
7483,7770,-9e-05,0.00011,-5.9999999999999995e-05,-0.00028,5e-05,2e-05,0.0,-1e-05,2
7484,7771,-9e-05,0.00011,-5.9999999999999995e-05,-0.00028,5e-05,2e-05,0.0,-1e-05,2
7485,7772,-9e-05,0.00011,-5.9999999999999995e-05,-0.00028,5e-05,2e-05,0.0,-1e-05,2
7486,7773,-9e-05,0.00011,-5.9999999999999995e-05,-0.00028,5e-05,2e-05,0.0,-1e-05,2
7487,7774,-9e-05,0.00011,-5.9999999999999995e-05,-0.00028,5e-05,2e-05,0.0,-1e-05,2
7488,7775,-9e-05,0.00011,-5.9999999999999995e-05,-0.00028,5e-05,2e-05,0.0,-1e-05,2
7489,7776,-9e-05,0.00011,-5.9999999999999995e-05,-0.00028,5e-05,2e-05,0.0,-1e-05,2
7490,7777,-9e-05,0.00011,-5.9999999999999995e-05,-0.00028,5e-05,2e-05,0.0,-1e-05,2
7491,7778,-9e-05,0.00011,-5.9999999999999995e-05,-0.00028,5e-05,2e-05,0.0,-1e-05,2
7492,7779,-9e-05,0.00011,-5.9999999999999995e-05,-0.00028,5e-05,2e-05,0.0,-1e-05,2
7493,7780,-9e-05,0.00011,-5.9999999999999995e-05,-0.00028,5e-05,2e-05,0.0,-1e-05,2
7494,7781,-9e-05,0.00011,-5.9999999999999995e-05,-0.00028,5e-05,2e-05,0.0,-1e-05,2
7495,7782,-9e-05,0.00011,-5.9999999999999995e-05,-0.00028,5e-05,2e-05,0.0,-1e-05,2
7496,7783,-9e-05,0.00011,-5.9999999999999995e-05,-0.00028,5e-05,2e-05,0.0,-1e-05,2
7497,7784,-9e-05,0.00011,-5.9999999999999995e-05,-0.00028,5e-05,2e-05,0.0,-1e-05,2
7498,7785,-9e-05,0.00011,-5.9999999999999995e-05,-0.00028,5e-05,2e-05,0.0,-1e-05,2
7499,7786,-9e-05,0.00011,-5.9999999999999995e-05,-0.00028,5e-05,2e-05,0.0,-1e-05,2
7500,7788,0.0002,0.0005,9e-05,-0.0002,-7e-05,1e-05,-0.00011,-0.00011,2
7501,7790,0.0002,0.0005,9e-05,-0.0002,-7e-05,1e-05,-0.00011,-0.00011,2
7502,7791,0.0002,0.0005,9e-05,-0.0002,-7e-05,1e-05,-0.00011,-0.00011,2
7503,7792,0.0002,0.0005,9e-05,-0.0002,-7e-05,1e-05,-0.00011,-0.00011,2
7504,7793,0.0002,0.0005,9e-05,-0.0002,-7e-05,1e-05,-0.00011,-0.00011,2
7505,7794,-0.00013000000000000002,-4e-05,-0.0001,-0.00037,2.9999999999999997e-05,4e-05,5e-05,0.00011,2
7506,7795,-0.00013000000000000002,-4e-05,-0.0001,-0.00037,2.9999999999999997e-05,4e-05,5e-05,0.00011,2
7507,7796,-0.00013000000000000002,-4e-05,-0.0001,-0.00037,2.9999999999999997e-05,4e-05,5e-05,0.00011,2
7508,7797,-0.00013000000000000002,-4e-05,-0.0001,-0.00037,2.9999999999999997e-05,4e-05,5e-05,0.00011,2
7509,7798,-0.00013000000000000002,-4e-05,-0.0001,-0.00037,2.9999999999999997e-05,4e-05,5e-05,0.00011,2
7510,7799,-0.00013000000000000002,-4e-05,-0.0001,-0.00037,2.9999999999999997e-05,4e-05,5e-05,0.00011,2
7511,7800,-0.00013000000000000002,-4e-05,-0.0001,-0.00037,2.9999999999999997e-05,4e-05,5e-05,0.00011,2
7512,7801,-0.00013000000000000002,-4e-05,-0.0001,-0.00037,2.9999999999999997e-05,4e-05,5e-05,0.00011,2
7513,7802,-0.00085,-0.00035,-0.00027,-0.00047999999999999996,-2.9999999999999997e-05,1e-05,-9e-05,-0.00021,2
7514,7803,-0.00085,-0.00035,-0.00027,-0.00047999999999999996,-2.9999999999999997e-05,1e-05,-9e-05,-0.00021,2
7515,7804,-0.00085,-0.00035,-0.00027,-0.00047999999999999996,-2.9999999999999997e-05,1e-05,-9e-05,-0.00021,2
7516,7805,-0.00085,-0.00035,-0.00027,-0.00047999999999999996,-2.9999999999999997e-05,1e-05,-9e-05,-0.00021,2
7517,7806,-0.00085,-0.00035,-0.00027,-0.00047999999999999996,-2.9999999999999997e-05,1e-05,-9e-05,-0.00021,2
7518,7807,-0.00085,-0.00035,-0.00027,-0.00047999999999999996,-2.9999999999999997e-05,1e-05,-9e-05,-0.00021,2
7519,7808,-0.00085,-0.00035,-0.00027,-0.00047999999999999996,-2.9999999999999997e-05,1e-05,-9e-05,-0.00021,2
7520,7809,-0.00085,-0.00035,-0.00027,-0.00047999999999999996,-2.9999999999999997e-05,1e-05,-9e-05,-0.00021,2
7521,7810,-0.00085,-0.00035,-0.00027,-0.00047999999999999996,-2.9999999999999997e-05,1e-05,-9e-05,-0.00021,2
7522,7811,-0.00085,-0.00035,-0.00027,-0.00047999999999999996,-2.9999999999999997e-05,1e-05,-9e-05,-0.00021,2
7523,7812,-0.00085,-0.00035,-0.00027,-0.00047999999999999996,-2.9999999999999997e-05,1e-05,-9e-05,-0.00021,2
7524,7813,-0.00085,-0.00035,-0.00027,-0.00047999999999999996,-2.9999999999999997e-05,1e-05,-9e-05,-0.00021,2
7525,7814,-0.00085,-0.00035,-0.00027,-0.00047999999999999996,-2.9999999999999997e-05,1e-05,-9e-05,-0.00021,2
7526,7815,-0.00085,-0.00035,-0.00027,-0.00047999999999999996,-2.9999999999999997e-05,1e-05,-9e-05,-0.00021,2
7527,7816,-0.00085,-0.00035,-0.00027,-0.00047999999999999996,-2.9999999999999997e-05,1e-05,-9e-05,-0.00021,2
7528,7817,0.00045999999999999996,0.00011,8e-05,0.0002,0.00015,-2.9999999999999997e-05,-1e-05,4e-05,2
7529,7818,-0.0001,-5.9999999999999995e-05,5.9999999999999995e-05,0.00011,-2e-05,2e-05,5e-05,0.0001,2
7530,7819,-0.0001,-5.9999999999999995e-05,5.9999999999999995e-05,0.00011,-2e-05,2e-05,5e-05,0.0001,2
7531,7820,-0.0001,-5.9999999999999995e-05,5.9999999999999995e-05,0.00011,-2e-05,2e-05,5e-05,0.0001,2
7532,7821,-0.0001,-5.9999999999999995e-05,5.9999999999999995e-05,0.00011,-2e-05,2e-05,5e-05,0.0001,2
7533,7822,-0.0001,-5.9999999999999995e-05,5.9999999999999995e-05,0.00011,-2e-05,2e-05,5e-05,0.0001,2
7534,7823,-0.0001,-5.9999999999999995e-05,5.9999999999999995e-05,0.00011,-2e-05,2e-05,5e-05,0.0001,2
7535,7824,-0.0001,-5.9999999999999995e-05,5.9999999999999995e-05,0.00011,-2e-05,2e-05,5e-05,0.0001,2
7536,7825,-0.0001,-5.9999999999999995e-05,5.9999999999999995e-05,0.00011,-2e-05,2e-05,5e-05,0.0001,2
7537,7826,-0.0001,-5.9999999999999995e-05,5.9999999999999995e-05,0.00011,-2e-05,2e-05,5e-05,0.0001,2
7538,7827,-0.0001,-5.9999999999999995e-05,5.9999999999999995e-05,0.00011,-2e-05,2e-05,5e-05,0.0001,2
7539,7828,-0.0001,-5.9999999999999995e-05,5.9999999999999995e-05,0.00011,-2e-05,2e-05,5e-05,0.0001,2
7540,7829,-0.0001,-5.9999999999999995e-05,5.9999999999999995e-05,0.00011,-2e-05,2e-05,5e-05,0.0001,2
7541,7830,-0.0001,-5.9999999999999995e-05,5.9999999999999995e-05,0.00011,-2e-05,2e-05,5e-05,0.0001,2
7542,7831,-0.0001,-5.9999999999999995e-05,5.9999999999999995e-05,0.00011,-2e-05,2e-05,5e-05,0.0001,2
7543,7832,-0.0001,-5.9999999999999995e-05,5.9999999999999995e-05,0.00011,-2e-05,2e-05,5e-05,0.0001,2
7544,7833,-0.0001,-5.9999999999999995e-05,5.9999999999999995e-05,0.00011,-2e-05,2e-05,5e-05,0.0001,2
7545,7834,-0.0001,-5.9999999999999995e-05,5.9999999999999995e-05,0.00011,-2e-05,2e-05,5e-05,0.0001,2
7546,7835,-0.0001,-5.9999999999999995e-05,5.9999999999999995e-05,0.00011,-2e-05,2e-05,5e-05,0.0001,2
7547,7836,-0.0001,-5.9999999999999995e-05,5.9999999999999995e-05,0.00011,-2e-05,2e-05,5e-05,0.0001,2
7548,7838,-0.0001,-5.9999999999999995e-05,5.9999999999999995e-05,0.00011,-2e-05,2e-05,5e-05,0.0001,2
7549,7839,-0.0001,-5.9999999999999995e-05,5.9999999999999995e-05,0.00011,-2e-05,2e-05,5e-05,0.0001,2
7550,7840,-0.0001,-5.9999999999999995e-05,5.9999999999999995e-05,0.00011,-2e-05,2e-05,5e-05,0.0001,2
7551,7841,-0.0001,-5.9999999999999995e-05,5.9999999999999995e-05,0.00011,-2e-05,2e-05,5e-05,0.0001,2
7552,7842,-0.0001,-5.9999999999999995e-05,5.9999999999999995e-05,0.00011,-2e-05,2e-05,5e-05,0.0001,2
7553,7843,-0.0001,-5.9999999999999995e-05,5.9999999999999995e-05,0.00011,-2e-05,2e-05,5e-05,0.0001,2
7554,7844,-0.0001,-5.9999999999999995e-05,5.9999999999999995e-05,0.00011,-2e-05,2e-05,5e-05,0.0001,2
7555,7845,-0.0001,-5.9999999999999995e-05,5.9999999999999995e-05,0.00011,-2e-05,2e-05,5e-05,0.0001,2
7556,7846,-0.0001,-5.9999999999999995e-05,5.9999999999999995e-05,0.00011,-2e-05,2e-05,5e-05,0.0001,2
7557,7847,0.00013000000000000002,4e-05,2e-05,4e-05,5.9999999999999995e-05,-5e-05,-9e-05,-7e-05,2
7558,7848,0.00025,0.00027,-2e-05,0.00018,2e-05,-2.9999999999999997e-05,2e-05,0.00011,2
7559,7849,0.00025,0.00027,-2e-05,0.00018,2e-05,-2.9999999999999997e-05,2e-05,0.00011,2
7560,7850,0.00025,0.00027,-2e-05,0.00018,2e-05,-2.9999999999999997e-05,2e-05,0.00011,2
7561,7851,0.00025,0.00027,-2e-05,0.00018,2e-05,-2.9999999999999997e-05,2e-05,0.00011,2
7562,7852,0.00025,0.00027,-2e-05,0.00018,2e-05,-2.9999999999999997e-05,2e-05,0.00011,2
7563,7853,0.00025,0.00027,-2e-05,0.00018,2e-05,-2.9999999999999997e-05,2e-05,0.00011,2
7564,7854,-0.00016,2.9999999999999997e-05,-0.00014,-8e-05,7e-05,2e-05,-5.9999999999999995e-05,-4e-05,2
7565,7855,-0.00016,2.9999999999999997e-05,-0.00014,-8e-05,7e-05,2e-05,-5.9999999999999995e-05,-4e-05,2
7566,7856,-0.00016,2.9999999999999997e-05,-0.00014,-8e-05,7e-05,2e-05,-5.9999999999999995e-05,-4e-05,2
7567,7857,-0.00016,2.9999999999999997e-05,-0.00014,-8e-05,7e-05,2e-05,-5.9999999999999995e-05,-4e-05,2
7568,7858,-0.00016,2.9999999999999997e-05,-0.00014,-8e-05,7e-05,2e-05,-5.9999999999999995e-05,-4e-05,2
7569,7859,-0.00016,2.9999999999999997e-05,-0.00014,-8e-05,7e-05,2e-05,-5.9999999999999995e-05,-4e-05,2
7570,7860,-0.00016,2.9999999999999997e-05,-0.00014,-8e-05,7e-05,2e-05,-5.9999999999999995e-05,-4e-05,2
7571,7861,-0.00016,2.9999999999999997e-05,-0.00014,-8e-05,7e-05,2e-05,-5.9999999999999995e-05,-4e-05,2
7572,7862,-0.00016,2.9999999999999997e-05,-0.00014,-8e-05,7e-05,2e-05,-5.9999999999999995e-05,-4e-05,2
7573,7863,8e-05,0.00011999999999999999,1e-05,-0.00027,-0.0001,0.0,0.0001,8e-05,2
7574,7865,8e-05,0.00011999999999999999,1e-05,-0.00027,-0.0001,0.0,0.0001,8e-05,2
7575,7866,8e-05,0.00011999999999999999,1e-05,-0.00027,-0.0001,0.0,0.0001,8e-05,2
7576,7867,8e-05,0.00011999999999999999,1e-05,-0.00027,-0.0001,0.0,0.0001,8e-05,2
7577,7868,8e-05,0.00011999999999999999,1e-05,-0.00027,-0.0001,0.0,0.0001,8e-05,2
7578,7869,8e-05,0.00011999999999999999,1e-05,-0.00027,-0.0001,0.0,0.0001,8e-05,2
7579,7870,8e-05,0.00011999999999999999,1e-05,-0.00027,-0.0001,0.0,0.0001,8e-05,2
7580,7871,8e-05,0.00011999999999999999,1e-05,-0.00027,-0.0001,0.0,0.0001,8e-05,2
7581,7872,8e-05,0.00011999999999999999,1e-05,-0.00027,-0.0001,0.0,0.0001,8e-05,2
