,time,channel1,channel2,channel3,channel4,channel5,channel6,channel7,channel8,class
5866,6056,-1e-05,-1e-05,-7e-05,-0.00022999999999999998,0.0,5e-05,9e-05,-4e-05,2
5867,6057,-1e-05,-1e-05,-7e-05,-0.00022999999999999998,0.0,5e-05,9e-05,-4e-05,2
5868,6058,-1e-05,-1e-05,-7e-05,-0.00022999999999999998,0.0,5e-05,9e-05,-4e-05,2
5869,6059,-1e-05,-1e-05,-7e-05,-0.00022999999999999998,0.0,5e-05,9e-05,-4e-05,2
5870,6060,-1e-05,-1e-05,-7e-05,-0.00022999999999999998,0.0,5e-05,9e-05,-4e-05,2
5871,6061,-1e-05,-1e-05,-7e-05,-0.00022999999999999998,0.0,5e-05,9e-05,-4e-05,2
5872,6062,-1e-05,-1e-05,-7e-05,-0.00022999999999999998,0.0,5e-05,9e-05,-4e-05,2
5873,6063,-1e-05,-1e-05,-7e-05,-0.00022999999999999998,0.0,5e-05,9e-05,-4e-05,2
5874,6064,-1e-05,-1e-05,-7e-05,-0.00022999999999999998,0.0,5e-05,9e-05,-4e-05,2
5875,6065,-1e-05,-1e-05,-7e-05,-0.00022999999999999998,0.0,5e-05,9e-05,-4e-05,2
5876,6066,-1e-05,-1e-05,-7e-05,-0.00022999999999999998,0.0,5e-05,9e-05,-4e-05,2
5877,6067,-1e-05,-1e-05,-7e-05,-0.00022999999999999998,0.0,5e-05,9e-05,-4e-05,2
5878,6068,-1e-05,-1e-05,-7e-05,-0.00022999999999999998,0.0,5e-05,9e-05,-4e-05,2
5879,6069,-1e-05,-1e-05,-7e-05,-0.00022999999999999998,0.0,5e-05,9e-05,-4e-05,2
5880,6070,-2.9999999999999997e-05,0.00013000000000000002,0.00011,0.00037,0.0,-1e-05,0.0001,-1e-05,2
5881,6071,-2.9999999999999997e-05,0.00013000000000000002,0.00011,0.00037,0.0,-1e-05,0.0001,-1e-05,2
5882,6072,2e-05,-5e-05,5.9999999999999995e-05,0.00023999999999999998,7e-05,7e-05,0.0005099999999999999,7e-05,2
5883,6073,2e-05,-5e-05,5.9999999999999995e-05,0.00023999999999999998,7e-05,7e-05,0.0005099999999999999,7e-05,2
5884,6074,2e-05,-5e-05,5.9999999999999995e-05,0.00023999999999999998,7e-05,7e-05,0.0005099999999999999,7e-05,2
5885,6075,2e-05,-5e-05,5.9999999999999995e-05,0.00023999999999999998,7e-05,7e-05,0.0005099999999999999,7e-05,2
5886,6076,2e-05,-5e-05,5.9999999999999995e-05,0.00023999999999999998,7e-05,7e-05,0.0005099999999999999,7e-05,2
5887,6077,2e-05,-5e-05,5.9999999999999995e-05,0.00023999999999999998,7e-05,7e-05,0.0005099999999999999,7e-05,2
5888,6078,2e-05,-5e-05,5.9999999999999995e-05,0.00023999999999999998,7e-05,7e-05,0.0005099999999999999,7e-05,2
5889,6079,2e-05,-5e-05,5.9999999999999995e-05,0.00023999999999999998,7e-05,7e-05,0.0005099999999999999,7e-05,2
5890,6080,2e-05,-5e-05,5.9999999999999995e-05,0.00023999999999999998,7e-05,7e-05,0.0005099999999999999,7e-05,2
5891,6081,2e-05,-5e-05,5.9999999999999995e-05,0.00023999999999999998,7e-05,7e-05,0.0005099999999999999,7e-05,2
5892,6082,2e-05,-5e-05,5.9999999999999995e-05,0.00023999999999999998,7e-05,7e-05,0.0005099999999999999,7e-05,2
5893,6083,2e-05,-5e-05,5.9999999999999995e-05,0.00023999999999999998,7e-05,7e-05,0.0005099999999999999,7e-05,2
5894,6084,2e-05,-5e-05,5.9999999999999995e-05,0.00023999999999999998,7e-05,7e-05,0.0005099999999999999,7e-05,2
5895,6085,2e-05,-5e-05,5.9999999999999995e-05,0.00023999999999999998,7e-05,7e-05,0.0005099999999999999,7e-05,2
5896,6086,2e-05,-5e-05,5.9999999999999995e-05,0.00023999999999999998,7e-05,7e-05,0.0005099999999999999,7e-05,2
5897,6088,2e-05,-5e-05,5.9999999999999995e-05,0.00023999999999999998,7e-05,7e-05,0.0005099999999999999,7e-05,2
5898,6089,2e-05,-5e-05,5.9999999999999995e-05,0.00023999999999999998,7e-05,7e-05,0.0005099999999999999,7e-05,2
5899,6090,2e-05,-5e-05,5.9999999999999995e-05,0.00023999999999999998,7e-05,7e-05,0.0005099999999999999,7e-05,2
5900,6091,2e-05,-5e-05,5.9999999999999995e-05,0.00023999999999999998,7e-05,7e-05,0.0005099999999999999,7e-05,2
5901,6092,4e-05,0.00016999999999999999,0.0,-0.00021,-2e-05,5.9999999999999995e-05,0.00014,2e-05,2
5902,6093,4e-05,0.00016999999999999999,0.0,-0.00021,-2e-05,5.9999999999999995e-05,0.00014,2e-05,2
5903,6094,0.0,-2e-05,5.9999999999999995e-05,5.9999999999999995e-05,-4e-05,0.0,-0.00018,1e-05,2
5904,6095,0.0,-2e-05,5.9999999999999995e-05,5.9999999999999995e-05,-4e-05,0.0,-0.00018,1e-05,2
5905,6096,0.0,-2e-05,5.9999999999999995e-05,5.9999999999999995e-05,-4e-05,0.0,-0.00018,1e-05,2
5906,6097,0.0,-2e-05,5.9999999999999995e-05,5.9999999999999995e-05,-4e-05,0.0,-0.00018,1e-05,2
5907,6098,0.0,-2e-05,5.9999999999999995e-05,5.9999999999999995e-05,-4e-05,0.0,-0.00018,1e-05,2
5908,6099,0.0,-2e-05,5.9999999999999995e-05,5.9999999999999995e-05,-4e-05,0.0,-0.00018,1e-05,2
5909,6100,0.0,-2e-05,5.9999999999999995e-05,5.9999999999999995e-05,-4e-05,0.0,-0.00018,1e-05,2
5910,6101,0.0,-2e-05,5.9999999999999995e-05,5.9999999999999995e-05,-4e-05,0.0,-0.00018,1e-05,2
5911,6102,0.0,-2e-05,5.9999999999999995e-05,5.9999999999999995e-05,-4e-05,0.0,-0.00018,1e-05,2
5912,6103,0.0,-2e-05,5.9999999999999995e-05,5.9999999999999995e-05,-4e-05,0.0,-0.00018,1e-05,2
5913,6104,0.0,-2e-05,5.9999999999999995e-05,5.9999999999999995e-05,-4e-05,0.0,-0.00018,1e-05,2
5914,6105,0.0,-2e-05,5.9999999999999995e-05,5.9999999999999995e-05,-4e-05,0.0,-0.00018,1e-05,2
5915,6106,1e-05,2e-05,2e-05,0.0001,0.0001,2e-05,-0.00025,-5e-05,2
5916,6107,1e-05,2e-05,2e-05,0.0001,0.0001,2e-05,-0.00025,-5e-05,2
5917,6108,1e-05,2e-05,2e-05,0.0001,0.0001,2e-05,-0.00025,-5e-05,2
5918,6109,1e-05,2e-05,2e-05,0.0001,0.0001,2e-05,-0.00025,-5e-05,2
5919,6110,1e-05,2e-05,2e-05,0.0001,0.0001,2e-05,-0.00025,-5e-05,2
5920,6111,1e-05,2e-05,2e-05,0.0001,0.0001,2e-05,-0.00025,-5e-05,2
5921,6112,1e-05,2e-05,2e-05,0.0001,0.0001,2e-05,-0.00025,-5e-05,2
5922,6113,1e-05,2e-05,2e-05,0.0001,0.0001,2e-05,-0.00025,-5e-05,2
5923,6114,1e-05,2e-05,2e-05,0.0001,0.0001,2e-05,-0.00025,-5e-05,2
5924,6115,-1e-05,-2e-05,-4e-05,-4e-05,8e-05,-4e-05,-1e-05,-2.9999999999999997e-05,2
5925,6116,-1e-05,-2e-05,-4e-05,-4e-05,8e-05,-4e-05,-1e-05,-2.9999999999999997e-05,2
5926,6117,-1e-05,-2e-05,-4e-05,-4e-05,8e-05,-4e-05,-1e-05,-2.9999999999999997e-05,2
5927,6118,-1e-05,-2e-05,-4e-05,-4e-05,8e-05,-4e-05,-1e-05,-2.9999999999999997e-05,2
5928,6119,-1e-05,-2e-05,-4e-05,-4e-05,8e-05,-4e-05,-1e-05,-2.9999999999999997e-05,2
5929,6120,-1e-05,-2e-05,-4e-05,-4e-05,8e-05,-4e-05,-1e-05,-2.9999999999999997e-05,2
5930,6121,-1e-05,-2e-05,-4e-05,-4e-05,8e-05,-4e-05,-1e-05,-2.9999999999999997e-05,2
5931,6122,-1e-05,-2e-05,-4e-05,-4e-05,8e-05,-4e-05,-1e-05,-2.9999999999999997e-05,2
5932,6123,-1e-05,-2e-05,-4e-05,-4e-05,8e-05,-4e-05,-1e-05,-2.9999999999999997e-05,2
5933,6124,-1e-05,-2e-05,-4e-05,-4e-05,8e-05,-4e-05,-1e-05,-2.9999999999999997e-05,2
5934,6125,-1e-05,-2e-05,-4e-05,-4e-05,8e-05,-4e-05,-1e-05,-2.9999999999999997e-05,2
5935,6126,-1e-05,-2e-05,-4e-05,-4e-05,8e-05,-4e-05,-1e-05,-2.9999999999999997e-05,2
5936,6127,-1e-05,-2e-05,-4e-05,-4e-05,8e-05,-4e-05,-1e-05,-2.9999999999999997e-05,2
5937,6128,-1e-05,-2e-05,-4e-05,-4e-05,8e-05,-4e-05,-1e-05,-2.9999999999999997e-05,2
5938,6129,-1e-05,-2e-05,-4e-05,-4e-05,8e-05,-4e-05,-1e-05,-2.9999999999999997e-05,2
5939,6130,0.0,-5e-05,5e-05,-4e-05,-5.9999999999999995e-05,-5.9999999999999995e-05,-0.00016999999999999999,-2e-05,2
5940,6131,-2e-05,5e-05,-5e-05,-0.00018999999999999998,0.0,0.0001,-5e-05,2e-05,2
5941,6132,-4e-05,-0.00013000000000000002,2.9999999999999997e-05,0.0003,2.9999999999999997e-05,-4e-05,0.00016,-2e-05,2
5942,6133,-4e-05,-0.00013000000000000002,2.9999999999999997e-05,0.0003,2.9999999999999997e-05,-4e-05,0.00016,-2e-05,2
5943,6134,-4e-05,-0.00013000000000000002,2.9999999999999997e-05,0.0003,2.9999999999999997e-05,-4e-05,0.00016,-2e-05,2
5944,6135,-4e-05,-0.00013000000000000002,2.9999999999999997e-05,0.0003,2.9999999999999997e-05,-4e-05,0.00016,-2e-05,2
5945,6136,-4e-05,-0.00013000000000000002,2.9999999999999997e-05,0.0003,2.9999999999999997e-05,-4e-05,0.00016,-2e-05,2
5946,6138,-4e-05,-0.00013000000000000002,2.9999999999999997e-05,0.0003,2.9999999999999997e-05,-4e-05,0.00016,-2e-05,2
5947,6139,-4e-05,-0.00013000000000000002,2.9999999999999997e-05,0.0003,2.9999999999999997e-05,-4e-05,0.00016,-2e-05,2
5948,6140,-4e-05,-0.00013000000000000002,2.9999999999999997e-05,0.0003,2.9999999999999997e-05,-4e-05,0.00016,-2e-05,2
5949,6141,-4e-05,-0.00013000000000000002,2.9999999999999997e-05,0.0003,2.9999999999999997e-05,-4e-05,0.00016,-2e-05,2
5950,6142,-4e-05,-0.00013000000000000002,2.9999999999999997e-05,0.0003,2.9999999999999997e-05,-4e-05,0.00016,-2e-05,2
5951,6143,-4e-05,-0.00013000000000000002,2.9999999999999997e-05,0.0003,2.9999999999999997e-05,-4e-05,0.00016,-2e-05,2
5952,6144,-4e-05,-0.00013000000000000002,2.9999999999999997e-05,0.0003,2.9999999999999997e-05,-4e-05,0.00016,-2e-05,2
5953,6145,-4e-05,-0.00013000000000000002,2.9999999999999997e-05,0.0003,2.9999999999999997e-05,-4e-05,0.00016,-2e-05,2
5954,6146,-4e-05,-0.00013000000000000002,2.9999999999999997e-05,0.0003,2.9999999999999997e-05,-4e-05,0.00016,-2e-05,2
5955,6147,-4e-05,-0.00013000000000000002,2.9999999999999997e-05,0.0003,2.9999999999999997e-05,-4e-05,0.00016,-2e-05,2
5956,6148,-4e-05,-0.00013000000000000002,2.9999999999999997e-05,0.0003,2.9999999999999997e-05,-4e-05,0.00016,-2e-05,2
5957,6149,-4e-05,-0.00013000000000000002,2.9999999999999997e-05,0.0003,2.9999999999999997e-05,-4e-05,0.00016,-2e-05,2
5958,6150,-4e-05,-0.00013000000000000002,2.9999999999999997e-05,0.0003,2.9999999999999997e-05,-4e-05,0.00016,-2e-05,2
5959,6151,-4e-05,-0.00013000000000000002,2.9999999999999997e-05,0.0003,2.9999999999999997e-05,-4e-05,0.00016,-2e-05,2
5960,6152,-4e-05,-9e-05,-0.00013000000000000002,-0.00032,-7e-05,2.9999999999999997e-05,7e-05,-1e-05,2
5961,6153,-4e-05,-9e-05,-0.00013000000000000002,-0.00032,-7e-05,2.9999999999999997e-05,7e-05,-1e-05,2
5962,6154,-1e-05,8e-05,2.9999999999999997e-05,-2e-05,7e-05,5.9999999999999995e-05,0.00033999999999999997,5.9999999999999995e-05,2
5963,6155,-1e-05,8e-05,2.9999999999999997e-05,-2e-05,7e-05,5.9999999999999995e-05,0.00033999999999999997,5.9999999999999995e-05,2
5964,6156,-1e-05,8e-05,2.9999999999999997e-05,-2e-05,7e-05,5.9999999999999995e-05,0.00033999999999999997,5.9999999999999995e-05,2
5965,6157,-1e-05,8e-05,2.9999999999999997e-05,-2e-05,7e-05,5.9999999999999995e-05,0.00033999999999999997,5.9999999999999995e-05,2
5966,6158,-1e-05,8e-05,2.9999999999999997e-05,-2e-05,7e-05,5.9999999999999995e-05,0.00033999999999999997,5.9999999999999995e-05,2
5967,6159,-1e-05,8e-05,2.9999999999999997e-05,-2e-05,7e-05,5.9999999999999995e-05,0.00033999999999999997,5.9999999999999995e-05,2
5968,6160,-1e-05,8e-05,2.9999999999999997e-05,-2e-05,7e-05,5.9999999999999995e-05,0.00033999999999999997,5.9999999999999995e-05,2
5969,6161,-1e-05,8e-05,2.9999999999999997e-05,-2e-05,7e-05,5.9999999999999995e-05,0.00033999999999999997,5.9999999999999995e-05,2
5970,6162,-1e-05,8e-05,2.9999999999999997e-05,-2e-05,7e-05,5.9999999999999995e-05,0.00033999999999999997,5.9999999999999995e-05,2
5971,6163,-1e-05,8e-05,2.9999999999999997e-05,-2e-05,7e-05,5.9999999999999995e-05,0.00033999999999999997,5.9999999999999995e-05,2
5972,6164,-1e-05,8e-05,2.9999999999999997e-05,-2e-05,7e-05,5.9999999999999995e-05,0.00033999999999999997,5.9999999999999995e-05,2
5973,6165,-1e-05,8e-05,2.9999999999999997e-05,-2e-05,7e-05,5.9999999999999995e-05,0.00033999999999999997,5.9999999999999995e-05,2
5974,6166,0.0001,0.0,0.00013000000000000002,0.00033,0.00018999999999999998,0.0,-0.00016999999999999999,9e-05,2
5975,6167,0.0001,0.0,0.00013000000000000002,0.00033,0.00018999999999999998,0.0,-0.00016999999999999999,9e-05,2
5976,6168,0.0001,0.0,0.00013000000000000002,0.00033,0.00018999999999999998,0.0,-0.00016999999999999999,9e-05,2
5977,6169,0.0001,0.0,0.00013000000000000002,0.00033,0.00018999999999999998,0.0,-0.00016999999999999999,9e-05,2
5978,6170,0.0001,0.0,0.00013000000000000002,0.00033,0.00018999999999999998,0.0,-0.00016999999999999999,9e-05,2
5979,6171,0.0001,0.0,0.00013000000000000002,0.00033,0.00018999999999999998,0.0,-0.00016999999999999999,9e-05,2
5980,6172,0.0001,0.0,0.00013000000000000002,0.00033,0.00018999999999999998,0.0,-0.00016999999999999999,9e-05,2
5981,6173,0.0001,0.0,0.00013000000000000002,0.00033,0.00018999999999999998,0.0,-0.00016999999999999999,9e-05,2
5982,6174,0.0001,0.0,0.00013000000000000002,0.00033,0.00018999999999999998,0.0,-0.00016999999999999999,9e-05,2
5983,6175,-9e-05,-1e-05,-9e-05,-0.00013000000000000002,-0.00011999999999999999,-2e-05,0.0003,2.9999999999999997e-05,2
5984,6176,-9e-05,-1e-05,-9e-05,-0.00013000000000000002,-0.00011999999999999999,-2e-05,0.0003,2.9999999999999997e-05,2
5985,6177,-9e-05,-1e-05,-9e-05,-0.00013000000000000002,-0.00011999999999999999,-2e-05,0.0003,2.9999999999999997e-05,2
5986,6178,-9e-05,-1e-05,-9e-05,-0.00013000000000000002,-0.00011999999999999999,-2e-05,0.0003,2.9999999999999997e-05,2
5987,6179,-9e-05,-1e-05,-9e-05,-0.00013000000000000002,-0.00011999999999999999,-2e-05,0.0003,2.9999999999999997e-05,2
5988,6180,-9e-05,-1e-05,-9e-05,-0.00013000000000000002,-0.00011999999999999999,-2e-05,0.0003,2.9999999999999997e-05,2
5989,6181,-9e-05,-1e-05,-9e-05,-0.00013000000000000002,-0.00011999999999999999,-2e-05,0.0003,2.9999999999999997e-05,2
5990,6182,-9e-05,-1e-05,-9e-05,-0.00013000000000000002,-0.00011999999999999999,-2e-05,0.0003,2.9999999999999997e-05,2
5991,6183,-9e-05,-1e-05,-9e-05,-0.00013000000000000002,-0.00011999999999999999,-2e-05,0.0003,2.9999999999999997e-05,2
5992,6184,-9e-05,-1e-05,-9e-05,-0.00013000000000000002,-0.00011999999999999999,-2e-05,0.0003,2.9999999999999997e-05,2
5993,6185,-9e-05,-1e-05,-9e-05,-0.00013000000000000002,-0.00011999999999999999,-2e-05,0.0003,2.9999999999999997e-05,2
5994,6186,-9e-05,-1e-05,-9e-05,-0.00013000000000000002,-0.00011999999999999999,-2e-05,0.0003,2.9999999999999997e-05,2
5995,6188,-9e-05,-1e-05,-9e-05,-0.00013000000000000002,-0.00011999999999999999,-2e-05,0.0003,2.9999999999999997e-05,2
5996,6189,-9e-05,-1e-05,-9e-05,-0.00013000000000000002,-0.00011999999999999999,-2e-05,0.0003,2.9999999999999997e-05,2
5997,6190,-4e-05,-5e-05,-2.9999999999999997e-05,-4e-05,2.9999999999999997e-05,7e-05,0.00025,8e-05,2
5998,6191,-2.9999999999999997e-05,7e-05,0.00016,0.00033,5.9999999999999995e-05,-5.9999999999999995e-05,-0.00021,-0.00011,2
5999,6192,7e-05,0.0,1e-05,0.0,-2e-05,-4e-05,-0.00011,2.9999999999999997e-05,2
6000,6193,7e-05,0.0,1e-05,0.0,-2e-05,-4e-05,-0.00011,2.9999999999999997e-05,2
6001,6194,7e-05,0.0,1e-05,0.0,-2e-05,-4e-05,-0.00011,2.9999999999999997e-05,2
6002,6195,7e-05,0.0,1e-05,0.0,-2e-05,-4e-05,-0.00011,2.9999999999999997e-05,2
6003,6196,7e-05,0.0,1e-05,0.0,-2e-05,-4e-05,-0.00011,2.9999999999999997e-05,2
6004,6197,7e-05,0.0,1e-05,0.0,-2e-05,-4e-05,-0.00011,2.9999999999999997e-05,2
6005,6198,7e-05,0.0,1e-05,0.0,-2e-05,-4e-05,-0.00011,2.9999999999999997e-05,2
6006,6199,7e-05,0.0,1e-05,0.0,-2e-05,-4e-05,-0.00011,2.9999999999999997e-05,2
6007,6200,7e-05,0.0,1e-05,0.0,-2e-05,-4e-05,-0.00011,2.9999999999999997e-05,2
6008,6201,7e-05,0.0,1e-05,0.0,-2e-05,-4e-05,-0.00011,2.9999999999999997e-05,2
6009,6202,7e-05,0.0,1e-05,0.0,-2e-05,-4e-05,-0.00011,2.9999999999999997e-05,2
6010,6203,7e-05,0.0,1e-05,0.0,-2e-05,-4e-05,-0.00011,2.9999999999999997e-05,2
6011,6204,7e-05,0.0,1e-05,0.0,-2e-05,-4e-05,-0.00011,2.9999999999999997e-05,2
6012,6205,7e-05,0.0,1e-05,0.0,-2e-05,-4e-05,-0.00011,2.9999999999999997e-05,2
6013,6206,7e-05,0.0,1e-05,0.0,-2e-05,-4e-05,-0.00011,2.9999999999999997e-05,2
6014,6207,7e-05,0.0,1e-05,0.0,-2e-05,-4e-05,-0.00011,2.9999999999999997e-05,2
6015,6208,7e-05,0.0,1e-05,0.0,-2e-05,-4e-05,-0.00011,2.9999999999999997e-05,2
6016,6209,7e-05,0.0,1e-05,0.0,-2e-05,-4e-05,-0.00011,2.9999999999999997e-05,2
6017,6210,7e-05,0.0,1e-05,0.0,-2e-05,-4e-05,-0.00011,2.9999999999999997e-05,2
6018,6211,7e-05,0.0,1e-05,0.0,-2e-05,-4e-05,-0.00011,2.9999999999999997e-05,2
6019,6212,7e-05,0.0,1e-05,0.0,-2e-05,-4e-05,-0.00011,2.9999999999999997e-05,2
6020,6213,4e-05,-4e-05,-0.0003,-0.00073,-0.00014,-2.9999999999999997e-05,-2.9999999999999997e-05,2.9999999999999997e-05,2
6021,6214,-5e-05,-2.9999999999999997e-05,0.00013000000000000002,0.00041,7e-05,1e-05,-5e-05,4e-05,2
6022,6215,-5e-05,-5.9999999999999995e-05,-0.0001,-0.00011999999999999999,-4e-05,2.9999999999999997e-05,-0.00014,-2e-05,2
6023,6216,-5e-05,-5.9999999999999995e-05,-0.0001,-0.00011999999999999999,-4e-05,2.9999999999999997e-05,-0.00014,-2e-05,2
6024,6217,-5e-05,-5.9999999999999995e-05,-0.0001,-0.00011999999999999999,-4e-05,2.9999999999999997e-05,-0.00014,-2e-05,2
6025,6218,-5e-05,-5.9999999999999995e-05,-0.0001,-0.00011999999999999999,-4e-05,2.9999999999999997e-05,-0.00014,-2e-05,2
6026,6219,-5e-05,-5.9999999999999995e-05,-0.0001,-0.00011999999999999999,-4e-05,2.9999999999999997e-05,-0.00014,-2e-05,2
6027,6220,-5e-05,-5.9999999999999995e-05,-0.0001,-0.00011999999999999999,-4e-05,2.9999999999999997e-05,-0.00014,-2e-05,2
6028,6221,-5e-05,-5.9999999999999995e-05,-0.0001,-0.00011999999999999999,-4e-05,2.9999999999999997e-05,-0.00014,-2e-05,2
6029,6222,-5e-05,-5.9999999999999995e-05,-0.0001,-0.00011999999999999999,-4e-05,2.9999999999999997e-05,-0.00014,-2e-05,2
6030,6223,-5e-05,-5.9999999999999995e-05,-0.0001,-0.00011999999999999999,-4e-05,2.9999999999999997e-05,-0.00014,-2e-05,2
6031,6224,-5e-05,-5.9999999999999995e-05,-0.0001,-0.00011999999999999999,-4e-05,2.9999999999999997e-05,-0.00014,-2e-05,2
6032,6225,-5e-05,-5.9999999999999995e-05,-0.0001,-0.00011999999999999999,-4e-05,2.9999999999999997e-05,-0.00014,-2e-05,2
6033,6226,-1e-05,-8e-05,0.0,0.00013000000000000002,1e-05,-7e-05,0.00018999999999999998,2.9999999999999997e-05,2
6034,6227,-1e-05,-8e-05,0.0,0.00013000000000000002,1e-05,-7e-05,0.00018999999999999998,2.9999999999999997e-05,2
6035,6228,-1e-05,-8e-05,0.0,0.00013000000000000002,1e-05,-7e-05,0.00018999999999999998,2.9999999999999997e-05,2
6036,6229,-1e-05,-8e-05,0.0,0.00013000000000000002,1e-05,-7e-05,0.00018999999999999998,2.9999999999999997e-05,2
6037,6230,-1e-05,-8e-05,0.0,0.00013000000000000002,1e-05,-7e-05,0.00018999999999999998,2.9999999999999997e-05,2
6038,6231,-1e-05,-8e-05,0.0,0.00013000000000000002,1e-05,-7e-05,0.00018999999999999998,2.9999999999999997e-05,2
6039,6232,-1e-05,-8e-05,0.0,0.00013000000000000002,1e-05,-7e-05,0.00018999999999999998,2.9999999999999997e-05,2
6040,6233,-1e-05,-8e-05,0.0,0.00013000000000000002,1e-05,-7e-05,0.00018999999999999998,2.9999999999999997e-05,2
6041,6234,-1e-05,-8e-05,0.0,0.00013000000000000002,1e-05,-7e-05,0.00018999999999999998,2.9999999999999997e-05,2
6042,6235,-5e-05,-5.9999999999999995e-05,0.0,0.00016999999999999999,-2e-05,-2.9999999999999997e-05,-0.00029,-5e-05,2
6043,6236,-5e-05,-5.9999999999999995e-05,0.0,0.00016999999999999999,-2e-05,-2.9999999999999997e-05,-0.00029,-5e-05,2
6044,6238,-5e-05,-5.9999999999999995e-05,0.0,0.00016999999999999999,-2e-05,-2.9999999999999997e-05,-0.00029,-5e-05,2
6045,6239,-5e-05,-5.9999999999999995e-05,0.0,0.00016999999999999999,-2e-05,-2.9999999999999997e-05,-0.00029,-5e-05,2
6046,6240,-5e-05,-5.9999999999999995e-05,0.0,0.00016999999999999999,-2e-05,-2.9999999999999997e-05,-0.00029,-5e-05,2
6047,6241,-5e-05,-5.9999999999999995e-05,0.0,0.00016999999999999999,-2e-05,-2.9999999999999997e-05,-0.00029,-5e-05,2
6048,6242,-5e-05,-5.9999999999999995e-05,0.0,0.00016999999999999999,-2e-05,-2.9999999999999997e-05,-0.00029,-5e-05,2
6049,6243,-5e-05,-5.9999999999999995e-05,0.0,0.00016999999999999999,-2e-05,-2.9999999999999997e-05,-0.00029,-5e-05,2
6050,6244,-5e-05,-5.9999999999999995e-05,0.0,0.00016999999999999999,-2e-05,-2.9999999999999997e-05,-0.00029,-5e-05,2
6051,6245,-5e-05,-5.9999999999999995e-05,0.0,0.00016999999999999999,-2e-05,-2.9999999999999997e-05,-0.00029,-5e-05,2
6052,6246,-5e-05,-5.9999999999999995e-05,0.0,0.00016999999999999999,-2e-05,-2.9999999999999997e-05,-0.00029,-5e-05,2
6053,6247,-5e-05,-5.9999999999999995e-05,0.0,0.00016999999999999999,-2e-05,-2.9999999999999997e-05,-0.00029,-5e-05,2
6054,6248,-5e-05,-5.9999999999999995e-05,0.0,0.00016999999999999999,-2e-05,-2.9999999999999997e-05,-0.00029,-5e-05,2
6055,6249,-5e-05,-5.9999999999999995e-05,0.0,0.00016999999999999999,-2e-05,-2.9999999999999997e-05,-0.00029,-5e-05,2
6056,6250,-1e-05,-4e-05,4e-05,0.00023999999999999998,-1e-05,-1e-05,0.00014,1e-05,2
6057,6251,-1e-05,-4e-05,4e-05,0.00023999999999999998,-1e-05,-1e-05,0.00014,1e-05,2
6058,6252,-0.00011,0.00011,0.00013000000000000002,0.00029,5e-05,-8e-05,-0.00027,-0.00022999999999999998,2
6059,6253,-0.00011,0.00011,0.00013000000000000002,0.00029,5e-05,-8e-05,-0.00027,-0.00022999999999999998,2
6060,6254,-0.00011,0.00011,0.00013000000000000002,0.00029,5e-05,-8e-05,-0.00027,-0.00022999999999999998,2
6061,6255,-0.00011,0.00011,0.00013000000000000002,0.00029,5e-05,-8e-05,-0.00027,-0.00022999999999999998,2
6062,6256,-0.00011,0.00011,0.00013000000000000002,0.00029,5e-05,-8e-05,-0.00027,-0.00022999999999999998,2
6063,6257,-0.00011,0.00011,0.00013000000000000002,0.00029,5e-05,-8e-05,-0.00027,-0.00022999999999999998,2
6064,6258,-0.00011,0.00011,0.00013000000000000002,0.00029,5e-05,-8e-05,-0.00027,-0.00022999999999999998,2
6065,6259,-0.00011,0.00011,0.00013000000000000002,0.00029,5e-05,-8e-05,-0.00027,-0.00022999999999999998,2
6066,6260,-0.00011,0.00011,0.00013000000000000002,0.00029,5e-05,-8e-05,-0.00027,-0.00022999999999999998,2
6067,6261,-0.00011,0.00011,0.00013000000000000002,0.00029,5e-05,-8e-05,-0.00027,-0.00022999999999999998,2
6068,6262,-0.00011,0.00011,0.00013000000000000002,0.00029,5e-05,-8e-05,-0.00027,-0.00022999999999999998,2
6069,6263,-0.00011,0.00011,0.00013000000000000002,0.00029,5e-05,-8e-05,-0.00027,-0.00022999999999999998,2
6070,6264,-0.00011,0.00011,0.00013000000000000002,0.00029,5e-05,-8e-05,-0.00027,-0.00022999999999999998,2
6071,6265,-0.00011,0.00011,0.00013000000000000002,0.00029,5e-05,-8e-05,-0.00027,-0.00022999999999999998,2
6072,6266,-0.00011,0.00011,0.00013000000000000002,0.00029,5e-05,-8e-05,-0.00027,-0.00022999999999999998,2
6073,6267,-0.00011,0.00011,0.00013000000000000002,0.00029,5e-05,-8e-05,-0.00027,-0.00022999999999999998,2
6074,6268,-0.00011,0.00011,0.00013000000000000002,0.00029,5e-05,-8e-05,-0.00027,-0.00022999999999999998,2
6075,6269,-0.00011,0.00011,0.00013000000000000002,0.00029,5e-05,-8e-05,-0.00027,-0.00022999999999999998,2
6076,6270,-0.00011,0.00011,0.00013000000000000002,0.00029,5e-05,-8e-05,-0.00027,-0.00022999999999999998,2
6077,6271,-0.00011,0.00011,0.00013000000000000002,0.00029,5e-05,-8e-05,-0.00027,-0.00022999999999999998,2
6078,6272,7e-05,0.0,2e-05,0.00011999999999999999,0.0,2.9999999999999997e-05,8e-05,2.9999999999999997e-05,2
6079,6273,7e-05,0.0,2e-05,0.00011999999999999999,0.0,2.9999999999999997e-05,8e-05,2.9999999999999997e-05,2
6080,6274,0.00011999999999999999,0.00013000000000000002,5.9999999999999995e-05,-2.9999999999999997e-05,5e-05,1e-05,0.0,0.0,2
6081,6275,0.00011999999999999999,0.00013000000000000002,5.9999999999999995e-05,-2.9999999999999997e-05,5e-05,1e-05,0.0,0.0,2
6082,6276,0.00011999999999999999,0.00013000000000000002,5.9999999999999995e-05,-2.9999999999999997e-05,5e-05,1e-05,0.0,0.0,2
6083,6277,0.00011999999999999999,0.00013000000000000002,5.9999999999999995e-05,-2.9999999999999997e-05,5e-05,1e-05,0.0,0.0,2
6084,6278,0.00011999999999999999,0.00013000000000000002,5.9999999999999995e-05,-2.9999999999999997e-05,5e-05,1e-05,0.0,0.0,2
6085,6279,0.00011999999999999999,0.00013000000000000002,5.9999999999999995e-05,-2.9999999999999997e-05,5e-05,1e-05,0.0,0.0,2
6086,6280,0.00011999999999999999,0.00013000000000000002,5.9999999999999995e-05,-2.9999999999999997e-05,5e-05,1e-05,0.0,0.0,2
6087,6281,0.00011999999999999999,0.00013000000000000002,5.9999999999999995e-05,-2.9999999999999997e-05,5e-05,1e-05,0.0,0.0,2
6088,6282,0.00011999999999999999,0.00013000000000000002,5.9999999999999995e-05,-2.9999999999999997e-05,5e-05,1e-05,0.0,0.0,2
6089,6283,0.00011999999999999999,0.00013000000000000002,5.9999999999999995e-05,-2.9999999999999997e-05,5e-05,1e-05,0.0,0.0,2
6090,6284,0.00011999999999999999,0.00013000000000000002,5.9999999999999995e-05,-2.9999999999999997e-05,5e-05,1e-05,0.0,0.0,2
6091,6285,0.00011999999999999999,0.00013000000000000002,5.9999999999999995e-05,-2.9999999999999997e-05,5e-05,1e-05,0.0,0.0,2
6092,6286,-8e-05,-0.00011,-2e-05,8e-05,1e-05,2e-05,-9e-05,-2.9999999999999997e-05,2
6093,6288,-8e-05,-0.00011,-2e-05,8e-05,1e-05,2e-05,-9e-05,-2.9999999999999997e-05,2
6094,6289,-8e-05,-0.00011,-2e-05,8e-05,1e-05,2e-05,-9e-05,-2.9999999999999997e-05,2
6095,6290,-8e-05,-0.00011,-2e-05,8e-05,1e-05,2e-05,-9e-05,-2.9999999999999997e-05,2
6096,6291,-8e-05,-0.00011,-2e-05,8e-05,1e-05,2e-05,-9e-05,-2.9999999999999997e-05,2
6097,6292,-8e-05,-0.00011,-2e-05,8e-05,1e-05,2e-05,-9e-05,-2.9999999999999997e-05,2
6098,6293,-8e-05,-0.00011,-2e-05,8e-05,1e-05,2e-05,-9e-05,-2.9999999999999997e-05,2
6099,6294,-8e-05,-0.00011,-2e-05,8e-05,1e-05,2e-05,-9e-05,-2.9999999999999997e-05,2
6100,6295,1e-05,2e-05,-9e-05,-1e-05,-0.0001,-2.9999999999999997e-05,-2.9999999999999997e-05,-2e-05,2
6101,6296,1e-05,2e-05,-9e-05,-1e-05,-0.0001,-2.9999999999999997e-05,-2.9999999999999997e-05,-2e-05,2
6102,6297,1e-05,2e-05,-9e-05,-1e-05,-0.0001,-2.9999999999999997e-05,-2.9999999999999997e-05,-2e-05,2
6103,6298,1e-05,2e-05,-9e-05,-1e-05,-0.0001,-2.9999999999999997e-05,-2.9999999999999997e-05,-2e-05,2
6104,6299,1e-05,2e-05,-9e-05,-1e-05,-0.0001,-2.9999999999999997e-05,-2.9999999999999997e-05,-2e-05,2
6105,6300,1e-05,2e-05,-9e-05,-1e-05,-0.0001,-2.9999999999999997e-05,-2.9999999999999997e-05,-2e-05,2
6106,6301,1e-05,2e-05,-9e-05,-1e-05,-0.0001,-2.9999999999999997e-05,-2.9999999999999997e-05,-2e-05,2
6107,6302,1e-05,2e-05,-9e-05,-1e-05,-0.0001,-2.9999999999999997e-05,-2.9999999999999997e-05,-2e-05,2
6108,6303,1e-05,2e-05,-9e-05,-1e-05,-0.0001,-2.9999999999999997e-05,-2.9999999999999997e-05,-2e-05,2
6109,6304,1e-05,2e-05,-9e-05,-1e-05,-0.0001,-2.9999999999999997e-05,-2.9999999999999997e-05,-2e-05,2
6110,6305,1e-05,2e-05,-9e-05,-1e-05,-0.0001,-2.9999999999999997e-05,-2.9999999999999997e-05,-2e-05,2
6111,6306,1e-05,2e-05,-9e-05,-1e-05,-0.0001,-2.9999999999999997e-05,-2.9999999999999997e-05,-2e-05,2
6112,6307,1e-05,2e-05,-9e-05,-1e-05,-0.0001,-2.9999999999999997e-05,-2.9999999999999997e-05,-2e-05,2
6113,6308,1e-05,2e-05,-9e-05,-1e-05,-0.0001,-2.9999999999999997e-05,-2.9999999999999997e-05,-2e-05,2
6114,6309,1e-05,2e-05,-9e-05,-1e-05,-0.0001,-2.9999999999999997e-05,-2.9999999999999997e-05,-2e-05,2
6115,6310,9e-05,9e-05,0.0001,0.00028,5.9999999999999995e-05,1e-05,-0.0001,-2.9999999999999997e-05,2
6116,6311,-0.00015,-2.9999999999999997e-05,-1e-05,-5.9999999999999995e-05,-4e-05,-2.9999999999999997e-05,2e-05,-0.0001,2
6117,6312,2.9999999999999997e-05,1e-05,5e-05,2.9999999999999997e-05,0.0,-5e-05,2.9999999999999997e-05,0.0,2
6118,6313,2.9999999999999997e-05,1e-05,5e-05,2.9999999999999997e-05,0.0,-5e-05,2.9999999999999997e-05,0.0,2
6119,6314,2.9999999999999997e-05,1e-05,5e-05,2.9999999999999997e-05,0.0,-5e-05,2.9999999999999997e-05,0.0,2
6120,6315,2.9999999999999997e-05,1e-05,5e-05,2.9999999999999997e-05,0.0,-5e-05,2.9999999999999997e-05,0.0,2
6121,6316,2.9999999999999997e-05,1e-05,5e-05,2.9999999999999997e-05,0.0,-5e-05,2.9999999999999997e-05,0.0,2
6122,6317,2.9999999999999997e-05,1e-05,5e-05,2.9999999999999997e-05,0.0,-5e-05,2.9999999999999997e-05,0.0,2
6123,6318,2.9999999999999997e-05,1e-05,5e-05,2.9999999999999997e-05,0.0,-5e-05,2.9999999999999997e-05,0.0,2
6124,6319,2.9999999999999997e-05,1e-05,5e-05,2.9999999999999997e-05,0.0,-5e-05,2.9999999999999997e-05,0.0,2
6125,6320,2.9999999999999997e-05,1e-05,5e-05,2.9999999999999997e-05,0.0,-5e-05,2.9999999999999997e-05,0.0,2
6126,6321,2.9999999999999997e-05,1e-05,5e-05,2.9999999999999997e-05,0.0,-5e-05,2.9999999999999997e-05,0.0,2
6127,6322,2.9999999999999997e-05,1e-05,5e-05,2.9999999999999997e-05,0.0,-5e-05,2.9999999999999997e-05,0.0,2
6128,6323,2.9999999999999997e-05,1e-05,5e-05,2.9999999999999997e-05,0.0,-5e-05,2.9999999999999997e-05,0.0,2
6129,6324,2.9999999999999997e-05,1e-05,5e-05,2.9999999999999997e-05,0.0,-5e-05,2.9999999999999997e-05,0.0,2
6130,6325,2.9999999999999997e-05,1e-05,5e-05,2.9999999999999997e-05,0.0,-5e-05,2.9999999999999997e-05,0.0,2
6131,6326,2.9999999999999997e-05,1e-05,5e-05,2.9999999999999997e-05,0.0,-5e-05,2.9999999999999997e-05,0.0,2
6132,6327,2.9999999999999997e-05,1e-05,5e-05,2.9999999999999997e-05,0.0,-5e-05,2.9999999999999997e-05,0.0,2
6133,6328,2.9999999999999997e-05,1e-05,5e-05,2.9999999999999997e-05,0.0,-5e-05,2.9999999999999997e-05,0.0,2
6134,6329,2.9999999999999997e-05,1e-05,5e-05,2.9999999999999997e-05,0.0,-5e-05,2.9999999999999997e-05,0.0,2
6135,6330,2.9999999999999997e-05,1e-05,5e-05,2.9999999999999997e-05,0.0,-5e-05,2.9999999999999997e-05,0.0,2
6136,6331,2.9999999999999997e-05,1e-05,5e-05,2.9999999999999997e-05,0.0,-5e-05,2.9999999999999997e-05,0.0,2
6137,6332,-4e-05,4e-05,-1e-05,-0.00033999999999999997,-0.00015,-2.9999999999999997e-05,0.0001,-2e-05,2
6138,6333,-4e-05,4e-05,-1e-05,-0.00033999999999999997,-0.00015,-2.9999999999999997e-05,0.0001,-2e-05,2
6139,6334,-5e-05,-0.00014,-9e-05,-0.00011,0.00011,1e-05,-0.00016,-2.9999999999999997e-05,2
6140,6335,-5e-05,-0.00014,-9e-05,-0.00011,0.00011,1e-05,-0.00016,-2.9999999999999997e-05,2
6141,6336,-5e-05,-0.00014,-9e-05,-0.00011,0.00011,1e-05,-0.00016,-2.9999999999999997e-05,2
6142,6338,-5e-05,-0.00014,-9e-05,-0.00011,0.00011,1e-05,-0.00016,-2.9999999999999997e-05,2
6143,6339,-5e-05,-0.00014,-9e-05,-0.00011,0.00011,1e-05,-0.00016,-2.9999999999999997e-05,2
6144,6340,-5e-05,-0.00014,-9e-05,-0.00011,0.00011,1e-05,-0.00016,-2.9999999999999997e-05,2
6145,6341,-5e-05,-0.00014,-9e-05,-0.00011,0.00011,1e-05,-0.00016,-2.9999999999999997e-05,2
6146,6342,-5e-05,-0.00014,-9e-05,-0.00011,0.00011,1e-05,-0.00016,-2.9999999999999997e-05,2
6147,6343,-5e-05,-0.00014,-9e-05,-0.00011,0.00011,1e-05,-0.00016,-2.9999999999999997e-05,2
6148,6344,-5e-05,-0.00014,-9e-05,-0.00011,0.00011,1e-05,-0.00016,-2.9999999999999997e-05,2
6149,6345,-5e-05,-0.00014,-9e-05,-0.00011,0.00011,1e-05,-0.00016,-2.9999999999999997e-05,2
6150,6346,-0.0001,-8e-05,2e-05,0.00011999999999999999,7e-05,2.9999999999999997e-05,2.9999999999999997e-05,2e-05,2
6151,6347,-0.0001,-8e-05,2e-05,0.00011999999999999999,7e-05,2.9999999999999997e-05,2.9999999999999997e-05,2e-05,2
6152,6348,-0.0001,-8e-05,2e-05,0.00011999999999999999,7e-05,2.9999999999999997e-05,2.9999999999999997e-05,2e-05,2
6153,6349,-0.0001,-8e-05,2e-05,0.00011999999999999999,7e-05,2.9999999999999997e-05,2.9999999999999997e-05,2e-05,2
6154,6350,-0.0001,-8e-05,2e-05,0.00011999999999999999,7e-05,2.9999999999999997e-05,2.9999999999999997e-05,2e-05,2
6155,6351,-0.0001,-8e-05,2e-05,0.00011999999999999999,7e-05,2.9999999999999997e-05,2.9999999999999997e-05,2e-05,2
6156,6352,-0.0001,-8e-05,2e-05,0.00011999999999999999,7e-05,2.9999999999999997e-05,2.9999999999999997e-05,2e-05,2
6157,6353,-0.0001,-8e-05,2e-05,0.00011999999999999999,7e-05,2.9999999999999997e-05,2.9999999999999997e-05,2e-05,2
6158,6354,-0.0001,-8e-05,2e-05,0.00011999999999999999,7e-05,2.9999999999999997e-05,2.9999999999999997e-05,2e-05,2
6159,6355,0.0,-0.00014,-0.00013000000000000002,-0.00023999999999999998,-5.9999999999999995e-05,2e-05,0.00021,0.0001,2
6160,6356,0.0,-0.00014,-0.00013000000000000002,-0.00023999999999999998,-5.9999999999999995e-05,2e-05,0.00021,0.0001,2
6161,6357,0.0,-0.00014,-0.00013000000000000002,-0.00023999999999999998,-5.9999999999999995e-05,2e-05,0.00021,0.0001,2
6162,6358,0.0,-0.00014,-0.00013000000000000002,-0.00023999999999999998,-5.9999999999999995e-05,2e-05,0.00021,0.0001,2
6163,6359,0.0,-0.00014,-0.00013000000000000002,-0.00023999999999999998,-5.9999999999999995e-05,2e-05,0.00021,0.0001,2
6164,6360,0.0,-0.00014,-0.00013000000000000002,-0.00023999999999999998,-5.9999999999999995e-05,2e-05,0.00021,0.0001,2
6165,6361,0.0,-0.00014,-0.00013000000000000002,-0.00023999999999999998,-5.9999999999999995e-05,2e-05,0.00021,0.0001,2
6166,6362,0.0,-0.00014,-0.00013000000000000002,-0.00023999999999999998,-5.9999999999999995e-05,2e-05,0.00021,0.0001,2
6167,6363,0.0,-0.00014,-0.00013000000000000002,-0.00023999999999999998,-5.9999999999999995e-05,2e-05,0.00021,0.0001,2
6168,6364,0.0,-0.00014,-0.00013000000000000002,-0.00023999999999999998,-5.9999999999999995e-05,2e-05,0.00021,0.0001,2
6169,6365,0.0,-0.00014,-0.00013000000000000002,-0.00023999999999999998,-5.9999999999999995e-05,2e-05,0.00021,0.0001,2
6170,6366,0.0,-0.00014,-0.00013000000000000002,-0.00023999999999999998,-5.9999999999999995e-05,2e-05,0.00021,0.0001,2
6171,6367,0.0,-0.00014,-0.00013000000000000002,-0.00023999999999999998,-5.9999999999999995e-05,2e-05,0.00021,0.0001,2
6172,6368,0.0,-0.00014,-0.00013000000000000002,-0.00023999999999999998,-5.9999999999999995e-05,2e-05,0.00021,0.0001,2
6173,6369,0.0,-0.00014,-0.00013000000000000002,-0.00023999999999999998,-5.9999999999999995e-05,2e-05,0.00021,0.0001,2
6174,6370,-2e-05,-0.00011999999999999999,-2e-05,4e-05,-4e-05,2e-05,-5.9999999999999995e-05,2e-05,2
6175,6371,-1e-05,2.9999999999999997e-05,0.00014,0.00015,-1e-05,-1e-05,-0.0002,-0.00011,2
6176,6372,2.9999999999999997e-05,4e-05,-8e-05,-8e-05,5.9999999999999995e-05,8e-05,5e-05,5.9999999999999995e-05,2
6177,6373,2.9999999999999997e-05,4e-05,-8e-05,-8e-05,5.9999999999999995e-05,8e-05,5e-05,5.9999999999999995e-05,2
6178,6374,2.9999999999999997e-05,4e-05,-8e-05,-8e-05,5.9999999999999995e-05,8e-05,5e-05,5.9999999999999995e-05,2
6179,6375,2.9999999999999997e-05,4e-05,-8e-05,-8e-05,5.9999999999999995e-05,8e-05,5e-05,5.9999999999999995e-05,2
6180,6376,2.9999999999999997e-05,4e-05,-8e-05,-8e-05,5.9999999999999995e-05,8e-05,5e-05,5.9999999999999995e-05,2
6181,6377,2.9999999999999997e-05,4e-05,-8e-05,-8e-05,5.9999999999999995e-05,8e-05,5e-05,5.9999999999999995e-05,2
6182,6378,2.9999999999999997e-05,4e-05,-8e-05,-8e-05,5.9999999999999995e-05,8e-05,5e-05,5.9999999999999995e-05,2
6183,6379,2.9999999999999997e-05,4e-05,-8e-05,-8e-05,5.9999999999999995e-05,8e-05,5e-05,5.9999999999999995e-05,2
6184,6380,2.9999999999999997e-05,4e-05,-8e-05,-8e-05,5.9999999999999995e-05,8e-05,5e-05,5.9999999999999995e-05,2
6185,6381,2.9999999999999997e-05,4e-05,-8e-05,-8e-05,5.9999999999999995e-05,8e-05,5e-05,5.9999999999999995e-05,2
6186,6382,2.9999999999999997e-05,4e-05,-8e-05,-8e-05,5.9999999999999995e-05,8e-05,5e-05,5.9999999999999995e-05,2
6187,6383,2.9999999999999997e-05,4e-05,-8e-05,-8e-05,5.9999999999999995e-05,8e-05,5e-05,5.9999999999999995e-05,2
6188,6384,2.9999999999999997e-05,4e-05,-8e-05,-8e-05,5.9999999999999995e-05,8e-05,5e-05,5.9999999999999995e-05,2
6189,6385,2.9999999999999997e-05,4e-05,-8e-05,-8e-05,5.9999999999999995e-05,8e-05,5e-05,5.9999999999999995e-05,2
6190,6386,2.9999999999999997e-05,4e-05,-8e-05,-8e-05,5.9999999999999995e-05,8e-05,5e-05,5.9999999999999995e-05,2
6191,6388,2.9999999999999997e-05,4e-05,-8e-05,-8e-05,5.9999999999999995e-05,8e-05,5e-05,5.9999999999999995e-05,2
6192,6389,2.9999999999999997e-05,4e-05,-8e-05,-8e-05,5.9999999999999995e-05,8e-05,5e-05,5.9999999999999995e-05,2
6193,6390,2.9999999999999997e-05,4e-05,-8e-05,-8e-05,5.9999999999999995e-05,8e-05,5e-05,5.9999999999999995e-05,2
6194,6391,2.9999999999999997e-05,4e-05,-8e-05,-8e-05,5.9999999999999995e-05,8e-05,5e-05,5.9999999999999995e-05,2
6195,6392,-5e-05,-8e-05,-9e-05,-0.00011,2.9999999999999997e-05,-2e-05,-0.00011999999999999999,-7e-05,2
6196,6393,-5e-05,-8e-05,-9e-05,-0.00011,2.9999999999999997e-05,-2e-05,-0.00011999999999999999,-7e-05,2
6197,6394,5.9999999999999995e-05,5.9999999999999995e-05,-4e-05,-0.00023999999999999998,-0.00013000000000000002,-8e-05,-4e-05,-5e-05,2
6198,6395,5.9999999999999995e-05,5.9999999999999995e-05,-4e-05,-0.00023999999999999998,-0.00013000000000000002,-8e-05,-4e-05,-5e-05,2
6199,6396,5.9999999999999995e-05,5.9999999999999995e-05,-4e-05,-0.00023999999999999998,-0.00013000000000000002,-8e-05,-4e-05,-5e-05,2
6200,6397,5.9999999999999995e-05,5.9999999999999995e-05,-4e-05,-0.00023999999999999998,-0.00013000000000000002,-8e-05,-4e-05,-5e-05,2
6201,6398,5.9999999999999995e-05,5.9999999999999995e-05,-4e-05,-0.00023999999999999998,-0.00013000000000000002,-8e-05,-4e-05,-5e-05,2
6202,6399,5.9999999999999995e-05,5.9999999999999995e-05,-4e-05,-0.00023999999999999998,-0.00013000000000000002,-8e-05,-4e-05,-5e-05,2
6203,6400,5.9999999999999995e-05,5.9999999999999995e-05,-4e-05,-0.00023999999999999998,-0.00013000000000000002,-8e-05,-4e-05,-5e-05,2
6204,6401,5.9999999999999995e-05,5.9999999999999995e-05,-4e-05,-0.00023999999999999998,-0.00013000000000000002,-8e-05,-4e-05,-5e-05,2
6205,6402,5.9999999999999995e-05,5.9999999999999995e-05,-4e-05,-0.00023999999999999998,-0.00013000000000000002,-8e-05,-4e-05,-5e-05,2
6206,6403,5.9999999999999995e-05,5.9999999999999995e-05,-4e-05,-0.00023999999999999998,-0.00013000000000000002,-8e-05,-4e-05,-5e-05,2
6207,6404,5.9999999999999995e-05,5.9999999999999995e-05,-4e-05,-0.00023999999999999998,-0.00013000000000000002,-8e-05,-4e-05,-5e-05,2
6208,6405,5.9999999999999995e-05,5.9999999999999995e-05,-4e-05,-0.00023999999999999998,-0.00013000000000000002,-8e-05,-4e-05,-5e-05,2
6209,6406,5.9999999999999995e-05,5.9999999999999995e-05,-4e-05,-0.00023999999999999998,-0.00013000000000000002,-8e-05,-4e-05,-5e-05,2
6210,6407,5.9999999999999995e-05,5.9999999999999995e-05,-4e-05,-0.00023999999999999998,-0.00013000000000000002,-8e-05,-4e-05,-5e-05,2
6211,6408,5.9999999999999995e-05,5.9999999999999995e-05,-4e-05,-0.00023999999999999998,-0.00013000000000000002,-8e-05,-4e-05,-5e-05,2
6212,6409,5.9999999999999995e-05,5.9999999999999995e-05,-4e-05,-0.00023999999999999998,-0.00013000000000000002,-8e-05,-4e-05,-5e-05,2
6213,6410,5.9999999999999995e-05,5.9999999999999995e-05,-4e-05,-0.00023999999999999998,-0.00013000000000000002,-8e-05,-4e-05,-5e-05,2
6214,6411,5.9999999999999995e-05,5.9999999999999995e-05,-4e-05,-0.00023999999999999998,-0.00013000000000000002,-8e-05,-4e-05,-5e-05,2
6215,6412,5.9999999999999995e-05,5.9999999999999995e-05,-4e-05,-0.00023999999999999998,-0.00013000000000000002,-8e-05,-4e-05,-5e-05,2
6216,6413,5.9999999999999995e-05,5.9999999999999995e-05,-4e-05,-0.00023999999999999998,-0.00013000000000000002,-8e-05,-4e-05,-5e-05,2
6217,6414,5.9999999999999995e-05,5.9999999999999995e-05,-4e-05,-0.00023999999999999998,-0.00013000000000000002,-8e-05,-4e-05,-5e-05,2
6218,6415,5.9999999999999995e-05,5.9999999999999995e-05,-4e-05,-0.00023999999999999998,-0.00013000000000000002,-8e-05,-4e-05,-5e-05,2
6219,6416,-0.00016999999999999999,-0.0002,-5e-05,-7e-05,1e-05,-1e-05,-8e-05,-0.00013000000000000002,2
6220,6417,-0.00016999999999999999,-0.0002,-5e-05,-7e-05,1e-05,-1e-05,-8e-05,-0.00013000000000000002,2
6221,6418,-0.00016999999999999999,-0.0002,-5e-05,-7e-05,1e-05,-1e-05,-8e-05,-0.00013000000000000002,2
6222,6419,-0.00016999999999999999,-0.0002,-5e-05,-7e-05,1e-05,-1e-05,-8e-05,-0.00013000000000000002,2
6223,6420,-0.00016999999999999999,-0.0002,-5e-05,-7e-05,1e-05,-1e-05,-8e-05,-0.00013000000000000002,2
6224,6421,-0.00016999999999999999,-0.0002,-5e-05,-7e-05,1e-05,-1e-05,-8e-05,-0.00013000000000000002,2
6225,6422,-0.00016999999999999999,-0.0002,-5e-05,-7e-05,1e-05,-1e-05,-8e-05,-0.00013000000000000002,2
6226,6423,-0.00016999999999999999,-0.0002,-5e-05,-7e-05,1e-05,-1e-05,-8e-05,-0.00013000000000000002,2
6227,6424,-0.00016999999999999999,-0.0002,-5e-05,-7e-05,1e-05,-1e-05,-8e-05,-0.00013000000000000002,2
6228,6425,-0.00016999999999999999,-0.0002,-5e-05,-7e-05,1e-05,-1e-05,-8e-05,-0.00013000000000000002,2
6229,6426,-0.00016999999999999999,-0.0002,-5e-05,-7e-05,1e-05,-1e-05,-8e-05,-0.00013000000000000002,2
6230,6427,-0.00016999999999999999,-0.0002,-5e-05,-7e-05,1e-05,-1e-05,-8e-05,-0.00013000000000000002,2
6231,6428,-0.00016999999999999999,-0.0002,-5e-05,-7e-05,1e-05,-1e-05,-8e-05,-0.00013000000000000002,2
6232,6429,-0.00016999999999999999,-0.0002,-5e-05,-7e-05,1e-05,-1e-05,-8e-05,-0.00013000000000000002,2
6233,6430,0.00011,5.9999999999999995e-05,-2.9999999999999997e-05,-0.00022999999999999998,-9e-05,0.0,0.0004,0.00011,2
6234,6431,-0.00015,-0.00035,4e-05,0.00018999999999999998,5e-05,-2.9999999999999997e-05,-0.0002,-5.9999999999999995e-05,2
6235,6432,7e-05,5.9999999999999995e-05,2.9999999999999997e-05,0.0,-7e-05,-7e-05,-0.00021,-0.00014,2
6236,6433,7e-05,5.9999999999999995e-05,2.9999999999999997e-05,0.0,-7e-05,-7e-05,-0.00021,-0.00014,2
6237,6434,7e-05,5.9999999999999995e-05,2.9999999999999997e-05,0.0,-7e-05,-7e-05,-0.00021,-0.00014,2
6238,6435,7e-05,5.9999999999999995e-05,2.9999999999999997e-05,0.0,-7e-05,-7e-05,-0.00021,-0.00014,2
6239,6436,7e-05,5.9999999999999995e-05,2.9999999999999997e-05,0.0,-7e-05,-7e-05,-0.00021,-0.00014,2
6240,6438,7e-05,5.9999999999999995e-05,2.9999999999999997e-05,0.0,-7e-05,-7e-05,-0.00021,-0.00014,2
6241,6439,7e-05,5.9999999999999995e-05,2.9999999999999997e-05,0.0,-7e-05,-7e-05,-0.00021,-0.00014,2
6242,6440,7e-05,5.9999999999999995e-05,2.9999999999999997e-05,0.0,-7e-05,-7e-05,-0.00021,-0.00014,2
6243,6441,7e-05,5.9999999999999995e-05,2.9999999999999997e-05,0.0,-7e-05,-7e-05,-0.00021,-0.00014,2
6244,6442,7e-05,5.9999999999999995e-05,2.9999999999999997e-05,0.0,-7e-05,-7e-05,-0.00021,-0.00014,2
6245,6443,7e-05,5.9999999999999995e-05,2.9999999999999997e-05,0.0,-7e-05,-7e-05,-0.00021,-0.00014,2
6246,6444,7e-05,5.9999999999999995e-05,2.9999999999999997e-05,0.0,-7e-05,-7e-05,-0.00021,-0.00014,2
6247,6445,7e-05,5.9999999999999995e-05,2.9999999999999997e-05,0.0,-7e-05,-7e-05,-0.00021,-0.00014,2
6248,6446,7e-05,5.9999999999999995e-05,2.9999999999999997e-05,0.0,-7e-05,-7e-05,-0.00021,-0.00014,2
6249,6447,7e-05,5.9999999999999995e-05,2.9999999999999997e-05,0.0,-7e-05,-7e-05,-0.00021,-0.00014,2
6250,6448,7e-05,5.9999999999999995e-05,2.9999999999999997e-05,0.0,-7e-05,-7e-05,-0.00021,-0.00014,2
6251,6449,7e-05,5.9999999999999995e-05,2.9999999999999997e-05,0.0,-7e-05,-7e-05,-0.00021,-0.00014,2
6252,6450,7e-05,5.9999999999999995e-05,2.9999999999999997e-05,0.0,-7e-05,-7e-05,-0.00021,-0.00014,2
6253,6451,7e-05,5.9999999999999995e-05,2.9999999999999997e-05,0.0,-7e-05,-7e-05,-0.00021,-0.00014,2
6254,6452,2e-05,9e-05,2.9999999999999997e-05,-0.00011,-2.9999999999999997e-05,-1e-05,-1e-05,-4e-05,2
6255,6453,2e-05,9e-05,2.9999999999999997e-05,-0.00011,-2.9999999999999997e-05,-1e-05,-1e-05,-4e-05,2
6256,6454,1e-05,-2.9999999999999997e-05,0.00013000000000000002,0.00055,2.9999999999999997e-05,2.9999999999999997e-05,0.00011999999999999999,5e-05,2
6257,6455,1e-05,-2.9999999999999997e-05,0.00013000000000000002,0.00055,2.9999999999999997e-05,2.9999999999999997e-05,0.00011999999999999999,5e-05,2
6258,6456,1e-05,-2.9999999999999997e-05,0.00013000000000000002,0.00055,2.9999999999999997e-05,2.9999999999999997e-05,0.00011999999999999999,5e-05,2
6259,6457,1e-05,-2.9999999999999997e-05,0.00013000000000000002,0.00055,2.9999999999999997e-05,2.9999999999999997e-05,0.00011999999999999999,5e-05,2
6260,6458,1e-05,-2.9999999999999997e-05,0.00013000000000000002,0.00055,2.9999999999999997e-05,2.9999999999999997e-05,0.00011999999999999999,5e-05,2
6261,6459,1e-05,-2.9999999999999997e-05,0.00013000000000000002,0.00055,2.9999999999999997e-05,2.9999999999999997e-05,0.00011999999999999999,5e-05,2
6262,6460,1e-05,-2.9999999999999997e-05,0.00013000000000000002,0.00055,2.9999999999999997e-05,2.9999999999999997e-05,0.00011999999999999999,5e-05,2
6263,6461,1e-05,-2.9999999999999997e-05,0.00013000000000000002,0.00055,2.9999999999999997e-05,2.9999999999999997e-05,0.00011999999999999999,5e-05,2
6264,6462,1e-05,-2.9999999999999997e-05,0.00013000000000000002,0.00055,2.9999999999999997e-05,2.9999999999999997e-05,0.00011999999999999999,5e-05,2
6265,6463,1e-05,-2.9999999999999997e-05,0.00013000000000000002,0.00055,2.9999999999999997e-05,2.9999999999999997e-05,0.00011999999999999999,5e-05,2
6266,6464,1e-05,-2.9999999999999997e-05,0.00013000000000000002,0.00055,2.9999999999999997e-05,2.9999999999999997e-05,0.00011999999999999999,5e-05,2
6267,6465,1e-05,-2.9999999999999997e-05,0.00013000000000000002,0.00055,2.9999999999999997e-05,2.9999999999999997e-05,0.00011999999999999999,5e-05,2
6268,6466,1e-05,-2.9999999999999997e-05,0.00013000000000000002,0.00055,2.9999999999999997e-05,2.9999999999999997e-05,0.00011999999999999999,5e-05,2
6269,6467,1e-05,-2.9999999999999997e-05,0.00013000000000000002,0.00055,2.9999999999999997e-05,2.9999999999999997e-05,0.00011999999999999999,5e-05,2
6270,6468,1e-05,-2.9999999999999997e-05,0.00013000000000000002,0.00055,2.9999999999999997e-05,2.9999999999999997e-05,0.00011999999999999999,5e-05,2
6271,6469,1e-05,-2.9999999999999997e-05,0.00013000000000000002,0.00055,2.9999999999999997e-05,2.9999999999999997e-05,0.00011999999999999999,5e-05,2
6272,6470,1e-05,-2.9999999999999997e-05,0.00013000000000000002,0.00055,2.9999999999999997e-05,2.9999999999999997e-05,0.00011999999999999999,5e-05,2
6273,6471,1e-05,-2.9999999999999997e-05,0.00013000000000000002,0.00055,2.9999999999999997e-05,2.9999999999999997e-05,0.00011999999999999999,5e-05,2
6274,6472,1e-05,-2.9999999999999997e-05,0.00013000000000000002,0.00055,2.9999999999999997e-05,2.9999999999999997e-05,0.00011999999999999999,5e-05,2
6275,6473,1e-05,-2.9999999999999997e-05,0.00013000000000000002,0.00055,2.9999999999999997e-05,2.9999999999999997e-05,0.00011999999999999999,5e-05,2
6276,6474,1e-05,-2.9999999999999997e-05,0.00013000000000000002,0.00055,2.9999999999999997e-05,2.9999999999999997e-05,0.00011999999999999999,5e-05,2
6277,6475,-9e-05,-9e-05,-0.00011999999999999999,-0.0003,-7e-05,-9e-05,-0.00037,-9e-05,2
6278,6476,1e-05,2e-05,2e-05,-0.0001,-0.00014,-1e-05,0.0005099999999999999,0.0001,2
6279,6477,-0.00011,-5e-05,-9e-05,0.0001,2.9999999999999997e-05,-1e-05,1e-05,-5e-05,2
6280,6478,-0.00011,-5e-05,-9e-05,0.0001,2.9999999999999997e-05,-1e-05,1e-05,-5e-05,2
6281,6479,-0.00011,-5e-05,-9e-05,0.0001,2.9999999999999997e-05,-1e-05,1e-05,-5e-05,2
6282,6480,-0.00011,-5e-05,-9e-05,0.0001,2.9999999999999997e-05,-1e-05,1e-05,-5e-05,2
6283,6481,-0.00011,-5e-05,-9e-05,0.0001,2.9999999999999997e-05,-1e-05,1e-05,-5e-05,2
6284,6482,-0.00011,-5e-05,-9e-05,0.0001,2.9999999999999997e-05,-1e-05,1e-05,-5e-05,2
6285,6483,-0.00011,-5e-05,-9e-05,0.0001,2.9999999999999997e-05,-1e-05,1e-05,-5e-05,2
6286,6484,-0.00011,-5e-05,-9e-05,0.0001,2.9999999999999997e-05,-1e-05,1e-05,-5e-05,2
6287,6485,-0.00011,-5e-05,-9e-05,0.0001,2.9999999999999997e-05,-1e-05,1e-05,-5e-05,2
6288,6486,-0.00011,-5e-05,-9e-05,0.0001,2.9999999999999997e-05,-1e-05,1e-05,-5e-05,2
6289,6489,-0.00011,-5e-05,-9e-05,0.0001,2.9999999999999997e-05,-1e-05,1e-05,-5e-05,2
6290,6490,-2e-05,-0.00011999999999999999,0.00011,0.00032,-2.9999999999999997e-05,2e-05,0.0003,-1e-05,2
6291,6491,-0.0001,2e-05,-0.00018999999999999998,-0.00023999999999999998,-0.00011,-2.9999999999999997e-05,-0.00011999999999999999,-0.00011,2
6292,6492,1e-05,0.00011999999999999999,5.9999999999999995e-05,0.0002,0.00011,-2e-05,0.00018,5e-05,2
6293,6493,1e-05,0.00011999999999999999,5.9999999999999995e-05,0.0002,0.00011,-2e-05,0.00018,5e-05,2
6294,6494,1e-05,0.00011999999999999999,5.9999999999999995e-05,0.0002,0.00011,-2e-05,0.00018,5e-05,2
6295,6495,1e-05,0.00011999999999999999,5.9999999999999995e-05,0.0002,0.00011,-2e-05,0.00018,5e-05,2
6296,6496,1e-05,0.00011999999999999999,5.9999999999999995e-05,0.0002,0.00011,-2e-05,0.00018,5e-05,2
6297,6497,1e-05,0.00011999999999999999,5.9999999999999995e-05,0.0002,0.00011,-2e-05,0.00018,5e-05,2
6298,6498,1e-05,0.00011999999999999999,5.9999999999999995e-05,0.0002,0.00011,-2e-05,0.00018,5e-05,2
6299,6499,1e-05,0.00011999999999999999,5.9999999999999995e-05,0.0002,0.00011,-2e-05,0.00018,5e-05,2
6300,6500,1e-05,0.00011999999999999999,5.9999999999999995e-05,0.0002,0.00011,-2e-05,0.00018,5e-05,2
6301,6501,1e-05,0.00011999999999999999,5.9999999999999995e-05,0.0002,0.00011,-2e-05,0.00018,5e-05,2
6302,6502,1e-05,0.00011999999999999999,5.9999999999999995e-05,0.0002,0.00011,-2e-05,0.00018,5e-05,2
6303,6503,1e-05,0.00011999999999999999,5.9999999999999995e-05,0.0002,0.00011,-2e-05,0.00018,5e-05,2
6304,6504,1e-05,0.00011999999999999999,5.9999999999999995e-05,0.0002,0.00011,-2e-05,0.00018,5e-05,2
6305,6505,1e-05,0.00011999999999999999,5.9999999999999995e-05,0.0002,0.00011,-2e-05,0.00018,5e-05,2
6306,6506,1e-05,0.00011999999999999999,5.9999999999999995e-05,0.0002,0.00011,-2e-05,0.00018,5e-05,2
6307,6507,1e-05,0.00011999999999999999,5.9999999999999995e-05,0.0002,0.00011,-2e-05,0.00018,5e-05,2
6308,6508,1e-05,0.00011999999999999999,5.9999999999999995e-05,0.0002,0.00011,-2e-05,0.00018,5e-05,2
6309,6509,1e-05,0.00011999999999999999,5.9999999999999995e-05,0.0002,0.00011,-2e-05,0.00018,5e-05,2
6310,6510,1e-05,0.00011999999999999999,5.9999999999999995e-05,0.0002,0.00011,-2e-05,0.00018,5e-05,2
6311,6511,1e-05,0.00011999999999999999,5.9999999999999995e-05,0.0002,0.00011,-2e-05,0.00018,5e-05,2
6312,6512,-1e-05,-5e-05,-0.00011999999999999999,-4e-05,5e-05,1e-05,-0.0001,-4e-05,2
6313,6513,-1e-05,-5e-05,-0.00011999999999999999,-4e-05,5e-05,1e-05,-0.0001,-4e-05,2
6314,6514,0.0,-2e-05,2e-05,-0.00026000000000000003,-9e-05,-2.9999999999999997e-05,0.00011,2e-05,2
6315,6515,0.0,-2e-05,2e-05,-0.00026000000000000003,-9e-05,-2.9999999999999997e-05,0.00011,2e-05,2
6316,6516,0.0,-2e-05,2e-05,-0.00026000000000000003,-9e-05,-2.9999999999999997e-05,0.00011,2e-05,2
6317,6517,0.0,-2e-05,2e-05,-0.00026000000000000003,-9e-05,-2.9999999999999997e-05,0.00011,2e-05,2
6318,6518,0.0,-2e-05,2e-05,-0.00026000000000000003,-9e-05,-2.9999999999999997e-05,0.00011,2e-05,2
6319,6519,0.0,-2e-05,2e-05,-0.00026000000000000003,-9e-05,-2.9999999999999997e-05,0.00011,2e-05,2
6320,6520,0.0,-2e-05,2e-05,-0.00026000000000000003,-9e-05,-2.9999999999999997e-05,0.00011,2e-05,2
6321,6521,0.0,-2e-05,2e-05,-0.00026000000000000003,-9e-05,-2.9999999999999997e-05,0.00011,2e-05,2
6322,6522,0.0,-2e-05,2e-05,-0.00026000000000000003,-9e-05,-2.9999999999999997e-05,0.00011,2e-05,2
6323,6523,0.0,-2e-05,2e-05,-0.00026000000000000003,-9e-05,-2.9999999999999997e-05,0.00011,2e-05,2
6324,6524,0.0,-2e-05,2e-05,-0.00026000000000000003,-9e-05,-2.9999999999999997e-05,0.00011,2e-05,2
6325,6525,0.0,-2e-05,2e-05,-0.00026000000000000003,-9e-05,-2.9999999999999997e-05,0.00011,2e-05,2
6326,6526,0.0,-2e-05,2e-05,-0.00026000000000000003,-9e-05,-2.9999999999999997e-05,0.00011,2e-05,2
6327,6527,0.0,-2e-05,2e-05,-0.00026000000000000003,-9e-05,-2.9999999999999997e-05,0.00011,2e-05,2
6328,6528,0.0,-2e-05,2e-05,-0.00026000000000000003,-9e-05,-2.9999999999999997e-05,0.00011,2e-05,2
6329,6529,0.0,-2e-05,2e-05,-0.00026000000000000003,-9e-05,-2.9999999999999997e-05,0.00011,2e-05,2
6330,6530,0.0,-2e-05,2e-05,-0.00026000000000000003,-9e-05,-2.9999999999999997e-05,0.00011,2e-05,2
6331,6531,0.0,-2e-05,2e-05,-0.00026000000000000003,-9e-05,-2.9999999999999997e-05,0.00011,2e-05,2
6332,6532,0.0,-2e-05,2e-05,-0.00026000000000000003,-9e-05,-2.9999999999999997e-05,0.00011,2e-05,2
6333,6533,0.0,-2e-05,2e-05,-0.00026000000000000003,-9e-05,-2.9999999999999997e-05,0.00011,2e-05,2
6334,6534,0.0,-2e-05,2e-05,-0.00026000000000000003,-9e-05,-2.9999999999999997e-05,0.00011,2e-05,2
6335,6535,-2e-05,-2.9999999999999997e-05,1e-05,7e-05,-9e-05,-5.9999999999999995e-05,-2.9999999999999997e-05,8e-05,2
6336,6536,-2e-05,-2.9999999999999997e-05,1e-05,7e-05,-9e-05,-5.9999999999999995e-05,-2.9999999999999997e-05,8e-05,2
6337,6538,-8e-05,-0.00018,-5e-05,8e-05,0.0,4e-05,0.00041,-5e-05,2
6338,6539,-8e-05,-0.00018,-5e-05,8e-05,0.0,4e-05,0.00041,-5e-05,2
6339,6540,-8e-05,-0.00018,-5e-05,8e-05,0.0,4e-05,0.00041,-5e-05,2
6340,6541,-8e-05,-0.00018,-5e-05,8e-05,0.0,4e-05,0.00041,-5e-05,2
6341,6542,-8e-05,-0.00018,-5e-05,8e-05,0.0,4e-05,0.00041,-5e-05,2
6342,6543,-8e-05,-0.00018,-5e-05,8e-05,0.0,4e-05,0.00041,-5e-05,2
6343,6544,-8e-05,-0.00018,-5e-05,8e-05,0.0,4e-05,0.00041,-5e-05,2
6344,6545,-8e-05,-0.00018,-5e-05,8e-05,0.0,4e-05,0.00041,-5e-05,2
6345,6546,-8e-05,-0.00018,-5e-05,8e-05,0.0,4e-05,0.00041,-5e-05,2
6346,6547,-8e-05,-0.00018,-5e-05,8e-05,0.0,4e-05,0.00041,-5e-05,2
6347,6548,-8e-05,-0.00018,-5e-05,8e-05,0.0,4e-05,0.00041,-5e-05,2
6348,6549,0.0,7e-05,4e-05,0.00026000000000000003,8e-05,2.9999999999999997e-05,-0.00021,1e-05,2
6349,6550,0.0,7e-05,4e-05,0.00026000000000000003,8e-05,2.9999999999999997e-05,-0.00021,1e-05,2
6350,6551,0.0,7e-05,4e-05,0.00026000000000000003,8e-05,2.9999999999999997e-05,-0.00021,1e-05,2
6351,6552,0.0,7e-05,4e-05,0.00026000000000000003,8e-05,2.9999999999999997e-05,-0.00021,1e-05,2
6352,6553,0.0,7e-05,4e-05,0.00026000000000000003,8e-05,2.9999999999999997e-05,-0.00021,1e-05,2
6353,6554,0.0,7e-05,4e-05,0.00026000000000000003,8e-05,2.9999999999999997e-05,-0.00021,1e-05,2
6354,6555,0.0,7e-05,4e-05,0.00026000000000000003,8e-05,2.9999999999999997e-05,-0.00021,1e-05,2
6355,6556,4e-05,7e-05,7e-05,0.00016,-4e-05,-2e-05,-5e-05,4e-05,2
6356,6557,4e-05,7e-05,7e-05,0.00016,-4e-05,-2e-05,-5e-05,4e-05,2
6357,6558,4e-05,7e-05,7e-05,0.00016,-4e-05,-2e-05,-5e-05,4e-05,2
6358,6559,4e-05,7e-05,7e-05,0.00016,-4e-05,-2e-05,-5e-05,4e-05,2
6359,6560,4e-05,7e-05,7e-05,0.00016,-4e-05,-2e-05,-5e-05,4e-05,2
6360,6561,4e-05,7e-05,7e-05,0.00016,-4e-05,-2e-05,-5e-05,4e-05,2
6361,6562,4e-05,7e-05,7e-05,0.00016,-4e-05,-2e-05,-5e-05,4e-05,2
6362,6563,4e-05,7e-05,7e-05,0.00016,-4e-05,-2e-05,-5e-05,4e-05,2
6363,6564,4e-05,7e-05,7e-05,0.00016,-4e-05,-2e-05,-5e-05,4e-05,2
6364,6565,4e-05,7e-05,7e-05,0.00016,-4e-05,-2e-05,-5e-05,4e-05,2
6365,6566,4e-05,7e-05,7e-05,0.00016,-4e-05,-2e-05,-5e-05,4e-05,2
6366,6567,4e-05,7e-05,7e-05,0.00016,-4e-05,-2e-05,-5e-05,4e-05,2
6367,6568,4e-05,7e-05,7e-05,0.00016,-4e-05,-2e-05,-5e-05,4e-05,2
6368,6569,4e-05,7e-05,7e-05,0.00016,-4e-05,-2e-05,-5e-05,4e-05,2
6369,6570,4e-05,7e-05,7e-05,0.00016,-4e-05,-2e-05,-5e-05,4e-05,2
6370,6571,4e-05,7e-05,7e-05,0.00016,-4e-05,-2e-05,-5e-05,4e-05,2
6371,6572,-1e-05,-2.9999999999999997e-05,0.0,-8e-05,-5e-05,-5.9999999999999995e-05,-1e-05,-5.9999999999999995e-05,2
6372,6573,-1e-05,-2.9999999999999997e-05,0.0,-8e-05,-5e-05,-5.9999999999999995e-05,-1e-05,-5.9999999999999995e-05,2
6373,6574,0.0,-2e-05,-0.0001,-0.00018999999999999998,9e-05,-1e-05,-0.0002,-5.9999999999999995e-05,2
6374,6575,0.0,-2e-05,-0.0001,-0.00018999999999999998,9e-05,-1e-05,-0.0002,-5.9999999999999995e-05,2
6375,6576,0.0,-2e-05,-0.0001,-0.00018999999999999998,9e-05,-1e-05,-0.0002,-5.9999999999999995e-05,2
6376,6577,0.0,-2e-05,-0.0001,-0.00018999999999999998,9e-05,-1e-05,-0.0002,-5.9999999999999995e-05,2
6377,6578,0.0,-2e-05,-0.0001,-0.00018999999999999998,9e-05,-1e-05,-0.0002,-5.9999999999999995e-05,2
6378,6579,0.0,-2e-05,-0.0001,-0.00018999999999999998,9e-05,-1e-05,-0.0002,-5.9999999999999995e-05,2
6379,6580,0.0,-2e-05,-0.0001,-0.00018999999999999998,9e-05,-1e-05,-0.0002,-5.9999999999999995e-05,2
6380,6581,0.0,-2e-05,-0.0001,-0.00018999999999999998,9e-05,-1e-05,-0.0002,-5.9999999999999995e-05,2
6381,6582,0.0,-2e-05,-0.0001,-0.00018999999999999998,9e-05,-1e-05,-0.0002,-5.9999999999999995e-05,2
6382,6583,0.0,-2e-05,-0.0001,-0.00018999999999999998,9e-05,-1e-05,-0.0002,-5.9999999999999995e-05,2
6383,6584,0.0,-2e-05,-0.0001,-0.00018999999999999998,9e-05,-1e-05,-0.0002,-5.9999999999999995e-05,2
6384,6585,0.0,-2e-05,-0.0001,-0.00018999999999999998,9e-05,-1e-05,-0.0002,-5.9999999999999995e-05,2
6385,6586,0.0,-2e-05,-0.0001,-0.00018999999999999998,9e-05,-1e-05,-0.0002,-5.9999999999999995e-05,2
6386,6588,0.0,-2e-05,-0.0001,-0.00018999999999999998,9e-05,-1e-05,-0.0002,-5.9999999999999995e-05,2
6387,6589,0.0,-2e-05,-0.0001,-0.00018999999999999998,9e-05,-1e-05,-0.0002,-5.9999999999999995e-05,2
6388,6590,0.0,-2e-05,-0.0001,-0.00018999999999999998,9e-05,-1e-05,-0.0002,-5.9999999999999995e-05,2
6389,6591,0.0,-2e-05,-0.0001,-0.00018999999999999998,9e-05,-1e-05,-0.0002,-5.9999999999999995e-05,2
6390,6592,0.0,-2e-05,-0.0001,-0.00018999999999999998,9e-05,-1e-05,-0.0002,-5.9999999999999995e-05,2
6391,6593,0.0,-2e-05,-0.0001,-0.00018999999999999998,9e-05,-1e-05,-0.0002,-5.9999999999999995e-05,2
6392,6594,0.0,0.0001,5.9999999999999995e-05,9e-05,0.00011,4e-05,4e-05,0.0,2
6393,6595,4e-05,2.9999999999999997e-05,2e-05,-0.00018999999999999998,-8e-05,-7e-05,-0.00014,-2e-05,2
6394,6596,4e-05,2.9999999999999997e-05,2e-05,-0.00018999999999999998,-8e-05,-7e-05,-0.00014,-2e-05,2
6395,6597,4e-05,2.9999999999999997e-05,2e-05,-0.00018999999999999998,-8e-05,-7e-05,-0.00014,-2e-05,2
6396,6598,4e-05,2.9999999999999997e-05,2e-05,-0.00018999999999999998,-8e-05,-7e-05,-0.00014,-2e-05,2
6397,6599,4e-05,2.9999999999999997e-05,2e-05,-0.00018999999999999998,-8e-05,-7e-05,-0.00014,-2e-05,2
6398,6600,4e-05,2.9999999999999997e-05,2e-05,-0.00018999999999999998,-8e-05,-7e-05,-0.00014,-2e-05,2
6399,6601,4e-05,2.9999999999999997e-05,2e-05,-0.00018999999999999998,-8e-05,-7e-05,-0.00014,-2e-05,2
6400,6602,4e-05,2.9999999999999997e-05,2e-05,-0.00018999999999999998,-8e-05,-7e-05,-0.00014,-2e-05,2
6401,6603,4e-05,2.9999999999999997e-05,2e-05,-0.00018999999999999998,-8e-05,-7e-05,-0.00014,-2e-05,2
6402,6604,4e-05,2.9999999999999997e-05,2e-05,-0.00018999999999999998,-8e-05,-7e-05,-0.00014,-2e-05,2
6403,6605,4e-05,2.9999999999999997e-05,2e-05,-0.00018999999999999998,-8e-05,-7e-05,-0.00014,-2e-05,2
6404,6606,4e-05,2.9999999999999997e-05,2e-05,-0.00018999999999999998,-8e-05,-7e-05,-0.00014,-2e-05,2
6405,6607,4e-05,2.9999999999999997e-05,2e-05,-0.00018999999999999998,-8e-05,-7e-05,-0.00014,-2e-05,2
6406,6608,-0.00015,-0.00013000000000000002,-8e-05,0.0002,7e-05,-2e-05,-2e-05,-1e-05,2
6407,6609,0.0,-0.0001,0.0,2.9999999999999997e-05,2e-05,-5e-05,-1e-05,2e-05,2
6408,6610,0.0,-0.0001,0.0,2.9999999999999997e-05,2e-05,-5e-05,-1e-05,2e-05,2
6409,6611,0.0,-0.0001,0.0,2.9999999999999997e-05,2e-05,-5e-05,-1e-05,2e-05,2
6410,6612,0.0,-0.0001,0.0,2.9999999999999997e-05,2e-05,-5e-05,-1e-05,2e-05,2
6411,6613,0.0,-0.0001,0.0,2.9999999999999997e-05,2e-05,-5e-05,-1e-05,2e-05,2
6412,6614,0.0,-0.0001,0.0,2.9999999999999997e-05,2e-05,-5e-05,-1e-05,2e-05,2
6413,6615,0.0,-0.0001,0.0,2.9999999999999997e-05,2e-05,-5e-05,-1e-05,2e-05,2
6414,6616,0.0,-0.0001,0.0,2.9999999999999997e-05,2e-05,-5e-05,-1e-05,2e-05,2
6415,6617,1e-05,1e-05,-7e-05,-0.00023999999999999998,-1e-05,2e-05,-0.00015,0.0,2
6416,6618,1e-05,1e-05,-7e-05,-0.00023999999999999998,-1e-05,2e-05,-0.00015,0.0,2
6417,6619,1e-05,1e-05,-7e-05,-0.00023999999999999998,-1e-05,2e-05,-0.00015,0.0,2
6418,6620,1e-05,1e-05,-7e-05,-0.00023999999999999998,-1e-05,2e-05,-0.00015,0.0,2
6419,6621,1e-05,1e-05,-7e-05,-0.00023999999999999998,-1e-05,2e-05,-0.00015,0.0,2
6420,6622,1e-05,1e-05,-7e-05,-0.00023999999999999998,-1e-05,2e-05,-0.00015,0.0,2
6421,6623,1e-05,1e-05,-7e-05,-0.00023999999999999998,-1e-05,2e-05,-0.00015,0.0,2
6422,6624,1e-05,1e-05,-7e-05,-0.00023999999999999998,-1e-05,2e-05,-0.00015,0.0,2
6423,6625,1e-05,1e-05,-7e-05,-0.00023999999999999998,-1e-05,2e-05,-0.00015,0.0,2
6424,6626,1e-05,1e-05,-7e-05,-0.00023999999999999998,-1e-05,2e-05,-0.00015,0.0,2
6425,6627,1e-05,1e-05,-7e-05,-0.00023999999999999998,-1e-05,2e-05,-0.00015,0.0,2
6426,6628,1e-05,1e-05,-7e-05,-0.00023999999999999998,-1e-05,2e-05,-0.00015,0.0,2
6427,6629,1e-05,1e-05,-7e-05,-0.00023999999999999998,-1e-05,2e-05,-0.00015,0.0,2
6428,6630,1e-05,1e-05,-7e-05,-0.00023999999999999998,-1e-05,2e-05,-0.00015,0.0,2
6429,6631,1e-05,1e-05,-7e-05,-0.00023999999999999998,-1e-05,2e-05,-0.00015,0.0,2
6430,6632,0.00011,0.00014,-9e-05,0.00013000000000000002,7e-05,2.9999999999999997e-05,0.00013000000000000002,7e-05,2
6431,6633,-0.00011999999999999999,-0.00045999999999999996,-5e-05,-0.00047000000000000004,-0.0001,-2.9999999999999997e-05,-0.00022999999999999998,-0.00014,2
6432,6634,-0.00011999999999999999,-0.00045999999999999996,-5e-05,-0.00047000000000000004,-0.0001,-2.9999999999999997e-05,-0.00022999999999999998,-0.00014,2
6433,6635,-0.00011999999999999999,-0.00045999999999999996,-5e-05,-0.00047000000000000004,-0.0001,-2.9999999999999997e-05,-0.00022999999999999998,-0.00014,2
6434,6636,-0.00011999999999999999,-0.00045999999999999996,-5e-05,-0.00047000000000000004,-0.0001,-2.9999999999999997e-05,-0.00022999999999999998,-0.00014,2
6435,6638,-0.00011999999999999999,-0.00045999999999999996,-5e-05,-0.00047000000000000004,-0.0001,-2.9999999999999997e-05,-0.00022999999999999998,-0.00014,2
6436,6639,-0.00011999999999999999,-0.00045999999999999996,-5e-05,-0.00047000000000000004,-0.0001,-2.9999999999999997e-05,-0.00022999999999999998,-0.00014,2
6437,6640,-0.00011999999999999999,-0.00045999999999999996,-5e-05,-0.00047000000000000004,-0.0001,-2.9999999999999997e-05,-0.00022999999999999998,-0.00014,2
6438,6641,-0.00011999999999999999,-0.00045999999999999996,-5e-05,-0.00047000000000000004,-0.0001,-2.9999999999999997e-05,-0.00022999999999999998,-0.00014,2
6439,6642,-0.00011999999999999999,-0.00045999999999999996,-5e-05,-0.00047000000000000004,-0.0001,-2.9999999999999997e-05,-0.00022999999999999998,-0.00014,2
6440,6643,-0.00011999999999999999,-0.00045999999999999996,-5e-05,-0.00047000000000000004,-0.0001,-2.9999999999999997e-05,-0.00022999999999999998,-0.00014,2
6441,6644,-0.00011999999999999999,-0.00045999999999999996,-5e-05,-0.00047000000000000004,-0.0001,-2.9999999999999997e-05,-0.00022999999999999998,-0.00014,2
6442,6645,-0.00011999999999999999,-0.00045999999999999996,-5e-05,-0.00047000000000000004,-0.0001,-2.9999999999999997e-05,-0.00022999999999999998,-0.00014,2
6443,6646,-0.00011999999999999999,-0.00045999999999999996,-5e-05,-0.00047000000000000004,-0.0001,-2.9999999999999997e-05,-0.00022999999999999998,-0.00014,2
6444,6647,-0.00011999999999999999,-0.00045999999999999996,-5e-05,-0.00047000000000000004,-0.0001,-2.9999999999999997e-05,-0.00022999999999999998,-0.00014,2
6445,6648,-0.00011999999999999999,-0.00045999999999999996,-5e-05,-0.00047000000000000004,-0.0001,-2.9999999999999997e-05,-0.00022999999999999998,-0.00014,2
6446,6649,-0.00011999999999999999,-0.00045999999999999996,-5e-05,-0.00047000000000000004,-0.0001,-2.9999999999999997e-05,-0.00022999999999999998,-0.00014,2
6447,6650,-0.00011999999999999999,-0.00045999999999999996,-5e-05,-0.00047000000000000004,-0.0001,-2.9999999999999997e-05,-0.00022999999999999998,-0.00014,2
6448,6651,-0.00011999999999999999,-0.00045999999999999996,-5e-05,-0.00047000000000000004,-0.0001,-2.9999999999999997e-05,-0.00022999999999999998,-0.00014,2
6449,6652,-0.00011999999999999999,-0.00045999999999999996,-5e-05,-0.00047000000000000004,-0.0001,-2.9999999999999997e-05,-0.00022999999999999998,-0.00014,2
6450,6653,-0.00011999999999999999,-0.00045999999999999996,-5e-05,-0.00047000000000000004,-0.0001,-2.9999999999999997e-05,-0.00022999999999999998,-0.00014,2
6451,6654,0.0,-2e-05,-9e-05,-7e-05,-7e-05,-2.9999999999999997e-05,-0.00011999999999999999,-5e-05,2
6452,6655,0.0,0.00011999999999999999,5.9999999999999995e-05,0.00037999999999999997,1e-05,1e-05,0.00011,8e-05,2
6453,6656,0.0,0.00011999999999999999,5.9999999999999995e-05,0.00037999999999999997,1e-05,1e-05,0.00011,8e-05,2
6454,6657,0.0,0.00011999999999999999,5.9999999999999995e-05,0.00037999999999999997,1e-05,1e-05,0.00011,8e-05,2
6455,6658,0.0,0.00011999999999999999,5.9999999999999995e-05,0.00037999999999999997,1e-05,1e-05,0.00011,8e-05,2
6456,6659,0.0,0.00011999999999999999,5.9999999999999995e-05,0.00037999999999999997,1e-05,1e-05,0.00011,8e-05,2
6457,6660,0.0,0.00011999999999999999,5.9999999999999995e-05,0.00037999999999999997,1e-05,1e-05,0.00011,8e-05,2
6458,6661,0.0,0.00011999999999999999,5.9999999999999995e-05,0.00037999999999999997,1e-05,1e-05,0.00011,8e-05,2
6459,6662,0.0,0.00011999999999999999,5.9999999999999995e-05,0.00037999999999999997,1e-05,1e-05,0.00011,8e-05,2
6460,6663,0.0,0.00011999999999999999,5.9999999999999995e-05,0.00037999999999999997,1e-05,1e-05,0.00011,8e-05,2
6461,6664,0.0,0.00011999999999999999,5.9999999999999995e-05,0.00037999999999999997,1e-05,1e-05,0.00011,8e-05,2
6462,6665,0.0,0.00011999999999999999,5.9999999999999995e-05,0.00037999999999999997,1e-05,1e-05,0.00011,8e-05,2
6463,6666,0.0,0.00011999999999999999,5.9999999999999995e-05,0.00037999999999999997,1e-05,1e-05,0.00011,8e-05,2
6464,6667,0.0,0.00011999999999999999,5.9999999999999995e-05,0.00037999999999999997,1e-05,1e-05,0.00011,8e-05,2
6465,6668,0.0,0.00011999999999999999,5.9999999999999995e-05,0.00037999999999999997,1e-05,1e-05,0.00011,8e-05,2
6466,6669,5e-05,5e-05,2e-05,0.0001,0.00016999999999999999,0.00011999999999999999,-7e-05,-2.9999999999999997e-05,2
6467,6670,5e-05,5e-05,2e-05,0.0001,0.00016999999999999999,0.00011999999999999999,-7e-05,-2.9999999999999997e-05,2
6468,6671,5e-05,5e-05,2e-05,0.0001,0.00016999999999999999,0.00011999999999999999,-7e-05,-2.9999999999999997e-05,2
6469,6672,5e-05,5e-05,2e-05,0.0001,0.00016999999999999999,0.00011999999999999999,-7e-05,-2.9999999999999997e-05,2
6470,6673,5e-05,5e-05,2e-05,0.0001,0.00016999999999999999,0.00011999999999999999,-7e-05,-2.9999999999999997e-05,2
6471,6674,5e-05,5e-05,2e-05,0.0001,0.00016999999999999999,0.00011999999999999999,-7e-05,-2.9999999999999997e-05,2
6472,6675,5e-05,5e-05,2e-05,0.0001,0.00016999999999999999,0.00011999999999999999,-7e-05,-2.9999999999999997e-05,2
6473,6676,5e-05,5e-05,2e-05,0.0001,0.00016999999999999999,0.00011999999999999999,-7e-05,-2.9999999999999997e-05,2
6474,6677,2.9999999999999997e-05,9e-05,-2e-05,1e-05,-4e-05,-2e-05,7e-05,2e-05,2
6475,6678,2.9999999999999997e-05,9e-05,-2e-05,1e-05,-4e-05,-2e-05,7e-05,2e-05,2
6476,6679,2.9999999999999997e-05,9e-05,-2e-05,1e-05,-4e-05,-2e-05,7e-05,2e-05,2
6477,6680,2.9999999999999997e-05,9e-05,-2e-05,1e-05,-4e-05,-2e-05,7e-05,2e-05,2
6478,6681,2.9999999999999997e-05,9e-05,-2e-05,1e-05,-4e-05,-2e-05,7e-05,2e-05,2
6479,6682,2.9999999999999997e-05,9e-05,-2e-05,1e-05,-4e-05,-2e-05,7e-05,2e-05,2
6480,6683,2.9999999999999997e-05,9e-05,-2e-05,1e-05,-4e-05,-2e-05,7e-05,2e-05,2
6481,6684,2.9999999999999997e-05,9e-05,-2e-05,1e-05,-4e-05,-2e-05,7e-05,2e-05,2
6482,6685,2.9999999999999997e-05,9e-05,-2e-05,1e-05,-4e-05,-2e-05,7e-05,2e-05,2
6483,6686,2.9999999999999997e-05,9e-05,-2e-05,1e-05,-4e-05,-2e-05,7e-05,2e-05,2
6484,6688,2.9999999999999997e-05,9e-05,-2e-05,1e-05,-4e-05,-2e-05,7e-05,2e-05,2
6485,6689,2.9999999999999997e-05,9e-05,-2e-05,1e-05,-4e-05,-2e-05,7e-05,2e-05,2
6486,6690,2.9999999999999997e-05,9e-05,-2e-05,1e-05,-4e-05,-2e-05,7e-05,2e-05,2
6487,6691,2.9999999999999997e-05,9e-05,-2e-05,1e-05,-4e-05,-2e-05,7e-05,2e-05,2
6488,6692,-0.0001,-7e-05,4e-05,8e-05,0.0,0.0,-8e-05,-1e-05,2
6489,6693,0.00011,0.00011999999999999999,2.9999999999999997e-05,5.9999999999999995e-05,-2.9999999999999997e-05,-5e-05,-0.00011,-4e-05,2
6490,6694,0.00011,0.00011999999999999999,2.9999999999999997e-05,5.9999999999999995e-05,-2.9999999999999997e-05,-5e-05,-0.00011,-4e-05,2
6491,6695,0.00011,0.00011999999999999999,2.9999999999999997e-05,5.9999999999999995e-05,-2.9999999999999997e-05,-5e-05,-0.00011,-4e-05,2
6492,6696,0.00011,0.00011999999999999999,2.9999999999999997e-05,5.9999999999999995e-05,-2.9999999999999997e-05,-5e-05,-0.00011,-4e-05,2
6493,6697,0.00011,0.00011999999999999999,2.9999999999999997e-05,5.9999999999999995e-05,-2.9999999999999997e-05,-5e-05,-0.00011,-4e-05,2
6494,6698,0.00011,0.00011999999999999999,2.9999999999999997e-05,5.9999999999999995e-05,-2.9999999999999997e-05,-5e-05,-0.00011,-4e-05,2
6495,6699,0.00011,0.00011999999999999999,2.9999999999999997e-05,5.9999999999999995e-05,-2.9999999999999997e-05,-5e-05,-0.00011,-4e-05,2
6496,6700,0.00011,0.00011999999999999999,2.9999999999999997e-05,5.9999999999999995e-05,-2.9999999999999997e-05,-5e-05,-0.00011,-4e-05,2
6497,6701,0.00011,0.00011999999999999999,2.9999999999999997e-05,5.9999999999999995e-05,-2.9999999999999997e-05,-5e-05,-0.00011,-4e-05,2
6498,6702,0.00011,0.00011999999999999999,2.9999999999999997e-05,5.9999999999999995e-05,-2.9999999999999997e-05,-5e-05,-0.00011,-4e-05,2
6499,6703,0.00011,0.00011999999999999999,2.9999999999999997e-05,5.9999999999999995e-05,-2.9999999999999997e-05,-5e-05,-0.00011,-4e-05,2
6500,6704,0.00011,0.00011999999999999999,2.9999999999999997e-05,5.9999999999999995e-05,-2.9999999999999997e-05,-5e-05,-0.00011,-4e-05,2
6501,6705,0.00011,0.00011999999999999999,2.9999999999999997e-05,5.9999999999999995e-05,-2.9999999999999997e-05,-5e-05,-0.00011,-4e-05,2
6502,6706,0.00011,0.00011999999999999999,2.9999999999999997e-05,5.9999999999999995e-05,-2.9999999999999997e-05,-5e-05,-0.00011,-4e-05,2
6503,6707,0.00011,0.00011999999999999999,2.9999999999999997e-05,5.9999999999999995e-05,-2.9999999999999997e-05,-5e-05,-0.00011,-4e-05,2
6504,6708,0.00011,0.00011999999999999999,2.9999999999999997e-05,5.9999999999999995e-05,-2.9999999999999997e-05,-5e-05,-0.00011,-4e-05,2
6505,6709,0.00011,0.00011999999999999999,2.9999999999999997e-05,5.9999999999999995e-05,-2.9999999999999997e-05,-5e-05,-0.00011,-4e-05,2
6506,6710,0.00011,0.00011999999999999999,2.9999999999999997e-05,5.9999999999999995e-05,-2.9999999999999997e-05,-5e-05,-0.00011,-4e-05,2
6507,6711,0.00011,0.00011999999999999999,2.9999999999999997e-05,5.9999999999999995e-05,-2.9999999999999997e-05,-5e-05,-0.00011,-4e-05,2
6508,6712,0.00011,0.00011999999999999999,2.9999999999999997e-05,5.9999999999999995e-05,-2.9999999999999997e-05,-5e-05,-0.00011,-4e-05,2
6509,6713,0.00011,0.00011999999999999999,2.9999999999999997e-05,5.9999999999999995e-05,-2.9999999999999997e-05,-5e-05,-0.00011,-4e-05,2
6510,6714,-5.9999999999999995e-05,-2.9999999999999997e-05,-4e-05,-2e-05,-2.9999999999999997e-05,0.0,0.00056,7e-05,2
6511,6715,1e-05,4e-05,2.9999999999999997e-05,4e-05,8e-05,0.0,0.00018,-1e-05,2
6512,6716,-5.9999999999999995e-05,9e-05,-9e-05,-0.00015,-8e-05,2.9999999999999997e-05,0.00011999999999999999,5e-05,2
6513,6717,-5.9999999999999995e-05,9e-05,-9e-05,-0.00015,-8e-05,2.9999999999999997e-05,0.00011999999999999999,5e-05,2
6514,6718,-5.9999999999999995e-05,9e-05,-9e-05,-0.00015,-8e-05,2.9999999999999997e-05,0.00011999999999999999,5e-05,2
6515,6719,-5.9999999999999995e-05,9e-05,-9e-05,-0.00015,-8e-05,2.9999999999999997e-05,0.00011999999999999999,5e-05,2
6516,6720,-5.9999999999999995e-05,9e-05,-9e-05,-0.00015,-8e-05,2.9999999999999997e-05,0.00011999999999999999,5e-05,2
6517,6721,-5.9999999999999995e-05,9e-05,-9e-05,-0.00015,-8e-05,2.9999999999999997e-05,0.00011999999999999999,5e-05,2
6518,6722,-5.9999999999999995e-05,9e-05,-9e-05,-0.00015,-8e-05,2.9999999999999997e-05,0.00011999999999999999,5e-05,2
6519,6723,-5.9999999999999995e-05,9e-05,-9e-05,-0.00015,-8e-05,2.9999999999999997e-05,0.00011999999999999999,5e-05,2
6520,6724,-5.9999999999999995e-05,9e-05,-9e-05,-0.00015,-8e-05,2.9999999999999997e-05,0.00011999999999999999,5e-05,2
6521,6725,-5.9999999999999995e-05,9e-05,-9e-05,-0.00015,-8e-05,2.9999999999999997e-05,0.00011999999999999999,5e-05,2
6522,6726,-5.9999999999999995e-05,9e-05,-9e-05,-0.00015,-8e-05,2.9999999999999997e-05,0.00011999999999999999,5e-05,2
6523,6727,-5.9999999999999995e-05,9e-05,-9e-05,-0.00015,-8e-05,2.9999999999999997e-05,0.00011999999999999999,5e-05,2
6524,6728,-5.9999999999999995e-05,9e-05,-9e-05,-0.00015,-8e-05,2.9999999999999997e-05,0.00011999999999999999,5e-05,2
6525,6729,-7e-05,-2e-05,2e-05,0.00011999999999999999,2e-05,-0.00011,-0.00015,-8e-05,2
6526,6730,-7e-05,-2e-05,2e-05,0.00011999999999999999,2e-05,-0.00011,-0.00015,-8e-05,2
6527,6731,-7e-05,-2e-05,2e-05,0.00011999999999999999,2e-05,-0.00011,-0.00015,-8e-05,2
6528,6732,-7e-05,-2e-05,2e-05,0.00011999999999999999,2e-05,-0.00011,-0.00015,-8e-05,2
6529,6733,-7e-05,-2e-05,2e-05,0.00011999999999999999,2e-05,-0.00011,-0.00015,-8e-05,2
6530,6734,-7e-05,-2e-05,2e-05,0.00011999999999999999,2e-05,-0.00011,-0.00015,-8e-05,2
6531,6735,-7e-05,-2e-05,2e-05,0.00011999999999999999,2e-05,-0.00011,-0.00015,-8e-05,2
6532,6736,-7e-05,-2e-05,2e-05,0.00011999999999999999,2e-05,-0.00011,-0.00015,-8e-05,2
6533,6738,5.9999999999999995e-05,7e-05,2.9999999999999997e-05,0.00014,8e-05,-7e-05,-2e-05,2e-05,2
6534,6739,5.9999999999999995e-05,7e-05,2.9999999999999997e-05,0.00014,8e-05,-7e-05,-2e-05,2e-05,2
6535,6740,5.9999999999999995e-05,7e-05,2.9999999999999997e-05,0.00014,8e-05,-7e-05,-2e-05,2e-05,2
6536,6741,5.9999999999999995e-05,7e-05,2.9999999999999997e-05,0.00014,8e-05,-7e-05,-2e-05,2e-05,2
6537,6742,5.9999999999999995e-05,7e-05,2.9999999999999997e-05,0.00014,8e-05,-7e-05,-2e-05,2e-05,2
6538,6743,5.9999999999999995e-05,7e-05,2.9999999999999997e-05,0.00014,8e-05,-7e-05,-2e-05,2e-05,2
6539,6744,5.9999999999999995e-05,7e-05,2.9999999999999997e-05,0.00014,8e-05,-7e-05,-2e-05,2e-05,2
6540,6745,5.9999999999999995e-05,7e-05,2.9999999999999997e-05,0.00014,8e-05,-7e-05,-2e-05,2e-05,2
6541,6746,5.9999999999999995e-05,7e-05,2.9999999999999997e-05,0.00014,8e-05,-7e-05,-2e-05,2e-05,2
6542,6747,5.9999999999999995e-05,7e-05,2.9999999999999997e-05,0.00014,8e-05,-7e-05,-2e-05,2e-05,2
6543,6748,5.9999999999999995e-05,7e-05,2.9999999999999997e-05,0.00014,8e-05,-7e-05,-2e-05,2e-05,2
6544,6749,5.9999999999999995e-05,7e-05,2.9999999999999997e-05,0.00014,8e-05,-7e-05,-2e-05,2e-05,2
6545,6750,5.9999999999999995e-05,7e-05,2.9999999999999997e-05,0.00014,8e-05,-7e-05,-2e-05,2e-05,2
6546,6751,5.9999999999999995e-05,7e-05,2.9999999999999997e-05,0.00014,8e-05,-7e-05,-2e-05,2e-05,2
6547,6752,-2e-05,-0.00031,4e-05,0.00013000000000000002,0.00011999999999999999,-5e-05,-0.0001,-8e-05,2
6548,6753,0.0,1e-05,-5e-05,-0.00018999999999999998,-5.9999999999999995e-05,1e-05,0.00011,1e-05,2
6549,6754,0.0,1e-05,-5e-05,-0.00018999999999999998,-5.9999999999999995e-05,1e-05,0.00011,1e-05,2
6550,6755,0.0,1e-05,-5e-05,-0.00018999999999999998,-5.9999999999999995e-05,1e-05,0.00011,1e-05,2
6551,6756,0.0,1e-05,-5e-05,-0.00018999999999999998,-5.9999999999999995e-05,1e-05,0.00011,1e-05,2
6552,6757,0.0,1e-05,-5e-05,-0.00018999999999999998,-5.9999999999999995e-05,1e-05,0.00011,1e-05,2
6553,6758,0.0,1e-05,-5e-05,-0.00018999999999999998,-5.9999999999999995e-05,1e-05,0.00011,1e-05,2
6554,6759,0.0,1e-05,-5e-05,-0.00018999999999999998,-5.9999999999999995e-05,1e-05,0.00011,1e-05,2
6555,6760,0.0,1e-05,-5e-05,-0.00018999999999999998,-5.9999999999999995e-05,1e-05,0.00011,1e-05,2
6556,6761,0.0,1e-05,-5e-05,-0.00018999999999999998,-5.9999999999999995e-05,1e-05,0.00011,1e-05,2
6557,6762,0.0,1e-05,-5e-05,-0.00018999999999999998,-5.9999999999999995e-05,1e-05,0.00011,1e-05,2
6558,6763,0.0,1e-05,-5e-05,-0.00018999999999999998,-5.9999999999999995e-05,1e-05,0.00011,1e-05,2
6559,6764,0.0,1e-05,-5e-05,-0.00018999999999999998,-5.9999999999999995e-05,1e-05,0.00011,1e-05,2
6560,6765,0.0,1e-05,-5e-05,-0.00018999999999999998,-5.9999999999999995e-05,1e-05,0.00011,1e-05,2
6561,6766,0.0,1e-05,-5e-05,-0.00018999999999999998,-5.9999999999999995e-05,1e-05,0.00011,1e-05,2
6562,6767,0.0,1e-05,-5e-05,-0.00018999999999999998,-5.9999999999999995e-05,1e-05,0.00011,1e-05,2
6563,6768,0.0,1e-05,-5e-05,-0.00018999999999999998,-5.9999999999999995e-05,1e-05,0.00011,1e-05,2
6564,6769,0.0,1e-05,-5e-05,-0.00018999999999999998,-5.9999999999999995e-05,1e-05,0.00011,1e-05,2
6565,6770,0.0,1e-05,-5e-05,-0.00018999999999999998,-5.9999999999999995e-05,1e-05,0.00011,1e-05,2
6566,6771,0.0,1e-05,-5e-05,-0.00018999999999999998,-5.9999999999999995e-05,1e-05,0.00011,1e-05,2
6567,6772,0.0,1e-05,-5e-05,-0.00018999999999999998,-5.9999999999999995e-05,1e-05,0.00011,1e-05,2
6568,6773,0.0,1e-05,-5e-05,-0.00018999999999999998,-5.9999999999999995e-05,1e-05,0.00011,1e-05,2
6569,6774,1e-05,5e-05,2e-05,-0.00025,5.9999999999999995e-05,2.9999999999999997e-05,-7e-05,-5.9999999999999995e-05,2
6570,6775,2e-05,-5e-05,5e-05,0.00011999999999999999,-7e-05,0.00011999999999999999,0.00013000000000000002,5e-05,2
6571,6776,2e-05,-5e-05,5e-05,0.00011999999999999999,-7e-05,0.00011999999999999999,0.00013000000000000002,5e-05,2
6572,6777,2e-05,-5e-05,5e-05,0.00011999999999999999,-7e-05,0.00011999999999999999,0.00013000000000000002,5e-05,2
6573,6778,2e-05,-5e-05,5e-05,0.00011999999999999999,-7e-05,0.00011999999999999999,0.00013000000000000002,5e-05,2
6574,6779,2e-05,-5e-05,5e-05,0.00011999999999999999,-7e-05,0.00011999999999999999,0.00013000000000000002,5e-05,2
6575,6780,2e-05,-5e-05,5e-05,0.00011999999999999999,-7e-05,0.00011999999999999999,0.00013000000000000002,5e-05,2
6576,6781,2e-05,-5e-05,5e-05,0.00011999999999999999,-7e-05,0.00011999999999999999,0.00013000000000000002,5e-05,2
6577,6782,2e-05,-5e-05,5e-05,0.00011999999999999999,-7e-05,0.00011999999999999999,0.00013000000000000002,5e-05,2
6578,6783,2e-05,-5e-05,5e-05,0.00011999999999999999,-7e-05,0.00011999999999999999,0.00013000000000000002,5e-05,2
6579,6784,2e-05,-5e-05,5e-05,0.00011999999999999999,-7e-05,0.00011999999999999999,0.00013000000000000002,5e-05,2
6580,6785,2e-05,-5e-05,5e-05,0.00011999999999999999,-7e-05,0.00011999999999999999,0.00013000000000000002,5e-05,2
6581,6786,2e-05,-5e-05,5e-05,0.00011999999999999999,-7e-05,0.00011999999999999999,0.00013000000000000002,5e-05,2
6582,6788,2e-05,-5e-05,5e-05,0.00011999999999999999,-7e-05,0.00011999999999999999,0.00013000000000000002,5e-05,2
6583,6789,-2e-05,-2e-05,4e-05,0.00018999999999999998,5e-05,2e-05,-4e-05,0.0,2
6584,6790,-5.9999999999999995e-05,-1e-05,2.9999999999999997e-05,0.00018999999999999998,-1e-05,-2.9999999999999997e-05,8e-05,1e-05,2
6585,6791,-5.9999999999999995e-05,-1e-05,2.9999999999999997e-05,0.00018999999999999998,-1e-05,-2.9999999999999997e-05,8e-05,1e-05,2
6586,6792,-5.9999999999999995e-05,-1e-05,2.9999999999999997e-05,0.00018999999999999998,-1e-05,-2.9999999999999997e-05,8e-05,1e-05,2
6587,6793,-5.9999999999999995e-05,-1e-05,2.9999999999999997e-05,0.00018999999999999998,-1e-05,-2.9999999999999997e-05,8e-05,1e-05,2
6588,6794,-5.9999999999999995e-05,-1e-05,2.9999999999999997e-05,0.00018999999999999998,-1e-05,-2.9999999999999997e-05,8e-05,1e-05,2
6589,6795,-5.9999999999999995e-05,-1e-05,2.9999999999999997e-05,0.00018999999999999998,-1e-05,-2.9999999999999997e-05,8e-05,1e-05,2
6590,6796,-5.9999999999999995e-05,-1e-05,2.9999999999999997e-05,0.00018999999999999998,-1e-05,-2.9999999999999997e-05,8e-05,1e-05,2
6591,6797,-5.9999999999999995e-05,-1e-05,2.9999999999999997e-05,0.00018999999999999998,-1e-05,-2.9999999999999997e-05,8e-05,1e-05,2
6592,6798,-5.9999999999999995e-05,-1e-05,2.9999999999999997e-05,0.00018999999999999998,-1e-05,-2.9999999999999997e-05,8e-05,1e-05,2
6593,6799,-5.9999999999999995e-05,-1e-05,2.9999999999999997e-05,0.00018999999999999998,-1e-05,-2.9999999999999997e-05,8e-05,1e-05,2
6594,6800,-5.9999999999999995e-05,-1e-05,2.9999999999999997e-05,0.00018999999999999998,-1e-05,-2.9999999999999997e-05,8e-05,1e-05,2
6595,6801,-5.9999999999999995e-05,-1e-05,2.9999999999999997e-05,0.00018999999999999998,-1e-05,-2.9999999999999997e-05,8e-05,1e-05,2
6596,6802,-5.9999999999999995e-05,-1e-05,2.9999999999999997e-05,0.00018999999999999998,-1e-05,-2.9999999999999997e-05,8e-05,1e-05,2
6597,6803,-5.9999999999999995e-05,-1e-05,2.9999999999999997e-05,0.00018999999999999998,-1e-05,-2.9999999999999997e-05,8e-05,1e-05,2
6598,6804,-5.9999999999999995e-05,-1e-05,2.9999999999999997e-05,0.00018999999999999998,-1e-05,-2.9999999999999997e-05,8e-05,1e-05,2
6599,6805,-5.9999999999999995e-05,-1e-05,2.9999999999999997e-05,0.00018999999999999998,-1e-05,-2.9999999999999997e-05,8e-05,1e-05,2
6600,6806,-5.9999999999999995e-05,-1e-05,2.9999999999999997e-05,0.00018999999999999998,-1e-05,-2.9999999999999997e-05,8e-05,1e-05,2
6601,6807,-5.9999999999999995e-05,-1e-05,2.9999999999999997e-05,0.00018999999999999998,-1e-05,-2.9999999999999997e-05,8e-05,1e-05,2
6602,6808,-5.9999999999999995e-05,-1e-05,2.9999999999999997e-05,0.00018999999999999998,-1e-05,-2.9999999999999997e-05,8e-05,1e-05,2
6603,6809,-5.9999999999999995e-05,-1e-05,2.9999999999999997e-05,0.00018999999999999998,-1e-05,-2.9999999999999997e-05,8e-05,1e-05,2
6604,6810,-5.9999999999999995e-05,-1e-05,2.9999999999999997e-05,0.00018999999999999998,-1e-05,-2.9999999999999997e-05,8e-05,1e-05,2
6605,6811,-5.9999999999999995e-05,-1e-05,2.9999999999999997e-05,0.00018999999999999998,-1e-05,-2.9999999999999997e-05,8e-05,1e-05,2
6606,6812,-4e-05,0.0,-0.00011,-0.00013000000000000002,-5e-05,-2e-05,-0.00011,-5e-05,2
6607,6813,-0.00011999999999999999,-0.00013000000000000002,-7e-05,-0.00021,1e-05,-1e-05,-1e-05,-7e-05,2
6608,6814,-0.00011999999999999999,-0.00013000000000000002,-7e-05,-0.00021,1e-05,-1e-05,-1e-05,-7e-05,2
6609,6816,-0.00011999999999999999,-0.00013000000000000002,-7e-05,-0.00021,1e-05,-1e-05,-1e-05,-7e-05,2
6610,6817,-0.00011999999999999999,-0.00013000000000000002,-7e-05,-0.00021,1e-05,-1e-05,-1e-05,-7e-05,2
6611,6818,-0.00011999999999999999,-0.00013000000000000002,-7e-05,-0.00021,1e-05,-1e-05,-1e-05,-7e-05,2
6612,6819,-0.00011999999999999999,-0.00013000000000000002,-7e-05,-0.00021,1e-05,-1e-05,-1e-05,-7e-05,2
6613,6820,-0.00011999999999999999,-0.00013000000000000002,-7e-05,-0.00021,1e-05,-1e-05,-1e-05,-7e-05,2
6614,6821,-0.00011999999999999999,-0.00013000000000000002,-7e-05,-0.00021,1e-05,-1e-05,-1e-05,-7e-05,2
6615,6822,-0.00011999999999999999,-0.00013000000000000002,-7e-05,-0.00021,1e-05,-1e-05,-1e-05,-7e-05,2
6616,6823,-0.00011999999999999999,-0.00013000000000000002,-7e-05,-0.00021,1e-05,-1e-05,-1e-05,-7e-05,2
6617,6824,-0.00011999999999999999,-0.00013000000000000002,-7e-05,-0.00021,1e-05,-1e-05,-1e-05,-7e-05,2
6618,6825,-0.00011999999999999999,-0.00013000000000000002,-7e-05,-0.00021,1e-05,-1e-05,-1e-05,-7e-05,2
6619,6826,-0.00011999999999999999,-0.00013000000000000002,-7e-05,-0.00021,1e-05,-1e-05,-1e-05,-7e-05,2
6620,6827,-0.00011999999999999999,-0.00013000000000000002,-7e-05,-0.00021,1e-05,-1e-05,-1e-05,-7e-05,2
6621,6828,-0.00011999999999999999,-0.00013000000000000002,-7e-05,-0.00021,1e-05,-1e-05,-1e-05,-7e-05,2
6622,6829,-0.00011999999999999999,-0.00013000000000000002,-7e-05,-0.00021,1e-05,-1e-05,-1e-05,-7e-05,2
6623,6830,-0.00011999999999999999,-0.00013000000000000002,-7e-05,-0.00021,1e-05,-1e-05,-1e-05,-7e-05,2
6624,6831,-0.00011999999999999999,-0.00013000000000000002,-7e-05,-0.00021,1e-05,-1e-05,-1e-05,-7e-05,2
6625,6832,-0.00011999999999999999,-0.00013000000000000002,-7e-05,-0.00021,1e-05,-1e-05,-1e-05,-7e-05,2
6626,6833,-0.00011999999999999999,-0.00013000000000000002,-7e-05,-0.00021,1e-05,-1e-05,-1e-05,-7e-05,2
6627,6834,1e-05,4e-05,7e-05,0.00011,-2.9999999999999997e-05,-8e-05,-0.0002,-4e-05,2
6628,6835,2e-05,-0.0001,-8e-05,-4e-05,-7e-05,0.0,-0.0002,-1e-05,2
6629,6836,2e-05,-0.0001,-8e-05,-4e-05,-7e-05,0.0,-0.0002,-1e-05,2
6630,6838,2e-05,-0.0001,-8e-05,-4e-05,-7e-05,0.0,-0.0002,-1e-05,2
6631,6839,2e-05,-0.0001,-8e-05,-4e-05,-7e-05,0.0,-0.0002,-1e-05,2
6632,6840,2e-05,-0.0001,-8e-05,-4e-05,-7e-05,0.0,-0.0002,-1e-05,2
6633,6841,2e-05,-0.0001,-8e-05,-4e-05,-7e-05,0.0,-0.0002,-1e-05,2
6634,6842,2e-05,-0.0001,-8e-05,-4e-05,-7e-05,0.0,-0.0002,-1e-05,2
6635,6843,2e-05,-0.0001,-8e-05,-4e-05,-7e-05,0.0,-0.0002,-1e-05,2
6636,6844,2e-05,-0.0001,-8e-05,-4e-05,-7e-05,0.0,-0.0002,-1e-05,2
6637,6845,2e-05,-0.0001,-8e-05,-4e-05,-7e-05,0.0,-0.0002,-1e-05,2
6638,6846,2e-05,-0.0001,-8e-05,-4e-05,-7e-05,0.0,-0.0002,-1e-05,2
6639,6847,2e-05,-0.0001,-8e-05,-4e-05,-7e-05,0.0,-0.0002,-1e-05,2
6640,6848,2e-05,-0.0001,-8e-05,-4e-05,-7e-05,0.0,-0.0002,-1e-05,2
6641,6849,0.0,-2e-05,-7e-05,-0.0002,-2e-05,7e-05,0.00011999999999999999,2e-05,2
6642,6850,5e-05,5e-05,2e-05,-0.00022,-2.9999999999999997e-05,-5e-05,-7e-05,5e-05,2
6643,6851,5e-05,5e-05,2e-05,-0.00022,-2.9999999999999997e-05,-5e-05,-7e-05,5e-05,2
6644,6852,5e-05,5e-05,2e-05,-0.00022,-2.9999999999999997e-05,-5e-05,-7e-05,5e-05,2
6645,6853,5e-05,5e-05,2e-05,-0.00022,-2.9999999999999997e-05,-5e-05,-7e-05,5e-05,2
6646,6854,5e-05,5e-05,2e-05,-0.00022,-2.9999999999999997e-05,-5e-05,-7e-05,5e-05,2
6647,6855,5e-05,5e-05,2e-05,-0.00022,-2.9999999999999997e-05,-5e-05,-7e-05,5e-05,2
6648,6856,5e-05,5e-05,2e-05,-0.00022,-2.9999999999999997e-05,-5e-05,-7e-05,5e-05,2
6649,6857,5e-05,5e-05,2e-05,-0.00022,-2.9999999999999997e-05,-5e-05,-7e-05,5e-05,2
6650,6858,5e-05,5e-05,2e-05,-0.00022,-2.9999999999999997e-05,-5e-05,-7e-05,5e-05,2
6651,6859,5e-05,5e-05,2e-05,-0.00022,-2.9999999999999997e-05,-5e-05,-7e-05,5e-05,2
6652,6860,5e-05,5e-05,2e-05,-0.00022,-2.9999999999999997e-05,-5e-05,-7e-05,5e-05,2
6653,6861,5e-05,5e-05,2e-05,-0.00022,-2.9999999999999997e-05,-5e-05,-7e-05,5e-05,2
6654,6862,5e-05,5e-05,2e-05,-0.00022,-2.9999999999999997e-05,-5e-05,-7e-05,5e-05,2
6655,6863,5e-05,5e-05,2e-05,-0.00022,-2.9999999999999997e-05,-5e-05,-7e-05,5e-05,2
6656,6864,5e-05,5e-05,2e-05,-0.00022,-2.9999999999999997e-05,-5e-05,-7e-05,5e-05,2
6657,6865,5e-05,5e-05,2e-05,-0.00022,-2.9999999999999997e-05,-5e-05,-7e-05,5e-05,2
6658,6866,5e-05,5e-05,2e-05,-0.00022,-2.9999999999999997e-05,-5e-05,-7e-05,5e-05,2
6659,6867,5e-05,5e-05,2e-05,-0.00022,-2.9999999999999997e-05,-5e-05,-7e-05,5e-05,2
6660,6868,5e-05,5e-05,2e-05,-0.00022,-2.9999999999999997e-05,-5e-05,-7e-05,5e-05,2
6661,6869,5e-05,5e-05,2e-05,-0.00022,-2.9999999999999997e-05,-5e-05,-7e-05,5e-05,2
6662,6870,5e-05,5e-05,2e-05,-0.00022,-2.9999999999999997e-05,-5e-05,-7e-05,5e-05,2
6663,6871,5e-05,5e-05,2e-05,-0.00022,-2.9999999999999997e-05,-5e-05,-7e-05,5e-05,2
6664,6872,-7e-05,9e-05,9e-05,0.00035,7e-05,1e-05,0.00011999999999999999,5.9999999999999995e-05,2
6665,6873,-7e-05,9e-05,9e-05,0.00035,7e-05,1e-05,0.00011999999999999999,5.9999999999999995e-05,2
6666,6874,-7e-05,9e-05,9e-05,0.00035,7e-05,1e-05,0.00011999999999999999,5.9999999999999995e-05,2
6667,6875,-7e-05,9e-05,9e-05,0.00035,7e-05,1e-05,0.00011999999999999999,5.9999999999999995e-05,2
6668,6876,-7e-05,9e-05,9e-05,0.00035,7e-05,1e-05,0.00011999999999999999,5.9999999999999995e-05,2
6669,6877,-7e-05,9e-05,9e-05,0.00035,7e-05,1e-05,0.00011999999999999999,5.9999999999999995e-05,2
6670,6878,-7e-05,9e-05,9e-05,0.00035,7e-05,1e-05,0.00011999999999999999,5.9999999999999995e-05,2
6671,6879,-7e-05,9e-05,9e-05,0.00035,7e-05,1e-05,0.00011999999999999999,5.9999999999999995e-05,2
6672,6880,-7e-05,9e-05,9e-05,0.00035,7e-05,1e-05,0.00011999999999999999,5.9999999999999995e-05,2
6673,6881,-7e-05,9e-05,9e-05,0.00035,7e-05,1e-05,0.00011999999999999999,5.9999999999999995e-05,2
6674,6882,-7e-05,9e-05,9e-05,0.00035,7e-05,1e-05,0.00011999999999999999,5.9999999999999995e-05,2
6675,6883,-7e-05,9e-05,9e-05,0.00035,7e-05,1e-05,0.00011999999999999999,5.9999999999999995e-05,2
6676,6884,-7e-05,9e-05,9e-05,0.00035,7e-05,1e-05,0.00011999999999999999,5.9999999999999995e-05,2
6677,6885,-7e-05,9e-05,9e-05,0.00035,7e-05,1e-05,0.00011999999999999999,5.9999999999999995e-05,2
6678,6886,-7e-05,9e-05,9e-05,0.00035,7e-05,1e-05,0.00011999999999999999,5.9999999999999995e-05,2
6679,6888,-7e-05,9e-05,9e-05,0.00035,7e-05,1e-05,0.00011999999999999999,5.9999999999999995e-05,2
6680,6889,-7e-05,9e-05,9e-05,0.00035,7e-05,1e-05,0.00011999999999999999,5.9999999999999995e-05,2
6681,6890,-7e-05,9e-05,9e-05,0.00035,7e-05,1e-05,0.00011999999999999999,5.9999999999999995e-05,2
6682,6891,-7e-05,9e-05,9e-05,0.00035,7e-05,1e-05,0.00011999999999999999,5.9999999999999995e-05,2
6683,6892,-7e-05,9e-05,9e-05,0.00035,7e-05,1e-05,0.00011999999999999999,5.9999999999999995e-05,2
6684,6893,-7e-05,9e-05,9e-05,0.00035,7e-05,1e-05,0.00011999999999999999,5.9999999999999995e-05,2
6685,6894,-5.9999999999999995e-05,-5.9999999999999995e-05,-7e-05,-0.0001,1e-05,-8e-05,-0.00028,-8e-05,2
6686,6895,-1e-05,0.0001,0.0,8e-05,1e-05,-2e-05,-2e-05,0.0,2
6687,6896,-1e-05,0.0001,0.0,8e-05,1e-05,-2e-05,-2e-05,0.0,2
6688,6897,-1e-05,0.0001,0.0,8e-05,1e-05,-2e-05,-2e-05,0.0,2
6689,6898,-1e-05,0.0001,0.0,8e-05,1e-05,-2e-05,-2e-05,0.0,2
6690,6899,-1e-05,0.0001,0.0,8e-05,1e-05,-2e-05,-2e-05,0.0,2
6691,6900,-1e-05,0.0001,0.0,8e-05,1e-05,-2e-05,-2e-05,0.0,2
6692,6901,-1e-05,0.0001,0.0,8e-05,1e-05,-2e-05,-2e-05,0.0,2
6693,6902,-1e-05,0.0001,0.0,8e-05,1e-05,-2e-05,-2e-05,0.0,2
6694,6903,-1e-05,0.0001,0.0,8e-05,1e-05,-2e-05,-2e-05,0.0,2
6695,6904,-1e-05,0.0001,0.0,8e-05,1e-05,-2e-05,-2e-05,0.0,2
6696,6905,-1e-05,0.0001,0.0,8e-05,1e-05,-2e-05,-2e-05,0.0,2
6697,6906,-1e-05,0.0001,0.0,8e-05,1e-05,-2e-05,-2e-05,0.0,2
6698,6907,-1e-05,0.0001,0.0,8e-05,1e-05,-2e-05,-2e-05,0.0,2
6699,6908,-1e-05,0.0001,0.0,8e-05,1e-05,-2e-05,-2e-05,0.0,2
6700,6909,0.00014,0.00011999999999999999,-0.00011999999999999999,-0.00027,-1e-05,0.0001,0.00066,2e-05,2
6701,6910,4e-05,2.9999999999999997e-05,2.9999999999999997e-05,-5e-05,-7e-05,-5.9999999999999995e-05,0.00011999999999999999,-4e-05,2
6702,6911,4e-05,2.9999999999999997e-05,2.9999999999999997e-05,-5e-05,-7e-05,-5.9999999999999995e-05,0.00011999999999999999,-4e-05,2
6703,6912,4e-05,2.9999999999999997e-05,2.9999999999999997e-05,-5e-05,-7e-05,-5.9999999999999995e-05,0.00011999999999999999,-4e-05,2
6704,6913,4e-05,2.9999999999999997e-05,2.9999999999999997e-05,-5e-05,-7e-05,-5.9999999999999995e-05,0.00011999999999999999,-4e-05,2
6705,6914,4e-05,2.9999999999999997e-05,2.9999999999999997e-05,-5e-05,-7e-05,-5.9999999999999995e-05,0.00011999999999999999,-4e-05,2
6706,6915,4e-05,2.9999999999999997e-05,2.9999999999999997e-05,-5e-05,-7e-05,-5.9999999999999995e-05,0.00011999999999999999,-4e-05,2
6707,6916,4e-05,2.9999999999999997e-05,2.9999999999999997e-05,-5e-05,-7e-05,-5.9999999999999995e-05,0.00011999999999999999,-4e-05,2
6708,6917,4e-05,2.9999999999999997e-05,2.9999999999999997e-05,-5e-05,-7e-05,-5.9999999999999995e-05,0.00011999999999999999,-4e-05,2
6709,6918,4e-05,2.9999999999999997e-05,2.9999999999999997e-05,-5e-05,-7e-05,-5.9999999999999995e-05,0.00011999999999999999,-4e-05,2
6710,6919,4e-05,2.9999999999999997e-05,2.9999999999999997e-05,-5e-05,-7e-05,-5.9999999999999995e-05,0.00011999999999999999,-4e-05,2
6711,6920,4e-05,2.9999999999999997e-05,2.9999999999999997e-05,-5e-05,-7e-05,-5.9999999999999995e-05,0.00011999999999999999,-4e-05,2
6712,6921,4e-05,2.9999999999999997e-05,2.9999999999999997e-05,-5e-05,-7e-05,-5.9999999999999995e-05,0.00011999999999999999,-4e-05,2
6713,6922,4e-05,2.9999999999999997e-05,2.9999999999999997e-05,-5e-05,-7e-05,-5.9999999999999995e-05,0.00011999999999999999,-4e-05,2
6714,6923,4e-05,2.9999999999999997e-05,2.9999999999999997e-05,-5e-05,-7e-05,-5.9999999999999995e-05,0.00011999999999999999,-4e-05,2
6715,6924,4e-05,2.9999999999999997e-05,2.9999999999999997e-05,-5e-05,-7e-05,-5.9999999999999995e-05,0.00011999999999999999,-4e-05,2
6716,6925,4e-05,2.9999999999999997e-05,2.9999999999999997e-05,-5e-05,-7e-05,-5.9999999999999995e-05,0.00011999999999999999,-4e-05,2
6717,6926,4e-05,2.9999999999999997e-05,2.9999999999999997e-05,-5e-05,-7e-05,-5.9999999999999995e-05,0.00011999999999999999,-4e-05,2
6718,6927,4e-05,2.9999999999999997e-05,2.9999999999999997e-05,-5e-05,-7e-05,-5.9999999999999995e-05,0.00011999999999999999,-4e-05,2
6719,6928,4e-05,2.9999999999999997e-05,2.9999999999999997e-05,-5e-05,-7e-05,-5.9999999999999995e-05,0.00011999999999999999,-4e-05,2
6720,6929,4e-05,2.9999999999999997e-05,2.9999999999999997e-05,-5e-05,-7e-05,-5.9999999999999995e-05,0.00011999999999999999,-4e-05,2
6721,6930,4e-05,2.9999999999999997e-05,2.9999999999999997e-05,-5e-05,-7e-05,-5.9999999999999995e-05,0.00011999999999999999,-4e-05,2
6722,6931,4e-05,2.9999999999999997e-05,2.9999999999999997e-05,-5e-05,-7e-05,-5.9999999999999995e-05,0.00011999999999999999,-4e-05,2
6723,6932,-1e-05,-5e-05,-8e-05,-0.00045,-0.0001,-2e-05,-0.00014,2e-05,2
6724,6933,-5.9999999999999995e-05,-0.00025,-9e-05,-4e-05,-4e-05,-2.9999999999999997e-05,-0.00011,-2e-05,2
6725,6934,-5.9999999999999995e-05,-0.00025,-9e-05,-4e-05,-4e-05,-2.9999999999999997e-05,-0.00011,-2e-05,2
6726,6935,-5.9999999999999995e-05,-0.00025,-9e-05,-4e-05,-4e-05,-2.9999999999999997e-05,-0.00011,-2e-05,2
6727,6936,-5.9999999999999995e-05,-0.00025,-9e-05,-4e-05,-4e-05,-2.9999999999999997e-05,-0.00011,-2e-05,2
6728,6938,-5.9999999999999995e-05,-0.00025,-9e-05,-4e-05,-4e-05,-2.9999999999999997e-05,-0.00011,-2e-05,2
6729,6939,-5.9999999999999995e-05,-0.00025,-9e-05,-4e-05,-4e-05,-2.9999999999999997e-05,-0.00011,-2e-05,2
6730,6940,-5.9999999999999995e-05,-0.00025,-9e-05,-4e-05,-4e-05,-2.9999999999999997e-05,-0.00011,-2e-05,2
6731,6941,-5.9999999999999995e-05,-0.00025,-9e-05,-4e-05,-4e-05,-2.9999999999999997e-05,-0.00011,-2e-05,2
6732,6942,-5.9999999999999995e-05,-0.00025,-9e-05,-4e-05,-4e-05,-2.9999999999999997e-05,-0.00011,-2e-05,2
6733,6943,-5.9999999999999995e-05,-0.00025,-9e-05,-4e-05,-4e-05,-2.9999999999999997e-05,-0.00011,-2e-05,2
6734,6944,-5.9999999999999995e-05,-0.00025,-9e-05,-4e-05,-4e-05,-2.9999999999999997e-05,-0.00011,-2e-05,2
6735,6945,-5.9999999999999995e-05,-0.00025,-9e-05,-4e-05,-4e-05,-2.9999999999999997e-05,-0.00011,-2e-05,2
6736,6946,-5.9999999999999995e-05,-0.00025,-9e-05,-4e-05,-4e-05,-2.9999999999999997e-05,-0.00011,-2e-05,2
6737,6947,-5.9999999999999995e-05,-0.00025,-9e-05,-4e-05,-4e-05,-2.9999999999999997e-05,-0.00011,-2e-05,2
6738,6948,-5.9999999999999995e-05,-0.00025,-9e-05,-4e-05,-4e-05,-2.9999999999999997e-05,-0.00011,-2e-05,2
6739,6949,-5.9999999999999995e-05,-0.00025,-9e-05,-4e-05,-4e-05,-2.9999999999999997e-05,-0.00011,-2e-05,2
6740,6950,-5.9999999999999995e-05,-0.00025,-9e-05,-4e-05,-4e-05,-2.9999999999999997e-05,-0.00011,-2e-05,2
6741,6951,-5.9999999999999995e-05,-0.00025,-9e-05,-4e-05,-4e-05,-2.9999999999999997e-05,-0.00011,-2e-05,2
6742,6952,-5.9999999999999995e-05,-0.00025,-9e-05,-4e-05,-4e-05,-2.9999999999999997e-05,-0.00011,-2e-05,2
6743,6953,-5.9999999999999995e-05,-0.00025,-9e-05,-4e-05,-4e-05,-2.9999999999999997e-05,-0.00011,-2e-05,2
6744,6954,-2.9999999999999997e-05,0.0,0.00016999999999999999,0.00045,0.0,-5.9999999999999995e-05,5e-05,-1e-05,2
6745,6955,0.0,4e-05,0.0,-2.9999999999999997e-05,7e-05,2.9999999999999997e-05,-7e-05,0.0,2
6746,6956,0.0,4e-05,0.0,-2.9999999999999997e-05,7e-05,2.9999999999999997e-05,-7e-05,0.0,2
6747,6957,0.0,4e-05,0.0,-2.9999999999999997e-05,7e-05,2.9999999999999997e-05,-7e-05,0.0,2
6748,6958,0.0,4e-05,0.0,-2.9999999999999997e-05,7e-05,2.9999999999999997e-05,-7e-05,0.0,2
6749,6959,0.0,4e-05,0.0,-2.9999999999999997e-05,7e-05,2.9999999999999997e-05,-7e-05,0.0,2
6750,6960,0.0,4e-05,0.0,-2.9999999999999997e-05,7e-05,2.9999999999999997e-05,-7e-05,0.0,2
6751,6961,0.0,4e-05,0.0,-2.9999999999999997e-05,7e-05,2.9999999999999997e-05,-7e-05,0.0,2
6752,6962,0.0,4e-05,0.0,-2.9999999999999997e-05,7e-05,2.9999999999999997e-05,-7e-05,0.0,2
6753,6963,0.0,4e-05,0.0,-2.9999999999999997e-05,7e-05,2.9999999999999997e-05,-7e-05,0.0,2
6754,6964,0.0,4e-05,0.0,-2.9999999999999997e-05,7e-05,2.9999999999999997e-05,-7e-05,0.0,2
6755,6965,0.0,4e-05,0.0,-2.9999999999999997e-05,7e-05,2.9999999999999997e-05,-7e-05,0.0,2
6756,6966,0.0,4e-05,0.0,-2.9999999999999997e-05,7e-05,2.9999999999999997e-05,-7e-05,0.0,2
6757,6967,0.0,4e-05,0.0,-2.9999999999999997e-05,7e-05,2.9999999999999997e-05,-7e-05,0.0,2
6758,6968,0.0,4e-05,0.0,-2.9999999999999997e-05,7e-05,2.9999999999999997e-05,-7e-05,0.0,2
6759,6969,5.9999999999999995e-05,2.9999999999999997e-05,2e-05,0.00014,-2.9999999999999997e-05,-2.9999999999999997e-05,0.00022999999999999998,4e-05,2
6760,6970,5.9999999999999995e-05,2.9999999999999997e-05,2e-05,0.00014,-2.9999999999999997e-05,-2.9999999999999997e-05,0.00022999999999999998,4e-05,2
6761,6971,5.9999999999999995e-05,2.9999999999999997e-05,2e-05,0.00014,-2.9999999999999997e-05,-2.9999999999999997e-05,0.00022999999999999998,4e-05,2
6762,6972,5.9999999999999995e-05,2.9999999999999997e-05,2e-05,0.00014,-2.9999999999999997e-05,-2.9999999999999997e-05,0.00022999999999999998,4e-05,2
6763,6973,5.9999999999999995e-05,2.9999999999999997e-05,2e-05,0.00014,-2.9999999999999997e-05,-2.9999999999999997e-05,0.00022999999999999998,4e-05,2
6764,6974,5.9999999999999995e-05,2.9999999999999997e-05,2e-05,0.00014,-2.9999999999999997e-05,-2.9999999999999997e-05,0.00022999999999999998,4e-05,2
6765,6975,5.9999999999999995e-05,2.9999999999999997e-05,2e-05,0.00014,-2.9999999999999997e-05,-2.9999999999999997e-05,0.00022999999999999998,4e-05,2
6766,6976,5.9999999999999995e-05,2.9999999999999997e-05,2e-05,0.00014,-2.9999999999999997e-05,-2.9999999999999997e-05,0.00022999999999999998,4e-05,2
6767,6977,2.9999999999999997e-05,7e-05,0.0,0.00011999999999999999,-4e-05,-9e-05,-0.00018,-8e-05,2
6768,6978,2.9999999999999997e-05,7e-05,0.0,0.00011999999999999999,-4e-05,-9e-05,-0.00018,-8e-05,2
6769,6979,2.9999999999999997e-05,7e-05,0.0,0.00011999999999999999,-4e-05,-9e-05,-0.00018,-8e-05,2
6770,6980,2.9999999999999997e-05,7e-05,0.0,0.00011999999999999999,-4e-05,-9e-05,-0.00018,-8e-05,2
6771,6981,2.9999999999999997e-05,7e-05,0.0,0.00011999999999999999,-4e-05,-9e-05,-0.00018,-8e-05,2
6772,6982,2.9999999999999997e-05,7e-05,0.0,0.00011999999999999999,-4e-05,-9e-05,-0.00018,-8e-05,2
6773,6983,2.9999999999999997e-05,7e-05,0.0,0.00011999999999999999,-4e-05,-9e-05,-0.00018,-8e-05,2
6774,6984,2.9999999999999997e-05,7e-05,0.0,0.00011999999999999999,-4e-05,-9e-05,-0.00018,-8e-05,2
6775,6985,2.9999999999999997e-05,7e-05,0.0,0.00011999999999999999,-4e-05,-9e-05,-0.00018,-8e-05,2
6776,6986,2.9999999999999997e-05,7e-05,0.0,0.00011999999999999999,-4e-05,-9e-05,-0.00018,-8e-05,2
6777,6988,2.9999999999999997e-05,7e-05,0.0,0.00011999999999999999,-4e-05,-9e-05,-0.00018,-8e-05,2
6778,6989,2.9999999999999997e-05,7e-05,0.0,0.00011999999999999999,-4e-05,-9e-05,-0.00018,-8e-05,2
6779,6990,2.9999999999999997e-05,7e-05,0.0,0.00011999999999999999,-4e-05,-9e-05,-0.00018,-8e-05,2
6780,6991,2.9999999999999997e-05,7e-05,0.0,0.00011999999999999999,-4e-05,-9e-05,-0.00018,-8e-05,2
6781,6992,8e-05,5e-05,-2.9999999999999997e-05,-0.00018,-2.9999999999999997e-05,4e-05,0.00018,0.0001,2
6782,6993,8e-05,5e-05,-2.9999999999999997e-05,-0.00018,-2.9999999999999997e-05,4e-05,0.00018,0.0001,2
6783,6994,8e-05,5e-05,-2.9999999999999997e-05,-0.00018,-2.9999999999999997e-05,4e-05,0.00018,0.0001,2
6784,6995,8e-05,5e-05,-2.9999999999999997e-05,-0.00018,-2.9999999999999997e-05,4e-05,0.00018,0.0001,2
6785,6996,8e-05,5e-05,-2.9999999999999997e-05,-0.00018,-2.9999999999999997e-05,4e-05,0.00018,0.0001,2
6786,6997,8e-05,5e-05,-2.9999999999999997e-05,-0.00018,-2.9999999999999997e-05,4e-05,0.00018,0.0001,2
6787,6998,8e-05,5e-05,-2.9999999999999997e-05,-0.00018,-2.9999999999999997e-05,4e-05,0.00018,0.0001,2
6788,6999,8e-05,5e-05,-2.9999999999999997e-05,-0.00018,-2.9999999999999997e-05,4e-05,0.00018,0.0001,2
6789,7000,8e-05,5e-05,-2.9999999999999997e-05,-0.00018,-2.9999999999999997e-05,4e-05,0.00018,0.0001,2
6790,7001,8e-05,5e-05,-2.9999999999999997e-05,-0.00018,-2.9999999999999997e-05,4e-05,0.00018,0.0001,2
6791,7002,8e-05,5e-05,-2.9999999999999997e-05,-0.00018,-2.9999999999999997e-05,4e-05,0.00018,0.0001,2
6792,7003,8e-05,5e-05,-2.9999999999999997e-05,-0.00018,-2.9999999999999997e-05,4e-05,0.00018,0.0001,2
6793,7004,8e-05,5e-05,-2.9999999999999997e-05,-0.00018,-2.9999999999999997e-05,4e-05,0.00018,0.0001,2
6794,7005,8e-05,5e-05,-2.9999999999999997e-05,-0.00018,-2.9999999999999997e-05,4e-05,0.00018,0.0001,2
6795,7006,8e-05,5e-05,-2.9999999999999997e-05,-0.00018,-2.9999999999999997e-05,4e-05,0.00018,0.0001,2
6796,7007,8e-05,5e-05,-2.9999999999999997e-05,-0.00018,-2.9999999999999997e-05,4e-05,0.00018,0.0001,2
6797,7008,8e-05,5e-05,-2.9999999999999997e-05,-0.00018,-2.9999999999999997e-05,4e-05,0.00018,0.0001,2
6798,7009,8e-05,5e-05,-2.9999999999999997e-05,-0.00018,-2.9999999999999997e-05,4e-05,0.00018,0.0001,2
6799,7010,8e-05,5e-05,-2.9999999999999997e-05,-0.00018,-2.9999999999999997e-05,4e-05,0.00018,0.0001,2
6800,7011,8e-05,5e-05,-2.9999999999999997e-05,-0.00018,-2.9999999999999997e-05,4e-05,0.00018,0.0001,2
6801,7012,8e-05,5e-05,-2.9999999999999997e-05,-0.00018,-2.9999999999999997e-05,4e-05,0.00018,0.0001,2
6802,7013,8e-05,5e-05,-2.9999999999999997e-05,-0.00018,-2.9999999999999997e-05,4e-05,0.00018,0.0001,2
6803,7014,-5.9999999999999995e-05,-0.0001,1e-05,0.00016999999999999999,-5.9999999999999995e-05,-7e-05,-0.00016999999999999999,-2.9999999999999997e-05,2
6804,7015,-5.9999999999999995e-05,-0.0001,1e-05,0.00016999999999999999,-5.9999999999999995e-05,-7e-05,-0.00016999999999999999,-2.9999999999999997e-05,2
6805,7016,2e-05,2e-05,7e-05,0.0002,2.9999999999999997e-05,-7e-05,-2e-05,5e-05,2
6806,7018,-0.00011,-4e-05,-9e-05,2.9999999999999997e-05,-1e-05,2e-05,-4e-05,-2e-05,2
6807,7019,-0.00011,-4e-05,-9e-05,2.9999999999999997e-05,-1e-05,2e-05,-4e-05,-2e-05,2
6808,7020,-0.00011,-4e-05,-9e-05,2.9999999999999997e-05,-1e-05,2e-05,-4e-05,-2e-05,2
6809,7021,-0.00011,-4e-05,-9e-05,2.9999999999999997e-05,-1e-05,2e-05,-4e-05,-2e-05,2
6810,7022,-0.00011,-4e-05,-9e-05,2.9999999999999997e-05,-1e-05,2e-05,-4e-05,-2e-05,2
6811,7023,-0.00011,-4e-05,-9e-05,2.9999999999999997e-05,-1e-05,2e-05,-4e-05,-2e-05,2
6812,7024,-0.00011,-4e-05,-9e-05,2.9999999999999997e-05,-1e-05,2e-05,-4e-05,-2e-05,2
6813,7025,-0.00011,-4e-05,-9e-05,2.9999999999999997e-05,-1e-05,2e-05,-4e-05,-2e-05,2
6814,7026,-0.00011,-4e-05,-9e-05,2.9999999999999997e-05,-1e-05,2e-05,-4e-05,-2e-05,2
6815,7027,-0.00011,-4e-05,-9e-05,2.9999999999999997e-05,-1e-05,2e-05,-4e-05,-2e-05,2
6816,7028,-0.00011,-4e-05,-9e-05,2.9999999999999997e-05,-1e-05,2e-05,-4e-05,-2e-05,2
6817,7029,-7e-05,-7e-05,-1e-05,0.00016,9e-05,2e-05,5e-05,-2e-05,2
6818,7030,-7e-05,-7e-05,-1e-05,0.00016,9e-05,2e-05,5e-05,-2e-05,2
6819,7031,-7e-05,-7e-05,-1e-05,0.00016,9e-05,2e-05,5e-05,-2e-05,2
6820,7032,-7e-05,-7e-05,-1e-05,0.00016,9e-05,2e-05,5e-05,-2e-05,2
6821,7033,-7e-05,-7e-05,-1e-05,0.00016,9e-05,2e-05,5e-05,-2e-05,2
6822,7034,-7e-05,-7e-05,-1e-05,0.00016,9e-05,2e-05,5e-05,-2e-05,2
6823,7035,-7e-05,-7e-05,-1e-05,0.00016,9e-05,2e-05,5e-05,-2e-05,2
6824,7036,-7e-05,-7e-05,-1e-05,0.00016,9e-05,2e-05,5e-05,-2e-05,2
6825,7038,2e-05,0.0,8e-05,9e-05,-2.9999999999999997e-05,-5.9999999999999995e-05,1e-05,-7e-05,2
6826,7039,2e-05,0.0,8e-05,9e-05,-2.9999999999999997e-05,-5.9999999999999995e-05,1e-05,-7e-05,2
6827,7040,2e-05,0.0,8e-05,9e-05,-2.9999999999999997e-05,-5.9999999999999995e-05,1e-05,-7e-05,2
6828,7041,2e-05,0.0,8e-05,9e-05,-2.9999999999999997e-05,-5.9999999999999995e-05,1e-05,-7e-05,2
6829,7042,2e-05,0.0,8e-05,9e-05,-2.9999999999999997e-05,-5.9999999999999995e-05,1e-05,-7e-05,2
6830,7043,2e-05,0.0,8e-05,9e-05,-2.9999999999999997e-05,-5.9999999999999995e-05,1e-05,-7e-05,2
6831,7044,2e-05,0.0,8e-05,9e-05,-2.9999999999999997e-05,-5.9999999999999995e-05,1e-05,-7e-05,2
6832,7045,2e-05,0.0,8e-05,9e-05,-2.9999999999999997e-05,-5.9999999999999995e-05,1e-05,-7e-05,2
6833,7046,2e-05,0.0,8e-05,9e-05,-2.9999999999999997e-05,-5.9999999999999995e-05,1e-05,-7e-05,2
6834,7047,2e-05,0.0,8e-05,9e-05,-2.9999999999999997e-05,-5.9999999999999995e-05,1e-05,-7e-05,2
6835,7048,2e-05,0.0,8e-05,9e-05,-2.9999999999999997e-05,-5.9999999999999995e-05,1e-05,-7e-05,2
6836,7049,2e-05,0.0,8e-05,9e-05,-2.9999999999999997e-05,-5.9999999999999995e-05,1e-05,-7e-05,2
6837,7050,2e-05,0.0,8e-05,9e-05,-2.9999999999999997e-05,-5.9999999999999995e-05,1e-05,-7e-05,2
6838,7051,2e-05,0.0,8e-05,9e-05,-2.9999999999999997e-05,-5.9999999999999995e-05,1e-05,-7e-05,2
6839,7052,-9e-05,8e-05,-9e-05,-0.00054,-9e-05,-1e-05,-0.00028,-0.00016999999999999999,2
6840,7053,-9e-05,8e-05,-9e-05,-0.00054,-9e-05,-1e-05,-0.00028,-0.00016999999999999999,2
6841,7054,-9e-05,8e-05,-9e-05,-0.00054,-9e-05,-1e-05,-0.00028,-0.00016999999999999999,2
6842,7055,-9e-05,8e-05,-9e-05,-0.00054,-9e-05,-1e-05,-0.00028,-0.00016999999999999999,2
6843,7056,-9e-05,8e-05,-9e-05,-0.00054,-9e-05,-1e-05,-0.00028,-0.00016999999999999999,2
6844,7057,-9e-05,8e-05,-9e-05,-0.00054,-9e-05,-1e-05,-0.00028,-0.00016999999999999999,2
6845,7058,-9e-05,8e-05,-9e-05,-0.00054,-9e-05,-1e-05,-0.00028,-0.00016999999999999999,2
6846,7059,-9e-05,8e-05,-9e-05,-0.00054,-9e-05,-1e-05,-0.00028,-0.00016999999999999999,2
6847,7060,-9e-05,8e-05,-9e-05,-0.00054,-9e-05,-1e-05,-0.00028,-0.00016999999999999999,2
6848,7061,-9e-05,8e-05,-9e-05,-0.00054,-9e-05,-1e-05,-0.00028,-0.00016999999999999999,2
6849,7062,-9e-05,8e-05,-9e-05,-0.00054,-9e-05,-1e-05,-0.00028,-0.00016999999999999999,2
6850,7063,-9e-05,8e-05,-9e-05,-0.00054,-9e-05,-1e-05,-0.00028,-0.00016999999999999999,2
6851,7064,-9e-05,8e-05,-9e-05,-0.00054,-9e-05,-1e-05,-0.00028,-0.00016999999999999999,2
6852,7065,-9e-05,8e-05,-9e-05,-0.00054,-9e-05,-1e-05,-0.00028,-0.00016999999999999999,2
6853,7066,-9e-05,8e-05,-9e-05,-0.00054,-9e-05,-1e-05,-0.00028,-0.00016999999999999999,2
6854,7068,-9e-05,8e-05,-9e-05,-0.00054,-9e-05,-1e-05,-0.00028,-0.00016999999999999999,2
6855,7069,-9e-05,8e-05,-9e-05,-0.00054,-9e-05,-1e-05,-0.00028,-0.00016999999999999999,2
6856,7070,-9e-05,8e-05,-9e-05,-0.00054,-9e-05,-1e-05,-0.00028,-0.00016999999999999999,2
6857,7071,-9e-05,8e-05,-9e-05,-0.00054,-9e-05,-1e-05,-0.00028,-0.00016999999999999999,2
6858,7072,-9e-05,8e-05,-9e-05,-0.00054,-9e-05,-1e-05,-0.00028,-0.00016999999999999999,2
6859,7073,-9e-05,8e-05,-9e-05,-0.00054,-9e-05,-1e-05,-0.00028,-0.00016999999999999999,2
6860,7074,-0.00013000000000000002,0.0,-5e-05,5.9999999999999995e-05,-2e-05,0.0,-0.00029,-0.00014,2
6861,7075,0.00016999999999999999,7e-05,0.0,0.00013000000000000002,2e-05,-5e-05,-0.00013000000000000002,-4e-05,2
6862,7076,0.00016999999999999999,7e-05,0.0,0.00013000000000000002,2e-05,-5e-05,-0.00013000000000000002,-4e-05,2
6863,7077,0.00016999999999999999,7e-05,0.0,0.00013000000000000002,2e-05,-5e-05,-0.00013000000000000002,-4e-05,2
6864,7078,0.00016999999999999999,7e-05,0.0,0.00013000000000000002,2e-05,-5e-05,-0.00013000000000000002,-4e-05,2
6865,7079,0.00016999999999999999,7e-05,0.0,0.00013000000000000002,2e-05,-5e-05,-0.00013000000000000002,-4e-05,2
6866,7080,0.00016999999999999999,7e-05,0.0,0.00013000000000000002,2e-05,-5e-05,-0.00013000000000000002,-4e-05,2
6867,7081,0.00016999999999999999,7e-05,0.0,0.00013000000000000002,2e-05,-5e-05,-0.00013000000000000002,-4e-05,2
6868,7082,0.00016999999999999999,7e-05,0.0,0.00013000000000000002,2e-05,-5e-05,-0.00013000000000000002,-4e-05,2
6869,7083,0.00016999999999999999,7e-05,0.0,0.00013000000000000002,2e-05,-5e-05,-0.00013000000000000002,-4e-05,2
6870,7084,0.00016999999999999999,7e-05,0.0,0.00013000000000000002,2e-05,-5e-05,-0.00013000000000000002,-4e-05,2
6871,7085,0.00016999999999999999,7e-05,0.0,0.00013000000000000002,2e-05,-5e-05,-0.00013000000000000002,-4e-05,2
6872,7086,0.00016999999999999999,7e-05,0.0,0.00013000000000000002,2e-05,-5e-05,-0.00013000000000000002,-4e-05,2
6873,7088,-2e-05,5.9999999999999995e-05,5.9999999999999995e-05,4e-05,0.0,1e-05,-0.00018,-5.9999999999999995e-05,2
6874,7089,-1e-05,-8e-05,-7e-05,-9e-05,2e-05,0.0,0.00016,2.9999999999999997e-05,2
6875,7090,-1e-05,-8e-05,-7e-05,-9e-05,2e-05,0.0,0.00016,2.9999999999999997e-05,2
6876,7091,-1e-05,-8e-05,-7e-05,-9e-05,2e-05,0.0,0.00016,2.9999999999999997e-05,2
6877,7092,-1e-05,-8e-05,-7e-05,-9e-05,2e-05,0.0,0.00016,2.9999999999999997e-05,2
6878,7093,-1e-05,-8e-05,-7e-05,-9e-05,2e-05,0.0,0.00016,2.9999999999999997e-05,2
6879,7094,-1e-05,-8e-05,-7e-05,-9e-05,2e-05,0.0,0.00016,2.9999999999999997e-05,2
6880,7095,-1e-05,-8e-05,-7e-05,-9e-05,2e-05,0.0,0.00016,2.9999999999999997e-05,2
6881,7096,-1e-05,-8e-05,-7e-05,-9e-05,2e-05,0.0,0.00016,2.9999999999999997e-05,2
6882,7097,-2e-05,-5.9999999999999995e-05,0.0,-0.00022999999999999998,-2e-05,5.9999999999999995e-05,-0.0001,0.0,2
6883,7098,-2e-05,-5.9999999999999995e-05,0.0,-0.00022999999999999998,-2e-05,5.9999999999999995e-05,-0.0001,0.0,2
6884,7099,-2e-05,-5.9999999999999995e-05,0.0,-0.00022999999999999998,-2e-05,5.9999999999999995e-05,-0.0001,0.0,2
6885,7100,-2e-05,-5.9999999999999995e-05,0.0,-0.00022999999999999998,-2e-05,5.9999999999999995e-05,-0.0001,0.0,2
6886,7101,-2e-05,-5.9999999999999995e-05,0.0,-0.00022999999999999998,-2e-05,5.9999999999999995e-05,-0.0001,0.0,2
6887,7102,-2e-05,-5.9999999999999995e-05,0.0,-0.00022999999999999998,-2e-05,5.9999999999999995e-05,-0.0001,0.0,2
6888,7103,-2e-05,-5.9999999999999995e-05,0.0,-0.00022999999999999998,-2e-05,5.9999999999999995e-05,-0.0001,0.0,2
6889,7104,-2e-05,-5.9999999999999995e-05,0.0,-0.00022999999999999998,-2e-05,5.9999999999999995e-05,-0.0001,0.0,2
6890,7105,-2e-05,-5.9999999999999995e-05,0.0,-0.00022999999999999998,-2e-05,5.9999999999999995e-05,-0.0001,0.0,2
6891,7106,-2e-05,-5.9999999999999995e-05,0.0,-0.00022999999999999998,-2e-05,5.9999999999999995e-05,-0.0001,0.0,2
6892,7107,-2e-05,-5.9999999999999995e-05,0.0,-0.00022999999999999998,-2e-05,5.9999999999999995e-05,-0.0001,0.0,2
6893,7108,-2e-05,-5.9999999999999995e-05,0.0,-0.00022999999999999998,-2e-05,5.9999999999999995e-05,-0.0001,0.0,2
6894,7109,-2e-05,-5.9999999999999995e-05,0.0,-0.00022999999999999998,-2e-05,5.9999999999999995e-05,-0.0001,0.0,2
6895,7110,-2e-05,-5.9999999999999995e-05,0.0,-0.00022999999999999998,-2e-05,5.9999999999999995e-05,-0.0001,0.0,2
6896,7111,-2e-05,-5.9999999999999995e-05,0.0,-0.00022999999999999998,-2e-05,5.9999999999999995e-05,-0.0001,0.0,2
6897,7112,1e-05,2.9999999999999997e-05,5.9999999999999995e-05,0.00022999999999999998,0.00015,-5e-05,-5e-05,5e-05,2
6898,7113,-7e-05,-5e-05,1e-05,8e-05,5e-05,2e-05,-2.9999999999999997e-05,-4e-05,2
6899,7114,-7e-05,-5e-05,1e-05,8e-05,5e-05,2e-05,-2.9999999999999997e-05,-4e-05,2
6900,7115,-7e-05,-5e-05,1e-05,8e-05,5e-05,2e-05,-2.9999999999999997e-05,-4e-05,2
6901,7116,-7e-05,-5e-05,1e-05,8e-05,5e-05,2e-05,-2.9999999999999997e-05,-4e-05,2
6902,7117,-7e-05,-5e-05,1e-05,8e-05,5e-05,2e-05,-2.9999999999999997e-05,-4e-05,2
6903,7118,-7e-05,-5e-05,1e-05,8e-05,5e-05,2e-05,-2.9999999999999997e-05,-4e-05,2
6904,7119,-7e-05,-5e-05,1e-05,8e-05,5e-05,2e-05,-2.9999999999999997e-05,-4e-05,2
6905,7120,-7e-05,-5e-05,1e-05,8e-05,5e-05,2e-05,-2.9999999999999997e-05,-4e-05,2
6906,7121,-7e-05,-5e-05,1e-05,8e-05,5e-05,2e-05,-2.9999999999999997e-05,-4e-05,2
6907,7122,-7e-05,-5e-05,1e-05,8e-05,5e-05,2e-05,-2.9999999999999997e-05,-4e-05,2
6908,7123,-7e-05,-5e-05,1e-05,8e-05,5e-05,2e-05,-2.9999999999999997e-05,-4e-05,2
6909,7124,-7e-05,-5e-05,1e-05,8e-05,5e-05,2e-05,-2.9999999999999997e-05,-4e-05,2
6910,7125,-7e-05,-5e-05,1e-05,8e-05,5e-05,2e-05,-2.9999999999999997e-05,-4e-05,2
6911,7126,-7e-05,-5e-05,1e-05,8e-05,5e-05,2e-05,-2.9999999999999997e-05,-4e-05,2
6912,7127,-7e-05,-5e-05,1e-05,8e-05,5e-05,2e-05,-2.9999999999999997e-05,-4e-05,2
6913,7128,-7e-05,-5e-05,1e-05,8e-05,5e-05,2e-05,-2.9999999999999997e-05,-4e-05,2
6914,7129,-7e-05,-5e-05,1e-05,8e-05,5e-05,2e-05,-2.9999999999999997e-05,-4e-05,2
6915,7130,-7e-05,-5e-05,1e-05,8e-05,5e-05,2e-05,-2.9999999999999997e-05,-4e-05,2
6916,7131,-7e-05,-5e-05,1e-05,8e-05,5e-05,2e-05,-2.9999999999999997e-05,-4e-05,2
6917,7132,-7e-05,-5e-05,1e-05,8e-05,5e-05,2e-05,-2.9999999999999997e-05,-4e-05,2
6918,7133,-7e-05,-5e-05,1e-05,8e-05,5e-05,2e-05,-2.9999999999999997e-05,-4e-05,2
6919,7134,-0.00011999999999999999,-0.00037,-0.00023999999999999998,-0.00042,-1e-05,2e-05,-0.0001,1e-05,2
6920,7135,4e-05,-5e-05,5.9999999999999995e-05,1e-05,-1e-05,4e-05,0.00023999999999999998,4e-05,2
6921,7136,4e-05,-5e-05,5.9999999999999995e-05,1e-05,-1e-05,4e-05,0.00023999999999999998,4e-05,2
6922,7138,4e-05,-5e-05,5.9999999999999995e-05,1e-05,-1e-05,4e-05,0.00023999999999999998,4e-05,2
6923,7139,4e-05,-5e-05,5.9999999999999995e-05,1e-05,-1e-05,4e-05,0.00023999999999999998,4e-05,2
6924,7140,4e-05,-5e-05,5.9999999999999995e-05,1e-05,-1e-05,4e-05,0.00023999999999999998,4e-05,2
6925,7141,4e-05,-5e-05,5.9999999999999995e-05,1e-05,-1e-05,4e-05,0.00023999999999999998,4e-05,2
6926,7142,4e-05,-5e-05,5.9999999999999995e-05,1e-05,-1e-05,4e-05,0.00023999999999999998,4e-05,2
6927,7143,4e-05,-5e-05,5.9999999999999995e-05,1e-05,-1e-05,4e-05,0.00023999999999999998,4e-05,2
6928,7144,4e-05,-5e-05,5.9999999999999995e-05,1e-05,-1e-05,4e-05,0.00023999999999999998,4e-05,2
6929,7145,4e-05,-5e-05,5.9999999999999995e-05,1e-05,-1e-05,4e-05,0.00023999999999999998,4e-05,2
6930,7146,4e-05,-5e-05,5.9999999999999995e-05,1e-05,-1e-05,4e-05,0.00023999999999999998,4e-05,2
6931,7147,4e-05,-5e-05,5.9999999999999995e-05,1e-05,-1e-05,4e-05,0.00023999999999999998,4e-05,2
6932,7148,-5.9999999999999995e-05,0.00011,0.00013000000000000002,0.00016999999999999999,-5.9999999999999995e-05,-2e-05,2e-05,-2.9999999999999997e-05,2
6933,7149,-5.9999999999999995e-05,0.00011,0.00013000000000000002,0.00016999999999999999,-5.9999999999999995e-05,-2e-05,2e-05,-2.9999999999999997e-05,2
6934,7150,-5.9999999999999995e-05,0.00011,0.00013000000000000002,0.00016999999999999999,-5.9999999999999995e-05,-2e-05,2e-05,-2.9999999999999997e-05,2
6935,7151,-5.9999999999999995e-05,0.00011,0.00013000000000000002,0.00016999999999999999,-5.9999999999999995e-05,-2e-05,2e-05,-2.9999999999999997e-05,2
6936,7152,-5.9999999999999995e-05,0.00011,0.00013000000000000002,0.00016999999999999999,-5.9999999999999995e-05,-2e-05,2e-05,-2.9999999999999997e-05,2
6937,7153,-5.9999999999999995e-05,0.00011,0.00013000000000000002,0.00016999999999999999,-5.9999999999999995e-05,-2e-05,2e-05,-2.9999999999999997e-05,2
6938,7154,-5.9999999999999995e-05,0.00011,0.00013000000000000002,0.00016999999999999999,-5.9999999999999995e-05,-2e-05,2e-05,-2.9999999999999997e-05,2
6939,7155,-5.9999999999999995e-05,0.00011,0.00013000000000000002,0.00016999999999999999,-5.9999999999999995e-05,-2e-05,2e-05,-2.9999999999999997e-05,2
6940,7156,-5.9999999999999995e-05,0.00011,0.00013000000000000002,0.00016999999999999999,-5.9999999999999995e-05,-2e-05,2e-05,-2.9999999999999997e-05,2
6941,7157,-4e-05,-5e-05,2.9999999999999997e-05,0.00021,-4e-05,-8e-05,9e-05,1e-05,2
6942,7158,-4e-05,-5e-05,2.9999999999999997e-05,0.00021,-4e-05,-8e-05,9e-05,1e-05,2
6943,7159,-4e-05,-5e-05,2.9999999999999997e-05,0.00021,-4e-05,-8e-05,9e-05,1e-05,2
6944,7160,-4e-05,-5e-05,2.9999999999999997e-05,0.00021,-4e-05,-8e-05,9e-05,1e-05,2
6945,7161,-4e-05,-5e-05,2.9999999999999997e-05,0.00021,-4e-05,-8e-05,9e-05,1e-05,2
6946,7162,-4e-05,-5e-05,2.9999999999999997e-05,0.00021,-4e-05,-8e-05,9e-05,1e-05,2
6947,7163,-4e-05,-5e-05,2.9999999999999997e-05,0.00021,-4e-05,-8e-05,9e-05,1e-05,2
6948,7164,-4e-05,-5e-05,2.9999999999999997e-05,0.00021,-4e-05,-8e-05,9e-05,1e-05,2
6949,7165,-4e-05,-5e-05,2.9999999999999997e-05,0.00021,-4e-05,-8e-05,9e-05,1e-05,2
6950,7166,-4e-05,-5e-05,2.9999999999999997e-05,0.00021,-4e-05,-8e-05,9e-05,1e-05,2
6951,7167,-4e-05,-5e-05,2.9999999999999997e-05,0.00021,-4e-05,-8e-05,9e-05,1e-05,2
6952,7168,-4e-05,-5e-05,2.9999999999999997e-05,0.00021,-4e-05,-8e-05,9e-05,1e-05,2
6953,7169,-4e-05,-5e-05,2.9999999999999997e-05,0.00021,-4e-05,-8e-05,9e-05,1e-05,2
6954,7170,-4e-05,-5e-05,2.9999999999999997e-05,0.00021,-4e-05,-8e-05,9e-05,1e-05,2
6955,7171,-4e-05,-5e-05,2.9999999999999997e-05,0.00021,-4e-05,-8e-05,9e-05,1e-05,2
6956,7172,4e-05,0.0,-2e-05,8e-05,-4e-05,-4e-05,-8e-05,4e-05,2
6957,7173,4e-05,0.0,-2e-05,8e-05,-4e-05,-4e-05,-8e-05,4e-05,2
6958,7174,4e-05,0.0,-2e-05,8e-05,-4e-05,-4e-05,-8e-05,4e-05,2
6959,7175,4e-05,0.0,-2e-05,8e-05,-4e-05,-4e-05,-8e-05,4e-05,2
6960,7176,4e-05,0.0,-2e-05,8e-05,-4e-05,-4e-05,-8e-05,4e-05,2
6961,7177,4e-05,0.0,-2e-05,8e-05,-4e-05,-4e-05,-8e-05,4e-05,2
6962,7178,4e-05,0.0,-2e-05,8e-05,-4e-05,-4e-05,-8e-05,4e-05,2
6963,7179,4e-05,0.0,-2e-05,8e-05,-4e-05,-4e-05,-8e-05,4e-05,2
6964,7180,4e-05,0.0,-2e-05,8e-05,-4e-05,-4e-05,-8e-05,4e-05,2
6965,7181,4e-05,0.0,-2e-05,8e-05,-4e-05,-4e-05,-8e-05,4e-05,2
6966,7182,4e-05,0.0,-2e-05,8e-05,-4e-05,-4e-05,-8e-05,4e-05,2
6967,7183,4e-05,0.0,-2e-05,8e-05,-4e-05,-4e-05,-8e-05,4e-05,2
6968,7184,4e-05,0.0,-2e-05,8e-05,-4e-05,-4e-05,-8e-05,4e-05,2
6969,7185,4e-05,0.0,-2e-05,8e-05,-4e-05,-4e-05,-8e-05,4e-05,2
6970,7186,4e-05,0.0,-2e-05,8e-05,-4e-05,-4e-05,-8e-05,4e-05,2
6971,7188,4e-05,0.0,-2e-05,8e-05,-4e-05,-4e-05,-8e-05,4e-05,2
6972,7189,4e-05,0.0,-2e-05,8e-05,-4e-05,-4e-05,-8e-05,4e-05,2
6973,7190,4e-05,0.0,-2e-05,8e-05,-4e-05,-4e-05,-8e-05,4e-05,2
6974,7191,4e-05,0.0,-2e-05,8e-05,-4e-05,-4e-05,-8e-05,4e-05,2
6975,7192,4e-05,0.0,-2e-05,8e-05,-4e-05,-4e-05,-8e-05,4e-05,2
6976,7193,4e-05,0.0,-2e-05,8e-05,-4e-05,-4e-05,-8e-05,4e-05,2
6977,7194,-1e-05,0.00013000000000000002,8e-05,5e-05,2e-05,2.9999999999999997e-05,0.00011,-2e-05,2
6978,7195,-4e-05,-7e-05,-2.9999999999999997e-05,7e-05,8e-05,5.9999999999999995e-05,0.00037,2.9999999999999997e-05,2
6979,7196,-4e-05,-7e-05,-2.9999999999999997e-05,7e-05,8e-05,5.9999999999999995e-05,0.00037,2.9999999999999997e-05,2
6980,7197,-4e-05,-7e-05,-2.9999999999999997e-05,7e-05,8e-05,5.9999999999999995e-05,0.00037,2.9999999999999997e-05,2
6981,7198,-4e-05,-7e-05,-2.9999999999999997e-05,7e-05,8e-05,5.9999999999999995e-05,0.00037,2.9999999999999997e-05,2
6982,7199,-4e-05,-7e-05,-2.9999999999999997e-05,7e-05,8e-05,5.9999999999999995e-05,0.00037,2.9999999999999997e-05,2
6983,7200,-4e-05,-7e-05,-2.9999999999999997e-05,7e-05,8e-05,5.9999999999999995e-05,0.00037,2.9999999999999997e-05,2
6984,7201,-4e-05,-7e-05,-2.9999999999999997e-05,7e-05,8e-05,5.9999999999999995e-05,0.00037,2.9999999999999997e-05,2
6985,7202,-4e-05,-7e-05,-2.9999999999999997e-05,7e-05,8e-05,5.9999999999999995e-05,0.00037,2.9999999999999997e-05,2
6986,7203,-4e-05,-7e-05,-2.9999999999999997e-05,7e-05,8e-05,5.9999999999999995e-05,0.00037,2.9999999999999997e-05,2
6987,7204,-4e-05,-7e-05,-2.9999999999999997e-05,7e-05,8e-05,5.9999999999999995e-05,0.00037,2.9999999999999997e-05,2
6988,7205,-4e-05,-7e-05,-2.9999999999999997e-05,7e-05,8e-05,5.9999999999999995e-05,0.00037,2.9999999999999997e-05,2
6989,7206,-4e-05,-7e-05,-2.9999999999999997e-05,7e-05,8e-05,5.9999999999999995e-05,0.00037,2.9999999999999997e-05,2
6990,7207,-4e-05,-7e-05,-2.9999999999999997e-05,7e-05,8e-05,5.9999999999999995e-05,0.00037,2.9999999999999997e-05,2
6991,7208,-4e-05,-7e-05,-2.9999999999999997e-05,7e-05,8e-05,5.9999999999999995e-05,0.00037,2.9999999999999997e-05,2
6992,7209,4e-05,0.0,-2e-05,8e-05,0.0,-2e-05,2e-05,-1e-05,2
6993,7210,4e-05,0.0,-2e-05,8e-05,0.0,-2e-05,2e-05,-1e-05,2
6994,7211,4e-05,0.0,-2e-05,8e-05,0.0,-2e-05,2e-05,-1e-05,2
6995,7212,4e-05,0.0,-2e-05,8e-05,0.0,-2e-05,2e-05,-1e-05,2
6996,7213,4e-05,0.0,-2e-05,8e-05,0.0,-2e-05,2e-05,-1e-05,2
6997,7214,4e-05,0.0,-2e-05,8e-05,0.0,-2e-05,2e-05,-1e-05,2
6998,7215,4e-05,0.0,-2e-05,8e-05,0.0,-2e-05,2e-05,-1e-05,2
6999,7216,4e-05,0.0,-2e-05,8e-05,0.0,-2e-05,2e-05,-1e-05,2
7000,7217,-5e-05,-0.00011999999999999999,-8e-05,-0.00016999999999999999,-0.00013000000000000002,-2.9999999999999997e-05,1e-05,-2.9999999999999997e-05,2
7001,7218,-5e-05,-0.00011999999999999999,-8e-05,-0.00016999999999999999,-0.00013000000000000002,-2.9999999999999997e-05,1e-05,-2.9999999999999997e-05,2
7002,7219,-5e-05,-0.00011999999999999999,-8e-05,-0.00016999999999999999,-0.00013000000000000002,-2.9999999999999997e-05,1e-05,-2.9999999999999997e-05,2
7003,7220,-5e-05,-0.00011999999999999999,-8e-05,-0.00016999999999999999,-0.00013000000000000002,-2.9999999999999997e-05,1e-05,-2.9999999999999997e-05,2
7004,7221,-5e-05,-0.00011999999999999999,-8e-05,-0.00016999999999999999,-0.00013000000000000002,-2.9999999999999997e-05,1e-05,-2.9999999999999997e-05,2
7005,7222,-5e-05,-0.00011999999999999999,-8e-05,-0.00016999999999999999,-0.00013000000000000002,-2.9999999999999997e-05,1e-05,-2.9999999999999997e-05,2
7006,7223,-5e-05,-0.00011999999999999999,-8e-05,-0.00016999999999999999,-0.00013000000000000002,-2.9999999999999997e-05,1e-05,-2.9999999999999997e-05,2
7007,7224,-5e-05,-0.00011999999999999999,-8e-05,-0.00016999999999999999,-0.00013000000000000002,-2.9999999999999997e-05,1e-05,-2.9999999999999997e-05,2
7008,7225,-5e-05,-0.00011999999999999999,-8e-05,-0.00016999999999999999,-0.00013000000000000002,-2.9999999999999997e-05,1e-05,-2.9999999999999997e-05,2
7009,7226,-5e-05,-0.00011999999999999999,-8e-05,-0.00016999999999999999,-0.00013000000000000002,-2.9999999999999997e-05,1e-05,-2.9999999999999997e-05,2
7010,7227,-5e-05,-0.00011999999999999999,-8e-05,-0.00016999999999999999,-0.00013000000000000002,-2.9999999999999997e-05,1e-05,-2.9999999999999997e-05,2
7011,7228,-5e-05,-0.00011999999999999999,-8e-05,-0.00016999999999999999,-0.00013000000000000002,-2.9999999999999997e-05,1e-05,-2.9999999999999997e-05,2
7012,7229,-5e-05,-0.00011999999999999999,-8e-05,-0.00016999999999999999,-0.00013000000000000002,-2.9999999999999997e-05,1e-05,-2.9999999999999997e-05,2
7013,7230,-5e-05,-0.00011999999999999999,-8e-05,-0.00016999999999999999,-0.00013000000000000002,-2.9999999999999997e-05,1e-05,-2.9999999999999997e-05,2
7014,7231,-5e-05,-0.00011999999999999999,-8e-05,-0.00016999999999999999,-0.00013000000000000002,-2.9999999999999997e-05,1e-05,-2.9999999999999997e-05,2
7015,7232,7e-05,0.00013000000000000002,5.9999999999999995e-05,0.00022999999999999998,9e-05,2.9999999999999997e-05,-0.00021,0.0,2
7016,7233,-7e-05,-1e-05,-2e-05,-5e-05,2.9999999999999997e-05,-2.9999999999999997e-05,-2.9999999999999997e-05,0.0,2
7017,7234,-7e-05,-1e-05,-2e-05,-5e-05,2.9999999999999997e-05,-2.9999999999999997e-05,-2.9999999999999997e-05,0.0,2
7018,7235,-7e-05,-1e-05,-2e-05,-5e-05,2.9999999999999997e-05,-2.9999999999999997e-05,-2.9999999999999997e-05,0.0,2
7019,7236,-7e-05,-1e-05,-2e-05,-5e-05,2.9999999999999997e-05,-2.9999999999999997e-05,-2.9999999999999997e-05,0.0,2
7020,7238,-7e-05,-1e-05,-2e-05,-5e-05,2.9999999999999997e-05,-2.9999999999999997e-05,-2.9999999999999997e-05,0.0,2
7021,7239,-7e-05,-1e-05,-2e-05,-5e-05,2.9999999999999997e-05,-2.9999999999999997e-05,-2.9999999999999997e-05,0.0,2
7022,7240,-7e-05,-1e-05,-2e-05,-5e-05,2.9999999999999997e-05,-2.9999999999999997e-05,-2.9999999999999997e-05,0.0,2
7023,7241,-7e-05,-1e-05,-2e-05,-5e-05,2.9999999999999997e-05,-2.9999999999999997e-05,-2.9999999999999997e-05,0.0,2
7024,7242,-7e-05,-1e-05,-2e-05,-5e-05,2.9999999999999997e-05,-2.9999999999999997e-05,-2.9999999999999997e-05,0.0,2
7025,7243,-7e-05,-1e-05,-2e-05,-5e-05,2.9999999999999997e-05,-2.9999999999999997e-05,-2.9999999999999997e-05,0.0,2
7026,7244,-7e-05,-1e-05,-2e-05,-5e-05,2.9999999999999997e-05,-2.9999999999999997e-05,-2.9999999999999997e-05,0.0,2
7027,7245,-7e-05,-1e-05,-2e-05,-5e-05,2.9999999999999997e-05,-2.9999999999999997e-05,-2.9999999999999997e-05,0.0,2
7028,7246,-7e-05,-1e-05,-2e-05,-5e-05,2.9999999999999997e-05,-2.9999999999999997e-05,-2.9999999999999997e-05,0.0,2
