,time,channel1,channel2,channel3,channel4,channel5,channel6,channel7,channel8,class
4303,4462,-5e-05,-7e-05,-0.00011999999999999999,2.9999999999999997e-05,0.00011,0.00018,-0.0001,-2.9999999999999997e-05,2
4304,4463,-5e-05,-7e-05,-0.00011999999999999999,2.9999999999999997e-05,0.00011,0.00018,-0.0001,-2.9999999999999997e-05,2
4305,4464,-5e-05,-7e-05,-0.00011999999999999999,2.9999999999999997e-05,0.00011,0.00018,-0.0001,-2.9999999999999997e-05,2
4306,4465,-2e-05,-5e-05,-1e-05,0.00011999999999999999,0.00011,0.00081,0.00018999999999999998,2e-05,2
4307,4466,-2e-05,-5e-05,-1e-05,0.00011999999999999999,0.00011,0.00081,0.00018999999999999998,2e-05,2
4308,4467,-2e-05,-5e-05,-1e-05,0.00011999999999999999,0.00011,0.00081,0.00018999999999999998,2e-05,2
4309,4468,-2e-05,-5e-05,-1e-05,0.00011999999999999999,0.00011,0.00081,0.00018999999999999998,2e-05,2
4310,4469,-2e-05,-5e-05,-1e-05,0.00011999999999999999,0.00011,0.00081,0.00018999999999999998,2e-05,2
4311,4470,-2e-05,-5e-05,-1e-05,0.00011999999999999999,0.00011,0.00081,0.00018999999999999998,2e-05,2
4312,4471,-2e-05,-5e-05,-1e-05,0.00011999999999999999,0.00011,0.00081,0.00018999999999999998,2e-05,2
4313,4472,-2e-05,-5e-05,-1e-05,0.00011999999999999999,0.00011,0.00081,0.00018999999999999998,2e-05,2
4314,4473,-2e-05,-5e-05,-1e-05,0.00011999999999999999,0.00011,0.00081,0.00018999999999999998,2e-05,2
4315,4474,-2e-05,-5e-05,-1e-05,0.00011999999999999999,0.00011,0.00081,0.00018999999999999998,2e-05,2
4316,4475,-2e-05,-5e-05,-1e-05,0.00011999999999999999,0.00011,0.00081,0.00018999999999999998,2e-05,2
4317,4476,-2e-05,-5e-05,-1e-05,0.00011999999999999999,0.00011,0.00081,0.00018999999999999998,2e-05,2
4318,4477,-2e-05,-5e-05,-1e-05,0.00011999999999999999,0.00011,0.00081,0.00018999999999999998,2e-05,2
4319,4478,-2e-05,-5e-05,-1e-05,0.00011999999999999999,0.00011,0.00081,0.00018999999999999998,2e-05,2
4320,4479,-2e-05,-5e-05,-1e-05,0.00011999999999999999,0.00011,0.00081,0.00018999999999999998,2e-05,2
4321,4480,-2e-05,-5e-05,-1e-05,0.00011999999999999999,0.00011,0.00081,0.00018999999999999998,2e-05,2
4322,4481,-2e-05,-5e-05,-1e-05,0.00011999999999999999,0.00011,0.00081,0.00018999999999999998,2e-05,2
4323,4482,-2e-05,-5e-05,-1e-05,0.00011999999999999999,0.00011,0.00081,0.00018999999999999998,2e-05,2
4324,4483,-2e-05,-5e-05,-1e-05,0.00011999999999999999,0.00011,0.00081,0.00018999999999999998,2e-05,2
4325,4484,-2e-05,-5e-05,-1e-05,0.00011999999999999999,0.00011,0.00081,0.00018999999999999998,2e-05,2
4326,4485,-2e-05,-5e-05,-1e-05,0.00011999999999999999,0.00011,0.00081,0.00018999999999999998,2e-05,2
4327,4486,2.9999999999999997e-05,5.9999999999999995e-05,8e-05,-0.00013000000000000002,-0.00033999999999999997,-0.00057,-0.00013000000000000002,-4e-05,2
4328,4489,-0.00011,-0.00016,-0.0003,0.00049,0.0001,-0.00028,-0.00022999999999999998,-9e-05,2
4329,4490,-0.00011,-0.00016,-0.0003,0.00049,0.0001,-0.00028,-0.00022999999999999998,-9e-05,2
4330,4491,-0.00011,-0.00016,-0.0003,0.00049,0.0001,-0.00028,-0.00022999999999999998,-9e-05,2
4331,4492,-0.00011,-0.00016,-0.0003,0.00049,0.0001,-0.00028,-0.00022999999999999998,-9e-05,2
4332,4493,-0.00011,-0.00016,-0.0003,0.00049,0.0001,-0.00028,-0.00022999999999999998,-9e-05,2
4333,4494,-0.00011,-0.00016,-0.0003,0.00049,0.0001,-0.00028,-0.00022999999999999998,-9e-05,2
4334,4495,-0.00011,-0.00016,-0.0003,0.00049,0.0001,-0.00028,-0.00022999999999999998,-9e-05,2
4335,4496,-0.00011,-0.00016,-0.0003,0.00049,0.0001,-0.00028,-0.00022999999999999998,-9e-05,2
4336,4497,-0.00011,-0.00016,-0.0003,0.00049,0.0001,-0.00028,-0.00022999999999999998,-9e-05,2
4337,4498,-0.00011,-0.00016,-0.0003,0.00049,0.0001,-0.00028,-0.00022999999999999998,-9e-05,2
4338,4499,-0.00011,-0.00016,-0.0003,0.00049,0.0001,-0.00028,-0.00022999999999999998,-9e-05,2
4339,4500,-0.00011,-0.00016,-0.0003,0.00049,0.0001,-0.00028,-0.00022999999999999998,-9e-05,2
4340,4501,-8e-05,-0.0001,-0.00033999999999999997,-0.00023999999999999998,0.00021,0.0007,0.00041,5e-05,2
4341,4502,-8e-05,-0.0001,-0.00033999999999999997,-0.00023999999999999998,0.00021,0.0007,0.00041,5e-05,2
4342,4503,-8e-05,-0.0001,-0.00033999999999999997,-0.00023999999999999998,0.00021,0.0007,0.00041,5e-05,2
4343,4504,-8e-05,-0.0001,-0.00033999999999999997,-0.00023999999999999998,0.00021,0.0007,0.00041,5e-05,2
4344,4505,-8e-05,-0.0001,-0.00033999999999999997,-0.00023999999999999998,0.00021,0.0007,0.00041,5e-05,2
4345,4506,-8e-05,-0.0001,-0.00033999999999999997,-0.00023999999999999998,0.00021,0.0007,0.00041,5e-05,2
4346,4507,-8e-05,-0.0001,-0.00033999999999999997,-0.00023999999999999998,0.00021,0.0007,0.00041,5e-05,2
4347,4508,-8e-05,-0.0001,-0.00033999999999999997,-0.00023999999999999998,0.00021,0.0007,0.00041,5e-05,2
4348,4509,-8e-05,-0.0001,-0.00033999999999999997,-0.00023999999999999998,0.00021,0.0007,0.00041,5e-05,2
4349,4510,-8e-05,-0.0001,-0.00033999999999999997,-0.00023999999999999998,0.00021,0.0007,0.00041,5e-05,2
4350,4511,-8e-05,-0.0001,-0.00033999999999999997,-0.00023999999999999998,0.00021,0.0007,0.00041,5e-05,2
4351,4512,-8e-05,-0.0001,-0.00033999999999999997,-0.00023999999999999998,0.00021,0.0007,0.00041,5e-05,2
4352,4513,-8e-05,-0.0001,-0.00033999999999999997,-0.00023999999999999998,0.00021,0.0007,0.00041,5e-05,2
4353,4514,-8e-05,-0.0001,-0.00033999999999999997,-0.00023999999999999998,0.00021,0.0007,0.00041,5e-05,2
4354,4515,-8e-05,-0.0001,-0.00033999999999999997,-0.00023999999999999998,0.00021,0.0007,0.00041,5e-05,2
4355,4516,-8e-05,-0.0001,-0.00033999999999999997,-0.00023999999999999998,0.00021,0.0007,0.00041,5e-05,2
4356,4517,-8e-05,-0.0001,-0.00033999999999999997,-0.00023999999999999998,0.00021,0.0007,0.00041,5e-05,2
4357,4518,-8e-05,-0.0001,-0.00033999999999999997,-0.00023999999999999998,0.00021,0.0007,0.00041,5e-05,2
4358,4519,-8e-05,-0.0001,-0.00033999999999999997,-0.00023999999999999998,0.00021,0.0007,0.00041,5e-05,2
4359,4520,-8e-05,-0.0001,-0.00033999999999999997,-0.00023999999999999998,0.00021,0.0007,0.00041,5e-05,2
4360,4521,-8e-05,-0.0001,-0.00033999999999999997,-0.00023999999999999998,0.00021,0.0007,0.00041,5e-05,2
4361,4522,-8e-05,-0.0001,-0.00033999999999999997,-0.00023999999999999998,0.00021,0.0007,0.00041,5e-05,2
4362,4523,-8e-05,-0.0001,-0.00033999999999999997,-0.00023999999999999998,0.00021,0.0007,0.00041,5e-05,2
4363,4524,-4e-05,-2e-05,0.0,7e-05,0.00011,9e-05,-0.00011999999999999999,-0.00011,2
4364,4525,0.0,0.0,9e-05,0.00018999999999999998,-0.00015,-0.00011,-0.00018999999999999998,5e-05,2
4365,4526,0.0,0.0,9e-05,0.00018999999999999998,-0.00015,-0.00011,-0.00018999999999999998,5e-05,2
4366,4527,0.0,0.0,9e-05,0.00018999999999999998,-0.00015,-0.00011,-0.00018999999999999998,5e-05,2
4367,4528,0.0,0.0,9e-05,0.00018999999999999998,-0.00015,-0.00011,-0.00018999999999999998,5e-05,2
4368,4529,0.0,0.0,9e-05,0.00018999999999999998,-0.00015,-0.00011,-0.00018999999999999998,5e-05,2
4369,4530,0.0,0.0,9e-05,0.00018999999999999998,-0.00015,-0.00011,-0.00018999999999999998,5e-05,2
4370,4531,0.0,0.0,9e-05,0.00018999999999999998,-0.00015,-0.00011,-0.00018999999999999998,5e-05,2
4371,4532,0.0,0.0,9e-05,0.00018999999999999998,-0.00015,-0.00011,-0.00018999999999999998,5e-05,2
4372,4533,0.0,0.0,9e-05,0.00018999999999999998,-0.00015,-0.00011,-0.00018999999999999998,5e-05,2
4373,4534,0.0,0.0,9e-05,0.00018999999999999998,-0.00015,-0.00011,-0.00018999999999999998,5e-05,2
4374,4535,0.0,0.0,9e-05,0.00018999999999999998,-0.00015,-0.00011,-0.00018999999999999998,5e-05,2
4375,4536,0.0,0.0,9e-05,0.00018999999999999998,-0.00015,-0.00011,-0.00018999999999999998,5e-05,2
4376,4538,0.0,0.0,9e-05,0.00018999999999999998,-0.00015,-0.00011,-0.00018999999999999998,5e-05,2
4377,4539,0.0,0.0,9e-05,0.00018999999999999998,-0.00015,-0.00011,-0.00018999999999999998,5e-05,2
4378,4540,0.0,0.0,9e-05,0.00018999999999999998,-0.00015,-0.00011,-0.00018999999999999998,5e-05,2
4379,4541,0.0,0.0,9e-05,0.00018999999999999998,-0.00015,-0.00011,-0.00018999999999999998,5e-05,2
4380,4542,0.0,0.0,9e-05,0.00018999999999999998,-0.00015,-0.00011,-0.00018999999999999998,5e-05,2
4381,4543,0.0,0.0,9e-05,0.00018999999999999998,-0.00015,-0.00011,-0.00018999999999999998,5e-05,2
4382,4544,0.0,0.0,9e-05,0.00018999999999999998,-0.00015,-0.00011,-0.00018999999999999998,5e-05,2
4383,4545,0.0,0.0,9e-05,0.00018999999999999998,-0.00015,-0.00011,-0.00018999999999999998,5e-05,2
4384,4546,0.0,0.0,9e-05,0.00018999999999999998,-0.00015,-0.00011,-0.00018999999999999998,5e-05,2
4385,4547,5e-05,7e-05,0.00015,9e-05,-5e-05,0.0,-0.0001,1e-05,2
4386,4548,5e-05,7e-05,0.00015,9e-05,-5e-05,0.0,-0.0001,1e-05,2
4387,4549,5e-05,7e-05,0.00015,9e-05,-5e-05,0.0,-0.0001,1e-05,2
4388,4550,5e-05,7e-05,0.00015,9e-05,-5e-05,0.0,-0.0001,1e-05,2
4389,4551,5e-05,7e-05,0.00015,9e-05,-5e-05,0.0,-0.0001,1e-05,2
4390,4552,5e-05,7e-05,0.00015,9e-05,-5e-05,0.0,-0.0001,1e-05,2
4391,4553,5e-05,7e-05,0.00015,9e-05,-5e-05,0.0,-0.0001,1e-05,2
4392,4554,5e-05,7e-05,0.00015,9e-05,-5e-05,0.0,-0.0001,1e-05,2
4393,4555,5e-05,7e-05,0.00015,9e-05,-5e-05,0.0,-0.0001,1e-05,2
4394,4556,5e-05,7e-05,0.00015,9e-05,-5e-05,0.0,-0.0001,1e-05,2
4395,4557,5e-05,7e-05,0.00015,9e-05,-5e-05,0.0,-0.0001,1e-05,2
4396,4558,5e-05,7e-05,0.00015,9e-05,-5e-05,0.0,-0.0001,1e-05,2
4397,4559,5e-05,7e-05,0.00015,9e-05,-5e-05,0.0,-0.0001,1e-05,2
4398,4560,4e-05,2e-05,0.0,7e-05,0.00011,-0.00014,-0.00016999999999999999,-2.9999999999999997e-05,2
4399,4561,4e-05,2e-05,0.0,7e-05,0.00011,-0.00014,-0.00016999999999999999,-2.9999999999999997e-05,2
4400,4562,4e-05,2e-05,0.0,7e-05,0.00011,-0.00014,-0.00016999999999999999,-2.9999999999999997e-05,2
4401,4563,4e-05,2e-05,0.0,7e-05,0.00011,-0.00014,-0.00016999999999999999,-2.9999999999999997e-05,2
4402,4564,4e-05,2e-05,0.0,7e-05,0.00011,-0.00014,-0.00016999999999999999,-2.9999999999999997e-05,2
4403,4565,4e-05,2e-05,0.0,7e-05,0.00011,-0.00014,-0.00016999999999999999,-2.9999999999999997e-05,2
4404,4566,4e-05,2e-05,0.0,7e-05,0.00011,-0.00014,-0.00016999999999999999,-2.9999999999999997e-05,2
4405,4567,4e-05,2e-05,0.0,7e-05,0.00011,-0.00014,-0.00016999999999999999,-2.9999999999999997e-05,2
4406,4568,4e-05,2e-05,0.0,7e-05,0.00011,-0.00014,-0.00016999999999999999,-2.9999999999999997e-05,2
4407,4569,0.00014,0.00011,-5e-05,4e-05,-2e-05,-0.00036,-0.00022999999999999998,-2e-05,2
4408,4570,0.00014,0.00011,-5e-05,4e-05,-2e-05,-0.00036,-0.00022999999999999998,-2e-05,2
4409,4571,0.00014,0.00011,-5e-05,4e-05,-2e-05,-0.00036,-0.00022999999999999998,-2e-05,2
4410,4572,0.00014,0.00011,-5e-05,4e-05,-2e-05,-0.00036,-0.00022999999999999998,-2e-05,2
4411,4573,0.00014,0.00011,-5e-05,4e-05,-2e-05,-0.00036,-0.00022999999999999998,-2e-05,2
4412,4574,0.00014,0.00011,-5e-05,4e-05,-2e-05,-0.00036,-0.00022999999999999998,-2e-05,2
4413,4575,0.00014,0.00011,-5e-05,4e-05,-2e-05,-0.00036,-0.00022999999999999998,-2e-05,2
4414,4576,0.00014,0.00011,-5e-05,4e-05,-2e-05,-0.00036,-0.00022999999999999998,-2e-05,2
4415,4577,0.00014,0.00011,-5e-05,4e-05,-2e-05,-0.00036,-0.00022999999999999998,-2e-05,2
4416,4578,0.00014,0.00011,-5e-05,4e-05,-2e-05,-0.00036,-0.00022999999999999998,-2e-05,2
4417,4579,0.00014,0.00011,-5e-05,4e-05,-2e-05,-0.00036,-0.00022999999999999998,-2e-05,2
4418,4580,0.00014,0.00011,-5e-05,4e-05,-2e-05,-0.00036,-0.00022999999999999998,-2e-05,2
4419,4581,0.00014,0.00011,-5e-05,4e-05,-2e-05,-0.00036,-0.00022999999999999998,-2e-05,2
4420,4582,0.00014,0.00011,-5e-05,4e-05,-2e-05,-0.00036,-0.00022999999999999998,-2e-05,2
4421,4583,-1e-05,-0.00018,-0.00033999999999999997,-9e-05,-2e-05,1e-05,0.00011,-4e-05,2
4422,4584,4e-05,7e-05,0.00022999999999999998,-8e-05,-0.00014,0.00025,7e-05,4e-05,2
4423,4585,4e-05,7e-05,0.00022999999999999998,-8e-05,-0.00014,0.00025,7e-05,4e-05,2
4424,4586,4e-05,7e-05,0.00022999999999999998,-8e-05,-0.00014,0.00025,7e-05,4e-05,2
4425,4588,4e-05,7e-05,0.00022999999999999998,-8e-05,-0.00014,0.00025,7e-05,4e-05,2
4426,4589,4e-05,7e-05,0.00022999999999999998,-8e-05,-0.00014,0.00025,7e-05,4e-05,2
4427,4590,4e-05,7e-05,0.00022999999999999998,-8e-05,-0.00014,0.00025,7e-05,4e-05,2
4428,4591,4e-05,7e-05,0.00022999999999999998,-8e-05,-0.00014,0.00025,7e-05,4e-05,2
4429,4592,4e-05,7e-05,0.00022999999999999998,-8e-05,-0.00014,0.00025,7e-05,4e-05,2
4430,4593,4e-05,7e-05,0.00022999999999999998,-8e-05,-0.00014,0.00025,7e-05,4e-05,2
4431,4594,4e-05,7e-05,0.00022999999999999998,-8e-05,-0.00014,0.00025,7e-05,4e-05,2
4432,4595,4e-05,7e-05,0.00022999999999999998,-8e-05,-0.00014,0.00025,7e-05,4e-05,2
4433,4596,4e-05,7e-05,0.00022999999999999998,-8e-05,-0.00014,0.00025,7e-05,4e-05,2
4434,4597,4e-05,7e-05,0.00022999999999999998,-8e-05,-0.00014,0.00025,7e-05,4e-05,2
4435,4598,4e-05,7e-05,0.00022999999999999998,-8e-05,-0.00014,0.00025,7e-05,4e-05,2
4436,4599,4e-05,7e-05,0.00022999999999999998,-8e-05,-0.00014,0.00025,7e-05,4e-05,2
4437,4600,4e-05,7e-05,0.00022999999999999998,-8e-05,-0.00014,0.00025,7e-05,4e-05,2
4438,4601,4e-05,7e-05,0.00022999999999999998,-8e-05,-0.00014,0.00025,7e-05,4e-05,2
4439,4602,4e-05,7e-05,0.00022999999999999998,-8e-05,-0.00014,0.00025,7e-05,4e-05,2
4440,4603,4e-05,7e-05,0.00022999999999999998,-8e-05,-0.00014,0.00025,7e-05,4e-05,2
4441,4604,4e-05,7e-05,0.00022999999999999998,-8e-05,-0.00014,0.00025,7e-05,4e-05,2
4442,4605,4e-05,7e-05,0.00022999999999999998,-8e-05,-0.00014,0.00025,7e-05,4e-05,2
4443,4606,-5e-05,2e-05,0.00016,-7e-05,-0.00021,-0.0006900000000000001,0.00011999999999999999,4e-05,2
4444,4607,5.9999999999999995e-05,0.00011999999999999999,0.00045999999999999996,4e-05,-0.00033999999999999997,-0.00022999999999999998,0.00014,2e-05,2
4445,4608,5.9999999999999995e-05,0.00011999999999999999,0.00045999999999999996,4e-05,-0.00033999999999999997,-0.00022999999999999998,0.00014,2e-05,2
4446,4609,5.9999999999999995e-05,0.00011999999999999999,0.00045999999999999996,4e-05,-0.00033999999999999997,-0.00022999999999999998,0.00014,2e-05,2
4447,4610,5.9999999999999995e-05,0.00011999999999999999,0.00045999999999999996,4e-05,-0.00033999999999999997,-0.00022999999999999998,0.00014,2e-05,2
4448,4611,5.9999999999999995e-05,0.00011999999999999999,0.00045999999999999996,4e-05,-0.00033999999999999997,-0.00022999999999999998,0.00014,2e-05,2
4449,4612,5.9999999999999995e-05,0.00011999999999999999,0.00045999999999999996,4e-05,-0.00033999999999999997,-0.00022999999999999998,0.00014,2e-05,2
4450,4613,5.9999999999999995e-05,0.00011999999999999999,0.00045999999999999996,4e-05,-0.00033999999999999997,-0.00022999999999999998,0.00014,2e-05,2
4451,4614,5.9999999999999995e-05,0.00011999999999999999,0.00045999999999999996,4e-05,-0.00033999999999999997,-0.00022999999999999998,0.00014,2e-05,2
4452,4615,5.9999999999999995e-05,0.00011999999999999999,0.00045999999999999996,4e-05,-0.00033999999999999997,-0.00022999999999999998,0.00014,2e-05,2
4453,4616,5.9999999999999995e-05,0.00011999999999999999,0.00045999999999999996,4e-05,-0.00033999999999999997,-0.00022999999999999998,0.00014,2e-05,2
4454,4617,5.9999999999999995e-05,0.00011999999999999999,0.00045999999999999996,4e-05,-0.00033999999999999997,-0.00022999999999999998,0.00014,2e-05,2
4455,4618,5.9999999999999995e-05,0.00011999999999999999,0.00045999999999999996,4e-05,-0.00033999999999999997,-0.00022999999999999998,0.00014,2e-05,2
4456,4619,5.9999999999999995e-05,0.00011999999999999999,0.00045999999999999996,4e-05,-0.00033999999999999997,-0.00022999999999999998,0.00014,2e-05,2
4457,4620,5.9999999999999995e-05,0.00011999999999999999,0.00045999999999999996,4e-05,-0.00033999999999999997,-0.00022999999999999998,0.00014,2e-05,2
4458,4621,5.9999999999999995e-05,0.00011999999999999999,0.00045999999999999996,4e-05,-0.00033999999999999997,-0.00022999999999999998,0.00014,2e-05,2
4459,4622,5.9999999999999995e-05,0.00011999999999999999,0.00045999999999999996,4e-05,-0.00033999999999999997,-0.00022999999999999998,0.00014,2e-05,2
4460,4623,5.9999999999999995e-05,0.00011999999999999999,0.00045999999999999996,4e-05,-0.00033999999999999997,-0.00022999999999999998,0.00014,2e-05,2
4461,4624,5.9999999999999995e-05,0.00011999999999999999,0.00045999999999999996,4e-05,-0.00033999999999999997,-0.00022999999999999998,0.00014,2e-05,2
4462,4625,5.9999999999999995e-05,0.00011999999999999999,0.00045999999999999996,4e-05,-0.00033999999999999997,-0.00022999999999999998,0.00014,2e-05,2
4463,4626,5.9999999999999995e-05,0.00011999999999999999,0.00045999999999999996,4e-05,-0.00033999999999999997,-0.00022999999999999998,0.00014,2e-05,2
4464,4627,5.9999999999999995e-05,0.00011999999999999999,0.00045999999999999996,4e-05,-0.00033999999999999997,-0.00022999999999999998,0.00014,2e-05,2
4465,4628,5.9999999999999995e-05,0.00011999999999999999,0.00045999999999999996,4e-05,-0.00033999999999999997,-0.00022999999999999998,0.00014,2e-05,2
4466,4629,-5e-05,-1e-05,1e-05,-7e-05,2e-05,0.00057,-0.00011999999999999999,-2e-05,2
4467,4630,0.00013000000000000002,7e-05,8e-05,8e-05,4e-05,5.9999999999999995e-05,-0.0001,5e-05,2
4468,4631,0.00013000000000000002,7e-05,8e-05,8e-05,4e-05,5.9999999999999995e-05,-0.0001,5e-05,2
4469,4632,0.00013000000000000002,7e-05,8e-05,8e-05,4e-05,5.9999999999999995e-05,-0.0001,5e-05,2
4470,4633,0.00013000000000000002,7e-05,8e-05,8e-05,4e-05,5.9999999999999995e-05,-0.0001,5e-05,2
4471,4634,0.00013000000000000002,7e-05,8e-05,8e-05,4e-05,5.9999999999999995e-05,-0.0001,5e-05,2
4472,4635,0.00013000000000000002,7e-05,8e-05,8e-05,4e-05,5.9999999999999995e-05,-0.0001,5e-05,2
4473,4636,0.00013000000000000002,7e-05,8e-05,8e-05,4e-05,5.9999999999999995e-05,-0.0001,5e-05,2
4474,4638,0.00013000000000000002,7e-05,8e-05,8e-05,4e-05,5.9999999999999995e-05,-0.0001,5e-05,2
4475,4639,0.00013000000000000002,7e-05,8e-05,8e-05,4e-05,5.9999999999999995e-05,-0.0001,5e-05,2
4476,4640,0.00013000000000000002,7e-05,8e-05,8e-05,4e-05,5.9999999999999995e-05,-0.0001,5e-05,2
4477,4641,0.00013000000000000002,7e-05,8e-05,8e-05,4e-05,5.9999999999999995e-05,-0.0001,5e-05,2
4478,4642,0.00013000000000000002,7e-05,8e-05,8e-05,4e-05,5.9999999999999995e-05,-0.0001,5e-05,2
4479,4643,0.00013000000000000002,7e-05,8e-05,8e-05,4e-05,5.9999999999999995e-05,-0.0001,5e-05,2
4480,4644,0.00013000000000000002,7e-05,8e-05,8e-05,4e-05,5.9999999999999995e-05,-0.0001,5e-05,2
4481,4645,0.00013000000000000002,7e-05,8e-05,8e-05,4e-05,5.9999999999999995e-05,-0.0001,5e-05,2
4482,4646,0.00013000000000000002,7e-05,8e-05,8e-05,4e-05,5.9999999999999995e-05,-0.0001,5e-05,2
4483,4647,0.00013000000000000002,7e-05,8e-05,8e-05,4e-05,5.9999999999999995e-05,-0.0001,5e-05,2
4484,4648,0.00013000000000000002,7e-05,8e-05,8e-05,4e-05,5.9999999999999995e-05,-0.0001,5e-05,2
4485,4649,0.00013000000000000002,7e-05,8e-05,8e-05,4e-05,5.9999999999999995e-05,-0.0001,5e-05,2
4486,4650,0.00013000000000000002,7e-05,8e-05,8e-05,4e-05,5.9999999999999995e-05,-0.0001,5e-05,2
4487,4651,-1e-05,-4e-05,-0.00013000000000000002,-0.00015,2.9999999999999997e-05,-0.00041,-2.9999999999999997e-05,0.0,2
4488,4652,-5e-05,4e-05,0.00018,-4e-05,0.0001,0.00016999999999999999,-8e-05,-5e-05,2
4489,4653,-5e-05,4e-05,0.00018,-4e-05,0.0001,0.00016999999999999999,-8e-05,-5e-05,2
4490,4654,-5e-05,4e-05,0.00018,-4e-05,0.0001,0.00016999999999999999,-8e-05,-5e-05,2
4491,4655,-5e-05,4e-05,0.00018,-4e-05,0.0001,0.00016999999999999999,-8e-05,-5e-05,2
4492,4656,-5e-05,4e-05,0.00018,-4e-05,0.0001,0.00016999999999999999,-8e-05,-5e-05,2
4493,4657,-5e-05,4e-05,0.00018,-4e-05,0.0001,0.00016999999999999999,-8e-05,-5e-05,2
4494,4658,-5e-05,4e-05,0.00018,-4e-05,0.0001,0.00016999999999999999,-8e-05,-5e-05,2
4495,4659,-5e-05,4e-05,0.00018,-4e-05,0.0001,0.00016999999999999999,-8e-05,-5e-05,2
4496,4660,-5e-05,4e-05,0.00018,-4e-05,0.0001,0.00016999999999999999,-8e-05,-5e-05,2
4497,4661,-5e-05,4e-05,0.00018,-4e-05,0.0001,0.00016999999999999999,-8e-05,-5e-05,2
4498,4662,-5e-05,4e-05,0.00018,-4e-05,0.0001,0.00016999999999999999,-8e-05,-5e-05,2
4499,4663,-5e-05,4e-05,0.00018,-4e-05,0.0001,0.00016999999999999999,-8e-05,-5e-05,2
4500,4664,-5e-05,4e-05,0.00018,-4e-05,0.0001,0.00016999999999999999,-8e-05,-5e-05,2
4501,4665,-1e-05,-1e-05,-5.9999999999999995e-05,5e-05,-0.00013000000000000002,7e-05,-0.00032,0.0,2
4502,4666,-1e-05,-1e-05,-5.9999999999999995e-05,5e-05,-0.00013000000000000002,7e-05,-0.00032,0.0,2
4503,4667,-1e-05,-1e-05,-5.9999999999999995e-05,5e-05,-0.00013000000000000002,7e-05,-0.00032,0.0,2
4504,4668,-1e-05,-1e-05,-5.9999999999999995e-05,5e-05,-0.00013000000000000002,7e-05,-0.00032,0.0,2
4505,4669,-1e-05,-1e-05,-5.9999999999999995e-05,5e-05,-0.00013000000000000002,7e-05,-0.00032,0.0,2
4506,4670,-1e-05,-1e-05,-5.9999999999999995e-05,5e-05,-0.00013000000000000002,7e-05,-0.00032,0.0,2
4507,4671,-1e-05,-1e-05,-5.9999999999999995e-05,5e-05,-0.00013000000000000002,7e-05,-0.00032,0.0,2
4508,4672,-1e-05,-1e-05,-5.9999999999999995e-05,5e-05,-0.00013000000000000002,7e-05,-0.00032,0.0,2
4509,4673,-4e-05,-2e-05,0.00011999999999999999,-7e-05,5e-05,0.00086,0.00023999999999999998,-2.9999999999999997e-05,2
4510,4674,-4e-05,-2e-05,0.00011999999999999999,-7e-05,5e-05,0.00086,0.00023999999999999998,-2.9999999999999997e-05,2
4511,4675,-4e-05,-2e-05,0.00011999999999999999,-7e-05,5e-05,0.00086,0.00023999999999999998,-2.9999999999999997e-05,2
4512,4676,-4e-05,-2e-05,0.00011999999999999999,-7e-05,5e-05,0.00086,0.00023999999999999998,-2.9999999999999997e-05,2
4513,4677,-4e-05,-2e-05,0.00011999999999999999,-7e-05,5e-05,0.00086,0.00023999999999999998,-2.9999999999999997e-05,2
4514,4678,-4e-05,-2e-05,0.00011999999999999999,-7e-05,5e-05,0.00086,0.00023999999999999998,-2.9999999999999997e-05,2
4515,4679,-4e-05,-2e-05,0.00011999999999999999,-7e-05,5e-05,0.00086,0.00023999999999999998,-2.9999999999999997e-05,2
4516,4680,2e-05,2.9999999999999997e-05,0.00025,0.0001,-0.00016,-0.00037999999999999997,0.00023999999999999998,-1e-05,2
4517,4681,2e-05,2.9999999999999997e-05,0.00025,0.0001,-0.00016,-0.00037999999999999997,0.00023999999999999998,-1e-05,2
4518,4682,2e-05,2.9999999999999997e-05,0.00025,0.0001,-0.00016,-0.00037999999999999997,0.00023999999999999998,-1e-05,2
4519,4683,2e-05,2.9999999999999997e-05,0.00025,0.0001,-0.00016,-0.00037999999999999997,0.00023999999999999998,-1e-05,2
4520,4684,2e-05,2.9999999999999997e-05,0.00025,0.0001,-0.00016,-0.00037999999999999997,0.00023999999999999998,-1e-05,2
4521,4685,2e-05,2.9999999999999997e-05,0.00025,0.0001,-0.00016,-0.00037999999999999997,0.00023999999999999998,-1e-05,2
4522,4686,2e-05,2.9999999999999997e-05,0.00025,0.0001,-0.00016,-0.00037999999999999997,0.00023999999999999998,-1e-05,2
4523,4688,2e-05,2.9999999999999997e-05,0.00025,0.0001,-0.00016,-0.00037999999999999997,0.00023999999999999998,-1e-05,2
4524,4689,2e-05,2.9999999999999997e-05,0.00025,0.0001,-0.00016,-0.00037999999999999997,0.00023999999999999998,-1e-05,2
4525,4690,2e-05,2.9999999999999997e-05,0.00025,0.0001,-0.00016,-0.00037999999999999997,0.00023999999999999998,-1e-05,2
4526,4691,2e-05,2.9999999999999997e-05,0.00025,0.0001,-0.00016,-0.00037999999999999997,0.00023999999999999998,-1e-05,2
4527,4692,2e-05,2.9999999999999997e-05,0.00025,0.0001,-0.00016,-0.00037999999999999997,0.00023999999999999998,-1e-05,2
4528,4693,2e-05,2.9999999999999997e-05,0.00025,0.0001,-0.00016,-0.00037999999999999997,0.00023999999999999998,-1e-05,2
4529,4694,2e-05,2.9999999999999997e-05,0.00025,0.0001,-0.00016,-0.00037999999999999997,0.00023999999999999998,-1e-05,2
4530,4695,2e-05,2.9999999999999997e-05,0.00025,0.0001,-0.00016,-0.00037999999999999997,0.00023999999999999998,-1e-05,2
4531,4696,-5.9999999999999995e-05,-4e-05,1e-05,0.00022999999999999998,-1e-05,-0.0002,5e-05,-2e-05,2
4532,4697,-2.9999999999999997e-05,-5e-05,-0.00014,8e-05,1e-05,-0.00011,-0.00015,-2e-05,2
4533,4698,-2.9999999999999997e-05,-5e-05,-0.00014,8e-05,1e-05,-0.00011,-0.00015,-2e-05,2
4534,4699,-2.9999999999999997e-05,-5e-05,-0.00014,8e-05,1e-05,-0.00011,-0.00015,-2e-05,2
4535,4700,-2.9999999999999997e-05,-5e-05,-0.00014,8e-05,1e-05,-0.00011,-0.00015,-2e-05,2
4536,4701,-2.9999999999999997e-05,-5e-05,-0.00014,8e-05,1e-05,-0.00011,-0.00015,-2e-05,2
4537,4702,-2.9999999999999997e-05,-5e-05,-0.00014,8e-05,1e-05,-0.00011,-0.00015,-2e-05,2
4538,4703,7e-05,2.9999999999999997e-05,-2e-05,-0.00015,0.00015,0.00036,5e-05,0.00015,2
4539,4704,-2.9999999999999997e-05,4e-05,-1e-05,-2e-05,-5e-05,-0.00025,-0.00015,1e-05,2
4540,4705,-2.9999999999999997e-05,4e-05,-1e-05,-2e-05,-5e-05,-0.00025,-0.00015,1e-05,2
4541,4706,-2.9999999999999997e-05,4e-05,-1e-05,-2e-05,-5e-05,-0.00025,-0.00015,1e-05,2
4542,4707,-2.9999999999999997e-05,4e-05,-1e-05,-2e-05,-5e-05,-0.00025,-0.00015,1e-05,2
4543,4708,-2.9999999999999997e-05,4e-05,-1e-05,-2e-05,-5e-05,-0.00025,-0.00015,1e-05,2
4544,4709,-2.9999999999999997e-05,4e-05,-1e-05,-2e-05,-5e-05,-0.00025,-0.00015,1e-05,2
4545,4710,-2.9999999999999997e-05,4e-05,-1e-05,-2e-05,-5e-05,-0.00025,-0.00015,1e-05,2
4546,4711,-2.9999999999999997e-05,4e-05,-1e-05,-2e-05,-5e-05,-0.00025,-0.00015,1e-05,2
4547,4712,-2.9999999999999997e-05,4e-05,-1e-05,-2e-05,-5e-05,-0.00025,-0.00015,1e-05,2
4548,4713,-2.9999999999999997e-05,4e-05,-1e-05,-2e-05,-5e-05,-0.00025,-0.00015,1e-05,2
4549,4714,-2.9999999999999997e-05,4e-05,-1e-05,-2e-05,-5e-05,-0.00025,-0.00015,1e-05,2
4550,4715,-2.9999999999999997e-05,4e-05,-1e-05,-2e-05,-5e-05,-0.00025,-0.00015,1e-05,2
4551,4716,-2.9999999999999997e-05,4e-05,-1e-05,-2e-05,-5e-05,-0.00025,-0.00015,1e-05,2
4552,4717,-2.9999999999999997e-05,4e-05,-1e-05,-2e-05,-5e-05,-0.00025,-0.00015,1e-05,2
4553,4718,-2.9999999999999997e-05,4e-05,-1e-05,-2e-05,-5e-05,-0.00025,-0.00015,1e-05,2
4554,4719,-2.9999999999999997e-05,4e-05,-1e-05,-2e-05,-5e-05,-0.00025,-0.00015,1e-05,2
4555,4720,-2.9999999999999997e-05,4e-05,-1e-05,-2e-05,-5e-05,-0.00025,-0.00015,1e-05,2
4556,4721,-2.9999999999999997e-05,4e-05,-1e-05,-2e-05,-5e-05,-0.00025,-0.00015,1e-05,2
4557,4722,-2.9999999999999997e-05,4e-05,-1e-05,-2e-05,-5e-05,-0.00025,-0.00015,1e-05,2
4558,4723,-2.9999999999999997e-05,4e-05,-1e-05,-2e-05,-5e-05,-0.00025,-0.00015,1e-05,2
4559,4724,-2.9999999999999997e-05,4e-05,-1e-05,-2e-05,-5e-05,-0.00025,-0.00015,1e-05,2
4560,4725,-2.9999999999999997e-05,4e-05,-1e-05,-2e-05,-5e-05,-0.00025,-0.00015,1e-05,2
4561,4726,-7e-05,-4e-05,-9e-05,0.00025,2e-05,-5e-05,0.00011,-0.00014,2
4562,4727,-0.0001,-8e-05,-8e-05,-0.00028,-0.00018999999999999998,-0.00042,-9e-05,-9e-05,2
4563,4728,-0.0001,-8e-05,-8e-05,-0.00028,-0.00018999999999999998,-0.00042,-9e-05,-9e-05,2
4564,4729,-0.0001,-8e-05,-8e-05,-0.00028,-0.00018999999999999998,-0.00042,-9e-05,-9e-05,2
4565,4730,-0.0001,-8e-05,-8e-05,-0.00028,-0.00018999999999999998,-0.00042,-9e-05,-9e-05,2
4566,4731,-0.0001,-8e-05,-8e-05,-0.00028,-0.00018999999999999998,-0.00042,-9e-05,-9e-05,2
4567,4732,-0.0001,-8e-05,-8e-05,-0.00028,-0.00018999999999999998,-0.00042,-9e-05,-9e-05,2
4568,4733,-0.0001,-8e-05,-8e-05,-0.00028,-0.00018999999999999998,-0.00042,-9e-05,-9e-05,2
4569,4734,-0.0001,-8e-05,-8e-05,-0.00028,-0.00018999999999999998,-0.00042,-9e-05,-9e-05,2
4570,4735,-0.0001,-8e-05,-8e-05,-0.00028,-0.00018999999999999998,-0.00042,-9e-05,-9e-05,2
4571,4736,-0.0001,-8e-05,-8e-05,-0.00028,-0.00018999999999999998,-0.00042,-9e-05,-9e-05,2
4572,4738,-0.0001,-8e-05,-8e-05,-0.00028,-0.00018999999999999998,-0.00042,-9e-05,-9e-05,2
4573,4739,-0.0001,-8e-05,-8e-05,-0.00028,-0.00018999999999999998,-0.00042,-9e-05,-9e-05,2
4574,4740,2e-05,-7e-05,-0.00015,-0.00016,4e-05,-0.00047000000000000004,-0.00015,-5.9999999999999995e-05,2
4575,4741,2e-05,-7e-05,-0.00015,-0.00016,4e-05,-0.00047000000000000004,-0.00015,-5.9999999999999995e-05,2
4576,4742,2e-05,-7e-05,-0.00015,-0.00016,4e-05,-0.00047000000000000004,-0.00015,-5.9999999999999995e-05,2
4577,4743,2e-05,-7e-05,-0.00015,-0.00016,4e-05,-0.00047000000000000004,-0.00015,-5.9999999999999995e-05,2
4578,4744,2e-05,-7e-05,-0.00015,-0.00016,4e-05,-0.00047000000000000004,-0.00015,-5.9999999999999995e-05,2
4579,4745,2e-05,-7e-05,-0.00015,-0.00016,4e-05,-0.00047000000000000004,-0.00015,-5.9999999999999995e-05,2
4580,4746,2e-05,-7e-05,-0.00015,-0.00016,4e-05,-0.00047000000000000004,-0.00015,-5.9999999999999995e-05,2
4581,4747,2e-05,-7e-05,-0.00015,-0.00016,4e-05,-0.00047000000000000004,-0.00015,-5.9999999999999995e-05,2
4582,4748,-0.0001,-0.00011999999999999999,-0.00018,-0.00018,-0.00027,-0.00119,-0.00047000000000000004,-0.00015,2
4583,4749,-0.0001,-0.00011999999999999999,-0.00018,-0.00018,-0.00027,-0.00119,-0.00047000000000000004,-0.00015,2
4584,4750,-0.0001,-0.00011999999999999999,-0.00018,-0.00018,-0.00027,-0.00119,-0.00047000000000000004,-0.00015,2
4585,4751,-0.0001,-0.00011999999999999999,-0.00018,-0.00018,-0.00027,-0.00119,-0.00047000000000000004,-0.00015,2
4586,4752,-0.0001,-0.00011999999999999999,-0.00018,-0.00018,-0.00027,-0.00119,-0.00047000000000000004,-0.00015,2
4587,4753,-0.0001,-0.00011999999999999999,-0.00018,-0.00018,-0.00027,-0.00119,-0.00047000000000000004,-0.00015,2
4588,4754,-0.0001,-0.00011999999999999999,-0.00018,-0.00018,-0.00027,-0.00119,-0.00047000000000000004,-0.00015,2
4589,4755,-0.0001,-0.00011999999999999999,-0.00018,-0.00018,-0.00027,-0.00119,-0.00047000000000000004,-0.00015,2
4590,4756,-0.0001,-0.00011999999999999999,-0.00018,-0.00018,-0.00027,-0.00119,-0.00047000000000000004,-0.00015,2
4591,4757,-0.0001,-0.00011999999999999999,-0.00018,-0.00018,-0.00027,-0.00119,-0.00047000000000000004,-0.00015,2
4592,4758,-0.0001,-0.00011999999999999999,-0.00018,-0.00018,-0.00027,-0.00119,-0.00047000000000000004,-0.00015,2
4593,4759,-0.0001,-0.00011999999999999999,-0.00018,-0.00018,-0.00027,-0.00119,-0.00047000000000000004,-0.00015,2
4594,4760,-0.0001,-0.00011999999999999999,-0.00018,-0.00018,-0.00027,-0.00119,-0.00047000000000000004,-0.00015,2
4595,4761,-0.0001,-0.00011999999999999999,-0.00018,-0.00018,-0.00027,-0.00119,-0.00047000000000000004,-0.00015,2
4596,4762,-0.0001,-0.00011999999999999999,-0.00018,-0.00018,-0.00027,-0.00119,-0.00047000000000000004,-0.00015,2
4597,4763,-0.0001,-0.00011999999999999999,-0.00018,-0.00018,-0.00027,-0.00119,-0.00047000000000000004,-0.00015,2
4598,4764,4e-05,2.9999999999999997e-05,-0.00011999999999999999,2e-05,2.9999999999999997e-05,-0.00029,-0.00028,1e-05,2
4599,4765,0.00011,5.9999999999999995e-05,5.9999999999999995e-05,-0.00016,-7e-05,0.00018999999999999998,0.0001,9e-05,2
4600,4766,0.00011,5.9999999999999995e-05,5.9999999999999995e-05,-0.00016,-7e-05,0.00018999999999999998,0.0001,9e-05,2
4601,4767,0.00011,5.9999999999999995e-05,5.9999999999999995e-05,-0.00016,-7e-05,0.00018999999999999998,0.0001,9e-05,2
4602,4768,0.00011,5.9999999999999995e-05,5.9999999999999995e-05,-0.00016,-7e-05,0.00018999999999999998,0.0001,9e-05,2
4603,4769,0.00011,5.9999999999999995e-05,5.9999999999999995e-05,-0.00016,-7e-05,0.00018999999999999998,0.0001,9e-05,2
4604,4770,0.00011,5.9999999999999995e-05,5.9999999999999995e-05,-0.00016,-7e-05,0.00018999999999999998,0.0001,9e-05,2
4605,4771,0.00011,5.9999999999999995e-05,5.9999999999999995e-05,-0.00016,-7e-05,0.00018999999999999998,0.0001,9e-05,2
4606,4772,0.00011,5.9999999999999995e-05,5.9999999999999995e-05,-0.00016,-7e-05,0.00018999999999999998,0.0001,9e-05,2
4607,4773,0.00011,5.9999999999999995e-05,5.9999999999999995e-05,-0.00016,-7e-05,0.00018999999999999998,0.0001,9e-05,2
4608,4774,0.00011,5.9999999999999995e-05,5.9999999999999995e-05,-0.00016,-7e-05,0.00018999999999999998,0.0001,9e-05,2
4609,4775,0.00011,5.9999999999999995e-05,5.9999999999999995e-05,-0.00016,-7e-05,0.00018999999999999998,0.0001,9e-05,2
4610,4776,0.00011,5.9999999999999995e-05,5.9999999999999995e-05,-0.00016,-7e-05,0.00018999999999999998,0.0001,9e-05,2
4611,4777,0.00011,5.9999999999999995e-05,5.9999999999999995e-05,-0.00016,-7e-05,0.00018999999999999998,0.0001,9e-05,2
4612,4778,0.00011,5.9999999999999995e-05,5.9999999999999995e-05,-0.00016,-7e-05,0.00018999999999999998,0.0001,9e-05,2
4613,4779,0.00011,5.9999999999999995e-05,5.9999999999999995e-05,-0.00016,-7e-05,0.00018999999999999998,0.0001,9e-05,2
4614,4780,0.00011,5.9999999999999995e-05,5.9999999999999995e-05,-0.00016,-7e-05,0.00018999999999999998,0.0001,9e-05,2
4615,4781,0.00011,5.9999999999999995e-05,5.9999999999999995e-05,-0.00016,-7e-05,0.00018999999999999998,0.0001,9e-05,2
4616,4782,0.00011,5.9999999999999995e-05,5.9999999999999995e-05,-0.00016,-7e-05,0.00018999999999999998,0.0001,9e-05,2
4617,4783,0.00011,5.9999999999999995e-05,5.9999999999999995e-05,-0.00016,-7e-05,0.00018999999999999998,0.0001,9e-05,2
4618,4784,0.00011,5.9999999999999995e-05,5.9999999999999995e-05,-0.00016,-7e-05,0.00018999999999999998,0.0001,9e-05,2
4619,4785,0.00011,5.9999999999999995e-05,5.9999999999999995e-05,-0.00016,-7e-05,0.00018999999999999998,0.0001,9e-05,2
4620,4786,-0.00014,-9e-05,-4e-05,-0.00022999999999999998,-0.00026000000000000003,-0.00011999999999999999,1e-05,-4e-05,2
4621,4788,0.0001,-2e-05,-2.9999999999999997e-05,0.00035,0.00016,0.00016999999999999999,0.00032,5.9999999999999995e-05,2
4622,4789,0.0001,-2e-05,-2.9999999999999997e-05,0.00035,0.00016,0.00016999999999999999,0.00032,5.9999999999999995e-05,2
4623,4790,0.0001,-2e-05,-2.9999999999999997e-05,0.00035,0.00016,0.00016999999999999999,0.00032,5.9999999999999995e-05,2
4624,4791,0.0001,-2e-05,-2.9999999999999997e-05,0.00035,0.00016,0.00016999999999999999,0.00032,5.9999999999999995e-05,2
4625,4792,0.0001,-2e-05,-2.9999999999999997e-05,0.00035,0.00016,0.00016999999999999999,0.00032,5.9999999999999995e-05,2
4626,4793,0.0001,-2e-05,-2.9999999999999997e-05,0.00035,0.00016,0.00016999999999999999,0.00032,5.9999999999999995e-05,2
4627,4794,0.0001,-2e-05,-2.9999999999999997e-05,0.00035,0.00016,0.00016999999999999999,0.00032,5.9999999999999995e-05,2
4628,4795,0.0001,-2e-05,-2.9999999999999997e-05,0.00035,0.00016,0.00016999999999999999,0.00032,5.9999999999999995e-05,2
4629,4796,0.0001,-2e-05,-2.9999999999999997e-05,0.00035,0.00016,0.00016999999999999999,0.00032,5.9999999999999995e-05,2
4630,4797,0.0001,-2e-05,-2.9999999999999997e-05,0.00035,0.00016,0.00016999999999999999,0.00032,5.9999999999999995e-05,2
4631,4798,0.0001,-2e-05,-2.9999999999999997e-05,0.00035,0.00016,0.00016999999999999999,0.00032,5.9999999999999995e-05,2
4632,4799,0.0001,-2e-05,-2.9999999999999997e-05,0.00035,0.00016,0.00016999999999999999,0.00032,5.9999999999999995e-05,2
4633,4800,-5e-05,0.0,-0.0001,-5.9999999999999995e-05,0.00018,0.00015,-0.00011,0.0,2
4634,4801,-5e-05,0.0,-0.0001,-5.9999999999999995e-05,0.00018,0.00015,-0.00011,0.0,2
4635,4802,-5e-05,0.0,-0.0001,-5.9999999999999995e-05,0.00018,0.00015,-0.00011,0.0,2
4636,4803,-5e-05,0.0,-0.0001,-5.9999999999999995e-05,0.00018,0.00015,-0.00011,0.0,2
4637,4804,-5e-05,0.0,-0.0001,-5.9999999999999995e-05,0.00018,0.00015,-0.00011,0.0,2
4638,4805,-5e-05,0.0,-0.0001,-5.9999999999999995e-05,0.00018,0.00015,-0.00011,0.0,2
4639,4806,-5e-05,0.0,-0.0001,-5.9999999999999995e-05,0.00018,0.00015,-0.00011,0.0,2
4640,4807,-5e-05,0.0,-0.0001,-5.9999999999999995e-05,0.00018,0.00015,-0.00011,0.0,2
4641,4808,-5.9999999999999995e-05,-2e-05,-2.9999999999999997e-05,2e-05,-1e-05,-0.00064,-2.9999999999999997e-05,-2.9999999999999997e-05,2
4642,4809,-5.9999999999999995e-05,-2e-05,-2.9999999999999997e-05,2e-05,-1e-05,-0.00064,-2.9999999999999997e-05,-2.9999999999999997e-05,2
4643,4810,-5.9999999999999995e-05,-2e-05,-2.9999999999999997e-05,2e-05,-1e-05,-0.00064,-2.9999999999999997e-05,-2.9999999999999997e-05,2
4644,4811,-5.9999999999999995e-05,-2e-05,-2.9999999999999997e-05,2e-05,-1e-05,-0.00064,-2.9999999999999997e-05,-2.9999999999999997e-05,2
4645,4812,-5.9999999999999995e-05,-2e-05,-2.9999999999999997e-05,2e-05,-1e-05,-0.00064,-2.9999999999999997e-05,-2.9999999999999997e-05,2
4646,4813,-5.9999999999999995e-05,-2e-05,-2.9999999999999997e-05,2e-05,-1e-05,-0.00064,-2.9999999999999997e-05,-2.9999999999999997e-05,2
4647,4814,-5.9999999999999995e-05,-2e-05,-2.9999999999999997e-05,2e-05,-1e-05,-0.00064,-2.9999999999999997e-05,-2.9999999999999997e-05,2
4648,4815,-5.9999999999999995e-05,-2e-05,-2.9999999999999997e-05,2e-05,-1e-05,-0.00064,-2.9999999999999997e-05,-2.9999999999999997e-05,2
4649,4816,-5.9999999999999995e-05,-2e-05,-2.9999999999999997e-05,2e-05,-1e-05,-0.00064,-2.9999999999999997e-05,-2.9999999999999997e-05,2
4650,4817,-5.9999999999999995e-05,-2e-05,-2.9999999999999997e-05,2e-05,-1e-05,-0.00064,-2.9999999999999997e-05,-2.9999999999999997e-05,2
4651,4818,-5.9999999999999995e-05,-2e-05,-2.9999999999999997e-05,2e-05,-1e-05,-0.00064,-2.9999999999999997e-05,-2.9999999999999997e-05,2
4652,4819,-5.9999999999999995e-05,-2e-05,-2.9999999999999997e-05,2e-05,-1e-05,-0.00064,-2.9999999999999997e-05,-2.9999999999999997e-05,2
4653,4820,-5.9999999999999995e-05,-2e-05,-2.9999999999999997e-05,2e-05,-1e-05,-0.00064,-2.9999999999999997e-05,-2.9999999999999997e-05,2
4654,4821,-5.9999999999999995e-05,-2e-05,-2.9999999999999997e-05,2e-05,-1e-05,-0.00064,-2.9999999999999997e-05,-2.9999999999999997e-05,2
4655,4822,-5.9999999999999995e-05,-2e-05,-2.9999999999999997e-05,2e-05,-1e-05,-0.00064,-2.9999999999999997e-05,-2.9999999999999997e-05,2
4656,4823,1e-05,4e-05,2e-05,-9e-05,-2.9999999999999997e-05,0.00016999999999999999,-0.0001,-2.9999999999999997e-05,2
4657,4824,-0.0001,-0.00013000000000000002,-0.00037,-0.00021,0.00028,0.00047999999999999996,2e-05,2e-05,2
4658,4825,-0.0001,-0.00013000000000000002,-0.00037,-0.00021,0.00028,0.00047999999999999996,2e-05,2e-05,2
4659,4826,-0.0001,-0.00013000000000000002,-0.00037,-0.00021,0.00028,0.00047999999999999996,2e-05,2e-05,2
4660,4827,-0.0001,-0.00013000000000000002,-0.00037,-0.00021,0.00028,0.00047999999999999996,2e-05,2e-05,2
4661,4828,-0.0001,-0.00013000000000000002,-0.00037,-0.00021,0.00028,0.00047999999999999996,2e-05,2e-05,2
4662,4829,-0.0001,-0.00013000000000000002,-0.00037,-0.00021,0.00028,0.00047999999999999996,2e-05,2e-05,2
4663,4830,-0.0001,-0.00013000000000000002,-0.00037,-0.00021,0.00028,0.00047999999999999996,2e-05,2e-05,2
4664,4831,-0.0001,-0.00013000000000000002,-0.00037,-0.00021,0.00028,0.00047999999999999996,2e-05,2e-05,2
4665,4832,-0.0001,-0.00013000000000000002,-0.00037,-0.00021,0.00028,0.00047999999999999996,2e-05,2e-05,2
4666,4833,-0.0001,-0.00013000000000000002,-0.00037,-0.00021,0.00028,0.00047999999999999996,2e-05,2e-05,2
4667,4834,-0.0001,-0.00013000000000000002,-0.00037,-0.00021,0.00028,0.00047999999999999996,2e-05,2e-05,2
4668,4835,-0.0001,-0.00013000000000000002,-0.00037,-0.00021,0.00028,0.00047999999999999996,2e-05,2e-05,2
4669,4836,-0.0001,-0.00013000000000000002,-0.00037,-0.00021,0.00028,0.00047999999999999996,2e-05,2e-05,2
4670,4838,-0.0001,-0.00013000000000000002,-0.00037,-0.00021,0.00028,0.00047999999999999996,2e-05,2e-05,2
4671,4839,-0.0001,-0.00013000000000000002,-0.00037,-0.00021,0.00028,0.00047999999999999996,2e-05,2e-05,2
4672,4840,-0.0001,-0.00013000000000000002,-0.00037,-0.00021,0.00028,0.00047999999999999996,2e-05,2e-05,2
4673,4841,-0.0001,-0.00013000000000000002,-0.00037,-0.00021,0.00028,0.00047999999999999996,2e-05,2e-05,2
4674,4842,-0.0001,-0.00013000000000000002,-0.00037,-0.00021,0.00028,0.00047999999999999996,2e-05,2e-05,2
4675,4843,-0.0001,-0.00013000000000000002,-0.00037,-0.00021,0.00028,0.00047999999999999996,2e-05,2e-05,2
4676,4844,-0.0001,-0.00013000000000000002,-0.00037,-0.00021,0.00028,0.00047999999999999996,2e-05,2e-05,2
4677,4845,-0.0001,-0.00013000000000000002,-0.00037,-0.00021,0.00028,0.00047999999999999996,2e-05,2e-05,2
4678,4846,1e-05,5.9999999999999995e-05,0.00011999999999999999,0.00026000000000000003,0.00023999999999999998,0.00085,0.00029,5.9999999999999995e-05,2
4679,4847,-1e-05,-7e-05,-8e-05,-0.00011999999999999999,-1e-05,0.00049,0.00022999999999999998,-2e-05,2
4680,4848,-1e-05,-7e-05,-8e-05,-0.00011999999999999999,-1e-05,0.00049,0.00022999999999999998,-2e-05,2
4681,4849,-1e-05,-7e-05,-8e-05,-0.00011999999999999999,-1e-05,0.00049,0.00022999999999999998,-2e-05,2
4682,4850,-1e-05,-7e-05,-8e-05,-0.00011999999999999999,-1e-05,0.00049,0.00022999999999999998,-2e-05,2
4683,4851,-1e-05,-7e-05,-8e-05,-0.00011999999999999999,-1e-05,0.00049,0.00022999999999999998,-2e-05,2
4684,4852,-1e-05,-7e-05,-8e-05,-0.00011999999999999999,-1e-05,0.00049,0.00022999999999999998,-2e-05,2
4685,4853,-1e-05,-7e-05,-8e-05,-0.00011999999999999999,-1e-05,0.00049,0.00022999999999999998,-2e-05,2
4686,4854,-1e-05,-7e-05,-8e-05,-0.00011999999999999999,-1e-05,0.00049,0.00022999999999999998,-2e-05,2
4687,4855,-1e-05,-7e-05,-8e-05,-0.00011999999999999999,-1e-05,0.00049,0.00022999999999999998,-2e-05,2
4688,4856,-1e-05,-7e-05,-8e-05,-0.00011999999999999999,-1e-05,0.00049,0.00022999999999999998,-2e-05,2
4689,4857,-1e-05,-7e-05,-8e-05,-0.00011999999999999999,-1e-05,0.00049,0.00022999999999999998,-2e-05,2
4690,4858,-1e-05,-7e-05,-8e-05,-0.00011999999999999999,-1e-05,0.00049,0.00022999999999999998,-2e-05,2
4691,4859,-1e-05,-7e-05,-8e-05,-0.00011999999999999999,-1e-05,0.00049,0.00022999999999999998,-2e-05,2
4692,4860,-8e-05,-5e-05,-4e-05,2.9999999999999997e-05,5e-05,-0.00036,-5.9999999999999995e-05,-2.9999999999999997e-05,2
4693,4861,-8e-05,-5e-05,-4e-05,2.9999999999999997e-05,5e-05,-0.00036,-5.9999999999999995e-05,-2.9999999999999997e-05,2
4694,4862,-8e-05,-5e-05,-4e-05,2.9999999999999997e-05,5e-05,-0.00036,-5.9999999999999995e-05,-2.9999999999999997e-05,2
4695,4863,-8e-05,-5e-05,-4e-05,2.9999999999999997e-05,5e-05,-0.00036,-5.9999999999999995e-05,-2.9999999999999997e-05,2
4696,4864,-8e-05,-5e-05,-4e-05,2.9999999999999997e-05,5e-05,-0.00036,-5.9999999999999995e-05,-2.9999999999999997e-05,2
4697,4865,-8e-05,-5e-05,-4e-05,2.9999999999999997e-05,5e-05,-0.00036,-5.9999999999999995e-05,-2.9999999999999997e-05,2
4698,4866,-8e-05,-5e-05,-4e-05,2.9999999999999997e-05,5e-05,-0.00036,-5.9999999999999995e-05,-2.9999999999999997e-05,2
4699,4867,-8e-05,-5e-05,-4e-05,2.9999999999999997e-05,5e-05,-0.00036,-5.9999999999999995e-05,-2.9999999999999997e-05,2
4700,4868,2e-05,0.00011999999999999999,0.00016999999999999999,0.00011,0.0003,-0.00035,0.00022999999999999998,5e-05,2
4701,4869,2e-05,0.00011999999999999999,0.00016999999999999999,0.00011,0.0003,-0.00035,0.00022999999999999998,5e-05,2
4702,4870,2e-05,0.00011999999999999999,0.00016999999999999999,0.00011,0.0003,-0.00035,0.00022999999999999998,5e-05,2
4703,4871,2e-05,0.00011999999999999999,0.00016999999999999999,0.00011,0.0003,-0.00035,0.00022999999999999998,5e-05,2
4704,4872,2e-05,0.00011999999999999999,0.00016999999999999999,0.00011,0.0003,-0.00035,0.00022999999999999998,5e-05,2
4705,4873,2e-05,0.00011999999999999999,0.00016999999999999999,0.00011,0.0003,-0.00035,0.00022999999999999998,5e-05,2
4706,4874,2e-05,0.00011999999999999999,0.00016999999999999999,0.00011,0.0003,-0.00035,0.00022999999999999998,5e-05,2
4707,4875,2e-05,0.00011999999999999999,0.00016999999999999999,0.00011,0.0003,-0.00035,0.00022999999999999998,5e-05,2
4708,4876,2e-05,0.00011999999999999999,0.00016999999999999999,0.00011,0.0003,-0.00035,0.00022999999999999998,5e-05,2
4709,4877,2e-05,0.00011999999999999999,0.00016999999999999999,0.00011,0.0003,-0.00035,0.00022999999999999998,5e-05,2
4710,4878,2e-05,0.00011999999999999999,0.00016999999999999999,0.00011,0.0003,-0.00035,0.00022999999999999998,5e-05,2
4711,4879,2e-05,0.00011999999999999999,0.00016999999999999999,0.00011,0.0003,-0.00035,0.00022999999999999998,5e-05,2
4712,4880,2e-05,0.00011999999999999999,0.00016999999999999999,0.00011,0.0003,-0.00035,0.00022999999999999998,5e-05,2
4713,4881,2e-05,0.00011999999999999999,0.00016999999999999999,0.00011,0.0003,-0.00035,0.00022999999999999998,5e-05,2
4714,4882,2e-05,0.00011999999999999999,0.00016999999999999999,0.00011,0.0003,-0.00035,0.00022999999999999998,5e-05,2
4715,4883,9e-05,4e-05,0.00015,-0.00015,-0.00027,-0.0005,-0.00044,1e-05,2
4716,4884,-5e-05,-2.9999999999999997e-05,-0.00016999999999999999,-7e-05,-8e-05,0.00011,-0.00032,-7e-05,2
4717,4885,-5e-05,-2.9999999999999997e-05,-0.00016999999999999999,-7e-05,-8e-05,0.00011,-0.00032,-7e-05,2
4718,4886,-5e-05,-2.9999999999999997e-05,-0.00016999999999999999,-7e-05,-8e-05,0.00011,-0.00032,-7e-05,2
4719,4888,-5e-05,-2.9999999999999997e-05,-0.00016999999999999999,-7e-05,-8e-05,0.00011,-0.00032,-7e-05,2
4720,4889,-5e-05,-2.9999999999999997e-05,-0.00016999999999999999,-7e-05,-8e-05,0.00011,-0.00032,-7e-05,2
4721,4890,-5e-05,-2.9999999999999997e-05,-0.00016999999999999999,-7e-05,-8e-05,0.00011,-0.00032,-7e-05,2
4722,4891,-5e-05,-2.9999999999999997e-05,-0.00016999999999999999,-7e-05,-8e-05,0.00011,-0.00032,-7e-05,2
4723,4892,-5e-05,-2.9999999999999997e-05,-0.00016999999999999999,-7e-05,-8e-05,0.00011,-0.00032,-7e-05,2
4724,4893,-5e-05,-2.9999999999999997e-05,-0.00016999999999999999,-7e-05,-8e-05,0.00011,-0.00032,-7e-05,2
4725,4894,-5e-05,-2.9999999999999997e-05,-0.00016999999999999999,-7e-05,-8e-05,0.00011,-0.00032,-7e-05,2
4726,4895,-5e-05,-2.9999999999999997e-05,-0.00016999999999999999,-7e-05,-8e-05,0.00011,-0.00032,-7e-05,2
4727,4896,-5e-05,-2.9999999999999997e-05,-0.00016999999999999999,-7e-05,-8e-05,0.00011,-0.00032,-7e-05,2
4728,4897,-5e-05,-2.9999999999999997e-05,-0.00016999999999999999,-7e-05,-8e-05,0.00011,-0.00032,-7e-05,2
4729,4898,-5e-05,-2.9999999999999997e-05,-0.00016999999999999999,-7e-05,-8e-05,0.00011,-0.00032,-7e-05,2
4730,4899,-5e-05,-2.9999999999999997e-05,-0.00016999999999999999,-7e-05,-8e-05,0.00011,-0.00032,-7e-05,2
4731,4900,-5e-05,-2.9999999999999997e-05,-0.00016999999999999999,-7e-05,-8e-05,0.00011,-0.00032,-7e-05,2
4732,4901,-5e-05,-2.9999999999999997e-05,-0.00016999999999999999,-7e-05,-8e-05,0.00011,-0.00032,-7e-05,2
4733,4902,-5e-05,-2.9999999999999997e-05,-0.00016999999999999999,-7e-05,-8e-05,0.00011,-0.00032,-7e-05,2
4734,4903,-5e-05,-2.9999999999999997e-05,-0.00016999999999999999,-7e-05,-8e-05,0.00011,-0.00032,-7e-05,2
4735,4904,-5e-05,-2.9999999999999997e-05,-0.00016999999999999999,-7e-05,-8e-05,0.00011,-0.00032,-7e-05,2
4736,4905,-5e-05,-2.9999999999999997e-05,-0.00016999999999999999,-7e-05,-8e-05,0.00011,-0.00032,-7e-05,2
4737,4906,0.0,8e-05,0.00015,0.00021,-0.00037,-0.00054,-0.0001,-8e-05,2
4738,4907,-2e-05,-4e-05,2.9999999999999997e-05,-0.00013000000000000002,-2.9999999999999997e-05,0.00015,-5.9999999999999995e-05,-1e-05,2
4739,4908,-2e-05,-4e-05,2.9999999999999997e-05,-0.00013000000000000002,-2.9999999999999997e-05,0.00015,-5.9999999999999995e-05,-1e-05,2
4740,4909,-2e-05,-4e-05,2.9999999999999997e-05,-0.00013000000000000002,-2.9999999999999997e-05,0.00015,-5.9999999999999995e-05,-1e-05,2
4741,4910,-2e-05,-4e-05,2.9999999999999997e-05,-0.00013000000000000002,-2.9999999999999997e-05,0.00015,-5.9999999999999995e-05,-1e-05,2
4742,4911,-2e-05,-4e-05,2.9999999999999997e-05,-0.00013000000000000002,-2.9999999999999997e-05,0.00015,-5.9999999999999995e-05,-1e-05,2
4743,4912,-2e-05,-4e-05,2.9999999999999997e-05,-0.00013000000000000002,-2.9999999999999997e-05,0.00015,-5.9999999999999995e-05,-1e-05,2
4744,4913,-2e-05,-4e-05,2.9999999999999997e-05,-0.00013000000000000002,-2.9999999999999997e-05,0.00015,-5.9999999999999995e-05,-1e-05,2
4745,4914,-2e-05,-4e-05,2.9999999999999997e-05,-0.00013000000000000002,-2.9999999999999997e-05,0.00015,-5.9999999999999995e-05,-1e-05,2
4746,4915,-2e-05,-4e-05,2.9999999999999997e-05,-0.00013000000000000002,-2.9999999999999997e-05,0.00015,-5.9999999999999995e-05,-1e-05,2
4747,4916,-2e-05,-4e-05,2.9999999999999997e-05,-0.00013000000000000002,-2.9999999999999997e-05,0.00015,-5.9999999999999995e-05,-1e-05,2
4748,4917,-2e-05,-4e-05,2.9999999999999997e-05,-0.00013000000000000002,-2.9999999999999997e-05,0.00015,-5.9999999999999995e-05,-1e-05,2
4749,4918,-2e-05,-4e-05,2.9999999999999997e-05,-0.00013000000000000002,-2.9999999999999997e-05,0.00015,-5.9999999999999995e-05,-1e-05,2
4750,4919,-2e-05,-4e-05,2.9999999999999997e-05,-0.00013000000000000002,-2.9999999999999997e-05,0.00015,-5.9999999999999995e-05,-1e-05,2
4751,4920,-2e-05,-4e-05,2.9999999999999997e-05,-0.00013000000000000002,-2.9999999999999997e-05,0.00015,-5.9999999999999995e-05,-1e-05,2
4752,4921,-2e-05,-4e-05,2.9999999999999997e-05,-0.00013000000000000002,-2.9999999999999997e-05,0.00015,-5.9999999999999995e-05,-1e-05,2
4753,4922,-2e-05,-4e-05,2.9999999999999997e-05,-0.00013000000000000002,-2.9999999999999997e-05,0.00015,-5.9999999999999995e-05,-1e-05,2
4754,4923,-2e-05,-4e-05,2.9999999999999997e-05,-0.00013000000000000002,-2.9999999999999997e-05,0.00015,-5.9999999999999995e-05,-1e-05,2
4755,4924,-2e-05,-4e-05,2.9999999999999997e-05,-0.00013000000000000002,-2.9999999999999997e-05,0.00015,-5.9999999999999995e-05,-1e-05,2
4756,4925,-2e-05,-4e-05,2.9999999999999997e-05,-0.00013000000000000002,-2.9999999999999997e-05,0.00015,-5.9999999999999995e-05,-1e-05,2
4757,4926,-2e-05,-4e-05,2.9999999999999997e-05,-0.00013000000000000002,-2.9999999999999997e-05,0.00015,-5.9999999999999995e-05,-1e-05,2
4758,4927,-2e-05,-4e-05,2.9999999999999997e-05,-0.00013000000000000002,-2.9999999999999997e-05,0.00015,-5.9999999999999995e-05,-1e-05,2
4759,4928,-2e-05,-4e-05,2.9999999999999997e-05,-0.00013000000000000002,-2.9999999999999997e-05,0.00015,-5.9999999999999995e-05,-1e-05,2
4760,4929,2e-05,2.9999999999999997e-05,0.00013000000000000002,-0.00022999999999999998,-1e-05,0.0002,0.0,4e-05,2
4761,4930,2e-05,2.9999999999999997e-05,0.00013000000000000002,-0.00022999999999999998,-1e-05,0.0002,0.0,4e-05,2
4762,4931,2e-05,2.9999999999999997e-05,0.00013000000000000002,-0.00022999999999999998,-1e-05,0.0002,0.0,4e-05,2
4763,4932,2e-05,2.9999999999999997e-05,0.00013000000000000002,-0.00022999999999999998,-1e-05,0.0002,0.0,4e-05,2
4764,4933,2e-05,2.9999999999999997e-05,0.00013000000000000002,-0.00022999999999999998,-1e-05,0.0002,0.0,4e-05,2
4765,4934,2e-05,2.9999999999999997e-05,0.00013000000000000002,-0.00022999999999999998,-1e-05,0.0002,0.0,4e-05,2
4766,4935,2e-05,2.9999999999999997e-05,0.00013000000000000002,-0.00022999999999999998,-1e-05,0.0002,0.0,4e-05,2
4767,4936,2e-05,2.9999999999999997e-05,0.00013000000000000002,-0.00022999999999999998,-1e-05,0.0002,0.0,4e-05,2
4768,4938,2e-05,2.9999999999999997e-05,0.00013000000000000002,-0.00022999999999999998,-1e-05,0.0002,0.0,4e-05,2
4769,4939,2e-05,2.9999999999999997e-05,0.00013000000000000002,-0.00022999999999999998,-1e-05,0.0002,0.0,4e-05,2
4770,4940,2e-05,2.9999999999999997e-05,0.00013000000000000002,-0.00022999999999999998,-1e-05,0.0002,0.0,4e-05,2
4771,4941,2e-05,2.9999999999999997e-05,0.00013000000000000002,-0.00022999999999999998,-1e-05,0.0002,0.0,4e-05,2
4772,4942,2e-05,2.9999999999999997e-05,0.00013000000000000002,-0.00022999999999999998,-1e-05,0.0002,0.0,4e-05,2
4773,4943,-5e-05,-0.0001,-0.00011,4e-05,2.9999999999999997e-05,-0.00013000000000000002,7e-05,7e-05,2
4774,4944,4e-05,5e-05,2e-05,8e-05,-5e-05,0.0005,0.00018999999999999998,0.00011,2
4775,4945,4e-05,5e-05,2e-05,8e-05,-5e-05,0.0005,0.00018999999999999998,0.00011,2
4776,4946,4e-05,5e-05,2e-05,8e-05,-5e-05,0.0005,0.00018999999999999998,0.00011,2
4777,4947,4e-05,5e-05,2e-05,8e-05,-5e-05,0.0005,0.00018999999999999998,0.00011,2
4778,4948,4e-05,5e-05,2e-05,8e-05,-5e-05,0.0005,0.00018999999999999998,0.00011,2
4779,4949,4e-05,5e-05,2e-05,8e-05,-5e-05,0.0005,0.00018999999999999998,0.00011,2
4780,4950,4e-05,5e-05,2e-05,8e-05,-5e-05,0.0005,0.00018999999999999998,0.00011,2
4781,4951,4e-05,5e-05,2e-05,8e-05,-5e-05,0.0005,0.00018999999999999998,0.00011,2
4782,4952,4e-05,5e-05,2e-05,8e-05,-5e-05,0.0005,0.00018999999999999998,0.00011,2
4783,4953,4e-05,5e-05,2e-05,8e-05,-5e-05,0.0005,0.00018999999999999998,0.00011,2
4784,4954,4e-05,5e-05,2e-05,8e-05,-5e-05,0.0005,0.00018999999999999998,0.00011,2
4785,4955,4e-05,5e-05,2e-05,8e-05,-5e-05,0.0005,0.00018999999999999998,0.00011,2
4786,4956,4e-05,5e-05,2e-05,8e-05,-5e-05,0.0005,0.00018999999999999998,0.00011,2
4787,4957,4e-05,5e-05,2e-05,8e-05,-5e-05,0.0005,0.00018999999999999998,0.00011,2
4788,4958,4e-05,5e-05,2e-05,8e-05,-5e-05,0.0005,0.00018999999999999998,0.00011,2
4789,4959,4e-05,5e-05,2e-05,8e-05,-5e-05,0.0005,0.00018999999999999998,0.00011,2
4790,4960,4e-05,5e-05,2e-05,8e-05,-5e-05,0.0005,0.00018999999999999998,0.00011,2
4791,4961,4e-05,5e-05,2e-05,8e-05,-5e-05,0.0005,0.00018999999999999998,0.00011,2
4792,4962,4e-05,5e-05,2e-05,8e-05,-5e-05,0.0005,0.00018999999999999998,0.00011,2
4793,4963,4e-05,5e-05,2e-05,8e-05,-5e-05,0.0005,0.00018999999999999998,0.00011,2
4794,4964,4e-05,5e-05,2e-05,8e-05,-5e-05,0.0005,0.00018999999999999998,0.00011,2
4795,4965,4e-05,5e-05,2e-05,8e-05,-5e-05,0.0005,0.00018999999999999998,0.00011,2
4796,4966,1e-05,1e-05,-8e-05,-9e-05,1e-05,-0.0006900000000000001,-0.00031,-2e-05,2
4797,4967,2.9999999999999997e-05,2e-05,2e-05,0.00022,-2.9999999999999997e-05,0.00035,4e-05,2.9999999999999997e-05,2
4798,4968,2.9999999999999997e-05,2e-05,2e-05,0.00022,-2.9999999999999997e-05,0.00035,4e-05,2.9999999999999997e-05,2
4799,4969,2.9999999999999997e-05,2e-05,2e-05,0.00022,-2.9999999999999997e-05,0.00035,4e-05,2.9999999999999997e-05,2
4800,4970,2.9999999999999997e-05,2e-05,2e-05,0.00022,-2.9999999999999997e-05,0.00035,4e-05,2.9999999999999997e-05,2
4801,4971,2.9999999999999997e-05,2e-05,2e-05,0.00022,-2.9999999999999997e-05,0.00035,4e-05,2.9999999999999997e-05,2
4802,4972,2.9999999999999997e-05,2e-05,2e-05,0.00022,-2.9999999999999997e-05,0.00035,4e-05,2.9999999999999997e-05,2
4803,4973,2.9999999999999997e-05,2e-05,2e-05,0.00022,-2.9999999999999997e-05,0.00035,4e-05,2.9999999999999997e-05,2
4804,4974,2.9999999999999997e-05,2e-05,2e-05,0.00022,-2.9999999999999997e-05,0.00035,4e-05,2.9999999999999997e-05,2
4805,4975,2.9999999999999997e-05,2e-05,2e-05,0.00022,-2.9999999999999997e-05,0.00035,4e-05,2.9999999999999997e-05,2
4806,4976,2.9999999999999997e-05,2e-05,2e-05,0.00022,-2.9999999999999997e-05,0.00035,4e-05,2.9999999999999997e-05,2
4807,4977,2.9999999999999997e-05,2e-05,2e-05,0.00022,-2.9999999999999997e-05,0.00035,4e-05,2.9999999999999997e-05,2
4808,4978,2.9999999999999997e-05,2e-05,2e-05,0.00022,-2.9999999999999997e-05,0.00035,4e-05,2.9999999999999997e-05,2
4809,4979,2.9999999999999997e-05,2e-05,2e-05,0.00022,-2.9999999999999997e-05,0.00035,4e-05,2.9999999999999997e-05,2
4810,4980,2.9999999999999997e-05,2e-05,2e-05,0.00022,-2.9999999999999997e-05,0.00035,4e-05,2.9999999999999997e-05,2
4811,4981,2.9999999999999997e-05,2e-05,2e-05,0.00022,-2.9999999999999997e-05,0.00035,4e-05,2.9999999999999997e-05,2
4812,4982,2.9999999999999997e-05,2e-05,2e-05,0.00022,-2.9999999999999997e-05,0.00035,4e-05,2.9999999999999997e-05,2
4813,4983,2.9999999999999997e-05,2e-05,2e-05,0.00022,-2.9999999999999997e-05,0.00035,4e-05,2.9999999999999997e-05,2
4814,4984,2.9999999999999997e-05,2e-05,2e-05,0.00022,-2.9999999999999997e-05,0.00035,4e-05,2.9999999999999997e-05,2
4815,4985,2.9999999999999997e-05,2e-05,2e-05,0.00022,-2.9999999999999997e-05,0.00035,4e-05,2.9999999999999997e-05,2
4816,4986,2.9999999999999997e-05,2e-05,2e-05,0.00022,-2.9999999999999997e-05,0.00035,4e-05,2.9999999999999997e-05,2
4817,4988,2.9999999999999997e-05,2e-05,2e-05,0.00022,-2.9999999999999997e-05,0.00035,4e-05,2.9999999999999997e-05,2
4818,4989,2.9999999999999997e-05,2e-05,2e-05,0.00022,-2.9999999999999997e-05,0.00035,4e-05,2.9999999999999997e-05,2
4819,4990,2.9999999999999997e-05,2e-05,2e-05,0.00022,-2.9999999999999997e-05,0.00035,4e-05,2.9999999999999997e-05,2
4820,4991,2.9999999999999997e-05,2e-05,2e-05,0.00022,-2.9999999999999997e-05,0.00035,4e-05,2.9999999999999997e-05,2
4821,4992,2.9999999999999997e-05,2e-05,2e-05,0.00022,-2.9999999999999997e-05,0.00035,4e-05,2.9999999999999997e-05,2
4822,4993,2.9999999999999997e-05,2e-05,2e-05,0.00022,-2.9999999999999997e-05,0.00035,4e-05,2.9999999999999997e-05,2
4823,4994,2.9999999999999997e-05,2e-05,2e-05,0.00022,-2.9999999999999997e-05,0.00035,4e-05,2.9999999999999997e-05,2
4824,4995,2.9999999999999997e-05,2e-05,2e-05,0.00022,-2.9999999999999997e-05,0.00035,4e-05,2.9999999999999997e-05,2
4825,4996,0.0001,2.9999999999999997e-05,-4e-05,0.0001,-9e-05,0.00041,0.00018999999999999998,0.00013000000000000002,2
4826,4997,-7e-05,-2e-05,-4e-05,2e-05,2.9999999999999997e-05,0.0002,0.0001,-8e-05,2
4827,4998,-7e-05,-2e-05,-4e-05,2e-05,2.9999999999999997e-05,0.0002,0.0001,-8e-05,2
4828,4999,-7e-05,-2e-05,-4e-05,2e-05,2.9999999999999997e-05,0.0002,0.0001,-8e-05,2
4829,5000,-7e-05,-2e-05,-4e-05,2e-05,2.9999999999999997e-05,0.0002,0.0001,-8e-05,2
4830,5001,-7e-05,-2e-05,-4e-05,2e-05,2.9999999999999997e-05,0.0002,0.0001,-8e-05,2
4831,5002,-7e-05,-2e-05,-4e-05,2e-05,2.9999999999999997e-05,0.0002,0.0001,-8e-05,2
4832,5003,1e-05,-4e-05,0.00013000000000000002,0.0002,-0.00016999999999999999,-0.00056,-0.00027,-9e-05,2
4833,5004,0.0,-5.9999999999999995e-05,-0.00025,-0.00026000000000000003,0.00018999999999999998,0.00022,0.00023999999999999998,2.9999999999999997e-05,2
4834,5005,0.0,-5.9999999999999995e-05,-0.00025,-0.00026000000000000003,0.00018999999999999998,0.00022,0.00023999999999999998,2.9999999999999997e-05,2
4835,5006,0.0,-5.9999999999999995e-05,-0.00025,-0.00026000000000000003,0.00018999999999999998,0.00022,0.00023999999999999998,2.9999999999999997e-05,2
4836,5007,0.0,-5.9999999999999995e-05,-0.00025,-0.00026000000000000003,0.00018999999999999998,0.00022,0.00023999999999999998,2.9999999999999997e-05,2
4837,5008,0.0,-5.9999999999999995e-05,-0.00025,-0.00026000000000000003,0.00018999999999999998,0.00022,0.00023999999999999998,2.9999999999999997e-05,2
4838,5009,0.0,-5.9999999999999995e-05,-0.00025,-0.00026000000000000003,0.00018999999999999998,0.00022,0.00023999999999999998,2.9999999999999997e-05,2
4839,5010,0.0,-5.9999999999999995e-05,-0.00025,-0.00026000000000000003,0.00018999999999999998,0.00022,0.00023999999999999998,2.9999999999999997e-05,2
4840,5011,0.0,-5.9999999999999995e-05,-0.00025,-0.00026000000000000003,0.00018999999999999998,0.00022,0.00023999999999999998,2.9999999999999997e-05,2
4841,5012,0.0,-5.9999999999999995e-05,-0.00025,-0.00026000000000000003,0.00018999999999999998,0.00022,0.00023999999999999998,2.9999999999999997e-05,2
4842,5013,0.0,-5.9999999999999995e-05,-0.00025,-0.00026000000000000003,0.00018999999999999998,0.00022,0.00023999999999999998,2.9999999999999997e-05,2
4843,5014,0.0,-5.9999999999999995e-05,-0.00025,-0.00026000000000000003,0.00018999999999999998,0.00022,0.00023999999999999998,2.9999999999999997e-05,2
4844,5015,0.0,-5.9999999999999995e-05,-0.00025,-0.00026000000000000003,0.00018999999999999998,0.00022,0.00023999999999999998,2.9999999999999997e-05,2
4845,5016,0.0,-5.9999999999999995e-05,-0.00025,-0.00026000000000000003,0.00018999999999999998,0.00022,0.00023999999999999998,2.9999999999999997e-05,2
4846,5017,0.0,-5.9999999999999995e-05,-0.00025,-0.00026000000000000003,0.00018999999999999998,0.00022,0.00023999999999999998,2.9999999999999997e-05,2
4847,5018,0.0,-5.9999999999999995e-05,-0.00025,-0.00026000000000000003,0.00018999999999999998,0.00022,0.00023999999999999998,2.9999999999999997e-05,2
4848,5019,0.0,-5.9999999999999995e-05,-0.00025,-0.00026000000000000003,0.00018999999999999998,0.00022,0.00023999999999999998,2.9999999999999997e-05,2
4849,5020,0.0,-5.9999999999999995e-05,-0.00025,-0.00026000000000000003,0.00018999999999999998,0.00022,0.00023999999999999998,2.9999999999999997e-05,2
4850,5021,0.0,-5.9999999999999995e-05,-0.00025,-0.00026000000000000003,0.00018999999999999998,0.00022,0.00023999999999999998,2.9999999999999997e-05,2
4851,5022,0.0,-5.9999999999999995e-05,-0.00025,-0.00026000000000000003,0.00018999999999999998,0.00022,0.00023999999999999998,2.9999999999999997e-05,2
4852,5023,0.0,-5.9999999999999995e-05,-0.00025,-0.00026000000000000003,0.00018999999999999998,0.00022,0.00023999999999999998,2.9999999999999997e-05,2
4853,5024,0.0,-5.9999999999999995e-05,-0.00025,-0.00026000000000000003,0.00018999999999999998,0.00022,0.00023999999999999998,2.9999999999999997e-05,2
4854,5025,0.0,-5.9999999999999995e-05,-0.00025,-0.00026000000000000003,0.00018999999999999998,0.00022,0.00023999999999999998,2.9999999999999997e-05,2
4855,5026,-1e-05,-2e-05,-8e-05,-2.9999999999999997e-05,-5e-05,-0.00016999999999999999,0.00011,-8e-05,2
4856,5027,-2e-05,-4e-05,2e-05,0.00015,-0.00015,-0.00085,-0.00029,-0.00013000000000000002,2
4857,5028,-2e-05,-4e-05,2e-05,0.00015,-0.00015,-0.00085,-0.00029,-0.00013000000000000002,2
4858,5029,-2e-05,-4e-05,2e-05,0.00015,-0.00015,-0.00085,-0.00029,-0.00013000000000000002,2
4859,5030,-2e-05,-4e-05,2e-05,0.00015,-0.00015,-0.00085,-0.00029,-0.00013000000000000002,2
4860,5031,-2e-05,-4e-05,2e-05,0.00015,-0.00015,-0.00085,-0.00029,-0.00013000000000000002,2
4861,5033,-2e-05,-4e-05,2e-05,0.00015,-0.00015,-0.00085,-0.00029,-0.00013000000000000002,2
4862,5034,-2e-05,-4e-05,2e-05,0.00015,-0.00015,-0.00085,-0.00029,-0.00013000000000000002,2
4863,5035,-2e-05,-4e-05,2e-05,0.00015,-0.00015,-0.00085,-0.00029,-0.00013000000000000002,2
4864,5036,-2e-05,-4e-05,2e-05,0.00015,-0.00015,-0.00085,-0.00029,-0.00013000000000000002,2
4865,5038,-2e-05,-4e-05,2e-05,0.00015,-0.00015,-0.00085,-0.00029,-0.00013000000000000002,2
4866,5039,-2e-05,-4e-05,2e-05,0.00015,-0.00015,-0.00085,-0.00029,-0.00013000000000000002,2
4867,5040,-2e-05,-4e-05,2e-05,0.00015,-0.00015,-0.00085,-0.00029,-0.00013000000000000002,2
4868,5041,-2e-05,-4e-05,2e-05,0.00015,-0.00015,-0.00085,-0.00029,-0.00013000000000000002,2
4869,5042,-2e-05,-4e-05,2e-05,0.00015,-0.00015,-0.00085,-0.00029,-0.00013000000000000002,2
4870,5043,-2e-05,-4e-05,2e-05,0.00015,-0.00015,-0.00085,-0.00029,-0.00013000000000000002,2
4871,5044,-2e-05,-4e-05,2e-05,0.00015,-0.00015,-0.00085,-0.00029,-0.00013000000000000002,2
4872,5045,-2e-05,-4e-05,2e-05,0.00015,-0.00015,-0.00085,-0.00029,-0.00013000000000000002,2
4873,5046,-2e-05,-4e-05,2e-05,0.00015,-0.00015,-0.00085,-0.00029,-0.00013000000000000002,2
4874,5047,-2e-05,-4e-05,2e-05,0.00015,-0.00015,-0.00085,-0.00029,-0.00013000000000000002,2
4875,5048,-2e-05,-4e-05,2e-05,0.00015,-0.00015,-0.00085,-0.00029,-0.00013000000000000002,2
4876,5049,1e-05,1e-05,-2.9999999999999997e-05,-0.00011,8e-05,5.9999999999999995e-05,-1e-05,2e-05,2
4877,5050,-5.9999999999999995e-05,1e-05,2.9999999999999997e-05,-2.9999999999999997e-05,-0.00018,-0.0005,-0.00026000000000000003,-2.9999999999999997e-05,2
4878,5052,-5.9999999999999995e-05,1e-05,2.9999999999999997e-05,-2.9999999999999997e-05,-0.00018,-0.0005,-0.00026000000000000003,-2.9999999999999997e-05,2
4879,5053,-5.9999999999999995e-05,1e-05,2.9999999999999997e-05,-2.9999999999999997e-05,-0.00018,-0.0005,-0.00026000000000000003,-2.9999999999999997e-05,2
4880,5054,-5.9999999999999995e-05,1e-05,2.9999999999999997e-05,-2.9999999999999997e-05,-0.00018,-0.0005,-0.00026000000000000003,-2.9999999999999997e-05,2
4881,5055,-5.9999999999999995e-05,1e-05,2.9999999999999997e-05,-2.9999999999999997e-05,-0.00018,-0.0005,-0.00026000000000000003,-2.9999999999999997e-05,2
4882,5056,-5.9999999999999995e-05,1e-05,2.9999999999999997e-05,-2.9999999999999997e-05,-0.00018,-0.0005,-0.00026000000000000003,-2.9999999999999997e-05,2
4883,5057,-5.9999999999999995e-05,1e-05,2.9999999999999997e-05,-2.9999999999999997e-05,-0.00018,-0.0005,-0.00026000000000000003,-2.9999999999999997e-05,2
4884,5058,-5.9999999999999995e-05,1e-05,2.9999999999999997e-05,-2.9999999999999997e-05,-0.00018,-0.0005,-0.00026000000000000003,-2.9999999999999997e-05,2
4885,5059,-5.9999999999999995e-05,1e-05,2.9999999999999997e-05,-2.9999999999999997e-05,-0.00018,-0.0005,-0.00026000000000000003,-2.9999999999999997e-05,2
4886,5060,-5.9999999999999995e-05,1e-05,2.9999999999999997e-05,-2.9999999999999997e-05,-0.00018,-0.0005,-0.00026000000000000003,-2.9999999999999997e-05,2
4887,5061,-5.9999999999999995e-05,1e-05,2.9999999999999997e-05,-2.9999999999999997e-05,-0.00018,-0.0005,-0.00026000000000000003,-2.9999999999999997e-05,2
4888,5062,-5.9999999999999995e-05,1e-05,2.9999999999999997e-05,-2.9999999999999997e-05,-0.00018,-0.0005,-0.00026000000000000003,-2.9999999999999997e-05,2
4889,5063,-2e-05,0.0,-2e-05,-1e-05,0.0001,0.00062,0.00011999999999999999,-1e-05,2
4890,5064,-2.9999999999999997e-05,-2.9999999999999997e-05,7e-05,0.00018999999999999998,0.00021,-2e-05,-0.00016999999999999999,-2.9999999999999997e-05,2
4891,5065,-2.9999999999999997e-05,-2.9999999999999997e-05,7e-05,0.00018999999999999998,0.00021,-2e-05,-0.00016999999999999999,-2.9999999999999997e-05,2
4892,5066,-2.9999999999999997e-05,-2.9999999999999997e-05,7e-05,0.00018999999999999998,0.00021,-2e-05,-0.00016999999999999999,-2.9999999999999997e-05,2
4893,5067,-2.9999999999999997e-05,-2.9999999999999997e-05,7e-05,0.00018999999999999998,0.00021,-2e-05,-0.00016999999999999999,-2.9999999999999997e-05,2
4894,5068,-2.9999999999999997e-05,-2.9999999999999997e-05,7e-05,0.00018999999999999998,0.00021,-2e-05,-0.00016999999999999999,-2.9999999999999997e-05,2
4895,5069,-2.9999999999999997e-05,-2.9999999999999997e-05,7e-05,0.00018999999999999998,0.00021,-2e-05,-0.00016999999999999999,-2.9999999999999997e-05,2
4896,5070,-2.9999999999999997e-05,-2.9999999999999997e-05,7e-05,0.00018999999999999998,0.00021,-2e-05,-0.00016999999999999999,-2.9999999999999997e-05,2
4897,5071,-2.9999999999999997e-05,-2.9999999999999997e-05,7e-05,0.00018999999999999998,0.00021,-2e-05,-0.00016999999999999999,-2.9999999999999997e-05,2
4898,5072,-2.9999999999999997e-05,-2.9999999999999997e-05,7e-05,0.00018999999999999998,0.00021,-2e-05,-0.00016999999999999999,-2.9999999999999997e-05,2
4899,5073,-2.9999999999999997e-05,-2.9999999999999997e-05,7e-05,0.00018999999999999998,0.00021,-2e-05,-0.00016999999999999999,-2.9999999999999997e-05,2
4900,5074,-2.9999999999999997e-05,-2.9999999999999997e-05,7e-05,0.00018999999999999998,0.00021,-2e-05,-0.00016999999999999999,-2.9999999999999997e-05,2
4901,5075,-2.9999999999999997e-05,-2.9999999999999997e-05,7e-05,0.00018999999999999998,0.00021,-2e-05,-0.00016999999999999999,-2.9999999999999997e-05,2
4902,5076,-2.9999999999999997e-05,-2.9999999999999997e-05,7e-05,0.00018999999999999998,0.00021,-2e-05,-0.00016999999999999999,-2.9999999999999997e-05,2
4903,5077,-2.9999999999999997e-05,-2.9999999999999997e-05,7e-05,0.00018999999999999998,0.00021,-2e-05,-0.00016999999999999999,-2.9999999999999997e-05,2
4904,5078,-2.9999999999999997e-05,-2.9999999999999997e-05,7e-05,0.00018999999999999998,0.00021,-2e-05,-0.00016999999999999999,-2.9999999999999997e-05,2
4905,5079,-2.9999999999999997e-05,-2.9999999999999997e-05,7e-05,0.00018999999999999998,0.00021,-2e-05,-0.00016999999999999999,-2.9999999999999997e-05,2
4906,5080,-2.9999999999999997e-05,-2.9999999999999997e-05,7e-05,0.00018999999999999998,0.00021,-2e-05,-0.00016999999999999999,-2.9999999999999997e-05,2
4907,5081,-2.9999999999999997e-05,-2.9999999999999997e-05,7e-05,0.00018999999999999998,0.00021,-2e-05,-0.00016999999999999999,-2.9999999999999997e-05,2
4908,5082,-2.9999999999999997e-05,-2.9999999999999997e-05,7e-05,0.00018999999999999998,0.00021,-2e-05,-0.00016999999999999999,-2.9999999999999997e-05,2
4909,5083,-2.9999999999999997e-05,-2.9999999999999997e-05,7e-05,0.00018999999999999998,0.00021,-2e-05,-0.00016999999999999999,-2.9999999999999997e-05,2
4910,5084,-2.9999999999999997e-05,-2.9999999999999997e-05,7e-05,0.00018999999999999998,0.00021,-2e-05,-0.00016999999999999999,-2.9999999999999997e-05,2
4911,5085,-2.9999999999999997e-05,-2.9999999999999997e-05,7e-05,0.00018999999999999998,0.00021,-2e-05,-0.00016999999999999999,-2.9999999999999997e-05,2
4912,5086,2.9999999999999997e-05,4e-05,8e-05,2.9999999999999997e-05,2.9999999999999997e-05,-0.00016999999999999999,-1e-05,-1e-05,2
4913,5088,-5e-05,2e-05,-1e-05,-2.9999999999999997e-05,0.00011,0.00062,-0.00011,-2.9999999999999997e-05,2
4914,5089,-5e-05,2e-05,-1e-05,-2.9999999999999997e-05,0.00011,0.00062,-0.00011,-2.9999999999999997e-05,2
4915,5090,-5e-05,2e-05,-1e-05,-2.9999999999999997e-05,0.00011,0.00062,-0.00011,-2.9999999999999997e-05,2
4916,5091,-5e-05,2e-05,-1e-05,-2.9999999999999997e-05,0.00011,0.00062,-0.00011,-2.9999999999999997e-05,2
4917,5092,-5e-05,2e-05,-1e-05,-2.9999999999999997e-05,0.00011,0.00062,-0.00011,-2.9999999999999997e-05,2
4918,5093,-5e-05,2e-05,-1e-05,-2.9999999999999997e-05,0.00011,0.00062,-0.00011,-2.9999999999999997e-05,2
4919,5094,-5e-05,2e-05,-1e-05,-2.9999999999999997e-05,0.00011,0.00062,-0.00011,-2.9999999999999997e-05,2
4920,5095,-5e-05,2e-05,-1e-05,-2.9999999999999997e-05,0.00011,0.00062,-0.00011,-2.9999999999999997e-05,2
4921,5096,-5e-05,2e-05,-1e-05,-2.9999999999999997e-05,0.00011,0.00062,-0.00011,-2.9999999999999997e-05,2
4922,5097,-5e-05,2e-05,-1e-05,-2.9999999999999997e-05,0.00011,0.00062,-0.00011,-2.9999999999999997e-05,2
4923,5098,-5e-05,2e-05,-1e-05,-2.9999999999999997e-05,0.00011,0.00062,-0.00011,-2.9999999999999997e-05,2
4924,5099,-5e-05,2e-05,-1e-05,-2.9999999999999997e-05,0.00011,0.00062,-0.00011,-2.9999999999999997e-05,2
4925,5100,-5e-05,2e-05,-1e-05,-2.9999999999999997e-05,0.00011,0.00062,-0.00011,-2.9999999999999997e-05,2
4926,5101,-5e-05,2e-05,-1e-05,-2.9999999999999997e-05,0.00011,0.00062,-0.00011,-2.9999999999999997e-05,2
4927,5102,-5e-05,2e-05,-1e-05,-2.9999999999999997e-05,0.00011,0.00062,-0.00011,-2.9999999999999997e-05,2
4928,5103,-5e-05,2e-05,-1e-05,-2.9999999999999997e-05,0.00011,0.00062,-0.00011,-2.9999999999999997e-05,2
4929,5104,-5e-05,2e-05,-1e-05,-2.9999999999999997e-05,0.00011,0.00062,-0.00011,-2.9999999999999997e-05,2
4930,5105,-5e-05,2e-05,-1e-05,-2.9999999999999997e-05,0.00011,0.00062,-0.00011,-2.9999999999999997e-05,2
4931,5106,-5e-05,2e-05,-1e-05,-2.9999999999999997e-05,0.00011,0.00062,-0.00011,-2.9999999999999997e-05,2
4932,5107,-5e-05,2e-05,-1e-05,-2.9999999999999997e-05,0.00011,0.00062,-0.00011,-2.9999999999999997e-05,2
4933,5108,-5e-05,2e-05,-1e-05,-2.9999999999999997e-05,0.00011,0.00062,-0.00011,-2.9999999999999997e-05,2
4934,5109,-0.00011,-7e-05,-0.00029,-0.00072,7e-05,-0.0002,-0.00022,-4e-05,2
4935,5110,2.9999999999999997e-05,-8e-05,-0.00027,5.9999999999999995e-05,8e-05,0.00016999999999999999,0.00022999999999999998,4e-05,2
4936,5111,2.9999999999999997e-05,-8e-05,-0.00027,5.9999999999999995e-05,8e-05,0.00016999999999999999,0.00022999999999999998,4e-05,2
4937,5112,2.9999999999999997e-05,-8e-05,-0.00027,5.9999999999999995e-05,8e-05,0.00016999999999999999,0.00022999999999999998,4e-05,2
4938,5113,2.9999999999999997e-05,-8e-05,-0.00027,5.9999999999999995e-05,8e-05,0.00016999999999999999,0.00022999999999999998,4e-05,2
4939,5114,2.9999999999999997e-05,-8e-05,-0.00027,5.9999999999999995e-05,8e-05,0.00016999999999999999,0.00022999999999999998,4e-05,2
4940,5115,2.9999999999999997e-05,-8e-05,-0.00027,5.9999999999999995e-05,8e-05,0.00016999999999999999,0.00022999999999999998,4e-05,2
4941,5116,2.9999999999999997e-05,-8e-05,-0.00027,5.9999999999999995e-05,8e-05,0.00016999999999999999,0.00022999999999999998,4e-05,2
4942,5117,2.9999999999999997e-05,-8e-05,-0.00027,5.9999999999999995e-05,8e-05,0.00016999999999999999,0.00022999999999999998,4e-05,2
4943,5118,2.9999999999999997e-05,-8e-05,-0.00027,5.9999999999999995e-05,8e-05,0.00016999999999999999,0.00022999999999999998,4e-05,2
4944,5119,2.9999999999999997e-05,-8e-05,-0.00027,5.9999999999999995e-05,8e-05,0.00016999999999999999,0.00022999999999999998,4e-05,2
4945,5120,2.9999999999999997e-05,-8e-05,-0.00027,5.9999999999999995e-05,8e-05,0.00016999999999999999,0.00022999999999999998,4e-05,2
4946,5121,2.9999999999999997e-05,-8e-05,-0.00027,5.9999999999999995e-05,8e-05,0.00016999999999999999,0.00022999999999999998,4e-05,2
4947,5122,2.9999999999999997e-05,-8e-05,-0.00027,5.9999999999999995e-05,8e-05,0.00016999999999999999,0.00022999999999999998,4e-05,2
4948,5123,1e-05,0.0,0.00016999999999999999,0.00011999999999999999,-0.00026000000000000003,-0.00035,-0.00013000000000000002,0.0,2
4949,5124,-4e-05,-4e-05,-0.00016,-0.00042,-0.00028,-0.0011099999999999999,-0.00033,-5.9999999999999995e-05,2
4950,5125,-4e-05,-4e-05,-0.00016,-0.00042,-0.00028,-0.0011099999999999999,-0.00033,-5.9999999999999995e-05,2
4951,5126,-4e-05,-4e-05,-0.00016,-0.00042,-0.00028,-0.0011099999999999999,-0.00033,-5.9999999999999995e-05,2
4952,5127,-4e-05,-4e-05,-0.00016,-0.00042,-0.00028,-0.0011099999999999999,-0.00033,-5.9999999999999995e-05,2
4953,5128,-4e-05,-4e-05,-0.00016,-0.00042,-0.00028,-0.0011099999999999999,-0.00033,-5.9999999999999995e-05,2
4954,5129,-4e-05,-4e-05,-0.00016,-0.00042,-0.00028,-0.0011099999999999999,-0.00033,-5.9999999999999995e-05,2
4955,5130,-4e-05,-4e-05,-0.00016,-0.00042,-0.00028,-0.0011099999999999999,-0.00033,-5.9999999999999995e-05,2
4956,5131,-4e-05,-4e-05,-0.00016,-0.00042,-0.00028,-0.0011099999999999999,-0.00033,-5.9999999999999995e-05,2
4957,5132,-4e-05,-4e-05,-0.00016,-0.00042,-0.00028,-0.0011099999999999999,-0.00033,-5.9999999999999995e-05,2
4958,5133,-4e-05,-4e-05,-0.00016,-0.00042,-0.00028,-0.0011099999999999999,-0.00033,-5.9999999999999995e-05,2
4959,5134,-4e-05,-4e-05,-0.00016,-0.00042,-0.00028,-0.0011099999999999999,-0.00033,-5.9999999999999995e-05,2
4960,5135,-4e-05,-4e-05,-0.00016,-0.00042,-0.00028,-0.0011099999999999999,-0.00033,-5.9999999999999995e-05,2
4961,5136,-4e-05,-4e-05,-0.00016,-0.00042,-0.00028,-0.0011099999999999999,-0.00033,-5.9999999999999995e-05,2
4962,5138,-4e-05,-4e-05,-0.00016,-0.00042,-0.00028,-0.0011099999999999999,-0.00033,-5.9999999999999995e-05,2
4963,5139,-4e-05,-4e-05,-0.00016,-0.00042,-0.00028,-0.0011099999999999999,-0.00033,-5.9999999999999995e-05,2
4964,5140,-4e-05,-4e-05,-0.00016,-0.00042,-0.00028,-0.0011099999999999999,-0.00033,-5.9999999999999995e-05,2
4965,5141,-4e-05,-4e-05,-0.00016,-0.00042,-0.00028,-0.0011099999999999999,-0.00033,-5.9999999999999995e-05,2
4966,5142,-4e-05,-4e-05,-0.00016,-0.00042,-0.00028,-0.0011099999999999999,-0.00033,-5.9999999999999995e-05,2
4967,5143,-4e-05,-4e-05,-0.00016,-0.00042,-0.00028,-0.0011099999999999999,-0.00033,-5.9999999999999995e-05,2
4968,5144,-4e-05,-4e-05,-0.00016,-0.00042,-0.00028,-0.0011099999999999999,-0.00033,-5.9999999999999995e-05,2
4969,5145,-4e-05,-4e-05,-0.00016,-0.00042,-0.00028,-0.0011099999999999999,-0.00033,-5.9999999999999995e-05,2
4970,5146,2.9999999999999997e-05,9e-05,5e-05,0.00015,0.00023999999999999998,0.00018,5.9999999999999995e-05,-1e-05,2
4971,5147,2e-05,-8e-05,-0.00025,-0.00021,-5.9999999999999995e-05,0.00022999999999999998,0.0001,2.9999999999999997e-05,2
4972,5148,2e-05,-8e-05,-0.00025,-0.00021,-5.9999999999999995e-05,0.00022999999999999998,0.0001,2.9999999999999997e-05,2
4973,5149,2e-05,-8e-05,-0.00025,-0.00021,-5.9999999999999995e-05,0.00022999999999999998,0.0001,2.9999999999999997e-05,2
4974,5150,2e-05,-8e-05,-0.00025,-0.00021,-5.9999999999999995e-05,0.00022999999999999998,0.0001,2.9999999999999997e-05,2
4975,5151,2e-05,-8e-05,-0.00025,-0.00021,-5.9999999999999995e-05,0.00022999999999999998,0.0001,2.9999999999999997e-05,2
4976,5152,2e-05,-8e-05,-0.00025,-0.00021,-5.9999999999999995e-05,0.00022999999999999998,0.0001,2.9999999999999997e-05,2
4977,5153,2e-05,-8e-05,-0.00025,-0.00021,-5.9999999999999995e-05,0.00022999999999999998,0.0001,2.9999999999999997e-05,2
4978,5154,2e-05,-8e-05,-0.00025,-0.00021,-5.9999999999999995e-05,0.00022999999999999998,0.0001,2.9999999999999997e-05,2
4979,5155,2e-05,-8e-05,-0.00025,-0.00021,-5.9999999999999995e-05,0.00022999999999999998,0.0001,2.9999999999999997e-05,2
4980,5156,2e-05,-8e-05,-0.00025,-0.00021,-5.9999999999999995e-05,0.00022999999999999998,0.0001,2.9999999999999997e-05,2
4981,5157,2e-05,-8e-05,-0.00025,-0.00021,-5.9999999999999995e-05,0.00022999999999999998,0.0001,2.9999999999999997e-05,2
4982,5158,2e-05,-8e-05,-0.00025,-0.00021,-5.9999999999999995e-05,0.00022999999999999998,0.0001,2.9999999999999997e-05,2
4983,5159,2e-05,-8e-05,-0.00025,-0.00021,-5.9999999999999995e-05,0.00022999999999999998,0.0001,2.9999999999999997e-05,2
4984,5160,2e-05,-8e-05,-0.00025,-0.00021,-5.9999999999999995e-05,0.00022999999999999998,0.0001,2.9999999999999997e-05,2
4985,5161,2e-05,-8e-05,-0.00025,-0.00021,-5.9999999999999995e-05,0.00022999999999999998,0.0001,2.9999999999999997e-05,2
4986,5162,2e-05,-8e-05,-0.00025,-0.00021,-5.9999999999999995e-05,0.00022999999999999998,0.0001,2.9999999999999997e-05,2
4987,5163,2e-05,-8e-05,-0.00025,-0.00021,-5.9999999999999995e-05,0.00022999999999999998,0.0001,2.9999999999999997e-05,2
4988,5164,2e-05,-8e-05,-0.00025,-0.00021,-5.9999999999999995e-05,0.00022999999999999998,0.0001,2.9999999999999997e-05,2
4989,5165,2e-05,-8e-05,-0.00025,-0.00021,-5.9999999999999995e-05,0.00022999999999999998,0.0001,2.9999999999999997e-05,2
4990,5166,2e-05,-8e-05,-0.00025,-0.00021,-5.9999999999999995e-05,0.00022999999999999998,0.0001,2.9999999999999997e-05,2
4991,5167,2e-05,-8e-05,-0.00025,-0.00021,-5.9999999999999995e-05,0.00022999999999999998,0.0001,2.9999999999999997e-05,2
4992,5168,2e-05,-8e-05,-0.00025,-0.00021,-5.9999999999999995e-05,0.00022999999999999998,0.0001,2.9999999999999997e-05,2
4993,5169,2e-05,-8e-05,-0.00025,-0.00021,-5.9999999999999995e-05,0.00022999999999999998,0.0001,2.9999999999999997e-05,2
4994,5170,2e-05,-8e-05,-0.00025,-0.00021,-5.9999999999999995e-05,0.00022999999999999998,0.0001,2.9999999999999997e-05,2
4995,5171,2e-05,-8e-05,-0.00025,-0.00021,-5.9999999999999995e-05,0.00022999999999999998,0.0001,2.9999999999999997e-05,2
4996,5172,2e-05,-8e-05,-0.00025,-0.00021,-5.9999999999999995e-05,0.00022999999999999998,0.0001,2.9999999999999997e-05,2
4997,5173,2e-05,-8e-05,-0.00025,-0.00021,-5.9999999999999995e-05,0.00022999999999999998,0.0001,2.9999999999999997e-05,2
4998,5174,2e-05,-8e-05,-0.00025,-0.00021,-5.9999999999999995e-05,0.00022999999999999998,0.0001,2.9999999999999997e-05,2
4999,5175,2e-05,-8e-05,-0.00025,-0.00021,-5.9999999999999995e-05,0.00022999999999999998,0.0001,2.9999999999999997e-05,2
5000,5176,2e-05,-8e-05,-0.00025,-0.00021,-5.9999999999999995e-05,0.00022999999999999998,0.0001,2.9999999999999997e-05,2
5001,5177,2e-05,-8e-05,-0.00025,-0.00021,-5.9999999999999995e-05,0.00022999999999999998,0.0001,2.9999999999999997e-05,2
5002,5178,2e-05,-8e-05,-0.00025,-0.00021,-5.9999999999999995e-05,0.00022999999999999998,0.0001,2.9999999999999997e-05,2
5003,5179,2e-05,-8e-05,-0.00025,-0.00021,-5.9999999999999995e-05,0.00022999999999999998,0.0001,2.9999999999999997e-05,2
5004,5180,2e-05,-8e-05,-0.00025,-0.00021,-5.9999999999999995e-05,0.00022999999999999998,0.0001,2.9999999999999997e-05,2
5005,5181,2e-05,-8e-05,-0.00025,-0.00021,-5.9999999999999995e-05,0.00022999999999999998,0.0001,2.9999999999999997e-05,2
5006,5182,2e-05,-8e-05,-0.00025,-0.00021,-5.9999999999999995e-05,0.00022999999999999998,0.0001,2.9999999999999997e-05,2
5007,5183,2e-05,-8e-05,-0.00025,-0.00021,-5.9999999999999995e-05,0.00022999999999999998,0.0001,2.9999999999999997e-05,2
5008,5184,2e-05,-8e-05,-0.00025,-0.00021,-5.9999999999999995e-05,0.00022999999999999998,0.0001,2.9999999999999997e-05,2
5009,5185,-4e-05,-2e-05,2.9999999999999997e-05,7e-05,-2e-05,-0.00011,-0.00011999999999999999,-5.9999999999999995e-05,2
5010,5186,2.9999999999999997e-05,0.00011,0.00028,0.00039,0.0002,0.00027,0.00032,2e-05,2
5011,5188,-2.9999999999999997e-05,-7e-05,-0.00013000000000000002,-7e-05,7e-05,0.00023999999999999998,0.00011999999999999999,0.0,2
5012,5189,-2.9999999999999997e-05,-7e-05,-0.00013000000000000002,-7e-05,7e-05,0.00023999999999999998,0.00011999999999999999,0.0,2
5013,5190,-2.9999999999999997e-05,-7e-05,-0.00013000000000000002,-7e-05,7e-05,0.00023999999999999998,0.00011999999999999999,0.0,2
5014,5191,-2e-05,-2.9999999999999997e-05,0.00018,0.0001,-0.00025,-0.0007599999999999999,-0.00028,-4e-05,2
5015,5192,-2e-05,-2.9999999999999997e-05,0.00018,0.0001,-0.00025,-0.0007599999999999999,-0.00028,-4e-05,2
5016,5193,-2e-05,-2.9999999999999997e-05,0.00018,0.0001,-0.00025,-0.0007599999999999999,-0.00028,-4e-05,2
5017,5194,-2e-05,-2.9999999999999997e-05,0.00018,0.0001,-0.00025,-0.0007599999999999999,-0.00028,-4e-05,2
5018,5195,-2e-05,-2.9999999999999997e-05,0.00018,0.0001,-0.00025,-0.0007599999999999999,-0.00028,-4e-05,2
5019,5196,-2e-05,-2.9999999999999997e-05,0.00018,0.0001,-0.00025,-0.0007599999999999999,-0.00028,-4e-05,2
5020,5197,-2e-05,-2.9999999999999997e-05,0.00018,0.0001,-0.00025,-0.0007599999999999999,-0.00028,-4e-05,2
5021,5198,-2e-05,-2.9999999999999997e-05,0.00018,0.0001,-0.00025,-0.0007599999999999999,-0.00028,-4e-05,2
5022,5199,-2e-05,-2.9999999999999997e-05,0.00018,0.0001,-0.00025,-0.0007599999999999999,-0.00028,-4e-05,2
5023,5200,-2e-05,-2.9999999999999997e-05,0.00018,0.0001,-0.00025,-0.0007599999999999999,-0.00028,-4e-05,2
5024,5201,-2e-05,-2.9999999999999997e-05,0.00018,0.0001,-0.00025,-0.0007599999999999999,-0.00028,-4e-05,2
5025,5202,-2e-05,-2.9999999999999997e-05,0.00018,0.0001,-0.00025,-0.0007599999999999999,-0.00028,-4e-05,2
5026,5203,-2e-05,-2.9999999999999997e-05,0.00018,0.0001,-0.00025,-0.0007599999999999999,-0.00028,-4e-05,2
5027,5204,-2e-05,-2.9999999999999997e-05,0.00018,0.0001,-0.00025,-0.0007599999999999999,-0.00028,-4e-05,2
5028,5205,-2e-05,-2.9999999999999997e-05,0.00018,0.0001,-0.00025,-0.0007599999999999999,-0.00028,-4e-05,2
5029,5206,-2.9999999999999997e-05,-0.00011,-0.00043,-2e-05,5.9999999999999995e-05,7e-05,-0.00014,-5e-05,2
5030,5207,-8e-05,-5.9999999999999995e-05,-2e-05,-4e-05,-2.9999999999999997e-05,-0.00032,-0.00031,-0.00011,2
5031,5208,-8e-05,-5.9999999999999995e-05,-2e-05,-4e-05,-2.9999999999999997e-05,-0.00032,-0.00031,-0.00011,2
5032,5209,-8e-05,-5.9999999999999995e-05,-2e-05,-4e-05,-2.9999999999999997e-05,-0.00032,-0.00031,-0.00011,2
5033,5210,-8e-05,-5.9999999999999995e-05,-2e-05,-4e-05,-2.9999999999999997e-05,-0.00032,-0.00031,-0.00011,2
5034,5211,-8e-05,-5.9999999999999995e-05,-2e-05,-4e-05,-2.9999999999999997e-05,-0.00032,-0.00031,-0.00011,2
5035,5212,-8e-05,-5.9999999999999995e-05,-2e-05,-4e-05,-2.9999999999999997e-05,-0.00032,-0.00031,-0.00011,2
5036,5213,-8e-05,-5.9999999999999995e-05,-2e-05,-4e-05,-2.9999999999999997e-05,-0.00032,-0.00031,-0.00011,2
5037,5214,-8e-05,-5.9999999999999995e-05,-2e-05,-4e-05,-2.9999999999999997e-05,-0.00032,-0.00031,-0.00011,2
5038,5215,-8e-05,-5.9999999999999995e-05,-2e-05,-4e-05,-2.9999999999999997e-05,-0.00032,-0.00031,-0.00011,2
5039,5216,-8e-05,-5.9999999999999995e-05,-2e-05,-4e-05,-2.9999999999999997e-05,-0.00032,-0.00031,-0.00011,2
5040,5217,-8e-05,-5.9999999999999995e-05,-2e-05,-4e-05,-2.9999999999999997e-05,-0.00032,-0.00031,-0.00011,2
5041,5218,-8e-05,-5.9999999999999995e-05,-2e-05,-4e-05,-2.9999999999999997e-05,-0.00032,-0.00031,-0.00011,2
5042,5219,-8e-05,-5.9999999999999995e-05,-2e-05,-4e-05,-2.9999999999999997e-05,-0.00032,-0.00031,-0.00011,2
5043,5220,-8e-05,-5.9999999999999995e-05,-2e-05,-4e-05,-2.9999999999999997e-05,-0.00032,-0.00031,-0.00011,2
5044,5221,-8e-05,-5.9999999999999995e-05,-2e-05,-4e-05,-2.9999999999999997e-05,-0.00032,-0.00031,-0.00011,2
5045,5222,-8e-05,-5.9999999999999995e-05,-2e-05,-4e-05,-2.9999999999999997e-05,-0.00032,-0.00031,-0.00011,2
5046,5223,-8e-05,-5.9999999999999995e-05,-2e-05,-4e-05,-2.9999999999999997e-05,-0.00032,-0.00031,-0.00011,2
5047,5224,-8e-05,-5.9999999999999995e-05,-2e-05,-4e-05,-2.9999999999999997e-05,-0.00032,-0.00031,-0.00011,2
5048,5225,-8e-05,-5.9999999999999995e-05,-2e-05,-4e-05,-2.9999999999999997e-05,-0.00032,-0.00031,-0.00011,2
5049,5226,-8e-05,-5.9999999999999995e-05,-2e-05,-4e-05,-2.9999999999999997e-05,-0.00032,-0.00031,-0.00011,2
5050,5227,-8e-05,-5.9999999999999995e-05,-2e-05,-4e-05,-2.9999999999999997e-05,-0.00032,-0.00031,-0.00011,2
5051,5228,-8e-05,-5.9999999999999995e-05,-2e-05,-4e-05,-2.9999999999999997e-05,-0.00032,-0.00031,-0.00011,2
5052,5229,2e-05,2e-05,-5.9999999999999995e-05,-0.00016,-5.9999999999999995e-05,9e-05,-7e-05,-2.9999999999999997e-05,2
5053,5230,2e-05,2e-05,-5.9999999999999995e-05,-0.00016,-5.9999999999999995e-05,9e-05,-7e-05,-2.9999999999999997e-05,2
5054,5231,2e-05,2e-05,-5.9999999999999995e-05,-0.00016,-5.9999999999999995e-05,9e-05,-7e-05,-2.9999999999999997e-05,2
5055,5232,2e-05,2e-05,-5.9999999999999995e-05,-0.00016,-5.9999999999999995e-05,9e-05,-7e-05,-2.9999999999999997e-05,2
5056,5233,2e-05,2e-05,-5.9999999999999995e-05,-0.00016,-5.9999999999999995e-05,9e-05,-7e-05,-2.9999999999999997e-05,2
5057,5234,2e-05,2e-05,-5.9999999999999995e-05,-0.00016,-5.9999999999999995e-05,9e-05,-7e-05,-2.9999999999999997e-05,2
5058,5235,2e-05,2e-05,-5.9999999999999995e-05,-0.00016,-5.9999999999999995e-05,9e-05,-7e-05,-2.9999999999999997e-05,2
5059,5236,2e-05,2e-05,-5.9999999999999995e-05,-0.00016,-5.9999999999999995e-05,9e-05,-7e-05,-2.9999999999999997e-05,2
5060,5238,2e-05,2e-05,-5.9999999999999995e-05,-0.00016,-5.9999999999999995e-05,9e-05,-7e-05,-2.9999999999999997e-05,2
5061,5239,2e-05,2e-05,-5.9999999999999995e-05,-0.00016,-5.9999999999999995e-05,9e-05,-7e-05,-2.9999999999999997e-05,2
5062,5240,2e-05,2e-05,-5.9999999999999995e-05,-0.00016,-5.9999999999999995e-05,9e-05,-7e-05,-2.9999999999999997e-05,2
5063,5241,2e-05,2e-05,-5.9999999999999995e-05,-0.00016,-5.9999999999999995e-05,9e-05,-7e-05,-2.9999999999999997e-05,2
5064,5242,2e-05,2e-05,-5.9999999999999995e-05,-0.00016,-5.9999999999999995e-05,9e-05,-7e-05,-2.9999999999999997e-05,2
5065,5243,-4e-05,0.0,7e-05,-0.0001,-0.00016999999999999999,-0.00043,-0.00011,-5e-05,2
5066,5244,-1e-05,4e-05,0.00011999999999999999,0.00021,-0.00014,-0.00056,2.9999999999999997e-05,-5e-05,2
5067,5245,-1e-05,4e-05,0.00011999999999999999,0.00021,-0.00014,-0.00056,2.9999999999999997e-05,-5e-05,2
5068,5246,-1e-05,4e-05,0.00011999999999999999,0.00021,-0.00014,-0.00056,2.9999999999999997e-05,-5e-05,2
5069,5247,-1e-05,4e-05,0.00011999999999999999,0.00021,-0.00014,-0.00056,2.9999999999999997e-05,-5e-05,2
5070,5248,-1e-05,4e-05,0.00011999999999999999,0.00021,-0.00014,-0.00056,2.9999999999999997e-05,-5e-05,2
5071,5249,-1e-05,4e-05,0.00011999999999999999,0.00021,-0.00014,-0.00056,2.9999999999999997e-05,-5e-05,2
5072,5250,-1e-05,4e-05,0.00011999999999999999,0.00021,-0.00014,-0.00056,2.9999999999999997e-05,-5e-05,2
5073,5251,-1e-05,4e-05,0.00011999999999999999,0.00021,-0.00014,-0.00056,2.9999999999999997e-05,-5e-05,2
5074,5252,-1e-05,4e-05,0.00011999999999999999,0.00021,-0.00014,-0.00056,2.9999999999999997e-05,-5e-05,2
5075,5253,-1e-05,4e-05,0.00011999999999999999,0.00021,-0.00014,-0.00056,2.9999999999999997e-05,-5e-05,2
5076,5254,-1e-05,4e-05,0.00011999999999999999,0.00021,-0.00014,-0.00056,2.9999999999999997e-05,-5e-05,2
5077,5255,-1e-05,4e-05,0.00011999999999999999,0.00021,-0.00014,-0.00056,2.9999999999999997e-05,-5e-05,2
5078,5256,-1e-05,4e-05,0.00011999999999999999,0.00021,-0.00014,-0.00056,2.9999999999999997e-05,-5e-05,2
5079,5257,-1e-05,4e-05,0.00011999999999999999,0.00021,-0.00014,-0.00056,2.9999999999999997e-05,-5e-05,2
5080,5258,-1e-05,4e-05,0.00011999999999999999,0.00021,-0.00014,-0.00056,2.9999999999999997e-05,-5e-05,2
5081,5259,-1e-05,4e-05,0.00011999999999999999,0.00021,-0.00014,-0.00056,2.9999999999999997e-05,-5e-05,2
5082,5260,-1e-05,4e-05,0.00011999999999999999,0.00021,-0.00014,-0.00056,2.9999999999999997e-05,-5e-05,2
5083,5261,-1e-05,4e-05,0.00011999999999999999,0.00021,-0.00014,-0.00056,2.9999999999999997e-05,-5e-05,2
5084,5262,-1e-05,4e-05,0.00011999999999999999,0.00021,-0.00014,-0.00056,2.9999999999999997e-05,-5e-05,2
5085,5263,-1e-05,4e-05,0.00011999999999999999,0.00021,-0.00014,-0.00056,2.9999999999999997e-05,-5e-05,2
5086,5264,-1e-05,4e-05,0.00011999999999999999,0.00021,-0.00014,-0.00056,2.9999999999999997e-05,-5e-05,2
5087,5265,-1e-05,4e-05,0.00011999999999999999,0.00021,-0.00014,-0.00056,2.9999999999999997e-05,-5e-05,2
5088,5266,-1e-05,4e-05,0.00011999999999999999,0.00021,-0.00014,-0.00056,2.9999999999999997e-05,-5e-05,2
5089,5267,5.9999999999999995e-05,5.9999999999999995e-05,0.0001,-5e-05,5.9999999999999995e-05,0.00027,5e-05,7e-05,2
5090,5268,5.9999999999999995e-05,5.9999999999999995e-05,0.0001,-5e-05,5.9999999999999995e-05,0.00027,5e-05,7e-05,2
5091,5269,5.9999999999999995e-05,5.9999999999999995e-05,0.0001,-5e-05,5.9999999999999995e-05,0.00027,5e-05,7e-05,2
5092,5270,5.9999999999999995e-05,5.9999999999999995e-05,0.0001,-5e-05,5.9999999999999995e-05,0.00027,5e-05,7e-05,2
5093,5271,5.9999999999999995e-05,5.9999999999999995e-05,0.0001,-5e-05,5.9999999999999995e-05,0.00027,5e-05,7e-05,2
5094,5272,5.9999999999999995e-05,5.9999999999999995e-05,0.0001,-5e-05,5.9999999999999995e-05,0.00027,5e-05,7e-05,2
5095,5273,0.0,-2e-05,7e-05,5.9999999999999995e-05,-8e-05,-0.00027,-4e-05,-1e-05,2
5096,5274,0.0,-2e-05,7e-05,5.9999999999999995e-05,-8e-05,-0.00027,-4e-05,-1e-05,2
5097,5275,0.0,-2e-05,7e-05,5.9999999999999995e-05,-8e-05,-0.00027,-4e-05,-1e-05,2
5098,5276,0.0,-2e-05,7e-05,5.9999999999999995e-05,-8e-05,-0.00027,-4e-05,-1e-05,2
5099,5277,0.0,-2e-05,7e-05,5.9999999999999995e-05,-8e-05,-0.00027,-4e-05,-1e-05,2
5100,5278,0.0,-2e-05,7e-05,5.9999999999999995e-05,-8e-05,-0.00027,-4e-05,-1e-05,2
5101,5279,0.0,-2e-05,7e-05,5.9999999999999995e-05,-8e-05,-0.00027,-4e-05,-1e-05,2
5102,5280,0.0,-2e-05,7e-05,5.9999999999999995e-05,-8e-05,-0.00027,-4e-05,-1e-05,2
5103,5281,0.0,-2e-05,7e-05,5.9999999999999995e-05,-8e-05,-0.00027,-4e-05,-1e-05,2
5104,5282,0.0,-2e-05,7e-05,5.9999999999999995e-05,-8e-05,-0.00027,-4e-05,-1e-05,2
5105,5283,0.0,-2e-05,7e-05,5.9999999999999995e-05,-8e-05,-0.00027,-4e-05,-1e-05,2
5106,5284,0.0,-2e-05,7e-05,5.9999999999999995e-05,-8e-05,-0.00027,-4e-05,-1e-05,2
5107,5285,0.0,-2e-05,7e-05,5.9999999999999995e-05,-8e-05,-0.00027,-4e-05,-1e-05,2
5108,5286,0.0,-2e-05,7e-05,5.9999999999999995e-05,-8e-05,-0.00027,-4e-05,-1e-05,2
5109,5288,0.0,-2e-05,7e-05,5.9999999999999995e-05,-8e-05,-0.00027,-4e-05,-1e-05,2
5110,5289,5.9999999999999995e-05,0.0,2.9999999999999997e-05,-0.00025,-4e-05,0.00033,0.00032,2.9999999999999997e-05,2
5111,5290,-5e-05,-1e-05,-0.00023999999999999998,-0.00022,-9e-05,5.9999999999999995e-05,0.0001,2.9999999999999997e-05,2
5112,5291,-5e-05,-1e-05,-0.00023999999999999998,-0.00022,-9e-05,5.9999999999999995e-05,0.0001,2.9999999999999997e-05,2
5113,5292,-5e-05,-1e-05,-0.00023999999999999998,-0.00022,-9e-05,5.9999999999999995e-05,0.0001,2.9999999999999997e-05,2
5114,5293,-5e-05,-1e-05,-0.00023999999999999998,-0.00022,-9e-05,5.9999999999999995e-05,0.0001,2.9999999999999997e-05,2
5115,5294,-5e-05,-1e-05,-0.00023999999999999998,-0.00022,-9e-05,5.9999999999999995e-05,0.0001,2.9999999999999997e-05,2
5116,5295,-5e-05,-1e-05,-0.00023999999999999998,-0.00022,-9e-05,5.9999999999999995e-05,0.0001,2.9999999999999997e-05,2
5117,5296,-5e-05,-1e-05,-0.00023999999999999998,-0.00022,-9e-05,5.9999999999999995e-05,0.0001,2.9999999999999997e-05,2
5118,5297,-5e-05,-1e-05,-0.00023999999999999998,-0.00022,-9e-05,5.9999999999999995e-05,0.0001,2.9999999999999997e-05,2
5119,5298,-5e-05,-1e-05,-0.00023999999999999998,-0.00022,-9e-05,5.9999999999999995e-05,0.0001,2.9999999999999997e-05,2
5120,5299,-5e-05,-1e-05,-0.00023999999999999998,-0.00022,-9e-05,5.9999999999999995e-05,0.0001,2.9999999999999997e-05,2
5121,5300,-5e-05,-1e-05,-0.00023999999999999998,-0.00022,-9e-05,5.9999999999999995e-05,0.0001,2.9999999999999997e-05,2
5122,5301,-5e-05,-1e-05,-0.00023999999999999998,-0.00022,-9e-05,5.9999999999999995e-05,0.0001,2.9999999999999997e-05,2
5123,5302,-5e-05,-1e-05,-0.00023999999999999998,-0.00022,-9e-05,5.9999999999999995e-05,0.0001,2.9999999999999997e-05,2
5124,5303,2.9999999999999997e-05,-1e-05,4e-05,5e-05,0.00015,1e-05,-7e-05,2.9999999999999997e-05,2
5125,5304,-2e-05,1e-05,9e-05,0.00011,-1e-05,0.00032,0.00011,-2.9999999999999997e-05,2
5126,5305,-2e-05,1e-05,9e-05,0.00011,-1e-05,0.00032,0.00011,-2.9999999999999997e-05,2
5127,5306,-2e-05,1e-05,9e-05,0.00011,-1e-05,0.00032,0.00011,-2.9999999999999997e-05,2
5128,5307,-2e-05,1e-05,9e-05,0.00011,-1e-05,0.00032,0.00011,-2.9999999999999997e-05,2
5129,5308,-2e-05,1e-05,9e-05,0.00011,-1e-05,0.00032,0.00011,-2.9999999999999997e-05,2
5130,5309,-2e-05,1e-05,9e-05,0.00011,-1e-05,0.00032,0.00011,-2.9999999999999997e-05,2
5131,5310,-2e-05,1e-05,9e-05,0.00011,-1e-05,0.00032,0.00011,-2.9999999999999997e-05,2
5132,5311,-2e-05,1e-05,9e-05,0.00011,-1e-05,0.00032,0.00011,-2.9999999999999997e-05,2
5133,5312,-2e-05,1e-05,9e-05,0.00011,-1e-05,0.00032,0.00011,-2.9999999999999997e-05,2
5134,5313,-2e-05,1e-05,9e-05,0.00011,-1e-05,0.00032,0.00011,-2.9999999999999997e-05,2
5135,5314,-2e-05,1e-05,9e-05,0.00011,-1e-05,0.00032,0.00011,-2.9999999999999997e-05,2
5136,5315,-2e-05,1e-05,9e-05,0.00011,-1e-05,0.00032,0.00011,-2.9999999999999997e-05,2
5137,5316,-2e-05,1e-05,9e-05,0.00011,-1e-05,0.00032,0.00011,-2.9999999999999997e-05,2
5138,5317,-2e-05,1e-05,9e-05,0.00011,-1e-05,0.00032,0.00011,-2.9999999999999997e-05,2
5139,5318,-2e-05,1e-05,9e-05,0.00011,-1e-05,0.00032,0.00011,-2.9999999999999997e-05,2
5140,5319,-2e-05,1e-05,9e-05,0.00011,-1e-05,0.00032,0.00011,-2.9999999999999997e-05,2
5141,5320,-2e-05,1e-05,9e-05,0.00011,-1e-05,0.00032,0.00011,-2.9999999999999997e-05,2
5142,5321,-2e-05,1e-05,9e-05,0.00011,-1e-05,0.00032,0.00011,-2.9999999999999997e-05,2
5143,5322,-2e-05,1e-05,9e-05,0.00011,-1e-05,0.00032,0.00011,-2.9999999999999997e-05,2
5144,5323,-2e-05,1e-05,9e-05,0.00011,-1e-05,0.00032,0.00011,-2.9999999999999997e-05,2
5145,5324,-2e-05,1e-05,9e-05,0.00011,-1e-05,0.00032,0.00011,-2.9999999999999997e-05,2
5146,5325,-2e-05,1e-05,9e-05,0.00011,-1e-05,0.00032,0.00011,-2.9999999999999997e-05,2
5147,5326,-2e-05,1e-05,9e-05,0.00011,-1e-05,0.00032,0.00011,-2.9999999999999997e-05,2
5148,5327,-2e-05,0.0,5e-05,5.9999999999999995e-05,7e-05,2e-05,-2e-05,-5.9999999999999995e-05,2
5149,5328,-2e-05,0.0,5e-05,5.9999999999999995e-05,7e-05,2e-05,-2e-05,-5.9999999999999995e-05,2
5150,5330,-2e-05,0.0,5e-05,5.9999999999999995e-05,7e-05,2e-05,-2e-05,-5.9999999999999995e-05,2
5151,5331,-2e-05,0.0,5e-05,5.9999999999999995e-05,7e-05,2e-05,-2e-05,-5.9999999999999995e-05,2
5152,5332,-2e-05,0.0,5e-05,5.9999999999999995e-05,7e-05,2e-05,-2e-05,-5.9999999999999995e-05,2
5153,5333,-2e-05,0.0,5e-05,5.9999999999999995e-05,7e-05,2e-05,-2e-05,-5.9999999999999995e-05,2
5154,5334,-2e-05,0.0,5e-05,5.9999999999999995e-05,7e-05,2e-05,-2e-05,-5.9999999999999995e-05,2
5155,5335,-2e-05,0.0,5e-05,5.9999999999999995e-05,7e-05,2e-05,-2e-05,-5.9999999999999995e-05,2
5156,5336,-2e-05,0.0,5e-05,5.9999999999999995e-05,7e-05,2e-05,-2e-05,-5.9999999999999995e-05,2
5157,5338,-2e-05,0.0,5e-05,5.9999999999999995e-05,7e-05,2e-05,-2e-05,-5.9999999999999995e-05,2
5158,5339,-2e-05,0.0,5e-05,5.9999999999999995e-05,7e-05,2e-05,-2e-05,-5.9999999999999995e-05,2
5159,5340,-2e-05,0.0,5e-05,5.9999999999999995e-05,7e-05,2e-05,-2e-05,-5.9999999999999995e-05,2
5160,5341,-2e-05,0.0,5e-05,5.9999999999999995e-05,7e-05,2e-05,-2e-05,-5.9999999999999995e-05,2
5161,5342,-2e-05,0.0,5e-05,5.9999999999999995e-05,7e-05,2e-05,-2e-05,-5.9999999999999995e-05,2
5162,5343,-2e-05,0.0,5e-05,5.9999999999999995e-05,7e-05,2e-05,-2e-05,-5.9999999999999995e-05,2
5163,5344,-2e-05,0.0,5e-05,5.9999999999999995e-05,7e-05,2e-05,-2e-05,-5.9999999999999995e-05,2
5164,5345,-2e-05,0.0,5e-05,5.9999999999999995e-05,7e-05,2e-05,-2e-05,-5.9999999999999995e-05,2
5165,5346,-2e-05,0.0,5e-05,5.9999999999999995e-05,7e-05,2e-05,-2e-05,-5.9999999999999995e-05,2
5166,5347,-2e-05,0.0,5e-05,5.9999999999999995e-05,7e-05,2e-05,-2e-05,-5.9999999999999995e-05,2
5167,5348,-2e-05,0.0,5e-05,5.9999999999999995e-05,7e-05,2e-05,-2e-05,-5.9999999999999995e-05,2
5168,5349,-5.9999999999999995e-05,-0.00011999999999999999,-0.00037,-0.00013000000000000002,2e-05,0.00011999999999999999,-1e-05,-1e-05,2
5169,5350,-5e-05,-1e-05,0.00022,5e-05,-0.00016999999999999999,-0.00025,-0.00022,-1e-05,2
5170,5351,-5e-05,-1e-05,0.00022,5e-05,-0.00016999999999999999,-0.00025,-0.00022,-1e-05,2
5171,5352,-5e-05,-1e-05,0.00022,5e-05,-0.00016999999999999999,-0.00025,-0.00022,-1e-05,2
5172,5353,-5e-05,-1e-05,0.00022,5e-05,-0.00016999999999999999,-0.00025,-0.00022,-1e-05,2
5173,5354,-5e-05,-1e-05,0.00022,5e-05,-0.00016999999999999999,-0.00025,-0.00022,-1e-05,2
5174,5355,-5e-05,-1e-05,0.00022,5e-05,-0.00016999999999999999,-0.00025,-0.00022,-1e-05,2
5175,5356,-5e-05,-1e-05,0.00022,5e-05,-0.00016999999999999999,-0.00025,-0.00022,-1e-05,2
5176,5357,-5e-05,-1e-05,0.00022,5e-05,-0.00016999999999999999,-0.00025,-0.00022,-1e-05,2
5177,5358,-5e-05,-1e-05,0.00022,5e-05,-0.00016999999999999999,-0.00025,-0.00022,-1e-05,2
5178,5359,-5e-05,-1e-05,0.00022,5e-05,-0.00016999999999999999,-0.00025,-0.00022,-1e-05,2
5179,5360,-5e-05,-1e-05,0.00022,5e-05,-0.00016999999999999999,-0.00025,-0.00022,-1e-05,2
5180,5361,-5e-05,-1e-05,0.00022,5e-05,-0.00016999999999999999,-0.00025,-0.00022,-1e-05,2
5181,5362,-5e-05,-1e-05,0.00022,5e-05,-0.00016999999999999999,-0.00025,-0.00022,-1e-05,2
5182,5363,-5.9999999999999995e-05,-2.9999999999999997e-05,-1e-05,0.00011999999999999999,0.00016999999999999999,0.00032,-4e-05,-1e-05,2
5183,5364,2e-05,-5e-05,-1e-05,8e-05,0.00013000000000000002,0.00015,-2.9999999999999997e-05,2e-05,2
5184,5365,2e-05,-5e-05,-1e-05,8e-05,0.00013000000000000002,0.00015,-2.9999999999999997e-05,2e-05,2
5185,5366,2e-05,-5e-05,-1e-05,8e-05,0.00013000000000000002,0.00015,-2.9999999999999997e-05,2e-05,2
5186,5367,2e-05,-5e-05,-1e-05,8e-05,0.00013000000000000002,0.00015,-2.9999999999999997e-05,2e-05,2
5187,5368,2e-05,-5e-05,-1e-05,8e-05,0.00013000000000000002,0.00015,-2.9999999999999997e-05,2e-05,2
5188,5369,2e-05,-5e-05,-1e-05,8e-05,0.00013000000000000002,0.00015,-2.9999999999999997e-05,2e-05,2
5189,5370,2e-05,-5e-05,-1e-05,8e-05,0.00013000000000000002,0.00015,-2.9999999999999997e-05,2e-05,2
5190,5371,2e-05,-5e-05,-1e-05,8e-05,0.00013000000000000002,0.00015,-2.9999999999999997e-05,2e-05,2
5191,5372,2e-05,-5e-05,-1e-05,8e-05,0.00013000000000000002,0.00015,-2.9999999999999997e-05,2e-05,2
5192,5373,2e-05,-5e-05,-1e-05,8e-05,0.00013000000000000002,0.00015,-2.9999999999999997e-05,2e-05,2
5193,5374,2e-05,-5e-05,-1e-05,8e-05,0.00013000000000000002,0.00015,-2.9999999999999997e-05,2e-05,2
5194,5375,2e-05,-5e-05,-1e-05,8e-05,0.00013000000000000002,0.00015,-2.9999999999999997e-05,2e-05,2
5195,5376,2e-05,-5e-05,-1e-05,8e-05,0.00013000000000000002,0.00015,-2.9999999999999997e-05,2e-05,2
5196,5377,2e-05,-5e-05,-1e-05,8e-05,0.00013000000000000002,0.00015,-2.9999999999999997e-05,2e-05,2
5197,5378,2e-05,-5e-05,-1e-05,8e-05,0.00013000000000000002,0.00015,-2.9999999999999997e-05,2e-05,2
5198,5379,2e-05,-5e-05,-1e-05,8e-05,0.00013000000000000002,0.00015,-2.9999999999999997e-05,2e-05,2
5199,5380,2e-05,-5e-05,-1e-05,8e-05,0.00013000000000000002,0.00015,-2.9999999999999997e-05,2e-05,2
5200,5381,2e-05,-5e-05,-1e-05,8e-05,0.00013000000000000002,0.00015,-2.9999999999999997e-05,2e-05,2
5201,5382,2e-05,-5e-05,-1e-05,8e-05,0.00013000000000000002,0.00015,-2.9999999999999997e-05,2e-05,2
5202,5383,2e-05,-5e-05,-1e-05,8e-05,0.00013000000000000002,0.00015,-2.9999999999999997e-05,2e-05,2
5203,5384,2e-05,-5e-05,-1e-05,8e-05,0.00013000000000000002,0.00015,-2.9999999999999997e-05,2e-05,2
5204,5385,2e-05,-5e-05,-1e-05,8e-05,0.00013000000000000002,0.00015,-2.9999999999999997e-05,2e-05,2
5205,5386,2e-05,-5e-05,-1e-05,8e-05,0.00013000000000000002,0.00015,-2.9999999999999997e-05,2e-05,2
5206,5388,2e-05,-1e-05,-1e-05,0.00014,0.0001,-0.00037,2.9999999999999997e-05,5.9999999999999995e-05,2
5207,5389,2e-05,-1e-05,-1e-05,0.00014,0.0001,-0.00037,2.9999999999999997e-05,5.9999999999999995e-05,2
5208,5390,2e-05,-1e-05,-1e-05,0.00014,0.0001,-0.00037,2.9999999999999997e-05,5.9999999999999995e-05,2
5209,5391,2e-05,-1e-05,-1e-05,0.00014,0.0001,-0.00037,2.9999999999999997e-05,5.9999999999999995e-05,2
5210,5392,2e-05,-1e-05,-1e-05,0.00014,0.0001,-0.00037,2.9999999999999997e-05,5.9999999999999995e-05,2
5211,5393,2e-05,-1e-05,-1e-05,0.00014,0.0001,-0.00037,2.9999999999999997e-05,5.9999999999999995e-05,2
5212,5394,2e-05,-1e-05,-1e-05,0.00014,0.0001,-0.00037,2.9999999999999997e-05,5.9999999999999995e-05,2
5213,5395,2e-05,-1e-05,-1e-05,0.00014,0.0001,-0.00037,2.9999999999999997e-05,5.9999999999999995e-05,2
5214,5396,2e-05,-1e-05,-1e-05,0.00014,0.0001,-0.00037,2.9999999999999997e-05,5.9999999999999995e-05,2
5215,5397,2e-05,-1e-05,-1e-05,0.00014,0.0001,-0.00037,2.9999999999999997e-05,5.9999999999999995e-05,2
5216,5398,2e-05,-1e-05,-1e-05,0.00014,0.0001,-0.00037,2.9999999999999997e-05,5.9999999999999995e-05,2
5217,5399,2e-05,-1e-05,-1e-05,0.00014,0.0001,-0.00037,2.9999999999999997e-05,5.9999999999999995e-05,2
5218,5400,2e-05,-1e-05,-1e-05,0.00014,0.0001,-0.00037,2.9999999999999997e-05,5.9999999999999995e-05,2
5219,5401,2e-05,-1e-05,-1e-05,0.00014,0.0001,-0.00037,2.9999999999999997e-05,5.9999999999999995e-05,2
5220,5402,2e-05,-1e-05,-1e-05,0.00014,0.0001,-0.00037,2.9999999999999997e-05,5.9999999999999995e-05,2
5221,5403,2e-05,-1e-05,-1e-05,0.00014,0.0001,-0.00037,2.9999999999999997e-05,5.9999999999999995e-05,2
5222,5404,2e-05,-1e-05,-1e-05,0.00014,0.0001,-0.00037,2.9999999999999997e-05,5.9999999999999995e-05,2
5223,5405,2e-05,-1e-05,-1e-05,0.00014,0.0001,-0.00037,2.9999999999999997e-05,5.9999999999999995e-05,2
5224,5406,2e-05,-1e-05,-1e-05,0.00014,0.0001,-0.00037,2.9999999999999997e-05,5.9999999999999995e-05,2
5225,5407,2e-05,-1e-05,-1e-05,0.00014,0.0001,-0.00037,2.9999999999999997e-05,5.9999999999999995e-05,2
5226,5408,2e-05,-1e-05,-1e-05,0.00014,0.0001,-0.00037,2.9999999999999997e-05,5.9999999999999995e-05,2
5227,5409,2e-05,-1e-05,-1e-05,0.00014,0.0001,-0.00037,2.9999999999999997e-05,5.9999999999999995e-05,2
5228,5410,2e-05,-1e-05,-1e-05,0.00014,0.0001,-0.00037,2.9999999999999997e-05,5.9999999999999995e-05,2
5229,5411,2e-05,-1e-05,-1e-05,0.00014,0.0001,-0.00037,2.9999999999999997e-05,5.9999999999999995e-05,2
5230,5412,2e-05,-1e-05,-1e-05,0.00014,0.0001,-0.00037,2.9999999999999997e-05,5.9999999999999995e-05,2
5231,5413,2e-05,-1e-05,-1e-05,0.00014,0.0001,-0.00037,2.9999999999999997e-05,5.9999999999999995e-05,2
5232,5414,2e-05,-1e-05,-1e-05,0.00014,0.0001,-0.00037,2.9999999999999997e-05,5.9999999999999995e-05,2
5233,5415,2e-05,-1e-05,-1e-05,0.00014,0.0001,-0.00037,2.9999999999999997e-05,5.9999999999999995e-05,2
5234,5416,2e-05,-1e-05,-1e-05,0.00014,0.0001,-0.00037,2.9999999999999997e-05,5.9999999999999995e-05,2
5235,5417,2e-05,-1e-05,-2e-05,2e-05,7e-05,0.0003,9e-05,1e-05,2
5236,5418,2e-05,-1e-05,-2e-05,2e-05,7e-05,0.0003,9e-05,1e-05,2
5237,5419,2e-05,-1e-05,-2e-05,2e-05,7e-05,0.0003,9e-05,1e-05,2
5238,5420,2e-05,-1e-05,-2e-05,2e-05,7e-05,0.0003,9e-05,1e-05,2
5239,5421,2e-05,-1e-05,-2e-05,2e-05,7e-05,0.0003,9e-05,1e-05,2
5240,5422,2e-05,-1e-05,-2e-05,2e-05,7e-05,0.0003,9e-05,1e-05,2
5241,5423,-2e-05,-1e-05,2e-05,-0.00013000000000000002,-0.00011999999999999999,0.00035,1e-05,-4e-05,2
5242,5424,5e-05,1e-05,-4e-05,-0.00026000000000000003,-0.00018999999999999998,-0.00061,-8e-05,-7e-05,2
5243,5425,5e-05,1e-05,-4e-05,-0.00026000000000000003,-0.00018999999999999998,-0.00061,-8e-05,-7e-05,2
5244,5426,5e-05,1e-05,-4e-05,-0.00026000000000000003,-0.00018999999999999998,-0.00061,-8e-05,-7e-05,2
5245,5427,5e-05,1e-05,-4e-05,-0.00026000000000000003,-0.00018999999999999998,-0.00061,-8e-05,-7e-05,2
5246,5428,5e-05,1e-05,-4e-05,-0.00026000000000000003,-0.00018999999999999998,-0.00061,-8e-05,-7e-05,2
5247,5429,5e-05,1e-05,-4e-05,-0.00026000000000000003,-0.00018999999999999998,-0.00061,-8e-05,-7e-05,2
5248,5430,5e-05,1e-05,-4e-05,-0.00026000000000000003,-0.00018999999999999998,-0.00061,-8e-05,-7e-05,2
5249,5431,5e-05,1e-05,-4e-05,-0.00026000000000000003,-0.00018999999999999998,-0.00061,-8e-05,-7e-05,2
5250,5432,5e-05,1e-05,-4e-05,-0.00026000000000000003,-0.00018999999999999998,-0.00061,-8e-05,-7e-05,2
5251,5433,5e-05,1e-05,-4e-05,-0.00026000000000000003,-0.00018999999999999998,-0.00061,-8e-05,-7e-05,2
5252,5434,5e-05,1e-05,-4e-05,-0.00026000000000000003,-0.00018999999999999998,-0.00061,-8e-05,-7e-05,2
5253,5435,5e-05,1e-05,-4e-05,-0.00026000000000000003,-0.00018999999999999998,-0.00061,-8e-05,-7e-05,2
5254,5436,5e-05,1e-05,-4e-05,-0.00026000000000000003,-0.00018999999999999998,-0.00061,-8e-05,-7e-05,2
5255,5438,5e-05,1e-05,-4e-05,-0.00026000000000000003,-0.00018999999999999998,-0.00061,-8e-05,-7e-05,2
5256,5439,5e-05,1e-05,-4e-05,-0.00026000000000000003,-0.00018999999999999998,-0.00061,-8e-05,-7e-05,2
5257,5440,5e-05,1e-05,-4e-05,-0.00026000000000000003,-0.00018999999999999998,-0.00061,-8e-05,-7e-05,2
5258,5441,5e-05,1e-05,-4e-05,-0.00026000000000000003,-0.00018999999999999998,-0.00061,-8e-05,-7e-05,2
5259,5442,5e-05,1e-05,-4e-05,-0.00026000000000000003,-0.00018999999999999998,-0.00061,-8e-05,-7e-05,2
5260,5443,5e-05,1e-05,-4e-05,-0.00026000000000000003,-0.00018999999999999998,-0.00061,-8e-05,-7e-05,2
5261,5444,5e-05,1e-05,-4e-05,-0.00026000000000000003,-0.00018999999999999998,-0.00061,-8e-05,-7e-05,2
5262,5445,5e-05,1e-05,-4e-05,-0.00026000000000000003,-0.00018999999999999998,-0.00061,-8e-05,-7e-05,2
5263,5446,5e-05,1e-05,-4e-05,-0.00026000000000000003,-0.00018999999999999998,-0.00061,-8e-05,-7e-05,2
5264,5447,1e-05,-8e-05,-0.00022999999999999998,-0.0001,5.9999999999999995e-05,7e-05,0.00014,4e-05,2
5265,5449,1e-05,-8e-05,-0.00022999999999999998,-0.0001,5.9999999999999995e-05,7e-05,0.00014,4e-05,2
5266,5450,1e-05,-8e-05,-0.00022999999999999998,-0.0001,5.9999999999999995e-05,7e-05,0.00014,4e-05,2
5267,5451,1e-05,-8e-05,-0.00022999999999999998,-0.0001,5.9999999999999995e-05,7e-05,0.00014,4e-05,2
5268,5452,1e-05,-8e-05,-0.00022999999999999998,-0.0001,5.9999999999999995e-05,7e-05,0.00014,4e-05,2
5269,5453,1e-05,-8e-05,-0.00022999999999999998,-0.0001,5.9999999999999995e-05,7e-05,0.00014,4e-05,2
5270,5454,1e-05,-8e-05,-0.00022999999999999998,-0.0001,5.9999999999999995e-05,7e-05,0.00014,4e-05,2
5271,5455,1e-05,-8e-05,-0.00022999999999999998,-0.0001,5.9999999999999995e-05,7e-05,0.00014,4e-05,2
5272,5456,1e-05,-8e-05,-0.00022999999999999998,-0.0001,5.9999999999999995e-05,7e-05,0.00014,4e-05,2
5273,5457,1e-05,-8e-05,-0.00022999999999999998,-0.0001,5.9999999999999995e-05,7e-05,0.00014,4e-05,2
5274,5458,1e-05,-8e-05,-0.00022999999999999998,-0.0001,5.9999999999999995e-05,7e-05,0.00014,4e-05,2
5275,5459,1e-05,-8e-05,-0.00022999999999999998,-0.0001,5.9999999999999995e-05,7e-05,0.00014,4e-05,2
5276,5460,2e-05,2e-05,1e-05,-7e-05,0.00016,0.00016,0.00016999999999999999,2e-05,2
5277,5461,2e-05,2e-05,1e-05,-7e-05,0.00016,0.00016,0.00016999999999999999,2e-05,2
5278,5462,2e-05,2e-05,1e-05,-7e-05,0.00016,0.00016,0.00016999999999999999,2e-05,2
5279,5463,2e-05,2e-05,1e-05,-7e-05,0.00016,0.00016,0.00016999999999999999,2e-05,2
5280,5464,2e-05,2e-05,1e-05,-7e-05,0.00016,0.00016,0.00016999999999999999,2e-05,2
5281,5465,2e-05,2e-05,1e-05,-7e-05,0.00016,0.00016,0.00016999999999999999,2e-05,2
5282,5466,2e-05,2e-05,1e-05,-7e-05,0.00016,0.00016,0.00016999999999999999,2e-05,2
5283,5467,2e-05,2e-05,1e-05,-7e-05,0.00016,0.00016,0.00016999999999999999,2e-05,2
5284,5468,2e-05,2e-05,1e-05,-7e-05,0.00016,0.00016,0.00016999999999999999,2e-05,2
5285,5469,-2.9999999999999997e-05,-5e-05,-0.00014,4e-05,-8e-05,-0.00044,-5e-05,-5.9999999999999995e-05,2
5286,5470,0.0,-7e-05,-0.00016999999999999999,9e-05,7e-05,0.00047999999999999996,2.9999999999999997e-05,2.9999999999999997e-05,2
5287,5471,0.0,-7e-05,-0.00016999999999999999,9e-05,7e-05,0.00047999999999999996,2.9999999999999997e-05,2.9999999999999997e-05,2
5288,5472,0.0,-7e-05,-0.00016999999999999999,9e-05,7e-05,0.00047999999999999996,2.9999999999999997e-05,2.9999999999999997e-05,2
5289,5473,0.0,-7e-05,-0.00016999999999999999,9e-05,7e-05,0.00047999999999999996,2.9999999999999997e-05,2.9999999999999997e-05,2
5290,5474,0.0,-7e-05,-0.00016999999999999999,9e-05,7e-05,0.00047999999999999996,2.9999999999999997e-05,2.9999999999999997e-05,2
5291,5475,0.0,-7e-05,-0.00016999999999999999,9e-05,7e-05,0.00047999999999999996,2.9999999999999997e-05,2.9999999999999997e-05,2
5292,5476,0.0,-7e-05,-0.00016999999999999999,9e-05,7e-05,0.00047999999999999996,2.9999999999999997e-05,2.9999999999999997e-05,2
5293,5477,0.0,-7e-05,-0.00016999999999999999,9e-05,7e-05,0.00047999999999999996,2.9999999999999997e-05,2.9999999999999997e-05,2
5294,5478,0.0,-7e-05,-0.00016999999999999999,9e-05,7e-05,0.00047999999999999996,2.9999999999999997e-05,2.9999999999999997e-05,2
5295,5479,0.0,-7e-05,-0.00016999999999999999,9e-05,7e-05,0.00047999999999999996,2.9999999999999997e-05,2.9999999999999997e-05,2
5296,5480,0.0,-7e-05,-0.00016999999999999999,9e-05,7e-05,0.00047999999999999996,2.9999999999999997e-05,2.9999999999999997e-05,2
5297,5481,0.0,-7e-05,-0.00016999999999999999,9e-05,7e-05,0.00047999999999999996,2.9999999999999997e-05,2.9999999999999997e-05,2
5298,5482,-4e-05,1e-05,0.0002,0.00021,5.9999999999999995e-05,5.9999999999999995e-05,-0.00018,-1e-05,2
5299,5483,1e-05,1e-05,-0.00021,-0.00036,4e-05,-0.00028,-0.00014,-2e-05,2
5300,5484,1e-05,1e-05,-0.00021,-0.00036,4e-05,-0.00028,-0.00014,-2e-05,2
5301,5485,1e-05,1e-05,-0.00021,-0.00036,4e-05,-0.00028,-0.00014,-2e-05,2
5302,5486,1e-05,1e-05,-0.00021,-0.00036,4e-05,-0.00028,-0.00014,-2e-05,2
5303,5488,1e-05,1e-05,-0.00021,-0.00036,4e-05,-0.00028,-0.00014,-2e-05,2
5304,5489,1e-05,1e-05,-0.00021,-0.00036,4e-05,-0.00028,-0.00014,-2e-05,2
5305,5490,1e-05,1e-05,-0.00021,-0.00036,4e-05,-0.00028,-0.00014,-2e-05,2
5306,5491,1e-05,5e-05,0.0,-2.9999999999999997e-05,1e-05,-8e-05,4e-05,2e-05,2
5307,5492,1e-05,5e-05,0.0,-2.9999999999999997e-05,1e-05,-8e-05,4e-05,2e-05,2
5308,5493,1e-05,5e-05,0.0,-2.9999999999999997e-05,1e-05,-8e-05,4e-05,2e-05,2
5309,5494,1e-05,5e-05,0.0,-2.9999999999999997e-05,1e-05,-8e-05,4e-05,2e-05,2
5310,5495,1e-05,5e-05,0.0,-2.9999999999999997e-05,1e-05,-8e-05,4e-05,2e-05,2
5311,5496,1e-05,5e-05,0.0,-2.9999999999999997e-05,1e-05,-8e-05,4e-05,2e-05,2
5312,5497,1e-05,5e-05,0.0,-2.9999999999999997e-05,1e-05,-8e-05,4e-05,2e-05,2
5313,5498,1e-05,5e-05,0.0,-2.9999999999999997e-05,1e-05,-8e-05,4e-05,2e-05,2
5314,5499,1e-05,5e-05,0.0,-2.9999999999999997e-05,1e-05,-8e-05,4e-05,2e-05,2
5315,5500,1e-05,5e-05,0.0,-2.9999999999999997e-05,1e-05,-8e-05,4e-05,2e-05,2
5316,5501,1e-05,5e-05,0.0,-2.9999999999999997e-05,1e-05,-8e-05,4e-05,2e-05,2
5317,5502,1e-05,5e-05,0.0,-2.9999999999999997e-05,1e-05,-8e-05,4e-05,2e-05,2
5318,5503,1e-05,5e-05,0.0,-2.9999999999999997e-05,1e-05,-8e-05,4e-05,2e-05,2
5319,5504,1e-05,5e-05,0.0,-2.9999999999999997e-05,1e-05,-8e-05,4e-05,2e-05,2
5320,5505,1e-05,5e-05,0.0,-2.9999999999999997e-05,1e-05,-8e-05,4e-05,2e-05,2
5321,5506,1e-05,5e-05,0.0,-2.9999999999999997e-05,1e-05,-8e-05,4e-05,2e-05,2
5322,5507,4e-05,0.00011,0.00018,1e-05,0.00018999999999999998,-1e-05,7e-05,5e-05,2
5323,5508,-0.00011,-7e-05,-7e-05,5.9999999999999995e-05,-5.9999999999999995e-05,-0.00027,4e-05,-2e-05,2
5324,5509,-0.00011,-7e-05,-7e-05,5.9999999999999995e-05,-5.9999999999999995e-05,-0.00027,4e-05,-2e-05,2
5325,5510,-0.00011,-7e-05,-7e-05,5.9999999999999995e-05,-5.9999999999999995e-05,-0.00027,4e-05,-2e-05,2
5326,5511,-0.00011,-7e-05,-7e-05,5.9999999999999995e-05,-5.9999999999999995e-05,-0.00027,4e-05,-2e-05,2
5327,5512,-0.00011,-7e-05,-7e-05,5.9999999999999995e-05,-5.9999999999999995e-05,-0.00027,4e-05,-2e-05,2
5328,5513,-0.00011,-7e-05,-7e-05,5.9999999999999995e-05,-5.9999999999999995e-05,-0.00027,4e-05,-2e-05,2
5329,5514,-0.00011,-7e-05,-7e-05,5.9999999999999995e-05,-5.9999999999999995e-05,-0.00027,4e-05,-2e-05,2
5330,5515,-0.00011,-7e-05,-7e-05,5.9999999999999995e-05,-5.9999999999999995e-05,-0.00027,4e-05,-2e-05,2
5331,5516,-0.00011,-7e-05,-7e-05,5.9999999999999995e-05,-5.9999999999999995e-05,-0.00027,4e-05,-2e-05,2
5332,5517,-0.00011,-7e-05,-7e-05,5.9999999999999995e-05,-5.9999999999999995e-05,-0.00027,4e-05,-2e-05,2
5333,5518,-0.00011,-7e-05,-7e-05,5.9999999999999995e-05,-5.9999999999999995e-05,-0.00027,4e-05,-2e-05,2
5334,5519,-0.00011,-7e-05,-7e-05,5.9999999999999995e-05,-5.9999999999999995e-05,-0.00027,4e-05,-2e-05,2
5335,5520,-0.00011,-7e-05,-7e-05,5.9999999999999995e-05,-5.9999999999999995e-05,-0.00027,4e-05,-2e-05,2
5336,5521,-0.00011,-7e-05,-7e-05,5.9999999999999995e-05,-5.9999999999999995e-05,-0.00027,4e-05,-2e-05,2
5337,5522,-0.00011,-7e-05,-7e-05,5.9999999999999995e-05,-5.9999999999999995e-05,-0.00027,4e-05,-2e-05,2
5338,5523,-0.00011,-7e-05,-7e-05,5.9999999999999995e-05,-5.9999999999999995e-05,-0.00027,4e-05,-2e-05,2
5339,5524,-0.00011,-7e-05,-7e-05,5.9999999999999995e-05,-5.9999999999999995e-05,-0.00027,4e-05,-2e-05,2
5340,5525,-0.00011,-7e-05,-7e-05,5.9999999999999995e-05,-5.9999999999999995e-05,-0.00027,4e-05,-2e-05,2
5341,5526,-0.00011,-7e-05,-7e-05,5.9999999999999995e-05,-5.9999999999999995e-05,-0.00027,4e-05,-2e-05,2
5342,5527,-0.00011,-7e-05,-7e-05,5.9999999999999995e-05,-5.9999999999999995e-05,-0.00027,4e-05,-2e-05,2
5343,5528,-0.00011,-7e-05,-7e-05,5.9999999999999995e-05,-5.9999999999999995e-05,-0.00027,4e-05,-2e-05,2
5344,5529,-2e-05,1e-05,0.00011999999999999999,1e-05,-0.00018,9e-05,-0.00011,-2e-05,2
5345,5530,0.0,-2e-05,-2.9999999999999997e-05,7e-05,2e-05,0.00018999999999999998,-5e-05,0.0,2
5346,5531,0.0,-2e-05,-2.9999999999999997e-05,7e-05,2e-05,0.00018999999999999998,-5e-05,0.0,2
5347,5532,0.0,-2e-05,-2.9999999999999997e-05,7e-05,2e-05,0.00018999999999999998,-5e-05,0.0,2
5348,5533,0.0,-2e-05,-2.9999999999999997e-05,7e-05,2e-05,0.00018999999999999998,-5e-05,0.0,2
5349,5534,0.0,-2e-05,-2.9999999999999997e-05,7e-05,2e-05,0.00018999999999999998,-5e-05,0.0,2
5350,5535,0.0,-2e-05,-2.9999999999999997e-05,7e-05,2e-05,0.00018999999999999998,-5e-05,0.0,2
5351,5536,0.0,-2e-05,-2.9999999999999997e-05,7e-05,2e-05,0.00018999999999999998,-5e-05,0.0,2
5352,5538,0.0,-2e-05,-2.9999999999999997e-05,7e-05,2e-05,0.00018999999999999998,-5e-05,0.0,2
5353,5539,0.0,-2e-05,-2.9999999999999997e-05,7e-05,2e-05,0.00018999999999999998,-5e-05,0.0,2
5354,5540,0.0,-2e-05,-2.9999999999999997e-05,7e-05,2e-05,0.00018999999999999998,-5e-05,0.0,2
5355,5541,0.0,-2e-05,-2.9999999999999997e-05,7e-05,2e-05,0.00018999999999999998,-5e-05,0.0,2
5356,5542,0.0,-2e-05,-2.9999999999999997e-05,7e-05,2e-05,0.00018999999999999998,-5e-05,0.0,2
5357,5543,0.0,-2e-05,-2.9999999999999997e-05,7e-05,2e-05,0.00018999999999999998,-5e-05,0.0,2
5358,5544,0.0,-2e-05,-2.9999999999999997e-05,7e-05,2e-05,0.00018999999999999998,-5e-05,0.0,2
5359,5545,0.0,-2e-05,-2.9999999999999997e-05,7e-05,2e-05,0.00018999999999999998,-5e-05,0.0,2
5360,5546,0.0,-2e-05,-2.9999999999999997e-05,7e-05,2e-05,0.00018999999999999998,-5e-05,0.0,2
5361,5547,0.0,-2e-05,-2.9999999999999997e-05,7e-05,2e-05,0.00018999999999999998,-5e-05,0.0,2
5362,5548,0.0,-2e-05,-2.9999999999999997e-05,7e-05,2e-05,0.00018999999999999998,-5e-05,0.0,2
5363,5549,0.0,-2e-05,-2.9999999999999997e-05,7e-05,2e-05,0.00018999999999999998,-5e-05,0.0,2
5364,5550,0.0,-2e-05,-2.9999999999999997e-05,7e-05,2e-05,0.00018999999999999998,-5e-05,0.0,2
5365,5551,1e-05,-5e-05,4e-05,5e-05,-0.00013000000000000002,7e-05,-1e-05,0.0,2
5366,5552,1e-05,-5e-05,4e-05,5e-05,-0.00013000000000000002,7e-05,-1e-05,0.0,2
5367,5553,2e-05,-2.9999999999999997e-05,0.0,-5e-05,5e-05,0.00014,-0.00013000000000000002,1e-05,2
5368,5554,2e-05,-2.9999999999999997e-05,0.0,-5e-05,5e-05,0.00014,-0.00013000000000000002,1e-05,2
5369,5555,2e-05,-2.9999999999999997e-05,0.0,-5e-05,5e-05,0.00014,-0.00013000000000000002,1e-05,2
5370,5556,2e-05,-2.9999999999999997e-05,0.0,-5e-05,5e-05,0.00014,-0.00013000000000000002,1e-05,2
5371,5557,2e-05,-2.9999999999999997e-05,0.0,-5e-05,5e-05,0.00014,-0.00013000000000000002,1e-05,2
5372,5558,2e-05,-2.9999999999999997e-05,0.0,-5e-05,5e-05,0.00014,-0.00013000000000000002,1e-05,2
5373,5559,2e-05,-2.9999999999999997e-05,0.0,-5e-05,5e-05,0.00014,-0.00013000000000000002,1e-05,2
5374,5560,2e-05,-2.9999999999999997e-05,0.0,-5e-05,5e-05,0.00014,-0.00013000000000000002,1e-05,2
5375,5561,2e-05,-2.9999999999999997e-05,0.0,-5e-05,5e-05,0.00014,-0.00013000000000000002,1e-05,2
5376,5562,2e-05,-2.9999999999999997e-05,0.0,-5e-05,5e-05,0.00014,-0.00013000000000000002,1e-05,2
5377,5563,2e-05,-2.9999999999999997e-05,0.0,-5e-05,5e-05,0.00014,-0.00013000000000000002,1e-05,2
5378,5564,2e-05,-2.9999999999999997e-05,0.0,-5e-05,5e-05,0.00014,-0.00013000000000000002,1e-05,2
5379,5565,2e-05,-2.9999999999999997e-05,0.0,-5e-05,5e-05,0.00014,-0.00013000000000000002,1e-05,2
5380,5566,-5e-05,0.0,-2e-05,7e-05,0.0,-0.00016999999999999999,7e-05,0.0,2
5381,5567,-5e-05,0.0,-2e-05,7e-05,0.0,-0.00016999999999999999,7e-05,0.0,2
5382,5568,-0.0001,-4e-05,2.9999999999999997e-05,1e-05,7e-05,-0.0003,0.00013000000000000002,-1e-05,2
5383,5569,-0.0001,-4e-05,2.9999999999999997e-05,1e-05,7e-05,-0.0003,0.00013000000000000002,-1e-05,2
5384,5570,-0.0001,-4e-05,2.9999999999999997e-05,1e-05,7e-05,-0.0003,0.00013000000000000002,-1e-05,2
5385,5571,-0.0001,-4e-05,2.9999999999999997e-05,1e-05,7e-05,-0.0003,0.00013000000000000002,-1e-05,2
5386,5572,-0.0001,-4e-05,2.9999999999999997e-05,1e-05,7e-05,-0.0003,0.00013000000000000002,-1e-05,2
5387,5573,-0.0001,-4e-05,2.9999999999999997e-05,1e-05,7e-05,-0.0003,0.00013000000000000002,-1e-05,2
5388,5574,-0.0001,-4e-05,2.9999999999999997e-05,1e-05,7e-05,-0.0003,0.00013000000000000002,-1e-05,2
5389,5575,-0.0001,-4e-05,2.9999999999999997e-05,1e-05,7e-05,-0.0003,0.00013000000000000002,-1e-05,2
5390,5576,-0.0001,-4e-05,2.9999999999999997e-05,1e-05,7e-05,-0.0003,0.00013000000000000002,-1e-05,2
5391,5577,-0.0001,-4e-05,2.9999999999999997e-05,1e-05,7e-05,-0.0003,0.00013000000000000002,-1e-05,2
5392,5578,-0.0001,-4e-05,2.9999999999999997e-05,1e-05,7e-05,-0.0003,0.00013000000000000002,-1e-05,2
5393,5579,-0.0001,-4e-05,2.9999999999999997e-05,1e-05,7e-05,-0.0003,0.00013000000000000002,-1e-05,2
5394,5580,-0.0001,-4e-05,2.9999999999999997e-05,1e-05,7e-05,-0.0003,0.00013000000000000002,-1e-05,2
5395,5581,-0.0001,-4e-05,2.9999999999999997e-05,1e-05,7e-05,-0.0003,0.00013000000000000002,-1e-05,2
5396,5582,-0.0001,-4e-05,2.9999999999999997e-05,1e-05,7e-05,-0.0003,0.00013000000000000002,-1e-05,2
5397,5583,-0.0001,-4e-05,2.9999999999999997e-05,1e-05,7e-05,-0.0003,0.00013000000000000002,-1e-05,2
5398,5584,-0.0001,-4e-05,2.9999999999999997e-05,1e-05,7e-05,-0.0003,0.00013000000000000002,-1e-05,2
5399,5585,-0.0001,-4e-05,2.9999999999999997e-05,1e-05,7e-05,-0.0003,0.00013000000000000002,-1e-05,2
5400,5586,-0.0001,-4e-05,2.9999999999999997e-05,1e-05,7e-05,-0.0003,0.00013000000000000002,-1e-05,2
5401,5588,-0.0001,-4e-05,2.9999999999999997e-05,1e-05,7e-05,-0.0003,0.00013000000000000002,-1e-05,2
5402,5589,-0.0001,-4e-05,2.9999999999999997e-05,1e-05,7e-05,-0.0003,0.00013000000000000002,-1e-05,2
5403,5590,-0.0001,-4e-05,2.9999999999999997e-05,1e-05,7e-05,-0.0003,0.00013000000000000002,-1e-05,2
5404,5591,-0.0001,-4e-05,2.9999999999999997e-05,1e-05,7e-05,-0.0003,0.00013000000000000002,-1e-05,2
5405,5592,-0.0001,-4e-05,2.9999999999999997e-05,1e-05,7e-05,-0.0003,0.00013000000000000002,-1e-05,2
5406,5593,-0.0001,-4e-05,2.9999999999999997e-05,1e-05,7e-05,-0.0003,0.00013000000000000002,-1e-05,2
5407,5594,-0.0001,-4e-05,2.9999999999999997e-05,1e-05,7e-05,-0.0003,0.00013000000000000002,-1e-05,2
5408,5595,-0.0001,-4e-05,2.9999999999999997e-05,1e-05,7e-05,-0.0003,0.00013000000000000002,-1e-05,2
5409,5596,-4e-05,2e-05,0.00011999999999999999,8e-05,4e-05,-1e-05,-0.00016,1e-05,2
5410,5597,-4e-05,2e-05,0.00011999999999999999,8e-05,4e-05,-1e-05,-0.00016,1e-05,2
5411,5598,-1e-05,2.9999999999999997e-05,2.9999999999999997e-05,-2.9999999999999997e-05,0.00021,2.9999999999999997e-05,-0.00011,-1e-05,2
5412,5599,-1e-05,2.9999999999999997e-05,2.9999999999999997e-05,-2.9999999999999997e-05,0.00021,2.9999999999999997e-05,-0.00011,-1e-05,2
5413,5600,-1e-05,2.9999999999999997e-05,2.9999999999999997e-05,-2.9999999999999997e-05,0.00021,2.9999999999999997e-05,-0.00011,-1e-05,2
5414,5601,-1e-05,2.9999999999999997e-05,2.9999999999999997e-05,-2.9999999999999997e-05,0.00021,2.9999999999999997e-05,-0.00011,-1e-05,2
5415,5602,-2.9999999999999997e-05,-2.9999999999999997e-05,-5.9999999999999995e-05,-0.00011999999999999999,-0.00011999999999999999,-0.00033999999999999997,2e-05,-1e-05,2
5416,5603,-2.9999999999999997e-05,-2.9999999999999997e-05,-5.9999999999999995e-05,-0.00011999999999999999,-0.00011999999999999999,-0.00033999999999999997,2e-05,-1e-05,2
5417,5604,-2.9999999999999997e-05,-2.9999999999999997e-05,-5.9999999999999995e-05,-0.00011999999999999999,-0.00011999999999999999,-0.00033999999999999997,2e-05,-1e-05,2
5418,5605,-2.9999999999999997e-05,-2.9999999999999997e-05,-5.9999999999999995e-05,-0.00011999999999999999,-0.00011999999999999999,-0.00033999999999999997,2e-05,-1e-05,2
5419,5606,-2.9999999999999997e-05,-2.9999999999999997e-05,-5.9999999999999995e-05,-0.00011999999999999999,-0.00011999999999999999,-0.00033999999999999997,2e-05,-1e-05,2
5420,5607,-2.9999999999999997e-05,-2.9999999999999997e-05,-5.9999999999999995e-05,-0.00011999999999999999,-0.00011999999999999999,-0.00033999999999999997,2e-05,-1e-05,2
5421,5608,-2.9999999999999997e-05,-2.9999999999999997e-05,-5.9999999999999995e-05,-0.00011999999999999999,-0.00011999999999999999,-0.00033999999999999997,2e-05,-1e-05,2
5422,5609,-2.9999999999999997e-05,-2.9999999999999997e-05,-5.9999999999999995e-05,-0.00011999999999999999,-0.00011999999999999999,-0.00033999999999999997,2e-05,-1e-05,2
5423,5610,-2.9999999999999997e-05,-2.9999999999999997e-05,-5.9999999999999995e-05,-0.00011999999999999999,-0.00011999999999999999,-0.00033999999999999997,2e-05,-1e-05,2
5424,5611,-2.9999999999999997e-05,1e-05,-2.9999999999999997e-05,0.0001,2.9999999999999997e-05,0.00067,0.0003,2e-05,2
5425,5612,-2.9999999999999997e-05,1e-05,-2.9999999999999997e-05,0.0001,2.9999999999999997e-05,0.00067,0.0003,2e-05,2
5426,5613,-2.9999999999999997e-05,1e-05,-2.9999999999999997e-05,0.0001,2.9999999999999997e-05,0.00067,0.0003,2e-05,2
5427,5614,-2.9999999999999997e-05,1e-05,-2.9999999999999997e-05,0.0001,2.9999999999999997e-05,0.00067,0.0003,2e-05,2
5428,5615,-2.9999999999999997e-05,1e-05,-2.9999999999999997e-05,0.0001,2.9999999999999997e-05,0.00067,0.0003,2e-05,2
5429,5616,-2.9999999999999997e-05,1e-05,-2.9999999999999997e-05,0.0001,2.9999999999999997e-05,0.00067,0.0003,2e-05,2
