,time,channel1,channel2,channel3,channel4,channel5,channel6,channel7,channel8,class
4220,4367,0.00073,-0.00025,-7e-05,0.00022999999999999998,-0.00011,4e-05,-0.0002,0.00047999999999999996,2
4221,4368,0.00073,-0.00025,-7e-05,0.00022999999999999998,-0.00011,4e-05,-0.0002,0.00047999999999999996,2
4222,4369,0.00073,-0.00025,-7e-05,0.00022999999999999998,-0.00011,4e-05,-0.0002,0.00047999999999999996,2
4223,4370,0.00073,-0.00025,-7e-05,0.00022999999999999998,-0.00011,4e-05,-0.0002,0.00047999999999999996,2
4224,4371,0.00073,-0.00025,-7e-05,0.00022999999999999998,-0.00011,4e-05,-0.0002,0.00047999999999999996,2
4225,4372,0.0007099999999999999,0.00037,4e-05,-0.00013000000000000002,-0.00031,-0.00056,-0.00037,4e-05,2
4226,4373,0.0007099999999999999,0.00037,4e-05,-0.00013000000000000002,-0.00031,-0.00056,-0.00037,4e-05,2
4227,4374,0.0007099999999999999,0.00037,4e-05,-0.00013000000000000002,-0.00031,-0.00056,-0.00037,4e-05,2
4228,4375,0.0007099999999999999,0.00037,4e-05,-0.00013000000000000002,-0.00031,-0.00056,-0.00037,4e-05,2
4229,4376,0.0007099999999999999,0.00037,4e-05,-0.00013000000000000002,-0.00031,-0.00056,-0.00037,4e-05,2
4230,4377,0.0007099999999999999,0.00037,4e-05,-0.00013000000000000002,-0.00031,-0.00056,-0.00037,4e-05,2
4231,4378,0.0007099999999999999,0.00037,4e-05,-0.00013000000000000002,-0.00031,-0.00056,-0.00037,4e-05,2
4232,4379,0.0007099999999999999,0.00037,4e-05,-0.00013000000000000002,-0.00031,-0.00056,-0.00037,4e-05,2
4233,4380,0.0007099999999999999,0.00037,4e-05,-0.00013000000000000002,-0.00031,-0.00056,-0.00037,4e-05,2
4234,4381,0.0007099999999999999,0.00037,4e-05,-0.00013000000000000002,-0.00031,-0.00056,-0.00037,4e-05,2
4235,4382,0.0007099999999999999,0.00037,4e-05,-0.00013000000000000002,-0.00031,-0.00056,-0.00037,4e-05,2
4236,4383,0.0007099999999999999,0.00037,4e-05,-0.00013000000000000002,-0.00031,-0.00056,-0.00037,4e-05,2
4237,4384,0.0007099999999999999,0.00037,4e-05,-0.00013000000000000002,-0.00031,-0.00056,-0.00037,4e-05,2
4238,4385,0.0007099999999999999,0.00037,4e-05,-0.00013000000000000002,-0.00031,-0.00056,-0.00037,4e-05,2
4239,4386,0.0007099999999999999,0.00037,4e-05,-0.00013000000000000002,-0.00031,-0.00056,-0.00037,4e-05,2
4240,4388,0.0007099999999999999,0.00037,4e-05,-0.00013000000000000002,-0.00031,-0.00056,-0.00037,4e-05,2
4241,4389,0.0007700000000000001,-0.0007599999999999999,-0.00028,-0.00057,-8e-05,-0.00016,-0.00047999999999999996,-0.00037,2
4242,4390,0.0007700000000000001,-0.0007599999999999999,-0.00028,-0.00057,-8e-05,-0.00016,-0.00047999999999999996,-0.00037,2
4243,4391,-0.00128,-0.00022999999999999998,1e-05,-0.00044,0.00045,-0.00015,-0.0008300000000000001,-0.00098,2
4244,4392,-0.00128,-0.00022999999999999998,1e-05,-0.00044,0.00045,-0.00015,-0.0008300000000000001,-0.00098,2
4245,4393,-0.00128,-0.00022999999999999998,1e-05,-0.00044,0.00045,-0.00015,-0.0008300000000000001,-0.00098,2
4246,4394,-0.00128,-0.00022999999999999998,1e-05,-0.00044,0.00045,-0.00015,-0.0008300000000000001,-0.00098,2
4247,4395,-0.00128,-0.00022999999999999998,1e-05,-0.00044,0.00045,-0.00015,-0.0008300000000000001,-0.00098,2
4248,4396,-0.00128,-0.00022999999999999998,1e-05,-0.00044,0.00045,-0.00015,-0.0008300000000000001,-0.00098,2
4249,4397,-0.00128,-0.00022999999999999998,1e-05,-0.00044,0.00045,-0.00015,-0.0008300000000000001,-0.00098,2
4250,4398,-0.00128,-0.00022999999999999998,1e-05,-0.00044,0.00045,-0.00015,-0.0008300000000000001,-0.00098,2
4251,4399,-0.00128,-0.00022999999999999998,1e-05,-0.00044,0.00045,-0.00015,-0.0008300000000000001,-0.00098,2
4252,4400,-0.00128,-0.00022999999999999998,1e-05,-0.00044,0.00045,-0.00015,-0.0008300000000000001,-0.00098,2
4253,4401,-0.00128,-0.00022999999999999998,1e-05,-0.00044,0.00045,-0.00015,-0.0008300000000000001,-0.00098,2
4254,4402,-0.00128,-0.00022999999999999998,1e-05,-0.00044,0.00045,-0.00015,-0.0008300000000000001,-0.00098,2
4255,4403,-0.00128,-0.00022999999999999998,1e-05,-0.00044,0.00045,-0.00015,-0.0008300000000000001,-0.00098,2
4256,4404,-0.00128,-0.00022999999999999998,1e-05,-0.00044,0.00045,-0.00015,-0.0008300000000000001,-0.00098,2
4257,4405,-0.00128,-0.00022999999999999998,1e-05,-0.00044,0.00045,-0.00015,-0.0008300000000000001,-0.00098,2
4258,4406,-0.00128,-0.00022999999999999998,1e-05,-0.00044,0.00045,-0.00015,-0.0008300000000000001,-0.00098,2
4259,4407,-0.00128,-0.00022999999999999998,1e-05,-0.00044,0.00045,-0.00015,-0.0008300000000000001,-0.00098,2
4260,4408,-0.00128,-0.00022999999999999998,1e-05,-0.00044,0.00045,-0.00015,-0.0008300000000000001,-0.00098,2
4261,4409,-0.00128,-0.00022999999999999998,1e-05,-0.00044,0.00045,-0.00015,-0.0008300000000000001,-0.00098,2
4262,4410,-0.00081,0.00081,0.00011,-0.00042,-0.00045999999999999996,0.00037999999999999997,0.00016,7e-05,2
4263,4411,-0.00128,-0.00056,-0.00013000000000000002,0.00011,-0.00047999999999999996,-0.00018,-0.00028,-0.0007599999999999999,2
4264,4412,-0.00128,-0.00056,-0.00013000000000000002,0.00011,-0.00047999999999999996,-0.00018,-0.00028,-0.0007599999999999999,2
4265,4413,-0.00128,-0.00056,-0.00013000000000000002,0.00011,-0.00047999999999999996,-0.00018,-0.00028,-0.0007599999999999999,2
4266,4414,-0.00128,-0.00056,-0.00013000000000000002,0.00011,-0.00047999999999999996,-0.00018,-0.00028,-0.0007599999999999999,2
4267,4415,-0.00128,-0.00056,-0.00013000000000000002,0.00011,-0.00047999999999999996,-0.00018,-0.00028,-0.0007599999999999999,2
4268,4416,-0.00128,-0.00056,-0.00013000000000000002,0.00011,-0.00047999999999999996,-0.00018,-0.00028,-0.0007599999999999999,2
4269,4417,-0.00128,-0.00056,-0.00013000000000000002,0.00011,-0.00047999999999999996,-0.00018,-0.00028,-0.0007599999999999999,2
4270,4418,-0.00128,-0.00056,-0.00013000000000000002,0.00011,-0.00047999999999999996,-0.00018,-0.00028,-0.0007599999999999999,2
4271,4419,-0.00128,-0.00056,-0.00013000000000000002,0.00011,-0.00047999999999999996,-0.00018,-0.00028,-0.0007599999999999999,2
4272,4420,-0.00128,-0.00056,-0.00013000000000000002,0.00011,-0.00047999999999999996,-0.00018,-0.00028,-0.0007599999999999999,2
4273,4421,-0.00128,-0.00056,-0.00013000000000000002,0.00011,-0.00047999999999999996,-0.00018,-0.00028,-0.0007599999999999999,2
4274,4422,-0.00128,-0.00056,-0.00013000000000000002,0.00011,-0.00047999999999999996,-0.00018,-0.00028,-0.0007599999999999999,2
4275,4423,-0.00128,-0.00056,-0.00013000000000000002,0.00011,-0.00047999999999999996,-0.00018,-0.00028,-0.0007599999999999999,2
4276,4424,0.0011099999999999999,0.00032,-9e-05,-0.00037,0.00042,0.00041,0.00065,0.00059,2
4277,4425,-0.00118,0.00101,0.00032,0.00027,-5.9999999999999995e-05,0.00064,0.0007099999999999999,0.00054,2
4278,4426,-0.00118,0.00101,0.00032,0.00027,-5.9999999999999995e-05,0.00064,0.0007099999999999999,0.00054,2
4279,4427,-0.00118,0.00101,0.00032,0.00027,-5.9999999999999995e-05,0.00064,0.0007099999999999999,0.00054,2
4280,4428,-0.00118,0.00101,0.00032,0.00027,-5.9999999999999995e-05,0.00064,0.0007099999999999999,0.00054,2
4281,4429,-0.00118,0.00101,0.00032,0.00027,-5.9999999999999995e-05,0.00064,0.0007099999999999999,0.00054,2
4282,4430,-0.00118,0.00101,0.00032,0.00027,-5.9999999999999995e-05,0.00064,0.0007099999999999999,0.00054,2
4283,4431,-0.00118,0.00101,0.00032,0.00027,-5.9999999999999995e-05,0.00064,0.0007099999999999999,0.00054,2
4284,4432,-0.00118,0.00101,0.00032,0.00027,-5.9999999999999995e-05,0.00064,0.0007099999999999999,0.00054,2
4285,4433,-0.00118,0.00101,0.00032,0.00027,-5.9999999999999995e-05,0.00064,0.0007099999999999999,0.00054,2
4286,4434,-0.00118,0.00101,0.00032,0.00027,-5.9999999999999995e-05,0.00064,0.0007099999999999999,0.00054,2
4287,4435,-0.00118,0.00101,0.00032,0.00027,-5.9999999999999995e-05,0.00064,0.0007099999999999999,0.00054,2
4288,4436,-0.00118,0.00101,0.00032,0.00027,-5.9999999999999995e-05,0.00064,0.0007099999999999999,0.00054,2
4289,4438,-0.00118,0.00101,0.00032,0.00027,-5.9999999999999995e-05,0.00064,0.0007099999999999999,0.00054,2
4290,4439,-0.00118,0.00101,0.00032,0.00027,-5.9999999999999995e-05,0.00064,0.0007099999999999999,0.00054,2
4291,4440,-0.00118,0.00101,0.00032,0.00027,-5.9999999999999995e-05,0.00064,0.0007099999999999999,0.00054,2
4292,4441,-0.00118,0.00101,0.00032,0.00027,-5.9999999999999995e-05,0.00064,0.0007099999999999999,0.00054,2
4293,4442,-0.00118,0.00101,0.00032,0.00027,-5.9999999999999995e-05,0.00064,0.0007099999999999999,0.00054,2
4294,4443,-0.00118,0.00101,0.00032,0.00027,-5.9999999999999995e-05,0.00064,0.0007099999999999999,0.00054,2
4295,4444,-0.00118,0.00101,0.00032,0.00027,-5.9999999999999995e-05,0.00064,0.0007099999999999999,0.00054,2
4296,4445,-0.00118,0.00101,0.00032,0.00027,-5.9999999999999995e-05,0.00064,0.0007099999999999999,0.00054,2
4297,4446,-0.00118,0.00101,0.00032,0.00027,-5.9999999999999995e-05,0.00064,0.0007099999999999999,0.00054,2
4298,4447,-0.00118,0.00101,0.00032,0.00027,-5.9999999999999995e-05,0.00064,0.0007099999999999999,0.00054,2
4299,4448,-0.00118,0.00101,0.00032,0.00027,-5.9999999999999995e-05,0.00064,0.0007099999999999999,0.00054,2
4300,4449,-0.00118,0.00101,0.00032,0.00027,-5.9999999999999995e-05,0.00064,0.0007099999999999999,0.00054,2
4301,4450,-0.00118,0.00101,0.00032,0.00027,-5.9999999999999995e-05,0.00064,0.0007099999999999999,0.00054,2
4302,4451,-0.00118,0.00101,0.00032,0.00027,-5.9999999999999995e-05,0.00064,0.0007099999999999999,0.00054,2
4303,4452,-0.00118,0.00101,0.00032,0.00027,-5.9999999999999995e-05,0.00064,0.0007099999999999999,0.00054,2
4304,4453,-0.00118,0.00101,0.00032,0.00027,-5.9999999999999995e-05,0.00064,0.0007099999999999999,0.00054,2
4305,4454,-0.00118,0.00101,0.00032,0.00027,-5.9999999999999995e-05,0.00064,0.0007099999999999999,0.00054,2
4306,4455,0.0012699999999999999,-0.0006900000000000001,-0.00016,8e-05,1e-05,-2.9999999999999997e-05,8e-05,0.00027,2
4307,4456,0.0012699999999999999,-0.0006900000000000001,-0.00016,8e-05,1e-05,-2.9999999999999997e-05,8e-05,0.00027,2
4308,4457,0.00093,9e-05,2e-05,-0.00011999999999999999,0.0004,-0.0002,0.00016999999999999999,0.00036,2
4309,4458,0.00093,9e-05,2e-05,-0.00011999999999999999,0.0004,-0.0002,0.00016999999999999999,0.00036,2
4310,4459,0.00093,9e-05,2e-05,-0.00011999999999999999,0.0004,-0.0002,0.00016999999999999999,0.00036,2
4311,4460,0.00093,9e-05,2e-05,-0.00011999999999999999,0.0004,-0.0002,0.00016999999999999999,0.00036,2
4312,4461,0.00093,9e-05,2e-05,-0.00011999999999999999,0.0004,-0.0002,0.00016999999999999999,0.00036,2
4313,4462,0.00093,9e-05,2e-05,-0.00011999999999999999,0.0004,-0.0002,0.00016999999999999999,0.00036,2
4314,4463,0.00093,9e-05,2e-05,-0.00011999999999999999,0.0004,-0.0002,0.00016999999999999999,0.00036,2
4315,4464,0.00093,9e-05,2e-05,-0.00011999999999999999,0.0004,-0.0002,0.00016999999999999999,0.00036,2
4316,4465,0.00093,9e-05,2e-05,-0.00011999999999999999,0.0004,-0.0002,0.00016999999999999999,0.00036,2
4317,4466,0.00093,9e-05,2e-05,-0.00011999999999999999,0.0004,-0.0002,0.00016999999999999999,0.00036,2
4318,4467,0.00093,9e-05,2e-05,-0.00011999999999999999,0.0004,-0.0002,0.00016999999999999999,0.00036,2
4319,4468,0.00093,9e-05,2e-05,-0.00011999999999999999,0.0004,-0.0002,0.00016999999999999999,0.00036,2
4320,4469,0.00093,9e-05,2e-05,-0.00011999999999999999,0.0004,-0.0002,0.00016999999999999999,0.00036,2
4321,4470,-0.0007700000000000001,4e-05,-5.9999999999999995e-05,-0.00026000000000000003,-0.00011,-0.00065,-0.0007700000000000001,-0.00103,2
4322,4471,-0.0007700000000000001,4e-05,-5.9999999999999995e-05,-0.00026000000000000003,-0.00011,-0.00065,-0.0007700000000000001,-0.00103,2
4323,4472,0.0012,0.00011999999999999999,2e-05,0.00013000000000000002,-0.00037,-0.00025,0.00021,0.00022999999999999998,2
4324,4473,0.0012,0.00011999999999999999,2e-05,0.00013000000000000002,-0.00037,-0.00025,0.00021,0.00022999999999999998,2
4325,4474,0.0012,0.00011999999999999999,2e-05,0.00013000000000000002,-0.00037,-0.00025,0.00021,0.00022999999999999998,2
4326,4475,0.0012,0.00011999999999999999,2e-05,0.00013000000000000002,-0.00037,-0.00025,0.00021,0.00022999999999999998,2
4327,4476,0.0012,0.00011999999999999999,2e-05,0.00013000000000000002,-0.00037,-0.00025,0.00021,0.00022999999999999998,2
4328,4477,0.0012,0.00011999999999999999,2e-05,0.00013000000000000002,-0.00037,-0.00025,0.00021,0.00022999999999999998,2
4329,4478,0.0012,0.00011999999999999999,2e-05,0.00013000000000000002,-0.00037,-0.00025,0.00021,0.00022999999999999998,2
4330,4479,0.0012,0.00011999999999999999,2e-05,0.00013000000000000002,-0.00037,-0.00025,0.00021,0.00022999999999999998,2
4331,4480,0.0012,0.00011999999999999999,2e-05,0.00013000000000000002,-0.00037,-0.00025,0.00021,0.00022999999999999998,2
4332,4481,0.0012,0.00011999999999999999,2e-05,0.00013000000000000002,-0.00037,-0.00025,0.00021,0.00022999999999999998,2
4333,4482,0.0012,0.00011999999999999999,2e-05,0.00013000000000000002,-0.00037,-0.00025,0.00021,0.00022999999999999998,2
4334,4483,0.0012,0.00011999999999999999,2e-05,0.00013000000000000002,-0.00037,-0.00025,0.00021,0.00022999999999999998,2
4335,4484,0.0006900000000000001,-0.0007700000000000001,-2e-05,0.00033999999999999997,-0.00028,2e-05,0.00027,0.00011999999999999999,2
4336,4485,0.0006900000000000001,-0.0007700000000000001,-2e-05,0.00033999999999999997,-0.00028,2e-05,0.00027,0.00011999999999999999,2
4337,4486,0.0006900000000000001,-0.0007700000000000001,-2e-05,0.00033999999999999997,-0.00028,2e-05,0.00027,0.00011999999999999999,2
4338,4488,0.0006900000000000001,-0.0007700000000000001,-2e-05,0.00033999999999999997,-0.00028,2e-05,0.00027,0.00011999999999999999,2
4339,4489,0.0006900000000000001,-0.0007700000000000001,-2e-05,0.00033999999999999997,-0.00028,2e-05,0.00027,0.00011999999999999999,2
4340,4490,0.0006900000000000001,-0.0007700000000000001,-2e-05,0.00033999999999999997,-0.00028,2e-05,0.00027,0.00011999999999999999,2
4341,4491,0.0006900000000000001,-0.0007700000000000001,-2e-05,0.00033999999999999997,-0.00028,2e-05,0.00027,0.00011999999999999999,2
4342,4492,0.0006900000000000001,-0.0007700000000000001,-2e-05,0.00033999999999999997,-0.00028,2e-05,0.00027,0.00011999999999999999,2
4343,4493,-0.00105,-0.0003,-0.0001,1e-05,2.9999999999999997e-05,-0.00043,-0.00045999999999999996,-0.00082,2
4344,4494,-0.00105,-0.0003,-0.0001,1e-05,2.9999999999999997e-05,-0.00043,-0.00045999999999999996,-0.00082,2
4345,4495,-0.00105,-0.0003,-0.0001,1e-05,2.9999999999999997e-05,-0.00043,-0.00045999999999999996,-0.00082,2
4346,4496,-0.00105,-0.0003,-0.0001,1e-05,2.9999999999999997e-05,-0.00043,-0.00045999999999999996,-0.00082,2
4347,4497,-0.00105,-0.0003,-0.0001,1e-05,2.9999999999999997e-05,-0.00043,-0.00045999999999999996,-0.00082,2
4348,4498,-0.00105,-0.0003,-0.0001,1e-05,2.9999999999999997e-05,-0.00043,-0.00045999999999999996,-0.00082,2
4349,4499,-0.00105,-0.0003,-0.0001,1e-05,2.9999999999999997e-05,-0.00043,-0.00045999999999999996,-0.00082,2
4350,4500,-0.00105,-0.0003,-0.0001,1e-05,2.9999999999999997e-05,-0.00043,-0.00045999999999999996,-0.00082,2
4351,4501,-0.00105,-0.0003,-0.0001,1e-05,2.9999999999999997e-05,-0.00043,-0.00045999999999999996,-0.00082,2
4352,4502,-0.00105,-0.0003,-0.0001,1e-05,2.9999999999999997e-05,-0.00043,-0.00045999999999999996,-0.00082,2
4353,4503,-0.00105,-0.0003,-0.0001,1e-05,2.9999999999999997e-05,-0.00043,-0.00045999999999999996,-0.00082,2
4354,4504,-0.00105,-0.0003,-0.0001,1e-05,2.9999999999999997e-05,-0.00043,-0.00045999999999999996,-0.00082,2
4355,4505,-0.00105,-0.0003,-0.0001,1e-05,2.9999999999999997e-05,-0.00043,-0.00045999999999999996,-0.00082,2
4356,4506,-0.00105,-0.0003,-0.0001,1e-05,2.9999999999999997e-05,-0.00043,-0.00045999999999999996,-0.00082,2
4357,4507,-0.00105,-0.0003,-0.0001,1e-05,2.9999999999999997e-05,-0.00043,-0.00045999999999999996,-0.00082,2
4358,4508,-0.00128,0.00107,0.00045,0.00095,0.00016999999999999999,8e-05,0.00013000000000000002,0.00011999999999999999,2
4359,4509,0.00115,-5.9999999999999995e-05,-1e-05,0.00018,0.00029,1e-05,0.00049,0.0007,2
4360,4510,0.00115,-5.9999999999999995e-05,-1e-05,0.00018,0.00029,1e-05,0.00049,0.0007,2
4361,4511,0.00115,-5.9999999999999995e-05,-1e-05,0.00018,0.00029,1e-05,0.00049,0.0007,2
4362,4512,0.00115,-5.9999999999999995e-05,-1e-05,0.00018,0.00029,1e-05,0.00049,0.0007,2
4363,4513,0.00115,-5.9999999999999995e-05,-1e-05,0.00018,0.00029,1e-05,0.00049,0.0007,2
4364,4514,0.00115,-5.9999999999999995e-05,-1e-05,0.00018,0.00029,1e-05,0.00049,0.0007,2
4365,4515,0.00115,-5.9999999999999995e-05,-1e-05,0.00018,0.00029,1e-05,0.00049,0.0007,2
4366,4516,0.00115,-5.9999999999999995e-05,-1e-05,0.00018,0.00029,1e-05,0.00049,0.0007,2
4367,4517,0.00115,-5.9999999999999995e-05,-1e-05,0.00018,0.00029,1e-05,0.00049,0.0007,2
4368,4518,0.00115,-5.9999999999999995e-05,-1e-05,0.00018,0.00029,1e-05,0.00049,0.0007,2
4369,4519,0.00115,-5.9999999999999995e-05,-1e-05,0.00018,0.00029,1e-05,0.00049,0.0007,2
4370,4520,0.00115,-5.9999999999999995e-05,-1e-05,0.00018,0.00029,1e-05,0.00049,0.0007,2
4371,4521,0.00115,-5.9999999999999995e-05,-1e-05,0.00018,0.00029,1e-05,0.00049,0.0007,2
4372,4522,0.00115,-5.9999999999999995e-05,-1e-05,0.00018,0.00029,1e-05,0.00049,0.0007,2
4373,4523,0.00115,-5.9999999999999995e-05,-1e-05,0.00018,0.00029,1e-05,0.00049,0.0007,2
4374,4524,0.00115,-5.9999999999999995e-05,-1e-05,0.00018,0.00029,1e-05,0.00049,0.0007,2
4375,4525,0.00115,-5.9999999999999995e-05,-1e-05,0.00018,0.00029,1e-05,0.00049,0.0007,2
4376,4526,0.00115,-5.9999999999999995e-05,-1e-05,0.00018,0.00029,1e-05,0.00049,0.0007,2
4377,4527,0.00115,-5.9999999999999995e-05,-1e-05,0.00018,0.00029,1e-05,0.00049,0.0007,2
4378,4528,0.00115,-5.9999999999999995e-05,-1e-05,0.00018,0.00029,1e-05,0.00049,0.0007,2
4379,4529,0.00115,-5.9999999999999995e-05,-1e-05,0.00018,0.00029,1e-05,0.00049,0.0007,2
4380,4530,0.00115,-5.9999999999999995e-05,-1e-05,0.00018,0.00029,1e-05,0.00049,0.0007,2
4381,4531,-0.00059,0.0,-0.00036,-0.00091,0.00013000000000000002,-1e-05,-0.00041,-0.00098,2
4382,4532,-0.00059,0.0,-0.00036,-0.00091,0.00013000000000000002,-1e-05,-0.00041,-0.00098,2
4383,4533,-0.00059,0.0,-0.00036,-0.00091,0.00013000000000000002,-1e-05,-0.00041,-0.00098,2
4384,4534,-0.00059,0.0,-0.00036,-0.00091,0.00013000000000000002,-1e-05,-0.00041,-0.00098,2
4385,4535,-0.00059,0.0,-0.00036,-0.00091,0.00013000000000000002,-1e-05,-0.00041,-0.00098,2
4386,4536,-0.00128,0.00011,-0.00011999999999999999,-0.00029,1e-05,-5.9999999999999995e-05,-0.0007099999999999999,-0.0007599999999999999,2
4387,4538,-0.00128,0.00011,-0.00011999999999999999,-0.00029,1e-05,-5.9999999999999995e-05,-0.0007099999999999999,-0.0007599999999999999,2
4388,4539,-0.00128,0.00011,-0.00011999999999999999,-0.00029,1e-05,-5.9999999999999995e-05,-0.0007099999999999999,-0.0007599999999999999,2
4389,4540,-0.00128,0.00011,-0.00011999999999999999,-0.00029,1e-05,-5.9999999999999995e-05,-0.0007099999999999999,-0.0007599999999999999,2
4390,4541,-0.00128,0.00011,-0.00011999999999999999,-0.00029,1e-05,-5.9999999999999995e-05,-0.0007099999999999999,-0.0007599999999999999,2
4391,4542,-0.00128,0.00011,-0.00011999999999999999,-0.00029,1e-05,-5.9999999999999995e-05,-0.0007099999999999999,-0.0007599999999999999,2
4392,4543,-0.00128,0.00011,-0.00011999999999999999,-0.00029,1e-05,-5.9999999999999995e-05,-0.0007099999999999999,-0.0007599999999999999,2
4393,4544,0.00079,-0.0002,0.00016999999999999999,0.00032,-0.00057,-0.00023999999999999998,0.0001,0.00026000000000000003,2
4394,4545,0.00079,-0.0002,0.00016999999999999999,0.00032,-0.00057,-0.00023999999999999998,0.0001,0.00026000000000000003,2
4395,4546,0.00079,-0.0002,0.00016999999999999999,0.00032,-0.00057,-0.00023999999999999998,0.0001,0.00026000000000000003,2
4396,4547,0.00079,-0.0002,0.00016999999999999999,0.00032,-0.00057,-0.00023999999999999998,0.0001,0.00026000000000000003,2
4397,4548,0.00079,-0.0002,0.00016999999999999999,0.00032,-0.00057,-0.00023999999999999998,0.0001,0.00026000000000000003,2
4398,4549,0.00079,-0.0002,0.00016999999999999999,0.00032,-0.00057,-0.00023999999999999998,0.0001,0.00026000000000000003,2
4399,4550,0.00079,-0.0002,0.00016999999999999999,0.00032,-0.00057,-0.00023999999999999998,0.0001,0.00026000000000000003,2
4400,4551,0.00079,-0.0002,0.00016999999999999999,0.00032,-0.00057,-0.00023999999999999998,0.0001,0.00026000000000000003,2
4401,4552,0.00079,-0.0002,0.00016999999999999999,0.00032,-0.00057,-0.00023999999999999998,0.0001,0.00026000000000000003,2
4402,4553,-0.00013000000000000002,0.0,-2.9999999999999997e-05,-0.00027,-0.00023999999999999998,0.00011,0.00037999999999999997,0.00043,2
4403,4554,-0.00013000000000000002,0.0,-2.9999999999999997e-05,-0.00027,-0.00023999999999999998,0.00011,0.00037999999999999997,0.00043,2
4404,4555,-0.00013000000000000002,0.0,-2.9999999999999997e-05,-0.00027,-0.00023999999999999998,0.00011,0.00037999999999999997,0.00043,2
4405,4556,-0.00013000000000000002,0.0,-2.9999999999999997e-05,-0.00027,-0.00023999999999999998,0.00011,0.00037999999999999997,0.00043,2
4406,4557,-0.00013000000000000002,0.0,-2.9999999999999997e-05,-0.00027,-0.00023999999999999998,0.00011,0.00037999999999999997,0.00043,2
4407,4558,-0.00013000000000000002,0.0,-2.9999999999999997e-05,-0.00027,-0.00023999999999999998,0.00011,0.00037999999999999997,0.00043,2
4408,4559,-0.00013000000000000002,0.0,-2.9999999999999997e-05,-0.00027,-0.00023999999999999998,0.00011,0.00037999999999999997,0.00043,2
4409,4560,-0.00013000000000000002,0.0,-2.9999999999999997e-05,-0.00027,-0.00023999999999999998,0.00011,0.00037999999999999997,0.00043,2
4410,4561,-0.00013000000000000002,0.0,-2.9999999999999997e-05,-0.00027,-0.00023999999999999998,0.00011,0.00037999999999999997,0.00043,2
4411,4562,-0.00013000000000000002,0.0,-2.9999999999999997e-05,-0.00027,-0.00023999999999999998,0.00011,0.00037999999999999997,0.00043,2
4412,4563,-0.00013000000000000002,0.0,-2.9999999999999997e-05,-0.00027,-0.00023999999999999998,0.00011,0.00037999999999999997,0.00043,2
4413,4564,-0.00013000000000000002,0.0,-2.9999999999999997e-05,-0.00027,-0.00023999999999999998,0.00011,0.00037999999999999997,0.00043,2
4414,4565,-0.00013000000000000002,0.0,-2.9999999999999997e-05,-0.00027,-0.00023999999999999998,0.00011,0.00037999999999999997,0.00043,2
4415,4566,-0.00013000000000000002,0.0,-2.9999999999999997e-05,-0.00027,-0.00023999999999999998,0.00011,0.00037999999999999997,0.00043,2
4416,4567,-0.00013000000000000002,0.0,-2.9999999999999997e-05,-0.00027,-0.00023999999999999998,0.00011,0.00037999999999999997,0.00043,2
4417,4568,0.00011,-0.0009699999999999999,-0.00016999999999999999,-0.00045999999999999996,-0.00015,-0.00022,0.00022,0.00036,2
4418,4569,0.00082,-0.00047999999999999996,-2e-05,-0.00033,0.0001,0.00016,-2e-05,0.00022,2
4419,4570,0.00082,-0.00047999999999999996,-2e-05,-0.00033,0.0001,0.00016,-2e-05,0.00022,2
4420,4571,0.00082,-0.00047999999999999996,-2e-05,-0.00033,0.0001,0.00016,-2e-05,0.00022,2
4421,4572,0.00082,-0.00047999999999999996,-2e-05,-0.00033,0.0001,0.00016,-2e-05,0.00022,2
4422,4573,0.00082,-0.00047999999999999996,-2e-05,-0.00033,0.0001,0.00016,-2e-05,0.00022,2
4423,4574,0.00082,-0.00047999999999999996,-2e-05,-0.00033,0.0001,0.00016,-2e-05,0.00022,2
4424,4575,0.00082,-0.00047999999999999996,-2e-05,-0.00033,0.0001,0.00016,-2e-05,0.00022,2
4425,4576,0.00082,-0.00047999999999999996,-2e-05,-0.00033,0.0001,0.00016,-2e-05,0.00022,2
4426,4577,0.00082,-0.00047999999999999996,-2e-05,-0.00033,0.0001,0.00016,-2e-05,0.00022,2
4427,4578,0.00082,-0.00047999999999999996,-2e-05,-0.00033,0.0001,0.00016,-2e-05,0.00022,2
4428,4579,0.00082,-0.00047999999999999996,-2e-05,-0.00033,0.0001,0.00016,-2e-05,0.00022,2
4429,4580,0.00082,-0.00047999999999999996,-2e-05,-0.00033,0.0001,0.00016,-2e-05,0.00022,2
4430,4581,0.00082,-0.00047999999999999996,-2e-05,-0.00033,0.0001,0.00016,-2e-05,0.00022,2
4431,4582,0.00082,-0.00047999999999999996,-2e-05,-0.00033,0.0001,0.00016,-2e-05,0.00022,2
4432,4583,0.00082,-0.00047999999999999996,-2e-05,-0.00033,0.0001,0.00016,-2e-05,0.00022,2
4433,4584,0.00082,-0.00047999999999999996,-2e-05,-0.00033,0.0001,0.00016,-2e-05,0.00022,2
4434,4585,0.00082,-0.00047999999999999996,-2e-05,-0.00033,0.0001,0.00016,-2e-05,0.00022,2
4435,4586,0.00082,-0.00047999999999999996,-2e-05,-0.00033,0.0001,0.00016,-2e-05,0.00022,2
4436,4588,0.00082,-0.00047999999999999996,-2e-05,-0.00033,0.0001,0.00016,-2e-05,0.00022,2
4437,4589,0.00082,-0.00047999999999999996,-2e-05,-0.00033,0.0001,0.00016,-2e-05,0.00022,2
4438,4590,0.00082,-0.00047999999999999996,-2e-05,-0.00033,0.0001,0.00016,-2e-05,0.00022,2
4439,4591,0.00082,-0.00047999999999999996,-2e-05,-0.00033,0.0001,0.00016,-2e-05,0.00022,2
4440,4592,0.00082,-0.00047999999999999996,-2e-05,-0.00033,0.0001,0.00016,-2e-05,0.00022,2
4441,4593,0.00082,-0.00047999999999999996,-2e-05,-0.00033,0.0001,0.00016,-2e-05,0.00022,2
4442,4594,0.00082,-0.00047999999999999996,-2e-05,-0.00033,0.0001,0.00016,-2e-05,0.00022,2
4443,4595,0.00082,-0.00047999999999999996,-2e-05,-0.00033,0.0001,0.00016,-2e-05,0.00022,2
4444,4596,0.00082,-0.00047999999999999996,-2e-05,-0.00033,0.0001,0.00016,-2e-05,0.00022,2
4445,4597,0.00082,-0.00047999999999999996,-2e-05,-0.00033,0.0001,0.00016,-2e-05,0.00022,2
4446,4598,0.00062,0.00018999999999999998,-5e-05,-0.00026000000000000003,0.00011999999999999999,-0.00021,-0.00014,-0.00011999999999999999,2
4447,4599,-5.9999999999999995e-05,2.9999999999999997e-05,1e-05,0.0002,0.00065,1e-05,0.00037,0.0006799999999999999,2
4448,4600,-5.9999999999999995e-05,2.9999999999999997e-05,1e-05,0.0002,0.00065,1e-05,0.00037,0.0006799999999999999,2
4449,4601,-5.9999999999999995e-05,2.9999999999999997e-05,1e-05,0.0002,0.00065,1e-05,0.00037,0.0006799999999999999,2
4450,4602,-5.9999999999999995e-05,2.9999999999999997e-05,1e-05,0.0002,0.00065,1e-05,0.00037,0.0006799999999999999,2
4451,4603,-5.9999999999999995e-05,2.9999999999999997e-05,1e-05,0.0002,0.00065,1e-05,0.00037,0.0006799999999999999,2
4452,4604,-0.00067,0.0008699999999999999,0.00028,0.00042,9e-05,0.00053,0.00016999999999999999,1e-05,2
4453,4605,-0.00067,0.0008699999999999999,0.00028,0.00042,9e-05,0.00053,0.00016999999999999999,1e-05,2
4454,4606,-0.00067,0.0008699999999999999,0.00028,0.00042,9e-05,0.00053,0.00016999999999999999,1e-05,2
4455,4607,-0.00067,0.0008699999999999999,0.00028,0.00042,9e-05,0.00053,0.00016999999999999999,1e-05,2
4456,4608,-0.00067,0.0008699999999999999,0.00028,0.00042,9e-05,0.00053,0.00016999999999999999,1e-05,2
4457,4609,-0.00067,0.0008699999999999999,0.00028,0.00042,9e-05,0.00053,0.00016999999999999999,1e-05,2
4458,4610,-0.00067,0.0008699999999999999,0.00028,0.00042,9e-05,0.00053,0.00016999999999999999,1e-05,2
4459,4611,-0.00067,0.0008699999999999999,0.00028,0.00042,9e-05,0.00053,0.00016999999999999999,1e-05,2
4460,4612,-0.00067,0.0008699999999999999,0.00028,0.00042,9e-05,0.00053,0.00016999999999999999,1e-05,2
4461,4613,-0.00036,0.00118,0.00021,-0.00042,0.00016,5.9999999999999995e-05,0.00042,0.00031,2
4462,4614,-0.00036,0.00118,0.00021,-0.00042,0.00016,5.9999999999999995e-05,0.00042,0.00031,2
4463,4615,-0.00036,0.00118,0.00021,-0.00042,0.00016,5.9999999999999995e-05,0.00042,0.00031,2
4464,4616,-0.00036,0.00118,0.00021,-0.00042,0.00016,5.9999999999999995e-05,0.00042,0.00031,2
4465,4617,-0.00036,0.00118,0.00021,-0.00042,0.00016,5.9999999999999995e-05,0.00042,0.00031,2
4466,4618,-0.00036,0.00118,0.00021,-0.00042,0.00016,5.9999999999999995e-05,0.00042,0.00031,2
4467,4619,-0.00036,0.00118,0.00021,-0.00042,0.00016,5.9999999999999995e-05,0.00042,0.00031,2
4468,4620,-0.00036,0.00118,0.00021,-0.00042,0.00016,5.9999999999999995e-05,0.00042,0.00031,2
4469,4621,-0.00036,0.00118,0.00021,-0.00042,0.00016,5.9999999999999995e-05,0.00042,0.00031,2
4470,4622,-0.00036,0.00118,0.00021,-0.00042,0.00016,5.9999999999999995e-05,0.00042,0.00031,2
4471,4623,-0.00036,0.00118,0.00021,-0.00042,0.00016,5.9999999999999995e-05,0.00042,0.00031,2
4472,4624,-0.00036,0.00118,0.00021,-0.00042,0.00016,5.9999999999999995e-05,0.00042,0.00031,2
4473,4625,-0.00036,0.00118,0.00021,-0.00042,0.00016,5.9999999999999995e-05,0.00042,0.00031,2
4474,4626,-0.00036,0.00118,0.00021,-0.00042,0.00016,5.9999999999999995e-05,0.00042,0.00031,2
4475,4627,-0.00036,0.00118,0.00021,-0.00042,0.00016,5.9999999999999995e-05,0.00042,0.00031,2
4476,4628,-0.00016999999999999999,-0.00067,2e-05,-8e-05,5.9999999999999995e-05,5.9999999999999995e-05,5e-05,0.0003,2
4477,4629,0.00093,-0.00027,-0.00018999999999999998,-0.00013000000000000002,0.0001,8e-05,-7e-05,0.00011,2
4478,4630,0.00093,-0.00027,-0.00018999999999999998,-0.00013000000000000002,0.0001,8e-05,-7e-05,0.00011,2
4479,4631,0.00093,-0.00027,-0.00018999999999999998,-0.00013000000000000002,0.0001,8e-05,-7e-05,0.00011,2
4480,4632,0.00093,-0.00027,-0.00018999999999999998,-0.00013000000000000002,0.0001,8e-05,-7e-05,0.00011,2
4481,4633,0.00093,-0.00027,-0.00018999999999999998,-0.00013000000000000002,0.0001,8e-05,-7e-05,0.00011,2
4482,4634,0.00093,-0.00027,-0.00018999999999999998,-0.00013000000000000002,0.0001,8e-05,-7e-05,0.00011,2
4483,4635,0.00093,-0.00027,-0.00018999999999999998,-0.00013000000000000002,0.0001,8e-05,-7e-05,0.00011,2
4484,4636,0.00093,-0.00027,-0.00018999999999999998,-0.00013000000000000002,0.0001,8e-05,-7e-05,0.00011,2
4485,4638,0.00093,-0.00027,-0.00018999999999999998,-0.00013000000000000002,0.0001,8e-05,-7e-05,0.00011,2
4486,4639,0.00093,-0.00027,-0.00018999999999999998,-0.00013000000000000002,0.0001,8e-05,-7e-05,0.00011,2
4487,4640,0.00093,-0.00027,-0.00018999999999999998,-0.00013000000000000002,0.0001,8e-05,-7e-05,0.00011,2
4488,4641,0.00093,-0.00027,-0.00018999999999999998,-0.00013000000000000002,0.0001,8e-05,-7e-05,0.00011,2
4489,4642,0.00093,-0.00027,-0.00018999999999999998,-0.00013000000000000002,0.0001,8e-05,-7e-05,0.00011,2
4490,4643,0.00093,-0.00027,-0.00018999999999999998,-0.00013000000000000002,0.0001,8e-05,-7e-05,0.00011,2
4491,4644,0.00093,-0.00027,-0.00018999999999999998,-0.00013000000000000002,0.0001,8e-05,-7e-05,0.00011,2
4492,4645,0.00093,-0.00027,-0.00018999999999999998,-0.00013000000000000002,0.0001,8e-05,-7e-05,0.00011,2
4493,4646,0.00093,-0.00027,-0.00018999999999999998,-0.00013000000000000002,0.0001,8e-05,-7e-05,0.00011,2
4494,4647,0.00093,-0.00027,-0.00018999999999999998,-0.00013000000000000002,0.0001,8e-05,-7e-05,0.00011,2
4495,4648,0.00093,-0.00027,-0.00018999999999999998,-0.00013000000000000002,0.0001,8e-05,-7e-05,0.00011,2
4496,4649,0.00093,-0.00027,-0.00018999999999999998,-0.00013000000000000002,0.0001,8e-05,-7e-05,0.00011,2
4497,4650,0.00093,-0.00027,-0.00018999999999999998,-0.00013000000000000002,0.0001,8e-05,-7e-05,0.00011,2
4498,4651,0.00106,0.00031,2e-05,0.00016,-0.00015,-0.00028,-0.00026000000000000003,0.0,2
4499,4652,0.00106,0.00031,2e-05,0.00016,-0.00015,-0.00028,-0.00026000000000000003,0.0,2
4500,4653,0.00106,0.00031,2e-05,0.00016,-0.00015,-0.00028,-0.00026000000000000003,0.0,2
4501,4654,0.00106,0.00031,2e-05,0.00016,-0.00015,-0.00028,-0.00026000000000000003,0.0,2
4502,4655,0.00106,0.00031,2e-05,0.00016,-0.00015,-0.00028,-0.00026000000000000003,0.0,2
4503,4656,0.0011300000000000001,-0.0009599999999999999,-4e-05,1e-05,-0.00045,0.0,0.0002,0.00022999999999999998,2
4504,4657,0.0011300000000000001,-0.0009599999999999999,-4e-05,1e-05,-0.00045,0.0,0.0002,0.00022999999999999998,2
4505,4658,0.0011300000000000001,-0.0009599999999999999,-4e-05,1e-05,-0.00045,0.0,0.0002,0.00022999999999999998,2
4506,4659,0.0011300000000000001,-0.0009599999999999999,-4e-05,1e-05,-0.00045,0.0,0.0002,0.00022999999999999998,2
4507,4660,0.0011300000000000001,-0.0009599999999999999,-4e-05,1e-05,-0.00045,0.0,0.0002,0.00022999999999999998,2
4508,4661,0.0011300000000000001,-0.0009599999999999999,-4e-05,1e-05,-0.00045,0.0,0.0002,0.00022999999999999998,2
4509,4662,0.0011300000000000001,-0.0009599999999999999,-4e-05,1e-05,-0.00045,0.0,0.0002,0.00022999999999999998,2
4510,4663,0.0011300000000000001,-0.0009599999999999999,-4e-05,1e-05,-0.00045,0.0,0.0002,0.00022999999999999998,2
4511,4664,0.0012699999999999999,-0.00028,-0.00027,-0.0002,0.0003,-0.0001,-0.00036,-0.0003,2
4512,4665,0.0012699999999999999,-0.00028,-0.00027,-0.0002,0.0003,-0.0001,-0.00036,-0.0003,2
4513,4666,0.0012699999999999999,-0.00028,-0.00027,-0.0002,0.0003,-0.0001,-0.00036,-0.0003,2
4514,4667,0.0012699999999999999,-0.00028,-0.00027,-0.0002,0.0003,-0.0001,-0.00036,-0.0003,2
4515,4668,0.0012699999999999999,-0.00028,-0.00027,-0.0002,0.0003,-0.0001,-0.00036,-0.0003,2
4516,4669,0.0012699999999999999,-0.00028,-0.00027,-0.0002,0.0003,-0.0001,-0.00036,-0.0003,2
4517,4670,0.0012699999999999999,-0.00028,-0.00027,-0.0002,0.0003,-0.0001,-0.00036,-0.0003,2
4518,4671,0.0012699999999999999,-0.00028,-0.00027,-0.0002,0.0003,-0.0001,-0.00036,-0.0003,2
4519,4672,0.0012699999999999999,-0.00028,-0.00027,-0.0002,0.0003,-0.0001,-0.00036,-0.0003,2
4520,4673,0.00117,-0.00044,-0.00015,0.0,0.00021,-9e-05,-7e-05,-2e-05,2
4521,4674,0.00117,-0.00044,-0.00015,0.0,0.00021,-9e-05,-7e-05,-2e-05,2
4522,4675,0.00117,-0.00044,-0.00015,0.0,0.00021,-9e-05,-7e-05,-2e-05,2
4523,4676,0.00117,-0.00044,-0.00015,0.0,0.00021,-9e-05,-7e-05,-2e-05,2
4524,4677,0.00117,-0.00044,-0.00015,0.0,0.00021,-9e-05,-7e-05,-2e-05,2
4525,4678,0.00117,-0.00044,-0.00015,0.0,0.00021,-9e-05,-7e-05,-2e-05,2
4526,4679,0.00117,-0.00044,-0.00015,0.0,0.00021,-9e-05,-7e-05,-2e-05,2
4527,4680,0.00117,-0.00044,-0.00015,0.0,0.00021,-9e-05,-7e-05,-2e-05,2
4528,4681,0.00117,-0.00044,-0.00015,0.0,0.00021,-9e-05,-7e-05,-2e-05,2
4529,4682,0.00117,-0.00044,-0.00015,0.0,0.00021,-9e-05,-7e-05,-2e-05,2
4530,4683,0.00117,-0.00044,-0.00015,0.0,0.00021,-9e-05,-7e-05,-2e-05,2
4531,4684,0.00117,-0.00044,-0.00015,0.0,0.00021,-9e-05,-7e-05,-2e-05,2
4532,4685,0.00117,-0.00044,-0.00015,0.0,0.00021,-9e-05,-7e-05,-2e-05,2
4533,4686,0.00117,-0.00044,-0.00015,0.0,0.00021,-9e-05,-7e-05,-2e-05,2
4534,4688,-0.00016999999999999999,-5e-05,-0.00033,-0.00056,0.00016999999999999999,-0.00022999999999999998,-0.00013000000000000002,0.0,2
4535,4689,-0.00099,0.0008300000000000001,8e-05,0.00021,-0.00028,-0.00033999999999999997,-0.00045999999999999996,-0.00064,2
4536,4690,-0.00099,0.0008300000000000001,8e-05,0.00021,-0.00028,-0.00033999999999999997,-0.00045999999999999996,-0.00064,2
4537,4691,-0.00099,0.0008300000000000001,8e-05,0.00021,-0.00028,-0.00033999999999999997,-0.00045999999999999996,-0.00064,2
4538,4692,-0.00099,0.0008300000000000001,8e-05,0.00021,-0.00028,-0.00033999999999999997,-0.00045999999999999996,-0.00064,2
4539,4693,-0.00099,0.0008300000000000001,8e-05,0.00021,-0.00028,-0.00033999999999999997,-0.00045999999999999996,-0.00064,2
4540,4694,-0.00099,0.0008300000000000001,8e-05,0.00021,-0.00028,-0.00033999999999999997,-0.00045999999999999996,-0.00064,2
4541,4695,-0.00099,0.0008300000000000001,8e-05,0.00021,-0.00028,-0.00033999999999999997,-0.00045999999999999996,-0.00064,2
4542,4696,-0.00099,0.0008300000000000001,8e-05,0.00021,-0.00028,-0.00033999999999999997,-0.00045999999999999996,-0.00064,2
4543,4697,-0.00099,0.0008300000000000001,8e-05,0.00021,-0.00028,-0.00033999999999999997,-0.00045999999999999996,-0.00064,2
4544,4698,-0.00099,0.0008300000000000001,8e-05,0.00021,-0.00028,-0.00033999999999999997,-0.00045999999999999996,-0.00064,2
4545,4699,-0.00099,0.0008300000000000001,8e-05,0.00021,-0.00028,-0.00033999999999999997,-0.00045999999999999996,-0.00064,2
4546,4700,-0.00099,0.0008300000000000001,8e-05,0.00021,-0.00028,-0.00033999999999999997,-0.00045999999999999996,-0.00064,2
4547,4701,-0.00099,0.0008300000000000001,8e-05,0.00021,-0.00028,-0.00033999999999999997,-0.00045999999999999996,-0.00064,2
4548,4702,-0.00099,0.0008300000000000001,8e-05,0.00021,-0.00028,-0.00033999999999999997,-0.00045999999999999996,-0.00064,2
4549,4703,-0.00099,0.0008300000000000001,8e-05,0.00021,-0.00028,-0.00033999999999999997,-0.00045999999999999996,-0.00064,2
4550,4704,-0.00099,0.0008300000000000001,8e-05,0.00021,-0.00028,-0.00033999999999999997,-0.00045999999999999996,-0.00064,2
4551,4705,-0.00099,0.0008300000000000001,8e-05,0.00021,-0.00028,-0.00033999999999999997,-0.00045999999999999996,-0.00064,2
4552,4706,-0.00099,0.0008300000000000001,8e-05,0.00021,-0.00028,-0.00033999999999999997,-0.00045999999999999996,-0.00064,2
4553,4707,-0.00099,0.0008300000000000001,8e-05,0.00021,-0.00028,-0.00033999999999999997,-0.00045999999999999996,-0.00064,2
4554,4708,-0.00099,0.0008300000000000001,8e-05,0.00021,-0.00028,-0.00033999999999999997,-0.00045999999999999996,-0.00064,2
4555,4709,-0.00099,0.0008300000000000001,8e-05,0.00021,-0.00028,-0.00033999999999999997,-0.00045999999999999996,-0.00064,2
4556,4710,-0.00128,-0.00047000000000000004,-4e-05,-0.00011,2.9999999999999997e-05,0.0,-0.0005,-0.0007599999999999999,2
4557,4711,-0.00128,-0.00047000000000000004,-4e-05,-0.00011,2.9999999999999997e-05,0.0,-0.0005,-0.0007599999999999999,2
4558,4712,0.00065,-0.00066,4e-05,0.0002,0.00014,0.00033999999999999997,0.00044,0.00072,2
4559,4714,0.00065,-0.00066,4e-05,0.0002,0.00014,0.00033999999999999997,0.00044,0.00072,2
4560,4715,0.00065,-0.00066,4e-05,0.0002,0.00014,0.00033999999999999997,0.00044,0.00072,2
4561,4716,0.00065,-0.00066,4e-05,0.0002,0.00014,0.00033999999999999997,0.00044,0.00072,2
4562,4717,0.00065,-0.00066,4e-05,0.0002,0.00014,0.00033999999999999997,0.00044,0.00072,2
4563,4718,0.00065,-0.00066,4e-05,0.0002,0.00014,0.00033999999999999997,0.00044,0.00072,2
4564,4719,0.00065,-0.00066,4e-05,0.0002,0.00014,0.00033999999999999997,0.00044,0.00072,2
4565,4720,0.00065,-0.00066,4e-05,0.0002,0.00014,0.00033999999999999997,0.00044,0.00072,2
4566,4721,0.00065,-0.00066,4e-05,0.0002,0.00014,0.00033999999999999997,0.00044,0.00072,2
4567,4722,0.00065,-0.00066,4e-05,0.0002,0.00014,0.00033999999999999997,0.00044,0.00072,2
4568,4723,0.00065,-0.00066,4e-05,0.0002,0.00014,0.00033999999999999997,0.00044,0.00072,2
4569,4724,0.00112,-0.00045999999999999996,-9e-05,0.00031,0.0006,-0.00021,0.00026000000000000003,0.00036,2
4570,4725,0.00112,-0.00045999999999999996,-9e-05,0.00031,0.0006,-0.00021,0.00026000000000000003,0.00036,2
4571,4726,0.00112,-0.00045999999999999996,-9e-05,0.00031,0.0006,-0.00021,0.00026000000000000003,0.00036,2
4572,4727,0.00112,-0.00045999999999999996,-9e-05,0.00031,0.0006,-0.00021,0.00026000000000000003,0.00036,2
4573,4728,0.00112,-0.00045999999999999996,-9e-05,0.00031,0.0006,-0.00021,0.00026000000000000003,0.00036,2
4574,4729,0.00112,-0.00045999999999999996,-9e-05,0.00031,0.0006,-0.00021,0.00026000000000000003,0.00036,2
4575,4730,0.00112,-0.00045999999999999996,-9e-05,0.00031,0.0006,-0.00021,0.00026000000000000003,0.00036,2
4576,4731,0.00112,-0.00045999999999999996,-9e-05,0.00031,0.0006,-0.00021,0.00026000000000000003,0.00036,2
4577,4732,0.00112,-0.00045999999999999996,-9e-05,0.00031,0.0006,-0.00021,0.00026000000000000003,0.00036,2
4578,4733,0.00016,-0.00036,0.0,-5e-05,-0.0004,-2e-05,-0.00045999999999999996,-0.00067,2
4579,4734,0.00016,-0.00036,0.0,-5e-05,-0.0004,-2e-05,-0.00045999999999999996,-0.00067,2
4580,4735,0.00016,-0.00036,0.0,-5e-05,-0.0004,-2e-05,-0.00045999999999999996,-0.00067,2
4581,4736,0.00016,-0.00036,0.0,-5e-05,-0.0004,-2e-05,-0.00045999999999999996,-0.00067,2
4582,4738,0.00016,-0.00036,0.0,-5e-05,-0.0004,-2e-05,-0.00045999999999999996,-0.00067,2
4583,4739,0.00016,-0.00036,0.0,-5e-05,-0.0004,-2e-05,-0.00045999999999999996,-0.00067,2
4584,4740,0.00016,-0.00036,0.0,-5e-05,-0.0004,-2e-05,-0.00045999999999999996,-0.00067,2
4585,4741,0.00016,-0.00036,0.0,-5e-05,-0.0004,-2e-05,-0.00045999999999999996,-0.00067,2
4586,4742,0.00016,-0.00036,0.0,-5e-05,-0.0004,-2e-05,-0.00045999999999999996,-0.00067,2
4587,4743,0.00016,-0.00036,0.0,-5e-05,-0.0004,-2e-05,-0.00045999999999999996,-0.00067,2
4588,4744,0.00016,-0.00036,0.0,-5e-05,-0.0004,-2e-05,-0.00045999999999999996,-0.00067,2
4589,4745,0.00016,-0.00036,0.0,-5e-05,-0.0004,-2e-05,-0.00045999999999999996,-0.00067,2
4590,4746,0.00016,-0.00036,0.0,-5e-05,-0.0004,-2e-05,-0.00045999999999999996,-0.00067,2
4591,4747,0.00016,-0.00036,0.0,-5e-05,-0.0004,-2e-05,-0.00045999999999999996,-0.00067,2
4592,4748,0.0007,-0.00039,1e-05,0.00018999999999999998,0.00022999999999999998,0.00021,0.0005099999999999999,0.00028,2
4593,4749,-0.00128,0.00033999999999999997,-1e-05,-0.00018,2e-05,-0.00011,-0.00018,-0.00078,2
4594,4750,-0.00128,0.00033999999999999997,-1e-05,-0.00018,2e-05,-0.00011,-0.00018,-0.00078,2
4595,4751,-0.00128,0.00033999999999999997,-1e-05,-0.00018,2e-05,-0.00011,-0.00018,-0.00078,2
4596,4752,-0.00128,0.00033999999999999997,-1e-05,-0.00018,2e-05,-0.00011,-0.00018,-0.00078,2
4597,4753,-0.00128,0.00033999999999999997,-1e-05,-0.00018,2e-05,-0.00011,-0.00018,-0.00078,2
4598,4754,-0.00128,0.00033999999999999997,-1e-05,-0.00018,2e-05,-0.00011,-0.00018,-0.00078,2
4599,4755,-0.00128,0.00033999999999999997,-1e-05,-0.00018,2e-05,-0.00011,-0.00018,-0.00078,2
4600,4756,-0.00128,0.00033999999999999997,-1e-05,-0.00018,2e-05,-0.00011,-0.00018,-0.00078,2
4601,4757,-0.00128,0.00033999999999999997,-1e-05,-0.00018,2e-05,-0.00011,-0.00018,-0.00078,2
4602,4758,-0.00128,0.00033999999999999997,-1e-05,-0.00018,2e-05,-0.00011,-0.00018,-0.00078,2
4603,4759,-0.00128,0.00033999999999999997,-1e-05,-0.00018,2e-05,-0.00011,-0.00018,-0.00078,2
4604,4760,-0.00128,0.00033999999999999997,-1e-05,-0.00018,2e-05,-0.00011,-0.00018,-0.00078,2
4605,4761,-0.00128,0.00033999999999999997,-1e-05,-0.00018,2e-05,-0.00011,-0.00018,-0.00078,2
4606,4762,-0.00128,0.00033999999999999997,-1e-05,-0.00018,2e-05,-0.00011,-0.00018,-0.00078,2
4607,4763,-0.00128,0.00033999999999999997,-1e-05,-0.00018,2e-05,-0.00011,-0.00018,-0.00078,2
4608,4764,-0.00128,0.00033999999999999997,-1e-05,-0.00018,2e-05,-0.00011,-0.00018,-0.00078,2
4609,4765,-0.00128,0.00033999999999999997,-1e-05,-0.00018,2e-05,-0.00011,-0.00018,-0.00078,2
4610,4766,-0.00128,0.00033999999999999997,-1e-05,-0.00018,2e-05,-0.00011,-0.00018,-0.00078,2
4611,4767,-0.00128,0.00033999999999999997,-1e-05,-0.00018,2e-05,-0.00011,-0.00018,-0.00078,2
4612,4768,-0.00128,0.00033999999999999997,-1e-05,-0.00018,2e-05,-0.00011,-0.00018,-0.00078,2
4613,4769,-0.00128,0.00033999999999999997,-1e-05,-0.00018,2e-05,-0.00011,-0.00018,-0.00078,2
4614,4770,-0.00128,0.00037999999999999997,7e-05,0.0002,-0.00023999999999999998,0.00018,-9e-05,-0.00016,2
4615,4771,-0.00128,0.00037999999999999997,7e-05,0.0002,-0.00023999999999999998,0.00018,-9e-05,-0.00016,2
4616,4772,-0.00107,0.00101,0.00039,0.0004,9e-05,0.00039,0.0005,0.001,2
4617,4773,-0.00107,0.00101,0.00039,0.0004,9e-05,0.00039,0.0005,0.001,2
4618,4774,-0.00107,0.00101,0.00039,0.0004,9e-05,0.00039,0.0005,0.001,2
4619,4775,-0.00107,0.00101,0.00039,0.0004,9e-05,0.00039,0.0005,0.001,2
4620,4776,-0.00107,0.00101,0.00039,0.0004,9e-05,0.00039,0.0005,0.001,2
4621,4777,-0.00107,0.00101,0.00039,0.0004,9e-05,0.00039,0.0005,0.001,2
4622,4778,-0.00107,0.00101,0.00039,0.0004,9e-05,0.00039,0.0005,0.001,2
4623,4779,-0.00107,0.00101,0.00039,0.0004,9e-05,0.00039,0.0005,0.001,2
4624,4780,-0.00107,0.00101,0.00039,0.0004,9e-05,0.00039,0.0005,0.001,2
4625,4781,-0.00107,0.00101,0.00039,0.0004,9e-05,0.00039,0.0005,0.001,2
4626,4782,-0.00107,0.00101,0.00039,0.0004,9e-05,0.00039,0.0005,0.001,2
4627,4783,-0.00107,0.00101,0.00039,0.0004,9e-05,0.00039,0.0005,0.001,2
4628,4784,0.00022999999999999998,0.00029,0.0002,0.00053,-0.00028,-8e-05,0.0,0.00021,2
4629,4785,0.00022999999999999998,0.00029,0.0002,0.00053,-0.00028,-8e-05,0.0,0.00021,2
4630,4786,0.00022999999999999998,0.00029,0.0002,0.00053,-0.00028,-8e-05,0.0,0.00021,2
4631,4788,0.00022999999999999998,0.00029,0.0002,0.00053,-0.00028,-8e-05,0.0,0.00021,2
4632,4789,0.00022999999999999998,0.00029,0.0002,0.00053,-0.00028,-8e-05,0.0,0.00021,2
4633,4790,0.00022999999999999998,0.00029,0.0002,0.00053,-0.00028,-8e-05,0.0,0.00021,2
4634,4791,0.00022999999999999998,0.00029,0.0002,0.00053,-0.00028,-8e-05,0.0,0.00021,2
4635,4792,0.00022999999999999998,0.00029,0.0002,0.00053,-0.00028,-8e-05,0.0,0.00021,2
4636,4793,0.00029,-1e-05,-7e-05,-1e-05,0.0006,0.00025,-2e-05,0.00016999999999999999,2
4637,4794,0.00029,-1e-05,-7e-05,-1e-05,0.0006,0.00025,-2e-05,0.00016999999999999999,2
4638,4795,0.00029,-1e-05,-7e-05,-1e-05,0.0006,0.00025,-2e-05,0.00016999999999999999,2
4639,4796,0.00029,-1e-05,-7e-05,-1e-05,0.0006,0.00025,-2e-05,0.00016999999999999999,2
4640,4797,0.00029,-1e-05,-7e-05,-1e-05,0.0006,0.00025,-2e-05,0.00016999999999999999,2
4641,4798,0.00029,-1e-05,-7e-05,-1e-05,0.0006,0.00025,-2e-05,0.00016999999999999999,2
4642,4799,0.00029,-1e-05,-7e-05,-1e-05,0.0006,0.00025,-2e-05,0.00016999999999999999,2
4643,4800,0.00029,-1e-05,-7e-05,-1e-05,0.0006,0.00025,-2e-05,0.00016999999999999999,2
4644,4801,0.00029,-1e-05,-7e-05,-1e-05,0.0006,0.00025,-2e-05,0.00016999999999999999,2
4645,4802,0.00029,-1e-05,-7e-05,-1e-05,0.0006,0.00025,-2e-05,0.00016999999999999999,2
4646,4803,0.00029,-1e-05,-7e-05,-1e-05,0.0006,0.00025,-2e-05,0.00016999999999999999,2
4647,4804,0.00029,-1e-05,-7e-05,-1e-05,0.0006,0.00025,-2e-05,0.00016999999999999999,2
4648,4805,0.00029,-1e-05,-7e-05,-1e-05,0.0006,0.00025,-2e-05,0.00016999999999999999,2
4649,4806,0.00029,-1e-05,-7e-05,-1e-05,0.0006,0.00025,-2e-05,0.00016999999999999999,2
4650,4807,0.00029,-1e-05,-7e-05,-1e-05,0.0006,0.00025,-2e-05,0.00016999999999999999,2
4651,4808,-0.00047000000000000004,-0.0004,-1e-05,0.00014,-0.00031,0.00014,0.00043,0.00035,2
4652,4809,-0.00056,-0.00033,-2e-05,0.00013000000000000002,-0.00045,-0.0003,-1e-05,0.00039,2
4653,4810,-0.00056,-0.00033,-2e-05,0.00013000000000000002,-0.00045,-0.0003,-1e-05,0.00039,2
4654,4811,-0.00056,-0.00033,-2e-05,0.00013000000000000002,-0.00045,-0.0003,-1e-05,0.00039,2
4655,4812,-0.00056,-0.00033,-2e-05,0.00013000000000000002,-0.00045,-0.0003,-1e-05,0.00039,2
4656,4813,-0.00056,-0.00033,-2e-05,0.00013000000000000002,-0.00045,-0.0003,-1e-05,0.00039,2
4657,4814,-0.00056,-0.00033,-2e-05,0.00013000000000000002,-0.00045,-0.0003,-1e-05,0.00039,2
4658,4815,-0.00056,-0.00033,-2e-05,0.00013000000000000002,-0.00045,-0.0003,-1e-05,0.00039,2
4659,4816,-0.00056,-0.00033,-2e-05,0.00013000000000000002,-0.00045,-0.0003,-1e-05,0.00039,2
4660,4817,-0.00056,-0.00033,-2e-05,0.00013000000000000002,-0.00045,-0.0003,-1e-05,0.00039,2
4661,4818,-0.00056,-0.00033,-2e-05,0.00013000000000000002,-0.00045,-0.0003,-1e-05,0.00039,2
4662,4819,-0.00056,-0.00033,-2e-05,0.00013000000000000002,-0.00045,-0.0003,-1e-05,0.00039,2
4663,4820,-0.00056,-0.00033,-2e-05,0.00013000000000000002,-0.00045,-0.0003,-1e-05,0.00039,2
4664,4821,-0.00056,-0.00033,-2e-05,0.00013000000000000002,-0.00045,-0.0003,-1e-05,0.00039,2
4665,4822,-0.00056,-0.00033,-2e-05,0.00013000000000000002,-0.00045,-0.0003,-1e-05,0.00039,2
4666,4823,-0.00056,-0.00033,-2e-05,0.00013000000000000002,-0.00045,-0.0003,-1e-05,0.00039,2
4667,4824,-0.00056,-0.00033,-2e-05,0.00013000000000000002,-0.00045,-0.0003,-1e-05,0.00039,2
4668,4825,-0.00056,-0.00033,-2e-05,0.00013000000000000002,-0.00045,-0.0003,-1e-05,0.00039,2
4669,4826,-0.00056,-0.00033,-2e-05,0.00013000000000000002,-0.00045,-0.0003,-1e-05,0.00039,2
4670,4827,-0.00056,-0.00033,-2e-05,0.00013000000000000002,-0.00045,-0.0003,-1e-05,0.00039,2
4671,4828,-0.00056,-0.00033,-2e-05,0.00013000000000000002,-0.00045,-0.0003,-1e-05,0.00039,2
4672,4829,-0.00056,-0.00033,-2e-05,0.00013000000000000002,-0.00045,-0.0003,-1e-05,0.00039,2
4673,4830,0.0012699999999999999,-0.00056,-2.9999999999999997e-05,-2e-05,-0.00014,0.00011,0.0005,0.00045999999999999996,2
4674,4831,0.0012699999999999999,-0.00056,-2.9999999999999997e-05,-2e-05,-0.00014,0.00011,0.0005,0.00045999999999999996,2
4675,4832,0.00112,-0.0009699999999999999,-0.00011,5.9999999999999995e-05,-0.00013000000000000002,-0.0002,0.00029,-0.0005200000000000001,2
4676,4833,0.00112,-0.0009699999999999999,-0.00011,5.9999999999999995e-05,-0.00013000000000000002,-0.0002,0.00029,-0.0005200000000000001,2
4677,4834,0.00112,-0.0009699999999999999,-0.00011,5.9999999999999995e-05,-0.00013000000000000002,-0.0002,0.00029,-0.0005200000000000001,2
4678,4835,0.00112,-0.0009699999999999999,-0.00011,5.9999999999999995e-05,-0.00013000000000000002,-0.0002,0.00029,-0.0005200000000000001,2
4679,4836,0.00112,-0.0009699999999999999,-0.00011,5.9999999999999995e-05,-0.00013000000000000002,-0.0002,0.00029,-0.0005200000000000001,2
4680,4838,0.00112,-0.0009699999999999999,-0.00011,5.9999999999999995e-05,-0.00013000000000000002,-0.0002,0.00029,-0.0005200000000000001,2
4681,4839,0.00112,-0.0009699999999999999,-0.00011,5.9999999999999995e-05,-0.00013000000000000002,-0.0002,0.00029,-0.0005200000000000001,2
4682,4840,0.00112,-0.0009699999999999999,-0.00011,5.9999999999999995e-05,-0.00013000000000000002,-0.0002,0.00029,-0.0005200000000000001,2
4683,4841,0.00112,-0.0009699999999999999,-0.00011,5.9999999999999995e-05,-0.00013000000000000002,-0.0002,0.00029,-0.0005200000000000001,2
4684,4842,0.00112,-0.0009699999999999999,-0.00011,5.9999999999999995e-05,-0.00013000000000000002,-0.0002,0.00029,-0.0005200000000000001,2
4685,4843,0.00112,-0.0009699999999999999,-0.00011,5.9999999999999995e-05,-0.00013000000000000002,-0.0002,0.00029,-0.0005200000000000001,2
4686,4844,0.00112,-0.0009699999999999999,-0.00011,5.9999999999999995e-05,-0.00013000000000000002,-0.0002,0.00029,-0.0005200000000000001,2
4687,4845,0.00112,-0.0009699999999999999,-0.00011,5.9999999999999995e-05,-0.00013000000000000002,-0.0002,0.00029,-0.0005200000000000001,2
4688,4846,0.00112,-0.0009699999999999999,-0.00011,5.9999999999999995e-05,-0.00013000000000000002,-0.0002,0.00029,-0.0005200000000000001,2
4689,4847,0.00112,-0.0009699999999999999,-0.00011,5.9999999999999995e-05,-0.00013000000000000002,-0.0002,0.00029,-0.0005200000000000001,2
4690,4848,0.00112,-0.0009699999999999999,-0.00011,5.9999999999999995e-05,-0.00013000000000000002,-0.0002,0.00029,-0.0005200000000000001,2
4691,4849,0.00112,-0.0009699999999999999,-0.00011,5.9999999999999995e-05,-0.00013000000000000002,-0.0002,0.00029,-0.0005200000000000001,2
4692,4850,0.00112,-0.0009699999999999999,-0.00011,5.9999999999999995e-05,-0.00013000000000000002,-0.0002,0.00029,-0.0005200000000000001,2
4693,4851,0.00112,-0.0009699999999999999,-0.00011,5.9999999999999995e-05,-0.00013000000000000002,-0.0002,0.00029,-0.0005200000000000001,2
4694,4852,0.00112,-0.0009699999999999999,-0.00011,5.9999999999999995e-05,-0.00013000000000000002,-0.0002,0.00029,-0.0005200000000000001,2
4695,4853,-0.00112,-0.00032,-4e-05,-0.00031,-0.0003,-0.0002,-0.0007599999999999999,-0.00091,2
4696,4854,-0.0009,0.00064,0.00014,-4e-05,0.00055,0.00035,0.00037,0.00025,2
4697,4855,-0.0009,0.00064,0.00014,-4e-05,0.00055,0.00035,0.00037,0.00025,2
4698,4856,-0.0009,0.00064,0.00014,-4e-05,0.00055,0.00035,0.00037,0.00025,2
4699,4857,-0.0009,0.00064,0.00014,-4e-05,0.00055,0.00035,0.00037,0.00025,2
4700,4858,-0.0009,0.00064,0.00014,-4e-05,0.00055,0.00035,0.00037,0.00025,2
4701,4859,-0.0009,0.00064,0.00014,-4e-05,0.00055,0.00035,0.00037,0.00025,2
4702,4860,-0.0009,0.00064,0.00014,-4e-05,0.00055,0.00035,0.00037,0.00025,2
4703,4861,-0.0009,0.00064,0.00014,-4e-05,0.00055,0.00035,0.00037,0.00025,2
4704,4862,-0.0009,0.00064,0.00014,-4e-05,0.00055,0.00035,0.00037,0.00025,2
4705,4863,-0.0009,0.00064,0.00014,-4e-05,0.00055,0.00035,0.00037,0.00025,2
4706,4864,-0.0009,0.00064,0.00014,-4e-05,0.00055,0.00035,0.00037,0.00025,2
4707,4865,-0.0009,0.00064,0.00014,-4e-05,0.00055,0.00035,0.00037,0.00025,2
4708,4866,-0.0009,0.00064,0.00014,-4e-05,0.00055,0.00035,0.00037,0.00025,2
4709,4867,-0.00062,0.00022,-0.00016,-0.00036,0.00063,0.00039,8e-05,-0.00023999999999999998,2
4710,4868,-0.00062,0.00022,-0.00016,-0.00036,0.00063,0.00039,8e-05,-0.00023999999999999998,2
4711,4869,-0.00062,0.00022,-0.00016,-0.00036,0.00063,0.00039,8e-05,-0.00023999999999999998,2
4712,4870,-0.00062,0.00022,-0.00016,-0.00036,0.00063,0.00039,8e-05,-0.00023999999999999998,2
4713,4871,-0.00062,0.00022,-0.00016,-0.00036,0.00063,0.00039,8e-05,-0.00023999999999999998,2
4714,4872,-0.00062,0.00022,-0.00016,-0.00036,0.00063,0.00039,8e-05,-0.00023999999999999998,2
4715,4873,-0.00062,0.00022,-0.00016,-0.00036,0.00063,0.00039,8e-05,-0.00023999999999999998,2
4716,4874,-5e-05,-2e-05,-5e-05,-0.00045,-0.00035,0.0,-0.00073,-0.00021,2
4717,4875,-5e-05,-2e-05,-5e-05,-0.00045,-0.00035,0.0,-0.00073,-0.00021,2
4718,4876,-5e-05,-2e-05,-5e-05,-0.00045,-0.00035,0.0,-0.00073,-0.00021,2
4719,4877,-5e-05,-2e-05,-5e-05,-0.00045,-0.00035,0.0,-0.00073,-0.00021,2
4720,4878,-5e-05,-2e-05,-5e-05,-0.00045,-0.00035,0.0,-0.00073,-0.00021,2
4721,4879,-5e-05,-2e-05,-5e-05,-0.00045,-0.00035,0.0,-0.00073,-0.00021,2
4722,4880,-5e-05,-2e-05,-5e-05,-0.00045,-0.00035,0.0,-0.00073,-0.00021,2
4723,4881,-5e-05,-2e-05,-5e-05,-0.00045,-0.00035,0.0,-0.00073,-0.00021,2
4724,4882,-5e-05,-2e-05,-5e-05,-0.00045,-0.00035,0.0,-0.00073,-0.00021,2
4725,4883,-5e-05,-2e-05,-5e-05,-0.00045,-0.00035,0.0,-0.00073,-0.00021,2
4726,4884,-5e-05,-2e-05,-5e-05,-0.00045,-0.00035,0.0,-0.00073,-0.00021,2
4727,4885,-5e-05,-2e-05,-5e-05,-0.00045,-0.00035,0.0,-0.00073,-0.00021,2
4728,4886,-5e-05,-2e-05,-5e-05,-0.00045,-0.00035,0.0,-0.00073,-0.00021,2
4729,4888,-5e-05,-2e-05,-5e-05,-0.00045,-0.00035,0.0,-0.00073,-0.00021,2
4730,4889,-5e-05,-2e-05,-5e-05,-0.00045,-0.00035,0.0,-0.00073,-0.00021,2
4731,4890,-0.00043,0.00036,0.0001,0.00013000000000000002,0.0005099999999999999,0.00039,0.00033999999999999997,0.0005099999999999999,2
4732,4891,-0.00043,0.00036,0.0001,0.00013000000000000002,0.0005099999999999999,0.00039,0.00033999999999999997,0.0005099999999999999,2
4733,4892,0.0012699999999999999,-0.00103,-0.00027,2.9999999999999997e-05,-4e-05,-2e-05,0.0003,9e-05,2
4734,4893,0.0012699999999999999,-0.00103,-0.00027,2.9999999999999997e-05,-4e-05,-2e-05,0.0003,9e-05,2
4735,4894,0.0012699999999999999,-0.00103,-0.00027,2.9999999999999997e-05,-4e-05,-2e-05,0.0003,9e-05,2
4736,4895,0.0012699999999999999,-0.00103,-0.00027,2.9999999999999997e-05,-4e-05,-2e-05,0.0003,9e-05,2
4737,4896,0.0012699999999999999,-0.00103,-0.00027,2.9999999999999997e-05,-4e-05,-2e-05,0.0003,9e-05,2
4738,4897,0.0012699999999999999,-0.00103,-0.00027,2.9999999999999997e-05,-4e-05,-2e-05,0.0003,9e-05,2
4739,4898,0.0012699999999999999,-0.00103,-0.00027,2.9999999999999997e-05,-4e-05,-2e-05,0.0003,9e-05,2
4740,4899,0.0012699999999999999,-0.00103,-0.00027,2.9999999999999997e-05,-4e-05,-2e-05,0.0003,9e-05,2
4741,4900,0.0012699999999999999,-0.00103,-0.00027,2.9999999999999997e-05,-4e-05,-2e-05,0.0003,9e-05,2
4742,4901,0.0012699999999999999,-0.00103,-0.00027,2.9999999999999997e-05,-4e-05,-2e-05,0.0003,9e-05,2
4743,4902,0.0012699999999999999,-0.00103,-0.00027,2.9999999999999997e-05,-4e-05,-2e-05,0.0003,9e-05,2
4744,4903,0.0012699999999999999,-0.00103,-0.00027,2.9999999999999997e-05,-4e-05,-2e-05,0.0003,9e-05,2
4745,4904,0.0012699999999999999,-0.00103,-0.00027,2.9999999999999997e-05,-4e-05,-2e-05,0.0003,9e-05,2
4746,4905,0.0012699999999999999,-0.00103,-0.00027,2.9999999999999997e-05,-4e-05,-2e-05,0.0003,9e-05,2
4747,4906,0.0012699999999999999,-0.00103,-0.00027,2.9999999999999997e-05,-4e-05,-2e-05,0.0003,9e-05,2
4748,4907,0.0012699999999999999,-0.00103,-0.00027,2.9999999999999997e-05,-4e-05,-2e-05,0.0003,9e-05,2
4749,4908,0.0012699999999999999,-0.00103,-0.00027,2.9999999999999997e-05,-4e-05,-2e-05,0.0003,9e-05,2
4750,4909,0.0012699999999999999,-0.00103,-0.00027,2.9999999999999997e-05,-4e-05,-2e-05,0.0003,9e-05,2
4751,4910,0.0012699999999999999,-0.00103,-0.00027,2.9999999999999997e-05,-4e-05,-2e-05,0.0003,9e-05,2
4752,4911,0.0012699999999999999,-0.00103,-0.00027,2.9999999999999997e-05,-4e-05,-2e-05,0.0003,9e-05,2
4753,4912,0.0012699999999999999,-0.00103,-0.00027,2.9999999999999997e-05,-4e-05,-2e-05,0.0003,9e-05,2
4754,4913,-0.00123,0.00043,8e-05,-0.00037,-0.00011,1e-05,-0.00013000000000000002,-0.00037999999999999997,2
4755,4914,-0.00112,-0.00041,-8e-05,7e-05,-0.00015,-5.9999999999999995e-05,-0.00018999999999999998,-0.00054,2
4756,4915,-0.00112,-0.00041,-8e-05,7e-05,-0.00015,-5.9999999999999995e-05,-0.00018999999999999998,-0.00054,2
4757,4916,-0.00112,-0.00041,-8e-05,7e-05,-0.00015,-5.9999999999999995e-05,-0.00018999999999999998,-0.00054,2
4758,4917,-0.00112,-0.00041,-8e-05,7e-05,-0.00015,-5.9999999999999995e-05,-0.00018999999999999998,-0.00054,2
4759,4918,-0.00112,-0.00041,-8e-05,7e-05,-0.00015,-5.9999999999999995e-05,-0.00018999999999999998,-0.00054,2
4760,4919,-0.00112,-0.00041,-8e-05,7e-05,-0.00015,-5.9999999999999995e-05,-0.00018999999999999998,-0.00054,2
4761,4920,-0.00112,-0.00041,-8e-05,7e-05,-0.00015,-5.9999999999999995e-05,-0.00018999999999999998,-0.00054,2
4762,4921,-0.00112,-0.00041,-8e-05,7e-05,-0.00015,-5.9999999999999995e-05,-0.00018999999999999998,-0.00054,2
4763,4922,-0.00112,-0.00041,-8e-05,7e-05,-0.00015,-5.9999999999999995e-05,-0.00018999999999999998,-0.00054,2
4764,4923,-0.00112,-0.00041,-8e-05,7e-05,-0.00015,-5.9999999999999995e-05,-0.00018999999999999998,-0.00054,2
4765,4924,-0.00112,-0.00041,-8e-05,7e-05,-0.00015,-5.9999999999999995e-05,-0.00018999999999999998,-0.00054,2
4766,4925,-0.00112,-0.00041,-8e-05,7e-05,-0.00015,-5.9999999999999995e-05,-0.00018999999999999998,-0.00054,2
4767,4926,-0.00112,-0.00041,-8e-05,7e-05,-0.00015,-5.9999999999999995e-05,-0.00018999999999999998,-0.00054,2
4768,4927,-0.00112,-0.00041,-8e-05,7e-05,-0.00015,-5.9999999999999995e-05,-0.00018999999999999998,-0.00054,2
4769,4928,0.00056,0.0008300000000000001,0.00016999999999999999,0.00032,0.0002,1e-05,2e-05,0.00022,2
4770,4929,-0.00021,0.00035,-0.0001,1e-05,0.00099,0.00025,-5e-05,0.00039,2
4771,4931,-0.00021,0.00035,-0.0001,1e-05,0.00099,0.00025,-5e-05,0.00039,2
4772,4932,-0.00021,0.00035,-0.0001,1e-05,0.00099,0.00025,-5e-05,0.00039,2
4773,4933,-0.00021,0.00035,-0.0001,1e-05,0.00099,0.00025,-5e-05,0.00039,2
4774,4934,-0.00021,0.00035,-0.0001,1e-05,0.00099,0.00025,-5e-05,0.00039,2
4775,4935,-0.00021,0.00035,-0.0001,1e-05,0.00099,0.00025,-5e-05,0.00039,2
4776,4936,-0.00021,0.00035,-0.0001,1e-05,0.00099,0.00025,-5e-05,0.00039,2
4777,4938,-0.00021,0.00035,-0.0001,1e-05,0.00099,0.00025,-5e-05,0.00039,2
4778,4939,-0.00021,0.00035,-0.0001,1e-05,0.00099,0.00025,-5e-05,0.00039,2
4779,4940,-0.00021,0.00035,-0.0001,1e-05,0.00099,0.00025,-5e-05,0.00039,2
4780,4941,-0.00021,0.00035,-0.0001,1e-05,0.00099,0.00025,-5e-05,0.00039,2
4781,4942,-0.00021,0.00035,-0.0001,1e-05,0.00099,0.00025,-5e-05,0.00039,2
4782,4943,-0.00021,0.00035,-0.0001,1e-05,0.00099,0.00025,-5e-05,0.00039,2
4783,4944,-0.00021,0.00035,-0.0001,1e-05,0.00099,0.00025,-5e-05,0.00039,2
4784,4945,-0.00021,0.00035,-0.0001,1e-05,0.00099,0.00025,-5e-05,0.00039,2
4785,4946,-0.00021,0.00035,-0.0001,1e-05,0.00099,0.00025,-5e-05,0.00039,2
4786,4947,-0.00021,0.00035,-0.0001,1e-05,0.00099,0.00025,-5e-05,0.00039,2
4787,4948,-0.00021,0.00035,-0.0001,1e-05,0.00099,0.00025,-5e-05,0.00039,2
4788,4949,-0.00021,0.00035,-0.0001,1e-05,0.00099,0.00025,-5e-05,0.00039,2
4789,4950,0.00119,-0.00036,1e-05,9e-05,-0.00015,2.9999999999999997e-05,-0.00035,-0.00023999999999999998,2
4790,4951,0.00119,-0.00036,1e-05,9e-05,-0.00015,2.9999999999999997e-05,-0.00035,-0.00023999999999999998,2
4791,4952,-2e-05,0.0004,5e-05,-0.00011999999999999999,-0.00054,-0.00021,-1e-05,-2e-05,2
4792,4953,-2e-05,0.0004,5e-05,-0.00011999999999999999,-0.00054,-0.00021,-1e-05,-2e-05,2
4793,4954,-2e-05,0.0004,5e-05,-0.00011999999999999999,-0.00054,-0.00021,-1e-05,-2e-05,2
4794,4955,-2e-05,0.0004,5e-05,-0.00011999999999999999,-0.00054,-0.00021,-1e-05,-2e-05,2
4795,4956,-2e-05,0.0004,5e-05,-0.00011999999999999999,-0.00054,-0.00021,-1e-05,-2e-05,2
4796,4957,-2e-05,0.0004,5e-05,-0.00011999999999999999,-0.00054,-0.00021,-1e-05,-2e-05,2
4797,4958,-2e-05,0.0004,5e-05,-0.00011999999999999999,-0.00054,-0.00021,-1e-05,-2e-05,2
4798,4959,-2e-05,0.0004,5e-05,-0.00011999999999999999,-0.00054,-0.00021,-1e-05,-2e-05,2
4799,4960,-2e-05,0.0004,5e-05,-0.00011999999999999999,-0.00054,-0.00021,-1e-05,-2e-05,2
4800,4961,-2e-05,0.0004,5e-05,-0.00011999999999999999,-0.00054,-0.00021,-1e-05,-2e-05,2
4801,4962,-2e-05,0.0004,5e-05,-0.00011999999999999999,-0.00054,-0.00021,-1e-05,-2e-05,2
4802,4963,-2e-05,0.0004,5e-05,-0.00011999999999999999,-0.00054,-0.00021,-1e-05,-2e-05,2
4803,4964,-2e-05,0.0004,5e-05,-0.00011999999999999999,-0.00054,-0.00021,-1e-05,-2e-05,2
4804,4965,-2e-05,0.0004,5e-05,-0.00011999999999999999,-0.00054,-0.00021,-1e-05,-2e-05,2
4805,4966,-2e-05,0.0004,5e-05,-0.00011999999999999999,-0.00054,-0.00021,-1e-05,-2e-05,2
4806,4967,-2e-05,0.0004,5e-05,-0.00011999999999999999,-0.00054,-0.00021,-1e-05,-2e-05,2
4807,4968,-2e-05,0.0004,5e-05,-0.00011999999999999999,-0.00054,-0.00021,-1e-05,-2e-05,2
4808,4969,-2e-05,0.0004,5e-05,-0.00011999999999999999,-0.00054,-0.00021,-1e-05,-2e-05,2
4809,4970,-2e-05,0.0004,5e-05,-0.00011999999999999999,-0.00054,-0.00021,-1e-05,-2e-05,2
4810,4971,-2e-05,0.0004,5e-05,-0.00011999999999999999,-0.00054,-0.00021,-1e-05,-2e-05,2
4811,4972,-2e-05,0.0004,5e-05,-0.00011999999999999999,-0.00054,-0.00021,-1e-05,-2e-05,2
4812,4973,-0.0009599999999999999,0.00033,1e-05,-5e-05,-0.00016,5.9999999999999995e-05,-0.00018,0.00022999999999999998,2
4813,4974,-0.0009199999999999999,0.0003,9e-05,5e-05,-0.00021,2e-05,0.00018,0.0001,2
4814,4975,-0.0009199999999999999,0.0003,9e-05,5e-05,-0.00021,2e-05,0.00018,0.0001,2
4815,4976,-0.0009199999999999999,0.0003,9e-05,5e-05,-0.00021,2e-05,0.00018,0.0001,2
4816,4977,-0.0009199999999999999,0.0003,9e-05,5e-05,-0.00021,2e-05,0.00018,0.0001,2
4817,4978,-0.0009199999999999999,0.0003,9e-05,5e-05,-0.00021,2e-05,0.00018,0.0001,2
4818,4979,-0.0009199999999999999,0.0003,9e-05,5e-05,-0.00021,2e-05,0.00018,0.0001,2
4819,4980,-0.0009199999999999999,0.0003,9e-05,5e-05,-0.00021,2e-05,0.00018,0.0001,2
4820,4981,-0.0009199999999999999,0.0003,9e-05,5e-05,-0.00021,2e-05,0.00018,0.0001,2
4821,4982,-0.0009199999999999999,0.0003,9e-05,5e-05,-0.00021,2e-05,0.00018,0.0001,2
4822,4983,-0.0009199999999999999,0.0003,9e-05,5e-05,-0.00021,2e-05,0.00018,0.0001,2
4823,4984,-0.0009199999999999999,0.0003,9e-05,5e-05,-0.00021,2e-05,0.00018,0.0001,2
4824,4985,-0.0009199999999999999,0.0003,9e-05,5e-05,-0.00021,2e-05,0.00018,0.0001,2
4825,4986,-0.0009199999999999999,0.0003,9e-05,5e-05,-0.00021,2e-05,0.00018,0.0001,2
4826,4988,-0.00075,-0.00101,-8e-05,0.0002,-0.00064,-0.00028,0.00011,-8e-05,2
4827,4989,-0.00075,-0.00101,-8e-05,0.0002,-0.00064,-0.00028,0.00011,-8e-05,2
4828,4990,-0.00075,-0.00101,-8e-05,0.0002,-0.00064,-0.00028,0.00011,-8e-05,2
4829,4991,-0.00075,-0.00101,-8e-05,0.0002,-0.00064,-0.00028,0.00011,-8e-05,2
4830,4992,-0.00075,-0.00101,-8e-05,0.0002,-0.00064,-0.00028,0.00011,-8e-05,2
4831,4993,-0.00075,-0.00101,-8e-05,0.0002,-0.00064,-0.00028,0.00011,-8e-05,2
4832,4994,2e-05,0.0,0.0001,-2e-05,-0.00011999999999999999,2e-05,-5e-05,-0.00026000000000000003,2
4833,4995,2e-05,0.0,0.0001,-2e-05,-0.00011999999999999999,2e-05,-5e-05,-0.00026000000000000003,2
4834,4996,2e-05,0.0,0.0001,-2e-05,-0.00011999999999999999,2e-05,-5e-05,-0.00026000000000000003,2
4835,4997,2e-05,0.0,0.0001,-2e-05,-0.00011999999999999999,2e-05,-5e-05,-0.00026000000000000003,2
4836,4998,2e-05,0.0,0.0001,-2e-05,-0.00011999999999999999,2e-05,-5e-05,-0.00026000000000000003,2
4837,4999,2e-05,0.0,0.0001,-2e-05,-0.00011999999999999999,2e-05,-5e-05,-0.00026000000000000003,2
4838,5000,2e-05,0.0,0.0001,-2e-05,-0.00011999999999999999,2e-05,-5e-05,-0.00026000000000000003,2
4839,5001,2e-05,0.0,0.0001,-2e-05,-0.00011999999999999999,2e-05,-5e-05,-0.00026000000000000003,2
4840,5002,2e-05,0.0,0.0001,-2e-05,-0.00011999999999999999,2e-05,-5e-05,-0.00026000000000000003,2
4841,5003,2e-05,0.0,0.0001,-2e-05,-0.00011999999999999999,2e-05,-5e-05,-0.00026000000000000003,2
4842,5004,2e-05,0.0,0.0001,-2e-05,-0.00011999999999999999,2e-05,-5e-05,-0.00026000000000000003,2
4843,5005,2e-05,0.0,0.0001,-2e-05,-0.00011999999999999999,2e-05,-5e-05,-0.00026000000000000003,2
4844,5006,2e-05,0.0,0.0001,-2e-05,-0.00011999999999999999,2e-05,-5e-05,-0.00026000000000000003,2
4845,5007,2e-05,0.0,0.0001,-2e-05,-0.00011999999999999999,2e-05,-5e-05,-0.00026000000000000003,2
4846,5008,2e-05,0.0,0.0001,-2e-05,-0.00011999999999999999,2e-05,-5e-05,-0.00026000000000000003,2
4847,5009,2e-05,0.0,0.0001,-2e-05,-0.00011999999999999999,2e-05,-5e-05,-0.00026000000000000003,2
4848,5010,2e-05,0.0,0.0001,-2e-05,-0.00011999999999999999,2e-05,-5e-05,-0.00026000000000000003,2
4849,5011,0.0012699999999999999,-0.00016,1e-05,0.00022,-7e-05,-0.00025,0.00014,0.00016,2
4850,5012,-0.00128,-0.0001,-0.00016,-0.00028,0.00042,0.00014,0.0003,0.00011,2
4851,5013,0.00081,-0.00016999999999999999,2.9999999999999997e-05,1e-05,0.00022,-9e-05,-0.00013000000000000002,-7e-05,2
4852,5014,0.00081,-0.00016999999999999999,2.9999999999999997e-05,1e-05,0.00022,-9e-05,-0.00013000000000000002,-7e-05,2
4853,5015,0.00081,-0.00016999999999999999,2.9999999999999997e-05,1e-05,0.00022,-9e-05,-0.00013000000000000002,-7e-05,2
4854,5016,0.00081,-0.00016999999999999999,2.9999999999999997e-05,1e-05,0.00022,-9e-05,-0.00013000000000000002,-7e-05,2
4855,5017,0.00081,-0.00016999999999999999,2.9999999999999997e-05,1e-05,0.00022,-9e-05,-0.00013000000000000002,-7e-05,2
4856,5018,0.00081,-0.00016999999999999999,2.9999999999999997e-05,1e-05,0.00022,-9e-05,-0.00013000000000000002,-7e-05,2
4857,5019,0.00081,-0.00016999999999999999,2.9999999999999997e-05,1e-05,0.00022,-9e-05,-0.00013000000000000002,-7e-05,2
4858,5020,0.00081,-0.00016999999999999999,2.9999999999999997e-05,1e-05,0.00022,-9e-05,-0.00013000000000000002,-7e-05,2
4859,5021,0.00081,-0.00016999999999999999,2.9999999999999997e-05,1e-05,0.00022,-9e-05,-0.00013000000000000002,-7e-05,2
4860,5022,0.00081,-0.00016999999999999999,2.9999999999999997e-05,1e-05,0.00022,-9e-05,-0.00013000000000000002,-7e-05,2
4861,5023,0.00081,-0.00016999999999999999,2.9999999999999997e-05,1e-05,0.00022,-9e-05,-0.00013000000000000002,-7e-05,2
4862,5024,0.00081,-0.00016999999999999999,2.9999999999999997e-05,1e-05,0.00022,-9e-05,-0.00013000000000000002,-7e-05,2
4863,5025,0.00081,-0.00016999999999999999,2.9999999999999997e-05,1e-05,0.00022,-9e-05,-0.00013000000000000002,-7e-05,2
4864,5026,0.00081,-0.00016999999999999999,2.9999999999999997e-05,1e-05,0.00022,-9e-05,-0.00013000000000000002,-7e-05,2
4865,5027,0.00081,-0.00016999999999999999,2.9999999999999997e-05,1e-05,0.00022,-9e-05,-0.00013000000000000002,-7e-05,2
4866,5028,0.00081,-0.00016999999999999999,2.9999999999999997e-05,1e-05,0.00022,-9e-05,-0.00013000000000000002,-7e-05,2
4867,5029,0.00081,-0.00016999999999999999,2.9999999999999997e-05,1e-05,0.00022,-9e-05,-0.00013000000000000002,-7e-05,2
4868,5030,0.00081,-0.00016999999999999999,2.9999999999999997e-05,1e-05,0.00022,-9e-05,-0.00013000000000000002,-7e-05,2
4869,5031,0.00081,-0.00016999999999999999,2.9999999999999997e-05,1e-05,0.00022,-9e-05,-0.00013000000000000002,-7e-05,2
4870,5033,0.00081,-0.00016999999999999999,2.9999999999999997e-05,1e-05,0.00022,-9e-05,-0.00013000000000000002,-7e-05,2
4871,5034,0.00081,-0.00016999999999999999,2.9999999999999997e-05,1e-05,0.00022,-9e-05,-0.00013000000000000002,-7e-05,2
4872,5035,0.00081,-0.00016999999999999999,2.9999999999999997e-05,1e-05,0.00022,-9e-05,-0.00013000000000000002,-7e-05,2
4873,5036,0.00081,-0.00016999999999999999,2.9999999999999997e-05,1e-05,0.00022,-9e-05,-0.00013000000000000002,-7e-05,2
4874,5038,0.00081,-0.00016999999999999999,2.9999999999999997e-05,1e-05,0.00022,-9e-05,-0.00013000000000000002,-7e-05,2
4875,5039,0.00081,-0.00016999999999999999,2.9999999999999997e-05,1e-05,0.00022,-9e-05,-0.00013000000000000002,-7e-05,2
4876,5040,-0.00043,-4e-05,5e-05,-1e-05,-0.00018,4e-05,0.0002,0.00016,2
4877,5041,-0.00043,-4e-05,5e-05,-1e-05,-0.00018,4e-05,0.0002,0.00016,2
4878,5042,0.0012699999999999999,-0.00035,-8e-05,-2.9999999999999997e-05,-0.00022999999999999998,-7e-05,-0.00029,9e-05,2
4879,5043,0.0012699999999999999,-0.00035,-8e-05,-2.9999999999999997e-05,-0.00022999999999999998,-7e-05,-0.00029,9e-05,2
4880,5044,0.0012699999999999999,-0.00035,-8e-05,-2.9999999999999997e-05,-0.00022999999999999998,-7e-05,-0.00029,9e-05,2
4881,5045,0.0012699999999999999,-0.00035,-8e-05,-2.9999999999999997e-05,-0.00022999999999999998,-7e-05,-0.00029,9e-05,2
4882,5046,0.0012699999999999999,-0.00035,-8e-05,-2.9999999999999997e-05,-0.00022999999999999998,-7e-05,-0.00029,9e-05,2
4883,5047,-0.00029,0.0004,-0.00013000000000000002,-0.0007099999999999999,0.00033,0.00015,-0.00036,-0.0004,2
4884,5048,-0.00029,0.0004,-0.00013000000000000002,-0.0007099999999999999,0.00033,0.00015,-0.00036,-0.0004,2
4885,5049,-0.00029,0.0004,-0.00013000000000000002,-0.0007099999999999999,0.00033,0.00015,-0.00036,-0.0004,2
4886,5050,-0.00029,0.0004,-0.00013000000000000002,-0.0007099999999999999,0.00033,0.00015,-0.00036,-0.0004,2
4887,5051,-0.00029,0.0004,-0.00013000000000000002,-0.0007099999999999999,0.00033,0.00015,-0.00036,-0.0004,2
4888,5052,-0.00029,0.0004,-0.00013000000000000002,-0.0007099999999999999,0.00033,0.00015,-0.00036,-0.0004,2
4889,5053,-0.00029,0.0004,-0.00013000000000000002,-0.0007099999999999999,0.00033,0.00015,-0.00036,-0.0004,2
4890,5054,-0.0005099999999999999,0.00075,0.00014,5e-05,0.00014,0.0001,0.00037999999999999997,0.00016999999999999999,2
4891,5055,-0.0005099999999999999,0.00075,0.00014,5e-05,0.00014,0.0001,0.00037999999999999997,0.00016999999999999999,2
4892,5056,-0.0005099999999999999,0.00075,0.00014,5e-05,0.00014,0.0001,0.00037999999999999997,0.00016999999999999999,2
4893,5057,-0.0005099999999999999,0.00075,0.00014,5e-05,0.00014,0.0001,0.00037999999999999997,0.00016999999999999999,2
4894,5058,-0.0005099999999999999,0.00075,0.00014,5e-05,0.00014,0.0001,0.00037999999999999997,0.00016999999999999999,2
4895,5059,-0.0005099999999999999,0.00075,0.00014,5e-05,0.00014,0.0001,0.00037999999999999997,0.00016999999999999999,2
4896,5060,-0.0005099999999999999,0.00075,0.00014,5e-05,0.00014,0.0001,0.00037999999999999997,0.00016999999999999999,2
4897,5061,-0.0005099999999999999,0.00075,0.00014,5e-05,0.00014,0.0001,0.00037999999999999997,0.00016999999999999999,2
4898,5062,-0.0005099999999999999,0.00075,0.00014,5e-05,0.00014,0.0001,0.00037999999999999997,0.00016999999999999999,2
4899,5063,-0.0005099999999999999,0.00075,0.00014,5e-05,0.00014,0.0001,0.00037999999999999997,0.00016999999999999999,2
4900,5064,-0.0005099999999999999,0.00075,0.00014,5e-05,0.00014,0.0001,0.00037999999999999997,0.00016999999999999999,2
4901,5065,-0.0005099999999999999,0.00075,0.00014,5e-05,0.00014,0.0001,0.00037999999999999997,0.00016999999999999999,2
4902,5066,-0.0005099999999999999,0.00075,0.00014,5e-05,0.00014,0.0001,0.00037999999999999997,0.00016999999999999999,2
4903,5067,-0.0005099999999999999,0.00075,0.00014,5e-05,0.00014,0.0001,0.00037999999999999997,0.00016999999999999999,2
4904,5068,-0.0005099999999999999,0.00075,0.00014,5e-05,0.00014,0.0001,0.00037999999999999997,0.00016999999999999999,2
4905,5069,-0.0005099999999999999,0.00075,0.00014,5e-05,0.00014,0.0001,0.00037999999999999997,0.00016999999999999999,2
4906,5070,0.00059,-0.00084,-0.00011999999999999999,-5.9999999999999995e-05,1e-05,-0.00022,0.00018999999999999998,5.9999999999999995e-05,2
4907,5071,0.00059,-0.00084,-0.00011999999999999999,-5.9999999999999995e-05,1e-05,-0.00022,0.00018999999999999998,5.9999999999999995e-05,2
4908,5072,0.00042,-4e-05,-2e-05,0.00022,0.0,4e-05,7e-05,-0.00028,2
4909,5073,0.00042,-4e-05,-2e-05,0.00022,0.0,4e-05,7e-05,-0.00028,2
4910,5074,0.00042,-4e-05,-2e-05,0.00022,0.0,4e-05,7e-05,-0.00028,2
4911,5075,0.00042,-4e-05,-2e-05,0.00022,0.0,4e-05,7e-05,-0.00028,2
4912,5076,0.00042,-4e-05,-2e-05,0.00022,0.0,4e-05,7e-05,-0.00028,2
4913,5077,0.00042,-4e-05,-2e-05,0.00022,0.0,4e-05,7e-05,-0.00028,2
4914,5078,0.00042,-4e-05,-2e-05,0.00022,0.0,4e-05,7e-05,-0.00028,2
4915,5079,0.00042,-4e-05,-2e-05,0.00022,0.0,4e-05,7e-05,-0.00028,2
4916,5080,0.00042,-4e-05,-2e-05,0.00022,0.0,4e-05,7e-05,-0.00028,2
4917,5081,0.00042,-4e-05,-2e-05,0.00022,0.0,4e-05,7e-05,-0.00028,2
4918,5082,0.00042,-4e-05,-2e-05,0.00022,0.0,4e-05,7e-05,-0.00028,2
4919,5083,0.00042,-4e-05,-2e-05,0.00022,0.0,4e-05,7e-05,-0.00028,2
4920,5084,0.00042,-4e-05,-2e-05,0.00022,0.0,4e-05,7e-05,-0.00028,2
4921,5085,0.00042,-4e-05,-2e-05,0.00022,0.0,4e-05,7e-05,-0.00028,2
4922,5086,0.00042,-4e-05,-2e-05,0.00022,0.0,4e-05,7e-05,-0.00028,2
4923,5088,0.00042,-4e-05,-2e-05,0.00022,0.0,4e-05,7e-05,-0.00028,2
4924,5089,0.00042,-4e-05,-2e-05,0.00022,0.0,4e-05,7e-05,-0.00028,2
4925,5090,0.00042,-4e-05,-2e-05,0.00022,0.0,4e-05,7e-05,-0.00028,2
4926,5091,-0.00014,0.00082,0.00015,2.9999999999999997e-05,0.0,8e-05,1e-05,0.00021,2
4927,5092,-0.00014,0.00082,0.00015,2.9999999999999997e-05,0.0,8e-05,1e-05,0.00021,2
4928,5093,-0.00014,0.00082,0.00015,2.9999999999999997e-05,0.0,8e-05,1e-05,0.00021,2
4929,5094,-0.00014,0.00082,0.00015,2.9999999999999997e-05,0.0,8e-05,1e-05,0.00021,2
4930,5095,-0.00014,0.00082,0.00015,2.9999999999999997e-05,0.0,8e-05,1e-05,0.00021,2
4931,5096,-0.00014,0.00082,0.00015,2.9999999999999997e-05,0.0,8e-05,1e-05,0.00021,2
4932,5097,-0.00014,0.00082,0.00015,2.9999999999999997e-05,0.0,8e-05,1e-05,0.00021,2
4933,5098,-0.00014,0.00082,0.00015,2.9999999999999997e-05,0.0,8e-05,1e-05,0.00021,2
4934,5099,-0.00014,0.00082,0.00015,2.9999999999999997e-05,0.0,8e-05,1e-05,0.00021,2
4935,5100,-0.00128,-0.00039,-1e-05,0.00027,8e-05,8e-05,0.00037,1e-05,2
4936,5101,-0.00128,-0.00039,-1e-05,0.00027,8e-05,8e-05,0.00037,1e-05,2
4937,5102,-0.00128,-0.00039,-1e-05,0.00027,8e-05,8e-05,0.00037,1e-05,2
4938,5103,-0.00128,-0.00039,-1e-05,0.00027,8e-05,8e-05,0.00037,1e-05,2
4939,5104,-0.00128,-0.00039,-1e-05,0.00027,8e-05,8e-05,0.00037,1e-05,2
4940,5105,-0.00128,-0.00039,-1e-05,0.00027,8e-05,8e-05,0.00037,1e-05,2
4941,5106,-0.00128,-0.00039,-1e-05,0.00027,8e-05,8e-05,0.00037,1e-05,2
4942,5107,0.00095,-2.9999999999999997e-05,-7e-05,1e-05,-0.00016,2e-05,-0.00016,0.00014,2
4943,5108,0.00095,-2.9999999999999997e-05,-7e-05,1e-05,-0.00016,2e-05,-0.00016,0.00014,2
4944,5109,0.00095,-2.9999999999999997e-05,-7e-05,1e-05,-0.00016,2e-05,-0.00016,0.00014,2
4945,5110,0.00095,-2.9999999999999997e-05,-7e-05,1e-05,-0.00016,2e-05,-0.00016,0.00014,2
4946,5111,0.00095,-2.9999999999999997e-05,-7e-05,1e-05,-0.00016,2e-05,-0.00016,0.00014,2
4947,5112,0.00095,-2.9999999999999997e-05,-7e-05,1e-05,-0.00016,2e-05,-0.00016,0.00014,2
4948,5113,0.00095,-2.9999999999999997e-05,-7e-05,1e-05,-0.00016,2e-05,-0.00016,0.00014,2
4949,5114,-0.0004,-2e-05,-0.00016,-0.00042,4e-05,-2e-05,-0.00021,-0.00036,2
4950,5115,-0.0004,-2e-05,-0.00016,-0.00042,4e-05,-2e-05,-0.00021,-0.00036,2
4951,5116,-0.0004,-2e-05,-0.00016,-0.00042,4e-05,-2e-05,-0.00021,-0.00036,2
4952,5117,-0.0004,-2e-05,-0.00016,-0.00042,4e-05,-2e-05,-0.00021,-0.00036,2
4953,5118,-0.0004,-2e-05,-0.00016,-0.00042,4e-05,-2e-05,-0.00021,-0.00036,2
4954,5119,-0.0004,-2e-05,-0.00016,-0.00042,4e-05,-2e-05,-0.00021,-0.00036,2
4955,5120,-0.0004,-2e-05,-0.00016,-0.00042,4e-05,-2e-05,-0.00021,-0.00036,2
4956,5121,-0.0004,-2e-05,-0.00016,-0.00042,4e-05,-2e-05,-0.00021,-0.00036,2
4957,5122,-0.0004,-2e-05,-0.00016,-0.00042,4e-05,-2e-05,-0.00021,-0.00036,2
4958,5123,-0.0004,-2e-05,-0.00016,-0.00042,4e-05,-2e-05,-0.00021,-0.00036,2
4959,5124,-0.0004,-2e-05,-0.00016,-0.00042,4e-05,-2e-05,-0.00021,-0.00036,2
4960,5125,-0.0004,-2e-05,-0.00016,-0.00042,4e-05,-2e-05,-0.00021,-0.00036,2
4961,5126,-0.0004,-2e-05,-0.00016,-0.00042,4e-05,-2e-05,-0.00021,-0.00036,2
4962,5127,-0.0004,-2e-05,-0.00016,-0.00042,4e-05,-2e-05,-0.00021,-0.00036,2
4963,5128,-0.0004,-2e-05,-0.00016,-0.00042,4e-05,-2e-05,-0.00021,-0.00036,2
4964,5129,-0.0004,-2e-05,-0.00016,-0.00042,4e-05,-2e-05,-0.00021,-0.00036,2
4965,5130,0.00037,0.0001,5e-05,0.00022999999999999998,-0.00045999999999999996,-0.0003,0.00031,2.9999999999999997e-05,2
4966,5131,0.00037,0.0001,5e-05,0.00022999999999999998,-0.00045999999999999996,-0.0003,0.00031,2.9999999999999997e-05,2
4967,5132,0.00037,1e-05,-5e-05,0.0001,-0.00047999999999999996,-0.00023999999999999998,-0.00011999999999999999,5.9999999999999995e-05,2
4968,5133,0.00037,1e-05,-5e-05,0.0001,-0.00047999999999999996,-0.00023999999999999998,-0.00011999999999999999,5.9999999999999995e-05,2
4969,5134,0.00037,1e-05,-5e-05,0.0001,-0.00047999999999999996,-0.00023999999999999998,-0.00011999999999999999,5.9999999999999995e-05,2
4970,5135,0.00037,1e-05,-5e-05,0.0001,-0.00047999999999999996,-0.00023999999999999998,-0.00011999999999999999,5.9999999999999995e-05,2
4971,5136,0.00037,1e-05,-5e-05,0.0001,-0.00047999999999999996,-0.00023999999999999998,-0.00011999999999999999,5.9999999999999995e-05,2
4972,5138,0.00037,1e-05,-5e-05,0.0001,-0.00047999999999999996,-0.00023999999999999998,-0.00011999999999999999,5.9999999999999995e-05,2
4973,5139,0.00037,1e-05,-5e-05,0.0001,-0.00047999999999999996,-0.00023999999999999998,-0.00011999999999999999,5.9999999999999995e-05,2
4974,5140,0.00037,1e-05,-5e-05,0.0001,-0.00047999999999999996,-0.00023999999999999998,-0.00011999999999999999,5.9999999999999995e-05,2
4975,5141,0.00037,1e-05,-5e-05,0.0001,-0.00047999999999999996,-0.00023999999999999998,-0.00011999999999999999,5.9999999999999995e-05,2
4976,5142,0.00037,1e-05,-5e-05,0.0001,-0.00047999999999999996,-0.00023999999999999998,-0.00011999999999999999,5.9999999999999995e-05,2
4977,5143,0.00037,1e-05,-5e-05,0.0001,-0.00047999999999999996,-0.00023999999999999998,-0.00011999999999999999,5.9999999999999995e-05,2
4978,5144,0.00037,1e-05,-5e-05,0.0001,-0.00047999999999999996,-0.00023999999999999998,-0.00011999999999999999,5.9999999999999995e-05,2
4979,5145,0.00037,1e-05,-5e-05,0.0001,-0.00047999999999999996,-0.00023999999999999998,-0.00011999999999999999,5.9999999999999995e-05,2
4980,5146,0.00037,1e-05,-5e-05,0.0001,-0.00047999999999999996,-0.00023999999999999998,-0.00011999999999999999,5.9999999999999995e-05,2
4981,5147,0.00037,1e-05,-5e-05,0.0001,-0.00047999999999999996,-0.00023999999999999998,-0.00011999999999999999,5.9999999999999995e-05,2
4982,5148,0.00037,1e-05,-5e-05,0.0001,-0.00047999999999999996,-0.00023999999999999998,-0.00011999999999999999,5.9999999999999995e-05,2
4983,5149,0.00037,1e-05,-5e-05,0.0001,-0.00047999999999999996,-0.00023999999999999998,-0.00011999999999999999,5.9999999999999995e-05,2
4984,5150,0.00037,1e-05,-5e-05,0.0001,-0.00047999999999999996,-0.00023999999999999998,-0.00011999999999999999,5.9999999999999995e-05,2
4985,5151,0.00037,1e-05,-5e-05,0.0001,-0.00047999999999999996,-0.00023999999999999998,-0.00011999999999999999,5.9999999999999995e-05,2
4986,5152,0.00037,1e-05,-5e-05,0.0001,-0.00047999999999999996,-0.00023999999999999998,-0.00011999999999999999,5.9999999999999995e-05,2
4987,5153,-8e-05,0.0005099999999999999,8e-05,-5e-05,8e-05,5.9999999999999995e-05,-0.0001,2.9999999999999997e-05,2
4988,5154,0.00059,-0.00016999999999999999,1e-05,2e-05,-0.00035,-4e-05,-5e-05,0.00033,2
4989,5155,0.00059,-0.00016999999999999999,1e-05,2e-05,-0.00035,-4e-05,-5e-05,0.00033,2
4990,5156,0.00059,-0.00016999999999999999,1e-05,2e-05,-0.00035,-4e-05,-5e-05,0.00033,2
4991,5157,0.00059,-0.00016999999999999999,1e-05,2e-05,-0.00035,-4e-05,-5e-05,0.00033,2
4992,5158,0.00059,-0.00016999999999999999,1e-05,2e-05,-0.00035,-4e-05,-5e-05,0.00033,2
4993,5159,0.00059,-0.00016999999999999999,1e-05,2e-05,-0.00035,-4e-05,-5e-05,0.00033,2
4994,5160,0.00059,-0.00016999999999999999,1e-05,2e-05,-0.00035,-4e-05,-5e-05,0.00033,2
4995,5161,0.00059,-0.00016999999999999999,1e-05,2e-05,-0.00035,-4e-05,-5e-05,0.00033,2
4996,5162,0.00059,-0.00016999999999999999,1e-05,2e-05,-0.00035,-4e-05,-5e-05,0.00033,2
4997,5163,0.00059,-0.00016999999999999999,1e-05,2e-05,-0.00035,-4e-05,-5e-05,0.00033,2
4998,5164,0.00059,-0.00016999999999999999,1e-05,2e-05,-0.00035,-4e-05,-5e-05,0.00033,2
4999,5165,0.00059,-0.00016999999999999999,1e-05,2e-05,-0.00035,-4e-05,-5e-05,0.00033,2
5000,5166,0.00059,-0.00016999999999999999,1e-05,2e-05,-0.00035,-4e-05,-5e-05,0.00033,2
5001,5167,0.00079,-0.00072,-7e-05,5.9999999999999995e-05,5e-05,-5.9999999999999995e-05,4e-05,-0.00011,2
5002,5168,0.00079,-0.00072,-7e-05,5.9999999999999995e-05,5e-05,-5.9999999999999995e-05,4e-05,-0.00011,2
5003,5169,0.00079,-0.00072,-7e-05,5.9999999999999995e-05,5e-05,-5.9999999999999995e-05,4e-05,-0.00011,2
5004,5170,0.00079,-0.00072,-7e-05,5.9999999999999995e-05,5e-05,-5.9999999999999995e-05,4e-05,-0.00011,2
5005,5171,0.00079,-0.00072,-7e-05,5.9999999999999995e-05,5e-05,-5.9999999999999995e-05,4e-05,-0.00011,2
5006,5172,0.00079,-0.00072,-7e-05,5.9999999999999995e-05,5e-05,-5.9999999999999995e-05,4e-05,-0.00011,2
5007,5173,0.00079,-0.00072,-7e-05,5.9999999999999995e-05,5e-05,-5.9999999999999995e-05,4e-05,-0.00011,2
5008,5174,0.0004,0.00037,4e-05,-0.00011,-2e-05,-0.0001,2.9999999999999997e-05,0.00018,2
5009,5175,0.0004,0.00037,4e-05,-0.00011,-2e-05,-0.0001,2.9999999999999997e-05,0.00018,2
5010,5176,0.0004,0.00037,4e-05,-0.00011,-2e-05,-0.0001,2.9999999999999997e-05,0.00018,2
5011,5177,0.0004,0.00037,4e-05,-0.00011,-2e-05,-0.0001,2.9999999999999997e-05,0.00018,2
5012,5178,0.0004,0.00037,4e-05,-0.00011,-2e-05,-0.0001,2.9999999999999997e-05,0.00018,2
5013,5179,0.0004,0.00037,4e-05,-0.00011,-2e-05,-0.0001,2.9999999999999997e-05,0.00018,2
5014,5180,0.0004,0.00037,4e-05,-0.00011,-2e-05,-0.0001,2.9999999999999997e-05,0.00018,2
5015,5181,0.0004,0.00037,4e-05,-0.00011,-2e-05,-0.0001,2.9999999999999997e-05,0.00018,2
5016,5182,0.0004,0.00037,4e-05,-0.00011,-2e-05,-0.0001,2.9999999999999997e-05,0.00018,2
5017,5183,0.0004,0.00037,4e-05,-0.00011,-2e-05,-0.0001,2.9999999999999997e-05,0.00018,2
5018,5184,0.0004,0.00037,4e-05,-0.00011,-2e-05,-0.0001,2.9999999999999997e-05,0.00018,2
5019,5185,0.0004,0.00037,4e-05,-0.00011,-2e-05,-0.0001,2.9999999999999997e-05,0.00018,2
5020,5186,0.0004,0.00037,4e-05,-0.00011,-2e-05,-0.0001,2.9999999999999997e-05,0.00018,2
5021,5188,0.0004,0.00037,4e-05,-0.00011,-2e-05,-0.0001,2.9999999999999997e-05,0.00018,2
5022,5189,0.0004,0.00037,4e-05,-0.00011,-2e-05,-0.0001,2.9999999999999997e-05,0.00018,2
5023,5190,-9e-05,-0.00042,-9e-05,-0.00014,5.9999999999999995e-05,7e-05,-9e-05,-2e-05,2
5024,5191,-9e-05,-0.00042,-9e-05,-0.00014,5.9999999999999995e-05,7e-05,-9e-05,-2e-05,2
5025,5192,7e-05,0.00047000000000000004,0.00013000000000000002,0.00011,-0.0005200000000000001,-0.0001,-0.00027,-0.00036,2
5026,5193,7e-05,0.00047000000000000004,0.00013000000000000002,0.00011,-0.0005200000000000001,-0.0001,-0.00027,-0.00036,2
5027,5194,7e-05,0.00047000000000000004,0.00013000000000000002,0.00011,-0.0005200000000000001,-0.0001,-0.00027,-0.00036,2
5028,5195,7e-05,0.00047000000000000004,0.00013000000000000002,0.00011,-0.0005200000000000001,-0.0001,-0.00027,-0.00036,2
5029,5196,7e-05,0.00047000000000000004,0.00013000000000000002,0.00011,-0.0005200000000000001,-0.0001,-0.00027,-0.00036,2
5030,5197,7e-05,0.00047000000000000004,0.00013000000000000002,0.00011,-0.0005200000000000001,-0.0001,-0.00027,-0.00036,2
5031,5198,7e-05,0.00047000000000000004,0.00013000000000000002,0.00011,-0.0005200000000000001,-0.0001,-0.00027,-0.00036,2
5032,5199,7e-05,0.00047000000000000004,0.00013000000000000002,0.00011,-0.0005200000000000001,-0.0001,-0.00027,-0.00036,2
5033,5200,7e-05,0.00047000000000000004,0.00013000000000000002,0.00011,-0.0005200000000000001,-0.0001,-0.00027,-0.00036,2
5034,5201,7e-05,0.00047000000000000004,0.00013000000000000002,0.00011,-0.0005200000000000001,-0.0001,-0.00027,-0.00036,2
5035,5202,7e-05,0.00047000000000000004,0.00013000000000000002,0.00011,-0.0005200000000000001,-0.0001,-0.00027,-0.00036,2
5036,5203,7e-05,0.00047000000000000004,0.00013000000000000002,0.00011,-0.0005200000000000001,-0.0001,-0.00027,-0.00036,2
5037,5204,7e-05,0.00047000000000000004,0.00013000000000000002,0.00011,-0.0005200000000000001,-0.0001,-0.00027,-0.00036,2
5038,5205,7e-05,0.00047000000000000004,0.00013000000000000002,0.00011,-0.0005200000000000001,-0.0001,-0.00027,-0.00036,2
5039,5206,7e-05,0.00047000000000000004,0.00013000000000000002,0.00011,-0.0005200000000000001,-0.0001,-0.00027,-0.00036,2
5040,5207,7e-05,0.00047000000000000004,0.00013000000000000002,0.00011,-0.0005200000000000001,-0.0001,-0.00027,-0.00036,2
5041,5208,7e-05,0.00047000000000000004,0.00013000000000000002,0.00011,-0.0005200000000000001,-0.0001,-0.00027,-0.00036,2
5042,5209,7e-05,0.00047000000000000004,0.00013000000000000002,0.00011,-0.0005200000000000001,-0.0001,-0.00027,-0.00036,2
5043,5210,7e-05,0.00047000000000000004,0.00013000000000000002,0.00011,-0.0005200000000000001,-0.0001,-0.00027,-0.00036,2
5044,5211,7e-05,0.00047000000000000004,0.00013000000000000002,0.00011,-0.0005200000000000001,-0.0001,-0.00027,-0.00036,2
5045,5212,7e-05,0.00047000000000000004,0.00013000000000000002,0.00011,-0.0005200000000000001,-0.0001,-0.00027,-0.00036,2
5046,5213,-0.00059,-0.0001,-1e-05,-0.00022999999999999998,-0.00054,-5e-05,1e-05,-5.9999999999999995e-05,2
5047,5214,0.0005,-0.00025,-0.00013000000000000002,-0.00018,0.00064,5.9999999999999995e-05,0.0,0.00015,2
5048,5215,-9e-05,0.00031,9e-05,0.00028,-0.00033,-0.00013000000000000002,9e-05,0.00014,2
5049,5216,-9e-05,0.00031,9e-05,0.00028,-0.00033,-0.00013000000000000002,9e-05,0.00014,2
5050,5217,-9e-05,0.00031,9e-05,0.00028,-0.00033,-0.00013000000000000002,9e-05,0.00014,2
5051,5218,-9e-05,0.00031,9e-05,0.00028,-0.00033,-0.00013000000000000002,9e-05,0.00014,2
5052,5219,-9e-05,0.00031,9e-05,0.00028,-0.00033,-0.00013000000000000002,9e-05,0.00014,2
5053,5220,-9e-05,0.00031,9e-05,0.00028,-0.00033,-0.00013000000000000002,9e-05,0.00014,2
5054,5221,-9e-05,0.00031,9e-05,0.00028,-0.00033,-0.00013000000000000002,9e-05,0.00014,2
5055,5222,-9e-05,0.00031,9e-05,0.00028,-0.00033,-0.00013000000000000002,9e-05,0.00014,2
5056,5223,-9e-05,0.00031,9e-05,0.00028,-0.00033,-0.00013000000000000002,9e-05,0.00014,2
5057,5224,-9e-05,0.00031,9e-05,0.00028,-0.00033,-0.00013000000000000002,9e-05,0.00014,2
5058,5225,-9e-05,0.00031,9e-05,0.00028,-0.00033,-0.00013000000000000002,9e-05,0.00014,2
5059,5226,-9e-05,0.00031,9e-05,0.00028,-0.00033,-0.00013000000000000002,9e-05,0.00014,2
5060,5227,0.00029,0.00035,0.0,1e-05,0.00016999999999999999,5.9999999999999995e-05,2e-05,1e-05,2
5061,5228,0.00029,0.00035,0.0,1e-05,0.00016999999999999999,5.9999999999999995e-05,2e-05,1e-05,2
5062,5229,0.00029,0.00035,0.0,1e-05,0.00016999999999999999,5.9999999999999995e-05,2e-05,1e-05,2
5063,5230,0.00029,0.00035,0.0,1e-05,0.00016999999999999999,5.9999999999999995e-05,2e-05,1e-05,2
5064,5231,0.00029,0.00035,0.0,1e-05,0.00016999999999999999,5.9999999999999995e-05,2e-05,1e-05,2
5065,5232,0.00029,0.00035,0.0,1e-05,0.00016999999999999999,5.9999999999999995e-05,2e-05,1e-05,2
5066,5233,0.00029,0.00035,0.0,1e-05,0.00016999999999999999,5.9999999999999995e-05,2e-05,1e-05,2
5067,5234,-0.00029,-0.00022999999999999998,-0.0001,-0.0003,0.00027,0.0005,-0.0001,-0.0002,2
5068,5235,-0.00029,-0.00022999999999999998,-0.0001,-0.0003,0.00027,0.0005,-0.0001,-0.0002,2
5069,5236,-0.00029,-0.00022999999999999998,-0.0001,-0.0003,0.00027,0.0005,-0.0001,-0.0002,2
5070,5238,-0.00029,-0.00022999999999999998,-0.0001,-0.0003,0.00027,0.0005,-0.0001,-0.0002,2
5071,5239,-0.00029,-0.00022999999999999998,-0.0001,-0.0003,0.00027,0.0005,-0.0001,-0.0002,2
5072,5240,-0.00029,-0.00022999999999999998,-0.0001,-0.0003,0.00027,0.0005,-0.0001,-0.0002,2
5073,5241,-0.00029,-0.00022999999999999998,-0.0001,-0.0003,0.00027,0.0005,-0.0001,-0.0002,2
5074,5242,-0.00029,-0.00022999999999999998,-0.0001,-0.0003,0.00027,0.0005,-0.0001,-0.0002,2
5075,5243,-0.00029,-0.00022999999999999998,-0.0001,-0.0003,0.00027,0.0005,-0.0001,-0.0002,2
5076,5244,-0.00029,-0.00022999999999999998,-0.0001,-0.0003,0.00027,0.0005,-0.0001,-0.0002,2
5077,5245,-0.00029,-0.00022999999999999998,-0.0001,-0.0003,0.00027,0.0005,-0.0001,-0.0002,2
5078,5246,-0.00029,-0.00022999999999999998,-0.0001,-0.0003,0.00027,0.0005,-0.0001,-0.0002,2
5079,5247,-0.00029,-0.00022999999999999998,-0.0001,-0.0003,0.00027,0.0005,-0.0001,-0.0002,2
5080,5248,-0.00029,-0.00022999999999999998,-0.0001,-0.0003,0.00027,0.0005,-0.0001,-0.0002,2
5081,5249,-0.00029,-0.00022999999999999998,-0.0001,-0.0003,0.00027,0.0005,-0.0001,-0.0002,2
5082,5250,-0.00103,0.00016,-5.9999999999999995e-05,-0.00011,0.00032,-4e-05,-0.00022,-0.00049,2
5083,5251,-0.00103,0.00016,-5.9999999999999995e-05,-0.00011,0.00032,-4e-05,-0.00022,-0.00049,2
5084,5252,0.00063,-5e-05,-2.9999999999999997e-05,4e-05,0.00018999999999999998,0.00014,0.00018,0.00039,2
5085,5253,0.00063,-5e-05,-2.9999999999999997e-05,4e-05,0.00018999999999999998,0.00014,0.00018,0.00039,2
5086,5254,0.00063,-5e-05,-2.9999999999999997e-05,4e-05,0.00018999999999999998,0.00014,0.00018,0.00039,2
5087,5255,0.00063,-5e-05,-2.9999999999999997e-05,4e-05,0.00018999999999999998,0.00014,0.00018,0.00039,2
5088,5256,0.00063,-5e-05,-2.9999999999999997e-05,4e-05,0.00018999999999999998,0.00014,0.00018,0.00039,2
5089,5257,0.00063,-5e-05,-2.9999999999999997e-05,4e-05,0.00018999999999999998,0.00014,0.00018,0.00039,2
5090,5258,0.00063,-5e-05,-2.9999999999999997e-05,4e-05,0.00018999999999999998,0.00014,0.00018,0.00039,2
5091,5259,0.00063,-5e-05,-2.9999999999999997e-05,4e-05,0.00018999999999999998,0.00014,0.00018,0.00039,2
5092,5260,0.00063,-5e-05,-2.9999999999999997e-05,4e-05,0.00018999999999999998,0.00014,0.00018,0.00039,2
5093,5261,0.00063,-5e-05,-2.9999999999999997e-05,4e-05,0.00018999999999999998,0.00014,0.00018,0.00039,2
5094,5262,0.00063,-5e-05,-2.9999999999999997e-05,4e-05,0.00018999999999999998,0.00014,0.00018,0.00039,2
5095,5263,0.00063,-5e-05,-2.9999999999999997e-05,4e-05,0.00018999999999999998,0.00014,0.00018,0.00039,2
5096,5264,0.00063,-5e-05,-2.9999999999999997e-05,4e-05,0.00018999999999999998,0.00014,0.00018,0.00039,2
5097,5265,0.00063,-5e-05,-2.9999999999999997e-05,4e-05,0.00018999999999999998,0.00014,0.00018,0.00039,2
5098,5266,0.00063,-5e-05,-2.9999999999999997e-05,4e-05,0.00018999999999999998,0.00014,0.00018,0.00039,2
5099,5267,0.00063,-5e-05,-2.9999999999999997e-05,4e-05,0.00018999999999999998,0.00014,0.00018,0.00039,2
5100,5268,0.00063,-5e-05,-2.9999999999999997e-05,4e-05,0.00018999999999999998,0.00014,0.00018,0.00039,2
5101,5269,0.00063,-5e-05,-2.9999999999999997e-05,4e-05,0.00018999999999999998,0.00014,0.00018,0.00039,2
5102,5270,0.00063,-5e-05,-2.9999999999999997e-05,4e-05,0.00018999999999999998,0.00014,0.00018,0.00039,2
5103,5271,0.00063,-5e-05,-2.9999999999999997e-05,4e-05,0.00018999999999999998,0.00014,0.00018,0.00039,2
5104,5272,0.00063,-5e-05,-2.9999999999999997e-05,4e-05,0.00018999999999999998,0.00014,0.00018,0.00039,2
5105,5273,0.00015,0.0,9e-05,1e-05,-4e-05,0.00028,0.00021,0.00013000000000000002,2
5106,5274,-0.0011099999999999999,-0.0003,-8e-05,-2e-05,-1e-05,-9e-05,-0.00014,-0.0002,2
5107,5275,-0.0011099999999999999,-0.0003,-8e-05,-2e-05,-1e-05,-9e-05,-0.00014,-0.0002,2
5108,5276,-0.0011099999999999999,-0.0003,-8e-05,-2e-05,-1e-05,-9e-05,-0.00014,-0.0002,2
5109,5277,-0.0011099999999999999,-0.0003,-8e-05,-2e-05,-1e-05,-9e-05,-0.00014,-0.0002,2
5110,5278,-0.0011099999999999999,-0.0003,-8e-05,-2e-05,-1e-05,-9e-05,-0.00014,-0.0002,2
5111,5279,-0.0011099999999999999,-0.0003,-8e-05,-2e-05,-1e-05,-9e-05,-0.00014,-0.0002,2
5112,5280,-0.0011099999999999999,-0.0003,-8e-05,-2e-05,-1e-05,-9e-05,-0.00014,-0.0002,2
5113,5281,-0.0011099999999999999,-0.0003,-8e-05,-2e-05,-1e-05,-9e-05,-0.00014,-0.0002,2
5114,5282,-0.0011099999999999999,-0.0003,-8e-05,-2e-05,-1e-05,-9e-05,-0.00014,-0.0002,2
5115,5283,-0.0011099999999999999,-0.0003,-8e-05,-2e-05,-1e-05,-9e-05,-0.00014,-0.0002,2
5116,5284,-0.0011099999999999999,-0.0003,-8e-05,-2e-05,-1e-05,-9e-05,-0.00014,-0.0002,2
5117,5285,-0.0011099999999999999,-0.0003,-8e-05,-2e-05,-1e-05,-9e-05,-0.00014,-0.0002,2
5118,5286,-0.0011099999999999999,-0.0003,-8e-05,-2e-05,-1e-05,-9e-05,-0.00014,-0.0002,2
5119,5288,-0.0012699999999999999,-0.00031,-4e-05,8e-05,8e-05,0.00011,-0.00016999999999999999,-0.00022,2
5120,5289,-0.0012699999999999999,-0.00031,-4e-05,8e-05,8e-05,0.00011,-0.00016999999999999999,-0.00022,2
5121,5290,-0.0012699999999999999,-0.00031,-4e-05,8e-05,8e-05,0.00011,-0.00016999999999999999,-0.00022,2
5122,5291,-0.0012699999999999999,-0.00031,-4e-05,8e-05,8e-05,0.00011,-0.00016999999999999999,-0.00022,2
5123,5292,-0.0012699999999999999,-0.00031,-4e-05,8e-05,8e-05,0.00011,-0.00016999999999999999,-0.00022,2
5124,5293,-0.0012699999999999999,-0.00031,-4e-05,8e-05,8e-05,0.00011,-0.00016999999999999999,-0.00022,2
5125,5294,0.0012699999999999999,-0.00013000000000000002,1e-05,-2.9999999999999997e-05,-0.00035,-9e-05,9e-05,0.00025,2
5126,5295,0.0012699999999999999,-0.00013000000000000002,1e-05,-2.9999999999999997e-05,-0.00035,-9e-05,9e-05,0.00025,2
5127,5296,0.0012699999999999999,-0.00013000000000000002,1e-05,-2.9999999999999997e-05,-0.00035,-9e-05,9e-05,0.00025,2
5128,5297,0.0012699999999999999,-0.00013000000000000002,1e-05,-2.9999999999999997e-05,-0.00035,-9e-05,9e-05,0.00025,2
5129,5298,0.0012699999999999999,-0.00013000000000000002,1e-05,-2.9999999999999997e-05,-0.00035,-9e-05,9e-05,0.00025,2
5130,5299,0.0012699999999999999,-0.00013000000000000002,1e-05,-2.9999999999999997e-05,-0.00035,-9e-05,9e-05,0.00025,2
5131,5300,0.0012699999999999999,-0.00013000000000000002,1e-05,-2.9999999999999997e-05,-0.00035,-9e-05,9e-05,0.00025,2
5132,5301,0.0012699999999999999,-0.00013000000000000002,1e-05,-2.9999999999999997e-05,-0.00035,-9e-05,9e-05,0.00025,2
5133,5302,0.0012699999999999999,-0.00013000000000000002,1e-05,-2.9999999999999997e-05,-0.00035,-9e-05,9e-05,0.00025,2
5134,5303,0.0012699999999999999,-0.00013000000000000002,1e-05,-2.9999999999999997e-05,-0.00035,-9e-05,9e-05,0.00025,2
5135,5304,0.0012699999999999999,-0.00013000000000000002,1e-05,-2.9999999999999997e-05,-0.00035,-9e-05,9e-05,0.00025,2
5136,5305,0.0012699999999999999,-0.00013000000000000002,1e-05,-2.9999999999999997e-05,-0.00035,-9e-05,9e-05,0.00025,2
5137,5306,0.0012699999999999999,-0.00013000000000000002,1e-05,-2.9999999999999997e-05,-0.00035,-9e-05,9e-05,0.00025,2
5138,5307,0.0012699999999999999,-0.00013000000000000002,1e-05,-2.9999999999999997e-05,-0.00035,-9e-05,9e-05,0.00025,2
5139,5308,0.0012699999999999999,-0.00013000000000000002,1e-05,-2.9999999999999997e-05,-0.00035,-9e-05,9e-05,0.00025,2
5140,5309,0.0012699999999999999,-0.00013000000000000002,1e-05,-2.9999999999999997e-05,-0.00035,-9e-05,9e-05,0.00025,2
5141,5310,0.0012699999999999999,-0.00013000000000000002,1e-05,-2.9999999999999997e-05,-0.00035,-9e-05,9e-05,0.00025,2
5142,5311,0.0012699999999999999,-0.00013000000000000002,1e-05,-2.9999999999999997e-05,-0.00035,-9e-05,9e-05,0.00025,2
5143,5312,0.0012699999999999999,-0.00013000000000000002,1e-05,-2.9999999999999997e-05,-0.00035,-9e-05,9e-05,0.00025,2
5144,5313,0.0012699999999999999,-0.00013000000000000002,1e-05,-2.9999999999999997e-05,-0.00035,-9e-05,9e-05,0.00025,2
5145,5314,0.0012699999999999999,-0.00013000000000000002,1e-05,-2.9999999999999997e-05,-0.00035,-9e-05,9e-05,0.00025,2
5146,5315,0.0012699999999999999,-0.00013000000000000002,1e-05,-2.9999999999999997e-05,-0.00035,-9e-05,9e-05,0.00025,2
5147,5316,0.0012699999999999999,-0.00013000000000000002,1e-05,-2.9999999999999997e-05,-0.00035,-9e-05,9e-05,0.00025,2
5148,5317,0.0012699999999999999,-0.00013000000000000002,1e-05,-2.9999999999999997e-05,-0.00035,-9e-05,9e-05,0.00025,2
5149,5318,-0.00115,0.00045,4e-05,5e-05,-0.00021,0.00018,0.00011,-2e-05,2
5150,5319,0.00088,-0.0012,-0.00013000000000000002,5e-05,1e-05,7e-05,2e-05,0.00031,2
5151,5320,0.00088,-0.0012,-0.00013000000000000002,5e-05,1e-05,7e-05,2e-05,0.00031,2
5152,5321,0.00088,-0.0012,-0.00013000000000000002,5e-05,1e-05,7e-05,2e-05,0.00031,2
5153,5322,0.00088,-0.0012,-0.00013000000000000002,5e-05,1e-05,7e-05,2e-05,0.00031,2
5154,5323,0.00088,-0.0012,-0.00013000000000000002,5e-05,1e-05,7e-05,2e-05,0.00031,2
5155,5324,0.00088,-0.0012,-0.00013000000000000002,5e-05,1e-05,7e-05,2e-05,0.00031,2
5156,5325,0.00088,-0.0012,-0.00013000000000000002,5e-05,1e-05,7e-05,2e-05,0.00031,2
5157,5326,0.00088,-0.0012,-0.00013000000000000002,5e-05,1e-05,7e-05,2e-05,0.00031,2
5158,5327,0.00088,-0.0012,-0.00013000000000000002,5e-05,1e-05,7e-05,2e-05,0.00031,2
5159,5328,0.00088,-0.0012,-0.00013000000000000002,5e-05,1e-05,7e-05,2e-05,0.00031,2
5160,5329,0.00088,-0.0012,-0.00013000000000000002,5e-05,1e-05,7e-05,2e-05,0.00031,2
5161,5330,0.00088,-0.0012,-0.00013000000000000002,5e-05,1e-05,7e-05,2e-05,0.00031,2
5162,5331,0.00088,-0.0012,-0.00013000000000000002,5e-05,1e-05,7e-05,2e-05,0.00031,2
5163,5332,0.00088,-0.0012,-0.00013000000000000002,5e-05,1e-05,7e-05,2e-05,0.00031,2
5164,5333,0.00031,-0.00011,-0.00014,-0.00033,0.0002,-0.00016999999999999999,-0.00022999999999999998,-0.00056,2
5165,5334,0.00037999999999999997,-0.00054,-0.00014,-1e-05,7e-05,-0.00023999999999999998,-0.00022,-0.00035,2
5166,5335,0.00037999999999999997,-0.00054,-0.00014,-1e-05,7e-05,-0.00023999999999999998,-0.00022,-0.00035,2
5167,5336,0.00037999999999999997,-0.00054,-0.00014,-1e-05,7e-05,-0.00023999999999999998,-0.00022,-0.00035,2
5168,5338,0.00037999999999999997,-0.00054,-0.00014,-1e-05,7e-05,-0.00023999999999999998,-0.00022,-0.00035,2
5169,5339,0.00037999999999999997,-0.00054,-0.00014,-1e-05,7e-05,-0.00023999999999999998,-0.00022,-0.00035,2
5170,5340,0.00037999999999999997,-0.00054,-0.00014,-1e-05,7e-05,-0.00023999999999999998,-0.00022,-0.00035,2
5171,5341,0.00037999999999999997,-0.00054,-0.00014,-1e-05,7e-05,-0.00023999999999999998,-0.00022,-0.00035,2
5172,5342,0.00037999999999999997,-0.00054,-0.00014,-1e-05,7e-05,-0.00023999999999999998,-0.00022,-0.00035,2
5173,5343,0.00037999999999999997,-0.00054,-0.00014,-1e-05,7e-05,-0.00023999999999999998,-0.00022,-0.00035,2
5174,5344,0.00037999999999999997,-0.00054,-0.00014,-1e-05,7e-05,-0.00023999999999999998,-0.00022,-0.00035,2
5175,5345,0.00037999999999999997,-0.00054,-0.00014,-1e-05,7e-05,-0.00023999999999999998,-0.00022,-0.00035,2
5176,5346,0.00037999999999999997,-0.00054,-0.00014,-1e-05,7e-05,-0.00023999999999999998,-0.00022,-0.00035,2
5177,5347,0.00067,5.9999999999999995e-05,1e-05,-2e-05,0.00016999999999999999,-0.00014,0.00016,0.00022999999999999998,2
5178,5348,0.00067,5.9999999999999995e-05,1e-05,-2e-05,0.00016999999999999999,-0.00014,0.00016,0.00022999999999999998,2
5179,5349,0.00067,5.9999999999999995e-05,1e-05,-2e-05,0.00016999999999999999,-0.00014,0.00016,0.00022999999999999998,2
5180,5350,0.00067,5.9999999999999995e-05,1e-05,-2e-05,0.00016999999999999999,-0.00014,0.00016,0.00022999999999999998,2
5181,5351,0.00067,5.9999999999999995e-05,1e-05,-2e-05,0.00016999999999999999,-0.00014,0.00016,0.00022999999999999998,2
5182,5352,0.00067,5.9999999999999995e-05,1e-05,-2e-05,0.00016999999999999999,-0.00014,0.00016,0.00022999999999999998,2
5183,5353,0.00067,5.9999999999999995e-05,1e-05,-2e-05,0.00016999999999999999,-0.00014,0.00016,0.00022999999999999998,2
5184,5354,0.00067,5.9999999999999995e-05,1e-05,-2e-05,0.00016999999999999999,-0.00014,0.00016,0.00022999999999999998,2
5185,5355,0.00016,0.00011,2.9999999999999997e-05,-0.00022,-0.00013000000000000002,5.9999999999999995e-05,8e-05,0.0002,2
5186,5356,0.00016,0.00011,2.9999999999999997e-05,-0.00022,-0.00013000000000000002,5.9999999999999995e-05,8e-05,0.0002,2
5187,5357,0.00016,0.00011,2.9999999999999997e-05,-0.00022,-0.00013000000000000002,5.9999999999999995e-05,8e-05,0.0002,2
5188,5358,0.00016,0.00011,2.9999999999999997e-05,-0.00022,-0.00013000000000000002,5.9999999999999995e-05,8e-05,0.0002,2
5189,5359,0.00016,0.00011,2.9999999999999997e-05,-0.00022,-0.00013000000000000002,5.9999999999999995e-05,8e-05,0.0002,2
5190,5360,0.00016,0.00011,2.9999999999999997e-05,-0.00022,-0.00013000000000000002,5.9999999999999995e-05,8e-05,0.0002,2
5191,5361,0.00016,0.00011,2.9999999999999997e-05,-0.00022,-0.00013000000000000002,5.9999999999999995e-05,8e-05,0.0002,2
5192,5362,0.00016,0.00011,2.9999999999999997e-05,-0.00022,-0.00013000000000000002,5.9999999999999995e-05,8e-05,0.0002,2
5193,5363,0.00016,0.00011,2.9999999999999997e-05,-0.00022,-0.00013000000000000002,5.9999999999999995e-05,8e-05,0.0002,2
5194,5364,0.00016,0.00011,2.9999999999999997e-05,-0.00022,-0.00013000000000000002,5.9999999999999995e-05,8e-05,0.0002,2
5195,5365,0.00016,0.00011,2.9999999999999997e-05,-0.00022,-0.00013000000000000002,5.9999999999999995e-05,8e-05,0.0002,2
5196,5366,0.00016,0.00011,2.9999999999999997e-05,-0.00022,-0.00013000000000000002,5.9999999999999995e-05,8e-05,0.0002,2
5197,5367,0.00016,0.00011,2.9999999999999997e-05,-0.00022,-0.00013000000000000002,5.9999999999999995e-05,8e-05,0.0002,2
5198,5368,0.00016,0.00011,2.9999999999999997e-05,-0.00022,-0.00013000000000000002,5.9999999999999995e-05,8e-05,0.0002,2
5199,5369,0.00016,0.00011,2.9999999999999997e-05,-0.00022,-0.00013000000000000002,5.9999999999999995e-05,8e-05,0.0002,2
5200,5370,0.00115,-0.00037,-0.00011999999999999999,-0.00014,-0.0002,-0.00021,-0.00025,-0.00033999999999999997,2
5201,5371,0.00115,-0.00037,-0.00011999999999999999,-0.00014,-0.0002,-0.00021,-0.00025,-0.00033999999999999997,2
5202,5372,0.00062,-0.00018,0.00014,0.00049,-0.00022,2.9999999999999997e-05,0.00016999999999999999,0.00015,2
5203,5373,0.00062,-0.00018,0.00014,0.00049,-0.00022,2.9999999999999997e-05,0.00016999999999999999,0.00015,2
5204,5374,0.00062,-0.00018,0.00014,0.00049,-0.00022,2.9999999999999997e-05,0.00016999999999999999,0.00015,2
5205,5375,0.00062,-0.00018,0.00014,0.00049,-0.00022,2.9999999999999997e-05,0.00016999999999999999,0.00015,2
5206,5376,0.00062,-0.00018,0.00014,0.00049,-0.00022,2.9999999999999997e-05,0.00016999999999999999,0.00015,2
5207,5377,0.00062,-0.00018,0.00014,0.00049,-0.00022,2.9999999999999997e-05,0.00016999999999999999,0.00015,2
5208,5378,0.00062,-0.00018,0.00014,0.00049,-0.00022,2.9999999999999997e-05,0.00016999999999999999,0.00015,2
5209,5379,0.00062,-0.00018,0.00014,0.00049,-0.00022,2.9999999999999997e-05,0.00016999999999999999,0.00015,2
5210,5380,0.00062,-0.00018,0.00014,0.00049,-0.00022,2.9999999999999997e-05,0.00016999999999999999,0.00015,2
5211,5381,0.00062,-0.00018,0.00014,0.00049,-0.00022,2.9999999999999997e-05,0.00016999999999999999,0.00015,2
5212,5382,0.00062,-0.00018,0.00014,0.00049,-0.00022,2.9999999999999997e-05,0.00016999999999999999,0.00015,2
5213,5383,0.00062,-0.00018,0.00014,0.00049,-0.00022,2.9999999999999997e-05,0.00016999999999999999,0.00015,2
5214,5384,0.00062,-0.00018,0.00014,0.00049,-0.00022,2.9999999999999997e-05,0.00016999999999999999,0.00015,2
5215,5385,0.00062,-0.00018,0.00014,0.00049,-0.00022,2.9999999999999997e-05,0.00016999999999999999,0.00015,2
5216,5386,0.00062,-0.00018,0.00014,0.00049,-0.00022,2.9999999999999997e-05,0.00016999999999999999,0.00015,2
5217,5388,0.00062,-0.00018,0.00014,0.00049,-0.00022,2.9999999999999997e-05,0.00016999999999999999,0.00015,2
5218,5389,0.00062,-0.00018,0.00014,0.00049,-0.00022,2.9999999999999997e-05,0.00016999999999999999,0.00015,2
5219,5390,0.00062,-0.00018,0.00014,0.00049,-0.00022,2.9999999999999997e-05,0.00016999999999999999,0.00015,2
5220,5391,0.00062,-0.00018,0.00014,0.00049,-0.00022,2.9999999999999997e-05,0.00016999999999999999,0.00015,2
5221,5392,0.00062,-0.00018,0.00014,0.00049,-0.00022,2.9999999999999997e-05,0.00016999999999999999,0.00015,2
5222,5393,-0.00091,0.00042,5e-05,-2.9999999999999997e-05,-0.00018,-0.00021,-2e-05,-1e-05,2
5223,5394,-0.00056,0.00057,0.0,-7e-05,0.00037999999999999997,-2e-05,4e-05,0.00022999999999999998,2
5224,5395,-0.00056,0.00057,0.0,-7e-05,0.00037999999999999997,-2e-05,4e-05,0.00022999999999999998,2
5225,5396,-0.00056,0.00057,0.0,-7e-05,0.00037999999999999997,-2e-05,4e-05,0.00022999999999999998,2
5226,5397,-0.00056,0.00057,0.0,-7e-05,0.00037999999999999997,-2e-05,4e-05,0.00022999999999999998,2
5227,5398,-0.00056,0.00057,0.0,-7e-05,0.00037999999999999997,-2e-05,4e-05,0.00022999999999999998,2
5228,5399,-0.00056,0.00057,0.0,-7e-05,0.00037999999999999997,-2e-05,4e-05,0.00022999999999999998,2
5229,5400,-0.00056,0.00057,0.0,-7e-05,0.00037999999999999997,-2e-05,4e-05,0.00022999999999999998,2
5230,5401,-0.00056,0.00057,0.0,-7e-05,0.00037999999999999997,-2e-05,4e-05,0.00022999999999999998,2
5231,5402,-0.00056,0.00057,0.0,-7e-05,0.00037999999999999997,-2e-05,4e-05,0.00022999999999999998,2
5232,5403,-0.00056,0.00057,0.0,-7e-05,0.00037999999999999997,-2e-05,4e-05,0.00022999999999999998,2
5233,5404,-0.00056,0.00057,0.0,-7e-05,0.00037999999999999997,-2e-05,4e-05,0.00022999999999999998,2
5234,5405,-0.00056,0.00057,0.0,-7e-05,0.00037999999999999997,-2e-05,4e-05,0.00022999999999999998,2
5235,5406,0.0005099999999999999,-0.00016999999999999999,-1e-05,1e-05,0.00013000000000000002,-1e-05,0.0001,0.0003,2
5236,5407,0.0005099999999999999,-0.00016999999999999999,-1e-05,1e-05,0.00013000000000000002,-1e-05,0.0001,0.0003,2
5237,5408,0.0005099999999999999,-0.00016999999999999999,-1e-05,1e-05,0.00013000000000000002,-1e-05,0.0001,0.0003,2
5238,5409,0.0005099999999999999,-0.00016999999999999999,-1e-05,1e-05,0.00013000000000000002,-1e-05,0.0001,0.0003,2
5239,5410,0.0005099999999999999,-0.00016999999999999999,-1e-05,1e-05,0.00013000000000000002,-1e-05,0.0001,0.0003,2
5240,5411,0.0005099999999999999,-0.00016999999999999999,-1e-05,1e-05,0.00013000000000000002,-1e-05,0.0001,0.0003,2
5241,5412,0.0005099999999999999,-0.00016999999999999999,-1e-05,1e-05,0.00013000000000000002,-1e-05,0.0001,0.0003,2
5242,5413,0.0005099999999999999,-0.00016999999999999999,-1e-05,1e-05,0.00013000000000000002,-1e-05,0.0001,0.0003,2
5243,5414,0.0005099999999999999,-0.00016999999999999999,-1e-05,1e-05,0.00013000000000000002,-1e-05,0.0001,0.0003,2
5244,5415,0.0006,0.0009199999999999999,2e-05,0.00015,-0.00014,-0.00029,1e-05,-2e-05,2
5245,5416,0.0006,0.0009199999999999999,2e-05,0.00015,-0.00014,-0.00029,1e-05,-2e-05,2
5246,5417,0.0006,0.0009199999999999999,2e-05,0.00015,-0.00014,-0.00029,1e-05,-2e-05,2
5247,5418,0.0006,0.0009199999999999999,2e-05,0.00015,-0.00014,-0.00029,1e-05,-2e-05,2
5248,5419,0.0006,0.0009199999999999999,2e-05,0.00015,-0.00014,-0.00029,1e-05,-2e-05,2
5249,5420,0.0006,0.0009199999999999999,2e-05,0.00015,-0.00014,-0.00029,1e-05,-2e-05,2
5250,5421,0.0006,0.0009199999999999999,2e-05,0.00015,-0.00014,-0.00029,1e-05,-2e-05,2
5251,5422,0.0006,0.0009199999999999999,2e-05,0.00015,-0.00014,-0.00029,1e-05,-2e-05,2
5252,5423,0.0006,0.0009199999999999999,2e-05,0.00015,-0.00014,-0.00029,1e-05,-2e-05,2
5253,5424,0.0006,0.0009199999999999999,2e-05,0.00015,-0.00014,-0.00029,1e-05,-2e-05,2
5254,5425,0.0006,0.0009199999999999999,2e-05,0.00015,-0.00014,-0.00029,1e-05,-2e-05,2
5255,5426,0.0006,0.0009199999999999999,2e-05,0.00015,-0.00014,-0.00029,1e-05,-2e-05,2
5256,5427,0.0006,0.0009199999999999999,2e-05,0.00015,-0.00014,-0.00029,1e-05,-2e-05,2
5257,5428,0.0006,0.0009199999999999999,2e-05,0.00015,-0.00014,-0.00029,1e-05,-2e-05,2
5258,5429,0.0006,0.0009199999999999999,2e-05,0.00015,-0.00014,-0.00029,1e-05,-2e-05,2
5259,5430,0.00095,0.00022,5e-05,0.00031,-0.00023999999999999998,-9e-05,-8e-05,7e-05,2
5260,5431,0.00095,0.00022,5e-05,0.00031,-0.00023999999999999998,-9e-05,-8e-05,7e-05,2
5261,5432,-0.00065,-0.00011999999999999999,-0.00013000000000000002,-0.00043,2.9999999999999997e-05,-0.0001,-0.00018,-0.00023999999999999998,2
5262,5433,-0.00065,-0.00011999999999999999,-0.00013000000000000002,-0.00043,2.9999999999999997e-05,-0.0001,-0.00018,-0.00023999999999999998,2
5263,5434,-0.00065,-0.00011999999999999999,-0.00013000000000000002,-0.00043,2.9999999999999997e-05,-0.0001,-0.00018,-0.00023999999999999998,2
5264,5435,-0.00065,-0.00011999999999999999,-0.00013000000000000002,-0.00043,2.9999999999999997e-05,-0.0001,-0.00018,-0.00023999999999999998,2
5265,5436,-0.00065,-0.00011999999999999999,-0.00013000000000000002,-0.00043,2.9999999999999997e-05,-0.0001,-0.00018,-0.00023999999999999998,2
5266,5438,-0.00065,-0.00011999999999999999,-0.00013000000000000002,-0.00043,2.9999999999999997e-05,-0.0001,-0.00018,-0.00023999999999999998,2
5267,5439,-0.00065,-0.00011999999999999999,-0.00013000000000000002,-0.00043,2.9999999999999997e-05,-0.0001,-0.00018,-0.00023999999999999998,2
5268,5440,-0.00065,-0.00011999999999999999,-0.00013000000000000002,-0.00043,2.9999999999999997e-05,-0.0001,-0.00018,-0.00023999999999999998,2
5269,5441,-0.00065,-0.00011999999999999999,-0.00013000000000000002,-0.00043,2.9999999999999997e-05,-0.0001,-0.00018,-0.00023999999999999998,2
5270,5442,-0.00065,-0.00011999999999999999,-0.00013000000000000002,-0.00043,2.9999999999999997e-05,-0.0001,-0.00018,-0.00023999999999999998,2
5271,5443,-0.00065,-0.00011999999999999999,-0.00013000000000000002,-0.00043,2.9999999999999997e-05,-0.0001,-0.00018,-0.00023999999999999998,2
5272,5444,-0.00065,-0.00011999999999999999,-0.00013000000000000002,-0.00043,2.9999999999999997e-05,-0.0001,-0.00018,-0.00023999999999999998,2
5273,5445,-0.00065,-0.00011999999999999999,-0.00013000000000000002,-0.00043,2.9999999999999997e-05,-0.0001,-0.00018,-0.00023999999999999998,2
5274,5446,-0.00065,-0.00011999999999999999,-0.00013000000000000002,-0.00043,2.9999999999999997e-05,-0.0001,-0.00018,-0.00023999999999999998,2
5275,5447,-0.00065,-0.00011999999999999999,-0.00013000000000000002,-0.00043,2.9999999999999997e-05,-0.0001,-0.00018,-0.00023999999999999998,2
5276,5448,-0.00065,-0.00011999999999999999,-0.00013000000000000002,-0.00043,2.9999999999999997e-05,-0.0001,-0.00018,-0.00023999999999999998,2
5277,5449,-0.00065,-0.00011999999999999999,-0.00013000000000000002,-0.00043,2.9999999999999997e-05,-0.0001,-0.00018,-0.00023999999999999998,2
5278,5450,-0.00065,-0.00011999999999999999,-0.00013000000000000002,-0.00043,2.9999999999999997e-05,-0.0001,-0.00018,-0.00023999999999999998,2
5279,5451,-0.00065,-0.00011999999999999999,-0.00013000000000000002,-0.00043,2.9999999999999997e-05,-0.0001,-0.00018,-0.00023999999999999998,2
5280,5452,-0.00065,-0.00011999999999999999,-0.00013000000000000002,-0.00043,2.9999999999999997e-05,-0.0001,-0.00018,-0.00023999999999999998,2
5281,5453,-0.00027,-4e-05,0.0,0.00015,0.00016,0.00011,0.00028,0.0002,2
5282,5454,-2e-05,-0.00045999999999999996,-0.0001,-9e-05,0.00021,0.00026000000000000003,-0.00011999999999999999,-0.00026000000000000003,2
5283,5455,-2e-05,-0.00045999999999999996,-0.0001,-9e-05,0.00021,0.00026000000000000003,-0.00011999999999999999,-0.00026000000000000003,2
5284,5456,-2e-05,-0.00045999999999999996,-0.0001,-9e-05,0.00021,0.00026000000000000003,-0.00011999999999999999,-0.00026000000000000003,2
5285,5457,-2e-05,-0.00045999999999999996,-0.0001,-9e-05,0.00021,0.00026000000000000003,-0.00011999999999999999,-0.00026000000000000003,2
5286,5458,-2e-05,-0.00045999999999999996,-0.0001,-9e-05,0.00021,0.00026000000000000003,-0.00011999999999999999,-0.00026000000000000003,2
5287,5459,-2e-05,-0.00045999999999999996,-0.0001,-9e-05,0.00021,0.00026000000000000003,-0.00011999999999999999,-0.00026000000000000003,2
5288,5460,-2e-05,-0.00045999999999999996,-0.0001,-9e-05,0.00021,0.00026000000000000003,-0.00011999999999999999,-0.00026000000000000003,2
5289,5461,-2e-05,-0.00045999999999999996,-0.0001,-9e-05,0.00021,0.00026000000000000003,-0.00011999999999999999,-0.00026000000000000003,2
5290,5462,-2e-05,-0.00045999999999999996,-0.0001,-9e-05,0.00021,0.00026000000000000003,-0.00011999999999999999,-0.00026000000000000003,2
5291,5463,-2e-05,-0.00045999999999999996,-0.0001,-9e-05,0.00021,0.00026000000000000003,-0.00011999999999999999,-0.00026000000000000003,2
5292,5464,-2e-05,-0.00045999999999999996,-0.0001,-9e-05,0.00021,0.00026000000000000003,-0.00011999999999999999,-0.00026000000000000003,2
5293,5465,-2e-05,-0.00045999999999999996,-0.0001,-9e-05,0.00021,0.00026000000000000003,-0.00011999999999999999,-0.00026000000000000003,2
5294,5466,-0.00128,0.00016,7e-05,2e-05,-0.0003,0.00016999999999999999,5e-05,-1e-05,2
5295,5467,-0.00128,0.00016,7e-05,2e-05,-0.0003,0.00016999999999999999,5e-05,-1e-05,2
5296,5468,-0.00128,0.00016,7e-05,2e-05,-0.0003,0.00016999999999999999,5e-05,-1e-05,2
5297,5469,-0.00128,0.00016,7e-05,2e-05,-0.0003,0.00016999999999999999,5e-05,-1e-05,2
5298,5470,-0.00128,0.00016,7e-05,2e-05,-0.0003,0.00016999999999999999,5e-05,-1e-05,2
5299,5471,-0.00128,0.00016,7e-05,2e-05,-0.0003,0.00016999999999999999,5e-05,-1e-05,2
5300,5472,-0.00128,0.00016,7e-05,2e-05,-0.0003,0.00016999999999999999,5e-05,-1e-05,2
5301,5473,-0.00128,0.00016,7e-05,2e-05,-0.0003,0.00016999999999999999,5e-05,-1e-05,2
5302,5474,-0.00128,0.00016,7e-05,2e-05,-0.0003,0.00016999999999999999,5e-05,-1e-05,2
5303,5475,-0.00128,0.00016,7e-05,2e-05,-0.0003,0.00016999999999999999,5e-05,-1e-05,2
5304,5476,-0.00128,0.00016,7e-05,2e-05,-0.0003,0.00016999999999999999,5e-05,-1e-05,2
5305,5477,-0.00128,0.00016,7e-05,2e-05,-0.0003,0.00016999999999999999,5e-05,-1e-05,2
5306,5478,-0.00128,0.00016,7e-05,2e-05,-0.0003,0.00016999999999999999,5e-05,-1e-05,2
5307,5479,-0.00128,0.00016,7e-05,2e-05,-0.0003,0.00016999999999999999,5e-05,-1e-05,2
5308,5480,-0.00128,0.00016,7e-05,2e-05,-0.0003,0.00016999999999999999,5e-05,-1e-05,2
5309,5481,-0.00128,0.00016,7e-05,2e-05,-0.0003,0.00016999999999999999,5e-05,-1e-05,2
5310,5482,-0.00128,0.00016,7e-05,2e-05,-0.0003,0.00016999999999999999,5e-05,-1e-05,2
5311,5483,-0.0009599999999999999,0.00022999999999999998,2e-05,-0.00014,-0.0001,8e-05,4e-05,-5e-05,2
5312,5484,-0.0009599999999999999,0.00022999999999999998,2e-05,-0.00014,-0.0001,8e-05,4e-05,-5e-05,2
5313,5485,-0.0009599999999999999,0.00022999999999999998,2e-05,-0.00014,-0.0001,8e-05,4e-05,-5e-05,2
5314,5486,-0.0009599999999999999,0.00022999999999999998,2e-05,-0.00014,-0.0001,8e-05,4e-05,-5e-05,2
5315,5488,-0.0009599999999999999,0.00022999999999999998,2e-05,-0.00014,-0.0001,8e-05,4e-05,-5e-05,2
5316,5489,-0.0009599999999999999,0.00022999999999999998,2e-05,-0.00014,-0.0001,8e-05,4e-05,-5e-05,2
5317,5490,0.00067,-0.00031,2e-05,-0.00011999999999999999,0.00018999999999999998,2e-05,7e-05,0.00027,2
5318,5491,0.00067,-0.00031,2e-05,-0.00011999999999999999,0.00018999999999999998,2e-05,7e-05,0.00027,2
5319,5492,-0.0005099999999999999,-0.00081,-0.0001,5.9999999999999995e-05,-5.9999999999999995e-05,-8e-05,-0.00028,-0.00047999999999999996,2
5320,5493,-0.0005099999999999999,-0.00081,-0.0001,5.9999999999999995e-05,-5.9999999999999995e-05,-8e-05,-0.00028,-0.00047999999999999996,2
5321,5494,-0.0005099999999999999,-0.00081,-0.0001,5.9999999999999995e-05,-5.9999999999999995e-05,-8e-05,-0.00028,-0.00047999999999999996,2
5322,5495,-0.0005099999999999999,-0.00081,-0.0001,5.9999999999999995e-05,-5.9999999999999995e-05,-8e-05,-0.00028,-0.00047999999999999996,2
5323,5496,-0.0005099999999999999,-0.00081,-0.0001,5.9999999999999995e-05,-5.9999999999999995e-05,-8e-05,-0.00028,-0.00047999999999999996,2
5324,5497,-0.0005099999999999999,-0.00081,-0.0001,5.9999999999999995e-05,-5.9999999999999995e-05,-8e-05,-0.00028,-0.00047999999999999996,2
5325,5498,-0.0005099999999999999,-0.00081,-0.0001,5.9999999999999995e-05,-5.9999999999999995e-05,-8e-05,-0.00028,-0.00047999999999999996,2
5326,5499,-0.0005099999999999999,-0.00081,-0.0001,5.9999999999999995e-05,-5.9999999999999995e-05,-8e-05,-0.00028,-0.00047999999999999996,2
5327,5500,-0.0005099999999999999,-0.00081,-0.0001,5.9999999999999995e-05,-5.9999999999999995e-05,-8e-05,-0.00028,-0.00047999999999999996,2
5328,5501,-0.0005099999999999999,-0.00081,-0.0001,5.9999999999999995e-05,-5.9999999999999995e-05,-8e-05,-0.00028,-0.00047999999999999996,2
5329,5502,-0.0005099999999999999,-0.00081,-0.0001,5.9999999999999995e-05,-5.9999999999999995e-05,-8e-05,-0.00028,-0.00047999999999999996,2
5330,5503,-0.0005099999999999999,-0.00081,-0.0001,5.9999999999999995e-05,-5.9999999999999995e-05,-8e-05,-0.00028,-0.00047999999999999996,2
5331,5504,-0.0005099999999999999,-0.00081,-0.0001,5.9999999999999995e-05,-5.9999999999999995e-05,-8e-05,-0.00028,-0.00047999999999999996,2
5332,5505,-0.0005099999999999999,-0.00081,-0.0001,5.9999999999999995e-05,-5.9999999999999995e-05,-8e-05,-0.00028,-0.00047999999999999996,2
5333,5506,-0.0005099999999999999,-0.00081,-0.0001,5.9999999999999995e-05,-5.9999999999999995e-05,-8e-05,-0.00028,-0.00047999999999999996,2
5334,5507,-0.0005099999999999999,-0.00081,-0.0001,5.9999999999999995e-05,-5.9999999999999995e-05,-8e-05,-0.00028,-0.00047999999999999996,2
5335,5508,-0.0005099999999999999,-0.00081,-0.0001,5.9999999999999995e-05,-5.9999999999999995e-05,-8e-05,-0.00028,-0.00047999999999999996,2
5336,5509,-0.0005099999999999999,-0.00081,-0.0001,5.9999999999999995e-05,-5.9999999999999995e-05,-8e-05,-0.00028,-0.00047999999999999996,2
5337,5510,-0.0005099999999999999,-0.00081,-0.0001,5.9999999999999995e-05,-5.9999999999999995e-05,-8e-05,-0.00028,-0.00047999999999999996,2
5338,5511,-0.0005099999999999999,-0.00081,-0.0001,5.9999999999999995e-05,-5.9999999999999995e-05,-8e-05,-0.00028,-0.00047999999999999996,2
5339,5512,-0.0005099999999999999,-0.00081,-0.0001,5.9999999999999995e-05,-5.9999999999999995e-05,-8e-05,-0.00028,-0.00047999999999999996,2
5340,5513,-0.00059,0.00022999999999999998,1e-05,0.0,-5.9999999999999995e-05,-0.0001,-0.00022,-0.00036,2
5341,5514,-0.00091,-0.00011999999999999999,0.0,0.00033999999999999997,-0.0003,7e-05,-2.9999999999999997e-05,0.00014,2
5342,5515,-0.00022999999999999998,-0.00047999999999999996,-0.00026000000000000003,-0.00084,-5e-05,-0.00016999999999999999,-0.00016,-0.00054,2
5343,5516,-0.00022999999999999998,-0.00047999999999999996,-0.00026000000000000003,-0.00084,-5e-05,-0.00016999999999999999,-0.00016,-0.00054,2
5344,5517,-0.00022999999999999998,-0.00047999999999999996,-0.00026000000000000003,-0.00084,-5e-05,-0.00016999999999999999,-0.00016,-0.00054,2
5345,5518,-0.00022999999999999998,-0.00047999999999999996,-0.00026000000000000003,-0.00084,-5e-05,-0.00016999999999999999,-0.00016,-0.00054,2
5346,5519,-0.00022999999999999998,-0.00047999999999999996,-0.00026000000000000003,-0.00084,-5e-05,-0.00016999999999999999,-0.00016,-0.00054,2
5347,5520,-0.00022999999999999998,-0.00047999999999999996,-0.00026000000000000003,-0.00084,-5e-05,-0.00016999999999999999,-0.00016,-0.00054,2
5348,5521,-0.00022999999999999998,-0.00047999999999999996,-0.00026000000000000003,-0.00084,-5e-05,-0.00016999999999999999,-0.00016,-0.00054,2
5349,5522,-0.00022999999999999998,-0.00047999999999999996,-0.00026000000000000003,-0.00084,-5e-05,-0.00016999999999999999,-0.00016,-0.00054,2
5350,5523,-0.00022999999999999998,-0.00047999999999999996,-0.00026000000000000003,-0.00084,-5e-05,-0.00016999999999999999,-0.00016,-0.00054,2
5351,5524,-0.00022999999999999998,-0.00047999999999999996,-0.00026000000000000003,-0.00084,-5e-05,-0.00016999999999999999,-0.00016,-0.00054,2
5352,5525,-0.00022999999999999998,-0.00047999999999999996,-0.00026000000000000003,-0.00084,-5e-05,-0.00016999999999999999,-0.00016,-0.00054,2
5353,5526,0.00067,-2.9999999999999997e-05,-7e-05,-0.00022999999999999998,0.00011,5.9999999999999995e-05,9e-05,0.00014,2
5354,5527,0.00067,-2.9999999999999997e-05,-7e-05,-0.00022999999999999998,0.00011,5.9999999999999995e-05,9e-05,0.00014,2
5355,5528,0.00067,-2.9999999999999997e-05,-7e-05,-0.00022999999999999998,0.00011,5.9999999999999995e-05,9e-05,0.00014,2
5356,5529,0.00067,-2.9999999999999997e-05,-7e-05,-0.00022999999999999998,0.00011,5.9999999999999995e-05,9e-05,0.00014,2
5357,5530,0.00067,-2.9999999999999997e-05,-7e-05,-0.00022999999999999998,0.00011,5.9999999999999995e-05,9e-05,0.00014,2
5358,5531,0.00067,-2.9999999999999997e-05,-7e-05,-0.00022999999999999998,0.00011,5.9999999999999995e-05,9e-05,0.00014,2
5359,5532,0.00067,-2.9999999999999997e-05,-7e-05,-0.00022999999999999998,0.00011,5.9999999999999995e-05,9e-05,0.00014,2
5360,5533,0.00067,-2.9999999999999997e-05,-7e-05,-0.00022999999999999998,0.00011,5.9999999999999995e-05,9e-05,0.00014,2
5361,5534,0.00067,-2.9999999999999997e-05,-7e-05,-0.00022999999999999998,0.00011,5.9999999999999995e-05,9e-05,0.00014,2
5362,5535,0.00067,-2.9999999999999997e-05,-7e-05,-0.00022999999999999998,0.00011,5.9999999999999995e-05,9e-05,0.00014,2
5363,5536,-0.00098,0.0001,-2.9999999999999997e-05,-0.00013000000000000002,-0.0001,0.0,-0.00011,-0.0002,2
5364,5538,-0.00098,0.0001,-2.9999999999999997e-05,-0.00013000000000000002,-0.0001,0.0,-0.00011,-0.0002,2
5365,5539,-0.00098,0.0001,-2.9999999999999997e-05,-0.00013000000000000002,-0.0001,0.0,-0.00011,-0.0002,2
5366,5540,-0.00098,0.0001,-2.9999999999999997e-05,-0.00013000000000000002,-0.0001,0.0,-0.00011,-0.0002,2
5367,5541,-0.00098,0.0001,-2.9999999999999997e-05,-0.00013000000000000002,-0.0001,0.0,-0.00011,-0.0002,2
5368,5542,-0.00098,0.0001,-2.9999999999999997e-05,-0.00013000000000000002,-0.0001,0.0,-0.00011,-0.0002,2
5369,5543,-0.00098,0.0001,-2.9999999999999997e-05,-0.00013000000000000002,-0.0001,0.0,-0.00011,-0.0002,2
5370,5544,-0.00098,0.0001,-2.9999999999999997e-05,-0.00013000000000000002,-0.0001,0.0,-0.00011,-0.0002,2
5371,5545,-0.00098,0.0001,-2.9999999999999997e-05,-0.00013000000000000002,-0.0001,0.0,-0.00011,-0.0002,2
5372,5546,-0.00098,0.0001,-2.9999999999999997e-05,-0.00013000000000000002,-0.0001,0.0,-0.00011,-0.0002,2
5373,5547,-0.00098,0.0001,-2.9999999999999997e-05,-0.00013000000000000002,-0.0001,0.0,-0.00011,-0.0002,2
5374,5548,-0.00098,0.0001,-2.9999999999999997e-05,-0.00013000000000000002,-0.0001,0.0,-0.00011,-0.0002,2
5375,5549,-0.00098,0.0001,-2.9999999999999997e-05,-0.00013000000000000002,-0.0001,0.0,-0.00011,-0.0002,2
5376,5550,-0.00037999999999999997,-0.00013000000000000002,5.9999999999999995e-05,0.00037999999999999997,0.00016,0.00014,0.00032,0.0005099999999999999,2
5377,5551,-0.00037999999999999997,-0.00013000000000000002,5.9999999999999995e-05,0.00037999999999999997,0.00016,0.00014,0.00032,0.0005099999999999999,2
5378,5552,0.00047999999999999996,0.00044,5.9999999999999995e-05,0.0003,0.00033999999999999997,2e-05,8e-05,0.00022999999999999998,2
5379,5553,0.00047999999999999996,0.00044,5.9999999999999995e-05,0.0003,0.00033999999999999997,2e-05,8e-05,0.00022999999999999998,2
