,time,channel1,channel2,channel3,channel4,channel5,channel6,channel7,channel8,class
6075,6286,-0.00039,-8e-05,-5.9999999999999995e-05,-0.00014,-2e-05,-9e-05,-2e-05,-0.00047999999999999996,2
6076,6287,-0.00039,-8e-05,-5.9999999999999995e-05,-0.00014,-2e-05,-9e-05,-2e-05,-0.00047999999999999996,2
6077,6288,-8e-05,-0.00011,-0.00023999999999999998,-2e-05,0.00011999999999999999,2e-05,0.00016999999999999999,0.00041,2
6078,6289,-8e-05,-0.00011,-0.00023999999999999998,-2e-05,0.00011999999999999999,2e-05,0.00016999999999999999,0.00041,2
6079,6290,-8e-05,-0.00011,-0.00023999999999999998,-2e-05,0.00011999999999999999,2e-05,0.00016999999999999999,0.00041,2
6080,6291,-8e-05,-0.00011,-0.00023999999999999998,-2e-05,0.00011999999999999999,2e-05,0.00016999999999999999,0.00041,2
6081,6292,-8e-05,-0.00011,-0.00023999999999999998,-2e-05,0.00011999999999999999,2e-05,0.00016999999999999999,0.00041,2
6082,6293,-8e-05,-0.00011,-0.00023999999999999998,-2e-05,0.00011999999999999999,2e-05,0.00016999999999999999,0.00041,2
6083,6294,-8e-05,-0.00011,-0.00023999999999999998,-2e-05,0.00011999999999999999,2e-05,0.00016999999999999999,0.00041,2
6084,6295,-8e-05,-0.00011,-0.00023999999999999998,-2e-05,0.00011999999999999999,2e-05,0.00016999999999999999,0.00041,2
6085,6296,-8e-05,-0.00011,-0.00023999999999999998,-2e-05,0.00011999999999999999,2e-05,0.00016999999999999999,0.00041,2
6086,6297,-8e-05,-0.00011,-0.00023999999999999998,-2e-05,0.00011999999999999999,2e-05,0.00016999999999999999,0.00041,2
6087,6298,-8e-05,-0.00011,-0.00023999999999999998,-2e-05,0.00011999999999999999,2e-05,0.00016999999999999999,0.00041,2
6088,6299,-8e-05,-0.00011,-0.00023999999999999998,-2e-05,0.00011999999999999999,2e-05,0.00016999999999999999,0.00041,2
6089,6300,-8e-05,-0.00011,-0.00023999999999999998,-2e-05,0.00011999999999999999,2e-05,0.00016999999999999999,0.00041,2
6090,6301,-8e-05,-0.00011,-0.00023999999999999998,-2e-05,0.00011999999999999999,2e-05,0.00016999999999999999,0.00041,2
6091,6302,-8e-05,-0.00011,-0.00023999999999999998,-2e-05,0.00011999999999999999,2e-05,0.00016999999999999999,0.00041,2
6092,6303,-0.00018999999999999998,0.00015,0.00022999999999999998,0.00026000000000000003,-8e-05,0.00022,0.00035,0.0012699999999999999,2
6093,6304,-0.00023999999999999998,0.00015,0.00016999999999999999,0.00056,0.00078,2.9999999999999997e-05,0.00029,0.00105,2
6094,6305,-0.00023999999999999998,0.00015,0.00016999999999999999,0.00056,0.00078,2.9999999999999997e-05,0.00029,0.00105,2
6095,6306,-0.00023999999999999998,0.00015,0.00016999999999999999,0.00056,0.00078,2.9999999999999997e-05,0.00029,0.00105,2
6096,6307,-0.00023999999999999998,0.00015,0.00016999999999999999,0.00056,0.00078,2.9999999999999997e-05,0.00029,0.00105,2
6097,6308,-0.00023999999999999998,0.00015,0.00016999999999999999,0.00056,0.00078,2.9999999999999997e-05,0.00029,0.00105,2
6098,6309,-0.00023999999999999998,0.00015,0.00016999999999999999,0.00056,0.00078,2.9999999999999997e-05,0.00029,0.00105,2
6099,6310,-0.00023999999999999998,0.00015,0.00016999999999999999,0.00056,0.00078,2.9999999999999997e-05,0.00029,0.00105,2
6100,6311,-0.00023999999999999998,0.00015,0.00016999999999999999,0.00056,0.00078,2.9999999999999997e-05,0.00029,0.00105,2
6101,6312,-0.00023999999999999998,0.00015,0.00016999999999999999,0.00056,0.00078,2.9999999999999997e-05,0.00029,0.00105,2
6102,6313,-0.00023999999999999998,0.00015,0.00016999999999999999,0.00056,0.00078,2.9999999999999997e-05,0.00029,0.00105,2
6103,6314,-0.00023999999999999998,0.00015,0.00016999999999999999,0.00056,0.00078,2.9999999999999997e-05,0.00029,0.00105,2
6104,6315,-0.00023999999999999998,0.00015,0.00016999999999999999,0.00056,0.00078,2.9999999999999997e-05,0.00029,0.00105,2
6105,6316,-0.00023999999999999998,0.00015,0.00016999999999999999,0.00056,0.00078,2.9999999999999997e-05,0.00029,0.00105,2
6106,6317,-0.00023999999999999998,0.00015,0.00016999999999999999,0.00056,0.00078,2.9999999999999997e-05,0.00029,0.00105,2
6107,6318,-0.00023999999999999998,0.00015,0.00016999999999999999,0.00056,0.00078,2.9999999999999997e-05,0.00029,0.00105,2
6108,6319,-0.00023999999999999998,0.00015,0.00016999999999999999,0.00056,0.00078,2.9999999999999997e-05,0.00029,0.00105,2
6109,6320,-0.00023999999999999998,0.00015,0.00016999999999999999,0.00056,0.00078,2.9999999999999997e-05,0.00029,0.00105,2
6110,6321,-0.00023999999999999998,0.00015,0.00016999999999999999,0.00056,0.00078,2.9999999999999997e-05,0.00029,0.00105,2
6111,6322,-0.00023999999999999998,0.00015,0.00016999999999999999,0.00056,0.00078,2.9999999999999997e-05,0.00029,0.00105,2
6112,6323,-0.00023999999999999998,0.00015,0.00016999999999999999,0.00056,0.00078,2.9999999999999997e-05,0.00029,0.00105,2
6113,6324,-0.00023999999999999998,0.00015,0.00016999999999999999,0.00056,0.00078,2.9999999999999997e-05,0.00029,0.00105,2
6114,6325,-0.00023999999999999998,0.00015,0.00016999999999999999,0.00056,0.00078,2.9999999999999997e-05,0.00029,0.00105,2
6115,6326,0.0002,-5e-05,-0.0001,-8e-05,-0.00011,-0.00043,1e-05,0.00033,2
6116,6327,5e-05,2e-05,-5.9999999999999995e-05,-0.00022,-0.0002,7e-05,-4e-05,-0.00061,2
6117,6328,5e-05,2e-05,-5.9999999999999995e-05,-0.00022,-0.0002,7e-05,-4e-05,-0.00061,2
6118,6329,5e-05,2e-05,-5.9999999999999995e-05,-0.00022,-0.0002,7e-05,-4e-05,-0.00061,2
6119,6330,5e-05,2e-05,-5.9999999999999995e-05,-0.00022,-0.0002,7e-05,-4e-05,-0.00061,2
6120,6331,5e-05,2e-05,-5.9999999999999995e-05,-0.00022,-0.0002,7e-05,-4e-05,-0.00061,2
6121,6332,5e-05,2e-05,-5.9999999999999995e-05,-0.00022,-0.0002,7e-05,-4e-05,-0.00061,2
6122,6333,5e-05,2e-05,-5.9999999999999995e-05,-0.00022,-0.0002,7e-05,-4e-05,-0.00061,2
6123,6334,5e-05,2e-05,-5.9999999999999995e-05,-0.00022,-0.0002,7e-05,-4e-05,-0.00061,2
6124,6335,5e-05,2e-05,-5.9999999999999995e-05,-0.00022,-0.0002,7e-05,-4e-05,-0.00061,2
6125,6336,5e-05,2e-05,-5.9999999999999995e-05,-0.00022,-0.0002,7e-05,-4e-05,-0.00061,2
6126,6338,5e-05,2e-05,-5.9999999999999995e-05,-0.00022,-0.0002,7e-05,-4e-05,-0.00061,2
6127,6339,5e-05,2e-05,-5.9999999999999995e-05,-0.00022,-0.0002,7e-05,-4e-05,-0.00061,2
6128,6340,4e-05,-0.00013000000000000002,-0.00029,-0.00026000000000000003,0.00057,-0.00026000000000000003,-0.00022,-0.00093,2
6129,6341,-0.00013000000000000002,1e-05,-0.0001,1e-05,-0.00018,-9e-05,-5.9999999999999995e-05,-5.9999999999999995e-05,2
6130,6342,-0.00013000000000000002,1e-05,-0.0001,1e-05,-0.00018,-9e-05,-5.9999999999999995e-05,-5.9999999999999995e-05,2
6131,6343,-0.00013000000000000002,1e-05,-0.0001,1e-05,-0.00018,-9e-05,-5.9999999999999995e-05,-5.9999999999999995e-05,2
6132,6344,-0.00013000000000000002,1e-05,-0.0001,1e-05,-0.00018,-9e-05,-5.9999999999999995e-05,-5.9999999999999995e-05,2
6133,6345,-0.00013000000000000002,1e-05,-0.0001,1e-05,-0.00018,-9e-05,-5.9999999999999995e-05,-5.9999999999999995e-05,2
6134,6346,-0.00013000000000000002,1e-05,-0.0001,1e-05,-0.00018,-9e-05,-5.9999999999999995e-05,-5.9999999999999995e-05,2
6135,6347,-0.00013000000000000002,1e-05,-0.0001,1e-05,-0.00018,-9e-05,-5.9999999999999995e-05,-5.9999999999999995e-05,2
6136,6348,-0.00013000000000000002,1e-05,-0.0001,1e-05,-0.00018,-9e-05,-5.9999999999999995e-05,-5.9999999999999995e-05,2
6137,6349,-0.00013000000000000002,1e-05,-0.0001,1e-05,-0.00018,-9e-05,-5.9999999999999995e-05,-5.9999999999999995e-05,2
6138,6350,-0.00013000000000000002,1e-05,-0.0001,1e-05,-0.00018,-9e-05,-5.9999999999999995e-05,-5.9999999999999995e-05,2
6139,6351,-0.00013000000000000002,1e-05,-0.0001,1e-05,-0.00018,-9e-05,-5.9999999999999995e-05,-5.9999999999999995e-05,2
6140,6352,-0.00013000000000000002,1e-05,-0.0001,1e-05,-0.00018,-9e-05,-5.9999999999999995e-05,-5.9999999999999995e-05,2
6141,6353,-0.00013000000000000002,1e-05,-0.0001,1e-05,-0.00018,-9e-05,-5.9999999999999995e-05,-5.9999999999999995e-05,2
6142,6354,-0.00013000000000000002,1e-05,-0.0001,1e-05,-0.00018,-9e-05,-5.9999999999999995e-05,-5.9999999999999995e-05,2
6143,6355,-0.00013000000000000002,1e-05,-0.0001,1e-05,-0.00018,-9e-05,-5.9999999999999995e-05,-5.9999999999999995e-05,2
6144,6356,-0.00013000000000000002,1e-05,-0.0001,1e-05,-0.00018,-9e-05,-5.9999999999999995e-05,-5.9999999999999995e-05,2
6145,6357,-0.00013000000000000002,1e-05,-0.0001,1e-05,-0.00018,-9e-05,-5.9999999999999995e-05,-5.9999999999999995e-05,2
6146,6358,-0.00013000000000000002,1e-05,-0.0001,1e-05,-0.00018,-9e-05,-5.9999999999999995e-05,-5.9999999999999995e-05,2
6147,6359,-0.00013000000000000002,1e-05,-0.0001,1e-05,-0.00018,-9e-05,-5.9999999999999995e-05,-5.9999999999999995e-05,2
6148,6360,-0.00013000000000000002,1e-05,-0.0001,1e-05,-0.00018,-9e-05,-5.9999999999999995e-05,-5.9999999999999995e-05,2
6149,6361,-0.00013000000000000002,1e-05,-0.0001,1e-05,-0.00018,-9e-05,-5.9999999999999995e-05,-5.9999999999999995e-05,2
6150,6362,-0.00013000000000000002,1e-05,-0.0001,1e-05,-0.00018,-9e-05,-5.9999999999999995e-05,-5.9999999999999995e-05,2
6151,6363,-0.00013000000000000002,1e-05,-0.0001,1e-05,-0.00018,-9e-05,-5.9999999999999995e-05,-5.9999999999999995e-05,2
6152,6364,-0.00013000000000000002,1e-05,-0.0001,1e-05,-0.00018,-9e-05,-5.9999999999999995e-05,-5.9999999999999995e-05,2
6153,6365,-0.00013000000000000002,1e-05,-0.0001,1e-05,-0.00018,-9e-05,-5.9999999999999995e-05,-5.9999999999999995e-05,2
6154,6366,-0.00013000000000000002,1e-05,-0.0001,1e-05,-0.00018,-9e-05,-5.9999999999999995e-05,-5.9999999999999995e-05,2
6155,6367,-0.00013000000000000002,1e-05,-0.0001,1e-05,-0.00018,-9e-05,-5.9999999999999995e-05,-5.9999999999999995e-05,2
6156,6368,-0.00013000000000000002,1e-05,-0.0001,1e-05,-0.00018,-9e-05,-5.9999999999999995e-05,-5.9999999999999995e-05,2
6157,6369,-0.00013000000000000002,1e-05,-0.0001,1e-05,-0.00018,-9e-05,-5.9999999999999995e-05,-5.9999999999999995e-05,2
6158,6370,-0.00013000000000000002,1e-05,-0.0001,1e-05,-0.00018,-9e-05,-5.9999999999999995e-05,-5.9999999999999995e-05,2
6159,6371,0.0003,-5e-05,0.0,-0.00036,-0.00043,-0.00023999999999999998,-0.00053,-0.0007599999999999999,2
6160,6372,2e-05,-0.0002,-0.00062,-0.00033,-5.9999999999999995e-05,0.00022999999999999998,0.0001,0.00075,2
6161,6373,2e-05,-0.0002,-0.00062,-0.00033,-5.9999999999999995e-05,0.00022999999999999998,0.0001,0.00075,2
6162,6374,2e-05,-0.0002,-0.00062,-0.00033,-5.9999999999999995e-05,0.00022999999999999998,0.0001,0.00075,2
6163,6375,2e-05,-0.0002,-0.00062,-0.00033,-5.9999999999999995e-05,0.00022999999999999998,0.0001,0.00075,2
6164,6376,2e-05,-0.0002,-0.00062,-0.00033,-5.9999999999999995e-05,0.00022999999999999998,0.0001,0.00075,2
6165,6377,2e-05,-0.0002,-0.00062,-0.00033,-5.9999999999999995e-05,0.00022999999999999998,0.0001,0.00075,2
6166,6378,2e-05,-0.0002,-0.00062,-0.00033,-5.9999999999999995e-05,0.00022999999999999998,0.0001,0.00075,2
6167,6379,2e-05,-0.0002,-0.00062,-0.00033,-5.9999999999999995e-05,0.00022999999999999998,0.0001,0.00075,2
6168,6380,2e-05,-0.0002,-0.00062,-0.00033,-5.9999999999999995e-05,0.00022999999999999998,0.0001,0.00075,2
6169,6381,2e-05,-0.0002,-0.00062,-0.00033,-5.9999999999999995e-05,0.00022999999999999998,0.0001,0.00075,2
6170,6382,2e-05,-0.0002,-0.00062,-0.00033,-5.9999999999999995e-05,0.00022999999999999998,0.0001,0.00075,2
6171,6383,2e-05,-0.0002,-0.00062,-0.00033,-5.9999999999999995e-05,0.00022999999999999998,0.0001,0.00075,2
6172,6384,2e-05,-0.0002,-0.00062,-0.00033,-5.9999999999999995e-05,0.00022999999999999998,0.0001,0.00075,2
6173,6385,2e-05,-0.0002,-0.00062,-0.00033,-5.9999999999999995e-05,0.00022999999999999998,0.0001,0.00075,2
6174,6387,0.0001,0.0001,0.00018,-0.00013000000000000002,-0.00033,-5.9999999999999995e-05,4e-05,-0.00062,2
6175,6389,0.0001,0.0001,0.00018,-0.00013000000000000002,-0.00033,-5.9999999999999995e-05,4e-05,-0.00062,2
6176,6390,0.0001,0.0001,0.00018,-0.00013000000000000002,-0.00033,-5.9999999999999995e-05,4e-05,-0.00062,2
6177,6391,0.0001,0.0001,0.00018,-0.00013000000000000002,-0.00033,-5.9999999999999995e-05,4e-05,-0.00062,2
6178,6392,0.0001,0.0001,0.00018,-0.00013000000000000002,-0.00033,-5.9999999999999995e-05,4e-05,-0.00062,2
6179,6393,0.0001,0.0001,0.00018,-0.00013000000000000002,-0.00033,-5.9999999999999995e-05,4e-05,-0.00062,2
6180,6394,0.0001,0.0001,0.00018,-0.00013000000000000002,-0.00033,-5.9999999999999995e-05,4e-05,-0.00062,2
6181,6395,0.0001,0.0001,0.00018,-0.00013000000000000002,-0.00033,-5.9999999999999995e-05,4e-05,-0.00062,2
6182,6396,0.0001,0.0001,0.00018,-0.00013000000000000002,-0.00033,-5.9999999999999995e-05,4e-05,-0.00062,2
6183,6397,0.0001,0.0001,0.00018,-0.00013000000000000002,-0.00033,-5.9999999999999995e-05,4e-05,-0.00062,2
6184,6398,0.0001,0.0001,0.00018,-0.00013000000000000002,-0.00033,-5.9999999999999995e-05,4e-05,-0.00062,2
6185,6399,0.0001,0.0001,0.00018,-0.00013000000000000002,-0.00033,-5.9999999999999995e-05,4e-05,-0.00062,2
6186,6400,-4e-05,4e-05,2.9999999999999997e-05,0.00013000000000000002,-8e-05,-0.00011,0.00016,0.0001,2
6187,6401,0.00021,7e-05,0.00014,5e-05,-2.9999999999999997e-05,0.00013000000000000002,-7e-05,0.00065,2
6188,6402,0.00021,7e-05,0.00014,5e-05,-2.9999999999999997e-05,0.00013000000000000002,-7e-05,0.00065,2
6189,6403,0.00021,7e-05,0.00014,5e-05,-2.9999999999999997e-05,0.00013000000000000002,-7e-05,0.00065,2
6190,6404,0.00021,7e-05,0.00014,5e-05,-2.9999999999999997e-05,0.00013000000000000002,-7e-05,0.00065,2
6191,6405,0.00021,7e-05,0.00014,5e-05,-2.9999999999999997e-05,0.00013000000000000002,-7e-05,0.00065,2
6192,6406,0.00021,7e-05,0.00014,5e-05,-2.9999999999999997e-05,0.00013000000000000002,-7e-05,0.00065,2
6193,6407,0.00021,7e-05,0.00014,5e-05,-2.9999999999999997e-05,0.00013000000000000002,-7e-05,0.00065,2
6194,6408,0.00021,7e-05,0.00014,5e-05,-2.9999999999999997e-05,0.00013000000000000002,-7e-05,0.00065,2
6195,6409,0.00021,7e-05,0.00014,5e-05,-2.9999999999999997e-05,0.00013000000000000002,-7e-05,0.00065,2
6196,6410,0.00021,7e-05,0.00014,5e-05,-2.9999999999999997e-05,0.00013000000000000002,-7e-05,0.00065,2
6197,6411,0.00021,7e-05,0.00014,5e-05,-2.9999999999999997e-05,0.00013000000000000002,-7e-05,0.00065,2
6198,6412,0.00021,7e-05,0.00014,5e-05,-2.9999999999999997e-05,0.00013000000000000002,-7e-05,0.00065,2
6199,6413,0.00021,7e-05,0.00014,5e-05,-2.9999999999999997e-05,0.00013000000000000002,-7e-05,0.00065,2
6200,6414,0.00021,7e-05,0.00014,5e-05,-2.9999999999999997e-05,0.00013000000000000002,-7e-05,0.00065,2
6201,6415,0.00021,7e-05,0.00014,5e-05,-2.9999999999999997e-05,0.00013000000000000002,-7e-05,0.00065,2
6202,6416,0.00021,7e-05,0.00014,5e-05,-2.9999999999999997e-05,0.00013000000000000002,-7e-05,0.00065,2
6203,6417,0.00021,7e-05,0.00014,5e-05,-2.9999999999999997e-05,0.00013000000000000002,-7e-05,0.00065,2
6204,6418,0.00021,7e-05,0.00014,5e-05,-2.9999999999999997e-05,0.00013000000000000002,-7e-05,0.00065,2
6205,6419,0.00021,7e-05,0.00014,5e-05,-2.9999999999999997e-05,0.00013000000000000002,-7e-05,0.00065,2
6206,6420,0.00021,7e-05,0.00014,5e-05,-2.9999999999999997e-05,0.00013000000000000002,-7e-05,0.00065,2
6207,6421,0.00021,7e-05,0.00014,5e-05,-2.9999999999999997e-05,0.00013000000000000002,-7e-05,0.00065,2
6208,6422,0.00021,7e-05,0.00014,5e-05,-2.9999999999999997e-05,0.00013000000000000002,-7e-05,0.00065,2
6209,6423,0.00016999999999999999,2.9999999999999997e-05,5.9999999999999995e-05,2.9999999999999997e-05,0.0,-0.00021,0.00011999999999999999,-0.00016999999999999999,2
6210,6424,0.0002,-0.00018999999999999998,-0.00064,-0.00045999999999999996,-0.00021,-0.00023999999999999998,-0.00026000000000000003,-0.00064,2
6211,6425,0.0002,-0.00018999999999999998,-0.00064,-0.00045999999999999996,-0.00021,-0.00023999999999999998,-0.00026000000000000003,-0.00064,2
6212,6426,0.0002,-0.00018999999999999998,-0.00064,-0.00045999999999999996,-0.00021,-0.00023999999999999998,-0.00026000000000000003,-0.00064,2
6213,6427,0.0002,-0.00018999999999999998,-0.00064,-0.00045999999999999996,-0.00021,-0.00023999999999999998,-0.00026000000000000003,-0.00064,2
6214,6428,0.0002,-0.00018999999999999998,-0.00064,-0.00045999999999999996,-0.00021,-0.00023999999999999998,-0.00026000000000000003,-0.00064,2
6215,6429,0.0002,-0.00018999999999999998,-0.00064,-0.00045999999999999996,-0.00021,-0.00023999999999999998,-0.00026000000000000003,-0.00064,2
6216,6430,0.0002,-0.00018999999999999998,-0.00064,-0.00045999999999999996,-0.00021,-0.00023999999999999998,-0.00026000000000000003,-0.00064,2
6217,6431,0.0002,-0.00018999999999999998,-0.00064,-0.00045999999999999996,-0.00021,-0.00023999999999999998,-0.00026000000000000003,-0.00064,2
6218,6432,0.0002,-0.00018999999999999998,-0.00064,-0.00045999999999999996,-0.00021,-0.00023999999999999998,-0.00026000000000000003,-0.00064,2
6219,6433,0.0002,-0.00018999999999999998,-0.00064,-0.00045999999999999996,-0.00021,-0.00023999999999999998,-0.00026000000000000003,-0.00064,2
6220,6434,0.0002,-0.00018999999999999998,-0.00064,-0.00045999999999999996,-0.00021,-0.00023999999999999998,-0.00026000000000000003,-0.00064,2
6221,6435,0.0002,-0.00018999999999999998,-0.00064,-0.00045999999999999996,-0.00021,-0.00023999999999999998,-0.00026000000000000003,-0.00064,2
6222,6437,0.0002,-0.00018999999999999998,-0.00064,-0.00045999999999999996,-0.00021,-0.00023999999999999998,-0.00026000000000000003,-0.00064,2
6223,6439,0.0002,-0.00018999999999999998,-0.00064,-0.00045999999999999996,-0.00021,-0.00023999999999999998,-0.00026000000000000003,-0.00064,2
6224,6440,0.0002,-0.00018999999999999998,-0.00064,-0.00045999999999999996,-0.00021,-0.00023999999999999998,-0.00026000000000000003,-0.00064,2
6225,6441,0.0002,-0.00018999999999999998,-0.00064,-0.00045999999999999996,-0.00021,-0.00023999999999999998,-0.00026000000000000003,-0.00064,2
6226,6442,0.0002,-0.00018999999999999998,-0.00064,-0.00045999999999999996,-0.00021,-0.00023999999999999998,-0.00026000000000000003,-0.00064,2
6227,6443,0.0002,-0.00018999999999999998,-0.00064,-0.00045999999999999996,-0.00021,-0.00023999999999999998,-0.00026000000000000003,-0.00064,2
6228,6444,0.0002,-0.00018999999999999998,-0.00064,-0.00045999999999999996,-0.00021,-0.00023999999999999998,-0.00026000000000000003,-0.00064,2
6229,6445,0.0002,-0.00018999999999999998,-0.00064,-0.00045999999999999996,-0.00021,-0.00023999999999999998,-0.00026000000000000003,-0.00064,2
6230,6446,0.0002,-0.00018999999999999998,-0.00064,-0.00045999999999999996,-0.00021,-0.00023999999999999998,-0.00026000000000000003,-0.00064,2
6231,6447,0.0002,-0.00018999999999999998,-0.00064,-0.00045999999999999996,-0.00021,-0.00023999999999999998,-0.00026000000000000003,-0.00064,2
6232,6448,0.0002,-0.00018999999999999998,-0.00064,-0.00045999999999999996,-0.00021,-0.00023999999999999998,-0.00026000000000000003,-0.00064,2
6233,6449,0.0002,-0.00018999999999999998,-0.00064,-0.00045999999999999996,-0.00021,-0.00023999999999999998,-0.00026000000000000003,-0.00064,2
6234,6450,0.0002,-0.00018999999999999998,-0.00064,-0.00045999999999999996,-0.00021,-0.00023999999999999998,-0.00026000000000000003,-0.00064,2
6235,6451,0.0002,-0.00018999999999999998,-0.00064,-0.00045999999999999996,-0.00021,-0.00023999999999999998,-0.00026000000000000003,-0.00064,2
6236,6452,0.0002,-0.00018999999999999998,-0.00064,-0.00045999999999999996,-0.00021,-0.00023999999999999998,-0.00026000000000000003,-0.00064,2
6237,6453,0.0002,-0.00018999999999999998,-0.00064,-0.00045999999999999996,-0.00021,-0.00023999999999999998,-0.00026000000000000003,-0.00064,2
6238,6454,7e-05,4e-05,0.0004,5.9999999999999995e-05,0.00036,0.0001,0.00022999999999999998,0.00027,2
6239,6455,7e-05,4e-05,0.0004,5.9999999999999995e-05,0.00036,0.0001,0.00022999999999999998,0.00027,2
6240,6456,7e-05,4e-05,0.0004,5.9999999999999995e-05,0.00036,0.0001,0.00022999999999999998,0.00027,2
6241,6457,7e-05,4e-05,0.0004,5.9999999999999995e-05,0.00036,0.0001,0.00022999999999999998,0.00027,2
6242,6458,7e-05,4e-05,0.0004,5.9999999999999995e-05,0.00036,0.0001,0.00022999999999999998,0.00027,2
6243,6459,7e-05,4e-05,0.0004,5.9999999999999995e-05,0.00036,0.0001,0.00022999999999999998,0.00027,2
6244,6460,-0.00013000000000000002,-1e-05,-0.00021,0.0,2e-05,9e-05,0.00016,0.0010400000000000001,2
6245,6461,0.00033999999999999997,0.0,0.00027,0.00011,-0.00023999999999999998,0.00011,-0.00026000000000000003,-0.00086,2
6246,6462,0.00033999999999999997,0.0,0.00027,0.00011,-0.00023999999999999998,0.00011,-0.00026000000000000003,-0.00086,2
6247,6463,0.00033999999999999997,0.0,0.00027,0.00011,-0.00023999999999999998,0.00011,-0.00026000000000000003,-0.00086,2
6248,6464,0.00033999999999999997,0.0,0.00027,0.00011,-0.00023999999999999998,0.00011,-0.00026000000000000003,-0.00086,2
6249,6465,0.00033999999999999997,0.0,0.00027,0.00011,-0.00023999999999999998,0.00011,-0.00026000000000000003,-0.00086,2
6250,6466,0.00033999999999999997,0.0,0.00027,0.00011,-0.00023999999999999998,0.00011,-0.00026000000000000003,-0.00086,2
6251,6467,0.00033999999999999997,0.0,0.00027,0.00011,-0.00023999999999999998,0.00011,-0.00026000000000000003,-0.00086,2
6252,6468,0.00033999999999999997,0.0,0.00027,0.00011,-0.00023999999999999998,0.00011,-0.00026000000000000003,-0.00086,2
6253,6469,0.00033999999999999997,0.0,0.00027,0.00011,-0.00023999999999999998,0.00011,-0.00026000000000000003,-0.00086,2
6254,6470,0.00033999999999999997,0.0,0.00027,0.00011,-0.00023999999999999998,0.00011,-0.00026000000000000003,-0.00086,2
6255,6471,0.00033999999999999997,0.0,0.00027,0.00011,-0.00023999999999999998,0.00011,-0.00026000000000000003,-0.00086,2
6256,6472,0.00033999999999999997,0.0,0.00027,0.00011,-0.00023999999999999998,0.00011,-0.00026000000000000003,-0.00086,2
6257,6473,0.00033999999999999997,0.0,0.00027,0.00011,-0.00023999999999999998,0.00011,-0.00026000000000000003,-0.00086,2
6258,6474,0.00033999999999999997,0.0,0.00027,0.00011,-0.00023999999999999998,0.00011,-0.00026000000000000003,-0.00086,2
6259,6475,0.00033999999999999997,0.0,0.00027,0.00011,-0.00023999999999999998,0.00011,-0.00026000000000000003,-0.00086,2
6260,6476,0.00033999999999999997,0.0,0.00027,0.00011,-0.00023999999999999998,0.00011,-0.00026000000000000003,-0.00086,2
6261,6477,0.00033999999999999997,0.0,0.00027,0.00011,-0.00023999999999999998,0.00011,-0.00026000000000000003,-0.00086,2
6262,6478,0.00033999999999999997,0.0,0.00027,0.00011,-0.00023999999999999998,0.00011,-0.00026000000000000003,-0.00086,2
6263,6479,0.00033999999999999997,0.0,0.00027,0.00011,-0.00023999999999999998,0.00011,-0.00026000000000000003,-0.00086,2
6264,6480,0.00033999999999999997,0.0,0.00027,0.00011,-0.00023999999999999998,0.00011,-0.00026000000000000003,-0.00086,2
6265,6481,0.00033999999999999997,0.0,0.00027,0.00011,-0.00023999999999999998,0.00011,-0.00026000000000000003,-0.00086,2
6266,6482,0.00033999999999999997,0.0,0.00027,0.00011,-0.00023999999999999998,0.00011,-0.00026000000000000003,-0.00086,2
6267,6483,-0.00018999999999999998,5e-05,0.00022999999999999998,7e-05,0.00031,0.00031,0.00025,0.001,2
6268,6484,-0.00036,-0.00014,-0.00011,-9e-05,-0.00011999999999999999,8e-05,0.00011,0.0008699999999999999,2
6269,6485,-0.00036,-0.00014,-0.00011,-9e-05,-0.00011999999999999999,8e-05,0.00011,0.0008699999999999999,2
6270,6486,-0.00036,-0.00014,-0.00011,-9e-05,-0.00011999999999999999,8e-05,0.00011,0.0008699999999999999,2
6271,6488,-0.00036,-0.00014,-0.00011,-9e-05,-0.00011999999999999999,8e-05,0.00011,0.0008699999999999999,2
6272,6489,-0.00036,-0.00014,-0.00011,-9e-05,-0.00011999999999999999,8e-05,0.00011,0.0008699999999999999,2
6273,6490,-0.00036,-0.00014,-0.00011,-9e-05,-0.00011999999999999999,8e-05,0.00011,0.0008699999999999999,2
6274,6491,-0.00036,-0.00014,-0.00011,-9e-05,-0.00011999999999999999,8e-05,0.00011,0.0008699999999999999,2
6275,6492,-0.00036,-0.00014,-0.00011,-9e-05,-0.00011999999999999999,8e-05,0.00011,0.0008699999999999999,2
6276,6493,-0.00036,-0.00014,-0.00011,-9e-05,-0.00011999999999999999,8e-05,0.00011,0.0008699999999999999,2
6277,6494,-0.00036,-0.00014,-0.00011,-9e-05,-0.00011999999999999999,8e-05,0.00011,0.0008699999999999999,2
6278,6495,-0.00036,-0.00014,-0.00011,-9e-05,-0.00011999999999999999,8e-05,0.00011,0.0008699999999999999,2
6279,6496,-0.00036,-0.00014,-0.00011,-9e-05,-0.00011999999999999999,8e-05,0.00011,0.0008699999999999999,2
6280,6497,-0.00036,-0.00014,-0.00011,-9e-05,-0.00011999999999999999,8e-05,0.00011,0.0008699999999999999,2
6281,6498,-0.00036,-0.00014,-0.00011,-9e-05,-0.00011999999999999999,8e-05,0.00011,0.0008699999999999999,2
6282,6499,-0.00036,-0.00014,-0.00011,-9e-05,-0.00011999999999999999,8e-05,0.00011,0.0008699999999999999,2
6283,6500,-0.00036,-0.00014,-0.00011,-9e-05,-0.00011999999999999999,8e-05,0.00011,0.0008699999999999999,2
6284,6501,-0.00036,-0.00014,-0.00011,-9e-05,-0.00011999999999999999,8e-05,0.00011,0.0008699999999999999,2
6285,6502,-0.00036,-0.00014,-0.00011,-9e-05,-0.00011999999999999999,8e-05,0.00011,0.0008699999999999999,2
6286,6503,-0.00036,-0.00014,-0.00011,-9e-05,-0.00011999999999999999,8e-05,0.00011,0.0008699999999999999,2
6287,6504,-0.00036,-0.00014,-0.00011,-9e-05,-0.00011999999999999999,8e-05,0.00011,0.0008699999999999999,2
6288,6505,-0.00036,-0.00014,-0.00011,-9e-05,-0.00011999999999999999,8e-05,0.00011,0.0008699999999999999,2
6289,6506,-0.00036,-0.00014,-0.00011,-9e-05,-0.00011999999999999999,8e-05,0.00011,0.0008699999999999999,2
6290,6507,-0.00036,-0.00014,-0.00011,-9e-05,-0.00011999999999999999,8e-05,0.00011,0.0008699999999999999,2
6291,6508,-0.00036,-0.00014,-0.00011,-9e-05,-0.00011999999999999999,8e-05,0.00011,0.0008699999999999999,2
6292,6509,-0.00036,-0.00014,-0.00011,-9e-05,-0.00011999999999999999,8e-05,0.00011,0.0008699999999999999,2
6293,6510,-0.00036,-0.00014,-0.00011,-9e-05,-0.00011999999999999999,8e-05,0.00011,0.0008699999999999999,2
6294,6511,-0.00036,-0.00014,-0.00011,-9e-05,-0.00011999999999999999,8e-05,0.00011,0.0008699999999999999,2
6295,6512,-0.00036,-0.00014,-0.00011,-9e-05,-0.00011999999999999999,8e-05,0.00011,0.0008699999999999999,2
6296,6513,0.00013000000000000002,9e-05,1e-05,2.9999999999999997e-05,-2.9999999999999997e-05,-8e-05,0.00016999999999999999,0.00016,2
6297,6514,-0.00023999999999999998,-4e-05,0.0001,0.00014,0.0,-5.9999999999999995e-05,-0.00035,-0.0008699999999999999,2
6298,6515,-0.00023999999999999998,-4e-05,0.0001,0.00014,0.0,-5.9999999999999995e-05,-0.00035,-0.0008699999999999999,2
6299,6516,-0.00023999999999999998,-4e-05,0.0001,0.00014,0.0,-5.9999999999999995e-05,-0.00035,-0.0008699999999999999,2
6300,6517,-0.00023999999999999998,-4e-05,0.0001,0.00014,0.0,-5.9999999999999995e-05,-0.00035,-0.0008699999999999999,2
6301,6518,-0.00023999999999999998,-4e-05,0.0001,0.00014,0.0,-5.9999999999999995e-05,-0.00035,-0.0008699999999999999,2
6302,6519,-0.00023999999999999998,-4e-05,0.0001,0.00014,0.0,-5.9999999999999995e-05,-0.00035,-0.0008699999999999999,2
6303,6520,-0.00023999999999999998,-4e-05,0.0001,0.00014,0.0,-5.9999999999999995e-05,-0.00035,-0.0008699999999999999,2
6304,6521,0.00036,5.9999999999999995e-05,5e-05,-0.0001,5.9999999999999995e-05,0.00016999999999999999,0.00018999999999999998,0.0008900000000000001,2
6305,6522,0.00036,5.9999999999999995e-05,5e-05,-0.0001,5.9999999999999995e-05,0.00016999999999999999,0.00018999999999999998,0.0008900000000000001,2
6306,6523,0.00036,5.9999999999999995e-05,5e-05,-0.0001,5.9999999999999995e-05,0.00016999999999999999,0.00018999999999999998,0.0008900000000000001,2
6307,6524,0.00036,5.9999999999999995e-05,5e-05,-0.0001,5.9999999999999995e-05,0.00016999999999999999,0.00018999999999999998,0.0008900000000000001,2
6308,6525,0.00036,5.9999999999999995e-05,5e-05,-0.0001,5.9999999999999995e-05,0.00016999999999999999,0.00018999999999999998,0.0008900000000000001,2
6309,6526,0.00036,5.9999999999999995e-05,5e-05,-0.0001,5.9999999999999995e-05,0.00016999999999999999,0.00018999999999999998,0.0008900000000000001,2
6310,6527,0.00036,5.9999999999999995e-05,5e-05,-0.0001,5.9999999999999995e-05,0.00016999999999999999,0.00018999999999999998,0.0008900000000000001,2
6311,6528,0.00036,5.9999999999999995e-05,5e-05,-0.0001,5.9999999999999995e-05,0.00016999999999999999,0.00018999999999999998,0.0008900000000000001,2
6312,6529,0.00036,5.9999999999999995e-05,5e-05,-0.0001,5.9999999999999995e-05,0.00016999999999999999,0.00018999999999999998,0.0008900000000000001,2
6313,6530,0.00036,5.9999999999999995e-05,5e-05,-0.0001,5.9999999999999995e-05,0.00016999999999999999,0.00018999999999999998,0.0008900000000000001,2
6314,6531,0.00036,5.9999999999999995e-05,5e-05,-0.0001,5.9999999999999995e-05,0.00016999999999999999,0.00018999999999999998,0.0008900000000000001,2
6315,6532,0.00036,5.9999999999999995e-05,5e-05,-0.0001,5.9999999999999995e-05,0.00016999999999999999,0.00018999999999999998,0.0008900000000000001,2
6316,6533,0.00036,5.9999999999999995e-05,5e-05,-0.0001,5.9999999999999995e-05,0.00016999999999999999,0.00018999999999999998,0.0008900000000000001,2
6317,6534,0.00036,5.9999999999999995e-05,5e-05,-0.0001,5.9999999999999995e-05,0.00016999999999999999,0.00018999999999999998,0.0008900000000000001,2
6318,6535,0.00036,5.9999999999999995e-05,5e-05,-0.0001,5.9999999999999995e-05,0.00016999999999999999,0.00018999999999999998,0.0008900000000000001,2
6319,6536,0.00036,5.9999999999999995e-05,5e-05,-0.0001,5.9999999999999995e-05,0.00016999999999999999,0.00018999999999999998,0.0008900000000000001,2
6320,6538,0.00036,5.9999999999999995e-05,5e-05,-0.0001,5.9999999999999995e-05,0.00016999999999999999,0.00018999999999999998,0.0008900000000000001,2
6321,6539,0.00036,5.9999999999999995e-05,5e-05,-0.0001,5.9999999999999995e-05,0.00016999999999999999,0.00018999999999999998,0.0008900000000000001,2
6322,6540,0.00036,5.9999999999999995e-05,5e-05,-0.0001,5.9999999999999995e-05,0.00016999999999999999,0.00018999999999999998,0.0008900000000000001,2
6323,6541,0.00036,5.9999999999999995e-05,5e-05,-0.0001,5.9999999999999995e-05,0.00016999999999999999,0.00018999999999999998,0.0008900000000000001,2
6324,6542,0.00036,5.9999999999999995e-05,5e-05,-0.0001,5.9999999999999995e-05,0.00016999999999999999,0.00018999999999999998,0.0008900000000000001,2
6325,6543,-0.00026000000000000003,-0.00013000000000000002,-0.00016,-0.00018,-0.00027,2.9999999999999997e-05,-8e-05,-0.00036,2
6326,6544,-5e-05,-2.9999999999999997e-05,-5.9999999999999995e-05,0.00011999999999999999,0.00014,-0.00018999999999999998,0.00016,0.00074,2
6327,6545,-5e-05,-2.9999999999999997e-05,-5.9999999999999995e-05,0.00011999999999999999,0.00014,-0.00018999999999999998,0.00016,0.00074,2
6328,6546,-5e-05,-2.9999999999999997e-05,-5.9999999999999995e-05,0.00011999999999999999,0.00014,-0.00018999999999999998,0.00016,0.00074,2
6329,6547,-5e-05,-2.9999999999999997e-05,-5.9999999999999995e-05,0.00011999999999999999,0.00014,-0.00018999999999999998,0.00016,0.00074,2
6330,6548,-5e-05,-2.9999999999999997e-05,-5.9999999999999995e-05,0.00011999999999999999,0.00014,-0.00018999999999999998,0.00016,0.00074,2
6331,6549,-5e-05,-2.9999999999999997e-05,-5.9999999999999995e-05,0.00011999999999999999,0.00014,-0.00018999999999999998,0.00016,0.00074,2
6332,6550,-5e-05,-2.9999999999999997e-05,-5.9999999999999995e-05,0.00011999999999999999,0.00014,-0.00018999999999999998,0.00016,0.00074,2
6333,6551,-5e-05,-2.9999999999999997e-05,-5.9999999999999995e-05,0.00011999999999999999,0.00014,-0.00018999999999999998,0.00016,0.00074,2
6334,6552,-5e-05,-2.9999999999999997e-05,-5.9999999999999995e-05,0.00011999999999999999,0.00014,-0.00018999999999999998,0.00016,0.00074,2
6335,6553,-5e-05,-2.9999999999999997e-05,-5.9999999999999995e-05,0.00011999999999999999,0.00014,-0.00018999999999999998,0.00016,0.00074,2
6336,6554,-5e-05,-2.9999999999999997e-05,-5.9999999999999995e-05,0.00011999999999999999,0.00014,-0.00018999999999999998,0.00016,0.00074,2
6337,6555,-5e-05,-2.9999999999999997e-05,-5.9999999999999995e-05,0.00011999999999999999,0.00014,-0.00018999999999999998,0.00016,0.00074,2
6338,6556,-5e-05,-2.9999999999999997e-05,-5.9999999999999995e-05,0.00011999999999999999,0.00014,-0.00018999999999999998,0.00016,0.00074,2
6339,6557,-5e-05,-2.9999999999999997e-05,-5.9999999999999995e-05,0.00011999999999999999,0.00014,-0.00018999999999999998,0.00016,0.00074,2
6340,6558,-5e-05,-2.9999999999999997e-05,-5.9999999999999995e-05,0.00011999999999999999,0.00014,-0.00018999999999999998,0.00016,0.00074,2
6341,6559,-5e-05,-2.9999999999999997e-05,-5.9999999999999995e-05,0.00011999999999999999,0.00014,-0.00018999999999999998,0.00016,0.00074,2
6342,6560,-5e-05,-2.9999999999999997e-05,-5.9999999999999995e-05,0.00011999999999999999,0.00014,-0.00018999999999999998,0.00016,0.00074,2
6343,6561,-5e-05,-2.9999999999999997e-05,-5.9999999999999995e-05,0.00011999999999999999,0.00014,-0.00018999999999999998,0.00016,0.00074,2
6344,6562,-5e-05,-2.9999999999999997e-05,-5.9999999999999995e-05,0.00011999999999999999,0.00014,-0.00018999999999999998,0.00016,0.00074,2
6345,6563,-5e-05,-2.9999999999999997e-05,-5.9999999999999995e-05,0.00011999999999999999,0.00014,-0.00018999999999999998,0.00016,0.00074,2
6346,6564,-5e-05,-2.9999999999999997e-05,-5.9999999999999995e-05,0.00011999999999999999,0.00014,-0.00018999999999999998,0.00016,0.00074,2
6347,6565,-5e-05,-2.9999999999999997e-05,-5.9999999999999995e-05,0.00011999999999999999,0.00014,-0.00018999999999999998,0.00016,0.00074,2
6348,6566,2.9999999999999997e-05,0.0,-0.00013000000000000002,-4e-05,-0.00025,-9e-05,-0.0001,-4e-05,2
6349,6567,0.00011999999999999999,5.9999999999999995e-05,7e-05,-7e-05,0.0,0.00015,0.00013000000000000002,-0.00045999999999999996,2
6350,6568,0.00011999999999999999,5.9999999999999995e-05,7e-05,-7e-05,0.0,0.00015,0.00013000000000000002,-0.00045999999999999996,2
6351,6569,0.00011999999999999999,5.9999999999999995e-05,7e-05,-7e-05,0.0,0.00015,0.00013000000000000002,-0.00045999999999999996,2
6352,6570,0.00011999999999999999,5.9999999999999995e-05,7e-05,-7e-05,0.0,0.00015,0.00013000000000000002,-0.00045999999999999996,2
6353,6571,0.00011999999999999999,5.9999999999999995e-05,7e-05,-7e-05,0.0,0.00015,0.00013000000000000002,-0.00045999999999999996,2
6354,6572,0.00011999999999999999,5.9999999999999995e-05,7e-05,-7e-05,0.0,0.00015,0.00013000000000000002,-0.00045999999999999996,2
6355,6573,0.00011999999999999999,5.9999999999999995e-05,7e-05,-7e-05,0.0,0.00015,0.00013000000000000002,-0.00045999999999999996,2
6356,6574,0.00011999999999999999,5.9999999999999995e-05,7e-05,-7e-05,0.0,0.00015,0.00013000000000000002,-0.00045999999999999996,2
6357,6575,0.00011999999999999999,5.9999999999999995e-05,7e-05,-7e-05,0.0,0.00015,0.00013000000000000002,-0.00045999999999999996,2
6358,6576,0.00011999999999999999,5.9999999999999995e-05,7e-05,-7e-05,0.0,0.00015,0.00013000000000000002,-0.00045999999999999996,2
6359,6577,0.00011999999999999999,5.9999999999999995e-05,7e-05,-7e-05,0.0,0.00015,0.00013000000000000002,-0.00045999999999999996,2
6360,6578,0.00011999999999999999,5.9999999999999995e-05,7e-05,-7e-05,0.0,0.00015,0.00013000000000000002,-0.00045999999999999996,2
6361,6579,0.00011999999999999999,5.9999999999999995e-05,7e-05,-7e-05,0.0,0.00015,0.00013000000000000002,-0.00045999999999999996,2
6362,6580,0.00014,0.0,7e-05,0.00011,2.9999999999999997e-05,4e-05,-1e-05,-0.00054,2
6363,6581,2.9999999999999997e-05,2e-05,-5e-05,-2.9999999999999997e-05,0.00031,0.0002,0.00027,0.00055,2
6364,6582,2.9999999999999997e-05,2e-05,-5e-05,-2.9999999999999997e-05,0.00031,0.0002,0.00027,0.00055,2
6365,6583,2.9999999999999997e-05,2e-05,-5e-05,-2.9999999999999997e-05,0.00031,0.0002,0.00027,0.00055,2
6366,6584,2.9999999999999997e-05,2e-05,-5e-05,-2.9999999999999997e-05,0.00031,0.0002,0.00027,0.00055,2
6367,6585,2.9999999999999997e-05,2e-05,-5e-05,-2.9999999999999997e-05,0.00031,0.0002,0.00027,0.00055,2
6368,6586,2.9999999999999997e-05,2e-05,-5e-05,-2.9999999999999997e-05,0.00031,0.0002,0.00027,0.00055,2
6369,6588,2.9999999999999997e-05,2e-05,-5e-05,-2.9999999999999997e-05,0.00031,0.0002,0.00027,0.00055,2
6370,6589,2.9999999999999997e-05,2e-05,-5e-05,-2.9999999999999997e-05,0.00031,0.0002,0.00027,0.00055,2
6371,6590,2.9999999999999997e-05,2e-05,-5e-05,-2.9999999999999997e-05,0.00031,0.0002,0.00027,0.00055,2
6372,6592,2.9999999999999997e-05,2e-05,-5e-05,-2.9999999999999997e-05,0.00031,0.0002,0.00027,0.00055,2
6373,6593,2.9999999999999997e-05,2e-05,-5e-05,-2.9999999999999997e-05,0.00031,0.0002,0.00027,0.00055,2
6374,6594,2.9999999999999997e-05,2e-05,-5e-05,-2.9999999999999997e-05,0.00031,0.0002,0.00027,0.00055,2
6375,6595,2.9999999999999997e-05,2e-05,-5e-05,-2.9999999999999997e-05,0.00031,0.0002,0.00027,0.00055,2
6376,6596,2.9999999999999997e-05,2e-05,-5e-05,-2.9999999999999997e-05,0.00031,0.0002,0.00027,0.00055,2
6377,6597,2.9999999999999997e-05,2e-05,-5e-05,-2.9999999999999997e-05,0.00031,0.0002,0.00027,0.00055,2
6378,6598,2.9999999999999997e-05,2e-05,-5e-05,-2.9999999999999997e-05,0.00031,0.0002,0.00027,0.00055,2
6379,6599,2.9999999999999997e-05,2e-05,-5e-05,-2.9999999999999997e-05,0.00031,0.0002,0.00027,0.00055,2
6380,6600,2.9999999999999997e-05,2e-05,-5e-05,-2.9999999999999997e-05,0.00031,0.0002,0.00027,0.00055,2
6381,6601,2.9999999999999997e-05,2e-05,-5e-05,-2.9999999999999997e-05,0.00031,0.0002,0.00027,0.00055,2
6382,6602,2.9999999999999997e-05,2e-05,-5e-05,-2.9999999999999997e-05,0.00031,0.0002,0.00027,0.00055,2
6383,6603,2.9999999999999997e-05,0.00014,0.00016,2e-05,-0.00018999999999999998,7e-05,0.00016,-8e-05,2
6384,6604,-1e-05,-1e-05,2.9999999999999997e-05,-0.00011,-4e-05,-0.00014,-0.00042,-0.0002,2
6385,6605,-1e-05,-1e-05,2.9999999999999997e-05,-0.00011,-4e-05,-0.00014,-0.00042,-0.0002,2
6386,6606,-1e-05,-1e-05,2.9999999999999997e-05,-0.00011,-4e-05,-0.00014,-0.00042,-0.0002,2
6387,6607,-1e-05,-1e-05,2.9999999999999997e-05,-0.00011,-4e-05,-0.00014,-0.00042,-0.0002,2
6388,6608,-1e-05,-1e-05,2.9999999999999997e-05,-0.00011,-4e-05,-0.00014,-0.00042,-0.0002,2
6389,6609,-1e-05,-1e-05,2.9999999999999997e-05,-0.00011,-4e-05,-0.00014,-0.00042,-0.0002,2
6390,6610,-1e-05,-1e-05,2.9999999999999997e-05,-0.00011,-4e-05,-0.00014,-0.00042,-0.0002,2
6391,6611,-1e-05,-1e-05,2.9999999999999997e-05,-0.00011,-4e-05,-0.00014,-0.00042,-0.0002,2
6392,6612,-1e-05,-1e-05,2.9999999999999997e-05,-0.00011,-4e-05,-0.00014,-0.00042,-0.0002,2
6393,6613,-1e-05,-1e-05,2.9999999999999997e-05,-0.00011,-4e-05,-0.00014,-0.00042,-0.0002,2
6394,6614,-1e-05,-1e-05,2.9999999999999997e-05,-0.00011,-4e-05,-0.00014,-0.00042,-0.0002,2
6395,6615,-1e-05,-1e-05,2.9999999999999997e-05,-0.00011,-4e-05,-0.00014,-0.00042,-0.0002,2
6396,6616,-1e-05,-1e-05,2.9999999999999997e-05,-0.00011,-4e-05,-0.00014,-0.00042,-0.0002,2
6397,6617,-1e-05,-1e-05,2.9999999999999997e-05,-0.00011,-4e-05,-0.00014,-0.00042,-0.0002,2
6398,6618,-1e-05,-1e-05,2.9999999999999997e-05,-0.00011,-4e-05,-0.00014,-0.00042,-0.0002,2
6399,6619,-1e-05,-1e-05,2.9999999999999997e-05,-0.00011,-4e-05,-0.00014,-0.00042,-0.0002,2
6400,6620,-1e-05,-1e-05,2.9999999999999997e-05,-0.00011,-4e-05,-0.00014,-0.00042,-0.0002,2
6401,6621,-1e-05,-1e-05,2.9999999999999997e-05,-0.00011,-4e-05,-0.00014,-0.00042,-0.0002,2
6402,6622,-1e-05,-1e-05,2.9999999999999997e-05,-0.00011,-4e-05,-0.00014,-0.00042,-0.0002,2
6403,6623,-1e-05,-1e-05,2.9999999999999997e-05,-0.00011,-4e-05,-0.00014,-0.00042,-0.0002,2
6404,6624,-1e-05,-1e-05,2.9999999999999997e-05,-0.00011,-4e-05,-0.00014,-0.00042,-0.0002,2
6405,6625,-1e-05,-1e-05,2.9999999999999997e-05,-0.00011,-4e-05,-0.00014,-0.00042,-0.0002,2
6406,6626,-1e-05,5.9999999999999995e-05,0.00022999999999999998,5e-05,7e-05,-9e-05,0.00027,0.00037,2
6407,6627,-0.00011,-7e-05,2.9999999999999997e-05,0.00022999999999999998,0.00018999999999999998,0.00015,1e-05,0.00078,2
6408,6628,-0.00011,-7e-05,2.9999999999999997e-05,0.00022999999999999998,0.00018999999999999998,0.00015,1e-05,0.00078,2
6409,6629,-0.00011,-7e-05,2.9999999999999997e-05,0.00022999999999999998,0.00018999999999999998,0.00015,1e-05,0.00078,2
6410,6630,-0.00011,-7e-05,2.9999999999999997e-05,0.00022999999999999998,0.00018999999999999998,0.00015,1e-05,0.00078,2
6411,6631,-0.00011,-7e-05,2.9999999999999997e-05,0.00022999999999999998,0.00018999999999999998,0.00015,1e-05,0.00078,2
6412,6632,-0.00011,-7e-05,2.9999999999999997e-05,0.00022999999999999998,0.00018999999999999998,0.00015,1e-05,0.00078,2
6413,6633,-0.00011,-7e-05,2.9999999999999997e-05,0.00022999999999999998,0.00018999999999999998,0.00015,1e-05,0.00078,2
6414,6634,-0.00011,-7e-05,2.9999999999999997e-05,0.00022999999999999998,0.00018999999999999998,0.00015,1e-05,0.00078,2
6415,6635,-0.00011,-7e-05,2.9999999999999997e-05,0.00022999999999999998,0.00018999999999999998,0.00015,1e-05,0.00078,2
6416,6636,-0.00011,-7e-05,2.9999999999999997e-05,0.00022999999999999998,0.00018999999999999998,0.00015,1e-05,0.00078,2
6417,6638,-0.00011,-7e-05,2.9999999999999997e-05,0.00022999999999999998,0.00018999999999999998,0.00015,1e-05,0.00078,2
6418,6639,-0.00011,-7e-05,2.9999999999999997e-05,0.00022999999999999998,0.00018999999999999998,0.00015,1e-05,0.00078,2
6419,6640,-0.00011,-7e-05,2.9999999999999997e-05,0.00022999999999999998,0.00018999999999999998,0.00015,1e-05,0.00078,2
6420,6641,-0.00011,-7e-05,2.9999999999999997e-05,0.00022999999999999998,0.00018999999999999998,0.00015,1e-05,0.00078,2
6421,6642,-0.00011,-7e-05,2.9999999999999997e-05,0.00022999999999999998,0.00018999999999999998,0.00015,1e-05,0.00078,2
6422,6643,-0.00011,-7e-05,2.9999999999999997e-05,0.00022999999999999998,0.00018999999999999998,0.00015,1e-05,0.00078,2
6423,6644,-0.00011,-7e-05,2.9999999999999997e-05,0.00022999999999999998,0.00018999999999999998,0.00015,1e-05,0.00078,2
6424,6645,-0.00011,-7e-05,2.9999999999999997e-05,0.00022999999999999998,0.00018999999999999998,0.00015,1e-05,0.00078,2
6425,6646,-0.00011,-7e-05,2.9999999999999997e-05,0.00022999999999999998,0.00018999999999999998,0.00015,1e-05,0.00078,2
6426,6647,-0.00011,-7e-05,2.9999999999999997e-05,0.00022999999999999998,0.00018999999999999998,0.00015,1e-05,0.00078,2
6427,6648,0.00078,0.00011,0.0003,2.9999999999999997e-05,-1e-05,-8e-05,-0.00016999999999999999,-0.00058,2
6428,6649,-8e-05,-4e-05,-0.00028,-1e-05,0.00039,5.9999999999999995e-05,4e-05,-2e-05,2
6429,6650,-8e-05,-4e-05,-0.00028,-1e-05,0.00039,5.9999999999999995e-05,4e-05,-2e-05,2
6430,6651,-8e-05,-4e-05,-0.00028,-1e-05,0.00039,5.9999999999999995e-05,4e-05,-2e-05,2
6431,6652,-8e-05,-4e-05,-0.00028,-1e-05,0.00039,5.9999999999999995e-05,4e-05,-2e-05,2
6432,6653,-8e-05,-4e-05,-0.00028,-1e-05,0.00039,5.9999999999999995e-05,4e-05,-2e-05,2
6433,6654,-8e-05,-4e-05,-0.00028,-1e-05,0.00039,5.9999999999999995e-05,4e-05,-2e-05,2
6434,6655,-8e-05,-4e-05,-0.00028,-1e-05,0.00039,5.9999999999999995e-05,4e-05,-2e-05,2
6435,6656,-8e-05,-4e-05,-0.00028,-1e-05,0.00039,5.9999999999999995e-05,4e-05,-2e-05,2
6436,6657,-8e-05,-4e-05,-0.00028,-1e-05,0.00039,5.9999999999999995e-05,4e-05,-2e-05,2
6437,6658,-8e-05,-4e-05,-0.00028,-1e-05,0.00039,5.9999999999999995e-05,4e-05,-2e-05,2
6438,6659,-8e-05,-4e-05,-0.00028,-1e-05,0.00039,5.9999999999999995e-05,4e-05,-2e-05,2
6439,6660,-8e-05,-4e-05,-0.00028,-1e-05,0.00039,5.9999999999999995e-05,4e-05,-2e-05,2
6440,6661,-8e-05,-4e-05,-0.00028,-1e-05,0.00039,5.9999999999999995e-05,4e-05,-2e-05,2
6441,6662,-8e-05,-4e-05,-0.00028,-1e-05,0.00039,5.9999999999999995e-05,4e-05,-2e-05,2
6442,6663,-8e-05,0.0001,8e-05,5e-05,5e-05,-0.00011,4e-05,0.0002,2
6443,6664,-0.00016999999999999999,0.00011,0.0002,2.9999999999999997e-05,-0.00015,-0.00031,-0.00021,-0.00107,2
6444,6665,-0.00016999999999999999,0.00011,0.0002,2.9999999999999997e-05,-0.00015,-0.00031,-0.00021,-0.00107,2
6445,6666,-0.00016999999999999999,0.00011,0.0002,2.9999999999999997e-05,-0.00015,-0.00031,-0.00021,-0.00107,2
6446,6667,-0.00016999999999999999,0.00011,0.0002,2.9999999999999997e-05,-0.00015,-0.00031,-0.00021,-0.00107,2
6447,6668,-0.00016999999999999999,0.00011,0.0002,2.9999999999999997e-05,-0.00015,-0.00031,-0.00021,-0.00107,2
6448,6669,-0.00016999999999999999,0.00011,0.0002,2.9999999999999997e-05,-0.00015,-0.00031,-0.00021,-0.00107,2
6449,6670,-0.00016999999999999999,0.00011,0.0002,2.9999999999999997e-05,-0.00015,-0.00031,-0.00021,-0.00107,2
6450,6671,-0.00016999999999999999,0.00011,0.0002,2.9999999999999997e-05,-0.00015,-0.00031,-0.00021,-0.00107,2
6451,6672,-0.00016999999999999999,0.00011,0.0002,2.9999999999999997e-05,-0.00015,-0.00031,-0.00021,-0.00107,2
6452,6673,-0.00016999999999999999,0.00011,0.0002,2.9999999999999997e-05,-0.00015,-0.00031,-0.00021,-0.00107,2
6453,6674,-0.00016999999999999999,0.00011,0.0002,2.9999999999999997e-05,-0.00015,-0.00031,-0.00021,-0.00107,2
6454,6675,-0.00016999999999999999,0.00011,0.0002,2.9999999999999997e-05,-0.00015,-0.00031,-0.00021,-0.00107,2
6455,6676,-0.00016999999999999999,0.00011,0.0002,2.9999999999999997e-05,-0.00015,-0.00031,-0.00021,-0.00107,2
6456,6677,-0.00016999999999999999,0.00011,0.0002,2.9999999999999997e-05,-0.00015,-0.00031,-0.00021,-0.00107,2
6457,6678,-0.00016999999999999999,0.00011,0.0002,2.9999999999999997e-05,-0.00015,-0.00031,-0.00021,-0.00107,2
6458,6679,-0.00016999999999999999,0.00011,0.0002,2.9999999999999997e-05,-0.00015,-0.00031,-0.00021,-0.00107,2
6459,6680,-0.00016999999999999999,0.00011,0.0002,2.9999999999999997e-05,-0.00015,-0.00031,-0.00021,-0.00107,2
6460,6681,-0.00016999999999999999,0.00011,0.0002,2.9999999999999997e-05,-0.00015,-0.00031,-0.00021,-0.00107,2
6461,6682,-0.00016999999999999999,0.00011,0.0002,2.9999999999999997e-05,-0.00015,-0.00031,-0.00021,-0.00107,2
6462,6683,-0.00016999999999999999,0.00011,0.0002,2.9999999999999997e-05,-0.00015,-0.00031,-0.00021,-0.00107,2
6463,6684,-0.00016999999999999999,0.00011,0.0002,2.9999999999999997e-05,-0.00015,-0.00031,-0.00021,-0.00107,2
6464,6685,-0.00016999999999999999,0.00011,0.0002,2.9999999999999997e-05,-0.00015,-0.00031,-0.00021,-0.00107,2
6465,6686,-0.00016999999999999999,0.00011,0.0002,2.9999999999999997e-05,-0.00015,-0.00031,-0.00021,-0.00107,2
6466,6689,-0.00013000000000000002,0.00016,0.00023999999999999998,-1e-05,-0.00022999999999999998,0.00018,0.00014,-0.00037999999999999997,2
6467,6690,-0.00013000000000000002,0.00016,0.00023999999999999998,-1e-05,-0.00022999999999999998,0.00018,0.00014,-0.00037999999999999997,2
6468,6691,-0.00013000000000000002,0.00016,0.00023999999999999998,-1e-05,-0.00022999999999999998,0.00018,0.00014,-0.00037999999999999997,2
6469,6692,-0.00013000000000000002,0.00016,0.00023999999999999998,-1e-05,-0.00022999999999999998,0.00018,0.00014,-0.00037999999999999997,2
6470,6693,-0.00013000000000000002,0.00016,0.00023999999999999998,-1e-05,-0.00022999999999999998,0.00018,0.00014,-0.00037999999999999997,2
6471,6694,-0.00013000000000000002,0.00016,0.00023999999999999998,-1e-05,-0.00022999999999999998,0.00018,0.00014,-0.00037999999999999997,2
6472,6695,-0.00013000000000000002,0.00016,0.00023999999999999998,-1e-05,-0.00022999999999999998,0.00018,0.00014,-0.00037999999999999997,2
6473,6696,-0.00013000000000000002,0.00016,0.00023999999999999998,-1e-05,-0.00022999999999999998,0.00018,0.00014,-0.00037999999999999997,2
6474,6697,-0.00013000000000000002,0.00016,0.00023999999999999998,-1e-05,-0.00022999999999999998,0.00018,0.00014,-0.00037999999999999997,2
6475,6698,-0.00013000000000000002,0.00016,0.00023999999999999998,-1e-05,-0.00022999999999999998,0.00018,0.00014,-0.00037999999999999997,2
6476,6699,-0.00013000000000000002,0.00016,0.00023999999999999998,-1e-05,-0.00022999999999999998,0.00018,0.00014,-0.00037999999999999997,2
6477,6700,-0.00014,-2.9999999999999997e-05,-0.00018999999999999998,-5.9999999999999995e-05,2e-05,0.00013000000000000002,0.00011,0.00042,2
6478,6701,-0.00014,-2.9999999999999997e-05,-0.00018999999999999998,-5.9999999999999995e-05,2e-05,0.00013000000000000002,0.00011,0.00042,2
6479,6702,-0.00014,-2.9999999999999997e-05,-0.00018999999999999998,-5.9999999999999995e-05,2e-05,0.00013000000000000002,0.00011,0.00042,2
6480,6703,-0.00014,-2.9999999999999997e-05,-0.00018999999999999998,-5.9999999999999995e-05,2e-05,0.00013000000000000002,0.00011,0.00042,2
6481,6704,-0.00014,-2.9999999999999997e-05,-0.00018999999999999998,-5.9999999999999995e-05,2e-05,0.00013000000000000002,0.00011,0.00042,2
6482,6705,-0.00014,-2.9999999999999997e-05,-0.00018999999999999998,-5.9999999999999995e-05,2e-05,0.00013000000000000002,0.00011,0.00042,2
6483,6706,-0.00014,-2.9999999999999997e-05,-0.00018999999999999998,-5.9999999999999995e-05,2e-05,0.00013000000000000002,0.00011,0.00042,2
6484,6707,-0.00014,-2.9999999999999997e-05,-0.00018999999999999998,-5.9999999999999995e-05,2e-05,0.00013000000000000002,0.00011,0.00042,2
6485,6708,0.00022,-4e-05,0.0,8e-05,-0.0002,0.0002,0.00023999999999999998,0.00122,2
6486,6709,0.00022,-4e-05,0.0,8e-05,-0.0002,0.0002,0.00023999999999999998,0.00122,2
6487,6710,0.00022,-4e-05,0.0,8e-05,-0.0002,0.0002,0.00023999999999999998,0.00122,2
6488,6711,0.00022,-4e-05,0.0,8e-05,-0.0002,0.0002,0.00023999999999999998,0.00122,2
6489,6712,0.00022,-4e-05,0.0,8e-05,-0.0002,0.0002,0.00023999999999999998,0.00122,2
6490,6713,0.00022,-4e-05,0.0,8e-05,-0.0002,0.0002,0.00023999999999999998,0.00122,2
6491,6714,0.00022,-4e-05,0.0,8e-05,-0.0002,0.0002,0.00023999999999999998,0.00122,2
6492,6715,0.00022,-4e-05,0.0,8e-05,-0.0002,0.0002,0.00023999999999999998,0.00122,2
6493,6716,0.00022,-4e-05,0.0,8e-05,-0.0002,0.0002,0.00023999999999999998,0.00122,2
6494,6717,0.00022,-4e-05,0.0,8e-05,-0.0002,0.0002,0.00023999999999999998,0.00122,2
6495,6718,0.00022,-4e-05,0.0,8e-05,-0.0002,0.0002,0.00023999999999999998,0.00122,2
6496,6719,0.00022,-4e-05,0.0,8e-05,-0.0002,0.0002,0.00023999999999999998,0.00122,2
6497,6720,0.00022,-4e-05,0.0,8e-05,-0.0002,0.0002,0.00023999999999999998,0.00122,2
6498,6721,0.00022,-4e-05,0.0,8e-05,-0.0002,0.0002,0.00023999999999999998,0.00122,2
6499,6722,0.00022,-4e-05,0.0,8e-05,-0.0002,0.0002,0.00023999999999999998,0.00122,2
6500,6723,0.00022,-4e-05,0.0,8e-05,-0.0002,0.0002,0.00023999999999999998,0.00122,2
6501,6724,0.00022,-4e-05,0.0,8e-05,-0.0002,0.0002,0.00023999999999999998,0.00122,2
6502,6725,0.00022,-4e-05,0.0,8e-05,-0.0002,0.0002,0.00023999999999999998,0.00122,2
6503,6726,0.00022,-4e-05,0.0,8e-05,-0.0002,0.0002,0.00023999999999999998,0.00122,2
6504,6727,0.00022,-4e-05,0.0,8e-05,-0.0002,0.0002,0.00023999999999999998,0.00122,2
6505,6728,0.00022,-4e-05,0.0,8e-05,-0.0002,0.0002,0.00023999999999999998,0.00122,2
6506,6729,0.00022,-4e-05,0.0,8e-05,-0.0002,0.0002,0.00023999999999999998,0.00122,2
6507,6730,0.00022,-4e-05,0.0,8e-05,-0.0002,0.0002,0.00023999999999999998,0.00122,2
6508,6731,0.00018999999999999998,-2e-05,-0.00011,2.9999999999999997e-05,0.00058,5.9999999999999995e-05,1e-05,-0.00016,2
6509,6732,-0.00026000000000000003,4e-05,0.00013000000000000002,-8e-05,-0.00014,-0.00016999999999999999,-2.9999999999999997e-05,0.00033999999999999997,2
6510,6733,-0.00026000000000000003,4e-05,0.00013000000000000002,-8e-05,-0.00014,-0.00016999999999999999,-2.9999999999999997e-05,0.00033999999999999997,2
6511,6734,-0.00026000000000000003,4e-05,0.00013000000000000002,-8e-05,-0.00014,-0.00016999999999999999,-2.9999999999999997e-05,0.00033999999999999997,2
6512,6735,-0.00026000000000000003,4e-05,0.00013000000000000002,-8e-05,-0.00014,-0.00016999999999999999,-2.9999999999999997e-05,0.00033999999999999997,2
6513,6736,-0.00026000000000000003,4e-05,0.00013000000000000002,-8e-05,-0.00014,-0.00016999999999999999,-2.9999999999999997e-05,0.00033999999999999997,2
6514,6738,-0.00026000000000000003,4e-05,0.00013000000000000002,-8e-05,-0.00014,-0.00016999999999999999,-2.9999999999999997e-05,0.00033999999999999997,2
6515,6739,-0.00026000000000000003,4e-05,0.00013000000000000002,-8e-05,-0.00014,-0.00016999999999999999,-2.9999999999999997e-05,0.00033999999999999997,2
6516,6740,-0.00026000000000000003,4e-05,0.00013000000000000002,-8e-05,-0.00014,-0.00016999999999999999,-2.9999999999999997e-05,0.00033999999999999997,2
6517,6741,-0.00026000000000000003,4e-05,0.00013000000000000002,-8e-05,-0.00014,-0.00016999999999999999,-2.9999999999999997e-05,0.00033999999999999997,2
6518,6742,-0.00026000000000000003,4e-05,0.00013000000000000002,-8e-05,-0.00014,-0.00016999999999999999,-2.9999999999999997e-05,0.00033999999999999997,2
6519,6743,-0.00026000000000000003,4e-05,0.00013000000000000002,-8e-05,-0.00014,-0.00016999999999999999,-2.9999999999999997e-05,0.00033999999999999997,2
6520,6744,-0.00026000000000000003,4e-05,0.00013000000000000002,-8e-05,-0.00014,-0.00016999999999999999,-2.9999999999999997e-05,0.00033999999999999997,2
6521,6745,-0.00026000000000000003,4e-05,0.00013000000000000002,-8e-05,-0.00014,-0.00016999999999999999,-2.9999999999999997e-05,0.00033999999999999997,2
6522,6746,2e-05,-0.00011,-0.00018,-5.9999999999999995e-05,-1e-05,-0.00011,1e-05,0.0009400000000000001,2
6523,6747,0.00023999999999999998,0.0001,1e-05,-0.00014,-0.00015,-8e-05,-1e-05,0.00039,2
6524,6748,0.00023999999999999998,0.0001,1e-05,-0.00014,-0.00015,-8e-05,-1e-05,0.00039,2
6525,6749,0.00023999999999999998,0.0001,1e-05,-0.00014,-0.00015,-8e-05,-1e-05,0.00039,2
6526,6750,0.00023999999999999998,0.0001,1e-05,-0.00014,-0.00015,-8e-05,-1e-05,0.00039,2
6527,6751,0.00023999999999999998,0.0001,1e-05,-0.00014,-0.00015,-8e-05,-1e-05,0.00039,2
6528,6752,0.00023999999999999998,0.0001,1e-05,-0.00014,-0.00015,-8e-05,-1e-05,0.00039,2
6529,6753,0.00023999999999999998,0.0001,1e-05,-0.00014,-0.00015,-8e-05,-1e-05,0.00039,2
6530,6754,0.00023999999999999998,0.0001,1e-05,-0.00014,-0.00015,-8e-05,-1e-05,0.00039,2
6531,6755,0.00023999999999999998,0.0001,1e-05,-0.00014,-0.00015,-8e-05,-1e-05,0.00039,2
6532,6756,0.00023999999999999998,0.0001,1e-05,-0.00014,-0.00015,-8e-05,-1e-05,0.00039,2
6533,6757,0.00023999999999999998,0.0001,1e-05,-0.00014,-0.00015,-8e-05,-1e-05,0.00039,2
6534,6758,0.00023999999999999998,0.0001,1e-05,-0.00014,-0.00015,-8e-05,-1e-05,0.00039,2
6535,6759,0.00023999999999999998,0.0001,1e-05,-0.00014,-0.00015,-8e-05,-1e-05,0.00039,2
6536,6760,-0.00041,-1e-05,2e-05,-0.00013000000000000002,-0.00014,-1e-05,8e-05,0.00016,2
6537,6761,-0.00041,-1e-05,2e-05,-0.00013000000000000002,-0.00014,-1e-05,8e-05,0.00016,2
6538,6762,-0.00041,-1e-05,2e-05,-0.00013000000000000002,-0.00014,-1e-05,8e-05,0.00016,2
6539,6763,-0.00041,-1e-05,2e-05,-0.00013000000000000002,-0.00014,-1e-05,8e-05,0.00016,2
6540,6764,-0.00041,-1e-05,2e-05,-0.00013000000000000002,-0.00014,-1e-05,8e-05,0.00016,2
6541,6765,-0.00041,-1e-05,2e-05,-0.00013000000000000002,-0.00014,-1e-05,8e-05,0.00016,2
6542,6766,-0.00041,-1e-05,2e-05,-0.00013000000000000002,-0.00014,-1e-05,8e-05,0.00016,2
6543,6767,-0.00041,-1e-05,2e-05,-0.00013000000000000002,-0.00014,-1e-05,8e-05,0.00016,2
6544,6768,-0.00016999999999999999,-8e-05,-8e-05,2.9999999999999997e-05,-2e-05,-8e-05,-8e-05,-0.00022,2
6545,6769,-0.00016999999999999999,-8e-05,-8e-05,2.9999999999999997e-05,-2e-05,-8e-05,-8e-05,-0.00022,2
6546,6770,-0.00016999999999999999,-8e-05,-8e-05,2.9999999999999997e-05,-2e-05,-8e-05,-8e-05,-0.00022,2
6547,6771,-0.00016999999999999999,-8e-05,-8e-05,2.9999999999999997e-05,-2e-05,-8e-05,-8e-05,-0.00022,2
6548,6772,-0.00016999999999999999,-8e-05,-8e-05,2.9999999999999997e-05,-2e-05,-8e-05,-8e-05,-0.00022,2
6549,6773,-0.00016999999999999999,-8e-05,-8e-05,2.9999999999999997e-05,-2e-05,-8e-05,-8e-05,-0.00022,2
6550,6774,-0.00016999999999999999,-8e-05,-8e-05,2.9999999999999997e-05,-2e-05,-8e-05,-8e-05,-0.00022,2
6551,6775,-0.00016999999999999999,-8e-05,-8e-05,2.9999999999999997e-05,-2e-05,-8e-05,-8e-05,-0.00022,2
6552,6776,-0.00016999999999999999,-8e-05,-8e-05,2.9999999999999997e-05,-2e-05,-8e-05,-8e-05,-0.00022,2
6553,6777,-0.00016999999999999999,-8e-05,-8e-05,2.9999999999999997e-05,-2e-05,-8e-05,-8e-05,-0.00022,2
6554,6778,-0.00016999999999999999,-8e-05,-8e-05,2.9999999999999997e-05,-2e-05,-8e-05,-8e-05,-0.00022,2
6555,6779,-0.00016999999999999999,-8e-05,-8e-05,2.9999999999999997e-05,-2e-05,-8e-05,-8e-05,-0.00022,2
6556,6780,-0.00016999999999999999,-8e-05,-8e-05,2.9999999999999997e-05,-2e-05,-8e-05,-8e-05,-0.00022,2
6557,6781,-0.00016999999999999999,-8e-05,-8e-05,2.9999999999999997e-05,-2e-05,-8e-05,-8e-05,-0.00022,2
6558,6782,-0.00016999999999999999,-8e-05,-8e-05,2.9999999999999997e-05,-2e-05,-8e-05,-8e-05,-0.00022,2
6559,6783,0.00023999999999999998,-8e-05,9e-05,-0.00028,-0.00029,0.00016999999999999999,0.0001,0.00058,2
6560,6784,-0.0006,-2e-05,0.00015,0.00033999999999999997,9e-05,-0.00027,4e-05,0.0005,2
6561,6785,-0.0006,-2e-05,0.00015,0.00033999999999999997,9e-05,-0.00027,4e-05,0.0005,2
6562,6786,-0.0006,-2e-05,0.00015,0.00033999999999999997,9e-05,-0.00027,4e-05,0.0005,2
6563,6788,-0.0006,-2e-05,0.00015,0.00033999999999999997,9e-05,-0.00027,4e-05,0.0005,2
6564,6789,-0.0006,-2e-05,0.00015,0.00033999999999999997,9e-05,-0.00027,4e-05,0.0005,2
6565,6790,-0.0006,-2e-05,0.00015,0.00033999999999999997,9e-05,-0.00027,4e-05,0.0005,2
6566,6791,-0.0006,-2e-05,0.00015,0.00033999999999999997,9e-05,-0.00027,4e-05,0.0005,2
6567,6792,-0.0006,-2e-05,0.00015,0.00033999999999999997,9e-05,-0.00027,4e-05,0.0005,2
6568,6793,-0.0006,-2e-05,0.00015,0.00033999999999999997,9e-05,-0.00027,4e-05,0.0005,2
6569,6794,-0.0006,-2e-05,0.00015,0.00033999999999999997,9e-05,-0.00027,4e-05,0.0005,2
6570,6795,-0.0006,-2e-05,0.00015,0.00033999999999999997,9e-05,-0.00027,4e-05,0.0005,2
6571,6796,-0.0006,-2e-05,0.00015,0.00033999999999999997,9e-05,-0.00027,4e-05,0.0005,2
6572,6797,-0.0006,-2e-05,0.00015,0.00033999999999999997,9e-05,-0.00027,4e-05,0.0005,2
6573,6798,-0.0006,-2e-05,0.00015,0.00033999999999999997,9e-05,-0.00027,4e-05,0.0005,2
6574,6799,-0.0006,-2e-05,0.00015,0.00033999999999999997,9e-05,-0.00027,4e-05,0.0005,2
6575,6800,-0.0006,-2e-05,0.00015,0.00033999999999999997,9e-05,-0.00027,4e-05,0.0005,2
6576,6801,-0.0006,-2e-05,0.00015,0.00033999999999999997,9e-05,-0.00027,4e-05,0.0005,2
6577,6802,-0.0006,-2e-05,0.00015,0.00033999999999999997,9e-05,-0.00027,4e-05,0.0005,2
6578,6803,-0.0006,-2e-05,0.00015,0.00033999999999999997,9e-05,-0.00027,4e-05,0.0005,2
6579,6804,-0.0006,-2e-05,0.00015,0.00033999999999999997,9e-05,-0.00027,4e-05,0.0005,2
6580,6805,-0.0006,-2e-05,0.00015,0.00033999999999999997,9e-05,-0.00027,4e-05,0.0005,2
6581,6806,-0.0006,-2e-05,0.00015,0.00033999999999999997,9e-05,-0.00027,4e-05,0.0005,2
6582,6807,-0.0006,-2e-05,0.00015,0.00033999999999999997,9e-05,-0.00027,4e-05,0.0005,2
6583,6808,-0.0006,-2e-05,0.00015,0.00033999999999999997,9e-05,-0.00027,4e-05,0.0005,2
6584,6809,-0.0006,-2e-05,0.00015,0.00033999999999999997,9e-05,-0.00027,4e-05,0.0005,2
6585,6810,-0.0006,-2e-05,0.00015,0.00033999999999999997,9e-05,-0.00027,4e-05,0.0005,2
6586,6811,-0.0006,-2e-05,0.00015,0.00033999999999999997,9e-05,-0.00027,4e-05,0.0005,2
6587,6812,-0.0006,-2e-05,0.00015,0.00033999999999999997,9e-05,-0.00027,4e-05,0.0005,2
6588,6813,0.0003,-0.00013000000000000002,-0.00044,-0.00042,-5.9999999999999995e-05,0.00056,-0.0002,-0.00078,2
6589,6814,2.9999999999999997e-05,-0.0002,-0.00036,-0.00045,-0.00014,0.00022999999999999998,-0.00013000000000000002,-0.00033,2
6590,6815,2.9999999999999997e-05,-0.0002,-0.00036,-0.00045,-0.00014,0.00022999999999999998,-0.00013000000000000002,-0.00033,2
6591,6816,2.9999999999999997e-05,-0.0002,-0.00036,-0.00045,-0.00014,0.00022999999999999998,-0.00013000000000000002,-0.00033,2
6592,6817,2.9999999999999997e-05,-0.0002,-0.00036,-0.00045,-0.00014,0.00022999999999999998,-0.00013000000000000002,-0.00033,2
6593,6818,2.9999999999999997e-05,-0.0002,-0.00036,-0.00045,-0.00014,0.00022999999999999998,-0.00013000000000000002,-0.00033,2
6594,6819,-0.00015,0.00013000000000000002,0.00033999999999999997,5e-05,-5e-05,-2.9999999999999997e-05,0.00013000000000000002,0.00084,2
6595,6820,-2e-05,-0.00011,-1e-05,5e-05,2e-05,-2e-05,-0.00016,-0.0009,2
6596,6821,-2e-05,-0.00011,-1e-05,5e-05,2e-05,-2e-05,-0.00016,-0.0009,2
6597,6822,-2e-05,-0.00011,-1e-05,5e-05,2e-05,-2e-05,-0.00016,-0.0009,2
6598,6823,-2e-05,-0.00011,-1e-05,5e-05,2e-05,-2e-05,-0.00016,-0.0009,2
6599,6824,-2e-05,-0.00011,-1e-05,5e-05,2e-05,-2e-05,-0.00016,-0.0009,2
6600,6825,-2e-05,-0.00011,-1e-05,5e-05,2e-05,-2e-05,-0.00016,-0.0009,2
6601,6826,-2e-05,-0.00011,-1e-05,5e-05,2e-05,-2e-05,-0.00016,-0.0009,2
6602,6827,-2e-05,-0.00011,-1e-05,5e-05,2e-05,-2e-05,-0.00016,-0.0009,2
6603,6828,-4e-05,-2.9999999999999997e-05,7e-05,0.00022999999999999998,-1e-05,-9e-05,-7e-05,-0.00022999999999999998,2
6604,6829,-4e-05,-2.9999999999999997e-05,7e-05,0.00022999999999999998,-1e-05,-9e-05,-7e-05,-0.00022999999999999998,2
6605,6830,-4e-05,-2.9999999999999997e-05,7e-05,0.00022999999999999998,-1e-05,-9e-05,-7e-05,-0.00022999999999999998,2
6606,6831,-4e-05,-2.9999999999999997e-05,7e-05,0.00022999999999999998,-1e-05,-9e-05,-7e-05,-0.00022999999999999998,2
6607,6832,-4e-05,-2.9999999999999997e-05,7e-05,0.00022999999999999998,-1e-05,-9e-05,-7e-05,-0.00022999999999999998,2
6608,6833,-4e-05,-2.9999999999999997e-05,7e-05,0.00022999999999999998,-1e-05,-9e-05,-7e-05,-0.00022999999999999998,2
6609,6834,-4e-05,-2.9999999999999997e-05,7e-05,0.00022999999999999998,-1e-05,-9e-05,-7e-05,-0.00022999999999999998,2
6610,6835,-4e-05,-2.9999999999999997e-05,7e-05,0.00022999999999999998,-1e-05,-9e-05,-7e-05,-0.00022999999999999998,2
6611,6836,-4e-05,-2.9999999999999997e-05,7e-05,0.00022999999999999998,-1e-05,-9e-05,-7e-05,-0.00022999999999999998,2
6612,6838,-4e-05,-2.9999999999999997e-05,7e-05,0.00022999999999999998,-1e-05,-9e-05,-7e-05,-0.00022999999999999998,2
6613,6839,-4e-05,-2.9999999999999997e-05,7e-05,0.00022999999999999998,-1e-05,-9e-05,-7e-05,-0.00022999999999999998,2
6614,6840,-4e-05,-2.9999999999999997e-05,7e-05,0.00022999999999999998,-1e-05,-9e-05,-7e-05,-0.00022999999999999998,2
6615,6841,-4e-05,-2.9999999999999997e-05,7e-05,0.00022999999999999998,-1e-05,-9e-05,-7e-05,-0.00022999999999999998,2
6616,6842,-4e-05,-2.9999999999999997e-05,7e-05,0.00022999999999999998,-1e-05,-9e-05,-7e-05,-0.00022999999999999998,2
6617,6843,0.00032,-4e-05,-0.00064,-0.0006,-0.00026000000000000003,0.00028,2e-05,2.9999999999999997e-05,2
6618,6844,0.00013000000000000002,-5.9999999999999995e-05,-5.9999999999999995e-05,-5e-05,-0.00021,-0.00016999999999999999,-0.00011,-0.0007,2
6619,6845,0.00013000000000000002,-5.9999999999999995e-05,-5.9999999999999995e-05,-5e-05,-0.00021,-0.00016999999999999999,-0.00011,-0.0007,2
6620,6846,0.00013000000000000002,-5.9999999999999995e-05,-5.9999999999999995e-05,-5e-05,-0.00021,-0.00016999999999999999,-0.00011,-0.0007,2
6621,6847,0.00013000000000000002,-5.9999999999999995e-05,-5.9999999999999995e-05,-5e-05,-0.00021,-0.00016999999999999999,-0.00011,-0.0007,2
6622,6848,0.00013000000000000002,-5.9999999999999995e-05,-5.9999999999999995e-05,-5e-05,-0.00021,-0.00016999999999999999,-0.00011,-0.0007,2
6623,6849,0.00013000000000000002,-5.9999999999999995e-05,-5.9999999999999995e-05,-5e-05,-0.00021,-0.00016999999999999999,-0.00011,-0.0007,2
6624,6850,0.00013000000000000002,-5.9999999999999995e-05,-5.9999999999999995e-05,-5e-05,-0.00021,-0.00016999999999999999,-0.00011,-0.0007,2
6625,6851,0.00013000000000000002,-5.9999999999999995e-05,-5.9999999999999995e-05,-5e-05,-0.00021,-0.00016999999999999999,-0.00011,-0.0007,2
6626,6852,0.00013000000000000002,-5.9999999999999995e-05,-5.9999999999999995e-05,-5e-05,-0.00021,-0.00016999999999999999,-0.00011,-0.0007,2
6627,6853,0.00013000000000000002,-5.9999999999999995e-05,-5.9999999999999995e-05,-5e-05,-0.00021,-0.00016999999999999999,-0.00011,-0.0007,2
6628,6854,0.00013000000000000002,-5.9999999999999995e-05,-5.9999999999999995e-05,-5e-05,-0.00021,-0.00016999999999999999,-0.00011,-0.0007,2
6629,6855,0.00013000000000000002,-5.9999999999999995e-05,-5.9999999999999995e-05,-5e-05,-0.00021,-0.00016999999999999999,-0.00011,-0.0007,2
6630,6856,0.00013000000000000002,-5.9999999999999995e-05,-5.9999999999999995e-05,-5e-05,-0.00021,-0.00016999999999999999,-0.00011,-0.0007,2
6631,6857,0.00013000000000000002,-5.9999999999999995e-05,-5.9999999999999995e-05,-5e-05,-0.00021,-0.00016999999999999999,-0.00011,-0.0007,2
6632,6858,0.00013000000000000002,-5.9999999999999995e-05,-5.9999999999999995e-05,-5e-05,-0.00021,-0.00016999999999999999,-0.00011,-0.0007,2
6633,6859,0.00013000000000000002,-5.9999999999999995e-05,-5.9999999999999995e-05,-5e-05,-0.00021,-0.00016999999999999999,-0.00011,-0.0007,2
6634,6860,0.00013000000000000002,-5.9999999999999995e-05,-5.9999999999999995e-05,-5e-05,-0.00021,-0.00016999999999999999,-0.00011,-0.0007,2
6635,6861,0.00013000000000000002,-5.9999999999999995e-05,-5.9999999999999995e-05,-5e-05,-0.00021,-0.00016999999999999999,-0.00011,-0.0007,2
6636,6862,0.00013000000000000002,-5.9999999999999995e-05,-5.9999999999999995e-05,-5e-05,-0.00021,-0.00016999999999999999,-0.00011,-0.0007,2
6637,6863,0.00013000000000000002,-5.9999999999999995e-05,-5.9999999999999995e-05,-5e-05,-0.00021,-0.00016999999999999999,-0.00011,-0.0007,2
6638,6864,0.00013000000000000002,-5.9999999999999995e-05,-5.9999999999999995e-05,-5e-05,-0.00021,-0.00016999999999999999,-0.00011,-0.0007,2
6639,6865,0.00013000000000000002,-5.9999999999999995e-05,-5.9999999999999995e-05,-5e-05,-0.00021,-0.00016999999999999999,-0.00011,-0.0007,2
6640,6866,0.00013000000000000002,-5.9999999999999995e-05,-5.9999999999999995e-05,-5e-05,-0.00021,-0.00016999999999999999,-0.00011,-0.0007,2
6641,6867,0.00013000000000000002,-5.9999999999999995e-05,-5.9999999999999995e-05,-5e-05,-0.00021,-0.00016999999999999999,-0.00011,-0.0007,2
6642,6868,0.00013000000000000002,-5.9999999999999995e-05,-5.9999999999999995e-05,-5e-05,-0.00021,-0.00016999999999999999,-0.00011,-0.0007,2
6643,6869,0.00013000000000000002,-5.9999999999999995e-05,-5.9999999999999995e-05,-5e-05,-0.00021,-0.00016999999999999999,-0.00011,-0.0007,2
6644,6870,0.00013000000000000002,-5.9999999999999995e-05,-5.9999999999999995e-05,-5e-05,-0.00021,-0.00016999999999999999,-0.00011,-0.0007,2
6645,6871,0.00013000000000000002,-5.9999999999999995e-05,-5.9999999999999995e-05,-5e-05,-0.00021,-0.00016999999999999999,-0.00011,-0.0007,2
6646,6872,-2.9999999999999997e-05,-9e-05,1e-05,9e-05,-9e-05,1e-05,5e-05,0.00016999999999999999,2
6647,6873,-2.9999999999999997e-05,-9e-05,1e-05,9e-05,-9e-05,1e-05,5e-05,0.00016999999999999999,2
6648,6874,-2.9999999999999997e-05,-9e-05,1e-05,9e-05,-9e-05,1e-05,5e-05,0.00016999999999999999,2
6649,6875,-2.9999999999999997e-05,-9e-05,1e-05,9e-05,-9e-05,1e-05,5e-05,0.00016999999999999999,2
6650,6876,-2.9999999999999997e-05,-9e-05,1e-05,9e-05,-9e-05,1e-05,5e-05,0.00016999999999999999,2
6651,6877,-2.9999999999999997e-05,-9e-05,1e-05,9e-05,-9e-05,1e-05,5e-05,0.00016999999999999999,2
6652,6878,-2.9999999999999997e-05,-9e-05,1e-05,9e-05,-9e-05,1e-05,5e-05,0.00016999999999999999,2
6653,6879,-2.9999999999999997e-05,-9e-05,1e-05,9e-05,-9e-05,1e-05,5e-05,0.00016999999999999999,2
6654,6880,-2.9999999999999997e-05,-9e-05,1e-05,9e-05,-9e-05,1e-05,5e-05,0.00016999999999999999,2
6655,6881,0.0,0.00011999999999999999,0.00013000000000000002,0.0,7e-05,2.9999999999999997e-05,5e-05,-9e-05,2
6656,6882,0.0,0.00011999999999999999,0.00013000000000000002,0.0,7e-05,2.9999999999999997e-05,5e-05,-9e-05,2
6657,6883,0.00028,1e-05,9e-05,4e-05,0.00021,-0.00021,-0.00016999999999999999,-0.00109,2
6658,6884,0.00028,1e-05,9e-05,4e-05,0.00021,-0.00021,-0.00016999999999999999,-0.00109,2
6659,6885,0.00028,1e-05,9e-05,4e-05,0.00021,-0.00021,-0.00016999999999999999,-0.00109,2
6660,6886,0.00028,1e-05,9e-05,4e-05,0.00021,-0.00021,-0.00016999999999999999,-0.00109,2
6661,6888,0.00028,1e-05,9e-05,4e-05,0.00021,-0.00021,-0.00016999999999999999,-0.00109,2
6662,6889,0.00028,1e-05,9e-05,4e-05,0.00021,-0.00021,-0.00016999999999999999,-0.00109,2
6663,6890,0.00028,1e-05,9e-05,4e-05,0.00021,-0.00021,-0.00016999999999999999,-0.00109,2
6664,6891,0.00028,1e-05,9e-05,4e-05,0.00021,-0.00021,-0.00016999999999999999,-0.00109,2
6665,6892,0.00028,1e-05,9e-05,4e-05,0.00021,-0.00021,-0.00016999999999999999,-0.00109,2
6666,6893,0.00028,1e-05,9e-05,4e-05,0.00021,-0.00021,-0.00016999999999999999,-0.00109,2
6667,6894,0.00028,1e-05,9e-05,4e-05,0.00021,-0.00021,-0.00016999999999999999,-0.00109,2
6668,6895,0.00021,-2e-05,-0.00011,-7e-05,-2.9999999999999997e-05,-1e-05,4e-05,-0.00016,2
6669,6896,0.00021,-2e-05,-0.00011,-7e-05,-2.9999999999999997e-05,-1e-05,4e-05,-0.00016,2
6670,6897,0.00021,-2e-05,-0.00011,-7e-05,-2.9999999999999997e-05,-1e-05,4e-05,-0.00016,2
6671,6898,0.00021,-2e-05,-0.00011,-7e-05,-2.9999999999999997e-05,-1e-05,4e-05,-0.00016,2
6672,6899,0.00021,-2e-05,-0.00011,-7e-05,-2.9999999999999997e-05,-1e-05,4e-05,-0.00016,2
6673,6900,0.00021,-2e-05,-0.00011,-7e-05,-2.9999999999999997e-05,-1e-05,4e-05,-0.00016,2
6674,6901,0.00021,-2e-05,-0.00011,-7e-05,-2.9999999999999997e-05,-1e-05,4e-05,-0.00016,2
6675,6902,0.00021,-2e-05,-0.00011,-7e-05,-2.9999999999999997e-05,-1e-05,4e-05,-0.00016,2
6676,6903,0.00082,0.00022999999999999998,0.00033999999999999997,-0.00014,2e-05,1e-05,-0.00021,-0.00044,2
6677,6904,-0.00037999999999999997,-0.0003,-0.00045,-0.00018999999999999998,-0.00018,0.0002,-2.9999999999999997e-05,0.0005,2
6678,6905,0.0,2.9999999999999997e-05,7e-05,8e-05,0.00013000000000000002,-7e-05,5.9999999999999995e-05,0.00066,2
6679,6906,0.0,2.9999999999999997e-05,7e-05,8e-05,0.00013000000000000002,-7e-05,5.9999999999999995e-05,0.00066,2
6680,6907,0.0,2.9999999999999997e-05,7e-05,8e-05,0.00013000000000000002,-7e-05,5.9999999999999995e-05,0.00066,2
6681,6908,0.0,2.9999999999999997e-05,7e-05,8e-05,0.00013000000000000002,-7e-05,5.9999999999999995e-05,0.00066,2
6682,6909,0.0,2.9999999999999997e-05,7e-05,8e-05,0.00013000000000000002,-7e-05,5.9999999999999995e-05,0.00066,2
6683,6910,0.0,2.9999999999999997e-05,7e-05,8e-05,0.00013000000000000002,-7e-05,5.9999999999999995e-05,0.00066,2
6684,6911,0.0,2.9999999999999997e-05,7e-05,8e-05,0.00013000000000000002,-7e-05,5.9999999999999995e-05,0.00066,2
6685,6912,0.0,2.9999999999999997e-05,7e-05,8e-05,0.00013000000000000002,-7e-05,5.9999999999999995e-05,0.00066,2
6686,6913,0.0,2.9999999999999997e-05,7e-05,8e-05,0.00013000000000000002,-7e-05,5.9999999999999995e-05,0.00066,2
6687,6914,0.0,2.9999999999999997e-05,7e-05,8e-05,0.00013000000000000002,-7e-05,5.9999999999999995e-05,0.00066,2
6688,6915,0.0,2.9999999999999997e-05,7e-05,8e-05,0.00013000000000000002,-7e-05,5.9999999999999995e-05,0.00066,2
6689,6916,0.0,2.9999999999999997e-05,7e-05,8e-05,0.00013000000000000002,-7e-05,5.9999999999999995e-05,0.00066,2
6690,6917,0.0,2.9999999999999997e-05,7e-05,8e-05,0.00013000000000000002,-7e-05,5.9999999999999995e-05,0.00066,2
6691,6918,0.0,2.9999999999999997e-05,7e-05,8e-05,0.00013000000000000002,-7e-05,5.9999999999999995e-05,0.00066,2
6692,6919,0.0,2.9999999999999997e-05,7e-05,8e-05,0.00013000000000000002,-7e-05,5.9999999999999995e-05,0.00066,2
6693,6920,0.0,2.9999999999999997e-05,7e-05,8e-05,0.00013000000000000002,-7e-05,5.9999999999999995e-05,0.00066,2
6694,6921,0.0,2.9999999999999997e-05,7e-05,8e-05,0.00013000000000000002,-7e-05,5.9999999999999995e-05,0.00066,2
6695,6922,0.0,2.9999999999999997e-05,7e-05,8e-05,0.00013000000000000002,-7e-05,5.9999999999999995e-05,0.00066,2
6696,6923,0.0,2.9999999999999997e-05,7e-05,8e-05,0.00013000000000000002,-7e-05,5.9999999999999995e-05,0.00066,2
6697,6924,0.0,2.9999999999999997e-05,7e-05,8e-05,0.00013000000000000002,-7e-05,5.9999999999999995e-05,0.00066,2
6698,6925,0.0,2.9999999999999997e-05,7e-05,8e-05,0.00013000000000000002,-7e-05,5.9999999999999995e-05,0.00066,2
6699,6926,1e-05,9e-05,2e-05,0.00018999999999999998,-0.00028,1e-05,1e-05,-0.0012,2
6700,6927,2.9999999999999997e-05,-2e-05,-5e-05,-8e-05,-1e-05,-0.00013000000000000002,-0.0001,0.00028,2
6701,6928,2.9999999999999997e-05,-2e-05,-5e-05,-8e-05,-1e-05,-0.00013000000000000002,-0.0001,0.00028,2
6702,6929,2.9999999999999997e-05,-2e-05,-5e-05,-8e-05,-1e-05,-0.00013000000000000002,-0.0001,0.00028,2
6703,6930,2.9999999999999997e-05,-2e-05,-5e-05,-8e-05,-1e-05,-0.00013000000000000002,-0.0001,0.00028,2
6704,6931,2.9999999999999997e-05,-2e-05,-5e-05,-8e-05,-1e-05,-0.00013000000000000002,-0.0001,0.00028,2
6705,6932,2.9999999999999997e-05,-2e-05,-5e-05,-8e-05,-1e-05,-0.00013000000000000002,-0.0001,0.00028,2
6706,6933,2.9999999999999997e-05,-2e-05,-5e-05,-8e-05,-1e-05,-0.00013000000000000002,-0.0001,0.00028,2
6707,6934,2.9999999999999997e-05,-2e-05,-5e-05,-8e-05,-1e-05,-0.00013000000000000002,-0.0001,0.00028,2
6708,6935,2.9999999999999997e-05,-2e-05,-5e-05,-8e-05,-1e-05,-0.00013000000000000002,-0.0001,0.00028,2
6709,6936,2.9999999999999997e-05,-2e-05,-5e-05,-8e-05,-1e-05,-0.00013000000000000002,-0.0001,0.00028,2
6710,6939,2.9999999999999997e-05,-2e-05,-5e-05,-8e-05,-1e-05,-0.00013000000000000002,-0.0001,0.00028,2
6711,6940,-9e-05,0.00014,0.00021,0.00025,-0.00015,-0.0002,0.0,0.00018,2
6712,6941,-9e-05,0.00014,0.00021,0.00025,-0.00015,-0.0002,0.0,0.00018,2
6713,6942,-9e-05,0.00014,0.00021,0.00025,-0.00015,-0.0002,0.0,0.00018,2
6714,6943,-9e-05,0.00014,0.00021,0.00025,-0.00015,-0.0002,0.0,0.00018,2
6715,6944,-9e-05,0.00014,0.00021,0.00025,-0.00015,-0.0002,0.0,0.00018,2
6716,6945,-9e-05,0.00014,0.00021,0.00025,-0.00015,-0.0002,0.0,0.00018,2
6717,6946,-9e-05,0.00014,0.00021,0.00025,-0.00015,-0.0002,0.0,0.00018,2
6718,6947,-9e-05,0.00014,0.00021,0.00025,-0.00015,-0.0002,0.0,0.00018,2
6719,6948,-9e-05,0.00014,0.00021,0.00025,-0.00015,-0.0002,0.0,0.00018,2
6720,6949,-9e-05,0.00014,0.00021,0.00025,-0.00015,-0.0002,0.0,0.00018,2
6721,6950,-9e-05,0.00014,0.00021,0.00025,-0.00015,-0.0002,0.0,0.00018,2
6722,6951,-9e-05,0.00014,0.00021,0.00025,-0.00015,-0.0002,0.0,0.00018,2
6723,6952,-9e-05,0.00014,0.00021,0.00025,-0.00015,-0.0002,0.0,0.00018,2
6724,6953,-9e-05,0.00014,0.00021,0.00025,-0.00015,-0.0002,0.0,0.00018,2
6725,6954,-9e-05,0.00014,0.00021,0.00025,-0.00015,-0.0002,0.0,0.00018,2
6726,6955,-0.0004,-7e-05,-5.9999999999999995e-05,-0.00014,0.00013000000000000002,0.00029,5e-05,-0.0004,2
6727,6956,-0.0004,-7e-05,-5.9999999999999995e-05,-0.00014,0.00013000000000000002,0.00029,5e-05,-0.0004,2
6728,6957,-0.0004,-7e-05,-5.9999999999999995e-05,-0.00014,0.00013000000000000002,0.00029,5e-05,-0.0004,2
6729,6958,-0.0004,-7e-05,-5.9999999999999995e-05,-0.00014,0.00013000000000000002,0.00029,5e-05,-0.0004,2
6730,6959,-0.0004,-7e-05,-5.9999999999999995e-05,-0.00014,0.00013000000000000002,0.00029,5e-05,-0.0004,2
6731,6960,-0.0004,-7e-05,-5.9999999999999995e-05,-0.00014,0.00013000000000000002,0.00029,5e-05,-0.0004,2
6732,6961,-0.0004,-7e-05,-5.9999999999999995e-05,-0.00014,0.00013000000000000002,0.00029,5e-05,-0.0004,2
6733,6962,-0.0004,-7e-05,-5.9999999999999995e-05,-0.00014,0.00013000000000000002,0.00029,5e-05,-0.0004,2
6734,6963,-0.00027,-7e-05,5e-05,-0.00022,0.00014,5.9999999999999995e-05,0.00013000000000000002,0.00032,2
6735,6964,0.00011,0.0,-0.00032,0.00011999999999999999,9e-05,-5.9999999999999995e-05,0.00023999999999999998,0.00073,2
6736,6965,0.00011,0.0,-0.00032,0.00011999999999999999,9e-05,-5.9999999999999995e-05,0.00023999999999999998,0.00073,2
6737,6966,0.00011,0.0,-0.00032,0.00011999999999999999,9e-05,-5.9999999999999995e-05,0.00023999999999999998,0.00073,2
6738,6967,0.00011,0.0,-0.00032,0.00011999999999999999,9e-05,-5.9999999999999995e-05,0.00023999999999999998,0.00073,2
6739,6968,0.00011,0.0,-0.00032,0.00011999999999999999,9e-05,-5.9999999999999995e-05,0.00023999999999999998,0.00073,2
6740,6969,0.00011,0.0,-0.00032,0.00011999999999999999,9e-05,-5.9999999999999995e-05,0.00023999999999999998,0.00073,2
6741,6970,0.00011,0.0,-0.00032,0.00011999999999999999,9e-05,-5.9999999999999995e-05,0.00023999999999999998,0.00073,2
6742,6971,0.00011,0.0,-0.00032,0.00011999999999999999,9e-05,-5.9999999999999995e-05,0.00023999999999999998,0.00073,2
6743,6972,0.00011,0.0,-0.00032,0.00011999999999999999,9e-05,-5.9999999999999995e-05,0.00023999999999999998,0.00073,2
6744,6973,0.00011,0.0,-0.00032,0.00011999999999999999,9e-05,-5.9999999999999995e-05,0.00023999999999999998,0.00073,2
6745,6974,0.00011,0.0,-0.00032,0.00011999999999999999,9e-05,-5.9999999999999995e-05,0.00023999999999999998,0.00073,2
6746,6975,0.00011,0.0,-0.00032,0.00011999999999999999,9e-05,-5.9999999999999995e-05,0.00023999999999999998,0.00073,2
6747,6976,0.00011,0.0,-0.00032,0.00011999999999999999,9e-05,-5.9999999999999995e-05,0.00023999999999999998,0.00073,2
6748,6977,0.00011,0.0,-0.00032,0.00011999999999999999,9e-05,-5.9999999999999995e-05,0.00023999999999999998,0.00073,2
6749,6978,0.00011,0.0,-0.00032,0.00011999999999999999,9e-05,-5.9999999999999995e-05,0.00023999999999999998,0.00073,2
6750,6979,0.00011,0.0,-0.00032,0.00011999999999999999,9e-05,-5.9999999999999995e-05,0.00023999999999999998,0.00073,2
6751,6980,0.00011,0.0,-0.00032,0.00011999999999999999,9e-05,-5.9999999999999995e-05,0.00023999999999999998,0.00073,2
6752,6981,0.00011,0.0,-0.00032,0.00011999999999999999,9e-05,-5.9999999999999995e-05,0.00023999999999999998,0.00073,2
6753,6982,0.00011,0.0,-0.00032,0.00011999999999999999,9e-05,-5.9999999999999995e-05,0.00023999999999999998,0.00073,2
6754,6983,0.00011,0.0,-0.00032,0.00011999999999999999,9e-05,-5.9999999999999995e-05,0.00023999999999999998,0.00073,2
6755,6984,0.00011,0.0,-0.00032,0.00011999999999999999,9e-05,-5.9999999999999995e-05,0.00023999999999999998,0.00073,2
6756,6985,0.00011,0.0,-0.00032,0.00011999999999999999,9e-05,-5.9999999999999995e-05,0.00023999999999999998,0.00073,2
6757,6986,-5e-05,1e-05,0.0001,4e-05,-2e-05,5e-05,0.00011999999999999999,0.00091,2
6758,6989,-0.00014,2e-05,0.00015,-2.9999999999999997e-05,0.00018999999999999998,0.0003,-5e-05,-0.00093,2
6759,6990,-0.00014,2e-05,0.00015,-2.9999999999999997e-05,0.00018999999999999998,0.0003,-5e-05,-0.00093,2
6760,6991,-0.00014,2e-05,0.00015,-2.9999999999999997e-05,0.00018999999999999998,0.0003,-5e-05,-0.00093,2
6761,6992,-0.00014,2e-05,0.00015,-2.9999999999999997e-05,0.00018999999999999998,0.0003,-5e-05,-0.00093,2
6762,6993,-0.00014,2e-05,0.00015,-2.9999999999999997e-05,0.00018999999999999998,0.0003,-5e-05,-0.00093,2
6763,6994,-0.00014,2e-05,0.00015,-2.9999999999999997e-05,0.00018999999999999998,0.0003,-5e-05,-0.00093,2
6764,6995,-0.00014,2e-05,0.00015,-2.9999999999999997e-05,0.00018999999999999998,0.0003,-5e-05,-0.00093,2
6765,6996,-0.00014,2e-05,0.00015,-2.9999999999999997e-05,0.00018999999999999998,0.0003,-5e-05,-0.00093,2
6766,6997,-0.00014,2e-05,0.00015,-2.9999999999999997e-05,0.00018999999999999998,0.0003,-5e-05,-0.00093,2
6767,6998,-0.00014,2e-05,0.00015,-2.9999999999999997e-05,0.00018999999999999998,0.0003,-5e-05,-0.00093,2
6768,6999,-0.00014,2e-05,0.00015,-2.9999999999999997e-05,0.00018999999999999998,0.0003,-5e-05,-0.00093,2
6769,7000,-0.00014,2e-05,0.00015,-2.9999999999999997e-05,0.00018999999999999998,0.0003,-5e-05,-0.00093,2
6770,7001,-0.00014,2e-05,0.00015,-2.9999999999999997e-05,0.00018999999999999998,0.0003,-5e-05,-0.00093,2
6771,7002,-0.00014,2e-05,0.00015,-2.9999999999999997e-05,0.00018999999999999998,0.0003,-5e-05,-0.00093,2
6772,7003,-0.00014,2e-05,0.00015,-2.9999999999999997e-05,0.00018999999999999998,0.0003,-5e-05,-0.00093,2
6773,7004,-0.00014,2e-05,0.00015,-2.9999999999999997e-05,0.00018999999999999998,0.0003,-5e-05,-0.00093,2
6774,7005,-0.00014,2e-05,0.00015,-2.9999999999999997e-05,0.00018999999999999998,0.0003,-5e-05,-0.00093,2
6775,7006,-0.00014,2e-05,0.00015,-2.9999999999999997e-05,0.00018999999999999998,0.0003,-5e-05,-0.00093,2
6776,7007,-0.00014,2e-05,0.00015,-2.9999999999999997e-05,0.00018999999999999998,0.0003,-5e-05,-0.00093,2
6777,7008,-0.00014,2e-05,0.00015,-2.9999999999999997e-05,0.00018999999999999998,0.0003,-5e-05,-0.00093,2
6778,7009,-0.00014,-0.00016999999999999999,-0.00022999999999999998,-9e-05,0.00016,0.00022999999999999998,-2.9999999999999997e-05,-0.00016999999999999999,2
6779,7010,1e-05,-0.00016999999999999999,-5.9999999999999995e-05,-0.00014,9e-05,0.00026000000000000003,0.00011,0.00013000000000000002,2
6780,7011,1e-05,-0.00016999999999999999,-5.9999999999999995e-05,-0.00014,9e-05,0.00026000000000000003,0.00011,0.00013000000000000002,2
6781,7012,1e-05,-0.00016999999999999999,-5.9999999999999995e-05,-0.00014,9e-05,0.00026000000000000003,0.00011,0.00013000000000000002,2
6782,7013,1e-05,-0.00016999999999999999,-5.9999999999999995e-05,-0.00014,9e-05,0.00026000000000000003,0.00011,0.00013000000000000002,2
6783,7014,1e-05,-0.00016999999999999999,-5.9999999999999995e-05,-0.00014,9e-05,0.00026000000000000003,0.00011,0.00013000000000000002,2
6784,7015,1e-05,-0.00016999999999999999,-5.9999999999999995e-05,-0.00014,9e-05,0.00026000000000000003,0.00011,0.00013000000000000002,2
6785,7016,1e-05,-0.00016999999999999999,-5.9999999999999995e-05,-0.00014,9e-05,0.00026000000000000003,0.00011,0.00013000000000000002,2
6786,7017,1e-05,-0.00016999999999999999,-5.9999999999999995e-05,-0.00014,9e-05,0.00026000000000000003,0.00011,0.00013000000000000002,2
6787,7018,1e-05,-0.00016999999999999999,-5.9999999999999995e-05,-0.00014,9e-05,0.00026000000000000003,0.00011,0.00013000000000000002,2
6788,7019,1e-05,-0.00016999999999999999,-5.9999999999999995e-05,-0.00014,9e-05,0.00026000000000000003,0.00011,0.00013000000000000002,2
6789,7020,1e-05,-0.00016999999999999999,-5.9999999999999995e-05,-0.00014,9e-05,0.00026000000000000003,0.00011,0.00013000000000000002,2
6790,7021,1e-05,-0.00016999999999999999,-5.9999999999999995e-05,-0.00014,9e-05,0.00026000000000000003,0.00011,0.00013000000000000002,2
6791,7022,1e-05,-0.00016999999999999999,-5.9999999999999995e-05,-0.00014,9e-05,0.00026000000000000003,0.00011,0.00013000000000000002,2
6792,7023,7e-05,5.9999999999999995e-05,0.00023999999999999998,-1e-05,0.00016999999999999999,0.00063,0.00011,-0.00021,2
6793,7024,-0.00014,1e-05,-0.00014,-2.9999999999999997e-05,-0.00011999999999999999,-0.00011,5.9999999999999995e-05,-0.00016,2
6794,7025,-0.00014,1e-05,-0.00014,-2.9999999999999997e-05,-0.00011999999999999999,-0.00011,5.9999999999999995e-05,-0.00016,2
6795,7026,-0.00014,1e-05,-0.00014,-2.9999999999999997e-05,-0.00011999999999999999,-0.00011,5.9999999999999995e-05,-0.00016,2
6796,7027,-0.00014,1e-05,-0.00014,-2.9999999999999997e-05,-0.00011999999999999999,-0.00011,5.9999999999999995e-05,-0.00016,2
6797,7028,-0.00014,1e-05,-0.00014,-2.9999999999999997e-05,-0.00011999999999999999,-0.00011,5.9999999999999995e-05,-0.00016,2
6798,7029,-0.00014,1e-05,-0.00014,-2.9999999999999997e-05,-0.00011999999999999999,-0.00011,5.9999999999999995e-05,-0.00016,2
6799,7030,-0.00014,1e-05,-0.00014,-2.9999999999999997e-05,-0.00011999999999999999,-0.00011,5.9999999999999995e-05,-0.00016,2
6800,7031,-0.00014,1e-05,-0.00014,-2.9999999999999997e-05,-0.00011999999999999999,-0.00011,5.9999999999999995e-05,-0.00016,2
6801,7032,-0.00014,1e-05,-0.00014,-2.9999999999999997e-05,-0.00011999999999999999,-0.00011,5.9999999999999995e-05,-0.00016,2
6802,7033,-0.00014,1e-05,-0.00014,-2.9999999999999997e-05,-0.00011999999999999999,-0.00011,5.9999999999999995e-05,-0.00016,2
6803,7034,-0.00014,1e-05,-0.00014,-2.9999999999999997e-05,-0.00011999999999999999,-0.00011,5.9999999999999995e-05,-0.00016,2
6804,7035,-0.00014,1e-05,-0.00014,-2.9999999999999997e-05,-0.00011999999999999999,-0.00011,5.9999999999999995e-05,-0.00016,2
6805,7036,-0.00014,1e-05,-0.00014,-2.9999999999999997e-05,-0.00011999999999999999,-0.00011,5.9999999999999995e-05,-0.00016,2
6806,7039,-0.00014,1e-05,-0.00014,-2.9999999999999997e-05,-0.00011999999999999999,-0.00011,5.9999999999999995e-05,-0.00016,2
6807,7040,-0.00014,1e-05,-0.00014,-2.9999999999999997e-05,-0.00011999999999999999,-0.00011,5.9999999999999995e-05,-0.00016,2
6808,7041,-0.00014,1e-05,-0.00014,-2.9999999999999997e-05,-0.00011999999999999999,-0.00011,5.9999999999999995e-05,-0.00016,2
6809,7042,-0.00014,1e-05,-0.00014,-2.9999999999999997e-05,-0.00011999999999999999,-0.00011,5.9999999999999995e-05,-0.00016,2
6810,7043,-0.00014,1e-05,-0.00014,-2.9999999999999997e-05,-0.00011999999999999999,-0.00011,5.9999999999999995e-05,-0.00016,2
6811,7044,-0.00014,1e-05,-0.00014,-2.9999999999999997e-05,-0.00011999999999999999,-0.00011,5.9999999999999995e-05,-0.00016,2
6812,7045,-0.00014,1e-05,-0.00014,-2.9999999999999997e-05,-0.00011999999999999999,-0.00011,5.9999999999999995e-05,-0.00016,2
6813,7046,-9e-05,-2.9999999999999997e-05,-2e-05,-0.0002,-9e-05,-5e-05,5.9999999999999995e-05,0.00115,2
6814,7047,2.9999999999999997e-05,2.9999999999999997e-05,-0.00016,-0.00013000000000000002,-0.0002,9e-05,-1e-05,0.00053,2
6815,7048,2.9999999999999997e-05,2.9999999999999997e-05,-0.00016,-0.00013000000000000002,-0.0002,9e-05,-1e-05,0.00053,2
6816,7049,2.9999999999999997e-05,2.9999999999999997e-05,-0.00016,-0.00013000000000000002,-0.0002,9e-05,-1e-05,0.00053,2
6817,7050,2.9999999999999997e-05,2.9999999999999997e-05,-0.00016,-0.00013000000000000002,-0.0002,9e-05,-1e-05,0.00053,2
6818,7051,2.9999999999999997e-05,2.9999999999999997e-05,-0.00016,-0.00013000000000000002,-0.0002,9e-05,-1e-05,0.00053,2
6819,7052,2.9999999999999997e-05,2.9999999999999997e-05,-0.00016,-0.00013000000000000002,-0.0002,9e-05,-1e-05,0.00053,2
6820,7053,2.9999999999999997e-05,2.9999999999999997e-05,-0.00016,-0.00013000000000000002,-0.0002,9e-05,-1e-05,0.00053,2
6821,7054,2.9999999999999997e-05,2.9999999999999997e-05,-0.00016,-0.00013000000000000002,-0.0002,9e-05,-1e-05,0.00053,2
6822,7055,2.9999999999999997e-05,2.9999999999999997e-05,-0.00016,-0.00013000000000000002,-0.0002,9e-05,-1e-05,0.00053,2
6823,7056,2.9999999999999997e-05,2.9999999999999997e-05,-0.00016,-0.00013000000000000002,-0.0002,9e-05,-1e-05,0.00053,2
6824,7057,2.9999999999999997e-05,2.9999999999999997e-05,-0.00016,-0.00013000000000000002,-0.0002,9e-05,-1e-05,0.00053,2
6825,7058,2.9999999999999997e-05,2.9999999999999997e-05,-0.00016,-0.00013000000000000002,-0.0002,9e-05,-1e-05,0.00053,2
6826,7059,2.9999999999999997e-05,2.9999999999999997e-05,-0.00016,-0.00013000000000000002,-0.0002,9e-05,-1e-05,0.00053,2
6827,7060,2.9999999999999997e-05,2.9999999999999997e-05,-0.00016,-0.00013000000000000002,-0.0002,9e-05,-1e-05,0.00053,2
6828,7061,2.9999999999999997e-05,2.9999999999999997e-05,-0.00016,-0.00013000000000000002,-0.0002,9e-05,-1e-05,0.00053,2
6829,7062,2.9999999999999997e-05,2.9999999999999997e-05,-0.00016,-0.00013000000000000002,-0.0002,9e-05,-1e-05,0.00053,2
6830,7063,2.9999999999999997e-05,2.9999999999999997e-05,-0.00016,-0.00013000000000000002,-0.0002,9e-05,-1e-05,0.00053,2
6831,7064,2.9999999999999997e-05,2.9999999999999997e-05,-0.00016,-0.00013000000000000002,-0.0002,9e-05,-1e-05,0.00053,2
6832,7065,2.9999999999999997e-05,2.9999999999999997e-05,-0.00016,-0.00013000000000000002,-0.0002,9e-05,-1e-05,0.00053,2
6833,7066,2.9999999999999997e-05,2.9999999999999997e-05,-0.00016,-0.00013000000000000002,-0.0002,9e-05,-1e-05,0.00053,2
6834,7067,2.9999999999999997e-05,2.9999999999999997e-05,-0.00016,-0.00013000000000000002,-0.0002,9e-05,-1e-05,0.00053,2
6835,7068,2.9999999999999997e-05,2.9999999999999997e-05,-0.00016,-0.00013000000000000002,-0.0002,9e-05,-1e-05,0.00053,2
6836,7069,-4e-05,4e-05,7e-05,-4e-05,5e-05,0.00026000000000000003,-2.9999999999999997e-05,-0.0002,2
6837,7070,-4e-05,4e-05,7e-05,-4e-05,5e-05,0.00026000000000000003,-2.9999999999999997e-05,-0.0002,2
6838,7071,-4e-05,4e-05,7e-05,-4e-05,5e-05,0.00026000000000000003,-2.9999999999999997e-05,-0.0002,2
6839,7072,-4e-05,4e-05,7e-05,-4e-05,5e-05,0.00026000000000000003,-2.9999999999999997e-05,-0.0002,2
6840,7073,-4e-05,4e-05,7e-05,-4e-05,5e-05,0.00026000000000000003,-2.9999999999999997e-05,-0.0002,2
6841,7074,-4e-05,4e-05,7e-05,-4e-05,5e-05,0.00026000000000000003,-2.9999999999999997e-05,-0.0002,2
6842,7075,-4e-05,4e-05,7e-05,-4e-05,5e-05,0.00026000000000000003,-2.9999999999999997e-05,-0.0002,2
6843,7076,-4e-05,4e-05,7e-05,-4e-05,5e-05,0.00026000000000000003,-2.9999999999999997e-05,-0.0002,2
6844,7077,-4e-05,4e-05,7e-05,-4e-05,5e-05,0.00026000000000000003,-2.9999999999999997e-05,-0.0002,2
6845,7078,-4e-05,4e-05,7e-05,-4e-05,5e-05,0.00026000000000000003,-2.9999999999999997e-05,-0.0002,2
6846,7079,-4e-05,4e-05,7e-05,-4e-05,5e-05,0.00026000000000000003,-2.9999999999999997e-05,-0.0002,2
6847,7080,-4e-05,4e-05,7e-05,-4e-05,5e-05,0.00026000000000000003,-2.9999999999999997e-05,-0.0002,2
6848,7081,-4e-05,4e-05,7e-05,-4e-05,5e-05,0.00026000000000000003,-2.9999999999999997e-05,-0.0002,2
6849,7082,-4e-05,4e-05,7e-05,-4e-05,5e-05,0.00026000000000000003,-2.9999999999999997e-05,-0.0002,2
6850,7083,-4e-05,4e-05,7e-05,-4e-05,5e-05,0.00026000000000000003,-2.9999999999999997e-05,-0.0002,2
6851,7084,-4e-05,4e-05,7e-05,-4e-05,5e-05,0.00026000000000000003,-2.9999999999999997e-05,-0.0002,2
6852,7085,-4e-05,4e-05,7e-05,-4e-05,5e-05,0.00026000000000000003,-2.9999999999999997e-05,-0.0002,2
6853,7086,-4e-05,4e-05,7e-05,-4e-05,5e-05,0.00026000000000000003,-2.9999999999999997e-05,-0.0002,2
6854,7088,-4e-05,4e-05,7e-05,-4e-05,5e-05,0.00026000000000000003,-2.9999999999999997e-05,-0.0002,2
6855,7089,-4e-05,4e-05,7e-05,-4e-05,5e-05,0.00026000000000000003,-2.9999999999999997e-05,-0.0002,2
6856,7090,-4e-05,4e-05,7e-05,-4e-05,5e-05,0.00026000000000000003,-2.9999999999999997e-05,-0.0002,2
6857,7091,-0.00037,-8e-05,-0.00011999999999999999,-0.0001,0.00014,-0.00041,-8e-05,-0.00033999999999999997,2
6858,7092,-0.00013000000000000002,1e-05,9e-05,0.00016,0.00023999999999999998,-0.00022,-0.00016,-0.00125,2
6859,7093,-0.00013000000000000002,1e-05,9e-05,0.00016,0.00023999999999999998,-0.00022,-0.00016,-0.00125,2
6860,7094,-0.00013000000000000002,1e-05,9e-05,0.00016,0.00023999999999999998,-0.00022,-0.00016,-0.00125,2
6861,7095,-0.00013000000000000002,1e-05,9e-05,0.00016,0.00023999999999999998,-0.00022,-0.00016,-0.00125,2
6862,7096,-0.00013000000000000002,1e-05,9e-05,0.00016,0.00023999999999999998,-0.00022,-0.00016,-0.00125,2
6863,7097,-0.00013000000000000002,1e-05,9e-05,0.00016,0.00023999999999999998,-0.00022,-0.00016,-0.00125,2
6864,7098,-0.00013000000000000002,1e-05,9e-05,0.00016,0.00023999999999999998,-0.00022,-0.00016,-0.00125,2
6865,7099,-0.00013000000000000002,1e-05,9e-05,0.00016,0.00023999999999999998,-0.00022,-0.00016,-0.00125,2
6866,7100,-0.00013000000000000002,1e-05,9e-05,0.00016,0.00023999999999999998,-0.00022,-0.00016,-0.00125,2
6867,7101,-0.00013000000000000002,1e-05,9e-05,0.00016,0.00023999999999999998,-0.00022,-0.00016,-0.00125,2
6868,7102,-0.00013000000000000002,1e-05,9e-05,0.00016,0.00023999999999999998,-0.00022,-0.00016,-0.00125,2
6869,7103,-0.00013000000000000002,1e-05,9e-05,0.00016,0.00023999999999999998,-0.00022,-0.00016,-0.00125,2
6870,7104,-0.00013000000000000002,1e-05,9e-05,0.00016,0.00023999999999999998,-0.00022,-0.00016,-0.00125,2
6871,7105,-0.00013000000000000002,1e-05,9e-05,0.00016,0.00023999999999999998,-0.00022,-0.00016,-0.00125,2
6872,7106,0.00015,0.0,-0.00011999999999999999,2.9999999999999997e-05,-0.00027,0.0002,0.00025,0.00073,2
6873,7107,-5.9999999999999995e-05,-4e-05,-0.00029,-0.00013000000000000002,-0.00011999999999999999,-0.00015,0.00015,0.00079,2
6874,7108,-5.9999999999999995e-05,-4e-05,-0.00029,-0.00013000000000000002,-0.00011999999999999999,-0.00015,0.00015,0.00079,2
6875,7109,-5.9999999999999995e-05,-4e-05,-0.00029,-0.00013000000000000002,-0.00011999999999999999,-0.00015,0.00015,0.00079,2
6876,7110,-5.9999999999999995e-05,-4e-05,-0.00029,-0.00013000000000000002,-0.00011999999999999999,-0.00015,0.00015,0.00079,2
6877,7111,-5.9999999999999995e-05,-4e-05,-0.00029,-0.00013000000000000002,-0.00011999999999999999,-0.00015,0.00015,0.00079,2
6878,7112,-5.9999999999999995e-05,-4e-05,-0.00029,-0.00013000000000000002,-0.00011999999999999999,-0.00015,0.00015,0.00079,2
6879,7113,-5.9999999999999995e-05,-4e-05,-0.00029,-0.00013000000000000002,-0.00011999999999999999,-0.00015,0.00015,0.00079,2
6880,7114,-5.9999999999999995e-05,-4e-05,-0.00029,-0.00013000000000000002,-0.00011999999999999999,-0.00015,0.00015,0.00079,2
6881,7115,-5.9999999999999995e-05,-4e-05,-0.00029,-0.00013000000000000002,-0.00011999999999999999,-0.00015,0.00015,0.00079,2
6882,7116,-5.9999999999999995e-05,-4e-05,-0.00029,-0.00013000000000000002,-0.00011999999999999999,-0.00015,0.00015,0.00079,2
6883,7117,-5.9999999999999995e-05,-4e-05,-0.00029,-0.00013000000000000002,-0.00011999999999999999,-0.00015,0.00015,0.00079,2
6884,7118,-5.9999999999999995e-05,-4e-05,-0.00029,-0.00013000000000000002,-0.00011999999999999999,-0.00015,0.00015,0.00079,2
6885,7119,-5.9999999999999995e-05,-4e-05,-0.00029,-0.00013000000000000002,-0.00011999999999999999,-0.00015,0.00015,0.00079,2
6886,7120,-5.9999999999999995e-05,-4e-05,-0.00029,-0.00013000000000000002,-0.00011999999999999999,-0.00015,0.00015,0.00079,2
6887,7121,-5.9999999999999995e-05,-4e-05,-0.00029,-0.00013000000000000002,-0.00011999999999999999,-0.00015,0.00015,0.00079,2
6888,7122,-5.9999999999999995e-05,-4e-05,-0.00029,-0.00013000000000000002,-0.00011999999999999999,-0.00015,0.00015,0.00079,2
6889,7123,-5.9999999999999995e-05,-4e-05,-0.00029,-0.00013000000000000002,-0.00011999999999999999,-0.00015,0.00015,0.00079,2
6890,7124,-5.9999999999999995e-05,-4e-05,-0.00029,-0.00013000000000000002,-0.00011999999999999999,-0.00015,0.00015,0.00079,2
6891,7125,-5.9999999999999995e-05,-4e-05,-0.00029,-0.00013000000000000002,-0.00011999999999999999,-0.00015,0.00015,0.00079,2
6892,7126,-5.9999999999999995e-05,-4e-05,-0.00029,-0.00013000000000000002,-0.00011999999999999999,-0.00015,0.00015,0.00079,2
6893,7127,-5.9999999999999995e-05,-4e-05,-0.00029,-0.00013000000000000002,-0.00011999999999999999,-0.00015,0.00015,0.00079,2
6894,7128,5.9999999999999995e-05,-0.00013000000000000002,0.00011,0.00011999999999999999,1e-05,4e-05,-0.00023999999999999998,-0.00082,2
6895,7129,-0.00016999999999999999,-0.00011999999999999999,2e-05,-0.00016,-0.0001,0.00018,-0.00018,0.00041,2
6896,7130,-0.00016999999999999999,-0.00011999999999999999,2e-05,-0.00016,-0.0001,0.00018,-0.00018,0.00041,2
6897,7131,-0.00016999999999999999,-0.00011999999999999999,2e-05,-0.00016,-0.0001,0.00018,-0.00018,0.00041,2
6898,7132,-0.00016999999999999999,-0.00011999999999999999,2e-05,-0.00016,-0.0001,0.00018,-0.00018,0.00041,2
6899,7133,-0.00016999999999999999,-0.00011999999999999999,2e-05,-0.00016,-0.0001,0.00018,-0.00018,0.00041,2
6900,7134,-0.00016999999999999999,-0.00011999999999999999,2e-05,-0.00016,-0.0001,0.00018,-0.00018,0.00041,2
6901,7135,-0.00016999999999999999,-0.00011999999999999999,2e-05,-0.00016,-0.0001,0.00018,-0.00018,0.00041,2
6902,7136,-0.00016999999999999999,-0.00011999999999999999,2e-05,-0.00016,-0.0001,0.00018,-0.00018,0.00041,2
6903,7138,-0.00016999999999999999,-0.00011999999999999999,2e-05,-0.00016,-0.0001,0.00018,-0.00018,0.00041,2
6904,7139,-0.00016999999999999999,-0.00011999999999999999,2e-05,-0.00016,-0.0001,0.00018,-0.00018,0.00041,2
6905,7140,-0.00016999999999999999,-0.00011999999999999999,2e-05,-0.00016,-0.0001,0.00018,-0.00018,0.00041,2
6906,7141,-0.00016999999999999999,-0.00011999999999999999,2e-05,-0.00016,-0.0001,0.00018,-0.00018,0.00041,2
6907,7142,-0.00016999999999999999,-0.00011999999999999999,2e-05,-0.00016,-0.0001,0.00018,-0.00018,0.00041,2
6908,7143,-0.00016999999999999999,-0.00011999999999999999,2e-05,-0.00016,-0.0001,0.00018,-0.00018,0.00041,2
6909,7144,-0.00016999999999999999,-0.00011999999999999999,2e-05,-0.00016,-0.0001,0.00018,-0.00018,0.00041,2
6910,7145,-0.00016999999999999999,-0.00011999999999999999,2e-05,-0.00016,-0.0001,0.00018,-0.00018,0.00041,2
6911,7146,-0.00016999999999999999,-0.00011999999999999999,2e-05,-0.00016,-0.0001,0.00018,-0.00018,0.00041,2
6912,7147,-0.00016999999999999999,-0.00011999999999999999,2e-05,-0.00016,-0.0001,0.00018,-0.00018,0.00041,2
6913,7148,-0.00016999999999999999,-0.00011999999999999999,2e-05,-0.00016,-0.0001,0.00018,-0.00018,0.00041,2
6914,7149,-0.00016999999999999999,-0.00011999999999999999,2e-05,-0.00016,-0.0001,0.00018,-0.00018,0.00041,2
6915,7150,-2e-05,2.9999999999999997e-05,-4e-05,4e-05,-0.00011,0.00035,0.00015,-0.00018999999999999998,2
6916,7151,-2e-05,2.9999999999999997e-05,-4e-05,4e-05,-0.00011,0.00035,0.00015,-0.00018999999999999998,2
6917,7152,-2e-05,2.9999999999999997e-05,-4e-05,4e-05,-0.00011,0.00035,0.00015,-0.00018999999999999998,2
6918,7153,-2e-05,2.9999999999999997e-05,-4e-05,4e-05,-0.00011,0.00035,0.00015,-0.00018999999999999998,2
6919,7154,-2e-05,2.9999999999999997e-05,-4e-05,4e-05,-0.00011,0.00035,0.00015,-0.00018999999999999998,2
6920,7155,-2e-05,2.9999999999999997e-05,-4e-05,4e-05,-0.00011,0.00035,0.00015,-0.00018999999999999998,2
6921,7156,-2e-05,2.9999999999999997e-05,-4e-05,4e-05,-0.00011,0.00035,0.00015,-0.00018999999999999998,2
6922,7157,-2e-05,2.9999999999999997e-05,-4e-05,4e-05,-0.00011,0.00035,0.00015,-0.00018999999999999998,2
6923,7158,0.00033,-2.9999999999999997e-05,8e-05,-0.00022999999999999998,-0.0002,-0.00033,-0.00045,-0.00099,2
6924,7159,0.00033,-2.9999999999999997e-05,8e-05,-0.00022999999999999998,-0.0002,-0.00033,-0.00045,-0.00099,2
6925,7160,0.00033,-2.9999999999999997e-05,8e-05,-0.00022999999999999998,-0.0002,-0.00033,-0.00045,-0.00099,2
6926,7161,0.00033,-2.9999999999999997e-05,8e-05,-0.00022999999999999998,-0.0002,-0.00033,-0.00045,-0.00099,2
6927,7162,0.00033,-2.9999999999999997e-05,8e-05,-0.00022999999999999998,-0.0002,-0.00033,-0.00045,-0.00099,2
6928,7163,0.00033,-2.9999999999999997e-05,8e-05,-0.00022999999999999998,-0.0002,-0.00033,-0.00045,-0.00099,2
6929,7164,0.00033,-2.9999999999999997e-05,8e-05,-0.00022999999999999998,-0.0002,-0.00033,-0.00045,-0.00099,2
6930,7165,0.00033,-2.9999999999999997e-05,8e-05,-0.00022999999999999998,-0.0002,-0.00033,-0.00045,-0.00099,2
6931,7166,0.00033,-2.9999999999999997e-05,8e-05,-0.00022999999999999998,-0.0002,-0.00033,-0.00045,-0.00099,2
6932,7167,0.00033,-2.9999999999999997e-05,8e-05,-0.00022999999999999998,-0.0002,-0.00033,-0.00045,-0.00099,2
6933,7168,0.00033,-2.9999999999999997e-05,8e-05,-0.00022999999999999998,-0.0002,-0.00033,-0.00045,-0.00099,2
6934,7169,0.00033,-2.9999999999999997e-05,8e-05,-0.00022999999999999998,-0.0002,-0.00033,-0.00045,-0.00099,2
6935,7170,0.00033,-2.9999999999999997e-05,8e-05,-0.00022999999999999998,-0.0002,-0.00033,-0.00045,-0.00099,2
6936,7171,0.00033,-2.9999999999999997e-05,8e-05,-0.00022999999999999998,-0.0002,-0.00033,-0.00045,-0.00099,2
6937,7172,0.00033,-2.9999999999999997e-05,8e-05,-0.00022999999999999998,-0.0002,-0.00033,-0.00045,-0.00099,2
6938,7173,0.00033,-2.9999999999999997e-05,8e-05,-0.00022999999999999998,-0.0002,-0.00033,-0.00045,-0.00099,2
6939,7174,-1e-05,-2e-05,-0.0001,-5.9999999999999995e-05,-0.0001,1e-05,-1e-05,0.00032,2
6940,7175,0.00039,4e-05,2e-05,4e-05,5.9999999999999995e-05,0.0003,0.00023999999999999998,0.00026000000000000003,2
6941,7176,0.00039,4e-05,2e-05,4e-05,5.9999999999999995e-05,0.0003,0.00023999999999999998,0.00026000000000000003,2
6942,7177,0.00039,4e-05,2e-05,4e-05,5.9999999999999995e-05,0.0003,0.00023999999999999998,0.00026000000000000003,2
6943,7178,0.00039,4e-05,2e-05,4e-05,5.9999999999999995e-05,0.0003,0.00023999999999999998,0.00026000000000000003,2
6944,7179,0.00039,4e-05,2e-05,4e-05,5.9999999999999995e-05,0.0003,0.00023999999999999998,0.00026000000000000003,2
6945,7180,0.00039,4e-05,2e-05,4e-05,5.9999999999999995e-05,0.0003,0.00023999999999999998,0.00026000000000000003,2
6946,7181,0.00039,4e-05,2e-05,4e-05,5.9999999999999995e-05,0.0003,0.00023999999999999998,0.00026000000000000003,2
6947,7182,0.00039,4e-05,2e-05,4e-05,5.9999999999999995e-05,0.0003,0.00023999999999999998,0.00026000000000000003,2
6948,7183,0.00039,4e-05,2e-05,4e-05,5.9999999999999995e-05,0.0003,0.00023999999999999998,0.00026000000000000003,2
6949,7184,0.00039,4e-05,2e-05,4e-05,5.9999999999999995e-05,0.0003,0.00023999999999999998,0.00026000000000000003,2
6950,7185,0.00039,4e-05,2e-05,4e-05,5.9999999999999995e-05,0.0003,0.00023999999999999998,0.00026000000000000003,2
6951,7186,0.00039,4e-05,2e-05,4e-05,5.9999999999999995e-05,0.0003,0.00023999999999999998,0.00026000000000000003,2
6952,7188,0.00027,1e-05,8e-05,7e-05,0.00015,-1e-05,-0.00011,-0.00057,2
6953,7189,-0.00011,0.00011,0.00015,0.0001,-0.00013000000000000002,1e-05,9e-05,-0.00022999999999999998,2
6954,7190,-0.00011,0.00011,0.00015,0.0001,-0.00013000000000000002,1e-05,9e-05,-0.00022999999999999998,2
6955,7191,-0.00011,0.00011,0.00015,0.0001,-0.00013000000000000002,1e-05,9e-05,-0.00022999999999999998,2
6956,7192,-0.00011,0.00011,0.00015,0.0001,-0.00013000000000000002,1e-05,9e-05,-0.00022999999999999998,2
6957,7193,-0.00011,0.00011,0.00015,0.0001,-0.00013000000000000002,1e-05,9e-05,-0.00022999999999999998,2
6958,7194,-0.00011,0.00011,0.00015,0.0001,-0.00013000000000000002,1e-05,9e-05,-0.00022999999999999998,2
6959,7195,-0.00011,0.00011,0.00015,0.0001,-0.00013000000000000002,1e-05,9e-05,-0.00022999999999999998,2
6960,7196,-0.00011,0.00011,0.00015,0.0001,-0.00013000000000000002,1e-05,9e-05,-0.00022999999999999998,2
6961,7197,-0.00011,0.00011,0.00015,0.0001,-0.00013000000000000002,1e-05,9e-05,-0.00022999999999999998,2
6962,7198,-0.00011,0.00011,0.00015,0.0001,-0.00013000000000000002,1e-05,9e-05,-0.00022999999999999998,2
6963,7199,-0.00011,0.00011,0.00015,0.0001,-0.00013000000000000002,1e-05,9e-05,-0.00022999999999999998,2
6964,7200,-0.00011,0.00011,0.00015,0.0001,-0.00013000000000000002,1e-05,9e-05,-0.00022999999999999998,2
6965,7201,-0.00011,0.00011,0.00015,0.0001,-0.00013000000000000002,1e-05,9e-05,-0.00022999999999999998,2
6966,7202,-0.00011,0.00011,0.00015,0.0001,-0.00013000000000000002,1e-05,9e-05,-0.00022999999999999998,2
6967,7203,-0.00045,-7e-05,-0.00033999999999999997,0.00011,0.00055,0.0001,0.00015,-8e-05,2
6968,7204,0.0,-5.9999999999999995e-05,5.9999999999999995e-05,5.9999999999999995e-05,0.00014,-0.00037999999999999997,-0.00013000000000000002,-0.00014,2
6969,7205,0.0,-5.9999999999999995e-05,5.9999999999999995e-05,5.9999999999999995e-05,0.00014,-0.00037999999999999997,-0.00013000000000000002,-0.00014,2
6970,7206,0.0,-5.9999999999999995e-05,5.9999999999999995e-05,5.9999999999999995e-05,0.00014,-0.00037999999999999997,-0.00013000000000000002,-0.00014,2
6971,7207,0.0,-5.9999999999999995e-05,5.9999999999999995e-05,5.9999999999999995e-05,0.00014,-0.00037999999999999997,-0.00013000000000000002,-0.00014,2
6972,7208,0.0,-5.9999999999999995e-05,5.9999999999999995e-05,5.9999999999999995e-05,0.00014,-0.00037999999999999997,-0.00013000000000000002,-0.00014,2
6973,7209,0.0,-5.9999999999999995e-05,5.9999999999999995e-05,5.9999999999999995e-05,0.00014,-0.00037999999999999997,-0.00013000000000000002,-0.00014,2
6974,7210,0.0,-5.9999999999999995e-05,5.9999999999999995e-05,5.9999999999999995e-05,0.00014,-0.00037999999999999997,-0.00013000000000000002,-0.00014,2
6975,7211,0.0,-5.9999999999999995e-05,5.9999999999999995e-05,5.9999999999999995e-05,0.00014,-0.00037999999999999997,-0.00013000000000000002,-0.00014,2
6976,7212,0.0,-5.9999999999999995e-05,5.9999999999999995e-05,5.9999999999999995e-05,0.00014,-0.00037999999999999997,-0.00013000000000000002,-0.00014,2
6977,7213,0.0,-5.9999999999999995e-05,5.9999999999999995e-05,5.9999999999999995e-05,0.00014,-0.00037999999999999997,-0.00013000000000000002,-0.00014,2
6978,7214,0.0,-5.9999999999999995e-05,5.9999999999999995e-05,5.9999999999999995e-05,0.00014,-0.00037999999999999997,-0.00013000000000000002,-0.00014,2
6979,7215,0.0,-5.9999999999999995e-05,5.9999999999999995e-05,5.9999999999999995e-05,0.00014,-0.00037999999999999997,-0.00013000000000000002,-0.00014,2
6980,7216,0.0,-5.9999999999999995e-05,5.9999999999999995e-05,5.9999999999999995e-05,0.00014,-0.00037999999999999997,-0.00013000000000000002,-0.00014,2
6981,7217,0.0,-5.9999999999999995e-05,5.9999999999999995e-05,5.9999999999999995e-05,0.00014,-0.00037999999999999997,-0.00013000000000000002,-0.00014,2
6982,7218,0.0,-5.9999999999999995e-05,5.9999999999999995e-05,5.9999999999999995e-05,0.00014,-0.00037999999999999997,-0.00013000000000000002,-0.00014,2
6983,7219,0.0,-5.9999999999999995e-05,5.9999999999999995e-05,5.9999999999999995e-05,0.00014,-0.00037999999999999997,-0.00013000000000000002,-0.00014,2
6984,7220,0.0,-5.9999999999999995e-05,5.9999999999999995e-05,5.9999999999999995e-05,0.00014,-0.00037999999999999997,-0.00013000000000000002,-0.00014,2
6985,7221,0.0,-5.9999999999999995e-05,5.9999999999999995e-05,5.9999999999999995e-05,0.00014,-0.00037999999999999997,-0.00013000000000000002,-0.00014,2
6986,7222,0.0,-5.9999999999999995e-05,5.9999999999999995e-05,5.9999999999999995e-05,0.00014,-0.00037999999999999997,-0.00013000000000000002,-0.00014,2
6987,7223,0.0,-5.9999999999999995e-05,5.9999999999999995e-05,5.9999999999999995e-05,0.00014,-0.00037999999999999997,-0.00013000000000000002,-0.00014,2
6988,7224,0.0,-5.9999999999999995e-05,5.9999999999999995e-05,5.9999999999999995e-05,0.00014,-0.00037999999999999997,-0.00013000000000000002,-0.00014,2
6989,7225,0.0,-5.9999999999999995e-05,5.9999999999999995e-05,5.9999999999999995e-05,0.00014,-0.00037999999999999997,-0.00013000000000000002,-0.00014,2
6990,7226,0.0,-5.9999999999999995e-05,5.9999999999999995e-05,5.9999999999999995e-05,0.00014,-0.00037999999999999997,-0.00013000000000000002,-0.00014,2
6991,7227,0.0,-5.9999999999999995e-05,5.9999999999999995e-05,5.9999999999999995e-05,0.00014,-0.00037999999999999997,-0.00013000000000000002,-0.00014,2
6992,7228,0.0,-5.9999999999999995e-05,5.9999999999999995e-05,5.9999999999999995e-05,0.00014,-0.00037999999999999997,-0.00013000000000000002,-0.00014,2
6993,7229,0.0,-5.9999999999999995e-05,5.9999999999999995e-05,5.9999999999999995e-05,0.00014,-0.00037999999999999997,-0.00013000000000000002,-0.00014,2
6994,7230,0.0,-5.9999999999999995e-05,5.9999999999999995e-05,5.9999999999999995e-05,0.00014,-0.00037999999999999997,-0.00013000000000000002,-0.00014,2
6995,7231,0.0,-5.9999999999999995e-05,5.9999999999999995e-05,5.9999999999999995e-05,0.00014,-0.00037999999999999997,-0.00013000000000000002,-0.00014,2
6996,7232,0.0,-5.9999999999999995e-05,5.9999999999999995e-05,5.9999999999999995e-05,0.00014,-0.00037999999999999997,-0.00013000000000000002,-0.00014,2
6997,7233,-7e-05,-0.00011999999999999999,-0.00023999999999999998,-0.00011,-0.00022999999999999998,1e-05,-2.9999999999999997e-05,-0.0001,2
6998,7234,0.00022999999999999998,-1e-05,9e-05,0.00011999999999999999,-5.9999999999999995e-05,0.0,-8e-05,1e-05,2
6999,7235,0.00022999999999999998,-1e-05,9e-05,0.00011999999999999999,-5.9999999999999995e-05,0.0,-8e-05,1e-05,2
7000,7236,0.00022999999999999998,-1e-05,9e-05,0.00011999999999999999,-5.9999999999999995e-05,0.0,-8e-05,1e-05,2
7001,7238,0.00022999999999999998,-1e-05,9e-05,0.00011999999999999999,-5.9999999999999995e-05,0.0,-8e-05,1e-05,2
7002,7239,0.00022999999999999998,-1e-05,9e-05,0.00011999999999999999,-5.9999999999999995e-05,0.0,-8e-05,1e-05,2
7003,7240,0.00022999999999999998,-1e-05,9e-05,0.00011999999999999999,-5.9999999999999995e-05,0.0,-8e-05,1e-05,2
7004,7241,0.00022999999999999998,-1e-05,9e-05,0.00011999999999999999,-5.9999999999999995e-05,0.0,-8e-05,1e-05,2
7005,7242,0.00022999999999999998,-1e-05,9e-05,0.00011999999999999999,-5.9999999999999995e-05,0.0,-8e-05,1e-05,2
7006,7243,0.00022999999999999998,-1e-05,9e-05,0.00011999999999999999,-5.9999999999999995e-05,0.0,-8e-05,1e-05,2
7007,7244,0.00022999999999999998,-1e-05,9e-05,0.00011999999999999999,-5.9999999999999995e-05,0.0,-8e-05,1e-05,2
7008,7245,0.00022999999999999998,-1e-05,9e-05,0.00011999999999999999,-5.9999999999999995e-05,0.0,-8e-05,1e-05,2
7009,7246,0.00022999999999999998,-1e-05,9e-05,0.00011999999999999999,-5.9999999999999995e-05,0.0,-8e-05,1e-05,2
7010,7247,0.00022999999999999998,-1e-05,9e-05,0.00011999999999999999,-5.9999999999999995e-05,0.0,-8e-05,1e-05,2
7011,7248,0.00022999999999999998,-1e-05,9e-05,0.00011999999999999999,-5.9999999999999995e-05,0.0,-8e-05,1e-05,2
7012,7249,0.00022999999999999998,-1e-05,9e-05,0.00011999999999999999,-5.9999999999999995e-05,0.0,-8e-05,1e-05,2
7013,7250,0.00022999999999999998,-1e-05,9e-05,0.00011999999999999999,-5.9999999999999995e-05,0.0,-8e-05,1e-05,2
7014,7251,0.00022999999999999998,-1e-05,9e-05,0.00011999999999999999,-5.9999999999999995e-05,0.0,-8e-05,1e-05,2
7015,7252,0.00022999999999999998,-1e-05,9e-05,0.00011999999999999999,-5.9999999999999995e-05,0.0,-8e-05,1e-05,2
7016,7253,0.00022999999999999998,-1e-05,9e-05,0.00011999999999999999,-5.9999999999999995e-05,0.0,-8e-05,1e-05,2
7017,7254,0.00022999999999999998,-1e-05,9e-05,0.00011999999999999999,-5.9999999999999995e-05,0.0,-8e-05,1e-05,2
7018,7255,0.00022999999999999998,-1e-05,9e-05,0.00011999999999999999,-5.9999999999999995e-05,0.0,-8e-05,1e-05,2
7019,7256,0.00022999999999999998,-1e-05,9e-05,0.00011999999999999999,-5.9999999999999995e-05,0.0,-8e-05,1e-05,2
7020,7257,0.00022999999999999998,-1e-05,9e-05,0.00011999999999999999,-5.9999999999999995e-05,0.0,-8e-05,1e-05,2
7021,7258,0.00022999999999999998,-1e-05,9e-05,0.00011999999999999999,-5.9999999999999995e-05,0.0,-8e-05,1e-05,2
7022,7259,0.00022999999999999998,-1e-05,9e-05,0.00011999999999999999,-5.9999999999999995e-05,0.0,-8e-05,1e-05,2
7023,7260,0.00022999999999999998,-1e-05,9e-05,0.00011999999999999999,-5.9999999999999995e-05,0.0,-8e-05,1e-05,2
7024,7261,0.00022999999999999998,-1e-05,9e-05,0.00011999999999999999,-5.9999999999999995e-05,0.0,-8e-05,1e-05,2
7025,7262,0.00022999999999999998,-1e-05,9e-05,0.00011999999999999999,-5.9999999999999995e-05,0.0,-8e-05,1e-05,2
7026,7263,0.00022999999999999998,-1e-05,9e-05,0.00011999999999999999,-5.9999999999999995e-05,0.0,-8e-05,1e-05,2
7027,7264,0.00022999999999999998,-1e-05,9e-05,0.00011999999999999999,-5.9999999999999995e-05,0.0,-8e-05,1e-05,2
7028,7265,5e-05,2.9999999999999997e-05,2.9999999999999997e-05,4e-05,-0.00011999999999999999,-0.00018,0.0,0.00016,2
7029,7266,-4e-05,2.9999999999999997e-05,0.0001,0.0002,2e-05,0.00022999999999999998,8e-05,0.0008699999999999999,2
7030,7267,0.00011999999999999999,-1e-05,-0.00028,-0.00022,-1e-05,-0.00029,1e-05,-0.00016999999999999999,2
7031,7268,0.00011999999999999999,-1e-05,-0.00028,-0.00022,-1e-05,-0.00029,1e-05,-0.00016999999999999999,2
7032,7269,0.00011999999999999999,-1e-05,-0.00028,-0.00022,-1e-05,-0.00029,1e-05,-0.00016999999999999999,2
7033,7270,0.0,7e-05,7e-05,-5.9999999999999995e-05,0.00027,0.00015,0.00023999999999999998,-0.00016999999999999999,2
7034,7271,0.0,7e-05,7e-05,-5.9999999999999995e-05,0.00027,0.00015,0.00023999999999999998,-0.00016999999999999999,2
7035,7272,0.0,7e-05,7e-05,-5.9999999999999995e-05,0.00027,0.00015,0.00023999999999999998,-0.00016999999999999999,2
7036,7273,0.0,7e-05,7e-05,-5.9999999999999995e-05,0.00027,0.00015,0.00023999999999999998,-0.00016999999999999999,2
7037,7274,0.0,7e-05,7e-05,-5.9999999999999995e-05,0.00027,0.00015,0.00023999999999999998,-0.00016999999999999999,2
7038,7275,0.0,7e-05,7e-05,-5.9999999999999995e-05,0.00027,0.00015,0.00023999999999999998,-0.00016999999999999999,2
7039,7276,0.0,7e-05,7e-05,-5.9999999999999995e-05,0.00027,0.00015,0.00023999999999999998,-0.00016999999999999999,2
7040,7277,0.0,7e-05,7e-05,-5.9999999999999995e-05,0.00027,0.00015,0.00023999999999999998,-0.00016999999999999999,2
7041,7278,0.0,7e-05,7e-05,-5.9999999999999995e-05,0.00027,0.00015,0.00023999999999999998,-0.00016999999999999999,2
7042,7279,0.0,7e-05,7e-05,-5.9999999999999995e-05,0.00027,0.00015,0.00023999999999999998,-0.00016999999999999999,2
7043,7280,0.0,7e-05,7e-05,-5.9999999999999995e-05,0.00027,0.00015,0.00023999999999999998,-0.00016999999999999999,2
7044,7281,0.0,7e-05,7e-05,-5.9999999999999995e-05,0.00027,0.00015,0.00023999999999999998,-0.00016999999999999999,2
7045,7282,0.0,7e-05,7e-05,-5.9999999999999995e-05,0.00027,0.00015,0.00023999999999999998,-0.00016999999999999999,2
7046,7283,0.0,7e-05,7e-05,-5.9999999999999995e-05,0.00027,0.00015,0.00023999999999999998,-0.00016999999999999999,2
7047,7284,0.0,7e-05,7e-05,-5.9999999999999995e-05,0.00027,0.00015,0.00023999999999999998,-0.00016999999999999999,2
7048,7285,0.0,7e-05,7e-05,-5.9999999999999995e-05,0.00027,0.00015,0.00023999999999999998,-0.00016999999999999999,2
7049,7286,0.0,7e-05,7e-05,-5.9999999999999995e-05,0.00027,0.00015,0.00023999999999999998,-0.00016999999999999999,2
7050,7289,0.0001,-8e-05,-0.00018,-9e-05,-4e-05,-0.00026000000000000003,-0.00023999999999999998,-0.0007700000000000001,2
7051,7290,0.0001,-8e-05,-0.00018,-9e-05,-4e-05,-0.00026000000000000003,-0.00023999999999999998,-0.0007700000000000001,2
7052,7291,0.0001,-8e-05,-0.00018,-9e-05,-4e-05,-0.00026000000000000003,-0.00023999999999999998,-0.0007700000000000001,2
7053,7292,0.0001,-8e-05,-0.00018,-9e-05,-4e-05,-0.00026000000000000003,-0.00023999999999999998,-0.0007700000000000001,2
7054,7293,0.0001,-8e-05,-0.00018,-9e-05,-4e-05,-0.00026000000000000003,-0.00023999999999999998,-0.0007700000000000001,2
7055,7294,0.0001,-8e-05,-0.00018,-9e-05,-4e-05,-0.00026000000000000003,-0.00023999999999999998,-0.0007700000000000001,2
7056,7295,0.0001,-8e-05,-0.00018,-9e-05,-4e-05,-0.00026000000000000003,-0.00023999999999999998,-0.0007700000000000001,2
7057,7296,0.0001,-8e-05,-0.00018,-9e-05,-4e-05,-0.00026000000000000003,-0.00023999999999999998,-0.0007700000000000001,2
7058,7297,0.0001,-8e-05,-0.00018,-9e-05,-4e-05,-0.00026000000000000003,-0.00023999999999999998,-0.0007700000000000001,2
7059,7298,0.0001,-8e-05,-0.00018,-9e-05,-4e-05,-0.00026000000000000003,-0.00023999999999999998,-0.0007700000000000001,2
7060,7299,0.0001,-8e-05,-0.00018,-9e-05,-4e-05,-0.00026000000000000003,-0.00023999999999999998,-0.0007700000000000001,2
7061,7300,0.0001,-8e-05,-0.00018,-9e-05,-4e-05,-0.00026000000000000003,-0.00023999999999999998,-0.0007700000000000001,2
7062,7301,0.0001,-8e-05,-0.00018,-9e-05,-4e-05,-0.00026000000000000003,-0.00023999999999999998,-0.0007700000000000001,2
7063,7302,0.0001,-8e-05,-0.00018,-9e-05,-4e-05,-0.00026000000000000003,-0.00023999999999999998,-0.0007700000000000001,2
7064,7303,0.0001,-8e-05,-0.00018,-9e-05,-4e-05,-0.00026000000000000003,-0.00023999999999999998,-0.0007700000000000001,2
7065,7304,0.0001,-8e-05,-0.00018,-9e-05,-4e-05,-0.00026000000000000003,-0.00023999999999999998,-0.0007700000000000001,2
7066,7305,0.0001,-8e-05,-0.00018,-9e-05,-4e-05,-0.00026000000000000003,-0.00023999999999999998,-0.0007700000000000001,2
7067,7306,0.0001,-8e-05,-0.00018,-9e-05,-4e-05,-0.00026000000000000003,-0.00023999999999999998,-0.0007700000000000001,2
7068,7307,0.0001,-8e-05,-0.00018,-9e-05,-4e-05,-0.00026000000000000003,-0.00023999999999999998,-0.0007700000000000001,2
7069,7308,0.0001,-8e-05,-0.00018,-9e-05,-4e-05,-0.00026000000000000003,-0.00023999999999999998,-0.0007700000000000001,2
7070,7309,0.0001,-8e-05,-0.00018,-9e-05,-4e-05,-0.00026000000000000003,-0.00023999999999999998,-0.0007700000000000001,2
7071,7310,0.0001,-8e-05,-0.00018,-9e-05,-4e-05,-0.00026000000000000003,-0.00023999999999999998,-0.0007700000000000001,2
7072,7311,0.0001,-8e-05,-0.00018,-9e-05,-4e-05,-0.00026000000000000003,-0.00023999999999999998,-0.0007700000000000001,2
7073,7312,0.0001,-8e-05,-0.00018,-9e-05,-4e-05,-0.00026000000000000003,-0.00023999999999999998,-0.0007700000000000001,2
7074,7313,0.0001,-8e-05,-0.00018,-9e-05,-4e-05,-0.00026000000000000003,-0.00023999999999999998,-0.0007700000000000001,2
7075,7314,0.0001,-8e-05,-0.00018,-9e-05,-4e-05,-0.00026000000000000003,-0.00023999999999999998,-0.0007700000000000001,2
7076,7315,0.0001,-8e-05,-0.00018,-9e-05,-4e-05,-0.00026000000000000003,-0.00023999999999999998,-0.0007700000000000001,2
7077,7316,-0.00036,-0.00016999999999999999,-8e-05,-4e-05,-0.00014,2.9999999999999997e-05,-0.0001,-0.00066,2
7078,7317,8e-05,4e-05,-2.9999999999999997e-05,0.0001,2e-05,2.9999999999999997e-05,0.00016,0.0012699999999999999,2
7079,7318,8e-05,4e-05,-2.9999999999999997e-05,0.0001,2e-05,2.9999999999999997e-05,0.00016,0.0012699999999999999,2
7080,7319,8e-05,4e-05,-2.9999999999999997e-05,0.0001,2e-05,2.9999999999999997e-05,0.00016,0.0012699999999999999,2
7081,7320,8e-05,4e-05,-2.9999999999999997e-05,0.0001,2e-05,2.9999999999999997e-05,0.00016,0.0012699999999999999,2
7082,7321,8e-05,4e-05,-2.9999999999999997e-05,0.0001,2e-05,2.9999999999999997e-05,0.00016,0.0012699999999999999,2
7083,7322,0.00018,2e-05,2.9999999999999997e-05,0.00029,-7e-05,1e-05,0.0,-5.9999999999999995e-05,2
7084,7323,0.00018,2e-05,2.9999999999999997e-05,0.00029,-7e-05,1e-05,0.0,-5.9999999999999995e-05,2
7085,7324,0.00018,2e-05,2.9999999999999997e-05,0.00029,-7e-05,1e-05,0.0,-5.9999999999999995e-05,2
7086,7325,0.00018,2e-05,2.9999999999999997e-05,0.00029,-7e-05,1e-05,0.0,-5.9999999999999995e-05,2
7087,7326,0.00018,2e-05,2.9999999999999997e-05,0.00029,-7e-05,1e-05,0.0,-5.9999999999999995e-05,2
7088,7327,0.00018,2e-05,2.9999999999999997e-05,0.00029,-7e-05,1e-05,0.0,-5.9999999999999995e-05,2
7089,7328,0.00018,2e-05,2.9999999999999997e-05,0.00029,-7e-05,1e-05,0.0,-5.9999999999999995e-05,2
7090,7329,0.00018,2e-05,2.9999999999999997e-05,0.00029,-7e-05,1e-05,0.0,-5.9999999999999995e-05,2
7091,7330,0.00018,2e-05,2.9999999999999997e-05,0.00029,-7e-05,1e-05,0.0,-5.9999999999999995e-05,2
7092,7331,0.00018,2e-05,2.9999999999999997e-05,0.00029,-7e-05,1e-05,0.0,-5.9999999999999995e-05,2
7093,7332,0.00018,2e-05,2.9999999999999997e-05,0.00029,-7e-05,1e-05,0.0,-5.9999999999999995e-05,2
7094,7333,0.00018,2e-05,2.9999999999999997e-05,0.00029,-7e-05,1e-05,0.0,-5.9999999999999995e-05,2
7095,7334,0.00018,2e-05,2.9999999999999997e-05,0.00029,-7e-05,1e-05,0.0,-5.9999999999999995e-05,2
7096,7335,0.00018,2e-05,2.9999999999999997e-05,0.00029,-7e-05,1e-05,0.0,-5.9999999999999995e-05,2
7097,7336,0.00018,2e-05,2.9999999999999997e-05,0.00029,-7e-05,1e-05,0.0,-5.9999999999999995e-05,2
7098,7338,0.00018,2e-05,2.9999999999999997e-05,0.00029,-7e-05,1e-05,0.0,-5.9999999999999995e-05,2
7099,7339,0.00018,2e-05,2.9999999999999997e-05,0.00029,-7e-05,1e-05,0.0,-5.9999999999999995e-05,2
7100,7340,0.00018,2e-05,2.9999999999999997e-05,0.00029,-7e-05,1e-05,0.0,-5.9999999999999995e-05,2
7101,7341,0.00018,2e-05,2.9999999999999997e-05,0.00029,-7e-05,1e-05,0.0,-5.9999999999999995e-05,2
7102,7342,0.00018,2e-05,2.9999999999999997e-05,0.00029,-7e-05,1e-05,0.0,-5.9999999999999995e-05,2
7103,7343,0.00018,2e-05,2.9999999999999997e-05,0.00029,-7e-05,1e-05,0.0,-5.9999999999999995e-05,2
7104,7344,0.00018,2e-05,2.9999999999999997e-05,0.00029,-7e-05,1e-05,0.0,-5.9999999999999995e-05,2
7105,7345,0.00018,2e-05,2.9999999999999997e-05,0.00029,-7e-05,1e-05,0.0,-5.9999999999999995e-05,2
7106,7346,2.9999999999999997e-05,-5e-05,8e-05,0.00011999999999999999,-0.00021,0.00033999999999999997,5.9999999999999995e-05,0.00039,2
7107,7347,0.00032,0.0001,0.0001,-0.00016,-1e-05,-2.9999999999999997e-05,-5.9999999999999995e-05,-0.00042,2
7108,7348,0.00032,0.0001,0.0001,-0.00016,-1e-05,-2.9999999999999997e-05,-5.9999999999999995e-05,-0.00042,2
7109,7349,0.00032,0.0001,0.0001,-0.00016,-1e-05,-2.9999999999999997e-05,-5.9999999999999995e-05,-0.00042,2
7110,7350,0.00032,0.0001,0.0001,-0.00016,-1e-05,-2.9999999999999997e-05,-5.9999999999999995e-05,-0.00042,2
7111,7351,0.00032,0.0001,0.0001,-0.00016,-1e-05,-2.9999999999999997e-05,-5.9999999999999995e-05,-0.00042,2
7112,7352,0.00032,0.0001,0.0001,-0.00016,-1e-05,-2.9999999999999997e-05,-5.9999999999999995e-05,-0.00042,2
7113,7353,0.00032,0.0001,0.0001,-0.00016,-1e-05,-2.9999999999999997e-05,-5.9999999999999995e-05,-0.00042,2
7114,7354,0.00011,1e-05,-2e-05,5e-05,-0.0002,-0.00013000000000000002,-5e-05,-0.00011,2
7115,7355,0.00011,1e-05,-2e-05,5e-05,-0.0002,-0.00013000000000000002,-5e-05,-0.00011,2
7116,7356,0.00011,1e-05,-2e-05,5e-05,-0.0002,-0.00013000000000000002,-5e-05,-0.00011,2
7117,7357,0.00011,1e-05,-2e-05,5e-05,-0.0002,-0.00013000000000000002,-5e-05,-0.00011,2
7118,7358,0.00011,1e-05,-2e-05,5e-05,-0.0002,-0.00013000000000000002,-5e-05,-0.00011,2
7119,7359,0.00011,1e-05,-2e-05,5e-05,-0.0002,-0.00013000000000000002,-5e-05,-0.00011,2
7120,7360,0.00011,1e-05,-2e-05,5e-05,-0.0002,-0.00013000000000000002,-5e-05,-0.00011,2
7121,7361,0.00011,1e-05,-2e-05,5e-05,-0.0002,-0.00013000000000000002,-5e-05,-0.00011,2
7122,7362,0.00011,1e-05,-2e-05,5e-05,-0.0002,-0.00013000000000000002,-5e-05,-0.00011,2
7123,7363,0.00011,1e-05,-2e-05,5e-05,-0.0002,-0.00013000000000000002,-5e-05,-0.00011,2
7124,7364,0.00011,1e-05,-2e-05,5e-05,-0.0002,-0.00013000000000000002,-5e-05,-0.00011,2
7125,7365,0.00011,1e-05,-2e-05,5e-05,-0.0002,-0.00013000000000000002,-5e-05,-0.00011,2
7126,7366,0.00011,1e-05,-2e-05,5e-05,-0.0002,-0.00013000000000000002,-5e-05,-0.00011,2
7127,7367,0.00011,1e-05,-2e-05,5e-05,-0.0002,-0.00013000000000000002,-5e-05,-0.00011,2
7128,7368,0.00011,1e-05,-2e-05,5e-05,-0.0002,-0.00013000000000000002,-5e-05,-0.00011,2
7129,7369,-2e-05,0.00018999999999999998,0.00016,0.00018,2e-05,0.00014,0.0,-0.0001,2
7130,7370,1e-05,-0.00021,-5e-05,-0.0003,-0.0001,-0.00023999999999999998,-0.00011999999999999999,-0.00059,2
7131,7371,-7e-05,-2.9999999999999997e-05,-0.00025,0.00015,0.0,7e-05,0.00028,0.00091,2
7132,7372,-7e-05,-2.9999999999999997e-05,-0.00025,0.00015,0.0,7e-05,0.00028,0.00091,2
7133,7373,-7e-05,-2.9999999999999997e-05,-0.00025,0.00015,0.0,7e-05,0.00028,0.00091,2
7134,7374,-7e-05,-2.9999999999999997e-05,-0.00025,0.00015,0.0,7e-05,0.00028,0.00091,2
7135,7375,-7e-05,-2.9999999999999997e-05,-0.00025,0.00015,0.0,7e-05,0.00028,0.00091,2
7136,7376,-7e-05,-2.9999999999999997e-05,-0.00025,0.00015,0.0,7e-05,0.00028,0.00091,2
7137,7377,-7e-05,-2.9999999999999997e-05,-0.00025,0.00015,0.0,7e-05,0.00028,0.00091,2
7138,7378,-7e-05,-2.9999999999999997e-05,-0.00025,0.00015,0.0,7e-05,0.00028,0.00091,2
7139,7379,-7e-05,-2.9999999999999997e-05,-0.00025,0.00015,0.0,7e-05,0.00028,0.00091,2
7140,7380,-7e-05,-2.9999999999999997e-05,-0.00025,0.00015,0.0,7e-05,0.00028,0.00091,2
7141,7381,-7e-05,-2.9999999999999997e-05,-0.00025,0.00015,0.0,7e-05,0.00028,0.00091,2
7142,7382,-0.00015,2e-05,-5e-05,-0.00011999999999999999,-5.9999999999999995e-05,2e-05,0.0,0.00057,2
7143,7383,-0.00015,2e-05,-5e-05,-0.00011999999999999999,-5.9999999999999995e-05,2e-05,0.0,0.00057,2
