,time,channel1,channel2,channel3,channel4,channel5,channel6,channel7,channel8,class
4284,4439,-0.0005099999999999999,-0.0001,0.00011999999999999999,0.0001,-2e-05,-5.9999999999999995e-05,-0.00016,0.00021,2
4285,4440,0.00078,0.00016999999999999999,-0.0001,-0.00029,0.00011999999999999999,-0.0002,-0.00018999999999999998,0.00042,2
4286,4441,0.00078,0.00016999999999999999,-0.0001,-0.00029,0.00011999999999999999,-0.0002,-0.00018999999999999998,0.00042,2
4287,4442,0.00078,0.00016999999999999999,-0.0001,-0.00029,0.00011999999999999999,-0.0002,-0.00018999999999999998,0.00042,2
4288,4443,0.00078,0.00016999999999999999,-0.0001,-0.00029,0.00011999999999999999,-0.0002,-0.00018999999999999998,0.00042,2
4289,4444,0.00078,0.00016999999999999999,-0.0001,-0.00029,0.00011999999999999999,-0.0002,-0.00018999999999999998,0.00042,2
4290,4445,0.00078,0.00016999999999999999,-0.0001,-0.00029,0.00011999999999999999,-0.0002,-0.00018999999999999998,0.00042,2
4291,4446,0.00078,0.00016999999999999999,-0.0001,-0.00029,0.00011999999999999999,-0.0002,-0.00018999999999999998,0.00042,2
4292,4447,0.00078,0.00016999999999999999,-0.0001,-0.00029,0.00011999999999999999,-0.0002,-0.00018999999999999998,0.00042,2
4293,4448,0.00078,0.00016999999999999999,-0.0001,-0.00029,0.00011999999999999999,-0.0002,-0.00018999999999999998,0.00042,2
4294,4449,0.00078,0.00016999999999999999,-0.0001,-0.00029,0.00011999999999999999,-0.0002,-0.00018999999999999998,0.00042,2
4295,4450,0.00078,0.00016999999999999999,-0.0001,-0.00029,0.00011999999999999999,-0.0002,-0.00018999999999999998,0.00042,2
4296,4451,0.00078,0.00016999999999999999,-0.0001,-0.00029,0.00011999999999999999,-0.0002,-0.00018999999999999998,0.00042,2
4297,4452,0.00078,0.00016999999999999999,-0.0001,-0.00029,0.00011999999999999999,-0.0002,-0.00018999999999999998,0.00042,2
4298,4453,0.00078,0.00016999999999999999,-0.0001,-0.00029,0.00011999999999999999,-0.0002,-0.00018999999999999998,0.00042,2
4299,4454,0.00078,0.00016999999999999999,-0.0001,-0.00029,0.00011999999999999999,-0.0002,-0.00018999999999999998,0.00042,2
4300,4455,0.00078,0.00016999999999999999,-0.0001,-0.00029,0.00011999999999999999,-0.0002,-0.00018999999999999998,0.00042,2
4301,4456,0.00078,0.00016999999999999999,-0.0001,-0.00029,0.00011999999999999999,-0.0002,-0.00018999999999999998,0.00042,2
4302,4457,0.00078,0.00016999999999999999,-0.0001,-0.00029,0.00011999999999999999,-0.0002,-0.00018999999999999998,0.00042,2
4303,4458,0.00078,0.00016999999999999999,-0.0001,-0.00029,0.00011999999999999999,-0.0002,-0.00018999999999999998,0.00042,2
4304,4459,0.00078,0.00016999999999999999,-0.0001,-0.00029,0.00011999999999999999,-0.0002,-0.00018999999999999998,0.00042,2
4305,4460,0.00078,0.00016999999999999999,-0.0001,-0.00029,0.00011999999999999999,-0.0002,-0.00018999999999999998,0.00042,2
4306,4461,-0.00036,-1e-05,8e-05,0.0002,0.0,0.00022,0.00029,-0.00031,2
4307,4462,-0.00107,-0.00026000000000000003,-5.9999999999999995e-05,0.0001,7e-05,9e-05,-2.9999999999999997e-05,-0.00095,2
4308,4463,-0.00107,-0.00026000000000000003,-5.9999999999999995e-05,0.0001,7e-05,9e-05,-2.9999999999999997e-05,-0.00095,2
4309,4464,-0.00107,-0.00026000000000000003,-5.9999999999999995e-05,0.0001,7e-05,9e-05,-2.9999999999999997e-05,-0.00095,2
4310,4465,-0.00107,-0.00026000000000000003,-5.9999999999999995e-05,0.0001,7e-05,9e-05,-2.9999999999999997e-05,-0.00095,2
4311,4466,-0.00107,-0.00026000000000000003,-5.9999999999999995e-05,0.0001,7e-05,9e-05,-2.9999999999999997e-05,-0.00095,2
4312,4467,-0.00107,-0.00026000000000000003,-5.9999999999999995e-05,0.0001,7e-05,9e-05,-2.9999999999999997e-05,-0.00095,2
4313,4468,-0.00107,-0.00026000000000000003,-5.9999999999999995e-05,0.0001,7e-05,9e-05,-2.9999999999999997e-05,-0.00095,2
4314,4469,-0.00107,-0.00026000000000000003,-5.9999999999999995e-05,0.0001,7e-05,9e-05,-2.9999999999999997e-05,-0.00095,2
4315,4470,-0.00107,-0.00026000000000000003,-5.9999999999999995e-05,0.0001,7e-05,9e-05,-2.9999999999999997e-05,-0.00095,2
4316,4471,-0.00107,-0.00026000000000000003,-5.9999999999999995e-05,0.0001,7e-05,9e-05,-2.9999999999999997e-05,-0.00095,2
4317,4472,-0.00107,-0.00026000000000000003,-5.9999999999999995e-05,0.0001,7e-05,9e-05,-2.9999999999999997e-05,-0.00095,2
4318,4473,-0.00107,-0.00026000000000000003,-5.9999999999999995e-05,0.0001,7e-05,9e-05,-2.9999999999999997e-05,-0.00095,2
4319,4474,0.0004,4e-05,-2e-05,-0.00021,-0.00011,-0.00011999999999999999,0.00016999999999999999,0.0004,2
4320,4475,0.00015,4e-05,-5e-05,2e-05,0.00016,-5e-05,-0.00022,1e-05,2
4321,4476,0.00015,4e-05,-5e-05,2e-05,0.00016,-5e-05,-0.00022,1e-05,2
4322,4477,0.00015,4e-05,-5e-05,2e-05,0.00016,-5e-05,-0.00022,1e-05,2
4323,4478,0.00015,4e-05,-5e-05,2e-05,0.00016,-5e-05,-0.00022,1e-05,2
4324,4479,0.00015,4e-05,-5e-05,2e-05,0.00016,-5e-05,-0.00022,1e-05,2
4325,4480,0.00015,4e-05,-5e-05,2e-05,0.00016,-5e-05,-0.00022,1e-05,2
4326,4481,0.00015,4e-05,-5e-05,2e-05,0.00016,-5e-05,-0.00022,1e-05,2
4327,4482,0.00015,4e-05,-5e-05,2e-05,0.00016,-5e-05,-0.00022,1e-05,2
4328,4483,-0.00029,-0.00018,-0.00018,-0.00022999999999999998,-0.00018999999999999998,-7e-05,-0.00011999999999999999,-0.00013000000000000002,2
4329,4484,0.00016999999999999999,8e-05,0.0001,0.00029,0.0001,-1e-05,-0.00014,-0.00016,2
4330,4485,0.00016999999999999999,8e-05,0.0001,0.00029,0.0001,-1e-05,-0.00014,-0.00016,2
4331,4486,0.00016999999999999999,8e-05,0.0001,0.00029,0.0001,-1e-05,-0.00014,-0.00016,2
4332,4488,0.00016999999999999999,8e-05,0.0001,0.00029,0.0001,-1e-05,-0.00014,-0.00016,2
4333,4489,0.00016999999999999999,8e-05,0.0001,0.00029,0.0001,-1e-05,-0.00014,-0.00016,2
4334,4490,0.00016999999999999999,8e-05,0.0001,0.00029,0.0001,-1e-05,-0.00014,-0.00016,2
4335,4491,0.00016999999999999999,8e-05,0.0001,0.00029,0.0001,-1e-05,-0.00014,-0.00016,2
4336,4492,0.00016999999999999999,8e-05,0.0001,0.00029,0.0001,-1e-05,-0.00014,-0.00016,2
4337,4493,0.00016999999999999999,8e-05,0.0001,0.00029,0.0001,-1e-05,-0.00014,-0.00016,2
4338,4494,0.00016999999999999999,8e-05,0.0001,0.00029,0.0001,-1e-05,-0.00014,-0.00016,2
4339,4495,0.00016999999999999999,8e-05,0.0001,0.00029,0.0001,-1e-05,-0.00014,-0.00016,2
4340,4496,0.00016999999999999999,8e-05,0.0001,0.00029,0.0001,-1e-05,-0.00014,-0.00016,2
4341,4497,0.00016999999999999999,8e-05,0.0001,0.00029,0.0001,-1e-05,-0.00014,-0.00016,2
4342,4498,0.00016999999999999999,8e-05,0.0001,0.00029,0.0001,-1e-05,-0.00014,-0.00016,2
4343,4499,-0.00011999999999999999,0.0,-2e-05,-0.00026000000000000003,-0.00035,0.00016,0.00054,0.00011,2
4344,4500,-8e-05,-0.00011999999999999999,8e-05,0.00023999999999999998,0.0001,0.00013000000000000002,9e-05,0.00042,2
4345,4501,-8e-05,-0.00011999999999999999,8e-05,0.00023999999999999998,0.0001,0.00013000000000000002,9e-05,0.00042,2
4346,4502,-8e-05,-0.00011999999999999999,8e-05,0.00023999999999999998,0.0001,0.00013000000000000002,9e-05,0.00042,2
4347,4503,-8e-05,-0.00011999999999999999,8e-05,0.00023999999999999998,0.0001,0.00013000000000000002,9e-05,0.00042,2
4348,4504,-8e-05,-0.00011999999999999999,8e-05,0.00023999999999999998,0.0001,0.00013000000000000002,9e-05,0.00042,2
4349,4505,-8e-05,-0.00011999999999999999,8e-05,0.00023999999999999998,0.0001,0.00013000000000000002,9e-05,0.00042,2
4350,4506,-8e-05,-0.00011999999999999999,8e-05,0.00023999999999999998,0.0001,0.00013000000000000002,9e-05,0.00042,2
4351,4507,-8e-05,-0.00011999999999999999,8e-05,0.00023999999999999998,0.0001,0.00013000000000000002,9e-05,0.00042,2
4352,4508,-8e-05,-0.00011999999999999999,8e-05,0.00023999999999999998,0.0001,0.00013000000000000002,9e-05,0.00042,2
4353,4509,-8e-05,-0.00011999999999999999,8e-05,0.00023999999999999998,0.0001,0.00013000000000000002,9e-05,0.00042,2
4354,4510,-8e-05,-0.00011999999999999999,8e-05,0.00023999999999999998,0.0001,0.00013000000000000002,9e-05,0.00042,2
4355,4511,-8e-05,-0.00011999999999999999,8e-05,0.00023999999999999998,0.0001,0.00013000000000000002,9e-05,0.00042,2
4356,4512,-8e-05,-0.00011999999999999999,8e-05,0.00023999999999999998,0.0001,0.00013000000000000002,9e-05,0.00042,2
4357,4513,-8e-05,-0.00011999999999999999,8e-05,0.00023999999999999998,0.0001,0.00013000000000000002,9e-05,0.00042,2
4358,4514,-8e-05,-0.00011999999999999999,8e-05,0.00023999999999999998,0.0001,0.00013000000000000002,9e-05,0.00042,2
4359,4515,-8e-05,-0.00011999999999999999,8e-05,0.00023999999999999998,0.0001,0.00013000000000000002,9e-05,0.00042,2
4360,4516,-8e-05,-0.00011999999999999999,8e-05,0.00023999999999999998,0.0001,0.00013000000000000002,9e-05,0.00042,2
4361,4517,-8e-05,-0.00011999999999999999,8e-05,0.00023999999999999998,0.0001,0.00013000000000000002,9e-05,0.00042,2
4362,4518,-8e-05,-0.00011999999999999999,8e-05,0.00023999999999999998,0.0001,0.00013000000000000002,9e-05,0.00042,2
4363,4519,-8e-05,-0.00011999999999999999,8e-05,0.00023999999999999998,0.0001,0.00013000000000000002,9e-05,0.00042,2
4364,4520,-8e-05,-0.00011999999999999999,8e-05,0.00023999999999999998,0.0001,0.00013000000000000002,9e-05,0.00042,2
4365,4521,0.00078,2e-05,-0.00018,-0.00022999999999999998,2e-05,-7e-05,-0.00045999999999999996,0.00079,2
4366,4522,0.00029,0.00013000000000000002,0.00014,-9e-05,-0.00011,-0.00018,0.00022999999999999998,0.0003,2
4367,4523,0.00029,0.00013000000000000002,0.00014,-9e-05,-0.00011,-0.00018,0.00022999999999999998,0.0003,2
4368,4524,0.00029,0.00013000000000000002,0.00014,-9e-05,-0.00011,-0.00018,0.00022999999999999998,0.0003,2
4369,4525,0.00029,0.00013000000000000002,0.00014,-9e-05,-0.00011,-0.00018,0.00022999999999999998,0.0003,2
4370,4526,0.00029,0.00013000000000000002,0.00014,-9e-05,-0.00011,-0.00018,0.00022999999999999998,0.0003,2
4371,4527,0.00029,0.00013000000000000002,0.00014,-9e-05,-0.00011,-0.00018,0.00022999999999999998,0.0003,2
4372,4528,0.00029,0.00013000000000000002,0.00014,-9e-05,-0.00011,-0.00018,0.00022999999999999998,0.0003,2
4373,4529,0.00029,0.00013000000000000002,0.00014,-9e-05,-0.00011,-0.00018,0.00022999999999999998,0.0003,2
4374,4530,0.00029,0.00013000000000000002,0.00014,-9e-05,-0.00011,-0.00018,0.00022999999999999998,0.0003,2
4375,4531,0.00029,0.00013000000000000002,0.00014,-9e-05,-0.00011,-0.00018,0.00022999999999999998,0.0003,2
4376,4532,0.00029,0.00013000000000000002,0.00014,-9e-05,-0.00011,-0.00018,0.00022999999999999998,0.0003,2
4377,4533,0.00029,0.00013000000000000002,0.00014,-9e-05,-0.00011,-0.00018,0.00022999999999999998,0.0003,2
4378,4534,0.00025,0.0,0.00015,9e-05,-0.00018,-0.00028,1e-05,0.00105,2
4379,4535,0.0007700000000000001,0.00016999999999999999,2e-05,-2.9999999999999997e-05,0.00018999999999999998,0.00028,0.00014,0.0007,2
4380,4536,0.0007700000000000001,0.00016999999999999999,2e-05,-2.9999999999999997e-05,0.00018999999999999998,0.00028,0.00014,0.0007,2
4381,4538,0.0007700000000000001,0.00016999999999999999,2e-05,-2.9999999999999997e-05,0.00018999999999999998,0.00028,0.00014,0.0007,2
4382,4539,0.0007700000000000001,0.00016999999999999999,2e-05,-2.9999999999999997e-05,0.00018999999999999998,0.00028,0.00014,0.0007,2
4383,4540,0.0007700000000000001,0.00016999999999999999,2e-05,-2.9999999999999997e-05,0.00018999999999999998,0.00028,0.00014,0.0007,2
4384,4541,0.0007700000000000001,0.00016999999999999999,2e-05,-2.9999999999999997e-05,0.00018999999999999998,0.00028,0.00014,0.0007,2
4385,4542,0.0007700000000000001,0.00016999999999999999,2e-05,-2.9999999999999997e-05,0.00018999999999999998,0.00028,0.00014,0.0007,2
4386,4543,-0.00084,-2.9999999999999997e-05,0.0001,0.0004,5e-05,4e-05,-0.00014,-0.0009,2
4387,4544,-0.00084,-2.9999999999999997e-05,0.0001,0.0004,5e-05,4e-05,-0.00014,-0.0009,2
4388,4545,-0.00084,-2.9999999999999997e-05,0.0001,0.0004,5e-05,4e-05,-0.00014,-0.0009,2
4389,4546,-0.00084,-2.9999999999999997e-05,0.0001,0.0004,5e-05,4e-05,-0.00014,-0.0009,2
4390,4547,-0.00084,-2.9999999999999997e-05,0.0001,0.0004,5e-05,4e-05,-0.00014,-0.0009,2
4391,4548,-0.00084,-2.9999999999999997e-05,0.0001,0.0004,5e-05,4e-05,-0.00014,-0.0009,2
4392,4549,-0.00084,-2.9999999999999997e-05,0.0001,0.0004,5e-05,4e-05,-0.00014,-0.0009,2
4393,4550,-0.00084,-2.9999999999999997e-05,0.0001,0.0004,5e-05,4e-05,-0.00014,-0.0009,2
4394,4551,-0.00084,-2.9999999999999997e-05,0.0001,0.0004,5e-05,4e-05,-0.00014,-0.0009,2
4395,4552,-0.00084,-2.9999999999999997e-05,0.0001,0.0004,5e-05,4e-05,-0.00014,-0.0009,2
4396,4553,-0.00084,-2.9999999999999997e-05,0.0001,0.0004,5e-05,4e-05,-0.00014,-0.0009,2
4397,4554,-0.00084,-2.9999999999999997e-05,0.0001,0.0004,5e-05,4e-05,-0.00014,-0.0009,2
4398,4555,-0.00084,-2.9999999999999997e-05,0.0001,0.0004,5e-05,4e-05,-0.00014,-0.0009,2
4399,4556,-0.00084,-2.9999999999999997e-05,0.0001,0.0004,5e-05,4e-05,-0.00014,-0.0009,2
4400,4557,-0.00084,-2.9999999999999997e-05,0.0001,0.0004,5e-05,4e-05,-0.00014,-0.0009,2
4401,4558,0.0001,8e-05,8e-05,0.00011999999999999999,-0.00018999999999999998,-0.00033999999999999997,0.00016,0.00011,2
4402,4559,0.0001,8e-05,8e-05,0.00011999999999999999,-0.00018999999999999998,-0.00033999999999999997,0.00016,0.00011,2
4403,4560,0.0003,-5.9999999999999995e-05,-8e-05,-0.00013000000000000002,1e-05,-0.00011999999999999999,-0.00016999999999999999,0.0003,2
4404,4561,0.0003,-5.9999999999999995e-05,-8e-05,-0.00013000000000000002,1e-05,-0.00011999999999999999,-0.00016999999999999999,0.0003,2
4405,4562,0.0003,-5.9999999999999995e-05,-8e-05,-0.00013000000000000002,1e-05,-0.00011999999999999999,-0.00016999999999999999,0.0003,2
4406,4563,0.0003,-5.9999999999999995e-05,-8e-05,-0.00013000000000000002,1e-05,-0.00011999999999999999,-0.00016999999999999999,0.0003,2
4407,4564,0.0003,-5.9999999999999995e-05,-8e-05,-0.00013000000000000002,1e-05,-0.00011999999999999999,-0.00016999999999999999,0.0003,2
4408,4565,0.0003,-5.9999999999999995e-05,-8e-05,-0.00013000000000000002,1e-05,-0.00011999999999999999,-0.00016999999999999999,0.0003,2
4409,4566,0.0003,-5.9999999999999995e-05,-8e-05,-0.00013000000000000002,1e-05,-0.00011999999999999999,-0.00016999999999999999,0.0003,2
4410,4567,0.0003,-5.9999999999999995e-05,-8e-05,-0.00013000000000000002,1e-05,-0.00011999999999999999,-0.00016999999999999999,0.0003,2
4411,4568,0.0003,-5.9999999999999995e-05,-8e-05,-0.00013000000000000002,1e-05,-0.00011999999999999999,-0.00016999999999999999,0.0003,2
4412,4569,0.0003,-5.9999999999999995e-05,-8e-05,-0.00013000000000000002,1e-05,-0.00011999999999999999,-0.00016999999999999999,0.0003,2
4413,4570,0.0003,-5.9999999999999995e-05,-8e-05,-0.00013000000000000002,1e-05,-0.00011999999999999999,-0.00016999999999999999,0.0003,2
4414,4571,0.0003,-5.9999999999999995e-05,-8e-05,-0.00013000000000000002,1e-05,-0.00011999999999999999,-0.00016999999999999999,0.0003,2
4415,4572,0.0003,-5.9999999999999995e-05,-8e-05,-0.00013000000000000002,1e-05,-0.00011999999999999999,-0.00016999999999999999,0.0003,2
4416,4573,0.0003,-5.9999999999999995e-05,-8e-05,-0.00013000000000000002,1e-05,-0.00011999999999999999,-0.00016999999999999999,0.0003,2
4417,4574,0.0003,-5.9999999999999995e-05,-8e-05,-0.00013000000000000002,1e-05,-0.00011999999999999999,-0.00016999999999999999,0.0003,2
4418,4575,0.0003,-5.9999999999999995e-05,-8e-05,-0.00013000000000000002,1e-05,-0.00011999999999999999,-0.00016999999999999999,0.0003,2
4419,4576,0.0003,-5.9999999999999995e-05,-8e-05,-0.00013000000000000002,1e-05,-0.00011999999999999999,-0.00016999999999999999,0.0003,2
4420,4577,0.0003,-5.9999999999999995e-05,-8e-05,-0.00013000000000000002,1e-05,-0.00011999999999999999,-0.00016999999999999999,0.0003,2
4421,4578,0.0003,-5.9999999999999995e-05,-8e-05,-0.00013000000000000002,1e-05,-0.00011999999999999999,-0.00016999999999999999,0.0003,2
4422,4579,0.0003,-5.9999999999999995e-05,-8e-05,-0.00013000000000000002,1e-05,-0.00011999999999999999,-0.00016999999999999999,0.0003,2
4423,4580,0.0003,-5.9999999999999995e-05,-8e-05,-0.00013000000000000002,1e-05,-0.00011999999999999999,-0.00016999999999999999,0.0003,2
4424,4581,-0.00035,-0.00022,-0.00011,-0.0004,-0.00025,-0.00023999999999999998,0.00011,0.00047000000000000004,2
4425,4582,-0.00011999999999999999,-2e-05,4e-05,0.00047999999999999996,0.00011999999999999999,9e-05,0.00016999999999999999,-0.0002,2
4426,4583,-0.00011999999999999999,-2e-05,4e-05,0.00047999999999999996,0.00011999999999999999,9e-05,0.00016999999999999999,-0.0002,2
4427,4584,-0.00011999999999999999,-2e-05,4e-05,0.00047999999999999996,0.00011999999999999999,9e-05,0.00016999999999999999,-0.0002,2
4428,4585,-0.00011999999999999999,-2e-05,4e-05,0.00047999999999999996,0.00011999999999999999,9e-05,0.00016999999999999999,-0.0002,2
4429,4586,-0.00011999999999999999,-2e-05,4e-05,0.00047999999999999996,0.00011999999999999999,9e-05,0.00016999999999999999,-0.0002,2
4430,4588,-0.00011999999999999999,-2e-05,4e-05,0.00047999999999999996,0.00011999999999999999,9e-05,0.00016999999999999999,-0.0002,2
4431,4589,-0.00011999999999999999,-2e-05,4e-05,0.00047999999999999996,0.00011999999999999999,9e-05,0.00016999999999999999,-0.0002,2
4432,4590,-0.00011999999999999999,-2e-05,4e-05,0.00047999999999999996,0.00011999999999999999,9e-05,0.00016999999999999999,-0.0002,2
4433,4591,-0.00011999999999999999,-2e-05,4e-05,0.00047999999999999996,0.00011999999999999999,9e-05,0.00016999999999999999,-0.0002,2
4434,4592,-0.00011999999999999999,-2e-05,4e-05,0.00047999999999999996,0.00011999999999999999,9e-05,0.00016999999999999999,-0.0002,2
4435,4593,-0.00011999999999999999,-2e-05,4e-05,0.00047999999999999996,0.00011999999999999999,9e-05,0.00016999999999999999,-0.0002,2
4436,4594,0.00036,1e-05,4e-05,-0.00044,-0.0001,4e-05,-0.00014,0.00044,2
4437,4595,-0.00043,0.0,-0.0001,0.00045,0.00023999999999999998,-2.9999999999999997e-05,-0.00044,-0.0009599999999999999,2
4438,4596,-0.00043,0.0,-0.0001,0.00045,0.00023999999999999998,-2.9999999999999997e-05,-0.00044,-0.0009599999999999999,2
4439,4597,-0.00043,0.0,-0.0001,0.00045,0.00023999999999999998,-2.9999999999999997e-05,-0.00044,-0.0009599999999999999,2
4440,4598,-0.00043,0.0,-0.0001,0.00045,0.00023999999999999998,-2.9999999999999997e-05,-0.00044,-0.0009599999999999999,2
4441,4599,-0.00043,0.0,-0.0001,0.00045,0.00023999999999999998,-2.9999999999999997e-05,-0.00044,-0.0009599999999999999,2
4442,4600,-0.00043,0.0,-0.0001,0.00045,0.00023999999999999998,-2.9999999999999997e-05,-0.00044,-0.0009599999999999999,2
4443,4601,-0.00043,0.0,-0.0001,0.00045,0.00023999999999999998,-2.9999999999999997e-05,-0.00044,-0.0009599999999999999,2
4444,4602,-0.00043,0.0,-0.0001,0.00045,0.00023999999999999998,-2.9999999999999997e-05,-0.00044,-0.0009599999999999999,2
4445,4603,-0.00043,0.0,-0.0001,0.00045,0.00023999999999999998,-2.9999999999999997e-05,-0.00044,-0.0009599999999999999,2
4446,4604,-0.00043,0.0,-0.0001,0.00045,0.00023999999999999998,-2.9999999999999997e-05,-0.00044,-0.0009599999999999999,2
4447,4605,-0.00043,0.0,-0.0001,0.00045,0.00023999999999999998,-2.9999999999999997e-05,-0.00044,-0.0009599999999999999,2
4448,4606,-0.00043,0.0,-0.0001,0.00045,0.00023999999999999998,-2.9999999999999997e-05,-0.00044,-0.0009599999999999999,2
4449,4607,-0.00043,0.0,-0.0001,0.00045,0.00023999999999999998,-2.9999999999999997e-05,-0.00044,-0.0009599999999999999,2
4450,4608,-0.00043,0.0,-0.0001,0.00045,0.00023999999999999998,-2.9999999999999997e-05,-0.00044,-0.0009599999999999999,2
4451,4609,-0.00043,0.0,-0.0001,0.00045,0.00023999999999999998,-2.9999999999999997e-05,-0.00044,-0.0009599999999999999,2
4452,4610,-0.00043,0.0,-0.0001,0.00045,0.00023999999999999998,-2.9999999999999997e-05,-0.00044,-0.0009599999999999999,2
4453,4611,-0.00088,-0.00033999999999999997,-0.00045999999999999996,-0.00072,-4e-05,-5.9999999999999995e-05,-0.00025,-0.00073,2
4454,4612,-0.00088,-0.00033999999999999997,-0.00045999999999999996,-0.00072,-4e-05,-5.9999999999999995e-05,-0.00025,-0.00073,2
4455,4613,-0.00088,-0.00033999999999999997,-0.00045999999999999996,-0.00072,-4e-05,-5.9999999999999995e-05,-0.00025,-0.00073,2
4456,4614,-0.00088,-0.00033999999999999997,-0.00045999999999999996,-0.00072,-4e-05,-5.9999999999999995e-05,-0.00025,-0.00073,2
4457,4615,-0.00088,-0.00033999999999999997,-0.00045999999999999996,-0.00072,-4e-05,-5.9999999999999995e-05,-0.00025,-0.00073,2
4458,4616,-0.00088,-0.00033999999999999997,-0.00045999999999999996,-0.00072,-4e-05,-5.9999999999999995e-05,-0.00025,-0.00073,2
4459,4617,-0.00088,-0.00033999999999999997,-0.00045999999999999996,-0.00072,-4e-05,-5.9999999999999995e-05,-0.00025,-0.00073,2
4460,4618,-0.00047000000000000004,-0.00014,-2.9999999999999997e-05,-0.00013000000000000002,-5.9999999999999995e-05,-0.00022,-2e-05,-0.00074,2
4461,4619,-0.00047000000000000004,-0.00014,-2.9999999999999997e-05,-0.00013000000000000002,-5.9999999999999995e-05,-0.00022,-2e-05,-0.00074,2
4462,4620,-0.00047000000000000004,-0.00014,-2.9999999999999997e-05,-0.00013000000000000002,-5.9999999999999995e-05,-0.00022,-2e-05,-0.00074,2
4463,4621,-0.00047000000000000004,-0.00014,-2.9999999999999997e-05,-0.00013000000000000002,-5.9999999999999995e-05,-0.00022,-2e-05,-0.00074,2
4464,4622,-0.00047000000000000004,-0.00014,-2.9999999999999997e-05,-0.00013000000000000002,-5.9999999999999995e-05,-0.00022,-2e-05,-0.00074,2
4465,4623,-0.00047000000000000004,-0.00014,-2.9999999999999997e-05,-0.00013000000000000002,-5.9999999999999995e-05,-0.00022,-2e-05,-0.00074,2
4466,4624,-0.00047000000000000004,-0.00014,-2.9999999999999997e-05,-0.00013000000000000002,-5.9999999999999995e-05,-0.00022,-2e-05,-0.00074,2
4467,4625,-0.00047000000000000004,-0.00014,-2.9999999999999997e-05,-0.00013000000000000002,-5.9999999999999995e-05,-0.00022,-2e-05,-0.00074,2
4468,4626,-0.00047000000000000004,-0.00014,-2.9999999999999997e-05,-0.00013000000000000002,-5.9999999999999995e-05,-0.00022,-2e-05,-0.00074,2
4469,4627,-0.00047000000000000004,-0.00014,-2.9999999999999997e-05,-0.00013000000000000002,-5.9999999999999995e-05,-0.00022,-2e-05,-0.00074,2
4470,4628,-0.00047000000000000004,-0.00014,-2.9999999999999997e-05,-0.00013000000000000002,-5.9999999999999995e-05,-0.00022,-2e-05,-0.00074,2
4471,4629,-0.00047000000000000004,-0.00014,-2.9999999999999997e-05,-0.00013000000000000002,-5.9999999999999995e-05,-0.00022,-2e-05,-0.00074,2
4472,4630,-0.00047000000000000004,-0.00014,-2.9999999999999997e-05,-0.00013000000000000002,-5.9999999999999995e-05,-0.00022,-2e-05,-0.00074,2
4473,4631,-0.00047000000000000004,-0.00014,-2.9999999999999997e-05,-0.00013000000000000002,-5.9999999999999995e-05,-0.00022,-2e-05,-0.00074,2
4474,4632,-0.00047000000000000004,-0.00014,-2.9999999999999997e-05,-0.00013000000000000002,-5.9999999999999995e-05,-0.00022,-2e-05,-0.00074,2
4475,4633,-0.00047000000000000004,-0.00014,-2.9999999999999997e-05,-0.00013000000000000002,-5.9999999999999995e-05,-0.00022,-2e-05,-0.00074,2
4476,4634,-0.00047000000000000004,-0.00014,-2.9999999999999997e-05,-0.00013000000000000002,-5.9999999999999995e-05,-0.00022,-2e-05,-0.00074,2
4477,4635,-0.00047000000000000004,-0.00014,-2.9999999999999997e-05,-0.00013000000000000002,-5.9999999999999995e-05,-0.00022,-2e-05,-0.00074,2
4478,4636,-0.00047000000000000004,-0.00014,-2.9999999999999997e-05,-0.00013000000000000002,-5.9999999999999995e-05,-0.00022,-2e-05,-0.00074,2
4479,4638,-0.00047000000000000004,-0.00014,-2.9999999999999997e-05,-0.00013000000000000002,-5.9999999999999995e-05,-0.00022,-2e-05,-0.00074,2
4480,4639,-0.00047000000000000004,-0.00014,-2.9999999999999997e-05,-0.00013000000000000002,-5.9999999999999995e-05,-0.00022,-2e-05,-0.00074,2
4481,4640,-0.00047000000000000004,-0.00014,-2.9999999999999997e-05,-0.00013000000000000002,-5.9999999999999995e-05,-0.00022,-2e-05,-0.00074,2
4482,4641,0.00018,4e-05,4e-05,8e-05,-0.00026000000000000003,-0.00033,-7e-05,-2.9999999999999997e-05,2
4483,4642,-0.00033,-9e-05,0.0,-0.00045,-8e-05,0.00014,-0.00018,-0.00028,2
4484,4643,-0.00033,-9e-05,0.0,-0.00045,-8e-05,0.00014,-0.00018,-0.00028,2
4485,4644,-0.00037,-0.00026000000000000003,-7e-05,9e-05,-2.9999999999999997e-05,-8e-05,-1e-05,-0.0004,2
4486,4645,-0.00037,-0.00026000000000000003,-7e-05,9e-05,-2.9999999999999997e-05,-8e-05,-1e-05,-0.0004,2
4487,4646,-0.00037,-0.00026000000000000003,-7e-05,9e-05,-2.9999999999999997e-05,-8e-05,-1e-05,-0.0004,2
4488,4647,-0.00037,-0.00026000000000000003,-7e-05,9e-05,-2.9999999999999997e-05,-8e-05,-1e-05,-0.0004,2
4489,4648,-0.00037,-0.00026000000000000003,-7e-05,9e-05,-2.9999999999999997e-05,-8e-05,-1e-05,-0.0004,2
4490,4649,-0.00037,-0.00026000000000000003,-7e-05,9e-05,-2.9999999999999997e-05,-8e-05,-1e-05,-0.0004,2
4491,4650,-0.00037,-0.00026000000000000003,-7e-05,9e-05,-2.9999999999999997e-05,-8e-05,-1e-05,-0.0004,2
4492,4651,-0.00037,-0.00026000000000000003,-7e-05,9e-05,-2.9999999999999997e-05,-8e-05,-1e-05,-0.0004,2
4493,4652,-0.00037,-0.00026000000000000003,-7e-05,9e-05,-2.9999999999999997e-05,-8e-05,-1e-05,-0.0004,2
4494,4653,-0.00037,-0.00026000000000000003,-7e-05,9e-05,-2.9999999999999997e-05,-8e-05,-1e-05,-0.0004,2
4495,4654,-0.00037,-0.00026000000000000003,-7e-05,9e-05,-2.9999999999999997e-05,-8e-05,-1e-05,-0.0004,2
4496,4655,-0.00037,-0.00026000000000000003,-7e-05,9e-05,-2.9999999999999997e-05,-8e-05,-1e-05,-0.0004,2
4497,4656,-0.00037,-0.00026000000000000003,-7e-05,9e-05,-2.9999999999999997e-05,-8e-05,-1e-05,-0.0004,2
4498,4657,-0.00037,-0.00026000000000000003,-7e-05,9e-05,-2.9999999999999997e-05,-8e-05,-1e-05,-0.0004,2
4499,4658,-0.00037,-0.00026000000000000003,-7e-05,9e-05,-2.9999999999999997e-05,-8e-05,-1e-05,-0.0004,2
4500,4659,-0.00037,-0.00026000000000000003,-7e-05,9e-05,-2.9999999999999997e-05,-8e-05,-1e-05,-0.0004,2
4501,4660,-0.00037,-0.00026000000000000003,-7e-05,9e-05,-2.9999999999999997e-05,-8e-05,-1e-05,-0.0004,2
4502,4661,-0.00037,-0.00026000000000000003,-7e-05,9e-05,-2.9999999999999997e-05,-8e-05,-1e-05,-0.0004,2
4503,4662,-0.00037,-0.00026000000000000003,-7e-05,9e-05,-2.9999999999999997e-05,-8e-05,-1e-05,-0.0004,2
4504,4663,-0.00013000000000000002,0.0,1e-05,-2.9999999999999997e-05,0.0001,0.00018,-5.9999999999999995e-05,-0.00015,2
4505,4664,-0.00013000000000000002,0.0,1e-05,-2.9999999999999997e-05,0.0001,0.00018,-5.9999999999999995e-05,-0.00015,2
4506,4665,-0.00058,-0.00028,-0.00018999999999999998,-4e-05,1e-05,0.00033,-0.0002,-0.00045999999999999996,2
4507,4666,0.00047999999999999996,0.0002,0.00011999999999999999,0.00021,-7e-05,-0.00015,0.0,0.00037999999999999997,2
4508,4667,0.00047999999999999996,0.0002,0.00011999999999999999,0.00021,-7e-05,-0.00015,0.0,0.00037999999999999997,2
4509,4668,0.00047999999999999996,0.0002,0.00011999999999999999,0.00021,-7e-05,-0.00015,0.0,0.00037999999999999997,2
4510,4669,0.00047999999999999996,0.0002,0.00011999999999999999,0.00021,-7e-05,-0.00015,0.0,0.00037999999999999997,2
4511,4670,0.00047999999999999996,0.0002,0.00011999999999999999,0.00021,-7e-05,-0.00015,0.0,0.00037999999999999997,2
4512,4671,0.00047999999999999996,0.0002,0.00011999999999999999,0.00021,-7e-05,-0.00015,0.0,0.00037999999999999997,2
4513,4672,0.00047999999999999996,0.0002,0.00011999999999999999,0.00021,-7e-05,-0.00015,0.0,0.00037999999999999997,2
4514,4673,0.00047999999999999996,0.0002,0.00011999999999999999,0.00021,-7e-05,-0.00015,0.0,0.00037999999999999997,2
4515,4674,0.00047999999999999996,0.0002,0.00011999999999999999,0.00021,-7e-05,-0.00015,0.0,0.00037999999999999997,2
4516,4675,0.00047999999999999996,0.0002,0.00011999999999999999,0.00021,-7e-05,-0.00015,0.0,0.00037999999999999997,2
4517,4676,0.00047999999999999996,0.0002,0.00011999999999999999,0.00021,-7e-05,-0.00015,0.0,0.00037999999999999997,2
4518,4677,0.00047999999999999996,0.0002,0.00011999999999999999,0.00021,-7e-05,-0.00015,0.0,0.00037999999999999997,2
4519,4678,-0.00014,-2.9999999999999997e-05,0.0,9e-05,-2e-05,-0.00016,-5e-05,-0.00037999999999999997,2
4520,4679,-0.00014,-2.9999999999999997e-05,0.0,9e-05,-2e-05,-0.00016,-5e-05,-0.00037999999999999997,2
4521,4680,0.00064,2.9999999999999997e-05,-4e-05,0.00029,0.00029,0.00018,0.0001,0.00093,2
4522,4681,0.00064,2.9999999999999997e-05,-4e-05,0.00029,0.00029,0.00018,0.0001,0.00093,2
4523,4682,0.00064,2.9999999999999997e-05,-4e-05,0.00029,0.00029,0.00018,0.0001,0.00093,2
4524,4683,0.00064,2.9999999999999997e-05,-4e-05,0.00029,0.00029,0.00018,0.0001,0.00093,2
4525,4684,0.00064,2.9999999999999997e-05,-4e-05,0.00029,0.00029,0.00018,0.0001,0.00093,2
4526,4685,0.00064,2.9999999999999997e-05,-4e-05,0.00029,0.00029,0.00018,0.0001,0.00093,2
4527,4686,0.00064,2.9999999999999997e-05,-4e-05,0.00029,0.00029,0.00018,0.0001,0.00093,2
4528,4688,0.00064,2.9999999999999997e-05,-4e-05,0.00029,0.00029,0.00018,0.0001,0.00093,2
4529,4689,0.00064,2.9999999999999997e-05,-4e-05,0.00029,0.00029,0.00018,0.0001,0.00093,2
4530,4690,0.00064,2.9999999999999997e-05,-4e-05,0.00029,0.00029,0.00018,0.0001,0.00093,2
4531,4691,0.00064,2.9999999999999997e-05,-4e-05,0.00029,0.00029,0.00018,0.0001,0.00093,2
4532,4692,0.00064,2.9999999999999997e-05,-4e-05,0.00029,0.00029,0.00018,0.0001,0.00093,2
4533,4693,0.00064,2.9999999999999997e-05,-4e-05,0.00029,0.00029,0.00018,0.0001,0.00093,2
4534,4694,0.00064,2.9999999999999997e-05,-4e-05,0.00029,0.00029,0.00018,0.0001,0.00093,2
4535,4695,0.00064,2.9999999999999997e-05,-4e-05,0.00029,0.00029,0.00018,0.0001,0.00093,2
4536,4696,0.00064,2.9999999999999997e-05,-4e-05,0.00029,0.00029,0.00018,0.0001,0.00093,2
4537,4697,0.00064,2.9999999999999997e-05,-4e-05,0.00029,0.00029,0.00018,0.0001,0.00093,2
4538,4698,0.00064,2.9999999999999997e-05,-4e-05,0.00029,0.00029,0.00018,0.0001,0.00093,2
4539,4699,0.00064,2.9999999999999997e-05,-4e-05,0.00029,0.00029,0.00018,0.0001,0.00093,2
4540,4700,0.00064,2.9999999999999997e-05,-4e-05,0.00029,0.00029,0.00018,0.0001,0.00093,2
4541,4701,2e-05,0.00011999999999999999,0.00022,0.00074,7e-05,-0.00029,-0.00016,-0.00028,2
4542,4702,0.00018999999999999998,1e-05,-0.00018999999999999998,-0.00025,0.00018999999999999998,1e-05,0.0002,0.00055,2
4543,4703,0.00018999999999999998,1e-05,-0.00018999999999999998,-0.00025,0.00018999999999999998,1e-05,0.0002,0.00055,2
4544,4704,0.00018999999999999998,1e-05,-0.00018999999999999998,-0.00025,0.00018999999999999998,1e-05,0.0002,0.00055,2
4545,4705,0.00018999999999999998,1e-05,-0.00018999999999999998,-0.00025,0.00018999999999999998,1e-05,0.0002,0.00055,2
4546,4706,0.00018999999999999998,1e-05,-0.00018999999999999998,-0.00025,0.00018999999999999998,1e-05,0.0002,0.00055,2
4547,4707,0.00018999999999999998,1e-05,-0.00018999999999999998,-0.00025,0.00018999999999999998,1e-05,0.0002,0.00055,2
4548,4708,0.00018999999999999998,1e-05,-0.00018999999999999998,-0.00025,0.00018999999999999998,1e-05,0.0002,0.00055,2
4549,4709,0.00018999999999999998,1e-05,-0.00018999999999999998,-0.00025,0.00018999999999999998,1e-05,0.0002,0.00055,2
4550,4710,0.00018999999999999998,1e-05,-0.00018999999999999998,-0.00025,0.00018999999999999998,1e-05,0.0002,0.00055,2
4551,4711,0.00018999999999999998,1e-05,-0.00018999999999999998,-0.00025,0.00018999999999999998,1e-05,0.0002,0.00055,2
4552,4712,0.00018999999999999998,1e-05,-0.00018999999999999998,-0.00025,0.00018999999999999998,1e-05,0.0002,0.00055,2
4553,4713,0.00018999999999999998,1e-05,-0.00018999999999999998,-0.00025,0.00018999999999999998,1e-05,0.0002,0.00055,2
4554,4714,0.00018999999999999998,1e-05,-0.00018999999999999998,-0.00025,0.00018999999999999998,1e-05,0.0002,0.00055,2
4555,4715,0.00018999999999999998,1e-05,-0.00018999999999999998,-0.00025,0.00018999999999999998,1e-05,0.0002,0.00055,2
4556,4716,0.00018999999999999998,1e-05,-0.00018999999999999998,-0.00025,0.00018999999999999998,1e-05,0.0002,0.00055,2
4557,4717,0.00018999999999999998,1e-05,-0.00018999999999999998,-0.00025,0.00018999999999999998,1e-05,0.0002,0.00055,2
4558,4718,0.00018999999999999998,1e-05,-0.00018999999999999998,-0.00025,0.00018999999999999998,1e-05,0.0002,0.00055,2
4559,4719,0.00018999999999999998,1e-05,-0.00018999999999999998,-0.00025,0.00018999999999999998,1e-05,0.0002,0.00055,2
4560,4720,0.00018999999999999998,1e-05,-0.00018999999999999998,-0.00025,0.00018999999999999998,1e-05,0.0002,0.00055,2
4561,4721,0.00018999999999999998,1e-05,-0.00018999999999999998,-0.00025,0.00018999999999999998,1e-05,0.0002,0.00055,2
4562,4722,0.00018999999999999998,1e-05,-0.00018999999999999998,-0.00025,0.00018999999999999998,1e-05,0.0002,0.00055,2
4563,4723,8e-05,1e-05,7e-05,0.00059,9e-05,0.00025,-0.0002,-0.00066,2
4564,4724,8e-05,1e-05,7e-05,0.00059,9e-05,0.00025,-0.0002,-0.00066,2
4565,4725,-0.00021,1e-05,-2.9999999999999997e-05,-0.0004,-0.00011999999999999999,0.00013000000000000002,7e-05,-7e-05,2
4566,4726,-0.00021,1e-05,-2.9999999999999997e-05,-0.0004,-0.00011999999999999999,0.00013000000000000002,7e-05,-7e-05,2
4567,4727,-0.00021,1e-05,-2.9999999999999997e-05,-0.0004,-0.00011999999999999999,0.00013000000000000002,7e-05,-7e-05,2
4568,4728,-0.00021,1e-05,-2.9999999999999997e-05,-0.0004,-0.00011999999999999999,0.00013000000000000002,7e-05,-7e-05,2
4569,4729,-0.00021,1e-05,-2.9999999999999997e-05,-0.0004,-0.00011999999999999999,0.00013000000000000002,7e-05,-7e-05,2
4570,4730,-0.00021,1e-05,-2.9999999999999997e-05,-0.0004,-0.00011999999999999999,0.00013000000000000002,7e-05,-7e-05,2
4571,4731,-0.00021,1e-05,-2.9999999999999997e-05,-0.0004,-0.00011999999999999999,0.00013000000000000002,7e-05,-7e-05,2
4572,4732,-0.00021,1e-05,-2.9999999999999997e-05,-0.0004,-0.00011999999999999999,0.00013000000000000002,7e-05,-7e-05,2
4573,4733,-0.00021,1e-05,-2.9999999999999997e-05,-0.0004,-0.00011999999999999999,0.00013000000000000002,7e-05,-7e-05,2
4574,4734,-0.00021,1e-05,-2.9999999999999997e-05,-0.0004,-0.00011999999999999999,0.00013000000000000002,7e-05,-7e-05,2
4575,4735,-0.00021,1e-05,-2.9999999999999997e-05,-0.0004,-0.00011999999999999999,0.00013000000000000002,7e-05,-7e-05,2
4576,4736,-0.00021,1e-05,-2.9999999999999997e-05,-0.0004,-0.00011999999999999999,0.00013000000000000002,7e-05,-7e-05,2
4577,4738,-0.00045,-0.00022,-8e-05,5.9999999999999995e-05,5.9999999999999995e-05,-9e-05,-0.00016999999999999999,-0.00018,2
4578,4739,-0.00045,-0.00022,-8e-05,5.9999999999999995e-05,5.9999999999999995e-05,-9e-05,-0.00016999999999999999,-0.00018,2
4579,4740,-0.0002,-1e-05,-2e-05,0.00026000000000000003,0.00016999999999999999,0.00025,0.00016999999999999999,-0.00021,2
4580,4741,-0.0002,-1e-05,-2e-05,0.00026000000000000003,0.00016999999999999999,0.00025,0.00016999999999999999,-0.00021,2
4581,4742,-0.0002,-1e-05,-2e-05,0.00026000000000000003,0.00016999999999999999,0.00025,0.00016999999999999999,-0.00021,2
4582,4743,-0.0002,-1e-05,-2e-05,0.00026000000000000003,0.00016999999999999999,0.00025,0.00016999999999999999,-0.00021,2
4583,4744,-0.0002,-1e-05,-2e-05,0.00026000000000000003,0.00016999999999999999,0.00025,0.00016999999999999999,-0.00021,2
4584,4745,-0.0002,-1e-05,-2e-05,0.00026000000000000003,0.00016999999999999999,0.00025,0.00016999999999999999,-0.00021,2
4585,4746,-0.0002,-1e-05,-2e-05,0.00026000000000000003,0.00016999999999999999,0.00025,0.00016999999999999999,-0.00021,2
4586,4747,-0.0002,-1e-05,-2e-05,0.00026000000000000003,0.00016999999999999999,0.00025,0.00016999999999999999,-0.00021,2
4587,4748,-0.0002,-1e-05,-2e-05,0.00026000000000000003,0.00016999999999999999,0.00025,0.00016999999999999999,-0.00021,2
4588,4749,-0.0002,-1e-05,-2e-05,0.00026000000000000003,0.00016999999999999999,0.00025,0.00016999999999999999,-0.00021,2
4589,4750,-0.0002,-1e-05,-2e-05,0.00026000000000000003,0.00016999999999999999,0.00025,0.00016999999999999999,-0.00021,2
4590,4751,-0.0002,-1e-05,-2e-05,0.00026000000000000003,0.00016999999999999999,0.00025,0.00016999999999999999,-0.00021,2
4591,4752,-0.0002,-1e-05,-2e-05,0.00026000000000000003,0.00016999999999999999,0.00025,0.00016999999999999999,-0.00021,2
4592,4753,-0.0002,-1e-05,-2e-05,0.00026000000000000003,0.00016999999999999999,0.00025,0.00016999999999999999,-0.00021,2
4593,4754,-0.0002,-1e-05,-2e-05,0.00026000000000000003,0.00016999999999999999,0.00025,0.00016999999999999999,-0.00021,2
4594,4755,-0.0002,-1e-05,-2e-05,0.00026000000000000003,0.00016999999999999999,0.00025,0.00016999999999999999,-0.00021,2
4595,4756,-0.0002,-1e-05,-2e-05,0.00026000000000000003,0.00016999999999999999,0.00025,0.00016999999999999999,-0.00021,2
4596,4757,-0.0002,-1e-05,-2e-05,0.00026000000000000003,0.00016999999999999999,0.00025,0.00016999999999999999,-0.00021,2
4597,4758,-0.0002,-1e-05,-2e-05,0.00026000000000000003,0.00016999999999999999,0.00025,0.00016999999999999999,-0.00021,2
4598,4759,-0.0002,-1e-05,-2e-05,0.00026000000000000003,0.00016999999999999999,0.00025,0.00016999999999999999,-0.00021,2
4599,4760,-0.0002,-1e-05,-2e-05,0.00026000000000000003,0.00016999999999999999,0.00025,0.00016999999999999999,-0.00021,2
4600,4761,0.00047000000000000004,0.00011999999999999999,5e-05,-0.00013000000000000002,-0.00014,-0.00016,0.0002,0.00082,2
4601,4762,-0.00013000000000000002,-5.9999999999999995e-05,-5.9999999999999995e-05,0.0001,-0.00022,-0.00061,-0.00015,-0.00037999999999999997,2
4602,4763,-0.00013000000000000002,-5.9999999999999995e-05,-5.9999999999999995e-05,0.0001,-0.00022,-0.00061,-0.00015,-0.00037999999999999997,2
4603,4764,-0.00013000000000000002,-5.9999999999999995e-05,-5.9999999999999995e-05,0.0001,-0.00022,-0.00061,-0.00015,-0.00037999999999999997,2
4604,4765,-0.00013000000000000002,-5.9999999999999995e-05,-5.9999999999999995e-05,0.0001,-0.00022,-0.00061,-0.00015,-0.00037999999999999997,2
4605,4766,-0.00013000000000000002,-5.9999999999999995e-05,-5.9999999999999995e-05,0.0001,-0.00022,-0.00061,-0.00015,-0.00037999999999999997,2
4606,4767,-0.00013000000000000002,-5.9999999999999995e-05,-5.9999999999999995e-05,0.0001,-0.00022,-0.00061,-0.00015,-0.00037999999999999997,2
4607,4768,-0.00013000000000000002,-5.9999999999999995e-05,-5.9999999999999995e-05,0.0001,-0.00022,-0.00061,-0.00015,-0.00037999999999999997,2
4608,4769,-0.00013000000000000002,-5.9999999999999995e-05,-5.9999999999999995e-05,0.0001,-0.00022,-0.00061,-0.00015,-0.00037999999999999997,2
4609,4770,-0.00013000000000000002,-5.9999999999999995e-05,-5.9999999999999995e-05,0.0001,-0.00022,-0.00061,-0.00015,-0.00037999999999999997,2
4610,4771,-0.00013000000000000002,-5.9999999999999995e-05,-5.9999999999999995e-05,0.0001,-0.00022,-0.00061,-0.00015,-0.00037999999999999997,2
4611,4772,-0.00013000000000000002,-5.9999999999999995e-05,-5.9999999999999995e-05,0.0001,-0.00022,-0.00061,-0.00015,-0.00037999999999999997,2
4612,4773,-0.00013000000000000002,-5.9999999999999995e-05,-5.9999999999999995e-05,0.0001,-0.00022,-0.00061,-0.00015,-0.00037999999999999997,2
4613,4774,-0.00013000000000000002,-5.9999999999999995e-05,-5.9999999999999995e-05,0.0001,-0.00022,-0.00061,-0.00015,-0.00037999999999999997,2
4614,4775,-0.00013000000000000002,-5.9999999999999995e-05,-5.9999999999999995e-05,0.0001,-0.00022,-0.00061,-0.00015,-0.00037999999999999997,2
4615,4776,-0.00013000000000000002,-5.9999999999999995e-05,-5.9999999999999995e-05,0.0001,-0.00022,-0.00061,-0.00015,-0.00037999999999999997,2
4616,4777,-0.00013000000000000002,-5.9999999999999995e-05,-5.9999999999999995e-05,0.0001,-0.00022,-0.00061,-0.00015,-0.00037999999999999997,2
4617,4778,-0.00013000000000000002,-5.9999999999999995e-05,-5.9999999999999995e-05,0.0001,-0.00022,-0.00061,-0.00015,-0.00037999999999999997,2
4618,4779,-0.00013000000000000002,-5.9999999999999995e-05,-5.9999999999999995e-05,0.0001,-0.00022,-0.00061,-0.00015,-0.00037999999999999997,2
4619,4780,-0.00013000000000000002,-5.9999999999999995e-05,-5.9999999999999995e-05,0.0001,-0.00022,-0.00061,-0.00015,-0.00037999999999999997,2
4620,4781,-0.00013000000000000002,-5.9999999999999995e-05,-5.9999999999999995e-05,0.0001,-0.00022,-0.00061,-0.00015,-0.00037999999999999997,2
4621,4782,-0.00013000000000000002,-5.9999999999999995e-05,-5.9999999999999995e-05,0.0001,-0.00022,-0.00061,-0.00015,-0.00037999999999999997,2
4622,4783,0.00033999999999999997,0.0001,0.0,-0.00037999999999999997,-0.0002,0.00027,0.00037,0.00033999999999999997,2
4623,4784,0.00033999999999999997,0.0001,0.0,-0.00037999999999999997,-0.0002,0.00027,0.00037,0.00033999999999999997,2
4624,4785,0.0001,2.9999999999999997e-05,5.9999999999999995e-05,-1e-05,-5.9999999999999995e-05,-0.00016,-5e-05,0.00011,2
4625,4786,0.0001,2.9999999999999997e-05,5.9999999999999995e-05,-1e-05,-5.9999999999999995e-05,-0.00016,-5e-05,0.00011,2
4626,4788,0.0001,2.9999999999999997e-05,5.9999999999999995e-05,-1e-05,-5.9999999999999995e-05,-0.00016,-5e-05,0.00011,2
4627,4789,0.0001,2.9999999999999997e-05,5.9999999999999995e-05,-1e-05,-5.9999999999999995e-05,-0.00016,-5e-05,0.00011,2
4628,4790,0.0001,2.9999999999999997e-05,5.9999999999999995e-05,-1e-05,-5.9999999999999995e-05,-0.00016,-5e-05,0.00011,2
4629,4791,0.0001,2.9999999999999997e-05,5.9999999999999995e-05,-1e-05,-5.9999999999999995e-05,-0.00016,-5e-05,0.00011,2
4630,4792,0.0001,2.9999999999999997e-05,5.9999999999999995e-05,-1e-05,-5.9999999999999995e-05,-0.00016,-5e-05,0.00011,2
4631,4793,0.0001,2.9999999999999997e-05,5.9999999999999995e-05,-1e-05,-5.9999999999999995e-05,-0.00016,-5e-05,0.00011,2
4632,4794,0.0001,2.9999999999999997e-05,5.9999999999999995e-05,-1e-05,-5.9999999999999995e-05,-0.00016,-5e-05,0.00011,2
4633,4795,0.0001,2.9999999999999997e-05,5.9999999999999995e-05,-1e-05,-5.9999999999999995e-05,-0.00016,-5e-05,0.00011,2
4634,4796,0.0001,2.9999999999999997e-05,5.9999999999999995e-05,-1e-05,-5.9999999999999995e-05,-0.00016,-5e-05,0.00011,2
4635,4797,0.0001,2.9999999999999997e-05,5.9999999999999995e-05,-1e-05,-5.9999999999999995e-05,-0.00016,-5e-05,0.00011,2
4636,4798,-0.00045,-0.00016,-0.00018999999999999998,0.00023999999999999998,0.00039,2.9999999999999997e-05,-2.9999999999999997e-05,-0.00062,2
4637,4799,-0.00045,-0.00016,-0.00018999999999999998,0.00023999999999999998,0.00039,2.9999999999999997e-05,-2.9999999999999997e-05,-0.00062,2
4638,4800,-0.00045,-0.00016,-0.00018999999999999998,0.00023999999999999998,0.00039,2.9999999999999997e-05,-2.9999999999999997e-05,-0.00062,2
4639,4801,-0.00045,-0.00016,-0.00018999999999999998,0.00023999999999999998,0.00039,2.9999999999999997e-05,-2.9999999999999997e-05,-0.00062,2
4640,4802,-0.00045,-0.00016,-0.00018999999999999998,0.00023999999999999998,0.00039,2.9999999999999997e-05,-2.9999999999999997e-05,-0.00062,2
4641,4803,-0.00045,-0.00016,-0.00018999999999999998,0.00023999999999999998,0.00039,2.9999999999999997e-05,-2.9999999999999997e-05,-0.00062,2
4642,4804,0.00043,0.00011999999999999999,5e-05,7e-05,-0.00016,0.00014,0.00021,0.00043,2
4643,4805,0.00043,0.00011999999999999999,5e-05,7e-05,-0.00016,0.00014,0.00021,0.00043,2
4644,4806,0.00043,0.00011999999999999999,5e-05,7e-05,-0.00016,0.00014,0.00021,0.00043,2
4645,4807,0.00043,0.00011999999999999999,5e-05,7e-05,-0.00016,0.00014,0.00021,0.00043,2
4646,4808,0.00043,0.00011999999999999999,5e-05,7e-05,-0.00016,0.00014,0.00021,0.00043,2
4647,4809,0.00043,0.00011999999999999999,5e-05,7e-05,-0.00016,0.00014,0.00021,0.00043,2
4648,4810,0.00043,0.00011999999999999999,5e-05,7e-05,-0.00016,0.00014,0.00021,0.00043,2
4649,4811,0.00043,0.00011999999999999999,5e-05,7e-05,-0.00016,0.00014,0.00021,0.00043,2
4650,4812,0.00043,0.00011999999999999999,5e-05,7e-05,-0.00016,0.00014,0.00021,0.00043,2
4651,4813,0.00043,0.00011999999999999999,5e-05,7e-05,-0.00016,0.00014,0.00021,0.00043,2
4652,4814,0.00043,0.00011999999999999999,5e-05,7e-05,-0.00016,0.00014,0.00021,0.00043,2
4653,4815,0.00043,0.00011999999999999999,5e-05,7e-05,-0.00016,0.00014,0.00021,0.00043,2
4654,4816,0.00043,0.00011999999999999999,5e-05,7e-05,-0.00016,0.00014,0.00021,0.00043,2
4655,4817,0.00043,0.00011999999999999999,5e-05,7e-05,-0.00016,0.00014,0.00021,0.00043,2
4656,4818,0.00043,0.00011999999999999999,5e-05,7e-05,-0.00016,0.00014,0.00021,0.00043,2
4657,4819,0.00043,0.00011999999999999999,5e-05,7e-05,-0.00016,0.00014,0.00021,0.00043,2
4658,4820,0.00043,0.00011999999999999999,5e-05,7e-05,-0.00016,0.00014,0.00021,0.00043,2
4659,4821,-0.00043,-8e-05,-4e-05,-0.00025,-0.00013000000000000002,-0.00042,7e-05,-0.0002,2
4660,4822,-0.00043,-8e-05,-4e-05,-0.00025,-0.00013000000000000002,-0.00042,7e-05,-0.0002,2
4661,4823,0.00061,0.00013000000000000002,4e-05,-0.00027,-0.00011999999999999999,2e-05,8e-05,0.0007,2
4662,4824,0.00061,0.00013000000000000002,4e-05,-0.00027,-0.00011999999999999999,2e-05,8e-05,0.0007,2
4663,4825,0.00061,0.00013000000000000002,4e-05,-0.00027,-0.00011999999999999999,2e-05,8e-05,0.0007,2
4664,4826,0.00061,0.00013000000000000002,4e-05,-0.00027,-0.00011999999999999999,2e-05,8e-05,0.0007,2
4665,4827,0.00061,0.00013000000000000002,4e-05,-0.00027,-0.00011999999999999999,2e-05,8e-05,0.0007,2
4666,4828,0.00061,0.00013000000000000002,4e-05,-0.00027,-0.00011999999999999999,2e-05,8e-05,0.0007,2
4667,4829,0.00061,0.00013000000000000002,4e-05,-0.00027,-0.00011999999999999999,2e-05,8e-05,0.0007,2
4668,4830,0.00061,0.00013000000000000002,4e-05,-0.00027,-0.00011999999999999999,2e-05,8e-05,0.0007,2
4669,4831,0.00061,0.00013000000000000002,4e-05,-0.00027,-0.00011999999999999999,2e-05,8e-05,0.0007,2
4670,4832,0.00061,0.00013000000000000002,4e-05,-0.00027,-0.00011999999999999999,2e-05,8e-05,0.0007,2
4671,4833,0.00061,0.00013000000000000002,4e-05,-0.00027,-0.00011999999999999999,2e-05,8e-05,0.0007,2
4672,4834,0.00061,0.00013000000000000002,4e-05,-0.00027,-0.00011999999999999999,2e-05,8e-05,0.0007,2
4673,4835,0.00061,0.00013000000000000002,4e-05,-0.00027,-0.00011999999999999999,2e-05,8e-05,0.0007,2
4674,4836,0.00061,0.00013000000000000002,4e-05,-0.00027,-0.00011999999999999999,2e-05,8e-05,0.0007,2
4675,4838,0.00061,0.00013000000000000002,4e-05,-0.00027,-0.00011999999999999999,2e-05,8e-05,0.0007,2
4676,4839,0.00061,0.00013000000000000002,4e-05,-0.00027,-0.00011999999999999999,2e-05,8e-05,0.0007,2
4677,4840,0.00061,0.00013000000000000002,4e-05,-0.00027,-0.00011999999999999999,2e-05,8e-05,0.0007,2
4678,4841,0.00061,0.00013000000000000002,4e-05,-0.00027,-0.00011999999999999999,2e-05,8e-05,0.0007,2
4679,4842,0.00061,0.00013000000000000002,4e-05,-0.00027,-0.00011999999999999999,2e-05,8e-05,0.0007,2
4680,4843,0.00061,0.00013000000000000002,4e-05,-0.00027,-0.00011999999999999999,2e-05,8e-05,0.0007,2
4681,4844,0.00053,0.00013000000000000002,-0.0001,-0.00042,0.00011999999999999999,0.00022,-9e-05,0.00027,2
4682,4845,0.00053,0.00013000000000000002,-0.0001,-0.00042,0.00011999999999999999,0.00022,-9e-05,0.00027,2
4683,4846,0.00053,0.00013000000000000002,-0.0001,-0.00042,0.00011999999999999999,0.00022,-9e-05,0.00027,2
4684,4847,0.00053,0.00013000000000000002,-0.0001,-0.00042,0.00011999999999999999,0.00022,-9e-05,0.00027,2
4685,4848,0.00053,0.00013000000000000002,-0.0001,-0.00042,0.00011999999999999999,0.00022,-9e-05,0.00027,2
4686,4849,-0.00013000000000000002,-9e-05,-5e-05,0.00033999999999999997,0.00016,-5e-05,0.00031,-0.00029,2
4687,4850,-0.00015,7e-05,0.00016999999999999999,-0.00011,-5e-05,-5.9999999999999995e-05,-0.00022,-0.0003,2
4688,4851,-0.00015,7e-05,0.00016999999999999999,-0.00011,-5e-05,-5.9999999999999995e-05,-0.00022,-0.0003,2
4689,4852,-0.00015,7e-05,0.00016999999999999999,-0.00011,-5e-05,-5.9999999999999995e-05,-0.00022,-0.0003,2
4690,4853,-0.00015,7e-05,0.00016999999999999999,-0.00011,-5e-05,-5.9999999999999995e-05,-0.00022,-0.0003,2
4691,4854,-0.00015,7e-05,0.00016999999999999999,-0.00011,-5e-05,-5.9999999999999995e-05,-0.00022,-0.0003,2
4692,4855,-0.00015,7e-05,0.00016999999999999999,-0.00011,-5e-05,-5.9999999999999995e-05,-0.00022,-0.0003,2
4693,4856,-0.00015,7e-05,0.00016999999999999999,-0.00011,-5e-05,-5.9999999999999995e-05,-0.00022,-0.0003,2
4694,4857,-0.00015,7e-05,0.00016999999999999999,-0.00011,-5e-05,-5.9999999999999995e-05,-0.00022,-0.0003,2
4695,4858,-0.00015,7e-05,0.00016999999999999999,-0.00011,-5e-05,-5.9999999999999995e-05,-0.00022,-0.0003,2
4696,4859,-0.00015,7e-05,0.00016999999999999999,-0.00011,-5e-05,-5.9999999999999995e-05,-0.00022,-0.0003,2
4697,4860,-0.00015,7e-05,0.00016999999999999999,-0.00011,-5e-05,-5.9999999999999995e-05,-0.00022,-0.0003,2
4698,4861,-0.00015,7e-05,0.00016999999999999999,-0.00011,-5e-05,-5.9999999999999995e-05,-0.00022,-0.0003,2
4699,4862,-0.00015,7e-05,0.00016999999999999999,-0.00011,-5e-05,-5.9999999999999995e-05,-0.00022,-0.0003,2
4700,4863,-0.00015,7e-05,0.00016999999999999999,-0.00011,-5e-05,-5.9999999999999995e-05,-0.00022,-0.0003,2
4701,4864,-0.00015,7e-05,0.00016999999999999999,-0.00011,-5e-05,-5.9999999999999995e-05,-0.00022,-0.0003,2
4702,4865,-0.00015,7e-05,0.00016999999999999999,-0.00011,-5e-05,-5.9999999999999995e-05,-0.00022,-0.0003,2
4703,4866,5e-05,-2.9999999999999997e-05,4e-05,0.00014,-7e-05,-0.00025,0.00033999999999999997,0.00045999999999999996,2
4704,4867,0.00014,2.9999999999999997e-05,7e-05,0.0004,0.00011,-1e-05,-0.00018999999999999998,9e-05,2
4705,4868,0.00014,2.9999999999999997e-05,7e-05,0.0004,0.00011,-1e-05,-0.00018999999999999998,9e-05,2
4706,4869,0.00014,2.9999999999999997e-05,7e-05,0.0004,0.00011,-1e-05,-0.00018999999999999998,9e-05,2
4707,4870,0.00014,2.9999999999999997e-05,7e-05,0.0004,0.00011,-1e-05,-0.00018999999999999998,9e-05,2
4708,4871,0.00014,2.9999999999999997e-05,7e-05,0.0004,0.00011,-1e-05,-0.00018999999999999998,9e-05,2
4709,4872,0.00014,2.9999999999999997e-05,7e-05,0.0004,0.00011,-1e-05,-0.00018999999999999998,9e-05,2
4710,4873,0.00014,2.9999999999999997e-05,7e-05,0.0004,0.00011,-1e-05,-0.00018999999999999998,9e-05,2
4711,4874,0.00014,2.9999999999999997e-05,7e-05,0.0004,0.00011,-1e-05,-0.00018999999999999998,9e-05,2
4712,4875,0.00014,2.9999999999999997e-05,7e-05,0.0004,0.00011,-1e-05,-0.00018999999999999998,9e-05,2
4713,4876,0.00014,2.9999999999999997e-05,7e-05,0.0004,0.00011,-1e-05,-0.00018999999999999998,9e-05,2
4714,4877,0.00014,2.9999999999999997e-05,7e-05,0.0004,0.00011,-1e-05,-0.00018999999999999998,9e-05,2
4715,4878,0.00014,2.9999999999999997e-05,7e-05,0.0004,0.00011,-1e-05,-0.00018999999999999998,9e-05,2
4716,4879,0.00014,2.9999999999999997e-05,7e-05,0.0004,0.00011,-1e-05,-0.00018999999999999998,9e-05,2
4717,4880,0.00014,2.9999999999999997e-05,7e-05,0.0004,0.00011,-1e-05,-0.00018999999999999998,9e-05,2
4718,4881,0.00014,2.9999999999999997e-05,7e-05,0.0004,0.00011,-1e-05,-0.00018999999999999998,9e-05,2
4719,4882,0.00014,2.9999999999999997e-05,7e-05,0.0004,0.00011,-1e-05,-0.00018999999999999998,9e-05,2
4720,4883,0.00014,2.9999999999999997e-05,7e-05,0.0004,0.00011,-1e-05,-0.00018999999999999998,9e-05,2
4721,4884,0.00014,2.9999999999999997e-05,7e-05,0.0004,0.00011,-1e-05,-0.00018999999999999998,9e-05,2
4722,4885,0.00014,2.9999999999999997e-05,7e-05,0.0004,0.00011,-1e-05,-0.00018999999999999998,9e-05,2
4723,4886,0.00014,2.9999999999999997e-05,7e-05,0.0004,0.00011,-1e-05,-0.00018999999999999998,9e-05,2
4724,4888,0.0,-0.00011999999999999999,-0.00011,-0.0006,-0.00023999999999999998,-5e-05,0.00036,0.00037999999999999997,2
4725,4889,0.0,-0.00011999999999999999,-0.00011,-0.0006,-0.00023999999999999998,-5e-05,0.00036,0.00037999999999999997,2
4726,4890,0.0,-0.00011999999999999999,-0.00011,-0.0006,-0.00023999999999999998,-5e-05,0.00036,0.00037999999999999997,2
4727,4891,0.0,-0.00011999999999999999,-0.00011,-0.0006,-0.00023999999999999998,-5e-05,0.00036,0.00037999999999999997,2
4728,4892,0.0,-0.00011999999999999999,-0.00011,-0.0006,-0.00023999999999999998,-5e-05,0.00036,0.00037999999999999997,2
4729,4893,0.0,-0.00011999999999999999,-0.00011,-0.0006,-0.00023999999999999998,-5e-05,0.00036,0.00037999999999999997,2
4730,4894,0.0,-0.00011999999999999999,-0.00011,-0.0006,-0.00023999999999999998,-5e-05,0.00036,0.00037999999999999997,2
4731,4895,0.0,-0.00011999999999999999,-0.00011,-0.0006,-0.00023999999999999998,-5e-05,0.00036,0.00037999999999999997,2
4732,4896,-0.00028,-8e-05,-9e-05,0.00018,0.0002,-0.00021,-5.9999999999999995e-05,-0.00014,2
4733,4897,-0.00028,-8e-05,-9e-05,0.00018,0.0002,-0.00021,-5.9999999999999995e-05,-0.00014,2
4734,4898,-0.00028,-8e-05,-9e-05,0.00018,0.0002,-0.00021,-5.9999999999999995e-05,-0.00014,2
4735,4899,-0.00028,-8e-05,-9e-05,0.00018,0.0002,-0.00021,-5.9999999999999995e-05,-0.00014,2
4736,4900,-0.00028,-8e-05,-9e-05,0.00018,0.0002,-0.00021,-5.9999999999999995e-05,-0.00014,2
4737,4901,-0.00028,-8e-05,-9e-05,0.00018,0.0002,-0.00021,-5.9999999999999995e-05,-0.00014,2
4738,4902,-0.00028,-8e-05,-9e-05,0.00018,0.0002,-0.00021,-5.9999999999999995e-05,-0.00014,2
4739,4903,-0.00028,-8e-05,-9e-05,0.00018,0.0002,-0.00021,-5.9999999999999995e-05,-0.00014,2
4740,4904,-0.00028,-8e-05,-9e-05,0.00018,0.0002,-0.00021,-5.9999999999999995e-05,-0.00014,2
4741,4905,-0.00028,-8e-05,-9e-05,0.00018,0.0002,-0.00021,-5.9999999999999995e-05,-0.00014,2
4742,4906,-0.00028,-8e-05,-9e-05,0.00018,0.0002,-0.00021,-5.9999999999999995e-05,-0.00014,2
4743,4907,-0.00028,-8e-05,-9e-05,0.00018,0.0002,-0.00021,-5.9999999999999995e-05,-0.00014,2
4744,4908,-0.00028,-8e-05,-9e-05,0.00018,0.0002,-0.00021,-5.9999999999999995e-05,-0.00014,2
4745,4909,-0.00028,-8e-05,-9e-05,0.00018,0.0002,-0.00021,-5.9999999999999995e-05,-0.00014,2
4746,4910,-0.00028,-8e-05,-9e-05,0.00018,0.0002,-0.00021,-5.9999999999999995e-05,-0.00014,2
4747,4911,-2e-05,5e-05,4e-05,-0.00021,-0.00015,5.9999999999999995e-05,-7e-05,-0.00033,2
4748,4912,-2e-05,5e-05,4e-05,-0.00021,-0.00015,5.9999999999999995e-05,-7e-05,-0.00033,2
4749,4913,-2e-05,5e-05,4e-05,-0.00021,-0.00015,5.9999999999999995e-05,-7e-05,-0.00033,2
4750,4914,-2e-05,5e-05,4e-05,-0.00021,-0.00015,5.9999999999999995e-05,-7e-05,-0.00033,2
4751,4915,-2e-05,5e-05,4e-05,-0.00021,-0.00015,5.9999999999999995e-05,-7e-05,-0.00033,2
4752,4916,-2e-05,5e-05,4e-05,-0.00021,-0.00015,5.9999999999999995e-05,-7e-05,-0.00033,2
4753,4917,-2e-05,5e-05,4e-05,-0.00021,-0.00015,5.9999999999999995e-05,-7e-05,-0.00033,2
4754,4918,0.00021,-4e-05,-0.00011,-0.00041,-8e-05,0.00013000000000000002,0.00011,-0.00022,2
4755,4919,-0.00033999999999999997,0.0,9e-05,-5.9999999999999995e-05,-0.00016999999999999999,0.00014,-0.00036,-0.00049,2
4756,4920,-0.00033999999999999997,0.0,9e-05,-5.9999999999999995e-05,-0.00016999999999999999,0.00014,-0.00036,-0.00049,2
4757,4921,-0.00033999999999999997,0.0,9e-05,-5.9999999999999995e-05,-0.00016999999999999999,0.00014,-0.00036,-0.00049,2
4758,4922,-0.00033999999999999997,0.0,9e-05,-5.9999999999999995e-05,-0.00016999999999999999,0.00014,-0.00036,-0.00049,2
4759,4923,-0.00033999999999999997,0.0,9e-05,-5.9999999999999995e-05,-0.00016999999999999999,0.00014,-0.00036,-0.00049,2
4760,4924,-0.00033999999999999997,0.0,9e-05,-5.9999999999999995e-05,-0.00016999999999999999,0.00014,-0.00036,-0.00049,2
4761,4925,-0.00033999999999999997,0.0,9e-05,-5.9999999999999995e-05,-0.00016999999999999999,0.00014,-0.00036,-0.00049,2
4762,4926,-0.00033999999999999997,0.0,9e-05,-5.9999999999999995e-05,-0.00016999999999999999,0.00014,-0.00036,-0.00049,2
4763,4927,-0.00033999999999999997,0.0,9e-05,-5.9999999999999995e-05,-0.00016999999999999999,0.00014,-0.00036,-0.00049,2
4764,4928,-0.00033999999999999997,0.0,9e-05,-5.9999999999999995e-05,-0.00016999999999999999,0.00014,-0.00036,-0.00049,2
4765,4929,-0.00033999999999999997,0.0,9e-05,-5.9999999999999995e-05,-0.00016999999999999999,0.00014,-0.00036,-0.00049,2
4766,4930,-0.00033999999999999997,0.0,9e-05,-5.9999999999999995e-05,-0.00016999999999999999,0.00014,-0.00036,-0.00049,2
4767,4931,-0.00033999999999999997,0.0,9e-05,-5.9999999999999995e-05,-0.00016999999999999999,0.00014,-0.00036,-0.00049,2
4768,4932,-0.00037,-9e-05,7e-05,0.00043,0.00011,-0.00015,-0.00023999999999999998,-0.00015,2
4769,4933,-0.00037,-9e-05,7e-05,0.00043,0.00011,-0.00015,-0.00023999999999999998,-0.00015,2
4770,4934,-0.00037,-9e-05,7e-05,0.00043,0.00011,-0.00015,-0.00023999999999999998,-0.00015,2
4771,4935,-0.00037,-9e-05,7e-05,0.00043,0.00011,-0.00015,-0.00023999999999999998,-0.00015,2
4772,4936,-0.00037,-9e-05,7e-05,0.00043,0.00011,-0.00015,-0.00023999999999999998,-0.00015,2
4773,4938,-0.00037,-9e-05,7e-05,0.00043,0.00011,-0.00015,-0.00023999999999999998,-0.00015,2
4774,4939,-0.00037,-9e-05,7e-05,0.00043,0.00011,-0.00015,-0.00023999999999999998,-0.00015,2
4775,4940,-0.00037,-9e-05,7e-05,0.00043,0.00011,-0.00015,-0.00023999999999999998,-0.00015,2
4776,4941,7e-05,8e-05,5e-05,0.00058,0.00018,0.0005200000000000001,0.00033,-0.00031,2
4777,4942,9e-05,2e-05,7e-05,5e-05,0.0,0.00018999999999999998,0.00018,-8e-05,2
4778,4943,9e-05,2e-05,7e-05,5e-05,0.0,0.00018999999999999998,0.00018,-8e-05,2
4779,4944,9e-05,2e-05,7e-05,5e-05,0.0,0.00018999999999999998,0.00018,-8e-05,2
4780,4945,9e-05,2e-05,7e-05,5e-05,0.0,0.00018999999999999998,0.00018,-8e-05,2
4781,4946,9e-05,2e-05,7e-05,5e-05,0.0,0.00018999999999999998,0.00018,-8e-05,2
4782,4947,9e-05,2e-05,7e-05,5e-05,0.0,0.00018999999999999998,0.00018,-8e-05,2
4783,4948,9e-05,2e-05,7e-05,5e-05,0.0,0.00018999999999999998,0.00018,-8e-05,2
4784,4949,9e-05,2e-05,7e-05,5e-05,0.0,0.00018999999999999998,0.00018,-8e-05,2
4785,4950,9e-05,2e-05,7e-05,5e-05,0.0,0.00018999999999999998,0.00018,-8e-05,2
4786,4951,9e-05,2e-05,7e-05,5e-05,0.0,0.00018999999999999998,0.00018,-8e-05,2
4787,4952,9e-05,2e-05,7e-05,5e-05,0.0,0.00018999999999999998,0.00018,-8e-05,2
4788,4953,9e-05,2e-05,7e-05,5e-05,0.0,0.00018999999999999998,0.00018,-8e-05,2
4789,4954,9e-05,2e-05,7e-05,5e-05,0.0,0.00018999999999999998,0.00018,-8e-05,2
4790,4955,9e-05,2e-05,7e-05,5e-05,0.0,0.00018999999999999998,0.00018,-8e-05,2
4791,4956,9e-05,2e-05,7e-05,5e-05,0.0,0.00018999999999999998,0.00018,-8e-05,2
4792,4957,9e-05,2e-05,7e-05,5e-05,0.0,0.00018999999999999998,0.00018,-8e-05,2
4793,4958,9e-05,2e-05,7e-05,5e-05,0.0,0.00018999999999999998,0.00018,-8e-05,2
4794,4959,9e-05,2e-05,7e-05,5e-05,0.0,0.00018999999999999998,0.00018,-8e-05,2
4795,4960,9e-05,2e-05,7e-05,5e-05,0.0,0.00018999999999999998,0.00018,-8e-05,2
4796,4961,9e-05,2e-05,7e-05,5e-05,0.0,0.00018999999999999998,0.00018,-8e-05,2
4797,4962,9e-05,2e-05,7e-05,5e-05,0.0,0.00018999999999999998,0.00018,-8e-05,2
4798,4963,-7e-05,-5.9999999999999995e-05,0.00011999999999999999,-5.9999999999999995e-05,5.9999999999999995e-05,-4e-05,-0.00018999999999999998,0.00022,2
4799,4964,-7e-05,-5.9999999999999995e-05,0.00011999999999999999,-5.9999999999999995e-05,5.9999999999999995e-05,-4e-05,-0.00018999999999999998,0.00022,2
4800,4965,0.00021,0.0001,7e-05,0.00039,0.00018999999999999998,-7e-05,-5e-05,0.00075,2
4801,4966,0.00021,0.0001,7e-05,0.00039,0.00018999999999999998,-7e-05,-5e-05,0.00075,2
4802,4967,0.00021,0.0001,7e-05,0.00039,0.00018999999999999998,-7e-05,-5e-05,0.00075,2
4803,4968,0.00021,0.0001,7e-05,0.00039,0.00018999999999999998,-7e-05,-5e-05,0.00075,2
4804,4969,0.00021,0.0001,7e-05,0.00039,0.00018999999999999998,-7e-05,-5e-05,0.00075,2
4805,4970,0.00021,0.0001,7e-05,0.00039,0.00018999999999999998,-7e-05,-5e-05,0.00075,2
4806,4971,0.00021,0.0001,7e-05,0.00039,0.00018999999999999998,-7e-05,-5e-05,0.00075,2
4807,4972,0.00021,0.0001,7e-05,0.00039,0.00018999999999999998,-7e-05,-5e-05,0.00075,2
4808,4973,0.00021,0.0001,7e-05,0.00039,0.00018999999999999998,-7e-05,-5e-05,0.00075,2
4809,4974,0.00021,0.0001,7e-05,0.00039,0.00018999999999999998,-7e-05,-5e-05,0.00075,2
4810,4975,0.00021,0.0001,7e-05,0.00039,0.00018999999999999998,-7e-05,-5e-05,0.00075,2
4811,4976,0.00021,0.0001,7e-05,0.00039,0.00018999999999999998,-7e-05,-5e-05,0.00075,2
4812,4977,-0.00036,0.0,-8e-05,-9e-05,-0.00025,0.00033999999999999997,0.00047999999999999996,-0.00058,2
4813,4978,0.00033999999999999997,1e-05,-2.9999999999999997e-05,0.00032,0.00028,0.00031,0.00018999999999999998,0.00074,2
4814,4979,0.00033999999999999997,1e-05,-2.9999999999999997e-05,0.00032,0.00028,0.00031,0.00018999999999999998,0.00074,2
4815,4980,0.00033999999999999997,1e-05,-2.9999999999999997e-05,0.00032,0.00028,0.00031,0.00018999999999999998,0.00074,2
4816,4981,0.00033999999999999997,1e-05,-2.9999999999999997e-05,0.00032,0.00028,0.00031,0.00018999999999999998,0.00074,2
4817,4982,0.00033999999999999997,1e-05,-2.9999999999999997e-05,0.00032,0.00028,0.00031,0.00018999999999999998,0.00074,2
4818,4983,0.00033999999999999997,1e-05,-2.9999999999999997e-05,0.00032,0.00028,0.00031,0.00018999999999999998,0.00074,2
4819,4984,-0.00025,5.9999999999999995e-05,0.0002,-9e-05,-0.00014,8e-05,0.0,0.00016,2
4820,4985,-0.00011999999999999999,-5.9999999999999995e-05,-0.00013000000000000002,-0.00026000000000000003,-2.9999999999999997e-05,-0.00022999999999999998,-0.00045,-0.00056,2
4821,4986,-0.00011999999999999999,-5.9999999999999995e-05,-0.00013000000000000002,-0.00026000000000000003,-2.9999999999999997e-05,-0.00022999999999999998,-0.00045,-0.00056,2
4822,4988,-0.00011999999999999999,-5.9999999999999995e-05,-0.00013000000000000002,-0.00026000000000000003,-2.9999999999999997e-05,-0.00022999999999999998,-0.00045,-0.00056,2
4823,4989,-0.00011999999999999999,-5.9999999999999995e-05,-0.00013000000000000002,-0.00026000000000000003,-2.9999999999999997e-05,-0.00022999999999999998,-0.00045,-0.00056,2
4824,4990,-0.00011999999999999999,-5.9999999999999995e-05,-0.00013000000000000002,-0.00026000000000000003,-2.9999999999999997e-05,-0.00022999999999999998,-0.00045,-0.00056,2
4825,4991,-0.00011999999999999999,-5.9999999999999995e-05,-0.00013000000000000002,-0.00026000000000000003,-2.9999999999999997e-05,-0.00022999999999999998,-0.00045,-0.00056,2
4826,4992,-0.00011999999999999999,-5.9999999999999995e-05,-0.00013000000000000002,-0.00026000000000000003,-2.9999999999999997e-05,-0.00022999999999999998,-0.00045,-0.00056,2
4827,4993,-0.00011999999999999999,-5.9999999999999995e-05,-0.00013000000000000002,-0.00026000000000000003,-2.9999999999999997e-05,-0.00022999999999999998,-0.00045,-0.00056,2
4828,4994,-0.00011999999999999999,-5.9999999999999995e-05,-0.00013000000000000002,-0.00026000000000000003,-2.9999999999999997e-05,-0.00022999999999999998,-0.00045,-0.00056,2
4829,4995,-0.00011999999999999999,-5.9999999999999995e-05,-0.00013000000000000002,-0.00026000000000000003,-2.9999999999999997e-05,-0.00022999999999999998,-0.00045,-0.00056,2
4830,4996,-0.00011999999999999999,-5.9999999999999995e-05,-0.00013000000000000002,-0.00026000000000000003,-2.9999999999999997e-05,-0.00022999999999999998,-0.00045,-0.00056,2
4831,4997,-0.00011999999999999999,-5.9999999999999995e-05,-0.00013000000000000002,-0.00026000000000000003,-2.9999999999999997e-05,-0.00022999999999999998,-0.00045,-0.00056,2
4832,4998,-0.00011999999999999999,-5.9999999999999995e-05,-0.00013000000000000002,-0.00026000000000000003,-2.9999999999999997e-05,-0.00022999999999999998,-0.00045,-0.00056,2
4833,4999,-0.00011999999999999999,-5.9999999999999995e-05,-0.00013000000000000002,-0.00026000000000000003,-2.9999999999999997e-05,-0.00022999999999999998,-0.00045,-0.00056,2
4834,5000,-0.00011999999999999999,-5.9999999999999995e-05,-0.00013000000000000002,-0.00026000000000000003,-2.9999999999999997e-05,-0.00022999999999999998,-0.00045,-0.00056,2
4835,5001,-0.00045999999999999996,-0.00013000000000000002,-5e-05,-0.00029,-2e-05,-0.00015,-0.00033,-0.00072,2
4836,5002,-0.00016,-7e-05,2.9999999999999997e-05,0.00011999999999999999,-1e-05,0.00032,0.00031,0.00033,2
4837,5003,-0.00016,-7e-05,2.9999999999999997e-05,0.00011999999999999999,-1e-05,0.00032,0.00031,0.00033,2
4838,5004,-0.00016,-7e-05,2.9999999999999997e-05,0.00011999999999999999,-1e-05,0.00032,0.00031,0.00033,2
4839,5005,-0.00016,-7e-05,2.9999999999999997e-05,0.00011999999999999999,-1e-05,0.00032,0.00031,0.00033,2
4840,5006,-0.00016,-7e-05,2.9999999999999997e-05,0.00011999999999999999,-1e-05,0.00032,0.00031,0.00033,2
4841,5007,-0.00016,-7e-05,2.9999999999999997e-05,0.00011999999999999999,-1e-05,0.00032,0.00031,0.00033,2
4842,5008,-0.00016,-7e-05,2.9999999999999997e-05,0.00011999999999999999,-1e-05,0.00032,0.00031,0.00033,2
4843,5009,-0.00016,-7e-05,2.9999999999999997e-05,0.00011999999999999999,-1e-05,0.00032,0.00031,0.00033,2
4844,5010,-0.00016,-7e-05,2.9999999999999997e-05,0.00011999999999999999,-1e-05,0.00032,0.00031,0.00033,2
4845,5011,-0.00016,-7e-05,2.9999999999999997e-05,0.00011999999999999999,-1e-05,0.00032,0.00031,0.00033,2
4846,5012,-0.00016,-7e-05,2.9999999999999997e-05,0.00011999999999999999,-1e-05,0.00032,0.00031,0.00033,2
4847,5013,-0.00016,-7e-05,2.9999999999999997e-05,0.00011999999999999999,-1e-05,0.00032,0.00031,0.00033,2
4848,5014,-0.00016,-7e-05,2.9999999999999997e-05,0.00011999999999999999,-1e-05,0.00032,0.00031,0.00033,2
4849,5015,-0.00016,-7e-05,2.9999999999999997e-05,0.00011999999999999999,-1e-05,0.00032,0.00031,0.00033,2
4850,5016,-0.00016,-7e-05,2.9999999999999997e-05,0.00011999999999999999,-1e-05,0.00032,0.00031,0.00033,2
4851,5017,-0.00016,-7e-05,2.9999999999999997e-05,0.00011999999999999999,-1e-05,0.00032,0.00031,0.00033,2
4852,5018,-0.00016,-7e-05,2.9999999999999997e-05,0.00011999999999999999,-1e-05,0.00032,0.00031,0.00033,2
4853,5019,-0.00016,-7e-05,2.9999999999999997e-05,0.00011999999999999999,-1e-05,0.00032,0.00031,0.00033,2
4854,5020,-0.00016,-7e-05,2.9999999999999997e-05,0.00011999999999999999,-1e-05,0.00032,0.00031,0.00033,2
4855,5021,-0.00016,-7e-05,2.9999999999999997e-05,0.00011999999999999999,-1e-05,0.00032,0.00031,0.00033,2
4856,5022,-0.00016,-7e-05,2.9999999999999997e-05,0.00011999999999999999,-1e-05,0.00032,0.00031,0.00033,2
4857,5023,-7e-05,1e-05,9e-05,0.00018999999999999998,-8e-05,-9e-05,-0.00011999999999999999,-0.0001,2
4858,5024,-7e-05,1e-05,9e-05,0.00018999999999999998,-8e-05,-9e-05,-0.00011999999999999999,-0.0001,2
4859,5025,-0.00033999999999999997,-9e-05,-0.00013000000000000002,-0.0007700000000000001,-0.0001,0.0004,2e-05,-0.00035,2
4860,5026,-0.00033999999999999997,-9e-05,-0.00013000000000000002,-0.0007700000000000001,-0.0001,0.0004,2e-05,-0.00035,2
4861,5027,-0.00033999999999999997,-9e-05,-0.00013000000000000002,-0.0007700000000000001,-0.0001,0.0004,2e-05,-0.00035,2
4862,5028,-0.00033999999999999997,-9e-05,-0.00013000000000000002,-0.0007700000000000001,-0.0001,0.0004,2e-05,-0.00035,2
4863,5029,-0.00033999999999999997,-9e-05,-0.00013000000000000002,-0.0007700000000000001,-0.0001,0.0004,2e-05,-0.00035,2
4864,5030,-0.00033999999999999997,-9e-05,-0.00013000000000000002,-0.0007700000000000001,-0.0001,0.0004,2e-05,-0.00035,2
4865,5031,-0.00033999999999999997,-9e-05,-0.00013000000000000002,-0.0007700000000000001,-0.0001,0.0004,2e-05,-0.00035,2
4866,5033,-0.00033999999999999997,-9e-05,-0.00013000000000000002,-0.0007700000000000001,-0.0001,0.0004,2e-05,-0.00035,2
4867,5034,-0.00033999999999999997,-9e-05,-0.00013000000000000002,-0.0007700000000000001,-0.0001,0.0004,2e-05,-0.00035,2
4868,5035,-0.00033999999999999997,-9e-05,-0.00013000000000000002,-0.0007700000000000001,-0.0001,0.0004,2e-05,-0.00035,2
4869,5036,-0.00033999999999999997,-9e-05,-0.00013000000000000002,-0.0007700000000000001,-0.0001,0.0004,2e-05,-0.00035,2
4870,5038,0.00021,5.9999999999999995e-05,-9e-05,-9e-05,0.0001,0.00027,2.9999999999999997e-05,0.00027,2
4871,5039,0.00021,5.9999999999999995e-05,-9e-05,-9e-05,0.0001,0.00027,2.9999999999999997e-05,0.00027,2
4872,5040,0.00021,5.9999999999999995e-05,-9e-05,-9e-05,0.0001,0.00027,2.9999999999999997e-05,0.00027,2
4873,5041,0.00021,5.9999999999999995e-05,-9e-05,-9e-05,0.0001,0.00027,2.9999999999999997e-05,0.00027,2
4874,5042,0.00021,5.9999999999999995e-05,-9e-05,-9e-05,0.0001,0.00027,2.9999999999999997e-05,0.00027,2
4875,5043,0.00021,5.9999999999999995e-05,-9e-05,-9e-05,0.0001,0.00027,2.9999999999999997e-05,0.00027,2
4876,5044,0.00078,0.00025,0.00018,-0.00016,-0.00025,-9e-05,0.00018,0.00055,2
4877,5045,0.00078,0.00025,0.00018,-0.00016,-0.00025,-9e-05,0.00018,0.00055,2
4878,5046,0.00078,0.00025,0.00018,-0.00016,-0.00025,-9e-05,0.00018,0.00055,2
4879,5047,0.00078,0.00025,0.00018,-0.00016,-0.00025,-9e-05,0.00018,0.00055,2
4880,5048,0.00078,0.00025,0.00018,-0.00016,-0.00025,-9e-05,0.00018,0.00055,2
4881,5049,0.00078,0.00025,0.00018,-0.00016,-0.00025,-9e-05,0.00018,0.00055,2
4882,5050,0.00078,0.00025,0.00018,-0.00016,-0.00025,-9e-05,0.00018,0.00055,2
4883,5051,0.00078,0.00025,0.00018,-0.00016,-0.00025,-9e-05,0.00018,0.00055,2
4884,5052,0.00078,0.00025,0.00018,-0.00016,-0.00025,-9e-05,0.00018,0.00055,2
4885,5053,0.00078,0.00025,0.00018,-0.00016,-0.00025,-9e-05,0.00018,0.00055,2
4886,5054,0.00078,0.00025,0.00018,-0.00016,-0.00025,-9e-05,0.00018,0.00055,2
4887,5055,0.00078,0.00025,0.00018,-0.00016,-0.00025,-9e-05,0.00018,0.00055,2
4888,5056,0.00078,0.00025,0.00018,-0.00016,-0.00025,-9e-05,0.00018,0.00055,2
4889,5057,0.00078,0.00025,0.00018,-0.00016,-0.00025,-9e-05,0.00018,0.00055,2
4890,5058,0.00078,0.00025,0.00018,-0.00016,-0.00025,-9e-05,0.00018,0.00055,2
4891,5059,0.00078,0.00025,0.00018,-0.00016,-0.00025,-9e-05,0.00018,0.00055,2
4892,5060,0.00078,0.00025,0.00018,-0.00016,-0.00025,-9e-05,0.00018,0.00055,2
4893,5061,-0.00049,-0.00011,7e-05,0.00058,-0.00021,-0.00033999999999999997,-0.00016999999999999999,-0.00033999999999999997,2
4894,5062,-0.00011,-8e-05,-0.00011,0.00047000000000000004,0.0001,-0.00015,-0.00033,-0.00042,2
4895,5063,-0.00011,-8e-05,-0.00011,0.00047000000000000004,0.0001,-0.00015,-0.00033,-0.00042,2
4896,5064,-0.00011,-8e-05,-0.00011,0.00047000000000000004,0.0001,-0.00015,-0.00033,-0.00042,2
4897,5065,-0.00011,-8e-05,-0.00011,0.00047000000000000004,0.0001,-0.00015,-0.00033,-0.00042,2
4898,5066,-0.00011,-8e-05,-0.00011,0.00047000000000000004,0.0001,-0.00015,-0.00033,-0.00042,2
4899,5067,-0.00011,-8e-05,-0.00011,0.00047000000000000004,0.0001,-0.00015,-0.00033,-0.00042,2
4900,5068,-0.00011,-8e-05,-0.00011,0.00047000000000000004,0.0001,-0.00015,-0.00033,-0.00042,2
4901,5069,-0.00011,-8e-05,-0.00011,0.00047000000000000004,0.0001,-0.00015,-0.00033,-0.00042,2
4902,5070,-0.00011,-8e-05,-0.00011,0.00047000000000000004,0.0001,-0.00015,-0.00033,-0.00042,2
4903,5071,-0.00011,-8e-05,-0.00011,0.00047000000000000004,0.0001,-0.00015,-0.00033,-0.00042,2
4904,5072,-0.00011,-8e-05,-0.00011,0.00047000000000000004,0.0001,-0.00015,-0.00033,-0.00042,2
4905,5073,-0.00011,-8e-05,-0.00011,0.00047000000000000004,0.0001,-0.00015,-0.00033,-0.00042,2
4906,5074,-0.00011,-8e-05,-0.00011,0.00047000000000000004,0.0001,-0.00015,-0.00033,-0.00042,2
4907,5075,-0.00011,-8e-05,-0.00011,0.00047000000000000004,0.0001,-0.00015,-0.00033,-0.00042,2
4908,5076,-0.00011,-8e-05,-0.00011,0.00047000000000000004,0.0001,-0.00015,-0.00033,-0.00042,2
4909,5077,-0.00011,-8e-05,-0.00011,0.00047000000000000004,0.0001,-0.00015,-0.00033,-0.00042,2
4910,5078,-0.00011,-8e-05,-0.00011,0.00047000000000000004,0.0001,-0.00015,-0.00033,-0.00042,2
4911,5079,-0.00011,-8e-05,-0.00011,0.00047000000000000004,0.0001,-0.00015,-0.00033,-0.00042,2
4912,5080,-0.00011,-8e-05,-0.00011,0.00047000000000000004,0.0001,-0.00015,-0.00033,-0.00042,2
4913,5081,-0.00011,-8e-05,-0.00011,0.00047000000000000004,0.0001,-0.00015,-0.00033,-0.00042,2
4914,5082,-0.00011,-8e-05,-0.00011,0.00047000000000000004,0.0001,-0.00015,-0.00033,-0.00042,2
4915,5083,-0.00015,-5e-05,-9e-05,-0.00029,-0.00015,1e-05,0.0,0.00016,2
4916,5084,-0.00015,-5e-05,-9e-05,-0.00029,-0.00015,1e-05,0.0,0.00016,2
4917,5085,-0.00016,-2.9999999999999997e-05,0.0,0.00033999999999999997,-0.00031,-0.00061,-0.00022,-0.00059,2
4918,5086,-0.00016,-2.9999999999999997e-05,0.0,0.00033999999999999997,-0.00031,-0.00061,-0.00022,-0.00059,2
4919,5088,-0.00016,-2.9999999999999997e-05,0.0,0.00033999999999999997,-0.00031,-0.00061,-0.00022,-0.00059,2
4920,5089,-0.00016,-2.9999999999999997e-05,0.0,0.00033999999999999997,-0.00031,-0.00061,-0.00022,-0.00059,2
4921,5090,-0.00016,-2.9999999999999997e-05,0.0,0.00033999999999999997,-0.00031,-0.00061,-0.00022,-0.00059,2
4922,5091,-0.00016,-2.9999999999999997e-05,0.0,0.00033999999999999997,-0.00031,-0.00061,-0.00022,-0.00059,2
4923,5092,-0.00016,-2.9999999999999997e-05,0.0,0.00033999999999999997,-0.00031,-0.00061,-0.00022,-0.00059,2
4924,5093,-0.00016,-2.9999999999999997e-05,0.0,0.00033999999999999997,-0.00031,-0.00061,-0.00022,-0.00059,2
4925,5094,-0.00016,-2.9999999999999997e-05,0.0,0.00033999999999999997,-0.00031,-0.00061,-0.00022,-0.00059,2
4926,5095,-0.00016,-2.9999999999999997e-05,0.0,0.00033999999999999997,-0.00031,-0.00061,-0.00022,-0.00059,2
4927,5096,-0.00016,-2.9999999999999997e-05,0.0,0.00033999999999999997,-0.00031,-0.00061,-0.00022,-0.00059,2
4928,5097,-0.00016,-2.9999999999999997e-05,0.0,0.00033999999999999997,-0.00031,-0.00061,-0.00022,-0.00059,2
4929,5098,-0.00016,-0.00011999999999999999,0.0,-0.00022999999999999998,0.00011999999999999999,-0.00025,-0.0004,-0.00056,2
4930,5099,-0.00016,-0.00011999999999999999,0.0,-0.00022999999999999998,0.00011999999999999999,-0.00025,-0.0004,-0.00056,2
4931,5100,-0.00016,-0.00011999999999999999,0.0,-0.00022999999999999998,0.00011999999999999999,-0.00025,-0.0004,-0.00056,2
4932,5101,-0.00016,-0.00011999999999999999,0.0,-0.00022999999999999998,0.00011999999999999999,-0.00025,-0.0004,-0.00056,2
4933,5102,-0.00016,-0.00011999999999999999,0.0,-0.00022999999999999998,0.00011999999999999999,-0.00025,-0.0004,-0.00056,2
4934,5103,-0.00016,-0.00011999999999999999,0.0,-0.00022999999999999998,0.00011999999999999999,-0.00025,-0.0004,-0.00056,2
4935,5104,-0.00016,-0.00011999999999999999,0.0,-0.00022999999999999998,0.00011999999999999999,-0.00025,-0.0004,-0.00056,2
4936,5105,-0.00078,-0.0001,-2e-05,0.00011999999999999999,4e-05,-0.00018,-0.00025,-0.00062,2
4937,5106,-0.00078,-0.0001,-2e-05,0.00011999999999999999,4e-05,-0.00018,-0.00025,-0.00062,2
4938,5107,-0.00078,-0.0001,-2e-05,0.00011999999999999999,4e-05,-0.00018,-0.00025,-0.00062,2
4939,5108,-0.00078,-0.0001,-2e-05,0.00011999999999999999,4e-05,-0.00018,-0.00025,-0.00062,2
4940,5109,-0.00078,-0.0001,-2e-05,0.00011999999999999999,4e-05,-0.00018,-0.00025,-0.00062,2
4941,5110,-0.00078,-0.0001,-2e-05,0.00011999999999999999,4e-05,-0.00018,-0.00025,-0.00062,2
4942,5111,-0.00078,-0.0001,-2e-05,0.00011999999999999999,4e-05,-0.00018,-0.00025,-0.00062,2
4943,5112,-0.00078,-0.0001,-2e-05,0.00011999999999999999,4e-05,-0.00018,-0.00025,-0.00062,2
4944,5113,-0.00078,-0.0001,-2e-05,0.00011999999999999999,4e-05,-0.00018,-0.00025,-0.00062,2
4945,5114,-0.00078,-0.0001,-2e-05,0.00011999999999999999,4e-05,-0.00018,-0.00025,-0.00062,2
4946,5115,-0.00078,-0.0001,-2e-05,0.00011999999999999999,4e-05,-0.00018,-0.00025,-0.00062,2
4947,5116,-0.00078,-0.0001,-2e-05,0.00011999999999999999,4e-05,-0.00018,-0.00025,-0.00062,2
4948,5117,-0.00078,-0.0001,-2e-05,0.00011999999999999999,4e-05,-0.00018,-0.00025,-0.00062,2
4949,5118,-0.00078,-0.0001,-2e-05,0.00011999999999999999,4e-05,-0.00018,-0.00025,-0.00062,2
4950,5119,-0.00078,-0.0001,-2e-05,0.00011999999999999999,4e-05,-0.00018,-0.00025,-0.00062,2
4951,5120,-7e-05,-5e-05,5e-05,0.00047000000000000004,0.00045,0.00059,0.00044,0.0004,2
4952,5121,-0.00014,-0.00014,-0.00022,-0.00027,8e-05,-0.00013000000000000002,-0.00014,-0.00062,2
4953,5122,-0.00014,-0.00014,-0.00022,-0.00027,8e-05,-0.00013000000000000002,-0.00014,-0.00062,2
4954,5123,-0.00014,-0.00014,-0.00022,-0.00027,8e-05,-0.00013000000000000002,-0.00014,-0.00062,2
4955,5124,-0.00014,-0.00014,-0.00022,-0.00027,8e-05,-0.00013000000000000002,-0.00014,-0.00062,2
4956,5125,-0.00014,-0.00014,-0.00022,-0.00027,8e-05,-0.00013000000000000002,-0.00014,-0.00062,2
4957,5126,-0.00014,-0.00014,-0.00022,-0.00027,8e-05,-0.00013000000000000002,-0.00014,-0.00062,2
4958,5127,-0.00014,-0.00014,-0.00022,-0.00027,8e-05,-0.00013000000000000002,-0.00014,-0.00062,2
4959,5128,-0.00014,-0.00014,-0.00022,-0.00027,8e-05,-0.00013000000000000002,-0.00014,-0.00062,2
4960,5129,-0.00014,-0.00014,-0.00022,-0.00027,8e-05,-0.00013000000000000002,-0.00014,-0.00062,2
4961,5130,-0.00014,-0.00014,-0.00022,-0.00027,8e-05,-0.00013000000000000002,-0.00014,-0.00062,2
4962,5131,-0.00014,-0.00014,-0.00022,-0.00027,8e-05,-0.00013000000000000002,-0.00014,-0.00062,2
4963,5132,-0.00014,-0.00014,-0.00022,-0.00027,8e-05,-0.00013000000000000002,-0.00014,-0.00062,2
4964,5133,-0.00014,-0.00014,-0.00022,-0.00027,8e-05,-0.00013000000000000002,-0.00014,-0.00062,2
4965,5134,-0.00014,-0.00014,-0.00022,-0.00027,8e-05,-0.00013000000000000002,-0.00014,-0.00062,2
4966,5135,-0.00014,-0.00014,-0.00022,-0.00027,8e-05,-0.00013000000000000002,-0.00014,-0.00062,2
4967,5136,-0.00014,-0.00014,-0.00022,-0.00027,8e-05,-0.00013000000000000002,-0.00014,-0.00062,2
4968,5138,-0.00014,-0.00014,-0.00022,-0.00027,8e-05,-0.00013000000000000002,-0.00014,-0.00062,2
4969,5139,-0.00014,-0.00014,-0.00022,-0.00027,8e-05,-0.00013000000000000002,-0.00014,-0.00062,2
4970,5140,-0.00014,-0.00014,-0.00022,-0.00027,8e-05,-0.00013000000000000002,-0.00014,-0.00062,2
4971,5141,-0.00014,-0.00014,-0.00022,-0.00027,8e-05,-0.00013000000000000002,-0.00014,-0.00062,2
4972,5142,-0.00014,-0.00014,-0.00022,-0.00027,8e-05,-0.00013000000000000002,-0.00014,-0.00062,2
4973,5143,0.00028,9e-05,2.9999999999999997e-05,-0.00037999999999999997,7e-05,7e-05,-2e-05,0.00044,2
4974,5144,0.00022999999999999998,0.0,-2.9999999999999997e-05,0.0,5.9999999999999995e-05,0.00015,0.00023999999999999998,0.0003,2
4975,5145,0.00022999999999999998,0.0,-2.9999999999999997e-05,0.0,5.9999999999999995e-05,0.00015,0.00023999999999999998,0.0003,2
4976,5146,0.00022999999999999998,0.0,-2.9999999999999997e-05,0.0,5.9999999999999995e-05,0.00015,0.00023999999999999998,0.0003,2
4977,5147,0.00022999999999999998,0.0,-2.9999999999999997e-05,0.0,5.9999999999999995e-05,0.00015,0.00023999999999999998,0.0003,2
4978,5148,0.00022999999999999998,0.0,-2.9999999999999997e-05,0.0,5.9999999999999995e-05,0.00015,0.00023999999999999998,0.0003,2
4979,5149,0.00022999999999999998,0.0,-2.9999999999999997e-05,0.0,5.9999999999999995e-05,0.00015,0.00023999999999999998,0.0003,2
4980,5150,0.00022999999999999998,0.0,-2.9999999999999997e-05,0.0,5.9999999999999995e-05,0.00015,0.00023999999999999998,0.0003,2
4981,5151,0.00022999999999999998,0.0,-2.9999999999999997e-05,0.0,5.9999999999999995e-05,0.00015,0.00023999999999999998,0.0003,2
4982,5152,0.00022999999999999998,0.0,-2.9999999999999997e-05,0.0,5.9999999999999995e-05,0.00015,0.00023999999999999998,0.0003,2
4983,5153,0.00022999999999999998,0.0,-2.9999999999999997e-05,0.0,5.9999999999999995e-05,0.00015,0.00023999999999999998,0.0003,2
4984,5154,0.00022999999999999998,0.0,-2.9999999999999997e-05,0.0,5.9999999999999995e-05,0.00015,0.00023999999999999998,0.0003,2
4985,5155,0.00022999999999999998,0.0,-2.9999999999999997e-05,0.0,5.9999999999999995e-05,0.00015,0.00023999999999999998,0.0003,2
4986,5156,0.00022999999999999998,0.0,-2.9999999999999997e-05,0.0,5.9999999999999995e-05,0.00015,0.00023999999999999998,0.0003,2
4987,5157,0.00022999999999999998,0.0,-2.9999999999999997e-05,0.0,5.9999999999999995e-05,0.00015,0.00023999999999999998,0.0003,2
4988,5158,0.00022999999999999998,0.0,-2.9999999999999997e-05,0.0,5.9999999999999995e-05,0.00015,0.00023999999999999998,0.0003,2
4989,5159,0.00022999999999999998,0.0,-2.9999999999999997e-05,0.0,5.9999999999999995e-05,0.00015,0.00023999999999999998,0.0003,2
4990,5160,0.00022999999999999998,0.0,-2.9999999999999997e-05,0.0,5.9999999999999995e-05,0.00015,0.00023999999999999998,0.0003,2
4991,5161,0.00022999999999999998,0.0,-2.9999999999999997e-05,0.0,5.9999999999999995e-05,0.00015,0.00023999999999999998,0.0003,2
4992,5162,0.00022999999999999998,0.0,-2.9999999999999997e-05,0.0,5.9999999999999995e-05,0.00015,0.00023999999999999998,0.0003,2
4993,5163,0.00022999999999999998,0.0,-2.9999999999999997e-05,0.0,5.9999999999999995e-05,0.00015,0.00023999999999999998,0.0003,2
4994,5164,0.00022999999999999998,0.0,-2.9999999999999997e-05,0.0,5.9999999999999995e-05,0.00015,0.00023999999999999998,0.0003,2
4995,5165,0.00022999999999999998,0.0,-2.9999999999999997e-05,0.0,5.9999999999999995e-05,0.00015,0.00023999999999999998,0.0003,2
4996,5166,0.0002,2.9999999999999997e-05,-0.0001,0.00056,0.00016999999999999999,0.0005,0.00026000000000000003,0.00015,2
4997,5167,-0.00045,-2.9999999999999997e-05,-2e-05,4e-05,8e-05,-0.00021,-0.00021,-0.00058,2
4998,5168,0.00033999999999999997,0.0,7e-05,-5.9999999999999995e-05,1e-05,0.00047000000000000004,0.0005,0.0007599999999999999,2
4999,5169,0.00033999999999999997,0.0,7e-05,-5.9999999999999995e-05,1e-05,0.00047000000000000004,0.0005,0.0007599999999999999,2
5000,5170,0.00033999999999999997,0.0,7e-05,-5.9999999999999995e-05,1e-05,0.00047000000000000004,0.0005,0.0007599999999999999,2
5001,5171,0.00033999999999999997,0.0,7e-05,-5.9999999999999995e-05,1e-05,0.00047000000000000004,0.0005,0.0007599999999999999,2
5002,5172,0.00033999999999999997,0.0,7e-05,-5.9999999999999995e-05,1e-05,0.00047000000000000004,0.0005,0.0007599999999999999,2
5003,5173,0.00033999999999999997,0.0,7e-05,-5.9999999999999995e-05,1e-05,0.00047000000000000004,0.0005,0.0007599999999999999,2
5004,5174,0.00033999999999999997,0.0,7e-05,-5.9999999999999995e-05,1e-05,0.00047000000000000004,0.0005,0.0007599999999999999,2
5005,5175,0.00033999999999999997,0.0,7e-05,-5.9999999999999995e-05,1e-05,0.00047000000000000004,0.0005,0.0007599999999999999,2
5006,5176,0.00033999999999999997,0.0,7e-05,-5.9999999999999995e-05,1e-05,0.00047000000000000004,0.0005,0.0007599999999999999,2
5007,5177,0.00033999999999999997,0.0,7e-05,-5.9999999999999995e-05,1e-05,0.00047000000000000004,0.0005,0.0007599999999999999,2
5008,5178,0.00033999999999999997,0.0,7e-05,-5.9999999999999995e-05,1e-05,0.00047000000000000004,0.0005,0.0007599999999999999,2
5009,5179,0.00033999999999999997,0.0,7e-05,-5.9999999999999995e-05,1e-05,0.00047000000000000004,0.0005,0.0007599999999999999,2
5010,5180,0.00033999999999999997,0.0,7e-05,-5.9999999999999995e-05,1e-05,0.00047000000000000004,0.0005,0.0007599999999999999,2
5011,5181,0.00033999999999999997,0.0,7e-05,-5.9999999999999995e-05,1e-05,0.00047000000000000004,0.0005,0.0007599999999999999,2
5012,5182,0.00033999999999999997,0.0,7e-05,-5.9999999999999995e-05,1e-05,0.00047000000000000004,0.0005,0.0007599999999999999,2
5013,5183,0.00033999999999999997,0.0,7e-05,-5.9999999999999995e-05,1e-05,0.00047000000000000004,0.0005,0.0007599999999999999,2
5014,5184,0.00033999999999999997,0.0,7e-05,-5.9999999999999995e-05,1e-05,0.00047000000000000004,0.0005,0.0007599999999999999,2
5015,5185,0.00033999999999999997,0.0,7e-05,-5.9999999999999995e-05,1e-05,0.00047000000000000004,0.0005,0.0007599999999999999,2
5016,5186,0.00033999999999999997,0.0,7e-05,-5.9999999999999995e-05,1e-05,0.00047000000000000004,0.0005,0.0007599999999999999,2
5017,5188,0.00033999999999999997,0.0,7e-05,-5.9999999999999995e-05,1e-05,0.00047000000000000004,0.0005,0.0007599999999999999,2
5018,5189,-0.00028,-2.9999999999999997e-05,0.00013000000000000002,0.00023999999999999998,4e-05,-4e-05,-2.9999999999999997e-05,-0.00021,2
5019,5190,0.0002,8e-05,-5e-05,-0.00011999999999999999,4e-05,0.00023999999999999998,0.00015,0.0002,2
5020,5191,0.0002,8e-05,-5e-05,-0.00011999999999999999,4e-05,0.00023999999999999998,0.00015,0.0002,2
5021,5192,0.0002,8e-05,-5e-05,-0.00011999999999999999,4e-05,0.00023999999999999998,0.00015,0.0002,2
5022,5193,0.0002,8e-05,-5e-05,-0.00011999999999999999,4e-05,0.00023999999999999998,0.00015,0.0002,2
5023,5194,0.0002,8e-05,-5e-05,-0.00011999999999999999,4e-05,0.00023999999999999998,0.00015,0.0002,2
5024,5195,0.0002,8e-05,-5e-05,-0.00011999999999999999,4e-05,0.00023999999999999998,0.00015,0.0002,2
5025,5196,0.0002,8e-05,-5e-05,-0.00011999999999999999,4e-05,0.00023999999999999998,0.00015,0.0002,2
5026,5197,0.0002,8e-05,-5e-05,-0.00011999999999999999,4e-05,0.00023999999999999998,0.00015,0.0002,2
5027,5198,0.0002,8e-05,-5e-05,-0.00011999999999999999,4e-05,0.00023999999999999998,0.00015,0.0002,2
5028,5199,0.0002,8e-05,-5e-05,-0.00011999999999999999,4e-05,0.00023999999999999998,0.00015,0.0002,2
5029,5200,0.0002,8e-05,-5e-05,-0.00011999999999999999,4e-05,0.00023999999999999998,0.00015,0.0002,2
5030,5201,0.0002,8e-05,-5e-05,-0.00011999999999999999,4e-05,0.00023999999999999998,0.00015,0.0002,2
5031,5202,0.0002,8e-05,-5e-05,-0.00011999999999999999,4e-05,0.00023999999999999998,0.00015,0.0002,2
5032,5203,0.0002,8e-05,-5e-05,-0.00011999999999999999,4e-05,0.00023999999999999998,0.00015,0.0002,2
5033,5204,0.0002,8e-05,-5e-05,-0.00011999999999999999,4e-05,0.00023999999999999998,0.00015,0.0002,2
5034,5205,0.0002,8e-05,-5e-05,-0.00011999999999999999,4e-05,0.00023999999999999998,0.00015,0.0002,2
5035,5206,0.0002,8e-05,-5e-05,-0.00011999999999999999,4e-05,0.00023999999999999998,0.00015,0.0002,2
5036,5207,0.0002,8e-05,-5e-05,-0.00011999999999999999,4e-05,0.00023999999999999998,0.00015,0.0002,2
5037,5208,0.0002,8e-05,-5e-05,-0.00011999999999999999,4e-05,0.00023999999999999998,0.00015,0.0002,2
5038,5209,0.0002,8e-05,-5e-05,-0.00011999999999999999,4e-05,0.00023999999999999998,0.00015,0.0002,2
5039,5210,0.0002,8e-05,-5e-05,-0.00011999999999999999,4e-05,0.00023999999999999998,0.00015,0.0002,2
5040,5211,-0.00016999999999999999,-5.9999999999999995e-05,1e-05,0.00013000000000000002,0.0004,-0.00035,-0.00022,-0.00037,2
5041,5212,0.00054,2e-05,0.0,-4e-05,-8e-05,4e-05,4e-05,0.00053,2
5042,5213,0.00054,2e-05,0.0,-4e-05,-8e-05,4e-05,4e-05,0.00053,2
5043,5214,0.00054,2e-05,0.0,-4e-05,-8e-05,4e-05,4e-05,0.00053,2
5044,5215,0.00054,2e-05,0.0,-4e-05,-8e-05,4e-05,4e-05,0.00053,2
5045,5216,0.00054,2e-05,0.0,-4e-05,-8e-05,4e-05,4e-05,0.00053,2
5046,5217,0.00028,-5e-05,-9e-05,-2e-05,-0.00022,0.00011,7e-05,0.00056,2
5047,5218,0.00028,-5e-05,-9e-05,-2e-05,-0.00022,0.00011,7e-05,0.00056,2
5048,5219,0.00028,-5e-05,-9e-05,-2e-05,-0.00022,0.00011,7e-05,0.00056,2
5049,5220,0.00028,-5e-05,-9e-05,-2e-05,-0.00022,0.00011,7e-05,0.00056,2
5050,5221,0.00028,-5e-05,-9e-05,-2e-05,-0.00022,0.00011,7e-05,0.00056,2
5051,5222,0.00028,-5e-05,-9e-05,-2e-05,-0.00022,0.00011,7e-05,0.00056,2
5052,5223,0.00028,-5e-05,-9e-05,-2e-05,-0.00022,0.00011,7e-05,0.00056,2
5053,5224,0.00028,-5e-05,-9e-05,-2e-05,-0.00022,0.00011,7e-05,0.00056,2
5054,5225,0.00028,-5e-05,-9e-05,-2e-05,-0.00022,0.00011,7e-05,0.00056,2
5055,5226,-0.00045,-5.9999999999999995e-05,8e-05,-0.00028,-0.00031,-0.00033,-0.00011,-0.00035,2
5056,5227,-0.00045,-5.9999999999999995e-05,8e-05,-0.00028,-0.00031,-0.00033,-0.00011,-0.00035,2
5057,5228,-0.00045,-5.9999999999999995e-05,8e-05,-0.00028,-0.00031,-0.00033,-0.00011,-0.00035,2
5058,5229,-0.00045,-5.9999999999999995e-05,8e-05,-0.00028,-0.00031,-0.00033,-0.00011,-0.00035,2
5059,5230,-0.00045,-5.9999999999999995e-05,8e-05,-0.00028,-0.00031,-0.00033,-0.00011,-0.00035,2
5060,5231,-0.00045,-5.9999999999999995e-05,8e-05,-0.00028,-0.00031,-0.00033,-0.00011,-0.00035,2
5061,5232,-0.00045,-5.9999999999999995e-05,8e-05,-0.00028,-0.00031,-0.00033,-0.00011,-0.00035,2
5062,5233,-0.00045,-5.9999999999999995e-05,8e-05,-0.00028,-0.00031,-0.00033,-0.00011,-0.00035,2
5063,5234,-0.00045,-5.9999999999999995e-05,8e-05,-0.00028,-0.00031,-0.00033,-0.00011,-0.00035,2
5064,5235,-0.00045,-5.9999999999999995e-05,8e-05,-0.00028,-0.00031,-0.00033,-0.00011,-0.00035,2
5065,5236,-0.00045,-5.9999999999999995e-05,8e-05,-0.00028,-0.00031,-0.00033,-0.00011,-0.00035,2
5066,5238,-0.00045,-5.9999999999999995e-05,8e-05,-0.00028,-0.00031,-0.00033,-0.00011,-0.00035,2
5067,5239,-0.00045,-5.9999999999999995e-05,8e-05,-0.00028,-0.00031,-0.00033,-0.00011,-0.00035,2
5068,5240,-8e-05,-5e-05,-0.0001,-0.00025,5.9999999999999995e-05,-0.00025,0.00014,0.00015,2
5069,5241,-0.00049,-0.00013000000000000002,-0.00011999999999999999,-0.00016999999999999999,-0.00011,-8e-05,8e-05,-0.00015,2
5070,5242,-0.00049,-0.00013000000000000002,-0.00011999999999999999,-0.00016999999999999999,-0.00011,-8e-05,8e-05,-0.00015,2
5071,5243,-0.00049,-0.00013000000000000002,-0.00011999999999999999,-0.00016999999999999999,-0.00011,-8e-05,8e-05,-0.00015,2
5072,5244,-0.00049,-0.00013000000000000002,-0.00011999999999999999,-0.00016999999999999999,-0.00011,-8e-05,8e-05,-0.00015,2
5073,5245,-0.00049,-0.00013000000000000002,-0.00011999999999999999,-0.00016999999999999999,-0.00011,-8e-05,8e-05,-0.00015,2
5074,5246,-0.00049,-0.00013000000000000002,-0.00011999999999999999,-0.00016999999999999999,-0.00011,-8e-05,8e-05,-0.00015,2
5075,5247,-0.00049,-0.00013000000000000002,-0.00011999999999999999,-0.00016999999999999999,-0.00011,-8e-05,8e-05,-0.00015,2
5076,5248,-0.00049,-0.00013000000000000002,-0.00011999999999999999,-0.00016999999999999999,-0.00011,-8e-05,8e-05,-0.00015,2
5077,5249,-0.00049,-0.00013000000000000002,-0.00011999999999999999,-0.00016999999999999999,-0.00011,-8e-05,8e-05,-0.00015,2
5078,5250,-0.00049,-0.00013000000000000002,-0.00011999999999999999,-0.00016999999999999999,-0.00011,-8e-05,8e-05,-0.00015,2
5079,5251,-0.00049,-0.00013000000000000002,-0.00011999999999999999,-0.00016999999999999999,-0.00011,-8e-05,8e-05,-0.00015,2
5080,5252,-0.00049,-0.00013000000000000002,-0.00011999999999999999,-0.00016999999999999999,-0.00011,-8e-05,8e-05,-0.00015,2
5081,5253,-0.00049,-0.00013000000000000002,-0.00011999999999999999,-0.00016999999999999999,-0.00011,-8e-05,8e-05,-0.00015,2
5082,5254,-0.00049,-0.00013000000000000002,-0.00011999999999999999,-0.00016999999999999999,-0.00011,-8e-05,8e-05,-0.00015,2
5083,5255,-0.00049,-0.00013000000000000002,-0.00011999999999999999,-0.00016999999999999999,-0.00011,-8e-05,8e-05,-0.00015,2
5084,5256,-0.00049,-0.00013000000000000002,-0.00011999999999999999,-0.00016999999999999999,-0.00011,-8e-05,8e-05,-0.00015,2
5085,5257,-0.00049,-0.00013000000000000002,-0.00011999999999999999,-0.00016999999999999999,-0.00011,-8e-05,8e-05,-0.00015,2
5086,5258,-0.00049,-0.00013000000000000002,-0.00011999999999999999,-0.00016999999999999999,-0.00011,-8e-05,8e-05,-0.00015,2
5087,5259,-0.00049,-0.00013000000000000002,-0.00011999999999999999,-0.00016999999999999999,-0.00011,-8e-05,8e-05,-0.00015,2
5088,5260,-0.00049,-0.00013000000000000002,-0.00011999999999999999,-0.00016999999999999999,-0.00011,-8e-05,8e-05,-0.00015,2
5089,5261,-0.00049,-0.00013000000000000002,-0.00011999999999999999,-0.00016999999999999999,-0.00011,-8e-05,8e-05,-0.00015,2
5090,5262,-0.0001,-9e-05,8e-05,0.00015,-0.0001,-4e-05,-4e-05,0.0,2
5091,5263,-0.00027,-0.00028,-0.00035,-0.00018999999999999998,0.00011999999999999999,-8e-05,-0.00021,-0.0005200000000000001,2
5092,5264,-0.00027,-0.00028,-0.00035,-0.00018999999999999998,0.00011999999999999999,-8e-05,-0.00021,-0.0005200000000000001,2
5093,5265,-0.00027,-0.00028,-0.00035,-0.00018999999999999998,0.00011999999999999999,-8e-05,-0.00021,-0.0005200000000000001,2
5094,5266,-0.00027,-0.00028,-0.00035,-0.00018999999999999998,0.00011999999999999999,-8e-05,-0.00021,-0.0005200000000000001,2
5095,5267,-0.00027,-0.00028,-0.00035,-0.00018999999999999998,0.00011999999999999999,-8e-05,-0.00021,-0.0005200000000000001,2
5096,5268,-0.00027,-0.00028,-0.00035,-0.00018999999999999998,0.00011999999999999999,-8e-05,-0.00021,-0.0005200000000000001,2
5097,5269,-0.00027,-0.00028,-0.00035,-0.00018999999999999998,0.00011999999999999999,-8e-05,-0.00021,-0.0005200000000000001,2
5098,5270,-0.00027,-0.00028,-0.00035,-0.00018999999999999998,0.00011999999999999999,-8e-05,-0.00021,-0.0005200000000000001,2
5099,5271,-0.00027,-0.00028,-0.00035,-0.00018999999999999998,0.00011999999999999999,-8e-05,-0.00021,-0.0005200000000000001,2
5100,5272,-0.00027,-0.00028,-0.00035,-0.00018999999999999998,0.00011999999999999999,-8e-05,-0.00021,-0.0005200000000000001,2
5101,5273,-0.00027,-0.00028,-0.00035,-0.00018999999999999998,0.00011999999999999999,-8e-05,-0.00021,-0.0005200000000000001,2
5102,5274,-0.00027,-0.00028,-0.00035,-0.00018999999999999998,0.00011999999999999999,-8e-05,-0.00021,-0.0005200000000000001,2
5103,5275,-0.00027,-0.00028,-0.00035,-0.00018999999999999998,0.00011999999999999999,-8e-05,-0.00021,-0.0005200000000000001,2
5104,5276,-0.00027,-0.00028,-0.00035,-0.00018999999999999998,0.00011999999999999999,-8e-05,-0.00021,-0.0005200000000000001,2
5105,5277,-5e-05,7e-05,1e-05,-2e-05,-0.00013000000000000002,2.9999999999999997e-05,5e-05,7e-05,2
5106,5278,-5e-05,7e-05,1e-05,-2e-05,-0.00013000000000000002,2.9999999999999997e-05,5e-05,7e-05,2
5107,5279,-5e-05,7e-05,1e-05,-2e-05,-0.00013000000000000002,2.9999999999999997e-05,5e-05,7e-05,2
5108,5280,-5e-05,7e-05,1e-05,-2e-05,-0.00013000000000000002,2.9999999999999997e-05,5e-05,7e-05,2
5109,5281,-5e-05,7e-05,1e-05,-2e-05,-0.00013000000000000002,2.9999999999999997e-05,5e-05,7e-05,2
5110,5282,-5e-05,7e-05,1e-05,-2e-05,-0.00013000000000000002,2.9999999999999997e-05,5e-05,7e-05,2
5111,5283,-5e-05,7e-05,1e-05,-2e-05,-0.00013000000000000002,2.9999999999999997e-05,5e-05,7e-05,2
5112,5284,-5e-05,7e-05,1e-05,-2e-05,-0.00013000000000000002,2.9999999999999997e-05,5e-05,7e-05,2
5113,5285,0.00011,0.0,0.00018,0.00016999999999999999,4e-05,-0.00011,-0.00014,0.0002,2
5114,5286,0.00011,0.0,0.00018,0.00016999999999999999,4e-05,-0.00011,-0.00014,0.0002,2
5115,5288,0.00011,0.0,0.00018,0.00016999999999999999,4e-05,-0.00011,-0.00014,0.0002,2
5116,5289,0.00011,0.0,0.00018,0.00016999999999999999,4e-05,-0.00011,-0.00014,0.0002,2
5117,5290,0.00011,0.0,0.00018,0.00016999999999999999,4e-05,-0.00011,-0.00014,0.0002,2
5118,5291,0.00011,0.0,0.00018,0.00016999999999999999,4e-05,-0.00011,-0.00014,0.0002,2
5119,5292,0.00011,0.0,0.00018,0.00016999999999999999,4e-05,-0.00011,-0.00014,0.0002,2
5120,5293,0.00011,0.0,0.00018,0.00016999999999999999,4e-05,-0.00011,-0.00014,0.0002,2
5121,5294,0.00011,0.0,0.00018,0.00016999999999999999,4e-05,-0.00011,-0.00014,0.0002,2
5122,5295,0.00011,0.0,0.00018,0.00016999999999999999,4e-05,-0.00011,-0.00014,0.0002,2
5123,5296,0.00011,0.0,0.00018,0.00016999999999999999,4e-05,-0.00011,-0.00014,0.0002,2
5124,5297,0.00011,0.0,0.00018,0.00016999999999999999,4e-05,-0.00011,-0.00014,0.0002,2
5125,5298,0.00011,0.0,0.00018,0.00016999999999999999,4e-05,-0.00011,-0.00014,0.0002,2
5126,5299,0.00011,0.0,0.00018,0.00016999999999999999,4e-05,-0.00011,-0.00014,0.0002,2
5127,5300,-0.00029,-5.9999999999999995e-05,-0.00026000000000000003,-0.00062,-0.00023999999999999998,1e-05,7e-05,-0.00031,2
5128,5301,0.00059,5e-05,8e-05,0.00028,0.0,0.00045,0.00025,0.00056,2
5129,5302,0.00045,0.00026000000000000003,0.0002,0.00041,0.00026000000000000003,0.0002,0.0002,0.00014,2
5130,5303,0.00045,0.00026000000000000003,0.0002,0.00041,0.00026000000000000003,0.0002,0.0002,0.00014,2
5131,5304,0.00045,0.00026000000000000003,0.0002,0.00041,0.00026000000000000003,0.0002,0.0002,0.00014,2
5132,5305,0.00045,0.00026000000000000003,0.0002,0.00041,0.00026000000000000003,0.0002,0.0002,0.00014,2
5133,5306,0.00045,0.00026000000000000003,0.0002,0.00041,0.00026000000000000003,0.0002,0.0002,0.00014,2
5134,5307,0.00045,0.00026000000000000003,0.0002,0.00041,0.00026000000000000003,0.0002,0.0002,0.00014,2
5135,5308,0.00045,0.00026000000000000003,0.0002,0.00041,0.00026000000000000003,0.0002,0.0002,0.00014,2
5136,5309,0.00045,0.00026000000000000003,0.0002,0.00041,0.00026000000000000003,0.0002,0.0002,0.00014,2
5137,5310,0.00045,0.00026000000000000003,0.0002,0.00041,0.00026000000000000003,0.0002,0.0002,0.00014,2
5138,5311,0.00045,0.00026000000000000003,0.0002,0.00041,0.00026000000000000003,0.0002,0.0002,0.00014,2
5139,5312,0.00045,0.00026000000000000003,0.0002,0.00041,0.00026000000000000003,0.0002,0.0002,0.00014,2
5140,5313,0.00045,0.00026000000000000003,0.0002,0.00041,0.00026000000000000003,0.0002,0.0002,0.00014,2
5141,5314,0.00045,0.00026000000000000003,0.0002,0.00041,0.00026000000000000003,0.0002,0.0002,0.00014,2
5142,5315,0.00045,0.00026000000000000003,0.0002,0.00041,0.00026000000000000003,0.0002,0.0002,0.00014,2
5143,5316,0.00045,0.00026000000000000003,0.0002,0.00041,0.00026000000000000003,0.0002,0.0002,0.00014,2
5144,5317,0.00045,0.00026000000000000003,0.0002,0.00041,0.00026000000000000003,0.0002,0.0002,0.00014,2
5145,5318,0.00045,0.00026000000000000003,0.0002,0.00041,0.00026000000000000003,0.0002,0.0002,0.00014,2
5146,5319,0.00045,0.00026000000000000003,0.0002,0.00041,0.00026000000000000003,0.0002,0.0002,0.00014,2
5147,5320,0.00045,0.00026000000000000003,0.0002,0.00041,0.00026000000000000003,0.0002,0.0002,0.00014,2
5148,5321,0.00045,0.00026000000000000003,0.0002,0.00041,0.00026000000000000003,0.0002,0.0002,0.00014,2
5149,5322,0.00023999999999999998,-5.9999999999999995e-05,7e-05,-0.00018999999999999998,-0.00016999999999999999,0.0,-2.9999999999999997e-05,0.00081,2
5150,5323,0.00011999999999999999,5e-05,-5e-05,-0.00033999999999999997,0.00013000000000000002,0.00011,0.00029,0.00018999999999999998,2
5151,5324,0.00011999999999999999,5e-05,-5e-05,-0.00033999999999999997,0.00013000000000000002,0.00011,0.00029,0.00018999999999999998,2
5152,5325,0.00011999999999999999,5e-05,-5e-05,-0.00033999999999999997,0.00013000000000000002,0.00011,0.00029,0.00018999999999999998,2
5153,5326,0.00011999999999999999,5e-05,-5e-05,-0.00033999999999999997,0.00013000000000000002,0.00011,0.00029,0.00018999999999999998,2
5154,5327,0.00011999999999999999,5e-05,-5e-05,-0.00033999999999999997,0.00013000000000000002,0.00011,0.00029,0.00018999999999999998,2
5155,5328,0.00011999999999999999,5e-05,-5e-05,-0.00033999999999999997,0.00013000000000000002,0.00011,0.00029,0.00018999999999999998,2
5156,5329,0.00011999999999999999,5e-05,-5e-05,-0.00033999999999999997,0.00013000000000000002,0.00011,0.00029,0.00018999999999999998,2
5157,5330,0.00011999999999999999,5e-05,-5e-05,-0.00033999999999999997,0.00013000000000000002,0.00011,0.00029,0.00018999999999999998,2
5158,5331,0.00011999999999999999,5e-05,-5e-05,-0.00033999999999999997,0.00013000000000000002,0.00011,0.00029,0.00018999999999999998,2
5159,5332,0.00011999999999999999,5e-05,-5e-05,-0.00033999999999999997,0.00013000000000000002,0.00011,0.00029,0.00018999999999999998,2
5160,5333,0.00011999999999999999,5e-05,-5e-05,-0.00033999999999999997,0.00013000000000000002,0.00011,0.00029,0.00018999999999999998,2
5161,5334,0.00011999999999999999,5e-05,-5e-05,-0.00033999999999999997,0.00013000000000000002,0.00011,0.00029,0.00018999999999999998,2
5162,5335,0.00011999999999999999,5e-05,-5e-05,-0.00033999999999999997,0.00013000000000000002,0.00011,0.00029,0.00018999999999999998,2
5163,5336,0.00011999999999999999,5e-05,-5e-05,-0.00033999999999999997,0.00013000000000000002,0.00011,0.00029,0.00018999999999999998,2
5164,5338,-0.00035,-0.00022,-0.00014,0.00037,5.9999999999999995e-05,-0.00021,-0.00032,-0.0004,2
5165,5339,-0.00035,-0.00022,-0.00014,0.00037,5.9999999999999995e-05,-0.00021,-0.00032,-0.0004,2
5166,5340,-0.00035,-0.00022,-0.00014,0.00037,5.9999999999999995e-05,-0.00021,-0.00032,-0.0004,2
5167,5341,-0.00035,-0.00022,-0.00014,0.00037,5.9999999999999995e-05,-0.00021,-0.00032,-0.0004,2
5168,5342,-0.00035,-0.00022,-0.00014,0.00037,5.9999999999999995e-05,-0.00021,-0.00032,-0.0004,2
5169,5343,-0.00035,-0.00022,-0.00014,0.00037,5.9999999999999995e-05,-0.00021,-0.00032,-0.0004,2
5170,5344,-0.00035,-0.00022,-0.00014,0.00037,5.9999999999999995e-05,-0.00021,-0.00032,-0.0004,2
5171,5345,0.00016,-8e-05,-0.00015,-7e-05,-0.00011,8e-05,-0.00013000000000000002,0.0002,2
5172,5346,0.00016,-8e-05,-0.00015,-7e-05,-0.00011,8e-05,-0.00013000000000000002,0.0002,2
5173,5347,0.00016,-8e-05,-0.00015,-7e-05,-0.00011,8e-05,-0.00013000000000000002,0.0002,2
5174,5348,0.00016,-8e-05,-0.00015,-7e-05,-0.00011,8e-05,-0.00013000000000000002,0.0002,2
5175,5349,0.00016,-8e-05,-0.00015,-7e-05,-0.00011,8e-05,-0.00013000000000000002,0.0002,2
5176,5350,0.00016,-8e-05,-0.00015,-7e-05,-0.00011,8e-05,-0.00013000000000000002,0.0002,2
5177,5351,0.00016,-8e-05,-0.00015,-7e-05,-0.00011,8e-05,-0.00013000000000000002,0.0002,2
5178,5352,0.00016,-8e-05,-0.00015,-7e-05,-0.00011,8e-05,-0.00013000000000000002,0.0002,2
5179,5353,0.00016,-8e-05,-0.00015,-7e-05,-0.00011,8e-05,-0.00013000000000000002,0.0002,2
5180,5354,0.00016,-8e-05,-0.00015,-7e-05,-0.00011,8e-05,-0.00013000000000000002,0.0002,2
5181,5355,0.00016,-8e-05,-0.00015,-7e-05,-0.00011,8e-05,-0.00013000000000000002,0.0002,2
5182,5356,0.00016,-8e-05,-0.00015,-7e-05,-0.00011,8e-05,-0.00013000000000000002,0.0002,2
5183,5357,0.00016,-8e-05,-0.00015,-7e-05,-0.00011,8e-05,-0.00013000000000000002,0.0002,2
5184,5358,0.00016,-8e-05,-0.00015,-7e-05,-0.00011,8e-05,-0.00013000000000000002,0.0002,2
5185,5359,0.00016,-8e-05,-0.00015,-7e-05,-0.00011,8e-05,-0.00013000000000000002,0.0002,2
5186,5360,-0.0008900000000000001,-0.00016,-4e-05,-0.00011,-0.00014,4e-05,-0.0002,-0.00078,2
5187,5361,-0.00018999999999999998,7e-05,0.0002,0.0008300000000000001,0.00036,0.00016999999999999999,-0.00018999999999999998,-8e-05,2
5188,5362,-0.00018999999999999998,7e-05,0.0002,0.0008300000000000001,0.00036,0.00016999999999999999,-0.00018999999999999998,-8e-05,2
5189,5363,-0.00018999999999999998,7e-05,0.0002,0.0008300000000000001,0.00036,0.00016999999999999999,-0.00018999999999999998,-8e-05,2
5190,5364,-0.00018999999999999998,7e-05,0.0002,0.0008300000000000001,0.00036,0.00016999999999999999,-0.00018999999999999998,-8e-05,2
5191,5365,-0.00018999999999999998,7e-05,0.0002,0.0008300000000000001,0.00036,0.00016999999999999999,-0.00018999999999999998,-8e-05,2
5192,5366,-0.00018999999999999998,7e-05,0.0002,0.0008300000000000001,0.00036,0.00016999999999999999,-0.00018999999999999998,-8e-05,2
5193,5367,-0.00018999999999999998,7e-05,0.0002,0.0008300000000000001,0.00036,0.00016999999999999999,-0.00018999999999999998,-8e-05,2
5194,5368,-0.00018999999999999998,7e-05,0.0002,0.0008300000000000001,0.00036,0.00016999999999999999,-0.00018999999999999998,-8e-05,2
5195,5369,-0.00018999999999999998,7e-05,0.0002,0.0008300000000000001,0.00036,0.00016999999999999999,-0.00018999999999999998,-8e-05,2
5196,5370,-0.00018999999999999998,7e-05,0.0002,0.0008300000000000001,0.00036,0.00016999999999999999,-0.00018999999999999998,-8e-05,2
5197,5371,-0.00018999999999999998,7e-05,0.0002,0.0008300000000000001,0.00036,0.00016999999999999999,-0.00018999999999999998,-8e-05,2
5198,5372,-0.00018999999999999998,7e-05,0.0002,0.0008300000000000001,0.00036,0.00016999999999999999,-0.00018999999999999998,-8e-05,2
5199,5373,-0.00018999999999999998,7e-05,0.0002,0.0008300000000000001,0.00036,0.00016999999999999999,-0.00018999999999999998,-8e-05,2
5200,5374,-0.00018999999999999998,7e-05,0.0002,0.0008300000000000001,0.00036,0.00016999999999999999,-0.00018999999999999998,-8e-05,2
5201,5375,-0.00018999999999999998,7e-05,0.0002,0.0008300000000000001,0.00036,0.00016999999999999999,-0.00018999999999999998,-8e-05,2
5202,5376,-0.00018999999999999998,7e-05,0.0002,0.0008300000000000001,0.00036,0.00016999999999999999,-0.00018999999999999998,-8e-05,2
5203,5377,-0.00018999999999999998,7e-05,0.0002,0.0008300000000000001,0.00036,0.00016999999999999999,-0.00018999999999999998,-8e-05,2
5204,5378,-0.00018999999999999998,7e-05,0.0002,0.0008300000000000001,0.00036,0.00016999999999999999,-0.00018999999999999998,-8e-05,2
5205,5379,-0.00018999999999999998,7e-05,0.0002,0.0008300000000000001,0.00036,0.00016999999999999999,-0.00018999999999999998,-8e-05,2
5206,5380,-0.00018999999999999998,7e-05,0.0002,0.0008300000000000001,0.00036,0.00016999999999999999,-0.00018999999999999998,-8e-05,2
5207,5381,-0.00018999999999999998,7e-05,0.0002,0.0008300000000000001,0.00036,0.00016999999999999999,-0.00018999999999999998,-8e-05,2
5208,5382,-7e-05,-5.9999999999999995e-05,2.9999999999999997e-05,-0.00022999999999999998,-1e-05,-0.00011999999999999999,5.9999999999999995e-05,2.9999999999999997e-05,2
5209,5383,0.00045999999999999996,0.00014,0.0,-8e-05,-0.0001,1e-05,5e-05,-0.00016999999999999999,2
5210,5384,0.00045999999999999996,0.00014,0.0,-8e-05,-0.0001,1e-05,5e-05,-0.00016999999999999999,2
5211,5385,0.00045999999999999996,0.00014,0.0,-8e-05,-0.0001,1e-05,5e-05,-0.00016999999999999999,2
5212,5386,0.00045999999999999996,0.00014,0.0,-8e-05,-0.0001,1e-05,5e-05,-0.00016999999999999999,2
5213,5388,0.00045999999999999996,0.00014,0.0,-8e-05,-0.0001,1e-05,5e-05,-0.00016999999999999999,2
5214,5389,0.00045999999999999996,0.00014,0.0,-8e-05,-0.0001,1e-05,5e-05,-0.00016999999999999999,2
5215,5390,0.00045999999999999996,0.00014,0.0,-8e-05,-0.0001,1e-05,5e-05,-0.00016999999999999999,2
5216,5391,0.00045999999999999996,0.00014,0.0,-8e-05,-0.0001,1e-05,5e-05,-0.00016999999999999999,2
5217,5392,0.00045999999999999996,0.00014,0.0,-8e-05,-0.0001,1e-05,5e-05,-0.00016999999999999999,2
5218,5393,0.00045999999999999996,0.00014,0.0,-8e-05,-0.0001,1e-05,5e-05,-0.00016999999999999999,2
5219,5394,0.00045999999999999996,0.00014,0.0,-8e-05,-0.0001,1e-05,5e-05,-0.00016999999999999999,2
5220,5395,0.00045999999999999996,0.00014,0.0,-8e-05,-0.0001,1e-05,5e-05,-0.00016999999999999999,2
5221,5396,0.00045999999999999996,0.00014,0.0,-8e-05,-0.0001,1e-05,5e-05,-0.00016999999999999999,2
5222,5397,0.00045999999999999996,0.00014,0.0,-8e-05,-0.0001,1e-05,5e-05,-0.00016999999999999999,2
5223,5398,0.00045999999999999996,0.00014,0.0,-8e-05,-0.0001,1e-05,5e-05,-0.00016999999999999999,2
5224,5399,0.00045999999999999996,0.00014,0.0,-8e-05,-0.0001,1e-05,5e-05,-0.00016999999999999999,2
5225,5400,0.00045999999999999996,0.00014,0.0,-8e-05,-0.0001,1e-05,5e-05,-0.00016999999999999999,2
5226,5401,0.00045999999999999996,0.00014,0.0,-8e-05,-0.0001,1e-05,5e-05,-0.00016999999999999999,2
5227,5402,0.00045999999999999996,0.00014,0.0,-8e-05,-0.0001,1e-05,5e-05,-0.00016999999999999999,2
5228,5403,0.00045999999999999996,0.00014,0.0,-8e-05,-0.0001,1e-05,5e-05,-0.00016999999999999999,2
5229,5404,0.00045999999999999996,0.00014,0.0,-8e-05,-0.0001,1e-05,5e-05,-0.00016999999999999999,2
5230,5405,0.00045999999999999996,0.00014,0.0,-8e-05,-0.0001,1e-05,5e-05,-0.00016999999999999999,2
5231,5406,0.00072,0.00014,0.00016,0.0001,-8e-05,0.00042,0.00042,0.00109,2
5232,5407,-0.00016999999999999999,-4e-05,-0.00013000000000000002,-0.00014,1e-05,0.00022999999999999998,9e-05,-4e-05,2
5233,5409,-0.00016999999999999999,-4e-05,-0.00013000000000000002,-0.00014,1e-05,0.00022999999999999998,9e-05,-4e-05,2
5234,5410,-0.00016999999999999999,-4e-05,-0.00013000000000000002,-0.00014,1e-05,0.00022999999999999998,9e-05,-4e-05,2
5235,5411,-0.00016999999999999999,-4e-05,-0.00013000000000000002,-0.00014,1e-05,0.00022999999999999998,9e-05,-4e-05,2
5236,5412,-0.00016999999999999999,-4e-05,-0.00013000000000000002,-0.00014,1e-05,0.00022999999999999998,9e-05,-4e-05,2
5237,5413,-0.00016999999999999999,-4e-05,-0.00013000000000000002,-0.00014,1e-05,0.00022999999999999998,9e-05,-4e-05,2
5238,5414,-0.00016999999999999999,-4e-05,-0.00013000000000000002,-0.00014,1e-05,0.00022999999999999998,9e-05,-4e-05,2
5239,5415,-0.00016999999999999999,-4e-05,-0.00013000000000000002,-0.00014,1e-05,0.00022999999999999998,9e-05,-4e-05,2
5240,5416,-0.00016999999999999999,-4e-05,-0.00013000000000000002,-0.00014,1e-05,0.00022999999999999998,9e-05,-4e-05,2
5241,5417,-0.00016999999999999999,-4e-05,-0.00013000000000000002,-0.00014,1e-05,0.00022999999999999998,9e-05,-4e-05,2
5242,5418,-0.00016999999999999999,-4e-05,-0.00013000000000000002,-0.00014,1e-05,0.00022999999999999998,9e-05,-4e-05,2
5243,5419,-0.00016999999999999999,-4e-05,-0.00013000000000000002,-0.00014,1e-05,0.00022999999999999998,9e-05,-4e-05,2
5244,5420,0.00018,-2e-05,0.0,5.9999999999999995e-05,0.00031,5e-05,0.00016999999999999999,0.00044,2
5245,5421,0.00025,0.0002,0.00018,0.00022,0.00022999999999999998,4e-05,0.00043,0.00028,2
5246,5422,0.00025,0.0002,0.00018,0.00022,0.00022999999999999998,4e-05,0.00043,0.00028,2
5247,5423,0.00025,0.0002,0.00018,0.00022,0.00022999999999999998,4e-05,0.00043,0.00028,2
5248,5424,0.00025,0.0002,0.00018,0.00022,0.00022999999999999998,4e-05,0.00043,0.00028,2
5249,5425,0.00025,0.0002,0.00018,0.00022,0.00022999999999999998,4e-05,0.00043,0.00028,2
5250,5426,0.00025,0.0002,0.00018,0.00022,0.00022999999999999998,4e-05,0.00043,0.00028,2
5251,5427,0.00025,0.0002,0.00018,0.00022,0.00022999999999999998,4e-05,0.00043,0.00028,2
5252,5428,0.00025,0.0002,0.00018,0.00022,0.00022999999999999998,4e-05,0.00043,0.00028,2
5253,5429,0.00025,0.0002,0.00018,0.00022,0.00022999999999999998,4e-05,0.00043,0.00028,2
5254,5430,0.00025,0.0002,0.00018,0.00022,0.00022999999999999998,4e-05,0.00043,0.00028,2
5255,5431,0.00025,0.0002,0.00018,0.00022,0.00022999999999999998,4e-05,0.00043,0.00028,2
5256,5432,0.00025,0.0002,0.00018,0.00022,0.00022999999999999998,4e-05,0.00043,0.00028,2
5257,5433,0.00025,0.0002,0.00018,0.00022,0.00022999999999999998,4e-05,0.00043,0.00028,2
5258,5434,0.00025,0.0002,0.00018,0.00022,0.00022999999999999998,4e-05,0.00043,0.00028,2
5259,5435,0.00025,0.0002,0.00018,0.00022,0.00022999999999999998,4e-05,0.00043,0.00028,2
5260,5436,0.00025,0.0002,0.00018,0.00022,0.00022999999999999998,4e-05,0.00043,0.00028,2
5261,5438,0.00025,0.0002,0.00018,0.00022,0.00022999999999999998,4e-05,0.00043,0.00028,2
5262,5439,0.00025,0.0002,0.00018,0.00022,0.00022999999999999998,4e-05,0.00043,0.00028,2
5263,5440,0.00025,0.0002,0.00018,0.00022,0.00022999999999999998,4e-05,0.00043,0.00028,2
5264,5441,0.00025,0.0002,0.00018,0.00022,0.00022999999999999998,4e-05,0.00043,0.00028,2
5265,5442,0.00025,0.0002,0.00018,0.00022,0.00022999999999999998,4e-05,0.00043,0.00028,2
5266,5443,-0.00028,-5.9999999999999995e-05,5e-05,-0.00032,2.9999999999999997e-05,0.00015,-1e-05,2e-05,2
5267,5444,0.00022999999999999998,0.0001,0.00022,0.00014,-0.00032,-8e-05,0.00022999999999999998,0.00016999999999999999,2
5268,5445,0.00022999999999999998,0.0001,0.00022,0.00014,-0.00032,-8e-05,0.00022999999999999998,0.00016999999999999999,2
5269,5446,0.00022999999999999998,0.0001,0.00022,0.00014,-0.00032,-8e-05,0.00022999999999999998,0.00016999999999999999,2
5270,5447,0.00022999999999999998,0.0001,0.00022,0.00014,-0.00032,-8e-05,0.00022999999999999998,0.00016999999999999999,2
5271,5448,0.00022999999999999998,0.0001,0.00022,0.00014,-0.00032,-8e-05,0.00022999999999999998,0.00016999999999999999,2
5272,5449,0.00022999999999999998,0.0001,0.00022,0.00014,-0.00032,-8e-05,0.00022999999999999998,0.00016999999999999999,2
5273,5450,0.00022999999999999998,0.0001,0.00022,0.00014,-0.00032,-8e-05,0.00022999999999999998,0.00016999999999999999,2
5274,5451,0.00022999999999999998,0.0001,0.00022,0.00014,-0.00032,-8e-05,0.00022999999999999998,0.00016999999999999999,2
5275,5452,0.00022999999999999998,0.0001,0.00022,0.00014,-0.00032,-8e-05,0.00022999999999999998,0.00016999999999999999,2
5276,5453,0.00022999999999999998,0.0001,0.00022,0.00014,-0.00032,-8e-05,0.00022999999999999998,0.00016999999999999999,2
5277,5454,0.00022999999999999998,0.0001,0.00022,0.00014,-0.00032,-8e-05,0.00022999999999999998,0.00016999999999999999,2
5278,5455,0.00022999999999999998,0.0001,0.00022,0.00014,-0.00032,-8e-05,0.00022999999999999998,0.00016999999999999999,2
5279,5456,0.00022999999999999998,0.0001,0.00022,0.00014,-0.00032,-8e-05,0.00022999999999999998,0.00016999999999999999,2
5280,5457,0.00022999999999999998,0.0001,0.00022,0.00014,-0.00032,-8e-05,0.00022999999999999998,0.00016999999999999999,2
5281,5458,0.00022999999999999998,0.0001,0.00022,0.00014,-0.00032,-8e-05,0.00022999999999999998,0.00016999999999999999,2
5282,5459,0.00022999999999999998,0.0001,0.00022,0.00014,-0.00032,-8e-05,0.00022999999999999998,0.00016999999999999999,2
5283,5460,0.00022999999999999998,0.0001,0.00022,0.00014,-0.00032,-8e-05,0.00022999999999999998,0.00016999999999999999,2
5284,5461,0.00022999999999999998,0.0001,0.00022,0.00014,-0.00032,-8e-05,0.00022999999999999998,0.00016999999999999999,2
5285,5462,0.00022999999999999998,0.0001,0.00022,0.00014,-0.00032,-8e-05,0.00022999999999999998,0.00016999999999999999,2
5286,5463,0.00022999999999999998,0.0001,0.00022,0.00014,-0.00032,-8e-05,0.00022999999999999998,0.00016999999999999999,2
5287,5464,0.00022999999999999998,0.0001,0.00022,0.00014,-0.00032,-8e-05,0.00022999999999999998,0.00016999999999999999,2
5288,5465,0.00022999999999999998,0.0001,0.00022,0.00014,-0.00032,-8e-05,0.00022999999999999998,0.00016999999999999999,2
5289,5466,-0.00027,-0.00015,4e-05,-0.00016999999999999999,-4e-05,0.00018,-0.00015,-0.00027,2
5290,5467,-0.00022999999999999998,-0.00011,4e-05,0.0005099999999999999,4e-05,-0.00014,-0.00037,-0.00018999999999999998,2
5291,5468,-0.00022999999999999998,-0.00011,4e-05,0.0005099999999999999,4e-05,-0.00014,-0.00037,-0.00018999999999999998,2
5292,5469,-0.00022999999999999998,-0.00011,4e-05,0.0005099999999999999,4e-05,-0.00014,-0.00037,-0.00018999999999999998,2
5293,5470,-0.00022999999999999998,-0.00011,4e-05,0.0005099999999999999,4e-05,-0.00014,-0.00037,-0.00018999999999999998,2
5294,5471,-0.00022999999999999998,-0.00011,4e-05,0.0005099999999999999,4e-05,-0.00014,-0.00037,-0.00018999999999999998,2
5295,5472,-0.00022999999999999998,-0.00011,4e-05,0.0005099999999999999,4e-05,-0.00014,-0.00037,-0.00018999999999999998,2
5296,5473,-0.00022999999999999998,-0.00011,4e-05,0.0005099999999999999,4e-05,-0.00014,-0.00037,-0.00018999999999999998,2
5297,5474,-0.00022999999999999998,-0.00011,4e-05,0.0005099999999999999,4e-05,-0.00014,-0.00037,-0.00018999999999999998,2
5298,5475,-0.00022999999999999998,-0.00011,4e-05,0.0005099999999999999,4e-05,-0.00014,-0.00037,-0.00018999999999999998,2
5299,5476,-0.00022999999999999998,-0.00011,4e-05,0.0005099999999999999,4e-05,-0.00014,-0.00037,-0.00018999999999999998,2
5300,5477,-0.00022999999999999998,-0.00011,4e-05,0.0005099999999999999,4e-05,-0.00014,-0.00037,-0.00018999999999999998,2
5301,5478,-0.00022999999999999998,-0.00011,4e-05,0.0005099999999999999,4e-05,-0.00014,-0.00037,-0.00018999999999999998,2
5302,5479,-0.00022999999999999998,-0.00011,4e-05,0.0005099999999999999,4e-05,-0.00014,-0.00037,-0.00018999999999999998,2
5303,5480,-0.00022999999999999998,-0.00011,4e-05,0.0005099999999999999,4e-05,-0.00014,-0.00037,-0.00018999999999999998,2
5304,5481,-0.00022999999999999998,-0.00011,4e-05,0.0005099999999999999,4e-05,-0.00014,-0.00037,-0.00018999999999999998,2
5305,5482,-0.00022999999999999998,-0.00011,4e-05,0.0005099999999999999,4e-05,-0.00014,-0.00037,-0.00018999999999999998,2
5306,5483,-0.00022999999999999998,-0.00011,4e-05,0.0005099999999999999,4e-05,-0.00014,-0.00037,-0.00018999999999999998,2
5307,5484,-0.00022999999999999998,-0.00011,4e-05,0.0005099999999999999,4e-05,-0.00014,-0.00037,-0.00018999999999999998,2
5308,5485,-0.00022999999999999998,-0.00011,4e-05,0.0005099999999999999,4e-05,-0.00014,-0.00037,-0.00018999999999999998,2
5309,5486,-0.00022999999999999998,-0.00011,4e-05,0.0005099999999999999,4e-05,-0.00014,-0.00037,-0.00018999999999999998,2
5310,5488,0.00025,2e-05,-1e-05,0.00023999999999999998,-2e-05,0.00018,0.00022,0.00018999999999999998,2
5311,5489,0.00025,2e-05,-1e-05,0.00023999999999999998,-2e-05,0.00018,0.00022,0.00018999999999999998,2
5312,5490,0.00025,2e-05,-1e-05,0.00023999999999999998,-2e-05,0.00018,0.00022,0.00018999999999999998,2
5313,5491,0.00025,2e-05,-1e-05,0.00023999999999999998,-2e-05,0.00018,0.00022,0.00018999999999999998,2
5314,5492,0.00025,2e-05,-1e-05,0.00023999999999999998,-2e-05,0.00018,0.00022,0.00018999999999999998,2
5315,5493,0.00025,2e-05,-1e-05,0.00023999999999999998,-2e-05,0.00018,0.00022,0.00018999999999999998,2
5316,5494,0.00025,2e-05,-1e-05,0.00023999999999999998,-2e-05,0.00018,0.00022,0.00018999999999999998,2
5317,5495,-0.00039,-4e-05,-5.9999999999999995e-05,-0.00023999999999999998,5e-05,0.0,-0.00018,-0.0005,2
5318,5496,-0.00039,-4e-05,-5.9999999999999995e-05,-0.00023999999999999998,5e-05,0.0,-0.00018,-0.0005,2
5319,5497,-0.00039,-4e-05,-5.9999999999999995e-05,-0.00023999999999999998,5e-05,0.0,-0.00018,-0.0005,2
5320,5498,-0.00039,-4e-05,-5.9999999999999995e-05,-0.00023999999999999998,5e-05,0.0,-0.00018,-0.0005,2
5321,5499,-0.00039,-4e-05,-5.9999999999999995e-05,-0.00023999999999999998,5e-05,0.0,-0.00018,-0.0005,2
5322,5500,-0.00039,-4e-05,-5.9999999999999995e-05,-0.00023999999999999998,5e-05,0.0,-0.00018,-0.0005,2
5323,5501,-0.00039,-4e-05,-5.9999999999999995e-05,-0.00023999999999999998,5e-05,0.0,-0.00018,-0.0005,2
5324,5502,-0.00039,-4e-05,-5.9999999999999995e-05,-0.00023999999999999998,5e-05,0.0,-0.00018,-0.0005,2
5325,5503,5.9999999999999995e-05,5.9999999999999995e-05,7e-05,-1e-05,2e-05,0.0002,0.00011,2e-05,2
5326,5504,5.9999999999999995e-05,5.9999999999999995e-05,7e-05,-1e-05,2e-05,0.0002,0.00011,2e-05,2
5327,5505,5.9999999999999995e-05,5.9999999999999995e-05,7e-05,-1e-05,2e-05,0.0002,0.00011,2e-05,2
5328,5506,5.9999999999999995e-05,5.9999999999999995e-05,7e-05,-1e-05,2e-05,0.0002,0.00011,2e-05,2
5329,5507,5.9999999999999995e-05,5.9999999999999995e-05,7e-05,-1e-05,2e-05,0.0002,0.00011,2e-05,2
5330,5508,5.9999999999999995e-05,5.9999999999999995e-05,7e-05,-1e-05,2e-05,0.0002,0.00011,2e-05,2
5331,5509,5.9999999999999995e-05,5.9999999999999995e-05,7e-05,-1e-05,2e-05,0.0002,0.00011,2e-05,2
5332,5510,-0.00033999999999999997,-0.0001,-0.00032,-0.00016,-1e-05,-0.0003,-0.0003,-0.00043,2
5333,5511,-0.00033999999999999997,-0.0001,-0.00032,-0.00016,-1e-05,-0.0003,-0.0003,-0.00043,2
5334,5512,-0.00033999999999999997,-0.0001,-0.00032,-0.00016,-1e-05,-0.0003,-0.0003,-0.00043,2
5335,5513,-0.00033999999999999997,-0.0001,-0.00032,-0.00016,-1e-05,-0.0003,-0.0003,-0.00043,2
5336,5514,-0.00033999999999999997,-0.0001,-0.00032,-0.00016,-1e-05,-0.0003,-0.0003,-0.00043,2
5337,5515,-0.00033999999999999997,-0.0001,-0.00032,-0.00016,-1e-05,-0.0003,-0.0003,-0.00043,2
5338,5516,-0.00033999999999999997,-0.0001,-0.00032,-0.00016,-1e-05,-0.0003,-0.0003,-0.00043,2
5339,5517,-0.00033999999999999997,-4e-05,-2.9999999999999997e-05,0.00022,8e-05,9e-05,0.00014,-8e-05,2
5340,5518,-0.00033999999999999997,-4e-05,-2.9999999999999997e-05,0.00022,8e-05,9e-05,0.00014,-8e-05,2
5341,5519,-0.00033999999999999997,-4e-05,-2.9999999999999997e-05,0.00022,8e-05,9e-05,0.00014,-8e-05,2
5342,5520,-0.00033999999999999997,-4e-05,-2.9999999999999997e-05,0.00022,8e-05,9e-05,0.00014,-8e-05,2
5343,5521,-0.00033999999999999997,-4e-05,-2.9999999999999997e-05,0.00022,8e-05,9e-05,0.00014,-8e-05,2
5344,5522,-0.00033999999999999997,-4e-05,-2.9999999999999997e-05,0.00022,8e-05,9e-05,0.00014,-8e-05,2
5345,5523,-0.00033999999999999997,-4e-05,-2.9999999999999997e-05,0.00022,8e-05,9e-05,0.00014,-8e-05,2
5346,5524,-0.00033999999999999997,-4e-05,-2.9999999999999997e-05,0.00022,8e-05,9e-05,0.00014,-8e-05,2
5347,5525,0.00011999999999999999,8e-05,-9e-05,-0.00061,-0.00032,0.00014,-0.0003,-0.00018,2
5348,5526,0.00011999999999999999,8e-05,-9e-05,-0.00061,-0.00032,0.00014,-0.0003,-0.00018,2
5349,5527,0.00011999999999999999,8e-05,-9e-05,-0.00061,-0.00032,0.00014,-0.0003,-0.00018,2
5350,5528,0.00011999999999999999,8e-05,-9e-05,-0.00061,-0.00032,0.00014,-0.0003,-0.00018,2
5351,5529,0.00011999999999999999,8e-05,-9e-05,-0.00061,-0.00032,0.00014,-0.0003,-0.00018,2
5352,5530,0.00011999999999999999,8e-05,-9e-05,-0.00061,-0.00032,0.00014,-0.0003,-0.00018,2
5353,5531,0.00011999999999999999,8e-05,-9e-05,-0.00061,-0.00032,0.00014,-0.0003,-0.00018,2
5354,5532,0.00011999999999999999,8e-05,-9e-05,-0.00061,-0.00032,0.00014,-0.0003,-0.00018,2
5355,5533,0.00011999999999999999,8e-05,-9e-05,-0.00061,-0.00032,0.00014,-0.0003,-0.00018,2
5356,5534,0.00011999999999999999,8e-05,-9e-05,-0.00061,-0.00032,0.00014,-0.0003,-0.00018,2
5357,5535,0.00011999999999999999,8e-05,-9e-05,-0.00061,-0.00032,0.00014,-0.0003,-0.00018,2
5358,5536,0.00011999999999999999,8e-05,-9e-05,-0.00061,-0.00032,0.00014,-0.0003,-0.00018,2
5359,5538,0.00011999999999999999,8e-05,-9e-05,-0.00061,-0.00032,0.00014,-0.0003,-0.00018,2
5360,5539,0.00011999999999999999,8e-05,-9e-05,-0.00061,-0.00032,0.00014,-0.0003,-0.00018,2
5361,5540,0.00011999999999999999,8e-05,-9e-05,-0.00061,-0.00032,0.00014,-0.0003,-0.00018,2
5362,5541,-0.0005,-0.00011,-4e-05,-0.0001,8e-05,0.00028,5e-05,-0.00026000000000000003,2
5363,5542,0.00023999999999999998,-4e-05,5.9999999999999995e-05,0.00031,2e-05,0.00015,0.0003,0.00044,2
5364,5543,0.00023999999999999998,-4e-05,5.9999999999999995e-05,0.00031,2e-05,0.00015,0.0003,0.00044,2
5365,5544,0.00023999999999999998,-4e-05,5.9999999999999995e-05,0.00031,2e-05,0.00015,0.0003,0.00044,2
5366,5545,0.00023999999999999998,-4e-05,5.9999999999999995e-05,0.00031,2e-05,0.00015,0.0003,0.00044,2
5367,5546,0.00023999999999999998,-4e-05,5.9999999999999995e-05,0.00031,2e-05,0.00015,0.0003,0.00044,2
5368,5547,0.00023999999999999998,-4e-05,5.9999999999999995e-05,0.00031,2e-05,0.00015,0.0003,0.00044,2
5369,5548,0.00023999999999999998,-4e-05,5.9999999999999995e-05,0.00031,2e-05,0.00015,0.0003,0.00044,2
5370,5549,0.00023999999999999998,-4e-05,5.9999999999999995e-05,0.00031,2e-05,0.00015,0.0003,0.00044,2
5371,5550,0.00023999999999999998,-4e-05,5.9999999999999995e-05,0.00031,2e-05,0.00015,0.0003,0.00044,2
5372,5551,0.00023999999999999998,-4e-05,5.9999999999999995e-05,0.00031,2e-05,0.00015,0.0003,0.00044,2
5373,5552,0.00023999999999999998,-4e-05,5.9999999999999995e-05,0.00031,2e-05,0.00015,0.0003,0.00044,2
5374,5553,0.00023999999999999998,-4e-05,5.9999999999999995e-05,0.00031,2e-05,0.00015,0.0003,0.00044,2
5375,5554,0.00023999999999999998,-4e-05,5.9999999999999995e-05,0.00031,2e-05,0.00015,0.0003,0.00044,2
5376,5555,0.00023999999999999998,-4e-05,5.9999999999999995e-05,0.00031,2e-05,0.00015,0.0003,0.00044,2
5377,5556,0.00023999999999999998,-4e-05,5.9999999999999995e-05,0.00031,2e-05,0.00015,0.0003,0.00044,2
5378,5557,0.00023999999999999998,-4e-05,5.9999999999999995e-05,0.00031,2e-05,0.00015,0.0003,0.00044,2
5379,5558,0.00023999999999999998,-4e-05,5.9999999999999995e-05,0.00031,2e-05,0.00015,0.0003,0.00044,2
5380,5559,0.00023999999999999998,-4e-05,5.9999999999999995e-05,0.00031,2e-05,0.00015,0.0003,0.00044,2
5381,5560,0.00023999999999999998,-4e-05,5.9999999999999995e-05,0.00031,2e-05,0.00015,0.0003,0.00044,2
5382,5561,0.00023999999999999998,-4e-05,5.9999999999999995e-05,0.00031,2e-05,0.00015,0.0003,0.00044,2
5383,5562,-5.9999999999999995e-05,7e-05,-5.9999999999999995e-05,-2e-05,0.00014,-0.0001,-0.00033999999999999997,-0.0003,2
5384,5563,5.9999999999999995e-05,-5e-05,4e-05,-0.00032,2.9999999999999997e-05,0.00033,9e-05,0.00032,2
5385,5564,5.9999999999999995e-05,-5e-05,4e-05,-0.00032,2.9999999999999997e-05,0.00033,9e-05,0.00032,2
5386,5565,5.9999999999999995e-05,-5e-05,4e-05,-0.00032,2.9999999999999997e-05,0.00033,9e-05,0.00032,2
