,time,channel1,channel2,channel3,channel4,channel5,channel6,channel7,channel8,class
4989,5265,-0.00049,-8e-05,-9e-05,-0.00015,-9e-05,-0.0002,0.00082,-0.00022999999999999998,2
4990,5266,-0.00049,-8e-05,-9e-05,-0.00015,-9e-05,-0.0002,0.00082,-0.00022999999999999998,2
4991,5267,-0.00049,-8e-05,-9e-05,-0.00015,-9e-05,-0.0002,0.00082,-0.00022999999999999998,2
4992,5268,-0.00049,-8e-05,-9e-05,-0.00015,-9e-05,-0.0002,0.00082,-0.00022999999999999998,2
4993,5269,-0.00049,-8e-05,-9e-05,-0.00015,-9e-05,-0.0002,0.00082,-0.00022999999999999998,2
4994,5270,-0.00049,-8e-05,-9e-05,-0.00015,-9e-05,-0.0002,0.00082,-0.00022999999999999998,2
4995,5271,-0.00049,-8e-05,-9e-05,-0.00015,-9e-05,-0.0002,0.00082,-0.00022999999999999998,2
4996,5272,0.00049,0.00018,0.00055,0.0009699999999999999,-0.00037999999999999997,-0.00045,-0.00128,-0.00036,2
4997,5273,0.00011999999999999999,-5.9999999999999995e-05,-0.00037999999999999997,-0.0010400000000000001,0.00029,-2e-05,-0.00072,0.00015,2
4998,5274,0.00011999999999999999,-5.9999999999999995e-05,-0.00037999999999999997,-0.0010400000000000001,0.00029,-2e-05,-0.00072,0.00015,2
4999,5275,0.00011999999999999999,-5.9999999999999995e-05,-0.00037999999999999997,-0.0010400000000000001,0.00029,-2e-05,-0.00072,0.00015,2
5000,5276,0.00011999999999999999,-5.9999999999999995e-05,-0.00037999999999999997,-0.0010400000000000001,0.00029,-2e-05,-0.00072,0.00015,2
5001,5277,0.00011999999999999999,-5.9999999999999995e-05,-0.00037999999999999997,-0.0010400000000000001,0.00029,-2e-05,-0.00072,0.00015,2
5002,5278,0.00011999999999999999,-5.9999999999999995e-05,-0.00037999999999999997,-0.0010400000000000001,0.00029,-2e-05,-0.00072,0.00015,2
5003,5279,0.00011999999999999999,-5.9999999999999995e-05,-0.00037999999999999997,-0.0010400000000000001,0.00029,-2e-05,-0.00072,0.00015,2
5004,5280,0.00011999999999999999,-5.9999999999999995e-05,-0.00037999999999999997,-0.0010400000000000001,0.00029,-2e-05,-0.00072,0.00015,2
5005,5281,0.00011999999999999999,-5.9999999999999995e-05,-0.00037999999999999997,-0.0010400000000000001,0.00029,-2e-05,-0.00072,0.00015,2
5006,5282,0.00011999999999999999,-5.9999999999999995e-05,-0.00037999999999999997,-0.0010400000000000001,0.00029,-2e-05,-0.00072,0.00015,2
5007,5283,0.00011999999999999999,-5.9999999999999995e-05,-0.00037999999999999997,-0.0010400000000000001,0.00029,-2e-05,-0.00072,0.00015,2
5008,5284,0.00011999999999999999,-5.9999999999999995e-05,-0.00037999999999999997,-0.0010400000000000001,0.00029,-2e-05,-0.00072,0.00015,2
5009,5285,0.00011999999999999999,-5.9999999999999995e-05,-0.00037999999999999997,-0.0010400000000000001,0.00029,-2e-05,-0.00072,0.00015,2
5010,5287,-0.0006900000000000001,-5.9999999999999995e-05,0.00023999999999999998,0.00023999999999999998,0.0002,0.00082,0.00105,0.00025,2
5011,5289,0.00014,0.00018999999999999998,2.9999999999999997e-05,0.00029,0.00022999999999999998,7e-05,0.00119,-0.0007700000000000001,2
5012,5290,0.00014,0.00018999999999999998,2.9999999999999997e-05,0.00029,0.00022999999999999998,7e-05,0.00119,-0.0007700000000000001,2
5013,5291,0.00014,0.00018999999999999998,2.9999999999999997e-05,0.00029,0.00022999999999999998,7e-05,0.00119,-0.0007700000000000001,2
5014,5292,0.00014,0.00018999999999999998,2.9999999999999997e-05,0.00029,0.00022999999999999998,7e-05,0.00119,-0.0007700000000000001,2
5015,5293,0.00014,0.00018999999999999998,2.9999999999999997e-05,0.00029,0.00022999999999999998,7e-05,0.00119,-0.0007700000000000001,2
5016,5294,0.00014,0.00018999999999999998,2.9999999999999997e-05,0.00029,0.00022999999999999998,7e-05,0.00119,-0.0007700000000000001,2
5017,5295,0.00014,0.00018999999999999998,2.9999999999999997e-05,0.00029,0.00022999999999999998,7e-05,0.00119,-0.0007700000000000001,2
5018,5296,0.00014,0.00018999999999999998,2.9999999999999997e-05,0.00029,0.00022999999999999998,7e-05,0.00119,-0.0007700000000000001,2
5019,5297,0.00014,0.00018999999999999998,2.9999999999999997e-05,0.00029,0.00022999999999999998,7e-05,0.00119,-0.0007700000000000001,2
5020,5298,0.00014,0.00018999999999999998,2.9999999999999997e-05,0.00029,0.00022999999999999998,7e-05,0.00119,-0.0007700000000000001,2
5021,5299,0.00014,0.00018999999999999998,2.9999999999999997e-05,0.00029,0.00022999999999999998,7e-05,0.00119,-0.0007700000000000001,2
5022,5300,0.00014,0.00018999999999999998,2.9999999999999997e-05,0.00029,0.00022999999999999998,7e-05,0.00119,-0.0007700000000000001,2
5023,5301,0.00014,0.00018999999999999998,2.9999999999999997e-05,0.00029,0.00022999999999999998,7e-05,0.00119,-0.0007700000000000001,2
5024,5302,0.00014,0.00018999999999999998,2.9999999999999997e-05,0.00029,0.00022999999999999998,7e-05,0.00119,-0.0007700000000000001,2
5025,5303,0.00014,0.00018999999999999998,2.9999999999999997e-05,0.00029,0.00022999999999999998,7e-05,0.00119,-0.0007700000000000001,2
5026,5304,0.00014,0.00018999999999999998,2.9999999999999997e-05,0.00029,0.00022999999999999998,7e-05,0.00119,-0.0007700000000000001,2
5027,5305,0.00014,0.00018999999999999998,2.9999999999999997e-05,0.00029,0.00022999999999999998,7e-05,0.00119,-0.0007700000000000001,2
5028,5306,0.00014,0.00018999999999999998,2.9999999999999997e-05,0.00029,0.00022999999999999998,7e-05,0.00119,-0.0007700000000000001,2
5029,5307,0.00014,0.00018999999999999998,2.9999999999999997e-05,0.00029,0.00022999999999999998,7e-05,0.00119,-0.0007700000000000001,2
5030,5308,0.00014,0.00018999999999999998,2.9999999999999997e-05,0.00029,0.00022999999999999998,7e-05,0.00119,-0.0007700000000000001,2
5031,5309,0.00014,0.00018999999999999998,2.9999999999999997e-05,0.00029,0.00022999999999999998,7e-05,0.00119,-0.0007700000000000001,2
5032,5310,-0.00058,1e-05,-0.00011,1e-05,-2.9999999999999997e-05,-7e-05,-0.00042,-0.00118,2
5033,5311,-0.00018,1e-05,0.00018999999999999998,-0.00035,0.00011999999999999999,0.00014,0.00075,-9e-05,2
5034,5312,-0.00018,1e-05,0.00018999999999999998,-0.00035,0.00011999999999999999,0.00014,0.00075,-9e-05,2
5035,5313,-0.00018,1e-05,0.00018999999999999998,-0.00035,0.00011999999999999999,0.00014,0.00075,-9e-05,2
5036,5314,-0.00018,1e-05,0.00018999999999999998,-0.00035,0.00011999999999999999,0.00014,0.00075,-9e-05,2
5037,5315,-0.00018,1e-05,0.00018999999999999998,-0.00035,0.00011999999999999999,0.00014,0.00075,-9e-05,2
5038,5316,-0.00018,1e-05,0.00018999999999999998,-0.00035,0.00011999999999999999,0.00014,0.00075,-9e-05,2
5039,5317,-0.00018,1e-05,0.00018999999999999998,-0.00035,0.00011999999999999999,0.00014,0.00075,-9e-05,2
5040,5318,-0.00018,1e-05,0.00018999999999999998,-0.00035,0.00011999999999999999,0.00014,0.00075,-9e-05,2
5041,5319,-0.00018,1e-05,0.00018999999999999998,-0.00035,0.00011999999999999999,0.00014,0.00075,-9e-05,2
5042,5320,-0.00018,1e-05,0.00018999999999999998,-0.00035,0.00011999999999999999,0.00014,0.00075,-9e-05,2
5043,5321,-0.00018,1e-05,0.00018999999999999998,-0.00035,0.00011999999999999999,0.00014,0.00075,-9e-05,2
5044,5322,-0.00018,1e-05,0.00018999999999999998,-0.00035,0.00011999999999999999,0.00014,0.00075,-9e-05,2
5045,5323,-0.00018,1e-05,0.00018999999999999998,-0.00035,0.00011999999999999999,0.00014,0.00075,-9e-05,2
5046,5324,-9e-05,-8e-05,1e-05,0.00023999999999999998,0.00023999999999999998,-1e-05,0.00075,0.001,2
5047,5325,-9e-05,-8e-05,1e-05,0.00023999999999999998,0.00023999999999999998,-1e-05,0.00075,0.001,2
5048,5326,-9e-05,-8e-05,1e-05,0.00023999999999999998,0.00023999999999999998,-1e-05,0.00075,0.001,2
5049,5327,-9e-05,-8e-05,1e-05,0.00023999999999999998,0.00023999999999999998,-1e-05,0.00075,0.001,2
5050,5328,-9e-05,-8e-05,1e-05,0.00023999999999999998,0.00023999999999999998,-1e-05,0.00075,0.001,2
5051,5329,-9e-05,-8e-05,1e-05,0.00023999999999999998,0.00023999999999999998,-1e-05,0.00075,0.001,2
5052,5330,-9e-05,-8e-05,1e-05,0.00023999999999999998,0.00023999999999999998,-1e-05,0.00075,0.001,2
5053,5331,-9e-05,-8e-05,1e-05,0.00023999999999999998,0.00023999999999999998,-1e-05,0.00075,0.001,2
5054,5332,0.00031,0.00027,0.00047999999999999996,0.0009,0.00021,0.0005099999999999999,-0.00053,0.00075,2
5055,5333,0.00031,0.00027,0.00047999999999999996,0.0009,0.00021,0.0005099999999999999,-0.00053,0.00075,2
5056,5334,0.00031,0.00027,0.00047999999999999996,0.0009,0.00021,0.0005099999999999999,-0.00053,0.00075,2
5057,5335,0.00031,0.00027,0.00047999999999999996,0.0009,0.00021,0.0005099999999999999,-0.00053,0.00075,2
5058,5337,0.00031,0.00027,0.00047999999999999996,0.0009,0.00021,0.0005099999999999999,-0.00053,0.00075,2
5059,5339,0.00031,0.00027,0.00047999999999999996,0.0009,0.00021,0.0005099999999999999,-0.00053,0.00075,2
5060,5340,0.00031,0.00027,0.00047999999999999996,0.0009,0.00021,0.0005099999999999999,-0.00053,0.00075,2
5061,5341,0.00031,0.00027,0.00047999999999999996,0.0009,0.00021,0.0005099999999999999,-0.00053,0.00075,2
5062,5342,0.00031,0.00027,0.00047999999999999996,0.0009,0.00021,0.0005099999999999999,-0.00053,0.00075,2
5063,5343,0.00031,0.00027,0.00047999999999999996,0.0009,0.00021,0.0005099999999999999,-0.00053,0.00075,2
5064,5344,0.00031,0.00027,0.00047999999999999996,0.0009,0.00021,0.0005099999999999999,-0.00053,0.00075,2
5065,5345,0.00031,0.00027,0.00047999999999999996,0.0009,0.00021,0.0005099999999999999,-0.00053,0.00075,2
5066,5346,0.00031,0.00027,0.00047999999999999996,0.0009,0.00021,0.0005099999999999999,-0.00053,0.00075,2
5067,5347,0.0009400000000000001,1e-05,-0.00022999999999999998,0.0001,-0.00029,-0.00018,0.0012699999999999999,0.00049,2
5068,5348,0.0009400000000000001,1e-05,-0.00022999999999999998,0.0001,-0.00029,-0.00018,0.0012699999999999999,0.00049,2
5069,5349,0.0009400000000000001,1e-05,-0.00022999999999999998,0.0001,-0.00029,-0.00018,0.0012699999999999999,0.00049,2
5070,5350,0.0009400000000000001,1e-05,-0.00022999999999999998,0.0001,-0.00029,-0.00018,0.0012699999999999999,0.00049,2
5071,5351,0.0009400000000000001,1e-05,-0.00022999999999999998,0.0001,-0.00029,-0.00018,0.0012699999999999999,0.00049,2
5072,5352,0.0009400000000000001,1e-05,-0.00022999999999999998,0.0001,-0.00029,-0.00018,0.0012699999999999999,0.00049,2
5073,5353,0.0009400000000000001,1e-05,-0.00022999999999999998,0.0001,-0.00029,-0.00018,0.0012699999999999999,0.00049,2
5074,5354,0.0009400000000000001,1e-05,-0.00022999999999999998,0.0001,-0.00029,-0.00018,0.0012699999999999999,0.00049,2
5075,5355,0.0009400000000000001,1e-05,-0.00022999999999999998,0.0001,-0.00029,-0.00018,0.0012699999999999999,0.00049,2
5076,5356,0.0009400000000000001,1e-05,-0.00022999999999999998,0.0001,-0.00029,-0.00018,0.0012699999999999999,0.00049,2
5077,5357,0.0009400000000000001,1e-05,-0.00022999999999999998,0.0001,-0.00029,-0.00018,0.0012699999999999999,0.00049,2
5078,5358,0.0009400000000000001,1e-05,-0.00022999999999999998,0.0001,-0.00029,-0.00018,0.0012699999999999999,0.00049,2
5079,5359,0.0009400000000000001,1e-05,-0.00022999999999999998,0.0001,-0.00029,-0.00018,0.0012699999999999999,0.00049,2
5080,5360,0.0009400000000000001,1e-05,-0.00022999999999999998,0.0001,-0.00029,-0.00018,0.0012699999999999999,0.00049,2
5081,5361,0.0009400000000000001,1e-05,-0.00022999999999999998,0.0001,-0.00029,-0.00018,0.0012699999999999999,0.00049,2
5082,5362,0.0009400000000000001,1e-05,-0.00022999999999999998,0.0001,-0.00029,-0.00018,0.0012699999999999999,0.00049,2
5083,5363,0.0009400000000000001,1e-05,-0.00022999999999999998,0.0001,-0.00029,-0.00018,0.0012699999999999999,0.00049,2
5084,5364,0.0009400000000000001,1e-05,-0.00022999999999999998,0.0001,-0.00029,-0.00018,0.0012699999999999999,0.00049,2
5085,5365,0.0009400000000000001,1e-05,-0.00022999999999999998,0.0001,-0.00029,-0.00018,0.0012699999999999999,0.00049,2
5086,5366,0.0009400000000000001,1e-05,-0.00022999999999999998,0.0001,-0.00029,-0.00018,0.0012699999999999999,0.00049,2
5087,5367,0.0009400000000000001,1e-05,-0.00022999999999999998,0.0001,-0.00029,-0.00018,0.0012699999999999999,0.00049,2
5088,5368,0.0009400000000000001,1e-05,-0.00022999999999999998,0.0001,-0.00029,-0.00018,0.0012699999999999999,0.00049,2
5089,5369,0.0009400000000000001,1e-05,-0.00022999999999999998,0.0001,-0.00029,-0.00018,0.0012699999999999999,0.00049,2
5090,5370,-0.0002,-8e-05,-0.00037999999999999997,-0.00081,0.00045999999999999996,0.00033999999999999997,0.00036,-0.0006799999999999999,2
5091,5371,-0.0002,-0.0001,0.00021,0.00022,-0.00021,0.00023999999999999998,0.0001,0.00047000000000000004,2
5092,5372,-0.0002,-0.0001,0.00021,0.00022,-0.00021,0.00023999999999999998,0.0001,0.00047000000000000004,2
5093,5373,-0.0002,-0.0001,0.00021,0.00022,-0.00021,0.00023999999999999998,0.0001,0.00047000000000000004,2
5094,5374,-0.0002,-0.0001,0.00021,0.00022,-0.00021,0.00023999999999999998,0.0001,0.00047000000000000004,2
5095,5375,-0.0002,-0.0001,0.00021,0.00022,-0.00021,0.00023999999999999998,0.0001,0.00047000000000000004,2
5096,5376,-0.0002,-0.0001,0.00021,0.00022,-0.00021,0.00023999999999999998,0.0001,0.00047000000000000004,2
5097,5377,-0.0002,-0.0001,0.00021,0.00022,-0.00021,0.00023999999999999998,0.0001,0.00047000000000000004,2
5098,5378,-0.0002,-0.0001,0.00021,0.00022,-0.00021,0.00023999999999999998,0.0001,0.00047000000000000004,2
5099,5379,-0.0002,-0.0001,0.00021,0.00022,-0.00021,0.00023999999999999998,0.0001,0.00047000000000000004,2
5100,5380,-0.0002,-0.0001,0.00021,0.00022,-0.00021,0.00023999999999999998,0.0001,0.00047000000000000004,2
5101,5381,-0.0002,-0.0001,0.00021,0.00022,-0.00021,0.00023999999999999998,0.0001,0.00047000000000000004,2
5102,5382,-0.0002,-0.0001,0.00021,0.00022,-0.00021,0.00023999999999999998,0.0001,0.00047000000000000004,2
5103,5383,-0.0002,-0.0001,0.00021,0.00022,-0.00021,0.00023999999999999998,0.0001,0.00047000000000000004,2
5104,5384,-0.00029,9e-05,0.0002,0.00026000000000000003,-0.0005,7e-05,-0.00031,0.00049,2
5105,5385,-0.00029,9e-05,0.0002,0.00026000000000000003,-0.0005,7e-05,-0.00031,0.00049,2
5106,5387,-0.00029,9e-05,0.0002,0.00026000000000000003,-0.0005,7e-05,-0.00031,0.00049,2
5107,5389,-0.00029,9e-05,0.0002,0.00026000000000000003,-0.0005,7e-05,-0.00031,0.00049,2
5108,5390,-0.00029,9e-05,0.0002,0.00026000000000000003,-0.0005,7e-05,-0.00031,0.00049,2
5109,5391,-0.00029,9e-05,0.0002,0.00026000000000000003,-0.0005,7e-05,-0.00031,0.00049,2
5110,5392,-0.00033999999999999997,-0.00011999999999999999,8e-05,-0.00061,-2.9999999999999997e-05,0.00043,-0.0003,0.00028,2
5111,5393,-0.00033999999999999997,-0.00011999999999999999,8e-05,-0.00061,-2.9999999999999997e-05,0.00043,-0.0003,0.00028,2
5112,5394,-0.00033999999999999997,-0.00011999999999999999,8e-05,-0.00061,-2.9999999999999997e-05,0.00043,-0.0003,0.00028,2
5113,5395,-0.00033999999999999997,-0.00011999999999999999,8e-05,-0.00061,-2.9999999999999997e-05,0.00043,-0.0003,0.00028,2
5114,5396,-0.00033999999999999997,-0.00011999999999999999,8e-05,-0.00061,-2.9999999999999997e-05,0.00043,-0.0003,0.00028,2
5115,5397,-0.00033999999999999997,-0.00011999999999999999,8e-05,-0.00061,-2.9999999999999997e-05,0.00043,-0.0003,0.00028,2
5116,5398,-0.00033999999999999997,-0.00011999999999999999,8e-05,-0.00061,-2.9999999999999997e-05,0.00043,-0.0003,0.00028,2
5117,5399,-0.00033999999999999997,-0.00011999999999999999,8e-05,-0.00061,-2.9999999999999997e-05,0.00043,-0.0003,0.00028,2
5118,5400,-0.00033999999999999997,-0.00011999999999999999,8e-05,-0.00061,-2.9999999999999997e-05,0.00043,-0.0003,0.00028,2
5119,5401,-0.00033999999999999997,-0.00011999999999999999,8e-05,-0.00061,-2.9999999999999997e-05,0.00043,-0.0003,0.00028,2
5120,5402,-0.00033999999999999997,-0.00011999999999999999,8e-05,-0.00061,-2.9999999999999997e-05,0.00043,-0.0003,0.00028,2
5121,5403,-0.00033999999999999997,-0.00011999999999999999,8e-05,-0.00061,-2.9999999999999997e-05,0.00043,-0.0003,0.00028,2
5122,5404,-0.00033999999999999997,-0.00011999999999999999,8e-05,-0.00061,-2.9999999999999997e-05,0.00043,-0.0003,0.00028,2
5123,5405,-0.00033999999999999997,-0.00011999999999999999,8e-05,-0.00061,-2.9999999999999997e-05,0.00043,-0.0003,0.00028,2
5124,5406,-0.00033999999999999997,-0.00011999999999999999,8e-05,-0.00061,-2.9999999999999997e-05,0.00043,-0.0003,0.00028,2
5125,5407,-0.00013000000000000002,-2.9999999999999997e-05,5.9999999999999995e-05,-0.00014,0.00037999999999999997,-0.00042,-0.00065,-0.0008900000000000001,2
5126,5408,-0.0007099999999999999,2e-05,0.00031,0.00081,0.00067,9e-05,0.00057,0.00023999999999999998,2
5127,5409,-0.0007099999999999999,2e-05,0.00031,0.00081,0.00067,9e-05,0.00057,0.00023999999999999998,2
5128,5410,-0.0007099999999999999,2e-05,0.00031,0.00081,0.00067,9e-05,0.00057,0.00023999999999999998,2
5129,5411,-0.0007099999999999999,2e-05,0.00031,0.00081,0.00067,9e-05,0.00057,0.00023999999999999998,2
5130,5412,-0.0007099999999999999,2e-05,0.00031,0.00081,0.00067,9e-05,0.00057,0.00023999999999999998,2
5131,5413,-0.0007099999999999999,2e-05,0.00031,0.00081,0.00067,9e-05,0.00057,0.00023999999999999998,2
5132,5414,-0.0007099999999999999,2e-05,0.00031,0.00081,0.00067,9e-05,0.00057,0.00023999999999999998,2
5133,5415,-0.0007099999999999999,2e-05,0.00031,0.00081,0.00067,9e-05,0.00057,0.00023999999999999998,2
5134,5416,-0.0007099999999999999,2e-05,0.00031,0.00081,0.00067,9e-05,0.00057,0.00023999999999999998,2
5135,5417,-0.0007099999999999999,2e-05,0.00031,0.00081,0.00067,9e-05,0.00057,0.00023999999999999998,2
5136,5418,-0.0007099999999999999,2e-05,0.00031,0.00081,0.00067,9e-05,0.00057,0.00023999999999999998,2
5137,5419,-0.0007099999999999999,2e-05,0.00031,0.00081,0.00067,9e-05,0.00057,0.00023999999999999998,2
5138,5420,-0.0007099999999999999,2e-05,0.00031,0.00081,0.00067,9e-05,0.00057,0.00023999999999999998,2
5139,5421,-0.0007099999999999999,2e-05,0.00031,0.00081,0.00067,9e-05,0.00057,0.00023999999999999998,2
5140,5422,-0.0007099999999999999,2e-05,0.00031,0.00081,0.00067,9e-05,0.00057,0.00023999999999999998,2
5141,5423,-0.0007099999999999999,2e-05,0.00031,0.00081,0.00067,9e-05,0.00057,0.00023999999999999998,2
5142,5424,-0.0007099999999999999,2e-05,0.00031,0.00081,0.00067,9e-05,0.00057,0.00023999999999999998,2
5143,5425,-0.0007099999999999999,2e-05,0.00031,0.00081,0.00067,9e-05,0.00057,0.00023999999999999998,2
5144,5426,-0.0007099999999999999,2e-05,0.00031,0.00081,0.00067,9e-05,0.00057,0.00023999999999999998,2
5145,5427,-0.0007099999999999999,2e-05,0.00031,0.00081,0.00067,9e-05,0.00057,0.00023999999999999998,2
5146,5428,-0.0007099999999999999,2e-05,0.00031,0.00081,0.00067,9e-05,0.00057,0.00023999999999999998,2
5147,5429,-0.0007099999999999999,2e-05,0.00031,0.00081,0.00067,9e-05,0.00057,0.00023999999999999998,2
5148,5430,0.00022999999999999998,0.00013000000000000002,0.0002,0.00014,-0.00023999999999999998,0.00022999999999999998,-0.00045,0.00055,2
5149,5431,0.00036,5e-05,-4e-05,2e-05,-0.00031,-0.00075,0.00023999999999999998,0.00039,2
5150,5432,0.00036,5e-05,-4e-05,2e-05,-0.00031,-0.00075,0.00023999999999999998,0.00039,2
5151,5433,0.00036,5e-05,-4e-05,2e-05,-0.00031,-0.00075,0.00023999999999999998,0.00039,2
5152,5434,0.00036,5e-05,-4e-05,2e-05,-0.00031,-0.00075,0.00023999999999999998,0.00039,2
5153,5435,0.00036,5e-05,-4e-05,2e-05,-0.00031,-0.00075,0.00023999999999999998,0.00039,2
5154,5437,0.00036,5e-05,-4e-05,2e-05,-0.00031,-0.00075,0.00023999999999999998,0.00039,2
5155,5439,0.00036,5e-05,-4e-05,2e-05,-0.00031,-0.00075,0.00023999999999999998,0.00039,2
5156,5440,0.00036,5e-05,-4e-05,2e-05,-0.00031,-0.00075,0.00023999999999999998,0.00039,2
5157,5441,0.00036,5e-05,-4e-05,2e-05,-0.00031,-0.00075,0.00023999999999999998,0.00039,2
5158,5442,0.00036,5e-05,-4e-05,2e-05,-0.00031,-0.00075,0.00023999999999999998,0.00039,2
5159,5443,0.00036,5e-05,-4e-05,2e-05,-0.00031,-0.00075,0.00023999999999999998,0.00039,2
5160,5444,-1e-05,-0.0001,-0.00029,-0.00011,0.00056,8e-05,0.00043,-0.00033999999999999997,2
5161,5445,-1e-05,-0.0001,-0.00029,-0.00011,0.00056,8e-05,0.00043,-0.00033999999999999997,2
5162,5446,-1e-05,-0.0001,-0.00029,-0.00011,0.00056,8e-05,0.00043,-0.00033999999999999997,2
5163,5447,-1e-05,-0.0001,-0.00029,-0.00011,0.00056,8e-05,0.00043,-0.00033999999999999997,2
5164,5448,-1e-05,-0.0001,-0.00029,-0.00011,0.00056,8e-05,0.00043,-0.00033999999999999997,2
5165,5449,-1e-05,-0.0001,-0.00029,-0.00011,0.00056,8e-05,0.00043,-0.00033999999999999997,2
5166,5450,-1e-05,-0.0001,-0.00029,-0.00011,0.00056,8e-05,0.00043,-0.00033999999999999997,2
5167,5451,-1e-05,-0.0001,-0.00029,-0.00011,0.00056,8e-05,0.00043,-0.00033999999999999997,2
5168,5452,-0.00016999999999999999,-0.00014,-0.00021,-0.00064,-0.00054,-0.00028,-0.00066,-0.00118,2
5169,5453,-0.00016999999999999999,-0.00014,-0.00021,-0.00064,-0.00054,-0.00028,-0.00066,-0.00118,2
5170,5454,-0.00016999999999999999,-0.00014,-0.00021,-0.00064,-0.00054,-0.00028,-0.00066,-0.00118,2
5171,5455,-0.00016999999999999999,-0.00014,-0.00021,-0.00064,-0.00054,-0.00028,-0.00066,-0.00118,2
5172,5456,-0.00016999999999999999,-0.00014,-0.00021,-0.00064,-0.00054,-0.00028,-0.00066,-0.00118,2
5173,5457,-0.00016999999999999999,-0.00014,-0.00021,-0.00064,-0.00054,-0.00028,-0.00066,-0.00118,2
5174,5458,-0.00016999999999999999,-0.00014,-0.00021,-0.00064,-0.00054,-0.00028,-0.00066,-0.00118,2
5175,5459,-0.00016999999999999999,-0.00014,-0.00021,-0.00064,-0.00054,-0.00028,-0.00066,-0.00118,2
5176,5460,-0.00016999999999999999,-0.00014,-0.00021,-0.00064,-0.00054,-0.00028,-0.00066,-0.00118,2
5177,5461,-0.00016999999999999999,-0.00014,-0.00021,-0.00064,-0.00054,-0.00028,-0.00066,-0.00118,2
5178,5462,-0.00016999999999999999,-0.00014,-0.00021,-0.00064,-0.00054,-0.00028,-0.00066,-0.00118,2
5179,5463,-0.00016999999999999999,-0.00014,-0.00021,-0.00064,-0.00054,-0.00028,-0.00066,-0.00118,2
5180,5464,-0.00016999999999999999,-0.00014,-0.00021,-0.00064,-0.00054,-0.00028,-0.00066,-0.00118,2
5181,5465,-0.00016999999999999999,-0.00014,-0.00021,-0.00064,-0.00054,-0.00028,-0.00066,-0.00118,2
5182,5466,-0.00016999999999999999,-0.00014,-0.00021,-0.00064,-0.00054,-0.00028,-0.00066,-0.00118,2
5183,5467,0.0005,0.00026000000000000003,0.00031,0.00053,0.0005200000000000001,0.00026000000000000003,0.00015,0.00018999999999999998,2
5184,5468,-0.00045,-9e-05,-4e-05,0.00029,0.00022999999999999998,-0.00023999999999999998,-0.00128,1e-05,2
5185,5469,-0.00045,-9e-05,-4e-05,0.00029,0.00022999999999999998,-0.00023999999999999998,-0.00128,1e-05,2
5186,5470,-0.00045,-9e-05,-4e-05,0.00029,0.00022999999999999998,-0.00023999999999999998,-0.00128,1e-05,2
5187,5471,-0.00045,-9e-05,-4e-05,0.00029,0.00022999999999999998,-0.00023999999999999998,-0.00128,1e-05,2
5188,5472,-0.00045,-9e-05,-4e-05,0.00029,0.00022999999999999998,-0.00023999999999999998,-0.00128,1e-05,2
5189,5473,-0.00045,-9e-05,-4e-05,0.00029,0.00022999999999999998,-0.00023999999999999998,-0.00128,1e-05,2
5190,5474,-0.00045,-9e-05,-4e-05,0.00029,0.00022999999999999998,-0.00023999999999999998,-0.00128,1e-05,2
5191,5475,-0.00045,-9e-05,-4e-05,0.00029,0.00022999999999999998,-0.00023999999999999998,-0.00128,1e-05,2
5192,5476,-0.00045,-9e-05,-4e-05,0.00029,0.00022999999999999998,-0.00023999999999999998,-0.00128,1e-05,2
5193,5477,-0.00045,-9e-05,-4e-05,0.00029,0.00022999999999999998,-0.00023999999999999998,-0.00128,1e-05,2
5194,5478,-0.00045,-9e-05,-4e-05,0.00029,0.00022999999999999998,-0.00023999999999999998,-0.00128,1e-05,2
5195,5479,-0.00045,-9e-05,-4e-05,0.00029,0.00022999999999999998,-0.00023999999999999998,-0.00128,1e-05,2
5196,5480,-0.00045,-9e-05,-4e-05,0.00029,0.00022999999999999998,-0.00023999999999999998,-0.00128,1e-05,2
5197,5481,-0.00045,-9e-05,-4e-05,0.00029,0.00022999999999999998,-0.00023999999999999998,-0.00128,1e-05,2
5198,5482,-0.00045,-9e-05,-4e-05,0.00029,0.00022999999999999998,-0.00023999999999999998,-0.00128,1e-05,2
5199,5483,-0.00045,-9e-05,-4e-05,0.00029,0.00022999999999999998,-0.00023999999999999998,-0.00128,1e-05,2
5200,5484,-0.00045,-9e-05,-4e-05,0.00029,0.00022999999999999998,-0.00023999999999999998,-0.00128,1e-05,2
5201,5485,-0.00045,-9e-05,-4e-05,0.00029,0.00022999999999999998,-0.00023999999999999998,-0.00128,1e-05,2
5202,5487,-0.00045,-9e-05,-4e-05,0.00029,0.00022999999999999998,-0.00023999999999999998,-0.00128,1e-05,2
5203,5489,-0.00045,-9e-05,-4e-05,0.00029,0.00022999999999999998,-0.00023999999999999998,-0.00128,1e-05,2
5204,5490,0.00011,0.00015,-0.00014,-8e-05,-0.00086,-0.00022,-0.00018,-0.00037999999999999997,2
5205,5491,-0.0007599999999999999,1e-05,-0.00022,-0.00027,-0.00039,0.00014,0.00037,-0.00045999999999999996,2
5206,5492,-0.0007599999999999999,1e-05,-0.00022,-0.00027,-0.00039,0.00014,0.00037,-0.00045999999999999996,2
5207,5493,-0.0007599999999999999,1e-05,-0.00022,-0.00027,-0.00039,0.00014,0.00037,-0.00045999999999999996,2
5208,5494,-0.0007599999999999999,1e-05,-0.00022,-0.00027,-0.00039,0.00014,0.00037,-0.00045999999999999996,2
5209,5495,-0.0007599999999999999,1e-05,-0.00022,-0.00027,-0.00039,0.00014,0.00037,-0.00045999999999999996,2
5210,5496,-0.0007599999999999999,1e-05,-0.00022,-0.00027,-0.00039,0.00014,0.00037,-0.00045999999999999996,2
5211,5497,-0.0007599999999999999,1e-05,-0.00022,-0.00027,-0.00039,0.00014,0.00037,-0.00045999999999999996,2
5212,5498,-0.0007599999999999999,1e-05,-0.00022,-0.00027,-0.00039,0.00014,0.00037,-0.00045999999999999996,2
5213,5499,-0.0007599999999999999,1e-05,-0.00022,-0.00027,-0.00039,0.00014,0.00037,-0.00045999999999999996,2
5214,5500,-0.0007599999999999999,1e-05,-0.00022,-0.00027,-0.00039,0.00014,0.00037,-0.00045999999999999996,2
5215,5501,-0.0007599999999999999,1e-05,-0.00022,-0.00027,-0.00039,0.00014,0.00037,-0.00045999999999999996,2
5216,5502,-0.0007599999999999999,1e-05,-0.00022,-0.00027,-0.00039,0.00014,0.00037,-0.00045999999999999996,2
5217,5503,-0.0007599999999999999,1e-05,-0.00022,-0.00027,-0.00039,0.00014,0.00037,-0.00045999999999999996,2
5218,5504,-0.0007599999999999999,1e-05,-0.00022,-0.00027,-0.00039,0.00014,0.00037,-0.00045999999999999996,2
5219,5505,-0.0007599999999999999,1e-05,-0.00022,-0.00027,-0.00039,0.00014,0.00037,-0.00045999999999999996,2
5220,5506,-0.0007599999999999999,1e-05,-0.00022,-0.00027,-0.00039,0.00014,0.00037,-0.00045999999999999996,2
5221,5507,-0.0007599999999999999,1e-05,-0.00022,-0.00027,-0.00039,0.00014,0.00037,-0.00045999999999999996,2
5222,5508,-0.0007599999999999999,1e-05,-0.00022,-0.00027,-0.00039,0.00014,0.00037,-0.00045999999999999996,2
5223,5509,-0.0007599999999999999,1e-05,-0.00022,-0.00027,-0.00039,0.00014,0.00037,-0.00045999999999999996,2
5224,5510,-0.0007599999999999999,1e-05,-0.00022,-0.00027,-0.00039,0.00014,0.00037,-0.00045999999999999996,2
5225,5511,-0.0007599999999999999,1e-05,-0.00022,-0.00027,-0.00039,0.00014,0.00037,-0.00045999999999999996,2
5226,5512,-0.0007599999999999999,1e-05,-0.00022,-0.00027,-0.00039,0.00014,0.00037,-0.00045999999999999996,2
5227,5513,-0.0009400000000000001,-0.00011,0.00015,-5e-05,-0.00043,0.00015,0.0008300000000000001,-0.00055,2
5228,5514,0.00079,-0.00018,-0.00055,-0.00079,-1e-05,0.00041,0.00015,0.00086,2
5229,5515,0.00079,-0.00018,-0.00055,-0.00079,-1e-05,0.00041,0.00015,0.00086,2
5230,5516,0.00079,-0.00018,-0.00055,-0.00079,-1e-05,0.00041,0.00015,0.00086,2
5231,5517,0.00079,-0.00018,-0.00055,-0.00079,-1e-05,0.00041,0.00015,0.00086,2
5232,5518,0.00079,-0.00018,-0.00055,-0.00079,-1e-05,0.00041,0.00015,0.00086,2
5233,5519,0.00079,-0.00018,-0.00055,-0.00079,-1e-05,0.00041,0.00015,0.00086,2
5234,5520,0.00079,-0.00018,-0.00055,-0.00079,-1e-05,0.00041,0.00015,0.00086,2
5235,5521,0.00079,-0.00018,-0.00055,-0.00079,-1e-05,0.00041,0.00015,0.00086,2
5236,5522,0.00079,-0.00018,-0.00055,-0.00079,-1e-05,0.00041,0.00015,0.00086,2
5237,5523,0.00079,-0.00018,-0.00055,-0.00079,-1e-05,0.00041,0.00015,0.00086,2
5238,5524,0.00079,-0.00018,-0.00055,-0.00079,-1e-05,0.00041,0.00015,0.00086,2
5239,5525,0.00079,-0.00018,-0.00055,-0.00079,-1e-05,0.00041,0.00015,0.00086,2
5240,5526,0.00079,-0.00018,-0.00055,-0.00079,-1e-05,0.00041,0.00015,0.00086,2
5241,5527,-0.00026000000000000003,-0.00015,-0.00033999999999999997,-0.00058,2.9999999999999997e-05,-0.00011999999999999999,-0.0005200000000000001,0.00016,2
5242,5528,7e-05,1e-05,0.00031,0.00053,-0.00011999999999999999,-0.00031,0.00043,0.00022,2
5243,5529,7e-05,1e-05,0.00031,0.00053,-0.00011999999999999999,-0.00031,0.00043,0.00022,2
5244,5530,7e-05,1e-05,0.00031,0.00053,-0.00011999999999999999,-0.00031,0.00043,0.00022,2
5245,5531,7e-05,1e-05,0.00031,0.00053,-0.00011999999999999999,-0.00031,0.00043,0.00022,2
5246,5532,7e-05,1e-05,0.00031,0.00053,-0.00011999999999999999,-0.00031,0.00043,0.00022,2
5247,5533,7e-05,1e-05,0.00031,0.00053,-0.00011999999999999999,-0.00031,0.00043,0.00022,2
5248,5534,7e-05,1e-05,0.00031,0.00053,-0.00011999999999999999,-0.00031,0.00043,0.00022,2
5249,5535,7e-05,1e-05,0.00031,0.00053,-0.00011999999999999999,-0.00031,0.00043,0.00022,2
5250,5537,7e-05,1e-05,0.00031,0.00053,-0.00011999999999999999,-0.00031,0.00043,0.00022,2
5251,5539,7e-05,1e-05,0.00031,0.00053,-0.00011999999999999999,-0.00031,0.00043,0.00022,2
5252,5540,7e-05,1e-05,0.00031,0.00053,-0.00011999999999999999,-0.00031,0.00043,0.00022,2
5253,5541,7e-05,1e-05,0.00031,0.00053,-0.00011999999999999999,-0.00031,0.00043,0.00022,2
5254,5542,7e-05,1e-05,0.00031,0.00053,-0.00011999999999999999,-0.00031,0.00043,0.00022,2
5255,5543,7e-05,1e-05,0.00031,0.00053,-0.00011999999999999999,-0.00031,0.00043,0.00022,2
5256,5544,7e-05,1e-05,0.00031,0.00053,-0.00011999999999999999,-0.00031,0.00043,0.00022,2
5257,5545,7e-05,1e-05,0.00031,0.00053,-0.00011999999999999999,-0.00031,0.00043,0.00022,2
5258,5546,7e-05,1e-05,0.00031,0.00053,-0.00011999999999999999,-0.00031,0.00043,0.00022,2
5259,5547,7e-05,1e-05,0.00031,0.00053,-0.00011999999999999999,-0.00031,0.00043,0.00022,2
5260,5548,7e-05,1e-05,0.00031,0.00053,-0.00011999999999999999,-0.00031,0.00043,0.00022,2
5261,5549,7e-05,1e-05,0.00031,0.00053,-0.00011999999999999999,-0.00031,0.00043,0.00022,2
5262,5550,-0.00011999999999999999,8e-05,0.00036,-5.9999999999999995e-05,0.00028,-0.00015,-0.00039,-0.00056,2
5263,5551,0.00015,1e-05,-0.00018999999999999998,-1e-05,-0.00023999999999999998,-2.9999999999999997e-05,-0.00026000000000000003,-0.00018,2
5264,5552,0.00015,1e-05,-0.00018999999999999998,-1e-05,-0.00023999999999999998,-2.9999999999999997e-05,-0.00026000000000000003,-0.00018,2
5265,5553,0.00015,1e-05,-0.00018999999999999998,-1e-05,-0.00023999999999999998,-2.9999999999999997e-05,-0.00026000000000000003,-0.00018,2
5266,5554,0.00015,1e-05,-0.00018999999999999998,-1e-05,-0.00023999999999999998,-2.9999999999999997e-05,-0.00026000000000000003,-0.00018,2
5267,5555,0.00015,1e-05,-0.00018999999999999998,-1e-05,-0.00023999999999999998,-2.9999999999999997e-05,-0.00026000000000000003,-0.00018,2
5268,5556,0.00015,1e-05,-0.00018999999999999998,-1e-05,-0.00023999999999999998,-2.9999999999999997e-05,-0.00026000000000000003,-0.00018,2
5269,5557,0.00015,1e-05,-0.00018999999999999998,-1e-05,-0.00023999999999999998,-2.9999999999999997e-05,-0.00026000000000000003,-0.00018,2
5270,5558,0.00015,1e-05,-0.00018999999999999998,-1e-05,-0.00023999999999999998,-2.9999999999999997e-05,-0.00026000000000000003,-0.00018,2
5271,5559,0.00015,1e-05,-0.00018999999999999998,-1e-05,-0.00023999999999999998,-2.9999999999999997e-05,-0.00026000000000000003,-0.00018,2
5272,5560,0.00015,1e-05,-0.00018999999999999998,-1e-05,-0.00023999999999999998,-2.9999999999999997e-05,-0.00026000000000000003,-0.00018,2
5273,5561,0.00015,1e-05,-0.00018999999999999998,-1e-05,-0.00023999999999999998,-2.9999999999999997e-05,-0.00026000000000000003,-0.00018,2
5274,5562,0.00015,1e-05,-0.00018999999999999998,-1e-05,-0.00023999999999999998,-2.9999999999999997e-05,-0.00026000000000000003,-0.00018,2
5275,5563,0.00015,1e-05,-0.00018999999999999998,-1e-05,-0.00023999999999999998,-2.9999999999999997e-05,-0.00026000000000000003,-0.00018,2
5276,5564,0.00015,1e-05,-0.00018999999999999998,-1e-05,-0.00023999999999999998,-2.9999999999999997e-05,-0.00026000000000000003,-0.00018,2
5277,5565,0.00015,1e-05,-0.00018999999999999998,-1e-05,-0.00023999999999999998,-2.9999999999999997e-05,-0.00026000000000000003,-0.00018,2
5278,5566,0.00015,1e-05,-0.00018999999999999998,-1e-05,-0.00023999999999999998,-2.9999999999999997e-05,-0.00026000000000000003,-0.00018,2
5279,5567,0.00015,1e-05,-0.00018999999999999998,-1e-05,-0.00023999999999999998,-2.9999999999999997e-05,-0.00026000000000000003,-0.00018,2
5280,5568,0.00015,1e-05,-0.00018999999999999998,-1e-05,-0.00023999999999999998,-2.9999999999999997e-05,-0.00026000000000000003,-0.00018,2
5281,5569,0.00015,1e-05,-0.00018999999999999998,-1e-05,-0.00023999999999999998,-2.9999999999999997e-05,-0.00026000000000000003,-0.00018,2
5282,5570,0.00015,1e-05,-0.00018999999999999998,-1e-05,-0.00023999999999999998,-2.9999999999999997e-05,-0.00026000000000000003,-0.00018,2
5283,5571,0.00015,1e-05,-0.00018999999999999998,-1e-05,-0.00023999999999999998,-2.9999999999999997e-05,-0.00026000000000000003,-0.00018,2
5284,5572,0.00015,1e-05,-0.00018999999999999998,-1e-05,-0.00023999999999999998,-2.9999999999999997e-05,-0.00026000000000000003,-0.00018,2
5285,5573,0.00081,0.00011,0.00025,-0.00016,0.00018999999999999998,0.0001,0.00029,0.0009699999999999999,2
5286,5574,0.0007,0.00018999999999999998,2e-05,7e-05,-0.00022999999999999998,-0.00022999999999999998,-0.00047999999999999996,-0.00122,2
5287,5575,0.0007,0.00018999999999999998,2e-05,7e-05,-0.00022999999999999998,-0.00022999999999999998,-0.00047999999999999996,-0.00122,2
5288,5576,0.0007,0.00018999999999999998,2e-05,7e-05,-0.00022999999999999998,-0.00022999999999999998,-0.00047999999999999996,-0.00122,2
5289,5577,0.0007,0.00018999999999999998,2e-05,7e-05,-0.00022999999999999998,-0.00022999999999999998,-0.00047999999999999996,-0.00122,2
5290,5578,0.0007,0.00018999999999999998,2e-05,7e-05,-0.00022999999999999998,-0.00022999999999999998,-0.00047999999999999996,-0.00122,2
5291,5579,0.0007,0.00018999999999999998,2e-05,7e-05,-0.00022999999999999998,-0.00022999999999999998,-0.00047999999999999996,-0.00122,2
5292,5580,0.0007,0.00018999999999999998,2e-05,7e-05,-0.00022999999999999998,-0.00022999999999999998,-0.00047999999999999996,-0.00122,2
5293,5581,0.0007,0.00018999999999999998,2e-05,7e-05,-0.00022999999999999998,-0.00022999999999999998,-0.00047999999999999996,-0.00122,2
5294,5582,0.0007,0.00018999999999999998,2e-05,7e-05,-0.00022999999999999998,-0.00022999999999999998,-0.00047999999999999996,-0.00122,2
5295,5583,0.0007,0.00018999999999999998,2e-05,7e-05,-0.00022999999999999998,-0.00022999999999999998,-0.00047999999999999996,-0.00122,2
5296,5584,0.0007,0.00018999999999999998,2e-05,7e-05,-0.00022999999999999998,-0.00022999999999999998,-0.00047999999999999996,-0.00122,2
5297,5585,0.0007,0.00018999999999999998,2e-05,7e-05,-0.00022999999999999998,-0.00022999999999999998,-0.00047999999999999996,-0.00122,2
5298,5587,0.00022,-4e-05,-0.00042,-9e-05,-0.0002,-0.0001,5.9999999999999995e-05,-0.00016,2
5299,5589,0.00018,0.00014,0.00028,0.00073,0.00023999999999999998,-0.00011999999999999999,0.0008900000000000001,-0.0007,2
5300,5590,0.00018,0.00014,0.00028,0.00073,0.00023999999999999998,-0.00011999999999999999,0.0008900000000000001,-0.0007,2
5301,5591,0.00018,0.00014,0.00028,0.00073,0.00023999999999999998,-0.00011999999999999999,0.0008900000000000001,-0.0007,2
5302,5592,0.00018,0.00014,0.00028,0.00073,0.00023999999999999998,-0.00011999999999999999,0.0008900000000000001,-0.0007,2
5303,5593,0.00018,0.00014,0.00028,0.00073,0.00023999999999999998,-0.00011999999999999999,0.0008900000000000001,-0.0007,2
5304,5594,0.00018,0.00014,0.00028,0.00073,0.00023999999999999998,-0.00011999999999999999,0.0008900000000000001,-0.0007,2
5305,5595,0.00018,0.00014,0.00028,0.00073,0.00023999999999999998,-0.00011999999999999999,0.0008900000000000001,-0.0007,2
5306,5596,0.00018,0.00014,0.00028,0.00073,0.00023999999999999998,-0.00011999999999999999,0.0008900000000000001,-0.0007,2
5307,5597,0.00018,0.00014,0.00028,0.00073,0.00023999999999999998,-0.00011999999999999999,0.0008900000000000001,-0.0007,2
5308,5598,0.00018,0.00014,0.00028,0.00073,0.00023999999999999998,-0.00011999999999999999,0.0008900000000000001,-0.0007,2
5309,5599,0.00018,0.00014,0.00028,0.00073,0.00023999999999999998,-0.00011999999999999999,0.0008900000000000001,-0.0007,2
5310,5600,0.00018,0.00014,0.00028,0.00073,0.00023999999999999998,-0.00011999999999999999,0.0008900000000000001,-0.0007,2
5311,5601,0.00018,0.00014,0.00028,0.00073,0.00023999999999999998,-0.00011999999999999999,0.0008900000000000001,-0.0007,2
5312,5602,0.00018,0.00014,0.00028,0.00073,0.00023999999999999998,-0.00011999999999999999,0.0008900000000000001,-0.0007,2
5313,5603,0.00018,0.00014,0.00028,0.00073,0.00023999999999999998,-0.00011999999999999999,0.0008900000000000001,-0.0007,2
5314,5604,0.00018,0.00014,0.00028,0.00073,0.00023999999999999998,-0.00011999999999999999,0.0008900000000000001,-0.0007,2
5315,5605,0.00018,0.00014,0.00028,0.00073,0.00023999999999999998,-0.00011999999999999999,0.0008900000000000001,-0.0007,2
5316,5606,0.00018,0.00014,0.00028,0.00073,0.00023999999999999998,-0.00011999999999999999,0.0008900000000000001,-0.0007,2
5317,5607,0.00018,0.00014,0.00028,0.00073,0.00023999999999999998,-0.00011999999999999999,0.0008900000000000001,-0.0007,2
5318,5608,0.00018,0.00014,0.00028,0.00073,0.00023999999999999998,-0.00011999999999999999,0.0008900000000000001,-0.0007,2
5319,5609,0.00018,0.00014,0.00028,0.00073,0.00023999999999999998,-0.00011999999999999999,0.0008900000000000001,-0.0007,2
5320,5610,0.00028,-1e-05,-2.9999999999999997e-05,9e-05,-0.00025,-0.00025,0.0007,0.00082,2
5321,5611,-0.00018,-5e-05,0.0002,0.00016,-0.00011999999999999999,0.0001,-0.00031,0.00047000000000000004,2
5322,5612,-0.00018,-5e-05,0.0002,0.00016,-0.00011999999999999999,0.0001,-0.00031,0.00047000000000000004,2
5323,5613,-0.00018,-5e-05,0.0002,0.00016,-0.00011999999999999999,0.0001,-0.00031,0.00047000000000000004,2
5324,5614,-0.00018,-5e-05,0.0002,0.00016,-0.00011999999999999999,0.0001,-0.00031,0.00047000000000000004,2
5325,5615,-0.00018,-5e-05,0.0002,0.00016,-0.00011999999999999999,0.0001,-0.00031,0.00047000000000000004,2
5326,5616,-0.00018,-5e-05,0.0002,0.00016,-0.00011999999999999999,0.0001,-0.00031,0.00047000000000000004,2
5327,5617,-0.00018,-5e-05,0.0002,0.00016,-0.00011999999999999999,0.0001,-0.00031,0.00047000000000000004,2
5328,5618,-0.00018,-5e-05,0.0002,0.00016,-0.00011999999999999999,0.0001,-0.00031,0.00047000000000000004,2
5329,5619,-0.00018,-5e-05,0.0002,0.00016,-0.00011999999999999999,0.0001,-0.00031,0.00047000000000000004,2
5330,5620,-0.00018,-5e-05,0.0002,0.00016,-0.00011999999999999999,0.0001,-0.00031,0.00047000000000000004,2
5331,5621,-0.00018,-5e-05,0.0002,0.00016,-0.00011999999999999999,0.0001,-0.00031,0.00047000000000000004,2
5332,5622,-0.00018,-5e-05,0.0002,0.00016,-0.00011999999999999999,0.0001,-0.00031,0.00047000000000000004,2
5333,5623,-0.00018,-5e-05,0.0002,0.00016,-0.00011999999999999999,0.0001,-0.00031,0.00047000000000000004,2
5334,5624,-0.00018,-5e-05,0.0002,0.00016,-0.00011999999999999999,0.0001,-0.00031,0.00047000000000000004,2
5335,5625,-0.00018,-5e-05,0.0002,0.00016,-0.00011999999999999999,0.0001,-0.00031,0.00047000000000000004,2
5336,5626,-0.00018,-5e-05,0.0002,0.00016,-0.00011999999999999999,0.0001,-0.00031,0.00047000000000000004,2
5337,5627,-0.00018,-5e-05,0.0002,0.00016,-0.00011999999999999999,0.0001,-0.00031,0.00047000000000000004,2
5338,5628,-0.00018,-5e-05,0.0002,0.00016,-0.00011999999999999999,0.0001,-0.00031,0.00047000000000000004,2
5339,5629,-0.00018,-5e-05,0.0002,0.00016,-0.00011999999999999999,0.0001,-0.00031,0.00047000000000000004,2
5340,5630,-0.00018,-5e-05,0.0002,0.00016,-0.00011999999999999999,0.0001,-0.00031,0.00047000000000000004,2
5341,5631,-0.00018,-5e-05,0.0002,0.00016,-0.00011999999999999999,0.0001,-0.00031,0.00047000000000000004,2
5342,5632,-0.00018,-5e-05,0.0002,0.00016,-0.00011999999999999999,0.0001,-0.00031,0.00047000000000000004,2
5343,5633,-0.00021,4e-05,0.00029,0.0005,-5.9999999999999995e-05,-0.00043,-0.00016,-0.00115,2
5344,5634,-0.00114,-0.00011,-0.00041,-0.00037,0.00021,0.0007700000000000001,-0.00011,0.0005200000000000001,2
5345,5635,-0.00114,-0.00011,-0.00041,-0.00037,0.00021,0.0007700000000000001,-0.00011,0.0005200000000000001,2
5346,5637,-0.00114,-0.00011,-0.00041,-0.00037,0.00021,0.0007700000000000001,-0.00011,0.0005200000000000001,2
5347,5639,-0.00114,-0.00011,-0.00041,-0.00037,0.00021,0.0007700000000000001,-0.00011,0.0005200000000000001,2
5348,5640,-0.00114,-0.00011,-0.00041,-0.00037,0.00021,0.0007700000000000001,-0.00011,0.0005200000000000001,2
5349,5641,-0.00114,-0.00011,-0.00041,-0.00037,0.00021,0.0007700000000000001,-0.00011,0.0005200000000000001,2
5350,5642,-0.00114,-0.00011,-0.00041,-0.00037,0.00021,0.0007700000000000001,-0.00011,0.0005200000000000001,2
5351,5643,-0.00114,-0.00011,-0.00041,-0.00037,0.00021,0.0007700000000000001,-0.00011,0.0005200000000000001,2
5352,5644,-0.00114,-0.00011,-0.00041,-0.00037,0.00021,0.0007700000000000001,-0.00011,0.0005200000000000001,2
5353,5645,-0.00114,-0.00011,-0.00041,-0.00037,0.00021,0.0007700000000000001,-0.00011,0.0005200000000000001,2
5354,5646,-0.00114,-0.00011,-0.00041,-0.00037,0.00021,0.0007700000000000001,-0.00011,0.0005200000000000001,2
5355,5647,0.00037,0.00011999999999999999,-5.9999999999999995e-05,0.00016999999999999999,-0.0003,-0.00016,0.00047000000000000004,0.00043,2
5356,5649,-4e-05,-0.00022999999999999998,-0.00047999999999999996,-0.00041,0.00013000000000000002,-0.00057,-0.00037,-0.00084,2
5357,5650,-4e-05,-0.00022999999999999998,-0.00047999999999999996,-0.00041,0.00013000000000000002,-0.00057,-0.00037,-0.00084,2
5358,5651,-4e-05,-0.00022999999999999998,-0.00047999999999999996,-0.00041,0.00013000000000000002,-0.00057,-0.00037,-0.00084,2
5359,5652,-4e-05,-0.00022999999999999998,-0.00047999999999999996,-0.00041,0.00013000000000000002,-0.00057,-0.00037,-0.00084,2
5360,5653,-4e-05,-0.00022999999999999998,-0.00047999999999999996,-0.00041,0.00013000000000000002,-0.00057,-0.00037,-0.00084,2
5361,5654,-4e-05,-0.00022999999999999998,-0.00047999999999999996,-0.00041,0.00013000000000000002,-0.00057,-0.00037,-0.00084,2
5362,5655,-4e-05,-0.00022999999999999998,-0.00047999999999999996,-0.00041,0.00013000000000000002,-0.00057,-0.00037,-0.00084,2
5363,5656,-4e-05,-0.00022999999999999998,-0.00047999999999999996,-0.00041,0.00013000000000000002,-0.00057,-0.00037,-0.00084,2
5364,5657,-4e-05,-0.00022999999999999998,-0.00047999999999999996,-0.00041,0.00013000000000000002,-0.00057,-0.00037,-0.00084,2
5365,5658,-4e-05,-0.00022999999999999998,-0.00047999999999999996,-0.00041,0.00013000000000000002,-0.00057,-0.00037,-0.00084,2
5366,5659,-4e-05,-0.00022999999999999998,-0.00047999999999999996,-0.00041,0.00013000000000000002,-0.00057,-0.00037,-0.00084,2
5367,5660,-4e-05,-0.00022999999999999998,-0.00047999999999999996,-0.00041,0.00013000000000000002,-0.00057,-0.00037,-0.00084,2
5368,5661,-4e-05,-0.00022999999999999998,-0.00047999999999999996,-0.00041,0.00013000000000000002,-0.00057,-0.00037,-0.00084,2
5369,5662,-4e-05,-0.00022999999999999998,-0.00047999999999999996,-0.00041,0.00013000000000000002,-0.00057,-0.00037,-0.00084,2
5370,5663,-4e-05,-0.00022999999999999998,-0.00047999999999999996,-0.00041,0.00013000000000000002,-0.00057,-0.00037,-0.00084,2
5371,5664,-4e-05,-0.00022999999999999998,-0.00047999999999999996,-0.00041,0.00013000000000000002,-0.00057,-0.00037,-0.00084,2
5372,5665,-4e-05,-0.00022999999999999998,-0.00047999999999999996,-0.00041,0.00013000000000000002,-0.00057,-0.00037,-0.00084,2
5373,5666,-4e-05,-0.00022999999999999998,-0.00047999999999999996,-0.00041,0.00013000000000000002,-0.00057,-0.00037,-0.00084,2
5374,5667,-4e-05,-0.00022999999999999998,-0.00047999999999999996,-0.00041,0.00013000000000000002,-0.00057,-0.00037,-0.00084,2
5375,5668,-4e-05,-0.00022999999999999998,-0.00047999999999999996,-0.00041,0.00013000000000000002,-0.00057,-0.00037,-0.00084,2
5376,5669,-4e-05,-0.00022999999999999998,-0.00047999999999999996,-0.00041,0.00013000000000000002,-0.00057,-0.00037,-0.00084,2
5377,5670,-0.00037999999999999997,-0.00014,-0.0001,-0.00015,-0.00022,-0.00057,0.00095,-0.00128,2
5378,5671,-0.00081,-0.00036,-0.00049,-0.0005,-0.00021,5e-05,-4e-05,0.00027,2
5379,5672,-0.00081,-0.00036,-0.00049,-0.0005,-0.00021,5e-05,-4e-05,0.00027,2
5380,5673,-0.00081,-0.00036,-0.00049,-0.0005,-0.00021,5e-05,-4e-05,0.00027,2
5381,5674,-0.00081,-0.00036,-0.00049,-0.0005,-0.00021,5e-05,-4e-05,0.00027,2
5382,5675,-0.00081,-0.00036,-0.00049,-0.0005,-0.00021,5e-05,-4e-05,0.00027,2
5383,5676,-0.00081,-0.00036,-0.00049,-0.0005,-0.00021,5e-05,-4e-05,0.00027,2
5384,5677,-0.00081,-0.00036,-0.00049,-0.0005,-0.00021,5e-05,-4e-05,0.00027,2
5385,5678,-0.00081,-0.00036,-0.00049,-0.0005,-0.00021,5e-05,-4e-05,0.00027,2
5386,5679,-0.00081,-0.00036,-0.00049,-0.0005,-0.00021,5e-05,-4e-05,0.00027,2
5387,5680,-0.00081,-0.00036,-0.00049,-0.0005,-0.00021,5e-05,-4e-05,0.00027,2
5388,5681,-0.00081,-0.00036,-0.00049,-0.0005,-0.00021,5e-05,-4e-05,0.00027,2
5389,5682,-0.00081,-0.00036,-0.00049,-0.0005,-0.00021,5e-05,-4e-05,0.00027,2
5390,5683,-0.00081,-0.00036,-0.00049,-0.0005,-0.00021,5e-05,-4e-05,0.00027,2
5391,5684,-0.00081,-0.00036,-0.00049,-0.0005,-0.00021,5e-05,-4e-05,0.00027,2
5392,5685,-0.00081,-0.00036,-0.00049,-0.0005,-0.00021,5e-05,-4e-05,0.00027,2
5393,5687,-0.00081,-0.00036,-0.00049,-0.0005,-0.00021,5e-05,-4e-05,0.00027,2
5394,5689,-0.00081,-0.00036,-0.00049,-0.0005,-0.00021,5e-05,-4e-05,0.00027,2
5395,5690,-0.00081,-0.00036,-0.00049,-0.0005,-0.00021,5e-05,-4e-05,0.00027,2
5396,5691,-0.00081,-0.00036,-0.00049,-0.0005,-0.00021,5e-05,-4e-05,0.00027,2
5397,5692,-0.00081,-0.00036,-0.00049,-0.0005,-0.00021,5e-05,-4e-05,0.00027,2
5398,5693,0.00013000000000000002,2e-05,-0.00021,0.00011999999999999999,0.00014,-0.00018,-0.00022999999999999998,-0.00045,2
5399,5694,-5e-05,4e-05,8e-05,-0.00029,0.00026000000000000003,0.0008,0.00036,0.00107,2
5400,5695,-5e-05,4e-05,8e-05,-0.00029,0.00026000000000000003,0.0008,0.00036,0.00107,2
5401,5696,-5e-05,4e-05,8e-05,-0.00029,0.00026000000000000003,0.0008,0.00036,0.00107,2
5402,5697,-5e-05,4e-05,8e-05,-0.00029,0.00026000000000000003,0.0008,0.00036,0.00107,2
5403,5699,-5e-05,4e-05,8e-05,-0.00029,0.00026000000000000003,0.0008,0.00036,0.00107,2
5404,5700,-5e-05,4e-05,8e-05,-0.00029,0.00026000000000000003,0.0008,0.00036,0.00107,2
5405,5701,-5e-05,4e-05,8e-05,-0.00029,0.00026000000000000003,0.0008,0.00036,0.00107,2
5406,5702,-5e-05,4e-05,8e-05,-0.00029,0.00026000000000000003,0.0008,0.00036,0.00107,2
5407,5703,-5e-05,4e-05,8e-05,-0.00029,0.00026000000000000003,0.0008,0.00036,0.00107,2
5408,5704,-5e-05,4e-05,8e-05,-0.00029,0.00026000000000000003,0.0008,0.00036,0.00107,2
5409,5705,-5e-05,4e-05,8e-05,-0.00029,0.00026000000000000003,0.0008,0.00036,0.00107,2
5410,5706,-5e-05,4e-05,8e-05,-0.00029,0.00026000000000000003,0.0008,0.00036,0.00107,2
5411,5707,-0.00028,4e-05,0.00037999999999999997,0.00067,0.00014,0.00042,-0.0005,-9e-05,2
5412,5708,0.00033,-0.00011,-0.0005099999999999999,0.00011999999999999999,-0.00037999999999999997,-0.00061,-0.00098,5e-05,2
5413,5709,0.00033,-0.00011,-0.0005099999999999999,0.00011999999999999999,-0.00037999999999999997,-0.00061,-0.00098,5e-05,2
5414,5710,0.00033,-0.00011,-0.0005099999999999999,0.00011999999999999999,-0.00037999999999999997,-0.00061,-0.00098,5e-05,2
5415,5711,0.00033,-0.00011,-0.0005099999999999999,0.00011999999999999999,-0.00037999999999999997,-0.00061,-0.00098,5e-05,2
5416,5712,0.00033,-0.00011,-0.0005099999999999999,0.00011999999999999999,-0.00037999999999999997,-0.00061,-0.00098,5e-05,2
5417,5713,0.00033,-0.00011,-0.0005099999999999999,0.00011999999999999999,-0.00037999999999999997,-0.00061,-0.00098,5e-05,2
5418,5714,0.00033,-0.00011,-0.0005099999999999999,0.00011999999999999999,-0.00037999999999999997,-0.00061,-0.00098,5e-05,2
5419,5715,0.00033,-0.00011,-0.0005099999999999999,0.00011999999999999999,-0.00037999999999999997,-0.00061,-0.00098,5e-05,2
5420,5716,0.00033,-0.00011,-0.0005099999999999999,0.00011999999999999999,-0.00037999999999999997,-0.00061,-0.00098,5e-05,2
5421,5717,0.00033,-0.00011,-0.0005099999999999999,0.00011999999999999999,-0.00037999999999999997,-0.00061,-0.00098,5e-05,2
5422,5718,0.00033,-0.00011,-0.0005099999999999999,0.00011999999999999999,-0.00037999999999999997,-0.00061,-0.00098,5e-05,2
5423,5719,0.00033,-0.00011,-0.0005099999999999999,0.00011999999999999999,-0.00037999999999999997,-0.00061,-0.00098,5e-05,2
5424,5720,0.00033,-0.00011,-0.0005099999999999999,0.00011999999999999999,-0.00037999999999999997,-0.00061,-0.00098,5e-05,2
5425,5721,0.00033,-0.00011,-0.0005099999999999999,0.00011999999999999999,-0.00037999999999999997,-0.00061,-0.00098,5e-05,2
5426,5722,0.00033,-0.00011,-0.0005099999999999999,0.00011999999999999999,-0.00037999999999999997,-0.00061,-0.00098,5e-05,2
5427,5723,0.00033,-0.00011,-0.0005099999999999999,0.00011999999999999999,-0.00037999999999999997,-0.00061,-0.00098,5e-05,2
5428,5724,0.00033,-0.00011,-0.0005099999999999999,0.00011999999999999999,-0.00037999999999999997,-0.00061,-0.00098,5e-05,2
5429,5725,0.00033,-0.00011,-0.0005099999999999999,0.00011999999999999999,-0.00037999999999999997,-0.00061,-0.00098,5e-05,2
5430,5726,0.00033,-0.00011,-0.0005099999999999999,0.00011999999999999999,-0.00037999999999999997,-0.00061,-0.00098,5e-05,2
5431,5727,0.00033,-0.00011,-0.0005099999999999999,0.00011999999999999999,-0.00037999999999999997,-0.00061,-0.00098,5e-05,2
5432,5728,0.00033,-0.00011,-0.0005099999999999999,0.00011999999999999999,-0.00037999999999999997,-0.00061,-0.00098,5e-05,2
5433,5729,0.00033,-0.00011,-0.0005099999999999999,0.00011999999999999999,-0.00037999999999999997,-0.00061,-0.00098,5e-05,2
5434,5730,0.00047000000000000004,1e-05,5.9999999999999995e-05,-0.00059,0.00062,0.00044,8e-05,-0.00064,2
5435,5731,0.00042,0.00011,0.00027,4e-05,0.00032,-0.00011999999999999999,-0.00028,-0.00013000000000000002,2
5436,5732,0.00042,0.00011,0.00027,4e-05,0.00032,-0.00011999999999999999,-0.00028,-0.00013000000000000002,2
5437,5733,0.00042,0.00011,0.00027,4e-05,0.00032,-0.00011999999999999999,-0.00028,-0.00013000000000000002,2
5438,5734,0.00042,0.00011,0.00027,4e-05,0.00032,-0.00011999999999999999,-0.00028,-0.00013000000000000002,2
5439,5735,0.00042,0.00011,0.00027,4e-05,0.00032,-0.00011999999999999999,-0.00028,-0.00013000000000000002,2
5440,5737,0.00042,0.00011,0.00027,4e-05,0.00032,-0.00011999999999999999,-0.00028,-0.00013000000000000002,2
5441,5739,0.00042,0.00011,0.00027,4e-05,0.00032,-0.00011999999999999999,-0.00028,-0.00013000000000000002,2
5442,5740,0.00042,0.00011,0.00027,4e-05,0.00032,-0.00011999999999999999,-0.00028,-0.00013000000000000002,2
5443,5741,0.00042,0.00011,0.00027,4e-05,0.00032,-0.00011999999999999999,-0.00028,-0.00013000000000000002,2
5444,5742,0.00042,0.00011,0.00027,4e-05,0.00032,-0.00011999999999999999,-0.00028,-0.00013000000000000002,2
5445,5743,0.00042,0.00011,0.00027,4e-05,0.00032,-0.00011999999999999999,-0.00028,-0.00013000000000000002,2
5446,5744,0.00042,0.00011,0.00027,4e-05,0.00032,-0.00011999999999999999,-0.00028,-0.00013000000000000002,2
5447,5745,0.00042,0.00011,0.00027,4e-05,0.00032,-0.00011999999999999999,-0.00028,-0.00013000000000000002,2
5448,5746,0.00042,0.00011,0.00027,4e-05,0.00032,-0.00011999999999999999,-0.00028,-0.00013000000000000002,2
5449,5747,0.00042,0.00011,0.00027,4e-05,0.00032,-0.00011999999999999999,-0.00028,-0.00013000000000000002,2
5450,5748,0.00042,0.00011,0.00027,4e-05,0.00032,-0.00011999999999999999,-0.00028,-0.00013000000000000002,2
5451,5749,0.00042,0.00011,0.00027,4e-05,0.00032,-0.00011999999999999999,-0.00028,-0.00013000000000000002,2
5452,5750,0.00042,0.00011,0.00027,4e-05,0.00032,-0.00011999999999999999,-0.00028,-0.00013000000000000002,2
5453,5751,0.00042,0.00011,0.00027,4e-05,0.00032,-0.00011999999999999999,-0.00028,-0.00013000000000000002,2
5454,5752,0.00042,0.00011,0.00027,4e-05,0.00032,-0.00011999999999999999,-0.00028,-0.00013000000000000002,2
5455,5753,0.00037999999999999997,-2e-05,-0.00022999999999999998,-0.00047000000000000004,0.00016,2.9999999999999997e-05,0.00018,-0.00027,2
5456,5754,0.00037999999999999997,-2e-05,-0.00022999999999999998,-0.00047000000000000004,0.00016,2.9999999999999997e-05,0.00018,-0.00027,2
5457,5755,0.00037999999999999997,-2e-05,-0.00022999999999999998,-0.00047000000000000004,0.00016,2.9999999999999997e-05,0.00018,-0.00027,2
5458,5756,0.00037999999999999997,-2e-05,-0.00022999999999999998,-0.00047000000000000004,0.00016,2.9999999999999997e-05,0.00018,-0.00027,2
5459,5757,0.00037999999999999997,-2e-05,-0.00022999999999999998,-0.00047000000000000004,0.00016,2.9999999999999997e-05,0.00018,-0.00027,2
5460,5758,0.00037999999999999997,-2e-05,-0.00022999999999999998,-0.00047000000000000004,0.00016,2.9999999999999997e-05,0.00018,-0.00027,2
5461,5759,0.00037999999999999997,-2e-05,-0.00022999999999999998,-0.00047000000000000004,0.00016,2.9999999999999997e-05,0.00018,-0.00027,2
5462,5760,0.00037999999999999997,-2e-05,-0.00022999999999999998,-0.00047000000000000004,0.00016,2.9999999999999997e-05,0.00018,-0.00027,2
5463,5761,0.00037999999999999997,-2e-05,-0.00022999999999999998,-0.00047000000000000004,0.00016,2.9999999999999997e-05,0.00018,-0.00027,2
5464,5762,0.00037999999999999997,-2e-05,-0.00022999999999999998,-0.00047000000000000004,0.00016,2.9999999999999997e-05,0.00018,-0.00027,2
5465,5763,0.00037999999999999997,-2e-05,-0.00022999999999999998,-0.00047000000000000004,0.00016,2.9999999999999997e-05,0.00018,-0.00027,2
5466,5764,0.00037999999999999997,-2e-05,-0.00022999999999999998,-0.00047000000000000004,0.00016,2.9999999999999997e-05,0.00018,-0.00027,2
5467,5765,0.00037999999999999997,-2e-05,-0.00022999999999999998,-0.00047000000000000004,0.00016,2.9999999999999997e-05,0.00018,-0.00027,2
5468,5766,0.00037999999999999997,-2e-05,-0.00022999999999999998,-0.00047000000000000004,0.00016,2.9999999999999997e-05,0.00018,-0.00027,2
5469,5767,-0.00055,8e-05,0.00037999999999999997,0.00063,0.00011999999999999999,0.00057,0.00078,-0.0001,2
5470,5768,0.00057,0.00014,-0.00018,0.00018,0.00016999999999999999,-0.00025,0.00045,0.00045999999999999996,2
5471,5769,0.00057,0.00014,-0.00018,0.00018,0.00016999999999999999,-0.00025,0.00045,0.00045999999999999996,2
5472,5770,0.00057,0.00014,-0.00018,0.00018,0.00016999999999999999,-0.00025,0.00045,0.00045999999999999996,2
5473,5771,0.00057,0.00014,-0.00018,0.00018,0.00016999999999999999,-0.00025,0.00045,0.00045999999999999996,2
5474,5772,0.00057,0.00014,-0.00018,0.00018,0.00016999999999999999,-0.00025,0.00045,0.00045999999999999996,2
5475,5773,0.00057,0.00014,-0.00018,0.00018,0.00016999999999999999,-0.00025,0.00045,0.00045999999999999996,2
5476,5774,0.00057,0.00014,-0.00018,0.00018,0.00016999999999999999,-0.00025,0.00045,0.00045999999999999996,2
5477,5775,0.00057,0.00014,-0.00018,0.00018,0.00016999999999999999,-0.00025,0.00045,0.00045999999999999996,2
5478,5776,0.00057,0.00014,-0.00018,0.00018,0.00016999999999999999,-0.00025,0.00045,0.00045999999999999996,2
5479,5777,0.00057,0.00014,-0.00018,0.00018,0.00016999999999999999,-0.00025,0.00045,0.00045999999999999996,2
5480,5778,0.00057,0.00014,-0.00018,0.00018,0.00016999999999999999,-0.00025,0.00045,0.00045999999999999996,2
5481,5779,0.00057,0.00014,-0.00018,0.00018,0.00016999999999999999,-0.00025,0.00045,0.00045999999999999996,2
5482,5780,0.00057,0.00014,-0.00018,0.00018,0.00016999999999999999,-0.00025,0.00045,0.00045999999999999996,2
5483,5781,0.00057,0.00014,-0.00018,0.00018,0.00016999999999999999,-0.00025,0.00045,0.00045999999999999996,2
5484,5782,0.00057,0.00014,-0.00018,0.00018,0.00016999999999999999,-0.00025,0.00045,0.00045999999999999996,2
5485,5783,0.00057,0.00014,-0.00018,0.00018,0.00016999999999999999,-0.00025,0.00045,0.00045999999999999996,2
5486,5784,0.00057,0.00014,-0.00018,0.00018,0.00016999999999999999,-0.00025,0.00045,0.00045999999999999996,2
5487,5785,0.00057,0.00014,-0.00018,0.00018,0.00016999999999999999,-0.00025,0.00045,0.00045999999999999996,2
5488,5787,0.00057,0.00014,-0.00018,0.00018,0.00016999999999999999,-0.00025,0.00045,0.00045999999999999996,2
5489,5789,0.00057,0.00014,-0.00018,0.00018,0.00016999999999999999,-0.00025,0.00045,0.00045999999999999996,2
5490,5790,0.0003,-0.0002,0.00015,0.00022,-0.00013000000000000002,-0.00025,-0.00073,0.0012699999999999999,2
5491,5791,-0.0005,2.9999999999999997e-05,-0.00016,-0.0005,4e-05,0.00018999999999999998,0.00047999999999999996,-0.00128,2
5492,5792,-0.00022,4e-05,8e-05,0.00018999999999999998,-0.0001,-0.0003,0.0008699999999999999,0.00028,2
5493,5793,-0.00022,4e-05,8e-05,0.00018999999999999998,-0.0001,-0.0003,0.0008699999999999999,0.00028,2
5494,5794,-0.00022,4e-05,8e-05,0.00018999999999999998,-0.0001,-0.0003,0.0008699999999999999,0.00028,2
5495,5795,-0.00022,4e-05,8e-05,0.00018999999999999998,-0.0001,-0.0003,0.0008699999999999999,0.00028,2
5496,5796,-0.00022,4e-05,8e-05,0.00018999999999999998,-0.0001,-0.0003,0.0008699999999999999,0.00028,2
5497,5797,-0.00022,4e-05,8e-05,0.00018999999999999998,-0.0001,-0.0003,0.0008699999999999999,0.00028,2
5498,5798,-0.00022,4e-05,8e-05,0.00018999999999999998,-0.0001,-0.0003,0.0008699999999999999,0.00028,2
5499,5799,-0.00022,4e-05,8e-05,0.00018999999999999998,-0.0001,-0.0003,0.0008699999999999999,0.00028,2
5500,5800,-0.00022,4e-05,8e-05,0.00018999999999999998,-0.0001,-0.0003,0.0008699999999999999,0.00028,2
5501,5801,-0.00022,4e-05,8e-05,0.00018999999999999998,-0.0001,-0.0003,0.0008699999999999999,0.00028,2
5502,5802,-0.00022,4e-05,8e-05,0.00018999999999999998,-0.0001,-0.0003,0.0008699999999999999,0.00028,2
5503,5803,-0.00022,4e-05,8e-05,0.00018999999999999998,-0.0001,-0.0003,0.0008699999999999999,0.00028,2
5504,5804,-0.00022,4e-05,8e-05,0.00018999999999999998,-0.0001,-0.0003,0.0008699999999999999,0.00028,2
5505,5805,-0.00022,4e-05,8e-05,0.00018999999999999998,-0.0001,-0.0003,0.0008699999999999999,0.00028,2
5506,5806,-0.00022,4e-05,8e-05,0.00018999999999999998,-0.0001,-0.0003,0.0008699999999999999,0.00028,2
5507,5807,-0.00022,4e-05,8e-05,0.00018999999999999998,-0.0001,-0.0003,0.0008699999999999999,0.00028,2
5508,5808,-0.00022,4e-05,8e-05,0.00018999999999999998,-0.0001,-0.0003,0.0008699999999999999,0.00028,2
5509,5809,-0.00022,4e-05,8e-05,0.00018999999999999998,-0.0001,-0.0003,0.0008699999999999999,0.00028,2
5510,5810,-0.00022,4e-05,8e-05,0.00018999999999999998,-0.0001,-0.0003,0.0008699999999999999,0.00028,2
5511,5811,-0.00022,4e-05,8e-05,0.00018999999999999998,-0.0001,-0.0003,0.0008699999999999999,0.00028,2
5512,5812,-0.00022,4e-05,8e-05,0.00018999999999999998,-0.0001,-0.0003,0.0008699999999999999,0.00028,2
5513,5813,-4e-05,1e-05,1e-05,-0.0009699999999999999,-0.00033,-0.0008300000000000001,-0.00067,0.0007599999999999999,2
5514,5814,0.00091,-2.9999999999999997e-05,0.0,-0.00023999999999999998,0.00018999999999999998,-0.00036,-0.00061,-0.00027,2
5515,5815,0.00091,-2.9999999999999997e-05,0.0,-0.00023999999999999998,0.00018999999999999998,-0.00036,-0.00061,-0.00027,2
5516,5816,0.00091,-2.9999999999999997e-05,0.0,-0.00023999999999999998,0.00018999999999999998,-0.00036,-0.00061,-0.00027,2
5517,5817,0.00091,-2.9999999999999997e-05,0.0,-0.00023999999999999998,0.00018999999999999998,-0.00036,-0.00061,-0.00027,2
5518,5818,0.00091,-2.9999999999999997e-05,0.0,-0.00023999999999999998,0.00018999999999999998,-0.00036,-0.00061,-0.00027,2
5519,5819,0.00091,-2.9999999999999997e-05,0.0,-0.00023999999999999998,0.00018999999999999998,-0.00036,-0.00061,-0.00027,2
5520,5820,0.00091,-2.9999999999999997e-05,0.0,-0.00023999999999999998,0.00018999999999999998,-0.00036,-0.00061,-0.00027,2
5521,5821,0.00091,-2.9999999999999997e-05,0.0,-0.00023999999999999998,0.00018999999999999998,-0.00036,-0.00061,-0.00027,2
5522,5822,0.00091,-2.9999999999999997e-05,0.0,-0.00023999999999999998,0.00018999999999999998,-0.00036,-0.00061,-0.00027,2
5523,5823,0.00091,-2.9999999999999997e-05,0.0,-0.00023999999999999998,0.00018999999999999998,-0.00036,-0.00061,-0.00027,2
5524,5824,0.00091,-2.9999999999999997e-05,0.0,-0.00023999999999999998,0.00018999999999999998,-0.00036,-0.00061,-0.00027,2
5525,5825,0.00091,-2.9999999999999997e-05,0.0,-0.00023999999999999998,0.00018999999999999998,-0.00036,-0.00061,-0.00027,2
5526,5826,0.00091,-2.9999999999999997e-05,0.0,-0.00023999999999999998,0.00018999999999999998,-0.00036,-0.00061,-0.00027,2
5527,5827,-0.00047000000000000004,-0.00029,-0.00045999999999999996,-0.00045,-0.00023999999999999998,0.00014,0.00018999999999999998,-0.00039,2
5528,5828,-0.00037999999999999997,0.00014,0.00088,0.00062,-0.00013000000000000002,-0.00011999999999999999,-0.00065,0.00011,2
5529,5829,-0.00037999999999999997,0.00014,0.00088,0.00062,-0.00013000000000000002,-0.00011999999999999999,-0.00065,0.00011,2
5530,5830,-0.00037999999999999997,0.00014,0.00088,0.00062,-0.00013000000000000002,-0.00011999999999999999,-0.00065,0.00011,2
5531,5831,-0.00037999999999999997,0.00014,0.00088,0.00062,-0.00013000000000000002,-0.00011999999999999999,-0.00065,0.00011,2
5532,5832,-0.00037999999999999997,0.00014,0.00088,0.00062,-0.00013000000000000002,-0.00011999999999999999,-0.00065,0.00011,2
5533,5833,-0.00037999999999999997,0.00014,0.00088,0.00062,-0.00013000000000000002,-0.00011999999999999999,-0.00065,0.00011,2
5534,5834,-0.00037999999999999997,0.00014,0.00088,0.00062,-0.00013000000000000002,-0.00011999999999999999,-0.00065,0.00011,2
5535,5835,-0.00037999999999999997,0.00014,0.00088,0.00062,-0.00013000000000000002,-0.00011999999999999999,-0.00065,0.00011,2
5536,5837,-0.00037999999999999997,0.00014,0.00088,0.00062,-0.00013000000000000002,-0.00011999999999999999,-0.00065,0.00011,2
5537,5839,-0.00037999999999999997,0.00014,0.00088,0.00062,-0.00013000000000000002,-0.00011999999999999999,-0.00065,0.00011,2
5538,5840,-0.00037999999999999997,0.00014,0.00088,0.00062,-0.00013000000000000002,-0.00011999999999999999,-0.00065,0.00011,2
5539,5841,-0.00037999999999999997,0.00014,0.00088,0.00062,-0.00013000000000000002,-0.00011999999999999999,-0.00065,0.00011,2
5540,5842,-0.00037999999999999997,0.00014,0.00088,0.00062,-0.00013000000000000002,-0.00011999999999999999,-0.00065,0.00011,2
5541,5843,-0.00037999999999999997,0.00014,0.00088,0.00062,-0.00013000000000000002,-0.00011999999999999999,-0.00065,0.00011,2
5542,5844,-0.00037999999999999997,0.00014,0.00088,0.00062,-0.00013000000000000002,-0.00011999999999999999,-0.00065,0.00011,2
5543,5845,-0.00037999999999999997,0.00014,0.00088,0.00062,-0.00013000000000000002,-0.00011999999999999999,-0.00065,0.00011,2
5544,5846,-0.00037999999999999997,0.00014,0.00088,0.00062,-0.00013000000000000002,-0.00011999999999999999,-0.00065,0.00011,2
5545,5847,-0.00037999999999999997,0.00014,0.00088,0.00062,-0.00013000000000000002,-0.00011999999999999999,-0.00065,0.00011,2
5546,5848,-0.00037999999999999997,0.00014,0.00088,0.00062,-0.00013000000000000002,-0.00011999999999999999,-0.00065,0.00011,2
5547,5849,-0.00037999999999999997,0.00014,0.00088,0.00062,-0.00013000000000000002,-0.00011999999999999999,-0.00065,0.00011,2
5548,5850,2e-05,5.9999999999999995e-05,0.00049,-1e-05,0.00021,0.00054,0.00059,0.00021,2
5549,5851,-0.00022,5.9999999999999995e-05,0.00066,0.00125,-0.00028,-0.0002,0.00044,0.00039,2
5550,5852,-0.00022,5.9999999999999995e-05,0.00066,0.00125,-0.00028,-0.0002,0.00044,0.00039,2
5551,5853,-0.00022,5.9999999999999995e-05,0.00066,0.00125,-0.00028,-0.0002,0.00044,0.00039,2
5552,5854,-0.00022,5.9999999999999995e-05,0.00066,0.00125,-0.00028,-0.0002,0.00044,0.00039,2
5553,5855,-0.00022,5.9999999999999995e-05,0.00066,0.00125,-0.00028,-0.0002,0.00044,0.00039,2
5554,5856,-0.00022,5.9999999999999995e-05,0.00066,0.00125,-0.00028,-0.0002,0.00044,0.00039,2
5555,5857,-0.00022,5.9999999999999995e-05,0.00066,0.00125,-0.00028,-0.0002,0.00044,0.00039,2
5556,5858,-0.00022,5.9999999999999995e-05,0.00066,0.00125,-0.00028,-0.0002,0.00044,0.00039,2
5557,5859,-0.00022,5.9999999999999995e-05,0.00066,0.00125,-0.00028,-0.0002,0.00044,0.00039,2
5558,5860,-0.00022,5.9999999999999995e-05,0.00066,0.00125,-0.00028,-0.0002,0.00044,0.00039,2
5559,5861,-0.00022,5.9999999999999995e-05,0.00066,0.00125,-0.00028,-0.0002,0.00044,0.00039,2
5560,5862,-0.00022,5.9999999999999995e-05,0.00066,0.00125,-0.00028,-0.0002,0.00044,0.00039,2
5561,5863,-0.00022,5.9999999999999995e-05,0.00066,0.00125,-0.00028,-0.0002,0.00044,0.00039,2
5562,5864,-0.00022,5.9999999999999995e-05,0.00066,0.00125,-0.00028,-0.0002,0.00044,0.00039,2
5563,5865,-0.00022,5.9999999999999995e-05,0.00066,0.00125,-0.00028,-0.0002,0.00044,0.00039,2
5564,5866,-0.00022,5.9999999999999995e-05,0.00066,0.00125,-0.00028,-0.0002,0.00044,0.00039,2
5565,5867,-0.00022,5.9999999999999995e-05,0.00066,0.00125,-0.00028,-0.0002,0.00044,0.00039,2
5566,5868,-0.00022,5.9999999999999995e-05,0.00066,0.00125,-0.00028,-0.0002,0.00044,0.00039,2
5567,5869,-0.00022,5.9999999999999995e-05,0.00066,0.00125,-0.00028,-0.0002,0.00044,0.00039,2
5568,5870,-0.00022,5.9999999999999995e-05,0.00066,0.00125,-0.00028,-0.0002,0.00044,0.00039,2
5569,5871,-0.00022,5.9999999999999995e-05,0.00066,0.00125,-0.00028,-0.0002,0.00044,0.00039,2
5570,5872,0.0002,5e-05,-0.00025,-0.00106,0.0,-8e-05,-0.00026000000000000003,-0.0007700000000000001,2
5571,5873,-0.00079,5.9999999999999995e-05,0.00033999999999999997,0.00112,0.00037999999999999997,0.00065,-0.00011,-0.00013000000000000002,2
5572,5874,-0.0001,5e-05,0.00045999999999999996,-1e-05,0.00033,-0.00039,-0.0008699999999999999,-0.00085,2
5573,5875,-0.0001,5e-05,0.00045999999999999996,-1e-05,0.00033,-0.00039,-0.0008699999999999999,-0.00085,2
5574,5876,-0.0001,5e-05,0.00045999999999999996,-1e-05,0.00033,-0.00039,-0.0008699999999999999,-0.00085,2
5575,5877,-0.0001,5e-05,0.00045999999999999996,-1e-05,0.00033,-0.00039,-0.0008699999999999999,-0.00085,2
5576,5878,-0.0001,5e-05,0.00045999999999999996,-1e-05,0.00033,-0.00039,-0.0008699999999999999,-0.00085,2
5577,5879,-0.0001,5e-05,0.00045999999999999996,-1e-05,0.00033,-0.00039,-0.0008699999999999999,-0.00085,2
5578,5880,-0.0001,5e-05,0.00045999999999999996,-1e-05,0.00033,-0.00039,-0.0008699999999999999,-0.00085,2
5579,5881,-0.0001,5e-05,0.00045999999999999996,-1e-05,0.00033,-0.00039,-0.0008699999999999999,-0.00085,2
5580,5882,-0.0001,5e-05,0.00045999999999999996,-1e-05,0.00033,-0.00039,-0.0008699999999999999,-0.00085,2
5581,5883,-0.0001,5e-05,0.00045999999999999996,-1e-05,0.00033,-0.00039,-0.0008699999999999999,-0.00085,2
5582,5884,-0.0001,5e-05,0.00045999999999999996,-1e-05,0.00033,-0.00039,-0.0008699999999999999,-0.00085,2
5583,5885,-0.0001,5e-05,0.00045999999999999996,-1e-05,0.00033,-0.00039,-0.0008699999999999999,-0.00085,2
5584,5887,2e-05,-8e-05,-0.00042,-0.00033999999999999997,5.9999999999999995e-05,-0.0005099999999999999,-0.00011,-0.00025,2
5585,5889,-0.00027,2.9999999999999997e-05,0.00016999999999999999,0.00045,-0.0005200000000000001,-0.00075,-0.00028,0.00022999999999999998,2
5586,5890,-0.00027,2.9999999999999997e-05,0.00016999999999999999,0.00045,-0.0005200000000000001,-0.00075,-0.00028,0.00022999999999999998,2
5587,5891,-0.00027,2.9999999999999997e-05,0.00016999999999999999,0.00045,-0.0005200000000000001,-0.00075,-0.00028,0.00022999999999999998,2
5588,5892,-0.00027,2.9999999999999997e-05,0.00016999999999999999,0.00045,-0.0005200000000000001,-0.00075,-0.00028,0.00022999999999999998,2
5589,5893,-0.00027,2.9999999999999997e-05,0.00016999999999999999,0.00045,-0.0005200000000000001,-0.00075,-0.00028,0.00022999999999999998,2
5590,5894,-0.00027,2.9999999999999997e-05,0.00016999999999999999,0.00045,-0.0005200000000000001,-0.00075,-0.00028,0.00022999999999999998,2
5591,5895,-0.00027,2.9999999999999997e-05,0.00016999999999999999,0.00045,-0.0005200000000000001,-0.00075,-0.00028,0.00022999999999999998,2
5592,5896,-0.00027,2.9999999999999997e-05,0.00016999999999999999,0.00045,-0.0005200000000000001,-0.00075,-0.00028,0.00022999999999999998,2
5593,5897,-0.00027,2.9999999999999997e-05,0.00016999999999999999,0.00045,-0.0005200000000000001,-0.00075,-0.00028,0.00022999999999999998,2
5594,5898,-0.00027,2.9999999999999997e-05,0.00016999999999999999,0.00045,-0.0005200000000000001,-0.00075,-0.00028,0.00022999999999999998,2
5595,5899,-0.00027,2.9999999999999997e-05,0.00016999999999999999,0.00045,-0.0005200000000000001,-0.00075,-0.00028,0.00022999999999999998,2
5596,5900,-0.00027,2.9999999999999997e-05,0.00016999999999999999,0.00045,-0.0005200000000000001,-0.00075,-0.00028,0.00022999999999999998,2
5597,5901,-0.00027,2.9999999999999997e-05,0.00016999999999999999,0.00045,-0.0005200000000000001,-0.00075,-0.00028,0.00022999999999999998,2
5598,5902,-0.00027,2.9999999999999997e-05,0.00016999999999999999,0.00045,-0.0005200000000000001,-0.00075,-0.00028,0.00022999999999999998,2
5599,5903,-0.00027,2.9999999999999997e-05,0.00016999999999999999,0.00045,-0.0005200000000000001,-0.00075,-0.00028,0.00022999999999999998,2
5600,5904,-0.00027,2.9999999999999997e-05,0.00016999999999999999,0.00045,-0.0005200000000000001,-0.00075,-0.00028,0.00022999999999999998,2
5601,5905,-0.00027,2.9999999999999997e-05,0.00016999999999999999,0.00045,-0.0005200000000000001,-0.00075,-0.00028,0.00022999999999999998,2
5602,5906,-0.00027,2.9999999999999997e-05,0.00016999999999999999,0.00045,-0.0005200000000000001,-0.00075,-0.00028,0.00022999999999999998,2
5603,5907,-0.00027,2.9999999999999997e-05,0.00016999999999999999,0.00045,-0.0005200000000000001,-0.00075,-0.00028,0.00022999999999999998,2
5604,5908,-0.00027,2.9999999999999997e-05,0.00016999999999999999,0.00045,-0.0005200000000000001,-0.00075,-0.00028,0.00022999999999999998,2
5605,5909,-0.00027,2.9999999999999997e-05,0.00016999999999999999,0.00045,-0.0005200000000000001,-0.00075,-0.00028,0.00022999999999999998,2
5606,5910,0.0005200000000000001,-2e-05,-0.00054,-0.0005,2e-05,0.00031,9e-05,-0.00015,2
5607,5911,-0.00041,-0.0001,-0.00084,-0.00099,-0.00029,-0.0003,-0.00021,-2e-05,2
5608,5912,-0.00041,-0.0001,-0.00084,-0.00099,-0.00029,-0.0003,-0.00021,-2e-05,2
5609,5913,-0.00041,-0.0001,-0.00084,-0.00099,-0.00029,-0.0003,-0.00021,-2e-05,2
5610,5914,-0.00041,-0.0001,-0.00084,-0.00099,-0.00029,-0.0003,-0.00021,-2e-05,2
5611,5915,-0.00041,-0.0001,-0.00084,-0.00099,-0.00029,-0.0003,-0.00021,-2e-05,2
5612,5916,-0.00041,-0.0001,-0.00084,-0.00099,-0.00029,-0.0003,-0.00021,-2e-05,2
5613,5917,-0.00041,-0.0001,-0.00084,-0.00099,-0.00029,-0.0003,-0.00021,-2e-05,2
5614,5918,-0.00041,-0.0001,-0.00084,-0.00099,-0.00029,-0.0003,-0.00021,-2e-05,2
5615,5919,-0.00041,-0.0001,-0.00084,-0.00099,-0.00029,-0.0003,-0.00021,-2e-05,2
5616,5920,-0.00041,-0.0001,-0.00084,-0.00099,-0.00029,-0.0003,-0.00021,-2e-05,2
5617,5921,-0.00041,-0.0001,-0.00084,-0.00099,-0.00029,-0.0003,-0.00021,-2e-05,2
5618,5922,-0.00041,-0.0001,-0.00084,-0.00099,-0.00029,-0.0003,-0.00021,-2e-05,2
5619,5923,-0.00041,-0.0001,-0.00084,-0.00099,-0.00029,-0.0003,-0.00021,-2e-05,2
5620,5924,-0.00041,-0.0001,-0.00084,-0.00099,-0.00029,-0.0003,-0.00021,-2e-05,2
5621,5925,-0.00041,-0.0001,-0.00084,-0.00099,-0.00029,-0.0003,-0.00021,-2e-05,2
5622,5926,-0.00041,-0.0001,-0.00084,-0.00099,-0.00029,-0.0003,-0.00021,-2e-05,2
5623,5927,-0.00041,-0.0001,-0.00084,-0.00099,-0.00029,-0.0003,-0.00021,-2e-05,2
5624,5928,-0.00041,-0.0001,-0.00084,-0.00099,-0.00029,-0.0003,-0.00021,-2e-05,2
5625,5929,-0.00041,-0.0001,-0.00084,-0.00099,-0.00029,-0.0003,-0.00021,-2e-05,2
5626,5930,-0.00041,-0.0001,-0.00084,-0.00099,-0.00029,-0.0003,-0.00021,-2e-05,2
5627,5931,-0.00041,-0.0001,-0.00084,-0.00099,-0.00029,-0.0003,-0.00021,-2e-05,2
5628,5932,-0.00041,-0.0001,-0.00084,-0.00099,-0.00029,-0.0003,-0.00021,-2e-05,2
5629,5933,0.0001,8e-05,-2e-05,0.00025,0.00042,-0.00033999999999999997,-0.00027,-0.00072,2
5630,5934,0.00032,0.0001,0.00033,0.00016999999999999999,-0.0004,0.00029,-0.00025,-5e-05,2
5631,5935,0.00032,0.0001,0.00033,0.00016999999999999999,-0.0004,0.00029,-0.00025,-5e-05,2
5632,5937,0.00032,0.0001,0.00033,0.00016999999999999999,-0.0004,0.00029,-0.00025,-5e-05,2
5633,5939,0.00032,0.0001,0.00033,0.00016999999999999999,-0.0004,0.00029,-0.00025,-5e-05,2
5634,5940,0.00032,0.0001,0.00033,0.00016999999999999999,-0.0004,0.00029,-0.00025,-5e-05,2
5635,5941,0.00032,0.0001,0.00033,0.00016999999999999999,-0.0004,0.00029,-0.00025,-5e-05,2
5636,5942,0.00032,0.0001,0.00033,0.00016999999999999999,-0.0004,0.00029,-0.00025,-5e-05,2
5637,5943,0.00032,0.0001,0.00033,0.00016999999999999999,-0.0004,0.00029,-0.00025,-5e-05,2
5638,5944,0.00032,0.0001,0.00033,0.00016999999999999999,-0.0004,0.00029,-0.00025,-5e-05,2
5639,5945,0.00032,0.0001,0.00033,0.00016999999999999999,-0.0004,0.00029,-0.00025,-5e-05,2
5640,5946,0.00032,0.0001,0.00033,0.00016999999999999999,-0.0004,0.00029,-0.00025,-5e-05,2
5641,5947,0.00032,0.0001,0.00033,0.00016999999999999999,-0.0004,0.00029,-0.00025,-5e-05,2
5642,5948,0.00061,-1e-05,-0.00029,-0.0007,0.00045,0.0012699999999999999,0.00082,-2e-05,2
5643,5949,0.00061,-1e-05,-0.00029,-0.0007,0.00045,0.0012699999999999999,0.00082,-2e-05,2
5644,5950,0.00061,-1e-05,-0.00029,-0.0007,0.00045,0.0012699999999999999,0.00082,-2e-05,2
5645,5951,0.00061,-1e-05,-0.00029,-0.0007,0.00045,0.0012699999999999999,0.00082,-2e-05,2
5646,5952,0.00061,-1e-05,-0.00029,-0.0007,0.00045,0.0012699999999999999,0.00082,-2e-05,2
5647,5953,0.00061,-1e-05,-0.00029,-0.0007,0.00045,0.0012699999999999999,0.00082,-2e-05,2
5648,5954,0.00061,-1e-05,-0.00029,-0.0007,0.00045,0.0012699999999999999,0.00082,-2e-05,2
5649,5955,0.00061,-1e-05,-0.00029,-0.0007,0.00045,0.0012699999999999999,0.00082,-2e-05,2
5650,5956,0.00061,-1e-05,-0.00029,-0.0007,0.00045,0.0012699999999999999,0.00082,-2e-05,2
5651,5957,0.00061,-1e-05,-0.00029,-0.0007,0.00045,0.0012699999999999999,0.00082,-2e-05,2
5652,5958,0.00061,-1e-05,-0.00029,-0.0007,0.00045,0.0012699999999999999,0.00082,-2e-05,2
5653,5959,0.00061,-1e-05,-0.00029,-0.0007,0.00045,0.0012699999999999999,0.00082,-2e-05,2
5654,5960,0.00061,-1e-05,-0.00029,-0.0007,0.00045,0.0012699999999999999,0.00082,-2e-05,2
5655,5961,0.00061,-1e-05,-0.00029,-0.0007,0.00045,0.0012699999999999999,0.00082,-2e-05,2
5656,5962,0.00061,-1e-05,-0.00029,-0.0007,0.00045,0.0012699999999999999,0.00082,-2e-05,2
5657,5963,0.00061,-1e-05,-0.00029,-0.0007,0.00045,0.0012699999999999999,0.00082,-2e-05,2
5658,5964,0.00061,-1e-05,-0.00029,-0.0007,0.00045,0.0012699999999999999,0.00082,-2e-05,2
5659,5965,0.00061,-1e-05,-0.00029,-0.0007,0.00045,0.0012699999999999999,0.00082,-2e-05,2
5660,5966,0.00061,-1e-05,-0.00029,-0.0007,0.00045,0.0012699999999999999,0.00082,-2e-05,2
5661,5967,0.00061,-1e-05,-0.00029,-0.0007,0.00045,0.0012699999999999999,0.00082,-2e-05,2
5662,5968,0.00061,-1e-05,-0.00029,-0.0007,0.00045,0.0012699999999999999,0.00082,-2e-05,2
5663,5969,0.00061,-1e-05,-0.00029,-0.0007,0.00045,0.0012699999999999999,0.00082,-2e-05,2
5664,5970,0.00045999999999999996,0.00011999999999999999,5.9999999999999995e-05,0.00022999999999999998,0.00026000000000000003,-0.00037,-0.0005099999999999999,0.0010199999999999999,2
5665,5971,-0.0005099999999999999,-4e-05,-0.0001,0.0001,-0.00061,-0.0005,-0.00042,5e-05,2
5666,5972,-0.0005099999999999999,-4e-05,-0.0001,0.0001,-0.00061,-0.0005,-0.00042,5e-05,2
5667,5973,-0.0005099999999999999,-4e-05,-0.0001,0.0001,-0.00061,-0.0005,-0.00042,5e-05,2
5668,5974,-0.0005099999999999999,-4e-05,-0.0001,0.0001,-0.00061,-0.0005,-0.00042,5e-05,2
5669,5975,-0.0005099999999999999,-4e-05,-0.0001,0.0001,-0.00061,-0.0005,-0.00042,5e-05,2
5670,5976,-0.0005099999999999999,-4e-05,-0.0001,0.0001,-0.00061,-0.0005,-0.00042,5e-05,2
5671,5977,-0.0005099999999999999,-4e-05,-0.0001,0.0001,-0.00061,-0.0005,-0.00042,5e-05,2
5672,5978,-0.0005099999999999999,-4e-05,-0.0001,0.0001,-0.00061,-0.0005,-0.00042,5e-05,2
5673,5979,-0.0005099999999999999,-4e-05,-0.0001,0.0001,-0.00061,-0.0005,-0.00042,5e-05,2
5674,5980,-0.0005099999999999999,-4e-05,-0.0001,0.0001,-0.00061,-0.0005,-0.00042,5e-05,2
5675,5981,-0.0005099999999999999,-4e-05,-0.0001,0.0001,-0.00061,-0.0005,-0.00042,5e-05,2
5676,5982,-0.0005099999999999999,-4e-05,-0.0001,0.0001,-0.00061,-0.0005,-0.00042,5e-05,2
5677,5983,-0.0005099999999999999,-4e-05,-0.0001,0.0001,-0.00061,-0.0005,-0.00042,5e-05,2
5678,5984,-0.0005099999999999999,-4e-05,-0.0001,0.0001,-0.00061,-0.0005,-0.00042,5e-05,2
5679,5985,-0.0005099999999999999,-4e-05,-0.0001,0.0001,-0.00061,-0.0005,-0.00042,5e-05,2
5680,5987,-0.0005099999999999999,-4e-05,-0.0001,0.0001,-0.00061,-0.0005,-0.00042,5e-05,2
5681,5989,-0.0005099999999999999,-4e-05,-0.0001,0.0001,-0.00061,-0.0005,-0.00042,5e-05,2
5682,5990,-0.0005099999999999999,-4e-05,-0.0001,0.0001,-0.00061,-0.0005,-0.00042,5e-05,2
5683,5991,-0.0005099999999999999,-4e-05,-0.0001,0.0001,-0.00061,-0.0005,-0.00042,5e-05,2
5684,5992,-0.0005099999999999999,-4e-05,-0.0001,0.0001,-0.00061,-0.0005,-0.00042,5e-05,2
5685,5993,-0.00014,-5.9999999999999995e-05,-0.00014,-0.00057,2e-05,0.00049,2e-05,0.00099,2
5686,5994,-0.00043,1e-05,-7e-05,1e-05,-0.00022999999999999998,-0.00037999999999999997,0.00045,-0.0009199999999999999,2
5687,5995,-0.00043,1e-05,-7e-05,1e-05,-0.00022999999999999998,-0.00037999999999999997,0.00045,-0.0009199999999999999,2
5688,5996,-0.00043,1e-05,-7e-05,1e-05,-0.00022999999999999998,-0.00037999999999999997,0.00045,-0.0009199999999999999,2
5689,5997,-0.00043,1e-05,-7e-05,1e-05,-0.00022999999999999998,-0.00037999999999999997,0.00045,-0.0009199999999999999,2
5690,5998,-0.00043,1e-05,-7e-05,1e-05,-0.00022999999999999998,-0.00037999999999999997,0.00045,-0.0009199999999999999,2
5691,5999,-0.00043,1e-05,-7e-05,1e-05,-0.00022999999999999998,-0.00037999999999999997,0.00045,-0.0009199999999999999,2
5692,6000,-0.00043,1e-05,-7e-05,1e-05,-0.00022999999999999998,-0.00037999999999999997,0.00045,-0.0009199999999999999,2
5693,6001,-0.00043,1e-05,-7e-05,1e-05,-0.00022999999999999998,-0.00037999999999999997,0.00045,-0.0009199999999999999,2
5694,6002,-0.00043,1e-05,-7e-05,1e-05,-0.00022999999999999998,-0.00037999999999999997,0.00045,-0.0009199999999999999,2
5695,6003,-0.00043,1e-05,-7e-05,1e-05,-0.00022999999999999998,-0.00037999999999999997,0.00045,-0.0009199999999999999,2
5696,6004,-0.00043,1e-05,-7e-05,1e-05,-0.00022999999999999998,-0.00037999999999999997,0.00045,-0.0009199999999999999,2
5697,6005,-0.00043,1e-05,-7e-05,1e-05,-0.00022999999999999998,-0.00037999999999999997,0.00045,-0.0009199999999999999,2
5698,6006,-0.00043,1e-05,-7e-05,1e-05,-0.00022999999999999998,-0.00037999999999999997,0.00045,-0.0009199999999999999,2
5699,6007,0.00011999999999999999,0.0,0.0001,-8e-05,-0.00039,0.00064,-0.00032,-0.00041,2
5700,6008,-0.00014,2.9999999999999997e-05,0.00026000000000000003,-0.00043,0.00047000000000000004,0.00055,5.9999999999999995e-05,-2e-05,2
5701,6009,-0.00014,2.9999999999999997e-05,0.00026000000000000003,-0.00043,0.00047000000000000004,0.00055,5.9999999999999995e-05,-2e-05,2
5702,6010,-0.00014,2.9999999999999997e-05,0.00026000000000000003,-0.00043,0.00047000000000000004,0.00055,5.9999999999999995e-05,-2e-05,2
5703,6011,-0.00014,2.9999999999999997e-05,0.00026000000000000003,-0.00043,0.00047000000000000004,0.00055,5.9999999999999995e-05,-2e-05,2
5704,6012,-0.00014,2.9999999999999997e-05,0.00026000000000000003,-0.00043,0.00047000000000000004,0.00055,5.9999999999999995e-05,-2e-05,2
5705,6013,-0.00014,2.9999999999999997e-05,0.00026000000000000003,-0.00043,0.00047000000000000004,0.00055,5.9999999999999995e-05,-2e-05,2
5706,6014,-0.00014,2.9999999999999997e-05,0.00026000000000000003,-0.00043,0.00047000000000000004,0.00055,5.9999999999999995e-05,-2e-05,2
5707,6015,-0.00014,2.9999999999999997e-05,0.00026000000000000003,-0.00043,0.00047000000000000004,0.00055,5.9999999999999995e-05,-2e-05,2
5708,6016,-0.00014,2.9999999999999997e-05,0.00026000000000000003,-0.00043,0.00047000000000000004,0.00055,5.9999999999999995e-05,-2e-05,2
5709,6017,-0.00014,2.9999999999999997e-05,0.00026000000000000003,-0.00043,0.00047000000000000004,0.00055,5.9999999999999995e-05,-2e-05,2
5710,6018,-0.00014,2.9999999999999997e-05,0.00026000000000000003,-0.00043,0.00047000000000000004,0.00055,5.9999999999999995e-05,-2e-05,2
5711,6019,-0.00014,2.9999999999999997e-05,0.00026000000000000003,-0.00043,0.00047000000000000004,0.00055,5.9999999999999995e-05,-2e-05,2
5712,6020,-0.00014,2.9999999999999997e-05,0.00026000000000000003,-0.00043,0.00047000000000000004,0.00055,5.9999999999999995e-05,-2e-05,2
5713,6021,-0.00014,2.9999999999999997e-05,0.00026000000000000003,-0.00043,0.00047000000000000004,0.00055,5.9999999999999995e-05,-2e-05,2
5714,6022,-0.00014,2.9999999999999997e-05,0.00026000000000000003,-0.00043,0.00047000000000000004,0.00055,5.9999999999999995e-05,-2e-05,2
5715,6023,-0.00014,2.9999999999999997e-05,0.00026000000000000003,-0.00043,0.00047000000000000004,0.00055,5.9999999999999995e-05,-2e-05,2
5716,6024,-0.00014,2.9999999999999997e-05,0.00026000000000000003,-0.00043,0.00047000000000000004,0.00055,5.9999999999999995e-05,-2e-05,2
5717,6026,-0.00014,2.9999999999999997e-05,0.00026000000000000003,-0.00043,0.00047000000000000004,0.00055,5.9999999999999995e-05,-2e-05,2
5718,6027,-0.00014,2.9999999999999997e-05,0.00026000000000000003,-0.00043,0.00047000000000000004,0.00055,5.9999999999999995e-05,-2e-05,2
5719,6028,-0.00014,2.9999999999999997e-05,0.00026000000000000003,-0.00043,0.00047000000000000004,0.00055,5.9999999999999995e-05,-2e-05,2
5720,6029,-0.00014,2.9999999999999997e-05,0.00026000000000000003,-0.00043,0.00047000000000000004,0.00055,5.9999999999999995e-05,-2e-05,2
5721,6030,-0.00016999999999999999,-0.00011,5e-05,9e-05,9e-05,-5e-05,0.00067,-2.9999999999999997e-05,2
5722,6031,0.00032,-5e-05,0.00015,0.00056,0.0,-0.0004,-5e-05,0.00041,2
5723,6032,0.00032,-5e-05,0.00015,0.00056,0.0,-0.0004,-5e-05,0.00041,2
5724,6033,0.00032,-5e-05,0.00015,0.00056,0.0,-0.0004,-5e-05,0.00041,2
5725,6034,0.00032,-5e-05,0.00015,0.00056,0.0,-0.0004,-5e-05,0.00041,2
5726,6035,0.00032,-5e-05,0.00015,0.00056,0.0,-0.0004,-5e-05,0.00041,2
5727,6037,0.00032,-5e-05,0.00015,0.00056,0.0,-0.0004,-5e-05,0.00041,2
5728,6039,0.00032,-5e-05,0.00015,0.00056,0.0,-0.0004,-5e-05,0.00041,2
5729,6040,0.00032,-5e-05,0.00015,0.00056,0.0,-0.0004,-5e-05,0.00041,2
5730,6041,0.00032,-5e-05,0.00015,0.00056,0.0,-0.0004,-5e-05,0.00041,2
5731,6042,0.00032,-5e-05,0.00015,0.00056,0.0,-0.0004,-5e-05,0.00041,2
5732,6043,0.00032,-5e-05,0.00015,0.00056,0.0,-0.0004,-5e-05,0.00041,2
5733,6044,0.00032,-5e-05,0.00015,0.00056,0.0,-0.0004,-5e-05,0.00041,2
5734,6045,0.00032,-5e-05,0.00015,0.00056,0.0,-0.0004,-5e-05,0.00041,2
5735,6046,0.00032,-5e-05,0.00015,0.00056,0.0,-0.0004,-5e-05,0.00041,2
5736,6047,0.00032,-5e-05,0.00015,0.00056,0.0,-0.0004,-5e-05,0.00041,2
5737,6048,0.00032,-5e-05,0.00015,0.00056,0.0,-0.0004,-5e-05,0.00041,2
5738,6049,0.00032,-5e-05,0.00015,0.00056,0.0,-0.0004,-5e-05,0.00041,2
5739,6050,0.00032,-5e-05,0.00015,0.00056,0.0,-0.0004,-5e-05,0.00041,2
5740,6051,0.00032,-5e-05,0.00015,0.00056,0.0,-0.0004,-5e-05,0.00041,2
5741,6052,0.00032,-5e-05,0.00015,0.00056,0.0,-0.0004,-5e-05,0.00041,2
5742,6053,0.00025,0.00013000000000000002,-0.0002,-5e-05,5e-05,0.00023999999999999998,-5.9999999999999995e-05,-0.00086,2
5743,6054,0.00025,0.00013000000000000002,-0.0002,-5e-05,5e-05,0.00023999999999999998,-5.9999999999999995e-05,-0.00086,2
5744,6055,0.00025,0.00013000000000000002,-0.0002,-5e-05,5e-05,0.00023999999999999998,-5.9999999999999995e-05,-0.00086,2
5745,6056,0.00025,0.00013000000000000002,-0.0002,-5e-05,5e-05,0.00023999999999999998,-5.9999999999999995e-05,-0.00086,2
5746,6057,0.00025,0.00013000000000000002,-0.0002,-5e-05,5e-05,0.00023999999999999998,-5.9999999999999995e-05,-0.00086,2
5747,6058,0.00025,0.00013000000000000002,-0.0002,-5e-05,5e-05,0.00023999999999999998,-5.9999999999999995e-05,-0.00086,2
5748,6059,0.00025,0.00013000000000000002,-0.0002,-5e-05,5e-05,0.00023999999999999998,-5.9999999999999995e-05,-0.00086,2
5749,6060,0.00025,0.00013000000000000002,-0.0002,-5e-05,5e-05,0.00023999999999999998,-5.9999999999999995e-05,-0.00086,2
5750,6061,0.00025,0.00013000000000000002,-0.0002,-5e-05,5e-05,0.00023999999999999998,-5.9999999999999995e-05,-0.00086,2
5751,6062,0.00025,0.00013000000000000002,-0.0002,-5e-05,5e-05,0.00023999999999999998,-5.9999999999999995e-05,-0.00086,2
5752,6063,0.00025,0.00013000000000000002,-0.0002,-5e-05,5e-05,0.00023999999999999998,-5.9999999999999995e-05,-0.00086,2
5753,6064,0.00025,0.00013000000000000002,-0.0002,-5e-05,5e-05,0.00023999999999999998,-5.9999999999999995e-05,-0.00086,2
5754,6065,0.00025,0.00013000000000000002,-0.0002,-5e-05,5e-05,0.00023999999999999998,-5.9999999999999995e-05,-0.00086,2
5755,6066,0.00025,0.00013000000000000002,-0.0002,-5e-05,5e-05,0.00023999999999999998,-5.9999999999999995e-05,-0.00086,2
5756,6067,-0.0011300000000000001,-0.00041,-0.0008,-0.00085,-0.00033,-0.00057,0.00031,-0.00095,2
5757,6068,0.00026000000000000003,-0.00011999999999999999,2e-05,0.00058,2.9999999999999997e-05,-0.00027,-0.00026000000000000003,0.00015,2
5758,6069,0.00026000000000000003,-0.00011999999999999999,2e-05,0.00058,2.9999999999999997e-05,-0.00027,-0.00026000000000000003,0.00015,2
5759,6070,0.00026000000000000003,-0.00011999999999999999,2e-05,0.00058,2.9999999999999997e-05,-0.00027,-0.00026000000000000003,0.00015,2
5760,6071,0.00026000000000000003,-0.00011999999999999999,2e-05,0.00058,2.9999999999999997e-05,-0.00027,-0.00026000000000000003,0.00015,2
5761,6072,0.00026000000000000003,-0.00011999999999999999,2e-05,0.00058,2.9999999999999997e-05,-0.00027,-0.00026000000000000003,0.00015,2
5762,6073,0.00026000000000000003,-0.00011999999999999999,2e-05,0.00058,2.9999999999999997e-05,-0.00027,-0.00026000000000000003,0.00015,2
5763,6074,0.00026000000000000003,-0.00011999999999999999,2e-05,0.00058,2.9999999999999997e-05,-0.00027,-0.00026000000000000003,0.00015,2
5764,6075,0.00026000000000000003,-0.00011999999999999999,2e-05,0.00058,2.9999999999999997e-05,-0.00027,-0.00026000000000000003,0.00015,2
5765,6076,0.00026000000000000003,-0.00011999999999999999,2e-05,0.00058,2.9999999999999997e-05,-0.00027,-0.00026000000000000003,0.00015,2
5766,6077,0.00026000000000000003,-0.00011999999999999999,2e-05,0.00058,2.9999999999999997e-05,-0.00027,-0.00026000000000000003,0.00015,2
5767,6078,0.00026000000000000003,-0.00011999999999999999,2e-05,0.00058,2.9999999999999997e-05,-0.00027,-0.00026000000000000003,0.00015,2
5768,6079,0.00026000000000000003,-0.00011999999999999999,2e-05,0.00058,2.9999999999999997e-05,-0.00027,-0.00026000000000000003,0.00015,2
5769,6080,0.00026000000000000003,-0.00011999999999999999,2e-05,0.00058,2.9999999999999997e-05,-0.00027,-0.00026000000000000003,0.00015,2
5770,6081,0.00026000000000000003,-0.00011999999999999999,2e-05,0.00058,2.9999999999999997e-05,-0.00027,-0.00026000000000000003,0.00015,2
5771,6082,0.00026000000000000003,-0.00011999999999999999,2e-05,0.00058,2.9999999999999997e-05,-0.00027,-0.00026000000000000003,0.00015,2
5772,6083,0.00026000000000000003,-0.00011999999999999999,2e-05,0.00058,2.9999999999999997e-05,-0.00027,-0.00026000000000000003,0.00015,2
5773,6084,0.00026000000000000003,-0.00011999999999999999,2e-05,0.00058,2.9999999999999997e-05,-0.00027,-0.00026000000000000003,0.00015,2
5774,6085,0.00026000000000000003,-0.00011999999999999999,2e-05,0.00058,2.9999999999999997e-05,-0.00027,-0.00026000000000000003,0.00015,2
5775,6087,0.00026000000000000003,-0.00011999999999999999,2e-05,0.00058,2.9999999999999997e-05,-0.00027,-0.00026000000000000003,0.00015,2
5776,6089,0.00026000000000000003,-0.00011999999999999999,2e-05,0.00058,2.9999999999999997e-05,-0.00027,-0.00026000000000000003,0.00015,2
5777,6090,0.00013000000000000002,0.00011,0.00028,0.00028,-7e-05,8e-05,-0.0003,-0.00049,2
5778,6091,0.00013000000000000002,0.00011,0.00028,0.00028,-7e-05,8e-05,-0.0003,-0.00049,2
5779,6092,0.00045999999999999996,0.00011999999999999999,0.00022,0.00027,0.00043,0.00032,0.0006900000000000001,0.00033999999999999997,2
5780,6093,0.00045999999999999996,0.00011999999999999999,0.00022,0.00027,0.00043,0.00032,0.0006900000000000001,0.00033999999999999997,2
5781,6094,0.00045999999999999996,0.00011999999999999999,0.00022,0.00027,0.00043,0.00032,0.0006900000000000001,0.00033999999999999997,2
5782,6095,0.00045999999999999996,0.00011999999999999999,0.00022,0.00027,0.00043,0.00032,0.0006900000000000001,0.00033999999999999997,2
5783,6096,0.00045999999999999996,0.00011999999999999999,0.00022,0.00027,0.00043,0.00032,0.0006900000000000001,0.00033999999999999997,2
5784,6097,0.00045999999999999996,0.00011999999999999999,0.00022,0.00027,0.00043,0.00032,0.0006900000000000001,0.00033999999999999997,2
5785,6098,0.00045999999999999996,0.00011999999999999999,0.00022,0.00027,0.00043,0.00032,0.0006900000000000001,0.00033999999999999997,2
5786,6099,0.00045999999999999996,0.00011999999999999999,0.00022,0.00027,0.00043,0.00032,0.0006900000000000001,0.00033999999999999997,2
5787,6100,0.00045999999999999996,0.00011999999999999999,0.00022,0.00027,0.00043,0.00032,0.0006900000000000001,0.00033999999999999997,2
5788,6101,0.00045999999999999996,0.00011999999999999999,0.00022,0.00027,0.00043,0.00032,0.0006900000000000001,0.00033999999999999997,2
5789,6102,0.00045999999999999996,0.00011999999999999999,0.00022,0.00027,0.00043,0.00032,0.0006900000000000001,0.00033999999999999997,2
5790,6103,0.00045999999999999996,0.00011999999999999999,0.00022,0.00027,0.00043,0.00032,0.0006900000000000001,0.00033999999999999997,2
5791,6104,0.00045999999999999996,0.00011999999999999999,0.00022,0.00027,0.00043,0.00032,0.0006900000000000001,0.00033999999999999997,2
5792,6105,0.00045999999999999996,0.00011999999999999999,0.00022,0.00027,0.00043,0.00032,0.0006900000000000001,0.00033999999999999997,2
5793,6106,0.00045999999999999996,0.00011999999999999999,0.00022,0.00027,0.00043,0.00032,0.0006900000000000001,0.00033999999999999997,2
5794,6107,0.00045999999999999996,0.00011999999999999999,0.00022,0.00027,0.00043,0.00032,0.0006900000000000001,0.00033999999999999997,2
5795,6108,0.00045999999999999996,0.00011999999999999999,0.00022,0.00027,0.00043,0.00032,0.0006900000000000001,0.00033999999999999997,2
5796,6109,0.00045999999999999996,0.00011999999999999999,0.00022,0.00027,0.00043,0.00032,0.0006900000000000001,0.00033999999999999997,2
5797,6110,0.00045999999999999996,0.00011999999999999999,0.00022,0.00027,0.00043,0.00032,0.0006900000000000001,0.00033999999999999997,2
5798,6111,0.00045999999999999996,0.00011999999999999999,0.00022,0.00027,0.00043,0.00032,0.0006900000000000001,0.00033999999999999997,2
5799,6112,0.00045999999999999996,0.00011999999999999999,0.00022,0.00027,0.00043,0.00032,0.0006900000000000001,0.00033999999999999997,2
5800,6113,-0.00037,-0.00022999999999999998,-0.00074,-0.00091,0.00054,0.00016,-0.00036,-0.00029,2
5801,6114,-0.00037,-0.00022999999999999998,-0.00074,-0.00091,0.00054,0.00016,-0.00036,-0.00029,2
5802,6115,-0.00037,-0.00022999999999999998,-0.00074,-0.00091,0.00054,0.00016,-0.00036,-0.00029,2
5803,6116,-0.00037,-0.00022999999999999998,-0.00074,-0.00091,0.00054,0.00016,-0.00036,-0.00029,2
5804,6117,-0.00037,-0.00022999999999999998,-0.00074,-0.00091,0.00054,0.00016,-0.00036,-0.00029,2
5805,6118,-0.00037,-0.00022999999999999998,-0.00074,-0.00091,0.00054,0.00016,-0.00036,-0.00029,2
5806,6119,-0.00037,-0.00022999999999999998,-0.00074,-0.00091,0.00054,0.00016,-0.00036,-0.00029,2
5807,6120,-0.00037,-0.00022999999999999998,-0.00074,-0.00091,0.00054,0.00016,-0.00036,-0.00029,2
5808,6121,-0.00037,-0.00022999999999999998,-0.00074,-0.00091,0.00054,0.00016,-0.00036,-0.00029,2
5809,6122,-0.00037,-0.00022999999999999998,-0.00074,-0.00091,0.00054,0.00016,-0.00036,-0.00029,2
5810,6123,-0.00037,-0.00022999999999999998,-0.00074,-0.00091,0.00054,0.00016,-0.00036,-0.00029,2
5811,6124,-0.00037,-0.00022999999999999998,-0.00074,-0.00091,0.00054,0.00016,-0.00036,-0.00029,2
5812,6125,-0.00037,-0.00022999999999999998,-0.00074,-0.00091,0.00054,0.00016,-0.00036,-0.00029,2
5813,6126,-0.00022999999999999998,-1e-05,-9e-05,-0.00022,-0.00047999999999999996,-0.00075,-0.00026000000000000003,-2.9999999999999997e-05,2
5814,6127,-0.00022999999999999998,-1e-05,-9e-05,-0.00022,-0.00047999999999999996,-0.00075,-0.00026000000000000003,-2.9999999999999997e-05,2
5815,6128,-0.00022999999999999998,-1e-05,-9e-05,-0.00022,-0.00047999999999999996,-0.00075,-0.00026000000000000003,-2.9999999999999997e-05,2
5816,6129,-0.00022999999999999998,-1e-05,-9e-05,-0.00022,-0.00047999999999999996,-0.00075,-0.00026000000000000003,-2.9999999999999997e-05,2
5817,6130,-0.00022999999999999998,-1e-05,-9e-05,-0.00022,-0.00047999999999999996,-0.00075,-0.00026000000000000003,-2.9999999999999997e-05,2
5818,6131,-0.00022999999999999998,-1e-05,-9e-05,-0.00022,-0.00047999999999999996,-0.00075,-0.00026000000000000003,-2.9999999999999997e-05,2
5819,6132,-0.00022999999999999998,-1e-05,-9e-05,-0.00022,-0.00047999999999999996,-0.00075,-0.00026000000000000003,-2.9999999999999997e-05,2
5820,6133,-0.00022999999999999998,-1e-05,-9e-05,-0.00022,-0.00047999999999999996,-0.00075,-0.00026000000000000003,-2.9999999999999997e-05,2
5821,6134,-0.00011999999999999999,0.0,5e-05,0.00032,0.00011999999999999999,-0.00018,0.00016,-0.00032,2
5822,6135,0.00056,0.00025,0.0002,-0.00058,-0.00022,5.9999999999999995e-05,-0.00033999999999999997,0.00022999999999999998,2
5823,6137,0.00056,0.00025,0.0002,-0.00058,-0.00022,5.9999999999999995e-05,-0.00033999999999999997,0.00022999999999999998,2
5824,6139,0.00056,0.00025,0.0002,-0.00058,-0.00022,5.9999999999999995e-05,-0.00033999999999999997,0.00022999999999999998,2
5825,6140,0.00056,0.00025,0.0002,-0.00058,-0.00022,5.9999999999999995e-05,-0.00033999999999999997,0.00022999999999999998,2
5826,6141,0.00056,0.00025,0.0002,-0.00058,-0.00022,5.9999999999999995e-05,-0.00033999999999999997,0.00022999999999999998,2
5827,6142,0.00056,0.00025,0.0002,-0.00058,-0.00022,5.9999999999999995e-05,-0.00033999999999999997,0.00022999999999999998,2
5828,6143,0.00056,0.00025,0.0002,-0.00058,-0.00022,5.9999999999999995e-05,-0.00033999999999999997,0.00022999999999999998,2
5829,6144,0.00056,0.00025,0.0002,-0.00058,-0.00022,5.9999999999999995e-05,-0.00033999999999999997,0.00022999999999999998,2
5830,6145,0.00056,0.00025,0.0002,-0.00058,-0.00022,5.9999999999999995e-05,-0.00033999999999999997,0.00022999999999999998,2
5831,6146,0.00056,0.00025,0.0002,-0.00058,-0.00022,5.9999999999999995e-05,-0.00033999999999999997,0.00022999999999999998,2
5832,6147,0.00056,0.00025,0.0002,-0.00058,-0.00022,5.9999999999999995e-05,-0.00033999999999999997,0.00022999999999999998,2
5833,6148,0.00056,0.00025,0.0002,-0.00058,-0.00022,5.9999999999999995e-05,-0.00033999999999999997,0.00022999999999999998,2
5834,6149,0.00056,0.00025,0.0002,-0.00058,-0.00022,5.9999999999999995e-05,-0.00033999999999999997,0.00022999999999999998,2
5835,6150,-0.00047000000000000004,-0.00022999999999999998,-0.00043,-0.0007,-0.00014,-0.0002,-0.00054,-0.00041,2
5836,6151,-0.00063,-9e-05,-0.00011,-0.00011999999999999999,5e-05,0.00036,-0.00058,-0.00022,2
5837,6152,-0.00063,-9e-05,-0.00011,-0.00011999999999999999,5e-05,0.00036,-0.00058,-0.00022,2
5838,6153,-0.00063,-9e-05,-0.00011,-0.00011999999999999999,5e-05,0.00036,-0.00058,-0.00022,2
5839,6154,-0.00063,-9e-05,-0.00011,-0.00011999999999999999,5e-05,0.00036,-0.00058,-0.00022,2
5840,6155,-0.00063,-9e-05,-0.00011,-0.00011999999999999999,5e-05,0.00036,-0.00058,-0.00022,2
5841,6156,-0.00063,-9e-05,-0.00011,-0.00011999999999999999,5e-05,0.00036,-0.00058,-0.00022,2
5842,6157,-0.00063,-9e-05,-0.00011,-0.00011999999999999999,5e-05,0.00036,-0.00058,-0.00022,2
5843,6158,-0.00063,-9e-05,-0.00011,-0.00011999999999999999,5e-05,0.00036,-0.00058,-0.00022,2
5844,6159,-0.00063,-9e-05,-0.00011,-0.00011999999999999999,5e-05,0.00036,-0.00058,-0.00022,2
5845,6160,-0.00063,-9e-05,-0.00011,-0.00011999999999999999,5e-05,0.00036,-0.00058,-0.00022,2
5846,6161,-0.00063,-9e-05,-0.00011,-0.00011999999999999999,5e-05,0.00036,-0.00058,-0.00022,2
5847,6162,-0.00063,-9e-05,-0.00011,-0.00011999999999999999,5e-05,0.00036,-0.00058,-0.00022,2
5848,6163,-0.00063,-9e-05,-0.00011,-0.00011999999999999999,5e-05,0.00036,-0.00058,-0.00022,2
5849,6164,-0.00063,-9e-05,-0.00011,-0.00011999999999999999,5e-05,0.00036,-0.00058,-0.00022,2
5850,6165,-0.00063,-9e-05,-0.00011,-0.00011999999999999999,5e-05,0.00036,-0.00058,-0.00022,2
5851,6166,-0.00063,-9e-05,-0.00011,-0.00011999999999999999,5e-05,0.00036,-0.00058,-0.00022,2
5852,6167,-0.00063,-9e-05,-0.00011,-0.00011999999999999999,5e-05,0.00036,-0.00058,-0.00022,2
5853,6168,-0.00063,-9e-05,-0.00011,-0.00011999999999999999,5e-05,0.00036,-0.00058,-0.00022,2
5854,6169,-0.00063,-9e-05,-0.00011,-0.00011999999999999999,5e-05,0.00036,-0.00058,-0.00022,2
5855,6170,-0.00063,-9e-05,-0.00011,-0.00011999999999999999,5e-05,0.00036,-0.00058,-0.00022,2
5856,6171,-0.00063,-9e-05,-0.00011,-0.00011999999999999999,5e-05,0.00036,-0.00058,-0.00022,2
5857,6172,0.00011,-2e-05,-9e-05,-0.00022999999999999998,0.00018,0.00064,0.00021,0.00036,2
5858,6173,0.00025,-2e-05,0.0,-0.00045,-0.00033,-0.00029,0.00016,-0.00031,2
5859,6174,-0.00062,-0.0003,-0.00084,-0.00028,-0.00064,-0.00013000000000000002,-0.00057,-0.00091,2
5860,6175,-0.00062,-0.0003,-0.00084,-0.00028,-0.00064,-0.00013000000000000002,-0.00057,-0.00091,2
5861,6176,-0.00062,-0.0003,-0.00084,-0.00028,-0.00064,-0.00013000000000000002,-0.00057,-0.00091,2
5862,6177,-0.00062,-0.0003,-0.00084,-0.00028,-0.00064,-0.00013000000000000002,-0.00057,-0.00091,2
5863,6178,-0.00062,-0.0003,-0.00084,-0.00028,-0.00064,-0.00013000000000000002,-0.00057,-0.00091,2
5864,6179,-0.00062,-0.0003,-0.00084,-0.00028,-0.00064,-0.00013000000000000002,-0.00057,-0.00091,2
5865,6180,-0.00062,-0.0003,-0.00084,-0.00028,-0.00064,-0.00013000000000000002,-0.00057,-0.00091,2
5866,6181,-0.00062,-0.0003,-0.00084,-0.00028,-0.00064,-0.00013000000000000002,-0.00057,-0.00091,2
5867,6182,-0.00062,-0.0003,-0.00084,-0.00028,-0.00064,-0.00013000000000000002,-0.00057,-0.00091,2
5868,6183,-0.00062,-0.0003,-0.00084,-0.00028,-0.00064,-0.00013000000000000002,-0.00057,-0.00091,2
5869,6184,-0.00062,-0.0003,-0.00084,-0.00028,-0.00064,-0.00013000000000000002,-0.00057,-0.00091,2
5870,6185,-0.00062,-0.0003,-0.00084,-0.00028,-0.00064,-0.00013000000000000002,-0.00057,-0.00091,2
5871,6187,9e-05,-1e-05,0.00018,0.00011999999999999999,0.00018999999999999998,0.00035,0.00053,0.00065,2
5872,6189,9e-05,-1e-05,0.00018,0.00011999999999999999,0.00018999999999999998,0.00035,0.00053,0.00065,2
5873,6190,9e-05,-1e-05,0.00018,0.00011999999999999999,0.00018999999999999998,0.00035,0.00053,0.00065,2
5874,6191,9e-05,-1e-05,0.00018,0.00011999999999999999,0.00018999999999999998,0.00035,0.00053,0.00065,2
5875,6192,9e-05,-1e-05,0.00018,0.00011999999999999999,0.00018999999999999998,0.00035,0.00053,0.00065,2
5876,6193,9e-05,-1e-05,0.00018,0.00011999999999999999,0.00018999999999999998,0.00035,0.00053,0.00065,2
5877,6194,9e-05,-1e-05,0.00018,0.00011999999999999999,0.00018999999999999998,0.00035,0.00053,0.00065,2
5878,6195,-0.00025,-0.00014,-0.00016,-0.00022,-0.00018,-0.00023999999999999998,-0.0002,0.00072,2
5879,6196,-0.00025,-0.00014,-0.00016,-0.00022,-0.00018,-0.00023999999999999998,-0.0002,0.00072,2
5880,6197,-0.00025,-0.00014,-0.00016,-0.00022,-0.00018,-0.00023999999999999998,-0.0002,0.00072,2
5881,6198,-0.00025,-0.00014,-0.00016,-0.00022,-0.00018,-0.00023999999999999998,-0.0002,0.00072,2
5882,6199,-0.00025,-0.00014,-0.00016,-0.00022,-0.00018,-0.00023999999999999998,-0.0002,0.00072,2
5883,6200,-0.00025,-0.00014,-0.00016,-0.00022,-0.00018,-0.00023999999999999998,-0.0002,0.00072,2
5884,6201,-0.00025,-0.00014,-0.00016,-0.00022,-0.00018,-0.00023999999999999998,-0.0002,0.00072,2
5885,6202,-0.00025,-0.00014,-0.00016,-0.00022,-0.00018,-0.00023999999999999998,-0.0002,0.00072,2
5886,6203,-0.00025,-0.00014,-0.00016,-0.00022,-0.00018,-0.00023999999999999998,-0.0002,0.00072,2
5887,6204,-0.00025,-0.00014,-0.00016,-0.00022,-0.00018,-0.00023999999999999998,-0.0002,0.00072,2
5888,6205,-0.00025,-0.00014,-0.00016,-0.00022,-0.00018,-0.00023999999999999998,-0.0002,0.00072,2
5889,6206,-0.00025,-0.00014,-0.00016,-0.00022,-0.00018,-0.00023999999999999998,-0.0002,0.00072,2
5890,6207,-0.00025,-0.00014,-0.00016,-0.00022,-0.00018,-0.00023999999999999998,-0.0002,0.00072,2
5891,6208,-0.00025,-0.00014,-0.00016,-0.00022,-0.00018,-0.00023999999999999998,-0.0002,0.00072,2
5892,6209,-0.00025,-0.00014,-0.00016,-0.00022,-0.00018,-0.00023999999999999998,-0.0002,0.00072,2
5893,6210,-0.00014,-1e-05,-5e-05,-0.0002,0.00045,9e-05,-0.0002,-0.00085,2
5894,6211,-0.00014,-1e-05,-5e-05,-0.0002,0.00045,9e-05,-0.0002,-0.00085,2
5895,6212,2e-05,1e-05,0.0002,-0.00047999999999999996,-0.00054,-0.00101,-9e-05,-0.00045999999999999996,2
5896,6213,2e-05,1e-05,0.0002,-0.00047999999999999996,-0.00054,-0.00101,-9e-05,-0.00045999999999999996,2
5897,6214,2e-05,1e-05,0.0002,-0.00047999999999999996,-0.00054,-0.00101,-9e-05,-0.00045999999999999996,2
5898,6215,2e-05,1e-05,0.0002,-0.00047999999999999996,-0.00054,-0.00101,-9e-05,-0.00045999999999999996,2
5899,6216,2e-05,1e-05,0.0002,-0.00047999999999999996,-0.00054,-0.00101,-9e-05,-0.00045999999999999996,2
5900,6217,2e-05,1e-05,0.0002,-0.00047999999999999996,-0.00054,-0.00101,-9e-05,-0.00045999999999999996,2
5901,6218,2e-05,1e-05,0.0002,-0.00047999999999999996,-0.00054,-0.00101,-9e-05,-0.00045999999999999996,2
5902,6219,2e-05,1e-05,0.0002,-0.00047999999999999996,-0.00054,-0.00101,-9e-05,-0.00045999999999999996,2
5903,6220,2e-05,1e-05,0.0002,-0.00047999999999999996,-0.00054,-0.00101,-9e-05,-0.00045999999999999996,2
5904,6221,2e-05,1e-05,0.0002,-0.00047999999999999996,-0.00054,-0.00101,-9e-05,-0.00045999999999999996,2
5905,6222,2e-05,1e-05,0.0002,-0.00047999999999999996,-0.00054,-0.00101,-9e-05,-0.00045999999999999996,2
5906,6223,2e-05,1e-05,0.0002,-0.00047999999999999996,-0.00054,-0.00101,-9e-05,-0.00045999999999999996,2
5907,6224,2e-05,1e-05,0.0002,-0.00047999999999999996,-0.00054,-0.00101,-9e-05,-0.00045999999999999996,2
5908,6225,2e-05,1e-05,0.0002,-0.00047999999999999996,-0.00054,-0.00101,-9e-05,-0.00045999999999999996,2
5909,6226,2e-05,1e-05,0.0002,-0.00047999999999999996,-0.00054,-0.00101,-9e-05,-0.00045999999999999996,2
5910,6227,2e-05,1e-05,0.0002,-0.00047999999999999996,-0.00054,-0.00101,-9e-05,-0.00045999999999999996,2
5911,6228,2e-05,1e-05,0.0002,-0.00047999999999999996,-0.00054,-0.00101,-9e-05,-0.00045999999999999996,2
5912,6229,2e-05,1e-05,0.0002,-0.00047999999999999996,-0.00054,-0.00101,-9e-05,-0.00045999999999999996,2
5913,6230,2e-05,1e-05,0.0002,-0.00047999999999999996,-0.00054,-0.00101,-9e-05,-0.00045999999999999996,2
5914,6231,2e-05,1e-05,0.0002,-0.00047999999999999996,-0.00054,-0.00101,-9e-05,-0.00045999999999999996,2
5915,6232,2e-05,1e-05,0.0002,-0.00047999999999999996,-0.00054,-0.00101,-9e-05,-0.00045999999999999996,2
5916,6233,0.00033,0.00016999999999999999,0.00029,0.00058,7e-05,0.00033,-0.00045,0.00047999999999999996,2
5917,6234,-0.00031,5.9999999999999995e-05,0.0004,0.00063,4e-05,0.0004,-0.00037,0.00099,2
5918,6235,-0.00031,5.9999999999999995e-05,0.0004,0.00063,4e-05,0.0004,-0.00037,0.00099,2
5919,6237,-0.00031,5.9999999999999995e-05,0.0004,0.00063,4e-05,0.0004,-0.00037,0.00099,2
5920,6239,-0.00031,5.9999999999999995e-05,0.0004,0.00063,4e-05,0.0004,-0.00037,0.00099,2
5921,6240,-0.00031,5.9999999999999995e-05,0.0004,0.00063,4e-05,0.0004,-0.00037,0.00099,2
5922,6241,-0.00031,5.9999999999999995e-05,0.0004,0.00063,4e-05,0.0004,-0.00037,0.00099,2
5923,6242,-0.00031,5.9999999999999995e-05,0.0004,0.00063,4e-05,0.0004,-0.00037,0.00099,2
5924,6243,-0.00031,5.9999999999999995e-05,0.0004,0.00063,4e-05,0.0004,-0.00037,0.00099,2
5925,6244,-0.00031,5.9999999999999995e-05,0.0004,0.00063,4e-05,0.0004,-0.00037,0.00099,2
5926,6245,-0.00031,5.9999999999999995e-05,0.0004,0.00063,4e-05,0.0004,-0.00037,0.00099,2
5927,6246,-0.0007599999999999999,-0.0003,-0.0004,9e-05,5.9999999999999995e-05,0.00018999999999999998,0.00058,-0.00116,2
5928,6247,-1e-05,0.00014,5e-05,-0.00037999999999999997,4e-05,0.00108,0.0010400000000000001,0.00021,2
5929,6248,-1e-05,0.00014,5e-05,-0.00037999999999999997,4e-05,0.00108,0.0010400000000000001,0.00021,2
5930,6249,-1e-05,0.00014,5e-05,-0.00037999999999999997,4e-05,0.00108,0.0010400000000000001,0.00021,2
5931,6250,-1e-05,0.00014,5e-05,-0.00037999999999999997,4e-05,0.00108,0.0010400000000000001,0.00021,2
5932,6251,-1e-05,0.00014,5e-05,-0.00037999999999999997,4e-05,0.00108,0.0010400000000000001,0.00021,2
5933,6252,-1e-05,0.00014,5e-05,-0.00037999999999999997,4e-05,0.00108,0.0010400000000000001,0.00021,2
5934,6253,-1e-05,0.00014,5e-05,-0.00037999999999999997,4e-05,0.00108,0.0010400000000000001,0.00021,2
5935,6254,-1e-05,0.00014,5e-05,-0.00037999999999999997,4e-05,0.00108,0.0010400000000000001,0.00021,2
5936,6255,0.0006900000000000001,9e-05,0.0003,0.00073,0.00022,-5e-05,0.0012699999999999999,0.0012699999999999999,2
5937,6256,0.0006900000000000001,9e-05,0.0003,0.00073,0.00022,-5e-05,0.0012699999999999999,0.0012699999999999999,2
5938,6257,0.0006900000000000001,9e-05,0.0003,0.00073,0.00022,-5e-05,0.0012699999999999999,0.0012699999999999999,2
5939,6258,0.0006900000000000001,9e-05,0.0003,0.00073,0.00022,-5e-05,0.0012699999999999999,0.0012699999999999999,2
5940,6259,0.0006900000000000001,9e-05,0.0003,0.00073,0.00022,-5e-05,0.0012699999999999999,0.0012699999999999999,2
5941,6260,0.0006900000000000001,9e-05,0.0003,0.00073,0.00022,-5e-05,0.0012699999999999999,0.0012699999999999999,2
5942,6261,0.0006900000000000001,9e-05,0.0003,0.00073,0.00022,-5e-05,0.0012699999999999999,0.0012699999999999999,2
5943,6262,0.0006900000000000001,9e-05,0.0003,0.00073,0.00022,-5e-05,0.0012699999999999999,0.0012699999999999999,2
5944,6263,0.0006900000000000001,9e-05,0.0003,0.00073,0.00022,-5e-05,0.0012699999999999999,0.0012699999999999999,2
5945,6264,0.0006900000000000001,9e-05,0.0003,0.00073,0.00022,-5e-05,0.0012699999999999999,0.0012699999999999999,2
5946,6265,0.0006900000000000001,9e-05,0.0003,0.00073,0.00022,-5e-05,0.0012699999999999999,0.0012699999999999999,2
5947,6266,0.0006900000000000001,9e-05,0.0003,0.00073,0.00022,-5e-05,0.0012699999999999999,0.0012699999999999999,2
5948,6267,0.0006900000000000001,9e-05,0.0003,0.00073,0.00022,-5e-05,0.0012699999999999999,0.0012699999999999999,2
5949,6268,0.0006900000000000001,9e-05,0.0003,0.00073,0.00022,-5e-05,0.0012699999999999999,0.0012699999999999999,2
5950,6269,0.0006900000000000001,9e-05,0.0003,0.00073,0.00022,-5e-05,0.0012699999999999999,0.0012699999999999999,2
5951,6270,0.0006900000000000001,9e-05,0.0003,0.00073,0.00022,-5e-05,0.0012699999999999999,0.0012699999999999999,2
5952,6271,-0.00033,-0.00018,-0.00022999999999999998,-0.00027,-0.00033999999999999997,-4e-05,0.00078,-0.00093,2
5953,6272,0.0005200000000000001,7e-05,0.00011999999999999999,0.00029,-5e-05,-0.00025,-0.00065,0.00047000000000000004,2
5954,6273,-0.00037999999999999997,2e-05,4e-05,-0.0005200000000000001,0.00015,0.00062,0.00033,-0.00047999999999999996,2
5955,6274,-0.00037999999999999997,2e-05,4e-05,-0.0005200000000000001,0.00015,0.00062,0.00033,-0.00047999999999999996,2
5956,6275,-0.00037999999999999997,2e-05,4e-05,-0.0005200000000000001,0.00015,0.00062,0.00033,-0.00047999999999999996,2
5957,6276,-0.00037999999999999997,2e-05,4e-05,-0.0005200000000000001,0.00015,0.00062,0.00033,-0.00047999999999999996,2
5958,6277,-0.00037999999999999997,2e-05,4e-05,-0.0005200000000000001,0.00015,0.00062,0.00033,-0.00047999999999999996,2
5959,6278,-0.00037999999999999997,2e-05,4e-05,-0.0005200000000000001,0.00015,0.00062,0.00033,-0.00047999999999999996,2
5960,6279,-0.00037999999999999997,2e-05,4e-05,-0.0005200000000000001,0.00015,0.00062,0.00033,-0.00047999999999999996,2
5961,6280,-0.00037999999999999997,2e-05,4e-05,-0.0005200000000000001,0.00015,0.00062,0.00033,-0.00047999999999999996,2
5962,6281,-0.00037999999999999997,2e-05,4e-05,-0.0005200000000000001,0.00015,0.00062,0.00033,-0.00047999999999999996,2
5963,6282,-0.00037999999999999997,2e-05,4e-05,-0.0005200000000000001,0.00015,0.00062,0.00033,-0.00047999999999999996,2
5964,6283,-0.00037999999999999997,2e-05,4e-05,-0.0005200000000000001,0.00015,0.00062,0.00033,-0.00047999999999999996,2
5965,6284,-0.00037999999999999997,2e-05,4e-05,-0.0005200000000000001,0.00015,0.00062,0.00033,-0.00047999999999999996,2
5966,6285,-0.00037999999999999997,2e-05,4e-05,-0.0005200000000000001,0.00015,0.00062,0.00033,-0.00047999999999999996,2
5967,6287,-0.00037999999999999997,2e-05,4e-05,-0.0005200000000000001,0.00015,0.00062,0.00033,-0.00047999999999999996,2
5968,6289,-0.00037999999999999997,2e-05,4e-05,-0.0005200000000000001,0.00015,0.00062,0.00033,-0.00047999999999999996,2
5969,6290,-0.00037999999999999997,2e-05,4e-05,-0.0005200000000000001,0.00015,0.00062,0.00033,-0.00047999999999999996,2
5970,6291,-0.00037999999999999997,2e-05,4e-05,-0.0005200000000000001,0.00015,0.00062,0.00033,-0.00047999999999999996,2
5971,6292,-0.00037999999999999997,2e-05,4e-05,-0.0005200000000000001,0.00015,0.00062,0.00033,-0.00047999999999999996,2
5972,6293,-0.00033999999999999997,-9e-05,5e-05,-0.00022,-0.00016,-0.00055,-0.00128,-0.00045999999999999996,2
5973,6294,-0.0006900000000000001,-5.9999999999999995e-05,5e-05,0.0005,0.00027,-5e-05,0.00029,-0.00011999999999999999,2
5974,6295,-0.0006900000000000001,-5.9999999999999995e-05,5e-05,0.0005,0.00027,-5e-05,0.00029,-0.00011999999999999999,2
5975,6296,-0.0006900000000000001,-5.9999999999999995e-05,5e-05,0.0005,0.00027,-5e-05,0.00029,-0.00011999999999999999,2
5976,6297,-0.0006900000000000001,-5.9999999999999995e-05,5e-05,0.0005,0.00027,-5e-05,0.00029,-0.00011999999999999999,2
5977,6298,-0.0006900000000000001,-5.9999999999999995e-05,5e-05,0.0005,0.00027,-5e-05,0.00029,-0.00011999999999999999,2
5978,6299,-0.0006900000000000001,-5.9999999999999995e-05,5e-05,0.0005,0.00027,-5e-05,0.00029,-0.00011999999999999999,2
5979,6300,-0.0006900000000000001,-5.9999999999999995e-05,5e-05,0.0005,0.00027,-5e-05,0.00029,-0.00011999999999999999,2
5980,6301,-0.0006900000000000001,-5.9999999999999995e-05,5e-05,0.0005,0.00027,-5e-05,0.00029,-0.00011999999999999999,2
5981,6302,-0.0006900000000000001,-5.9999999999999995e-05,5e-05,0.0005,0.00027,-5e-05,0.00029,-0.00011999999999999999,2
5982,6303,-0.0006900000000000001,-5.9999999999999995e-05,5e-05,0.0005,0.00027,-5e-05,0.00029,-0.00011999999999999999,2
5983,6304,-0.0006900000000000001,-5.9999999999999995e-05,5e-05,0.0005,0.00027,-5e-05,0.00029,-0.00011999999999999999,2
5984,6305,-0.0006900000000000001,-5.9999999999999995e-05,5e-05,0.0005,0.00027,-5e-05,0.00029,-0.00011999999999999999,2
5985,6306,-0.00037,-0.00023999999999999998,-0.0005099999999999999,-0.0001,-0.00047000000000000004,-0.00081,0.00031,0.00033999999999999997,2
5986,6307,-0.00037,-0.00023999999999999998,-0.0005099999999999999,-0.0001,-0.00047000000000000004,-0.00081,0.00031,0.00033999999999999997,2
5987,6308,-0.00037,-0.00023999999999999998,-0.0005099999999999999,-0.0001,-0.00047000000000000004,-0.00081,0.00031,0.00033999999999999997,2
5988,6309,-0.00037,-0.00023999999999999998,-0.0005099999999999999,-0.0001,-0.00047000000000000004,-0.00081,0.00031,0.00033999999999999997,2
5989,6310,-0.00037,-0.00023999999999999998,-0.0005099999999999999,-0.0001,-0.00047000000000000004,-0.00081,0.00031,0.00033999999999999997,2
5990,6311,-0.00037,-0.00023999999999999998,-0.0005099999999999999,-0.0001,-0.00047000000000000004,-0.00081,0.00031,0.00033999999999999997,2
5991,6312,-0.00037,-0.00023999999999999998,-0.0005099999999999999,-0.0001,-0.00047000000000000004,-0.00081,0.00031,0.00033999999999999997,2
5992,6313,-0.00037,-0.00023999999999999998,-0.0005099999999999999,-0.0001,-0.00047000000000000004,-0.00081,0.00031,0.00033999999999999997,2
5993,6314,-0.00037,-0.00023999999999999998,-0.0005099999999999999,-0.0001,-0.00047000000000000004,-0.00081,0.00031,0.00033999999999999997,2
5994,6315,0.0004,0.00016,0.00027,-8e-05,-0.0004,-0.00033999999999999997,-0.00066,-0.00041,2
5995,6316,0.0004,0.00016,0.00027,-8e-05,-0.0004,-0.00033999999999999997,-0.00066,-0.00041,2
5996,6317,0.0004,0.00016,0.00027,-8e-05,-0.0004,-0.00033999999999999997,-0.00066,-0.00041,2
5997,6318,0.0004,0.00016,0.00027,-8e-05,-0.0004,-0.00033999999999999997,-0.00066,-0.00041,2
5998,6319,0.0004,0.00016,0.00027,-8e-05,-0.0004,-0.00033999999999999997,-0.00066,-0.00041,2
5999,6320,0.0004,0.00016,0.00027,-8e-05,-0.0004,-0.00033999999999999997,-0.00066,-0.00041,2
6000,6321,0.0004,0.00016,0.00027,-8e-05,-0.0004,-0.00033999999999999997,-0.00066,-0.00041,2
6001,6322,0.0004,0.00016,0.00027,-8e-05,-0.0004,-0.00033999999999999997,-0.00066,-0.00041,2
6002,6323,0.0004,0.00016,0.00027,-8e-05,-0.0004,-0.00033999999999999997,-0.00066,-0.00041,2
6003,6324,0.0004,0.00016,0.00027,-8e-05,-0.0004,-0.00033999999999999997,-0.00066,-0.00041,2
6004,6325,0.0004,0.00016,0.00027,-8e-05,-0.0004,-0.00033999999999999997,-0.00066,-0.00041,2
6005,6326,0.0004,0.00016,0.00027,-8e-05,-0.0004,-0.00033999999999999997,-0.00066,-0.00041,2
6006,6327,0.0004,0.00016,0.00027,-8e-05,-0.0004,-0.00033999999999999997,-0.00066,-0.00041,2
6007,6328,0.0004,0.00016,0.00027,-8e-05,-0.0004,-0.00033999999999999997,-0.00066,-0.00041,2
6008,6329,0.0004,0.00016,0.00027,-8e-05,-0.0004,-0.00033999999999999997,-0.00066,-0.00041,2
6009,6330,-0.00011,-9e-05,-0.00039,-0.00011999999999999999,-0.00018999999999999998,-5e-05,0.0,-0.00067,2
6010,6331,0.00037,-5.9999999999999995e-05,-8e-05,-4e-05,5.9999999999999995e-05,-0.00055,-0.00035,0.00011999999999999999,2
6011,6332,-0.00059,5.9999999999999995e-05,0.00022999999999999998,0.00037999999999999997,-0.00033,0.00015,0.0,0.00018,2
6012,6333,-0.00059,5.9999999999999995e-05,0.00022999999999999998,0.00037999999999999997,-0.00033,0.00015,0.0,0.00018,2
6013,6334,-0.00059,5.9999999999999995e-05,0.00022999999999999998,0.00037999999999999997,-0.00033,0.00015,0.0,0.00018,2
6014,6335,-0.00059,5.9999999999999995e-05,0.00022999999999999998,0.00037999999999999997,-0.00033,0.00015,0.0,0.00018,2
6015,6337,-0.00059,5.9999999999999995e-05,0.00022999999999999998,0.00037999999999999997,-0.00033,0.00015,0.0,0.00018,2
6016,6339,-0.00059,5.9999999999999995e-05,0.00022999999999999998,0.00037999999999999997,-0.00033,0.00015,0.0,0.00018,2
6017,6340,-0.00059,5.9999999999999995e-05,0.00022999999999999998,0.00037999999999999997,-0.00033,0.00015,0.0,0.00018,2
6018,6341,-0.00059,5.9999999999999995e-05,0.00022999999999999998,0.00037999999999999997,-0.00033,0.00015,0.0,0.00018,2
6019,6342,-0.00059,5.9999999999999995e-05,0.00022999999999999998,0.00037999999999999997,-0.00033,0.00015,0.0,0.00018,2
6020,6343,-0.00059,5.9999999999999995e-05,0.00022999999999999998,0.00037999999999999997,-0.00033,0.00015,0.0,0.00018,2
6021,6344,-0.00059,5.9999999999999995e-05,0.00022999999999999998,0.00037999999999999997,-0.00033,0.00015,0.0,0.00018,2
6022,6345,-0.00059,5.9999999999999995e-05,0.00022999999999999998,0.00037999999999999997,-0.00033,0.00015,0.0,0.00018,2
6023,6346,-0.00059,5.9999999999999995e-05,0.00022999999999999998,0.00037999999999999997,-0.00033,0.00015,0.0,0.00018,2
6024,6347,-0.00059,5.9999999999999995e-05,0.00022999999999999998,0.00037999999999999997,-0.00033,0.00015,0.0,0.00018,2
6025,6348,-0.00059,5.9999999999999995e-05,0.00022999999999999998,0.00037999999999999997,-0.00033,0.00015,0.0,0.00018,2
6026,6349,-0.00059,5.9999999999999995e-05,0.00022999999999999998,0.00037999999999999997,-0.00033,0.00015,0.0,0.00018,2
6027,6350,-0.00059,5.9999999999999995e-05,0.00022999999999999998,0.00037999999999999997,-0.00033,0.00015,0.0,0.00018,2
6028,6351,-0.00059,5.9999999999999995e-05,0.00022999999999999998,0.00037999999999999997,-0.00033,0.00015,0.0,0.00018,2
6029,6352,-0.00059,5.9999999999999995e-05,0.00022999999999999998,0.00037999999999999997,-0.00033,0.00015,0.0,0.00018,2
6030,6353,-0.00023999999999999998,2.9999999999999997e-05,8e-05,0.00013000000000000002,0.00026000000000000003,-5e-05,-0.00045999999999999996,-0.00039,2
6031,6354,-0.00027,1e-05,5.9999999999999995e-05,0.00022999999999999998,0.00026000000000000003,-1e-05,-0.0007700000000000001,0.00032,2
6032,6355,-0.00027,1e-05,5.9999999999999995e-05,0.00022999999999999998,0.00026000000000000003,-1e-05,-0.0007700000000000001,0.00032,2
6033,6356,-0.00027,1e-05,5.9999999999999995e-05,0.00022999999999999998,0.00026000000000000003,-1e-05,-0.0007700000000000001,0.00032,2
6034,6357,-0.00027,1e-05,5.9999999999999995e-05,0.00022999999999999998,0.00026000000000000003,-1e-05,-0.0007700000000000001,0.00032,2
6035,6358,-0.00027,1e-05,5.9999999999999995e-05,0.00022999999999999998,0.00026000000000000003,-1e-05,-0.0007700000000000001,0.00032,2
6036,6359,-0.00027,1e-05,5.9999999999999995e-05,0.00022999999999999998,0.00026000000000000003,-1e-05,-0.0007700000000000001,0.00032,2
6037,6360,-0.00027,1e-05,5.9999999999999995e-05,0.00022999999999999998,0.00026000000000000003,-1e-05,-0.0007700000000000001,0.00032,2
6038,6361,-0.00027,1e-05,5.9999999999999995e-05,0.00022999999999999998,0.00026000000000000003,-1e-05,-0.0007700000000000001,0.00032,2
6039,6362,-0.00027,1e-05,5.9999999999999995e-05,0.00022999999999999998,0.00026000000000000003,-1e-05,-0.0007700000000000001,0.00032,2
6040,6363,-0.00027,1e-05,5.9999999999999995e-05,0.00022999999999999998,0.00026000000000000003,-1e-05,-0.0007700000000000001,0.00032,2
6041,6364,-0.00027,1e-05,5.9999999999999995e-05,0.00022999999999999998,0.00026000000000000003,-1e-05,-0.0007700000000000001,0.00032,2
6042,6365,-0.00027,1e-05,5.9999999999999995e-05,0.00022999999999999998,0.00026000000000000003,-1e-05,-0.0007700000000000001,0.00032,2
6043,6366,-0.00037999999999999997,0.0,-2e-05,8e-05,-2.9999999999999997e-05,-5e-05,0.00027,0.00032,2
6044,6367,-0.00037999999999999997,0.0,-2e-05,8e-05,-2.9999999999999997e-05,-5e-05,0.00027,0.00032,2
6045,6368,-0.00037999999999999997,0.0,-2e-05,8e-05,-2.9999999999999997e-05,-5e-05,0.00027,0.00032,2
6046,6369,-0.00037999999999999997,0.0,-2e-05,8e-05,-2.9999999999999997e-05,-5e-05,0.00027,0.00032,2
6047,6370,-0.00037999999999999997,0.0,-2e-05,8e-05,-2.9999999999999997e-05,-5e-05,0.00027,0.00032,2
6048,6371,-0.00037999999999999997,0.0,-2e-05,8e-05,-2.9999999999999997e-05,-5e-05,0.00027,0.00032,2
6049,6372,-0.00037999999999999997,0.0,-2e-05,8e-05,-2.9999999999999997e-05,-5e-05,0.00027,0.00032,2
6050,6373,-0.00037999999999999997,0.0,-2e-05,8e-05,-2.9999999999999997e-05,-5e-05,0.00027,0.00032,2
6051,6374,-0.00037999999999999997,0.0,-2e-05,8e-05,-2.9999999999999997e-05,-5e-05,0.00027,0.00032,2
6052,6375,0.00036,1e-05,0.00018,0.00043,-7e-05,0.0,-2e-05,-2e-05,2
6053,6377,0.00036,1e-05,0.00018,0.00043,-7e-05,0.0,-2e-05,-2e-05,2
6054,6378,0.00036,1e-05,0.00018,0.00043,-7e-05,0.0,-2e-05,-2e-05,2
6055,6379,0.00036,1e-05,0.00018,0.00043,-7e-05,0.0,-2e-05,-2e-05,2
6056,6380,0.00036,1e-05,0.00018,0.00043,-7e-05,0.0,-2e-05,-2e-05,2
6057,6381,0.00036,1e-05,0.00018,0.00043,-7e-05,0.0,-2e-05,-2e-05,2
6058,6382,0.00036,1e-05,0.00018,0.00043,-7e-05,0.0,-2e-05,-2e-05,2
6059,6383,0.00036,1e-05,0.00018,0.00043,-7e-05,0.0,-2e-05,-2e-05,2
6060,6384,0.00036,1e-05,0.00018,0.00043,-7e-05,0.0,-2e-05,-2e-05,2
6061,6385,0.00036,1e-05,0.00018,0.00043,-7e-05,0.0,-2e-05,-2e-05,2
6062,6387,0.00036,1e-05,0.00018,0.00043,-7e-05,0.0,-2e-05,-2e-05,2
6063,6389,0.00036,1e-05,0.00018,0.00043,-7e-05,0.0,-2e-05,-2e-05,2
6064,6390,0.00085,0.00018999999999999998,0.00022,0.00039,0.00022999999999999998,0.00063,0.00047000000000000004,-0.00011,2
6065,6391,-0.00036,-0.0001,-0.00016999999999999999,-0.00045999999999999996,0.00053,0.00026000000000000003,-0.00039,-0.00054,2
6066,6392,-0.0003,-0.0001,-0.00021,5.9999999999999995e-05,-8e-05,0.00015,-0.00047000000000000004,-4e-05,2
6067,6393,-0.0003,-0.0001,-0.00021,5.9999999999999995e-05,-8e-05,0.00015,-0.00047000000000000004,-4e-05,2
6068,6394,-0.0003,-0.0001,-0.00021,5.9999999999999995e-05,-8e-05,0.00015,-0.00047000000000000004,-4e-05,2
6069,6395,-0.0003,-0.0001,-0.00021,5.9999999999999995e-05,-8e-05,0.00015,-0.00047000000000000004,-4e-05,2
6070,6396,-0.0003,-0.0001,-0.00021,5.9999999999999995e-05,-8e-05,0.00015,-0.00047000000000000004,-4e-05,2
6071,6397,-0.0003,-0.0001,-0.00021,5.9999999999999995e-05,-8e-05,0.00015,-0.00047000000000000004,-4e-05,2
6072,6399,-0.0003,-0.0001,-0.00021,5.9999999999999995e-05,-8e-05,0.00015,-0.00047000000000000004,-4e-05,2
6073,6400,-0.0003,-0.0001,-0.00021,5.9999999999999995e-05,-8e-05,0.00015,-0.00047000000000000004,-4e-05,2
6074,6401,-0.0003,-0.0001,-0.00021,5.9999999999999995e-05,-8e-05,0.00015,-0.00047000000000000004,-4e-05,2
6075,6402,-0.0003,-0.0001,-0.00021,5.9999999999999995e-05,-8e-05,0.00015,-0.00047000000000000004,-4e-05,2
6076,6403,-0.0003,-0.0001,-0.00021,5.9999999999999995e-05,-8e-05,0.00015,-0.00047000000000000004,-4e-05,2
6077,6404,-0.0003,-0.0001,-0.00021,5.9999999999999995e-05,-8e-05,0.00015,-0.00047000000000000004,-4e-05,2
6078,6405,-0.0003,-0.0001,-0.00021,5.9999999999999995e-05,-8e-05,0.00015,-0.00047000000000000004,-4e-05,2
6079,6406,-0.0003,-0.0001,-0.00021,5.9999999999999995e-05,-8e-05,0.00015,-0.00047000000000000004,-4e-05,2
6080,6407,-0.0003,-0.0001,-0.00021,5.9999999999999995e-05,-8e-05,0.00015,-0.00047000000000000004,-4e-05,2
6081,6408,-0.0003,-0.0001,-0.00021,5.9999999999999995e-05,-8e-05,0.00015,-0.00047000000000000004,-4e-05,2
6082,6409,-0.0003,-0.0001,-0.00021,5.9999999999999995e-05,-8e-05,0.00015,-0.00047000000000000004,-4e-05,2
6083,6410,-0.0003,-0.0001,-0.00021,5.9999999999999995e-05,-8e-05,0.00015,-0.00047000000000000004,-4e-05,2
6084,6411,-0.0003,-0.0001,-0.00021,5.9999999999999995e-05,-8e-05,0.00015,-0.00047000000000000004,-4e-05,2
6085,6412,-0.0003,-0.0001,-0.00021,5.9999999999999995e-05,-8e-05,0.00015,-0.00047000000000000004,-4e-05,2
6086,6413,8e-05,5.9999999999999995e-05,0.00014,0.00016,0.00013000000000000002,1e-05,-0.00047999999999999996,0.00043,2
