,time,channel1,channel2,channel3,channel4,channel5,channel6,channel7,channel8,class
3951,4089,0.00027,0.0001,0.0001,-0.00033,-7e-05,-5.9999999999999995e-05,0.00037999999999999997,0.00054,2
3952,4090,0.00027,0.0001,0.0001,-0.00033,-7e-05,-5.9999999999999995e-05,0.00037999999999999997,0.00054,2
3953,4091,-2e-05,5e-05,2e-05,-0.0007099999999999999,2.9999999999999997e-05,-4e-05,-9e-05,-5.9999999999999995e-05,2
3954,4092,-0.00016,-2.9999999999999997e-05,-0.00011,-0.00037,5e-05,5e-05,-0.00037,-0.00037999999999999997,2
3955,4093,-0.00016,-2.9999999999999997e-05,-0.00011,-0.00037,5e-05,5e-05,-0.00037,-0.00037999999999999997,2
3956,4094,-0.00016,-2.9999999999999997e-05,-0.00011,-0.00037,5e-05,5e-05,-0.00037,-0.00037999999999999997,2
3957,4095,-0.00016,-2.9999999999999997e-05,-0.00011,-0.00037,5e-05,5e-05,-0.00037,-0.00037999999999999997,2
3958,4096,-0.00016,-2.9999999999999997e-05,-0.00011,-0.00037,5e-05,5e-05,-0.00037,-0.00037999999999999997,2
3959,4097,-0.00016,-2.9999999999999997e-05,-0.00011,-0.00037,5e-05,5e-05,-0.00037,-0.00037999999999999997,2
3960,4098,-0.00016,-2.9999999999999997e-05,-0.00011,-0.00037,5e-05,5e-05,-0.00037,-0.00037999999999999997,2
3961,4099,-0.00016,-2.9999999999999997e-05,-0.00011,-0.00037,5e-05,5e-05,-0.00037,-0.00037999999999999997,2
3962,4100,-0.00016,-2.9999999999999997e-05,-0.00011,-0.00037,5e-05,5e-05,-0.00037,-0.00037999999999999997,2
3963,4101,-0.00016,-2.9999999999999997e-05,-0.00011,-0.00037,5e-05,5e-05,-0.00037,-0.00037999999999999997,2
3964,4102,-0.00016,-2.9999999999999997e-05,-0.00011,-0.00037,5e-05,5e-05,-0.00037,-0.00037999999999999997,2
3965,4103,-0.00016,-2.9999999999999997e-05,-0.00011,-0.00037,5e-05,5e-05,-0.00037,-0.00037999999999999997,2
3966,4104,-0.00016,-2.9999999999999997e-05,-0.00011,-0.00037,5e-05,5e-05,-0.00037,-0.00037999999999999997,2
3967,4105,0.00016,0.0,-9e-05,-8e-05,-7e-05,-0.00018,0.00011,0.00062,2
3968,4106,2e-05,5e-05,7e-05,-0.00014,-5e-05,2.9999999999999997e-05,0.0001,0.0001,2
3969,4107,2e-05,5e-05,7e-05,-0.00014,-5e-05,2.9999999999999997e-05,0.0001,0.0001,2
3970,4108,2e-05,5e-05,7e-05,-0.00014,-5e-05,2.9999999999999997e-05,0.0001,0.0001,2
3971,4109,2e-05,5e-05,7e-05,-0.00014,-5e-05,2.9999999999999997e-05,0.0001,0.0001,2
3972,4110,2e-05,5e-05,7e-05,-0.00014,-5e-05,2.9999999999999997e-05,0.0001,0.0001,2
3973,4111,2e-05,5e-05,7e-05,-0.00014,-5e-05,2.9999999999999997e-05,0.0001,0.0001,2
3974,4112,0.00021,0.00011999999999999999,0.00013000000000000002,-0.00011,-1e-05,5.9999999999999995e-05,0.00033,0.00026000000000000003,2
3975,4113,0.00021,0.00011999999999999999,0.00013000000000000002,-0.00011,-1e-05,5.9999999999999995e-05,0.00033,0.00026000000000000003,2
3976,4114,0.00021,0.00011999999999999999,0.00013000000000000002,-0.00011,-1e-05,5.9999999999999995e-05,0.00033,0.00026000000000000003,2
3977,4115,0.00021,0.00011999999999999999,0.00013000000000000002,-0.00011,-1e-05,5.9999999999999995e-05,0.00033,0.00026000000000000003,2
3978,4116,0.00021,0.00011999999999999999,0.00013000000000000002,-0.00011,-1e-05,5.9999999999999995e-05,0.00033,0.00026000000000000003,2
3979,4117,0.00021,0.00011999999999999999,0.00013000000000000002,-0.00011,-1e-05,5.9999999999999995e-05,0.00033,0.00026000000000000003,2
3980,4118,0.00021,0.00011999999999999999,0.00013000000000000002,-0.00011,-1e-05,5.9999999999999995e-05,0.00033,0.00026000000000000003,2
3981,4119,0.00021,0.00011999999999999999,0.00013000000000000002,-0.00011,-1e-05,5.9999999999999995e-05,0.00033,0.00026000000000000003,2
3982,4120,0.00021,0.00011999999999999999,0.00013000000000000002,-0.00011,-1e-05,5.9999999999999995e-05,0.00033,0.00026000000000000003,2
3983,4121,0.00021,0.00011999999999999999,0.00013000000000000002,-0.00011,-1e-05,5.9999999999999995e-05,0.00033,0.00026000000000000003,2
3984,4122,0.00021,0.00011999999999999999,0.00013000000000000002,-0.00011,-1e-05,5.9999999999999995e-05,0.00033,0.00026000000000000003,2
3985,4123,0.00021,0.00011999999999999999,0.00013000000000000002,-0.00011,-1e-05,5.9999999999999995e-05,0.00033,0.00026000000000000003,2
3986,4124,0.00021,0.00011999999999999999,0.00013000000000000002,-0.00011,-1e-05,5.9999999999999995e-05,0.00033,0.00026000000000000003,2
3987,4125,0.00021,0.00011999999999999999,0.00013000000000000002,-0.00011,-1e-05,5.9999999999999995e-05,0.00033,0.00026000000000000003,2
3988,4126,0.00021,0.00011999999999999999,0.00013000000000000002,-0.00011,-1e-05,5.9999999999999995e-05,0.00033,0.00026000000000000003,2
3989,4127,0.00021,0.00011999999999999999,0.00013000000000000002,-0.00011,-1e-05,5.9999999999999995e-05,0.00033,0.00026000000000000003,2
3990,4128,0.00021,0.00011999999999999999,0.00013000000000000002,-0.00011,-1e-05,5.9999999999999995e-05,0.00033,0.00026000000000000003,2
3991,4129,-9e-05,-5.9999999999999995e-05,-8e-05,0.00042,2e-05,-2.9999999999999997e-05,4e-05,0.00011,2
3992,4130,-0.00013000000000000002,-5e-05,-0.00013000000000000002,-0.00039,-4e-05,-7e-05,-0.00026000000000000003,-0.00033,2
3993,4131,-0.00013000000000000002,-5e-05,-0.00013000000000000002,-0.00039,-4e-05,-7e-05,-0.00026000000000000003,-0.00033,2
3994,4132,-0.00013000000000000002,-5e-05,-0.00013000000000000002,-0.00039,-4e-05,-7e-05,-0.00026000000000000003,-0.00033,2
3995,4133,-0.00013000000000000002,-5e-05,-0.00013000000000000002,-0.00039,-4e-05,-7e-05,-0.00026000000000000003,-0.00033,2
3996,4134,-0.00013000000000000002,-5e-05,-0.00013000000000000002,-0.00039,-4e-05,-7e-05,-0.00026000000000000003,-0.00033,2
3997,4135,-0.00013000000000000002,-5e-05,-0.00013000000000000002,-0.00039,-4e-05,-7e-05,-0.00026000000000000003,-0.00033,2
3998,4136,-0.00013000000000000002,-5e-05,-0.00013000000000000002,-0.00039,-4e-05,-7e-05,-0.00026000000000000003,-0.00033,2
3999,4138,-0.00013000000000000002,-5e-05,-0.00013000000000000002,-0.00039,-4e-05,-7e-05,-0.00026000000000000003,-0.00033,2
4000,4139,-0.00013000000000000002,-5e-05,-0.00013000000000000002,-0.00039,-4e-05,-7e-05,-0.00026000000000000003,-0.00033,2
4001,4140,-0.00013000000000000002,-5e-05,-0.00013000000000000002,-0.00039,-4e-05,-7e-05,-0.00026000000000000003,-0.00033,2
4002,4141,-0.00013000000000000002,-5e-05,-0.00013000000000000002,-0.00039,-4e-05,-7e-05,-0.00026000000000000003,-0.00033,2
4003,4142,-0.00013000000000000002,-5e-05,-0.00013000000000000002,-0.00039,-4e-05,-7e-05,-0.00026000000000000003,-0.00033,2
4004,4143,-0.00013000000000000002,-5e-05,-0.00013000000000000002,-0.00039,-4e-05,-7e-05,-0.00026000000000000003,-0.00033,2
4005,4144,-0.00013000000000000002,-5e-05,-0.00013000000000000002,-0.00039,-4e-05,-7e-05,-0.00026000000000000003,-0.00033,2
4006,4145,-0.00013000000000000002,-5e-05,-0.00013000000000000002,-0.00039,-4e-05,-7e-05,-0.00026000000000000003,-0.00033,2
4007,4146,-0.00013000000000000002,-5e-05,-0.00013000000000000002,-0.00039,-4e-05,-7e-05,-0.00026000000000000003,-0.00033,2
4008,4147,-0.00013000000000000002,-5e-05,-0.00013000000000000002,-0.00039,-4e-05,-7e-05,-0.00026000000000000003,-0.00033,2
4009,4148,-0.00013000000000000002,-5e-05,-0.00013000000000000002,-0.00039,-4e-05,-7e-05,-0.00026000000000000003,-0.00033,2
4010,4149,-0.00013000000000000002,-5e-05,-0.00013000000000000002,-0.00039,-4e-05,-7e-05,-0.00026000000000000003,-0.00033,2
4011,4150,-0.00013000000000000002,-5e-05,-0.00013000000000000002,-0.00039,-4e-05,-7e-05,-0.00026000000000000003,-0.00033,2
4012,4151,-7e-05,-2.9999999999999997e-05,0.0,-0.00014,-2.9999999999999997e-05,0.0,0.00018999999999999998,-0.0001,2
4013,4152,-2e-05,-5.9999999999999995e-05,2e-05,-1e-05,2e-05,-0.00011999999999999999,-0.00013000000000000002,0.00037,2
4014,4153,-2e-05,-5.9999999999999995e-05,2e-05,-1e-05,2e-05,-0.00011999999999999999,-0.00013000000000000002,0.00037,2
4015,4154,-2e-05,-5.9999999999999995e-05,2e-05,-1e-05,2e-05,-0.00011999999999999999,-0.00013000000000000002,0.00037,2
4016,4155,-2e-05,-5.9999999999999995e-05,2e-05,-1e-05,2e-05,-0.00011999999999999999,-0.00013000000000000002,0.00037,2
4017,4156,-2e-05,-5.9999999999999995e-05,2e-05,-1e-05,2e-05,-0.00011999999999999999,-0.00013000000000000002,0.00037,2
4018,4157,-2e-05,-5.9999999999999995e-05,2e-05,-1e-05,2e-05,-0.00011999999999999999,-0.00013000000000000002,0.00037,2
4019,4158,-2e-05,-5.9999999999999995e-05,2e-05,-1e-05,2e-05,-0.00011999999999999999,-0.00013000000000000002,0.00037,2
4020,4159,-2e-05,-5.9999999999999995e-05,2e-05,-1e-05,2e-05,-0.00011999999999999999,-0.00013000000000000002,0.00037,2
4021,4160,-2e-05,-5.9999999999999995e-05,2e-05,-1e-05,2e-05,-0.00011999999999999999,-0.00013000000000000002,0.00037,2
4022,4161,-2e-05,-5.9999999999999995e-05,2e-05,-1e-05,2e-05,-0.00011999999999999999,-0.00013000000000000002,0.00037,2
4023,4162,-2e-05,-5.9999999999999995e-05,2e-05,-1e-05,2e-05,-0.00011999999999999999,-0.00013000000000000002,0.00037,2
4024,4163,-2e-05,-5.9999999999999995e-05,2e-05,-1e-05,2e-05,-0.00011999999999999999,-0.00013000000000000002,0.00037,2
4025,4164,-2e-05,-5.9999999999999995e-05,2e-05,-1e-05,2e-05,-0.00011999999999999999,-0.00013000000000000002,0.00037,2
4026,4165,0.00016,2.9999999999999997e-05,0.0,-0.00021,1e-05,9e-05,-4e-05,0.00026000000000000003,2
4027,4166,0.00016,2.9999999999999997e-05,0.0,-0.00021,1e-05,9e-05,-4e-05,0.00026000000000000003,2
4028,4167,0.00016,2.9999999999999997e-05,0.0,-0.00021,1e-05,9e-05,-4e-05,0.00026000000000000003,2
4029,4168,0.00016,2.9999999999999997e-05,0.0,-0.00021,1e-05,9e-05,-4e-05,0.00026000000000000003,2
4030,4169,0.00016,2.9999999999999997e-05,0.0,-0.00021,1e-05,9e-05,-4e-05,0.00026000000000000003,2
4031,4170,0.00016,2.9999999999999997e-05,0.0,-0.00021,1e-05,9e-05,-4e-05,0.00026000000000000003,2
4032,4171,0.00016,2.9999999999999997e-05,0.0,-0.00021,1e-05,9e-05,-4e-05,0.00026000000000000003,2
4033,4172,0.0,0.0,-2e-05,-0.00035,5.9999999999999995e-05,-1e-05,0.00021,-0.00016,2
4034,4173,0.0,0.0,-2e-05,-0.00035,5.9999999999999995e-05,-1e-05,0.00021,-0.00016,2
4035,4174,0.0,0.0,-2e-05,-0.00035,5.9999999999999995e-05,-1e-05,0.00021,-0.00016,2
4036,4175,0.0,0.0,-2e-05,-0.00035,5.9999999999999995e-05,-1e-05,0.00021,-0.00016,2
4037,4176,0.0,0.0,-2e-05,-0.00035,5.9999999999999995e-05,-1e-05,0.00021,-0.00016,2
4038,4177,0.0,0.0,-2e-05,-0.00035,5.9999999999999995e-05,-1e-05,0.00021,-0.00016,2
4039,4178,0.0,0.0,-2e-05,-0.00035,5.9999999999999995e-05,-1e-05,0.00021,-0.00016,2
4040,4179,0.0,0.0,-2e-05,-0.00035,5.9999999999999995e-05,-1e-05,0.00021,-0.00016,2
4041,4180,0.0,0.0,-2e-05,-0.00035,5.9999999999999995e-05,-1e-05,0.00021,-0.00016,2
4042,4181,0.0,0.0,-2e-05,-0.00035,5.9999999999999995e-05,-1e-05,0.00021,-0.00016,2
4043,4182,0.0,0.0,-2e-05,-0.00035,5.9999999999999995e-05,-1e-05,0.00021,-0.00016,2
4044,4183,0.0,0.0,-2e-05,-0.00035,5.9999999999999995e-05,-1e-05,0.00021,-0.00016,2
4045,4184,0.0,0.0,-2e-05,-0.00035,5.9999999999999995e-05,-1e-05,0.00021,-0.00016,2
4046,4185,0.0,0.0,-2e-05,-0.00035,5.9999999999999995e-05,-1e-05,0.00021,-0.00016,2
4047,4186,0.0,0.0,-2e-05,-0.00035,5.9999999999999995e-05,-1e-05,0.00021,-0.00016,2
4048,4188,0.0,0.0,-2e-05,-0.00035,5.9999999999999995e-05,-1e-05,0.00021,-0.00016,2
4049,4189,0.0,0.0,-2e-05,-0.00035,5.9999999999999995e-05,-1e-05,0.00021,-0.00016,2
4050,4190,0.00018,-2e-05,2e-05,0.00031,5.9999999999999995e-05,-7e-05,5.9999999999999995e-05,0.0008900000000000001,2
4051,4191,0.00018,-2e-05,2e-05,0.00031,5.9999999999999995e-05,-7e-05,5.9999999999999995e-05,0.0008900000000000001,2
4052,4192,0.00018,-2e-05,2e-05,0.00031,5.9999999999999995e-05,-7e-05,5.9999999999999995e-05,0.0008900000000000001,2
4053,4193,-0.00011,-4e-05,-7e-05,-0.00023999999999999998,5e-05,-2.9999999999999997e-05,-0.00015,-0.00022,2
4054,4194,-0.00011,-4e-05,-7e-05,-0.00023999999999999998,5e-05,-2.9999999999999997e-05,-0.00015,-0.00022,2
4055,4195,-0.00011,-4e-05,-7e-05,-0.00023999999999999998,5e-05,-2.9999999999999997e-05,-0.00015,-0.00022,2
4056,4196,-0.00011,-4e-05,-7e-05,-0.00023999999999999998,5e-05,-2.9999999999999997e-05,-0.00015,-0.00022,2
4057,4197,-0.00011,-4e-05,-7e-05,-0.00023999999999999998,5e-05,-2.9999999999999997e-05,-0.00015,-0.00022,2
4058,4198,-0.00011,-4e-05,-7e-05,-0.00023999999999999998,5e-05,-2.9999999999999997e-05,-0.00015,-0.00022,2
4059,4199,-0.00011,-4e-05,-7e-05,-0.00023999999999999998,5e-05,-2.9999999999999997e-05,-0.00015,-0.00022,2
4060,4200,-0.00011,-4e-05,-7e-05,-0.00023999999999999998,5e-05,-2.9999999999999997e-05,-0.00015,-0.00022,2
4061,4201,-0.00011,-4e-05,-7e-05,-0.00023999999999999998,5e-05,-2.9999999999999997e-05,-0.00015,-0.00022,2
4062,4202,-0.00011,-4e-05,-7e-05,-0.00023999999999999998,5e-05,-2.9999999999999997e-05,-0.00015,-0.00022,2
4063,4203,-0.00011,-4e-05,-7e-05,-0.00023999999999999998,5e-05,-2.9999999999999997e-05,-0.00015,-0.00022,2
4064,4204,-0.00011,-4e-05,-7e-05,-0.00023999999999999998,5e-05,-2.9999999999999997e-05,-0.00015,-0.00022,2
4065,4205,2e-05,-5e-05,-1e-05,-0.00027,-1e-05,-0.00015,0.00016999999999999999,0.00013000000000000002,2
4066,4206,-8e-05,-1e-05,-2.9999999999999997e-05,0.0007099999999999999,4e-05,-5.9999999999999995e-05,-0.00016,2e-05,2
4067,4207,-8e-05,-1e-05,-2.9999999999999997e-05,0.0007099999999999999,4e-05,-5.9999999999999995e-05,-0.00016,2e-05,2
4068,4208,-8e-05,-1e-05,-2.9999999999999997e-05,0.0007099999999999999,4e-05,-5.9999999999999995e-05,-0.00016,2e-05,2
4069,4209,-8e-05,-1e-05,-2.9999999999999997e-05,0.0007099999999999999,4e-05,-5.9999999999999995e-05,-0.00016,2e-05,2
4070,4210,-8e-05,-1e-05,-2.9999999999999997e-05,0.0007099999999999999,4e-05,-5.9999999999999995e-05,-0.00016,2e-05,2
4071,4211,-8e-05,-1e-05,-2.9999999999999997e-05,0.0007099999999999999,4e-05,-5.9999999999999995e-05,-0.00016,2e-05,2
4072,4212,-8e-05,-1e-05,-2.9999999999999997e-05,0.0007099999999999999,4e-05,-5.9999999999999995e-05,-0.00016,2e-05,2
4073,4213,-8e-05,-1e-05,-2.9999999999999997e-05,0.0007099999999999999,4e-05,-5.9999999999999995e-05,-0.00016,2e-05,2
4074,4214,-8e-05,-1e-05,-2.9999999999999997e-05,0.0007099999999999999,4e-05,-5.9999999999999995e-05,-0.00016,2e-05,2
4075,4215,-8e-05,-1e-05,-2.9999999999999997e-05,0.0007099999999999999,4e-05,-5.9999999999999995e-05,-0.00016,2e-05,2
4076,4216,-8e-05,-1e-05,-2.9999999999999997e-05,0.0007099999999999999,4e-05,-5.9999999999999995e-05,-0.00016,2e-05,2
4077,4217,-7e-05,0.0,-1e-05,0.00035,0.00027,1e-05,-0.00022999999999999998,-2.9999999999999997e-05,2
4078,4218,-7e-05,0.0,-1e-05,0.00035,0.00027,1e-05,-0.00022999999999999998,-2.9999999999999997e-05,2
4079,4219,-7e-05,0.0,-1e-05,0.00035,0.00027,1e-05,-0.00022999999999999998,-2.9999999999999997e-05,2
4080,4220,-7e-05,0.0,-1e-05,0.00035,0.00027,1e-05,-0.00022999999999999998,-2.9999999999999997e-05,2
4081,4221,-7e-05,0.0,-1e-05,0.00035,0.00027,1e-05,-0.00022999999999999998,-2.9999999999999997e-05,2
4082,4222,-7e-05,0.0,-1e-05,0.00035,0.00027,1e-05,-0.00022999999999999998,-2.9999999999999997e-05,2
4083,4223,-7e-05,0.0,-1e-05,0.00035,0.00027,1e-05,-0.00022999999999999998,-2.9999999999999997e-05,2
4084,4224,-7e-05,0.0,-1e-05,0.00035,0.00027,1e-05,-0.00022999999999999998,-2.9999999999999997e-05,2
4085,4225,8e-05,5e-05,4e-05,-7e-05,0.00033,-8e-05,0.00013000000000000002,-0.00018999999999999998,2
4086,4226,8e-05,5e-05,4e-05,-7e-05,0.00033,-8e-05,0.00013000000000000002,-0.00018999999999999998,2
4087,4227,8e-05,5e-05,4e-05,-7e-05,0.00033,-8e-05,0.00013000000000000002,-0.00018999999999999998,2
4088,4228,8e-05,5e-05,4e-05,-7e-05,0.00033,-8e-05,0.00013000000000000002,-0.00018999999999999998,2
4089,4229,8e-05,5e-05,4e-05,-7e-05,0.00033,-8e-05,0.00013000000000000002,-0.00018999999999999998,2
4090,4230,8e-05,5e-05,4e-05,-7e-05,0.00033,-8e-05,0.00013000000000000002,-0.00018999999999999998,2
4091,4231,8e-05,5e-05,4e-05,-7e-05,0.00033,-8e-05,0.00013000000000000002,-0.00018999999999999998,2
4092,4232,8e-05,5e-05,4e-05,-7e-05,0.00033,-8e-05,0.00013000000000000002,-0.00018999999999999998,2
4093,4233,8e-05,5e-05,4e-05,-7e-05,0.00033,-8e-05,0.00013000000000000002,-0.00018999999999999998,2
4094,4234,8e-05,5e-05,4e-05,-7e-05,0.00033,-8e-05,0.00013000000000000002,-0.00018999999999999998,2
4095,4235,8e-05,5e-05,4e-05,-7e-05,0.00033,-8e-05,0.00013000000000000002,-0.00018999999999999998,2
4096,4236,8e-05,5e-05,4e-05,-7e-05,0.00033,-8e-05,0.00013000000000000002,-0.00018999999999999998,2
4097,4238,8e-05,5e-05,4e-05,-7e-05,0.00033,-8e-05,0.00013000000000000002,-0.00018999999999999998,2
4098,4239,8e-05,5e-05,4e-05,-7e-05,0.00033,-8e-05,0.00013000000000000002,-0.00018999999999999998,2
4099,4240,-4e-05,-1e-05,-0.00015,-0.00049,9e-05,-5e-05,-2e-05,-0.00037,2
4100,4241,-4e-05,-1e-05,-0.00015,-0.00049,9e-05,-5e-05,-2e-05,-0.00037,2
4101,4242,-4e-05,-1e-05,-0.00015,-0.00049,9e-05,-5e-05,-2e-05,-0.00037,2
4102,4243,-4e-05,-1e-05,-0.00015,-0.00049,9e-05,-5e-05,-2e-05,-0.00037,2
4103,4244,-4e-05,-1e-05,-0.00015,-0.00049,9e-05,-5e-05,-2e-05,-0.00037,2
4104,4245,-4e-05,-1e-05,-0.00015,-0.00049,9e-05,-5e-05,-2e-05,-0.00037,2
4105,4246,-4e-05,-1e-05,-0.00015,-0.00049,9e-05,-5e-05,-2e-05,-0.00037,2
4106,4247,-4e-05,-1e-05,-0.00015,-0.00049,9e-05,-5e-05,-2e-05,-0.00037,2
4107,4248,0.00011,2e-05,0.0,1e-05,0.00022,0.0002,0.00035,0.00036,2
4108,4249,0.00011,2e-05,0.0,1e-05,0.00022,0.0002,0.00035,0.00036,2
4109,4250,0.00011,2e-05,0.0,1e-05,0.00022,0.0002,0.00035,0.00036,2
4110,4251,0.00011,2e-05,0.0,1e-05,0.00022,0.0002,0.00035,0.00036,2
4111,4252,0.00011,2e-05,0.0,1e-05,0.00022,0.0002,0.00035,0.00036,2
4112,4253,0.00011,2e-05,0.0,1e-05,0.00022,0.0002,0.00035,0.00036,2
4113,4254,0.00011,2e-05,0.0,1e-05,0.00022,0.0002,0.00035,0.00036,2
4114,4255,0.00011,2e-05,0.0,1e-05,0.00022,0.0002,0.00035,0.00036,2
4115,4256,0.00011,2e-05,0.0,1e-05,0.00022,0.0002,0.00035,0.00036,2
4116,4257,0.00011,2e-05,0.0,1e-05,0.00022,0.0002,0.00035,0.00036,2
4117,4258,0.00011,2e-05,0.0,1e-05,0.00022,0.0002,0.00035,0.00036,2
4118,4259,0.00011,2e-05,0.0,1e-05,0.00022,0.0002,0.00035,0.00036,2
4119,4260,0.00011,2e-05,0.0,1e-05,0.00022,0.0002,0.00035,0.00036,2
4120,4261,0.00011,2e-05,0.0,1e-05,0.00022,0.0002,0.00035,0.00036,2
4121,4262,0.00011,2e-05,0.0,1e-05,0.00022,0.0002,0.00035,0.00036,2
4122,4263,-0.0001,-5e-05,-8e-05,-0.0004,-2e-05,-0.00014,-0.0002,-0.00011,2
4123,4264,-0.0001,-5e-05,-8e-05,-0.0004,-2e-05,-0.00014,-0.0002,-0.00011,2
4124,4265,-0.0001,-5e-05,-8e-05,-0.0004,-2e-05,-0.00014,-0.0002,-0.00011,2
4125,4266,-0.0001,-5e-05,-8e-05,-0.0004,-2e-05,-0.00014,-0.0002,-0.00011,2
4126,4267,-0.0001,-5e-05,-8e-05,-0.0004,-2e-05,-0.00014,-0.0002,-0.00011,2
4127,4268,-0.0001,-5e-05,-8e-05,-0.0004,-2e-05,-0.00014,-0.0002,-0.00011,2
4128,4269,-0.0001,-5e-05,-8e-05,-0.0004,-2e-05,-0.00014,-0.0002,-0.00011,2
4129,4270,-0.0001,-5e-05,-8e-05,-0.0004,-2e-05,-0.00014,-0.0002,-0.00011,2
4130,4271,-0.0001,-5e-05,-8e-05,-0.0004,-2e-05,-0.00014,-0.0002,-0.00011,2
4131,4272,-0.0001,-5e-05,-8e-05,-0.0004,-2e-05,-0.00014,-0.0002,-0.00011,2
4132,4273,-0.0001,-5e-05,-8e-05,-0.0004,-2e-05,-0.00014,-0.0002,-0.00011,2
4133,4274,-0.0001,-5e-05,-8e-05,-0.0004,-2e-05,-0.00014,-0.0002,-0.00011,2
4134,4275,-0.0001,-5e-05,-8e-05,-0.0004,-2e-05,-0.00014,-0.0002,-0.00011,2
4135,4276,-0.0001,-5e-05,-8e-05,-0.0004,-2e-05,-0.00014,-0.0002,-0.00011,2
4136,4277,-4e-05,-1e-05,7e-05,-9e-05,0.00022,0.0,-0.00021,-0.00045999999999999996,2
4137,4278,-4e-05,-1e-05,7e-05,-9e-05,0.00022,0.0,-0.00021,-0.00045999999999999996,2
4138,4279,-4e-05,-1e-05,7e-05,-9e-05,0.00022,0.0,-0.00021,-0.00045999999999999996,2
4139,4280,-4e-05,-1e-05,7e-05,-9e-05,0.00022,0.0,-0.00021,-0.00045999999999999996,2
4140,4281,-4e-05,-1e-05,7e-05,-9e-05,0.00022,0.0,-0.00021,-0.00045999999999999996,2
4141,4282,-4e-05,-1e-05,7e-05,-9e-05,0.00022,0.0,-0.00021,-0.00045999999999999996,2
4142,4283,-4e-05,-1e-05,7e-05,-9e-05,0.00022,0.0,-0.00021,-0.00045999999999999996,2
4143,4284,-4e-05,-1e-05,7e-05,-9e-05,0.00022,0.0,-0.00021,-0.00045999999999999996,2
4144,4285,-4e-05,-1e-05,7e-05,-9e-05,0.00022,0.0,-0.00021,-0.00045999999999999996,2
4145,4286,-4e-05,-1e-05,7e-05,-9e-05,0.00022,0.0,-0.00021,-0.00045999999999999996,2
4146,4288,-4e-05,-1e-05,7e-05,-9e-05,0.00022,0.0,-0.00021,-0.00045999999999999996,2
4147,4289,-4e-05,-1e-05,7e-05,-9e-05,0.00022,0.0,-0.00021,-0.00045999999999999996,2
4148,4290,-4e-05,-1e-05,7e-05,-9e-05,0.00022,0.0,-0.00021,-0.00045999999999999996,2
4149,4291,-4e-05,-1e-05,7e-05,-9e-05,0.00022,0.0,-0.00021,-0.00045999999999999996,2
4150,4292,-4e-05,-1e-05,7e-05,-9e-05,0.00022,0.0,-0.00021,-0.00045999999999999996,2
4151,4293,5.9999999999999995e-05,2e-05,9e-05,-1e-05,0.00011,-2.9999999999999997e-05,-2.9999999999999997e-05,0.00011999999999999999,2
4152,4294,5.9999999999999995e-05,2e-05,9e-05,-1e-05,0.00011,-2.9999999999999997e-05,-2.9999999999999997e-05,0.00011999999999999999,2
4153,4295,5.9999999999999995e-05,2e-05,9e-05,-1e-05,0.00011,-2.9999999999999997e-05,-2.9999999999999997e-05,0.00011999999999999999,2
4154,4296,5.9999999999999995e-05,2e-05,9e-05,-1e-05,0.00011,-2.9999999999999997e-05,-2.9999999999999997e-05,0.00011999999999999999,2
4155,4297,5.9999999999999995e-05,2e-05,9e-05,-1e-05,0.00011,-2.9999999999999997e-05,-2.9999999999999997e-05,0.00011999999999999999,2
4156,4298,5.9999999999999995e-05,2e-05,9e-05,-1e-05,0.00011,-2.9999999999999997e-05,-2.9999999999999997e-05,0.00011999999999999999,2
4157,4299,-0.0001,2e-05,8e-05,0.00064,-0.00033,1e-05,-0.00014,-0.00025,2
4158,4300,-0.0001,2e-05,8e-05,0.00064,-0.00033,1e-05,-0.00014,-0.00025,2
4159,4301,-0.0001,2e-05,8e-05,0.00064,-0.00033,1e-05,-0.00014,-0.00025,2
4160,4302,-0.0001,2e-05,8e-05,0.00064,-0.00033,1e-05,-0.00014,-0.00025,2
4161,4303,-0.0001,2e-05,8e-05,0.00064,-0.00033,1e-05,-0.00014,-0.00025,2
4162,4304,-0.0001,2e-05,8e-05,0.00064,-0.00033,1e-05,-0.00014,-0.00025,2
4163,4305,-0.0001,2e-05,8e-05,0.00064,-0.00033,1e-05,-0.00014,-0.00025,2
4164,4306,-0.0001,2e-05,8e-05,0.00064,-0.00033,1e-05,-0.00014,-0.00025,2
4165,4307,-0.0001,2e-05,8e-05,0.00064,-0.00033,1e-05,-0.00014,-0.00025,2
4166,4308,-4e-05,1e-05,-2e-05,-8e-05,-0.0008900000000000001,4e-05,2.9999999999999997e-05,-0.00014,2
4167,4309,-4e-05,1e-05,-2e-05,-8e-05,-0.0008900000000000001,4e-05,2.9999999999999997e-05,-0.00014,2
4168,4310,-4e-05,1e-05,-2e-05,-8e-05,-0.0008900000000000001,4e-05,2.9999999999999997e-05,-0.00014,2
4169,4311,-4e-05,1e-05,-2e-05,-8e-05,-0.0008900000000000001,4e-05,2.9999999999999997e-05,-0.00014,2
4170,4312,-4e-05,1e-05,-2e-05,-8e-05,-0.0008900000000000001,4e-05,2.9999999999999997e-05,-0.00014,2
4171,4313,-4e-05,1e-05,-2e-05,-8e-05,-0.0008900000000000001,4e-05,2.9999999999999997e-05,-0.00014,2
4172,4314,-4e-05,1e-05,-2e-05,-8e-05,-0.0008900000000000001,4e-05,2.9999999999999997e-05,-0.00014,2
4173,4315,-4e-05,1e-05,-2e-05,-8e-05,-0.0008900000000000001,4e-05,2.9999999999999997e-05,-0.00014,2
4174,4316,-4e-05,1e-05,-2e-05,-8e-05,-0.0008900000000000001,4e-05,2.9999999999999997e-05,-0.00014,2
4175,4317,-4e-05,1e-05,-2e-05,-8e-05,-0.0008900000000000001,4e-05,2.9999999999999997e-05,-0.00014,2
4176,4318,-4e-05,1e-05,-2e-05,-8e-05,-0.0008900000000000001,4e-05,2.9999999999999997e-05,-0.00014,2
4177,4319,-4e-05,1e-05,-2e-05,-8e-05,-0.0008900000000000001,4e-05,2.9999999999999997e-05,-0.00014,2
4178,4320,-4e-05,1e-05,-2e-05,-8e-05,-0.0008900000000000001,4e-05,2.9999999999999997e-05,-0.00014,2
4179,4321,-4e-05,1e-05,-2e-05,-8e-05,-0.0008900000000000001,4e-05,2.9999999999999997e-05,-0.00014,2
4180,4322,-4e-05,1e-05,-2e-05,-8e-05,-0.0008900000000000001,4e-05,2.9999999999999997e-05,-0.00014,2
4181,4323,-7e-05,0.0,0.0,-0.00018,-0.00043,-4e-05,-7e-05,-0.00015,2
4182,4324,0.0,0.0,5.9999999999999995e-05,-0.00016999999999999999,-0.00035,-7e-05,-2.9999999999999997e-05,7e-05,2
4183,4325,0.0,0.0,5.9999999999999995e-05,-0.00016999999999999999,-0.00035,-7e-05,-2.9999999999999997e-05,7e-05,2
4184,4326,0.0,0.0,5.9999999999999995e-05,-0.00016999999999999999,-0.00035,-7e-05,-2.9999999999999997e-05,7e-05,2
4185,4327,0.0,0.0,5.9999999999999995e-05,-0.00016999999999999999,-0.00035,-7e-05,-2.9999999999999997e-05,7e-05,2
4186,4328,0.0,0.0,5.9999999999999995e-05,-0.00016999999999999999,-0.00035,-7e-05,-2.9999999999999997e-05,7e-05,2
4187,4329,0.0,0.0,5.9999999999999995e-05,-0.00016999999999999999,-0.00035,-7e-05,-2.9999999999999997e-05,7e-05,2
4188,4330,0.0,0.0,5.9999999999999995e-05,-0.00016999999999999999,-0.00035,-7e-05,-2.9999999999999997e-05,7e-05,2
4189,4331,0.0,0.0,5.9999999999999995e-05,-0.00016999999999999999,-0.00035,-7e-05,-2.9999999999999997e-05,7e-05,2
4190,4332,0.0,0.0,5.9999999999999995e-05,-0.00016999999999999999,-0.00035,-7e-05,-2.9999999999999997e-05,7e-05,2
4191,4333,0.0,0.0,5.9999999999999995e-05,-0.00016999999999999999,-0.00035,-7e-05,-2.9999999999999997e-05,7e-05,2
4192,4334,0.0,0.0,5.9999999999999995e-05,-0.00016999999999999999,-0.00035,-7e-05,-2.9999999999999997e-05,7e-05,2
4193,4335,0.0,0.0,5.9999999999999995e-05,-0.00016999999999999999,-0.00035,-7e-05,-2.9999999999999997e-05,7e-05,2
4194,4336,0.0,0.0,5.9999999999999995e-05,-0.00016999999999999999,-0.00035,-7e-05,-2.9999999999999997e-05,7e-05,2
4195,4339,0.0,0.0,1e-05,0.0001,-0.00066,-4e-05,7e-05,8e-05,2
4196,4340,0.0,0.0,1e-05,0.0001,-0.00066,-4e-05,7e-05,8e-05,2
4197,4341,0.0,0.0,1e-05,0.0001,-0.00066,-4e-05,7e-05,8e-05,2
4198,4342,0.0,0.0,1e-05,0.0001,-0.00066,-4e-05,7e-05,8e-05,2
4199,4343,0.0,0.0,1e-05,0.0001,-0.00066,-4e-05,7e-05,8e-05,2
4200,4344,0.0,0.0,1e-05,0.0001,-0.00066,-4e-05,7e-05,8e-05,2
4201,4345,0.0,0.0,1e-05,0.0001,-0.00066,-4e-05,7e-05,8e-05,2
4202,4346,0.0,0.0,1e-05,0.0001,-0.00066,-4e-05,7e-05,8e-05,2
4203,4347,0.0,0.0,1e-05,0.0001,-0.00066,-4e-05,7e-05,8e-05,2
4204,4348,0.0,0.0,1e-05,0.0001,-0.00066,-4e-05,7e-05,8e-05,2
4205,4349,0.0,0.0,1e-05,0.0001,-0.00066,-4e-05,7e-05,8e-05,2
4206,4350,0.0,0.0,1e-05,0.0001,-0.00066,-4e-05,7e-05,8e-05,2
4207,4351,0.0,0.0,1e-05,0.0001,-0.00066,-4e-05,7e-05,8e-05,2
4208,4352,0.0,0.0,1e-05,0.0001,-0.00066,-4e-05,7e-05,8e-05,2
4209,4353,-1e-05,-5e-05,-7e-05,-0.0001,-0.00086,2.9999999999999997e-05,0.00013000000000000002,-0.00011999999999999999,2
4210,4354,-1e-05,-5e-05,-7e-05,-0.0001,-0.00086,2.9999999999999997e-05,0.00013000000000000002,-0.00011999999999999999,2
4211,4355,-1e-05,-5e-05,-7e-05,-0.0001,-0.00086,2.9999999999999997e-05,0.00013000000000000002,-0.00011999999999999999,2
4212,4356,-1e-05,-5e-05,-7e-05,-0.0001,-0.00086,2.9999999999999997e-05,0.00013000000000000002,-0.00011999999999999999,2
4213,4357,-1e-05,-5e-05,-7e-05,-0.0001,-0.00086,2.9999999999999997e-05,0.00013000000000000002,-0.00011999999999999999,2
4214,4358,-1e-05,-5e-05,-7e-05,-0.0001,-0.00086,2.9999999999999997e-05,0.00013000000000000002,-0.00011999999999999999,2
4215,4359,1e-05,-1e-05,5.9999999999999995e-05,0.00018999999999999998,-0.0007099999999999999,-0.00011999999999999999,0.00011999999999999999,-5.9999999999999995e-05,2
4216,4360,2.9999999999999997e-05,0.0,-1e-05,-0.0003,-0.00037999999999999997,9e-05,7e-05,2e-05,2
4217,4361,2.9999999999999997e-05,0.0,-1e-05,-0.0003,-0.00037999999999999997,9e-05,7e-05,2e-05,2
4218,4362,2.9999999999999997e-05,0.0,-1e-05,-0.0003,-0.00037999999999999997,9e-05,7e-05,2e-05,2
4219,4363,2.9999999999999997e-05,0.0,-1e-05,-0.0003,-0.00037999999999999997,9e-05,7e-05,2e-05,2
4220,4364,2.9999999999999997e-05,0.0,-1e-05,-0.0003,-0.00037999999999999997,9e-05,7e-05,2e-05,2
4221,4365,2.9999999999999997e-05,0.0,-1e-05,-0.0003,-0.00037999999999999997,9e-05,7e-05,2e-05,2
4222,4366,2.9999999999999997e-05,0.0,-1e-05,-0.0003,-0.00037999999999999997,9e-05,7e-05,2e-05,2
4223,4367,2.9999999999999997e-05,0.0,-1e-05,-0.0003,-0.00037999999999999997,9e-05,7e-05,2e-05,2
4224,4368,-5.9999999999999995e-05,-2.9999999999999997e-05,4e-05,0.00079,8e-05,-0.00016,-0.00047000000000000004,-0.00042,2
4225,4369,-5.9999999999999995e-05,-2.9999999999999997e-05,4e-05,0.00079,8e-05,-0.00016,-0.00047000000000000004,-0.00042,2
4226,4370,-5.9999999999999995e-05,-2.9999999999999997e-05,4e-05,0.00079,8e-05,-0.00016,-0.00047000000000000004,-0.00042,2
4227,4371,-5.9999999999999995e-05,-2.9999999999999997e-05,4e-05,0.00079,8e-05,-0.00016,-0.00047000000000000004,-0.00042,2
4228,4372,-5.9999999999999995e-05,-2.9999999999999997e-05,4e-05,0.00079,8e-05,-0.00016,-0.00047000000000000004,-0.00042,2
4229,4373,-5.9999999999999995e-05,-2.9999999999999997e-05,4e-05,0.00079,8e-05,-0.00016,-0.00047000000000000004,-0.00042,2
4230,4374,-5.9999999999999995e-05,-2.9999999999999997e-05,4e-05,0.00079,8e-05,-0.00016,-0.00047000000000000004,-0.00042,2
4231,4375,-5.9999999999999995e-05,-2.9999999999999997e-05,4e-05,0.00079,8e-05,-0.00016,-0.00047000000000000004,-0.00042,2
4232,4376,-5.9999999999999995e-05,-2.9999999999999997e-05,4e-05,0.00079,8e-05,-0.00016,-0.00047000000000000004,-0.00042,2
4233,4377,-5.9999999999999995e-05,-2.9999999999999997e-05,4e-05,0.00079,8e-05,-0.00016,-0.00047000000000000004,-0.00042,2
4234,4378,-5.9999999999999995e-05,-2.9999999999999997e-05,4e-05,0.00079,8e-05,-0.00016,-0.00047000000000000004,-0.00042,2
4235,4379,-5.9999999999999995e-05,-2.9999999999999997e-05,4e-05,0.00079,8e-05,-0.00016,-0.00047000000000000004,-0.00042,2
4236,4380,-5.9999999999999995e-05,-2.9999999999999997e-05,4e-05,0.00079,8e-05,-0.00016,-0.00047000000000000004,-0.00042,2
4237,4381,-5.9999999999999995e-05,-2.9999999999999997e-05,4e-05,0.00079,8e-05,-0.00016,-0.00047000000000000004,-0.00042,2
4238,4382,-0.00011,-2.9999999999999997e-05,-1e-05,-0.00044,0.00022999999999999998,0.00016,0.00013000000000000002,-0.00037999999999999997,2
4239,4383,-0.00016999999999999999,-1e-05,5.9999999999999995e-05,5e-05,-0.00011999999999999999,2e-05,9e-05,-0.00018,2
4240,4384,-0.00016999999999999999,-1e-05,5.9999999999999995e-05,5e-05,-0.00011999999999999999,2e-05,9e-05,-0.00018,2
4241,4385,-0.00016999999999999999,-1e-05,5.9999999999999995e-05,5e-05,-0.00011999999999999999,2e-05,9e-05,-0.00018,2
4242,4386,-0.00016999999999999999,-1e-05,5.9999999999999995e-05,5e-05,-0.00011999999999999999,2e-05,9e-05,-0.00018,2
4243,4388,-0.00016999999999999999,-1e-05,5.9999999999999995e-05,5e-05,-0.00011999999999999999,2e-05,9e-05,-0.00018,2
4244,4389,-0.00016999999999999999,-1e-05,5.9999999999999995e-05,5e-05,-0.00011999999999999999,2e-05,9e-05,-0.00018,2
4245,4390,-0.00016999999999999999,-1e-05,5.9999999999999995e-05,5e-05,-0.00011999999999999999,2e-05,9e-05,-0.00018,2
4246,4391,-0.00016999999999999999,-1e-05,5.9999999999999995e-05,5e-05,-0.00011999999999999999,2e-05,9e-05,-0.00018,2
4247,4392,-0.00016999999999999999,-1e-05,5.9999999999999995e-05,5e-05,-0.00011999999999999999,2e-05,9e-05,-0.00018,2
4248,4393,-0.00016999999999999999,-1e-05,5.9999999999999995e-05,5e-05,-0.00011999999999999999,2e-05,9e-05,-0.00018,2
4249,4394,-0.00016999999999999999,-1e-05,5.9999999999999995e-05,5e-05,-0.00011999999999999999,2e-05,9e-05,-0.00018,2
4250,4395,-0.00016999999999999999,-1e-05,5.9999999999999995e-05,5e-05,-0.00011999999999999999,2e-05,9e-05,-0.00018,2
4251,4396,-0.00016999999999999999,-1e-05,5.9999999999999995e-05,5e-05,-0.00011999999999999999,2e-05,9e-05,-0.00018,2
4252,4397,-0.00016999999999999999,-1e-05,5.9999999999999995e-05,5e-05,-0.00011999999999999999,2e-05,9e-05,-0.00018,2
4253,4398,-0.00016999999999999999,-1e-05,5.9999999999999995e-05,5e-05,-0.00011999999999999999,2e-05,9e-05,-0.00018,2
4254,4399,-0.00016999999999999999,-1e-05,5.9999999999999995e-05,5e-05,-0.00011999999999999999,2e-05,9e-05,-0.00018,2
4255,4400,-0.00016999999999999999,-1e-05,5.9999999999999995e-05,5e-05,-0.00011999999999999999,2e-05,9e-05,-0.00018,2
4256,4401,-0.00016999999999999999,-1e-05,5.9999999999999995e-05,5e-05,-0.00011999999999999999,2e-05,9e-05,-0.00018,2
4257,4402,-0.00016999999999999999,-1e-05,5.9999999999999995e-05,5e-05,-0.00011999999999999999,2e-05,9e-05,-0.00018,2
4258,4403,-0.00016999999999999999,-1e-05,5.9999999999999995e-05,5e-05,-0.00011999999999999999,2e-05,9e-05,-0.00018,2
4259,4404,-0.00016999999999999999,-1e-05,5.9999999999999995e-05,5e-05,-0.00011999999999999999,2e-05,9e-05,-0.00018,2
4260,4405,-0.00016999999999999999,-1e-05,5.9999999999999995e-05,5e-05,-0.00011999999999999999,2e-05,9e-05,-0.00018,2
4261,4406,7e-05,1e-05,7e-05,0.00022999999999999998,4e-05,4e-05,-8e-05,2e-05,2
4262,4407,-5e-05,-2.9999999999999997e-05,-9e-05,-0.00023999999999999998,-2e-05,-2.9999999999999997e-05,9e-05,5.9999999999999995e-05,2
4263,4408,-5e-05,-2.9999999999999997e-05,-9e-05,-0.00023999999999999998,-2e-05,-2.9999999999999997e-05,9e-05,5.9999999999999995e-05,2
4264,4409,-5e-05,-2.9999999999999997e-05,-9e-05,-0.00023999999999999998,-2e-05,-2.9999999999999997e-05,9e-05,5.9999999999999995e-05,2
4265,4410,-5e-05,-2.9999999999999997e-05,-9e-05,-0.00023999999999999998,-2e-05,-2.9999999999999997e-05,9e-05,5.9999999999999995e-05,2
4266,4411,-5e-05,-2.9999999999999997e-05,-9e-05,-0.00023999999999999998,-2e-05,-2.9999999999999997e-05,9e-05,5.9999999999999995e-05,2
4267,4412,-5e-05,-2.9999999999999997e-05,-9e-05,-0.00023999999999999998,-2e-05,-2.9999999999999997e-05,9e-05,5.9999999999999995e-05,2
4268,4413,-5e-05,-2.9999999999999997e-05,-9e-05,-0.00023999999999999998,-2e-05,-2.9999999999999997e-05,9e-05,5.9999999999999995e-05,2
4269,4414,-5e-05,-2.9999999999999997e-05,-9e-05,-0.00023999999999999998,-2e-05,-2.9999999999999997e-05,9e-05,5.9999999999999995e-05,2
4270,4415,-5e-05,-2.9999999999999997e-05,-9e-05,-0.00023999999999999998,-2e-05,-2.9999999999999997e-05,9e-05,5.9999999999999995e-05,2
4271,4416,-5e-05,-2.9999999999999997e-05,-9e-05,-0.00023999999999999998,-2e-05,-2.9999999999999997e-05,9e-05,5.9999999999999995e-05,2
4272,4417,-5e-05,-2.9999999999999997e-05,-9e-05,-0.00023999999999999998,-2e-05,-2.9999999999999997e-05,9e-05,5.9999999999999995e-05,2
4273,4418,-5e-05,-2.9999999999999997e-05,-9e-05,-0.00023999999999999998,-2e-05,-2.9999999999999997e-05,9e-05,5.9999999999999995e-05,2
4274,4419,0.00011,1e-05,9e-05,0.00015,-0.0001,5.9999999999999995e-05,-9e-05,0.00044,2
4275,4420,0.00011,1e-05,9e-05,0.00015,-0.0001,5.9999999999999995e-05,-9e-05,0.00044,2
4276,4421,0.00011,1e-05,9e-05,0.00015,-0.0001,5.9999999999999995e-05,-9e-05,0.00044,2
4277,4422,0.00011,1e-05,9e-05,0.00015,-0.0001,5.9999999999999995e-05,-9e-05,0.00044,2
4278,4423,0.00011,1e-05,9e-05,0.00015,-0.0001,5.9999999999999995e-05,-9e-05,0.00044,2
4279,4424,0.00011,1e-05,9e-05,0.00015,-0.0001,5.9999999999999995e-05,-9e-05,0.00044,2
4280,4425,0.00011,1e-05,9e-05,0.00015,-0.0001,5.9999999999999995e-05,-9e-05,0.00044,2
4281,4426,0.00011,1e-05,9e-05,0.00015,-0.0001,5.9999999999999995e-05,-9e-05,0.00044,2
4282,4427,0.00011,1e-05,9e-05,0.00015,-0.0001,5.9999999999999995e-05,-9e-05,0.00044,2
4283,4428,0.0,0.0,-4e-05,0.0,0.0,-9e-05,-0.00013000000000000002,2.9999999999999997e-05,2
4284,4429,0.0,0.0,-4e-05,0.0,0.0,-9e-05,-0.00013000000000000002,2.9999999999999997e-05,2
4285,4430,0.0,0.0,-4e-05,0.0,0.0,-9e-05,-0.00013000000000000002,2.9999999999999997e-05,2
4286,4431,0.0,0.0,-4e-05,0.0,0.0,-9e-05,-0.00013000000000000002,2.9999999999999997e-05,2
4287,4432,0.0,0.0,-4e-05,0.0,0.0,-9e-05,-0.00013000000000000002,2.9999999999999997e-05,2
4288,4433,0.0,0.0,-4e-05,0.0,0.0,-9e-05,-0.00013000000000000002,2.9999999999999997e-05,2
4289,4434,0.0,0.0,-4e-05,0.0,0.0,-9e-05,-0.00013000000000000002,2.9999999999999997e-05,2
4290,4435,0.0,0.0,-4e-05,0.0,0.0,-9e-05,-0.00013000000000000002,2.9999999999999997e-05,2
4291,4436,0.0,0.0,-4e-05,0.0,0.0,-9e-05,-0.00013000000000000002,2.9999999999999997e-05,2
4292,4438,0.0,0.0,-4e-05,0.0,0.0,-9e-05,-0.00013000000000000002,2.9999999999999997e-05,2
4293,4439,0.0,0.0,-4e-05,0.0,0.0,-9e-05,-0.00013000000000000002,2.9999999999999997e-05,2
4294,4440,0.0,0.0,-4e-05,0.0,0.0,-9e-05,-0.00013000000000000002,2.9999999999999997e-05,2
4295,4441,0.0,0.0,-4e-05,0.0,0.0,-9e-05,-0.00013000000000000002,2.9999999999999997e-05,2
4296,4442,0.0,0.0,-4e-05,0.0,0.0,-9e-05,-0.00013000000000000002,2.9999999999999997e-05,2
4297,4443,-4e-05,-9e-05,-0.00016,0.00014,1e-05,9e-05,-0.00022,5.9999999999999995e-05,2
4298,4444,-4e-05,-9e-05,-0.00016,0.00014,1e-05,9e-05,-0.00022,5.9999999999999995e-05,2
4299,4445,-4e-05,-9e-05,-0.00016,0.00014,1e-05,9e-05,-0.00022,5.9999999999999995e-05,2
4300,4446,-4e-05,-9e-05,-0.00016,0.00014,1e-05,9e-05,-0.00022,5.9999999999999995e-05,2
4301,4447,-4e-05,-9e-05,-0.00016,0.00014,1e-05,9e-05,-0.00022,5.9999999999999995e-05,2
4302,4448,-4e-05,-9e-05,-0.00016,0.00014,1e-05,9e-05,-0.00022,5.9999999999999995e-05,2
4303,4449,-4e-05,-9e-05,-0.00016,0.00014,1e-05,9e-05,-0.00022,5.9999999999999995e-05,2
4304,4450,-4e-05,-9e-05,-0.00016,0.00014,1e-05,9e-05,-0.00022,5.9999999999999995e-05,2
4305,4451,-4e-05,-9e-05,-0.00016,0.00014,1e-05,9e-05,-0.00022,5.9999999999999995e-05,2
4306,4452,-4e-05,-9e-05,-0.00016,0.00014,1e-05,9e-05,-0.00022,5.9999999999999995e-05,2
4307,4453,-4e-05,-9e-05,-0.00016,0.00014,1e-05,9e-05,-0.00022,5.9999999999999995e-05,2
4308,4454,-4e-05,-9e-05,-0.00016,0.00014,1e-05,9e-05,-0.00022,5.9999999999999995e-05,2
4309,4455,-4e-05,-9e-05,-0.00016,0.00014,1e-05,9e-05,-0.00022,5.9999999999999995e-05,2
4310,4456,-4e-05,-9e-05,-0.00016,0.00014,1e-05,9e-05,-0.00022,5.9999999999999995e-05,2
4311,4457,0.0,1e-05,1e-05,-0.00022999999999999998,-2e-05,-4e-05,1e-05,-0.00018,2
4312,4458,0.0,1e-05,1e-05,-0.00022999999999999998,-2e-05,-4e-05,1e-05,-0.00018,2
4313,4459,0.0,1e-05,1e-05,-0.00022999999999999998,-2e-05,-4e-05,1e-05,-0.00018,2
4314,4460,0.0,1e-05,1e-05,-0.00022999999999999998,-2e-05,-4e-05,1e-05,-0.00018,2
4315,4461,0.0,1e-05,1e-05,-0.00022999999999999998,-2e-05,-4e-05,1e-05,-0.00018,2
4316,4462,0.0,1e-05,1e-05,-0.00022999999999999998,-2e-05,-4e-05,1e-05,-0.00018,2
4317,4463,0.0,1e-05,1e-05,-0.00022999999999999998,-2e-05,-4e-05,1e-05,-0.00018,2
4318,4464,0.0,1e-05,1e-05,-0.00022999999999999998,-2e-05,-4e-05,1e-05,-0.00018,2
4319,4465,5.9999999999999995e-05,2.9999999999999997e-05,8e-05,-0.00044,2e-05,0.00011,0.00055,0.0002,2
4320,4466,5.9999999999999995e-05,2.9999999999999997e-05,8e-05,-0.00044,2e-05,0.00011,0.00055,0.0002,2
4321,4467,5.9999999999999995e-05,2.9999999999999997e-05,8e-05,-0.00044,2e-05,0.00011,0.00055,0.0002,2
4322,4468,5.9999999999999995e-05,2.9999999999999997e-05,8e-05,-0.00044,2e-05,0.00011,0.00055,0.0002,2
4323,4469,5.9999999999999995e-05,2.9999999999999997e-05,8e-05,-0.00044,2e-05,0.00011,0.00055,0.0002,2
4324,4470,5.9999999999999995e-05,2.9999999999999997e-05,8e-05,-0.00044,2e-05,0.00011,0.00055,0.0002,2
4325,4471,5.9999999999999995e-05,2.9999999999999997e-05,8e-05,-0.00044,2e-05,0.00011,0.00055,0.0002,2
4326,4472,5.9999999999999995e-05,2.9999999999999997e-05,8e-05,-0.00044,2e-05,0.00011,0.00055,0.0002,2
4327,4473,5.9999999999999995e-05,2.9999999999999997e-05,8e-05,-0.00044,2e-05,0.00011,0.00055,0.0002,2
4328,4474,5.9999999999999995e-05,2.9999999999999997e-05,8e-05,-0.00044,2e-05,0.00011,0.00055,0.0002,2
4329,4475,5.9999999999999995e-05,2.9999999999999997e-05,8e-05,-0.00044,2e-05,0.00011,0.00055,0.0002,2
4330,4476,5.9999999999999995e-05,2.9999999999999997e-05,8e-05,-0.00044,2e-05,0.00011,0.00055,0.0002,2
4331,4477,5.9999999999999995e-05,2.9999999999999997e-05,8e-05,-0.00044,2e-05,0.00011,0.00055,0.0002,2
4332,4478,5.9999999999999995e-05,2.9999999999999997e-05,8e-05,-0.00044,2e-05,0.00011,0.00055,0.0002,2
4333,4479,2.9999999999999997e-05,1e-05,2.9999999999999997e-05,0.00047999999999999996,-2.9999999999999997e-05,0.00015,-8e-05,0.00011999999999999999,2
4334,4480,-8e-05,-2.9999999999999997e-05,-9e-05,-0.00013000000000000002,0.0,-9e-05,-9e-05,-0.00011999999999999999,2
4335,4481,-8e-05,-2.9999999999999997e-05,-9e-05,-0.00013000000000000002,0.0,-9e-05,-9e-05,-0.00011999999999999999,2
4336,4482,-8e-05,-2.9999999999999997e-05,-9e-05,-0.00013000000000000002,0.0,-9e-05,-9e-05,-0.00011999999999999999,2
4337,4483,-8e-05,-2.9999999999999997e-05,-9e-05,-0.00013000000000000002,0.0,-9e-05,-9e-05,-0.00011999999999999999,2
4338,4484,-8e-05,-2.9999999999999997e-05,-9e-05,-0.00013000000000000002,0.0,-9e-05,-9e-05,-0.00011999999999999999,2
4339,4485,-8e-05,-2.9999999999999997e-05,-9e-05,-0.00013000000000000002,0.0,-9e-05,-9e-05,-0.00011999999999999999,2
4340,4486,-8e-05,-2.9999999999999997e-05,-9e-05,-0.00013000000000000002,0.0,-9e-05,-9e-05,-0.00011999999999999999,2
4341,4489,0.0,-1e-05,0.0,-0.00022,-8e-05,4e-05,0.00011999999999999999,-0.0001,2
4342,4490,0.0,-1e-05,0.0,-0.00022,-8e-05,4e-05,0.00011999999999999999,-0.0001,2
4343,4491,0.0,-1e-05,0.0,-0.00022,-8e-05,4e-05,0.00011999999999999999,-0.0001,2
4344,4492,0.0,-1e-05,0.0,-0.00022,-8e-05,4e-05,0.00011999999999999999,-0.0001,2
4345,4493,0.0,-1e-05,0.0,-0.00022,-8e-05,4e-05,0.00011999999999999999,-0.0001,2
4346,4494,0.0,-1e-05,0.0,-0.00022,-8e-05,4e-05,0.00011999999999999999,-0.0001,2
4347,4495,0.0,-1e-05,0.0,-0.00022,-8e-05,4e-05,0.00011999999999999999,-0.0001,2
4348,4496,0.0,-1e-05,0.0,-0.00022,-8e-05,4e-05,0.00011999999999999999,-0.0001,2
4349,4497,0.0,-1e-05,0.0,-0.00022,-8e-05,4e-05,0.00011999999999999999,-0.0001,2
4350,4498,0.0,-1e-05,0.0,-0.00022,-8e-05,4e-05,0.00011999999999999999,-0.0001,2
4351,4499,0.0,-1e-05,0.0,-0.00022,-8e-05,4e-05,0.00011999999999999999,-0.0001,2
4352,4500,0.0,-1e-05,0.0,-0.00022,-8e-05,4e-05,0.00011999999999999999,-0.0001,2
4353,4501,0.0,-1e-05,0.0,-0.00022,-8e-05,4e-05,0.00011999999999999999,-0.0001,2
4354,4502,0.0,-1e-05,0.0,-0.00022,-8e-05,4e-05,0.00011999999999999999,-0.0001,2
4355,4503,-0.00011999999999999999,1e-05,0.0001,8e-05,0.00011,-0.00011,1e-05,8e-05,2
4356,4504,0.00011999999999999999,5e-05,-2e-05,-0.00022999999999999998,2e-05,5.9999999999999995e-05,-0.00018,5.9999999999999995e-05,2
4357,4505,0.00011999999999999999,5e-05,-2e-05,-0.00022999999999999998,2e-05,5.9999999999999995e-05,-0.00018,5.9999999999999995e-05,2
4358,4506,0.00011999999999999999,5e-05,-2e-05,-0.00022999999999999998,2e-05,5.9999999999999995e-05,-0.00018,5.9999999999999995e-05,2
4359,4507,0.00011999999999999999,5e-05,-2e-05,-0.00022999999999999998,2e-05,5.9999999999999995e-05,-0.00018,5.9999999999999995e-05,2
4360,4508,0.00011999999999999999,5e-05,-2e-05,-0.00022999999999999998,2e-05,5.9999999999999995e-05,-0.00018,5.9999999999999995e-05,2
4361,4509,0.00011999999999999999,5e-05,-2e-05,-0.00022999999999999998,2e-05,5.9999999999999995e-05,-0.00018,5.9999999999999995e-05,2
4362,4510,0.00011999999999999999,5e-05,-2e-05,-0.00022999999999999998,2e-05,5.9999999999999995e-05,-0.00018,5.9999999999999995e-05,2
4363,4511,0.00011999999999999999,5e-05,-2e-05,-0.00022999999999999998,2e-05,5.9999999999999995e-05,-0.00018,5.9999999999999995e-05,2
4364,4512,0.00011999999999999999,5e-05,-2e-05,-0.00022999999999999998,2e-05,5.9999999999999995e-05,-0.00018,5.9999999999999995e-05,2
4365,4513,0.00011999999999999999,5e-05,-2e-05,-0.00022999999999999998,2e-05,5.9999999999999995e-05,-0.00018,5.9999999999999995e-05,2
4366,4514,0.00011999999999999999,5e-05,-2e-05,-0.00022999999999999998,2e-05,5.9999999999999995e-05,-0.00018,5.9999999999999995e-05,2
4367,4515,0.00011999999999999999,5e-05,-2e-05,-0.00022999999999999998,2e-05,5.9999999999999995e-05,-0.00018,5.9999999999999995e-05,2
4368,4516,0.00011999999999999999,5e-05,-2e-05,-0.00022999999999999998,2e-05,5.9999999999999995e-05,-0.00018,5.9999999999999995e-05,2
4369,4517,0.00011999999999999999,5e-05,-2e-05,-0.00022999999999999998,2e-05,5.9999999999999995e-05,-0.00018,5.9999999999999995e-05,2
4370,4518,-0.00018,-5e-05,4e-05,0.00035,5.9999999999999995e-05,-0.00011,0.00011,-0.00043,2
4371,4519,4e-05,1e-05,1e-05,-0.00023999999999999998,0.00011999999999999999,-0.00014,-0.00031,0.0004,2
4372,4520,4e-05,1e-05,1e-05,-0.00023999999999999998,0.00011999999999999999,-0.00014,-0.00031,0.0004,2
4373,4521,4e-05,1e-05,1e-05,-0.00023999999999999998,0.00011999999999999999,-0.00014,-0.00031,0.0004,2
4374,4522,4e-05,1e-05,1e-05,-0.00023999999999999998,0.00011999999999999999,-0.00014,-0.00031,0.0004,2
4375,4523,4e-05,1e-05,1e-05,-0.00023999999999999998,0.00011999999999999999,-0.00014,-0.00031,0.0004,2
4376,4524,4e-05,1e-05,1e-05,-0.00023999999999999998,0.00011999999999999999,-0.00014,-0.00031,0.0004,2
4377,4525,8e-05,-2e-05,-1e-05,0.00031,0.00014,-4e-05,-0.00028,0.00014,2
4378,4526,8e-05,-2e-05,-1e-05,0.00031,0.00014,-4e-05,-0.00028,0.00014,2
4379,4527,8e-05,-2e-05,-1e-05,0.00031,0.00014,-4e-05,-0.00028,0.00014,2
4380,4528,8e-05,-2e-05,-1e-05,0.00031,0.00014,-4e-05,-0.00028,0.00014,2
4381,4529,8e-05,-2e-05,-1e-05,0.00031,0.00014,-4e-05,-0.00028,0.00014,2
4382,4530,8e-05,-2e-05,-1e-05,0.00031,0.00014,-4e-05,-0.00028,0.00014,2
4383,4531,8e-05,-2e-05,-1e-05,0.00031,0.00014,-4e-05,-0.00028,0.00014,2
4384,4532,8e-05,-2e-05,-1e-05,0.00031,0.00014,-4e-05,-0.00028,0.00014,2
4385,4533,8e-05,-2e-05,-1e-05,0.00031,0.00014,-4e-05,-0.00028,0.00014,2
4386,4534,8e-05,-2e-05,-1e-05,0.00031,0.00014,-4e-05,-0.00028,0.00014,2
4387,4535,8e-05,-2e-05,-1e-05,0.00031,0.00014,-4e-05,-0.00028,0.00014,2
4388,4536,8e-05,-2e-05,-1e-05,0.00031,0.00014,-4e-05,-0.00028,0.00014,2
4389,4538,8e-05,-2e-05,-1e-05,0.00031,0.00014,-4e-05,-0.00028,0.00014,2
4390,4539,-2.9999999999999997e-05,-2.9999999999999997e-05,-1e-05,-0.00041,0.00018999999999999998,8e-05,0.00016,-5e-05,2
4391,4540,-9e-05,0.0,5.9999999999999995e-05,8e-05,0.00025,2e-05,-0.00029,-0.00018,2
4392,4541,-9e-05,0.0,5.9999999999999995e-05,8e-05,0.00025,2e-05,-0.00029,-0.00018,2
4393,4542,-9e-05,0.0,5.9999999999999995e-05,8e-05,0.00025,2e-05,-0.00029,-0.00018,2
4394,4543,-9e-05,0.0,5.9999999999999995e-05,8e-05,0.00025,2e-05,-0.00029,-0.00018,2
4395,4544,-9e-05,0.0,5.9999999999999995e-05,8e-05,0.00025,2e-05,-0.00029,-0.00018,2
4396,4545,-9e-05,0.0,5.9999999999999995e-05,8e-05,0.00025,2e-05,-0.00029,-0.00018,2
4397,4546,-9e-05,0.0,5.9999999999999995e-05,8e-05,0.00025,2e-05,-0.00029,-0.00018,2
4398,4547,-9e-05,0.0,5.9999999999999995e-05,8e-05,0.00025,2e-05,-0.00029,-0.00018,2
4399,4548,-8e-05,-0.0001,-0.0002,-0.00053,-2e-05,-0.00033,-0.00036,-1e-05,2
4400,4549,-8e-05,-0.0001,-0.0002,-0.00053,-2e-05,-0.00033,-0.00036,-1e-05,2
4401,4550,-8e-05,-0.0001,-0.0002,-0.00053,-2e-05,-0.00033,-0.00036,-1e-05,2
4402,4551,-8e-05,-0.0001,-0.0002,-0.00053,-2e-05,-0.00033,-0.00036,-1e-05,2
4403,4552,-8e-05,-0.0001,-0.0002,-0.00053,-2e-05,-0.00033,-0.00036,-1e-05,2
4404,4553,-8e-05,-0.0001,-0.0002,-0.00053,-2e-05,-0.00033,-0.00036,-1e-05,2
4405,4554,-8e-05,-0.0001,-0.0002,-0.00053,-2e-05,-0.00033,-0.00036,-1e-05,2
4406,4555,-8e-05,-0.0001,-0.0002,-0.00053,-2e-05,-0.00033,-0.00036,-1e-05,2
4407,4556,-8e-05,-0.0001,-0.0002,-0.00053,-2e-05,-0.00033,-0.00036,-1e-05,2
4408,4557,-8e-05,-0.0001,-0.0002,-0.00053,-2e-05,-0.00033,-0.00036,-1e-05,2
4409,4558,-8e-05,-0.0001,-0.0002,-0.00053,-2e-05,-0.00033,-0.00036,-1e-05,2
4410,4559,-8e-05,-0.0001,-0.0002,-0.00053,-2e-05,-0.00033,-0.00036,-1e-05,2
4411,4560,-8e-05,-0.0001,-0.0002,-0.00053,-2e-05,-0.00033,-0.00036,-1e-05,2
4412,4561,-8e-05,-0.0001,-0.0002,-0.00053,-2e-05,-0.00033,-0.00036,-1e-05,2
4413,4562,-8e-05,-0.0001,-0.0002,-0.00053,-2e-05,-0.00033,-0.00036,-1e-05,2
4414,4563,-2.9999999999999997e-05,-2e-05,5e-05,0.00028,4e-05,-1e-05,-5.9999999999999995e-05,2e-05,2
4415,4564,-4e-05,4e-05,0.0001,-0.00011,0.00011999999999999999,5.9999999999999995e-05,-5e-05,-0.00037999999999999997,2
4416,4565,-4e-05,4e-05,0.0001,-0.00011,0.00011999999999999999,5.9999999999999995e-05,-5e-05,-0.00037999999999999997,2
4417,4566,-4e-05,4e-05,0.0001,-0.00011,0.00011999999999999999,5.9999999999999995e-05,-5e-05,-0.00037999999999999997,2
4418,4567,-4e-05,4e-05,0.0001,-0.00011,0.00011999999999999999,5.9999999999999995e-05,-5e-05,-0.00037999999999999997,2
4419,4568,-4e-05,4e-05,0.0001,-0.00011,0.00011999999999999999,5.9999999999999995e-05,-5e-05,-0.00037999999999999997,2
4420,4569,-4e-05,4e-05,0.0001,-0.00011,0.00011999999999999999,5.9999999999999995e-05,-5e-05,-0.00037999999999999997,2
4421,4570,-4e-05,4e-05,0.0001,-0.00011,0.00011999999999999999,5.9999999999999995e-05,-5e-05,-0.00037999999999999997,2
4422,4571,-4e-05,4e-05,0.0001,-0.00011,0.00011999999999999999,5.9999999999999995e-05,-5e-05,-0.00037999999999999997,2
4423,4572,-4e-05,4e-05,0.0001,-0.00011,0.00011999999999999999,5.9999999999999995e-05,-5e-05,-0.00037999999999999997,2
4424,4573,-4e-05,4e-05,0.0001,-0.00011,0.00011999999999999999,5.9999999999999995e-05,-5e-05,-0.00037999999999999997,2
4425,4574,-4e-05,4e-05,0.0001,-0.00011,0.00011999999999999999,5.9999999999999995e-05,-5e-05,-0.00037999999999999997,2
4426,4575,-4e-05,4e-05,0.0001,-0.00011,0.00011999999999999999,5.9999999999999995e-05,-5e-05,-0.00037999999999999997,2
4427,4576,-4e-05,4e-05,0.0001,-0.00011,0.00011999999999999999,5.9999999999999995e-05,-5e-05,-0.00037999999999999997,2
4428,4577,0.00014,-2.9999999999999997e-05,-0.00013000000000000002,-8e-05,-0.00011,-0.00015,0.00016,0.00032,2
4429,4579,-5e-05,2.9999999999999997e-05,0.00015,1e-05,2.9999999999999997e-05,0.00018999999999999998,0.00016999999999999999,-0.00018,2
4430,4580,-5e-05,2.9999999999999997e-05,0.00015,1e-05,2.9999999999999997e-05,0.00018999999999999998,0.00016999999999999999,-0.00018,2
4431,4581,-5e-05,2.9999999999999997e-05,0.00015,1e-05,2.9999999999999997e-05,0.00018999999999999998,0.00016999999999999999,-0.00018,2
4432,4582,-5e-05,2.9999999999999997e-05,0.00015,1e-05,2.9999999999999997e-05,0.00018999999999999998,0.00016999999999999999,-0.00018,2
4433,4583,-5e-05,2.9999999999999997e-05,0.00015,1e-05,2.9999999999999997e-05,0.00018999999999999998,0.00016999999999999999,-0.00018,2
4434,4584,-5e-05,2.9999999999999997e-05,0.00015,1e-05,2.9999999999999997e-05,0.00018999999999999998,0.00016999999999999999,-0.00018,2
4435,4585,4e-05,-2.9999999999999997e-05,-1e-05,9e-05,9e-05,-5e-05,-7e-05,0.0001,2
4436,4586,4e-05,-2.9999999999999997e-05,-1e-05,9e-05,9e-05,-5e-05,-7e-05,0.0001,2
4437,4588,4e-05,-2.9999999999999997e-05,-1e-05,9e-05,9e-05,-5e-05,-7e-05,0.0001,2
4438,4589,4e-05,-2.9999999999999997e-05,-1e-05,9e-05,9e-05,-5e-05,-7e-05,0.0001,2
4439,4590,4e-05,-2.9999999999999997e-05,-1e-05,9e-05,9e-05,-5e-05,-7e-05,0.0001,2
4440,4591,4e-05,-2.9999999999999997e-05,-1e-05,9e-05,9e-05,-5e-05,-7e-05,0.0001,2
4441,4592,4e-05,-2.9999999999999997e-05,-1e-05,9e-05,9e-05,-5e-05,-7e-05,0.0001,2
4442,4593,4e-05,-2.9999999999999997e-05,-1e-05,9e-05,9e-05,-5e-05,-7e-05,0.0001,2
4443,4594,4e-05,-2.9999999999999997e-05,-1e-05,9e-05,9e-05,-5e-05,-7e-05,0.0001,2
4444,4595,4e-05,-2.9999999999999997e-05,-1e-05,9e-05,9e-05,-5e-05,-7e-05,0.0001,2
4445,4596,4e-05,-2.9999999999999997e-05,-1e-05,9e-05,9e-05,-5e-05,-7e-05,0.0001,2
4446,4597,4e-05,-2.9999999999999997e-05,-1e-05,9e-05,9e-05,-5e-05,-7e-05,0.0001,2
4447,4598,4e-05,-2.9999999999999997e-05,-1e-05,9e-05,9e-05,-5e-05,-7e-05,0.0001,2
4448,4599,2e-05,4e-05,0.00015,0.00105,4e-05,9e-05,5e-05,0.0,2
4449,4600,2e-05,4e-05,0.00015,0.00105,4e-05,9e-05,5e-05,0.0,2
4450,4601,2e-05,4e-05,0.00015,0.00105,4e-05,9e-05,5e-05,0.0,2
4451,4602,2e-05,4e-05,0.00015,0.00105,4e-05,9e-05,5e-05,0.0,2
4452,4603,2e-05,4e-05,0.00015,0.00105,4e-05,9e-05,5e-05,0.0,2
4453,4605,2e-05,4e-05,0.00015,0.00105,4e-05,9e-05,5e-05,0.0,2
4454,4606,2e-05,4e-05,0.00015,0.00105,4e-05,9e-05,5e-05,0.0,2
4455,4607,2e-05,4e-05,0.00015,0.00105,4e-05,9e-05,5e-05,0.0,2
4456,4608,-1e-05,-4e-05,-5.9999999999999995e-05,-0.0005200000000000001,-1e-05,-7e-05,-0.00014,-0.00016,2
4457,4609,-7e-05,-1e-05,5e-05,0.00013000000000000002,-2.9999999999999997e-05,8e-05,0.00032,-0.00013000000000000002,2
4458,4610,-7e-05,-1e-05,5e-05,0.00013000000000000002,-2.9999999999999997e-05,8e-05,0.00032,-0.00013000000000000002,2
4459,4611,-7e-05,-1e-05,5e-05,0.00013000000000000002,-2.9999999999999997e-05,8e-05,0.00032,-0.00013000000000000002,2
4460,4612,-7e-05,-1e-05,5e-05,0.00013000000000000002,-2.9999999999999997e-05,8e-05,0.00032,-0.00013000000000000002,2
4461,4613,-7e-05,-1e-05,5e-05,0.00013000000000000002,-2.9999999999999997e-05,8e-05,0.00032,-0.00013000000000000002,2
4462,4614,-7e-05,-1e-05,5e-05,0.00013000000000000002,-2.9999999999999997e-05,8e-05,0.00032,-0.00013000000000000002,2
4463,4615,-7e-05,-1e-05,5e-05,0.00013000000000000002,-2.9999999999999997e-05,8e-05,0.00032,-0.00013000000000000002,2
4464,4616,-7e-05,-1e-05,5e-05,0.00013000000000000002,-2.9999999999999997e-05,8e-05,0.00032,-0.00013000000000000002,2
4465,4617,-7e-05,-1e-05,5e-05,0.00013000000000000002,-2.9999999999999997e-05,8e-05,0.00032,-0.00013000000000000002,2
4466,4618,-7e-05,-1e-05,5e-05,0.00013000000000000002,-2.9999999999999997e-05,8e-05,0.00032,-0.00013000000000000002,2
4467,4619,-7e-05,-1e-05,5e-05,0.00013000000000000002,-2.9999999999999997e-05,8e-05,0.00032,-0.00013000000000000002,2
4468,4620,-7e-05,-1e-05,5e-05,0.00013000000000000002,-2.9999999999999997e-05,8e-05,0.00032,-0.00013000000000000002,2
4469,4621,-7e-05,-1e-05,5e-05,0.00013000000000000002,-2.9999999999999997e-05,8e-05,0.00032,-0.00013000000000000002,2
4470,4622,-2.9999999999999997e-05,-2.9999999999999997e-05,9e-05,-7e-05,-0.00014,-0.00013000000000000002,0.00035,2.9999999999999997e-05,2
4471,4623,-2.9999999999999997e-05,-2.9999999999999997e-05,9e-05,-7e-05,-0.00014,-0.00013000000000000002,0.00035,2.9999999999999997e-05,2
4472,4624,-2.9999999999999997e-05,-2.9999999999999997e-05,9e-05,-7e-05,-0.00014,-0.00013000000000000002,0.00035,2.9999999999999997e-05,2
4473,4625,-2.9999999999999997e-05,-2.9999999999999997e-05,9e-05,-7e-05,-0.00014,-0.00013000000000000002,0.00035,2.9999999999999997e-05,2
4474,4626,-2.9999999999999997e-05,-2.9999999999999997e-05,9e-05,-7e-05,-0.00014,-0.00013000000000000002,0.00035,2.9999999999999997e-05,2
4475,4627,-2.9999999999999997e-05,-2.9999999999999997e-05,9e-05,-7e-05,-0.00014,-0.00013000000000000002,0.00035,2.9999999999999997e-05,2
4476,4628,-2.9999999999999997e-05,-2.9999999999999997e-05,9e-05,-7e-05,-0.00014,-0.00013000000000000002,0.00035,2.9999999999999997e-05,2
4477,4629,-2.9999999999999997e-05,-2.9999999999999997e-05,9e-05,-7e-05,-0.00014,-0.00013000000000000002,0.00035,2.9999999999999997e-05,2
4478,4630,-2.9999999999999997e-05,-2.9999999999999997e-05,9e-05,-7e-05,-0.00014,-0.00013000000000000002,0.00035,2.9999999999999997e-05,2
4479,4631,-5e-05,-5e-05,-5.9999999999999995e-05,0.00014,-2e-05,7e-05,2e-05,0.0001,2
4480,4632,-5e-05,-5e-05,-5.9999999999999995e-05,0.00014,-2e-05,7e-05,2e-05,0.0001,2
4481,4633,-5e-05,-5e-05,-5.9999999999999995e-05,0.00014,-2e-05,7e-05,2e-05,0.0001,2
4482,4634,-5e-05,-5e-05,-5.9999999999999995e-05,0.00014,-2e-05,7e-05,2e-05,0.0001,2
4483,4635,-5e-05,-5e-05,-5.9999999999999995e-05,0.00014,-2e-05,7e-05,2e-05,0.0001,2
4484,4636,-5e-05,-5e-05,-5.9999999999999995e-05,0.00014,-2e-05,7e-05,2e-05,0.0001,2
4485,4638,0.0001,-2.9999999999999997e-05,-5.9999999999999995e-05,0.00067,-2.9999999999999997e-05,-0.00011999999999999999,-0.0001,0.0001,2
4486,4639,0.0001,-2.9999999999999997e-05,-5.9999999999999995e-05,0.00067,-2.9999999999999997e-05,-0.00011999999999999999,-0.0001,0.0001,2
4487,4640,0.0001,-2.9999999999999997e-05,-5.9999999999999995e-05,0.00067,-2.9999999999999997e-05,-0.00011999999999999999,-0.0001,0.0001,2
4488,4641,0.0001,-2.9999999999999997e-05,-5.9999999999999995e-05,0.00067,-2.9999999999999997e-05,-0.00011999999999999999,-0.0001,0.0001,2
4489,4642,0.0001,-2.9999999999999997e-05,-5.9999999999999995e-05,0.00067,-2.9999999999999997e-05,-0.00011999999999999999,-0.0001,0.0001,2
4490,4643,0.0001,-2.9999999999999997e-05,-5.9999999999999995e-05,0.00067,-2.9999999999999997e-05,-0.00011999999999999999,-0.0001,0.0001,2
4491,4644,0.0001,-2.9999999999999997e-05,-5.9999999999999995e-05,0.00067,-2.9999999999999997e-05,-0.00011999999999999999,-0.0001,0.0001,2
4492,4645,0.0001,-2.9999999999999997e-05,-5.9999999999999995e-05,0.00067,-2.9999999999999997e-05,-0.00011999999999999999,-0.0001,0.0001,2
4493,4646,-0.00013000000000000002,-2e-05,2e-05,-0.00045999999999999996,8e-05,9e-05,-5e-05,-0.00023999999999999998,2
4494,4647,-0.00013000000000000002,-2e-05,2e-05,-0.00045999999999999996,8e-05,9e-05,-5e-05,-0.00023999999999999998,2
4495,4648,-0.00013000000000000002,-2e-05,2e-05,-0.00045999999999999996,8e-05,9e-05,-5e-05,-0.00023999999999999998,2
4496,4649,-0.00013000000000000002,-2e-05,2e-05,-0.00045999999999999996,8e-05,9e-05,-5e-05,-0.00023999999999999998,2
4497,4650,-0.00013000000000000002,-2e-05,2e-05,-0.00045999999999999996,8e-05,9e-05,-5e-05,-0.00023999999999999998,2
4498,4651,-0.00013000000000000002,-2e-05,2e-05,-0.00045999999999999996,8e-05,9e-05,-5e-05,-0.00023999999999999998,2
4499,4652,-0.00013000000000000002,-2e-05,2e-05,-0.00045999999999999996,8e-05,9e-05,-5e-05,-0.00023999999999999998,2
4500,4653,-0.00013000000000000002,-2e-05,2e-05,-0.00045999999999999996,8e-05,9e-05,-5e-05,-0.00023999999999999998,2
4501,4654,-0.00013000000000000002,-2e-05,2e-05,-0.00045999999999999996,8e-05,9e-05,-5e-05,-0.00023999999999999998,2
4502,4655,-0.00013000000000000002,-2e-05,2e-05,-0.00045999999999999996,8e-05,9e-05,-5e-05,-0.00023999999999999998,2
4503,4656,-0.00013000000000000002,-2e-05,2e-05,-0.00045999999999999996,8e-05,9e-05,-5e-05,-0.00023999999999999998,2
4504,4657,-0.00013000000000000002,-2e-05,2e-05,-0.00045999999999999996,8e-05,9e-05,-5e-05,-0.00023999999999999998,2
4505,4658,-0.00013000000000000002,-2e-05,2e-05,-0.00045999999999999996,8e-05,9e-05,-5e-05,-0.00023999999999999998,2
4506,4659,7e-05,0.0,8e-05,0.0004,0.0,5.9999999999999995e-05,2.9999999999999997e-05,0.00022999999999999998,2
4507,4660,-5.9999999999999995e-05,1e-05,-0.00011999999999999999,-0.0005200000000000001,-4e-05,-8e-05,0.0001,-7e-05,2
4508,4661,-5.9999999999999995e-05,1e-05,-0.00011999999999999999,-0.0005200000000000001,-4e-05,-8e-05,0.0001,-7e-05,2
4509,4662,-5.9999999999999995e-05,1e-05,-0.00011999999999999999,-0.0005200000000000001,-4e-05,-8e-05,0.0001,-7e-05,2
4510,4663,-5.9999999999999995e-05,1e-05,-0.00011999999999999999,-0.0005200000000000001,-4e-05,-8e-05,0.0001,-7e-05,2
4511,4664,-5.9999999999999995e-05,1e-05,-0.00011999999999999999,-0.0005200000000000001,-4e-05,-8e-05,0.0001,-7e-05,2
4512,4665,-5.9999999999999995e-05,1e-05,-0.00011999999999999999,-0.0005200000000000001,-4e-05,-8e-05,0.0001,-7e-05,2
4513,4666,-5.9999999999999995e-05,1e-05,-0.00011999999999999999,-0.0005200000000000001,-4e-05,-8e-05,0.0001,-7e-05,2
4514,4667,-5.9999999999999995e-05,1e-05,-0.00011999999999999999,-0.0005200000000000001,-4e-05,-8e-05,0.0001,-7e-05,2
4515,4668,-4e-05,-5.9999999999999995e-05,-0.00011999999999999999,-5e-05,0.0,0.0,-0.00011,0.0,2
4516,4669,-4e-05,-5.9999999999999995e-05,-0.00011999999999999999,-5e-05,0.0,0.0,-0.00011,0.0,2
4517,4670,-4e-05,-5.9999999999999995e-05,-0.00011999999999999999,-5e-05,0.0,0.0,-0.00011,0.0,2
4518,4671,-4e-05,-5.9999999999999995e-05,-0.00011999999999999999,-5e-05,0.0,0.0,-0.00011,0.0,2
4519,4672,-4e-05,-5.9999999999999995e-05,-0.00011999999999999999,-5e-05,0.0,0.0,-0.00011,0.0,2
4520,4673,-4e-05,-5.9999999999999995e-05,-0.00011999999999999999,-5e-05,0.0,0.0,-0.00011,0.0,2
4521,4674,-4e-05,-5.9999999999999995e-05,-0.00011999999999999999,-5e-05,0.0,0.0,-0.00011,0.0,2
4522,4675,-4e-05,-5.9999999999999995e-05,-0.00011999999999999999,-5e-05,0.0,0.0,-0.00011,0.0,2
4523,4676,-4e-05,-5.9999999999999995e-05,-0.00011999999999999999,-5e-05,0.0,0.0,-0.00011,0.0,2
4524,4677,-4e-05,-5.9999999999999995e-05,-0.00011999999999999999,-5e-05,0.0,0.0,-0.00011,0.0,2
4525,4678,-4e-05,-5.9999999999999995e-05,-0.00011999999999999999,-5e-05,0.0,0.0,-0.00011,0.0,2
4526,4679,-4e-05,-5.9999999999999995e-05,-0.00011999999999999999,-5e-05,0.0,0.0,-0.00011,0.0,2
4527,4680,-4e-05,-5.9999999999999995e-05,-0.00011999999999999999,-5e-05,0.0,0.0,-0.00011,0.0,2
4528,4681,-4e-05,-5.9999999999999995e-05,-0.00011999999999999999,-5e-05,0.0,0.0,-0.00011,0.0,2
4529,4682,1e-05,-1e-05,-5e-05,8e-05,4e-05,-4e-05,0.0002,4e-05,2
4530,4683,1e-05,-1e-05,-5e-05,8e-05,4e-05,-4e-05,0.0002,4e-05,2
4531,4684,1e-05,-1e-05,-5e-05,8e-05,4e-05,-4e-05,0.0002,4e-05,2
4532,4685,1e-05,-1e-05,-5e-05,8e-05,4e-05,-4e-05,0.0002,4e-05,2
4533,4686,1e-05,-1e-05,-5e-05,8e-05,4e-05,-4e-05,0.0002,4e-05,2
4534,4688,1e-05,-1e-05,-5e-05,8e-05,4e-05,-4e-05,0.0002,4e-05,2
4535,4689,1e-05,-1e-05,-5e-05,8e-05,4e-05,-4e-05,0.0002,4e-05,2
4536,4690,1e-05,-1e-05,-5e-05,8e-05,4e-05,-4e-05,0.0002,4e-05,2
4537,4691,2.9999999999999997e-05,-1e-05,-4e-05,0.0,5e-05,0.00018,-0.00026000000000000003,4e-05,2
4538,4692,-8e-05,4e-05,5e-05,-7e-05,-0.00011,0.0,0.00054,-0.00035,2
4539,4693,-8e-05,4e-05,5e-05,-7e-05,-0.00011,0.0,0.00054,-0.00035,2
4540,4694,-8e-05,4e-05,5e-05,-7e-05,-0.00011,0.0,0.00054,-0.00035,2
4541,4695,-8e-05,4e-05,5e-05,-7e-05,-0.00011,0.0,0.00054,-0.00035,2
4542,4696,-8e-05,4e-05,5e-05,-7e-05,-0.00011,0.0,0.00054,-0.00035,2
4543,4697,7e-05,1e-05,-0.00013000000000000002,-0.0009199999999999999,2.9999999999999997e-05,-0.0001,0.00011,-0.00013000000000000002,2
4544,4698,7e-05,1e-05,-0.00013000000000000002,-0.0009199999999999999,2.9999999999999997e-05,-0.0001,0.00011,-0.00013000000000000002,2
4545,4699,7e-05,1e-05,-0.00013000000000000002,-0.0009199999999999999,2.9999999999999997e-05,-0.0001,0.00011,-0.00013000000000000002,2
4546,4700,7e-05,1e-05,-0.00013000000000000002,-0.0009199999999999999,2.9999999999999997e-05,-0.0001,0.00011,-0.00013000000000000002,2
4547,4701,7e-05,1e-05,-0.00013000000000000002,-0.0009199999999999999,2.9999999999999997e-05,-0.0001,0.00011,-0.00013000000000000002,2
4548,4702,7e-05,1e-05,-0.00013000000000000002,-0.0009199999999999999,2.9999999999999997e-05,-0.0001,0.00011,-0.00013000000000000002,2
4549,4703,7e-05,1e-05,-0.00013000000000000002,-0.0009199999999999999,2.9999999999999997e-05,-0.0001,0.00011,-0.00013000000000000002,2
4550,4704,7e-05,1e-05,-0.00013000000000000002,-0.0009199999999999999,2.9999999999999997e-05,-0.0001,0.00011,-0.00013000000000000002,2
4551,4705,7e-05,1e-05,-0.00013000000000000002,-0.0009199999999999999,2.9999999999999997e-05,-0.0001,0.00011,-0.00013000000000000002,2
4552,4706,-4e-05,-4e-05,-8e-05,0.00045,2.9999999999999997e-05,-2.9999999999999997e-05,-0.00018999999999999998,5e-05,2
4553,4707,-4e-05,-4e-05,-8e-05,0.00045,2.9999999999999997e-05,-2.9999999999999997e-05,-0.00018999999999999998,5e-05,2
4554,4708,-4e-05,-4e-05,-8e-05,0.00045,2.9999999999999997e-05,-2.9999999999999997e-05,-0.00018999999999999998,5e-05,2
4555,4709,-4e-05,-4e-05,-8e-05,0.00045,2.9999999999999997e-05,-2.9999999999999997e-05,-0.00018999999999999998,5e-05,2
4556,4710,-4e-05,-4e-05,-8e-05,0.00045,2.9999999999999997e-05,-2.9999999999999997e-05,-0.00018999999999999998,5e-05,2
4557,4711,-4e-05,-4e-05,-8e-05,0.00045,2.9999999999999997e-05,-2.9999999999999997e-05,-0.00018999999999999998,5e-05,2
4558,4712,-4e-05,-4e-05,-8e-05,0.00045,2.9999999999999997e-05,-2.9999999999999997e-05,-0.00018999999999999998,5e-05,2
4559,4713,-4e-05,-4e-05,-8e-05,0.00045,2.9999999999999997e-05,-2.9999999999999997e-05,-0.00018999999999999998,5e-05,2
4560,4714,-4e-05,-4e-05,-8e-05,0.00045,2.9999999999999997e-05,-2.9999999999999997e-05,-0.00018999999999999998,5e-05,2
4561,4715,-4e-05,-4e-05,-8e-05,0.00045,2.9999999999999997e-05,-2.9999999999999997e-05,-0.00018999999999999998,5e-05,2
4562,4716,-4e-05,-4e-05,-8e-05,0.00045,2.9999999999999997e-05,-2.9999999999999997e-05,-0.00018999999999999998,5e-05,2
4563,4717,-4e-05,-4e-05,-8e-05,0.00045,2.9999999999999997e-05,-2.9999999999999997e-05,-0.00018999999999999998,5e-05,2
4564,4718,-4e-05,-4e-05,-8e-05,0.00045,2.9999999999999997e-05,-2.9999999999999997e-05,-0.00018999999999999998,5e-05,2
4565,4719,-7e-05,-2.9999999999999997e-05,-4e-05,2e-05,-5e-05,-4e-05,9e-05,-5.9999999999999995e-05,2
4566,4720,-7e-05,-2.9999999999999997e-05,-4e-05,2e-05,-5e-05,-4e-05,9e-05,-5.9999999999999995e-05,2
4567,4721,-7e-05,-2.9999999999999997e-05,-4e-05,2e-05,-5e-05,-4e-05,9e-05,-5.9999999999999995e-05,2
4568,4722,-7e-05,-2.9999999999999997e-05,-4e-05,2e-05,-5e-05,-4e-05,9e-05,-5.9999999999999995e-05,2
4569,4723,-7e-05,-2.9999999999999997e-05,-4e-05,2e-05,-5e-05,-4e-05,9e-05,-5.9999999999999995e-05,2
4570,4724,-7e-05,-2.9999999999999997e-05,-4e-05,2e-05,-5e-05,-4e-05,9e-05,-5.9999999999999995e-05,2
4571,4725,-7e-05,-2.9999999999999997e-05,-4e-05,2e-05,-5e-05,-4e-05,9e-05,-5.9999999999999995e-05,2
4572,4726,-7e-05,-2.9999999999999997e-05,-4e-05,2e-05,-5e-05,-4e-05,9e-05,-5.9999999999999995e-05,2
4573,4727,-7e-05,-2.9999999999999997e-05,-4e-05,2e-05,-5e-05,-4e-05,9e-05,-5.9999999999999995e-05,2
4574,4728,0.00013000000000000002,0.0,0.0,-8e-05,0.0,5.9999999999999995e-05,-0.00011999999999999999,0.00041,2
4575,4729,0.00013000000000000002,0.0,0.0,-8e-05,0.0,5.9999999999999995e-05,-0.00011999999999999999,0.00041,2
4576,4730,0.00013000000000000002,0.0,0.0,-8e-05,0.0,5.9999999999999995e-05,-0.00011999999999999999,0.00041,2
4577,4731,0.00013000000000000002,0.0,0.0,-8e-05,0.0,5.9999999999999995e-05,-0.00011999999999999999,0.00041,2
4578,4732,0.00013000000000000002,0.0,0.0,-8e-05,0.0,5.9999999999999995e-05,-0.00011999999999999999,0.00041,2
4579,4733,0.00013000000000000002,0.0,0.0,-8e-05,0.0,5.9999999999999995e-05,-0.00011999999999999999,0.00041,2
4580,4734,0.00013000000000000002,0.0,0.0,-8e-05,0.0,5.9999999999999995e-05,-0.00011999999999999999,0.00041,2
4581,4735,0.00013000000000000002,0.0,0.0,-8e-05,0.0,5.9999999999999995e-05,-0.00011999999999999999,0.00041,2
4582,4736,0.00013000000000000002,0.0,0.0,-8e-05,0.0,5.9999999999999995e-05,-0.00011999999999999999,0.00041,2
4583,4738,0.00013000000000000002,0.0,0.0,-8e-05,0.0,5.9999999999999995e-05,-0.00011999999999999999,0.00041,2
4584,4739,0.00013000000000000002,0.0,0.0,-8e-05,0.0,5.9999999999999995e-05,-0.00011999999999999999,0.00041,2
4585,4740,0.00013000000000000002,0.0,0.0,-8e-05,0.0,5.9999999999999995e-05,-0.00011999999999999999,0.00041,2
4586,4741,0.00013000000000000002,0.0,0.0,-8e-05,0.0,5.9999999999999995e-05,-0.00011999999999999999,0.00041,2
4587,4742,2.9999999999999997e-05,-2e-05,-5e-05,-0.00016999999999999999,1e-05,2e-05,-0.00011999999999999999,4e-05,2
4588,4743,2.9999999999999997e-05,-2e-05,-5e-05,-0.00016999999999999999,1e-05,2e-05,-0.00011999999999999999,4e-05,2
4589,4744,2.9999999999999997e-05,-2e-05,-5e-05,-0.00016999999999999999,1e-05,2e-05,-0.00011999999999999999,4e-05,2
4590,4745,2.9999999999999997e-05,-2e-05,-5e-05,-0.00016999999999999999,1e-05,2e-05,-0.00011999999999999999,4e-05,2
4591,4746,2.9999999999999997e-05,-2e-05,-5e-05,-0.00016999999999999999,1e-05,2e-05,-0.00011999999999999999,4e-05,2
4592,4747,2.9999999999999997e-05,-2e-05,-5e-05,-0.00016999999999999999,1e-05,2e-05,-0.00011999999999999999,4e-05,2
4593,4748,2.9999999999999997e-05,-2e-05,-5e-05,-0.00016999999999999999,1e-05,2e-05,-0.00011999999999999999,4e-05,2
4594,4749,2.9999999999999997e-05,-2e-05,-5e-05,-0.00016999999999999999,1e-05,2e-05,-0.00011999999999999999,4e-05,2
4595,4750,2.9999999999999997e-05,-2e-05,-5e-05,-0.00016999999999999999,1e-05,2e-05,-0.00011999999999999999,4e-05,2
4596,4751,-4e-05,-2e-05,-0.0001,-4e-05,0.0,-1e-05,-0.00013000000000000002,2.9999999999999997e-05,2
4597,4752,-4e-05,-2e-05,-0.0001,-4e-05,0.0,-1e-05,-0.00013000000000000002,2.9999999999999997e-05,2
4598,4753,-4e-05,-2e-05,-0.0001,-4e-05,0.0,-1e-05,-0.00013000000000000002,2.9999999999999997e-05,2
4599,4754,-4e-05,-2e-05,-0.0001,-4e-05,0.0,-1e-05,-0.00013000000000000002,2.9999999999999997e-05,2
4600,4755,-4e-05,-2e-05,-0.0001,-4e-05,0.0,-1e-05,-0.00013000000000000002,2.9999999999999997e-05,2
4601,4756,-4e-05,-2e-05,-0.0001,-4e-05,0.0,-1e-05,-0.00013000000000000002,2.9999999999999997e-05,2
4602,4757,5.9999999999999995e-05,-2e-05,-2e-05,-0.00029,-5e-05,5e-05,-0.00016,0.00013000000000000002,2
4603,4758,5.9999999999999995e-05,-2e-05,-2e-05,-0.00029,-5e-05,5e-05,-0.00016,0.00013000000000000002,2
4604,4759,5.9999999999999995e-05,-2e-05,-2e-05,-0.00029,-5e-05,5e-05,-0.00016,0.00013000000000000002,2
4605,4760,5.9999999999999995e-05,-2e-05,-2e-05,-0.00029,-5e-05,5e-05,-0.00016,0.00013000000000000002,2
4606,4761,5.9999999999999995e-05,-2e-05,-2e-05,-0.00029,-5e-05,5e-05,-0.00016,0.00013000000000000002,2
4607,4762,5.9999999999999995e-05,-2e-05,-2e-05,-0.00029,-5e-05,5e-05,-0.00016,0.00013000000000000002,2
4608,4763,5.9999999999999995e-05,-2e-05,-2e-05,-0.00029,-5e-05,5e-05,-0.00016,0.00013000000000000002,2
4609,4764,5.9999999999999995e-05,-2e-05,-2e-05,-0.00029,-5e-05,5e-05,-0.00016,0.00013000000000000002,2
4610,4765,5.9999999999999995e-05,-2e-05,-2e-05,-0.00029,-5e-05,5e-05,-0.00016,0.00013000000000000002,2
4611,4766,1e-05,1e-05,5.9999999999999995e-05,-0.00016999999999999999,-1e-05,-7e-05,-8e-05,8e-05,2
4612,4767,1e-05,1e-05,5.9999999999999995e-05,-0.00016999999999999999,-1e-05,-7e-05,-8e-05,8e-05,2
4613,4768,1e-05,1e-05,5.9999999999999995e-05,-0.00016999999999999999,-1e-05,-7e-05,-8e-05,8e-05,2
4614,4769,1e-05,1e-05,5.9999999999999995e-05,-0.00016999999999999999,-1e-05,-7e-05,-8e-05,8e-05,2
4615,4770,1e-05,1e-05,5.9999999999999995e-05,-0.00016999999999999999,-1e-05,-7e-05,-8e-05,8e-05,2
4616,4771,1e-05,1e-05,5.9999999999999995e-05,-0.00016999999999999999,-1e-05,-7e-05,-8e-05,8e-05,2
4617,4772,1e-05,1e-05,5.9999999999999995e-05,-0.00016999999999999999,-1e-05,-7e-05,-8e-05,8e-05,2
4618,4773,1e-05,1e-05,5.9999999999999995e-05,-0.00016999999999999999,-1e-05,-7e-05,-8e-05,8e-05,2
4619,4774,1e-05,1e-05,5.9999999999999995e-05,-0.00016999999999999999,-1e-05,-7e-05,-8e-05,8e-05,2
4620,4775,1e-05,1e-05,5.9999999999999995e-05,-0.00016999999999999999,-1e-05,-7e-05,-8e-05,8e-05,2
4621,4776,1e-05,1e-05,5.9999999999999995e-05,-0.00016999999999999999,-1e-05,-7e-05,-8e-05,8e-05,2
4622,4777,1e-05,1e-05,5.9999999999999995e-05,-0.00016999999999999999,-1e-05,-7e-05,-8e-05,8e-05,2
4623,4778,1e-05,1e-05,5.9999999999999995e-05,-0.00016999999999999999,-1e-05,-7e-05,-8e-05,8e-05,2
4624,4779,-2.9999999999999997e-05,0.0,1e-05,0.00011999999999999999,-4e-05,0.00013000000000000002,0.0001,-9e-05,2
4625,4780,-2.9999999999999997e-05,-2e-05,-8e-05,-0.00025,-2e-05,-4e-05,-0.00013000000000000002,-8e-05,2
4626,4781,-2.9999999999999997e-05,-2e-05,-8e-05,-0.00025,-2e-05,-4e-05,-0.00013000000000000002,-8e-05,2
4627,4782,-2.9999999999999997e-05,-2e-05,-8e-05,-0.00025,-2e-05,-4e-05,-0.00013000000000000002,-8e-05,2
4628,4783,-2.9999999999999997e-05,-2e-05,-8e-05,-0.00025,-2e-05,-4e-05,-0.00013000000000000002,-8e-05,2
4629,4784,-2.9999999999999997e-05,-2e-05,-8e-05,-0.00025,-2e-05,-4e-05,-0.00013000000000000002,-8e-05,2
4630,4785,-2.9999999999999997e-05,-2e-05,-8e-05,-0.00025,-2e-05,-4e-05,-0.00013000000000000002,-8e-05,2
4631,4786,-2.9999999999999997e-05,-2e-05,-8e-05,-0.00025,-2e-05,-4e-05,-0.00013000000000000002,-8e-05,2
4632,4788,-2.9999999999999997e-05,-2e-05,-8e-05,-0.00025,-2e-05,-4e-05,-0.00013000000000000002,-8e-05,2
4633,4789,-2.9999999999999997e-05,-2e-05,-8e-05,-0.00025,-2e-05,-4e-05,-0.00013000000000000002,-8e-05,2
4634,4790,-2.9999999999999997e-05,-2e-05,-8e-05,-0.00025,-2e-05,-4e-05,-0.00013000000000000002,-8e-05,2
4635,4791,-2.9999999999999997e-05,-2e-05,-8e-05,-0.00025,-2e-05,-4e-05,-0.00013000000000000002,-8e-05,2
4636,4792,-2.9999999999999997e-05,-2e-05,-8e-05,-0.00025,-2e-05,-4e-05,-0.00013000000000000002,-8e-05,2
4637,4793,-2.9999999999999997e-05,-2e-05,-8e-05,-0.00025,-2e-05,-4e-05,-0.00013000000000000002,-8e-05,2
4638,4794,5.9999999999999995e-05,-1e-05,1e-05,-0.00029,1e-05,-9e-05,0.00011999999999999999,0.0001,2
4639,4795,-0.0001,-2.9999999999999997e-05,-2.9999999999999997e-05,7e-05,-2e-05,-8e-05,-9e-05,-5.9999999999999995e-05,2
4640,4796,-0.0001,-2.9999999999999997e-05,-2.9999999999999997e-05,7e-05,-2e-05,-8e-05,-9e-05,-5.9999999999999995e-05,2
4641,4797,-0.0001,-2.9999999999999997e-05,-2.9999999999999997e-05,7e-05,-2e-05,-8e-05,-9e-05,-5.9999999999999995e-05,2
4642,4798,-0.0001,-2.9999999999999997e-05,-2.9999999999999997e-05,7e-05,-2e-05,-8e-05,-9e-05,-5.9999999999999995e-05,2
4643,4799,-0.0001,-2.9999999999999997e-05,-2.9999999999999997e-05,7e-05,-2e-05,-8e-05,-9e-05,-5.9999999999999995e-05,2
4644,4800,-0.0001,-2.9999999999999997e-05,-2.9999999999999997e-05,7e-05,-2e-05,-8e-05,-9e-05,-5.9999999999999995e-05,2
4645,4801,-0.0001,-2.9999999999999997e-05,-2.9999999999999997e-05,7e-05,-2e-05,-8e-05,-9e-05,-5.9999999999999995e-05,2
4646,4802,9e-05,7e-05,0.00021,0.00055,-1e-05,0.00013000000000000002,-0.00029,0.00053,2
4647,4803,9e-05,7e-05,0.00021,0.00055,-1e-05,0.00013000000000000002,-0.00029,0.00053,2
4648,4804,9e-05,7e-05,0.00021,0.00055,-1e-05,0.00013000000000000002,-0.00029,0.00053,2
4649,4805,9e-05,7e-05,0.00021,0.00055,-1e-05,0.00013000000000000002,-0.00029,0.00053,2
4650,4806,9e-05,7e-05,0.00021,0.00055,-1e-05,0.00013000000000000002,-0.00029,0.00053,2
4651,4807,9e-05,7e-05,0.00021,0.00055,-1e-05,0.00013000000000000002,-0.00029,0.00053,2
4652,4808,9e-05,7e-05,0.00021,0.00055,-1e-05,0.00013000000000000002,-0.00029,0.00053,2
4653,4809,9e-05,7e-05,0.00021,0.00055,-1e-05,0.00013000000000000002,-0.00029,0.00053,2
4654,4810,9e-05,7e-05,0.00021,0.00055,-1e-05,0.00013000000000000002,-0.00029,0.00053,2
4655,4811,5e-05,5e-05,0.00011,0.00011999999999999999,4e-05,-4e-05,0.00035,0.00016,2
4656,4812,5e-05,5e-05,0.00011,0.00011999999999999999,4e-05,-4e-05,0.00035,0.00016,2
4657,4813,5e-05,5e-05,0.00011,0.00011999999999999999,4e-05,-4e-05,0.00035,0.00016,2
4658,4814,5e-05,5e-05,0.00011,0.00011999999999999999,4e-05,-4e-05,0.00035,0.00016,2
4659,4815,5e-05,5e-05,0.00011,0.00011999999999999999,4e-05,-4e-05,0.00035,0.00016,2
4660,4816,5e-05,5e-05,0.00011,0.00011999999999999999,4e-05,-4e-05,0.00035,0.00016,2
4661,4817,-5e-05,-5.9999999999999995e-05,-0.0001,0.00018,-0.0001,0.00011,5e-05,-2e-05,2
4662,4818,-5e-05,-5.9999999999999995e-05,-0.0001,0.00018,-0.0001,0.00011,5e-05,-2e-05,2
4663,4819,-5e-05,-5.9999999999999995e-05,-0.0001,0.00018,-0.0001,0.00011,5e-05,-2e-05,2
4664,4820,-5e-05,-5.9999999999999995e-05,-0.0001,0.00018,-0.0001,0.00011,5e-05,-2e-05,2
4665,4821,-5e-05,-5.9999999999999995e-05,-0.0001,0.00018,-0.0001,0.00011,5e-05,-2e-05,2
4666,4822,-5e-05,-5.9999999999999995e-05,-0.0001,0.00018,-0.0001,0.00011,5e-05,-2e-05,2
4667,4823,-5e-05,-5.9999999999999995e-05,-0.0001,0.00018,-0.0001,0.00011,5e-05,-2e-05,2
4668,4824,-5e-05,-5.9999999999999995e-05,-0.0001,0.00018,-0.0001,0.00011,5e-05,-2e-05,2
4669,4825,-5e-05,-5.9999999999999995e-05,-0.0001,0.00018,-0.0001,0.00011,5e-05,-2e-05,2
4670,4826,5e-05,1e-05,2.9999999999999997e-05,-8e-05,2.9999999999999997e-05,0.0001,2.9999999999999997e-05,-8e-05,2
4671,4827,5e-05,1e-05,2.9999999999999997e-05,-8e-05,2.9999999999999997e-05,0.0001,2.9999999999999997e-05,-8e-05,2
4672,4828,5e-05,1e-05,2.9999999999999997e-05,-8e-05,2.9999999999999997e-05,0.0001,2.9999999999999997e-05,-8e-05,2
4673,4829,5e-05,1e-05,2.9999999999999997e-05,-8e-05,2.9999999999999997e-05,0.0001,2.9999999999999997e-05,-8e-05,2
4674,4830,5e-05,1e-05,2.9999999999999997e-05,-8e-05,2.9999999999999997e-05,0.0001,2.9999999999999997e-05,-8e-05,2
4675,4831,5e-05,1e-05,2.9999999999999997e-05,-8e-05,2.9999999999999997e-05,0.0001,2.9999999999999997e-05,-8e-05,2
4676,4832,5e-05,1e-05,2.9999999999999997e-05,-8e-05,2.9999999999999997e-05,0.0001,2.9999999999999997e-05,-8e-05,2
4677,4833,5e-05,1e-05,2.9999999999999997e-05,-8e-05,2.9999999999999997e-05,0.0001,2.9999999999999997e-05,-8e-05,2
4678,4834,5e-05,1e-05,2.9999999999999997e-05,-8e-05,2.9999999999999997e-05,0.0001,2.9999999999999997e-05,-8e-05,2
4679,4835,5e-05,1e-05,2.9999999999999997e-05,-8e-05,2.9999999999999997e-05,0.0001,2.9999999999999997e-05,-8e-05,2
4680,4836,5e-05,1e-05,2.9999999999999997e-05,-8e-05,2.9999999999999997e-05,0.0001,2.9999999999999997e-05,-8e-05,2
4681,4838,5e-05,1e-05,2.9999999999999997e-05,-8e-05,2.9999999999999997e-05,0.0001,2.9999999999999997e-05,-8e-05,2
4682,4839,0.0,1e-05,4e-05,-0.0003,-2.9999999999999997e-05,-0.0001,-5.9999999999999995e-05,4e-05,2
4683,4840,-2.9999999999999997e-05,-2e-05,-5e-05,-0.00011,4e-05,-0.00016,-5e-05,-0.00018,2
4684,4841,-2.9999999999999997e-05,-2e-05,-5e-05,-0.00011,4e-05,-0.00016,-5e-05,-0.00018,2
4685,4842,-2.9999999999999997e-05,-2e-05,-5e-05,-0.00011,4e-05,-0.00016,-5e-05,-0.00018,2
4686,4843,-2.9999999999999997e-05,-2e-05,-5e-05,-0.00011,4e-05,-0.00016,-5e-05,-0.00018,2
4687,4844,-2.9999999999999997e-05,-2e-05,-5e-05,-0.00011,4e-05,-0.00016,-5e-05,-0.00018,2
4688,4845,-2.9999999999999997e-05,-2e-05,-5e-05,-0.00011,4e-05,-0.00016,-5e-05,-0.00018,2
4689,4846,-2.9999999999999997e-05,-2e-05,-5e-05,-0.00011,4e-05,-0.00016,-5e-05,-0.00018,2
4690,4847,-2.9999999999999997e-05,-2e-05,-5e-05,-0.00011,4e-05,-0.00016,-5e-05,-0.00018,2
4691,4848,-5.9999999999999995e-05,-2.9999999999999997e-05,5e-05,0.00078,-0.00011,-8e-05,-9e-05,-0.00014,2
4692,4849,-5.9999999999999995e-05,-2.9999999999999997e-05,5e-05,0.00078,-0.00011,-8e-05,-9e-05,-0.00014,2
4693,4850,-5.9999999999999995e-05,-2.9999999999999997e-05,5e-05,0.00078,-0.00011,-8e-05,-9e-05,-0.00014,2
4694,4851,-5.9999999999999995e-05,-2.9999999999999997e-05,5e-05,0.00078,-0.00011,-8e-05,-9e-05,-0.00014,2
4695,4852,-5.9999999999999995e-05,-2.9999999999999997e-05,5e-05,0.00078,-0.00011,-8e-05,-9e-05,-0.00014,2
4696,4853,-5.9999999999999995e-05,-2.9999999999999997e-05,5e-05,0.00078,-0.00011,-8e-05,-9e-05,-0.00014,2
4697,4854,-5.9999999999999995e-05,-2.9999999999999997e-05,5e-05,0.00078,-0.00011,-8e-05,-9e-05,-0.00014,2
4698,4855,-5.9999999999999995e-05,-2.9999999999999997e-05,5e-05,0.00078,-0.00011,-8e-05,-9e-05,-0.00014,2
4699,4856,-5.9999999999999995e-05,-2.9999999999999997e-05,5e-05,0.00078,-0.00011,-8e-05,-9e-05,-0.00014,2
4700,4857,-5.9999999999999995e-05,-2.9999999999999997e-05,5e-05,0.00078,-0.00011,-8e-05,-9e-05,-0.00014,2
4701,4858,-5.9999999999999995e-05,-2.9999999999999997e-05,5e-05,0.00078,-0.00011,-8e-05,-9e-05,-0.00014,2
4702,4859,-5.9999999999999995e-05,-2.9999999999999997e-05,5e-05,0.00078,-0.00011,-8e-05,-9e-05,-0.00014,2
4703,4860,-5.9999999999999995e-05,-2.9999999999999997e-05,5e-05,0.00078,-0.00011,-8e-05,-9e-05,-0.00014,2
4704,4861,-5.9999999999999995e-05,-2.9999999999999997e-05,5e-05,0.00078,-0.00011,-8e-05,-9e-05,-0.00014,2
4705,4862,0.0,-2e-05,-1e-05,-2.9999999999999997e-05,2e-05,4e-05,-0.0004,-2e-05,2
4706,4863,0.0,-2e-05,-1e-05,-2.9999999999999997e-05,2e-05,4e-05,-0.0004,-2e-05,2
4707,4864,0.0,-2e-05,-1e-05,-2.9999999999999997e-05,2e-05,4e-05,-0.0004,-2e-05,2
4708,4865,0.0,-2e-05,-1e-05,-2.9999999999999997e-05,2e-05,4e-05,-0.0004,-2e-05,2
4709,4866,0.0,-2e-05,-1e-05,-2.9999999999999997e-05,2e-05,4e-05,-0.0004,-2e-05,2
4710,4867,0.0,-2e-05,-1e-05,-2.9999999999999997e-05,2e-05,4e-05,-0.0004,-2e-05,2
4711,4868,0.0,-2e-05,-1e-05,-2.9999999999999997e-05,2e-05,4e-05,-0.0004,-2e-05,2
4712,4869,0.0,-2e-05,-1e-05,-2.9999999999999997e-05,2e-05,4e-05,-0.0004,-2e-05,2
4713,4870,0.0,-2e-05,-1e-05,-2.9999999999999997e-05,2e-05,4e-05,-0.0004,-2e-05,2
4714,4871,5e-05,0.0,-0.00021,9e-05,-5e-05,0.00011,-0.00016999999999999999,0.00059,2
4715,4872,5e-05,0.0,-0.00021,9e-05,-5e-05,0.00011,-0.00016999999999999999,0.00059,2
4716,4873,5e-05,0.0,-0.00021,9e-05,-5e-05,0.00011,-0.00016999999999999999,0.00059,2
4717,4874,5e-05,0.0,-0.00021,9e-05,-5e-05,0.00011,-0.00016999999999999999,0.00059,2
4718,4875,5e-05,0.0,-0.00021,9e-05,-5e-05,0.00011,-0.00016999999999999999,0.00059,2
4719,4876,5e-05,0.0,-0.00021,9e-05,-5e-05,0.00011,-0.00016999999999999999,0.00059,2
4720,4877,-0.00011,0.0,-1e-05,8e-05,-2e-05,-7e-05,-0.00011,-9e-05,2
4721,4878,-0.00011,0.0,-1e-05,8e-05,-2e-05,-7e-05,-0.00011,-9e-05,2
4722,4879,-0.00011,0.0,-1e-05,8e-05,-2e-05,-7e-05,-0.00011,-9e-05,2
4723,4880,-0.00011,0.0,-1e-05,8e-05,-2e-05,-7e-05,-0.00011,-9e-05,2
4724,4881,-0.00011,0.0,-1e-05,8e-05,-2e-05,-7e-05,-0.00011,-9e-05,2
4725,4882,-0.00011,0.0,-1e-05,8e-05,-2e-05,-7e-05,-0.00011,-9e-05,2
4726,4883,-0.00011,0.0,-1e-05,8e-05,-2e-05,-7e-05,-0.00011,-9e-05,2
4727,4884,-0.00011,0.0,-1e-05,8e-05,-2e-05,-7e-05,-0.00011,-9e-05,2
4728,4885,-0.00011,0.0,-1e-05,8e-05,-2e-05,-7e-05,-0.00011,-9e-05,2
4729,4886,-4e-05,-2e-05,-2e-05,-0.00027,-5e-05,-4e-05,-0.00013000000000000002,-0.00033,2
4730,4888,-4e-05,-2e-05,-2e-05,-0.00027,-5e-05,-4e-05,-0.00013000000000000002,-0.00033,2
4731,4889,-4e-05,-2e-05,-2e-05,-0.00027,-5e-05,-4e-05,-0.00013000000000000002,-0.00033,2
4732,4890,-4e-05,-2e-05,-2e-05,-0.00027,-5e-05,-4e-05,-0.00013000000000000002,-0.00033,2
4733,4891,-4e-05,-2e-05,-2e-05,-0.00027,-5e-05,-4e-05,-0.00013000000000000002,-0.00033,2
4734,4892,-4e-05,-2e-05,-2e-05,-0.00027,-5e-05,-4e-05,-0.00013000000000000002,-0.00033,2
4735,4893,-4e-05,-2e-05,-2e-05,-0.00027,-5e-05,-4e-05,-0.00013000000000000002,-0.00033,2
4736,4894,-4e-05,-2e-05,-2e-05,-0.00027,-5e-05,-4e-05,-0.00013000000000000002,-0.00033,2
4737,4895,-4e-05,-2e-05,-2e-05,-0.00027,-5e-05,-4e-05,-0.00013000000000000002,-0.00033,2
4738,4896,-4e-05,-2e-05,-2e-05,-0.00027,-5e-05,-4e-05,-0.00013000000000000002,-0.00033,2
4739,4897,-4e-05,-2e-05,-2e-05,-0.00027,-5e-05,-4e-05,-0.00013000000000000002,-0.00033,2
4740,4898,-4e-05,-2e-05,-2e-05,-0.00027,-5e-05,-4e-05,-0.00013000000000000002,-0.00033,2
4741,4899,-4e-05,-2e-05,-2e-05,-0.00027,-5e-05,-4e-05,-0.00013000000000000002,-0.00033,2
4742,4900,-5.9999999999999995e-05,-7e-05,-0.00016,-0.00033999999999999997,5e-05,-7e-05,7e-05,-2e-05,2
4743,4901,-5.9999999999999995e-05,-7e-05,-0.00016,-0.00033999999999999997,5e-05,-7e-05,7e-05,-2e-05,2
4744,4902,-5.9999999999999995e-05,-7e-05,-0.00016,-0.00033999999999999997,5e-05,-7e-05,7e-05,-2e-05,2
4745,4903,-5.9999999999999995e-05,-7e-05,-0.00016,-0.00033999999999999997,5e-05,-7e-05,7e-05,-2e-05,2
4746,4904,-5.9999999999999995e-05,-7e-05,-0.00016,-0.00033999999999999997,5e-05,-7e-05,7e-05,-2e-05,2
4747,4905,-5.9999999999999995e-05,-7e-05,-0.00016,-0.00033999999999999997,5e-05,-7e-05,7e-05,-2e-05,2
4748,4906,-5.9999999999999995e-05,-7e-05,-0.00016,-0.00033999999999999997,5e-05,-7e-05,7e-05,-2e-05,2
4749,4907,-5.9999999999999995e-05,-7e-05,-0.00016,-0.00033999999999999997,5e-05,-7e-05,7e-05,-2e-05,2
4750,4908,-5.9999999999999995e-05,-7e-05,-0.00016,-0.00033999999999999997,5e-05,-7e-05,7e-05,-2e-05,2
4751,4909,0.0,-2.9999999999999997e-05,5e-05,2.9999999999999997e-05,2.9999999999999997e-05,-2.9999999999999997e-05,0.00011999999999999999,-4e-05,2
4752,4910,0.0,-2.9999999999999997e-05,5e-05,2.9999999999999997e-05,2.9999999999999997e-05,-2.9999999999999997e-05,0.00011999999999999999,-4e-05,2
4753,4911,0.0,-2.9999999999999997e-05,5e-05,2.9999999999999997e-05,2.9999999999999997e-05,-2.9999999999999997e-05,0.00011999999999999999,-4e-05,2
4754,4912,0.0,-2.9999999999999997e-05,5e-05,2.9999999999999997e-05,2.9999999999999997e-05,-2.9999999999999997e-05,0.00011999999999999999,-4e-05,2
4755,4913,0.0,-2.9999999999999997e-05,5e-05,2.9999999999999997e-05,2.9999999999999997e-05,-2.9999999999999997e-05,0.00011999999999999999,-4e-05,2
4756,4914,0.0,-2.9999999999999997e-05,5e-05,2.9999999999999997e-05,2.9999999999999997e-05,-2.9999999999999997e-05,0.00011999999999999999,-4e-05,2
4757,4915,0.0,-2.9999999999999997e-05,5e-05,2.9999999999999997e-05,2.9999999999999997e-05,-2.9999999999999997e-05,0.00011999999999999999,-4e-05,2
4758,4916,0.0,-2.9999999999999997e-05,5e-05,2.9999999999999997e-05,2.9999999999999997e-05,-2.9999999999999997e-05,0.00011999999999999999,-4e-05,2
4759,4917,0.0,-2.9999999999999997e-05,5e-05,2.9999999999999997e-05,2.9999999999999997e-05,-2.9999999999999997e-05,0.00011999999999999999,-4e-05,2
4760,4918,0.0,-2.9999999999999997e-05,5e-05,2.9999999999999997e-05,2.9999999999999997e-05,-2.9999999999999997e-05,0.00011999999999999999,-4e-05,2
4761,4919,0.0,-2.9999999999999997e-05,5e-05,2.9999999999999997e-05,2.9999999999999997e-05,-2.9999999999999997e-05,0.00011999999999999999,-4e-05,2
4762,4920,0.0,-2.9999999999999997e-05,5e-05,2.9999999999999997e-05,2.9999999999999997e-05,-2.9999999999999997e-05,0.00011999999999999999,-4e-05,2
4763,4921,0.0,-2.9999999999999997e-05,5e-05,2.9999999999999997e-05,2.9999999999999997e-05,-2.9999999999999997e-05,0.00011999999999999999,-4e-05,2
4764,4922,-5.9999999999999995e-05,-2.9999999999999997e-05,-2e-05,0.00018999999999999998,0.0001,-0.00016999999999999999,-0.0003,-0.00058,2
4765,4923,-5.9999999999999995e-05,-2.9999999999999997e-05,-2e-05,0.00018999999999999998,0.0001,-0.00016999999999999999,-0.0003,-0.00058,2
4766,4924,-5.9999999999999995e-05,-2.9999999999999997e-05,-2e-05,0.00018999999999999998,0.0001,-0.00016999999999999999,-0.0003,-0.00058,2
4767,4925,-5.9999999999999995e-05,-2.9999999999999997e-05,-2e-05,0.00018999999999999998,0.0001,-0.00016999999999999999,-0.0003,-0.00058,2
4768,4926,-5.9999999999999995e-05,-2.9999999999999997e-05,-2e-05,0.00018999999999999998,0.0001,-0.00016999999999999999,-0.0003,-0.00058,2
4769,4927,-5.9999999999999995e-05,-2.9999999999999997e-05,-2e-05,0.00018999999999999998,0.0001,-0.00016999999999999999,-0.0003,-0.00058,2
4770,4928,-5.9999999999999995e-05,-2.9999999999999997e-05,-2e-05,0.00018999999999999998,0.0001,-0.00016999999999999999,-0.0003,-0.00058,2
4771,4929,-5.9999999999999995e-05,-2.9999999999999997e-05,-2e-05,0.00018999999999999998,0.0001,-0.00016999999999999999,-0.0003,-0.00058,2
4772,4930,-5.9999999999999995e-05,-2.9999999999999997e-05,-2e-05,0.00018999999999999998,0.0001,-0.00016999999999999999,-0.0003,-0.00058,2
4773,4931,-5.9999999999999995e-05,-2.9999999999999997e-05,-2e-05,0.00018999999999999998,0.0001,-0.00016999999999999999,-0.0003,-0.00058,2
4774,4932,-5.9999999999999995e-05,-2.9999999999999997e-05,-2e-05,0.00018999999999999998,0.0001,-0.00016999999999999999,-0.0003,-0.00058,2
4775,4933,-5.9999999999999995e-05,-2.9999999999999997e-05,-2e-05,0.00018999999999999998,0.0001,-0.00016999999999999999,-0.0003,-0.00058,2
4776,4934,-5.9999999999999995e-05,-2.9999999999999997e-05,-2e-05,0.00018999999999999998,0.0001,-0.00016999999999999999,-0.0003,-0.00058,2
4777,4935,-5.9999999999999995e-05,-2.9999999999999997e-05,-2e-05,0.00018999999999999998,0.0001,-0.00016999999999999999,-0.0003,-0.00058,2
4778,4936,-5.9999999999999995e-05,-2.9999999999999997e-05,-2e-05,0.00018999999999999998,0.0001,-0.00016999999999999999,-0.0003,-0.00058,2
4779,4939,-1e-05,4e-05,7e-05,-7e-05,1e-05,-0.00015,-0.00016,-9e-05,2
4780,4940,-1e-05,4e-05,7e-05,-7e-05,1e-05,-0.00015,-0.00016,-9e-05,2
4781,4941,-1e-05,4e-05,7e-05,-7e-05,1e-05,-0.00015,-0.00016,-9e-05,2
4782,4942,-1e-05,4e-05,7e-05,-7e-05,1e-05,-0.00015,-0.00016,-9e-05,2
4783,4943,-1e-05,4e-05,7e-05,-7e-05,1e-05,-0.00015,-0.00016,-9e-05,2
4784,4944,-1e-05,4e-05,7e-05,-7e-05,1e-05,-0.00015,-0.00016,-9e-05,2
4785,4945,-1e-05,4e-05,7e-05,-7e-05,1e-05,-0.00015,-0.00016,-9e-05,2
4786,4946,7e-05,2.9999999999999997e-05,0.0001,0.00025,9e-05,0.0,-0.00015,0.00031,2
4787,4947,7e-05,2.9999999999999997e-05,0.0001,0.00025,9e-05,0.0,-0.00015,0.00031,2
4788,4948,7e-05,2.9999999999999997e-05,0.0001,0.00025,9e-05,0.0,-0.00015,0.00031,2
4789,4949,7e-05,2.9999999999999997e-05,0.0001,0.00025,9e-05,0.0,-0.00015,0.00031,2
4790,4950,7e-05,2.9999999999999997e-05,0.0001,0.00025,9e-05,0.0,-0.00015,0.00031,2
4791,4951,7e-05,2.9999999999999997e-05,0.0001,0.00025,9e-05,0.0,-0.00015,0.00031,2
4792,4952,7e-05,2.9999999999999997e-05,0.0001,0.00025,9e-05,0.0,-0.00015,0.00031,2
4793,4953,7e-05,2.9999999999999997e-05,0.0001,0.00025,9e-05,0.0,-0.00015,0.00031,2
4794,4954,7e-05,2.9999999999999997e-05,0.0001,0.00025,9e-05,0.0,-0.00015,0.00031,2
4795,4955,7e-05,2.9999999999999997e-05,0.0001,0.00025,9e-05,0.0,-0.00015,0.00031,2
4796,4956,7e-05,2.9999999999999997e-05,0.0001,0.00025,9e-05,0.0,-0.00015,0.00031,2
4797,4957,7e-05,2.9999999999999997e-05,0.0001,0.00025,9e-05,0.0,-0.00015,0.00031,2
4798,4958,7e-05,2.9999999999999997e-05,0.0001,0.00025,9e-05,0.0,-0.00015,0.00031,2
4799,4959,7e-05,2.9999999999999997e-05,0.0001,0.00025,9e-05,0.0,-0.00015,0.00031,2
4800,4960,-5.9999999999999995e-05,-1e-05,-8e-05,-0.00022,8e-05,-2.9999999999999997e-05,0.00036,0.0,2
4801,4961,-5.9999999999999995e-05,-1e-05,-8e-05,-0.00022,8e-05,-2.9999999999999997e-05,0.00036,0.0,2
4802,4962,-5.9999999999999995e-05,-1e-05,-8e-05,-0.00022,8e-05,-2.9999999999999997e-05,0.00036,0.0,2
4803,4963,-5.9999999999999995e-05,-1e-05,-8e-05,-0.00022,8e-05,-2.9999999999999997e-05,0.00036,0.0,2
4804,4964,-5.9999999999999995e-05,-1e-05,-8e-05,-0.00022,8e-05,-2.9999999999999997e-05,0.00036,0.0,2
4805,4965,-5.9999999999999995e-05,-1e-05,-8e-05,-0.00022,8e-05,-2.9999999999999997e-05,0.00036,0.0,2
4806,4966,-5.9999999999999995e-05,-1e-05,-8e-05,-0.00022,8e-05,-2.9999999999999997e-05,0.00036,0.0,2
4807,4967,-5.9999999999999995e-05,-1e-05,-8e-05,-0.00022,8e-05,-2.9999999999999997e-05,0.00036,0.0,2
4808,4968,-0.00015,-5e-05,2e-05,0.00036,-1e-05,-7e-05,-2e-05,-0.00036,2
4809,4969,-0.00015,-5e-05,2e-05,0.00036,-1e-05,-7e-05,-2e-05,-0.00036,2
4810,4970,-0.00015,-5e-05,2e-05,0.00036,-1e-05,-7e-05,-2e-05,-0.00036,2
4811,4971,-0.00015,-5e-05,2e-05,0.00036,-1e-05,-7e-05,-2e-05,-0.00036,2
4812,4972,-0.00015,-5e-05,2e-05,0.00036,-1e-05,-7e-05,-2e-05,-0.00036,2
4813,4973,-0.00015,-5e-05,2e-05,0.00036,-1e-05,-7e-05,-2e-05,-0.00036,2
4814,4974,-0.00015,-5e-05,2e-05,0.00036,-1e-05,-7e-05,-2e-05,-0.00036,2
4815,4975,-0.00015,-5e-05,2e-05,0.00036,-1e-05,-7e-05,-2e-05,-0.00036,2
4816,4976,-0.00015,-5e-05,2e-05,0.00036,-1e-05,-7e-05,-2e-05,-0.00036,2
4817,4977,-0.00015,-5e-05,2e-05,0.00036,-1e-05,-7e-05,-2e-05,-0.00036,2
4818,4978,-0.00015,-5e-05,2e-05,0.00036,-1e-05,-7e-05,-2e-05,-0.00036,2
4819,4979,-0.00015,-5e-05,2e-05,0.00036,-1e-05,-7e-05,-2e-05,-0.00036,2
4820,4980,-0.00015,-5e-05,2e-05,0.00036,-1e-05,-7e-05,-2e-05,-0.00036,2
4821,4981,-0.00015,-5e-05,2e-05,0.00036,-1e-05,-7e-05,-2e-05,-0.00036,2
4822,4982,5e-05,-5e-05,-0.00027,-0.00023999999999999998,-2e-05,9e-05,0.00047999999999999996,0.00036,2
4823,4983,5e-05,-5e-05,-0.00027,-0.00023999999999999998,-2e-05,9e-05,0.00047999999999999996,0.00036,2
4824,4984,5e-05,-5e-05,-0.00027,-0.00023999999999999998,-2e-05,9e-05,0.00047999999999999996,0.00036,2
4825,4985,5e-05,-5e-05,-0.00027,-0.00023999999999999998,-2e-05,9e-05,0.00047999999999999996,0.00036,2
4826,4986,5e-05,-5e-05,-0.00027,-0.00023999999999999998,-2e-05,9e-05,0.00047999999999999996,0.00036,2
4827,4988,5e-05,-5e-05,-0.00027,-0.00023999999999999998,-2e-05,9e-05,0.00047999999999999996,0.00036,2
4828,4989,5e-05,-5e-05,-0.00027,-0.00023999999999999998,-2e-05,9e-05,0.00047999999999999996,0.00036,2
4829,4990,5e-05,-5e-05,-0.00027,-0.00023999999999999998,-2e-05,9e-05,0.00047999999999999996,0.00036,2
4830,4991,-4e-05,2e-05,0.00011,-0.0006,-0.0001,-1e-05,0.00013000000000000002,-0.00011999999999999999,2
4831,4992,-4e-05,2e-05,0.00011,-0.0006,-0.0001,-1e-05,0.00013000000000000002,-0.00011999999999999999,2
4832,4993,-4e-05,2e-05,0.00011,-0.0006,-0.0001,-1e-05,0.00013000000000000002,-0.00011999999999999999,2
4833,4994,-4e-05,2e-05,0.00011,-0.0006,-0.0001,-1e-05,0.00013000000000000002,-0.00011999999999999999,2
4834,4995,-4e-05,2e-05,0.00011,-0.0006,-0.0001,-1e-05,0.00013000000000000002,-0.00011999999999999999,2
4835,4996,-4e-05,2e-05,0.00011,-0.0006,-0.0001,-1e-05,0.00013000000000000002,-0.00011999999999999999,2
4836,4997,-7e-05,2e-05,0.00015,0.00041,-7e-05,-9e-05,-1e-05,-5e-05,2
4837,4998,-7e-05,2e-05,0.00015,0.00041,-7e-05,-9e-05,-1e-05,-5e-05,2
4838,4999,-7e-05,2e-05,0.00015,0.00041,-7e-05,-9e-05,-1e-05,-5e-05,2
4839,5000,-7e-05,2e-05,0.00015,0.00041,-7e-05,-9e-05,-1e-05,-5e-05,2
4840,5001,-7e-05,2e-05,0.00015,0.00041,-7e-05,-9e-05,-1e-05,-5e-05,2
4841,5002,-7e-05,2e-05,0.00015,0.00041,-7e-05,-9e-05,-1e-05,-5e-05,2
4842,5003,-7e-05,2e-05,0.00015,0.00041,-7e-05,-9e-05,-1e-05,-5e-05,2
4843,5004,-7e-05,2e-05,0.00015,0.00041,-7e-05,-9e-05,-1e-05,-5e-05,2
4844,5005,-7e-05,2e-05,0.00015,0.00041,-7e-05,-9e-05,-1e-05,-5e-05,2
4845,5006,9e-05,2e-05,2e-05,9e-05,-7e-05,-7e-05,-1e-05,0.00014,2
4846,5007,9e-05,2e-05,2e-05,9e-05,-7e-05,-7e-05,-1e-05,0.00014,2
4847,5008,9e-05,2e-05,2e-05,9e-05,-7e-05,-7e-05,-1e-05,0.00014,2
4848,5009,9e-05,2e-05,2e-05,9e-05,-7e-05,-7e-05,-1e-05,0.00014,2
4849,5010,9e-05,2e-05,2e-05,9e-05,-7e-05,-7e-05,-1e-05,0.00014,2
4850,5011,9e-05,2e-05,2e-05,9e-05,-7e-05,-7e-05,-1e-05,0.00014,2
4851,5012,9e-05,2e-05,2e-05,9e-05,-7e-05,-7e-05,-1e-05,0.00014,2
4852,5013,9e-05,2e-05,2e-05,9e-05,-7e-05,-7e-05,-1e-05,0.00014,2
4853,5014,9e-05,2e-05,2e-05,9e-05,-7e-05,-7e-05,-1e-05,0.00014,2
4854,5015,9e-05,2e-05,2e-05,9e-05,-7e-05,-7e-05,-1e-05,0.00014,2
4855,5016,9e-05,2e-05,2e-05,9e-05,-7e-05,-7e-05,-1e-05,0.00014,2
4856,5017,9e-05,2e-05,2e-05,9e-05,-7e-05,-7e-05,-1e-05,0.00014,2
4857,5018,9e-05,2e-05,2e-05,9e-05,-7e-05,-7e-05,-1e-05,0.00014,2
4858,5019,-2e-05,0.0,-5e-05,-0.00055,-2e-05,5e-05,-8e-05,2e-05,2
4859,5020,5.9999999999999995e-05,-2.9999999999999997e-05,0.0,-0.00022999999999999998,-7e-05,1e-05,0.00018999999999999998,0.00021,2
4860,5021,5.9999999999999995e-05,-2.9999999999999997e-05,0.0,-0.00022999999999999998,-7e-05,1e-05,0.00018999999999999998,0.00021,2
4861,5022,5.9999999999999995e-05,-2.9999999999999997e-05,0.0,-0.00022999999999999998,-7e-05,1e-05,0.00018999999999999998,0.00021,2
4862,5023,5.9999999999999995e-05,-2.9999999999999997e-05,0.0,-0.00022999999999999998,-7e-05,1e-05,0.00018999999999999998,0.00021,2
4863,5024,5.9999999999999995e-05,-2.9999999999999997e-05,0.0,-0.00022999999999999998,-7e-05,1e-05,0.00018999999999999998,0.00021,2
4864,5025,5.9999999999999995e-05,-2.9999999999999997e-05,0.0,-0.00022999999999999998,-7e-05,1e-05,0.00018999999999999998,0.00021,2
4865,5026,5.9999999999999995e-05,-2.9999999999999997e-05,0.0,-0.00022999999999999998,-7e-05,1e-05,0.00018999999999999998,0.00021,2
4866,5027,5.9999999999999995e-05,-2.9999999999999997e-05,0.0,-0.00022999999999999998,-7e-05,1e-05,0.00018999999999999998,0.00021,2
4867,5028,-4e-05,-2.9999999999999997e-05,2.9999999999999997e-05,0.00049,-1e-05,-4e-05,-0.00011999999999999999,-0.00011999999999999999,2
4868,5029,-4e-05,-2.9999999999999997e-05,2.9999999999999997e-05,0.00049,-1e-05,-4e-05,-0.00011999999999999999,-0.00011999999999999999,2
4869,5030,-4e-05,-2.9999999999999997e-05,2.9999999999999997e-05,0.00049,-1e-05,-4e-05,-0.00011999999999999999,-0.00011999999999999999,2
4870,5031,-4e-05,-2.9999999999999997e-05,2.9999999999999997e-05,0.00049,-1e-05,-4e-05,-0.00011999999999999999,-0.00011999999999999999,2
4871,5033,-4e-05,-2.9999999999999997e-05,2.9999999999999997e-05,0.00049,-1e-05,-4e-05,-0.00011999999999999999,-0.00011999999999999999,2
4872,5034,-4e-05,-2.9999999999999997e-05,2.9999999999999997e-05,0.00049,-1e-05,-4e-05,-0.00011999999999999999,-0.00011999999999999999,2
4873,5035,-4e-05,-2.9999999999999997e-05,2.9999999999999997e-05,0.00049,-1e-05,-4e-05,-0.00011999999999999999,-0.00011999999999999999,2
4874,5036,-4e-05,-2.9999999999999997e-05,2.9999999999999997e-05,0.00049,-1e-05,-4e-05,-0.00011999999999999999,-0.00011999999999999999,2
4875,5039,-4e-05,-2.9999999999999997e-05,2.9999999999999997e-05,0.00049,-1e-05,-4e-05,-0.00011999999999999999,-0.00011999999999999999,2
4876,5040,-4e-05,-2.9999999999999997e-05,2.9999999999999997e-05,0.00049,-1e-05,-4e-05,-0.00011999999999999999,-0.00011999999999999999,2
4877,5041,-4e-05,-2.9999999999999997e-05,2.9999999999999997e-05,0.00049,-1e-05,-4e-05,-0.00011999999999999999,-0.00011999999999999999,2
4878,5042,-4e-05,-2.9999999999999997e-05,2.9999999999999997e-05,0.00049,-1e-05,-4e-05,-0.00011999999999999999,-0.00011999999999999999,2
4879,5043,4e-05,2e-05,5.9999999999999995e-05,-0.0002,2e-05,8e-05,-0.00016999999999999999,-5.9999999999999995e-05,2
4880,5044,4e-05,2e-05,5.9999999999999995e-05,-0.0002,2e-05,8e-05,-0.00016999999999999999,-5.9999999999999995e-05,2
4881,5045,4e-05,2e-05,5.9999999999999995e-05,-0.0002,2e-05,8e-05,-0.00016999999999999999,-5.9999999999999995e-05,2
4882,5046,4e-05,2e-05,5.9999999999999995e-05,-0.0002,2e-05,8e-05,-0.00016999999999999999,-5.9999999999999995e-05,2
4883,5047,4e-05,2e-05,5.9999999999999995e-05,-0.0002,2e-05,8e-05,-0.00016999999999999999,-5.9999999999999995e-05,2
4884,5048,4e-05,2e-05,5.9999999999999995e-05,-0.0002,2e-05,8e-05,-0.00016999999999999999,-5.9999999999999995e-05,2
4885,5049,-5.9999999999999995e-05,-4e-05,-0.0001,2.9999999999999997e-05,0.0,2e-05,-0.00016,-0.00039,2
4886,5050,-5.9999999999999995e-05,-4e-05,-0.0001,2.9999999999999997e-05,0.0,2e-05,-0.00016,-0.00039,2
4887,5051,-5.9999999999999995e-05,-4e-05,-0.0001,2.9999999999999997e-05,0.0,2e-05,-0.00016,-0.00039,2
4888,5052,-5.9999999999999995e-05,-4e-05,-0.0001,2.9999999999999997e-05,0.0,2e-05,-0.00016,-0.00039,2
4889,5053,-5.9999999999999995e-05,-4e-05,-0.0001,2.9999999999999997e-05,0.0,2e-05,-0.00016,-0.00039,2
4890,5054,-5.9999999999999995e-05,-4e-05,-0.0001,2.9999999999999997e-05,0.0,2e-05,-0.00016,-0.00039,2
4891,5055,-5.9999999999999995e-05,-4e-05,-0.0001,2.9999999999999997e-05,0.0,2e-05,-0.00016,-0.00039,2
4892,5056,-5.9999999999999995e-05,-4e-05,-0.0001,2.9999999999999997e-05,0.0,2e-05,-0.00016,-0.00039,2
4893,5057,5e-05,1e-05,9e-05,0.00036,9e-05,0.00011999999999999999,-0.00043,2.9999999999999997e-05,2
4894,5058,5e-05,1e-05,9e-05,0.00036,9e-05,0.00011999999999999999,-0.00043,2.9999999999999997e-05,2
4895,5059,5e-05,1e-05,9e-05,0.00036,9e-05,0.00011999999999999999,-0.00043,2.9999999999999997e-05,2
4896,5060,5e-05,1e-05,9e-05,0.00036,9e-05,0.00011999999999999999,-0.00043,2.9999999999999997e-05,2
4897,5061,5e-05,1e-05,9e-05,0.00036,9e-05,0.00011999999999999999,-0.00043,2.9999999999999997e-05,2
4898,5062,5e-05,1e-05,9e-05,0.00036,9e-05,0.00011999999999999999,-0.00043,2.9999999999999997e-05,2
4899,5063,5e-05,1e-05,9e-05,0.00036,9e-05,0.00011999999999999999,-0.00043,2.9999999999999997e-05,2
4900,5064,5e-05,1e-05,9e-05,0.00036,9e-05,0.00011999999999999999,-0.00043,2.9999999999999997e-05,2
4901,5065,5e-05,1e-05,9e-05,0.00036,9e-05,0.00011999999999999999,-0.00043,2.9999999999999997e-05,2
4902,5066,8e-05,-2.9999999999999997e-05,-9e-05,-0.0008699999999999999,-2e-05,-7e-05,-0.00018,0.00056,2
4903,5067,8e-05,-2.9999999999999997e-05,-9e-05,-0.0008699999999999999,-2e-05,-7e-05,-0.00018,0.00056,2
4904,5068,8e-05,-2.9999999999999997e-05,-9e-05,-0.0008699999999999999,-2e-05,-7e-05,-0.00018,0.00056,2
4905,5069,8e-05,-2.9999999999999997e-05,-9e-05,-0.0008699999999999999,-2e-05,-7e-05,-0.00018,0.00056,2
4906,5070,8e-05,-2.9999999999999997e-05,-9e-05,-0.0008699999999999999,-2e-05,-7e-05,-0.00018,0.00056,2
4907,5071,8e-05,-2.9999999999999997e-05,-9e-05,-0.0008699999999999999,-2e-05,-7e-05,-0.00018,0.00056,2
4908,5072,8e-05,-2.9999999999999997e-05,-9e-05,-0.0008699999999999999,-2e-05,-7e-05,-0.00018,0.00056,2
4909,5073,8e-05,-2.9999999999999997e-05,-9e-05,-0.0008699999999999999,-2e-05,-7e-05,-0.00018,0.00056,2
4910,5074,8e-05,-2.9999999999999997e-05,-9e-05,-0.0008699999999999999,-2e-05,-7e-05,-0.00018,0.00056,2
4911,5075,8e-05,-2.9999999999999997e-05,-9e-05,-0.0008699999999999999,-2e-05,-7e-05,-0.00018,0.00056,2
4912,5076,8e-05,-2.9999999999999997e-05,-9e-05,-0.0008699999999999999,-2e-05,-7e-05,-0.00018,0.00056,2
4913,5077,8e-05,-2.9999999999999997e-05,-9e-05,-0.0008699999999999999,-2e-05,-7e-05,-0.00018,0.00056,2
4914,5078,8e-05,-2.9999999999999997e-05,-9e-05,-0.0008699999999999999,-2e-05,-7e-05,-0.00018,0.00056,2
4915,5079,8e-05,-2.9999999999999997e-05,-9e-05,-0.0008699999999999999,-2e-05,-7e-05,-0.00018,0.00056,2
4916,5080,8e-05,-2.9999999999999997e-05,-9e-05,-0.0008699999999999999,-2e-05,-7e-05,-0.00018,0.00056,2
4917,5081,8e-05,-2.9999999999999997e-05,-9e-05,-0.0008699999999999999,-2e-05,-7e-05,-0.00018,0.00056,2
4918,5082,8e-05,-2.9999999999999997e-05,-9e-05,-0.0008699999999999999,-2e-05,-7e-05,-0.00018,0.00056,2
4919,5083,8e-05,-2.9999999999999997e-05,-9e-05,-0.0008699999999999999,-2e-05,-7e-05,-0.00018,0.00056,2
4920,5084,8e-05,-2.9999999999999997e-05,-9e-05,-0.0008699999999999999,-2e-05,-7e-05,-0.00018,0.00056,2
4921,5085,8e-05,-2.9999999999999997e-05,-9e-05,-0.0008699999999999999,-2e-05,-7e-05,-0.00018,0.00056,2
4922,5086,8e-05,-2.9999999999999997e-05,-9e-05,-0.0008699999999999999,-2e-05,-7e-05,-0.00018,0.00056,2
4923,5089,-1e-05,-1e-05,2e-05,-5e-05,-2.9999999999999997e-05,0.0,0.00033,0.00014,2
4924,5090,-1e-05,-1e-05,2e-05,-5e-05,-2.9999999999999997e-05,0.0,0.00033,0.00014,2
4925,5091,-1e-05,-1e-05,2e-05,-5e-05,-2.9999999999999997e-05,0.0,0.00033,0.00014,2
4926,5092,-1e-05,-1e-05,2e-05,-5e-05,-2.9999999999999997e-05,0.0,0.00033,0.00014,2
4927,5093,-1e-05,-1e-05,2e-05,-5e-05,-2.9999999999999997e-05,0.0,0.00033,0.00014,2
4928,5094,-2e-05,-1e-05,-2.9999999999999997e-05,0.00056,2e-05,2e-05,0.00014,5e-05,2
4929,5095,-2e-05,-1e-05,-2.9999999999999997e-05,0.00056,2e-05,2e-05,0.00014,5e-05,2
4930,5096,-2e-05,-1e-05,-2.9999999999999997e-05,0.00056,2e-05,2e-05,0.00014,5e-05,2
4931,5097,-2e-05,-1e-05,-2.9999999999999997e-05,0.00056,2e-05,2e-05,0.00014,5e-05,2
4932,5098,-2e-05,-1e-05,-2.9999999999999997e-05,0.00056,2e-05,2e-05,0.00014,5e-05,2
4933,5099,-2e-05,-1e-05,-2.9999999999999997e-05,0.00056,2e-05,2e-05,0.00014,5e-05,2
4934,5100,-2e-05,-1e-05,-2.9999999999999997e-05,0.00056,2e-05,2e-05,0.00014,5e-05,2
4935,5101,-2e-05,-1e-05,-2.9999999999999997e-05,0.00056,2e-05,2e-05,0.00014,5e-05,2
4936,5102,-2e-05,-1e-05,-2.9999999999999997e-05,0.00056,2e-05,2e-05,0.00014,5e-05,2
4937,5103,-2e-05,-1e-05,-2.9999999999999997e-05,0.00056,2e-05,2e-05,0.00014,5e-05,2
4938,5104,-2e-05,-1e-05,-2.9999999999999997e-05,0.00056,2e-05,2e-05,0.00014,5e-05,2
4939,5105,-2e-05,-1e-05,-2.9999999999999997e-05,0.00056,2e-05,2e-05,0.00014,5e-05,2
4940,5106,-2e-05,-1e-05,-2.9999999999999997e-05,0.00056,2e-05,2e-05,0.00014,5e-05,2
4941,5107,-2e-05,-1e-05,-2.9999999999999997e-05,0.00056,2e-05,2e-05,0.00014,5e-05,2
4942,5108,-2e-05,-1e-05,-2.9999999999999997e-05,0.00056,2e-05,2e-05,0.00014,5e-05,2
4943,5109,-2e-05,-1e-05,-2.9999999999999997e-05,0.00056,2e-05,2e-05,0.00014,5e-05,2
4944,5110,-2e-05,-1e-05,-2.9999999999999997e-05,0.00056,2e-05,2e-05,0.00014,5e-05,2
4945,5111,-4e-05,-2.9999999999999997e-05,-2e-05,-0.00033999999999999997,-5.9999999999999995e-05,1e-05,0.00016,-5e-05,2
4946,5112,-9e-05,-2e-05,0.0,-0.00035,-2e-05,1e-05,2.9999999999999997e-05,-1e-05,2
4947,5113,-9e-05,-2e-05,0.0,-0.00035,-2e-05,1e-05,2.9999999999999997e-05,-1e-05,2
4948,5114,-9e-05,-2e-05,0.0,-0.00035,-2e-05,1e-05,2.9999999999999997e-05,-1e-05,2
4949,5115,-9e-05,-2e-05,0.0,-0.00035,-2e-05,1e-05,2.9999999999999997e-05,-1e-05,2
4950,5116,-9e-05,-2e-05,0.0,-0.00035,-2e-05,1e-05,2.9999999999999997e-05,-1e-05,2
4951,5117,-9e-05,-2e-05,0.0,-0.00035,-2e-05,1e-05,2.9999999999999997e-05,-1e-05,2
4952,5118,-9e-05,-2e-05,0.0,-0.00035,-2e-05,1e-05,2.9999999999999997e-05,-1e-05,2
4953,5119,-9e-05,-2e-05,0.0,-0.00035,-2e-05,1e-05,2.9999999999999997e-05,-1e-05,2
4954,5120,-9e-05,-2e-05,0.0,-0.00035,-2e-05,1e-05,2.9999999999999997e-05,-1e-05,2
4955,5121,-9e-05,-2e-05,0.0,-0.00035,-2e-05,1e-05,2.9999999999999997e-05,-1e-05,2
4956,5122,-9e-05,-2e-05,0.0,-0.00035,-2e-05,1e-05,2.9999999999999997e-05,-1e-05,2
4957,5123,-9e-05,-2e-05,0.0,-0.00035,-2e-05,1e-05,2.9999999999999997e-05,-1e-05,2
4958,5124,-9e-05,-2e-05,0.0,-0.00035,-2e-05,1e-05,2.9999999999999997e-05,-1e-05,2
4959,5125,-9e-05,-2e-05,0.0,-0.00035,-2e-05,1e-05,2.9999999999999997e-05,-1e-05,2
4960,5126,-9e-05,-2e-05,0.0,-0.00035,-2e-05,1e-05,2.9999999999999997e-05,-1e-05,2
4961,5127,-9e-05,-2e-05,0.0,-0.00035,-2e-05,1e-05,2.9999999999999997e-05,-1e-05,2
4962,5128,-9e-05,-2e-05,0.0,-0.00035,-2e-05,1e-05,2.9999999999999997e-05,-1e-05,2
4963,5129,-9e-05,-2e-05,0.0,-0.00035,-2e-05,1e-05,2.9999999999999997e-05,-1e-05,2
4964,5130,-9e-05,-2e-05,0.0,-0.00035,-2e-05,1e-05,2.9999999999999997e-05,-1e-05,2
4965,5131,-9e-05,-2e-05,0.0,-0.00035,-2e-05,1e-05,2.9999999999999997e-05,-1e-05,2
4966,5132,-9e-05,-2e-05,0.0,-0.00035,-2e-05,1e-05,2.9999999999999997e-05,-1e-05,2
4967,5133,0.0,-2e-05,-2.9999999999999997e-05,-2e-05,4e-05,-8e-05,-5e-05,-0.00011999999999999999,2
4968,5134,2e-05,2.9999999999999997e-05,4e-05,0.00015,-4e-05,-2.9999999999999997e-05,5e-05,0.00028,2
4969,5135,-2e-05,0.0,-7e-05,5.9999999999999995e-05,-1e-05,-5e-05,-5e-05,-7e-05,2
4970,5136,-2e-05,0.0,-7e-05,5.9999999999999995e-05,-1e-05,-5e-05,-5e-05,-7e-05,2
4971,5138,-2e-05,0.0,-7e-05,5.9999999999999995e-05,-1e-05,-5e-05,-5e-05,-7e-05,2
4972,5139,-2e-05,0.0,-7e-05,5.9999999999999995e-05,-1e-05,-5e-05,-5e-05,-7e-05,2
4973,5140,-2e-05,0.0,-7e-05,5.9999999999999995e-05,-1e-05,-5e-05,-5e-05,-7e-05,2
4974,5141,-2e-05,0.0,-7e-05,5.9999999999999995e-05,-1e-05,-5e-05,-5e-05,-7e-05,2
4975,5142,-2e-05,0.0,-7e-05,5.9999999999999995e-05,-1e-05,-5e-05,-5e-05,-7e-05,2
4976,5143,-2e-05,0.0,-7e-05,5.9999999999999995e-05,-1e-05,-5e-05,-5e-05,-7e-05,2
4977,5144,-2e-05,0.0,-7e-05,5.9999999999999995e-05,-1e-05,-5e-05,-5e-05,-7e-05,2
4978,5145,-2e-05,0.0,-7e-05,5.9999999999999995e-05,-1e-05,-5e-05,-5e-05,-7e-05,2
4979,5146,-2e-05,0.0,-7e-05,5.9999999999999995e-05,-1e-05,-5e-05,-5e-05,-7e-05,2
4980,5147,-2e-05,0.0,-7e-05,5.9999999999999995e-05,-1e-05,-5e-05,-5e-05,-7e-05,2
4981,5148,-0.00016,-8e-05,-0.00028,-0.00018,-1e-05,-9e-05,-9e-05,-0.00041,2
4982,5149,-0.00016,-8e-05,-0.00028,-0.00018,-1e-05,-9e-05,-9e-05,-0.00041,2
4983,5150,-0.00016,-8e-05,-0.00028,-0.00018,-1e-05,-9e-05,-9e-05,-0.00041,2
4984,5151,-0.00016,-8e-05,-0.00028,-0.00018,-1e-05,-9e-05,-9e-05,-0.00041,2
4985,5152,-0.00016,-8e-05,-0.00028,-0.00018,-1e-05,-9e-05,-9e-05,-0.00041,2
4986,5153,-0.00016,-8e-05,-0.00028,-0.00018,-1e-05,-9e-05,-9e-05,-0.00041,2
4987,5154,0.00013000000000000002,2e-05,-7e-05,-0.00023999999999999998,-7e-05,0.00011,0.0005099999999999999,0.00018,2
4988,5155,0.00013000000000000002,2e-05,-7e-05,-0.00023999999999999998,-7e-05,0.00011,0.0005099999999999999,0.00018,2
4989,5156,0.00013000000000000002,2e-05,-7e-05,-0.00023999999999999998,-7e-05,0.00011,0.0005099999999999999,0.00018,2
4990,5157,0.00013000000000000002,2e-05,-7e-05,-0.00023999999999999998,-7e-05,0.00011,0.0005099999999999999,0.00018,2
4991,5158,0.00013000000000000002,2e-05,-7e-05,-0.00023999999999999998,-7e-05,0.00011,0.0005099999999999999,0.00018,2
4992,5159,0.00013000000000000002,2e-05,-7e-05,-0.00023999999999999998,-7e-05,0.00011,0.0005099999999999999,0.00018,2
4993,5160,0.00013000000000000002,2e-05,-7e-05,-0.00023999999999999998,-7e-05,0.00011,0.0005099999999999999,0.00018,2
4994,5161,0.00013000000000000002,2e-05,-7e-05,-0.00023999999999999998,-7e-05,0.00011,0.0005099999999999999,0.00018,2
4995,5162,0.00013000000000000002,2e-05,-7e-05,-0.00023999999999999998,-7e-05,0.00011,0.0005099999999999999,0.00018,2
4996,5163,0.00013000000000000002,2e-05,-7e-05,-0.00023999999999999998,-7e-05,0.00011,0.0005099999999999999,0.00018,2
4997,5164,0.00013000000000000002,2e-05,-7e-05,-0.00023999999999999998,-7e-05,0.00011,0.0005099999999999999,0.00018,2
4998,5165,0.00013000000000000002,2e-05,-7e-05,-0.00023999999999999998,-7e-05,0.00011,0.0005099999999999999,0.00018,2
4999,5166,0.00013000000000000002,2e-05,-7e-05,-0.00023999999999999998,-7e-05,0.00011,0.0005099999999999999,0.00018,2
5000,5167,0.00013000000000000002,2e-05,-7e-05,-0.00023999999999999998,-7e-05,0.00011,0.0005099999999999999,0.00018,2
5001,5168,0.00013000000000000002,2e-05,-7e-05,-0.00023999999999999998,-7e-05,0.00011,0.0005099999999999999,0.00018,2
5002,5169,0.00013000000000000002,2e-05,-7e-05,-0.00023999999999999998,-7e-05,0.00011,0.0005099999999999999,0.00018,2
5003,5170,0.00013000000000000002,2e-05,-7e-05,-0.00023999999999999998,-7e-05,0.00011,0.0005099999999999999,0.00018,2
5004,5171,-1e-05,-1e-05,2e-05,0.00021,2e-05,0.00018999999999999998,0.00016,4e-05,2
5005,5172,-5.9999999999999995e-05,-1e-05,2.9999999999999997e-05,0.00022999999999999998,0.0,0.0,5.9999999999999995e-05,-0.0003,2
5006,5173,-5.9999999999999995e-05,-1e-05,2.9999999999999997e-05,0.00022999999999999998,0.0,0.0,5.9999999999999995e-05,-0.0003,2
5007,5174,-5.9999999999999995e-05,-1e-05,2.9999999999999997e-05,0.00022999999999999998,0.0,0.0,5.9999999999999995e-05,-0.0003,2
5008,5175,-5.9999999999999995e-05,-1e-05,2.9999999999999997e-05,0.00022999999999999998,0.0,0.0,5.9999999999999995e-05,-0.0003,2
5009,5176,-5.9999999999999995e-05,-1e-05,2.9999999999999997e-05,0.00022999999999999998,0.0,0.0,5.9999999999999995e-05,-0.0003,2
5010,5177,-5.9999999999999995e-05,-1e-05,2.9999999999999997e-05,0.00022999999999999998,0.0,0.0,5.9999999999999995e-05,-0.0003,2
5011,5178,-5.9999999999999995e-05,-1e-05,2.9999999999999997e-05,0.00022999999999999998,0.0,0.0,5.9999999999999995e-05,-0.0003,2
5012,5179,-5.9999999999999995e-05,-1e-05,2.9999999999999997e-05,0.00022999999999999998,0.0,0.0,5.9999999999999995e-05,-0.0003,2
5013,5180,-5.9999999999999995e-05,-1e-05,2.9999999999999997e-05,0.00022999999999999998,0.0,0.0,5.9999999999999995e-05,-0.0003,2
5014,5181,-5.9999999999999995e-05,-1e-05,2.9999999999999997e-05,0.00022999999999999998,0.0,0.0,5.9999999999999995e-05,-0.0003,2
5015,5182,-5.9999999999999995e-05,-1e-05,2.9999999999999997e-05,0.00022999999999999998,0.0,0.0,5.9999999999999995e-05,-0.0003,2
5016,5183,-5.9999999999999995e-05,-1e-05,2.9999999999999997e-05,0.00022999999999999998,0.0,0.0,5.9999999999999995e-05,-0.0003,2
5017,5184,-5.9999999999999995e-05,-1e-05,2.9999999999999997e-05,0.00022999999999999998,0.0,0.0,5.9999999999999995e-05,-0.0003,2
5018,5185,-5.9999999999999995e-05,-1e-05,2.9999999999999997e-05,0.00022999999999999998,0.0,0.0,5.9999999999999995e-05,-0.0003,2
5019,5186,-5.9999999999999995e-05,-1e-05,2.9999999999999997e-05,0.00022999999999999998,0.0,0.0,5.9999999999999995e-05,-0.0003,2
5020,5188,-5.9999999999999995e-05,-1e-05,2.9999999999999997e-05,0.00022999999999999998,0.0,0.0,5.9999999999999995e-05,-0.0003,2
5021,5189,-5.9999999999999995e-05,-1e-05,2.9999999999999997e-05,0.00022999999999999998,0.0,0.0,5.9999999999999995e-05,-0.0003,2
5022,5190,-5.9999999999999995e-05,-1e-05,2.9999999999999997e-05,0.00022999999999999998,0.0,0.0,5.9999999999999995e-05,-0.0003,2
5023,5191,-5.9999999999999995e-05,-1e-05,2.9999999999999997e-05,0.00022999999999999998,0.0,0.0,5.9999999999999995e-05,-0.0003,2
5024,5192,-5.9999999999999995e-05,-1e-05,2.9999999999999997e-05,0.00022999999999999998,0.0,0.0,5.9999999999999995e-05,-0.0003,2
5025,5193,-5e-05,-5e-05,2e-05,0.0,0.0,-0.00014,-0.00013000000000000002,-0.00027,2
5026,5194,-5e-05,-5e-05,2e-05,0.0,0.0,-0.00014,-0.00013000000000000002,-0.00027,2
5027,5195,8e-05,2e-05,0.00011999999999999999,-1e-05,-2.9999999999999997e-05,0.0,-0.00029,0.00037999999999999997,2
5028,5196,8e-05,2e-05,0.00011999999999999999,-1e-05,-2.9999999999999997e-05,0.0,-0.00029,0.00037999999999999997,2
5029,5197,8e-05,2e-05,0.00011999999999999999,-1e-05,-2.9999999999999997e-05,0.0,-0.00029,0.00037999999999999997,2
5030,5198,8e-05,2e-05,0.00011999999999999999,-1e-05,-2.9999999999999997e-05,0.0,-0.00029,0.00037999999999999997,2
5031,5199,8e-05,2e-05,0.00011999999999999999,-1e-05,-2.9999999999999997e-05,0.0,-0.00029,0.00037999999999999997,2
5032,5200,8e-05,2e-05,0.00011999999999999999,-1e-05,-2.9999999999999997e-05,0.0,-0.00029,0.00037999999999999997,2
5033,5201,8e-05,2e-05,0.00011999999999999999,-1e-05,-2.9999999999999997e-05,0.0,-0.00029,0.00037999999999999997,2
5034,5202,8e-05,2e-05,0.00011999999999999999,-1e-05,-2.9999999999999997e-05,0.0,-0.00029,0.00037999999999999997,2
5035,5203,8e-05,2e-05,0.00011999999999999999,-1e-05,-2.9999999999999997e-05,0.0,-0.00029,0.00037999999999999997,2
5036,5204,8e-05,2e-05,0.00011999999999999999,-1e-05,-2.9999999999999997e-05,0.0,-0.00029,0.00037999999999999997,2
5037,5205,8e-05,2e-05,0.00011999999999999999,-1e-05,-2.9999999999999997e-05,0.0,-0.00029,0.00037999999999999997,2
5038,5206,8e-05,2e-05,0.00011999999999999999,-1e-05,-2.9999999999999997e-05,0.0,-0.00029,0.00037999999999999997,2
5039,5207,4e-05,1e-05,2e-05,-0.00028,4e-05,4e-05,-1e-05,0.00016,2
5040,5208,4e-05,1e-05,2e-05,-0.00028,4e-05,4e-05,-1e-05,0.00016,2
5041,5209,4e-05,1e-05,2e-05,-0.00028,4e-05,4e-05,-1e-05,0.00016,2
5042,5210,4e-05,1e-05,2e-05,-0.00028,4e-05,4e-05,-1e-05,0.00016,2
5043,5211,4e-05,1e-05,2e-05,-0.00028,4e-05,4e-05,-1e-05,0.00016,2
5044,5212,4e-05,1e-05,2e-05,-0.00028,4e-05,4e-05,-1e-05,0.00016,2
5045,5213,4e-05,1e-05,2e-05,-0.00028,4e-05,4e-05,-1e-05,0.00016,2
5046,5214,-8e-05,-5e-05,-9e-05,-0.00029,-0.0001,-1e-05,-0.00022999999999999998,-0.00013000000000000002,2
5047,5215,-8e-05,-5e-05,-9e-05,-0.00029,-0.0001,-1e-05,-0.00022999999999999998,-0.00013000000000000002,2
5048,5216,-8e-05,-5e-05,-9e-05,-0.00029,-0.0001,-1e-05,-0.00022999999999999998,-0.00013000000000000002,2
5049,5217,-8e-05,-5e-05,-9e-05,-0.00029,-0.0001,-1e-05,-0.00022999999999999998,-0.00013000000000000002,2
5050,5218,-8e-05,-5e-05,-9e-05,-0.00029,-0.0001,-1e-05,-0.00022999999999999998,-0.00013000000000000002,2
5051,5219,-8e-05,-5e-05,-9e-05,-0.00029,-0.0001,-1e-05,-0.00022999999999999998,-0.00013000000000000002,2
5052,5220,-8e-05,-5e-05,-9e-05,-0.00029,-0.0001,-1e-05,-0.00022999999999999998,-0.00013000000000000002,2
5053,5221,-8e-05,-5e-05,-9e-05,-0.00029,-0.0001,-1e-05,-0.00022999999999999998,-0.00013000000000000002,2
5054,5222,-8e-05,-5e-05,-9e-05,-0.00029,-0.0001,-1e-05,-0.00022999999999999998,-0.00013000000000000002,2
5055,5223,-8e-05,-5e-05,-9e-05,-0.00029,-0.0001,-1e-05,-0.00022999999999999998,-0.00013000000000000002,2
5056,5224,-8e-05,-5e-05,-9e-05,-0.00029,-0.0001,-1e-05,-0.00022999999999999998,-0.00013000000000000002,2
5057,5225,-8e-05,-5e-05,-9e-05,-0.00029,-0.0001,-1e-05,-0.00022999999999999998,-0.00013000000000000002,2
5058,5226,-8e-05,-5e-05,-9e-05,-0.00029,-0.0001,-1e-05,-0.00022999999999999998,-0.00013000000000000002,2
5059,5227,-8e-05,-5e-05,-9e-05,-0.00029,-0.0001,-1e-05,-0.00022999999999999998,-0.00013000000000000002,2
5060,5228,-8e-05,-5e-05,-9e-05,-0.00029,-0.0001,-1e-05,-0.00022999999999999998,-0.00013000000000000002,2
5061,5229,-8e-05,-5e-05,-9e-05,-0.00029,-0.0001,-1e-05,-0.00022999999999999998,-0.00013000000000000002,2
5062,5230,-8e-05,-5e-05,-9e-05,-0.00029,-0.0001,-1e-05,-0.00022999999999999998,-0.00013000000000000002,2
5063,5231,9e-05,0.0,2.9999999999999997e-05,-0.00022,-1e-05,2e-05,-0.00015,0.00011,2
5064,5232,0.0,-4e-05,-0.00021,-0.00015,1e-05,5.9999999999999995e-05,0.0003,0.00022,2
5065,5233,0.0,-4e-05,-0.00021,-0.00015,1e-05,5.9999999999999995e-05,0.0003,0.00022,2
5066,5234,0.0,-4e-05,-0.00021,-0.00015,1e-05,5.9999999999999995e-05,0.0003,0.00022,2
5067,5235,0.0,-4e-05,-0.00021,-0.00015,1e-05,5.9999999999999995e-05,0.0003,0.00022,2
5068,5236,0.0,-4e-05,-0.00021,-0.00015,1e-05,5.9999999999999995e-05,0.0003,0.00022,2
5069,5238,0.0,-4e-05,-0.00021,-0.00015,1e-05,5.9999999999999995e-05,0.0003,0.00022,2
5070,5239,0.0,-4e-05,-0.00021,-0.00015,1e-05,5.9999999999999995e-05,0.0003,0.00022,2
5071,5240,0.0,-4e-05,-0.00021,-0.00015,1e-05,5.9999999999999995e-05,0.0003,0.00022,2
5072,5241,0.0,-4e-05,-0.00021,-0.00015,1e-05,5.9999999999999995e-05,0.0003,0.00022,2
5073,5242,0.0,-4e-05,-0.00021,-0.00015,1e-05,5.9999999999999995e-05,0.0003,0.00022,2
5074,5243,0.0,-4e-05,-0.00021,-0.00015,1e-05,5.9999999999999995e-05,0.0003,0.00022,2
5075,5244,0.0,-4e-05,-0.00021,-0.00015,1e-05,5.9999999999999995e-05,0.0003,0.00022,2
5076,5245,0.0,-4e-05,-0.00021,-0.00015,1e-05,5.9999999999999995e-05,0.0003,0.00022,2
5077,5246,0.0,-4e-05,-0.00021,-0.00015,1e-05,5.9999999999999995e-05,0.0003,0.00022,2
5078,5247,0.0,-4e-05,-0.00021,-0.00015,1e-05,5.9999999999999995e-05,0.0003,0.00022,2
5079,5248,0.0,-4e-05,-0.00021,-0.00015,1e-05,5.9999999999999995e-05,0.0003,0.00022,2
5080,5249,0.0,-4e-05,-0.00021,-0.00015,1e-05,5.9999999999999995e-05,0.0003,0.00022,2
5081,5250,0.0,-4e-05,-0.00021,-0.00015,1e-05,5.9999999999999995e-05,0.0003,0.00022,2
5082,5251,0.0,-4e-05,-0.00021,-0.00015,1e-05,5.9999999999999995e-05,0.0003,0.00022,2
5083,5252,0.0,-4e-05,-0.00021,-0.00015,1e-05,5.9999999999999995e-05,0.0003,0.00022,2
5084,5253,-5.9999999999999995e-05,-2e-05,-0.00014,-0.00016,-4e-05,-2.9999999999999997e-05,9e-05,-0.0002,2
5085,5254,-5.9999999999999995e-05,-2e-05,-0.00014,-0.00016,-4e-05,-2.9999999999999997e-05,9e-05,-0.0002,2
5086,5255,5e-05,2e-05,2e-05,-0.00013000000000000002,-1e-05,0.00016,0.00026000000000000003,0.00016999999999999999,2
5087,5256,5e-05,2e-05,2e-05,-0.00013000000000000002,-1e-05,0.00016,0.00026000000000000003,0.00016999999999999999,2
5088,5257,5e-05,2e-05,2e-05,-0.00013000000000000002,-1e-05,0.00016,0.00026000000000000003,0.00016999999999999999,2
5089,5258,5e-05,2e-05,2e-05,-0.00013000000000000002,-1e-05,0.00016,0.00026000000000000003,0.00016999999999999999,2
5090,5259,5e-05,2e-05,2e-05,-0.00013000000000000002,-1e-05,0.00016,0.00026000000000000003,0.00016999999999999999,2
5091,5260,5e-05,2e-05,2e-05,-0.00013000000000000002,-1e-05,0.00016,0.00026000000000000003,0.00016999999999999999,2
5092,5261,5e-05,2e-05,2e-05,-0.00013000000000000002,-1e-05,0.00016,0.00026000000000000003,0.00016999999999999999,2
5093,5262,5e-05,2e-05,2e-05,-0.00013000000000000002,-1e-05,0.00016,0.00026000000000000003,0.00016999999999999999,2
5094,5263,5e-05,2e-05,2e-05,-0.00013000000000000002,-1e-05,0.00016,0.00026000000000000003,0.00016999999999999999,2
5095,5264,5e-05,2e-05,2e-05,-0.00013000000000000002,-1e-05,0.00016,0.00026000000000000003,0.00016999999999999999,2
5096,5265,5e-05,2e-05,2e-05,-0.00013000000000000002,-1e-05,0.00016,0.00026000000000000003,0.00016999999999999999,2
5097,5266,5e-05,2e-05,2e-05,-0.00013000000000000002,-1e-05,0.00016,0.00026000000000000003,0.00016999999999999999,2
5098,5267,5e-05,2e-05,2e-05,-0.00013000000000000002,-1e-05,0.00016,0.00026000000000000003,0.00016999999999999999,2
5099,5268,4e-05,2.9999999999999997e-05,0.00014,0.00029,-2e-05,-9e-05,5e-05,5e-05,2
5100,5270,4e-05,2.9999999999999997e-05,0.00014,0.00029,-2e-05,-9e-05,5e-05,5e-05,2
5101,5271,4e-05,2.9999999999999997e-05,0.00014,0.00029,-2e-05,-9e-05,5e-05,5e-05,2
5102,5272,4e-05,2.9999999999999997e-05,0.00014,0.00029,-2e-05,-9e-05,5e-05,5e-05,2
5103,5273,4e-05,2.9999999999999997e-05,0.00014,0.00029,-2e-05,-9e-05,5e-05,5e-05,2
5104,5274,-0.00022,-5.9999999999999995e-05,-9e-05,-0.00049,2e-05,-0.00018,-0.00031,-0.0005,2
5105,5275,-0.00022,-5.9999999999999995e-05,-9e-05,-0.00049,2e-05,-0.00018,-0.00031,-0.0005,2
5106,5276,-0.00022,-5.9999999999999995e-05,-9e-05,-0.00049,2e-05,-0.00018,-0.00031,-0.0005,2
5107,5277,-0.00022,-5.9999999999999995e-05,-9e-05,-0.00049,2e-05,-0.00018,-0.00031,-0.0005,2
5108,5278,-0.00022,-5.9999999999999995e-05,-9e-05,-0.00049,2e-05,-0.00018,-0.00031,-0.0005,2
5109,5279,-0.00022,-5.9999999999999995e-05,-9e-05,-0.00049,2e-05,-0.00018,-0.00031,-0.0005,2
5110,5280,-0.00022,-5.9999999999999995e-05,-9e-05,-0.00049,2e-05,-0.00018,-0.00031,-0.0005,2
5111,5281,-0.00022,-5.9999999999999995e-05,-9e-05,-0.00049,2e-05,-0.00018,-0.00031,-0.0005,2
5112,5282,-0.00022,-5.9999999999999995e-05,-9e-05,-0.00049,2e-05,-0.00018,-0.00031,-0.0005,2
5113,5283,-0.00022,-5.9999999999999995e-05,-9e-05,-0.00049,2e-05,-0.00018,-0.00031,-0.0005,2
5114,5284,-0.00022,-5.9999999999999995e-05,-9e-05,-0.00049,2e-05,-0.00018,-0.00031,-0.0005,2
5115,5285,-0.00022,-5.9999999999999995e-05,-9e-05,-0.00049,2e-05,-0.00018,-0.00031,-0.0005,2
5116,5286,-0.00022,-5.9999999999999995e-05,-9e-05,-0.00049,2e-05,-0.00018,-0.00031,-0.0005,2
5117,5288,-0.00022,-5.9999999999999995e-05,-9e-05,-0.00049,2e-05,-0.00018,-0.00031,-0.0005,2
5118,5289,-0.00022,-5.9999999999999995e-05,-9e-05,-0.00049,2e-05,-0.00018,-0.00031,-0.0005,2
5119,5290,-0.00022,-5.9999999999999995e-05,-9e-05,-0.00049,2e-05,-0.00018,-0.00031,-0.0005,2
5120,5291,-0.00022,-5.9999999999999995e-05,-9e-05,-0.00049,2e-05,-0.00018,-0.00031,-0.0005,2
5121,5292,-0.00022,-5.9999999999999995e-05,-9e-05,-0.00049,2e-05,-0.00018,-0.00031,-0.0005,2
5122,5293,-0.00022,-5.9999999999999995e-05,-9e-05,-0.00049,2e-05,-0.00018,-0.00031,-0.0005,2
5123,5294,-0.00022,-5.9999999999999995e-05,-9e-05,-0.00049,2e-05,-0.00018,-0.00031,-0.0005,2
5124,5295,-0.00022,-5.9999999999999995e-05,-9e-05,-0.00049,2e-05,-0.00018,-0.00031,-0.0005,2
5125,5296,-0.00022,-5.9999999999999995e-05,-9e-05,-0.00049,2e-05,-0.00018,-0.00031,-0.0005,2
5126,5297,-0.00022,-5.9999999999999995e-05,-9e-05,-0.00049,2e-05,-0.00018,-0.00031,-0.0005,2
5127,5298,4e-05,-2e-05,-0.00015,-0.00042,5.9999999999999995e-05,0.00018999999999999998,0.00018999999999999998,-5.9999999999999995e-05,2
5128,5299,4e-05,-2e-05,-0.00015,-0.00042,5.9999999999999995e-05,0.00018999999999999998,0.00018999999999999998,-5.9999999999999995e-05,2
5129,5300,-1e-05,2.9999999999999997e-05,0.00013000000000000002,-0.00011,7e-05,-0.00022,-2.9999999999999997e-05,-0.0002,2
5130,5301,-1e-05,2.9999999999999997e-05,0.00013000000000000002,-0.00011,7e-05,-0.00022,-2.9999999999999997e-05,-0.0002,2
5131,5302,-1e-05,2.9999999999999997e-05,0.00013000000000000002,-0.00011,7e-05,-0.00022,-2.9999999999999997e-05,-0.0002,2
5132,5303,-1e-05,2.9999999999999997e-05,0.00013000000000000002,-0.00011,7e-05,-0.00022,-2.9999999999999997e-05,-0.0002,2
5133,5304,-1e-05,2.9999999999999997e-05,0.00013000000000000002,-0.00011,7e-05,-0.00022,-2.9999999999999997e-05,-0.0002,2
5134,5305,-1e-05,2.9999999999999997e-05,0.00013000000000000002,-0.00011,7e-05,-0.00022,-2.9999999999999997e-05,-0.0002,2
5135,5306,-1e-05,2.9999999999999997e-05,0.00013000000000000002,-0.00011,7e-05,-0.00022,-2.9999999999999997e-05,-0.0002,2
5136,5307,-1e-05,2.9999999999999997e-05,0.00013000000000000002,-0.00011,7e-05,-0.00022,-2.9999999999999997e-05,-0.0002,2
5137,5308,-1e-05,2.9999999999999997e-05,0.00013000000000000002,-0.00011,7e-05,-0.00022,-2.9999999999999997e-05,-0.0002,2
5138,5309,-1e-05,2.9999999999999997e-05,0.00013000000000000002,-0.00011,7e-05,-0.00022,-2.9999999999999997e-05,-0.0002,2
5139,5310,-1e-05,2.9999999999999997e-05,0.00013000000000000002,-0.00011,7e-05,-0.00022,-2.9999999999999997e-05,-0.0002,2
5140,5311,-1e-05,2.9999999999999997e-05,0.00013000000000000002,-0.00011,7e-05,-0.00022,-2.9999999999999997e-05,-0.0002,2
5141,5312,-1e-05,2.9999999999999997e-05,0.00013000000000000002,-0.00011,7e-05,-0.00022,-2.9999999999999997e-05,-0.0002,2
5142,5313,0.0,-1e-05,2e-05,0.0005099999999999999,2e-05,-5e-05,7e-05,0.00016999999999999999,2
5143,5314,0.0,-1e-05,2e-05,0.0005099999999999999,2e-05,-5e-05,7e-05,0.00016999999999999999,2
5144,5315,4e-05,-1e-05,5.9999999999999995e-05,0.00055,2e-05,-5e-05,-0.00035,0.0,2
