,time,channel1,channel2,channel3,channel4,channel5,channel6,channel7,channel8,class
5721,6119,0.0,1e-05,4e-05,0.00032,0.00056,-0.00063,-0.00055,-0.00014,2
5722,6120,0.0,1e-05,4e-05,0.00032,0.00056,-0.00063,-0.00055,-0.00014,2
5723,6121,0.0,1e-05,4e-05,0.00032,0.00056,-0.00063,-0.00055,-0.00014,2
5724,6122,0.0,1e-05,4e-05,0.00032,0.00056,-0.00063,-0.00055,-0.00014,2
5725,6123,0.0,1e-05,4e-05,0.00032,0.00056,-0.00063,-0.00055,-0.00014,2
5726,6124,0.0,1e-05,4e-05,0.00032,0.00056,-0.00063,-0.00055,-0.00014,2
5727,6125,0.0,1e-05,4e-05,0.00032,0.00056,-0.00063,-0.00055,-0.00014,2
5728,6126,0.0,1e-05,4e-05,0.00032,0.00056,-0.00063,-0.00055,-0.00014,2
5729,6127,0.0,1e-05,4e-05,0.00032,0.00056,-0.00063,-0.00055,-0.00014,2
5730,6128,0.0,1e-05,4e-05,0.00032,0.00056,-0.00063,-0.00055,-0.00014,2
5731,6129,0.0,1e-05,4e-05,0.00032,0.00056,-0.00063,-0.00055,-0.00014,2
5732,6130,0.0,1e-05,4e-05,0.00032,0.00056,-0.00063,-0.00055,-0.00014,2
5733,6131,0.0,1e-05,4e-05,0.00032,0.00056,-0.00063,-0.00055,-0.00014,2
5734,6132,0.0,1e-05,4e-05,0.00032,0.00056,-0.00063,-0.00055,-0.00014,2
5735,6133,0.0,1e-05,4e-05,0.00032,0.00056,-0.00063,-0.00055,-0.00014,2
5736,6134,-0.00018,-0.00011,-0.00015,0.00018999999999999998,0.00026000000000000003,0.00016,0.00031,9e-05,2
5737,6135,-0.00018,-0.00011,-0.00015,0.00018999999999999998,0.00026000000000000003,0.00016,0.00031,9e-05,2
5738,6136,-0.00018,-0.00011,-0.00015,0.00018999999999999998,0.00026000000000000003,0.00016,0.00031,9e-05,2
5739,6138,-0.00018,-0.00011,-0.00015,0.00018999999999999998,0.00026000000000000003,0.00016,0.00031,9e-05,2
5740,6139,-0.00018,-0.00011,-0.00015,0.00018999999999999998,0.00026000000000000003,0.00016,0.00031,9e-05,2
5741,6140,-0.00018,-0.00011,-0.00015,0.00018999999999999998,0.00026000000000000003,0.00016,0.00031,9e-05,2
5742,6141,-0.00018,-0.00011,-0.00015,0.00018999999999999998,0.00026000000000000003,0.00016,0.00031,9e-05,2
5743,6142,-0.00011,-0.00016999999999999999,-0.00045,0.00022999999999999998,0.00033,0.0,0.00011999999999999999,-2e-05,2
5744,6143,-0.00011,-0.00016999999999999999,-0.00045,0.00022999999999999998,0.00033,0.0,0.00011999999999999999,-2e-05,2
5745,6144,-0.00011,-0.00016999999999999999,-0.00045,0.00022999999999999998,0.00033,0.0,0.00011999999999999999,-2e-05,2
5746,6145,-0.00011,-0.00016999999999999999,-0.00045,0.00022999999999999998,0.00033,0.0,0.00011999999999999999,-2e-05,2
5747,6146,-0.00011,-0.00016999999999999999,-0.00045,0.00022999999999999998,0.00033,0.0,0.00011999999999999999,-2e-05,2
5748,6147,-0.00011,-0.00016999999999999999,-0.00045,0.00022999999999999998,0.00033,0.0,0.00011999999999999999,-2e-05,2
5749,6148,-0.00011,-0.00016999999999999999,-0.00045,0.00022999999999999998,0.00033,0.0,0.00011999999999999999,-2e-05,2
5750,6149,-0.00011,-0.00016999999999999999,-0.00045,0.00022999999999999998,0.00033,0.0,0.00011999999999999999,-2e-05,2
5751,6151,-0.00011,-0.00016999999999999999,-0.00045,0.00022999999999999998,0.00033,0.0,0.00011999999999999999,-2e-05,2
5752,6152,-0.00011,-0.00016999999999999999,-0.00045,0.00022999999999999998,0.00033,0.0,0.00011999999999999999,-2e-05,2
5753,6153,-0.00011,-0.00016999999999999999,-0.00045,0.00022999999999999998,0.00033,0.0,0.00011999999999999999,-2e-05,2
5754,6154,-0.00011,-0.00016999999999999999,-0.00045,0.00022999999999999998,0.00033,0.0,0.00011999999999999999,-2e-05,2
5755,6155,-0.00011,-0.00016999999999999999,-0.00045,0.00022999999999999998,0.00033,0.0,0.00011999999999999999,-2e-05,2
5756,6156,-0.00011,-0.00016999999999999999,-0.00045,0.00022999999999999998,0.00033,0.0,0.00011999999999999999,-2e-05,2
5757,6157,0.00011999999999999999,7e-05,-7e-05,-0.00014,4e-05,0.0001,-5e-05,2e-05,2
5758,6158,0.00011999999999999999,7e-05,-7e-05,-0.00014,4e-05,0.0001,-5e-05,2e-05,2
5759,6159,0.00011999999999999999,7e-05,-7e-05,-0.00014,4e-05,0.0001,-5e-05,2e-05,2
5760,6160,0.00011999999999999999,7e-05,-7e-05,-0.00014,4e-05,0.0001,-5e-05,2e-05,2
5761,6161,0.00011999999999999999,7e-05,-7e-05,-0.00014,4e-05,0.0001,-5e-05,2e-05,2
5762,6162,0.00011999999999999999,7e-05,-7e-05,-0.00014,4e-05,0.0001,-5e-05,2e-05,2
5763,6163,0.00011999999999999999,7e-05,-7e-05,-0.00014,4e-05,0.0001,-5e-05,2e-05,2
5764,6164,0.00011999999999999999,7e-05,-7e-05,-0.00014,4e-05,0.0001,-5e-05,2e-05,2
5765,6165,-4e-05,-1e-05,0.0001,-0.00022999999999999998,-0.00031,-0.0005200000000000001,-9e-05,-5e-05,2
5766,6166,-4e-05,-1e-05,0.0001,-0.00022999999999999998,-0.00031,-0.0005200000000000001,-9e-05,-5e-05,2
5767,6167,-4e-05,-1e-05,0.0001,-0.00022999999999999998,-0.00031,-0.0005200000000000001,-9e-05,-5e-05,2
5768,6168,-4e-05,-1e-05,0.0001,-0.00022999999999999998,-0.00031,-0.0005200000000000001,-9e-05,-5e-05,2
5769,6169,-4e-05,-1e-05,0.0001,-0.00022999999999999998,-0.00031,-0.0005200000000000001,-9e-05,-5e-05,2
5770,6170,-4e-05,-1e-05,0.0001,-0.00022999999999999998,-0.00031,-0.0005200000000000001,-9e-05,-5e-05,2
5771,6171,-4e-05,-1e-05,0.0001,-0.00022999999999999998,-0.00031,-0.0005200000000000001,-9e-05,-5e-05,2
5772,6172,-4e-05,-1e-05,0.0001,-0.00022999999999999998,-0.00031,-0.0005200000000000001,-9e-05,-5e-05,2
5773,6173,1e-05,-1e-05,8e-05,-0.00011,0.0001,0.0,-0.00025,7e-05,2
5774,6174,1e-05,-1e-05,8e-05,-0.00011,0.0001,0.0,-0.00025,7e-05,2
5775,6175,1e-05,-1e-05,8e-05,-0.00011,0.0001,0.0,-0.00025,7e-05,2
5776,6176,1e-05,-1e-05,8e-05,-0.00011,0.0001,0.0,-0.00025,7e-05,2
5777,6177,1e-05,-1e-05,8e-05,-0.00011,0.0001,0.0,-0.00025,7e-05,2
5778,6178,1e-05,-1e-05,8e-05,-0.00011,0.0001,0.0,-0.00025,7e-05,2
5779,6179,-0.00016999999999999999,-4e-05,0.0,-0.00014,-0.00044,-0.00054,-0.00037999999999999997,-0.00032,2
5780,6180,-0.00027,4e-05,-7e-05,-0.00039,0.00014,0.00016999999999999999,-0.0005099999999999999,-0.00021,2
5781,6181,-0.00027,4e-05,-7e-05,-0.00039,0.00014,0.00016999999999999999,-0.0005099999999999999,-0.00021,2
5782,6182,-0.00027,4e-05,-7e-05,-0.00039,0.00014,0.00016999999999999999,-0.0005099999999999999,-0.00021,2
5783,6183,-0.00027,4e-05,-7e-05,-0.00039,0.00014,0.00016999999999999999,-0.0005099999999999999,-0.00021,2
5784,6184,-0.00027,4e-05,-7e-05,-0.00039,0.00014,0.00016999999999999999,-0.0005099999999999999,-0.00021,2
5785,6185,-0.00027,4e-05,-7e-05,-0.00039,0.00014,0.00016999999999999999,-0.0005099999999999999,-0.00021,2
5786,6186,-0.00027,4e-05,-7e-05,-0.00039,0.00014,0.00016999999999999999,-0.0005099999999999999,-0.00021,2
5787,6188,-0.00027,4e-05,-7e-05,-0.00039,0.00014,0.00016999999999999999,-0.0005099999999999999,-0.00021,2
5788,6189,-0.00027,4e-05,-7e-05,-0.00039,0.00014,0.00016999999999999999,-0.0005099999999999999,-0.00021,2
5789,6190,-0.00027,4e-05,-7e-05,-0.00039,0.00014,0.00016999999999999999,-0.0005099999999999999,-0.00021,2
5790,6191,-0.00027,4e-05,-7e-05,-0.00039,0.00014,0.00016999999999999999,-0.0005099999999999999,-0.00021,2
5791,6192,-0.00027,4e-05,-7e-05,-0.00039,0.00014,0.00016999999999999999,-0.0005099999999999999,-0.00021,2
5792,6193,-0.00027,4e-05,-7e-05,-0.00039,0.00014,0.00016999999999999999,-0.0005099999999999999,-0.00021,2
5793,6194,-0.00036,-0.00023999999999999998,-0.00016,-7e-05,0.0002,-0.00016,-0.00037999999999999997,-0.00026000000000000003,2
5794,6195,-0.00036,-0.00023999999999999998,-0.00016,-7e-05,0.0002,-0.00016,-0.00037999999999999997,-0.00026000000000000003,2
5795,6196,-0.00036,-0.00023999999999999998,-0.00016,-7e-05,0.0002,-0.00016,-0.00037999999999999997,-0.00026000000000000003,2
5796,6197,-0.00036,-0.00023999999999999998,-0.00016,-7e-05,0.0002,-0.00016,-0.00037999999999999997,-0.00026000000000000003,2
5797,6198,-0.00036,-0.00023999999999999998,-0.00016,-7e-05,0.0002,-0.00016,-0.00037999999999999997,-0.00026000000000000003,2
5798,6199,-0.00036,-0.00023999999999999998,-0.00016,-7e-05,0.0002,-0.00016,-0.00037999999999999997,-0.00026000000000000003,2
5799,6200,-0.00036,-0.00023999999999999998,-0.00016,-7e-05,0.0002,-0.00016,-0.00037999999999999997,-0.00026000000000000003,2
5800,6201,-0.00036,-0.00023999999999999998,-0.00016,-7e-05,0.0002,-0.00016,-0.00037999999999999997,-0.00026000000000000003,2
5801,6202,0.00018999999999999998,0.00013000000000000002,0.0001,-1e-05,-0.00021,0.00037999999999999997,0.00018999999999999998,7e-05,2
5802,6203,0.00018999999999999998,0.00013000000000000002,0.0001,-1e-05,-0.00021,0.00037999999999999997,0.00018999999999999998,7e-05,2
5803,6204,0.00018999999999999998,0.00013000000000000002,0.0001,-1e-05,-0.00021,0.00037999999999999997,0.00018999999999999998,7e-05,2
5804,6205,0.00018999999999999998,0.00013000000000000002,0.0001,-1e-05,-0.00021,0.00037999999999999997,0.00018999999999999998,7e-05,2
5805,6206,0.00018999999999999998,0.00013000000000000002,0.0001,-1e-05,-0.00021,0.00037999999999999997,0.00018999999999999998,7e-05,2
5806,6207,0.00018999999999999998,0.00013000000000000002,0.0001,-1e-05,-0.00021,0.00037999999999999997,0.00018999999999999998,7e-05,2
5807,6208,0.00018999999999999998,0.00013000000000000002,0.0001,-1e-05,-0.00021,0.00037999999999999997,0.00018999999999999998,7e-05,2
5808,6209,0.00018999999999999998,0.00013000000000000002,0.0001,-1e-05,-0.00021,0.00037999999999999997,0.00018999999999999998,7e-05,2
5809,6210,0.00018999999999999998,0.00013000000000000002,0.0001,-1e-05,-0.00021,0.00037999999999999997,0.00018999999999999998,7e-05,2
5810,6211,0.00018999999999999998,0.00013000000000000002,0.0001,-1e-05,-0.00021,0.00037999999999999997,0.00018999999999999998,7e-05,2
5811,6212,0.00018999999999999998,0.00013000000000000002,0.0001,-1e-05,-0.00021,0.00037999999999999997,0.00018999999999999998,7e-05,2
5812,6213,0.00018999999999999998,0.00013000000000000002,0.0001,-1e-05,-0.00021,0.00037999999999999997,0.00018999999999999998,7e-05,2
5813,6214,0.00018999999999999998,0.00013000000000000002,0.0001,-1e-05,-0.00021,0.00037999999999999997,0.00018999999999999998,7e-05,2
5814,6215,0.00018999999999999998,0.00013000000000000002,0.0001,-1e-05,-0.00021,0.00037999999999999997,0.00018999999999999998,7e-05,2
5815,6216,0.00018999999999999998,0.00013000000000000002,0.0001,-1e-05,-0.00021,0.00037999999999999997,0.00018999999999999998,7e-05,2
5816,6217,-0.00015,-7e-05,-0.00011999999999999999,-0.00033999999999999997,-0.00022,0.00033999999999999997,0.00044,9e-05,2
5817,6218,-0.00015,-7e-05,-0.00011999999999999999,-0.00033999999999999997,-0.00022,0.00033999999999999997,0.00044,9e-05,2
5818,6219,-0.00015,-7e-05,-0.00011999999999999999,-0.00033999999999999997,-0.00022,0.00033999999999999997,0.00044,9e-05,2
5819,6220,-0.00015,-7e-05,-0.00011999999999999999,-0.00033999999999999997,-0.00022,0.00033999999999999997,0.00044,9e-05,2
5820,6221,-0.00015,-7e-05,-0.00011999999999999999,-0.00033999999999999997,-0.00022,0.00033999999999999997,0.00044,9e-05,2
5821,6222,-0.00015,-7e-05,-0.00011999999999999999,-0.00033999999999999997,-0.00022,0.00033999999999999997,0.00044,9e-05,2
5822,6223,-0.00015,-7e-05,-0.00011999999999999999,-0.00033999999999999997,-0.00022,0.00033999999999999997,0.00044,9e-05,2
5823,6224,-0.00015,-7e-05,-0.00011999999999999999,-0.00033999999999999997,-0.00022,0.00033999999999999997,0.00044,9e-05,2
5824,6225,5e-05,-0.00011999999999999999,-0.00015,1e-05,-0.0002,-0.00049,-2.9999999999999997e-05,-0.0001,2
5825,6226,5e-05,-0.00011999999999999999,-0.00015,1e-05,-0.0002,-0.00049,-2.9999999999999997e-05,-0.0001,2
5826,6227,5e-05,-0.00011999999999999999,-0.00015,1e-05,-0.0002,-0.00049,-2.9999999999999997e-05,-0.0001,2
5827,6228,5e-05,-0.00011999999999999999,-0.00015,1e-05,-0.0002,-0.00049,-2.9999999999999997e-05,-0.0001,2
5828,6229,5e-05,-0.00011999999999999999,-0.00015,1e-05,-0.0002,-0.00049,-2.9999999999999997e-05,-0.0001,2
5829,6230,5e-05,-0.00011999999999999999,-0.00015,1e-05,-0.0002,-0.00049,-2.9999999999999997e-05,-0.0001,2
5830,6231,5e-05,-0.00011999999999999999,-0.00015,1e-05,-0.0002,-0.00049,-2.9999999999999997e-05,-0.0001,2
5831,6232,5e-05,-0.00011999999999999999,-0.00015,1e-05,-0.0002,-0.00049,-2.9999999999999997e-05,-0.0001,2
5832,6233,5e-05,-0.00011999999999999999,-0.00015,1e-05,-0.0002,-0.00049,-2.9999999999999997e-05,-0.0001,2
5833,6234,5e-05,-0.00011999999999999999,-0.00015,1e-05,-0.0002,-0.00049,-2.9999999999999997e-05,-0.0001,2
5834,6235,5e-05,-0.00011999999999999999,-0.00015,1e-05,-0.0002,-0.00049,-2.9999999999999997e-05,-0.0001,2
5835,6236,5e-05,-0.00011999999999999999,-0.00015,1e-05,-0.0002,-0.00049,-2.9999999999999997e-05,-0.0001,2
5836,6238,5e-05,-0.00011999999999999999,-0.00015,1e-05,-0.0002,-0.00049,-2.9999999999999997e-05,-0.0001,2
5837,6239,5e-05,-0.00011999999999999999,-0.00015,1e-05,-0.0002,-0.00049,-2.9999999999999997e-05,-0.0001,2
5838,6240,0.00042,-4e-05,-0.00016999999999999999,-0.00022999999999999998,2.9999999999999997e-05,0.00022999999999999998,-5.9999999999999995e-05,0.00025,2
5839,6241,-5e-05,-4e-05,0.00015,-0.00018,-0.00022,0.00011,-0.00014,-4e-05,2
5840,6242,-5e-05,-4e-05,0.00015,-0.00018,-0.00022,0.00011,-0.00014,-4e-05,2
5841,6243,-5e-05,-4e-05,0.00015,-0.00018,-0.00022,0.00011,-0.00014,-4e-05,2
5842,6244,-5e-05,-4e-05,0.00015,-0.00018,-0.00022,0.00011,-0.00014,-4e-05,2
5843,6245,-5e-05,-4e-05,0.00015,-0.00018,-0.00022,0.00011,-0.00014,-4e-05,2
5844,6246,-5e-05,-4e-05,0.00015,-0.00018,-0.00022,0.00011,-0.00014,-4e-05,2
5845,6247,-5e-05,-4e-05,0.00015,-0.00018,-0.00022,0.00011,-0.00014,-4e-05,2
5846,6248,-5e-05,-4e-05,0.00015,-0.00018,-0.00022,0.00011,-0.00014,-4e-05,2
5847,6249,-5e-05,-4e-05,0.00015,-0.00018,-0.00022,0.00011,-0.00014,-4e-05,2
5848,6250,-5e-05,-4e-05,0.00015,-0.00018,-0.00022,0.00011,-0.00014,-4e-05,2
5849,6251,-5e-05,-4e-05,0.00015,-0.00018,-0.00022,0.00011,-0.00014,-4e-05,2
5850,6252,-5e-05,-4e-05,0.00015,-0.00018,-0.00022,0.00011,-0.00014,-4e-05,2
5851,6253,-5e-05,-4e-05,0.00015,-0.00018,-0.00022,0.00011,-0.00014,-4e-05,2
5852,6254,0.00023999999999999998,0.0001,0.00035,0.00049,0.00022,-0.00018,-5e-05,2e-05,2
5853,6255,0.00023999999999999998,0.0001,0.00035,0.00049,0.00022,-0.00018,-5e-05,2e-05,2
5854,6256,0.00023999999999999998,0.0001,0.00035,0.00049,0.00022,-0.00018,-5e-05,2e-05,2
5855,6257,0.00023999999999999998,0.0001,0.00035,0.00049,0.00022,-0.00018,-5e-05,2e-05,2
5856,6258,0.00023999999999999998,0.0001,0.00035,0.00049,0.00022,-0.00018,-5e-05,2e-05,2
5857,6259,0.00023999999999999998,0.0001,0.00035,0.00049,0.00022,-0.00018,-5e-05,2e-05,2
5858,6260,0.00023999999999999998,0.0001,0.00035,0.00049,0.00022,-0.00018,-5e-05,2e-05,2
5859,6261,0.00023999999999999998,0.0001,0.00035,0.00049,0.00022,-0.00018,-5e-05,2e-05,2
5860,6262,-4e-05,1e-05,0.0,9e-05,0.0006,0.0002,7e-05,-5.9999999999999995e-05,2
5861,6263,-4e-05,1e-05,0.0,9e-05,0.0006,0.0002,7e-05,-5.9999999999999995e-05,2
5862,6264,-4e-05,1e-05,0.0,9e-05,0.0006,0.0002,7e-05,-5.9999999999999995e-05,2
5863,6265,-4e-05,1e-05,0.0,9e-05,0.0006,0.0002,7e-05,-5.9999999999999995e-05,2
5864,6266,-4e-05,1e-05,0.0,9e-05,0.0006,0.0002,7e-05,-5.9999999999999995e-05,2
5865,6267,-4e-05,1e-05,0.0,9e-05,0.0006,0.0002,7e-05,-5.9999999999999995e-05,2
5866,6268,-4e-05,1e-05,0.0,9e-05,0.0006,0.0002,7e-05,-5.9999999999999995e-05,2
5867,6269,-4e-05,1e-05,0.0,9e-05,0.0006,0.0002,7e-05,-5.9999999999999995e-05,2
5868,6270,-4e-05,1e-05,0.0,9e-05,0.0006,0.0002,7e-05,-5.9999999999999995e-05,2
5869,6271,-4e-05,1e-05,0.0,9e-05,0.0006,0.0002,7e-05,-5.9999999999999995e-05,2
5870,6272,-4e-05,1e-05,0.0,9e-05,0.0006,0.0002,7e-05,-5.9999999999999995e-05,2
5871,6273,-4e-05,1e-05,0.0,9e-05,0.0006,0.0002,7e-05,-5.9999999999999995e-05,2
5872,6274,-4e-05,1e-05,0.0,9e-05,0.0006,0.0002,7e-05,-5.9999999999999995e-05,2
5873,6275,-4e-05,1e-05,0.0,9e-05,0.0006,0.0002,7e-05,-5.9999999999999995e-05,2
5874,6276,-4e-05,1e-05,0.0,9e-05,0.0006,0.0002,7e-05,-5.9999999999999995e-05,2
5875,6277,-7e-05,2e-05,-0.00018999999999999998,0.0,5.9999999999999995e-05,0.00025,0.00055,5.9999999999999995e-05,2
5876,6278,-7e-05,2e-05,-0.00018999999999999998,0.0,5.9999999999999995e-05,0.00025,0.00055,5.9999999999999995e-05,2
5877,6279,-7e-05,2e-05,-0.00018999999999999998,0.0,5.9999999999999995e-05,0.00025,0.00055,5.9999999999999995e-05,2
5878,6280,-7e-05,2e-05,-0.00018999999999999998,0.0,5.9999999999999995e-05,0.00025,0.00055,5.9999999999999995e-05,2
5879,6281,-7e-05,2e-05,-0.00018999999999999998,0.0,5.9999999999999995e-05,0.00025,0.00055,5.9999999999999995e-05,2
5880,6282,-7e-05,2e-05,-0.00018999999999999998,0.0,5.9999999999999995e-05,0.00025,0.00055,5.9999999999999995e-05,2
5881,6283,-7e-05,2e-05,-0.00018999999999999998,0.0,5.9999999999999995e-05,0.00025,0.00055,5.9999999999999995e-05,2
5882,6284,-7e-05,2e-05,-0.00018999999999999998,0.0,5.9999999999999995e-05,0.00025,0.00055,5.9999999999999995e-05,2
5883,6285,-0.00026000000000000003,-0.00011999999999999999,-0.00018999999999999998,-0.00043,-0.00039,-0.0004,-0.00028,-0.00011,2
5884,6286,-0.00026000000000000003,-0.00011999999999999999,-0.00018999999999999998,-0.00043,-0.00039,-0.0004,-0.00028,-0.00011,2
5885,6288,-0.00026000000000000003,-0.00011999999999999999,-0.00018999999999999998,-0.00043,-0.00039,-0.0004,-0.00028,-0.00011,2
5886,6289,-0.00026000000000000003,-0.00011999999999999999,-0.00018999999999999998,-0.00043,-0.00039,-0.0004,-0.00028,-0.00011,2
5887,6290,-0.00026000000000000003,-0.00011999999999999999,-0.00018999999999999998,-0.00043,-0.00039,-0.0004,-0.00028,-0.00011,2
5888,6291,-0.00026000000000000003,-0.00011999999999999999,-0.00018999999999999998,-0.00043,-0.00039,-0.0004,-0.00028,-0.00011,2
5889,6292,-0.00026000000000000003,-0.00011999999999999999,-0.00018999999999999998,-0.00043,-0.00039,-0.0004,-0.00028,-0.00011,2
5890,6294,-0.00026000000000000003,-0.00011999999999999999,-0.00018999999999999998,-0.00043,-0.00039,-0.0004,-0.00028,-0.00011,2
5891,6295,-0.00026000000000000003,-0.00011999999999999999,-0.00018999999999999998,-0.00043,-0.00039,-0.0004,-0.00028,-0.00011,2
5892,6296,-0.00026000000000000003,-0.00011999999999999999,-0.00018999999999999998,-0.00043,-0.00039,-0.0004,-0.00028,-0.00011,2
5893,6297,-0.00026000000000000003,-0.00011999999999999999,-0.00018999999999999998,-0.00043,-0.00039,-0.0004,-0.00028,-0.00011,2
5894,6298,-0.00026000000000000003,-0.00011999999999999999,-0.00018999999999999998,-0.00043,-0.00039,-0.0004,-0.00028,-0.00011,2
5895,6299,-0.00026000000000000003,-0.00011999999999999999,-0.00018999999999999998,-0.00043,-0.00039,-0.0004,-0.00028,-0.00011,2
5896,6300,5.9999999999999995e-05,0.00016,0.00018999999999999998,-5e-05,4e-05,-0.00018999999999999998,0.00016,5.9999999999999995e-05,2
5897,6301,0.00035,0.00013000000000000002,0.00036,0.00072,-1e-05,0.00011,0.0003,0.00031,2
5898,6302,0.00035,0.00013000000000000002,0.00036,0.00072,-1e-05,0.00011,0.0003,0.00031,2
5899,6303,0.00035,0.00013000000000000002,0.00036,0.00072,-1e-05,0.00011,0.0003,0.00031,2
5900,6304,0.00035,0.00013000000000000002,0.00036,0.00072,-1e-05,0.00011,0.0003,0.00031,2
5901,6305,0.00035,0.00013000000000000002,0.00036,0.00072,-1e-05,0.00011,0.0003,0.00031,2
5902,6306,0.00035,0.00013000000000000002,0.00036,0.00072,-1e-05,0.00011,0.0003,0.00031,2
5903,6307,0.00035,0.00013000000000000002,0.00036,0.00072,-1e-05,0.00011,0.0003,0.00031,2
5904,6308,0.00035,0.00013000000000000002,0.00036,0.00072,-1e-05,0.00011,0.0003,0.00031,2
5905,6309,0.00035,0.00013000000000000002,0.00036,0.00072,-1e-05,0.00011,0.0003,0.00031,2
5906,6310,0.00035,0.00013000000000000002,0.00036,0.00072,-1e-05,0.00011,0.0003,0.00031,2
5907,6311,0.00035,0.00013000000000000002,0.00036,0.00072,-1e-05,0.00011,0.0003,0.00031,2
5908,6312,0.00035,0.00013000000000000002,0.00036,0.00072,-1e-05,0.00011,0.0003,0.00031,2
5909,6313,0.00035,0.00013000000000000002,0.00036,0.00072,-1e-05,0.00011,0.0003,0.00031,2
5910,6314,-0.00043,-2e-05,4e-05,2e-05,-0.00045,-0.00039,-0.00045999999999999996,-0.00036,2
5911,6315,-0.00043,-2e-05,4e-05,2e-05,-0.00045,-0.00039,-0.00045999999999999996,-0.00036,2
5912,6316,-0.00043,-2e-05,4e-05,2e-05,-0.00045,-0.00039,-0.00045999999999999996,-0.00036,2
5913,6317,-0.00043,-2e-05,4e-05,2e-05,-0.00045,-0.00039,-0.00045999999999999996,-0.00036,2
5914,6318,-0.00043,-2e-05,4e-05,2e-05,-0.00045,-0.00039,-0.00045999999999999996,-0.00036,2
5915,6319,-0.00043,-2e-05,4e-05,2e-05,-0.00045,-0.00039,-0.00045999999999999996,-0.00036,2
5916,6320,-0.00043,-2e-05,4e-05,2e-05,-0.00045,-0.00039,-0.00045999999999999996,-0.00036,2
5917,6321,-0.00043,-2e-05,4e-05,2e-05,-0.00045,-0.00039,-0.00045999999999999996,-0.00036,2
5918,6322,-0.00011,-0.00014,-0.00049,-0.00056,0.00062,-2.9999999999999997e-05,-5e-05,-0.00015,2
5919,6323,-0.00011,-0.00014,-0.00049,-0.00056,0.00062,-2.9999999999999997e-05,-5e-05,-0.00015,2
5920,6324,-0.00011,-0.00014,-0.00049,-0.00056,0.00062,-2.9999999999999997e-05,-5e-05,-0.00015,2
5921,6325,-0.00011,-0.00014,-0.00049,-0.00056,0.00062,-2.9999999999999997e-05,-5e-05,-0.00015,2
5922,6326,-0.00011,-0.00014,-0.00049,-0.00056,0.00062,-2.9999999999999997e-05,-5e-05,-0.00015,2
5923,6327,-0.00011,-0.00014,-0.00049,-0.00056,0.00062,-2.9999999999999997e-05,-5e-05,-0.00015,2
5924,6328,-0.00011,-0.00014,-0.00049,-0.00056,0.00062,-2.9999999999999997e-05,-5e-05,-0.00015,2
5925,6329,-0.00011,-0.00014,-0.00049,-0.00056,0.00062,-2.9999999999999997e-05,-5e-05,-0.00015,2
5926,6330,-0.00011,-0.00014,-0.00049,-0.00056,0.00062,-2.9999999999999997e-05,-5e-05,-0.00015,2
5927,6331,-0.00011,-0.00014,-0.00049,-0.00056,0.00062,-2.9999999999999997e-05,-5e-05,-0.00015,2
5928,6332,-0.00011,-0.00014,-0.00049,-0.00056,0.00062,-2.9999999999999997e-05,-5e-05,-0.00015,2
5929,6333,-0.00011,-0.00014,-0.00049,-0.00056,0.00062,-2.9999999999999997e-05,-5e-05,-0.00015,2
5930,6334,-0.00011,-0.00014,-0.00049,-0.00056,0.00062,-2.9999999999999997e-05,-5e-05,-0.00015,2
5931,6335,-0.00011,-0.00014,-0.00049,-0.00056,0.00062,-2.9999999999999997e-05,-5e-05,-0.00015,2
5932,6336,-0.00011,-0.00014,-0.00049,-0.00056,0.00062,-2.9999999999999997e-05,-5e-05,-0.00015,2
5933,6338,-0.00011,-0.00014,-0.00049,-0.00056,0.00062,-2.9999999999999997e-05,-5e-05,-0.00015,2
5934,6339,-0.00011,-0.00014,-0.00049,-0.00056,0.00062,-2.9999999999999997e-05,-5e-05,-0.00015,2
5935,6340,-0.00011,-0.00014,-0.00049,-0.00056,0.00062,-2.9999999999999997e-05,-5e-05,-0.00015,2
5936,6341,-0.00011,-0.00014,-0.00049,-0.00056,0.00062,-2.9999999999999997e-05,-5e-05,-0.00015,2
5937,6343,-0.00011,-0.00014,-0.00049,-0.00056,0.00062,-2.9999999999999997e-05,-5e-05,-0.00015,2
5938,6344,-0.00011,-0.00014,-0.00049,-0.00056,0.00062,-2.9999999999999997e-05,-5e-05,-0.00015,2
5939,6345,-0.00011,-0.00014,-0.00049,-0.00056,0.00062,-2.9999999999999997e-05,-5e-05,-0.00015,2
5940,6346,-1e-05,-4e-05,-0.0001,0.00018999999999999998,-0.00049,-0.0002,0.00011999999999999999,-5e-05,2
5941,6347,-1e-05,-4e-05,-0.0001,0.00018999999999999998,-0.00049,-0.0002,0.00011999999999999999,-5e-05,2
5942,6348,-1e-05,-4e-05,-0.0001,0.00018999999999999998,-0.00049,-0.0002,0.00011999999999999999,-5e-05,2
5943,6349,-1e-05,-4e-05,-0.0001,0.00018999999999999998,-0.00049,-0.0002,0.00011999999999999999,-5e-05,2
5944,6350,-1e-05,-4e-05,-0.0001,0.00018999999999999998,-0.00049,-0.0002,0.00011999999999999999,-5e-05,2
5945,6351,-1e-05,-4e-05,-0.0001,0.00018999999999999998,-0.00049,-0.0002,0.00011999999999999999,-5e-05,2
5946,6353,-1e-05,-4e-05,-0.0001,0.00018999999999999998,-0.00049,-0.0002,0.00011999999999999999,-5e-05,2
5947,6354,-1e-05,-4e-05,-0.0001,0.00018999999999999998,-0.00049,-0.0002,0.00011999999999999999,-5e-05,2
5948,6355,-1e-05,-4e-05,-0.0001,0.00018999999999999998,-0.00049,-0.0002,0.00011999999999999999,-5e-05,2
5949,6356,-1e-05,-4e-05,-0.0001,0.00018999999999999998,-0.00049,-0.0002,0.00011999999999999999,-5e-05,2
5950,6357,-1e-05,-4e-05,-0.0001,0.00018999999999999998,-0.00049,-0.0002,0.00011999999999999999,-5e-05,2
5951,6358,-1e-05,-4e-05,-0.0001,0.00018999999999999998,-0.00049,-0.0002,0.00011999999999999999,-5e-05,2
5952,6359,-1e-05,-4e-05,-0.0001,0.00018999999999999998,-0.00049,-0.0002,0.00011999999999999999,-5e-05,2
5953,6360,-0.00022999999999999998,-5e-05,-9e-05,8e-05,4e-05,-0.00022,-0.00015,-0.00013000000000000002,2
5954,6361,-1e-05,2.9999999999999997e-05,-4e-05,-0.00056,-0.00037,-0.00037999999999999997,-0.00037999999999999997,1e-05,2
5955,6362,-1e-05,2.9999999999999997e-05,-4e-05,-0.00056,-0.00037,-0.00037999999999999997,-0.00037999999999999997,1e-05,2
5956,6363,-1e-05,2.9999999999999997e-05,-4e-05,-0.00056,-0.00037,-0.00037999999999999997,-0.00037999999999999997,1e-05,2
5957,6364,-1e-05,2.9999999999999997e-05,-4e-05,-0.00056,-0.00037,-0.00037999999999999997,-0.00037999999999999997,1e-05,2
5958,6365,-1e-05,2.9999999999999997e-05,-4e-05,-0.00056,-0.00037,-0.00037999999999999997,-0.00037999999999999997,1e-05,2
5959,6366,-1e-05,2.9999999999999997e-05,-4e-05,-0.00056,-0.00037,-0.00037999999999999997,-0.00037999999999999997,1e-05,2
5960,6367,-1e-05,2.9999999999999997e-05,-4e-05,-0.00056,-0.00037,-0.00037999999999999997,-0.00037999999999999997,1e-05,2
5961,6368,-1e-05,2.9999999999999997e-05,-4e-05,-0.00056,-0.00037,-0.00037999999999999997,-0.00037999999999999997,1e-05,2
5962,6369,-1e-05,2.9999999999999997e-05,-4e-05,-0.00056,-0.00037,-0.00037999999999999997,-0.00037999999999999997,1e-05,2
5963,6370,-1e-05,2.9999999999999997e-05,-4e-05,-0.00056,-0.00037,-0.00037999999999999997,-0.00037999999999999997,1e-05,2
5964,6371,-1e-05,2.9999999999999997e-05,-4e-05,-0.00056,-0.00037,-0.00037999999999999997,-0.00037999999999999997,1e-05,2
5965,6373,-1e-05,2.9999999999999997e-05,-4e-05,-0.00056,-0.00037,-0.00037999999999999997,-0.00037999999999999997,1e-05,2
5966,6374,-5.9999999999999995e-05,0.0,8e-05,0.00013000000000000002,0.0005,0.00036,-0.00041,-0.00033,2
5967,6375,-5.9999999999999995e-05,0.0,8e-05,0.00013000000000000002,0.0005,0.00036,-0.00041,-0.00033,2
5968,6376,-5.9999999999999995e-05,0.0,8e-05,0.00013000000000000002,0.0005,0.00036,-0.00041,-0.00033,2
5969,6377,-5.9999999999999995e-05,0.0,8e-05,0.00013000000000000002,0.0005,0.00036,-0.00041,-0.00033,2
5970,6378,-5.9999999999999995e-05,0.0,8e-05,0.00013000000000000002,0.0005,0.00036,-0.00041,-0.00033,2
5971,6379,-5.9999999999999995e-05,0.0,8e-05,0.00013000000000000002,0.0005,0.00036,-0.00041,-0.00033,2
5972,6380,-5.9999999999999995e-05,0.0,8e-05,0.00013000000000000002,0.0005,0.00036,-0.00041,-0.00033,2
5973,6381,-5.9999999999999995e-05,0.0,8e-05,0.00013000000000000002,0.0005,0.00036,-0.00041,-0.00033,2
5974,6382,-0.00027,-0.00011,1e-05,5e-05,-0.00015,-0.00013000000000000002,-8e-05,-0.00014,2
5975,6383,-0.00027,-0.00011,1e-05,5e-05,-0.00015,-0.00013000000000000002,-8e-05,-0.00014,2
5976,6384,-0.00027,-0.00011,1e-05,5e-05,-0.00015,-0.00013000000000000002,-8e-05,-0.00014,2
5977,6385,-0.00027,-0.00011,1e-05,5e-05,-0.00015,-0.00013000000000000002,-8e-05,-0.00014,2
5978,6386,-0.00027,-0.00011,1e-05,5e-05,-0.00015,-0.00013000000000000002,-8e-05,-0.00014,2
5979,6388,-0.00027,-0.00011,1e-05,5e-05,-0.00015,-0.00013000000000000002,-8e-05,-0.00014,2
5980,6389,-0.00027,-0.00011,1e-05,5e-05,-0.00015,-0.00013000000000000002,-8e-05,-0.00014,2
5981,6390,-0.00027,-0.00011,1e-05,5e-05,-0.00015,-0.00013000000000000002,-8e-05,-0.00014,2
5982,6391,-0.00027,-0.00011,1e-05,5e-05,-0.00015,-0.00013000000000000002,-8e-05,-0.00014,2
5983,6392,-0.00027,-0.00011,1e-05,5e-05,-0.00015,-0.00013000000000000002,-8e-05,-0.00014,2
5984,6393,-0.00027,-0.00011,1e-05,5e-05,-0.00015,-0.00013000000000000002,-8e-05,-0.00014,2
5985,6394,-0.00027,-0.00011,1e-05,5e-05,-0.00015,-0.00013000000000000002,-8e-05,-0.00014,2
5986,6395,-0.00027,-0.00011,1e-05,5e-05,-0.00015,-0.00013000000000000002,-8e-05,-0.00014,2
5987,6396,-0.00027,-0.00011,1e-05,5e-05,-0.00015,-0.00013000000000000002,-8e-05,-0.00014,2
5988,6397,-0.00027,-0.00011,1e-05,5e-05,-0.00015,-0.00013000000000000002,-8e-05,-0.00014,2
5989,6398,0.00037999999999999997,-2.9999999999999997e-05,-0.00013000000000000002,-0.00044,-0.00018999999999999998,0.00064,0.00047999999999999996,0.00029,2
5990,6399,0.00037999999999999997,-2.9999999999999997e-05,-0.00013000000000000002,-0.00044,-0.00018999999999999998,0.00064,0.00047999999999999996,0.00029,2
5991,6400,0.00037999999999999997,-2.9999999999999997e-05,-0.00013000000000000002,-0.00044,-0.00018999999999999998,0.00064,0.00047999999999999996,0.00029,2
5992,6401,0.00037999999999999997,-2.9999999999999997e-05,-0.00013000000000000002,-0.00044,-0.00018999999999999998,0.00064,0.00047999999999999996,0.00029,2
5993,6402,0.00037999999999999997,-2.9999999999999997e-05,-0.00013000000000000002,-0.00044,-0.00018999999999999998,0.00064,0.00047999999999999996,0.00029,2
5994,6403,0.00037999999999999997,-2.9999999999999997e-05,-0.00013000000000000002,-0.00044,-0.00018999999999999998,0.00064,0.00047999999999999996,0.00029,2
5995,6404,0.00037999999999999997,-2.9999999999999997e-05,-0.00013000000000000002,-0.00044,-0.00018999999999999998,0.00064,0.00047999999999999996,0.00029,2
5996,6405,-0.00028,-5e-05,0.00011,0.00028,0.00036,0.00021,-5e-05,-7e-05,2
5997,6406,-0.00028,-5e-05,0.00011,0.00028,0.00036,0.00021,-5e-05,-7e-05,2
5998,6407,-0.00028,-5e-05,0.00011,0.00028,0.00036,0.00021,-5e-05,-7e-05,2
5999,6408,-0.00028,-5e-05,0.00011,0.00028,0.00036,0.00021,-5e-05,-7e-05,2
6000,6409,-0.00028,-5e-05,0.00011,0.00028,0.00036,0.00021,-5e-05,-7e-05,2
6001,6410,-0.00028,-5e-05,0.00011,0.00028,0.00036,0.00021,-5e-05,-7e-05,2
6002,6411,-0.00028,-5e-05,0.00011,0.00028,0.00036,0.00021,-5e-05,-7e-05,2
6003,6412,-0.00028,-5e-05,0.00011,0.00028,0.00036,0.00021,-5e-05,-7e-05,2
6004,6413,-0.00028,-5e-05,0.00011,0.00028,0.00036,0.00021,-5e-05,-7e-05,2
6005,6414,-0.00028,-5e-05,0.00011,0.00028,0.00036,0.00021,-5e-05,-7e-05,2
6006,6415,-0.00028,-5e-05,0.00011,0.00028,0.00036,0.00021,-5e-05,-7e-05,2
6007,6416,-0.00028,-5e-05,0.00011,0.00028,0.00036,0.00021,-5e-05,-7e-05,2
6008,6417,-0.00028,-5e-05,0.00011,0.00028,0.00036,0.00021,-5e-05,-7e-05,2
6009,6418,-0.00028,-5e-05,0.00011,0.00028,0.00036,0.00021,-5e-05,-7e-05,2
6010,6419,-0.00028,-5e-05,0.00011,0.00028,0.00036,0.00021,-5e-05,-7e-05,2
6011,6420,-0.00011,-0.00022999999999999998,-0.00045999999999999996,-0.00035,0.0006799999999999999,-0.00036,-0.0006799999999999999,-0.00025,2
6012,6421,-0.00022,-0.00013000000000000002,9e-05,0.00029,-0.00014,0.00026000000000000003,0.00011,7e-05,2
6013,6422,-0.00022,-0.00013000000000000002,9e-05,0.00029,-0.00014,0.00026000000000000003,0.00011,7e-05,2
6014,6423,-0.00022,-0.00013000000000000002,9e-05,0.00029,-0.00014,0.00026000000000000003,0.00011,7e-05,2
6015,6424,-0.00022,-0.00013000000000000002,9e-05,0.00029,-0.00014,0.00026000000000000003,0.00011,7e-05,2
6016,6425,-0.00022,-0.00013000000000000002,9e-05,0.00029,-0.00014,0.00026000000000000003,0.00011,7e-05,2
6017,6426,-0.00022,-0.00013000000000000002,9e-05,0.00029,-0.00014,0.00026000000000000003,0.00011,7e-05,2
6018,6427,-0.00022,-0.00013000000000000002,9e-05,0.00029,-0.00014,0.00026000000000000003,0.00011,7e-05,2
6019,6428,-0.00022,-0.00013000000000000002,9e-05,0.00029,-0.00014,0.00026000000000000003,0.00011,7e-05,2
6020,6429,-0.00022,-0.00013000000000000002,9e-05,0.00029,-0.00014,0.00026000000000000003,0.00011,7e-05,2
6021,6430,-0.00022,-0.00013000000000000002,9e-05,0.00029,-0.00014,0.00026000000000000003,0.00011,7e-05,2
6022,6432,-0.00022,-0.00013000000000000002,9e-05,0.00029,-0.00014,0.00026000000000000003,0.00011,7e-05,2
6023,6433,-0.00022,-0.00013000000000000002,9e-05,0.00029,-0.00014,0.00026000000000000003,0.00011,7e-05,2
6024,6434,0.00014,5.9999999999999995e-05,0.00026000000000000003,0.0006799999999999999,-2e-05,0.00032,0.00028,0.0001,2
6025,6436,0.00014,5.9999999999999995e-05,0.00026000000000000003,0.0006799999999999999,-2e-05,0.00032,0.00028,0.0001,2
6026,6437,0.00014,5.9999999999999995e-05,0.00026000000000000003,0.0006799999999999999,-2e-05,0.00032,0.00028,0.0001,2
6027,6438,0.00014,5.9999999999999995e-05,0.00026000000000000003,0.0006799999999999999,-2e-05,0.00032,0.00028,0.0001,2
6028,6439,0.00014,5.9999999999999995e-05,0.00026000000000000003,0.0006799999999999999,-2e-05,0.00032,0.00028,0.0001,2
6029,6440,0.00014,5.9999999999999995e-05,0.00026000000000000003,0.0006799999999999999,-2e-05,0.00032,0.00028,0.0001,2
6030,6441,0.00014,5.9999999999999995e-05,0.00026000000000000003,0.0006799999999999999,-2e-05,0.00032,0.00028,0.0001,2
6031,6442,0.00014,5.9999999999999995e-05,0.00026000000000000003,0.0006799999999999999,-2e-05,0.00032,0.00028,0.0001,2
6032,6443,0.00014,5.9999999999999995e-05,0.00026000000000000003,0.0006799999999999999,-2e-05,0.00032,0.00028,0.0001,2
6033,6444,0.00014,5.9999999999999995e-05,0.00026000000000000003,0.0006799999999999999,-2e-05,0.00032,0.00028,0.0001,2
6034,6445,0.00014,5.9999999999999995e-05,0.00026000000000000003,0.0006799999999999999,-2e-05,0.00032,0.00028,0.0001,2
6035,6446,0.00014,5.9999999999999995e-05,0.00026000000000000003,0.0006799999999999999,-2e-05,0.00032,0.00028,0.0001,2
6036,6447,0.00014,5.9999999999999995e-05,0.00026000000000000003,0.0006799999999999999,-2e-05,0.00032,0.00028,0.0001,2
6037,6448,0.00014,5.9999999999999995e-05,0.00026000000000000003,0.0006799999999999999,-2e-05,0.00032,0.00028,0.0001,2
6038,6449,0.00014,5.9999999999999995e-05,0.00026000000000000003,0.0006799999999999999,-2e-05,0.00032,0.00028,0.0001,2
6039,6450,0.00045999999999999996,0.00016,0.00021,0.0003,0.00011,0.00021,0.0001,0.00021,2
6040,6451,0.00045999999999999996,0.00016,0.00021,0.0003,0.00011,0.00021,0.0001,0.00021,2
6041,6452,0.00045999999999999996,0.00016,0.00021,0.0003,0.00011,0.00021,0.0001,0.00021,2
6042,6453,0.00045999999999999996,0.00016,0.00021,0.0003,0.00011,0.00021,0.0001,0.00021,2
6043,6454,0.00045999999999999996,0.00016,0.00021,0.0003,0.00011,0.00021,0.0001,0.00021,2
6044,6455,0.00045999999999999996,0.00016,0.00021,0.0003,0.00011,0.00021,0.0001,0.00021,2
6045,6456,0.00045999999999999996,0.00016,0.00021,0.0003,0.00011,0.00021,0.0001,0.00021,2
6046,6457,2e-05,2e-05,-0.00033,-0.00036,-4e-05,-0.00033999999999999997,-0.00033999999999999997,-4e-05,2
6047,6458,2e-05,2e-05,-0.00033,-0.00036,-4e-05,-0.00033999999999999997,-0.00033999999999999997,-4e-05,2
6048,6459,2e-05,2e-05,-0.00033,-0.00036,-4e-05,-0.00033999999999999997,-0.00033999999999999997,-4e-05,2
6049,6460,2e-05,2e-05,-0.00033,-0.00036,-4e-05,-0.00033999999999999997,-0.00033999999999999997,-4e-05,2
6050,6461,2e-05,2e-05,-0.00033,-0.00036,-4e-05,-0.00033999999999999997,-0.00033999999999999997,-4e-05,2
6051,6462,2e-05,2e-05,-0.00033,-0.00036,-4e-05,-0.00033999999999999997,-0.00033999999999999997,-4e-05,2
6052,6463,2e-05,2e-05,-0.00033,-0.00036,-4e-05,-0.00033999999999999997,-0.00033999999999999997,-4e-05,2
6053,6464,2e-05,2e-05,-0.00033,-0.00036,-4e-05,-0.00033999999999999997,-0.00033999999999999997,-4e-05,2
6054,6465,0.0001,2.9999999999999997e-05,-2.9999999999999997e-05,-0.00022999999999999998,-0.00042,-0.00026000000000000003,0.00011999999999999999,4e-05,2
6055,6466,0.0001,2.9999999999999997e-05,-2.9999999999999997e-05,-0.00022999999999999998,-0.00042,-0.00026000000000000003,0.00011999999999999999,4e-05,2
6056,6467,0.0001,2.9999999999999997e-05,-2.9999999999999997e-05,-0.00022999999999999998,-0.00042,-0.00026000000000000003,0.00011999999999999999,4e-05,2
6057,6468,0.0001,2.9999999999999997e-05,-2.9999999999999997e-05,-0.00022999999999999998,-0.00042,-0.00026000000000000003,0.00011999999999999999,4e-05,2
6058,6469,0.0001,2.9999999999999997e-05,-2.9999999999999997e-05,-0.00022999999999999998,-0.00042,-0.00026000000000000003,0.00011999999999999999,4e-05,2
6059,6470,0.0001,2.9999999999999997e-05,-2.9999999999999997e-05,-0.00022999999999999998,-0.00042,-0.00026000000000000003,0.00011999999999999999,4e-05,2
6060,6471,0.0001,2.9999999999999997e-05,-2.9999999999999997e-05,-0.00022999999999999998,-0.00042,-0.00026000000000000003,0.00011999999999999999,4e-05,2
6061,6472,0.0001,2.9999999999999997e-05,-2.9999999999999997e-05,-0.00022999999999999998,-0.00042,-0.00026000000000000003,0.00011999999999999999,4e-05,2
6062,6473,0.0001,2.9999999999999997e-05,-2.9999999999999997e-05,-0.00022999999999999998,-0.00042,-0.00026000000000000003,0.00011999999999999999,4e-05,2
6063,6474,0.0001,2.9999999999999997e-05,-2.9999999999999997e-05,-0.00022999999999999998,-0.00042,-0.00026000000000000003,0.00011999999999999999,4e-05,2
6064,6475,0.0001,2.9999999999999997e-05,-2.9999999999999997e-05,-0.00022999999999999998,-0.00042,-0.00026000000000000003,0.00011999999999999999,4e-05,2
6065,6476,0.0001,2.9999999999999997e-05,-2.9999999999999997e-05,-0.00022999999999999998,-0.00042,-0.00026000000000000003,0.00011999999999999999,4e-05,2
6066,6477,0.0001,2.9999999999999997e-05,-2.9999999999999997e-05,-0.00022999999999999998,-0.00042,-0.00026000000000000003,0.00011999999999999999,4e-05,2
6067,6478,0.0001,2.9999999999999997e-05,-2.9999999999999997e-05,-0.00022999999999999998,-0.00042,-0.00026000000000000003,0.00011999999999999999,4e-05,2
6068,6479,0.0001,2.9999999999999997e-05,-2.9999999999999997e-05,-0.00022999999999999998,-0.00042,-0.00026000000000000003,0.00011999999999999999,4e-05,2
6069,6480,0.00021,0.00011,0.00022999999999999998,9e-05,-0.00016999999999999999,-7e-05,0.00054,0.00023999999999999998,2
6070,6481,-0.00031,-0.00011,0.00023999999999999998,0.00035,0.00022,-0.00032,-0.00047999999999999996,-0.00031,2
6071,6482,-0.00031,-0.00011,0.00023999999999999998,0.00035,0.00022,-0.00032,-0.00047999999999999996,-0.00031,2
6072,6483,-0.00031,-0.00011,0.00023999999999999998,0.00035,0.00022,-0.00032,-0.00047999999999999996,-0.00031,2
6073,6484,-0.00031,-0.00011,0.00023999999999999998,0.00035,0.00022,-0.00032,-0.00047999999999999996,-0.00031,2
6074,6485,-0.00031,-0.00011,0.00023999999999999998,0.00035,0.00022,-0.00032,-0.00047999999999999996,-0.00031,2
6075,6486,-0.00031,-0.00011,0.00023999999999999998,0.00035,0.00022,-0.00032,-0.00047999999999999996,-0.00031,2
6076,6488,-0.00031,-0.00011,0.00023999999999999998,0.00035,0.00022,-0.00032,-0.00047999999999999996,-0.00031,2
6077,6489,-0.00031,-0.00011,0.00023999999999999998,0.00035,0.00022,-0.00032,-0.00047999999999999996,-0.00031,2
6078,6490,-0.00031,-0.00011,0.00023999999999999998,0.00035,0.00022,-0.00032,-0.00047999999999999996,-0.00031,2
6079,6491,-0.00031,-0.00011,0.00023999999999999998,0.00035,0.00022,-0.00032,-0.00047999999999999996,-0.00031,2
6080,6492,-0.00031,-0.00011,0.00023999999999999998,0.00035,0.00022,-0.00032,-0.00047999999999999996,-0.00031,2
6081,6493,-0.00031,-0.00011,0.00023999999999999998,0.00035,0.00022,-0.00032,-0.00047999999999999996,-0.00031,2
6082,6494,-7e-05,7e-05,2e-05,-2e-05,0.00016,5.9999999999999995e-05,-8e-05,-1e-05,2
6083,6495,-7e-05,7e-05,2e-05,-2e-05,0.00016,5.9999999999999995e-05,-8e-05,-1e-05,2
6084,6496,-7e-05,7e-05,2e-05,-2e-05,0.00016,5.9999999999999995e-05,-8e-05,-1e-05,2
6085,6497,-7e-05,7e-05,2e-05,-2e-05,0.00016,5.9999999999999995e-05,-8e-05,-1e-05,2
6086,6498,-7e-05,7e-05,2e-05,-2e-05,0.00016,5.9999999999999995e-05,-8e-05,-1e-05,2
6087,6499,-7e-05,7e-05,2e-05,-2e-05,0.00016,5.9999999999999995e-05,-8e-05,-1e-05,2
6088,6500,-7e-05,7e-05,2e-05,-2e-05,0.00016,5.9999999999999995e-05,-8e-05,-1e-05,2
6089,6501,-7e-05,7e-05,2e-05,-2e-05,0.00016,5.9999999999999995e-05,-8e-05,-1e-05,2
6090,6502,0.00037999999999999997,0.00023999999999999998,-0.00016,5.9999999999999995e-05,0.00031,8e-05,0.00047000000000000004,0.00033999999999999997,2
6091,6503,0.00037999999999999997,0.00023999999999999998,-0.00016,5.9999999999999995e-05,0.00031,8e-05,0.00047000000000000004,0.00033999999999999997,2
6092,6504,0.00037999999999999997,0.00023999999999999998,-0.00016,5.9999999999999995e-05,0.00031,8e-05,0.00047000000000000004,0.00033999999999999997,2
6093,6505,0.00037999999999999997,0.00023999999999999998,-0.00016,5.9999999999999995e-05,0.00031,8e-05,0.00047000000000000004,0.00033999999999999997,2
6094,6506,0.00037999999999999997,0.00023999999999999998,-0.00016,5.9999999999999995e-05,0.00031,8e-05,0.00047000000000000004,0.00033999999999999997,2
6095,6507,0.00037999999999999997,0.00023999999999999998,-0.00016,5.9999999999999995e-05,0.00031,8e-05,0.00047000000000000004,0.00033999999999999997,2
6096,6508,0.00037999999999999997,0.00023999999999999998,-0.00016,5.9999999999999995e-05,0.00031,8e-05,0.00047000000000000004,0.00033999999999999997,2
6097,6509,0.00037999999999999997,0.00023999999999999998,-0.00016,5.9999999999999995e-05,0.00031,8e-05,0.00047000000000000004,0.00033999999999999997,2
6098,6510,0.00037999999999999997,0.00023999999999999998,-0.00016,5.9999999999999995e-05,0.00031,8e-05,0.00047000000000000004,0.00033999999999999997,2
6099,6511,0.00037999999999999997,0.00023999999999999998,-0.00016,5.9999999999999995e-05,0.00031,8e-05,0.00047000000000000004,0.00033999999999999997,2
6100,6512,0.00037999999999999997,0.00023999999999999998,-0.00016,5.9999999999999995e-05,0.00031,8e-05,0.00047000000000000004,0.00033999999999999997,2
6101,6513,0.00037999999999999997,0.00023999999999999998,-0.00016,5.9999999999999995e-05,0.00031,8e-05,0.00047000000000000004,0.00033999999999999997,2
6102,6514,0.00037999999999999997,0.00023999999999999998,-0.00016,5.9999999999999995e-05,0.00031,8e-05,0.00047000000000000004,0.00033999999999999997,2
6103,6515,0.00037999999999999997,0.00023999999999999998,-0.00016,5.9999999999999995e-05,0.00031,8e-05,0.00047000000000000004,0.00033999999999999997,2
6104,6516,0.00037999999999999997,0.00023999999999999998,-0.00016,5.9999999999999995e-05,0.00031,8e-05,0.00047000000000000004,0.00033999999999999997,2
6105,6517,-2.9999999999999997e-05,-2e-05,5.9999999999999995e-05,0.00036,0.00016,-0.00031,-0.00032,0.0,2
6106,6518,-2.9999999999999997e-05,-2e-05,5.9999999999999995e-05,0.00036,0.00016,-0.00031,-0.00032,0.0,2
6107,6519,-2.9999999999999997e-05,-2e-05,5.9999999999999995e-05,0.00036,0.00016,-0.00031,-0.00032,0.0,2
6108,6520,-2.9999999999999997e-05,-2e-05,5.9999999999999995e-05,0.00036,0.00016,-0.00031,-0.00032,0.0,2
6109,6521,-2.9999999999999997e-05,-2e-05,5.9999999999999995e-05,0.00036,0.00016,-0.00031,-0.00032,0.0,2
6110,6523,-2.9999999999999997e-05,-2e-05,5.9999999999999995e-05,0.00036,0.00016,-0.00031,-0.00032,0.0,2
6111,6524,-2.9999999999999997e-05,-2e-05,5.9999999999999995e-05,0.00036,0.00016,-0.00031,-0.00032,0.0,2
6112,6526,0.00049,0.00025,0.00028,-0.00023999999999999998,-1e-05,0.00042,0.0003,0.0002,2
6113,6527,0.00049,0.00025,0.00028,-0.00023999999999999998,-1e-05,0.00042,0.0003,0.0002,2
6114,6528,0.00049,0.00025,0.00028,-0.00023999999999999998,-1e-05,0.00042,0.0003,0.0002,2
6115,6529,0.00049,0.00025,0.00028,-0.00023999999999999998,-1e-05,0.00042,0.0003,0.0002,2
6116,6530,0.00049,0.00025,0.00028,-0.00023999999999999998,-1e-05,0.00042,0.0003,0.0002,2
6117,6531,0.00049,0.00025,0.00028,-0.00023999999999999998,-1e-05,0.00042,0.0003,0.0002,2
6118,6532,0.00049,0.00025,0.00028,-0.00023999999999999998,-1e-05,0.00042,0.0003,0.0002,2
6119,6533,0.00049,0.00025,0.00028,-0.00023999999999999998,-1e-05,0.00042,0.0003,0.0002,2
6120,6534,0.00049,0.00025,0.00028,-0.00023999999999999998,-1e-05,0.00042,0.0003,0.0002,2
6121,6535,0.00049,0.00025,0.00028,-0.00023999999999999998,-1e-05,0.00042,0.0003,0.0002,2
6122,6536,0.00049,0.00025,0.00028,-0.00023999999999999998,-1e-05,0.00042,0.0003,0.0002,2
6123,6538,0.00049,0.00025,0.00028,-0.00023999999999999998,-1e-05,0.00042,0.0003,0.0002,2
6124,6539,0.00049,0.00025,0.00028,-0.00023999999999999998,-1e-05,0.00042,0.0003,0.0002,2
6125,6540,-0.0001,0.0,5.9999999999999995e-05,0.00011999999999999999,-0.00057,-0.00018,0.00011,-2e-05,2
6126,6541,-0.00022,-0.00025,-0.00039,-2.9999999999999997e-05,0.00035,-0.00025,-0.00022,1e-05,2
6127,6542,-0.00022,-0.00025,-0.00039,-2.9999999999999997e-05,0.00035,-0.00025,-0.00022,1e-05,2
6128,6543,-0.00022,-0.00025,-0.00039,-2.9999999999999997e-05,0.00035,-0.00025,-0.00022,1e-05,2
6129,6544,-0.00022,-0.00025,-0.00039,-2.9999999999999997e-05,0.00035,-0.00025,-0.00022,1e-05,2
6130,6545,-0.00022,-0.00025,-0.00039,-2.9999999999999997e-05,0.00035,-0.00025,-0.00022,1e-05,2
6131,6546,-0.00022,-0.00025,-0.00039,-2.9999999999999997e-05,0.00035,-0.00025,-0.00022,1e-05,2
6132,6547,-0.00022,-0.00025,-0.00039,-2.9999999999999997e-05,0.00035,-0.00025,-0.00022,1e-05,2
6133,6548,-0.00022,-0.00025,-0.00039,-2.9999999999999997e-05,0.00035,-0.00025,-0.00022,1e-05,2
6134,6549,-0.00022,-0.00025,-0.00039,-2.9999999999999997e-05,0.00035,-0.00025,-0.00022,1e-05,2
6135,6550,-0.00022,-0.00025,-0.00039,-2.9999999999999997e-05,0.00035,-0.00025,-0.00022,1e-05,2
6136,6551,-0.00022,-0.00025,-0.00039,-2.9999999999999997e-05,0.00035,-0.00025,-0.00022,1e-05,2
6137,6552,-0.00022,-0.00025,-0.00039,-2.9999999999999997e-05,0.00035,-0.00025,-0.00022,1e-05,2
6138,6553,-0.00022,-0.00025,-0.00039,-2.9999999999999997e-05,0.00035,-0.00025,-0.00022,1e-05,2
6139,6554,-4e-05,0.00011,0.00031,-0.00018,-0.00041,-0.00026000000000000003,-0.00061,-0.00022999999999999998,2
6140,6555,-4e-05,0.00011,0.00031,-0.00018,-0.00041,-0.00026000000000000003,-0.00061,-0.00022999999999999998,2
6141,6556,-4e-05,0.00011,0.00031,-0.00018,-0.00041,-0.00026000000000000003,-0.00061,-0.00022999999999999998,2
6142,6557,-4e-05,0.00011,0.00031,-0.00018,-0.00041,-0.00026000000000000003,-0.00061,-0.00022999999999999998,2
6143,6558,-4e-05,0.00011,0.00031,-0.00018,-0.00041,-0.00026000000000000003,-0.00061,-0.00022999999999999998,2
6144,6559,-4e-05,0.00011,0.00031,-0.00018,-0.00041,-0.00026000000000000003,-0.00061,-0.00022999999999999998,2
6145,6560,-4e-05,0.00011,0.00031,-0.00018,-0.00041,-0.00026000000000000003,-0.00061,-0.00022999999999999998,2
6146,6561,-4e-05,0.00011,0.00031,-0.00018,-0.00041,-0.00026000000000000003,-0.00061,-0.00022999999999999998,2
6147,6562,-0.00016,-2e-05,0.00011999999999999999,-0.00033999999999999997,-0.0006900000000000001,0.00055,0.00053,4e-05,2
6148,6563,-0.00016,-2e-05,0.00011999999999999999,-0.00033999999999999997,-0.0006900000000000001,0.00055,0.00053,4e-05,2
6149,6564,-0.00016,-2e-05,0.00011999999999999999,-0.00033999999999999997,-0.0006900000000000001,0.00055,0.00053,4e-05,2
6150,6565,-0.00016,-2e-05,0.00011999999999999999,-0.00033999999999999997,-0.0006900000000000001,0.00055,0.00053,4e-05,2
6151,6566,-0.00016,-2e-05,0.00011999999999999999,-0.00033999999999999997,-0.0006900000000000001,0.00055,0.00053,4e-05,2
6152,6567,-0.00016,-2e-05,0.00011999999999999999,-0.00033999999999999997,-0.0006900000000000001,0.00055,0.00053,4e-05,2
6153,6568,-0.00016,-2e-05,0.00011999999999999999,-0.00033999999999999997,-0.0006900000000000001,0.00055,0.00053,4e-05,2
6154,6569,-0.00016,-2e-05,0.00011999999999999999,-0.00033999999999999997,-0.0006900000000000001,0.00055,0.00053,4e-05,2
6155,6570,-0.00016,-2e-05,0.00011999999999999999,-0.00033999999999999997,-0.0006900000000000001,0.00055,0.00053,4e-05,2
6156,6571,-0.00016,-2e-05,0.00011999999999999999,-0.00033999999999999997,-0.0006900000000000001,0.00055,0.00053,4e-05,2
6157,6572,-0.00016,-2e-05,0.00011999999999999999,-0.00033999999999999997,-0.0006900000000000001,0.00055,0.00053,4e-05,2
6158,6573,-0.00016,-2e-05,0.00011999999999999999,-0.00033999999999999997,-0.0006900000000000001,0.00055,0.00053,4e-05,2
6159,6574,-0.00016,-2e-05,0.00011999999999999999,-0.00033999999999999997,-0.0006900000000000001,0.00055,0.00053,4e-05,2
6160,6575,-0.00016,-2e-05,0.00011999999999999999,-0.00033999999999999997,-0.0006900000000000001,0.00055,0.00053,4e-05,2
6161,6576,-0.00016,-2e-05,0.00011999999999999999,-0.00033999999999999997,-0.0006900000000000001,0.00055,0.00053,4e-05,2
6162,6577,0.0,5.9999999999999995e-05,0.00032,0.00045999999999999996,-0.00023999999999999998,9e-05,-2e-05,0.0001,2
6163,6578,0.0,5.9999999999999995e-05,0.00032,0.00045999999999999996,-0.00023999999999999998,9e-05,-2e-05,0.0001,2
6164,6579,0.0,5.9999999999999995e-05,0.00032,0.00045999999999999996,-0.00023999999999999998,9e-05,-2e-05,0.0001,2
6165,6580,0.0,5.9999999999999995e-05,0.00032,0.00045999999999999996,-0.00023999999999999998,9e-05,-2e-05,0.0001,2
6166,6581,0.0,5.9999999999999995e-05,0.00032,0.00045999999999999996,-0.00023999999999999998,9e-05,-2e-05,0.0001,2
6167,6582,0.0,5.9999999999999995e-05,0.00032,0.00045999999999999996,-0.00023999999999999998,9e-05,-2e-05,0.0001,2
6168,6583,0.0,5.9999999999999995e-05,0.00032,0.00045999999999999996,-0.00023999999999999998,9e-05,-2e-05,0.0001,2
6169,6584,0.0,5.9999999999999995e-05,0.00032,0.00045999999999999996,-0.00023999999999999998,9e-05,-2e-05,0.0001,2
6170,6585,-5e-05,-7e-05,-0.00015,-0.0007099999999999999,-0.0003,-4e-05,-0.00042,-0.00011,2
6171,6586,-5e-05,-7e-05,-0.00015,-0.0007099999999999999,-0.0003,-4e-05,-0.00042,-0.00011,2
6172,6588,-5e-05,-7e-05,-0.00015,-0.0007099999999999999,-0.0003,-4e-05,-0.00042,-0.00011,2
6173,6589,-5e-05,-7e-05,-0.00015,-0.0007099999999999999,-0.0003,-4e-05,-0.00042,-0.00011,2
6174,6590,-5e-05,-7e-05,-0.00015,-0.0007099999999999999,-0.0003,-4e-05,-0.00042,-0.00011,2
6175,6591,-5e-05,-7e-05,-0.00015,-0.0007099999999999999,-0.0003,-4e-05,-0.00042,-0.00011,2
6176,6592,-5e-05,-7e-05,-0.00015,-0.0007099999999999999,-0.0003,-4e-05,-0.00042,-0.00011,2
6177,6593,-5e-05,-7e-05,-0.00015,-0.0007099999999999999,-0.0003,-4e-05,-0.00042,-0.00011,2
6178,6594,-5e-05,-7e-05,-0.00015,-0.0007099999999999999,-0.0003,-4e-05,-0.00042,-0.00011,2
6179,6595,-5e-05,-7e-05,-0.00015,-0.0007099999999999999,-0.0003,-4e-05,-0.00042,-0.00011,2
6180,6596,-5e-05,-7e-05,-0.00015,-0.0007099999999999999,-0.0003,-4e-05,-0.00042,-0.00011,2
6181,6597,-5e-05,-7e-05,-0.00015,-0.0007099999999999999,-0.0003,-4e-05,-0.00042,-0.00011,2
6182,6598,-5e-05,-7e-05,-0.00015,-0.0007099999999999999,-0.0003,-4e-05,-0.00042,-0.00011,2
6183,6599,-5e-05,-7e-05,-0.00015,-0.0007099999999999999,-0.0003,-4e-05,-0.00042,-0.00011,2
6184,6600,0.00022,-5e-05,-8e-05,0.00013000000000000002,0.00023999999999999998,7e-05,8e-05,0.00018999999999999998,2
6185,6601,-0.00013000000000000002,-0.00011,2e-05,0.00032,0.0001,5e-05,-0.00018999999999999998,-0.00011,2
6186,6602,-0.00013000000000000002,-0.00011,2e-05,0.00032,0.0001,5e-05,-0.00018999999999999998,-0.00011,2
6187,6603,-0.00013000000000000002,-0.00011,2e-05,0.00032,0.0001,5e-05,-0.00018999999999999998,-0.00011,2
6188,6604,-0.00013000000000000002,-0.00011,2e-05,0.00032,0.0001,5e-05,-0.00018999999999999998,-0.00011,2
6189,6605,-0.00013000000000000002,-0.00011,2e-05,0.00032,0.0001,5e-05,-0.00018999999999999998,-0.00011,2
6190,6606,-0.00013000000000000002,-0.00011,2e-05,0.00032,0.0001,5e-05,-0.00018999999999999998,-0.00011,2
6191,6607,-0.00013000000000000002,-0.00011,2e-05,0.00032,0.0001,5e-05,-0.00018999999999999998,-0.00011,2
6192,6608,-0.00013000000000000002,-0.00011,2e-05,0.00032,0.0001,5e-05,-0.00018999999999999998,-0.00011,2
6193,6609,-0.00013000000000000002,-0.00011,2e-05,0.00032,0.0001,5e-05,-0.00018999999999999998,-0.00011,2
6194,6610,-0.00013000000000000002,-0.00011,2e-05,0.00032,0.0001,5e-05,-0.00018999999999999998,-0.00011,2
6195,6611,-0.00013000000000000002,-0.00011,2e-05,0.00032,0.0001,5e-05,-0.00018999999999999998,-0.00011,2
6196,6612,-0.00013000000000000002,-0.00011,2e-05,0.00032,0.0001,5e-05,-0.00018999999999999998,-0.00011,2
6197,6613,-0.00013000000000000002,-0.00011,2e-05,0.00032,0.0001,5e-05,-0.00018999999999999998,-0.00011,2
6198,6614,-0.00013000000000000002,-0.00011,2e-05,0.00032,0.0001,5e-05,-0.00018999999999999998,-0.00011,2
6199,6615,-0.00013000000000000002,-0.00011,2e-05,0.00032,0.0001,5e-05,-0.00018999999999999998,-0.00011,2
6200,6616,-0.00013000000000000002,-0.00011,2e-05,0.00032,0.0001,5e-05,-0.00018999999999999998,-0.00011,2
6201,6617,-0.00013000000000000002,-0.00011,2e-05,0.00032,0.0001,5e-05,-0.00018999999999999998,-0.00011,2
6202,6618,-0.00013000000000000002,-0.00011,2e-05,0.00032,0.0001,5e-05,-0.00018999999999999998,-0.00011,2
6203,6619,-0.00013000000000000002,-0.00011,2e-05,0.00032,0.0001,5e-05,-0.00018999999999999998,-0.00011,2
6204,6620,-0.00013000000000000002,-0.00011,2e-05,0.00032,0.0001,5e-05,-0.00018999999999999998,-0.00011,2
6205,6621,-0.00013000000000000002,-0.00011,2e-05,0.00032,0.0001,5e-05,-0.00018999999999999998,-0.00011,2
6206,6622,-0.00013000000000000002,-0.00011,2e-05,0.00032,0.0001,5e-05,-0.00018999999999999998,-0.00011,2
6207,6623,4e-05,-4e-05,-2e-05,0.00033999999999999997,0.00018999999999999998,0.00041,4e-05,-5e-05,2
6208,6624,-9e-05,-7e-05,-0.0001,0.00015,0.00049,5e-05,0.0,-9e-05,2
6209,6625,-9e-05,-7e-05,-0.0001,0.00015,0.00049,5e-05,0.0,-9e-05,2
6210,6626,-9e-05,-7e-05,-0.0001,0.00015,0.00049,5e-05,0.0,-9e-05,2
6211,6627,-9e-05,-7e-05,-0.0001,0.00015,0.00049,5e-05,0.0,-9e-05,2
6212,6628,-9e-05,-7e-05,-0.0001,0.00015,0.00049,5e-05,0.0,-9e-05,2
6213,6629,-9e-05,-7e-05,-0.0001,0.00015,0.00049,5e-05,0.0,-9e-05,2
6214,6630,-9e-05,-7e-05,-0.0001,0.00015,0.00049,5e-05,0.0,-9e-05,2
6215,6631,-9e-05,-7e-05,-0.0001,0.00015,0.00049,5e-05,0.0,-9e-05,2
6216,6632,-9e-05,-7e-05,-0.0001,0.00015,0.00049,5e-05,0.0,-9e-05,2
6217,6633,-9e-05,-7e-05,-0.0001,0.00015,0.00049,5e-05,0.0,-9e-05,2
6218,6634,-9e-05,-7e-05,-0.0001,0.00015,0.00049,5e-05,0.0,-9e-05,2
6219,6635,-9e-05,-7e-05,-0.0001,0.00015,0.00049,5e-05,0.0,-9e-05,2
6220,6636,-9e-05,-7e-05,-0.0001,0.00015,0.00049,5e-05,0.0,-9e-05,2
6221,6638,0.00021,0.0002,0.00011,-0.00021,-5.9999999999999995e-05,-0.0001,0.00035,0.00013000000000000002,2
6222,6639,0.00021,0.0002,0.00011,-0.00021,-5.9999999999999995e-05,-0.0001,0.00035,0.00013000000000000002,2
6223,6640,0.00021,0.0002,0.00011,-0.00021,-5.9999999999999995e-05,-0.0001,0.00035,0.00013000000000000002,2
6224,6641,0.00021,0.0002,0.00011,-0.00021,-5.9999999999999995e-05,-0.0001,0.00035,0.00013000000000000002,2
6225,6643,0.00021,0.0002,0.00011,-0.00021,-5.9999999999999995e-05,-0.0001,0.00035,0.00013000000000000002,2
6226,6644,0.00021,0.0002,0.00011,-0.00021,-5.9999999999999995e-05,-0.0001,0.00035,0.00013000000000000002,2
6227,6645,-0.00015,-0.00011999999999999999,-0.00028,-0.00029,8e-05,-0.00011999999999999999,-0.00023999999999999998,-0.00013000000000000002,2
6228,6646,-0.00015,-0.00011999999999999999,-0.00028,-0.00029,8e-05,-0.00011999999999999999,-0.00023999999999999998,-0.00013000000000000002,2
6229,6647,-0.00015,-0.00011999999999999999,-0.00028,-0.00029,8e-05,-0.00011999999999999999,-0.00023999999999999998,-0.00013000000000000002,2
6230,6648,-0.00015,-0.00011999999999999999,-0.00028,-0.00029,8e-05,-0.00011999999999999999,-0.00023999999999999998,-0.00013000000000000002,2
6231,6649,-0.00015,-0.00011999999999999999,-0.00028,-0.00029,8e-05,-0.00011999999999999999,-0.00023999999999999998,-0.00013000000000000002,2
6232,6650,-0.00015,-0.00011999999999999999,-0.00028,-0.00029,8e-05,-0.00011999999999999999,-0.00023999999999999998,-0.00013000000000000002,2
6233,6651,-0.00015,-0.00011999999999999999,-0.00028,-0.00029,8e-05,-0.00011999999999999999,-0.00023999999999999998,-0.00013000000000000002,2
6234,6652,-0.00015,-0.00011999999999999999,-0.00028,-0.00029,8e-05,-0.00011999999999999999,-0.00023999999999999998,-0.00013000000000000002,2
6235,6653,-0.00015,-0.00011999999999999999,-0.00028,-0.00029,8e-05,-0.00011999999999999999,-0.00023999999999999998,-0.00013000000000000002,2
6236,6654,-0.00015,-0.00011999999999999999,-0.00028,-0.00029,8e-05,-0.00011999999999999999,-0.00023999999999999998,-0.00013000000000000002,2
6237,6655,-0.00015,-0.00011999999999999999,-0.00028,-0.00029,8e-05,-0.00011999999999999999,-0.00023999999999999998,-0.00013000000000000002,2
6238,6656,-0.00015,-0.00011999999999999999,-0.00028,-0.00029,8e-05,-0.00011999999999999999,-0.00023999999999999998,-0.00013000000000000002,2
6239,6657,-0.00015,-0.00011999999999999999,-0.00028,-0.00029,8e-05,-0.00011999999999999999,-0.00023999999999999998,-0.00013000000000000002,2
6240,6658,-0.00015,-0.00011999999999999999,-0.00028,-0.00029,8e-05,-0.00011999999999999999,-0.00023999999999999998,-0.00013000000000000002,2
6241,6659,-0.00015,-0.00011999999999999999,-0.00028,-0.00029,8e-05,-0.00011999999999999999,-0.00023999999999999998,-0.00013000000000000002,2
6242,6660,5e-05,-5e-05,2.9999999999999997e-05,0.00042,0.00011999999999999999,-0.00022,0.00022999999999999998,0.0003,2
6243,6661,0.00015,0.00011,-4e-05,-0.00041,-2.9999999999999997e-05,0.00022999999999999998,4e-05,-9e-05,2
6244,6662,0.00015,0.00011,-4e-05,-0.00041,-2.9999999999999997e-05,0.00022999999999999998,4e-05,-9e-05,2
6245,6663,0.00015,0.00011,-4e-05,-0.00041,-2.9999999999999997e-05,0.00022999999999999998,4e-05,-9e-05,2
6246,6664,0.00015,0.00011,-4e-05,-0.00041,-2.9999999999999997e-05,0.00022999999999999998,4e-05,-9e-05,2
6247,6665,0.00015,0.00011,-4e-05,-0.00041,-2.9999999999999997e-05,0.00022999999999999998,4e-05,-9e-05,2
6248,6666,0.00015,0.00011,-4e-05,-0.00041,-2.9999999999999997e-05,0.00022999999999999998,4e-05,-9e-05,2
6249,6667,0.00015,0.00011,-4e-05,-0.00041,-2.9999999999999997e-05,0.00022999999999999998,4e-05,-9e-05,2
6250,6668,0.00015,0.00011,-4e-05,-0.00041,-2.9999999999999997e-05,0.00022999999999999998,4e-05,-9e-05,2
6251,6669,0.00015,0.00011,-4e-05,-0.00041,-2.9999999999999997e-05,0.00022999999999999998,4e-05,-9e-05,2
6252,6670,0.00015,0.00011,-4e-05,-0.00041,-2.9999999999999997e-05,0.00022999999999999998,4e-05,-9e-05,2
6253,6671,0.00015,0.00011,-4e-05,-0.00041,-2.9999999999999997e-05,0.00022999999999999998,4e-05,-9e-05,2
6254,6672,0.00015,0.00011,-4e-05,-0.00041,-2.9999999999999997e-05,0.00022999999999999998,4e-05,-9e-05,2
6255,6673,0.00015,0.00011,-4e-05,-0.00041,-2.9999999999999997e-05,0.00022999999999999998,4e-05,-9e-05,2
6256,6674,-2e-05,-4e-05,9e-05,0.00018999999999999998,0.00016,-0.00027,-0.00022,-2e-05,2
6257,6675,-2e-05,-4e-05,9e-05,0.00018999999999999998,0.00016,-0.00027,-0.00022,-2e-05,2
6258,6676,-2e-05,-4e-05,9e-05,0.00018999999999999998,0.00016,-0.00027,-0.00022,-2e-05,2
6259,6677,-2e-05,-4e-05,9e-05,0.00018999999999999998,0.00016,-0.00027,-0.00022,-2e-05,2
6260,6678,-2e-05,-4e-05,9e-05,0.00018999999999999998,0.00016,-0.00027,-0.00022,-2e-05,2
6261,6679,-2e-05,-4e-05,9e-05,0.00018999999999999998,0.00016,-0.00027,-0.00022,-2e-05,2
6262,6680,-2e-05,-4e-05,9e-05,0.00018999999999999998,0.00016,-0.00027,-0.00022,-2e-05,2
6263,6681,-2e-05,-4e-05,9e-05,0.00018999999999999998,0.00016,-0.00027,-0.00022,-2e-05,2
6264,6682,-2.9999999999999997e-05,-5e-05,0.00016,0.00054,-0.00039,-0.00022999999999999998,-2e-05,-2.9999999999999997e-05,2
6265,6683,-2.9999999999999997e-05,-5e-05,0.00016,0.00054,-0.00039,-0.00022999999999999998,-2e-05,-2.9999999999999997e-05,2
6266,6684,-2.9999999999999997e-05,-5e-05,0.00016,0.00054,-0.00039,-0.00022999999999999998,-2e-05,-2.9999999999999997e-05,2
6267,6685,-2.9999999999999997e-05,-5e-05,0.00016,0.00054,-0.00039,-0.00022999999999999998,-2e-05,-2.9999999999999997e-05,2
6268,6686,-2.9999999999999997e-05,-5e-05,0.00016,0.00054,-0.00039,-0.00022999999999999998,-2e-05,-2.9999999999999997e-05,2
6269,6688,-2.9999999999999997e-05,-5e-05,0.00016,0.00054,-0.00039,-0.00022999999999999998,-2e-05,-2.9999999999999997e-05,2
6270,6689,-2.9999999999999997e-05,-5e-05,0.00016,0.00054,-0.00039,-0.00022999999999999998,-2e-05,-2.9999999999999997e-05,2
6271,6690,-2.9999999999999997e-05,-5e-05,0.00016,0.00054,-0.00039,-0.00022999999999999998,-2e-05,-2.9999999999999997e-05,2
6272,6691,-2.9999999999999997e-05,-5e-05,0.00016,0.00054,-0.00039,-0.00022999999999999998,-2e-05,-2.9999999999999997e-05,2
6273,6692,-2.9999999999999997e-05,-5e-05,0.00016,0.00054,-0.00039,-0.00022999999999999998,-2e-05,-2.9999999999999997e-05,2
6274,6694,-2.9999999999999997e-05,-5e-05,0.00016,0.00054,-0.00039,-0.00022999999999999998,-2e-05,-2.9999999999999997e-05,2
6275,6695,-2.9999999999999997e-05,-5e-05,0.00016,0.00054,-0.00039,-0.00022999999999999998,-2e-05,-2.9999999999999997e-05,2
6276,6696,-2.9999999999999997e-05,-5e-05,0.00016,0.00054,-0.00039,-0.00022999999999999998,-2e-05,-2.9999999999999997e-05,2
6277,6697,0.00011,5.9999999999999995e-05,0.0001,0.0004,0.00041,9e-05,-7e-05,2.9999999999999997e-05,2
6278,6698,0.00011,5.9999999999999995e-05,0.0001,0.0004,0.00041,9e-05,-7e-05,2.9999999999999997e-05,2
6279,6699,0.00011,5.9999999999999995e-05,0.0001,0.0004,0.00041,9e-05,-7e-05,2.9999999999999997e-05,2
6280,6700,0.00011,5.9999999999999995e-05,0.0001,0.0004,0.00041,9e-05,-7e-05,2.9999999999999997e-05,2
6281,6701,0.00011,5.9999999999999995e-05,0.0001,0.0004,0.00041,9e-05,-7e-05,2.9999999999999997e-05,2
6282,6702,0.00011,5.9999999999999995e-05,0.0001,0.0004,0.00041,9e-05,-7e-05,2.9999999999999997e-05,2
6283,6703,0.00011,5.9999999999999995e-05,0.0001,0.0004,0.00041,9e-05,-7e-05,2.9999999999999997e-05,2
6284,6704,0.00011,5.9999999999999995e-05,0.0001,0.0004,0.00041,9e-05,-7e-05,2.9999999999999997e-05,2
6285,6705,0.0,5.9999999999999995e-05,8e-05,2e-05,-0.0002,-7e-05,-0.0001,-0.00011999999999999999,2
6286,6706,0.0,5.9999999999999995e-05,8e-05,2e-05,-0.0002,-7e-05,-0.0001,-0.00011999999999999999,2
6287,6707,0.0,5.9999999999999995e-05,8e-05,2e-05,-0.0002,-7e-05,-0.0001,-0.00011999999999999999,2
6288,6708,0.0,5.9999999999999995e-05,8e-05,2e-05,-0.0002,-7e-05,-0.0001,-0.00011999999999999999,2
6289,6709,0.0,5.9999999999999995e-05,8e-05,2e-05,-0.0002,-7e-05,-0.0001,-0.00011999999999999999,2
6290,6710,0.0,5.9999999999999995e-05,8e-05,2e-05,-0.0002,-7e-05,-0.0001,-0.00011999999999999999,2
6291,6711,0.0,5.9999999999999995e-05,8e-05,2e-05,-0.0002,-7e-05,-0.0001,-0.00011999999999999999,2
6292,6712,0.0,5.9999999999999995e-05,8e-05,2e-05,-0.0002,-7e-05,-0.0001,-0.00011999999999999999,2
6293,6713,0.0,5.9999999999999995e-05,8e-05,2e-05,-0.0002,-7e-05,-0.0001,-0.00011999999999999999,2
6294,6714,0.0,5.9999999999999995e-05,8e-05,2e-05,-0.0002,-7e-05,-0.0001,-0.00011999999999999999,2
6295,6715,0.0,5.9999999999999995e-05,8e-05,2e-05,-0.0002,-7e-05,-0.0001,-0.00011999999999999999,2
6296,6716,0.0,5.9999999999999995e-05,8e-05,2e-05,-0.0002,-7e-05,-0.0001,-0.00011999999999999999,2
6297,6717,0.0,5.9999999999999995e-05,8e-05,2e-05,-0.0002,-7e-05,-0.0001,-0.00011999999999999999,2
6298,6718,0.0,5.9999999999999995e-05,8e-05,2e-05,-0.0002,-7e-05,-0.0001,-0.00011999999999999999,2
6299,6719,0.0,5.9999999999999995e-05,8e-05,2e-05,-0.0002,-7e-05,-0.0001,-0.00011999999999999999,2
6300,6720,7e-05,0.00011,9e-05,0.00042,0.00057,0.00032,2.9999999999999997e-05,0.0002,2
6301,6721,9e-05,-0.00011,-0.00021,-0.00011,-0.00025,-0.00047000000000000004,-0.00031,-0.0002,2
6302,6722,9e-05,-0.00011,-0.00021,-0.00011,-0.00025,-0.00047000000000000004,-0.00031,-0.0002,2
6303,6723,9e-05,-0.00011,-0.00021,-0.00011,-0.00025,-0.00047000000000000004,-0.00031,-0.0002,2
6304,6724,9e-05,-0.00011,-0.00021,-0.00011,-0.00025,-0.00047000000000000004,-0.00031,-0.0002,2
6305,6725,9e-05,-0.00011,-0.00021,-0.00011,-0.00025,-0.00047000000000000004,-0.00031,-0.0002,2
6306,6726,9e-05,-0.00011,-0.00021,-0.00011,-0.00025,-0.00047000000000000004,-0.00031,-0.0002,2
6307,6727,9e-05,-0.00011,-0.00021,-0.00011,-0.00025,-0.00047000000000000004,-0.00031,-0.0002,2
6308,6728,9e-05,-0.00011,-0.00021,-0.00011,-0.00025,-0.00047000000000000004,-0.00031,-0.0002,2
6309,6729,9e-05,-0.00011,-0.00021,-0.00011,-0.00025,-0.00047000000000000004,-0.00031,-0.0002,2
6310,6730,9e-05,-0.00011,-0.00021,-0.00011,-0.00025,-0.00047000000000000004,-0.00031,-0.0002,2
6311,6731,9e-05,-0.00011,-0.00021,-0.00011,-0.00025,-0.00047000000000000004,-0.00031,-0.0002,2
6312,6733,9e-05,-0.00011,-0.00021,-0.00011,-0.00025,-0.00047000000000000004,-0.00031,-0.0002,2
6313,6734,5.9999999999999995e-05,-2e-05,1e-05,0.00022,-4e-05,0.00022,8e-05,5.9999999999999995e-05,2
6314,6735,5.9999999999999995e-05,-2e-05,1e-05,0.00022,-4e-05,0.00022,8e-05,5.9999999999999995e-05,2
6315,6736,5.9999999999999995e-05,-2e-05,1e-05,0.00022,-4e-05,0.00022,8e-05,5.9999999999999995e-05,2
6316,6738,5.9999999999999995e-05,-2e-05,1e-05,0.00022,-4e-05,0.00022,8e-05,5.9999999999999995e-05,2
6317,6739,5.9999999999999995e-05,-2e-05,1e-05,0.00022,-4e-05,0.00022,8e-05,5.9999999999999995e-05,2
6318,6740,5.9999999999999995e-05,-2e-05,1e-05,0.00022,-4e-05,0.00022,8e-05,5.9999999999999995e-05,2
6319,6741,5.9999999999999995e-05,-2e-05,1e-05,0.00022,-4e-05,0.00022,8e-05,5.9999999999999995e-05,2
6320,6742,4e-05,7e-05,2e-05,0.00032,0.0002,-0.00036,0.0002,8e-05,2
6321,6743,4e-05,7e-05,2e-05,0.00032,0.0002,-0.00036,0.0002,8e-05,2
6322,6744,4e-05,7e-05,2e-05,0.00032,0.0002,-0.00036,0.0002,8e-05,2
6323,6745,4e-05,7e-05,2e-05,0.00032,0.0002,-0.00036,0.0002,8e-05,2
6324,6746,4e-05,7e-05,2e-05,0.00032,0.0002,-0.00036,0.0002,8e-05,2
6325,6747,4e-05,7e-05,2e-05,0.00032,0.0002,-0.00036,0.0002,8e-05,2
6326,6748,4e-05,7e-05,2e-05,0.00032,0.0002,-0.00036,0.0002,8e-05,2
6327,6749,4e-05,7e-05,2e-05,0.00032,0.0002,-0.00036,0.0002,8e-05,2
6328,6750,4e-05,7e-05,2e-05,0.00032,0.0002,-0.00036,0.0002,8e-05,2
6329,6751,4e-05,7e-05,2e-05,0.00032,0.0002,-0.00036,0.0002,8e-05,2
6330,6752,4e-05,7e-05,2e-05,0.00032,0.0002,-0.00036,0.0002,8e-05,2
6331,6753,4e-05,7e-05,2e-05,0.00032,0.0002,-0.00036,0.0002,8e-05,2
6332,6754,4e-05,7e-05,2e-05,0.00032,0.0002,-0.00036,0.0002,8e-05,2
6333,6755,4e-05,7e-05,2e-05,0.00032,0.0002,-0.00036,0.0002,8e-05,2
6334,6756,4e-05,7e-05,2e-05,0.00032,0.0002,-0.00036,0.0002,8e-05,2
6335,6757,0.0,4e-05,0.00016999999999999999,0.00023999999999999998,-2e-05,0.00011,-0.00011999999999999999,-2e-05,2
6336,6758,0.0,4e-05,0.00016999999999999999,0.00023999999999999998,-2e-05,0.00011,-0.00011999999999999999,-2e-05,2
6337,6759,0.0,4e-05,0.00016999999999999999,0.00023999999999999998,-2e-05,0.00011,-0.00011999999999999999,-2e-05,2
6338,6761,0.0,4e-05,0.00016999999999999999,0.00023999999999999998,-2e-05,0.00011,-0.00011999999999999999,-2e-05,2
6339,6762,0.0,4e-05,0.00016999999999999999,0.00023999999999999998,-2e-05,0.00011,-0.00011999999999999999,-2e-05,2
6340,6763,0.0,4e-05,0.00016999999999999999,0.00023999999999999998,-2e-05,0.00011,-0.00011999999999999999,-2e-05,2
6341,6764,0.0,4e-05,0.00016999999999999999,0.00023999999999999998,-2e-05,0.00011,-0.00011999999999999999,-2e-05,2
6342,6765,-0.00057,-0.00011,5.9999999999999995e-05,0.0004,0.00014,8e-05,-0.0003,-0.0003,2
6343,6766,-0.00057,-0.00011,5.9999999999999995e-05,0.0004,0.00014,8e-05,-0.0003,-0.0003,2
6344,6767,-0.00057,-0.00011,5.9999999999999995e-05,0.0004,0.00014,8e-05,-0.0003,-0.0003,2
6345,6768,-0.00057,-0.00011,5.9999999999999995e-05,0.0004,0.00014,8e-05,-0.0003,-0.0003,2
6346,6769,-0.00057,-0.00011,5.9999999999999995e-05,0.0004,0.00014,8e-05,-0.0003,-0.0003,2
6347,6770,-0.00057,-0.00011,5.9999999999999995e-05,0.0004,0.00014,8e-05,-0.0003,-0.0003,2
6348,6771,-0.00057,-0.00011,5.9999999999999995e-05,0.0004,0.00014,8e-05,-0.0003,-0.0003,2
6349,6772,-0.00057,-0.00011,5.9999999999999995e-05,0.0004,0.00014,8e-05,-0.0003,-0.0003,2
6350,6773,-0.00057,-0.00011,5.9999999999999995e-05,0.0004,0.00014,8e-05,-0.0003,-0.0003,2
6351,6774,-0.00057,-0.00011,5.9999999999999995e-05,0.0004,0.00014,8e-05,-0.0003,-0.0003,2
6352,6775,-0.00057,-0.00011,5.9999999999999995e-05,0.0004,0.00014,8e-05,-0.0003,-0.0003,2
6353,6776,-0.00057,-0.00011,5.9999999999999995e-05,0.0004,0.00014,8e-05,-0.0003,-0.0003,2
6354,6777,-0.00057,-0.00011,5.9999999999999995e-05,0.0004,0.00014,8e-05,-0.0003,-0.0003,2
6355,6778,-0.00057,-0.00011,5.9999999999999995e-05,0.0004,0.00014,8e-05,-0.0003,-0.0003,2
6356,6779,-0.00057,-0.00011,5.9999999999999995e-05,0.0004,0.00014,8e-05,-0.0003,-0.0003,2
6357,6780,0.00015,5e-05,0.0,2e-05,0.00018,-2.9999999999999997e-05,-0.00016,0.00022999999999999998,2
6358,6781,4e-05,-0.00011999999999999999,-8e-05,-0.00016999999999999999,-0.00026000000000000003,-0.00037,-0.00022,-5e-05,2
6359,6782,4e-05,-0.00011999999999999999,-8e-05,-0.00016999999999999999,-0.00026000000000000003,-0.00037,-0.00022,-5e-05,2
6360,6783,4e-05,-0.00011999999999999999,-8e-05,-0.00016999999999999999,-0.00026000000000000003,-0.00037,-0.00022,-5e-05,2
6361,6784,4e-05,-0.00011999999999999999,-8e-05,-0.00016999999999999999,-0.00026000000000000003,-0.00037,-0.00022,-5e-05,2
6362,6785,4e-05,-0.00011999999999999999,-8e-05,-0.00016999999999999999,-0.00026000000000000003,-0.00037,-0.00022,-5e-05,2
6363,6786,4e-05,-0.00011999999999999999,-8e-05,-0.00016999999999999999,-0.00026000000000000003,-0.00037,-0.00022,-5e-05,2
6364,6788,4e-05,-0.00011999999999999999,-8e-05,-0.00016999999999999999,-0.00026000000000000003,-0.00037,-0.00022,-5e-05,2
6365,6789,4e-05,-0.00011999999999999999,-8e-05,-0.00016999999999999999,-0.00026000000000000003,-0.00037,-0.00022,-5e-05,2
6366,6790,4e-05,-0.00011999999999999999,-8e-05,-0.00016999999999999999,-0.00026000000000000003,-0.00037,-0.00022,-5e-05,2
6367,6791,4e-05,-0.00011999999999999999,-8e-05,-0.00016999999999999999,-0.00026000000000000003,-0.00037,-0.00022,-5e-05,2
6368,6793,4e-05,-0.00011999999999999999,-8e-05,-0.00016999999999999999,-0.00026000000000000003,-0.00037,-0.00022,-5e-05,2
6369,6794,-1e-05,-7e-05,-8e-05,0.00015,0.00044,0.00013000000000000002,7e-05,4e-05,2
6370,6795,-1e-05,-7e-05,-8e-05,0.00015,0.00044,0.00013000000000000002,7e-05,4e-05,2
6371,6796,-1e-05,-7e-05,-8e-05,0.00015,0.00044,0.00013000000000000002,7e-05,4e-05,2
6372,6797,-1e-05,-7e-05,-8e-05,0.00015,0.00044,0.00013000000000000002,7e-05,4e-05,2
6373,6798,-1e-05,-7e-05,-8e-05,0.00015,0.00044,0.00013000000000000002,7e-05,4e-05,2
6374,6799,-1e-05,-7e-05,-8e-05,0.00015,0.00044,0.00013000000000000002,7e-05,4e-05,2
6375,6800,-1e-05,-7e-05,-8e-05,0.00015,0.00044,0.00013000000000000002,7e-05,4e-05,2
6376,6801,-1e-05,-7e-05,-8e-05,0.00015,0.00044,0.00013000000000000002,7e-05,4e-05,2
6377,6802,9e-05,0.00013000000000000002,0.00027,0.0001,-7e-05,-0.00022999999999999998,-0.00022,0.00013000000000000002,2
6378,6803,9e-05,0.00013000000000000002,0.00027,0.0001,-7e-05,-0.00022999999999999998,-0.00022,0.00013000000000000002,2
6379,6804,9e-05,0.00013000000000000002,0.00027,0.0001,-7e-05,-0.00022999999999999998,-0.00022,0.00013000000000000002,2
6380,6805,9e-05,0.00013000000000000002,0.00027,0.0001,-7e-05,-0.00022999999999999998,-0.00022,0.00013000000000000002,2
6381,6806,9e-05,0.00013000000000000002,0.00027,0.0001,-7e-05,-0.00022999999999999998,-0.00022,0.00013000000000000002,2
6382,6807,9e-05,0.00013000000000000002,0.00027,0.0001,-7e-05,-0.00022999999999999998,-0.00022,0.00013000000000000002,2
6383,6808,9e-05,0.00013000000000000002,0.00027,0.0001,-7e-05,-0.00022999999999999998,-0.00022,0.00013000000000000002,2
6384,6809,9e-05,0.00013000000000000002,0.00027,0.0001,-7e-05,-0.00022999999999999998,-0.00022,0.00013000000000000002,2
6385,6810,9e-05,0.00013000000000000002,0.00027,0.0001,-7e-05,-0.00022999999999999998,-0.00022,0.00013000000000000002,2
6386,6811,9e-05,0.00013000000000000002,0.00027,0.0001,-7e-05,-0.00022999999999999998,-0.00022,0.00013000000000000002,2
6387,6812,9e-05,0.00013000000000000002,0.00027,0.0001,-7e-05,-0.00022999999999999998,-0.00022,0.00013000000000000002,2
6388,6813,9e-05,0.00013000000000000002,0.00027,0.0001,-7e-05,-0.00022999999999999998,-0.00022,0.00013000000000000002,2
6389,6814,9e-05,0.00013000000000000002,0.00027,0.0001,-7e-05,-0.00022999999999999998,-0.00022,0.00013000000000000002,2
6390,6815,9e-05,0.00013000000000000002,0.00027,0.0001,-7e-05,-0.00022999999999999998,-0.00022,0.00013000000000000002,2
6391,6816,9e-05,0.00013000000000000002,0.00027,0.0001,-7e-05,-0.00022999999999999998,-0.00022,0.00013000000000000002,2
6392,6817,-7e-05,-0.00028,-0.00035,-0.0002,-0.00014,-2e-05,0.00021,0.0002,2
6393,6818,-7e-05,-0.00028,-0.00035,-0.0002,-0.00014,-2e-05,0.00021,0.0002,2
6394,6819,-7e-05,-0.00028,-0.00035,-0.0002,-0.00014,-2e-05,0.00021,0.0002,2
6395,6820,-7e-05,-0.00028,-0.00035,-0.0002,-0.00014,-2e-05,0.00021,0.0002,2
6396,6821,-7e-05,-0.00028,-0.00035,-0.0002,-0.00014,-2e-05,0.00021,0.0002,2
6397,6822,-7e-05,-0.00028,-0.00035,-0.0002,-0.00014,-2e-05,0.00021,0.0002,2
6398,6823,-7e-05,-0.00028,-0.00035,-0.0002,-0.00014,-2e-05,0.00021,0.0002,2
6399,6824,-7e-05,-0.00028,-0.00035,-0.0002,-0.00014,-2e-05,0.00021,0.0002,2
6400,6825,0.00037,0.00018999999999999998,0.00029,-0.00011,-1e-05,0.00028,8e-05,0.0002,2
6401,6826,0.00037,0.00018999999999999998,0.00029,-0.00011,-1e-05,0.00028,8e-05,0.0002,2
6402,6827,0.00037,0.00018999999999999998,0.00029,-0.00011,-1e-05,0.00028,8e-05,0.0002,2
6403,6828,0.00037,0.00018999999999999998,0.00029,-0.00011,-1e-05,0.00028,8e-05,0.0002,2
6404,6829,0.00037,0.00018999999999999998,0.00029,-0.00011,-1e-05,0.00028,8e-05,0.0002,2
6405,6830,0.00037,0.00018999999999999998,0.00029,-0.00011,-1e-05,0.00028,8e-05,0.0002,2
6406,6831,0.00037,0.00018999999999999998,0.00029,-0.00011,-1e-05,0.00028,8e-05,0.0002,2
6407,6832,0.00037,0.00018999999999999998,0.00029,-0.00011,-1e-05,0.00028,8e-05,0.0002,2
6408,6833,0.00037,0.00018999999999999998,0.00029,-0.00011,-1e-05,0.00028,8e-05,0.0002,2
6409,6834,0.00037,0.00018999999999999998,0.00029,-0.00011,-1e-05,0.00028,8e-05,0.0002,2
6410,6835,0.00037,0.00018999999999999998,0.00029,-0.00011,-1e-05,0.00028,8e-05,0.0002,2
6411,6836,0.00037,0.00018999999999999998,0.00029,-0.00011,-1e-05,0.00028,8e-05,0.0002,2
6412,6838,0.00037,0.00018999999999999998,0.00029,-0.00011,-1e-05,0.00028,8e-05,0.0002,2
6413,6839,0.00037,0.00018999999999999998,0.00029,-0.00011,-1e-05,0.00028,8e-05,0.0002,2
6414,6840,-0.00022,-8e-05,-0.00011,2.9999999999999997e-05,-7e-05,8e-05,0.00027,-0.0002,2
6415,6841,-2.9999999999999997e-05,-7e-05,-0.00078,-0.00079,0.00031,0.00054,0.00075,0.00013000000000000002,2
6416,6842,-2.9999999999999997e-05,-7e-05,-0.00078,-0.00079,0.00031,0.00054,0.00075,0.00013000000000000002,2
6417,6843,-2.9999999999999997e-05,-7e-05,-0.00078,-0.00079,0.00031,0.00054,0.00075,0.00013000000000000002,2
6418,6844,-2.9999999999999997e-05,-7e-05,-0.00078,-0.00079,0.00031,0.00054,0.00075,0.00013000000000000002,2
6419,6845,-2.9999999999999997e-05,-7e-05,-0.00078,-0.00079,0.00031,0.00054,0.00075,0.00013000000000000002,2
6420,6846,-2.9999999999999997e-05,-7e-05,-0.00078,-0.00079,0.00031,0.00054,0.00075,0.00013000000000000002,2
6421,6847,-2.9999999999999997e-05,-7e-05,-0.00078,-0.00079,0.00031,0.00054,0.00075,0.00013000000000000002,2
6422,6848,-2.9999999999999997e-05,-7e-05,-0.00078,-0.00079,0.00031,0.00054,0.00075,0.00013000000000000002,2
6423,6849,-2.9999999999999997e-05,-7e-05,-0.00078,-0.00079,0.00031,0.00054,0.00075,0.00013000000000000002,2
6424,6850,-2.9999999999999997e-05,-7e-05,-0.00078,-0.00079,0.00031,0.00054,0.00075,0.00013000000000000002,2
6425,6851,-2.9999999999999997e-05,-7e-05,-0.00078,-0.00079,0.00031,0.00054,0.00075,0.00013000000000000002,2
6426,6852,-2.9999999999999997e-05,-7e-05,-0.00078,-0.00079,0.00031,0.00054,0.00075,0.00013000000000000002,2
6427,6853,-2.9999999999999997e-05,-7e-05,-0.00078,-0.00079,0.00031,0.00054,0.00075,0.00013000000000000002,2
6428,6854,-5e-05,2e-05,0.00011999999999999999,0.0,-0.00033999999999999997,-9e-05,2.9999999999999997e-05,-5e-05,2
6429,6855,-5e-05,2e-05,0.00011999999999999999,0.0,-0.00033999999999999997,-9e-05,2.9999999999999997e-05,-5e-05,2
6430,6856,-5e-05,2e-05,0.00011999999999999999,0.0,-0.00033999999999999997,-9e-05,2.9999999999999997e-05,-5e-05,2
6431,6857,-5e-05,2e-05,0.00011999999999999999,0.0,-0.00033999999999999997,-9e-05,2.9999999999999997e-05,-5e-05,2
6432,6858,-5e-05,2e-05,0.00011999999999999999,0.0,-0.00033999999999999997,-9e-05,2.9999999999999997e-05,-5e-05,2
6433,6859,-5e-05,2e-05,0.00011999999999999999,0.0,-0.00033999999999999997,-9e-05,2.9999999999999997e-05,-5e-05,2
6434,6860,-5e-05,2e-05,0.00011999999999999999,0.0,-0.00033999999999999997,-9e-05,2.9999999999999997e-05,-5e-05,2
6435,6861,-5e-05,2e-05,0.00011999999999999999,0.0,-0.00033999999999999997,-9e-05,2.9999999999999997e-05,-5e-05,2
6436,6862,0.00023999999999999998,0.00011999999999999999,0.00036,0.00037999999999999997,5e-05,0.00032,0.00018,0.00014,2
6437,6863,0.00023999999999999998,0.00011999999999999999,0.00036,0.00037999999999999997,5e-05,0.00032,0.00018,0.00014,2
6438,6864,0.00023999999999999998,0.00011999999999999999,0.00036,0.00037999999999999997,5e-05,0.00032,0.00018,0.00014,2
6439,6865,0.00023999999999999998,0.00011999999999999999,0.00036,0.00037999999999999997,5e-05,0.00032,0.00018,0.00014,2
6440,6866,0.00023999999999999998,0.00011999999999999999,0.00036,0.00037999999999999997,5e-05,0.00032,0.00018,0.00014,2
6441,6867,0.00023999999999999998,0.00011999999999999999,0.00036,0.00037999999999999997,5e-05,0.00032,0.00018,0.00014,2
6442,6868,0.00023999999999999998,0.00011999999999999999,0.00036,0.00037999999999999997,5e-05,0.00032,0.00018,0.00014,2
6443,6869,0.00023999999999999998,0.00011999999999999999,0.00036,0.00037999999999999997,5e-05,0.00032,0.00018,0.00014,2
6444,6870,0.00023999999999999998,0.00011999999999999999,0.00036,0.00037999999999999997,5e-05,0.00032,0.00018,0.00014,2
6445,6871,0.00023999999999999998,0.00011999999999999999,0.00036,0.00037999999999999997,5e-05,0.00032,0.00018,0.00014,2
6446,6872,0.00023999999999999998,0.00011999999999999999,0.00036,0.00037999999999999997,5e-05,0.00032,0.00018,0.00014,2
6447,6873,0.00023999999999999998,0.00011999999999999999,0.00036,0.00037999999999999997,5e-05,0.00032,0.00018,0.00014,2
6448,6874,0.00023999999999999998,0.00011999999999999999,0.00036,0.00037999999999999997,5e-05,0.00032,0.00018,0.00014,2
6449,6875,0.00023999999999999998,0.00011999999999999999,0.00036,0.00037999999999999997,5e-05,0.00032,0.00018,0.00014,2
6450,6876,0.00023999999999999998,0.00011999999999999999,0.00036,0.00037999999999999997,5e-05,0.00032,0.00018,0.00014,2
6451,6877,-0.00016,-8e-05,-0.00018,-0.00016,-0.00016,-0.00039,-0.0002,-0.00022,2
6452,6878,-0.00016,-8e-05,-0.00018,-0.00016,-0.00016,-0.00039,-0.0002,-0.00022,2
6453,6879,-0.00016,-8e-05,-0.00018,-0.00016,-0.00016,-0.00039,-0.0002,-0.00022,2
6454,6880,-0.00016,-8e-05,-0.00018,-0.00016,-0.00016,-0.00039,-0.0002,-0.00022,2
6455,6881,-0.00016,-8e-05,-0.00018,-0.00016,-0.00016,-0.00039,-0.0002,-0.00022,2
6456,6882,-0.00016,-8e-05,-0.00018,-0.00016,-0.00016,-0.00039,-0.0002,-0.00022,2
6457,6883,-0.00016,-8e-05,-0.00018,-0.00016,-0.00016,-0.00039,-0.0002,-0.00022,2
6458,6884,-0.00016,-8e-05,-0.00018,-0.00016,-0.00016,-0.00039,-0.0002,-0.00022,2
6459,6885,1e-05,-2.9999999999999997e-05,8e-05,0.00013000000000000002,-0.00018,-2.9999999999999997e-05,-5.9999999999999995e-05,4e-05,2
6460,6886,1e-05,-2.9999999999999997e-05,8e-05,0.00013000000000000002,-0.00018,-2.9999999999999997e-05,-5.9999999999999995e-05,4e-05,2
6461,6888,1e-05,-2.9999999999999997e-05,8e-05,0.00013000000000000002,-0.00018,-2.9999999999999997e-05,-5.9999999999999995e-05,4e-05,2
6462,6889,1e-05,-2.9999999999999997e-05,8e-05,0.00013000000000000002,-0.00018,-2.9999999999999997e-05,-5.9999999999999995e-05,4e-05,2
6463,6890,1e-05,-2.9999999999999997e-05,8e-05,0.00013000000000000002,-0.00018,-2.9999999999999997e-05,-5.9999999999999995e-05,4e-05,2
6464,6891,1e-05,-2.9999999999999997e-05,8e-05,0.00013000000000000002,-0.00018,-2.9999999999999997e-05,-5.9999999999999995e-05,4e-05,2
6465,6893,1e-05,-2.9999999999999997e-05,8e-05,0.00013000000000000002,-0.00018,-2.9999999999999997e-05,-5.9999999999999995e-05,4e-05,2
6466,6894,1e-05,-2.9999999999999997e-05,8e-05,0.00013000000000000002,-0.00018,-2.9999999999999997e-05,-5.9999999999999995e-05,4e-05,2
6467,6895,1e-05,-2.9999999999999997e-05,8e-05,0.00013000000000000002,-0.00018,-2.9999999999999997e-05,-5.9999999999999995e-05,4e-05,2
6468,6896,1e-05,-2.9999999999999997e-05,8e-05,0.00013000000000000002,-0.00018,-2.9999999999999997e-05,-5.9999999999999995e-05,4e-05,2
6469,6897,1e-05,-2.9999999999999997e-05,8e-05,0.00013000000000000002,-0.00018,-2.9999999999999997e-05,-5.9999999999999995e-05,4e-05,2
6470,6898,1e-05,-2.9999999999999997e-05,8e-05,0.00013000000000000002,-0.00018,-2.9999999999999997e-05,-5.9999999999999995e-05,4e-05,2
6471,6899,1e-05,-2.9999999999999997e-05,8e-05,0.00013000000000000002,-0.00018,-2.9999999999999997e-05,-5.9999999999999995e-05,4e-05,2
6472,6900,1e-05,-2.9999999999999997e-05,8e-05,0.00013000000000000002,-0.00018,-2.9999999999999997e-05,-5.9999999999999995e-05,4e-05,2
6473,6901,1e-05,-2.9999999999999997e-05,8e-05,0.00013000000000000002,-0.00018,-2.9999999999999997e-05,-5.9999999999999995e-05,4e-05,2
6474,6902,1e-05,-2.9999999999999997e-05,8e-05,0.00013000000000000002,-0.00018,-2.9999999999999997e-05,-5.9999999999999995e-05,4e-05,2
6475,6903,1e-05,-2.9999999999999997e-05,8e-05,0.00013000000000000002,-0.00018,-2.9999999999999997e-05,-5.9999999999999995e-05,4e-05,2
6476,6904,1e-05,-2.9999999999999997e-05,8e-05,0.00013000000000000002,-0.00018,-2.9999999999999997e-05,-5.9999999999999995e-05,4e-05,2
6477,6905,1e-05,-2.9999999999999997e-05,8e-05,0.00013000000000000002,-0.00018,-2.9999999999999997e-05,-5.9999999999999995e-05,4e-05,2
6478,6906,1e-05,-2.9999999999999997e-05,8e-05,0.00013000000000000002,-0.00018,-2.9999999999999997e-05,-5.9999999999999995e-05,4e-05,2
6479,6907,1e-05,-2.9999999999999997e-05,8e-05,0.00013000000000000002,-0.00018,-2.9999999999999997e-05,-5.9999999999999995e-05,4e-05,2
6480,6908,0.00018999999999999998,0.00014,0.0003,0.00011,-0.00011,0.00016,-5.9999999999999995e-05,0.00023999999999999998,2
6481,6909,0.00018999999999999998,0.00014,0.0003,0.00011,-0.00011,0.00016,-5.9999999999999995e-05,0.00023999999999999998,2
6482,6910,-0.00028,-0.0001,-0.00016999999999999999,-0.00055,-0.00011,4e-05,-0.00036,-0.0001,2
6483,6911,-0.00028,-0.0001,-0.00016999999999999999,-0.00055,-0.00011,4e-05,-0.00036,-0.0001,2
6484,6912,-0.00028,-0.0001,-0.00016999999999999999,-0.00055,-0.00011,4e-05,-0.00036,-0.0001,2
6485,6913,-0.00028,-0.0001,-0.00016999999999999999,-0.00055,-0.00011,4e-05,-0.00036,-0.0001,2
6486,6914,-0.00028,-0.0001,-0.00016999999999999999,-0.00055,-0.00011,4e-05,-0.00036,-0.0001,2
6487,6915,-0.00028,-0.0001,-0.00016999999999999999,-0.00055,-0.00011,4e-05,-0.00036,-0.0001,2
6488,6916,-0.00028,-0.0001,-0.00016999999999999999,-0.00055,-0.00011,4e-05,-0.00036,-0.0001,2
6489,6917,-0.00028,-0.0001,-0.00016999999999999999,-0.00055,-0.00011,4e-05,-0.00036,-0.0001,2
6490,6918,-0.00028,-0.0001,-0.00016999999999999999,-0.00055,-0.00011,4e-05,-0.00036,-0.0001,2
6491,6919,-0.00028,-0.0001,-0.00016999999999999999,-0.00055,-0.00011,4e-05,-0.00036,-0.0001,2
6492,6920,-0.00028,-0.0001,-0.00016999999999999999,-0.00055,-0.00011,4e-05,-0.00036,-0.0001,2
6493,6921,-0.00028,-0.0001,-0.00016999999999999999,-0.00055,-0.00011,4e-05,-0.00036,-0.0001,2
6494,6922,-0.00013000000000000002,-1e-05,2e-05,-0.00018999999999999998,9e-05,-7e-05,-0.00015,-0.00014,2
6495,6923,-0.00013000000000000002,-1e-05,2e-05,-0.00018999999999999998,9e-05,-7e-05,-0.00015,-0.00014,2
6496,6924,-0.00013000000000000002,-1e-05,2e-05,-0.00018999999999999998,9e-05,-7e-05,-0.00015,-0.00014,2
6497,6925,-0.00013000000000000002,-1e-05,2e-05,-0.00018999999999999998,9e-05,-7e-05,-0.00015,-0.00014,2
6498,6926,-0.00013000000000000002,-1e-05,2e-05,-0.00018999999999999998,9e-05,-7e-05,-0.00015,-0.00014,2
6499,6927,-0.00013000000000000002,-1e-05,2e-05,-0.00018999999999999998,9e-05,-7e-05,-0.00015,-0.00014,2
6500,6928,-0.00013000000000000002,-1e-05,2e-05,-0.00018999999999999998,9e-05,-7e-05,-0.00015,-0.00014,2
6501,6929,-0.00013000000000000002,-1e-05,2e-05,-0.00018999999999999998,9e-05,-7e-05,-0.00015,-0.00014,2
6502,6930,-0.00013000000000000002,-1e-05,2e-05,-0.00018999999999999998,9e-05,-7e-05,-0.00015,-0.00014,2
6503,6931,0.00041,5e-05,5.9999999999999995e-05,0.00026000000000000003,2.9999999999999997e-05,0.00028,0.00045,0.0005200000000000001,2
6504,6932,0.00041,5e-05,5.9999999999999995e-05,0.00026000000000000003,2.9999999999999997e-05,0.00028,0.00045,0.0005200000000000001,2
6505,6933,0.00041,5e-05,5.9999999999999995e-05,0.00026000000000000003,2.9999999999999997e-05,0.00028,0.00045,0.0005200000000000001,2
6506,6934,0.00041,5e-05,5.9999999999999995e-05,0.00026000000000000003,2.9999999999999997e-05,0.00028,0.00045,0.0005200000000000001,2
6507,6935,0.00041,5e-05,5.9999999999999995e-05,0.00026000000000000003,2.9999999999999997e-05,0.00028,0.00045,0.0005200000000000001,2
6508,6936,0.00041,5e-05,5.9999999999999995e-05,0.00026000000000000003,2.9999999999999997e-05,0.00028,0.00045,0.0005200000000000001,2
6509,6938,0.00041,5e-05,5.9999999999999995e-05,0.00026000000000000003,2.9999999999999997e-05,0.00028,0.00045,0.0005200000000000001,2
6510,6939,0.00041,5e-05,5.9999999999999995e-05,0.00026000000000000003,2.9999999999999997e-05,0.00028,0.00045,0.0005200000000000001,2
6511,6940,0.00041,5e-05,5.9999999999999995e-05,0.00026000000000000003,2.9999999999999997e-05,0.00028,0.00045,0.0005200000000000001,2
6512,6941,0.00041,5e-05,5.9999999999999995e-05,0.00026000000000000003,2.9999999999999997e-05,0.00028,0.00045,0.0005200000000000001,2
6513,6942,0.00041,5e-05,5.9999999999999995e-05,0.00026000000000000003,2.9999999999999997e-05,0.00028,0.00045,0.0005200000000000001,2
6514,6943,0.00041,5e-05,5.9999999999999995e-05,0.00026000000000000003,2.9999999999999997e-05,0.00028,0.00045,0.0005200000000000001,2
6515,6944,0.00041,5e-05,5.9999999999999995e-05,0.00026000000000000003,2.9999999999999997e-05,0.00028,0.00045,0.0005200000000000001,2
6516,6945,-2.9999999999999997e-05,-1e-05,-0.00032,-0.00075,0.00016999999999999999,0.00015,4e-05,-0.00011999999999999999,2
6517,6946,-2.9999999999999997e-05,-1e-05,-0.00032,-0.00075,0.00016999999999999999,0.00015,4e-05,-0.00011999999999999999,2
6518,6947,1e-05,2e-05,0.00013000000000000002,0.00018,-0.00021,-0.00047000000000000004,-5e-05,-5.9999999999999995e-05,2
6519,6948,1e-05,2e-05,0.00013000000000000002,0.00018,-0.00021,-0.00047000000000000004,-5e-05,-5.9999999999999995e-05,2
6520,6949,1e-05,2e-05,0.00013000000000000002,0.00018,-0.00021,-0.00047000000000000004,-5e-05,-5.9999999999999995e-05,2
6521,6950,1e-05,2e-05,0.00013000000000000002,0.00018,-0.00021,-0.00047000000000000004,-5e-05,-5.9999999999999995e-05,2
6522,6951,1e-05,2e-05,0.00013000000000000002,0.00018,-0.00021,-0.00047000000000000004,-5e-05,-5.9999999999999995e-05,2
6523,6952,1e-05,2e-05,0.00013000000000000002,0.00018,-0.00021,-0.00047000000000000004,-5e-05,-5.9999999999999995e-05,2
6524,6953,1e-05,2e-05,0.00013000000000000002,0.00018,-0.00021,-0.00047000000000000004,-5e-05,-5.9999999999999995e-05,2
6525,6954,1e-05,2e-05,0.00013000000000000002,0.00018,-0.00021,-0.00047000000000000004,-5e-05,-5.9999999999999995e-05,2
6526,6955,1e-05,2e-05,0.00013000000000000002,0.00018,-0.00021,-0.00047000000000000004,-5e-05,-5.9999999999999995e-05,2
6527,6956,1e-05,2e-05,0.00013000000000000002,0.00018,-0.00021,-0.00047000000000000004,-5e-05,-5.9999999999999995e-05,2
6528,6957,1e-05,2e-05,0.00013000000000000002,0.00018,-0.00021,-0.00047000000000000004,-5e-05,-5.9999999999999995e-05,2
6529,6958,1e-05,2e-05,0.00013000000000000002,0.00018,-0.00021,-0.00047000000000000004,-5e-05,-5.9999999999999995e-05,2
6530,6959,1e-05,2e-05,0.00013000000000000002,0.00018,-0.00021,-0.00047000000000000004,-5e-05,-5.9999999999999995e-05,2
6531,6960,1e-05,2e-05,0.00013000000000000002,0.00018,-0.00021,-0.00047000000000000004,-5e-05,-5.9999999999999995e-05,2
6532,6961,1e-05,2e-05,0.00013000000000000002,0.00018,-0.00021,-0.00047000000000000004,-5e-05,-5.9999999999999995e-05,2
6533,6962,1e-05,2e-05,0.00013000000000000002,0.00018,-0.00021,-0.00047000000000000004,-5e-05,-5.9999999999999995e-05,2
6534,6963,1e-05,2e-05,0.00013000000000000002,0.00018,-0.00021,-0.00047000000000000004,-5e-05,-5.9999999999999995e-05,2
6535,6964,1e-05,2e-05,0.00013000000000000002,0.00018,-0.00021,-0.00047000000000000004,-5e-05,-5.9999999999999995e-05,2
6536,6965,1e-05,2e-05,0.00013000000000000002,0.00018,-0.00021,-0.00047000000000000004,-5e-05,-5.9999999999999995e-05,2
6537,6966,1e-05,2e-05,0.00013000000000000002,0.00018,-0.00021,-0.00047000000000000004,-5e-05,-5.9999999999999995e-05,2
6538,6967,1e-05,2e-05,0.00013000000000000002,0.00018,-0.00021,-0.00047000000000000004,-5e-05,-5.9999999999999995e-05,2
6539,6968,-4e-05,-9e-05,-0.00033,-0.00025,-7e-05,-0.0003,-0.00023999999999999998,-4e-05,2
6540,6969,-4e-05,-9e-05,-0.00033,-0.00025,-7e-05,-0.0003,-0.00023999999999999998,-4e-05,2
6541,6970,-0.00011,-1e-05,-8e-05,-0.00022999999999999998,-0.00016,-0.00029,-0.00016,-7e-05,2
6542,6971,-0.00011,-1e-05,-8e-05,-0.00022999999999999998,-0.00016,-0.00029,-0.00016,-7e-05,2
6543,6973,-0.00011,-1e-05,-8e-05,-0.00022999999999999998,-0.00016,-0.00029,-0.00016,-7e-05,2
6544,6974,-0.00011,-1e-05,-8e-05,-0.00022999999999999998,-0.00016,-0.00029,-0.00016,-7e-05,2
6545,6975,-0.00011,-1e-05,-8e-05,-0.00022999999999999998,-0.00016,-0.00029,-0.00016,-7e-05,2
6546,6976,-0.00011,-1e-05,-8e-05,-0.00022999999999999998,-0.00016,-0.00029,-0.00016,-7e-05,2
6547,6977,-0.00011,-1e-05,-8e-05,-0.00022999999999999998,-0.00016,-0.00029,-0.00016,-7e-05,2
6548,6978,-0.00011,-1e-05,-8e-05,-0.00022999999999999998,-0.00016,-0.00029,-0.00016,-7e-05,2
6549,6979,-0.00011,-1e-05,-8e-05,-0.00022999999999999998,-0.00016,-0.00029,-0.00016,-7e-05,2
6550,6980,-0.00011,-1e-05,-8e-05,-0.00022999999999999998,-0.00016,-0.00029,-0.00016,-7e-05,2
6551,6981,-0.00011,-1e-05,-8e-05,-0.00022999999999999998,-0.00016,-0.00029,-0.00016,-7e-05,2
6552,6982,-0.00011,-1e-05,-8e-05,-0.00022999999999999998,-0.00016,-0.00029,-0.00016,-7e-05,2
6553,6983,-0.00011,-1e-05,-8e-05,-0.00022999999999999998,-0.00016,-0.00029,-0.00016,-7e-05,2
6554,6984,-0.00011,-1e-05,-8e-05,-0.00022999999999999998,-0.00016,-0.00029,-0.00016,-7e-05,2
6555,6985,-0.00011,-1e-05,-8e-05,-0.00022999999999999998,-0.00016,-0.00029,-0.00016,-7e-05,2
6556,6986,-0.00011,-1e-05,-8e-05,-0.00022999999999999998,-0.00016,-0.00029,-0.00016,-7e-05,2
6557,6988,-0.00011,-1e-05,-8e-05,-0.00022999999999999998,-0.00016,-0.00029,-0.00016,-7e-05,2
6558,6989,-0.00011,-1e-05,-8e-05,-0.00022999999999999998,-0.00016,-0.00029,-0.00016,-7e-05,2
6559,6990,-0.00011,-1e-05,-8e-05,-0.00022999999999999998,-0.00016,-0.00029,-0.00016,-7e-05,2
6560,6991,0.00015,7e-05,0.00015,0.0005,0.00049,0.0009199999999999999,0.0007099999999999999,0.00011,2
6561,6992,0.00018,-9e-05,-0.00027,-0.0003,-5e-05,-0.00039,-0.00015,0.00014,2
6562,6993,0.00018,-9e-05,-0.00027,-0.0003,-5e-05,-0.00039,-0.00015,0.00014,2
6563,6994,0.00018,-9e-05,-0.00027,-0.0003,-5e-05,-0.00039,-0.00015,0.00014,2
6564,6995,0.00018,-9e-05,-0.00027,-0.0003,-5e-05,-0.00039,-0.00015,0.00014,2
6565,6996,0.00018,-9e-05,-0.00027,-0.0003,-5e-05,-0.00039,-0.00015,0.00014,2
6566,6997,0.00018,-9e-05,-0.00027,-0.0003,-5e-05,-0.00039,-0.00015,0.00014,2
6567,6998,0.00018,-9e-05,-0.00027,-0.0003,-5e-05,-0.00039,-0.00015,0.00014,2
6568,6999,0.00018,-9e-05,-0.00027,-0.0003,-5e-05,-0.00039,-0.00015,0.00014,2
6569,7000,0.00018,-9e-05,-0.00027,-0.0003,-5e-05,-0.00039,-0.00015,0.00014,2
6570,7001,0.00018,-9e-05,-0.00027,-0.0003,-5e-05,-0.00039,-0.00015,0.00014,2
6571,7002,0.00018,-9e-05,-0.00027,-0.0003,-5e-05,-0.00039,-0.00015,0.00014,2
6572,7004,0.00018,-9e-05,-0.00027,-0.0003,-5e-05,-0.00039,-0.00015,0.00014,2
6573,7005,-0.00011,7e-05,0.00022,0.00041,-0.00045999999999999996,-0.00022999999999999998,-0.00055,-2e-05,2
6574,7006,-0.00011,7e-05,0.00022,0.00041,-0.00045999999999999996,-0.00022999999999999998,-0.00055,-2e-05,2
6575,7007,-0.00011,7e-05,0.00022,0.00041,-0.00045999999999999996,-0.00022999999999999998,-0.00055,-2e-05,2
6576,7008,-0.00011,7e-05,0.00022,0.00041,-0.00045999999999999996,-0.00022999999999999998,-0.00055,-2e-05,2
6577,7009,-0.00011,7e-05,0.00022,0.00041,-0.00045999999999999996,-0.00022999999999999998,-0.00055,-2e-05,2
6578,7010,-0.00011,7e-05,0.00022,0.00041,-0.00045999999999999996,-0.00022999999999999998,-0.00055,-2e-05,2
6579,7011,-0.00011,7e-05,0.00022,0.00041,-0.00045999999999999996,-0.00022999999999999998,-0.00055,-2e-05,2
6580,7012,-0.00011,-0.00013000000000000002,-0.0002,1e-05,0.00015,0.0003,0.00036,-5.9999999999999995e-05,2
6581,7013,-0.00011,-0.00013000000000000002,-0.0002,1e-05,0.00015,0.0003,0.00036,-5.9999999999999995e-05,2
6582,7014,-0.00011,-0.00013000000000000002,-0.0002,1e-05,0.00015,0.0003,0.00036,-5.9999999999999995e-05,2
6583,7015,-0.00011,-0.00013000000000000002,-0.0002,1e-05,0.00015,0.0003,0.00036,-5.9999999999999995e-05,2
6584,7016,-0.00011,-0.00013000000000000002,-0.0002,1e-05,0.00015,0.0003,0.00036,-5.9999999999999995e-05,2
6585,7017,-0.00011,-0.00013000000000000002,-0.0002,1e-05,0.00015,0.0003,0.00036,-5.9999999999999995e-05,2
6586,7018,-0.00011,-0.00013000000000000002,-0.0002,1e-05,0.00015,0.0003,0.00036,-5.9999999999999995e-05,2
6587,7019,-0.00011,-0.00013000000000000002,-0.0002,1e-05,0.00015,0.0003,0.00036,-5.9999999999999995e-05,2
6588,7020,-0.00011,-0.00013000000000000002,-0.0002,1e-05,0.00015,0.0003,0.00036,-5.9999999999999995e-05,2
6589,7021,-0.00011,-0.00013000000000000002,-0.0002,1e-05,0.00015,0.0003,0.00036,-5.9999999999999995e-05,2
6590,7022,-0.00011,-0.00013000000000000002,-0.0002,1e-05,0.00015,0.0003,0.00036,-5.9999999999999995e-05,2
6591,7023,-0.00011,-0.00013000000000000002,-0.0002,1e-05,0.00015,0.0003,0.00036,-5.9999999999999995e-05,2
6592,7024,-0.00011,-0.00013000000000000002,-0.0002,1e-05,0.00015,0.0003,0.00036,-5.9999999999999995e-05,2
6593,7025,-0.00011,-0.00013000000000000002,-0.0002,1e-05,0.00015,0.0003,0.00036,-5.9999999999999995e-05,2
6594,7026,-0.00011,-0.00013000000000000002,-0.0002,1e-05,0.00015,0.0003,0.00036,-5.9999999999999995e-05,2
6595,7027,-0.00011,-0.00013000000000000002,-0.0002,1e-05,0.00015,0.0003,0.00036,-5.9999999999999995e-05,2
6596,7028,-0.00022,-0.00016999999999999999,2.9999999999999997e-05,-9e-05,-0.00029,9e-05,0.00013000000000000002,0.00016999999999999999,2
6597,7029,-0.00022,-0.00016999999999999999,2.9999999999999997e-05,-9e-05,-0.00029,9e-05,0.00013000000000000002,0.00016999999999999999,2
6598,7030,-2e-05,0.00011999999999999999,7e-05,0.00013000000000000002,0.00037999999999999997,-0.00025,-0.00037999999999999997,-0.00015,2
6599,7031,-2e-05,0.00011999999999999999,7e-05,0.00013000000000000002,0.00037999999999999997,-0.00025,-0.00037999999999999997,-0.00015,2
6600,7033,-2e-05,0.00011999999999999999,7e-05,0.00013000000000000002,0.00037999999999999997,-0.00025,-0.00037999999999999997,-0.00015,2
6601,7034,-2e-05,0.00011999999999999999,7e-05,0.00013000000000000002,0.00037999999999999997,-0.00025,-0.00037999999999999997,-0.00015,2
6602,7035,-2e-05,0.00011999999999999999,7e-05,0.00013000000000000002,0.00037999999999999997,-0.00025,-0.00037999999999999997,-0.00015,2
6603,7036,-2e-05,0.00011999999999999999,7e-05,0.00013000000000000002,0.00037999999999999997,-0.00025,-0.00037999999999999997,-0.00015,2
6604,7038,-2e-05,0.00011999999999999999,7e-05,0.00013000000000000002,0.00037999999999999997,-0.00025,-0.00037999999999999997,-0.00015,2
6605,7039,-2e-05,0.00011999999999999999,7e-05,0.00013000000000000002,0.00037999999999999997,-0.00025,-0.00037999999999999997,-0.00015,2
6606,7040,-2e-05,0.00011999999999999999,7e-05,0.00013000000000000002,0.00037999999999999997,-0.00025,-0.00037999999999999997,-0.00015,2
6607,7041,-2e-05,0.00011999999999999999,7e-05,0.00013000000000000002,0.00037999999999999997,-0.00025,-0.00037999999999999997,-0.00015,2
6608,7043,-2e-05,0.00011999999999999999,7e-05,0.00013000000000000002,0.00037999999999999997,-0.00025,-0.00037999999999999997,-0.00015,2
6609,7044,-2e-05,0.00011999999999999999,7e-05,0.00013000000000000002,0.00037999999999999997,-0.00025,-0.00037999999999999997,-0.00015,2
6610,7045,-2e-05,0.00011999999999999999,7e-05,0.00013000000000000002,0.00037999999999999997,-0.00025,-0.00037999999999999997,-0.00015,2
6611,7046,-2e-05,0.00011999999999999999,7e-05,0.00013000000000000002,0.00037999999999999997,-0.00025,-0.00037999999999999997,-0.00015,2
6612,7047,-2e-05,0.00011999999999999999,7e-05,0.00013000000000000002,0.00037999999999999997,-0.00025,-0.00037999999999999997,-0.00015,2
6613,7048,-2e-05,0.00011999999999999999,7e-05,0.00013000000000000002,0.00037999999999999997,-0.00025,-0.00037999999999999997,-0.00015,2
6614,7049,-2e-05,0.00011999999999999999,7e-05,0.00013000000000000002,0.00037999999999999997,-0.00025,-0.00037999999999999997,-0.00015,2
6615,7050,9e-05,2e-05,-7e-05,-0.00029,0.00022999999999999998,-0.00022999999999999998,-0.00013000000000000002,0.0,2
6616,7051,0.00029,4e-05,-4e-05,-8e-05,-0.00023999999999999998,-5.9999999999999995e-05,0.00018,0.00031,2
6617,7052,-0.0005099999999999999,-0.00016999999999999999,0.00018,5.9999999999999995e-05,-0.00041,-0.00028,-0.00018999999999999998,-0.00033999999999999997,2
6618,7053,-0.0005099999999999999,-0.00016999999999999999,0.00018,5.9999999999999995e-05,-0.00041,-0.00028,-0.00018999999999999998,-0.00033999999999999997,2
6619,7054,-0.0005099999999999999,-0.00016999999999999999,0.00018,5.9999999999999995e-05,-0.00041,-0.00028,-0.00018999999999999998,-0.00033999999999999997,2
6620,7055,-0.0005099999999999999,-0.00016999999999999999,0.00018,5.9999999999999995e-05,-0.00041,-0.00028,-0.00018999999999999998,-0.00033999999999999997,2
6621,7056,-0.0005099999999999999,-0.00016999999999999999,0.00018,5.9999999999999995e-05,-0.00041,-0.00028,-0.00018999999999999998,-0.00033999999999999997,2
6622,7057,-0.0005099999999999999,-0.00016999999999999999,0.00018,5.9999999999999995e-05,-0.00041,-0.00028,-0.00018999999999999998,-0.00033999999999999997,2
6623,7058,-0.0005099999999999999,-0.00016999999999999999,0.00018,5.9999999999999995e-05,-0.00041,-0.00028,-0.00018999999999999998,-0.00033999999999999997,2
6624,7059,-0.0005099999999999999,-0.00016999999999999999,0.00018,5.9999999999999995e-05,-0.00041,-0.00028,-0.00018999999999999998,-0.00033999999999999997,2
6625,7060,-0.0005099999999999999,-0.00016999999999999999,0.00018,5.9999999999999995e-05,-0.00041,-0.00028,-0.00018999999999999998,-0.00033999999999999997,2
6626,7061,-0.0005099999999999999,-0.00016999999999999999,0.00018,5.9999999999999995e-05,-0.00041,-0.00028,-0.00018999999999999998,-0.00033999999999999997,2
6627,7063,-0.0005099999999999999,-0.00016999999999999999,0.00018,5.9999999999999995e-05,-0.00041,-0.00028,-0.00018999999999999998,-0.00033999999999999997,2
6628,7064,-0.0005099999999999999,-0.00016999999999999999,0.00018,5.9999999999999995e-05,-0.00041,-0.00028,-0.00018999999999999998,-0.00033999999999999997,2
6629,7065,-0.0005099999999999999,-0.00016999999999999999,0.00018,5.9999999999999995e-05,-0.00041,-0.00028,-0.00018999999999999998,-0.00033999999999999997,2
6630,7066,0.00016999999999999999,2.9999999999999997e-05,-2.9999999999999997e-05,-1e-05,-2e-05,-9e-05,-0.00022999999999999998,0.00026000000000000003,2
6631,7067,7e-05,8e-05,0.00011,-1e-05,4e-05,2.9999999999999997e-05,-0.0001,-9e-05,2
6632,7068,7e-05,8e-05,0.00011,-1e-05,4e-05,2.9999999999999997e-05,-0.0001,-9e-05,2
6633,7069,7e-05,8e-05,0.00011,-1e-05,4e-05,2.9999999999999997e-05,-0.0001,-9e-05,2
6634,7070,7e-05,8e-05,0.00011,-1e-05,4e-05,2.9999999999999997e-05,-0.0001,-9e-05,2
6635,7071,7e-05,8e-05,0.00011,-1e-05,4e-05,2.9999999999999997e-05,-0.0001,-9e-05,2
6636,7073,7e-05,8e-05,0.00011,-1e-05,4e-05,2.9999999999999997e-05,-0.0001,-9e-05,2
6637,7074,7e-05,8e-05,0.00011,-1e-05,4e-05,2.9999999999999997e-05,-0.0001,-9e-05,2
6638,7075,7e-05,8e-05,0.00011,-1e-05,4e-05,2.9999999999999997e-05,-0.0001,-9e-05,2
6639,7076,7e-05,8e-05,0.00011,-1e-05,4e-05,2.9999999999999997e-05,-0.0001,-9e-05,2
6640,7077,7e-05,8e-05,0.00011,-1e-05,4e-05,2.9999999999999997e-05,-0.0001,-9e-05,2
6641,7078,7e-05,8e-05,0.00011,-1e-05,4e-05,2.9999999999999997e-05,-0.0001,-9e-05,2
6642,7079,7e-05,8e-05,0.00011,-1e-05,4e-05,2.9999999999999997e-05,-0.0001,-9e-05,2
6643,7080,7e-05,8e-05,0.00011,-1e-05,4e-05,2.9999999999999997e-05,-0.0001,-9e-05,2
6644,7081,7e-05,8e-05,0.00011,-1e-05,4e-05,2.9999999999999997e-05,-0.0001,-9e-05,2
6645,7082,7e-05,8e-05,0.00011,-1e-05,4e-05,2.9999999999999997e-05,-0.0001,-9e-05,2
6646,7083,7e-05,8e-05,0.00011,-1e-05,4e-05,2.9999999999999997e-05,-0.0001,-9e-05,2
6647,7084,7e-05,8e-05,0.00011,-1e-05,4e-05,2.9999999999999997e-05,-0.0001,-9e-05,2
6648,7085,7e-05,8e-05,0.00011,-1e-05,4e-05,2.9999999999999997e-05,-0.0001,-9e-05,2
6649,7086,7e-05,8e-05,0.00011,-1e-05,4e-05,2.9999999999999997e-05,-0.0001,-9e-05,2
6650,7088,7e-05,8e-05,0.00011,-1e-05,4e-05,2.9999999999999997e-05,-0.0001,-9e-05,2
6651,7089,7e-05,8e-05,0.00011,-1e-05,4e-05,2.9999999999999997e-05,-0.0001,-9e-05,2
6652,7090,-0.00013000000000000002,5.9999999999999995e-05,0.00018,-4e-05,-0.00023999999999999998,-0.00035,-9e-05,-9e-05,2
6653,7091,8e-05,-2e-05,0.00018,0.00037999999999999997,-4e-05,5e-05,-4e-05,-0.0001,2
6654,7092,8e-05,-2e-05,0.00018,0.00037999999999999997,-4e-05,5e-05,-4e-05,-0.0001,2
6655,7093,8e-05,-2e-05,0.00018,0.00037999999999999997,-4e-05,5e-05,-4e-05,-0.0001,2
6656,7094,8e-05,-2e-05,0.00018,0.00037999999999999997,-4e-05,5e-05,-4e-05,-0.0001,2
6657,7095,8e-05,-2e-05,0.00018,0.00037999999999999997,-4e-05,5e-05,-4e-05,-0.0001,2
6658,7096,8e-05,-2e-05,0.00018,0.00037999999999999997,-4e-05,5e-05,-4e-05,-0.0001,2
6659,7097,8e-05,-2e-05,0.00018,0.00037999999999999997,-4e-05,5e-05,-4e-05,-0.0001,2
6660,7098,8e-05,-2e-05,0.00018,0.00037999999999999997,-4e-05,5e-05,-4e-05,-0.0001,2
6661,7099,8e-05,-2e-05,0.00018,0.00037999999999999997,-4e-05,5e-05,-4e-05,-0.0001,2
6662,7100,8e-05,-2e-05,0.00018,0.00037999999999999997,-4e-05,5e-05,-4e-05,-0.0001,2
6663,7101,8e-05,-2e-05,0.00018,0.00037999999999999997,-4e-05,5e-05,-4e-05,-0.0001,2
6664,7102,8e-05,-2e-05,0.00018,0.00037999999999999997,-4e-05,5e-05,-4e-05,-0.0001,2
6665,7104,8e-05,-2e-05,0.00018,0.00037999999999999997,-4e-05,5e-05,-4e-05,-0.0001,2
6666,7105,8e-05,-2e-05,0.00018,0.00037999999999999997,-4e-05,5e-05,-4e-05,-0.0001,2
6667,7106,8e-05,-2e-05,0.00018,0.00037999999999999997,-4e-05,5e-05,-4e-05,-0.0001,2
6668,7107,8e-05,-2e-05,0.00018,0.00037999999999999997,-4e-05,5e-05,-4e-05,-0.0001,2
6669,7108,8e-05,-2e-05,0.00018,0.00037999999999999997,-4e-05,5e-05,-4e-05,-0.0001,2
6670,7109,8e-05,-2e-05,0.00018,0.00037999999999999997,-4e-05,5e-05,-4e-05,-0.0001,2
6671,7110,-0.00011,-1e-05,-8e-05,-0.00011999999999999999,-0.00025,-0.00016999999999999999,0.00013000000000000002,0.00011999999999999999,2
6672,7111,8e-05,8e-05,-5.9999999999999995e-05,-0.00021,7e-05,-5.9999999999999995e-05,5e-05,0.0,2
6673,7112,-0.00016,0.0,4e-05,-0.00016,8e-05,0.00022,0.0003,-2.9999999999999997e-05,2
6674,7113,-0.00016,0.0,4e-05,-0.00016,8e-05,0.00022,0.0003,-2.9999999999999997e-05,2
6675,7114,-0.00016,0.0,4e-05,-0.00016,8e-05,0.00022,0.0003,-2.9999999999999997e-05,2
6676,7115,-0.00016,0.0,4e-05,-0.00016,8e-05,0.00022,0.0003,-2.9999999999999997e-05,2
6677,7116,-0.00016,0.0,4e-05,-0.00016,8e-05,0.00022,0.0003,-2.9999999999999997e-05,2
6678,7117,-0.00016,0.0,4e-05,-0.00016,8e-05,0.00022,0.0003,-2.9999999999999997e-05,2
6679,7118,-0.00016,0.0,4e-05,-0.00016,8e-05,0.00022,0.0003,-2.9999999999999997e-05,2
6680,7119,-0.00016,0.0,4e-05,-0.00016,8e-05,0.00022,0.0003,-2.9999999999999997e-05,2
6681,7120,-0.00016,0.0,4e-05,-0.00016,8e-05,0.00022,0.0003,-2.9999999999999997e-05,2
6682,7121,-0.00016,0.0,4e-05,-0.00016,8e-05,0.00022,0.0003,-2.9999999999999997e-05,2
6683,7122,-0.00016,0.0,4e-05,-0.00016,8e-05,0.00022,0.0003,-2.9999999999999997e-05,2
6684,7123,-0.00016,0.0,4e-05,-0.00016,8e-05,0.00022,0.0003,-2.9999999999999997e-05,2
6685,7124,-0.00016,0.0,4e-05,-0.00016,8e-05,0.00022,0.0003,-2.9999999999999997e-05,2
6686,7125,-5e-05,-7e-05,-0.00047999999999999996,-0.0008699999999999999,-0.00037,0.00045999999999999996,0.00049,-0.0002,2
6687,7126,-5e-05,-7e-05,-0.00047999999999999996,-0.0008699999999999999,-0.00037,0.00045999999999999996,0.00049,-0.0002,2
6688,7127,-5e-05,-7e-05,-0.00047999999999999996,-0.0008699999999999999,-0.00037,0.00045999999999999996,0.00049,-0.0002,2
6689,7128,-5e-05,-7e-05,-0.00047999999999999996,-0.0008699999999999999,-0.00037,0.00045999999999999996,0.00049,-0.0002,2
6690,7129,-5e-05,-7e-05,-0.00047999999999999996,-0.0008699999999999999,-0.00037,0.00045999999999999996,0.00049,-0.0002,2
6691,7130,-5e-05,-7e-05,-0.00047999999999999996,-0.0008699999999999999,-0.00037,0.00045999999999999996,0.00049,-0.0002,2
6692,7131,-5e-05,-7e-05,-0.00047999999999999996,-0.0008699999999999999,-0.00037,0.00045999999999999996,0.00049,-0.0002,2
6693,7132,0.00025,0.00011999999999999999,5.9999999999999995e-05,0.00018999999999999998,-1e-05,0.00058,0.00032,0.00022999999999999998,2
6694,7133,0.00025,0.00011999999999999999,5.9999999999999995e-05,0.00018999999999999998,-1e-05,0.00058,0.00032,0.00022999999999999998,2
6695,7134,0.00025,0.00011999999999999999,5.9999999999999995e-05,0.00018999999999999998,-1e-05,0.00058,0.00032,0.00022999999999999998,2
6696,7135,0.00025,0.00011999999999999999,5.9999999999999995e-05,0.00018999999999999998,-1e-05,0.00058,0.00032,0.00022999999999999998,2
6697,7136,0.00025,0.00011999999999999999,5.9999999999999995e-05,0.00018999999999999998,-1e-05,0.00058,0.00032,0.00022999999999999998,2
6698,7138,0.00025,0.00011999999999999999,5.9999999999999995e-05,0.00018999999999999998,-1e-05,0.00058,0.00032,0.00022999999999999998,2
6699,7139,0.00025,0.00011999999999999999,5.9999999999999995e-05,0.00018999999999999998,-1e-05,0.00058,0.00032,0.00022999999999999998,2
6700,7140,0.00025,0.00011999999999999999,5.9999999999999995e-05,0.00018999999999999998,-1e-05,0.00058,0.00032,0.00022999999999999998,2
6701,7141,0.00025,0.00011999999999999999,5.9999999999999995e-05,0.00018999999999999998,-1e-05,0.00058,0.00032,0.00022999999999999998,2
6702,7142,0.00025,0.00011999999999999999,5.9999999999999995e-05,0.00018999999999999998,-1e-05,0.00058,0.00032,0.00022999999999999998,2
6703,7143,0.00025,0.00011999999999999999,5.9999999999999995e-05,0.00018999999999999998,-1e-05,0.00058,0.00032,0.00022999999999999998,2
6704,7144,0.00025,0.00011999999999999999,5.9999999999999995e-05,0.00018999999999999998,-1e-05,0.00058,0.00032,0.00022999999999999998,2
6705,7145,0.00025,0.00011999999999999999,5.9999999999999995e-05,0.00018999999999999998,-1e-05,0.00058,0.00032,0.00022999999999999998,2
6706,7146,0.00025,0.00011999999999999999,5.9999999999999995e-05,0.00018999999999999998,-1e-05,0.00058,0.00032,0.00022999999999999998,2
6707,7147,0.00025,0.00011999999999999999,5.9999999999999995e-05,0.00018999999999999998,-1e-05,0.00058,0.00032,0.00022999999999999998,2
6708,7148,0.00023999999999999998,9e-05,0.00016999999999999999,0.00016999999999999999,0.00018999999999999998,-0.00022,-0.00035,0.00011999999999999999,2
6709,7149,-9e-05,4e-05,0.00033999999999999997,0.00044,0.00023999999999999998,0.00053,0.00044,-5.9999999999999995e-05,2
6710,7150,-2e-05,-1e-05,-0.00018999999999999998,-0.00016999999999999999,2.9999999999999997e-05,0.00022,0.00016999999999999999,5.9999999999999995e-05,2
6711,7151,-2e-05,-1e-05,-0.00018999999999999998,-0.00016999999999999999,2.9999999999999997e-05,0.00022,0.00016999999999999999,5.9999999999999995e-05,2
6712,7153,-2e-05,-1e-05,-0.00018999999999999998,-0.00016999999999999999,2.9999999999999997e-05,0.00022,0.00016999999999999999,5.9999999999999995e-05,2
6713,7154,-2e-05,-1e-05,-0.00018999999999999998,-0.00016999999999999999,2.9999999999999997e-05,0.00022,0.00016999999999999999,5.9999999999999995e-05,2
6714,7155,-2e-05,-1e-05,-0.00018999999999999998,-0.00016999999999999999,2.9999999999999997e-05,0.00022,0.00016999999999999999,5.9999999999999995e-05,2
6715,7156,-2e-05,-1e-05,-0.00018999999999999998,-0.00016999999999999999,2.9999999999999997e-05,0.00022,0.00016999999999999999,5.9999999999999995e-05,2
6716,7157,-2e-05,-1e-05,-0.00018999999999999998,-0.00016999999999999999,2.9999999999999997e-05,0.00022,0.00016999999999999999,5.9999999999999995e-05,2
6717,7158,-2e-05,-1e-05,-0.00018999999999999998,-0.00016999999999999999,2.9999999999999997e-05,0.00022,0.00016999999999999999,5.9999999999999995e-05,2
6718,7159,-2e-05,-1e-05,-0.00018999999999999998,-0.00016999999999999999,2.9999999999999997e-05,0.00022,0.00016999999999999999,5.9999999999999995e-05,2
6719,7160,-2e-05,-1e-05,-0.00018999999999999998,-0.00016999999999999999,2.9999999999999997e-05,0.00022,0.00016999999999999999,5.9999999999999995e-05,2
6720,7161,-2e-05,-1e-05,-0.00018999999999999998,-0.00016999999999999999,2.9999999999999997e-05,0.00022,0.00016999999999999999,5.9999999999999995e-05,2
6721,7162,-2e-05,-1e-05,-0.00018999999999999998,-0.00016999999999999999,2.9999999999999997e-05,0.00022,0.00016999999999999999,5.9999999999999995e-05,2
6722,7163,-2e-05,-1e-05,-0.00018999999999999998,-0.00016999999999999999,2.9999999999999997e-05,0.00022,0.00016999999999999999,5.9999999999999995e-05,2
6723,7164,-2e-05,-1e-05,-0.00018999999999999998,-0.00016999999999999999,2.9999999999999997e-05,0.00022,0.00016999999999999999,5.9999999999999995e-05,2
6724,7165,-2e-05,-1e-05,-0.00018999999999999998,-0.00016999999999999999,2.9999999999999997e-05,0.00022,0.00016999999999999999,5.9999999999999995e-05,2
6725,7166,-2e-05,-1e-05,-0.00018999999999999998,-0.00016999999999999999,2.9999999999999997e-05,0.00022,0.00016999999999999999,5.9999999999999995e-05,2
6726,7167,-2e-05,-1e-05,-0.00018999999999999998,-0.00016999999999999999,2.9999999999999997e-05,0.00022,0.00016999999999999999,5.9999999999999995e-05,2
6727,7168,-2e-05,-1e-05,-0.00018999999999999998,-0.00016999999999999999,2.9999999999999997e-05,0.00022,0.00016999999999999999,5.9999999999999995e-05,2
6728,7169,-2e-05,-1e-05,-0.00018999999999999998,-0.00016999999999999999,2.9999999999999997e-05,0.00022,0.00016999999999999999,5.9999999999999995e-05,2
6729,7170,-2e-05,-1e-05,-0.00018999999999999998,-0.00016999999999999999,2.9999999999999997e-05,0.00022,0.00016999999999999999,5.9999999999999995e-05,2
6730,7171,0.0,-8e-05,5.9999999999999995e-05,0.00016999999999999999,0.00015,-0.0005,-0.00047999999999999996,4e-05,2
6731,7172,0.0,-2.9999999999999997e-05,7e-05,0.00016999999999999999,-5e-05,5.9999999999999995e-05,1e-05,0.00018,2
6732,7173,0.0,-2.9999999999999997e-05,7e-05,0.00016999999999999999,-5e-05,5.9999999999999995e-05,1e-05,0.00018,2
6733,7174,0.0,-2.9999999999999997e-05,7e-05,0.00016999999999999999,-5e-05,5.9999999999999995e-05,1e-05,0.00018,2
6734,7175,0.0,-2.9999999999999997e-05,7e-05,0.00016999999999999999,-5e-05,5.9999999999999995e-05,1e-05,0.00018,2
6735,7176,0.0,-2.9999999999999997e-05,7e-05,0.00016999999999999999,-5e-05,5.9999999999999995e-05,1e-05,0.00018,2
6736,7177,0.0,-2.9999999999999997e-05,7e-05,0.00016999999999999999,-5e-05,5.9999999999999995e-05,1e-05,0.00018,2
6737,7178,0.0,-2.9999999999999997e-05,7e-05,0.00016999999999999999,-5e-05,5.9999999999999995e-05,1e-05,0.00018,2
6738,7179,0.0,-2.9999999999999997e-05,7e-05,0.00016999999999999999,-5e-05,5.9999999999999995e-05,1e-05,0.00018,2
6739,7180,0.0,-2.9999999999999997e-05,7e-05,0.00016999999999999999,-5e-05,5.9999999999999995e-05,1e-05,0.00018,2
6740,7181,0.0,-2.9999999999999997e-05,7e-05,0.00016999999999999999,-5e-05,5.9999999999999995e-05,1e-05,0.00018,2
6741,7182,0.0,-2.9999999999999997e-05,7e-05,0.00016999999999999999,-5e-05,5.9999999999999995e-05,1e-05,0.00018,2
6742,7183,0.0,-2.9999999999999997e-05,7e-05,0.00016999999999999999,-5e-05,5.9999999999999995e-05,1e-05,0.00018,2
6743,7184,0.0,-2.9999999999999997e-05,7e-05,0.00016999999999999999,-5e-05,5.9999999999999995e-05,1e-05,0.00018,2
6744,7185,9e-05,9e-05,7e-05,0.00015,2e-05,0.00011999999999999999,0.00011999999999999999,-9e-05,2
6745,7186,9e-05,9e-05,7e-05,0.00015,2e-05,0.00011999999999999999,0.00011999999999999999,-9e-05,2
6746,7188,9e-05,9e-05,7e-05,0.00015,2e-05,0.00011999999999999999,0.00011999999999999999,-9e-05,2
6747,7189,9e-05,9e-05,7e-05,0.00015,2e-05,0.00011999999999999999,0.00011999999999999999,-9e-05,2
6748,7190,9e-05,9e-05,7e-05,0.00015,2e-05,0.00011999999999999999,0.00011999999999999999,-9e-05,2
6749,7191,9e-05,9e-05,7e-05,0.00015,2e-05,0.00011999999999999999,0.00011999999999999999,-9e-05,2
6750,7192,-0.00014,-0.00011,1e-05,0.00015,0.00032,0.00023999999999999998,0.00036,1e-05,2
6751,7193,-0.00014,-0.00011,1e-05,0.00015,0.00032,0.00023999999999999998,0.00036,1e-05,2
6752,7194,-0.00014,-0.00011,1e-05,0.00015,0.00032,0.00023999999999999998,0.00036,1e-05,2
6753,7195,-0.00014,-0.00011,1e-05,0.00015,0.00032,0.00023999999999999998,0.00036,1e-05,2
6754,7196,-0.00014,-0.00011,1e-05,0.00015,0.00032,0.00023999999999999998,0.00036,1e-05,2
6755,7197,-0.00014,-0.00011,1e-05,0.00015,0.00032,0.00023999999999999998,0.00036,1e-05,2
6756,7198,-0.00014,-0.00011,1e-05,0.00015,0.00032,0.00023999999999999998,0.00036,1e-05,2
6757,7199,-0.00014,-0.00011,1e-05,0.00015,0.00032,0.00023999999999999998,0.00036,1e-05,2
6758,7200,-0.00014,-0.00011,1e-05,0.00015,0.00032,0.00023999999999999998,0.00036,1e-05,2
6759,7201,-0.00014,-0.00011,1e-05,0.00015,0.00032,0.00023999999999999998,0.00036,1e-05,2
6760,7202,-0.00014,-0.00011,1e-05,0.00015,0.00032,0.00023999999999999998,0.00036,1e-05,2
6761,7203,-0.00014,-0.00011,1e-05,0.00015,0.00032,0.00023999999999999998,0.00036,1e-05,2
6762,7204,-0.00014,-0.00011,1e-05,0.00015,0.00032,0.00023999999999999998,0.00036,1e-05,2
6763,7205,-0.00014,-0.00011,1e-05,0.00015,0.00032,0.00023999999999999998,0.00036,1e-05,2
6764,7206,-0.00014,-0.00011,1e-05,0.00015,0.00032,0.00023999999999999998,0.00036,1e-05,2
6765,7207,-0.00014,-0.00011,1e-05,0.00015,0.00032,0.00023999999999999998,0.00036,1e-05,2
6766,7208,0.0001,0.00011999999999999999,0.00023999999999999998,0.00039,2.9999999999999997e-05,-0.00015,-0.00011999999999999999,-5.9999999999999995e-05,2
6767,7209,-9e-05,-9e-05,-0.00022,-0.00028,-2e-05,0.00011,0.00022999999999999998,-5.9999999999999995e-05,2
6768,7210,-0.00011999999999999999,-8e-05,-0.0002,-0.00015,-0.00013000000000000002,-0.00033999999999999997,-0.00047999999999999996,-0.00021,2
6769,7211,-0.00011999999999999999,-8e-05,-0.0002,-0.00015,-0.00013000000000000002,-0.00033999999999999997,-0.00047999999999999996,-0.00021,2
6770,7212,-0.00011999999999999999,-8e-05,-0.0002,-0.00015,-0.00013000000000000002,-0.00033999999999999997,-0.00047999999999999996,-0.00021,2
6771,7213,-0.00011999999999999999,-8e-05,-0.0002,-0.00015,-0.00013000000000000002,-0.00033999999999999997,-0.00047999999999999996,-0.00021,2
6772,7214,-0.00011999999999999999,-8e-05,-0.0002,-0.00015,-0.00013000000000000002,-0.00033999999999999997,-0.00047999999999999996,-0.00021,2
6773,7215,-0.00011999999999999999,-8e-05,-0.0002,-0.00015,-0.00013000000000000002,-0.00033999999999999997,-0.00047999999999999996,-0.00021,2
6774,7216,-0.00011999999999999999,-8e-05,-0.0002,-0.00015,-0.00013000000000000002,-0.00033999999999999997,-0.00047999999999999996,-0.00021,2
6775,7217,-0.00011999999999999999,-8e-05,-0.0002,-0.00015,-0.00013000000000000002,-0.00033999999999999997,-0.00047999999999999996,-0.00021,2
6776,7218,-0.00011999999999999999,-8e-05,-0.0002,-0.00015,-0.00013000000000000002,-0.00033999999999999997,-0.00047999999999999996,-0.00021,2
6777,7219,-0.00011999999999999999,-8e-05,-0.0002,-0.00015,-0.00013000000000000002,-0.00033999999999999997,-0.00047999999999999996,-0.00021,2
6778,7220,-0.00011999999999999999,-8e-05,-0.0002,-0.00015,-0.00013000000000000002,-0.00033999999999999997,-0.00047999999999999996,-0.00021,2
6779,7221,-0.00011999999999999999,-8e-05,-0.0002,-0.00015,-0.00013000000000000002,-0.00033999999999999997,-0.00047999999999999996,-0.00021,2
6780,7222,-0.00011999999999999999,-8e-05,-0.0002,-0.00015,-0.00013000000000000002,-0.00033999999999999997,-0.00047999999999999996,-0.00021,2
6781,7223,-0.00011999999999999999,-8e-05,-0.0002,-0.00015,-0.00013000000000000002,-0.00033999999999999997,-0.00047999999999999996,-0.00021,2
6782,7224,-0.00011999999999999999,-8e-05,-0.0002,-0.00015,-0.00013000000000000002,-0.00033999999999999997,-0.00047999999999999996,-0.00021,2
6783,7225,-0.00011999999999999999,-8e-05,-0.0002,-0.00015,-0.00013000000000000002,-0.00033999999999999997,-0.00047999999999999996,-0.00021,2
6784,7226,-0.00011999999999999999,-8e-05,-0.0002,-0.00015,-0.00013000000000000002,-0.00033999999999999997,-0.00047999999999999996,-0.00021,2
6785,7227,-0.00011999999999999999,-8e-05,-0.0002,-0.00015,-0.00013000000000000002,-0.00033999999999999997,-0.00047999999999999996,-0.00021,2
6786,7228,-0.00011999999999999999,-8e-05,-0.0002,-0.00015,-0.00013000000000000002,-0.00033999999999999997,-0.00047999999999999996,-0.00021,2
6787,7229,-0.00011999999999999999,-8e-05,-0.0002,-0.00015,-0.00013000000000000002,-0.00033999999999999997,-0.00047999999999999996,-0.00021,2
6788,7230,-0.00011999999999999999,-8e-05,-0.0002,-0.00015,-0.00013000000000000002,-0.00033999999999999997,-0.00047999999999999996,-0.00021,2
6789,7231,-9e-05,-2e-05,0.00018999999999999998,0.00022,1e-05,-0.00055,-0.00033999999999999997,-0.00023999999999999998,2
6790,7232,-0.00016,-5.9999999999999995e-05,2e-05,-0.00016,-0.00011999999999999999,-0.00015,-0.00023999999999999998,-0.00013000000000000002,2
6791,7233,-0.00016,-5.9999999999999995e-05,2e-05,-0.00016,-0.00011999999999999999,-0.00015,-0.00023999999999999998,-0.00013000000000000002,2
6792,7234,-0.00016,-5.9999999999999995e-05,2e-05,-0.00016,-0.00011999999999999999,-0.00015,-0.00023999999999999998,-0.00013000000000000002,2
6793,7235,-0.00016,-5.9999999999999995e-05,2e-05,-0.00016,-0.00011999999999999999,-0.00015,-0.00023999999999999998,-0.00013000000000000002,2
6794,7236,-0.00016,-5.9999999999999995e-05,2e-05,-0.00016,-0.00011999999999999999,-0.00015,-0.00023999999999999998,-0.00013000000000000002,2
6795,7238,-0.00016,-5.9999999999999995e-05,2e-05,-0.00016,-0.00011999999999999999,-0.00015,-0.00023999999999999998,-0.00013000000000000002,2
6796,7239,-0.00016,-5.9999999999999995e-05,2e-05,-0.00016,-0.00011999999999999999,-0.00015,-0.00023999999999999998,-0.00013000000000000002,2
6797,7240,-0.00016,-5.9999999999999995e-05,2e-05,-0.00016,-0.00011999999999999999,-0.00015,-0.00023999999999999998,-0.00013000000000000002,2
6798,7241,-0.00016,-5.9999999999999995e-05,2e-05,-0.00016,-0.00011999999999999999,-0.00015,-0.00023999999999999998,-0.00013000000000000002,2
6799,7242,-0.00016,-5.9999999999999995e-05,2e-05,-0.00016,-0.00011999999999999999,-0.00015,-0.00023999999999999998,-0.00013000000000000002,2
6800,7243,-0.00016,-5.9999999999999995e-05,2e-05,-0.00016,-0.00011999999999999999,-0.00015,-0.00023999999999999998,-0.00013000000000000002,2
6801,7244,-0.00016,-5.9999999999999995e-05,2e-05,-0.00016,-0.00011999999999999999,-0.00015,-0.00023999999999999998,-0.00013000000000000002,2
6802,7245,-0.0001,1e-05,0.00026000000000000003,0.00045999999999999996,-0.00029,0.0002,0.00047000000000000004,-0.00013000000000000002,2
6803,7246,-0.0001,1e-05,0.00026000000000000003,0.00045999999999999996,-0.00029,0.0002,0.00047000000000000004,-0.00013000000000000002,2
6804,7247,-0.0001,1e-05,0.00026000000000000003,0.00045999999999999996,-0.00029,0.0002,0.00047000000000000004,-0.00013000000000000002,2
6805,7248,-0.0001,1e-05,0.00026000000000000003,0.00045999999999999996,-0.00029,0.0002,0.00047000000000000004,-0.00013000000000000002,2
6806,7249,-0.0001,1e-05,0.00026000000000000003,0.00045999999999999996,-0.00029,0.0002,0.00047000000000000004,-0.00013000000000000002,2
6807,7250,-0.0001,1e-05,0.00026000000000000003,0.00045999999999999996,-0.00029,0.0002,0.00047000000000000004,-0.00013000000000000002,2
6808,7251,-0.0001,1e-05,0.00026000000000000003,0.00045999999999999996,-0.00029,0.0002,0.00047000000000000004,-0.00013000000000000002,2
6809,7252,-0.0001,1e-05,0.00026000000000000003,0.00045999999999999996,-0.00029,0.0002,0.00047000000000000004,-0.00013000000000000002,2
6810,7253,-4e-05,-2.9999999999999997e-05,-0.00035,-0.00021,-8e-05,0.00023999999999999998,0.00027,1e-05,2
6811,7254,-4e-05,-2.9999999999999997e-05,-0.00035,-0.00021,-8e-05,0.00023999999999999998,0.00027,1e-05,2
6812,7255,-4e-05,-2.9999999999999997e-05,-0.00035,-0.00021,-8e-05,0.00023999999999999998,0.00027,1e-05,2
6813,7256,-4e-05,-2.9999999999999997e-05,-0.00035,-0.00021,-8e-05,0.00023999999999999998,0.00027,1e-05,2
6814,7257,-4e-05,-2.9999999999999997e-05,-0.00035,-0.00021,-8e-05,0.00023999999999999998,0.00027,1e-05,2
6815,7258,-4e-05,-2.9999999999999997e-05,-0.00035,-0.00021,-8e-05,0.00023999999999999998,0.00027,1e-05,2
6816,7259,-4e-05,-2.9999999999999997e-05,-0.00035,-0.00021,-8e-05,0.00023999999999999998,0.00027,1e-05,2
6817,7260,-4e-05,-2.9999999999999997e-05,-0.00035,-0.00021,-8e-05,0.00023999999999999998,0.00027,1e-05,2
6818,7261,-4e-05,-2.9999999999999997e-05,-0.00035,-0.00021,-8e-05,0.00023999999999999998,0.00027,1e-05,2
6819,7262,-4e-05,-2.9999999999999997e-05,-0.00035,-0.00021,-8e-05,0.00023999999999999998,0.00027,1e-05,2
6820,7263,-4e-05,-2.9999999999999997e-05,-0.00035,-0.00021,-8e-05,0.00023999999999999998,0.00027,1e-05,2
6821,7264,-4e-05,-2.9999999999999997e-05,-0.00035,-0.00021,-8e-05,0.00023999999999999998,0.00027,1e-05,2
6822,7265,-4e-05,-2.9999999999999997e-05,-0.00035,-0.00021,-8e-05,0.00023999999999999998,0.00027,1e-05,2
6823,7266,-4e-05,-2.9999999999999997e-05,-0.00035,-0.00021,-8e-05,0.00023999999999999998,0.00027,1e-05,2
6824,7267,-4e-05,-2.9999999999999997e-05,-0.00035,-0.00021,-8e-05,0.00023999999999999998,0.00027,1e-05,2
6825,7268,-2.9999999999999997e-05,5.9999999999999995e-05,2.9999999999999997e-05,8e-05,5.9999999999999995e-05,-1e-05,-0.00016,-5e-05,2
6826,7269,-9e-05,-5.9999999999999995e-05,0.00011,2e-05,-2.9999999999999997e-05,-4e-05,0.00032,-2.9999999999999997e-05,2
6827,7270,-0.00016999999999999999,2e-05,0.0001,0.00011,1e-05,-0.00016999999999999999,-0.00016999999999999999,-0.00018,2
6828,7271,-0.00016999999999999999,2e-05,0.0001,0.00011,1e-05,-0.00016999999999999999,-0.00016999999999999999,-0.00018,2
6829,7272,-0.00016999999999999999,2e-05,0.0001,0.00011,1e-05,-0.00016999999999999999,-0.00016999999999999999,-0.00018,2
6830,7273,-0.00016999999999999999,2e-05,0.0001,0.00011,1e-05,-0.00016999999999999999,-0.00016999999999999999,-0.00018,2
6831,7274,-0.00016999999999999999,2e-05,0.0001,0.00011,1e-05,-0.00016999999999999999,-0.00016999999999999999,-0.00018,2
6832,7275,-0.00016999999999999999,2e-05,0.0001,0.00011,1e-05,-0.00016999999999999999,-0.00016999999999999999,-0.00018,2
6833,7276,-0.00016999999999999999,2e-05,0.0001,0.00011,1e-05,-0.00016999999999999999,-0.00016999999999999999,-0.00018,2
6834,7277,-0.00016999999999999999,2e-05,0.0001,0.00011,1e-05,-0.00016999999999999999,-0.00016999999999999999,-0.00018,2
