,time,channel1,channel2,channel3,channel4,channel5,channel6,channel7,channel8,class
6286,6470,-5e-05,-4e-05,-0.00013000000000000002,-0.00031,-0.00018,0.00016,-0.0005099999999999999,-0.00016,2
6287,6471,-5e-05,-4e-05,-0.00013000000000000002,-0.00031,-0.00018,0.00016,-0.0005099999999999999,-0.00016,2
6288,6472,-5e-05,-4e-05,-0.00013000000000000002,-0.00031,-0.00018,0.00016,-0.0005099999999999999,-0.00016,2
6289,6473,-5e-05,-4e-05,-0.00013000000000000002,-0.00031,-0.00018,0.00016,-0.0005099999999999999,-0.00016,2
6290,6474,-5e-05,-4e-05,-0.00013000000000000002,-0.00031,-0.00018,0.00016,-0.0005099999999999999,-0.00016,2
6291,6475,-5e-05,-4e-05,-0.00013000000000000002,-0.00031,-0.00018,0.00016,-0.0005099999999999999,-0.00016,2
6292,6476,-5e-05,-4e-05,-0.00013000000000000002,-0.00031,-0.00018,0.00016,-0.0005099999999999999,-0.00016,2
6293,6477,-5e-05,-4e-05,-0.00013000000000000002,-0.00031,-0.00018,0.00016,-0.0005099999999999999,-0.00016,2
6294,6478,-5e-05,-4e-05,-0.00013000000000000002,-0.00031,-0.00018,0.00016,-0.0005099999999999999,-0.00016,2
6295,6479,-5e-05,-4e-05,-0.00013000000000000002,-0.00031,-0.00018,0.00016,-0.0005099999999999999,-0.00016,2
6296,6480,-5e-05,-4e-05,-0.00013000000000000002,-0.00031,-0.00018,0.00016,-0.0005099999999999999,-0.00016,2
6297,6481,1e-05,-7e-05,-0.00023999999999999998,-0.00057,-0.00031,0.00075,-0.00033,1e-05,2
6298,6482,1e-05,-7e-05,-0.00023999999999999998,-0.00057,-0.00031,0.00075,-0.00033,1e-05,2
6299,6483,0.00011,5e-05,8e-05,0.0004,0.00016,-8e-05,5e-05,0.00011999999999999999,2
6300,6484,0.00011,5e-05,8e-05,0.0004,0.00016,-8e-05,5e-05,0.00011999999999999999,2
6301,6485,0.00011,5e-05,8e-05,0.0004,0.00016,-8e-05,5e-05,0.00011999999999999999,2
6302,6486,0.00011,5e-05,8e-05,0.0004,0.00016,-8e-05,5e-05,0.00011999999999999999,2
6303,6488,0.00011,5e-05,8e-05,0.0004,0.00016,-8e-05,5e-05,0.00011999999999999999,2
6304,6489,0.00011,5e-05,8e-05,0.0004,0.00016,-8e-05,5e-05,0.00011999999999999999,2
6305,6490,0.00011,5e-05,8e-05,0.0004,0.00016,-8e-05,5e-05,0.00011999999999999999,2
6306,6491,0.00011,5e-05,8e-05,0.0004,0.00016,-8e-05,5e-05,0.00011999999999999999,2
6307,6492,0.00011,5e-05,8e-05,0.0004,0.00016,-8e-05,5e-05,0.00011999999999999999,2
6308,6493,0.00011,5e-05,8e-05,0.0004,0.00016,-8e-05,5e-05,0.00011999999999999999,2
6309,6494,0.00011,5e-05,8e-05,0.0004,0.00016,-8e-05,5e-05,0.00011999999999999999,2
6310,6495,0.00011,5e-05,8e-05,0.0004,0.00016,-8e-05,5e-05,0.00011999999999999999,2
6311,6496,0.00011,5e-05,8e-05,0.0004,0.00016,-8e-05,5e-05,0.00011999999999999999,2
6312,6497,0.00011,5e-05,8e-05,0.0004,0.00016,-8e-05,5e-05,0.00011999999999999999,2
6313,6498,0.00011,5e-05,8e-05,0.0004,0.00016,-8e-05,5e-05,0.00011999999999999999,2
6314,6499,0.00011,5e-05,8e-05,0.0004,0.00016,-8e-05,5e-05,0.00011999999999999999,2
6315,6500,0.00011,5e-05,8e-05,0.0004,0.00016,-8e-05,5e-05,0.00011999999999999999,2
6316,6501,0.00011,5e-05,8e-05,0.0004,0.00016,-8e-05,5e-05,0.00011999999999999999,2
6317,6502,0.00011,5e-05,8e-05,0.0004,0.00016,-8e-05,5e-05,0.00011999999999999999,2
6318,6503,0.00011,5e-05,8e-05,0.0004,0.00016,-8e-05,5e-05,0.00011999999999999999,2
6319,6504,-1e-05,1e-05,0.00011999999999999999,1e-05,-1e-05,-9e-05,0.0001,-2e-05,2
6320,6505,2e-05,-5e-05,-9e-05,0.00028,0.00018,-0.00014,-0.00011999999999999999,5e-05,2
6321,6506,2e-05,-5e-05,-9e-05,0.00028,0.00018,-0.00014,-0.00011999999999999999,5e-05,2
6322,6507,2e-05,-5e-05,-9e-05,0.00028,0.00018,-0.00014,-0.00011999999999999999,5e-05,2
6323,6508,2e-05,-5e-05,-9e-05,0.00028,0.00018,-0.00014,-0.00011999999999999999,5e-05,2
6324,6509,2e-05,-5e-05,-9e-05,0.00028,0.00018,-0.00014,-0.00011999999999999999,5e-05,2
6325,6510,2e-05,-5e-05,-9e-05,0.00028,0.00018,-0.00014,-0.00011999999999999999,5e-05,2
6326,6511,2e-05,-5e-05,-9e-05,0.00028,0.00018,-0.00014,-0.00011999999999999999,5e-05,2
6327,6512,2e-05,-5e-05,-9e-05,0.00028,0.00018,-0.00014,-0.00011999999999999999,5e-05,2
6328,6513,2e-05,-5e-05,-9e-05,0.00028,0.00018,-0.00014,-0.00011999999999999999,5e-05,2
6329,6514,2e-05,-5e-05,-9e-05,0.00028,0.00018,-0.00014,-0.00011999999999999999,5e-05,2
6330,6515,2e-05,-5e-05,-9e-05,0.00028,0.00018,-0.00014,-0.00011999999999999999,5e-05,2
6331,6516,2e-05,-5e-05,-9e-05,0.00028,0.00018,-0.00014,-0.00011999999999999999,5e-05,2
6332,6517,-1e-05,-1e-05,-5e-05,0.00013000000000000002,-0.00014,-0.00057,0.00016,-2.9999999999999997e-05,2
6333,6518,-1e-05,-1e-05,-5e-05,0.00013000000000000002,-0.00014,-0.00057,0.00016,-2.9999999999999997e-05,2
6334,6519,-1e-05,-1e-05,-5e-05,0.00013000000000000002,-0.00014,-0.00057,0.00016,-2.9999999999999997e-05,2
6335,6520,-1e-05,-1e-05,-5e-05,0.00013000000000000002,-0.00014,-0.00057,0.00016,-2.9999999999999997e-05,2
6336,6521,-1e-05,-1e-05,-5e-05,0.00013000000000000002,-0.00014,-0.00057,0.00016,-2.9999999999999997e-05,2
6337,6522,-1e-05,-1e-05,-5e-05,0.00013000000000000002,-0.00014,-0.00057,0.00016,-2.9999999999999997e-05,2
6338,6523,-1e-05,-1e-05,-5e-05,0.00013000000000000002,-0.00014,-0.00057,0.00016,-2.9999999999999997e-05,2
6339,6524,-1e-05,-1e-05,-5e-05,0.00013000000000000002,-0.00014,-0.00057,0.00016,-2.9999999999999997e-05,2
6340,6525,-1e-05,-1e-05,-5e-05,0.00013000000000000002,-0.00014,-0.00057,0.00016,-2.9999999999999997e-05,2
6341,6526,1e-05,-1e-05,-2e-05,-0.00037,7e-05,-0.00015,0.00026000000000000003,9e-05,2
6342,6527,1e-05,-1e-05,-2e-05,-0.00037,7e-05,-0.00015,0.00026000000000000003,9e-05,2
6343,6528,1e-05,-1e-05,-2e-05,-0.00037,7e-05,-0.00015,0.00026000000000000003,9e-05,2
6344,6529,1e-05,-1e-05,-2e-05,-0.00037,7e-05,-0.00015,0.00026000000000000003,9e-05,2
6345,6530,1e-05,-1e-05,-2e-05,-0.00037,7e-05,-0.00015,0.00026000000000000003,9e-05,2
6346,6531,1e-05,-1e-05,-2e-05,-0.00037,7e-05,-0.00015,0.00026000000000000003,9e-05,2
6347,6532,1e-05,-1e-05,-2e-05,-0.00037,7e-05,-0.00015,0.00026000000000000003,9e-05,2
6348,6533,1e-05,-1e-05,-2e-05,-0.00037,7e-05,-0.00015,0.00026000000000000003,9e-05,2
6349,6534,1e-05,-1e-05,-2e-05,-0.00037,7e-05,-0.00015,0.00026000000000000003,9e-05,2
6350,6535,1e-05,-1e-05,-2e-05,-0.00037,7e-05,-0.00015,0.00026000000000000003,9e-05,2
6351,6536,1e-05,-1e-05,-2e-05,-0.00037,7e-05,-0.00015,0.00026000000000000003,9e-05,2
6352,6538,1e-05,-1e-05,-2e-05,-0.00037,7e-05,-0.00015,0.00026000000000000003,9e-05,2
6353,6539,1e-05,-1e-05,-2e-05,-0.00037,7e-05,-0.00015,0.00026000000000000003,9e-05,2
6354,6540,1e-05,-1e-05,-2e-05,-0.00037,7e-05,-0.00015,0.00026000000000000003,9e-05,2
6355,6541,-1e-05,2e-05,0.00015,0.00047999999999999996,0.00018,0.00049,0.00011999999999999999,1e-05,2
6356,6542,-1e-05,2e-05,0.00015,0.00047999999999999996,0.00018,0.00049,0.00011999999999999999,1e-05,2
6357,6543,4e-05,5e-05,5e-05,0.00021,-0.00033,-0.00047999999999999996,-0.0003,0.0,2
6358,6544,4e-05,5e-05,5e-05,0.00021,-0.00033,-0.00047999999999999996,-0.0003,0.0,2
6359,6545,4e-05,5e-05,5e-05,0.00021,-0.00033,-0.00047999999999999996,-0.0003,0.0,2
6360,6546,4e-05,5e-05,5e-05,0.00021,-0.00033,-0.00047999999999999996,-0.0003,0.0,2
6361,6547,4e-05,5e-05,5e-05,0.00021,-0.00033,-0.00047999999999999996,-0.0003,0.0,2
6362,6548,4e-05,5e-05,5e-05,0.00021,-0.00033,-0.00047999999999999996,-0.0003,0.0,2
6363,6549,4e-05,5e-05,5e-05,0.00021,-0.00033,-0.00047999999999999996,-0.0003,0.0,2
6364,6550,4e-05,5e-05,5e-05,0.00021,-0.00033,-0.00047999999999999996,-0.0003,0.0,2
6365,6551,4e-05,5e-05,5e-05,0.00021,-0.00033,-0.00047999999999999996,-0.0003,0.0,2
6366,6552,4e-05,5e-05,5e-05,0.00021,-0.00033,-0.00047999999999999996,-0.0003,0.0,2
6367,6553,4e-05,5e-05,5e-05,0.00021,-0.00033,-0.00047999999999999996,-0.0003,0.0,2
6368,6554,4e-05,5e-05,5e-05,0.00021,-0.00033,-0.00047999999999999996,-0.0003,0.0,2
6369,6555,4e-05,5e-05,5e-05,0.00021,-0.00033,-0.00047999999999999996,-0.0003,0.0,2
6370,6556,4e-05,5e-05,5e-05,0.00021,-0.00033,-0.00047999999999999996,-0.0003,0.0,2
6371,6557,4e-05,5e-05,5e-05,0.00021,-0.00033,-0.00047999999999999996,-0.0003,0.0,2
6372,6558,4e-05,5e-05,5e-05,0.00021,-0.00033,-0.00047999999999999996,-0.0003,0.0,2
6373,6559,4e-05,5e-05,5e-05,0.00021,-0.00033,-0.00047999999999999996,-0.0003,0.0,2
6374,6560,4e-05,5e-05,5e-05,0.00021,-0.00033,-0.00047999999999999996,-0.0003,0.0,2
6375,6561,4e-05,5e-05,5e-05,0.00021,-0.00033,-0.00047999999999999996,-0.0003,0.0,2
6376,6562,4e-05,5e-05,5e-05,0.00021,-0.00033,-0.00047999999999999996,-0.0003,0.0,2
6377,6563,4e-05,5e-05,5e-05,0.00021,-0.00033,-0.00047999999999999996,-0.0003,0.0,2
6378,6564,0.00015,0.00011,0.00011,2.9999999999999997e-05,-0.00011,0.00018,-8e-05,0.00016,2
6379,6565,-1e-05,-2.9999999999999997e-05,-0.00013000000000000002,-0.00022999999999999998,0.00015,0.00064,0.0007700000000000001,0.00011999999999999999,2
6380,6566,-1e-05,-2.9999999999999997e-05,-0.00013000000000000002,-0.00022999999999999998,0.00015,0.00064,0.0007700000000000001,0.00011999999999999999,2
6381,6567,-1e-05,-2.9999999999999997e-05,-0.00013000000000000002,-0.00022999999999999998,0.00015,0.00064,0.0007700000000000001,0.00011999999999999999,2
6382,6568,-1e-05,-2.9999999999999997e-05,-0.00013000000000000002,-0.00022999999999999998,0.00015,0.00064,0.0007700000000000001,0.00011999999999999999,2
6383,6569,-1e-05,-2.9999999999999997e-05,-0.00013000000000000002,-0.00022999999999999998,0.00015,0.00064,0.0007700000000000001,0.00011999999999999999,2
6384,6570,-1e-05,-2.9999999999999997e-05,-0.00013000000000000002,-0.00022999999999999998,0.00015,0.00064,0.0007700000000000001,0.00011999999999999999,2
6385,6571,-1e-05,-2.9999999999999997e-05,-0.00013000000000000002,-0.00022999999999999998,0.00015,0.00064,0.0007700000000000001,0.00011999999999999999,2
6386,6572,-1e-05,-2.9999999999999997e-05,-0.00013000000000000002,-0.00022999999999999998,0.00015,0.00064,0.0007700000000000001,0.00011999999999999999,2
6387,6573,-1e-05,-2.9999999999999997e-05,-0.00013000000000000002,-0.00022999999999999998,0.00015,0.00064,0.0007700000000000001,0.00011999999999999999,2
6388,6574,-1e-05,-2.9999999999999997e-05,-0.00013000000000000002,-0.00022999999999999998,0.00015,0.00064,0.0007700000000000001,0.00011999999999999999,2
6389,6575,-1e-05,-2.9999999999999997e-05,-0.00013000000000000002,-0.00022999999999999998,0.00015,0.00064,0.0007700000000000001,0.00011999999999999999,2
6390,6576,-1e-05,-2.9999999999999997e-05,-0.00013000000000000002,-0.00022999999999999998,0.00015,0.00064,0.0007700000000000001,0.00011999999999999999,2
6391,6577,-7e-05,-8e-05,-0.00022999999999999998,-0.00079,5.9999999999999995e-05,-0.00026000000000000003,-0.00025,-5e-05,2
6392,6578,-7e-05,-8e-05,-0.00022999999999999998,-0.00079,5.9999999999999995e-05,-0.00026000000000000003,-0.00025,-5e-05,2
6393,6579,-7e-05,-8e-05,-0.00022999999999999998,-0.00079,5.9999999999999995e-05,-0.00026000000000000003,-0.00025,-5e-05,2
6394,6580,-7e-05,-8e-05,-0.00022999999999999998,-0.00079,5.9999999999999995e-05,-0.00026000000000000003,-0.00025,-5e-05,2
6395,6581,-7e-05,-8e-05,-0.00022999999999999998,-0.00079,5.9999999999999995e-05,-0.00026000000000000003,-0.00025,-5e-05,2
6396,6582,-7e-05,-8e-05,-0.00022999999999999998,-0.00079,5.9999999999999995e-05,-0.00026000000000000003,-0.00025,-5e-05,2
6397,6583,-7e-05,-8e-05,-0.00022999999999999998,-0.00079,5.9999999999999995e-05,-0.00026000000000000003,-0.00025,-5e-05,2
6398,6584,-7e-05,-8e-05,-0.00022999999999999998,-0.00079,5.9999999999999995e-05,-0.00026000000000000003,-0.00025,-5e-05,2
6399,6585,-7e-05,-8e-05,-0.00022999999999999998,-0.00079,5.9999999999999995e-05,-0.00026000000000000003,-0.00025,-5e-05,2
6400,6587,2e-05,1e-05,0.0001,0.00042,0.0,-0.0003,-0.0002,5.9999999999999995e-05,2
6401,6589,2e-05,1e-05,0.0001,0.00042,0.0,-0.0003,-0.0002,5.9999999999999995e-05,2
6402,6590,2e-05,1e-05,0.0001,0.00042,0.0,-0.0003,-0.0002,5.9999999999999995e-05,2
6403,6591,2e-05,1e-05,0.0001,0.00042,0.0,-0.0003,-0.0002,5.9999999999999995e-05,2
6404,6592,2e-05,1e-05,0.0001,0.00042,0.0,-0.0003,-0.0002,5.9999999999999995e-05,2
6405,6593,2e-05,1e-05,0.0001,0.00042,0.0,-0.0003,-0.0002,5.9999999999999995e-05,2
6406,6594,2e-05,1e-05,0.0001,0.00042,0.0,-0.0003,-0.0002,5.9999999999999995e-05,2
6407,6595,2e-05,1e-05,0.0001,0.00042,0.0,-0.0003,-0.0002,5.9999999999999995e-05,2
6408,6596,2e-05,1e-05,0.0001,0.00042,0.0,-0.0003,-0.0002,5.9999999999999995e-05,2
6409,6597,2e-05,1e-05,0.0001,0.00042,0.0,-0.0003,-0.0002,5.9999999999999995e-05,2
6410,6598,2e-05,1e-05,0.0001,0.00042,0.0,-0.0003,-0.0002,5.9999999999999995e-05,2
6411,6599,2e-05,1e-05,0.0001,0.00042,0.0,-0.0003,-0.0002,5.9999999999999995e-05,2
6412,6600,2e-05,1e-05,0.0001,0.00042,0.0,-0.0003,-0.0002,5.9999999999999995e-05,2
6413,6601,5e-05,1e-05,4e-05,-1e-05,-2e-05,-0.00015,0.00047000000000000004,8e-05,2
6414,6602,1e-05,4e-05,0.0001,0.0002,-8e-05,0.0006900000000000001,1e-05,9e-05,2
6415,6603,-7e-05,-7e-05,-0.00015,-0.0005099999999999999,0.00013000000000000002,-0.00039,-2e-05,-0.0001,2
6416,6604,-7e-05,-7e-05,-0.00015,-0.0005099999999999999,0.00013000000000000002,-0.00039,-2e-05,-0.0001,2
6417,6605,-7e-05,-7e-05,-0.00015,-0.0005099999999999999,0.00013000000000000002,-0.00039,-2e-05,-0.0001,2
6418,6606,-7e-05,-7e-05,-0.00015,-0.0005099999999999999,0.00013000000000000002,-0.00039,-2e-05,-0.0001,2
6419,6607,-7e-05,-7e-05,-0.00015,-0.0005099999999999999,0.00013000000000000002,-0.00039,-2e-05,-0.0001,2
6420,6608,-7e-05,-7e-05,-0.00015,-0.0005099999999999999,0.00013000000000000002,-0.00039,-2e-05,-0.0001,2
6421,6609,-7e-05,-7e-05,-0.00015,-0.0005099999999999999,0.00013000000000000002,-0.00039,-2e-05,-0.0001,2
6422,6610,-7e-05,-7e-05,-0.00015,-0.0005099999999999999,0.00013000000000000002,-0.00039,-2e-05,-0.0001,2
6423,6611,-7e-05,-7e-05,-0.00015,-0.0005099999999999999,0.00013000000000000002,-0.00039,-2e-05,-0.0001,2
6424,6612,-7e-05,-7e-05,-0.00015,-0.0005099999999999999,0.00013000000000000002,-0.00039,-2e-05,-0.0001,2
6425,6613,-7e-05,-7e-05,-0.00015,-0.0005099999999999999,0.00013000000000000002,-0.00039,-2e-05,-0.0001,2
6426,6614,-7e-05,-7e-05,-0.00015,-0.0005099999999999999,0.00013000000000000002,-0.00039,-2e-05,-0.0001,2
6427,6615,-7e-05,-7e-05,-0.00015,-0.0005099999999999999,0.00013000000000000002,-0.00039,-2e-05,-0.0001,2
6428,6616,-7e-05,-7e-05,-0.00015,-0.0005099999999999999,0.00013000000000000002,-0.00039,-2e-05,-0.0001,2
6429,6617,-7e-05,-7e-05,-0.00015,-0.0005099999999999999,0.00013000000000000002,-0.00039,-2e-05,-0.0001,2
6430,6618,-7e-05,-7e-05,-0.00015,-0.0005099999999999999,0.00013000000000000002,-0.00039,-2e-05,-0.0001,2
6431,6619,-7e-05,-7e-05,-0.00015,-0.0005099999999999999,0.00013000000000000002,-0.00039,-2e-05,-0.0001,2
6432,6620,-7e-05,-7e-05,-0.00015,-0.0005099999999999999,0.00013000000000000002,-0.00039,-2e-05,-0.0001,2
6433,6621,-7e-05,-7e-05,-0.00015,-0.0005099999999999999,0.00013000000000000002,-0.00039,-2e-05,-0.0001,2
6434,6622,-7e-05,-7e-05,-0.00015,-0.0005099999999999999,0.00013000000000000002,-0.00039,-2e-05,-0.0001,2
6435,6623,-7e-05,-7e-05,-0.00015,-0.0005099999999999999,0.00013000000000000002,-0.00039,-2e-05,-0.0001,2
6436,6624,9e-05,1e-05,2e-05,-2e-05,0.00021,0.00049,-5e-05,7e-05,2
6437,6625,4e-05,4e-05,0.00027,0.00047000000000000004,8e-05,0.00036,0.00013000000000000002,0.00011999999999999999,2
6438,6626,4e-05,4e-05,0.00027,0.00047000000000000004,8e-05,0.00036,0.00013000000000000002,0.00011999999999999999,2
6439,6627,4e-05,4e-05,0.00027,0.00047000000000000004,8e-05,0.00036,0.00013000000000000002,0.00011999999999999999,2
6440,6628,4e-05,4e-05,0.00027,0.00047000000000000004,8e-05,0.00036,0.00013000000000000002,0.00011999999999999999,2
6441,6629,4e-05,4e-05,0.00027,0.00047000000000000004,8e-05,0.00036,0.00013000000000000002,0.00011999999999999999,2
6442,6630,4e-05,4e-05,0.00027,0.00047000000000000004,8e-05,0.00036,0.00013000000000000002,0.00011999999999999999,2
6443,6631,4e-05,4e-05,0.00027,0.00047000000000000004,8e-05,0.00036,0.00013000000000000002,0.00011999999999999999,2
6444,6632,4e-05,4e-05,0.00027,0.00047000000000000004,8e-05,0.00036,0.00013000000000000002,0.00011999999999999999,2
6445,6633,4e-05,4e-05,0.00027,0.00047000000000000004,8e-05,0.00036,0.00013000000000000002,0.00011999999999999999,2
6446,6634,4e-05,4e-05,0.00027,0.00047000000000000004,8e-05,0.00036,0.00013000000000000002,0.00011999999999999999,2
6447,6635,4e-05,4e-05,0.00027,0.00047000000000000004,8e-05,0.00036,0.00013000000000000002,0.00011999999999999999,2
6448,6636,4e-05,4e-05,0.00027,0.00047000000000000004,8e-05,0.00036,0.00013000000000000002,0.00011999999999999999,2
6449,6638,-0.00011,-4e-05,-0.0001,-0.00015,-0.00036,0.00023999999999999998,5.9999999999999995e-05,-7e-05,2
6450,6639,-0.00011,-4e-05,-0.0001,-0.00015,-0.00036,0.00023999999999999998,5.9999999999999995e-05,-7e-05,2
6451,6640,-0.00011,-4e-05,-0.0001,-0.00015,-0.00036,0.00023999999999999998,5.9999999999999995e-05,-7e-05,2
6452,6641,-0.00011,-4e-05,-0.0001,-0.00015,-0.00036,0.00023999999999999998,5.9999999999999995e-05,-7e-05,2
6453,6642,-0.00011,-4e-05,-0.0001,-0.00015,-0.00036,0.00023999999999999998,5.9999999999999995e-05,-7e-05,2
6454,6643,-0.00011,-4e-05,-0.0001,-0.00015,-0.00036,0.00023999999999999998,5.9999999999999995e-05,-7e-05,2
6455,6644,-0.00011,-4e-05,-0.0001,-0.00015,-0.00036,0.00023999999999999998,5.9999999999999995e-05,-7e-05,2
6456,6645,-0.00011,-4e-05,-0.0001,-0.00015,-0.00036,0.00023999999999999998,5.9999999999999995e-05,-7e-05,2
6457,6646,2e-05,2.9999999999999997e-05,0.00013000000000000002,0.00045999999999999996,-0.00031,-0.00026000000000000003,0.00013000000000000002,1e-05,2
6458,6647,2e-05,2.9999999999999997e-05,0.00013000000000000002,0.00045999999999999996,-0.00031,-0.00026000000000000003,0.00013000000000000002,1e-05,2
6459,6648,2e-05,2.9999999999999997e-05,0.00013000000000000002,0.00045999999999999996,-0.00031,-0.00026000000000000003,0.00013000000000000002,1e-05,2
6460,6649,2e-05,2.9999999999999997e-05,0.00013000000000000002,0.00045999999999999996,-0.00031,-0.00026000000000000003,0.00013000000000000002,1e-05,2
6461,6650,2e-05,2.9999999999999997e-05,0.00013000000000000002,0.00045999999999999996,-0.00031,-0.00026000000000000003,0.00013000000000000002,1e-05,2
6462,6651,2e-05,2.9999999999999997e-05,0.00013000000000000002,0.00045999999999999996,-0.00031,-0.00026000000000000003,0.00013000000000000002,1e-05,2
6463,6652,2e-05,2.9999999999999997e-05,0.00013000000000000002,0.00045999999999999996,-0.00031,-0.00026000000000000003,0.00013000000000000002,1e-05,2
6464,6653,2e-05,2.9999999999999997e-05,0.00013000000000000002,0.00045999999999999996,-0.00031,-0.00026000000000000003,0.00013000000000000002,1e-05,2
6465,6654,2e-05,2.9999999999999997e-05,0.00013000000000000002,0.00045999999999999996,-0.00031,-0.00026000000000000003,0.00013000000000000002,1e-05,2
6466,6655,2e-05,2.9999999999999997e-05,0.00013000000000000002,0.00045999999999999996,-0.00031,-0.00026000000000000003,0.00013000000000000002,1e-05,2
6467,6656,2e-05,2.9999999999999997e-05,0.00013000000000000002,0.00045999999999999996,-0.00031,-0.00026000000000000003,0.00013000000000000002,1e-05,2
6468,6657,2e-05,2.9999999999999997e-05,0.00013000000000000002,0.00045999999999999996,-0.00031,-0.00026000000000000003,0.00013000000000000002,1e-05,2
6469,6658,2e-05,2.9999999999999997e-05,0.00013000000000000002,0.00045999999999999996,-0.00031,-0.00026000000000000003,0.00013000000000000002,1e-05,2
6470,6659,2e-05,2.9999999999999997e-05,0.00013000000000000002,0.00045999999999999996,-0.00031,-0.00026000000000000003,0.00013000000000000002,1e-05,2
6471,6660,2e-05,2.9999999999999997e-05,0.00013000000000000002,0.00045999999999999996,-0.00031,-0.00026000000000000003,0.00013000000000000002,1e-05,2
6472,6661,5e-05,-1e-05,-0.00011,5e-05,-0.00036,-0.00023999999999999998,-0.00033,-2.9999999999999997e-05,2
6473,6662,5e-05,-1e-05,-0.00011,5e-05,-0.00036,-0.00023999999999999998,-0.00033,-2.9999999999999997e-05,2
6474,6663,9e-05,4e-05,-4e-05,-2.9999999999999997e-05,-8e-05,0.0007,0.0004,0.00018,2
6475,6664,9e-05,4e-05,-4e-05,-2.9999999999999997e-05,-8e-05,0.0007,0.0004,0.00018,2
6476,6665,9e-05,4e-05,-4e-05,-2.9999999999999997e-05,-8e-05,0.0007,0.0004,0.00018,2
6477,6666,9e-05,4e-05,-4e-05,-2.9999999999999997e-05,-8e-05,0.0007,0.0004,0.00018,2
6478,6667,9e-05,4e-05,-4e-05,-2.9999999999999997e-05,-8e-05,0.0007,0.0004,0.00018,2
6479,6668,9e-05,4e-05,-4e-05,-2.9999999999999997e-05,-8e-05,0.0007,0.0004,0.00018,2
6480,6669,9e-05,4e-05,-4e-05,-2.9999999999999997e-05,-8e-05,0.0007,0.0004,0.00018,2
6481,6670,9e-05,4e-05,-4e-05,-2.9999999999999997e-05,-8e-05,0.0007,0.0004,0.00018,2
6482,6671,9e-05,4e-05,-4e-05,-2.9999999999999997e-05,-8e-05,0.0007,0.0004,0.00018,2
6483,6672,9e-05,4e-05,-4e-05,-2.9999999999999997e-05,-8e-05,0.0007,0.0004,0.00018,2
6484,6673,9e-05,4e-05,-4e-05,-2.9999999999999997e-05,-8e-05,0.0007,0.0004,0.00018,2
6485,6674,9e-05,4e-05,-4e-05,-2.9999999999999997e-05,-8e-05,0.0007,0.0004,0.00018,2
6486,6675,9e-05,4e-05,-4e-05,-2.9999999999999997e-05,-8e-05,0.0007,0.0004,0.00018,2
6487,6676,9e-05,4e-05,-4e-05,-2.9999999999999997e-05,-8e-05,0.0007,0.0004,0.00018,2
6488,6677,9e-05,4e-05,-4e-05,-2.9999999999999997e-05,-8e-05,0.0007,0.0004,0.00018,2
6489,6678,9e-05,4e-05,-4e-05,-2.9999999999999997e-05,-8e-05,0.0007,0.0004,0.00018,2
6490,6679,9e-05,4e-05,-4e-05,-2.9999999999999997e-05,-8e-05,0.0007,0.0004,0.00018,2
6491,6680,9e-05,4e-05,-4e-05,-2.9999999999999997e-05,-8e-05,0.0007,0.0004,0.00018,2
6492,6681,9e-05,4e-05,-4e-05,-2.9999999999999997e-05,-8e-05,0.0007,0.0004,0.00018,2
6493,6682,9e-05,4e-05,-4e-05,-2.9999999999999997e-05,-8e-05,0.0007,0.0004,0.00018,2
6494,6683,9e-05,4e-05,-4e-05,-2.9999999999999997e-05,-8e-05,0.0007,0.0004,0.00018,2
6495,6684,5e-05,5.9999999999999995e-05,0.00018999999999999998,0.00081,0.00062,-0.00059,0.00021,1e-05,2
6496,6685,-0.00014,-7e-05,-5.9999999999999995e-05,0.00023999999999999998,0.00022999999999999998,-1e-05,-0.00049,-0.00022999999999999998,2
6497,6687,-0.00014,-7e-05,-5.9999999999999995e-05,0.00023999999999999998,0.00022999999999999998,-1e-05,-0.00049,-0.00022999999999999998,2
6498,6689,-0.00014,-7e-05,-5.9999999999999995e-05,0.00023999999999999998,0.00022999999999999998,-1e-05,-0.00049,-0.00022999999999999998,2
6499,6690,-0.00014,-7e-05,-5.9999999999999995e-05,0.00023999999999999998,0.00022999999999999998,-1e-05,-0.00049,-0.00022999999999999998,2
6500,6691,-0.00014,-7e-05,-5.9999999999999995e-05,0.00023999999999999998,0.00022999999999999998,-1e-05,-0.00049,-0.00022999999999999998,2
6501,6692,-0.00014,-7e-05,-5.9999999999999995e-05,0.00023999999999999998,0.00022999999999999998,-1e-05,-0.00049,-0.00022999999999999998,2
6502,6693,-0.00014,-7e-05,-5.9999999999999995e-05,0.00023999999999999998,0.00022999999999999998,-1e-05,-0.00049,-0.00022999999999999998,2
6503,6694,-0.00014,-7e-05,-5.9999999999999995e-05,0.00023999999999999998,0.00022999999999999998,-1e-05,-0.00049,-0.00022999999999999998,2
6504,6695,-0.00014,-7e-05,-5.9999999999999995e-05,0.00023999999999999998,0.00022999999999999998,-1e-05,-0.00049,-0.00022999999999999998,2
6505,6696,-0.00014,-7e-05,-5.9999999999999995e-05,0.00023999999999999998,0.00022999999999999998,-1e-05,-0.00049,-0.00022999999999999998,2
6506,6697,-0.00014,-7e-05,-5.9999999999999995e-05,0.00023999999999999998,0.00022999999999999998,-1e-05,-0.00049,-0.00022999999999999998,2
6507,6698,-0.00014,-7e-05,-5.9999999999999995e-05,0.00023999999999999998,0.00022999999999999998,-1e-05,-0.00049,-0.00022999999999999998,2
6508,6699,-0.00014,-7e-05,-5.9999999999999995e-05,0.00023999999999999998,0.00022999999999999998,-1e-05,-0.00049,-0.00022999999999999998,2
6509,6700,-0.00014,-7e-05,-5.9999999999999995e-05,0.00023999999999999998,0.00022999999999999998,-1e-05,-0.00049,-0.00022999999999999998,2
6510,6701,-0.00014,-7e-05,-5.9999999999999995e-05,0.00023999999999999998,0.00022999999999999998,-1e-05,-0.00049,-0.00022999999999999998,2
6511,6702,-0.00014,-7e-05,-5.9999999999999995e-05,0.00023999999999999998,0.00022999999999999998,-1e-05,-0.00049,-0.00022999999999999998,2
6512,6703,-0.00014,-7e-05,-5.9999999999999995e-05,0.00023999999999999998,0.00022999999999999998,-1e-05,-0.00049,-0.00022999999999999998,2
6513,6704,-0.00014,-7e-05,-5.9999999999999995e-05,0.00023999999999999998,0.00022999999999999998,-1e-05,-0.00049,-0.00022999999999999998,2
6514,6705,-0.00014,-7e-05,-5.9999999999999995e-05,0.00023999999999999998,0.00022999999999999998,-1e-05,-0.00049,-0.00022999999999999998,2
6515,6706,-4e-05,-5e-05,-0.00016,-0.00067,-0.00025,-0.00013000000000000002,-0.00054,-2e-05,2
6516,6707,-4e-05,-5e-05,-0.00016,-0.00067,-0.00025,-0.00013000000000000002,-0.00054,-2e-05,2
6517,6708,0.0,2e-05,-2.9999999999999997e-05,-0.00018,-0.00028,-0.0009,-0.00029,-5e-05,2
6518,6709,0.0,2e-05,-2.9999999999999997e-05,-0.00018,-0.00028,-0.0009,-0.00029,-5e-05,2
6519,6710,0.0,2e-05,-2.9999999999999997e-05,-0.00018,-0.00028,-0.0009,-0.00029,-5e-05,2
6520,6711,0.0,2e-05,-2.9999999999999997e-05,-0.00018,-0.00028,-0.0009,-0.00029,-5e-05,2
6521,6712,0.0,2e-05,-2.9999999999999997e-05,-0.00018,-0.00028,-0.0009,-0.00029,-5e-05,2
6522,6713,0.0,2e-05,-2.9999999999999997e-05,-0.00018,-0.00028,-0.0009,-0.00029,-5e-05,2
6523,6714,0.0,2e-05,-2.9999999999999997e-05,-0.00018,-0.00028,-0.0009,-0.00029,-5e-05,2
6524,6715,0.0,2e-05,-2.9999999999999997e-05,-0.00018,-0.00028,-0.0009,-0.00029,-5e-05,2
6525,6716,0.0,2e-05,-2.9999999999999997e-05,-0.00018,-0.00028,-0.0009,-0.00029,-5e-05,2
6526,6717,0.0,2e-05,-2.9999999999999997e-05,-0.00018,-0.00028,-0.0009,-0.00029,-5e-05,2
6527,6718,0.0,2e-05,-2.9999999999999997e-05,-0.00018,-0.00028,-0.0009,-0.00029,-5e-05,2
6528,6719,0.0,2e-05,-2.9999999999999997e-05,-0.00018,-0.00028,-0.0009,-0.00029,-5e-05,2
6529,6720,0.0,2e-05,-2.9999999999999997e-05,-0.00018,-0.00028,-0.0009,-0.00029,-5e-05,2
6530,6721,-5e-05,-5e-05,-5e-05,-0.00018999999999999998,-0.00022999999999999998,-0.00023999999999999998,-0.00047000000000000004,-0.00014,2
6531,6722,-5e-05,-5e-05,-5e-05,-0.00018999999999999998,-0.00022999999999999998,-0.00023999999999999998,-0.00047000000000000004,-0.00014,2
6532,6723,-1e-05,8e-05,0.00018999999999999998,-0.00016,-2e-05,0.00063,0.00022,1e-05,2
6533,6724,-1e-05,8e-05,0.00018999999999999998,-0.00016,-2e-05,0.00063,0.00022,1e-05,2
6534,6725,-1e-05,8e-05,0.00018999999999999998,-0.00016,-2e-05,0.00063,0.00022,1e-05,2
6535,6726,-1e-05,8e-05,0.00018999999999999998,-0.00016,-2e-05,0.00063,0.00022,1e-05,2
6536,6727,-1e-05,8e-05,0.00018999999999999998,-0.00016,-2e-05,0.00063,0.00022,1e-05,2
6537,6728,-1e-05,8e-05,0.00018999999999999998,-0.00016,-2e-05,0.00063,0.00022,1e-05,2
6538,6729,-1e-05,8e-05,0.00018999999999999998,-0.00016,-2e-05,0.00063,0.00022,1e-05,2
6539,6730,-1e-05,8e-05,0.00018999999999999998,-0.00016,-2e-05,0.00063,0.00022,1e-05,2
6540,6731,-1e-05,8e-05,0.00018999999999999998,-0.00016,-2e-05,0.00063,0.00022,1e-05,2
6541,6732,-1e-05,8e-05,0.00018999999999999998,-0.00016,-2e-05,0.00063,0.00022,1e-05,2
6542,6733,-1e-05,8e-05,0.00018999999999999998,-0.00016,-2e-05,0.00063,0.00022,1e-05,2
6543,6734,-1e-05,8e-05,0.00018999999999999998,-0.00016,-2e-05,0.00063,0.00022,1e-05,2
6544,6735,-1e-05,8e-05,0.00018999999999999998,-0.00016,-2e-05,0.00063,0.00022,1e-05,2
6545,6736,-1e-05,8e-05,0.00018999999999999998,-0.00016,-2e-05,0.00063,0.00022,1e-05,2
6546,6738,-1e-05,8e-05,0.00018999999999999998,-0.00016,-2e-05,0.00063,0.00022,1e-05,2
6547,6739,-1e-05,8e-05,0.00018999999999999998,-0.00016,-2e-05,0.00063,0.00022,1e-05,2
6548,6740,-1e-05,8e-05,0.00018999999999999998,-0.00016,-2e-05,0.00063,0.00022,1e-05,2
6549,6741,-1e-05,8e-05,0.00018999999999999998,-0.00016,-2e-05,0.00063,0.00022,1e-05,2
6550,6742,-1e-05,8e-05,0.00018999999999999998,-0.00016,-2e-05,0.00063,0.00022,1e-05,2
6551,6743,-1e-05,8e-05,0.00018999999999999998,-0.00016,-2e-05,0.00063,0.00022,1e-05,2
6552,6744,-9e-05,-9e-05,-8e-05,-0.00029,-2e-05,-0.00013000000000000002,0.00021,-1e-05,2
6553,6745,-1e-05,-4e-05,-5e-05,-0.00045999999999999996,0.00011,-0.00062,-4e-05,-0.00011999999999999999,2
6554,6746,-1e-05,-4e-05,-5e-05,-0.00045999999999999996,0.00011,-0.00062,-4e-05,-0.00011999999999999999,2
6555,6747,-1e-05,-4e-05,-5e-05,-0.00045999999999999996,0.00011,-0.00062,-4e-05,-0.00011999999999999999,2
6556,6748,-1e-05,-4e-05,-5e-05,-0.00045999999999999996,0.00011,-0.00062,-4e-05,-0.00011999999999999999,2
6557,6749,-1e-05,-4e-05,-5e-05,-0.00045999999999999996,0.00011,-0.00062,-4e-05,-0.00011999999999999999,2
6558,6750,-1e-05,-4e-05,-5e-05,-0.00045999999999999996,0.00011,-0.00062,-4e-05,-0.00011999999999999999,2
6559,6751,-1e-05,-4e-05,-5e-05,-0.00045999999999999996,0.00011,-0.00062,-4e-05,-0.00011999999999999999,2
6560,6752,-1e-05,-4e-05,-5e-05,-0.00045999999999999996,0.00011,-0.00062,-4e-05,-0.00011999999999999999,2
6561,6753,-1e-05,-4e-05,-5e-05,-0.00045999999999999996,0.00011,-0.00062,-4e-05,-0.00011999999999999999,2
6562,6754,-1e-05,-4e-05,-5e-05,-0.00045999999999999996,0.00011,-0.00062,-4e-05,-0.00011999999999999999,2
6563,6755,-1e-05,-4e-05,-5e-05,-0.00045999999999999996,0.00011,-0.00062,-4e-05,-0.00011999999999999999,2
6564,6756,-1e-05,-4e-05,-5e-05,-0.00045999999999999996,0.00011,-0.00062,-4e-05,-0.00011999999999999999,2
6565,6757,-1e-05,-4e-05,-5e-05,-0.00045999999999999996,0.00011,-0.00062,-4e-05,-0.00011999999999999999,2
6566,6758,-1e-05,-4e-05,-5e-05,-0.00045999999999999996,0.00011,-0.00062,-4e-05,-0.00011999999999999999,2
6567,6759,-1e-05,-4e-05,-5e-05,-0.00045999999999999996,0.00011,-0.00062,-4e-05,-0.00011999999999999999,2
6568,6760,-1e-05,-4e-05,-5e-05,-0.00045999999999999996,0.00011,-0.00062,-4e-05,-0.00011999999999999999,2
6569,6761,-1e-05,-4e-05,-5e-05,-0.00045999999999999996,0.00011,-0.00062,-4e-05,-0.00011999999999999999,2
6570,6762,-1e-05,-4e-05,-5e-05,-0.00045999999999999996,0.00011,-0.00062,-4e-05,-0.00011999999999999999,2
6571,6763,-1e-05,-4e-05,-5e-05,-0.00045999999999999996,0.00011,-0.00062,-4e-05,-0.00011999999999999999,2
6572,6764,-1e-05,-4e-05,-5e-05,-0.00045999999999999996,0.00011,-0.00062,-4e-05,-0.00011999999999999999,2
6573,6765,-1e-05,-4e-05,-5e-05,-0.00045999999999999996,0.00011,-0.00062,-4e-05,-0.00011999999999999999,2
6574,6766,-0.00016999999999999999,-0.00011999999999999999,-2.9999999999999997e-05,1e-05,-8e-05,0.0007599999999999999,-0.00016,-0.00027,2
6575,6767,-0.00016999999999999999,-0.00011999999999999999,-2.9999999999999997e-05,1e-05,-8e-05,0.0007599999999999999,-0.00016,-0.00027,2
6576,6768,0.0001,0.0,-2.9999999999999997e-05,0.00023999999999999998,0.00013000000000000002,7e-05,-4e-05,0.00013000000000000002,2
6577,6769,0.0001,0.0,-2.9999999999999997e-05,0.00023999999999999998,0.00013000000000000002,7e-05,-4e-05,0.00013000000000000002,2
6578,6770,0.0001,0.0,-2.9999999999999997e-05,0.00023999999999999998,0.00013000000000000002,7e-05,-4e-05,0.00013000000000000002,2
6579,6771,0.0001,0.0,-2.9999999999999997e-05,0.00023999999999999998,0.00013000000000000002,7e-05,-4e-05,0.00013000000000000002,2
6580,6772,0.0001,0.0,-2.9999999999999997e-05,0.00023999999999999998,0.00013000000000000002,7e-05,-4e-05,0.00013000000000000002,2
6581,6773,0.0001,0.0,-2.9999999999999997e-05,0.00023999999999999998,0.00013000000000000002,7e-05,-4e-05,0.00013000000000000002,2
6582,6774,0.0001,0.0,-2.9999999999999997e-05,0.00023999999999999998,0.00013000000000000002,7e-05,-4e-05,0.00013000000000000002,2
6583,6775,0.0001,0.0,-2.9999999999999997e-05,0.00023999999999999998,0.00013000000000000002,7e-05,-4e-05,0.00013000000000000002,2
6584,6776,0.0001,0.0,-2.9999999999999997e-05,0.00023999999999999998,0.00013000000000000002,7e-05,-4e-05,0.00013000000000000002,2
6585,6777,0.0001,0.0,-2.9999999999999997e-05,0.00023999999999999998,0.00013000000000000002,7e-05,-4e-05,0.00013000000000000002,2
6586,6778,0.0001,0.0,-2.9999999999999997e-05,0.00023999999999999998,0.00013000000000000002,7e-05,-4e-05,0.00013000000000000002,2
6587,6779,0.0001,0.0,-2.9999999999999997e-05,0.00023999999999999998,0.00013000000000000002,7e-05,-4e-05,0.00013000000000000002,2
6588,6780,0.0001,0.0,-2.9999999999999997e-05,0.00023999999999999998,0.00013000000000000002,7e-05,-4e-05,0.00013000000000000002,2
6589,6781,0.00011999999999999999,9e-05,5e-05,0.00037999999999999997,0.00065,0.0008699999999999999,0.00058,0.00016999999999999999,2
6590,6782,0.00011999999999999999,9e-05,5e-05,0.00037999999999999997,0.00065,0.0008699999999999999,0.00058,0.00016999999999999999,2
6591,6783,1e-05,-2.9999999999999997e-05,-2e-05,0.00035,9e-05,-0.00037999999999999997,-0.0002,-2.9999999999999997e-05,2
6592,6784,1e-05,-2.9999999999999997e-05,-2e-05,0.00035,9e-05,-0.00037999999999999997,-0.0002,-2.9999999999999997e-05,2
6593,6785,1e-05,-2.9999999999999997e-05,-2e-05,0.00035,9e-05,-0.00037999999999999997,-0.0002,-2.9999999999999997e-05,2
6594,6786,1e-05,-2.9999999999999997e-05,-2e-05,0.00035,9e-05,-0.00037999999999999997,-0.0002,-2.9999999999999997e-05,2
6595,6788,1e-05,-2.9999999999999997e-05,-2e-05,0.00035,9e-05,-0.00037999999999999997,-0.0002,-2.9999999999999997e-05,2
6596,6789,1e-05,-2.9999999999999997e-05,-2e-05,0.00035,9e-05,-0.00037999999999999997,-0.0002,-2.9999999999999997e-05,2
6597,6790,1e-05,-2.9999999999999997e-05,-2e-05,0.00035,9e-05,-0.00037999999999999997,-0.0002,-2.9999999999999997e-05,2
6598,6791,1e-05,-2.9999999999999997e-05,-2e-05,0.00035,9e-05,-0.00037999999999999997,-0.0002,-2.9999999999999997e-05,2
6599,6792,1e-05,-2.9999999999999997e-05,-2e-05,0.00035,9e-05,-0.00037999999999999997,-0.0002,-2.9999999999999997e-05,2
6600,6793,1e-05,-2.9999999999999997e-05,-2e-05,0.00035,9e-05,-0.00037999999999999997,-0.0002,-2.9999999999999997e-05,2
6601,6794,1e-05,-2.9999999999999997e-05,-2e-05,0.00035,9e-05,-0.00037999999999999997,-0.0002,-2.9999999999999997e-05,2
6602,6795,1e-05,-2.9999999999999997e-05,-2e-05,0.00035,9e-05,-0.00037999999999999997,-0.0002,-2.9999999999999997e-05,2
6603,6796,1e-05,-2.9999999999999997e-05,-2e-05,0.00035,9e-05,-0.00037999999999999997,-0.0002,-2.9999999999999997e-05,2
6604,6797,1e-05,-2.9999999999999997e-05,-2e-05,0.00035,9e-05,-0.00037999999999999997,-0.0002,-2.9999999999999997e-05,2
6605,6798,1e-05,-2.9999999999999997e-05,-2e-05,0.00035,9e-05,-0.00037999999999999997,-0.0002,-2.9999999999999997e-05,2
6606,6799,1e-05,-2.9999999999999997e-05,-2e-05,0.00035,9e-05,-0.00037999999999999997,-0.0002,-2.9999999999999997e-05,2
6607,6800,1e-05,-2.9999999999999997e-05,-2e-05,0.00035,9e-05,-0.00037999999999999997,-0.0002,-2.9999999999999997e-05,2
6608,6801,1e-05,-2.9999999999999997e-05,-2e-05,0.00035,9e-05,-0.00037999999999999997,-0.0002,-2.9999999999999997e-05,2
6609,6802,1e-05,-2.9999999999999997e-05,-2e-05,0.00035,9e-05,-0.00037999999999999997,-0.0002,-2.9999999999999997e-05,2
6610,6803,1e-05,-2.9999999999999997e-05,-2e-05,0.00035,9e-05,-0.00037999999999999997,-0.0002,-2.9999999999999997e-05,2
6611,6804,-2.9999999999999997e-05,4e-05,5.9999999999999995e-05,0.00039,0.00011999999999999999,4e-05,0.00027,7e-05,2
6612,6805,-5.9999999999999995e-05,-5e-05,-7e-05,-0.0001,8e-05,0.0011099999999999999,-0.00047999999999999996,-0.00015,2
6613,6806,-5.9999999999999995e-05,-5e-05,-7e-05,-0.0001,8e-05,0.0011099999999999999,-0.00047999999999999996,-0.00015,2
6614,6807,-5.9999999999999995e-05,-5e-05,-7e-05,-0.0001,8e-05,0.0011099999999999999,-0.00047999999999999996,-0.00015,2
6615,6808,-5.9999999999999995e-05,-5e-05,-7e-05,-0.0001,8e-05,0.0011099999999999999,-0.00047999999999999996,-0.00015,2
6616,6809,-5.9999999999999995e-05,-5e-05,-7e-05,-0.0001,8e-05,0.0011099999999999999,-0.00047999999999999996,-0.00015,2
6617,6810,-5.9999999999999995e-05,-5e-05,-7e-05,-0.0001,8e-05,0.0011099999999999999,-0.00047999999999999996,-0.00015,2
6618,6811,-5.9999999999999995e-05,-5e-05,-7e-05,-0.0001,8e-05,0.0011099999999999999,-0.00047999999999999996,-0.00015,2
6619,6812,-5.9999999999999995e-05,-5e-05,-7e-05,-0.0001,8e-05,0.0011099999999999999,-0.00047999999999999996,-0.00015,2
6620,6813,-5.9999999999999995e-05,-5e-05,-7e-05,-0.0001,8e-05,0.0011099999999999999,-0.00047999999999999996,-0.00015,2
6621,6814,-5.9999999999999995e-05,-5e-05,-7e-05,-0.0001,8e-05,0.0011099999999999999,-0.00047999999999999996,-0.00015,2
6622,6815,-5.9999999999999995e-05,-5e-05,-7e-05,-0.0001,8e-05,0.0011099999999999999,-0.00047999999999999996,-0.00015,2
6623,6816,-5.9999999999999995e-05,-5e-05,-7e-05,-0.0001,8e-05,0.0011099999999999999,-0.00047999999999999996,-0.00015,2
6624,6817,-5.9999999999999995e-05,-5e-05,-7e-05,-0.0001,8e-05,0.0011099999999999999,-0.00047999999999999996,-0.00015,2
6625,6818,-5.9999999999999995e-05,-5e-05,-7e-05,-0.0001,8e-05,0.0011099999999999999,-0.00047999999999999996,-0.00015,2
6626,6819,-5.9999999999999995e-05,-5e-05,-7e-05,-0.0001,8e-05,0.0011099999999999999,-0.00047999999999999996,-0.00015,2
6627,6820,-5.9999999999999995e-05,-5e-05,-7e-05,-0.0001,8e-05,0.0011099999999999999,-0.00047999999999999996,-0.00015,2
6628,6821,-5.9999999999999995e-05,-5e-05,-7e-05,-0.0001,8e-05,0.0011099999999999999,-0.00047999999999999996,-0.00015,2
6629,6822,-5.9999999999999995e-05,-5e-05,-7e-05,-0.0001,8e-05,0.0011099999999999999,-0.00047999999999999996,-0.00015,2
6630,6823,-5.9999999999999995e-05,-5e-05,-7e-05,-0.0001,8e-05,0.0011099999999999999,-0.00047999999999999996,-0.00015,2
6631,6824,-5.9999999999999995e-05,-5e-05,-7e-05,-0.0001,8e-05,0.0011099999999999999,-0.00047999999999999996,-0.00015,2
6632,6825,-5.9999999999999995e-05,-5e-05,-7e-05,-0.0001,8e-05,0.0011099999999999999,-0.00047999999999999996,-0.00015,2
6633,6826,5e-05,-1e-05,4e-05,-0.0001,-0.00022,-0.00042,0.00022999999999999998,5.9999999999999995e-05,2
6634,6827,5e-05,-1e-05,4e-05,-0.0001,-0.00022,-0.00042,0.00022999999999999998,5.9999999999999995e-05,2
6635,6828,-7e-05,-8e-05,-0.0001,-0.00029,-0.00011999999999999999,-0.0007099999999999999,2.9999999999999997e-05,4e-05,2
6636,6829,-7e-05,-8e-05,-0.0001,-0.00029,-0.00011999999999999999,-0.0007099999999999999,2.9999999999999997e-05,4e-05,2
6637,6830,-7e-05,-8e-05,-0.0001,-0.00029,-0.00011999999999999999,-0.0007099999999999999,2.9999999999999997e-05,4e-05,2
6638,6831,-7e-05,-8e-05,-0.0001,-0.00029,-0.00011999999999999999,-0.0007099999999999999,2.9999999999999997e-05,4e-05,2
6639,6832,-7e-05,-8e-05,-0.0001,-0.00029,-0.00011999999999999999,-0.0007099999999999999,2.9999999999999997e-05,4e-05,2
6640,6833,-7e-05,-8e-05,-0.0001,-0.00029,-0.00011999999999999999,-0.0007099999999999999,2.9999999999999997e-05,4e-05,2
6641,6834,-7e-05,-8e-05,-0.0001,-0.00029,-0.00011999999999999999,-0.0007099999999999999,2.9999999999999997e-05,4e-05,2
6642,6835,-7e-05,-8e-05,-0.0001,-0.00029,-0.00011999999999999999,-0.0007099999999999999,2.9999999999999997e-05,4e-05,2
6643,6836,-7e-05,-8e-05,-0.0001,-0.00029,-0.00011999999999999999,-0.0007099999999999999,2.9999999999999997e-05,4e-05,2
6644,6839,-7e-05,-8e-05,-0.0001,-0.00029,-0.00011999999999999999,-0.0007099999999999999,2.9999999999999997e-05,4e-05,2
6645,6840,-7e-05,-8e-05,-0.0001,-0.00029,-0.00011999999999999999,-0.0007099999999999999,2.9999999999999997e-05,4e-05,2
6646,6841,7e-05,2.9999999999999997e-05,5e-05,0.00015,0.00027,-0.00086,0.00016,5e-05,2
6647,6842,7e-05,2.9999999999999997e-05,5e-05,0.00015,0.00027,-0.00086,0.00016,5e-05,2
6648,6843,8e-05,2e-05,-5.9999999999999995e-05,0.00011999999999999999,-2.9999999999999997e-05,0.00106,0.0001,-1e-05,2
6649,6844,8e-05,2e-05,-5.9999999999999995e-05,0.00011999999999999999,-2.9999999999999997e-05,0.00106,0.0001,-1e-05,2
6650,6845,8e-05,2e-05,-5.9999999999999995e-05,0.00011999999999999999,-2.9999999999999997e-05,0.00106,0.0001,-1e-05,2
6651,6846,8e-05,2e-05,-5.9999999999999995e-05,0.00011999999999999999,-2.9999999999999997e-05,0.00106,0.0001,-1e-05,2
6652,6847,8e-05,2e-05,-5.9999999999999995e-05,0.00011999999999999999,-2.9999999999999997e-05,0.00106,0.0001,-1e-05,2
6653,6848,8e-05,2e-05,-5.9999999999999995e-05,0.00011999999999999999,-2.9999999999999997e-05,0.00106,0.0001,-1e-05,2
6654,6849,8e-05,2e-05,-5.9999999999999995e-05,0.00011999999999999999,-2.9999999999999997e-05,0.00106,0.0001,-1e-05,2
6655,6850,8e-05,2e-05,-5.9999999999999995e-05,0.00011999999999999999,-2.9999999999999997e-05,0.00106,0.0001,-1e-05,2
6656,6851,8e-05,2e-05,-5.9999999999999995e-05,0.00011999999999999999,-2.9999999999999997e-05,0.00106,0.0001,-1e-05,2
6657,6852,8e-05,2e-05,-5.9999999999999995e-05,0.00011999999999999999,-2.9999999999999997e-05,0.00106,0.0001,-1e-05,2
6658,6853,8e-05,2e-05,-5.9999999999999995e-05,0.00011999999999999999,-2.9999999999999997e-05,0.00106,0.0001,-1e-05,2
6659,6854,8e-05,2e-05,-5.9999999999999995e-05,0.00011999999999999999,-2.9999999999999997e-05,0.00106,0.0001,-1e-05,2
6660,6855,8e-05,2e-05,-5.9999999999999995e-05,0.00011999999999999999,-2.9999999999999997e-05,0.00106,0.0001,-1e-05,2
6661,6856,8e-05,2e-05,-5.9999999999999995e-05,0.00011999999999999999,-2.9999999999999997e-05,0.00106,0.0001,-1e-05,2
6662,6857,8e-05,2e-05,-5.9999999999999995e-05,0.00011999999999999999,-2.9999999999999997e-05,0.00106,0.0001,-1e-05,2
6663,6858,8e-05,2e-05,-5.9999999999999995e-05,0.00011999999999999999,-2.9999999999999997e-05,0.00106,0.0001,-1e-05,2
6664,6859,8e-05,2e-05,-5.9999999999999995e-05,0.00011999999999999999,-2.9999999999999997e-05,0.00106,0.0001,-1e-05,2
6665,6860,8e-05,2e-05,-5.9999999999999995e-05,0.00011999999999999999,-2.9999999999999997e-05,0.00106,0.0001,-1e-05,2
6666,6861,8e-05,2e-05,-5.9999999999999995e-05,0.00011999999999999999,-2.9999999999999997e-05,0.00106,0.0001,-1e-05,2
6667,6863,8e-05,2e-05,-5.9999999999999995e-05,0.00011999999999999999,-2.9999999999999997e-05,0.00106,0.0001,-1e-05,2
6668,6864,0.0,2.9999999999999997e-05,5.9999999999999995e-05,8e-05,-7e-05,-0.00029,-0.00059,-0.00011999999999999999,2
6669,6865,2.9999999999999997e-05,4e-05,5.9999999999999995e-05,-2.9999999999999997e-05,1e-05,-0.00045999999999999996,-2.9999999999999997e-05,1e-05,2
6670,6866,2.9999999999999997e-05,4e-05,5.9999999999999995e-05,-2.9999999999999997e-05,1e-05,-0.00045999999999999996,-2.9999999999999997e-05,1e-05,2
6671,6867,2.9999999999999997e-05,4e-05,5.9999999999999995e-05,-2.9999999999999997e-05,1e-05,-0.00045999999999999996,-2.9999999999999997e-05,1e-05,2
6672,6868,2.9999999999999997e-05,4e-05,5.9999999999999995e-05,-2.9999999999999997e-05,1e-05,-0.00045999999999999996,-2.9999999999999997e-05,1e-05,2
6673,6869,2.9999999999999997e-05,4e-05,5.9999999999999995e-05,-2.9999999999999997e-05,1e-05,-0.00045999999999999996,-2.9999999999999997e-05,1e-05,2
6674,6870,2.9999999999999997e-05,4e-05,5.9999999999999995e-05,-2.9999999999999997e-05,1e-05,-0.00045999999999999996,-2.9999999999999997e-05,1e-05,2
6675,6871,2.9999999999999997e-05,4e-05,5.9999999999999995e-05,-2.9999999999999997e-05,1e-05,-0.00045999999999999996,-2.9999999999999997e-05,1e-05,2
6676,6872,2.9999999999999997e-05,4e-05,5.9999999999999995e-05,-2.9999999999999997e-05,1e-05,-0.00045999999999999996,-2.9999999999999997e-05,1e-05,2
6677,6873,2.9999999999999997e-05,4e-05,5.9999999999999995e-05,-2.9999999999999997e-05,1e-05,-0.00045999999999999996,-2.9999999999999997e-05,1e-05,2
6678,6874,2.9999999999999997e-05,4e-05,5.9999999999999995e-05,-2.9999999999999997e-05,1e-05,-0.00045999999999999996,-2.9999999999999997e-05,1e-05,2
6679,6875,2.9999999999999997e-05,4e-05,5.9999999999999995e-05,-2.9999999999999997e-05,1e-05,-0.00045999999999999996,-2.9999999999999997e-05,1e-05,2
6680,6876,2.9999999999999997e-05,4e-05,5.9999999999999995e-05,-2.9999999999999997e-05,1e-05,-0.00045999999999999996,-2.9999999999999997e-05,1e-05,2
6681,6877,2.9999999999999997e-05,4e-05,5.9999999999999995e-05,-2.9999999999999997e-05,1e-05,-0.00045999999999999996,-2.9999999999999997e-05,1e-05,2
6682,6878,2.9999999999999997e-05,4e-05,5.9999999999999995e-05,-2.9999999999999997e-05,1e-05,-0.00045999999999999996,-2.9999999999999997e-05,1e-05,2
6683,6879,2.9999999999999997e-05,4e-05,5.9999999999999995e-05,-2.9999999999999997e-05,1e-05,-0.00045999999999999996,-2.9999999999999997e-05,1e-05,2
6684,6880,2.9999999999999997e-05,4e-05,5.9999999999999995e-05,-2.9999999999999997e-05,1e-05,-0.00045999999999999996,-2.9999999999999997e-05,1e-05,2
6685,6881,2.9999999999999997e-05,4e-05,5.9999999999999995e-05,-2.9999999999999997e-05,1e-05,-0.00045999999999999996,-2.9999999999999997e-05,1e-05,2
6686,6882,2.9999999999999997e-05,4e-05,5.9999999999999995e-05,-2.9999999999999997e-05,1e-05,-0.00045999999999999996,-2.9999999999999997e-05,1e-05,2
6687,6883,2.9999999999999997e-05,4e-05,5.9999999999999995e-05,-2.9999999999999997e-05,1e-05,-0.00045999999999999996,-2.9999999999999997e-05,1e-05,2
6688,6884,2.9999999999999997e-05,4e-05,5.9999999999999995e-05,-2.9999999999999997e-05,1e-05,-0.00045999999999999996,-2.9999999999999997e-05,1e-05,2
6689,6885,2.9999999999999997e-05,4e-05,5.9999999999999995e-05,-2.9999999999999997e-05,1e-05,-0.00045999999999999996,-2.9999999999999997e-05,1e-05,2
6690,6886,5e-05,-4e-05,-8e-05,-0.00016,-8e-05,0.00067,0.00023999999999999998,0.00011999999999999999,2
6691,6889,-4e-05,-4e-05,-8e-05,-0.00028,-5e-05,-0.00018,0.00016,-2e-05,2
6692,6890,-4e-05,-4e-05,-8e-05,-0.00028,-5e-05,-0.00018,0.00016,-2e-05,2
6693,6891,-4e-05,-4e-05,-8e-05,-0.00028,-5e-05,-0.00018,0.00016,-2e-05,2
6694,6892,-4e-05,-4e-05,-8e-05,-0.00028,-5e-05,-0.00018,0.00016,-2e-05,2
6695,6893,-4e-05,-4e-05,-8e-05,-0.00028,-5e-05,-0.00018,0.00016,-2e-05,2
6696,6894,-4e-05,-4e-05,-8e-05,-0.00028,-5e-05,-0.00018,0.00016,-2e-05,2
6697,6895,-4e-05,-4e-05,-8e-05,-0.00028,-5e-05,-0.00018,0.00016,-2e-05,2
6698,6896,-4e-05,-4e-05,-8e-05,-0.00028,-5e-05,-0.00018,0.00016,-2e-05,2
6699,6897,-4e-05,-4e-05,-8e-05,-0.00028,-5e-05,-0.00018,0.00016,-2e-05,2
6700,6898,-4e-05,-4e-05,-8e-05,-0.00028,-5e-05,-0.00018,0.00016,-2e-05,2
6701,6899,-4e-05,-4e-05,-8e-05,-0.00028,-5e-05,-0.00018,0.00016,-2e-05,2
6702,6900,2e-05,0.0,2e-05,-2e-05,4e-05,0.00049,-0.00035,-4e-05,2
6703,6901,0.0,-4e-05,-1e-05,-0.00016999999999999999,-0.00015,-1e-05,0.00025,2e-05,2
6704,6902,0.0,-4e-05,-1e-05,-0.00016999999999999999,-0.00015,-1e-05,0.00025,2e-05,2
6705,6903,0.0,-4e-05,-1e-05,-0.00016999999999999999,-0.00015,-1e-05,0.00025,2e-05,2
6706,6904,0.0,-4e-05,-1e-05,-0.00016999999999999999,-0.00015,-1e-05,0.00025,2e-05,2
6707,6905,0.0,-4e-05,-1e-05,-0.00016999999999999999,-0.00015,-1e-05,0.00025,2e-05,2
6708,6906,0.0,-4e-05,-1e-05,-0.00016999999999999999,-0.00015,-1e-05,0.00025,2e-05,2
6709,6907,-8e-05,-2e-05,0.0,0.00022,0.00047000000000000004,-0.00045,-0.00041,-0.00015,2
6710,6908,-8e-05,-2e-05,0.0,0.00022,0.00047000000000000004,-0.00045,-0.00041,-0.00015,2
6711,6909,-8e-05,-2e-05,0.0,0.00022,0.00047000000000000004,-0.00045,-0.00041,-0.00015,2
6712,6910,-8e-05,-2e-05,0.0,0.00022,0.00047000000000000004,-0.00045,-0.00041,-0.00015,2
6713,6911,-8e-05,-2e-05,0.0,0.00022,0.00047000000000000004,-0.00045,-0.00041,-0.00015,2
6714,6912,-8e-05,-2e-05,0.0,0.00022,0.00047000000000000004,-0.00045,-0.00041,-0.00015,2
6715,6913,-8e-05,-2e-05,0.0,0.00022,0.00047000000000000004,-0.00045,-0.00041,-0.00015,2
6716,6914,-8e-05,-2e-05,0.0,0.00022,0.00047000000000000004,-0.00045,-0.00041,-0.00015,2
6717,6915,-8e-05,-2e-05,0.0,0.00022,0.00047000000000000004,-0.00045,-0.00041,-0.00015,2
6718,6916,-8e-05,-2e-05,0.0,0.00022,0.00047000000000000004,-0.00045,-0.00041,-0.00015,2
6719,6917,-8e-05,-2e-05,0.0,0.00022,0.00047000000000000004,-0.00045,-0.00041,-0.00015,2
6720,6918,-8e-05,-2e-05,0.0,0.00022,0.00047000000000000004,-0.00045,-0.00041,-0.00015,2
6721,6919,-8e-05,-2e-05,0.0,0.00022,0.00047000000000000004,-0.00045,-0.00041,-0.00015,2
6722,6920,-8e-05,-2e-05,0.0,0.00022,0.00047000000000000004,-0.00045,-0.00041,-0.00015,2
6723,6921,-8e-05,-2e-05,0.0,0.00022,0.00047000000000000004,-0.00045,-0.00041,-0.00015,2
6724,6922,-8e-05,-2e-05,0.0,0.00022,0.00047000000000000004,-0.00045,-0.00041,-0.00015,2
6725,6923,-8e-05,-2e-05,0.0,0.00022,0.00047000000000000004,-0.00045,-0.00041,-0.00015,2
6726,6924,-5.9999999999999995e-05,0.0,5e-05,-0.00011999999999999999,-4e-05,-0.00072,-0.00118,-0.00014,2
6727,6925,-2e-05,-7e-05,-1e-05,0.00032,-2e-05,0.00033999999999999997,-0.00013000000000000002,-5.9999999999999995e-05,2
6728,6926,-9e-05,-0.0001,-0.00035,-0.00081,-0.00043,-4e-05,-0.00011,-1e-05,2
6729,6927,-9e-05,-0.0001,-0.00035,-0.00081,-0.00043,-4e-05,-0.00011,-1e-05,2
6730,6928,-9e-05,-0.0001,-0.00035,-0.00081,-0.00043,-4e-05,-0.00011,-1e-05,2
6731,6929,-9e-05,-0.0001,-0.00035,-0.00081,-0.00043,-4e-05,-0.00011,-1e-05,2
6732,6930,-9e-05,-0.0001,-0.00035,-0.00081,-0.00043,-4e-05,-0.00011,-1e-05,2
6733,6931,-9e-05,-0.0001,-0.00035,-0.00081,-0.00043,-4e-05,-0.00011,-1e-05,2
6734,6932,-9e-05,-0.0001,-0.00035,-0.00081,-0.00043,-4e-05,-0.00011,-1e-05,2
6735,6933,-9e-05,-0.0001,-0.00035,-0.00081,-0.00043,-4e-05,-0.00011,-1e-05,2
6736,6934,-9e-05,-0.0001,-0.00035,-0.00081,-0.00043,-4e-05,-0.00011,-1e-05,2
6737,6935,-9e-05,-0.0001,-0.00035,-0.00081,-0.00043,-4e-05,-0.00011,-1e-05,2
6738,6936,-9e-05,-0.0001,-0.00035,-0.00081,-0.00043,-4e-05,-0.00011,-1e-05,2
6739,6938,-9e-05,-0.0001,-0.00035,-0.00081,-0.00043,-4e-05,-0.00011,-1e-05,2
6740,6940,-9e-05,-0.0001,-0.00035,-0.00081,-0.00043,-4e-05,-0.00011,-1e-05,2
6741,6941,-9e-05,-0.0001,-0.00035,-0.00081,-0.00043,-4e-05,-0.00011,-1e-05,2
6742,6942,-9e-05,-0.0001,-0.00035,-0.00081,-0.00043,-4e-05,-0.00011,-1e-05,2
6743,6943,-9e-05,-0.0001,-0.00035,-0.00081,-0.00043,-4e-05,-0.00011,-1e-05,2
6744,6944,-9e-05,-0.0001,-0.00035,-0.00081,-0.00043,-4e-05,-0.00011,-1e-05,2
6745,6945,-9e-05,-0.0001,-0.00035,-0.00081,-0.00043,-4e-05,-0.00011,-1e-05,2
6746,6946,-4e-05,-2.9999999999999997e-05,-5e-05,-5e-05,-0.00014,0.00032,0.00032,-7e-05,2
6747,6947,-4e-05,-2.9999999999999997e-05,-5e-05,-5e-05,-0.00014,0.00032,0.00032,-7e-05,2
6748,6948,-9e-05,-8e-05,7e-05,0.00033,-0.00043,2.9999999999999997e-05,0.00015,2.9999999999999997e-05,2
6749,6949,-9e-05,-8e-05,7e-05,0.00033,-0.00043,2.9999999999999997e-05,0.00015,2.9999999999999997e-05,2
6750,6950,-9e-05,-8e-05,7e-05,0.00033,-0.00043,2.9999999999999997e-05,0.00015,2.9999999999999997e-05,2
6751,6951,-9e-05,-8e-05,7e-05,0.00033,-0.00043,2.9999999999999997e-05,0.00015,2.9999999999999997e-05,2
6752,6952,-9e-05,-8e-05,7e-05,0.00033,-0.00043,2.9999999999999997e-05,0.00015,2.9999999999999997e-05,2
6753,6953,-9e-05,-8e-05,7e-05,0.00033,-0.00043,2.9999999999999997e-05,0.00015,2.9999999999999997e-05,2
6754,6954,-9e-05,-8e-05,7e-05,0.00033,-0.00043,2.9999999999999997e-05,0.00015,2.9999999999999997e-05,2
6755,6955,-9e-05,-8e-05,7e-05,0.00033,-0.00043,2.9999999999999997e-05,0.00015,2.9999999999999997e-05,2
6756,6956,-9e-05,-8e-05,7e-05,0.00033,-0.00043,2.9999999999999997e-05,0.00015,2.9999999999999997e-05,2
6757,6957,-9e-05,-8e-05,7e-05,0.00033,-0.00043,2.9999999999999997e-05,0.00015,2.9999999999999997e-05,2
6758,6958,-9e-05,-8e-05,7e-05,0.00033,-0.00043,2.9999999999999997e-05,0.00015,2.9999999999999997e-05,2
6759,6959,-9e-05,-8e-05,7e-05,0.00033,-0.00043,2.9999999999999997e-05,0.00015,2.9999999999999997e-05,2
6760,6960,-5e-05,-0.0001,-0.00018,-0.00059,-0.00033,-0.00058,-0.00016,-5e-05,2
6761,6961,-0.00011,-8e-05,-0.00014,0.00039,0.00031,0.0002,-0.0003,-0.00022,2
6762,6962,-0.00011,-8e-05,-0.00014,0.00039,0.00031,0.0002,-0.0003,-0.00022,2
6763,6963,-0.00011,-8e-05,-0.00014,0.00039,0.00031,0.0002,-0.0003,-0.00022,2
6764,6964,-0.00011,-8e-05,-0.00014,0.00039,0.00031,0.0002,-0.0003,-0.00022,2
6765,6965,-0.00011,-8e-05,-0.00014,0.00039,0.00031,0.0002,-0.0003,-0.00022,2
6766,6966,-0.00011,-8e-05,-0.00014,0.00039,0.00031,0.0002,-0.0003,-0.00022,2
6767,6967,-2e-05,-2e-05,-8e-05,0.0001,-5.9999999999999995e-05,-0.00042,0.0002,-0.0001,2
6768,6968,-2e-05,-2e-05,-8e-05,0.0001,-5.9999999999999995e-05,-0.00042,0.0002,-0.0001,2
6769,6969,-2e-05,-2e-05,-8e-05,0.0001,-5.9999999999999995e-05,-0.00042,0.0002,-0.0001,2
6770,6970,-2e-05,-2e-05,-8e-05,0.0001,-5.9999999999999995e-05,-0.00042,0.0002,-0.0001,2
6771,6971,-2e-05,-2e-05,-8e-05,0.0001,-5.9999999999999995e-05,-0.00042,0.0002,-0.0001,2
6772,6972,-2e-05,-2e-05,-8e-05,0.0001,-5.9999999999999995e-05,-0.00042,0.0002,-0.0001,2
6773,6973,-2e-05,-2e-05,-8e-05,0.0001,-5.9999999999999995e-05,-0.00042,0.0002,-0.0001,2
6774,6974,-2e-05,-2e-05,-8e-05,0.0001,-5.9999999999999995e-05,-0.00042,0.0002,-0.0001,2
6775,6975,-2e-05,-2e-05,-8e-05,0.0001,-5.9999999999999995e-05,-0.00042,0.0002,-0.0001,2
6776,6976,-2e-05,-2e-05,-8e-05,0.0001,-5.9999999999999995e-05,-0.00042,0.0002,-0.0001,2
6777,6977,-2e-05,-2e-05,-8e-05,0.0001,-5.9999999999999995e-05,-0.00042,0.0002,-0.0001,2
6778,6978,-2e-05,-2e-05,-8e-05,0.0001,-5.9999999999999995e-05,-0.00042,0.0002,-0.0001,2
6779,6979,-2e-05,-2e-05,-8e-05,0.0001,-5.9999999999999995e-05,-0.00042,0.0002,-0.0001,2
6780,6980,-2e-05,-2e-05,-8e-05,0.0001,-5.9999999999999995e-05,-0.00042,0.0002,-0.0001,2
6781,6981,-2e-05,-2e-05,-8e-05,0.0001,-5.9999999999999995e-05,-0.00042,0.0002,-0.0001,2
6782,6982,-2e-05,-2e-05,-8e-05,0.0001,-5.9999999999999995e-05,-0.00042,0.0002,-0.0001,2
6783,6983,-2e-05,-2e-05,-8e-05,0.0001,-5.9999999999999995e-05,-0.00042,0.0002,-0.0001,2
6784,6984,-5e-05,-5.9999999999999995e-05,-2e-05,-5.9999999999999995e-05,-5e-05,0.00016999999999999999,0.00011,0.0,2
6785,6985,2.9999999999999997e-05,5e-05,-1e-05,-9e-05,0.0001,-0.00025,2e-05,4e-05,2
6786,6986,2.9999999999999997e-05,5e-05,-1e-05,-9e-05,0.0001,-0.00025,2e-05,4e-05,2
6787,6988,2.9999999999999997e-05,5e-05,-1e-05,-9e-05,0.0001,-0.00025,2e-05,4e-05,2
6788,6989,2.9999999999999997e-05,5e-05,-1e-05,-9e-05,0.0001,-0.00025,2e-05,4e-05,2
6789,6990,2.9999999999999997e-05,5e-05,-1e-05,-9e-05,0.0001,-0.00025,2e-05,4e-05,2
6790,6991,2.9999999999999997e-05,5e-05,-1e-05,-9e-05,0.0001,-0.00025,2e-05,4e-05,2
6791,6992,2.9999999999999997e-05,5e-05,-1e-05,-9e-05,0.0001,-0.00025,2e-05,4e-05,2
6792,6993,2.9999999999999997e-05,5e-05,-1e-05,-9e-05,0.0001,-0.00025,2e-05,4e-05,2
6793,6994,2.9999999999999997e-05,5e-05,-1e-05,-9e-05,0.0001,-0.00025,2e-05,4e-05,2
6794,6995,2.9999999999999997e-05,5e-05,-1e-05,-9e-05,0.0001,-0.00025,2e-05,4e-05,2
6795,6996,2.9999999999999997e-05,5e-05,-1e-05,-9e-05,0.0001,-0.00025,2e-05,4e-05,2
6796,6997,2.9999999999999997e-05,5e-05,-1e-05,-9e-05,0.0001,-0.00025,2e-05,4e-05,2
6797,6998,2.9999999999999997e-05,5e-05,-1e-05,-9e-05,0.0001,-0.00025,2e-05,4e-05,2
6798,6999,2.9999999999999997e-05,5e-05,-1e-05,-9e-05,0.0001,-0.00025,2e-05,4e-05,2
6799,7000,2.9999999999999997e-05,5e-05,-1e-05,-9e-05,0.0001,-0.00025,2e-05,4e-05,2
6800,7001,2.9999999999999997e-05,5e-05,-1e-05,-9e-05,0.0001,-0.00025,2e-05,4e-05,2
6801,7002,2.9999999999999997e-05,5e-05,-1e-05,-9e-05,0.0001,-0.00025,2e-05,4e-05,2
6802,7003,2.9999999999999997e-05,5e-05,-1e-05,-9e-05,0.0001,-0.00025,2e-05,4e-05,2
6803,7004,2.9999999999999997e-05,5e-05,-1e-05,-9e-05,0.0001,-0.00025,2e-05,4e-05,2
6804,7005,2.9999999999999997e-05,5e-05,-1e-05,-9e-05,0.0001,-0.00025,2e-05,4e-05,2
6805,7006,7e-05,2.9999999999999997e-05,-0.00016,-0.00018,0.00022999999999999998,7e-05,0.00037999999999999997,0.00014,2
6806,7007,7e-05,2.9999999999999997e-05,-0.00016,-0.00018,0.00022999999999999998,7e-05,0.00037999999999999997,0.00014,2
6807,7008,7e-05,2.9999999999999997e-05,7e-05,-0.00015,-0.00029,-0.00057,0.00031,2.9999999999999997e-05,2
6808,7009,7e-05,2.9999999999999997e-05,7e-05,-0.00015,-0.00029,-0.00057,0.00031,2.9999999999999997e-05,2
6809,7010,7e-05,2.9999999999999997e-05,7e-05,-0.00015,-0.00029,-0.00057,0.00031,2.9999999999999997e-05,2
6810,7011,7e-05,2.9999999999999997e-05,7e-05,-0.00015,-0.00029,-0.00057,0.00031,2.9999999999999997e-05,2
6811,7012,7e-05,2.9999999999999997e-05,7e-05,-0.00015,-0.00029,-0.00057,0.00031,2.9999999999999997e-05,2
6812,7013,7e-05,2.9999999999999997e-05,7e-05,-0.00015,-0.00029,-0.00057,0.00031,2.9999999999999997e-05,2
6813,7014,7e-05,2.9999999999999997e-05,7e-05,-0.00015,-0.00029,-0.00057,0.00031,2.9999999999999997e-05,2
6814,7015,7e-05,2.9999999999999997e-05,7e-05,-0.00015,-0.00029,-0.00057,0.00031,2.9999999999999997e-05,2
6815,7016,7e-05,2.9999999999999997e-05,7e-05,-0.00015,-0.00029,-0.00057,0.00031,2.9999999999999997e-05,2
6816,7017,7e-05,2.9999999999999997e-05,7e-05,-0.00015,-0.00029,-0.00057,0.00031,2.9999999999999997e-05,2
6817,7018,7e-05,2.9999999999999997e-05,7e-05,-0.00015,-0.00029,-0.00057,0.00031,2.9999999999999997e-05,2
6818,7019,7e-05,2.9999999999999997e-05,7e-05,-0.00015,-0.00029,-0.00057,0.00031,2.9999999999999997e-05,2
6819,7020,-0.0001,-5e-05,-2.9999999999999997e-05,-0.00023999999999999998,-0.00022,0.00058,0.00023999999999999998,-7e-05,2
6820,7021,-0.0001,-5e-05,-2.9999999999999997e-05,-0.00023999999999999998,-0.00022,0.00058,0.00023999999999999998,-7e-05,2
6821,7022,-0.0001,-5e-05,-2.9999999999999997e-05,-0.00023999999999999998,-0.00022,0.00058,0.00023999999999999998,-7e-05,2
6822,7023,-0.0001,-5e-05,-2.9999999999999997e-05,-0.00023999999999999998,-0.00022,0.00058,0.00023999999999999998,-7e-05,2
6823,7024,-0.0001,-5e-05,-2.9999999999999997e-05,-0.00023999999999999998,-0.00022,0.00058,0.00023999999999999998,-7e-05,2
6824,7025,-0.0001,-5e-05,-2.9999999999999997e-05,-0.00023999999999999998,-0.00022,0.00058,0.00023999999999999998,-7e-05,2
6825,7026,-0.0001,-5e-05,-2.9999999999999997e-05,-0.00023999999999999998,-0.00022,0.00058,0.00023999999999999998,-7e-05,2
6826,7027,-7e-05,-2e-05,2.9999999999999997e-05,-0.00022,-0.00013000000000000002,0.0001,-0.0001,-1e-05,2
6827,7028,-7e-05,-2e-05,2.9999999999999997e-05,-0.00022,-0.00013000000000000002,0.0001,-0.0001,-1e-05,2
6828,7029,-7e-05,-2e-05,2.9999999999999997e-05,-0.00022,-0.00013000000000000002,0.0001,-0.0001,-1e-05,2
6829,7030,-7e-05,-2e-05,2.9999999999999997e-05,-0.00022,-0.00013000000000000002,0.0001,-0.0001,-1e-05,2
6830,7031,-7e-05,-2e-05,2.9999999999999997e-05,-0.00022,-0.00013000000000000002,0.0001,-0.0001,-1e-05,2
6831,7032,-7e-05,-2e-05,2.9999999999999997e-05,-0.00022,-0.00013000000000000002,0.0001,-0.0001,-1e-05,2
6832,7033,-7e-05,-2e-05,2.9999999999999997e-05,-0.00022,-0.00013000000000000002,0.0001,-0.0001,-1e-05,2
6833,7034,-7e-05,-2e-05,2.9999999999999997e-05,-0.00022,-0.00013000000000000002,0.0001,-0.0001,-1e-05,2
6834,7035,-7e-05,-2e-05,2.9999999999999997e-05,-0.00022,-0.00013000000000000002,0.0001,-0.0001,-1e-05,2
6835,7036,-7e-05,-2e-05,2.9999999999999997e-05,-0.00022,-0.00013000000000000002,0.0001,-0.0001,-1e-05,2
6836,7038,-7e-05,-2e-05,2.9999999999999997e-05,-0.00022,-0.00013000000000000002,0.0001,-0.0001,-1e-05,2
6837,7039,-7e-05,-2e-05,2.9999999999999997e-05,-0.00022,-0.00013000000000000002,0.0001,-0.0001,-1e-05,2
6838,7040,-7e-05,-2e-05,2.9999999999999997e-05,-0.00022,-0.00013000000000000002,0.0001,-0.0001,-1e-05,2
6839,7041,-7e-05,-2e-05,2.9999999999999997e-05,-0.00022,-0.00013000000000000002,0.0001,-0.0001,-1e-05,2
6840,7042,-7e-05,-2e-05,2.9999999999999997e-05,-0.00022,-0.00013000000000000002,0.0001,-0.0001,-1e-05,2
6841,7043,-7e-05,-2e-05,2.9999999999999997e-05,-0.00022,-0.00013000000000000002,0.0001,-0.0001,-1e-05,2
6842,7044,-5e-05,-2.9999999999999997e-05,5e-05,2e-05,-0.00018,-0.00064,-0.00045999999999999996,-2.9999999999999997e-05,2
6843,7045,2e-05,0.0,7e-05,4e-05,-0.00015,5.9999999999999995e-05,-0.0005,-0.00011999999999999999,2
6844,7047,2e-05,0.0,7e-05,4e-05,-0.00015,5.9999999999999995e-05,-0.0005,-0.00011999999999999999,2
6845,7048,2e-05,0.0,7e-05,4e-05,-0.00015,5.9999999999999995e-05,-0.0005,-0.00011999999999999999,2
6846,7049,2e-05,0.0,7e-05,4e-05,-0.00015,5.9999999999999995e-05,-0.0005,-0.00011999999999999999,2
6847,7050,2e-05,0.0,7e-05,4e-05,-0.00015,5.9999999999999995e-05,-0.0005,-0.00011999999999999999,2
6848,7051,2e-05,0.0,7e-05,4e-05,-0.00015,5.9999999999999995e-05,-0.0005,-0.00011999999999999999,2
6849,7052,2e-05,0.0,7e-05,4e-05,-0.00015,5.9999999999999995e-05,-0.0005,-0.00011999999999999999,2
6850,7053,2e-05,0.0,7e-05,4e-05,-0.00015,5.9999999999999995e-05,-0.0005,-0.00011999999999999999,2
6851,7054,2e-05,0.0,7e-05,4e-05,-0.00015,5.9999999999999995e-05,-0.0005,-0.00011999999999999999,2
6852,7055,2e-05,0.0,7e-05,4e-05,-0.00015,5.9999999999999995e-05,-0.0005,-0.00011999999999999999,2
6853,7056,2e-05,0.0,7e-05,4e-05,-0.00015,5.9999999999999995e-05,-0.0005,-0.00011999999999999999,2
6854,7057,2e-05,0.0,7e-05,4e-05,-0.00015,5.9999999999999995e-05,-0.0005,-0.00011999999999999999,2
6855,7058,2e-05,0.0,7e-05,4e-05,-0.00015,5.9999999999999995e-05,-0.0005,-0.00011999999999999999,2
6856,7059,2e-05,0.0,7e-05,4e-05,-0.00015,5.9999999999999995e-05,-0.0005,-0.00011999999999999999,2
6857,7060,2e-05,0.0,7e-05,4e-05,-0.00015,5.9999999999999995e-05,-0.0005,-0.00011999999999999999,2
6858,7061,2e-05,0.0,7e-05,4e-05,-0.00015,5.9999999999999995e-05,-0.0005,-0.00011999999999999999,2
6859,7062,2e-05,0.0,7e-05,4e-05,-0.00015,5.9999999999999995e-05,-0.0005,-0.00011999999999999999,2
6860,7063,2e-05,0.0,7e-05,4e-05,-0.00015,5.9999999999999995e-05,-0.0005,-0.00011999999999999999,2
6861,7064,2e-05,0.0,7e-05,4e-05,-0.00015,5.9999999999999995e-05,-0.0005,-0.00011999999999999999,2
6862,7065,2e-05,0.0,7e-05,4e-05,-0.00015,5.9999999999999995e-05,-0.0005,-0.00011999999999999999,2
6863,7066,1e-05,2.9999999999999997e-05,0.00011999999999999999,0.00027,0.00015,0.0,-4e-05,2e-05,2
6864,7067,1e-05,2.9999999999999997e-05,0.00011999999999999999,0.00027,0.00015,0.0,-4e-05,2e-05,2
6865,7068,5.9999999999999995e-05,2.9999999999999997e-05,-0.00011,-0.00011999999999999999,2e-05,0.00033,0.0007599999999999999,0.00011999999999999999,2
6866,7069,5.9999999999999995e-05,2.9999999999999997e-05,-0.00011,-0.00011999999999999999,2e-05,0.00033,0.0007599999999999999,0.00011999999999999999,2
6867,7070,5.9999999999999995e-05,2.9999999999999997e-05,-0.00011,-0.00011999999999999999,2e-05,0.00033,0.0007599999999999999,0.00011999999999999999,2
6868,7071,5.9999999999999995e-05,2.9999999999999997e-05,-0.00011,-0.00011999999999999999,2e-05,0.00033,0.0007599999999999999,0.00011999999999999999,2
6869,7072,5.9999999999999995e-05,2.9999999999999997e-05,-0.00011,-0.00011999999999999999,2e-05,0.00033,0.0007599999999999999,0.00011999999999999999,2
6870,7073,5.9999999999999995e-05,2.9999999999999997e-05,-0.00011,-0.00011999999999999999,2e-05,0.00033,0.0007599999999999999,0.00011999999999999999,2
6871,7074,5.9999999999999995e-05,2.9999999999999997e-05,-0.00011,-0.00011999999999999999,2e-05,0.00033,0.0007599999999999999,0.00011999999999999999,2
6872,7075,5.9999999999999995e-05,2.9999999999999997e-05,-0.00011,-0.00011999999999999999,2e-05,0.00033,0.0007599999999999999,0.00011999999999999999,2
6873,7076,5.9999999999999995e-05,2.9999999999999997e-05,-0.00011,-0.00011999999999999999,2e-05,0.00033,0.0007599999999999999,0.00011999999999999999,2
6874,7077,5.9999999999999995e-05,2.9999999999999997e-05,-0.00011,-0.00011999999999999999,2e-05,0.00033,0.0007599999999999999,0.00011999999999999999,2
6875,7078,5.9999999999999995e-05,2.9999999999999997e-05,-0.00011,-0.00011999999999999999,2e-05,0.00033,0.0007599999999999999,0.00011999999999999999,2
6876,7079,5.9999999999999995e-05,2.9999999999999997e-05,-0.00011,-0.00011999999999999999,2e-05,0.00033,0.0007599999999999999,0.00011999999999999999,2
6877,7080,2e-05,0.0,-1e-05,-5e-05,0.00021,0.0,-0.00032,0.0,2
6878,7081,1e-05,4e-05,5e-05,-0.00011999999999999999,-0.00026000000000000003,-0.00021,0.00029,0.00011,2
6879,7082,1e-05,4e-05,5e-05,-0.00011999999999999999,-0.00026000000000000003,-0.00021,0.00029,0.00011,2
6880,7083,1e-05,4e-05,5e-05,-0.00011999999999999999,-0.00026000000000000003,-0.00021,0.00029,0.00011,2
6881,7084,1e-05,4e-05,5e-05,-0.00011999999999999999,-0.00026000000000000003,-0.00021,0.00029,0.00011,2
6882,7085,1e-05,4e-05,5e-05,-0.00011999999999999999,-0.00026000000000000003,-0.00021,0.00029,0.00011,2
6883,7086,1e-05,4e-05,5e-05,-0.00011999999999999999,-0.00026000000000000003,-0.00021,0.00029,0.00011,2
6884,7089,-5e-05,-2.9999999999999997e-05,-0.00011,-0.00037,5.9999999999999995e-05,5.9999999999999995e-05,-5.9999999999999995e-05,-5.9999999999999995e-05,2
6885,7090,-5e-05,-2.9999999999999997e-05,-0.00011,-0.00037,5.9999999999999995e-05,5.9999999999999995e-05,-5.9999999999999995e-05,-5.9999999999999995e-05,2
6886,7091,-5e-05,-2.9999999999999997e-05,-0.00011,-0.00037,5.9999999999999995e-05,5.9999999999999995e-05,-5.9999999999999995e-05,-5.9999999999999995e-05,2
6887,7092,-5e-05,-2.9999999999999997e-05,-0.00011,-0.00037,5.9999999999999995e-05,5.9999999999999995e-05,-5.9999999999999995e-05,-5.9999999999999995e-05,2
6888,7093,-5e-05,-2.9999999999999997e-05,-0.00011,-0.00037,5.9999999999999995e-05,5.9999999999999995e-05,-5.9999999999999995e-05,-5.9999999999999995e-05,2
6889,7094,-5e-05,-2.9999999999999997e-05,-0.00011,-0.00037,5.9999999999999995e-05,5.9999999999999995e-05,-5.9999999999999995e-05,-5.9999999999999995e-05,2
6890,7095,-5e-05,-2.9999999999999997e-05,-0.00011,-0.00037,5.9999999999999995e-05,5.9999999999999995e-05,-5.9999999999999995e-05,-5.9999999999999995e-05,2
6891,7096,-5e-05,-2.9999999999999997e-05,-0.00011,-0.00037,5.9999999999999995e-05,5.9999999999999995e-05,-5.9999999999999995e-05,-5.9999999999999995e-05,2
6892,7097,-5e-05,-2.9999999999999997e-05,-0.00011,-0.00037,5.9999999999999995e-05,5.9999999999999995e-05,-5.9999999999999995e-05,-5.9999999999999995e-05,2
6893,7098,-5e-05,-2.9999999999999997e-05,-0.00011,-0.00037,5.9999999999999995e-05,5.9999999999999995e-05,-5.9999999999999995e-05,-5.9999999999999995e-05,2
6894,7099,-5e-05,-2.9999999999999997e-05,-0.00011,-0.00037,5.9999999999999995e-05,5.9999999999999995e-05,-5.9999999999999995e-05,-5.9999999999999995e-05,2
6895,7100,-5e-05,-2.9999999999999997e-05,-0.00011,-0.00037,5.9999999999999995e-05,5.9999999999999995e-05,-5.9999999999999995e-05,-5.9999999999999995e-05,2
6896,7101,-5e-05,-2.9999999999999997e-05,-0.00011,-0.00037,5.9999999999999995e-05,5.9999999999999995e-05,-5.9999999999999995e-05,-5.9999999999999995e-05,2
6897,7102,-5e-05,-2.9999999999999997e-05,-0.00011,-0.00037,5.9999999999999995e-05,5.9999999999999995e-05,-5.9999999999999995e-05,-5.9999999999999995e-05,2
6898,7103,-5e-05,-2.9999999999999997e-05,-0.00011,-0.00037,5.9999999999999995e-05,5.9999999999999995e-05,-5.9999999999999995e-05,-5.9999999999999995e-05,2
6899,7104,-0.00013000000000000002,-7e-05,-0.00011,-0.00022,-2.9999999999999997e-05,0.0005,0.00015,-0.00022,2
6900,7105,0.00011999999999999999,1e-05,-2.9999999999999997e-05,-8e-05,-0.0001,0.0,0.0001,0.0001,2
6901,7106,-0.00021,-9e-05,-1e-05,0.00027,-5.9999999999999995e-05,-0.00018,-0.00066,-0.00022,2
6902,7107,-0.00021,-9e-05,-1e-05,0.00027,-5.9999999999999995e-05,-0.00018,-0.00066,-0.00022,2
6903,7108,-0.00021,-9e-05,-1e-05,0.00027,-5.9999999999999995e-05,-0.00018,-0.00066,-0.00022,2
6904,7109,-0.00021,-9e-05,-1e-05,0.00027,-5.9999999999999995e-05,-0.00018,-0.00066,-0.00022,2
6905,7110,-0.00021,-9e-05,-1e-05,0.00027,-5.9999999999999995e-05,-0.00018,-0.00066,-0.00022,2
6906,7111,-0.00021,-9e-05,-1e-05,0.00027,-5.9999999999999995e-05,-0.00018,-0.00066,-0.00022,2
6907,7112,-0.00021,-9e-05,-1e-05,0.00027,-5.9999999999999995e-05,-0.00018,-0.00066,-0.00022,2
6908,7113,-0.00021,-9e-05,-1e-05,0.00027,-5.9999999999999995e-05,-0.00018,-0.00066,-0.00022,2
6909,7114,-0.00021,-9e-05,-1e-05,0.00027,-5.9999999999999995e-05,-0.00018,-0.00066,-0.00022,2
6910,7115,-0.00021,-9e-05,-1e-05,0.00027,-5.9999999999999995e-05,-0.00018,-0.00066,-0.00022,2
6911,7116,-0.00021,-9e-05,-1e-05,0.00027,-5.9999999999999995e-05,-0.00018,-0.00066,-0.00022,2
6912,7117,-0.00021,-9e-05,-1e-05,0.00027,-5.9999999999999995e-05,-0.00018,-0.00066,-0.00022,2
6913,7118,-0.00021,-9e-05,-1e-05,0.00027,-5.9999999999999995e-05,-0.00018,-0.00066,-0.00022,2
6914,7119,-0.00021,-9e-05,-1e-05,0.00027,-5.9999999999999995e-05,-0.00018,-0.00066,-0.00022,2
6915,7120,-0.00021,-9e-05,-1e-05,0.00027,-5.9999999999999995e-05,-0.00018,-0.00066,-0.00022,2
6916,7121,-0.00021,-9e-05,-1e-05,0.00027,-5.9999999999999995e-05,-0.00018,-0.00066,-0.00022,2
6917,7122,-0.00021,-9e-05,-1e-05,0.00027,-5.9999999999999995e-05,-0.00018,-0.00066,-0.00022,2
6918,7123,-0.00021,-9e-05,-1e-05,0.00027,-5.9999999999999995e-05,-0.00018,-0.00066,-0.00022,2
6919,7124,-0.00021,-9e-05,-1e-05,0.00027,-5.9999999999999995e-05,-0.00018,-0.00066,-0.00022,2
6920,7125,-0.00021,-9e-05,-1e-05,0.00027,-5.9999999999999995e-05,-0.00018,-0.00066,-0.00022,2
6921,7126,-2e-05,-7e-05,-5.9999999999999995e-05,-5.9999999999999995e-05,-0.00011,0.00018,5.9999999999999995e-05,-2e-05,2
6922,7127,-2e-05,-7e-05,-5.9999999999999995e-05,-5.9999999999999995e-05,-0.00011,0.00018,5.9999999999999995e-05,-2e-05,2
6923,7128,0.0001,7e-05,0.00018999999999999998,0.00044,0.00016,0.0011099999999999999,0.00055,0.00013000000000000002,2
6924,7129,0.0001,7e-05,0.00018999999999999998,0.00044,0.00016,0.0011099999999999999,0.00055,0.00013000000000000002,2
6925,7130,0.0001,7e-05,0.00018999999999999998,0.00044,0.00016,0.0011099999999999999,0.00055,0.00013000000000000002,2
6926,7131,0.0001,7e-05,0.00018999999999999998,0.00044,0.00016,0.0011099999999999999,0.00055,0.00013000000000000002,2
6927,7132,0.0001,7e-05,0.00018999999999999998,0.00044,0.00016,0.0011099999999999999,0.00055,0.00013000000000000002,2
6928,7133,0.0001,7e-05,0.00018999999999999998,0.00044,0.00016,0.0011099999999999999,0.00055,0.00013000000000000002,2
6929,7134,0.0001,7e-05,0.00018999999999999998,0.00044,0.00016,0.0011099999999999999,0.00055,0.00013000000000000002,2
6930,7135,0.0001,7e-05,0.00018999999999999998,0.00044,0.00016,0.0011099999999999999,0.00055,0.00013000000000000002,2
6931,7136,0.0001,7e-05,0.00018999999999999998,0.00044,0.00016,0.0011099999999999999,0.00055,0.00013000000000000002,2
6932,7139,0.0001,7e-05,0.00018999999999999998,0.00044,0.00016,0.0011099999999999999,0.00055,0.00013000000000000002,2
6933,7140,0.0,-7e-05,-0.0002,-0.00091,-0.00023999999999999998,-0.00028,-0.00013000000000000002,-5e-05,2
6934,7141,0.0,-7e-05,-0.0002,-0.00091,-0.00023999999999999998,-0.00028,-0.00013000000000000002,-5e-05,2
6935,7142,0.0,-7e-05,-0.0002,-0.00091,-0.00023999999999999998,-0.00028,-0.00013000000000000002,-5e-05,2
6936,7143,0.0,-7e-05,-0.0002,-0.00091,-0.00023999999999999998,-0.00028,-0.00013000000000000002,-5e-05,2
6937,7144,0.0,-7e-05,-0.0002,-0.00091,-0.00023999999999999998,-0.00028,-0.00013000000000000002,-5e-05,2
6938,7145,0.0,-7e-05,-0.0002,-0.00091,-0.00023999999999999998,-0.00028,-0.00013000000000000002,-5e-05,2
6939,7146,0.0,-7e-05,-0.0002,-0.00091,-0.00023999999999999998,-0.00028,-0.00013000000000000002,-5e-05,2
6940,7147,0.0,-7e-05,-0.0002,-0.00091,-0.00023999999999999998,-0.00028,-0.00013000000000000002,-5e-05,2
6941,7148,0.0,-7e-05,-0.0002,-0.00091,-0.00023999999999999998,-0.00028,-0.00013000000000000002,-5e-05,2
6942,7149,0.0,2e-05,-2e-05,-5e-05,0.00061,-0.0001,-1e-05,5e-05,2
6943,7150,0.0,2e-05,-2e-05,-5e-05,0.00061,-0.0001,-1e-05,5e-05,2
6944,7151,0.0,2e-05,-2e-05,-5e-05,0.00061,-0.0001,-1e-05,5e-05,2
6945,7152,0.0,2e-05,-2e-05,-5e-05,0.00061,-0.0001,-1e-05,5e-05,2
6946,7153,0.0,2e-05,-2e-05,-5e-05,0.00061,-0.0001,-1e-05,5e-05,2
6947,7154,0.0,2e-05,-2e-05,-5e-05,0.00061,-0.0001,-1e-05,5e-05,2
6948,7155,0.0,2e-05,-2e-05,-5e-05,0.00061,-0.0001,-1e-05,5e-05,2
6949,7156,0.0,2e-05,-2e-05,-5e-05,0.00061,-0.0001,-1e-05,5e-05,2
6950,7157,0.0,2e-05,-2e-05,-5e-05,0.00061,-0.0001,-1e-05,5e-05,2
6951,7158,0.0,2e-05,-2e-05,-5e-05,0.00061,-0.0001,-1e-05,5e-05,2
6952,7159,0.0,2e-05,-2e-05,-5e-05,0.00061,-0.0001,-1e-05,5e-05,2
6953,7160,0.0,2e-05,-2e-05,-5e-05,0.00061,-0.0001,-1e-05,5e-05,2
6954,7161,0.0,2e-05,-2e-05,-5e-05,0.00061,-0.0001,-1e-05,5e-05,2
6955,7162,0.0,2e-05,-2e-05,-5e-05,0.00061,-0.0001,-1e-05,5e-05,2
6956,7163,0.0,2e-05,-2e-05,-5e-05,0.00061,-0.0001,-1e-05,5e-05,2
6957,7164,-2e-05,-1e-05,-1e-05,0.00011999999999999999,0.00016999999999999999,0.00047999999999999996,0.00022999999999999998,4e-05,2
6958,7165,4e-05,1e-05,4e-05,-1e-05,-0.00021,-0.00036,0.00011999999999999999,0.00011,2
6959,7166,4e-05,1e-05,4e-05,-1e-05,-0.00021,-0.00036,0.00011999999999999999,0.00011,2
6960,7167,4e-05,1e-05,4e-05,-1e-05,-0.00021,-0.00036,0.00011999999999999999,0.00011,2
6961,7168,4e-05,1e-05,4e-05,-1e-05,-0.00021,-0.00036,0.00011999999999999999,0.00011,2
6962,7169,4e-05,1e-05,4e-05,-1e-05,-0.00021,-0.00036,0.00011999999999999999,0.00011,2
6963,7170,4e-05,1e-05,4e-05,-1e-05,-0.00021,-0.00036,0.00011999999999999999,0.00011,2
6964,7171,4e-05,1e-05,4e-05,-1e-05,-0.00021,-0.00036,0.00011999999999999999,0.00011,2
6965,7172,4e-05,1e-05,4e-05,-1e-05,-0.00021,-0.00036,0.00011999999999999999,0.00011,2
6966,7173,4e-05,1e-05,4e-05,-1e-05,-0.00021,-0.00036,0.00011999999999999999,0.00011,2
6967,7174,4e-05,1e-05,4e-05,-1e-05,-0.00021,-0.00036,0.00011999999999999999,0.00011,2
6968,7175,4e-05,1e-05,4e-05,-1e-05,-0.00021,-0.00036,0.00011999999999999999,0.00011,2
6969,7176,4e-05,1e-05,4e-05,-1e-05,-0.00021,-0.00036,0.00011999999999999999,0.00011,2
6970,7177,4e-05,1e-05,4e-05,-1e-05,-0.00021,-0.00036,0.00011999999999999999,0.00011,2
6971,7178,4e-05,1e-05,4e-05,-1e-05,-0.00021,-0.00036,0.00011999999999999999,0.00011,2
6972,7179,4e-05,1e-05,4e-05,-1e-05,-0.00021,-0.00036,0.00011999999999999999,0.00011,2
6973,7180,4e-05,1e-05,4e-05,-1e-05,-0.00021,-0.00036,0.00011999999999999999,0.00011,2
6974,7181,4e-05,1e-05,4e-05,-1e-05,-0.00021,-0.00036,0.00011999999999999999,0.00011,2
6975,7182,4e-05,1e-05,4e-05,-1e-05,-0.00021,-0.00036,0.00011999999999999999,0.00011,2
6976,7183,4e-05,1e-05,4e-05,-1e-05,-0.00021,-0.00036,0.00011999999999999999,0.00011,2
6977,7184,4e-05,1e-05,4e-05,-1e-05,-0.00021,-0.00036,0.00011999999999999999,0.00011,2
6978,7185,4e-05,1e-05,4e-05,-1e-05,-0.00021,-0.00036,0.00011999999999999999,0.00011,2
6979,7186,0.00013000000000000002,5e-05,0.0001,0.00022999999999999998,0.00023999999999999998,-0.00039,-0.00015,0.00011,2
6980,7189,5.9999999999999995e-05,-1e-05,-5.9999999999999995e-05,0.00022,-7e-05,0.00023999999999999998,0.00018,2.9999999999999997e-05,2
6981,7190,5.9999999999999995e-05,-1e-05,-5.9999999999999995e-05,0.00022,-7e-05,0.00023999999999999998,0.00018,2.9999999999999997e-05,2
6982,7191,5.9999999999999995e-05,-1e-05,-5.9999999999999995e-05,0.00022,-7e-05,0.00023999999999999998,0.00018,2.9999999999999997e-05,2
6983,7192,5.9999999999999995e-05,-1e-05,-5.9999999999999995e-05,0.00022,-7e-05,0.00023999999999999998,0.00018,2.9999999999999997e-05,2
6984,7193,5.9999999999999995e-05,-1e-05,-5.9999999999999995e-05,0.00022,-7e-05,0.00023999999999999998,0.00018,2.9999999999999997e-05,2
6985,7194,5.9999999999999995e-05,-1e-05,-5.9999999999999995e-05,0.00022,-7e-05,0.00023999999999999998,0.00018,2.9999999999999997e-05,2
6986,7195,5.9999999999999995e-05,-1e-05,-5.9999999999999995e-05,0.00022,-7e-05,0.00023999999999999998,0.00018,2.9999999999999997e-05,2
6987,7196,5.9999999999999995e-05,-1e-05,-5.9999999999999995e-05,0.00022,-7e-05,0.00023999999999999998,0.00018,2.9999999999999997e-05,2
6988,7197,5.9999999999999995e-05,-1e-05,-5.9999999999999995e-05,0.00022,-7e-05,0.00023999999999999998,0.00018,2.9999999999999997e-05,2
6989,7198,5.9999999999999995e-05,-1e-05,-5.9999999999999995e-05,0.00022,-7e-05,0.00023999999999999998,0.00018,2.9999999999999997e-05,2
6990,7199,5.9999999999999995e-05,-1e-05,-5.9999999999999995e-05,0.00022,-7e-05,0.00023999999999999998,0.00018,2.9999999999999997e-05,2
6991,7200,-9e-05,-4e-05,-1e-05,0.00028,-0.00033,9e-05,-0.0005200000000000001,-0.00014,2
6992,7201,-9e-05,-4e-05,-1e-05,0.00028,-0.00033,9e-05,-0.0005200000000000001,-0.00014,2
6993,7202,-9e-05,-4e-05,-1e-05,0.00028,-0.00033,9e-05,-0.0005200000000000001,-0.00014,2
6994,7203,-9e-05,-4e-05,-1e-05,0.00028,-0.00033,9e-05,-0.0005200000000000001,-0.00014,2
6995,7204,-9e-05,-4e-05,-1e-05,0.00028,-0.00033,9e-05,-0.0005200000000000001,-0.00014,2
6996,7205,-9e-05,-4e-05,-1e-05,0.00028,-0.00033,9e-05,-0.0005200000000000001,-0.00014,2
6997,7206,-9e-05,-4e-05,-1e-05,0.00028,-0.00033,9e-05,-0.0005200000000000001,-0.00014,2
6998,7207,-9e-05,-4e-05,-1e-05,0.00028,-0.00033,9e-05,-0.0005200000000000001,-0.00014,2
6999,7208,-9e-05,-4e-05,-1e-05,0.00028,-0.00033,9e-05,-0.0005200000000000001,-0.00014,2
7000,7209,-5.9999999999999995e-05,-8e-05,-1e-05,0.00036,-0.00011,-0.00064,-2e-05,-2.9999999999999997e-05,2
7001,7210,-5.9999999999999995e-05,-8e-05,-1e-05,0.00036,-0.00011,-0.00064,-2e-05,-2.9999999999999997e-05,2
7002,7211,-5.9999999999999995e-05,-8e-05,-1e-05,0.00036,-0.00011,-0.00064,-2e-05,-2.9999999999999997e-05,2
7003,7212,-5.9999999999999995e-05,-8e-05,-1e-05,0.00036,-0.00011,-0.00064,-2e-05,-2.9999999999999997e-05,2
7004,7213,-5.9999999999999995e-05,-8e-05,-1e-05,0.00036,-0.00011,-0.00064,-2e-05,-2.9999999999999997e-05,2
7005,7214,-5.9999999999999995e-05,-8e-05,-1e-05,0.00036,-0.00011,-0.00064,-2e-05,-2.9999999999999997e-05,2
7006,7215,-5.9999999999999995e-05,-8e-05,-1e-05,0.00036,-0.00011,-0.00064,-2e-05,-2.9999999999999997e-05,2
7007,7216,-5.9999999999999995e-05,-8e-05,-1e-05,0.00036,-0.00011,-0.00064,-2e-05,-2.9999999999999997e-05,2
7008,7217,-5.9999999999999995e-05,-8e-05,-1e-05,0.00036,-0.00011,-0.00064,-2e-05,-2.9999999999999997e-05,2
7009,7218,-5.9999999999999995e-05,-8e-05,-1e-05,0.00036,-0.00011,-0.00064,-2e-05,-2.9999999999999997e-05,2
7010,7219,-5.9999999999999995e-05,-8e-05,-1e-05,0.00036,-0.00011,-0.00064,-2e-05,-2.9999999999999997e-05,2
7011,7220,-5.9999999999999995e-05,-8e-05,-1e-05,0.00036,-0.00011,-0.00064,-2e-05,-2.9999999999999997e-05,2
7012,7221,-5.9999999999999995e-05,-8e-05,-1e-05,0.00036,-0.00011,-0.00064,-2e-05,-2.9999999999999997e-05,2
7013,7222,-5.9999999999999995e-05,-8e-05,-1e-05,0.00036,-0.00011,-0.00064,-2e-05,-2.9999999999999997e-05,2
7014,7223,-5.9999999999999995e-05,-8e-05,-1e-05,0.00036,-0.00011,-0.00064,-2e-05,-2.9999999999999997e-05,2
7015,7224,0.00011,0.00011,0.00011999999999999999,0.00022999999999999998,9e-05,0.00045,0.00027,0.00011,2
7016,7225,5e-05,-2e-05,-0.00018,-0.0005,2.9999999999999997e-05,0.00062,-0.00014,0.00011,2
7017,7226,5e-05,-2e-05,-0.00018,-0.0005,2.9999999999999997e-05,0.00062,-0.00014,0.00011,2
7018,7227,5e-05,-2e-05,-0.00018,-0.0005,2.9999999999999997e-05,0.00062,-0.00014,0.00011,2
7019,7228,5e-05,-2e-05,-0.00018,-0.0005,2.9999999999999997e-05,0.00062,-0.00014,0.00011,2
7020,7229,5e-05,-2e-05,-0.00018,-0.0005,2.9999999999999997e-05,0.00062,-0.00014,0.00011,2
7021,7230,5e-05,-2e-05,-0.00018,-0.0005,2.9999999999999997e-05,0.00062,-0.00014,0.00011,2
7022,7231,5e-05,-2e-05,-0.00018,-0.0005,2.9999999999999997e-05,0.00062,-0.00014,0.00011,2
7023,7232,5e-05,-2e-05,-0.00018,-0.0005,2.9999999999999997e-05,0.00062,-0.00014,0.00011,2
7024,7233,5e-05,-2e-05,-0.00018,-0.0005,2.9999999999999997e-05,0.00062,-0.00014,0.00011,2
7025,7234,5e-05,-2e-05,-0.00018,-0.0005,2.9999999999999997e-05,0.00062,-0.00014,0.00011,2
7026,7235,5e-05,-2e-05,-0.00018,-0.0005,2.9999999999999997e-05,0.00062,-0.00014,0.00011,2
7027,7236,5e-05,-2e-05,-0.00018,-0.0005,2.9999999999999997e-05,0.00062,-0.00014,0.00011,2
7028,7238,5e-05,-2e-05,-0.00018,-0.0005,2.9999999999999997e-05,0.00062,-0.00014,0.00011,2
7029,7239,5e-05,-2e-05,-0.00018,-0.0005,2.9999999999999997e-05,0.00062,-0.00014,0.00011,2
7030,7240,5e-05,-2e-05,-0.00018,-0.0005,2.9999999999999997e-05,0.00062,-0.00014,0.00011,2
7031,7241,5e-05,-2e-05,-0.00018,-0.0005,2.9999999999999997e-05,0.00062,-0.00014,0.00011,2
7032,7242,5e-05,-2e-05,-0.00018,-0.0005,2.9999999999999997e-05,0.00062,-0.00014,0.00011,2
7033,7243,5e-05,-2e-05,-0.00018,-0.0005,2.9999999999999997e-05,0.00062,-0.00014,0.00011,2
7034,7244,5e-05,-2e-05,-0.00018,-0.0005,2.9999999999999997e-05,0.00062,-0.00014,0.00011,2
7035,7245,5e-05,-2e-05,-0.00018,-0.0005,2.9999999999999997e-05,0.00062,-0.00014,0.00011,2
7036,7246,-7e-05,-2e-05,0.0,0.00018999999999999998,-7e-05,-0.00079,-0.0005,-0.00015,2
7037,7247,-7e-05,-2e-05,0.0,0.00018999999999999998,-7e-05,-0.00079,-0.0005,-0.00015,2
7038,7248,0.0,0.0,0.00014,-0.00042,-0.00033,-0.00016,0.00025,1e-05,2
7039,7249,0.0,0.0,0.00014,-0.00042,-0.00033,-0.00016,0.00025,1e-05,2
7040,7250,0.0,0.0,0.00014,-0.00042,-0.00033,-0.00016,0.00025,1e-05,2
7041,7251,0.0,0.0,0.00014,-0.00042,-0.00033,-0.00016,0.00025,1e-05,2
7042,7252,0.0,0.0,0.00014,-0.00042,-0.00033,-0.00016,0.00025,1e-05,2
7043,7253,0.0,0.0,0.00014,-0.00042,-0.00033,-0.00016,0.00025,1e-05,2
7044,7254,0.0,0.0,0.00014,-0.00042,-0.00033,-0.00016,0.00025,1e-05,2
7045,7255,0.0,0.0,0.00014,-0.00042,-0.00033,-0.00016,0.00025,1e-05,2
7046,7256,0.0,0.0,0.00014,-0.00042,-0.00033,-0.00016,0.00025,1e-05,2
7047,7257,0.0,0.0,0.00014,-0.00042,-0.00033,-0.00016,0.00025,1e-05,2
7048,7258,0.0,0.0,0.00014,-0.00042,-0.00033,-0.00016,0.00025,1e-05,2
7049,7259,0.0,0.0,0.00014,-0.00042,-0.00033,-0.00016,0.00025,1e-05,2
7050,7260,0.00011,1e-05,1e-05,-0.00022999999999999998,-7e-05,0.0,0.00054,0.00022999999999999998,2
7051,7261,0.00011,1e-05,1e-05,-0.00022999999999999998,-7e-05,0.0,0.00054,0.00022999999999999998,2
7052,7262,0.00011,1e-05,1e-05,-0.00022999999999999998,-7e-05,0.0,0.00054,0.00022999999999999998,2
7053,7263,0.00011,1e-05,1e-05,-0.00022999999999999998,-7e-05,0.0,0.00054,0.00022999999999999998,2
7054,7264,0.00011,1e-05,1e-05,-0.00022999999999999998,-7e-05,0.0,0.00054,0.00022999999999999998,2
7055,7265,0.00011,1e-05,1e-05,-0.00022999999999999998,-7e-05,0.0,0.00054,0.00022999999999999998,2
7056,7266,0.00011,1e-05,1e-05,-0.00022999999999999998,-7e-05,0.0,0.00054,0.00022999999999999998,2
7057,7267,0.00011,1e-05,1e-05,-0.00022999999999999998,-7e-05,0.0,0.00054,0.00022999999999999998,2
7058,7268,0.00011,1e-05,1e-05,-0.00022999999999999998,-7e-05,0.0,0.00054,0.00022999999999999998,2
7059,7269,5e-05,4e-05,0.0001,0.00033999999999999997,0.00042,-0.00018999999999999998,-0.00063,-9e-05,2
7060,7270,5e-05,4e-05,0.0001,0.00033999999999999997,0.00042,-0.00018999999999999998,-0.00063,-9e-05,2
7061,7271,5e-05,4e-05,0.0001,0.00033999999999999997,0.00042,-0.00018999999999999998,-0.00063,-9e-05,2
7062,7272,5e-05,4e-05,0.0001,0.00033999999999999997,0.00042,-0.00018999999999999998,-0.00063,-9e-05,2
7063,7273,5e-05,4e-05,0.0001,0.00033999999999999997,0.00042,-0.00018999999999999998,-0.00063,-9e-05,2
7064,7274,5e-05,4e-05,0.0001,0.00033999999999999997,0.00042,-0.00018999999999999998,-0.00063,-9e-05,2
7065,7275,5e-05,4e-05,0.0001,0.00033999999999999997,0.00042,-0.00018999999999999998,-0.00063,-9e-05,2
7066,7276,5e-05,4e-05,0.0001,0.00033999999999999997,0.00042,-0.00018999999999999998,-0.00063,-9e-05,2
7067,7277,5e-05,4e-05,0.0001,0.00033999999999999997,0.00042,-0.00018999999999999998,-0.00063,-9e-05,2
7068,7278,5e-05,4e-05,0.0001,0.00033999999999999997,0.00042,-0.00018999999999999998,-0.00063,-9e-05,2
7069,7279,5e-05,4e-05,0.0001,0.00033999999999999997,0.00042,-0.00018999999999999998,-0.00063,-9e-05,2
7070,7280,5e-05,4e-05,0.0001,0.00033999999999999997,0.00042,-0.00018999999999999998,-0.00063,-9e-05,2
7071,7281,5e-05,4e-05,0.0001,0.00033999999999999997,0.00042,-0.00018999999999999998,-0.00063,-9e-05,2
7072,7282,5e-05,4e-05,0.0001,0.00033999999999999997,0.00042,-0.00018999999999999998,-0.00063,-9e-05,2
7073,7283,5e-05,4e-05,0.0001,0.00033999999999999997,0.00042,-0.00018999999999999998,-0.00063,-9e-05,2
7074,7284,-0.00015,-8e-05,-2.9999999999999997e-05,-9e-05,0.0001,-0.00013000000000000002,0.00016999999999999999,-2e-05,2
7075,7285,-1e-05,-2e-05,-5e-05,9e-05,-4e-05,0.00036,-0.00033999999999999997,-0.0001,2
7076,7286,-1e-05,-2e-05,-5e-05,9e-05,-4e-05,0.00036,-0.00033999999999999997,-0.0001,2
7077,7288,-1e-05,-2e-05,-5e-05,9e-05,-4e-05,0.00036,-0.00033999999999999997,-0.0001,2
7078,7289,-1e-05,-2e-05,-5e-05,9e-05,-4e-05,0.00036,-0.00033999999999999997,-0.0001,2
7079,7290,-1e-05,-2e-05,-5e-05,9e-05,-4e-05,0.00036,-0.00033999999999999997,-0.0001,2
7080,7291,-1e-05,-2e-05,-5e-05,9e-05,-4e-05,0.00036,-0.00033999999999999997,-0.0001,2
7081,7292,-1e-05,-2e-05,-5e-05,9e-05,-4e-05,0.00036,-0.00033999999999999997,-0.0001,2
7082,7293,-1e-05,-2e-05,-5e-05,9e-05,-4e-05,0.00036,-0.00033999999999999997,-0.0001,2
7083,7294,-1e-05,-2e-05,-5e-05,9e-05,-4e-05,0.00036,-0.00033999999999999997,-0.0001,2
7084,7295,-1e-05,-2e-05,-5e-05,9e-05,-4e-05,0.00036,-0.00033999999999999997,-0.0001,2
7085,7296,-1e-05,-2e-05,-5e-05,9e-05,-4e-05,0.00036,-0.00033999999999999997,-0.0001,2
7086,7297,-1e-05,-2e-05,-5e-05,9e-05,-4e-05,0.00036,-0.00033999999999999997,-0.0001,2
7087,7298,-1e-05,-2e-05,-5e-05,9e-05,-4e-05,0.00036,-0.00033999999999999997,-0.0001,2
7088,7299,-1e-05,-2e-05,-5e-05,9e-05,-4e-05,0.00036,-0.00033999999999999997,-0.0001,2
7089,7300,-1e-05,-2e-05,-5e-05,9e-05,-4e-05,0.00036,-0.00033999999999999997,-0.0001,2
7090,7301,-1e-05,-2e-05,-5e-05,9e-05,-4e-05,0.00036,-0.00033999999999999997,-0.0001,2
7091,7302,-1e-05,-2e-05,-5e-05,9e-05,-4e-05,0.00036,-0.00033999999999999997,-0.0001,2
7092,7303,-1e-05,-2e-05,-5e-05,9e-05,-4e-05,0.00036,-0.00033999999999999997,-0.0001,2
7093,7304,-1e-05,-2e-05,-5e-05,9e-05,-4e-05,0.00036,-0.00033999999999999997,-0.0001,2
7094,7305,-1e-05,-2e-05,-5e-05,9e-05,-4e-05,0.00036,-0.00033999999999999997,-0.0001,2
7095,7306,2.9999999999999997e-05,4e-05,4e-05,5e-05,0.0002,-0.00023999999999999998,8e-05,2.9999999999999997e-05,2
7096,7307,2.9999999999999997e-05,4e-05,4e-05,5e-05,0.0002,-0.00023999999999999998,8e-05,2.9999999999999997e-05,2
7097,7308,-8e-05,-5e-05,-0.00016999999999999999,-0.0007,0.0,2e-05,-0.00015,-4e-05,2
7098,7309,-8e-05,-5e-05,-0.00016999999999999999,-0.0007,0.0,2e-05,-0.00015,-4e-05,2
7099,7310,-8e-05,-5e-05,-0.00016999999999999999,-0.0007,0.0,2e-05,-0.00015,-4e-05,2
7100,7311,-8e-05,-5e-05,-0.00016999999999999999,-0.0007,0.0,2e-05,-0.00015,-4e-05,2
7101,7312,-8e-05,-5e-05,-0.00016999999999999999,-0.0007,0.0,2e-05,-0.00015,-4e-05,2
7102,7313,-8e-05,-5e-05,-0.00016999999999999999,-0.0007,0.0,2e-05,-0.00015,-4e-05,2
7103,7314,-8e-05,-5e-05,-0.00016999999999999999,-0.0007,0.0,2e-05,-0.00015,-4e-05,2
7104,7315,-8e-05,-5e-05,-0.00016999999999999999,-0.0007,0.0,2e-05,-0.00015,-4e-05,2
7105,7316,-8e-05,-5e-05,-0.00016999999999999999,-0.0007,0.0,2e-05,-0.00015,-4e-05,2
7106,7317,-8e-05,-5e-05,-0.00016999999999999999,-0.0007,0.0,2e-05,-0.00015,-4e-05,2
7107,7318,-8e-05,-5e-05,-0.00016999999999999999,-0.0007,0.0,2e-05,-0.00015,-4e-05,2
7108,7319,-8e-05,-5e-05,-0.00016999999999999999,-0.0007,0.0,2e-05,-0.00015,-4e-05,2
7109,7320,-2e-05,-2e-05,-5.9999999999999995e-05,0.0001,-5e-05,-0.00045,-9e-05,-7e-05,2
7110,7321,-2e-05,-2e-05,-5.9999999999999995e-05,0.0001,-5e-05,-0.00045,-9e-05,-7e-05,2
7111,7322,-2e-05,-2e-05,-5.9999999999999995e-05,0.0001,-5e-05,-0.00045,-9e-05,-7e-05,2
7112,7323,-2e-05,-2e-05,-5.9999999999999995e-05,0.0001,-5e-05,-0.00045,-9e-05,-7e-05,2
7113,7324,-2e-05,-2e-05,-5.9999999999999995e-05,0.0001,-5e-05,-0.00045,-9e-05,-7e-05,2
7114,7325,-2e-05,-2e-05,-5.9999999999999995e-05,0.0001,-5e-05,-0.00045,-9e-05,-7e-05,2
7115,7326,-2e-05,-2e-05,-5.9999999999999995e-05,0.0001,-5e-05,-0.00045,-9e-05,-7e-05,2
7116,7327,-2e-05,-2e-05,-5.9999999999999995e-05,0.0001,-5e-05,-0.00045,-9e-05,-7e-05,2
7117,7328,-2e-05,-2e-05,-5.9999999999999995e-05,0.0001,-5e-05,-0.00045,-9e-05,-7e-05,2
7118,7329,-2.9999999999999997e-05,7e-05,0.00015,0.00047000000000000004,9e-05,7e-05,-5e-05,-4e-05,2
7119,7330,-2.9999999999999997e-05,7e-05,0.00015,0.00047000000000000004,9e-05,7e-05,-5e-05,-4e-05,2
7120,7331,-2.9999999999999997e-05,7e-05,0.00015,0.00047000000000000004,9e-05,7e-05,-5e-05,-4e-05,2
7121,7332,-2.9999999999999997e-05,7e-05,0.00015,0.00047000000000000004,9e-05,7e-05,-5e-05,-4e-05,2
7122,7333,-2.9999999999999997e-05,7e-05,0.00015,0.00047000000000000004,9e-05,7e-05,-5e-05,-4e-05,2
7123,7334,-2.9999999999999997e-05,7e-05,0.00015,0.00047000000000000004,9e-05,7e-05,-5e-05,-4e-05,2
7124,7335,-2.9999999999999997e-05,7e-05,0.00015,0.00047000000000000004,9e-05,7e-05,-5e-05,-4e-05,2
7125,7336,-2.9999999999999997e-05,7e-05,0.00015,0.00047000000000000004,9e-05,7e-05,-5e-05,-4e-05,2
7126,7338,-2.9999999999999997e-05,7e-05,0.00015,0.00047000000000000004,9e-05,7e-05,-5e-05,-4e-05,2
7127,7339,-2.9999999999999997e-05,7e-05,0.00015,0.00047000000000000004,9e-05,7e-05,-5e-05,-4e-05,2
7128,7340,-2.9999999999999997e-05,7e-05,0.00015,0.00047000000000000004,9e-05,7e-05,-5e-05,-4e-05,2
7129,7341,-2.9999999999999997e-05,7e-05,0.00015,0.00047000000000000004,9e-05,7e-05,-5e-05,-4e-05,2
7130,7342,-2.9999999999999997e-05,7e-05,0.00015,0.00047000000000000004,9e-05,7e-05,-5e-05,-4e-05,2
7131,7343,-2.9999999999999997e-05,7e-05,0.00015,0.00047000000000000004,9e-05,7e-05,-5e-05,-4e-05,2
7132,7344,0.0,2e-05,0.00013000000000000002,0.00055,-0.00026000000000000003,0.0001,-0.00032,-2.9999999999999997e-05,2
7133,7345,-2.9999999999999997e-05,-1e-05,7e-05,0.00045,-0.00014,-0.00065,-0.00015,1e-05,2
7134,7346,-2.9999999999999997e-05,-1e-05,7e-05,0.00045,-0.00014,-0.00065,-0.00015,1e-05,2
7135,7347,-2.9999999999999997e-05,-1e-05,7e-05,0.00045,-0.00014,-0.00065,-0.00015,1e-05,2
7136,7348,-2.9999999999999997e-05,-1e-05,7e-05,0.00045,-0.00014,-0.00065,-0.00015,1e-05,2
7137,7349,-2.9999999999999997e-05,-1e-05,7e-05,0.00045,-0.00014,-0.00065,-0.00015,1e-05,2
7138,7350,-2.9999999999999997e-05,-1e-05,7e-05,0.00045,-0.00014,-0.00065,-0.00015,1e-05,2
7139,7351,-2.9999999999999997e-05,-1e-05,7e-05,0.00045,-0.00014,-0.00065,-0.00015,1e-05,2
7140,7352,-2.9999999999999997e-05,-1e-05,7e-05,0.00045,-0.00014,-0.00065,-0.00015,1e-05,2
7141,7353,-2.9999999999999997e-05,-1e-05,7e-05,0.00045,-0.00014,-0.00065,-0.00015,1e-05,2
7142,7354,-2.9999999999999997e-05,-1e-05,7e-05,0.00045,-0.00014,-0.00065,-0.00015,1e-05,2
7143,7355,-2.9999999999999997e-05,-1e-05,7e-05,0.00045,-0.00014,-0.00065,-0.00015,1e-05,2
7144,7356,-2.9999999999999997e-05,-1e-05,7e-05,0.00045,-0.00014,-0.00065,-0.00015,1e-05,2
7145,7357,-2.9999999999999997e-05,-1e-05,7e-05,0.00045,-0.00014,-0.00065,-0.00015,1e-05,2
7146,7358,-2.9999999999999997e-05,-1e-05,7e-05,0.00045,-0.00014,-0.00065,-0.00015,1e-05,2
7147,7359,-2.9999999999999997e-05,-1e-05,7e-05,0.00045,-0.00014,-0.00065,-0.00015,1e-05,2
7148,7360,-2.9999999999999997e-05,-1e-05,7e-05,0.00045,-0.00014,-0.00065,-0.00015,1e-05,2
7149,7361,-2.9999999999999997e-05,-1e-05,7e-05,0.00045,-0.00014,-0.00065,-0.00015,1e-05,2
7150,7362,-2.9999999999999997e-05,-1e-05,7e-05,0.00045,-0.00014,-0.00065,-0.00015,1e-05,2
7151,7363,-2.9999999999999997e-05,-1e-05,7e-05,0.00045,-0.00014,-0.00065,-0.00015,1e-05,2
7152,7364,-2.9999999999999997e-05,-1e-05,7e-05,0.00045,-0.00014,-0.00065,-0.00015,1e-05,2
7153,7365,-2.9999999999999997e-05,-1e-05,7e-05,0.00045,-0.00014,-0.00065,-0.00015,1e-05,2
7154,7366,-2e-05,-5.9999999999999995e-05,5e-05,0.00023999999999999998,-2.9999999999999997e-05,-0.00011,-1e-05,-2e-05,2
7155,7367,-2e-05,-5.9999999999999995e-05,5e-05,0.00023999999999999998,-2.9999999999999997e-05,-0.00011,-1e-05,-2e-05,2
7156,7368,0.0,-2e-05,-8e-05,0.0002,-0.00033999999999999997,0.00018,-0.0001,-8e-05,2
7157,7369,0.0,-2e-05,-8e-05,0.0002,-0.00033999999999999997,0.00018,-0.0001,-8e-05,2
7158,7370,0.0,-2e-05,-8e-05,0.0002,-0.00033999999999999997,0.00018,-0.0001,-8e-05,2
7159,7371,0.0,-2e-05,-8e-05,0.0002,-0.00033999999999999997,0.00018,-0.0001,-8e-05,2
7160,7372,0.0,-2e-05,-8e-05,0.0002,-0.00033999999999999997,0.00018,-0.0001,-8e-05,2
7161,7373,0.0,-2e-05,-8e-05,0.0002,-0.00033999999999999997,0.00018,-0.0001,-8e-05,2
7162,7374,0.0,-2e-05,-8e-05,0.0002,-0.00033999999999999997,0.00018,-0.0001,-8e-05,2
7163,7375,0.0,-2e-05,-8e-05,0.0002,-0.00033999999999999997,0.00018,-0.0001,-8e-05,2
7164,7376,0.0,-2e-05,-8e-05,0.0002,-0.00033999999999999997,0.00018,-0.0001,-8e-05,2
7165,7377,0.0,-2e-05,-8e-05,0.0002,-0.00033999999999999997,0.00018,-0.0001,-8e-05,2
7166,7378,0.0,-2e-05,-8e-05,0.0002,-0.00033999999999999997,0.00018,-0.0001,-8e-05,2
7167,7379,0.0,-2e-05,-8e-05,0.0002,-0.00033999999999999997,0.00018,-0.0001,-8e-05,2
7168,7380,0.0,-1e-05,-0.00011,-0.00044,-0.00026000000000000003,-0.00015,5.9999999999999995e-05,0.0,2
7169,7381,0.0,-1e-05,-0.00011,-0.00044,-0.00026000000000000003,-0.00015,5.9999999999999995e-05,0.0,2
7170,7382,0.0,-1e-05,-0.00011,-0.00044,-0.00026000000000000003,-0.00015,5.9999999999999995e-05,0.0,2
7171,7383,0.0,-1e-05,-0.00011,-0.00044,-0.00026000000000000003,-0.00015,5.9999999999999995e-05,0.0,2
7172,7384,0.0,-1e-05,-0.00011,-0.00044,-0.00026000000000000003,-0.00015,5.9999999999999995e-05,0.0,2
7173,7385,0.0,-1e-05,-0.00011,-0.00044,-0.00026000000000000003,-0.00015,5.9999999999999995e-05,0.0,2
7174,7386,0.0,-1e-05,-0.00011,-0.00044,-0.00026000000000000003,-0.00015,5.9999999999999995e-05,0.0,2
7175,7389,1e-05,2.9999999999999997e-05,2e-05,-8e-05,-2.9999999999999997e-05,0.00011999999999999999,0.00014,9e-05,2
7176,7390,1e-05,2.9999999999999997e-05,2e-05,-8e-05,-2.9999999999999997e-05,0.00011999999999999999,0.00014,9e-05,2
7177,7391,1e-05,2.9999999999999997e-05,2e-05,-8e-05,-2.9999999999999997e-05,0.00011999999999999999,0.00014,9e-05,2
7178,7392,1e-05,2.9999999999999997e-05,2e-05,-8e-05,-2.9999999999999997e-05,0.00011999999999999999,0.00014,9e-05,2
7179,7393,1e-05,2.9999999999999997e-05,2e-05,-8e-05,-2.9999999999999997e-05,0.00011999999999999999,0.00014,9e-05,2
7180,7394,1e-05,2.9999999999999997e-05,2e-05,-8e-05,-2.9999999999999997e-05,0.00011999999999999999,0.00014,9e-05,2
7181,7395,1e-05,2.9999999999999997e-05,2e-05,-8e-05,-2.9999999999999997e-05,0.00011999999999999999,0.00014,9e-05,2
7182,7396,1e-05,2.9999999999999997e-05,2e-05,-8e-05,-2.9999999999999997e-05,0.00011999999999999999,0.00014,9e-05,2
7183,7397,1e-05,2.9999999999999997e-05,2e-05,-8e-05,-2.9999999999999997e-05,0.00011999999999999999,0.00014,9e-05,2
7184,7398,1e-05,2.9999999999999997e-05,2e-05,-8e-05,-2.9999999999999997e-05,0.00011999999999999999,0.00014,9e-05,2
7185,7399,1e-05,2.9999999999999997e-05,2e-05,-8e-05,-2.9999999999999997e-05,0.00011999999999999999,0.00014,9e-05,2
7186,7400,1e-05,2.9999999999999997e-05,2e-05,-8e-05,-2.9999999999999997e-05,0.00011999999999999999,0.00014,9e-05,2
7187,7401,1e-05,2.9999999999999997e-05,2e-05,-8e-05,-2.9999999999999997e-05,0.00011999999999999999,0.00014,9e-05,2
7188,7402,1e-05,2.9999999999999997e-05,2e-05,-8e-05,-2.9999999999999997e-05,0.00011999999999999999,0.00014,9e-05,2
7189,7403,1e-05,2.9999999999999997e-05,2e-05,-8e-05,-2.9999999999999997e-05,0.00011999999999999999,0.00014,9e-05,2
7190,7404,4e-05,-5e-05,-0.00015,-0.00032,0.0,0.00022999999999999998,-0.00023999999999999998,-9e-05,2
7191,7405,0.0,2e-05,7e-05,2.9999999999999997e-05,1e-05,9e-05,0.00023999999999999998,4e-05,2
7192,7406,0.0,2e-05,7e-05,2.9999999999999997e-05,1e-05,9e-05,0.00023999999999999998,4e-05,2
7193,7407,0.0,2e-05,7e-05,2.9999999999999997e-05,1e-05,9e-05,0.00023999999999999998,4e-05,2
7194,7408,0.0,2e-05,7e-05,2.9999999999999997e-05,1e-05,9e-05,0.00023999999999999998,4e-05,2
7195,7409,0.0,2e-05,7e-05,2.9999999999999997e-05,1e-05,9e-05,0.00023999999999999998,4e-05,2
7196,7410,0.0,2e-05,7e-05,2.9999999999999997e-05,1e-05,9e-05,0.00023999999999999998,4e-05,2
7197,7411,0.0,2e-05,7e-05,2.9999999999999997e-05,1e-05,9e-05,0.00023999999999999998,4e-05,2
7198,7412,0.0,2e-05,7e-05,2.9999999999999997e-05,1e-05,9e-05,0.00023999999999999998,4e-05,2
7199,7413,0.0,2e-05,7e-05,2.9999999999999997e-05,1e-05,9e-05,0.00023999999999999998,4e-05,2
7200,7414,0.0,2e-05,7e-05,2.9999999999999997e-05,1e-05,9e-05,0.00023999999999999998,4e-05,2
7201,7415,0.0,2e-05,7e-05,2.9999999999999997e-05,1e-05,9e-05,0.00023999999999999998,4e-05,2
7202,7416,0.0,2e-05,7e-05,2.9999999999999997e-05,1e-05,9e-05,0.00023999999999999998,4e-05,2
7203,7417,0.0,2e-05,7e-05,2.9999999999999997e-05,1e-05,9e-05,0.00023999999999999998,4e-05,2
7204,7418,0.0,2e-05,7e-05,2.9999999999999997e-05,1e-05,9e-05,0.00023999999999999998,4e-05,2
7205,7419,0.0,2e-05,7e-05,2.9999999999999997e-05,1e-05,9e-05,0.00023999999999999998,4e-05,2
7206,7420,0.0,2e-05,7e-05,2.9999999999999997e-05,1e-05,9e-05,0.00023999999999999998,4e-05,2
7207,7421,0.0,2e-05,7e-05,2.9999999999999997e-05,1e-05,9e-05,0.00023999999999999998,4e-05,2
7208,7422,0.0,2e-05,7e-05,2.9999999999999997e-05,1e-05,9e-05,0.00023999999999999998,4e-05,2
7209,7423,0.0,2e-05,7e-05,2.9999999999999997e-05,1e-05,9e-05,0.00023999999999999998,4e-05,2
7210,7424,0.0,2e-05,7e-05,2.9999999999999997e-05,1e-05,9e-05,0.00023999999999999998,4e-05,2
7211,7425,0.0,2e-05,7e-05,2.9999999999999997e-05,1e-05,9e-05,0.00023999999999999998,4e-05,2
7212,7426,-2.9999999999999997e-05,-1e-05,-4e-05,0.00022,0.00022999999999999998,0.00086,0.00018,-1e-05,2
7213,7427,-2.9999999999999997e-05,-1e-05,-4e-05,0.00022,0.00022999999999999998,0.00086,0.00018,-1e-05,2
7214,7428,-1e-05,-2.9999999999999997e-05,2.9999999999999997e-05,0.00028,0.00032,-0.00018,0.00031,-1e-05,2
7215,7429,-1e-05,-2.9999999999999997e-05,2.9999999999999997e-05,0.00028,0.00032,-0.00018,0.00031,-1e-05,2
7216,7430,-1e-05,-2.9999999999999997e-05,2.9999999999999997e-05,0.00028,0.00032,-0.00018,0.00031,-1e-05,2
7217,7431,-1e-05,-2.9999999999999997e-05,2.9999999999999997e-05,0.00028,0.00032,-0.00018,0.00031,-1e-05,2
7218,7432,-1e-05,-2.9999999999999997e-05,2.9999999999999997e-05,0.00028,0.00032,-0.00018,0.00031,-1e-05,2
7219,7433,-1e-05,-2.9999999999999997e-05,2.9999999999999997e-05,0.00028,0.00032,-0.00018,0.00031,-1e-05,2
7220,7434,-1e-05,-2.9999999999999997e-05,2.9999999999999997e-05,0.00028,0.00032,-0.00018,0.00031,-1e-05,2
7221,7435,-1e-05,-2.9999999999999997e-05,2.9999999999999997e-05,0.00028,0.00032,-0.00018,0.00031,-1e-05,2
7222,7436,-1e-05,-2.9999999999999997e-05,2.9999999999999997e-05,0.00028,0.00032,-0.00018,0.00031,-1e-05,2
7223,7438,-1e-05,-2.9999999999999997e-05,2.9999999999999997e-05,0.00028,0.00032,-0.00018,0.00031,-1e-05,2
7224,7439,-1e-05,-2.9999999999999997e-05,2.9999999999999997e-05,0.00028,0.00032,-0.00018,0.00031,-1e-05,2
7225,7440,-1e-05,-2.9999999999999997e-05,2.9999999999999997e-05,0.00028,0.00032,-0.00018,0.00031,-1e-05,2
7226,7441,-1e-05,-2.9999999999999997e-05,2.9999999999999997e-05,0.00028,0.00032,-0.00018,0.00031,-1e-05,2
7227,7442,-1e-05,-2.9999999999999997e-05,2.9999999999999997e-05,0.00028,0.00032,-0.00018,0.00031,-1e-05,2
7228,7443,-1e-05,-2.9999999999999997e-05,2.9999999999999997e-05,0.00028,0.00032,-0.00018,0.00031,-1e-05,2
7229,7444,-1e-05,-2.9999999999999997e-05,2.9999999999999997e-05,0.00028,0.00032,-0.00018,0.00031,-1e-05,2
7230,7445,-1e-05,-2.9999999999999997e-05,2.9999999999999997e-05,0.00028,0.00032,-0.00018,0.00031,-1e-05,2
7231,7446,-1e-05,-2.9999999999999997e-05,2.9999999999999997e-05,0.00028,0.00032,-0.00018,0.00031,-1e-05,2
7232,7447,-1e-05,-2.9999999999999997e-05,2.9999999999999997e-05,0.00028,0.00032,-0.00018,0.00031,-1e-05,2
7233,7448,-1e-05,-2.9999999999999997e-05,2.9999999999999997e-05,0.00028,0.00032,-0.00018,0.00031,-1e-05,2
7234,7449,-2e-05,4e-05,9e-05,0.0001,0.00047999999999999996,0.00037,5.9999999999999995e-05,8e-05,2
7235,7450,-0.00011,-0.0001,-0.00015,-0.00047999999999999996,-0.00026000000000000003,-0.00016999999999999999,4e-05,-0.00014,2
7236,7451,-0.00011,-0.0001,-0.00015,-0.00047999999999999996,-0.00026000000000000003,-0.00016999999999999999,4e-05,-0.00014,2
7237,7452,-0.00011,-0.0001,-0.00015,-0.00047999999999999996,-0.00026000000000000003,-0.00016999999999999999,4e-05,-0.00014,2
7238,7453,-0.00011,-0.0001,-0.00015,-0.00047999999999999996,-0.00026000000000000003,-0.00016999999999999999,4e-05,-0.00014,2
7239,7454,-0.00011,-0.0001,-0.00015,-0.00047999999999999996,-0.00026000000000000003,-0.00016999999999999999,4e-05,-0.00014,2
7240,7455,-0.00011,-0.0001,-0.00015,-0.00047999999999999996,-0.00026000000000000003,-0.00016999999999999999,4e-05,-0.00014,2
7241,7456,-0.00011,-0.0001,-0.00015,-0.00047999999999999996,-0.00026000000000000003,-0.00016999999999999999,4e-05,-0.00014,2
7242,7457,-0.00011,-0.0001,-0.00015,-0.00047999999999999996,-0.00026000000000000003,-0.00016999999999999999,4e-05,-0.00014,2
7243,7458,-0.00011,-0.0001,-0.00015,-0.00047999999999999996,-0.00026000000000000003,-0.00016999999999999999,4e-05,-0.00014,2
7244,7459,-0.00011,-0.0001,-0.00015,-0.00047999999999999996,-0.00026000000000000003,-0.00016999999999999999,4e-05,-0.00014,2
7245,7460,-0.00011,-0.0001,-0.00015,-0.00047999999999999996,-0.00026000000000000003,-0.00016999999999999999,4e-05,-0.00014,2
7246,7461,-0.00011,-0.0001,-0.00015,-0.00047999999999999996,-0.00026000000000000003,-0.00016999999999999999,4e-05,-0.00014,2
7247,7462,-0.00011,-0.0001,-0.00015,-0.00047999999999999996,-0.00026000000000000003,-0.00016999999999999999,4e-05,-0.00014,2
7248,7463,-0.00011,-0.0001,-0.00015,-0.00047999999999999996,-0.00026000000000000003,-0.00016999999999999999,4e-05,-0.00014,2
7249,7464,-2e-05,-1e-05,0.0,-2e-05,-8e-05,9e-05,-0.00018,-1e-05,2
7250,7465,0.0001,2e-05,1e-05,-1e-05,-0.00016999999999999999,-0.0004,-0.00011999999999999999,-5e-05,2
7251,7466,0.0001,2e-05,1e-05,-1e-05,-0.00016999999999999999,-0.0004,-0.00011999999999999999,-5e-05,2
7252,7467,0.0001,2e-05,1e-05,-1e-05,-0.00016999999999999999,-0.0004,-0.00011999999999999999,-5e-05,2
7253,7468,0.0001,2e-05,1e-05,-1e-05,-0.00016999999999999999,-0.0004,-0.00011999999999999999,-5e-05,2
7254,7469,0.0001,2e-05,1e-05,-1e-05,-0.00016999999999999999,-0.0004,-0.00011999999999999999,-5e-05,2
7255,7470,0.0001,2e-05,1e-05,-1e-05,-0.00016999999999999999,-0.0004,-0.00011999999999999999,-5e-05,2
7256,7471,0.0001,2e-05,1e-05,-1e-05,-0.00016999999999999999,-0.0004,-0.00011999999999999999,-5e-05,2
7257,7472,0.0001,2e-05,1e-05,-1e-05,-0.00016999999999999999,-0.0004,-0.00011999999999999999,-5e-05,2
7258,7473,0.0001,2e-05,1e-05,-1e-05,-0.00016999999999999999,-0.0004,-0.00011999999999999999,-5e-05,2
7259,7474,0.0001,2e-05,1e-05,-1e-05,-0.00016999999999999999,-0.0004,-0.00011999999999999999,-5e-05,2
7260,7475,0.0001,2e-05,1e-05,-1e-05,-0.00016999999999999999,-0.0004,-0.00011999999999999999,-5e-05,2
7261,7476,0.0001,2e-05,1e-05,-1e-05,-0.00016999999999999999,-0.0004,-0.00011999999999999999,-5e-05,2
7262,7477,0.0001,2e-05,1e-05,-1e-05,-0.00016999999999999999,-0.0004,-0.00011999999999999999,-5e-05,2
7263,7478,0.0001,2e-05,1e-05,-1e-05,-0.00016999999999999999,-0.0004,-0.00011999999999999999,-5e-05,2
7264,7479,0.0001,2e-05,1e-05,-1e-05,-0.00016999999999999999,-0.0004,-0.00011999999999999999,-5e-05,2
7265,7480,0.0001,2e-05,1e-05,-1e-05,-0.00016999999999999999,-0.0004,-0.00011999999999999999,-5e-05,2
7266,7481,0.0001,2e-05,1e-05,-1e-05,-0.00016999999999999999,-0.0004,-0.00011999999999999999,-5e-05,2
7267,7482,0.0001,2e-05,1e-05,-1e-05,-0.00016999999999999999,-0.0004,-0.00011999999999999999,-5e-05,2
7268,7483,0.0001,2e-05,1e-05,-1e-05,-0.00016999999999999999,-0.0004,-0.00011999999999999999,-5e-05,2
7269,7484,0.0001,2e-05,1e-05,-1e-05,-0.00016999999999999999,-0.0004,-0.00011999999999999999,-5e-05,2
7270,7485,0.0001,2e-05,1e-05,-1e-05,-0.00016999999999999999,-0.0004,-0.00011999999999999999,-5e-05,2
7271,7486,-0.00015,-4e-05,-5.9999999999999995e-05,-0.00018,-7e-05,-4e-05,-0.0001,-0.0002,2
7272,7489,-8e-05,-2.9999999999999997e-05,-2.9999999999999997e-05,-0.00032,-0.00022,-2e-05,0.00011,-0.00011,2
7273,7490,-8e-05,-2.9999999999999997e-05,-2.9999999999999997e-05,-0.00032,-0.00022,-2e-05,0.00011,-0.00011,2
7274,7491,-8e-05,-2.9999999999999997e-05,-2.9999999999999997e-05,-0.00032,-0.00022,-2e-05,0.00011,-0.00011,2
7275,7492,-8e-05,-2.9999999999999997e-05,-2.9999999999999997e-05,-0.00032,-0.00022,-2e-05,0.00011,-0.00011,2
7276,7493,-8e-05,-2.9999999999999997e-05,-2.9999999999999997e-05,-0.00032,-0.00022,-2e-05,0.00011,-0.00011,2
7277,7494,-8e-05,-2.9999999999999997e-05,-2.9999999999999997e-05,-0.00032,-0.00022,-2e-05,0.00011,-0.00011,2
7278,7495,-8e-05,-2.9999999999999997e-05,-2.9999999999999997e-05,-0.00032,-0.00022,-2e-05,0.00011,-0.00011,2
7279,7496,-8e-05,-2.9999999999999997e-05,-2.9999999999999997e-05,-0.00032,-0.00022,-2e-05,0.00011,-0.00011,2
7280,7497,-8e-05,-2.9999999999999997e-05,-2.9999999999999997e-05,-0.00032,-0.00022,-2e-05,0.00011,-0.00011,2
7281,7498,-8e-05,-2.9999999999999997e-05,-2.9999999999999997e-05,-0.00032,-0.00022,-2e-05,0.00011,-0.00011,2
7282,7499,-8e-05,-2.9999999999999997e-05,-2.9999999999999997e-05,-0.00032,-0.00022,-2e-05,0.00011,-0.00011,2
7283,7500,0.0,2e-05,2.9999999999999997e-05,7e-05,0.00011,-5.9999999999999995e-05,0.00011,9e-05,2
7284,7501,0.0,2e-05,2.9999999999999997e-05,7e-05,0.00011,-5.9999999999999995e-05,0.00011,9e-05,2
7285,7502,0.0,2e-05,2.9999999999999997e-05,7e-05,0.00011,-5.9999999999999995e-05,0.00011,9e-05,2
7286,7503,0.0,2e-05,2.9999999999999997e-05,7e-05,0.00011,-5.9999999999999995e-05,0.00011,9e-05,2
7287,7504,0.0,2e-05,2.9999999999999997e-05,7e-05,0.00011,-5.9999999999999995e-05,0.00011,9e-05,2
7288,7505,0.0,2e-05,2.9999999999999997e-05,7e-05,0.00011,-5.9999999999999995e-05,0.00011,9e-05,2
7289,7506,0.0,2e-05,2.9999999999999997e-05,7e-05,0.00011,-5.9999999999999995e-05,0.00011,9e-05,2
7290,7507,0.0,2e-05,2.9999999999999997e-05,7e-05,0.00011,-5.9999999999999995e-05,0.00011,9e-05,2
7291,7508,0.0,2e-05,2.9999999999999997e-05,7e-05,0.00011,-5.9999999999999995e-05,0.00011,9e-05,2
7292,7509,0.0,2e-05,2.9999999999999997e-05,7e-05,0.00011,-5.9999999999999995e-05,0.00011,9e-05,2
7293,7510,0.0,2e-05,2.9999999999999997e-05,7e-05,0.00011,-5.9999999999999995e-05,0.00011,9e-05,2
7294,7511,0.0,2e-05,2.9999999999999997e-05,7e-05,0.00011,-5.9999999999999995e-05,0.00011,9e-05,2
7295,7512,0.0,2e-05,2.9999999999999997e-05,7e-05,0.00011,-5.9999999999999995e-05,0.00011,9e-05,2
7296,7513,0.0,2e-05,2.9999999999999997e-05,7e-05,0.00011,-5.9999999999999995e-05,0.00011,9e-05,2
7297,7514,0.0,2e-05,2.9999999999999997e-05,7e-05,0.00011,-5.9999999999999995e-05,0.00011,9e-05,2
7298,7515,0.0,2e-05,2.9999999999999997e-05,7e-05,0.00011,-5.9999999999999995e-05,0.00011,9e-05,2
7299,7516,2e-05,1e-05,-2e-05,0.00015,0.0003,0.0007700000000000001,-0.00074,-0.00013000000000000002,2
7300,7517,2e-05,1e-05,-2e-05,0.00015,0.0003,0.0007700000000000001,-0.00074,-0.00013000000000000002,2
7301,7518,2e-05,1e-05,-2e-05,0.00015,0.0003,0.0007700000000000001,-0.00074,-0.00013000000000000002,2
7302,7519,2e-05,1e-05,-2e-05,0.00015,0.0003,0.0007700000000000001,-0.00074,-0.00013000000000000002,2
7303,7520,2e-05,1e-05,-2e-05,0.00015,0.0003,0.0007700000000000001,-0.00074,-0.00013000000000000002,2
7304,7521,2e-05,1e-05,-2e-05,0.00015,0.0003,0.0007700000000000001,-0.00074,-0.00013000000000000002,2
7305,7522,2e-05,1e-05,-2e-05,0.00015,0.0003,0.0007700000000000001,-0.00074,-0.00013000000000000002,2
7306,7523,2e-05,1e-05,-2e-05,0.00015,0.0003,0.0007700000000000001,-0.00074,-0.00013000000000000002,2
7307,7524,0.0,-4e-05,-0.0001,-0.00028,-1e-05,0.00033,-0.00036,2.9999999999999997e-05,2
7308,7525,1e-05,-2e-05,-8e-05,-0.00029,-1e-05,4e-05,-0.00032,0.0,2
7309,7526,1e-05,-2e-05,-8e-05,-0.00029,-1e-05,4e-05,-0.00032,0.0,2
7310,7528,1e-05,-2e-05,-8e-05,-0.00029,-1e-05,4e-05,-0.00032,0.0,2
7311,7529,1e-05,-2e-05,-8e-05,-0.00029,-1e-05,4e-05,-0.00032,0.0,2
7312,7530,1e-05,-2e-05,-8e-05,-0.00029,-1e-05,4e-05,-0.00032,0.0,2
7313,7531,1e-05,-2e-05,-8e-05,-0.00029,-1e-05,4e-05,-0.00032,0.0,2
7314,7532,1e-05,-2e-05,-8e-05,-0.00029,-1e-05,4e-05,-0.00032,0.0,2
7315,7533,1e-05,-2e-05,-8e-05,-0.00029,-1e-05,4e-05,-0.00032,0.0,2
7316,7534,1e-05,-2e-05,-8e-05,-0.00029,-1e-05,4e-05,-0.00032,0.0,2
7317,7535,1e-05,-2e-05,-8e-05,-0.00029,-1e-05,4e-05,-0.00032,0.0,2
7318,7536,1e-05,-2e-05,-8e-05,-0.00029,-1e-05,4e-05,-0.00032,0.0,2
7319,7538,1e-05,-2e-05,-8e-05,-0.00029,-1e-05,4e-05,-0.00032,0.0,2
7320,7539,1e-05,-2e-05,-8e-05,-0.00029,-1e-05,4e-05,-0.00032,0.0,2
7321,7540,1e-05,-2e-05,-8e-05,-0.00029,-1e-05,4e-05,-0.00032,0.0,2
7322,7541,1e-05,-2e-05,-8e-05,-0.00029,-1e-05,4e-05,-0.00032,0.0,2
7323,7542,1e-05,-2e-05,-8e-05,-0.00029,-1e-05,4e-05,-0.00032,0.0,2
7324,7543,1e-05,-2e-05,-8e-05,-0.00029,-1e-05,4e-05,-0.00032,0.0,2
7325,7544,1e-05,-2e-05,-8e-05,-0.00029,-1e-05,4e-05,-0.00032,0.0,2
7326,7545,1e-05,-2e-05,-8e-05,-0.00029,-1e-05,4e-05,-0.00032,0.0,2
7327,7546,1e-05,-4e-05,-9e-05,-0.00016,-9e-05,-0.0006799999999999999,2e-05,1e-05,2
7328,7547,1e-05,-4e-05,-9e-05,-0.00016,-9e-05,-0.0006799999999999999,2e-05,1e-05,2
7329,7548,0.0,-4e-05,8e-05,0.0002,-0.00011,-0.00033999999999999997,0.00021,5e-05,2
7330,7549,0.0,-4e-05,8e-05,0.0002,-0.00011,-0.00033999999999999997,0.00021,5e-05,2
7331,7550,0.0,-4e-05,8e-05,0.0002,-0.00011,-0.00033999999999999997,0.00021,5e-05,2
7332,7551,0.0,-4e-05,8e-05,0.0002,-0.00011,-0.00033999999999999997,0.00021,5e-05,2
7333,7552,0.0,-4e-05,8e-05,0.0002,-0.00011,-0.00033999999999999997,0.00021,5e-05,2
7334,7553,0.0,-4e-05,8e-05,0.0002,-0.00011,-0.00033999999999999997,0.00021,5e-05,2
7335,7554,0.0,-4e-05,8e-05,0.0002,-0.00011,-0.00033999999999999997,0.00021,5e-05,2
7336,7555,0.0,-4e-05,8e-05,0.0002,-0.00011,-0.00033999999999999997,0.00021,5e-05,2
7337,7556,0.0,-4e-05,8e-05,0.0002,-0.00011,-0.00033999999999999997,0.00021,5e-05,2
7338,7557,0.0,-4e-05,8e-05,0.0002,-0.00011,-0.00033999999999999997,0.00021,5e-05,2
7339,7558,0.0,-4e-05,8e-05,0.0002,-0.00011,-0.00033999999999999997,0.00021,5e-05,2
7340,7559,0.0,-4e-05,8e-05,0.0002,-0.00011,-0.00033999999999999997,0.00021,5e-05,2
7341,7560,7e-05,4e-05,4e-05,0.00025,0.00022999999999999998,0.00016999999999999999,0.0008900000000000001,0.00018,2
7342,7561,7e-05,4e-05,4e-05,0.00025,0.00022999999999999998,0.00016999999999999999,0.0008900000000000001,0.00018,2
7343,7562,7e-05,4e-05,4e-05,0.00025,0.00022999999999999998,0.00016999999999999999,0.0008900000000000001,0.00018,2
7344,7563,7e-05,4e-05,4e-05,0.00025,0.00022999999999999998,0.00016999999999999999,0.0008900000000000001,0.00018,2
7345,7564,7e-05,4e-05,4e-05,0.00025,0.00022999999999999998,0.00016999999999999999,0.0008900000000000001,0.00018,2
7346,7565,7e-05,4e-05,4e-05,0.00025,0.00022999999999999998,0.00016999999999999999,0.0008900000000000001,0.00018,2
7347,7566,7e-05,4e-05,4e-05,0.00025,0.00022999999999999998,0.00016999999999999999,0.0008900000000000001,0.00018,2
7348,7567,7e-05,4e-05,4e-05,0.00025,0.00022999999999999998,0.00016999999999999999,0.0008900000000000001,0.00018,2
7349,7568,7e-05,4e-05,4e-05,0.00025,0.00022999999999999998,0.00016999999999999999,0.0008900000000000001,0.00018,2
7350,7569,-0.00015,-2e-05,-2e-05,-9e-05,-9e-05,2.9999999999999997e-05,-4e-05,-8e-05,2
7351,7570,-0.00015,-2e-05,-2e-05,-9e-05,-9e-05,2.9999999999999997e-05,-4e-05,-8e-05,2
7352,7571,-0.00015,-2e-05,-2e-05,-9e-05,-9e-05,2.9999999999999997e-05,-4e-05,-8e-05,2
7353,7572,-0.00015,-2e-05,-2e-05,-9e-05,-9e-05,2.9999999999999997e-05,-4e-05,-8e-05,2
7354,7573,-0.00015,-2e-05,-2e-05,-9e-05,-9e-05,2.9999999999999997e-05,-4e-05,-8e-05,2
7355,7574,-0.00015,-2e-05,-2e-05,-9e-05,-9e-05,2.9999999999999997e-05,-4e-05,-8e-05,2
7356,7575,-0.00015,-2e-05,-2e-05,-9e-05,-9e-05,2.9999999999999997e-05,-4e-05,-8e-05,2
7357,7576,-0.00015,-2e-05,-2e-05,-9e-05,-9e-05,2.9999999999999997e-05,-4e-05,-8e-05,2
7358,7577,-0.00015,-2e-05,-2e-05,-9e-05,-9e-05,2.9999999999999997e-05,-4e-05,-8e-05,2
7359,7578,-0.00015,-2e-05,-2e-05,-9e-05,-9e-05,2.9999999999999997e-05,-4e-05,-8e-05,2
7360,7579,-0.00015,-2e-05,-2e-05,-9e-05,-9e-05,2.9999999999999997e-05,-4e-05,-8e-05,2
7361,7580,-0.00015,-2e-05,-2e-05,-9e-05,-9e-05,2.9999999999999997e-05,-4e-05,-8e-05,2
7362,7581,-0.00015,-2e-05,-2e-05,-9e-05,-9e-05,2.9999999999999997e-05,-4e-05,-8e-05,2
7363,7582,-0.00015,-2e-05,-2e-05,-9e-05,-9e-05,2.9999999999999997e-05,-4e-05,-8e-05,2
7364,7583,-0.00015,-2e-05,-2e-05,-9e-05,-9e-05,2.9999999999999997e-05,-4e-05,-8e-05,2
7365,7584,-0.00015,-2e-05,-2e-05,-9e-05,-9e-05,2.9999999999999997e-05,-4e-05,-8e-05,2
7366,7585,-0.00015,-2e-05,-2e-05,-9e-05,-9e-05,2.9999999999999997e-05,-4e-05,-8e-05,2
7367,7586,-0.00015,-2e-05,-2e-05,-9e-05,-9e-05,2.9999999999999997e-05,-4e-05,-8e-05,2
7368,7588,-0.00015,-2e-05,-2e-05,-9e-05,-9e-05,2.9999999999999997e-05,-4e-05,-8e-05,2
7369,7589,-0.00015,-2e-05,-2e-05,-9e-05,-9e-05,2.9999999999999997e-05,-4e-05,-8e-05,2
7370,7590,-0.00015,-2e-05,-2e-05,-9e-05,-9e-05,2.9999999999999997e-05,-4e-05,-8e-05,2
7371,7591,0.00013000000000000002,5e-05,0.0001,2e-05,-0.00011999999999999999,5e-05,-0.0001,8e-05,2
7372,7592,0.00013000000000000002,5e-05,0.0001,2e-05,-0.00011999999999999999,5e-05,-0.0001,8e-05,2
7373,7593,0.00013000000000000002,2e-05,-2.9999999999999997e-05,5e-05,0.00015,7e-05,-0.00016,0.00011999999999999999,2
7374,7594,0.00013000000000000002,2e-05,-2.9999999999999997e-05,5e-05,0.00015,7e-05,-0.00016,0.00011999999999999999,2
7375,7595,0.00013000000000000002,2e-05,-2.9999999999999997e-05,5e-05,0.00015,7e-05,-0.00016,0.00011999999999999999,2
7376,7596,0.00013000000000000002,2e-05,-2.9999999999999997e-05,5e-05,0.00015,7e-05,-0.00016,0.00011999999999999999,2
7377,7597,0.00013000000000000002,2e-05,-2.9999999999999997e-05,5e-05,0.00015,7e-05,-0.00016,0.00011999999999999999,2
7378,7598,0.00013000000000000002,2e-05,-2.9999999999999997e-05,5e-05,0.00015,7e-05,-0.00016,0.00011999999999999999,2
7379,7599,0.00013000000000000002,2e-05,-2.9999999999999997e-05,5e-05,0.00015,7e-05,-0.00016,0.00011999999999999999,2
7380,7600,0.00013000000000000002,2e-05,-2.9999999999999997e-05,5e-05,0.00015,7e-05,-0.00016,0.00011999999999999999,2
7381,7601,0.00013000000000000002,2e-05,-2.9999999999999997e-05,5e-05,0.00015,7e-05,-0.00016,0.00011999999999999999,2
7382,7602,0.00013000000000000002,2e-05,-2.9999999999999997e-05,5e-05,0.00015,7e-05,-0.00016,0.00011999999999999999,2
7383,7603,0.00013000000000000002,2e-05,-2.9999999999999997e-05,5e-05,0.00015,7e-05,-0.00016,0.00011999999999999999,2
7384,7604,0.00013000000000000002,2e-05,-2.9999999999999997e-05,5e-05,0.00015,7e-05,-0.00016,0.00011999999999999999,2
7385,7605,0.00013000000000000002,2e-05,-2.9999999999999997e-05,5e-05,0.00015,7e-05,-0.00016,0.00011999999999999999,2
7386,7606,5e-05,5e-05,5e-05,-5e-05,-0.00016999999999999999,-0.001,-2e-05,1e-05,2
7387,7607,5e-05,5e-05,5e-05,-5e-05,-0.00016999999999999999,-0.001,-2e-05,1e-05,2
7388,7608,0.00011999999999999999,5e-05,9e-05,2e-05,0.00016,-9e-05,0.00028,0.00013000000000000002,2
7389,7609,0.00011999999999999999,5e-05,9e-05,2e-05,0.00016,-9e-05,0.00028,0.00013000000000000002,2
7390,7610,0.00011999999999999999,5e-05,9e-05,2e-05,0.00016,-9e-05,0.00028,0.00013000000000000002,2
7391,7611,0.00011999999999999999,5e-05,9e-05,2e-05,0.00016,-9e-05,0.00028,0.00013000000000000002,2
7392,7612,0.00011999999999999999,5e-05,9e-05,2e-05,0.00016,-9e-05,0.00028,0.00013000000000000002,2
7393,7613,0.00011999999999999999,5e-05,9e-05,2e-05,0.00016,-9e-05,0.00028,0.00013000000000000002,2
7394,7614,0.00011999999999999999,5e-05,9e-05,2e-05,0.00016,-9e-05,0.00028,0.00013000000000000002,2
7395,7615,0.00011999999999999999,5e-05,9e-05,2e-05,0.00016,-9e-05,0.00028,0.00013000000000000002,2
7396,7616,0.00011999999999999999,5e-05,9e-05,2e-05,0.00016,-9e-05,0.00028,0.00013000000000000002,2
7397,7617,0.00011999999999999999,5e-05,9e-05,2e-05,0.00016,-9e-05,0.00028,0.00013000000000000002,2
7398,7618,0.00011999999999999999,5e-05,9e-05,2e-05,0.00016,-9e-05,0.00028,0.00013000000000000002,2
7399,7619,0.00011999999999999999,5e-05,9e-05,2e-05,0.00016,-9e-05,0.00028,0.00013000000000000002,2
7400,7620,-2.9999999999999997e-05,-5.9999999999999995e-05,-2.9999999999999997e-05,-0.00021,-7e-05,2e-05,-0.00033,-2.9999999999999997e-05,2
7401,7621,-2.9999999999999997e-05,-5.9999999999999995e-05,-2.9999999999999997e-05,-0.00021,-7e-05,2e-05,-0.00033,-2.9999999999999997e-05,2
7402,7622,-2.9999999999999997e-05,-5.9999999999999995e-05,-2.9999999999999997e-05,-0.00021,-7e-05,2e-05,-0.00033,-2.9999999999999997e-05,2
7403,7623,-2.9999999999999997e-05,-5.9999999999999995e-05,-2.9999999999999997e-05,-0.00021,-7e-05,2e-05,-0.00033,-2.9999999999999997e-05,2
7404,7624,-2.9999999999999997e-05,-5.9999999999999995e-05,-2.9999999999999997e-05,-0.00021,-7e-05,2e-05,-0.00033,-2.9999999999999997e-05,2
7405,7625,-2.9999999999999997e-05,-5.9999999999999995e-05,-2.9999999999999997e-05,-0.00021,-7e-05,2e-05,-0.00033,-2.9999999999999997e-05,2
7406,7626,-2.9999999999999997e-05,-5.9999999999999995e-05,-2.9999999999999997e-05,-0.00021,-7e-05,2e-05,-0.00033,-2.9999999999999997e-05,2
7407,7627,-2.9999999999999997e-05,-5.9999999999999995e-05,-2.9999999999999997e-05,-0.00021,-7e-05,2e-05,-0.00033,-2.9999999999999997e-05,2
7408,7628,-2.9999999999999997e-05,-5.9999999999999995e-05,-2.9999999999999997e-05,-0.00021,-7e-05,2e-05,-0.00033,-2.9999999999999997e-05,2
7409,7629,-5.9999999999999995e-05,-4e-05,-4e-05,-1e-05,0.00021,0.00043,0.00015,-1e-05,2
7410,7630,-5.9999999999999995e-05,-4e-05,-4e-05,-1e-05,0.00021,0.00043,0.00015,-1e-05,2
7411,7631,-5.9999999999999995e-05,-4e-05,-4e-05,-1e-05,0.00021,0.00043,0.00015,-1e-05,2
7412,7632,-5.9999999999999995e-05,-4e-05,-4e-05,-1e-05,0.00021,0.00043,0.00015,-1e-05,2
7413,7633,-5.9999999999999995e-05,-4e-05,-4e-05,-1e-05,0.00021,0.00043,0.00015,-1e-05,2
7414,7634,-5.9999999999999995e-05,-4e-05,-4e-05,-1e-05,0.00021,0.00043,0.00015,-1e-05,2
7415,7635,-5.9999999999999995e-05,-4e-05,-4e-05,-1e-05,0.00021,0.00043,0.00015,-1e-05,2
7416,7636,-5.9999999999999995e-05,-4e-05,-4e-05,-1e-05,0.00021,0.00043,0.00015,-1e-05,2
7417,7638,-5.9999999999999995e-05,-4e-05,-4e-05,-1e-05,0.00021,0.00043,0.00015,-1e-05,2
7418,7639,-5.9999999999999995e-05,-4e-05,-4e-05,-1e-05,0.00021,0.00043,0.00015,-1e-05,2
7419,7640,-5.9999999999999995e-05,-4e-05,-4e-05,-1e-05,0.00021,0.00043,0.00015,-1e-05,2
7420,7641,-5.9999999999999995e-05,-4e-05,-4e-05,-1e-05,0.00021,0.00043,0.00015,-1e-05,2
7421,7642,-5.9999999999999995e-05,-4e-05,-4e-05,-1e-05,0.00021,0.00043,0.00015,-1e-05,2
7422,7643,-9e-05,-2e-05,-1e-05,-2e-05,-1e-05,0.00041,0.00015,-0.00011,2
7423,7644,-9e-05,-2e-05,-1e-05,-2e-05,-1e-05,0.00041,0.00015,-0.00011,2
7424,7645,-9e-05,-2e-05,-1e-05,-2e-05,-1e-05,0.00041,0.00015,-0.00011,2
7425,7646,-9e-05,-2e-05,-1e-05,-2e-05,-1e-05,0.00041,0.00015,-0.00011,2
7426,7647,-9e-05,-2e-05,-1e-05,-2e-05,-1e-05,0.00041,0.00015,-0.00011,2
7427,7648,-9e-05,-2e-05,-1e-05,-2e-05,-1e-05,0.00041,0.00015,-0.00011,2
7428,7649,-9e-05,-2e-05,-1e-05,-2e-05,-1e-05,0.00041,0.00015,-0.00011,2
7429,7650,-1e-05,0.0,2e-05,2.9999999999999997e-05,2e-05,1e-05,0.00049,9e-05,2
7430,7651,-1e-05,0.0,2e-05,2.9999999999999997e-05,2e-05,1e-05,0.00049,9e-05,2
7431,7652,-1e-05,0.0,2e-05,2.9999999999999997e-05,2e-05,1e-05,0.00049,9e-05,2
7432,7653,-1e-05,0.0,2e-05,2.9999999999999997e-05,2e-05,1e-05,0.00049,9e-05,2
7433,7654,-1e-05,0.0,2e-05,2.9999999999999997e-05,2e-05,1e-05,0.00049,9e-05,2
7434,7655,-1e-05,0.0,2e-05,2.9999999999999997e-05,2e-05,1e-05,0.00049,9e-05,2
7435,7656,-1e-05,0.0,2e-05,2.9999999999999997e-05,2e-05,1e-05,0.00049,9e-05,2
7436,7657,-1e-05,0.0,2e-05,2.9999999999999997e-05,2e-05,1e-05,0.00049,9e-05,2
7437,7658,-1e-05,0.0,2e-05,2.9999999999999997e-05,2e-05,1e-05,0.00049,9e-05,2
7438,7659,-1e-05,0.0,2e-05,2.9999999999999997e-05,2e-05,1e-05,0.00049,9e-05,2
7439,7660,-1e-05,0.0,2e-05,2.9999999999999997e-05,2e-05,1e-05,0.00049,9e-05,2
7440,7661,-1e-05,0.0,2e-05,2.9999999999999997e-05,2e-05,1e-05,0.00049,9e-05,2
7441,7662,-1e-05,0.0,2e-05,2.9999999999999997e-05,2e-05,1e-05,0.00049,9e-05,2
7442,7663,-1e-05,0.0,2e-05,2.9999999999999997e-05,2e-05,1e-05,0.00049,9e-05,2
7443,7664,-1e-05,0.0,2e-05,2.9999999999999997e-05,2e-05,1e-05,0.00049,9e-05,2
7444,7665,-1e-05,0.0,2e-05,2.9999999999999997e-05,2e-05,1e-05,0.00049,9e-05,2
7445,7666,8e-05,2.9999999999999997e-05,-2e-05,7e-05,0.00027,0.00029,0.00023999999999999998,5e-05,2
7446,7667,8e-05,2.9999999999999997e-05,-2e-05,7e-05,0.00027,0.00029,0.00023999999999999998,5e-05,2
7447,7668,2e-05,-4e-05,-7e-05,0.00011,-0.00033,0.00042,-0.00045999999999999996,-7e-05,2
7448,7669,2e-05,-4e-05,-7e-05,0.00011,-0.00033,0.00042,-0.00045999999999999996,-7e-05,2
7449,7670,2e-05,-4e-05,-7e-05,0.00011,-0.00033,0.00042,-0.00045999999999999996,-7e-05,2
7450,7671,2e-05,-4e-05,-7e-05,0.00011,-0.00033,0.00042,-0.00045999999999999996,-7e-05,2
7451,7672,2e-05,-4e-05,-7e-05,0.00011,-0.00033,0.00042,-0.00045999999999999996,-7e-05,2
7452,7673,2e-05,-4e-05,-7e-05,0.00011,-0.00033,0.00042,-0.00045999999999999996,-7e-05,2
7453,7674,2e-05,-4e-05,-7e-05,0.00011,-0.00033,0.00042,-0.00045999999999999996,-7e-05,2
7454,7675,2e-05,-4e-05,-7e-05,0.00011,-0.00033,0.00042,-0.00045999999999999996,-7e-05,2
7455,7676,2e-05,-4e-05,-7e-05,0.00011,-0.00033,0.00042,-0.00045999999999999996,-7e-05,2
7456,7677,2e-05,-4e-05,-7e-05,0.00011,-0.00033,0.00042,-0.00045999999999999996,-7e-05,2
7457,7678,2e-05,-4e-05,-7e-05,0.00011,-0.00033,0.00042,-0.00045999999999999996,-7e-05,2
7458,7679,2e-05,-4e-05,-7e-05,0.00011,-0.00033,0.00042,-0.00045999999999999996,-7e-05,2
7459,7680,2e-05,-4e-05,-7e-05,0.00011,-0.00033,0.00042,-0.00045999999999999996,-7e-05,2
7460,7681,2e-05,-4e-05,-7e-05,0.00011,-0.00033,0.00042,-0.00045999999999999996,-7e-05,2
7461,7682,2e-05,-4e-05,-7e-05,0.00011,-0.00033,0.00042,-0.00045999999999999996,-7e-05,2
7462,7683,2e-05,-4e-05,-7e-05,0.00011,-0.00033,0.00042,-0.00045999999999999996,-7e-05,2
7463,7684,2e-05,-4e-05,-7e-05,0.00011,-0.00033,0.00042,-0.00045999999999999996,-7e-05,2
7464,7685,2e-05,-4e-05,-7e-05,0.00011,-0.00033,0.00042,-0.00045999999999999996,-7e-05,2
7465,7686,2e-05,-4e-05,-7e-05,0.00011,-0.00033,0.00042,-0.00045999999999999996,-7e-05,2
7466,7688,2e-05,-4e-05,-7e-05,0.00011,-0.00033,0.00042,-0.00045999999999999996,-7e-05,2
7467,7689,-7e-05,-2.9999999999999997e-05,-2.9999999999999997e-05,-0.00027,-0.00023999999999999998,-0.00047999999999999996,5.9999999999999995e-05,-8e-05,2
7468,7690,-0.00015,-5e-05,-9e-05,-2e-05,5e-05,-0.00016,-5.9999999999999995e-05,-7e-05,2
7469,7691,-0.00015,-5e-05,-9e-05,-2e-05,5e-05,-0.00016,-5.9999999999999995e-05,-7e-05,2
7470,7692,-0.00015,-5e-05,-9e-05,-2e-05,5e-05,-0.00016,-5.9999999999999995e-05,-7e-05,2
7471,7693,-0.00015,-5e-05,-9e-05,-2e-05,5e-05,-0.00016,-5.9999999999999995e-05,-7e-05,2
7472,7694,-0.00015,-5e-05,-9e-05,-2e-05,5e-05,-0.00016,-5.9999999999999995e-05,-7e-05,2
7473,7695,-0.00015,-5e-05,-9e-05,-2e-05,5e-05,-0.00016,-5.9999999999999995e-05,-7e-05,2
7474,7696,-0.00015,-5e-05,-9e-05,-2e-05,5e-05,-0.00016,-5.9999999999999995e-05,-7e-05,2
