,time,channel1,channel2,channel3,channel4,channel5,channel6,channel7,channel8,class
4721,4848,0.0008,0.00013000000000000002,0.00016,5.9999999999999995e-05,0.00026000000000000003,-0.00026000000000000003,0.00042,0.0010199999999999999,2
4722,4849,0.0008,0.00013000000000000002,0.00016,5.9999999999999995e-05,0.00026000000000000003,-0.00026000000000000003,0.00042,0.0010199999999999999,2
4723,4850,0.0008,0.00013000000000000002,0.00016,5.9999999999999995e-05,0.00026000000000000003,-0.00026000000000000003,0.00042,0.0010199999999999999,2
4724,4851,-0.00018,-0.00014,-0.00047999999999999996,-0.00072,0.00033999999999999997,0.00082,0.00063,-0.00025,2
4725,4852,-0.00018,-0.00014,-0.00047999999999999996,-0.00072,0.00033999999999999997,0.00082,0.00063,-0.00025,2
4726,4854,-0.00018,-0.00014,-0.00047999999999999996,-0.00072,0.00033999999999999997,0.00082,0.00063,-0.00025,2
4727,4855,-0.00018,-0.00014,-0.00047999999999999996,-0.00072,0.00033999999999999997,0.00082,0.00063,-0.00025,2
4728,4856,-0.00018,-0.00014,-0.00047999999999999996,-0.00072,0.00033999999999999997,0.00082,0.00063,-0.00025,2
4729,4857,-0.00018,-0.00014,-0.00047999999999999996,-0.00072,0.00033999999999999997,0.00082,0.00063,-0.00025,2
4730,4858,-0.00018,-0.00014,-0.00047999999999999996,-0.00072,0.00033999999999999997,0.00082,0.00063,-0.00025,2
4731,4859,-0.00018,-0.00014,-0.00047999999999999996,-0.00072,0.00033999999999999997,0.00082,0.00063,-0.00025,2
4732,4860,-0.00018,-0.00014,-0.00047999999999999996,-0.00072,0.00033999999999999997,0.00082,0.00063,-0.00025,2
4733,4861,-0.00018,-0.00014,-0.00047999999999999996,-0.00072,0.00033999999999999997,0.00082,0.00063,-0.00025,2
4734,4862,-0.00018,-0.00014,-0.00047999999999999996,-0.00072,0.00033999999999999997,0.00082,0.00063,-0.00025,2
4735,4863,-0.00018,-0.00014,-0.00047999999999999996,-0.00072,0.00033999999999999997,0.00082,0.00063,-0.00025,2
4736,4864,-0.00018,-0.00014,-0.00047999999999999996,-0.00072,0.00033999999999999997,0.00082,0.00063,-0.00025,2
4737,4865,-0.00018,-0.00014,-0.00047999999999999996,-0.00072,0.00033999999999999997,0.00082,0.00063,-0.00025,2
4738,4866,-0.00018,-0.00014,-0.00047999999999999996,-0.00072,0.00033999999999999997,0.00082,0.00063,-0.00025,2
4739,4867,-0.00018,-0.00014,-0.00047999999999999996,-0.00072,0.00033999999999999997,0.00082,0.00063,-0.00025,2
4740,4868,-0.00057,-9e-05,-8e-05,-0.00084,-5.9999999999999995e-05,-0.0007099999999999999,-0.00022,0.00044,2
4741,4869,-0.00032,-0.00011,-0.00018999999999999998,-0.00061,-0.00054,-0.0005200000000000001,9e-05,-0.00022999999999999998,2
4742,4870,-0.00032,-0.00011,-0.00018999999999999998,-0.00061,-0.00054,-0.0005200000000000001,9e-05,-0.00022999999999999998,2
4743,4871,-0.00032,-0.00011,-0.00018999999999999998,-0.00061,-0.00054,-0.0005200000000000001,9e-05,-0.00022999999999999998,2
4744,4872,-0.00032,-0.00011,-0.00018999999999999998,-0.00061,-0.00054,-0.0005200000000000001,9e-05,-0.00022999999999999998,2
4745,4873,-0.00032,-0.00011,-0.00018999999999999998,-0.00061,-0.00054,-0.0005200000000000001,9e-05,-0.00022999999999999998,2
4746,4874,-0.00032,-0.00011,-0.00018999999999999998,-0.00061,-0.00054,-0.0005200000000000001,9e-05,-0.00022999999999999998,2
4747,4875,-0.00032,-0.00011,-0.00018999999999999998,-0.00061,-0.00054,-0.0005200000000000001,9e-05,-0.00022999999999999998,2
4748,4876,-0.00032,-0.00011,-0.00018999999999999998,-0.00061,-0.00054,-0.0005200000000000001,9e-05,-0.00022999999999999998,2
4749,4877,-0.00032,-0.00011,-0.00018999999999999998,-0.00061,-0.00054,-0.0005200000000000001,9e-05,-0.00022999999999999998,2
4750,4878,-0.00032,-0.00011,-0.00018999999999999998,-0.00061,-0.00054,-0.0005200000000000001,9e-05,-0.00022999999999999998,2
4751,4879,-0.00032,-0.00011,-0.00018999999999999998,-0.00061,-0.00054,-0.0005200000000000001,9e-05,-0.00022999999999999998,2
4752,4880,-0.00032,-0.00011,-0.00018999999999999998,-0.00061,-0.00054,-0.0005200000000000001,9e-05,-0.00022999999999999998,2
4753,4881,-0.00032,-0.00011,-0.00018999999999999998,-0.00061,-0.00054,-0.0005200000000000001,9e-05,-0.00022999999999999998,2
4754,4882,-0.00032,-0.00011,-0.00018999999999999998,-0.00061,-0.00054,-0.0005200000000000001,9e-05,-0.00022999999999999998,2
4755,4883,-0.00032,-0.00011,-0.00018999999999999998,-0.00061,-0.00054,-0.0005200000000000001,9e-05,-0.00022999999999999998,2
4756,4884,-0.00032,-0.00011,-0.00018999999999999998,-0.00061,-0.00054,-0.0005200000000000001,9e-05,-0.00022999999999999998,2
4757,4885,-0.00032,-0.00011,-0.00018999999999999998,-0.00061,-0.00054,-0.0005200000000000001,9e-05,-0.00022999999999999998,2
4758,4886,-0.00032,-0.00011,-0.00018999999999999998,-0.00061,-0.00054,-0.0005200000000000001,9e-05,-0.00022999999999999998,2
4759,4887,-0.00032,-0.00011,-0.00018999999999999998,-0.00061,-0.00054,-0.0005200000000000001,9e-05,-0.00022999999999999998,2
4760,4888,-0.00032,-0.00011,-0.00018999999999999998,-0.00061,-0.00054,-0.0005200000000000001,9e-05,-0.00022999999999999998,2
4761,4889,-0.00032,-0.00011,-0.00018999999999999998,-0.00061,-0.00054,-0.0005200000000000001,9e-05,-0.00022999999999999998,2
4762,4890,0.00022,0.0001,0.00014,-0.00026000000000000003,0.00036,0.0009,0.00056,-0.00055,2
4763,4891,0.00022,0.0001,0.00014,-0.00026000000000000003,0.00036,0.0009,0.00056,-0.00055,2
4764,4892,-0.00029,-0.00022,-9e-05,-0.00042,-5e-05,-0.00023999999999999998,-0.0005099999999999999,-0.00058,2
4765,4893,-0.00029,-0.00022,-9e-05,-0.00042,-5e-05,-0.00023999999999999998,-0.0005099999999999999,-0.00058,2
4766,4894,-0.00029,-0.00022,-9e-05,-0.00042,-5e-05,-0.00023999999999999998,-0.0005099999999999999,-0.00058,2
4767,4895,-0.00029,-0.00022,-9e-05,-0.00042,-5e-05,-0.00023999999999999998,-0.0005099999999999999,-0.00058,2
4768,4896,-0.00029,-0.00022,-9e-05,-0.00042,-5e-05,-0.00023999999999999998,-0.0005099999999999999,-0.00058,2
4769,4897,-0.00029,-0.00022,-9e-05,-0.00042,-5e-05,-0.00023999999999999998,-0.0005099999999999999,-0.00058,2
4770,4898,-0.00029,-0.00022,-9e-05,-0.00042,-5e-05,-0.00023999999999999998,-0.0005099999999999999,-0.00058,2
4771,4899,-0.00029,-0.00022,-9e-05,-0.00042,-5e-05,-0.00023999999999999998,-0.0005099999999999999,-0.00058,2
4772,4901,-0.00029,-0.00022,-9e-05,-0.00042,-5e-05,-0.00023999999999999998,-0.0005099999999999999,-0.00058,2
4773,4902,-0.00029,-0.00022,-9e-05,-0.00042,-5e-05,-0.00023999999999999998,-0.0005099999999999999,-0.00058,2
4774,4903,-0.00029,-0.00022,-9e-05,-0.00042,-5e-05,-0.00023999999999999998,-0.0005099999999999999,-0.00058,2
4775,4904,-0.00029,-0.00022,-9e-05,-0.00042,-5e-05,-0.00023999999999999998,-0.0005099999999999999,-0.00058,2
4776,4905,-0.00026000000000000003,-2.9999999999999997e-05,-0.0004,-0.00053,-4e-05,-0.00029,-0.00015,-0.00037999999999999997,2
4777,4906,-0.00026000000000000003,-2.9999999999999997e-05,-0.0004,-0.00053,-4e-05,-0.00029,-0.00015,-0.00037999999999999997,2
4778,4907,-0.00026000000000000003,-2.9999999999999997e-05,-0.0004,-0.00053,-4e-05,-0.00029,-0.00015,-0.00037999999999999997,2
4779,4908,-0.00026000000000000003,-2.9999999999999997e-05,-0.0004,-0.00053,-4e-05,-0.00029,-0.00015,-0.00037999999999999997,2
4780,4909,-0.00026000000000000003,-2.9999999999999997e-05,-0.0004,-0.00053,-4e-05,-0.00029,-0.00015,-0.00037999999999999997,2
4781,4912,0.00033999999999999997,0.00021,5e-05,0.00043,0.00022999999999999998,0.0006,0.0010199999999999999,-1e-05,2
4782,4913,0.00033999999999999997,0.00021,5e-05,0.00043,0.00022999999999999998,0.0006,0.0010199999999999999,-1e-05,2
4783,4914,0.00033999999999999997,0.00021,5e-05,0.00043,0.00022999999999999998,0.0006,0.0010199999999999999,-1e-05,2
4784,4915,0.00033999999999999997,0.00021,5e-05,0.00043,0.00022999999999999998,0.0006,0.0010199999999999999,-1e-05,2
4785,4916,0.00033999999999999997,0.00021,5e-05,0.00043,0.00022999999999999998,0.0006,0.0010199999999999999,-1e-05,2
4786,4917,0.00033999999999999997,0.00021,5e-05,0.00043,0.00022999999999999998,0.0006,0.0010199999999999999,-1e-05,2
4787,4918,0.00033999999999999997,0.00021,5e-05,0.00043,0.00022999999999999998,0.0006,0.0010199999999999999,-1e-05,2
4788,4919,0.00033999999999999997,0.00021,5e-05,0.00043,0.00022999999999999998,0.0006,0.0010199999999999999,-1e-05,2
4789,4920,0.00033999999999999997,0.00021,5e-05,0.00043,0.00022999999999999998,0.0006,0.0010199999999999999,-1e-05,2
4790,4921,0.00033999999999999997,0.00021,5e-05,0.00043,0.00022999999999999998,0.0006,0.0010199999999999999,-1e-05,2
4791,4922,0.00033999999999999997,0.00021,5e-05,0.00043,0.00022999999999999998,0.0006,0.0010199999999999999,-1e-05,2
4792,4923,0.00033999999999999997,0.00021,5e-05,0.00043,0.00022999999999999998,0.0006,0.0010199999999999999,-1e-05,2
4793,4924,0.00033999999999999997,0.00021,5e-05,0.00043,0.00022999999999999998,0.0006,0.0010199999999999999,-1e-05,2
4794,4925,0.00033999999999999997,0.00021,5e-05,0.00043,0.00022999999999999998,0.0006,0.0010199999999999999,-1e-05,2
4795,4926,0.00033999999999999997,0.00021,5e-05,0.00043,0.00022999999999999998,0.0006,0.0010199999999999999,-1e-05,2
4796,4927,0.00033999999999999997,0.00021,5e-05,0.00043,0.00022999999999999998,0.0006,0.0010199999999999999,-1e-05,2
4797,4928,0.00033999999999999997,0.00021,5e-05,0.00043,0.00022999999999999998,0.0006,0.0010199999999999999,-1e-05,2
4798,4929,-0.0001,-0.00032,0.00036,0.00082,0.00043,-0.00031,-0.00053,0.00073,2
4799,4930,-0.0001,-0.00032,0.00036,0.00082,0.00043,-0.00031,-0.00053,0.00073,2
4800,4931,-0.0001,-0.00032,0.00036,0.00082,0.00043,-0.00031,-0.00053,0.00073,2
4801,4932,-0.0001,-0.00032,0.00036,0.00082,0.00043,-0.00031,-0.00053,0.00073,2
4802,4933,-0.0001,-0.00032,0.00036,0.00082,0.00043,-0.00031,-0.00053,0.00073,2
4803,4934,-0.0001,-0.00032,0.00036,0.00082,0.00043,-0.00031,-0.00053,0.00073,2
4804,4935,-0.0001,-0.00032,0.00036,0.00082,0.00043,-0.00031,-0.00053,0.00073,2
4805,4936,-0.0001,-0.00032,0.00036,0.00082,0.00043,-0.00031,-0.00053,0.00073,2
4806,4937,-0.0001,-0.00032,0.00036,0.00082,0.00043,-0.00031,-0.00053,0.00073,2
4807,4938,-0.0001,-0.00032,0.00036,0.00082,0.00043,-0.00031,-0.00053,0.00073,2
4808,4939,-0.0001,-0.00032,0.00036,0.00082,0.00043,-0.00031,-0.00053,0.00073,2
4809,4940,-0.0001,-0.00032,0.00036,0.00082,0.00043,-0.00031,-0.00053,0.00073,2
4810,4941,-0.0001,-0.00032,0.00036,0.00082,0.00043,-0.00031,-0.00053,0.00073,2
4811,4942,-0.0001,-0.00032,0.00036,0.00082,0.00043,-0.00031,-0.00053,0.00073,2
4812,4943,-0.0001,-0.00032,0.00036,0.00082,0.00043,-0.00031,-0.00053,0.00073,2
4813,4944,-0.0001,-0.00032,0.00036,0.00082,0.00043,-0.00031,-0.00053,0.00073,2
4814,4945,-0.0001,-0.00032,0.00036,0.00082,0.00043,-0.00031,-0.00053,0.00073,2
4815,4947,-0.0001,-0.00032,0.00036,0.00082,0.00043,-0.00031,-0.00053,0.00073,2
4816,4948,-0.0001,-0.00032,0.00036,0.00082,0.00043,-0.00031,-0.00053,0.00073,2
4817,4949,-0.0001,-0.00032,0.00036,0.00082,0.00043,-0.00031,-0.00053,0.00073,2
4818,4950,0.00013000000000000002,9e-05,0.00033999999999999997,0.00063,0.00031,0.0008699999999999999,0.00055,0.0005,2
4819,4951,0.00013000000000000002,9e-05,0.00033999999999999997,0.00063,0.00031,0.0008699999999999999,0.00055,0.0005,2
4820,4952,-0.00055,-5e-05,0.00021,0.00098,0.0,-0.00053,0.0001,-0.00033999999999999997,2
4821,4953,-0.00055,-5e-05,0.00021,0.00098,0.0,-0.00053,0.0001,-0.00033999999999999997,2
4822,4954,-0.00055,-5e-05,0.00021,0.00098,0.0,-0.00053,0.0001,-0.00033999999999999997,2
4823,4955,-0.00055,-5e-05,0.00021,0.00098,0.0,-0.00053,0.0001,-0.00033999999999999997,2
4824,4956,-0.00055,-5e-05,0.00021,0.00098,0.0,-0.00053,0.0001,-0.00033999999999999997,2
4825,4957,-0.00055,-5e-05,0.00021,0.00098,0.0,-0.00053,0.0001,-0.00033999999999999997,2
4826,4958,-0.00055,-5e-05,0.00021,0.00098,0.0,-0.00053,0.0001,-0.00033999999999999997,2
4827,4959,-0.00055,-5e-05,0.00021,0.00098,0.0,-0.00053,0.0001,-0.00033999999999999997,2
4828,4960,-0.00055,-5e-05,0.00021,0.00098,0.0,-0.00053,0.0001,-0.00033999999999999997,2
4829,4961,-0.00055,-5e-05,0.00021,0.00098,0.0,-0.00053,0.0001,-0.00033999999999999997,2
4830,4962,-0.00055,-5e-05,0.00021,0.00098,0.0,-0.00053,0.0001,-0.00033999999999999997,2
4831,4963,-0.00055,-5e-05,0.00021,0.00098,0.0,-0.00053,0.0001,-0.00033999999999999997,2
4832,4964,-0.00055,-5e-05,0.00021,0.00098,0.0,-0.00053,0.0001,-0.00033999999999999997,2
4833,4965,0.00018,-0.00047999999999999996,-0.00084,-0.00033,-0.00058,-0.0004,-0.00044,0.0003,2
4834,4966,0.00018,-0.00047999999999999996,-0.00084,-0.00033,-0.00058,-0.0004,-0.00044,0.0003,2
4835,4967,0.00018,-0.00047999999999999996,-0.00084,-0.00033,-0.00058,-0.0004,-0.00044,0.0003,2
4836,4968,0.00018,-0.00047999999999999996,-0.00084,-0.00033,-0.00058,-0.0004,-0.00044,0.0003,2
4837,4969,0.00018,-0.00047999999999999996,-0.00084,-0.00033,-0.00058,-0.0004,-0.00044,0.0003,2
4838,4970,0.00018,-0.00047999999999999996,-0.00084,-0.00033,-0.00058,-0.0004,-0.00044,0.0003,2
4839,4971,0.00014,-1e-05,-0.00056,-0.00043,0.00026000000000000003,1e-05,5.9999999999999995e-05,-0.00086,2
4840,4972,0.00014,-1e-05,-0.00056,-0.00043,0.00026000000000000003,1e-05,5.9999999999999995e-05,-0.00086,2
4841,4973,0.00014,-1e-05,-0.00056,-0.00043,0.00026000000000000003,1e-05,5.9999999999999995e-05,-0.00086,2
4842,4974,0.00014,-1e-05,-0.00056,-0.00043,0.00026000000000000003,1e-05,5.9999999999999995e-05,-0.00086,2
4843,4975,0.00014,-1e-05,-0.00056,-0.00043,0.00026000000000000003,1e-05,5.9999999999999995e-05,-0.00086,2
4844,4976,0.00014,-1e-05,-0.00056,-0.00043,0.00026000000000000003,1e-05,5.9999999999999995e-05,-0.00086,2
4845,4977,0.00014,-1e-05,-0.00056,-0.00043,0.00026000000000000003,1e-05,5.9999999999999995e-05,-0.00086,2
4846,4978,0.00014,-1e-05,-0.00056,-0.00043,0.00026000000000000003,1e-05,5.9999999999999995e-05,-0.00086,2
4847,4979,0.00014,-1e-05,-0.00056,-0.00043,0.00026000000000000003,1e-05,5.9999999999999995e-05,-0.00086,2
4848,4980,0.00014,-1e-05,-0.00056,-0.00043,0.00026000000000000003,1e-05,5.9999999999999995e-05,-0.00086,2
4849,4981,0.00014,-1e-05,-0.00056,-0.00043,0.00026000000000000003,1e-05,5.9999999999999995e-05,-0.00086,2
4850,4982,0.00014,-1e-05,-0.00056,-0.00043,0.00026000000000000003,1e-05,5.9999999999999995e-05,-0.00086,2
4851,4983,0.00014,-1e-05,-0.00056,-0.00043,0.00026000000000000003,1e-05,5.9999999999999995e-05,-0.00086,2
4852,4984,0.00014,-1e-05,-0.00056,-0.00043,0.00026000000000000003,1e-05,5.9999999999999995e-05,-0.00086,2
4853,4985,0.00014,-1e-05,-0.00056,-0.00043,0.00026000000000000003,1e-05,5.9999999999999995e-05,-0.00086,2
4854,4986,0.00014,-1e-05,-0.00056,-0.00043,0.00026000000000000003,1e-05,5.9999999999999995e-05,-0.00086,2
4855,4987,0.00014,-1e-05,-0.00056,-0.00043,0.00026000000000000003,1e-05,5.9999999999999995e-05,-0.00086,2
4856,4988,0.00045999999999999996,-1e-05,5.9999999999999995e-05,-0.00028,0.0,-5.9999999999999995e-05,-0.00033,0.00016999999999999999,2
4857,4989,0.00037,9e-05,9e-05,-0.00022,-4e-05,-0.00054,0.00021,4e-05,2
4858,4990,0.00037,9e-05,9e-05,-0.00022,-4e-05,-0.00054,0.00021,4e-05,2
4859,4991,0.00037,9e-05,9e-05,-0.00022,-4e-05,-0.00054,0.00021,4e-05,2
4860,4992,0.00037,9e-05,9e-05,-0.00022,-4e-05,-0.00054,0.00021,4e-05,2
4861,4993,0.00037,9e-05,9e-05,-0.00022,-4e-05,-0.00054,0.00021,4e-05,2
4862,4996,0.00037,9e-05,9e-05,-0.00022,-4e-05,-0.00054,0.00021,4e-05,2
4863,4997,0.00037,9e-05,9e-05,-0.00022,-4e-05,-0.00054,0.00021,4e-05,2
4864,4998,0.00037,9e-05,9e-05,-0.00022,-4e-05,-0.00054,0.00021,4e-05,2
4865,4999,0.00037,9e-05,9e-05,-0.00022,-4e-05,-0.00054,0.00021,4e-05,2
4866,5000,0.00037,9e-05,9e-05,-0.00022,-4e-05,-0.00054,0.00021,4e-05,2
4867,5001,0.00037,9e-05,9e-05,-0.00022,-4e-05,-0.00054,0.00021,4e-05,2
4868,5002,0.00037,9e-05,9e-05,-0.00022,-4e-05,-0.00054,0.00021,4e-05,2
4869,5003,0.00037,9e-05,9e-05,-0.00022,-4e-05,-0.00054,0.00021,4e-05,2
4870,5004,0.00037,9e-05,9e-05,-0.00022,-4e-05,-0.00054,0.00021,4e-05,2
4871,5005,0.00037,9e-05,9e-05,-0.00022,-4e-05,-0.00054,0.00021,4e-05,2
4872,5006,0.00037,9e-05,9e-05,-0.00022,-4e-05,-0.00054,0.00021,4e-05,2
4873,5007,0.00037,9e-05,9e-05,-0.00022,-4e-05,-0.00054,0.00021,4e-05,2
4874,5008,0.00037,9e-05,9e-05,-0.00022,-4e-05,-0.00054,0.00021,4e-05,2
4875,5009,0.00037,9e-05,9e-05,-0.00022,-4e-05,-0.00054,0.00021,4e-05,2
4876,5010,-0.00033,1e-05,-0.00041,0.00029,0.00073,0.00013000000000000002,-0.00033,-0.00022,2
4877,5011,-0.00033,1e-05,-0.00041,0.00029,0.00073,0.00013000000000000002,-0.00033,-0.00022,2
4878,5012,7e-05,-2e-05,0.00045,0.0004,-9e-05,-2e-05,0.00041,0.00018999999999999998,2
4879,5013,7e-05,-2e-05,0.00045,0.0004,-9e-05,-2e-05,0.00041,0.00018999999999999998,2
4880,5014,7e-05,-2e-05,0.00045,0.0004,-9e-05,-2e-05,0.00041,0.00018999999999999998,2
4881,5015,7e-05,-2e-05,0.00045,0.0004,-9e-05,-2e-05,0.00041,0.00018999999999999998,2
4882,5016,7e-05,-2e-05,0.00045,0.0004,-9e-05,-2e-05,0.00041,0.00018999999999999998,2
4883,5017,7e-05,-2e-05,0.00045,0.0004,-9e-05,-2e-05,0.00041,0.00018999999999999998,2
4884,5018,7e-05,-2e-05,0.00045,0.0004,-9e-05,-2e-05,0.00041,0.00018999999999999998,2
4885,5019,7e-05,-2e-05,0.00045,0.0004,-9e-05,-2e-05,0.00041,0.00018999999999999998,2
4886,5020,7e-05,-2e-05,0.00045,0.0004,-9e-05,-2e-05,0.00041,0.00018999999999999998,2
4887,5021,7e-05,-2e-05,0.00045,0.0004,-9e-05,-2e-05,0.00041,0.00018999999999999998,2
4888,5022,7e-05,-2e-05,0.00045,0.0004,-9e-05,-2e-05,0.00041,0.00018999999999999998,2
4889,5023,7e-05,-2e-05,0.00045,0.0004,-9e-05,-2e-05,0.00041,0.00018999999999999998,2
4890,5024,7e-05,-2e-05,0.00045,0.0004,-9e-05,-2e-05,0.00041,0.00018999999999999998,2
4891,5025,0.00032,0.00016,0.0008300000000000001,0.0012699999999999999,-0.00032,-0.00079,0.00018,-0.00041,2
4892,5026,0.00032,0.00016,0.0008300000000000001,0.0012699999999999999,-0.00032,-0.00079,0.00018,-0.00041,2
4893,5027,0.00032,0.00016,0.0008300000000000001,0.0012699999999999999,-0.00032,-0.00079,0.00018,-0.00041,2
4894,5028,0.00032,0.00016,0.0008300000000000001,0.0012699999999999999,-0.00032,-0.00079,0.00018,-0.00041,2
4895,5029,0.00032,0.00016,0.0008300000000000001,0.0012699999999999999,-0.00032,-0.00079,0.00018,-0.00041,2
4896,5030,0.00032,0.00016,0.0008300000000000001,0.0012699999999999999,-0.00032,-0.00079,0.00018,-0.00041,2
4897,5031,0.00013000000000000002,-1e-05,-0.00022,-0.00011,0.00011999999999999999,-5e-05,-0.00055,-0.00065,2
4898,5032,0.00013000000000000002,-1e-05,-0.00022,-0.00011,0.00011999999999999999,-5e-05,-0.00055,-0.00065,2
4899,5033,0.00013000000000000002,-1e-05,-0.00022,-0.00011,0.00011999999999999999,-5e-05,-0.00055,-0.00065,2
4900,5034,0.00013000000000000002,-1e-05,-0.00022,-0.00011,0.00011999999999999999,-5e-05,-0.00055,-0.00065,2
4901,5035,0.00013000000000000002,-1e-05,-0.00022,-0.00011,0.00011999999999999999,-5e-05,-0.00055,-0.00065,2
4902,5036,0.00013000000000000002,-1e-05,-0.00022,-0.00011,0.00011999999999999999,-5e-05,-0.00055,-0.00065,2
4903,5037,0.00013000000000000002,-1e-05,-0.00022,-0.00011,0.00011999999999999999,-5e-05,-0.00055,-0.00065,2
4904,5038,0.00013000000000000002,-1e-05,-0.00022,-0.00011,0.00011999999999999999,-5e-05,-0.00055,-0.00065,2
4905,5039,0.00013000000000000002,-1e-05,-0.00022,-0.00011,0.00011999999999999999,-5e-05,-0.00055,-0.00065,2
4906,5040,0.00013000000000000002,-1e-05,-0.00022,-0.00011,0.00011999999999999999,-5e-05,-0.00055,-0.00065,2
4907,5042,0.00013000000000000002,-1e-05,-0.00022,-0.00011,0.00011999999999999999,-5e-05,-0.00055,-0.00065,2
4908,5043,0.00013000000000000002,-1e-05,-0.00022,-0.00011,0.00011999999999999999,-5e-05,-0.00055,-0.00065,2
4909,5044,0.00013000000000000002,-1e-05,-0.00022,-0.00011,0.00011999999999999999,-5e-05,-0.00055,-0.00065,2
4910,5045,0.00013000000000000002,-1e-05,-0.00022,-0.00011,0.00011999999999999999,-5e-05,-0.00055,-0.00065,2
4911,5046,0.00013000000000000002,-1e-05,-0.00022,-0.00011,0.00011999999999999999,-5e-05,-0.00055,-0.00065,2
4912,5047,0.00013000000000000002,-1e-05,-0.00022,-0.00011,0.00011999999999999999,-5e-05,-0.00055,-0.00065,2
4913,5048,-0.00021,-0.00035,-0.00044,-0.0003,0.0,2e-05,0.00044,-0.00016,2
4914,5049,-7e-05,-0.00022999999999999998,-0.00031,-0.00075,-0.00028,0.00022999999999999998,4e-05,0.00047000000000000004,2
4915,5050,-7e-05,-0.00022999999999999998,-0.00031,-0.00075,-0.00028,0.00022999999999999998,4e-05,0.00047000000000000004,2
4916,5051,-7e-05,-0.00022999999999999998,-0.00031,-0.00075,-0.00028,0.00022999999999999998,4e-05,0.00047000000000000004,2
4917,5052,-7e-05,-0.00022999999999999998,-0.00031,-0.00075,-0.00028,0.00022999999999999998,4e-05,0.00047000000000000004,2
4918,5053,-7e-05,-0.00022999999999999998,-0.00031,-0.00075,-0.00028,0.00022999999999999998,4e-05,0.00047000000000000004,2
4919,5054,-7e-05,-0.00022999999999999998,-0.00031,-0.00075,-0.00028,0.00022999999999999998,4e-05,0.00047000000000000004,2
4920,5055,-7e-05,-0.00022999999999999998,-0.00031,-0.00075,-0.00028,0.00022999999999999998,4e-05,0.00047000000000000004,2
4921,5056,-7e-05,-0.00022999999999999998,-0.00031,-0.00075,-0.00028,0.00022999999999999998,4e-05,0.00047000000000000004,2
4922,5057,-7e-05,-0.00022999999999999998,-0.00031,-0.00075,-0.00028,0.00022999999999999998,4e-05,0.00047000000000000004,2
4923,5058,-7e-05,-0.00022999999999999998,-0.00031,-0.00075,-0.00028,0.00022999999999999998,4e-05,0.00047000000000000004,2
4924,5059,-7e-05,-0.00022999999999999998,-0.00031,-0.00075,-0.00028,0.00022999999999999998,4e-05,0.00047000000000000004,2
4925,5060,-7e-05,-0.00022999999999999998,-0.00031,-0.00075,-0.00028,0.00022999999999999998,4e-05,0.00047000000000000004,2
4926,5061,-7e-05,-0.00022999999999999998,-0.00031,-0.00075,-0.00028,0.00022999999999999998,4e-05,0.00047000000000000004,2
4927,5062,-7e-05,-0.00022999999999999998,-0.00031,-0.00075,-0.00028,0.00022999999999999998,4e-05,0.00047000000000000004,2
4928,5063,-7e-05,-0.00022999999999999998,-0.00031,-0.00075,-0.00028,0.00022999999999999998,4e-05,0.00047000000000000004,2
4929,5064,-7e-05,-0.00022999999999999998,-0.00031,-0.00075,-0.00028,0.00022999999999999998,4e-05,0.00047000000000000004,2
4930,5065,-7e-05,-0.00022999999999999998,-0.00031,-0.00075,-0.00028,0.00022999999999999998,4e-05,0.00047000000000000004,2
4931,5066,-7e-05,-0.00022999999999999998,-0.00031,-0.00075,-0.00028,0.00022999999999999998,4e-05,0.00047000000000000004,2
4932,5067,-7e-05,-0.00022999999999999998,-0.00031,-0.00075,-0.00028,0.00022999999999999998,4e-05,0.00047000000000000004,2
4933,5068,-7e-05,-0.00022999999999999998,-0.00031,-0.00075,-0.00028,0.00022999999999999998,4e-05,0.00047000000000000004,2
4934,5069,-7e-05,-0.00022999999999999998,-0.00031,-0.00075,-0.00028,0.00022999999999999998,4e-05,0.00047000000000000004,2
4935,5070,0.00025,-0.00037,-0.0006900000000000001,-0.00081,5.9999999999999995e-05,-0.00026000000000000003,5.9999999999999995e-05,0.0003,2
4936,5071,0.00025,-0.00037,-0.0006900000000000001,-0.00081,5.9999999999999995e-05,-0.00026000000000000003,5.9999999999999995e-05,0.0003,2
4937,5072,0.00025,-0.00037,-0.0006900000000000001,-0.00081,5.9999999999999995e-05,-0.00026000000000000003,5.9999999999999995e-05,0.0003,2
4938,5073,-0.00023999999999999998,2e-05,-0.00022,0.0,-0.00016999999999999999,0.00021,0.00028,0.0003,2
4939,5074,-0.00023999999999999998,2e-05,-0.00022,0.0,-0.00016999999999999999,0.00021,0.00028,0.0003,2
4940,5075,-0.00023999999999999998,2e-05,-0.00022,0.0,-0.00016999999999999999,0.00021,0.00028,0.0003,2
4941,5076,-0.00023999999999999998,2e-05,-0.00022,0.0,-0.00016999999999999999,0.00021,0.00028,0.0003,2
4942,5077,-0.00023999999999999998,2e-05,-0.00022,0.0,-0.00016999999999999999,0.00021,0.00028,0.0003,2
4943,5078,-0.00023999999999999998,2e-05,-0.00022,0.0,-0.00016999999999999999,0.00021,0.00028,0.0003,2
4944,5079,-0.00023999999999999998,2e-05,-0.00022,0.0,-0.00016999999999999999,0.00021,0.00028,0.0003,2
4945,5080,-0.00023999999999999998,2e-05,-0.00022,0.0,-0.00016999999999999999,0.00021,0.00028,0.0003,2
4946,5081,-0.00023999999999999998,2e-05,-0.00022,0.0,-0.00016999999999999999,0.00021,0.00028,0.0003,2
4947,5082,-0.00023999999999999998,2e-05,-0.00022,0.0,-0.00016999999999999999,0.00021,0.00028,0.0003,2
4948,5083,-0.00023999999999999998,2e-05,-0.00022,0.0,-0.00016999999999999999,0.00021,0.00028,0.0003,2
4949,5084,-0.00023999999999999998,2e-05,-0.00022,0.0,-0.00016999999999999999,0.00021,0.00028,0.0003,2
4950,5085,-0.00018999999999999998,0.00014,0.00018999999999999998,0.00047999999999999996,0.00022,2.9999999999999997e-05,-7e-05,-0.00015,2
4951,5086,-0.00018999999999999998,0.00014,0.00018999999999999998,0.00047999999999999996,0.00022,2.9999999999999997e-05,-7e-05,-0.00015,2
4952,5089,-0.00018999999999999998,0.00014,0.00018999999999999998,0.00047999999999999996,0.00022,2.9999999999999997e-05,-7e-05,-0.00015,2
4953,5090,-0.00018999999999999998,0.00014,0.00018999999999999998,0.00047999999999999996,0.00022,2.9999999999999997e-05,-7e-05,-0.00015,2
4954,5091,2e-05,9e-05,2e-05,-0.00036,0.00011999999999999999,-0.00018,-0.00095,-2e-05,2
4955,5092,2e-05,9e-05,2e-05,-0.00036,0.00011999999999999999,-0.00018,-0.00095,-2e-05,2
4956,5093,2e-05,9e-05,2e-05,-0.00036,0.00011999999999999999,-0.00018,-0.00095,-2e-05,2
4957,5094,2e-05,9e-05,2e-05,-0.00036,0.00011999999999999999,-0.00018,-0.00095,-2e-05,2
4958,5095,2e-05,9e-05,2e-05,-0.00036,0.00011999999999999999,-0.00018,-0.00095,-2e-05,2
4959,5096,2e-05,9e-05,2e-05,-0.00036,0.00011999999999999999,-0.00018,-0.00095,-2e-05,2
4960,5097,2e-05,9e-05,2e-05,-0.00036,0.00011999999999999999,-0.00018,-0.00095,-2e-05,2
4961,5098,2e-05,9e-05,2e-05,-0.00036,0.00011999999999999999,-0.00018,-0.00095,-2e-05,2
4962,5099,2e-05,9e-05,2e-05,-0.00036,0.00011999999999999999,-0.00018,-0.00095,-2e-05,2
4963,5100,2e-05,9e-05,2e-05,-0.00036,0.00011999999999999999,-0.00018,-0.00095,-2e-05,2
4964,5101,2e-05,9e-05,2e-05,-0.00036,0.00011999999999999999,-0.00018,-0.00095,-2e-05,2
4965,5102,2e-05,9e-05,2e-05,-0.00036,0.00011999999999999999,-0.00018,-0.00095,-2e-05,2
4966,5103,2e-05,9e-05,2e-05,-0.00036,0.00011999999999999999,-0.00018,-0.00095,-2e-05,2
4967,5104,2e-05,9e-05,2e-05,-0.00036,0.00011999999999999999,-0.00018,-0.00095,-2e-05,2
4968,5105,2e-05,9e-05,2e-05,-0.00036,0.00011999999999999999,-0.00018,-0.00095,-2e-05,2
4969,5106,2e-05,9e-05,2e-05,-0.00036,0.00011999999999999999,-0.00018,-0.00095,-2e-05,2
4970,5107,2e-05,9e-05,2e-05,-0.00036,0.00011999999999999999,-0.00018,-0.00095,-2e-05,2
4971,5108,1e-05,0.00016999999999999999,0.00022999999999999998,0.00039,-0.00032,0.00016,-4e-05,-0.00022999999999999998,2
4972,5109,-0.0008900000000000001,0.00016999999999999999,0.00015,-0.0006,5.9999999999999995e-05,0.00084,0.00018,-0.00022999999999999998,2
4973,5110,-0.0008900000000000001,0.00016999999999999999,0.00015,-0.0006,5.9999999999999995e-05,0.00084,0.00018,-0.00022999999999999998,2
4974,5111,-0.0008900000000000001,0.00016999999999999999,0.00015,-0.0006,5.9999999999999995e-05,0.00084,0.00018,-0.00022999999999999998,2
4975,5112,-0.0008900000000000001,0.00016999999999999999,0.00015,-0.0006,5.9999999999999995e-05,0.00084,0.00018,-0.00022999999999999998,2
4976,5113,-0.0008900000000000001,0.00016999999999999999,0.00015,-0.0006,5.9999999999999995e-05,0.00084,0.00018,-0.00022999999999999998,2
4977,5114,-0.0008900000000000001,0.00016999999999999999,0.00015,-0.0006,5.9999999999999995e-05,0.00084,0.00018,-0.00022999999999999998,2
4978,5115,-0.0008900000000000001,0.00016999999999999999,0.00015,-0.0006,5.9999999999999995e-05,0.00084,0.00018,-0.00022999999999999998,2
4979,5116,-0.0008900000000000001,0.00016999999999999999,0.00015,-0.0006,5.9999999999999995e-05,0.00084,0.00018,-0.00022999999999999998,2
4980,5117,-0.0008900000000000001,0.00016999999999999999,0.00015,-0.0006,5.9999999999999995e-05,0.00084,0.00018,-0.00022999999999999998,2
4981,5118,-0.0008900000000000001,0.00016999999999999999,0.00015,-0.0006,5.9999999999999995e-05,0.00084,0.00018,-0.00022999999999999998,2
4982,5119,-0.0008900000000000001,0.00016999999999999999,0.00015,-0.0006,5.9999999999999995e-05,0.00084,0.00018,-0.00022999999999999998,2
4983,5120,-0.0008900000000000001,0.00016999999999999999,0.00015,-0.0006,5.9999999999999995e-05,0.00084,0.00018,-0.00022999999999999998,2
4984,5121,-0.0008900000000000001,0.00016999999999999999,0.00015,-0.0006,5.9999999999999995e-05,0.00084,0.00018,-0.00022999999999999998,2
4985,5122,-0.0008900000000000001,0.00016999999999999999,0.00015,-0.0006,5.9999999999999995e-05,0.00084,0.00018,-0.00022999999999999998,2
4986,5123,-0.0008900000000000001,0.00016999999999999999,0.00015,-0.0006,5.9999999999999995e-05,0.00084,0.00018,-0.00022999999999999998,2
4987,5124,-0.0008900000000000001,0.00016999999999999999,0.00015,-0.0006,5.9999999999999995e-05,0.00084,0.00018,-0.00022999999999999998,2
4988,5125,-0.0008900000000000001,0.00016999999999999999,0.00015,-0.0006,5.9999999999999995e-05,0.00084,0.00018,-0.00022999999999999998,2
4989,5126,-0.0008900000000000001,0.00016999999999999999,0.00015,-0.0006,5.9999999999999995e-05,0.00084,0.00018,-0.00022999999999999998,2
4990,5127,-0.0008900000000000001,0.00016999999999999999,0.00015,-0.0006,5.9999999999999995e-05,0.00084,0.00018,-0.00022999999999999998,2
4991,5128,-0.0008900000000000001,0.00016999999999999999,0.00015,-0.0006,5.9999999999999995e-05,0.00084,0.00018,-0.00022999999999999998,2
4992,5129,-0.0008900000000000001,0.00016999999999999999,0.00015,-0.0006,5.9999999999999995e-05,0.00084,0.00018,-0.00022999999999999998,2
4993,5130,-0.00022999999999999998,0.00026000000000000003,0.00042,0.00064,-5e-05,0.00039,-0.0002,-0.0008,2
4994,5131,-0.00022999999999999998,0.00026000000000000003,0.00042,0.00064,-5e-05,0.00039,-0.0002,-0.0008,2
4995,5132,-0.00016,-4e-05,0.00018,0.00042,5.9999999999999995e-05,-0.00015,0.00011999999999999999,0.00028,2
4996,5133,-0.00016,-4e-05,0.00018,0.00042,5.9999999999999995e-05,-0.00015,0.00011999999999999999,0.00028,2
4997,5135,-0.00016,-4e-05,0.00018,0.00042,5.9999999999999995e-05,-0.00015,0.00011999999999999999,0.00028,2
4998,5136,-0.00016,-4e-05,0.00018,0.00042,5.9999999999999995e-05,-0.00015,0.00011999999999999999,0.00028,2
4999,5137,-0.00016,-4e-05,0.00018,0.00042,5.9999999999999995e-05,-0.00015,0.00011999999999999999,0.00028,2
5000,5138,-0.00016,-4e-05,0.00018,0.00042,5.9999999999999995e-05,-0.00015,0.00011999999999999999,0.00028,2
5001,5139,-0.00016,-4e-05,0.00018,0.00042,5.9999999999999995e-05,-0.00015,0.00011999999999999999,0.00028,2
5002,5140,-0.00016,-4e-05,0.00018,0.00042,5.9999999999999995e-05,-0.00015,0.00011999999999999999,0.00028,2
5003,5141,-0.00016,-4e-05,0.00018,0.00042,5.9999999999999995e-05,-0.00015,0.00011999999999999999,0.00028,2
5004,5142,-0.00016,-4e-05,0.00018,0.00042,5.9999999999999995e-05,-0.00015,0.00011999999999999999,0.00028,2
5005,5143,-0.00016,-4e-05,0.00018,0.00042,5.9999999999999995e-05,-0.00015,0.00011999999999999999,0.00028,2
5006,5144,-0.00016,-4e-05,0.00018,0.00042,5.9999999999999995e-05,-0.00015,0.00011999999999999999,0.00028,2
5007,5145,-0.00016,-4e-05,0.00018,0.00042,5.9999999999999995e-05,-0.00015,0.00011999999999999999,0.00028,2
5008,5146,0.00035,0.0,0.0,0.0004,0.00045,0.00067,9e-05,0.0001,2
5009,5147,0.00035,0.0,0.0,0.0004,0.00045,0.00067,9e-05,0.0001,2
5010,5148,0.00035,0.0,0.0,0.0004,0.00045,0.00067,9e-05,0.0001,2
5011,5149,0.00035,0.0,0.0,0.0004,0.00045,0.00067,9e-05,0.0001,2
5012,5150,0.00035,0.0,0.0,0.0004,0.00045,0.00067,9e-05,0.0001,2
5013,5151,0.00045,5e-05,-0.0006,-0.00026000000000000003,0.00021,8e-05,-0.00029,0.00016999999999999999,2
5014,5152,0.00045,5e-05,-0.0006,-0.00026000000000000003,0.00021,8e-05,-0.00029,0.00016999999999999999,2
5015,5153,0.00045,5e-05,-0.0006,-0.00026000000000000003,0.00021,8e-05,-0.00029,0.00016999999999999999,2
5016,5154,0.00045,5e-05,-0.0006,-0.00026000000000000003,0.00021,8e-05,-0.00029,0.00016999999999999999,2
5017,5155,0.00045,5e-05,-0.0006,-0.00026000000000000003,0.00021,8e-05,-0.00029,0.00016999999999999999,2
5018,5156,0.00045,5e-05,-0.0006,-0.00026000000000000003,0.00021,8e-05,-0.00029,0.00016999999999999999,2
5019,5157,0.00045,5e-05,-0.0006,-0.00026000000000000003,0.00021,8e-05,-0.00029,0.00016999999999999999,2
5020,5158,0.00045,5e-05,-0.0006,-0.00026000000000000003,0.00021,8e-05,-0.00029,0.00016999999999999999,2
5021,5159,0.00045,5e-05,-0.0006,-0.00026000000000000003,0.00021,8e-05,-0.00029,0.00016999999999999999,2
5022,5160,0.00045,5e-05,-0.0006,-0.00026000000000000003,0.00021,8e-05,-0.00029,0.00016999999999999999,2
5023,5161,0.00045,5e-05,-0.0006,-0.00026000000000000003,0.00021,8e-05,-0.00029,0.00016999999999999999,2
5024,5162,0.00045,5e-05,-0.0006,-0.00026000000000000003,0.00021,8e-05,-0.00029,0.00016999999999999999,2
5025,5163,0.00045,5e-05,-0.0006,-0.00026000000000000003,0.00021,8e-05,-0.00029,0.00016999999999999999,2
5026,5164,0.00045,5e-05,-0.0006,-0.00026000000000000003,0.00021,8e-05,-0.00029,0.00016999999999999999,2
5027,5165,0.00045,5e-05,-0.0006,-0.00026000000000000003,0.00021,8e-05,-0.00029,0.00016999999999999999,2
5028,5166,0.00045,5e-05,-0.0006,-0.00026000000000000003,0.00021,8e-05,-0.00029,0.00016999999999999999,2
5029,5167,0.00045,5e-05,-0.0006,-0.00026000000000000003,0.00021,8e-05,-0.00029,0.00016999999999999999,2
5030,5168,0.00011999999999999999,-9e-05,0.00033,0.0008300000000000001,-0.00018,-9e-05,0.00015,-0.00033999999999999997,2
5031,5169,-0.00045999999999999996,-0.00023999999999999998,-8e-05,0.00022,0.0001,-0.00055,0.00015,0.00026000000000000003,2
5032,5170,-0.00045999999999999996,-0.00023999999999999998,-8e-05,0.00022,0.0001,-0.00055,0.00015,0.00026000000000000003,2
5033,5171,-0.00045999999999999996,-0.00023999999999999998,-8e-05,0.00022,0.0001,-0.00055,0.00015,0.00026000000000000003,2
5034,5172,-0.00045999999999999996,-0.00023999999999999998,-8e-05,0.00022,0.0001,-0.00055,0.00015,0.00026000000000000003,2
5035,5173,-0.00045999999999999996,-0.00023999999999999998,-8e-05,0.00022,0.0001,-0.00055,0.00015,0.00026000000000000003,2
5036,5174,-0.00045999999999999996,-0.00023999999999999998,-8e-05,0.00022,0.0001,-0.00055,0.00015,0.00026000000000000003,2
5037,5175,-0.00045999999999999996,-0.00023999999999999998,-8e-05,0.00022,0.0001,-0.00055,0.00015,0.00026000000000000003,2
5038,5176,-0.00045999999999999996,-0.00023999999999999998,-8e-05,0.00022,0.0001,-0.00055,0.00015,0.00026000000000000003,2
5039,5177,-0.00045999999999999996,-0.00023999999999999998,-8e-05,0.00022,0.0001,-0.00055,0.00015,0.00026000000000000003,2
5040,5178,-0.00045999999999999996,-0.00023999999999999998,-8e-05,0.00022,0.0001,-0.00055,0.00015,0.00026000000000000003,2
5041,5179,-0.00045999999999999996,-0.00023999999999999998,-8e-05,0.00022,0.0001,-0.00055,0.00015,0.00026000000000000003,2
5042,5180,-0.00045999999999999996,-0.00023999999999999998,-8e-05,0.00022,0.0001,-0.00055,0.00015,0.00026000000000000003,2
5043,5182,-0.00045999999999999996,-0.00023999999999999998,-8e-05,0.00022,0.0001,-0.00055,0.00015,0.00026000000000000003,2
5044,5183,-0.00045999999999999996,-0.00023999999999999998,-8e-05,0.00022,0.0001,-0.00055,0.00015,0.00026000000000000003,2
5045,5184,-0.00045999999999999996,-0.00023999999999999998,-8e-05,0.00022,0.0001,-0.00055,0.00015,0.00026000000000000003,2
5046,5185,-0.00045999999999999996,-0.00023999999999999998,-8e-05,0.00022,0.0001,-0.00055,0.00015,0.00026000000000000003,2
5047,5186,-0.00045999999999999996,-0.00023999999999999998,-8e-05,0.00022,0.0001,-0.00055,0.00015,0.00026000000000000003,2
5048,5188,-0.00045999999999999996,-0.00023999999999999998,-8e-05,0.00022,0.0001,-0.00055,0.00015,0.00026000000000000003,2
5049,5189,-0.00045999999999999996,-0.00023999999999999998,-8e-05,0.00022,0.0001,-0.00055,0.00015,0.00026000000000000003,2
5050,5190,0.00033,1e-05,-0.00042,-0.00016,0.00015,0.00031,0.00035,-5.9999999999999995e-05,2
5051,5191,0.00033,1e-05,-0.00042,-0.00016,0.00015,0.00031,0.00035,-5.9999999999999995e-05,2
5052,5192,0.00035,-5e-05,1e-05,1e-05,0.00041,0.00072,-4e-05,0.00081,2
5053,5193,0.00035,-5e-05,1e-05,1e-05,0.00041,0.00072,-4e-05,0.00081,2
5054,5194,0.00035,-5e-05,1e-05,1e-05,0.00041,0.00072,-4e-05,0.00081,2
5055,5195,0.00035,-5e-05,1e-05,1e-05,0.00041,0.00072,-4e-05,0.00081,2
5056,5196,0.00035,-5e-05,1e-05,1e-05,0.00041,0.00072,-4e-05,0.00081,2
5057,5197,0.00035,-5e-05,1e-05,1e-05,0.00041,0.00072,-4e-05,0.00081,2
5058,5198,0.00035,-5e-05,1e-05,1e-05,0.00041,0.00072,-4e-05,0.00081,2
5059,5199,0.00035,-5e-05,1e-05,1e-05,0.00041,0.00072,-4e-05,0.00081,2
5060,5200,0.00035,-5e-05,1e-05,1e-05,0.00041,0.00072,-4e-05,0.00081,2
5061,5201,0.00035,-5e-05,1e-05,1e-05,0.00041,0.00072,-4e-05,0.00081,2
5062,5202,0.00035,-5e-05,1e-05,1e-05,0.00041,0.00072,-4e-05,0.00081,2
5063,5203,0.00035,-5e-05,1e-05,1e-05,0.00041,0.00072,-4e-05,0.00081,2
5064,5204,0.00057,0.00014,2.9999999999999997e-05,-0.00054,-0.0002,-5e-05,0.00013000000000000002,0.0011099999999999999,2
5065,5205,0.00057,0.00014,2.9999999999999997e-05,-0.00054,-0.0002,-5e-05,0.00013000000000000002,0.0011099999999999999,2
5066,5206,0.00057,0.00014,2.9999999999999997e-05,-0.00054,-0.0002,-5e-05,0.00013000000000000002,0.0011099999999999999,2
5067,5207,0.00057,0.00014,2.9999999999999997e-05,-0.00054,-0.0002,-5e-05,0.00013000000000000002,0.0011099999999999999,2
5068,5208,0.00057,0.00014,2.9999999999999997e-05,-0.00054,-0.0002,-5e-05,0.00013000000000000002,0.0011099999999999999,2
5069,5209,0.00057,0.00014,2.9999999999999997e-05,-0.00054,-0.0002,-5e-05,0.00013000000000000002,0.0011099999999999999,2
5070,5210,0.00057,0.00014,2.9999999999999997e-05,-0.00054,-0.0002,-5e-05,0.00013000000000000002,0.0011099999999999999,2
5071,5211,0.00057,0.00014,2.9999999999999997e-05,-0.00054,-0.0002,-5e-05,0.00013000000000000002,0.0011099999999999999,2
5072,5212,0.00057,0.00014,2.9999999999999997e-05,-0.00054,-0.0002,-5e-05,0.00013000000000000002,0.0011099999999999999,2
5073,5213,-0.00015,-0.00015,-0.00014,0.00018999999999999998,-0.00031,-0.0004,-0.00026000000000000003,-0.00028,2
5074,5214,-0.00015,-0.00015,-0.00014,0.00018999999999999998,-0.00031,-0.0004,-0.00026000000000000003,-0.00028,2
5075,5215,-0.00015,-0.00015,-0.00014,0.00018999999999999998,-0.00031,-0.0004,-0.00026000000000000003,-0.00028,2
5076,5216,-0.00015,-0.00015,-0.00014,0.00018999999999999998,-0.00031,-0.0004,-0.00026000000000000003,-0.00028,2
5077,5217,-0.00015,-0.00015,-0.00014,0.00018999999999999998,-0.00031,-0.0004,-0.00026000000000000003,-0.00028,2
5078,5218,-0.00015,-0.00015,-0.00014,0.00018999999999999998,-0.00031,-0.0004,-0.00026000000000000003,-0.00028,2
5079,5219,-0.00015,-0.00015,-0.00014,0.00018999999999999998,-0.00031,-0.0004,-0.00026000000000000003,-0.00028,2
5080,5220,-0.00015,-0.00015,-0.00014,0.00018999999999999998,-0.00031,-0.0004,-0.00026000000000000003,-0.00028,2
5081,5221,-0.00015,-0.00015,-0.00014,0.00018999999999999998,-0.00031,-0.0004,-0.00026000000000000003,-0.00028,2
5082,5222,-0.00015,-0.00015,-0.00014,0.00018999999999999998,-0.00031,-0.0004,-0.00026000000000000003,-0.00028,2
5083,5223,-0.00015,-0.00015,-0.00014,0.00018999999999999998,-0.00031,-0.0004,-0.00026000000000000003,-0.00028,2
5084,5224,-0.00015,-0.00015,-0.00014,0.00018999999999999998,-0.00031,-0.0004,-0.00026000000000000003,-0.00028,2
5085,5225,-0.00015,-0.00015,-0.00014,0.00018999999999999998,-0.00031,-0.0004,-0.00026000000000000003,-0.00028,2
5086,5226,-0.00015,-0.00015,-0.00014,0.00018999999999999998,-0.00031,-0.0004,-0.00026000000000000003,-0.00028,2
5087,5227,-0.00015,-0.00015,-0.00014,0.00018999999999999998,-0.00031,-0.0004,-0.00026000000000000003,-0.00028,2
5088,5229,9e-05,9e-05,0.00043,-0.00016,-0.00022999999999999998,-8e-05,-0.00045999999999999996,0.0009,2
5089,5230,9e-05,9e-05,0.00043,-0.00016,-0.00022999999999999998,-8e-05,-0.00045999999999999996,0.0009,2
5090,5231,9e-05,9e-05,0.00043,-0.00016,-0.00022999999999999998,-8e-05,-0.00045999999999999996,0.0009,2
5091,5232,9e-05,9e-05,0.00043,-0.00016,-0.00022999999999999998,-8e-05,-0.00045999999999999996,0.0009,2
5092,5233,9e-05,9e-05,0.00043,-0.00016,-0.00022999999999999998,-8e-05,-0.00045999999999999996,0.0009,2
5093,5234,9e-05,9e-05,0.00043,-0.00016,-0.00022999999999999998,-8e-05,-0.00045999999999999996,0.0009,2
5094,5235,9e-05,9e-05,0.00043,-0.00016,-0.00022999999999999998,-8e-05,-0.00045999999999999996,0.0009,2
5095,5236,9e-05,9e-05,0.00043,-0.00016,-0.00022999999999999998,-8e-05,-0.00045999999999999996,0.0009,2
5096,5238,9e-05,9e-05,0.00043,-0.00016,-0.00022999999999999998,-8e-05,-0.00045999999999999996,0.0009,2
5097,5239,9e-05,9e-05,0.00043,-0.00016,-0.00022999999999999998,-8e-05,-0.00045999999999999996,0.0009,2
5098,5240,9e-05,9e-05,0.00043,-0.00016,-0.00022999999999999998,-8e-05,-0.00045999999999999996,0.0009,2
5099,5241,9e-05,9e-05,0.00043,-0.00016,-0.00022999999999999998,-8e-05,-0.00045999999999999996,0.0009,2
5100,5242,9e-05,9e-05,0.00043,-0.00016,-0.00022999999999999998,-8e-05,-0.00045999999999999996,0.0009,2
5101,5243,9e-05,9e-05,0.00043,-0.00016,-0.00022999999999999998,-8e-05,-0.00045999999999999996,0.0009,2
5102,5244,9e-05,9e-05,0.00043,-0.00016,-0.00022999999999999998,-8e-05,-0.00045999999999999996,0.0009,2
5103,5245,9e-05,9e-05,0.00043,-0.00016,-0.00022999999999999998,-8e-05,-0.00045999999999999996,0.0009,2
5104,5246,9e-05,9e-05,0.00043,-0.00016,-0.00022999999999999998,-8e-05,-0.00045999999999999996,0.0009,2
5105,5247,9e-05,9e-05,0.00043,-0.00016,-0.00022999999999999998,-8e-05,-0.00045999999999999996,0.0009,2
5106,5248,9e-05,9e-05,0.00043,-0.00016,-0.00022999999999999998,-8e-05,-0.00045999999999999996,0.0009,2
5107,5249,9e-05,9e-05,0.00043,-0.00016,-0.00022999999999999998,-8e-05,-0.00045999999999999996,0.0009,2
5108,5250,0.00011999999999999999,0.00035,0.00044,0.00031,-8e-05,-0.00055,-0.00016999999999999999,-2.9999999999999997e-05,2
5109,5251,0.00011999999999999999,0.00035,0.00044,0.00031,-8e-05,-0.00055,-0.00016999999999999999,-2.9999999999999997e-05,2
5110,5252,0.00035,0.00021,0.00023999999999999998,0.0008,0.00016,5e-05,1e-05,-0.00037,2
5111,5253,0.00035,0.00021,0.00023999999999999998,0.0008,0.00016,5e-05,1e-05,-0.00037,2
5112,5254,0.00035,0.00021,0.00023999999999999998,0.0008,0.00016,5e-05,1e-05,-0.00037,2
5113,5255,0.00035,0.00021,0.00023999999999999998,0.0008,0.00016,5e-05,1e-05,-0.00037,2
5114,5256,0.00035,0.00021,0.00023999999999999998,0.0008,0.00016,5e-05,1e-05,-0.00037,2
5115,5257,0.00035,0.00021,0.00023999999999999998,0.0008,0.00016,5e-05,1e-05,-0.00037,2
5116,5258,0.00035,0.00021,0.00023999999999999998,0.0008,0.00016,5e-05,1e-05,-0.00037,2
5117,5259,0.00035,0.00021,0.00023999999999999998,0.0008,0.00016,5e-05,1e-05,-0.00037,2
5118,5260,0.00035,0.00021,0.00023999999999999998,0.0008,0.00016,5e-05,1e-05,-0.00037,2
5119,5261,0.00035,0.00021,0.00023999999999999998,0.0008,0.00016,5e-05,1e-05,-0.00037,2
5120,5262,0.00035,0.00021,0.00023999999999999998,0.0008,0.00016,5e-05,1e-05,-0.00037,2
5121,5263,0.00035,0.00021,0.00023999999999999998,0.0008,0.00016,5e-05,1e-05,-0.00037,2
5122,5264,-0.0011099999999999999,-0.00016999999999999999,0.0001,-0.00029,7e-05,-0.00013000000000000002,-0.00013000000000000002,-0.00081,2
5123,5265,-0.0011099999999999999,-0.00016999999999999999,0.0001,-0.00029,7e-05,-0.00013000000000000002,-0.00013000000000000002,-0.00081,2
5124,5266,-0.0011099999999999999,-0.00016999999999999999,0.0001,-0.00029,7e-05,-0.00013000000000000002,-0.00013000000000000002,-0.00081,2
5125,5267,-0.0011099999999999999,-0.00016999999999999999,0.0001,-0.00029,7e-05,-0.00013000000000000002,-0.00013000000000000002,-0.00081,2
5126,5268,-0.0011099999999999999,-0.00016999999999999999,0.0001,-0.00029,7e-05,-0.00013000000000000002,-0.00013000000000000002,-0.00081,2
5127,5269,-0.0011099999999999999,-0.00016999999999999999,0.0001,-0.00029,7e-05,-0.00013000000000000002,-0.00013000000000000002,-0.00081,2
5128,5270,-0.0011099999999999999,-0.00016999999999999999,0.0001,-0.00029,7e-05,-0.00013000000000000002,-0.00013000000000000002,-0.00081,2
5129,5271,-0.0011099999999999999,-0.00016999999999999999,0.0001,-0.00029,7e-05,-0.00013000000000000002,-0.00013000000000000002,-0.00081,2
5130,5272,-0.0011099999999999999,-0.00016999999999999999,0.0001,-0.00029,7e-05,-0.00013000000000000002,-0.00013000000000000002,-0.00081,2
5131,5273,-9e-05,-1e-05,0.00016999999999999999,2e-05,-0.00045,-0.001,-0.0002,-0.00065,2
5132,5274,-9e-05,-1e-05,0.00016999999999999999,2e-05,-0.00045,-0.001,-0.0002,-0.00065,2
5133,5275,-9e-05,-1e-05,0.00016999999999999999,2e-05,-0.00045,-0.001,-0.0002,-0.00065,2
5134,5276,-9e-05,-1e-05,0.00016999999999999999,2e-05,-0.00045,-0.001,-0.0002,-0.00065,2
5135,5277,-9e-05,-1e-05,0.00016999999999999999,2e-05,-0.00045,-0.001,-0.0002,-0.00065,2
5136,5278,-9e-05,-1e-05,0.00016999999999999999,2e-05,-0.00045,-0.001,-0.0002,-0.00065,2
5137,5279,-9e-05,-1e-05,0.00016999999999999999,2e-05,-0.00045,-0.001,-0.0002,-0.00065,2
5138,5280,-9e-05,-1e-05,0.00016999999999999999,2e-05,-0.00045,-0.001,-0.0002,-0.00065,2
5139,5281,-9e-05,-1e-05,0.00016999999999999999,2e-05,-0.00045,-0.001,-0.0002,-0.00065,2
5140,5282,-9e-05,-1e-05,0.00016999999999999999,2e-05,-0.00045,-0.001,-0.0002,-0.00065,2
5141,5283,-9e-05,-1e-05,0.00016999999999999999,2e-05,-0.00045,-0.001,-0.0002,-0.00065,2
5142,5284,-9e-05,-1e-05,0.00016999999999999999,2e-05,-0.00045,-0.001,-0.0002,-0.00065,2
5143,5285,-9e-05,-1e-05,0.00016999999999999999,2e-05,-0.00045,-0.001,-0.0002,-0.00065,2
5144,5286,-9e-05,-1e-05,0.00016999999999999999,2e-05,-0.00045,-0.001,-0.0002,-0.00065,2
5145,5288,0.00013000000000000002,0.0002,-0.0004,-0.00091,0.00011999999999999999,0.00018,-0.00029,-0.00086,2
5146,5289,0.00037,-0.00023999999999999998,-0.00014,0.00066,2e-05,-2.9999999999999997e-05,0.0007,0.0006,2
5147,5290,0.00037,-0.00023999999999999998,-0.00014,0.00066,2e-05,-2.9999999999999997e-05,0.0007,0.0006,2
5148,5291,0.00037,-0.00023999999999999998,-0.00014,0.00066,2e-05,-2.9999999999999997e-05,0.0007,0.0006,2
5149,5292,0.00037,-0.00023999999999999998,-0.00014,0.00066,2e-05,-2.9999999999999997e-05,0.0007,0.0006,2
5150,5293,0.00037,-0.00023999999999999998,-0.00014,0.00066,2e-05,-2.9999999999999997e-05,0.0007,0.0006,2
5151,5294,0.00037,-0.00023999999999999998,-0.00014,0.00066,2e-05,-2.9999999999999997e-05,0.0007,0.0006,2
5152,5295,0.00037,-0.00023999999999999998,-0.00014,0.00066,2e-05,-2.9999999999999997e-05,0.0007,0.0006,2
5153,5296,0.00037,-0.00023999999999999998,-0.00014,0.00066,2e-05,-2.9999999999999997e-05,0.0007,0.0006,2
5154,5297,0.00037,-0.00023999999999999998,-0.00014,0.00066,2e-05,-2.9999999999999997e-05,0.0007,0.0006,2
5155,5298,0.00037,-0.00023999999999999998,-0.00014,0.00066,2e-05,-2.9999999999999997e-05,0.0007,0.0006,2
5156,5299,0.00037,-0.00023999999999999998,-0.00014,0.00066,2e-05,-2.9999999999999997e-05,0.0007,0.0006,2
5157,5300,0.00037,-0.00023999999999999998,-0.00014,0.00066,2e-05,-2.9999999999999997e-05,0.0007,0.0006,2
5158,5301,0.00037,-0.00023999999999999998,-0.00014,0.00066,2e-05,-2.9999999999999997e-05,0.0007,0.0006,2
5159,5302,0.00037,-0.00023999999999999998,-0.00014,0.00066,2e-05,-2.9999999999999997e-05,0.0007,0.0006,2
5160,5303,0.00037,-0.00023999999999999998,-0.00014,0.00066,2e-05,-2.9999999999999997e-05,0.0007,0.0006,2
5161,5304,0.00037,-0.00023999999999999998,-0.00014,0.00066,2e-05,-2.9999999999999997e-05,0.0007,0.0006,2
5162,5305,0.00037,-0.00023999999999999998,-0.00014,0.00066,2e-05,-2.9999999999999997e-05,0.0007,0.0006,2
5163,5306,0.00037,-0.00023999999999999998,-0.00014,0.00066,2e-05,-2.9999999999999997e-05,0.0007,0.0006,2
5164,5307,0.00037,-0.00023999999999999998,-0.00014,0.00066,2e-05,-2.9999999999999997e-05,0.0007,0.0006,2
5165,5308,0.00037,-0.00023999999999999998,-0.00014,0.00066,2e-05,-2.9999999999999997e-05,0.0007,0.0006,2
5166,5309,0.00037,-0.00023999999999999998,-0.00014,0.00066,2e-05,-2.9999999999999997e-05,0.0007,0.0006,2
5167,5310,-0.00031,-0.0001,9e-05,-0.00047999999999999996,-0.0002,0.00075,0.00058,-0.00039,2
5168,5311,-0.00031,-0.0001,9e-05,-0.00047999999999999996,-0.0002,0.00075,0.00058,-0.00039,2
5169,5312,-5.9999999999999995e-05,5e-05,-0.00016,-0.00093,-4e-05,7e-05,-0.00059,-5.9999999999999995e-05,2
5170,5313,-5.9999999999999995e-05,5e-05,-0.00016,-0.00093,-4e-05,7e-05,-0.00059,-5.9999999999999995e-05,2
5171,5314,-5.9999999999999995e-05,5e-05,-0.00016,-0.00093,-4e-05,7e-05,-0.00059,-5.9999999999999995e-05,2
5172,5315,-5.9999999999999995e-05,5e-05,-0.00016,-0.00093,-4e-05,7e-05,-0.00059,-5.9999999999999995e-05,2
5173,5316,-5.9999999999999995e-05,5e-05,-0.00016,-0.00093,-4e-05,7e-05,-0.00059,-5.9999999999999995e-05,2
5174,5317,-5.9999999999999995e-05,5e-05,-0.00016,-0.00093,-4e-05,7e-05,-0.00059,-5.9999999999999995e-05,2
5175,5318,-5.9999999999999995e-05,5e-05,-0.00016,-0.00093,-4e-05,7e-05,-0.00059,-5.9999999999999995e-05,2
5176,5319,-5.9999999999999995e-05,5e-05,-0.00016,-0.00093,-4e-05,7e-05,-0.00059,-5.9999999999999995e-05,2
5177,5320,-5.9999999999999995e-05,5e-05,-0.00016,-0.00093,-4e-05,7e-05,-0.00059,-5.9999999999999995e-05,2
5178,5322,-5.9999999999999995e-05,5e-05,-0.00016,-0.00093,-4e-05,7e-05,-0.00059,-5.9999999999999995e-05,2
5179,5323,-5.9999999999999995e-05,5e-05,-0.00016,-0.00093,-4e-05,7e-05,-0.00059,-5.9999999999999995e-05,2
5180,5324,0.00026000000000000003,-0.00011999999999999999,4e-05,0.00047000000000000004,-0.00025,-9e-05,8e-05,0.00121,2
5181,5325,0.00026000000000000003,-0.00011999999999999999,4e-05,0.00047000000000000004,-0.00025,-9e-05,8e-05,0.00121,2
5182,5326,0.00026000000000000003,-0.00011999999999999999,4e-05,0.00047000000000000004,-0.00025,-9e-05,8e-05,0.00121,2
5183,5327,0.00026000000000000003,-0.00011999999999999999,4e-05,0.00047000000000000004,-0.00025,-9e-05,8e-05,0.00121,2
5184,5328,0.00026000000000000003,-0.00011999999999999999,4e-05,0.00047000000000000004,-0.00025,-9e-05,8e-05,0.00121,2
5185,5329,0.00026000000000000003,-0.00011999999999999999,4e-05,0.00047000000000000004,-0.00025,-9e-05,8e-05,0.00121,2
5186,5330,0.00026000000000000003,-0.00011999999999999999,4e-05,0.00047000000000000004,-0.00025,-9e-05,8e-05,0.00121,2
5187,5331,0.00026000000000000003,-0.00011999999999999999,4e-05,0.00047000000000000004,-0.00025,-9e-05,8e-05,0.00121,2
5188,5332,0.00026000000000000003,-0.00011999999999999999,4e-05,0.00047000000000000004,-0.00025,-9e-05,8e-05,0.00121,2
5189,5333,-0.00067,-4e-05,0.00023999999999999998,0.00082,-9e-05,0.00055,0.0006900000000000001,0.00033999999999999997,2
5190,5334,-0.00067,-4e-05,0.00023999999999999998,0.00082,-9e-05,0.00055,0.0006900000000000001,0.00033999999999999997,2
5191,5335,-0.00067,-4e-05,0.00023999999999999998,0.00082,-9e-05,0.00055,0.0006900000000000001,0.00033999999999999997,2
5192,5336,-0.00067,-4e-05,0.00023999999999999998,0.00082,-9e-05,0.00055,0.0006900000000000001,0.00033999999999999997,2
5193,5338,-0.00067,-4e-05,0.00023999999999999998,0.00082,-9e-05,0.00055,0.0006900000000000001,0.00033999999999999997,2
5194,5339,-0.00067,-4e-05,0.00023999999999999998,0.00082,-9e-05,0.00055,0.0006900000000000001,0.00033999999999999997,2
5195,5340,-0.00067,-4e-05,0.00023999999999999998,0.00082,-9e-05,0.00055,0.0006900000000000001,0.00033999999999999997,2
5196,5341,-0.00067,-4e-05,0.00023999999999999998,0.00082,-9e-05,0.00055,0.0006900000000000001,0.00033999999999999997,2
5197,5342,-0.00067,-4e-05,0.00023999999999999998,0.00082,-9e-05,0.00055,0.0006900000000000001,0.00033999999999999997,2
5198,5343,-0.00067,-4e-05,0.00023999999999999998,0.00082,-9e-05,0.00055,0.0006900000000000001,0.00033999999999999997,2
5199,5344,-0.00067,-4e-05,0.00023999999999999998,0.00082,-9e-05,0.00055,0.0006900000000000001,0.00033999999999999997,2
5200,5345,-0.00067,-4e-05,0.00023999999999999998,0.00082,-9e-05,0.00055,0.0006900000000000001,0.00033999999999999997,2
5201,5346,-0.00067,-4e-05,0.00023999999999999998,0.00082,-9e-05,0.00055,0.0006900000000000001,0.00033999999999999997,2
5202,5347,-0.00067,-4e-05,0.00023999999999999998,0.00082,-9e-05,0.00055,0.0006900000000000001,0.00033999999999999997,2
5203,5348,0.00041,0.00013000000000000002,0.00037,-0.00016,-0.00049,-0.0010400000000000001,-0.0008300000000000001,-0.001,2
5204,5349,0.0006799999999999999,5.9999999999999995e-05,0.0003,0.00044,0.00026000000000000003,0.00057,0.00044,0.00029,2
5205,5350,0.0006799999999999999,5.9999999999999995e-05,0.0003,0.00044,0.00026000000000000003,0.00057,0.00044,0.00029,2
5206,5351,0.0006799999999999999,5.9999999999999995e-05,0.0003,0.00044,0.00026000000000000003,0.00057,0.00044,0.00029,2
5207,5352,0.0006799999999999999,5.9999999999999995e-05,0.0003,0.00044,0.00026000000000000003,0.00057,0.00044,0.00029,2
5208,5353,0.0006799999999999999,5.9999999999999995e-05,0.0003,0.00044,0.00026000000000000003,0.00057,0.00044,0.00029,2
5209,5354,0.0006799999999999999,5.9999999999999995e-05,0.0003,0.00044,0.00026000000000000003,0.00057,0.00044,0.00029,2
5210,5355,0.0006799999999999999,5.9999999999999995e-05,0.0003,0.00044,0.00026000000000000003,0.00057,0.00044,0.00029,2
5211,5356,0.0006799999999999999,5.9999999999999995e-05,0.0003,0.00044,0.00026000000000000003,0.00057,0.00044,0.00029,2
5212,5357,0.0006799999999999999,5.9999999999999995e-05,0.0003,0.00044,0.00026000000000000003,0.00057,0.00044,0.00029,2
5213,5358,0.0006799999999999999,5.9999999999999995e-05,0.0003,0.00044,0.00026000000000000003,0.00057,0.00044,0.00029,2
5214,5359,0.0006799999999999999,5.9999999999999995e-05,0.0003,0.00044,0.00026000000000000003,0.00057,0.00044,0.00029,2
5215,5360,0.0006799999999999999,5.9999999999999995e-05,0.0003,0.00044,0.00026000000000000003,0.00057,0.00044,0.00029,2
5216,5361,0.0006799999999999999,5.9999999999999995e-05,0.0003,0.00044,0.00026000000000000003,0.00057,0.00044,0.00029,2
5217,5362,0.0006799999999999999,5.9999999999999995e-05,0.0003,0.00044,0.00026000000000000003,0.00057,0.00044,0.00029,2
5218,5363,0.0006799999999999999,5.9999999999999995e-05,0.0003,0.00044,0.00026000000000000003,0.00057,0.00044,0.00029,2
5219,5364,0.0006799999999999999,5.9999999999999995e-05,0.0003,0.00044,0.00026000000000000003,0.00057,0.00044,0.00029,2
5220,5365,0.0006799999999999999,5.9999999999999995e-05,0.0003,0.00044,0.00026000000000000003,0.00057,0.00044,0.00029,2
5221,5366,0.0006799999999999999,5.9999999999999995e-05,0.0003,0.00044,0.00026000000000000003,0.00057,0.00044,0.00029,2
5222,5367,0.0006799999999999999,5.9999999999999995e-05,0.0003,0.00044,0.00026000000000000003,0.00057,0.00044,0.00029,2
5223,5369,0.0006799999999999999,5.9999999999999995e-05,0.0003,0.00044,0.00026000000000000003,0.00057,0.00044,0.00029,2
5224,5370,-1e-05,-0.00021,-0.00022999999999999998,-0.00064,0.00022,5.9999999999999995e-05,9e-05,0.00072,2
5225,5371,-1e-05,-0.00021,-0.00022999999999999998,-0.00064,0.00022,5.9999999999999995e-05,9e-05,0.00072,2
5226,5372,-0.00061,-7e-05,-0.00043,-0.00098,-0.00057,-0.00086,-0.0007599999999999999,-0.0006,2
5227,5373,-0.00061,-7e-05,-0.00043,-0.00098,-0.00057,-0.00086,-0.0007599999999999999,-0.0006,2
5228,5374,-0.00061,-7e-05,-0.00043,-0.00098,-0.00057,-0.00086,-0.0007599999999999999,-0.0006,2
5229,5375,-0.00061,-7e-05,-0.00043,-0.00098,-0.00057,-0.00086,-0.0007599999999999999,-0.0006,2
5230,5376,-0.00061,-7e-05,-0.00043,-0.00098,-0.00057,-0.00086,-0.0007599999999999999,-0.0006,2
5231,5377,-0.00061,-7e-05,-0.00043,-0.00098,-0.00057,-0.00086,-0.0007599999999999999,-0.0006,2
5232,5378,-0.00061,-7e-05,-0.00043,-0.00098,-0.00057,-0.00086,-0.0007599999999999999,-0.0006,2
5233,5379,-0.00061,-7e-05,-0.00043,-0.00098,-0.00057,-0.00086,-0.0007599999999999999,-0.0006,2
5234,5380,-0.00061,-7e-05,-0.00043,-0.00098,-0.00057,-0.00086,-0.0007599999999999999,-0.0006,2
5235,5381,-0.00061,-7e-05,-0.00043,-0.00098,-0.00057,-0.00086,-0.0007599999999999999,-0.0006,2
5236,5382,-0.00061,-7e-05,-0.00043,-0.00098,-0.00057,-0.00086,-0.0007599999999999999,-0.0006,2
5237,5383,-0.00061,-7e-05,-0.00043,-0.00098,-0.00057,-0.00086,-0.0007599999999999999,-0.0006,2
5238,5384,0.00022999999999999998,-0.00018999999999999998,-0.00047000000000000004,0.00047999999999999996,5.9999999999999995e-05,1e-05,-0.00054,0.00062,2
5239,5385,0.00022999999999999998,-0.00018999999999999998,-0.00047000000000000004,0.00047999999999999996,5.9999999999999995e-05,1e-05,-0.00054,0.00062,2
5240,5386,0.00022999999999999998,-0.00018999999999999998,-0.00047000000000000004,0.00047999999999999996,5.9999999999999995e-05,1e-05,-0.00054,0.00062,2
5241,5388,0.00022999999999999998,-0.00018999999999999998,-0.00047000000000000004,0.00047999999999999996,5.9999999999999995e-05,1e-05,-0.00054,0.00062,2
5242,5389,0.00022999999999999998,-0.00018999999999999998,-0.00047000000000000004,0.00047999999999999996,5.9999999999999995e-05,1e-05,-0.00054,0.00062,2
5243,5390,0.00022999999999999998,-0.00018999999999999998,-0.00047000000000000004,0.00047999999999999996,5.9999999999999995e-05,1e-05,-0.00054,0.00062,2
5244,5391,0.00022999999999999998,-0.00018999999999999998,-0.00047000000000000004,0.00047999999999999996,5.9999999999999995e-05,1e-05,-0.00054,0.00062,2
5245,5392,0.00022999999999999998,-0.00018999999999999998,-0.00047000000000000004,0.00047999999999999996,5.9999999999999995e-05,1e-05,-0.00054,0.00062,2
5246,5393,-0.00093,0.00015,0.00027,-0.00016999999999999999,-5.9999999999999995e-05,0.00021,-0.00031,-0.00128,2
5247,5394,-0.00093,0.00015,0.00027,-0.00016999999999999999,-5.9999999999999995e-05,0.00021,-0.00031,-0.00128,2
5248,5395,-0.00093,0.00015,0.00027,-0.00016999999999999999,-5.9999999999999995e-05,0.00021,-0.00031,-0.00128,2
5249,5396,-0.00093,0.00015,0.00027,-0.00016999999999999999,-5.9999999999999995e-05,0.00021,-0.00031,-0.00128,2
5250,5397,-0.00093,0.00015,0.00027,-0.00016999999999999999,-5.9999999999999995e-05,0.00021,-0.00031,-0.00128,2
5251,5398,-0.00093,0.00015,0.00027,-0.00016999999999999999,-5.9999999999999995e-05,0.00021,-0.00031,-0.00128,2
5252,5399,-0.00093,0.00015,0.00027,-0.00016999999999999999,-5.9999999999999995e-05,0.00021,-0.00031,-0.00128,2
5253,5400,-0.00093,0.00015,0.00027,-0.00016999999999999999,-5.9999999999999995e-05,0.00021,-0.00031,-0.00128,2
5254,5401,-0.00093,0.00015,0.00027,-0.00016999999999999999,-5.9999999999999995e-05,0.00021,-0.00031,-0.00128,2
5255,5402,-0.00093,0.00015,0.00027,-0.00016999999999999999,-5.9999999999999995e-05,0.00021,-0.00031,-0.00128,2
5256,5403,-0.00093,0.00015,0.00027,-0.00016999999999999999,-5.9999999999999995e-05,0.00021,-0.00031,-0.00128,2
5257,5404,-0.00093,0.00015,0.00027,-0.00016999999999999999,-5.9999999999999995e-05,0.00021,-0.00031,-0.00128,2
5258,5405,-0.00093,0.00015,0.00027,-0.00016999999999999999,-5.9999999999999995e-05,0.00021,-0.00031,-0.00128,2
5259,5406,-0.00093,0.00015,0.00027,-0.00016999999999999999,-5.9999999999999995e-05,0.00021,-0.00031,-0.00128,2
5260,5407,-0.00093,0.00015,0.00027,-0.00016999999999999999,-5.9999999999999995e-05,0.00021,-0.00031,-0.00128,2
5261,5408,-8e-05,-9e-05,0.00029,0.0007700000000000001,-0.00025,-0.00018999999999999998,-5.9999999999999995e-05,0.00022,2
5262,5409,0.00026000000000000003,0.0003,0.00027,0.00062,-0.00015,-0.00101,-0.00035,-0.0008,2
5263,5410,0.00026000000000000003,0.0003,0.00027,0.00062,-0.00015,-0.00101,-0.00035,-0.0008,2
5264,5411,0.00026000000000000003,0.0003,0.00027,0.00062,-0.00015,-0.00101,-0.00035,-0.0008,2
5265,5412,0.00026000000000000003,0.0003,0.00027,0.00062,-0.00015,-0.00101,-0.00035,-0.0008,2
5266,5413,0.00026000000000000003,0.0003,0.00027,0.00062,-0.00015,-0.00101,-0.00035,-0.0008,2
5267,5415,0.00026000000000000003,0.0003,0.00027,0.00062,-0.00015,-0.00101,-0.00035,-0.0008,2
5268,5416,0.00026000000000000003,0.0003,0.00027,0.00062,-0.00015,-0.00101,-0.00035,-0.0008,2
5269,5417,0.00026000000000000003,0.0003,0.00027,0.00062,-0.00015,-0.00101,-0.00035,-0.0008,2
5270,5418,0.00026000000000000003,0.0003,0.00027,0.00062,-0.00015,-0.00101,-0.00035,-0.0008,2
5271,5419,0.00026000000000000003,0.0003,0.00027,0.00062,-0.00015,-0.00101,-0.00035,-0.0008,2
5272,5420,0.00026000000000000003,0.0003,0.00027,0.00062,-0.00015,-0.00101,-0.00035,-0.0008,2
5273,5421,0.00026000000000000003,0.0003,0.00027,0.00062,-0.00015,-0.00101,-0.00035,-0.0008,2
5274,5422,0.00026000000000000003,0.0003,0.00027,0.00062,-0.00015,-0.00101,-0.00035,-0.0008,2
5275,5423,0.00026000000000000003,0.0003,0.00027,0.00062,-0.00015,-0.00101,-0.00035,-0.0008,2
5276,5424,0.00026000000000000003,0.0003,0.00027,0.00062,-0.00015,-0.00101,-0.00035,-0.0008,2
5277,5425,0.00026000000000000003,0.0003,0.00027,0.00062,-0.00015,-0.00101,-0.00035,-0.0008,2
5278,5426,0.00026000000000000003,0.0003,0.00027,0.00062,-0.00015,-0.00101,-0.00035,-0.0008,2
5279,5427,0.00026000000000000003,0.0003,0.00027,0.00062,-0.00015,-0.00101,-0.00035,-0.0008,2
5280,5428,0.00026000000000000003,0.0003,0.00027,0.00062,-0.00015,-0.00101,-0.00035,-0.0008,2
5281,5429,0.00026000000000000003,0.0003,0.00027,0.00062,-0.00015,-0.00101,-0.00035,-0.0008,2
5282,5430,-0.00039,-4e-05,-0.00023999999999999998,-0.0007700000000000001,-2.9999999999999997e-05,-0.00016999999999999999,-0.00059,-0.00107,2
5283,5431,-0.00039,-4e-05,-0.00023999999999999998,-0.0007700000000000001,-2.9999999999999997e-05,-0.00016999999999999999,-0.00059,-0.00107,2
5284,5432,-5e-05,0.00011999999999999999,-9e-05,-0.00086,-1e-05,0.0001,0.00055,-0.00081,2
5285,5433,-5e-05,0.00011999999999999999,-9e-05,-0.00086,-1e-05,0.0001,0.00055,-0.00081,2
5286,5434,-5e-05,0.00011999999999999999,-9e-05,-0.00086,-1e-05,0.0001,0.00055,-0.00081,2
5287,5435,-5e-05,0.00011999999999999999,-9e-05,-0.00086,-1e-05,0.0001,0.00055,-0.00081,2
5288,5436,-5e-05,0.00011999999999999999,-9e-05,-0.00086,-1e-05,0.0001,0.00055,-0.00081,2
5289,5438,-5e-05,0.00011999999999999999,-9e-05,-0.00086,-1e-05,0.0001,0.00055,-0.00081,2
5290,5439,-5e-05,0.00011999999999999999,-9e-05,-0.00086,-1e-05,0.0001,0.00055,-0.00081,2
5291,5440,-5e-05,0.00011999999999999999,-9e-05,-0.00086,-1e-05,0.0001,0.00055,-0.00081,2
5292,5441,-5e-05,0.00011999999999999999,-9e-05,-0.00086,-1e-05,0.0001,0.00055,-0.00081,2
5293,5442,-5e-05,0.00011999999999999999,-9e-05,-0.00086,-1e-05,0.0001,0.00055,-0.00081,2
5294,5443,-5e-05,0.00011999999999999999,-9e-05,-0.00086,-1e-05,0.0001,0.00055,-0.00081,2
5295,5444,-0.00028,-0.00022999999999999998,-0.0009199999999999999,-0.00061,-0.00027,8e-05,0.00047000000000000004,0.0005099999999999999,2
5296,5445,-0.00028,-0.00022999999999999998,-0.0009199999999999999,-0.00061,-0.00027,8e-05,0.00047000000000000004,0.0005099999999999999,2
5297,5446,-0.00028,-0.00022999999999999998,-0.0009199999999999999,-0.00061,-0.00027,8e-05,0.00047000000000000004,0.0005099999999999999,2
5298,5447,-0.00028,-0.00022999999999999998,-0.0009199999999999999,-0.00061,-0.00027,8e-05,0.00047000000000000004,0.0005099999999999999,2
5299,5448,-0.00028,-0.00022999999999999998,-0.0009199999999999999,-0.00061,-0.00027,8e-05,0.00047000000000000004,0.0005099999999999999,2
5300,5449,-0.00028,-0.00022999999999999998,-0.0009199999999999999,-0.00061,-0.00027,8e-05,0.00047000000000000004,0.0005099999999999999,2
5301,5450,-0.00028,-0.00022999999999999998,-0.0009199999999999999,-0.00061,-0.00027,8e-05,0.00047000000000000004,0.0005099999999999999,2
5302,5451,-0.00028,-0.00022999999999999998,-0.0009199999999999999,-0.00061,-0.00027,8e-05,0.00047000000000000004,0.0005099999999999999,2
5303,5452,-0.00028,-0.00022999999999999998,-0.0009199999999999999,-0.00061,-0.00027,8e-05,0.00047000000000000004,0.0005099999999999999,2
5304,5453,7e-05,-0.00022999999999999998,-0.00037,-0.00011,0.00031,0.0005200000000000001,-4e-05,0.00029,2
5305,5454,7e-05,-0.00022999999999999998,-0.00037,-0.00011,0.00031,0.0005200000000000001,-4e-05,0.00029,2
5306,5455,7e-05,-0.00022999999999999998,-0.00037,-0.00011,0.00031,0.0005200000000000001,-4e-05,0.00029,2
5307,5456,7e-05,-0.00022999999999999998,-0.00037,-0.00011,0.00031,0.0005200000000000001,-4e-05,0.00029,2
5308,5457,7e-05,-0.00022999999999999998,-0.00037,-0.00011,0.00031,0.0005200000000000001,-4e-05,0.00029,2
5309,5458,7e-05,-0.00022999999999999998,-0.00037,-0.00011,0.00031,0.0005200000000000001,-4e-05,0.00029,2
5310,5459,7e-05,-0.00022999999999999998,-0.00037,-0.00011,0.00031,0.0005200000000000001,-4e-05,0.00029,2
5311,5460,7e-05,-0.00022999999999999998,-0.00037,-0.00011,0.00031,0.0005200000000000001,-4e-05,0.00029,2
5312,5462,7e-05,-0.00022999999999999998,-0.00037,-0.00011,0.00031,0.0005200000000000001,-4e-05,0.00029,2
5313,5463,7e-05,-0.00022999999999999998,-0.00037,-0.00011,0.00031,0.0005200000000000001,-4e-05,0.00029,2
5314,5464,7e-05,-0.00022999999999999998,-0.00037,-0.00011,0.00031,0.0005200000000000001,-4e-05,0.00029,2
5315,5465,7e-05,-0.00022999999999999998,-0.00037,-0.00011,0.00031,0.0005200000000000001,-4e-05,0.00029,2
5316,5466,7e-05,-0.00022999999999999998,-0.00037,-0.00011,0.00031,0.0005200000000000001,-4e-05,0.00029,2
5317,5467,7e-05,-0.00022999999999999998,-0.00037,-0.00011,0.00031,0.0005200000000000001,-4e-05,0.00029,2
5318,5468,0.0005,0.0,0.00047000000000000004,0.00074,0.00029,0.00045,0.00021,0.00063,2
5319,5469,0.00033999999999999997,0.0,-7e-05,0.00016,-0.00014,-0.00063,-2e-05,0.00107,2
5320,5470,0.00033999999999999997,0.0,-7e-05,0.00016,-0.00014,-0.00063,-2e-05,0.00107,2
5321,5471,0.00033999999999999997,0.0,-7e-05,0.00016,-0.00014,-0.00063,-2e-05,0.00107,2
5322,5472,0.00033999999999999997,0.0,-7e-05,0.00016,-0.00014,-0.00063,-2e-05,0.00107,2
5323,5473,0.00033999999999999997,0.0,-7e-05,0.00016,-0.00014,-0.00063,-2e-05,0.00107,2
5324,5474,0.00033999999999999997,0.0,-7e-05,0.00016,-0.00014,-0.00063,-2e-05,0.00107,2
5325,5475,0.00033999999999999997,0.0,-7e-05,0.00016,-0.00014,-0.00063,-2e-05,0.00107,2
5326,5476,0.00033999999999999997,0.0,-7e-05,0.00016,-0.00014,-0.00063,-2e-05,0.00107,2
5327,5477,0.00033999999999999997,0.0,-7e-05,0.00016,-0.00014,-0.00063,-2e-05,0.00107,2
5328,5478,0.00033999999999999997,0.0,-7e-05,0.00016,-0.00014,-0.00063,-2e-05,0.00107,2
5329,5479,0.00033999999999999997,0.0,-7e-05,0.00016,-0.00014,-0.00063,-2e-05,0.00107,2
5330,5480,0.00033999999999999997,0.0,-7e-05,0.00016,-0.00014,-0.00063,-2e-05,0.00107,2
5331,5481,0.00033999999999999997,0.0,-7e-05,0.00016,-0.00014,-0.00063,-2e-05,0.00107,2
5332,5482,0.00033999999999999997,0.0,-7e-05,0.00016,-0.00014,-0.00063,-2e-05,0.00107,2
5333,5483,0.00033999999999999997,0.0,-7e-05,0.00016,-0.00014,-0.00063,-2e-05,0.00107,2
5334,5484,0.00033999999999999997,0.0,-7e-05,0.00016,-0.00014,-0.00063,-2e-05,0.00107,2
5335,5485,0.00033999999999999997,0.0,-7e-05,0.00016,-0.00014,-0.00063,-2e-05,0.00107,2
5336,5486,0.00033999999999999997,0.0,-7e-05,0.00016,-0.00014,-0.00063,-2e-05,0.00107,2
5337,5488,0.00033999999999999997,0.0,-7e-05,0.00016,-0.00014,-0.00063,-2e-05,0.00107,2
5338,5489,0.00033999999999999997,0.0,-7e-05,0.00016,-0.00014,-0.00063,-2e-05,0.00107,2
5339,5490,0.00013000000000000002,0.00016,-0.00016,-0.00027,0.00047000000000000004,-0.00041,-0.00036,5.9999999999999995e-05,2
5340,5491,0.00013000000000000002,0.00016,-0.00016,-0.00027,0.00047000000000000004,-0.00041,-0.00036,5.9999999999999995e-05,2
5341,5492,0.00026000000000000003,0.0001,0.00036,0.0006799999999999999,0.00015,0.00023999999999999998,0.00018,5e-05,2
5342,5493,0.00026000000000000003,0.0001,0.00036,0.0006799999999999999,0.00015,0.00023999999999999998,0.00018,5e-05,2
5343,5494,0.00026000000000000003,0.0001,0.00036,0.0006799999999999999,0.00015,0.00023999999999999998,0.00018,5e-05,2
5344,5495,0.00026000000000000003,0.0001,0.00036,0.0006799999999999999,0.00015,0.00023999999999999998,0.00018,5e-05,2
5345,5496,0.00026000000000000003,0.0001,0.00036,0.0006799999999999999,0.00015,0.00023999999999999998,0.00018,5e-05,2
5346,5497,0.00026000000000000003,0.0001,0.00036,0.0006799999999999999,0.00015,0.00023999999999999998,0.00018,5e-05,2
5347,5498,0.00026000000000000003,0.0001,0.00036,0.0006799999999999999,0.00015,0.00023999999999999998,0.00018,5e-05,2
5348,5499,0.00026000000000000003,0.0001,0.00036,0.0006799999999999999,0.00015,0.00023999999999999998,0.00018,5e-05,2
5349,5500,0.00026000000000000003,0.0001,0.00036,0.0006799999999999999,0.00015,0.00023999999999999998,0.00018,5e-05,2
5350,5501,0.00026000000000000003,0.0001,0.00036,0.0006799999999999999,0.00015,0.00023999999999999998,0.00018,5e-05,2
5351,5502,0.00026000000000000003,0.0001,0.00036,0.0006799999999999999,0.00015,0.00023999999999999998,0.00018,5e-05,2
5352,5503,0.00026000000000000003,0.0001,0.00036,0.0006799999999999999,0.00015,0.00023999999999999998,0.00018,5e-05,2
5353,5504,-8e-05,-1e-05,0.0,0.00045999999999999996,-0.00015,5.9999999999999995e-05,0.00043,5.9999999999999995e-05,2
5354,5505,-8e-05,-1e-05,0.0,0.00045999999999999996,-0.00015,5.9999999999999995e-05,0.00043,5.9999999999999995e-05,2
5355,5506,-8e-05,-1e-05,0.0,0.00045999999999999996,-0.00015,5.9999999999999995e-05,0.00043,5.9999999999999995e-05,2
5356,5507,-8e-05,-1e-05,0.0,0.00045999999999999996,-0.00015,5.9999999999999995e-05,0.00043,5.9999999999999995e-05,2
5357,5508,-8e-05,-1e-05,0.0,0.00045999999999999996,-0.00015,5.9999999999999995e-05,0.00043,5.9999999999999995e-05,2
5358,5510,-8e-05,-1e-05,0.0,0.00045999999999999996,-0.00015,5.9999999999999995e-05,0.00043,5.9999999999999995e-05,2
5359,5511,-8e-05,-1e-05,0.0,0.00045999999999999996,-0.00015,5.9999999999999995e-05,0.00043,5.9999999999999995e-05,2
5360,5512,-8e-05,-1e-05,0.0,0.00045999999999999996,-0.00015,5.9999999999999995e-05,0.00043,5.9999999999999995e-05,2
5361,5513,0.00016,-2e-05,1e-05,-0.00015,-0.00011999999999999999,-0.0002,-0.00073,0.00027,2
5362,5514,0.00016,-2e-05,1e-05,-0.00015,-0.00011999999999999999,-0.0002,-0.00073,0.00027,2
5363,5515,0.00016,-2e-05,1e-05,-0.00015,-0.00011999999999999999,-0.0002,-0.00073,0.00027,2
5364,5516,0.00016,-2e-05,1e-05,-0.00015,-0.00011999999999999999,-0.0002,-0.00073,0.00027,2
5365,5517,0.00016,-2e-05,1e-05,-0.00015,-0.00011999999999999999,-0.0002,-0.00073,0.00027,2
5366,5518,0.00016,-2e-05,1e-05,-0.00015,-0.00011999999999999999,-0.0002,-0.00073,0.00027,2
5367,5519,0.00016,-2e-05,1e-05,-0.00015,-0.00011999999999999999,-0.0002,-0.00073,0.00027,2
5368,5520,0.00016,-2e-05,1e-05,-0.00015,-0.00011999999999999999,-0.0002,-0.00073,0.00027,2
5369,5521,0.00016,-2e-05,1e-05,-0.00015,-0.00011999999999999999,-0.0002,-0.00073,0.00027,2
5370,5522,0.00016,-2e-05,1e-05,-0.00015,-0.00011999999999999999,-0.0002,-0.00073,0.00027,2
5371,5523,0.00016,-2e-05,1e-05,-0.00015,-0.00011999999999999999,-0.0002,-0.00073,0.00027,2
5372,5524,0.00016,-2e-05,1e-05,-0.00015,-0.00011999999999999999,-0.0002,-0.00073,0.00027,2
5373,5525,0.00016,-2e-05,1e-05,-0.00015,-0.00011999999999999999,-0.0002,-0.00073,0.00027,2
5374,5526,0.00016,-2e-05,1e-05,-0.00015,-0.00011999999999999999,-0.0002,-0.00073,0.00027,2
5375,5527,0.00016,-2e-05,1e-05,-0.00015,-0.00011999999999999999,-0.0002,-0.00073,0.00027,2
5376,5528,0.0001,2e-05,-0.00047999999999999996,-0.00079,0.00023999999999999998,0.00033,0.00029,-0.00067,2
5377,5529,-0.00016999999999999999,-2.9999999999999997e-05,0.00027,0.0009400000000000001,-5.9999999999999995e-05,-2e-05,-0.00022999999999999998,0.0006,2
5378,5530,-0.00016999999999999999,-2.9999999999999997e-05,0.00027,0.0009400000000000001,-5.9999999999999995e-05,-2e-05,-0.00022999999999999998,0.0006,2
5379,5531,-0.00016999999999999999,-2.9999999999999997e-05,0.00027,0.0009400000000000001,-5.9999999999999995e-05,-2e-05,-0.00022999999999999998,0.0006,2
5380,5532,-0.00016999999999999999,-2.9999999999999997e-05,0.00027,0.0009400000000000001,-5.9999999999999995e-05,-2e-05,-0.00022999999999999998,0.0006,2
5381,5533,-0.00016999999999999999,-2.9999999999999997e-05,0.00027,0.0009400000000000001,-5.9999999999999995e-05,-2e-05,-0.00022999999999999998,0.0006,2
5382,5534,-0.00016999999999999999,-2.9999999999999997e-05,0.00027,0.0009400000000000001,-5.9999999999999995e-05,-2e-05,-0.00022999999999999998,0.0006,2
5383,5535,-0.00016999999999999999,-2.9999999999999997e-05,0.00027,0.0009400000000000001,-5.9999999999999995e-05,-2e-05,-0.00022999999999999998,0.0006,2
5384,5536,-0.00016999999999999999,-2.9999999999999997e-05,0.00027,0.0009400000000000001,-5.9999999999999995e-05,-2e-05,-0.00022999999999999998,0.0006,2
5385,5538,-0.00016999999999999999,-2.9999999999999997e-05,0.00027,0.0009400000000000001,-5.9999999999999995e-05,-2e-05,-0.00022999999999999998,0.0006,2
5386,5539,-0.00016999999999999999,-2.9999999999999997e-05,0.00027,0.0009400000000000001,-5.9999999999999995e-05,-2e-05,-0.00022999999999999998,0.0006,2
5387,5540,-0.00016999999999999999,-2.9999999999999997e-05,0.00027,0.0009400000000000001,-5.9999999999999995e-05,-2e-05,-0.00022999999999999998,0.0006,2
5388,5541,-0.00016999999999999999,-2.9999999999999997e-05,0.00027,0.0009400000000000001,-5.9999999999999995e-05,-2e-05,-0.00022999999999999998,0.0006,2
5389,5542,-0.00016999999999999999,-2.9999999999999997e-05,0.00027,0.0009400000000000001,-5.9999999999999995e-05,-2e-05,-0.00022999999999999998,0.0006,2
5390,5543,-0.00016999999999999999,-2.9999999999999997e-05,0.00027,0.0009400000000000001,-5.9999999999999995e-05,-2e-05,-0.00022999999999999998,0.0006,2
5391,5544,-0.00016999999999999999,-2.9999999999999997e-05,0.00027,0.0009400000000000001,-5.9999999999999995e-05,-2e-05,-0.00022999999999999998,0.0006,2
5392,5545,-0.00016999999999999999,-2.9999999999999997e-05,0.00027,0.0009400000000000001,-5.9999999999999995e-05,-2e-05,-0.00022999999999999998,0.0006,2
5393,5546,-0.00016999999999999999,-2.9999999999999997e-05,0.00027,0.0009400000000000001,-5.9999999999999995e-05,-2e-05,-0.00022999999999999998,0.0006,2
5394,5547,-0.00016999999999999999,-2.9999999999999997e-05,0.00027,0.0009400000000000001,-5.9999999999999995e-05,-2e-05,-0.00022999999999999998,0.0006,2
5395,5548,-0.00016999999999999999,-2.9999999999999997e-05,0.00027,0.0009400000000000001,-5.9999999999999995e-05,-2e-05,-0.00022999999999999998,0.0006,2
5396,5549,-0.00016999999999999999,-2.9999999999999997e-05,0.00027,0.0009400000000000001,-5.9999999999999995e-05,-2e-05,-0.00022999999999999998,0.0006,2
5397,5550,-0.00015,-5.9999999999999995e-05,0.00033,-0.00016999999999999999,-0.00018,-0.00079,-0.00036,0.00062,2
5398,5551,-0.00015,-5.9999999999999995e-05,0.00033,-0.00016999999999999999,-0.00018,-0.00079,-0.00036,0.00062,2
5399,5552,-0.0003,-0.00018999999999999998,-0.00022999999999999998,-0.00074,-0.0004,-0.0007099999999999999,7e-05,0.00013000000000000002,2
5400,5553,-0.0003,-0.00018999999999999998,-0.00022999999999999998,-0.00074,-0.0004,-0.0007099999999999999,7e-05,0.00013000000000000002,2
5401,5554,-0.0003,-0.00018999999999999998,-0.00022999999999999998,-0.00074,-0.0004,-0.0007099999999999999,7e-05,0.00013000000000000002,2
5402,5556,-0.0003,-0.00018999999999999998,-0.00022999999999999998,-0.00074,-0.0004,-0.0007099999999999999,7e-05,0.00013000000000000002,2
5403,5557,-0.0003,-0.00018999999999999998,-0.00022999999999999998,-0.00074,-0.0004,-0.0007099999999999999,7e-05,0.00013000000000000002,2
5404,5558,-0.0003,-0.00018999999999999998,-0.00022999999999999998,-0.00074,-0.0004,-0.0007099999999999999,7e-05,0.00013000000000000002,2
5405,5559,-0.0003,-0.00018999999999999998,-0.00022999999999999998,-0.00074,-0.0004,-0.0007099999999999999,7e-05,0.00013000000000000002,2
5406,5560,-0.0003,-0.00018999999999999998,-0.00022999999999999998,-0.00074,-0.0004,-0.0007099999999999999,7e-05,0.00013000000000000002,2
5407,5561,-0.0003,-0.00018999999999999998,-0.00022999999999999998,-0.00074,-0.0004,-0.0007099999999999999,7e-05,0.00013000000000000002,2
5408,5562,-0.0003,-0.00018999999999999998,-0.00022999999999999998,-0.00074,-0.0004,-0.0007099999999999999,7e-05,0.00013000000000000002,2
5409,5563,-0.0003,-0.00018999999999999998,-0.00022999999999999998,-0.00074,-0.0004,-0.0007099999999999999,7e-05,0.00013000000000000002,2
5410,5564,0.00014,5e-05,0.00014,-1e-05,-0.00044,-1e-05,-0.00047999999999999996,5.9999999999999995e-05,2
5411,5565,0.00014,5e-05,0.00014,-1e-05,-0.00044,-1e-05,-0.00047999999999999996,5.9999999999999995e-05,2
5412,5566,0.00014,5e-05,0.00014,-1e-05,-0.00044,-1e-05,-0.00047999999999999996,5.9999999999999995e-05,2
5413,5567,0.00014,5e-05,0.00014,-1e-05,-0.00044,-1e-05,-0.00047999999999999996,5.9999999999999995e-05,2
5414,5568,0.00014,5e-05,0.00014,-1e-05,-0.00044,-1e-05,-0.00047999999999999996,5.9999999999999995e-05,2
5415,5569,0.00014,5e-05,0.00014,-1e-05,-0.00044,-1e-05,-0.00047999999999999996,5.9999999999999995e-05,2
5416,5570,0.00014,5e-05,0.00014,-1e-05,-0.00044,-1e-05,-0.00047999999999999996,5.9999999999999995e-05,2
5417,5571,0.00014,5e-05,0.00014,-1e-05,-0.00044,-1e-05,-0.00047999999999999996,5.9999999999999995e-05,2
5418,5572,0.00014,5e-05,0.00014,-1e-05,-0.00044,-1e-05,-0.00047999999999999996,5.9999999999999995e-05,2
5419,5573,0.00013000000000000002,-0.00028,-0.00018999999999999998,0.00056,0.00036,0.0006799999999999999,0.00022999999999999998,0.0001,2
5420,5574,0.00013000000000000002,-0.00028,-0.00018999999999999998,0.00056,0.00036,0.0006799999999999999,0.00022999999999999998,0.0001,2
5421,5575,0.00013000000000000002,-0.00028,-0.00018999999999999998,0.00056,0.00036,0.0006799999999999999,0.00022999999999999998,0.0001,2
5422,5576,0.00013000000000000002,-0.00028,-0.00018999999999999998,0.00056,0.00036,0.0006799999999999999,0.00022999999999999998,0.0001,2
5423,5577,0.00013000000000000002,-0.00028,-0.00018999999999999998,0.00056,0.00036,0.0006799999999999999,0.00022999999999999998,0.0001,2
5424,5578,0.00013000000000000002,-0.00028,-0.00018999999999999998,0.00056,0.00036,0.0006799999999999999,0.00022999999999999998,0.0001,2
5425,5579,0.00013000000000000002,-0.00028,-0.00018999999999999998,0.00056,0.00036,0.0006799999999999999,0.00022999999999999998,0.0001,2
5426,5580,0.00013000000000000002,-0.00028,-0.00018999999999999998,0.00056,0.00036,0.0006799999999999999,0.00022999999999999998,0.0001,2
5427,5581,0.00013000000000000002,-0.00028,-0.00018999999999999998,0.00056,0.00036,0.0006799999999999999,0.00022999999999999998,0.0001,2
5428,5582,0.00013000000000000002,-0.00028,-0.00018999999999999998,0.00056,0.00036,0.0006799999999999999,0.00022999999999999998,0.0001,2
5429,5583,0.00013000000000000002,-0.00028,-0.00018999999999999998,0.00056,0.00036,0.0006799999999999999,0.00022999999999999998,0.0001,2
5430,5584,0.00013000000000000002,-0.00028,-0.00018999999999999998,0.00056,0.00036,0.0006799999999999999,0.00022999999999999998,0.0001,2
5431,5585,0.00013000000000000002,-0.00028,-0.00018999999999999998,0.00056,0.00036,0.0006799999999999999,0.00022999999999999998,0.0001,2
5432,5586,0.00013000000000000002,-0.00028,-0.00018999999999999998,0.00056,0.00036,0.0006799999999999999,0.00022999999999999998,0.0001,2
5433,5588,0.00013000000000000002,-0.00028,-0.00018999999999999998,0.00056,0.00036,0.0006799999999999999,0.00022999999999999998,0.0001,2
5434,5589,0.00013000000000000002,-0.00028,-0.00018999999999999998,0.00056,0.00036,0.0006799999999999999,0.00022999999999999998,0.0001,2
5435,5590,0.00013000000000000002,-0.00028,-0.00018999999999999998,0.00056,0.00036,0.0006799999999999999,0.00022999999999999998,0.0001,2
5436,5591,-5.9999999999999995e-05,0.00016,0.0002,1e-05,-0.00016,-5e-05,-0.00015,0.00029,2
5437,5592,-5.9999999999999995e-05,0.00016,0.0002,1e-05,-0.00016,-5e-05,-0.00015,0.00029,2
5438,5593,-5.9999999999999995e-05,0.00016,0.0002,1e-05,-0.00016,-5e-05,-0.00015,0.00029,2
5439,5594,-5.9999999999999995e-05,0.00016,0.0002,1e-05,-0.00016,-5e-05,-0.00015,0.00029,2
5440,5595,-5.9999999999999995e-05,0.00016,0.0002,1e-05,-0.00016,-5e-05,-0.00015,0.00029,2
5441,5596,-5.9999999999999995e-05,0.00016,0.0002,1e-05,-0.00016,-5e-05,-0.00015,0.00029,2
5442,5597,-5.9999999999999995e-05,0.00016,0.0002,1e-05,-0.00016,-5e-05,-0.00015,0.00029,2
5443,5598,-5.9999999999999995e-05,0.00016,0.0002,1e-05,-0.00016,-5e-05,-0.00015,0.00029,2
5444,5599,-5.9999999999999995e-05,0.00016,0.0002,1e-05,-0.00016,-5e-05,-0.00015,0.00029,2
5445,5600,-5.9999999999999995e-05,0.00016,0.0002,1e-05,-0.00016,-5e-05,-0.00015,0.00029,2
5446,5602,-5.9999999999999995e-05,0.00016,0.0002,1e-05,-0.00016,-5e-05,-0.00015,0.00029,2
5447,5603,-5.9999999999999995e-05,0.00016,0.0002,1e-05,-0.00016,-5e-05,-0.00015,0.00029,2
5448,5604,-5.9999999999999995e-05,0.00016,0.0002,1e-05,-0.00016,-5e-05,-0.00015,0.00029,2
5449,5605,-5.9999999999999995e-05,0.00016,0.0002,1e-05,-0.00016,-5e-05,-0.00015,0.00029,2
5450,5606,-5.9999999999999995e-05,0.00016,0.0002,1e-05,-0.00016,-5e-05,-0.00015,0.00029,2
5451,5607,-5.9999999999999995e-05,0.00016,0.0002,1e-05,-0.00016,-5e-05,-0.00015,0.00029,2
5452,5608,-5.9999999999999995e-05,0.00016,0.0002,1e-05,-0.00016,-5e-05,-0.00015,0.00029,2
5453,5609,-5.9999999999999995e-05,0.00016,0.0002,1e-05,-0.00016,-5e-05,-0.00015,0.00029,2
5454,5610,0.00045,0.0002,7e-05,0.00029,0.0005099999999999999,-0.00035,-0.00053,-0.00029,2
5455,5611,0.00045,0.0002,7e-05,0.00029,0.0005099999999999999,-0.00035,-0.00053,-0.00029,2
5456,5612,0.00049,0.00011999999999999999,0.00026000000000000003,-0.0001,0.00015,0.0006,0.00058,0.00022,2
5457,5613,0.00049,0.00011999999999999999,0.00026000000000000003,-0.0001,0.00015,0.0006,0.00058,0.00022,2
5458,5614,0.00049,0.00011999999999999999,0.00026000000000000003,-0.0001,0.00015,0.0006,0.00058,0.00022,2
5459,5615,0.00049,0.00011999999999999999,0.00026000000000000003,-0.0001,0.00015,0.0006,0.00058,0.00022,2
5460,5616,0.00049,0.00011999999999999999,0.00026000000000000003,-0.0001,0.00015,0.0006,0.00058,0.00022,2
5461,5617,0.00049,0.00011999999999999999,0.00026000000000000003,-0.0001,0.00015,0.0006,0.00058,0.00022,2
5462,5618,0.00049,0.00011999999999999999,0.00026000000000000003,-0.0001,0.00015,0.0006,0.00058,0.00022,2
5463,5619,0.00049,0.00011999999999999999,0.00026000000000000003,-0.0001,0.00015,0.0006,0.00058,0.00022,2
5464,5620,0.00049,0.00011999999999999999,0.00026000000000000003,-0.0001,0.00015,0.0006,0.00058,0.00022,2
5465,5621,0.00049,0.00011999999999999999,0.00026000000000000003,-0.0001,0.00015,0.0006,0.00058,0.00022,2
5466,5622,0.00049,0.00011999999999999999,0.00026000000000000003,-0.0001,0.00015,0.0006,0.00058,0.00022,2
5467,5623,0.00049,0.00011999999999999999,0.00026000000000000003,-0.0001,0.00015,0.0006,0.00058,0.00022,2
5468,5624,0.00049,0.00011999999999999999,0.00026000000000000003,-0.0001,0.00015,0.0006,0.00058,0.00022,2
5469,5625,0.00049,0.00011999999999999999,0.00026000000000000003,-0.0001,0.00015,0.0006,0.00058,0.00022,2
5470,5626,0.00049,0.00011999999999999999,0.00026000000000000003,-0.0001,0.00015,0.0006,0.00058,0.00022,2
5471,5627,0.00049,0.00011999999999999999,0.00026000000000000003,-0.0001,0.00015,0.0006,0.00058,0.00022,2
5472,5628,0.00049,0.00011999999999999999,0.00026000000000000003,-0.0001,0.00015,0.0006,0.00058,0.00022,2
5473,5629,0.00049,0.00011999999999999999,0.00026000000000000003,-0.0001,0.00015,0.0006,0.00058,0.00022,2
5474,5630,0.00049,0.00011999999999999999,0.00026000000000000003,-0.0001,0.00015,0.0006,0.00058,0.00022,2
5475,5631,0.00049,0.00011999999999999999,0.00026000000000000003,-0.0001,0.00015,0.0006,0.00058,0.00022,2
5476,5632,0.00049,0.00011999999999999999,0.00026000000000000003,-0.0001,0.00015,0.0006,0.00058,0.00022,2
5477,5633,-0.00045,-5e-05,0.0005099999999999999,0.00084,-0.0003,-0.00031,0.00032,0.00023999999999999998,2
5478,5634,-1e-05,-5.9999999999999995e-05,-0.0003,-0.00022,-0.00016,-0.00022,4e-05,-0.00011,2
5479,5635,-1e-05,-5.9999999999999995e-05,-0.0003,-0.00022,-0.00016,-0.00022,4e-05,-0.00011,2
5480,5636,-1e-05,-5.9999999999999995e-05,-0.0003,-0.00022,-0.00016,-0.00022,4e-05,-0.00011,2
5481,5638,-1e-05,-5.9999999999999995e-05,-0.0003,-0.00022,-0.00016,-0.00022,4e-05,-0.00011,2
5482,5639,-1e-05,-5.9999999999999995e-05,-0.0003,-0.00022,-0.00016,-0.00022,4e-05,-0.00011,2
5483,5640,-1e-05,-5.9999999999999995e-05,-0.0003,-0.00022,-0.00016,-0.00022,4e-05,-0.00011,2
5484,5641,-1e-05,-5.9999999999999995e-05,-0.0003,-0.00022,-0.00016,-0.00022,4e-05,-0.00011,2
5485,5642,-1e-05,-5.9999999999999995e-05,-0.0003,-0.00022,-0.00016,-0.00022,4e-05,-0.00011,2
5486,5643,-1e-05,-5.9999999999999995e-05,-0.0003,-0.00022,-0.00016,-0.00022,4e-05,-0.00011,2
5487,5644,-1e-05,-5.9999999999999995e-05,-0.0003,-0.00022,-0.00016,-0.00022,4e-05,-0.00011,2
5488,5645,-1e-05,-5.9999999999999995e-05,-0.0003,-0.00022,-0.00016,-0.00022,4e-05,-0.00011,2
5489,5646,-1e-05,-5.9999999999999995e-05,-0.0003,-0.00022,-0.00016,-0.00022,4e-05,-0.00011,2
5490,5647,-1e-05,-5.9999999999999995e-05,-0.0003,-0.00022,-0.00016,-0.00022,4e-05,-0.00011,2
5491,5649,-1e-05,-5.9999999999999995e-05,-0.0003,-0.00022,-0.00016,-0.00022,4e-05,-0.00011,2
5492,5650,0.00011,-8e-05,2e-05,0.00036,5.9999999999999995e-05,-0.00027,-2e-05,0.00063,2
5493,5651,0.00011,-8e-05,2e-05,0.00036,5.9999999999999995e-05,-0.00027,-2e-05,0.00063,2
5494,5652,0.00011,-8e-05,2e-05,0.00036,5.9999999999999995e-05,-0.00027,-2e-05,0.00063,2
5495,5653,0.00011,-8e-05,2e-05,0.00036,5.9999999999999995e-05,-0.00027,-2e-05,0.00063,2
5496,5654,0.00011,-8e-05,2e-05,0.00036,5.9999999999999995e-05,-0.00027,-2e-05,0.00063,2
5497,5655,0.00011,-8e-05,2e-05,0.00036,5.9999999999999995e-05,-0.00027,-2e-05,0.00063,2
5498,5656,0.00011,-8e-05,2e-05,0.00036,5.9999999999999995e-05,-0.00027,-2e-05,0.00063,2
5499,5657,0.00011,-8e-05,2e-05,0.00036,5.9999999999999995e-05,-0.00027,-2e-05,0.00063,2
5500,5658,0.00011,-8e-05,2e-05,0.00036,5.9999999999999995e-05,-0.00027,-2e-05,0.00063,2
5501,5659,0.00011,-8e-05,2e-05,0.00036,5.9999999999999995e-05,-0.00027,-2e-05,0.00063,2
5502,5660,0.00011,-8e-05,2e-05,0.00036,5.9999999999999995e-05,-0.00027,-2e-05,0.00063,2
5503,5661,0.00011,-8e-05,2e-05,0.00036,5.9999999999999995e-05,-0.00027,-2e-05,0.00063,2
5504,5662,0.00011,-8e-05,2e-05,0.00036,5.9999999999999995e-05,-0.00027,-2e-05,0.00063,2
5505,5663,0.00011,-8e-05,2e-05,0.00036,5.9999999999999995e-05,-0.00027,-2e-05,0.00063,2
5506,5664,0.00011,-8e-05,2e-05,0.00036,5.9999999999999995e-05,-0.00027,-2e-05,0.00063,2
5507,5665,0.00011,-8e-05,2e-05,0.00036,5.9999999999999995e-05,-0.00027,-2e-05,0.00063,2
5508,5666,0.00011,-8e-05,2e-05,0.00036,5.9999999999999995e-05,-0.00027,-2e-05,0.00063,2
5509,5667,0.00011,-8e-05,2e-05,0.00036,5.9999999999999995e-05,-0.00027,-2e-05,0.00063,2
5510,5668,0.00011,-8e-05,2e-05,0.00036,5.9999999999999995e-05,-0.00027,-2e-05,0.00063,2
5511,5669,0.00011,-8e-05,2e-05,0.00036,5.9999999999999995e-05,-0.00027,-2e-05,0.00063,2
5512,5670,-0.00088,-0.00031,-0.00033999999999999997,-0.00078,-0.00014,0.00043,-0.0006799999999999999,-0.00067,2
5513,5671,-0.00088,-0.00031,-0.00033999999999999997,-0.00078,-0.00014,0.00043,-0.0006799999999999999,-0.00067,2
5514,5672,0.00015,8e-05,-0.00016999999999999999,-0.00057,-0.00022999999999999998,5e-05,0.00018999999999999998,0.0003,2
5515,5673,0.00015,8e-05,-0.00016999999999999999,-0.00057,-0.00022999999999999998,5e-05,0.00018999999999999998,0.0003,2
5516,5674,0.00015,8e-05,-0.00016999999999999999,-0.00057,-0.00022999999999999998,5e-05,0.00018999999999999998,0.0003,2
5517,5675,0.00015,8e-05,-0.00016999999999999999,-0.00057,-0.00022999999999999998,5e-05,0.00018999999999999998,0.0003,2
5518,5676,0.00015,8e-05,-0.00016999999999999999,-0.00057,-0.00022999999999999998,5e-05,0.00018999999999999998,0.0003,2
5519,5677,0.00015,8e-05,-0.00016999999999999999,-0.00057,-0.00022999999999999998,5e-05,0.00018999999999999998,0.0003,2
5520,5678,0.00015,8e-05,-0.00016999999999999999,-0.00057,-0.00022999999999999998,5e-05,0.00018999999999999998,0.0003,2
5521,5679,0.00015,8e-05,-0.00016999999999999999,-0.00057,-0.00022999999999999998,5e-05,0.00018999999999999998,0.0003,2
5522,5680,0.00015,8e-05,-0.00016999999999999999,-0.00057,-0.00022999999999999998,5e-05,0.00018999999999999998,0.0003,2
5523,5681,0.00015,8e-05,-0.00016999999999999999,-0.00057,-0.00022999999999999998,5e-05,0.00018999999999999998,0.0003,2
5524,5682,0.00015,8e-05,-0.00016999999999999999,-0.00057,-0.00022999999999999998,5e-05,0.00018999999999999998,0.0003,2
5525,5683,0.00015,8e-05,-0.00016999999999999999,-0.00057,-0.00022999999999999998,5e-05,0.00018999999999999998,0.0003,2
5526,5684,0.00015,8e-05,-0.00016999999999999999,-0.00057,-0.00022999999999999998,5e-05,0.00018999999999999998,0.0003,2
5527,5685,0.00015,8e-05,-0.00016999999999999999,-0.00057,-0.00022999999999999998,5e-05,0.00018999999999999998,0.0003,2
5528,5686,0.00015,8e-05,-0.00016999999999999999,-0.00057,-0.00022999999999999998,5e-05,0.00018999999999999998,0.0003,2
5529,5688,0.00015,8e-05,-0.00016999999999999999,-0.00057,-0.00022999999999999998,5e-05,0.00018999999999999998,0.0003,2
5530,5689,0.00015,8e-05,-0.00016999999999999999,-0.00057,-0.00022999999999999998,5e-05,0.00018999999999999998,0.0003,2
5531,5690,0.00015,8e-05,-0.00016999999999999999,-0.00057,-0.00022999999999999998,5e-05,0.00018999999999999998,0.0003,2
5532,5691,0.00015,8e-05,-0.00016999999999999999,-0.00057,-0.00022999999999999998,5e-05,0.00018999999999999998,0.0003,2
5533,5692,0.00015,8e-05,-0.00016999999999999999,-0.00057,-0.00022999999999999998,5e-05,0.00018999999999999998,0.0003,2
5534,5693,-0.0004,-1e-05,-0.00011999999999999999,4e-05,-8e-05,-0.00025,0.00011999999999999999,-0.00023999999999999998,2
5535,5694,-0.0004,-1e-05,-0.00011999999999999999,4e-05,-8e-05,-0.00025,0.00011999999999999999,-0.00023999999999999998,2
5536,5696,-0.0004,-1e-05,-0.00011999999999999999,4e-05,-8e-05,-0.00025,0.00011999999999999999,-0.00023999999999999998,2
5537,5697,0.00029,0.00032,0.00033999999999999997,0.00058,0.00032,-0.0005,-0.00022999999999999998,-0.00128,2
5538,5698,0.00029,0.00032,0.00033999999999999997,0.00058,0.00032,-0.0005,-0.00022999999999999998,-0.00128,2
5539,5699,0.00029,0.00032,0.00033999999999999997,0.00058,0.00032,-0.0005,-0.00022999999999999998,-0.00128,2
5540,5700,0.00029,0.00032,0.00033999999999999997,0.00058,0.00032,-0.0005,-0.00022999999999999998,-0.00128,2
5541,5701,0.00029,0.00032,0.00033999999999999997,0.00058,0.00032,-0.0005,-0.00022999999999999998,-0.00128,2
5542,5702,0.00029,0.00032,0.00033999999999999997,0.00058,0.00032,-0.0005,-0.00022999999999999998,-0.00128,2
5543,5703,0.00029,0.00032,0.00033999999999999997,0.00058,0.00032,-0.0005,-0.00022999999999999998,-0.00128,2
5544,5704,0.00029,0.00032,0.00033999999999999997,0.00058,0.00032,-0.0005,-0.00022999999999999998,-0.00128,2
5545,5705,0.00029,0.00032,0.00033999999999999997,0.00058,0.00032,-0.0005,-0.00022999999999999998,-0.00128,2
5546,5706,0.00029,0.00032,0.00033999999999999997,0.00058,0.00032,-0.0005,-0.00022999999999999998,-0.00128,2
5547,5707,0.00029,0.00032,0.00033999999999999997,0.00058,0.00032,-0.0005,-0.00022999999999999998,-0.00128,2
5548,5708,-8e-05,5e-05,-0.00015,-0.00033999999999999997,-0.00016999999999999999,-0.00016,0.0001,-0.0007599999999999999,2
5549,5709,-0.00033999999999999997,-0.00014,-5e-05,-0.0001,-0.00016,-0.0001,-0.0001,0.00022,2
5550,5710,-0.00033999999999999997,-0.00014,-5e-05,-0.0001,-0.00016,-0.0001,-0.0001,0.00022,2
5551,5711,-0.00033999999999999997,-0.00014,-5e-05,-0.0001,-0.00016,-0.0001,-0.0001,0.00022,2
5552,5712,-0.00033999999999999997,-0.00014,-5e-05,-0.0001,-0.00016,-0.0001,-0.0001,0.00022,2
5553,5713,-0.00033999999999999997,-0.00014,-5e-05,-0.0001,-0.00016,-0.0001,-0.0001,0.00022,2
5554,5714,-0.00033999999999999997,-0.00014,-5e-05,-0.0001,-0.00016,-0.0001,-0.0001,0.00022,2
5555,5715,-0.00033999999999999997,-0.00014,-5e-05,-0.0001,-0.00016,-0.0001,-0.0001,0.00022,2
5556,5716,-0.00033999999999999997,-0.00014,-5e-05,-0.0001,-0.00016,-0.0001,-0.0001,0.00022,2
5557,5717,-0.00033999999999999997,-0.00014,-5e-05,-0.0001,-0.00016,-0.0001,-0.0001,0.00022,2
5558,5718,-0.00033999999999999997,-0.00014,-5e-05,-0.0001,-0.00016,-0.0001,-0.0001,0.00022,2
5559,5719,-0.00033999999999999997,-0.00014,-5e-05,-0.0001,-0.00016,-0.0001,-0.0001,0.00022,2
5560,5720,-0.00033999999999999997,-0.00014,-5e-05,-0.0001,-0.00016,-0.0001,-0.0001,0.00022,2
5561,5721,-0.00033999999999999997,-0.00014,-5e-05,-0.0001,-0.00016,-0.0001,-0.0001,0.00022,2
5562,5722,-0.00033999999999999997,-0.00014,-5e-05,-0.0001,-0.00016,-0.0001,-0.0001,0.00022,2
5563,5723,-0.00033999999999999997,-0.00014,-5e-05,-0.0001,-0.00016,-0.0001,-0.0001,0.00022,2
5564,5724,-0.00033999999999999997,-0.00014,-5e-05,-0.0001,-0.00016,-0.0001,-0.0001,0.00022,2
5565,5725,-0.00033999999999999997,-0.00014,-5e-05,-0.0001,-0.00016,-0.0001,-0.0001,0.00022,2
5566,5726,-0.00033999999999999997,-0.00014,-5e-05,-0.0001,-0.00016,-0.0001,-0.0001,0.00022,2
5567,5727,-0.00033999999999999997,-0.00014,-5e-05,-0.0001,-0.00016,-0.0001,-0.0001,0.00022,2
5568,5728,-0.00033999999999999997,-0.00014,-5e-05,-0.0001,-0.00016,-0.0001,-0.0001,0.00022,2
5569,5729,-0.00033999999999999997,-0.00014,-5e-05,-0.0001,-0.00016,-0.0001,-0.0001,0.00022,2
5570,5730,0.00114,0.00025,0.0002,0.0004,0.00016999999999999999,-4e-05,-2.9999999999999997e-05,0.00098,2
5571,5731,0.00114,0.00025,0.0002,0.0004,0.00016999999999999999,-4e-05,-2.9999999999999997e-05,0.00098,2
5572,5732,0.00045,-0.0004,-0.00084,-0.00081,-9e-05,0.00011,-0.00014,-0.00033,2
5573,5733,0.00045,-0.0004,-0.00084,-0.00081,-9e-05,0.00011,-0.00014,-0.00033,2
5574,5734,0.00045,-0.0004,-0.00084,-0.00081,-9e-05,0.00011,-0.00014,-0.00033,2
5575,5735,0.00045,-0.0004,-0.00084,-0.00081,-9e-05,0.00011,-0.00014,-0.00033,2
5576,5736,0.00045,-0.0004,-0.00084,-0.00081,-9e-05,0.00011,-0.00014,-0.00033,2
5577,5738,0.00045,-0.0004,-0.00084,-0.00081,-9e-05,0.00011,-0.00014,-0.00033,2
5578,5739,0.00045,-0.0004,-0.00084,-0.00081,-9e-05,0.00011,-0.00014,-0.00033,2
5579,5740,0.00045,-0.0004,-0.00084,-0.00081,-9e-05,0.00011,-0.00014,-0.00033,2
5580,5741,0.00045,-0.0004,-0.00084,-0.00081,-9e-05,0.00011,-0.00014,-0.00033,2
5581,5742,0.00045,-0.0004,-0.00084,-0.00081,-9e-05,0.00011,-0.00014,-0.00033,2
5582,5745,0.00045,-0.0004,-0.00084,-0.00081,-9e-05,0.00011,-0.00014,-0.00033,2
5583,5746,0.00045,-0.0004,-0.00084,-0.00081,-9e-05,0.00011,-0.00014,-0.00033,2
5584,5747,0.00045,-0.0004,-0.00084,-0.00081,-9e-05,0.00011,-0.00014,-0.00033,2
5585,5748,0.00045,-0.0004,-0.00084,-0.00081,-9e-05,0.00011,-0.00014,-0.00033,2
5586,5749,0.00045,-0.0004,-0.00084,-0.00081,-9e-05,0.00011,-0.00014,-0.00033,2
5587,5750,0.00045,-0.0004,-0.00084,-0.00081,-9e-05,0.00011,-0.00014,-0.00033,2
5588,5751,0.00045,-0.0004,-0.00084,-0.00081,-9e-05,0.00011,-0.00014,-0.00033,2
5589,5752,0.00045,-0.0004,-0.00084,-0.00081,-9e-05,0.00011,-0.00014,-0.00033,2
5590,5753,0.0003,-4e-05,2e-05,-1e-05,0.0002,0.0007599999999999999,0.00025,0.00056,2
5591,5754,0.00018999999999999998,0.00018999999999999998,7e-05,-0.00035,-2.9999999999999997e-05,-0.00033,-0.00055,0.00015,2
5592,5755,0.00018999999999999998,0.00018999999999999998,7e-05,-0.00035,-2.9999999999999997e-05,-0.00033,-0.00055,0.00015,2
5593,5756,0.00018999999999999998,0.00018999999999999998,7e-05,-0.00035,-2.9999999999999997e-05,-0.00033,-0.00055,0.00015,2
5594,5757,0.00018999999999999998,0.00018999999999999998,7e-05,-0.00035,-2.9999999999999997e-05,-0.00033,-0.00055,0.00015,2
5595,5758,0.00018999999999999998,0.00018999999999999998,7e-05,-0.00035,-2.9999999999999997e-05,-0.00033,-0.00055,0.00015,2
5596,5759,0.00018999999999999998,0.00018999999999999998,7e-05,-0.00035,-2.9999999999999997e-05,-0.00033,-0.00055,0.00015,2
5597,5760,0.00018999999999999998,0.00018999999999999998,7e-05,-0.00035,-2.9999999999999997e-05,-0.00033,-0.00055,0.00015,2
5598,5761,0.00018999999999999998,0.00018999999999999998,7e-05,-0.00035,-2.9999999999999997e-05,-0.00033,-0.00055,0.00015,2
5599,5762,0.00018999999999999998,0.00018999999999999998,7e-05,-0.00035,-2.9999999999999997e-05,-0.00033,-0.00055,0.00015,2
5600,5763,0.00018999999999999998,0.00018999999999999998,7e-05,-0.00035,-2.9999999999999997e-05,-0.00033,-0.00055,0.00015,2
5601,5764,0.00018999999999999998,0.00018999999999999998,7e-05,-0.00035,-2.9999999999999997e-05,-0.00033,-0.00055,0.00015,2
5602,5765,0.00018999999999999998,0.00018999999999999998,7e-05,-0.00035,-2.9999999999999997e-05,-0.00033,-0.00055,0.00015,2
5603,5766,0.00018999999999999998,0.00018999999999999998,7e-05,-0.00035,-2.9999999999999997e-05,-0.00033,-0.00055,0.00015,2
5604,5767,0.00018999999999999998,0.00018999999999999998,7e-05,-0.00035,-2.9999999999999997e-05,-0.00033,-0.00055,0.00015,2
5605,5768,0.00041,0.0001,0.00016999999999999999,-8e-05,0.0,0.00056,0.00016999999999999999,0.00055,2
5606,5769,-1e-05,9e-05,0.00027,0.0004,0.00057,0.00055,8e-05,5e-05,2
5607,5770,-1e-05,9e-05,0.00027,0.0004,0.00057,0.00055,8e-05,5e-05,2
5608,5771,-1e-05,9e-05,0.00027,0.0004,0.00057,0.00055,8e-05,5e-05,2
5609,5772,-1e-05,9e-05,0.00027,0.0004,0.00057,0.00055,8e-05,5e-05,2
5610,5773,-1e-05,9e-05,0.00027,0.0004,0.00057,0.00055,8e-05,5e-05,2
5611,5774,-1e-05,9e-05,0.00027,0.0004,0.00057,0.00055,8e-05,5e-05,2
5612,5775,-1e-05,9e-05,0.00027,0.0004,0.00057,0.00055,8e-05,5e-05,2
5613,5776,-1e-05,9e-05,0.00027,0.0004,0.00057,0.00055,8e-05,5e-05,2
5614,5777,-1e-05,9e-05,0.00027,0.0004,0.00057,0.00055,8e-05,5e-05,2
5615,5778,-1e-05,9e-05,0.00027,0.0004,0.00057,0.00055,8e-05,5e-05,2
5616,5779,-1e-05,9e-05,0.00027,0.0004,0.00057,0.00055,8e-05,5e-05,2
5617,5780,-1e-05,9e-05,0.00027,0.0004,0.00057,0.00055,8e-05,5e-05,2
5618,5781,-1e-05,9e-05,0.00027,0.0004,0.00057,0.00055,8e-05,5e-05,2
5619,5782,-1e-05,9e-05,0.00027,0.0004,0.00057,0.00055,8e-05,5e-05,2
5620,5783,-1e-05,9e-05,0.00027,0.0004,0.00057,0.00055,8e-05,5e-05,2
5621,5784,-1e-05,9e-05,0.00027,0.0004,0.00057,0.00055,8e-05,5e-05,2
5622,5785,-1e-05,9e-05,0.00027,0.0004,0.00057,0.00055,8e-05,5e-05,2
5623,5786,-1e-05,9e-05,0.00027,0.0004,0.00057,0.00055,8e-05,5e-05,2
5624,5788,-1e-05,9e-05,0.00027,0.0004,0.00057,0.00055,8e-05,5e-05,2
5625,5790,-1e-05,9e-05,0.00027,0.0004,0.00057,0.00055,8e-05,5e-05,2
5626,5791,4e-05,-4e-05,0.00014,0.0004,-0.00018999999999999998,-0.00073,-0.00022,-5e-05,2
5627,5792,0.00013000000000000002,-0.00011999999999999999,0.00022999999999999998,0.00064,0.0003,0.00037999999999999997,0.0005,1e-05,2
5628,5793,0.00013000000000000002,-0.00011999999999999999,0.00022999999999999998,0.00064,0.0003,0.00037999999999999997,0.0005,1e-05,2
5629,5794,0.00013000000000000002,-0.00011999999999999999,0.00022999999999999998,0.00064,0.0003,0.00037999999999999997,0.0005,1e-05,2
5630,5795,0.00013000000000000002,-0.00011999999999999999,0.00022999999999999998,0.00064,0.0003,0.00037999999999999997,0.0005,1e-05,2
5631,5796,0.00013000000000000002,-0.00011999999999999999,0.00022999999999999998,0.00064,0.0003,0.00037999999999999997,0.0005,1e-05,2
5632,5797,0.00013000000000000002,-0.00011999999999999999,0.00022999999999999998,0.00064,0.0003,0.00037999999999999997,0.0005,1e-05,2
5633,5798,0.00013000000000000002,-0.00011999999999999999,0.00022999999999999998,0.00064,0.0003,0.00037999999999999997,0.0005,1e-05,2
5634,5799,0.00013000000000000002,-0.00011999999999999999,0.00022999999999999998,0.00064,0.0003,0.00037999999999999997,0.0005,1e-05,2
5635,5800,0.00013000000000000002,-0.00011999999999999999,0.00022999999999999998,0.00064,0.0003,0.00037999999999999997,0.0005,1e-05,2
5636,5801,0.00013000000000000002,-0.00011999999999999999,0.00022999999999999998,0.00064,0.0003,0.00037999999999999997,0.0005,1e-05,2
5637,5802,0.00013000000000000002,-0.00011999999999999999,0.00022999999999999998,0.00064,0.0003,0.00037999999999999997,0.0005,1e-05,2
5638,5803,0.00013000000000000002,-0.00011999999999999999,0.00022999999999999998,0.00064,0.0003,0.00037999999999999997,0.0005,1e-05,2
5639,5804,0.00013000000000000002,-0.00011999999999999999,0.00022999999999999998,0.00064,0.0003,0.00037999999999999997,0.0005,1e-05,2
5640,5805,0.00013000000000000002,-0.00011999999999999999,0.00022999999999999998,0.00064,0.0003,0.00037999999999999997,0.0005,1e-05,2
5641,5806,0.00013000000000000002,-0.00011999999999999999,0.00022999999999999998,0.00064,0.0003,0.00037999999999999997,0.0005,1e-05,2
5642,5807,0.00013000000000000002,-0.00011999999999999999,0.00022999999999999998,0.00064,0.0003,0.00037999999999999997,0.0005,1e-05,2
5643,5808,0.00013000000000000002,-0.00011999999999999999,0.00022999999999999998,0.00064,0.0003,0.00037999999999999997,0.0005,1e-05,2
5644,5809,0.00013000000000000002,-0.00011999999999999999,0.00022999999999999998,0.00064,0.0003,0.00037999999999999997,0.0005,1e-05,2
5645,5810,0.00013000000000000002,-0.00011999999999999999,0.00022999999999999998,0.00064,0.0003,0.00037999999999999997,0.0005,1e-05,2
5646,5811,0.00013000000000000002,-0.00011999999999999999,0.00022999999999999998,0.00064,0.0003,0.00037999999999999997,0.0005,1e-05,2
5647,5812,0.00013000000000000002,-0.00011999999999999999,0.00022999999999999998,0.00064,0.0003,0.00037999999999999997,0.0005,1e-05,2
5648,5813,-0.00057,-0.00023999999999999998,9e-05,-9e-05,-0.0009,-0.00032,0.0,0.00045,2
5649,5814,0.0,-5e-05,5e-05,0.00032,5.9999999999999995e-05,2.9999999999999997e-05,0.00018999999999999998,0.00033999999999999997,2
5650,5815,0.0,-5e-05,5e-05,0.00032,5.9999999999999995e-05,2.9999999999999997e-05,0.00018999999999999998,0.00033999999999999997,2
5651,5816,0.0,-5e-05,5e-05,0.00032,5.9999999999999995e-05,2.9999999999999997e-05,0.00018999999999999998,0.00033999999999999997,2
5652,5817,0.0,-5e-05,5e-05,0.00032,5.9999999999999995e-05,2.9999999999999997e-05,0.00018999999999999998,0.00033999999999999997,2
5653,5818,0.0,-5e-05,5e-05,0.00032,5.9999999999999995e-05,2.9999999999999997e-05,0.00018999999999999998,0.00033999999999999997,2
5654,5819,0.0,-5e-05,5e-05,0.00032,5.9999999999999995e-05,2.9999999999999997e-05,0.00018999999999999998,0.00033999999999999997,2
5655,5820,0.0,-5e-05,5e-05,0.00032,5.9999999999999995e-05,2.9999999999999997e-05,0.00018999999999999998,0.00033999999999999997,2
5656,5821,0.0,-5e-05,5e-05,0.00032,5.9999999999999995e-05,2.9999999999999997e-05,0.00018999999999999998,0.00033999999999999997,2
5657,5822,0.0,-5e-05,5e-05,0.00032,5.9999999999999995e-05,2.9999999999999997e-05,0.00018999999999999998,0.00033999999999999997,2
5658,5823,0.0,-5e-05,5e-05,0.00032,5.9999999999999995e-05,2.9999999999999997e-05,0.00018999999999999998,0.00033999999999999997,2
5659,5824,0.0,-5e-05,5e-05,0.00032,5.9999999999999995e-05,2.9999999999999997e-05,0.00018999999999999998,0.00033999999999999997,2
5660,5825,0.0,-5e-05,5e-05,0.00032,5.9999999999999995e-05,2.9999999999999997e-05,0.00018999999999999998,0.00033999999999999997,2
5661,5826,0.0,-5e-05,5e-05,0.00032,5.9999999999999995e-05,2.9999999999999997e-05,0.00018999999999999998,0.00033999999999999997,2
5662,5827,-0.00013000000000000002,-0.00016999999999999999,-0.00078,-0.0009400000000000001,1e-05,-0.00085,7e-05,-5e-05,2
5663,5828,-0.00013000000000000002,-0.00016999999999999999,-0.00078,-0.0009400000000000001,1e-05,-0.00085,7e-05,-5e-05,2
5664,5829,-0.00013000000000000002,-0.00016999999999999999,-0.00078,-0.0009400000000000001,1e-05,-0.00085,7e-05,-5e-05,2
5665,5830,-0.00013000000000000002,-0.00016999999999999999,-0.00078,-0.0009400000000000001,1e-05,-0.00085,7e-05,-5e-05,2
5666,5831,-0.00013000000000000002,-0.00016999999999999999,-0.00078,-0.0009400000000000001,1e-05,-0.00085,7e-05,-5e-05,2
5667,5832,-0.00013000000000000002,-0.00016999999999999999,-0.00078,-0.0009400000000000001,1e-05,-0.00085,7e-05,-5e-05,2
5668,5833,-0.00013000000000000002,-0.00016999999999999999,-0.00078,-0.0009400000000000001,1e-05,-0.00085,7e-05,-5e-05,2
5669,5834,-0.00013000000000000002,-0.00016999999999999999,2e-05,-0.0001,-4e-05,9e-05,-0.00033,-0.00018,2
5670,5835,-0.00013000000000000002,-0.00016999999999999999,2e-05,-0.0001,-4e-05,9e-05,-0.00033,-0.00018,2
5671,5836,-0.00013000000000000002,-0.00016999999999999999,2e-05,-0.0001,-4e-05,9e-05,-0.00033,-0.00018,2
5672,5837,-0.00013000000000000002,-0.00016999999999999999,2e-05,-0.0001,-4e-05,9e-05,-0.00033,-0.00018,2
5673,5839,-0.00013000000000000002,-0.00016999999999999999,2e-05,-0.0001,-4e-05,9e-05,-0.00033,-0.00018,2
5674,5840,-0.00013000000000000002,-0.00016999999999999999,2e-05,-0.0001,-4e-05,9e-05,-0.00033,-0.00018,2
5675,5841,-0.00013000000000000002,-0.00016999999999999999,2e-05,-0.0001,-4e-05,9e-05,-0.00033,-0.00018,2
5676,5842,-0.00013000000000000002,-0.00016999999999999999,2e-05,-0.0001,-4e-05,9e-05,-0.00033,-0.00018,2
5677,5843,-0.00013000000000000002,-0.00016999999999999999,2e-05,-0.0001,-4e-05,9e-05,-0.00033,-0.00018,2
5678,5844,-0.00013000000000000002,-0.00016999999999999999,2e-05,-0.0001,-4e-05,9e-05,-0.00033,-0.00018,2
5679,5845,-0.00013000000000000002,-0.00016999999999999999,2e-05,-0.0001,-4e-05,9e-05,-0.00033,-0.00018,2
5680,5846,-0.00013000000000000002,-0.00016999999999999999,2e-05,-0.0001,-4e-05,9e-05,-0.00033,-0.00018,2
5681,5847,-0.00013000000000000002,-0.00016999999999999999,2e-05,-0.0001,-4e-05,9e-05,-0.00033,-0.00018,2
5682,5848,-0.00013000000000000002,-0.00016999999999999999,2e-05,-0.0001,-4e-05,9e-05,-0.00033,-0.00018,2
5683,5849,-0.00013000000000000002,-0.00016999999999999999,2e-05,-0.0001,-4e-05,9e-05,-0.00033,-0.00018,2
5684,5850,0.00013000000000000002,5e-05,4e-05,0.00025,-7e-05,-0.00037,2e-05,0.0,2
5685,5851,0.00013000000000000002,5e-05,4e-05,0.00025,-7e-05,-0.00037,2e-05,0.0,2
5686,5852,0.00058,1e-05,-0.00018999999999999998,-0.00039,0.00011999999999999999,-5.9999999999999995e-05,0.00033,0.0008,2
5687,5853,0.00058,1e-05,-0.00018999999999999998,-0.00039,0.00011999999999999999,-5.9999999999999995e-05,0.00033,0.0008,2
5688,5854,0.00058,1e-05,-0.00018999999999999998,-0.00039,0.00011999999999999999,-5.9999999999999995e-05,0.00033,0.0008,2
5689,5855,0.00058,1e-05,-0.00018999999999999998,-0.00039,0.00011999999999999999,-5.9999999999999995e-05,0.00033,0.0008,2
5690,5856,0.00058,1e-05,-0.00018999999999999998,-0.00039,0.00011999999999999999,-5.9999999999999995e-05,0.00033,0.0008,2
5691,5857,0.00058,1e-05,-0.00018999999999999998,-0.00039,0.00011999999999999999,-5.9999999999999995e-05,0.00033,0.0008,2
5692,5858,0.00058,1e-05,-0.00018999999999999998,-0.00039,0.00011999999999999999,-5.9999999999999995e-05,0.00033,0.0008,2
5693,5859,0.00058,1e-05,-0.00018999999999999998,-0.00039,0.00011999999999999999,-5.9999999999999995e-05,0.00033,0.0008,2
5694,5860,0.00058,1e-05,-0.00018999999999999998,-0.00039,0.00011999999999999999,-5.9999999999999995e-05,0.00033,0.0008,2
5695,5861,0.00058,1e-05,-0.00018999999999999998,-0.00039,0.00011999999999999999,-5.9999999999999995e-05,0.00033,0.0008,2
5696,5862,0.00058,1e-05,-0.00018999999999999998,-0.00039,0.00011999999999999999,-5.9999999999999995e-05,0.00033,0.0008,2
5697,5863,0.00058,1e-05,-0.00018999999999999998,-0.00039,0.00011999999999999999,-5.9999999999999995e-05,0.00033,0.0008,2
5698,5864,0.00058,1e-05,-0.00018999999999999998,-0.00039,0.00011999999999999999,-5.9999999999999995e-05,0.00033,0.0008,2
5699,5865,0.00058,1e-05,-0.00018999999999999998,-0.00039,0.00011999999999999999,-5.9999999999999995e-05,0.00033,0.0008,2
5700,5866,0.00058,1e-05,-0.00018999999999999998,-0.00039,0.00011999999999999999,-5.9999999999999995e-05,0.00033,0.0008,2
5701,5867,0.00058,1e-05,-0.00018999999999999998,-0.00039,0.00011999999999999999,-5.9999999999999995e-05,0.00033,0.0008,2
5702,5868,0.00058,1e-05,-0.00018999999999999998,-0.00039,0.00011999999999999999,-5.9999999999999995e-05,0.00033,0.0008,2
5703,5869,0.00058,1e-05,-0.00018999999999999998,-0.00039,0.00011999999999999999,-5.9999999999999995e-05,0.00033,0.0008,2
5704,5870,0.00058,1e-05,-0.00018999999999999998,-0.00039,0.00011999999999999999,-5.9999999999999995e-05,0.00033,0.0008,2
5705,5871,0.00058,1e-05,-0.00018999999999999998,-0.00039,0.00011999999999999999,-5.9999999999999995e-05,0.00033,0.0008,2
5706,5872,0.00058,1e-05,-0.00018999999999999998,-0.00039,0.00011999999999999999,-5.9999999999999995e-05,0.00033,0.0008,2
5707,5873,5e-05,-0.00013000000000000002,8e-05,0.00057,0.00029,0.00015,-8e-05,0.0005200000000000001,2
5708,5874,-0.00053,0.00014,2e-05,-0.00027,-0.00037999999999999997,2e-05,0.00014,-0.00121,2
5709,5875,-0.00053,0.00014,2e-05,-0.00027,-0.00037999999999999997,2e-05,0.00014,-0.00121,2
5710,5876,-0.00053,0.00014,2e-05,-0.00027,-0.00037999999999999997,2e-05,0.00014,-0.00121,2
5711,5877,-0.00053,0.00014,2e-05,-0.00027,-0.00037999999999999997,2e-05,0.00014,-0.00121,2
5712,5878,-0.00053,0.00014,2e-05,-0.00027,-0.00037999999999999997,2e-05,0.00014,-0.00121,2
5713,5879,-0.00053,0.00014,2e-05,-0.00027,-0.00037999999999999997,2e-05,0.00014,-0.00121,2
5714,5880,-0.00053,0.00014,2e-05,-0.00027,-0.00037999999999999997,2e-05,0.00014,-0.00121,2
5715,5881,-0.00053,0.00014,2e-05,-0.00027,-0.00037999999999999997,2e-05,0.00014,-0.00121,2
5716,5883,-0.00053,0.00014,2e-05,-0.00027,-0.00037999999999999997,2e-05,0.00014,-0.00121,2
5717,5884,-0.00053,0.00014,2e-05,-0.00027,-0.00037999999999999997,2e-05,0.00014,-0.00121,2
5718,5885,-0.00053,0.00014,2e-05,-0.00027,-0.00037999999999999997,2e-05,0.00014,-0.00121,2
5719,5886,-0.00053,0.00014,2e-05,-0.00027,-0.00037999999999999997,2e-05,0.00014,-0.00121,2
5720,5888,0.00044,-9e-05,-0.0005,-0.00037999999999999997,-9e-05,-0.0002,-0.00014,-0.00026000000000000003,2
5721,5889,0.00044,-9e-05,-0.0005,-0.00037999999999999997,-9e-05,-0.0002,-0.00014,-0.00026000000000000003,2
5722,5890,0.00044,-9e-05,-0.0005,-0.00037999999999999997,-9e-05,-0.0002,-0.00014,-0.00026000000000000003,2
5723,5891,0.00044,-9e-05,-0.0005,-0.00037999999999999997,-9e-05,-0.0002,-0.00014,-0.00026000000000000003,2
5724,5892,0.00044,-9e-05,-0.0005,-0.00037999999999999997,-9e-05,-0.0002,-0.00014,-0.00026000000000000003,2
5725,5893,0.00044,-9e-05,-0.0005,-0.00037999999999999997,-9e-05,-0.0002,-0.00014,-0.00026000000000000003,2
5726,5894,0.00044,-9e-05,-0.0005,-0.00037999999999999997,-9e-05,-0.0002,-0.00014,-0.00026000000000000003,2
5727,5895,0.00018,8e-05,2.9999999999999997e-05,-0.00011999999999999999,-0.0002,0.00043,0.00011,0.00011,2
5728,5896,0.00018,8e-05,2.9999999999999997e-05,-0.00011999999999999999,-0.0002,0.00043,0.00011,0.00011,2
5729,5897,0.00018,8e-05,2.9999999999999997e-05,-0.00011999999999999999,-0.0002,0.00043,0.00011,0.00011,2
5730,5898,0.00018,8e-05,2.9999999999999997e-05,-0.00011999999999999999,-0.0002,0.00043,0.00011,0.00011,2
5731,5899,0.00018,8e-05,2.9999999999999997e-05,-0.00011999999999999999,-0.0002,0.00043,0.00011,0.00011,2
5732,5900,0.00018,8e-05,2.9999999999999997e-05,-0.00011999999999999999,-0.0002,0.00043,0.00011,0.00011,2
5733,5901,0.00018,8e-05,2.9999999999999997e-05,-0.00011999999999999999,-0.0002,0.00043,0.00011,0.00011,2
5734,5902,0.00018,8e-05,2.9999999999999997e-05,-0.00011999999999999999,-0.0002,0.00043,0.00011,0.00011,2
5735,5903,0.00018,8e-05,2.9999999999999997e-05,-0.00011999999999999999,-0.0002,0.00043,0.00011,0.00011,2
5736,5904,0.00018,8e-05,2.9999999999999997e-05,-0.00011999999999999999,-0.0002,0.00043,0.00011,0.00011,2
5737,5905,0.00018,8e-05,2.9999999999999997e-05,-0.00011999999999999999,-0.0002,0.00043,0.00011,0.00011,2
5738,5906,0.00018,8e-05,2.9999999999999997e-05,-0.00011999999999999999,-0.0002,0.00043,0.00011,0.00011,2
5739,5907,0.00018,8e-05,2.9999999999999997e-05,-0.00011999999999999999,-0.0002,0.00043,0.00011,0.00011,2
5740,5908,0.00018,8e-05,2.9999999999999997e-05,-0.00011999999999999999,-0.0002,0.00043,0.00011,0.00011,2
5741,5909,0.00018,8e-05,2.9999999999999997e-05,-0.00011999999999999999,-0.0002,0.00043,0.00011,0.00011,2
5742,5912,0.00018,8e-05,2.9999999999999997e-05,-0.00011999999999999999,-0.0002,0.00043,0.00011,0.00011,2
5743,5913,-0.00037,-0.00011999999999999999,-0.00059,-0.00033,4e-05,-9e-05,-0.00033999999999999997,-0.00035,2
5744,5914,-0.00037,-0.00011999999999999999,-0.00059,-0.00033,4e-05,-9e-05,-0.00033999999999999997,-0.00035,2
5745,5915,-0.00037,-0.00011999999999999999,-0.00059,-0.00033,4e-05,-9e-05,-0.00033999999999999997,-0.00035,2
5746,5916,-0.00037,-0.00011999999999999999,-0.00059,-0.00033,4e-05,-9e-05,-0.00033999999999999997,-0.00035,2
5747,5917,-0.00037,-0.00011999999999999999,-0.00059,-0.00033,4e-05,-9e-05,-0.00033999999999999997,-0.00035,2
5748,5918,-0.00037,-0.00011999999999999999,-0.00059,-0.00033,4e-05,-9e-05,-0.00033999999999999997,-0.00035,2
5749,5919,-0.00037,-0.00011999999999999999,-0.00059,-0.00033,4e-05,-9e-05,-0.00033999999999999997,-0.00035,2
5750,5920,-0.00037,-0.00011999999999999999,-0.00059,-0.00033,4e-05,-9e-05,-0.00033999999999999997,-0.00035,2
5751,5921,-0.00037,-0.00011999999999999999,-0.00059,-0.00033,4e-05,-9e-05,-0.00033999999999999997,-0.00035,2
5752,5922,-0.00037,-0.00011999999999999999,-0.00059,-0.00033,4e-05,-9e-05,-0.00033999999999999997,-0.00035,2
5753,5923,-0.00037,-0.00011999999999999999,-0.00059,-0.00033,4e-05,-9e-05,-0.00033999999999999997,-0.00035,2
5754,5924,-0.00037,-0.00011999999999999999,-0.00059,-0.00033,4e-05,-9e-05,-0.00033999999999999997,-0.00035,2
5755,5925,-0.00037,-0.00011999999999999999,-0.00059,-0.00033,4e-05,-9e-05,-0.00033999999999999997,-0.00035,2
5756,5926,-0.00037,-0.00011999999999999999,-0.00059,-0.00033,4e-05,-9e-05,-0.00033999999999999997,-0.00035,2
5757,5927,-0.00037,-0.00011999999999999999,-0.00059,-0.00033,4e-05,-9e-05,-0.00033999999999999997,-0.00035,2
5758,5928,-0.00037,-0.00011999999999999999,-0.00059,-0.00033,4e-05,-9e-05,-0.00033999999999999997,-0.00035,2
5759,5929,-0.00037,-0.00011999999999999999,-0.00059,-0.00033,4e-05,-9e-05,-0.00033999999999999997,-0.00035,2
5760,5931,-0.00037,-0.00011999999999999999,-0.00059,-0.00033,4e-05,-9e-05,-0.00033999999999999997,-0.00035,2
5761,5932,-0.00037,-0.00011999999999999999,-0.00059,-0.00033,4e-05,-9e-05,-0.00033999999999999997,-0.00035,2
5762,5933,-0.00062,4e-05,0.00058,0.0006799999999999999,-0.00016999999999999999,0.0005200000000000001,5e-05,-0.00044,2
5763,5934,-0.00015,-0.00013000000000000002,-0.00016,-0.00027,0.00021,-0.00065,-0.00035,-8e-05,2
5764,5935,-0.00015,-0.00013000000000000002,-0.00016,-0.00027,0.00021,-0.00065,-0.00035,-8e-05,2
5765,5936,-0.00015,-0.00013000000000000002,-0.00016,-0.00027,0.00021,-0.00065,-0.00035,-8e-05,2
5766,5938,-0.00015,-0.00013000000000000002,-0.00016,-0.00027,0.00021,-0.00065,-0.00035,-8e-05,2
5767,5939,-0.00015,-0.00013000000000000002,-0.00016,-0.00027,0.00021,-0.00065,-0.00035,-8e-05,2
5768,5940,-0.00015,-0.00013000000000000002,-0.00016,-0.00027,0.00021,-0.00065,-0.00035,-8e-05,2
5769,5941,-0.00015,-0.00013000000000000002,-0.00016,-0.00027,0.00021,-0.00065,-0.00035,-8e-05,2
5770,5942,-0.00015,-0.00013000000000000002,-0.00016,-0.00027,0.00021,-0.00065,-0.00035,-8e-05,2
5771,5943,-0.00015,-0.00013000000000000002,-0.00016,-0.00027,0.00021,-0.00065,-0.00035,-8e-05,2
5772,5944,-0.00015,-0.00013000000000000002,-0.00016,-0.00027,0.00021,-0.00065,-0.00035,-8e-05,2
5773,5945,-0.00015,-0.00013000000000000002,-0.00016,-0.00027,0.00021,-0.00065,-0.00035,-8e-05,2
5774,5946,-0.00015,-0.00013000000000000002,-0.00016,-0.00027,0.00021,-0.00065,-0.00035,-8e-05,2
5775,5947,-0.00047999999999999996,0.00018999999999999998,-4e-05,0.0,1e-05,0.00032,0.00043,-0.00044,2
5776,5948,-0.00047999999999999996,0.00018999999999999998,-4e-05,0.0,1e-05,0.00032,0.00043,-0.00044,2
5777,5949,-0.00047999999999999996,0.00018999999999999998,-4e-05,0.0,1e-05,0.00032,0.00043,-0.00044,2
5778,5950,-0.00047999999999999996,0.00018999999999999998,-4e-05,0.0,1e-05,0.00032,0.00043,-0.00044,2
5779,5951,-0.00047999999999999996,0.00018999999999999998,-4e-05,0.0,1e-05,0.00032,0.00043,-0.00044,2
5780,5952,-0.00047999999999999996,0.00018999999999999998,-4e-05,0.0,1e-05,0.00032,0.00043,-0.00044,2
5781,5953,-0.00047999999999999996,0.00018999999999999998,-4e-05,0.0,1e-05,0.00032,0.00043,-0.00044,2
5782,5954,-0.00062,-0.00015,-0.0003,-0.00018,-1e-05,7e-05,-0.00015,-0.0001,2
5783,5955,-0.00062,-0.00015,-0.0003,-0.00018,-1e-05,7e-05,-0.00015,-0.0001,2
5784,5956,-0.00062,-0.00015,-0.0003,-0.00018,-1e-05,7e-05,-0.00015,-0.0001,2
5785,5957,-0.00062,-0.00015,-0.0003,-0.00018,-1e-05,7e-05,-0.00015,-0.0001,2
5786,5958,-0.00062,-0.00015,-0.0003,-0.00018,-1e-05,7e-05,-0.00015,-0.0001,2
5787,5959,-0.00062,-0.00015,-0.0003,-0.00018,-1e-05,7e-05,-0.00015,-0.0001,2
5788,5960,-0.00062,-0.00015,-0.0003,-0.00018,-1e-05,7e-05,-0.00015,-0.0001,2
5789,5961,-0.00062,-0.00015,-0.0003,-0.00018,-1e-05,7e-05,-0.00015,-0.0001,2
5790,5962,-0.00062,-0.00015,-0.0003,-0.00018,-1e-05,7e-05,-0.00015,-0.0001,2
5791,5963,-0.00062,-0.00015,-0.0003,-0.00018,-1e-05,7e-05,-0.00015,-0.0001,2
5792,5964,-0.00062,-0.00015,-0.0003,-0.00018,-1e-05,7e-05,-0.00015,-0.0001,2
5793,5965,-0.00062,-0.00015,-0.0003,-0.00018,-1e-05,7e-05,-0.00015,-0.0001,2
5794,5966,-0.00062,-0.00015,-0.0003,-0.00018,-1e-05,7e-05,-0.00015,-0.0001,2
5795,5967,-0.00062,-0.00015,-0.0003,-0.00018,-1e-05,7e-05,-0.00015,-0.0001,2
5796,5968,-0.00062,-0.00015,-0.0003,-0.00018,-1e-05,7e-05,-0.00015,-0.0001,2
5797,5969,-0.00062,-0.00015,-0.0003,-0.00018,-1e-05,7e-05,-0.00015,-0.0001,2
5798,5970,0.0004,-0.00015,-0.00014,0.00045,0.0001,-0.00065,-0.00028,0.00021,2
5799,5971,0.0,-2.9999999999999997e-05,0.00014,0.00032,0.00021,0.0008,0.00055,8e-05,2
5800,5972,-5.9999999999999995e-05,1e-05,-0.00016,-0.00067,-0.00011,-0.00025,1e-05,-0.00014,2
5801,5973,-5.9999999999999995e-05,1e-05,-0.00016,-0.00067,-0.00011,-0.00025,1e-05,-0.00014,2
5802,5974,-5.9999999999999995e-05,1e-05,-0.00016,-0.00067,-0.00011,-0.00025,1e-05,-0.00014,2
5803,5975,-5.9999999999999995e-05,1e-05,-0.00016,-0.00067,-0.00011,-0.00025,1e-05,-0.00014,2
5804,5977,-5.9999999999999995e-05,1e-05,-0.00016,-0.00067,-0.00011,-0.00025,1e-05,-0.00014,2
5805,5978,-5.9999999999999995e-05,1e-05,-0.00016,-0.00067,-0.00011,-0.00025,1e-05,-0.00014,2
5806,5979,-5.9999999999999995e-05,1e-05,-0.00016,-0.00067,-0.00011,-0.00025,1e-05,-0.00014,2
5807,5980,-5.9999999999999995e-05,1e-05,-0.00016,-0.00067,-0.00011,-0.00025,1e-05,-0.00014,2
5808,5981,-5.9999999999999995e-05,1e-05,-0.00016,-0.00067,-0.00011,-0.00025,1e-05,-0.00014,2
5809,5982,-5.9999999999999995e-05,1e-05,-0.00016,-0.00067,-0.00011,-0.00025,1e-05,-0.00014,2
5810,5983,-5.9999999999999995e-05,1e-05,-0.00016,-0.00067,-0.00011,-0.00025,1e-05,-0.00014,2
5811,5984,-5.9999999999999995e-05,1e-05,-0.00016,-0.00067,-0.00011,-0.00025,1e-05,-0.00014,2
5812,5985,-5.9999999999999995e-05,1e-05,-0.00016,-0.00067,-0.00011,-0.00025,1e-05,-0.00014,2
5813,5986,-5.9999999999999995e-05,1e-05,-0.00016,-0.00067,-0.00011,-0.00025,1e-05,-0.00014,2
5814,5988,-5.9999999999999995e-05,1e-05,-0.00016,-0.00067,-0.00011,-0.00025,1e-05,-0.00014,2
5815,5989,-5.9999999999999995e-05,1e-05,-0.00016,-0.00067,-0.00011,-0.00025,1e-05,-0.00014,2
5816,5990,-5.9999999999999995e-05,1e-05,-0.00016,-0.00067,-0.00011,-0.00025,1e-05,-0.00014,2
5817,5991,-5.9999999999999995e-05,1e-05,-0.00016,-0.00067,-0.00011,-0.00025,1e-05,-0.00014,2
5818,5992,-5.9999999999999995e-05,1e-05,-0.00016,-0.00067,-0.00011,-0.00025,1e-05,-0.00014,2
5819,5993,-0.00013000000000000002,-5e-05,-0.00016,-9e-05,0.00029,-0.00029,-0.00045999999999999996,-0.00028,2
5820,5994,-0.00013000000000000002,-5e-05,-0.00016,-9e-05,0.00029,-0.00029,-0.00045999999999999996,-0.00028,2
5821,5995,-0.00011999999999999999,0.00016999999999999999,0.00036,1e-05,2.9999999999999997e-05,0.00033,0.00018999999999999998,-0.00036,2
5822,5996,-0.00011999999999999999,0.00016999999999999999,0.00036,1e-05,2.9999999999999997e-05,0.00033,0.00018999999999999998,-0.00036,2
5823,5997,-0.00011999999999999999,0.00016999999999999999,0.00036,1e-05,2.9999999999999997e-05,0.00033,0.00018999999999999998,-0.00036,2
5824,5998,-0.00011999999999999999,0.00016999999999999999,0.00036,1e-05,2.9999999999999997e-05,0.00033,0.00018999999999999998,-0.00036,2
5825,5999,-0.00011999999999999999,0.00016999999999999999,0.00036,1e-05,2.9999999999999997e-05,0.00033,0.00018999999999999998,-0.00036,2
5826,6000,-0.00011999999999999999,0.00016999999999999999,0.00036,1e-05,2.9999999999999997e-05,0.00033,0.00018999999999999998,-0.00036,2
5827,6001,-0.00011999999999999999,0.00016999999999999999,0.00036,1e-05,2.9999999999999997e-05,0.00033,0.00018999999999999998,-0.00036,2
5828,6002,-0.00011999999999999999,0.00016999999999999999,0.00036,1e-05,2.9999999999999997e-05,0.00033,0.00018999999999999998,-0.00036,2
5829,6003,-0.00011999999999999999,0.00016999999999999999,0.00036,1e-05,2.9999999999999997e-05,0.00033,0.00018999999999999998,-0.00036,2
5830,6004,-0.00011999999999999999,0.00016999999999999999,0.00036,1e-05,2.9999999999999997e-05,0.00033,0.00018999999999999998,-0.00036,2
5831,6005,-0.00011999999999999999,0.00016999999999999999,0.00036,1e-05,2.9999999999999997e-05,0.00033,0.00018999999999999998,-0.00036,2
5832,6006,-0.00011999999999999999,0.00016999999999999999,0.00036,1e-05,2.9999999999999997e-05,0.00033,0.00018999999999999998,-0.00036,2
5833,6007,0.0006799999999999999,0.00018,0.00037,0.00066,-8e-05,-5e-05,0.00033999999999999997,0.0004,2
5834,6008,0.0006799999999999999,0.00018,0.00037,0.00066,-8e-05,-5e-05,0.00033999999999999997,0.0004,2
5835,6009,0.0006799999999999999,0.00018,0.00037,0.00066,-8e-05,-5e-05,0.00033999999999999997,0.0004,2
5836,6010,0.0006799999999999999,0.00018,0.00037,0.00066,-8e-05,-5e-05,0.00033999999999999997,0.0004,2
5837,6011,0.0006799999999999999,0.00018,0.00037,0.00066,-8e-05,-5e-05,0.00033999999999999997,0.0004,2
5838,6012,0.0006799999999999999,0.00018,0.00037,0.00066,-8e-05,-5e-05,0.00033999999999999997,0.0004,2
5839,6013,0.0006799999999999999,0.00018,0.00037,0.00066,-8e-05,-5e-05,0.00033999999999999997,0.0004,2
5840,6014,-0.00026000000000000003,0.00015,-0.00011999999999999999,-2.9999999999999997e-05,-0.00023999999999999998,-0.0005099999999999999,-0.00055,-0.0011,2
5841,6015,-0.00026000000000000003,0.00015,-0.00011999999999999999,-2.9999999999999997e-05,-0.00023999999999999998,-0.0005099999999999999,-0.00055,-0.0011,2
5842,6016,-0.00026000000000000003,0.00015,-0.00011999999999999999,-2.9999999999999997e-05,-0.00023999999999999998,-0.0005099999999999999,-0.00055,-0.0011,2
5843,6017,-0.00026000000000000003,0.00015,-0.00011999999999999999,-2.9999999999999997e-05,-0.00023999999999999998,-0.0005099999999999999,-0.00055,-0.0011,2
5844,6018,-0.00026000000000000003,0.00015,-0.00011999999999999999,-2.9999999999999997e-05,-0.00023999999999999998,-0.0005099999999999999,-0.00055,-0.0011,2
