,time,channel1,channel2,channel3,channel4,channel5,channel6,channel7,channel8,class
5408,5639,0.00011,-1e-05,-1e-05,8e-05,0.0001,0.0006,-0.00018999999999999998,0.00028,2
5409,5640,0.00011,-1e-05,-1e-05,8e-05,0.0001,0.0006,-0.00018999999999999998,0.00028,2
5410,5641,0.00011,-1e-05,-1e-05,8e-05,0.0001,0.0006,-0.00018999999999999998,0.00028,2
5411,5642,0.00011,-1e-05,-1e-05,8e-05,0.0001,0.0006,-0.00018999999999999998,0.00028,2
5412,5643,0.00011,-1e-05,-1e-05,8e-05,0.0001,0.0006,-0.00018999999999999998,0.00028,2
5413,5644,0.00011,-1e-05,-1e-05,8e-05,0.0001,0.0006,-0.00018999999999999998,0.00028,2
5414,5645,0.00011,-1e-05,-1e-05,8e-05,0.0001,0.0006,-0.00018999999999999998,0.00028,2
5415,5646,0.00011,-1e-05,-1e-05,8e-05,0.0001,0.0006,-0.00018999999999999998,0.00028,2
5416,5647,0.00011,-1e-05,-1e-05,8e-05,0.0001,0.0006,-0.00018999999999999998,0.00028,2
5417,5648,0.00011,-1e-05,-1e-05,8e-05,0.0001,0.0006,-0.00018999999999999998,0.00028,2
5418,5649,-4e-05,4e-05,0.0001,-0.00016,5.9999999999999995e-05,4e-05,-0.00044,-2.9999999999999997e-05,2
5419,5650,-0.00014,-5e-05,-1e-05,-9e-05,-0.00013000000000000002,0.00018,0.0009,4e-05,2
5420,5651,2.9999999999999997e-05,4e-05,2e-05,-0.00018,-0.00013000000000000002,-8e-05,5.9999999999999995e-05,-9e-05,2
5421,5652,2.9999999999999997e-05,4e-05,2e-05,-0.00018,-0.00013000000000000002,-8e-05,5.9999999999999995e-05,-9e-05,2
5422,5654,2.9999999999999997e-05,4e-05,2e-05,-0.00018,-0.00013000000000000002,-8e-05,5.9999999999999995e-05,-9e-05,2
5423,5655,2.9999999999999997e-05,4e-05,2e-05,-0.00018,-0.00013000000000000002,-8e-05,5.9999999999999995e-05,-9e-05,2
5424,5656,2.9999999999999997e-05,4e-05,2e-05,-0.00018,-0.00013000000000000002,-8e-05,5.9999999999999995e-05,-9e-05,2
5425,5657,2.9999999999999997e-05,4e-05,2e-05,-0.00018,-0.00013000000000000002,-8e-05,5.9999999999999995e-05,-9e-05,2
5426,5658,2.9999999999999997e-05,4e-05,2e-05,-0.00018,-0.00013000000000000002,-8e-05,5.9999999999999995e-05,-9e-05,2
5427,5659,2.9999999999999997e-05,4e-05,2e-05,-0.00018,-0.00013000000000000002,-8e-05,5.9999999999999995e-05,-9e-05,2
5428,5660,2.9999999999999997e-05,4e-05,2e-05,-0.00018,-0.00013000000000000002,-8e-05,5.9999999999999995e-05,-9e-05,2
5429,5661,2.9999999999999997e-05,4e-05,2e-05,-0.00018,-0.00013000000000000002,-8e-05,5.9999999999999995e-05,-9e-05,2
5430,5662,2.9999999999999997e-05,4e-05,2e-05,-0.00018,-0.00013000000000000002,-8e-05,5.9999999999999995e-05,-9e-05,2
5431,5663,2.9999999999999997e-05,4e-05,2e-05,-0.00018,-0.00013000000000000002,-8e-05,5.9999999999999995e-05,-9e-05,2
5432,5664,2.9999999999999997e-05,4e-05,2e-05,-0.00018,-0.00013000000000000002,-8e-05,5.9999999999999995e-05,-9e-05,2
5433,5665,0.00013000000000000002,0.0,0.0,0.00043,0.00018,0.00043,0.00085,0.0002,2
5434,5666,-0.00026000000000000003,-7e-05,2.9999999999999997e-05,-0.00033999999999999997,-0.00022,4e-05,-0.00021,-0.00016,2
5435,5667,5e-05,-5.9999999999999995e-05,-0.00016,-0.00015,0.0,-0.00022999999999999998,-0.0005,1e-05,2
5436,5668,5e-05,-5.9999999999999995e-05,-0.00016,-0.00015,0.0,-0.00022999999999999998,-0.0005,1e-05,2
5437,5669,5e-05,-5.9999999999999995e-05,-0.00016,-0.00015,0.0,-0.00022999999999999998,-0.0005,1e-05,2
5438,5670,5e-05,-5.9999999999999995e-05,-0.00016,-0.00015,0.0,-0.00022999999999999998,-0.0005,1e-05,2
5439,5671,5e-05,-5.9999999999999995e-05,-0.00016,-0.00015,0.0,-0.00022999999999999998,-0.0005,1e-05,2
5440,5672,5e-05,-5.9999999999999995e-05,-0.00016,-0.00015,0.0,-0.00022999999999999998,-0.0005,1e-05,2
5441,5673,5e-05,-5.9999999999999995e-05,-0.00016,-0.00015,0.0,-0.00022999999999999998,-0.0005,1e-05,2
5442,5674,5e-05,-5.9999999999999995e-05,-0.00016,-0.00015,0.0,-0.00022999999999999998,-0.0005,1e-05,2
5443,5675,5e-05,-5.9999999999999995e-05,-0.00016,-0.00015,0.0,-0.00022999999999999998,-0.0005,1e-05,2
5444,5676,5e-05,-5.9999999999999995e-05,-0.00016,-0.00015,0.0,-0.00022999999999999998,-0.0005,1e-05,2
5445,5677,5e-05,-5.9999999999999995e-05,-0.00016,-0.00015,0.0,-0.00022999999999999998,-0.0005,1e-05,2
5446,5678,5e-05,-5.9999999999999995e-05,-0.00016,-0.00015,0.0,-0.00022999999999999998,-0.0005,1e-05,2
5447,5679,5e-05,-5.9999999999999995e-05,-0.00016,-0.00015,0.0,-0.00022999999999999998,-0.0005,1e-05,2
5448,5680,5e-05,-5.9999999999999995e-05,-0.00016,-0.00015,0.0,-0.00022999999999999998,-0.0005,1e-05,2
5449,5681,5e-05,-5.9999999999999995e-05,-0.00016,-0.00015,0.0,-0.00022999999999999998,-0.0005,1e-05,2
5450,5682,5e-05,-5.9999999999999995e-05,-0.00016,-0.00015,0.0,-0.00022999999999999998,-0.0005,1e-05,2
5451,5683,5e-05,-5.9999999999999995e-05,-0.00016,-0.00015,0.0,-0.00022999999999999998,-0.0005,1e-05,2
5452,5684,5e-05,-5.9999999999999995e-05,-0.00016,-0.00015,0.0,-0.00022999999999999998,-0.0005,1e-05,2
5453,5685,5e-05,-5.9999999999999995e-05,-0.00016,-0.00015,0.0,-0.00022999999999999998,-0.0005,1e-05,2
5454,5686,5e-05,-5.9999999999999995e-05,-0.00016,-0.00015,0.0,-0.00022999999999999998,-0.0005,1e-05,2
5455,5688,2e-05,5e-05,5e-05,-0.00037,-8e-05,0.00023999999999999998,-0.00028,0.0,2
5456,5689,5e-05,7e-05,0.00011,-0.00045999999999999996,5e-05,-0.00022999999999999998,-4e-05,2.9999999999999997e-05,2
5457,5690,5e-05,7e-05,0.00011,-0.00045999999999999996,5e-05,-0.00022999999999999998,-4e-05,2.9999999999999997e-05,2
5458,5691,5e-05,7e-05,0.00011,-0.00045999999999999996,5e-05,-0.00022999999999999998,-4e-05,2.9999999999999997e-05,2
5459,5692,5e-05,7e-05,0.00011,-0.00045999999999999996,5e-05,-0.00022999999999999998,-4e-05,2.9999999999999997e-05,2
5460,5693,5e-05,7e-05,0.00011,-0.00045999999999999996,5e-05,-0.00022999999999999998,-4e-05,2.9999999999999997e-05,2
5461,5694,5e-05,7e-05,0.00011,-0.00045999999999999996,5e-05,-0.00022999999999999998,-4e-05,2.9999999999999997e-05,2
5462,5695,5e-05,7e-05,0.00011,-0.00045999999999999996,5e-05,-0.00022999999999999998,-4e-05,2.9999999999999997e-05,2
5463,5696,5e-05,7e-05,0.00011,-0.00045999999999999996,5e-05,-0.00022999999999999998,-4e-05,2.9999999999999997e-05,2
5464,5697,5e-05,7e-05,0.00011,-0.00045999999999999996,5e-05,-0.00022999999999999998,-4e-05,2.9999999999999997e-05,2
5465,5698,5e-05,7e-05,0.00011,-0.00045999999999999996,5e-05,-0.00022999999999999998,-4e-05,2.9999999999999997e-05,2
5466,5699,5e-05,7e-05,0.00011,-0.00045999999999999996,5e-05,-0.00022999999999999998,-4e-05,2.9999999999999997e-05,2
5467,5700,5e-05,7e-05,0.00011,-0.00045999999999999996,5e-05,-0.00022999999999999998,-4e-05,2.9999999999999997e-05,2
5468,5701,0.00011,-4e-05,-5e-05,-0.00037,2.9999999999999997e-05,2.9999999999999997e-05,0.0001,0.0003,2
5469,5702,0.00011,-4e-05,-5e-05,-0.00037,2.9999999999999997e-05,2.9999999999999997e-05,0.0001,0.0003,2
5470,5703,0.00011,-4e-05,-5e-05,-0.00037,2.9999999999999997e-05,2.9999999999999997e-05,0.0001,0.0003,2
5471,5704,0.00011,-4e-05,-5e-05,-0.00037,2.9999999999999997e-05,2.9999999999999997e-05,0.0001,0.0003,2
5472,5705,0.00011,-4e-05,-5e-05,-0.00037,2.9999999999999997e-05,2.9999999999999997e-05,0.0001,0.0003,2
5473,5706,0.00011,-4e-05,-5e-05,-0.00037,2.9999999999999997e-05,2.9999999999999997e-05,0.0001,0.0003,2
5474,5707,0.00011,-4e-05,-5e-05,-0.00037,2.9999999999999997e-05,2.9999999999999997e-05,0.0001,0.0003,2
5475,5708,0.00015,8e-05,-1e-05,-0.0006,5e-05,-4e-05,-0.0007599999999999999,5.9999999999999995e-05,2
5476,5709,0.00015,8e-05,-1e-05,-0.0006,5e-05,-4e-05,-0.0007599999999999999,5.9999999999999995e-05,2
5477,5710,0.00015,8e-05,-1e-05,-0.0006,5e-05,-4e-05,-0.0007599999999999999,5.9999999999999995e-05,2
5478,5711,0.00015,8e-05,-1e-05,-0.0006,5e-05,-4e-05,-0.0007599999999999999,5.9999999999999995e-05,2
5479,5712,0.00015,8e-05,-1e-05,-0.0006,5e-05,-4e-05,-0.0007599999999999999,5.9999999999999995e-05,2
5480,5713,0.00015,8e-05,-1e-05,-0.0006,5e-05,-4e-05,-0.0007599999999999999,5.9999999999999995e-05,2
5481,5714,0.00015,8e-05,-1e-05,-0.0006,5e-05,-4e-05,-0.0007599999999999999,5.9999999999999995e-05,2
5482,5715,0.00015,8e-05,-1e-05,-0.0006,5e-05,-4e-05,-0.0007599999999999999,5.9999999999999995e-05,2
5483,5716,0.00015,8e-05,-1e-05,-0.0006,5e-05,-4e-05,-0.0007599999999999999,5.9999999999999995e-05,2
5484,5717,0.00015,8e-05,-1e-05,-0.0006,5e-05,-4e-05,-0.0007599999999999999,5.9999999999999995e-05,2
5485,5718,0.00015,8e-05,-1e-05,-0.0006,5e-05,-4e-05,-0.0007599999999999999,5.9999999999999995e-05,2
5486,5719,0.00015,8e-05,-1e-05,-0.0006,5e-05,-4e-05,-0.0007599999999999999,5.9999999999999995e-05,2
5487,5720,0.00015,8e-05,-1e-05,-0.0006,5e-05,-4e-05,-0.0007599999999999999,5.9999999999999995e-05,2
5488,5721,0.00015,8e-05,-1e-05,-0.0006,5e-05,-4e-05,-0.0007599999999999999,5.9999999999999995e-05,2
5489,5722,0.00015,8e-05,-1e-05,-0.0006,5e-05,-4e-05,-0.0007599999999999999,5.9999999999999995e-05,2
5490,5723,0.00015,8e-05,-1e-05,-0.0006,5e-05,-4e-05,-0.0007599999999999999,5.9999999999999995e-05,2
5491,5724,0.00015,8e-05,-1e-05,-0.0006,5e-05,-4e-05,-0.0007599999999999999,5.9999999999999995e-05,2
5492,5725,1e-05,2e-05,4e-05,2.9999999999999997e-05,9e-05,8e-05,-0.00045999999999999996,-0.00023999999999999998,2
5493,5726,-0.00021,-9e-05,-5.9999999999999995e-05,0.0007099999999999999,2e-05,0.0,0.00063,0.00014,2
5494,5727,-0.00021,-9e-05,-5.9999999999999995e-05,0.0007099999999999999,2e-05,0.0,0.00063,0.00014,2
5495,5728,-0.00021,-9e-05,-5.9999999999999995e-05,0.0007099999999999999,2e-05,0.0,0.00063,0.00014,2
5496,5729,-0.00021,-9e-05,-5.9999999999999995e-05,0.0007099999999999999,2e-05,0.0,0.00063,0.00014,2
5497,5730,-0.00021,-9e-05,-5.9999999999999995e-05,0.0007099999999999999,2e-05,0.0,0.00063,0.00014,2
5498,5731,-0.00021,-9e-05,-5.9999999999999995e-05,0.0007099999999999999,2e-05,0.0,0.00063,0.00014,2
5499,5732,-0.00021,-9e-05,-5.9999999999999995e-05,0.0007099999999999999,2e-05,0.0,0.00063,0.00014,2
5500,5733,-0.00021,-9e-05,-5.9999999999999995e-05,0.0007099999999999999,2e-05,0.0,0.00063,0.00014,2
5501,5734,-0.00021,-9e-05,-5.9999999999999995e-05,0.0007099999999999999,2e-05,0.0,0.00063,0.00014,2
5502,5735,-0.00021,-9e-05,-5.9999999999999995e-05,0.0007099999999999999,2e-05,0.0,0.00063,0.00014,2
5503,5736,-0.00021,-9e-05,-5.9999999999999995e-05,0.0007099999999999999,2e-05,0.0,0.00063,0.00014,2
5504,5739,-0.00021,-9e-05,-5.9999999999999995e-05,0.0007099999999999999,2e-05,0.0,0.00063,0.00014,2
5505,5740,-0.00021,-9e-05,-5.9999999999999995e-05,0.0007099999999999999,2e-05,0.0,0.00063,0.00014,2
5506,5741,-0.00021,-9e-05,-5.9999999999999995e-05,0.0007099999999999999,2e-05,0.0,0.00063,0.00014,2
5507,5742,-0.00021,-9e-05,-5.9999999999999995e-05,0.0007099999999999999,2e-05,0.0,0.00063,0.00014,2
5508,5743,-0.00021,-9e-05,-5.9999999999999995e-05,0.0007099999999999999,2e-05,0.0,0.00063,0.00014,2
5509,5744,-0.00021,-9e-05,-5.9999999999999995e-05,0.0007099999999999999,2e-05,0.0,0.00063,0.00014,2
5510,5745,-0.00021,-9e-05,-5.9999999999999995e-05,0.0007099999999999999,2e-05,0.0,0.00063,0.00014,2
5511,5746,-0.00021,-9e-05,-5.9999999999999995e-05,0.0007099999999999999,2e-05,0.0,0.00063,0.00014,2
5512,5747,-7e-05,2.9999999999999997e-05,-1e-05,0.00039,-2.9999999999999997e-05,-0.00014,-0.00056,-0.00011999999999999999,2
5513,5748,0.0002,5e-05,0.0,-0.00032,1e-05,0.0001,0.00085,0.00033,2
5514,5749,-0.0001,-4e-05,-2.9999999999999997e-05,0.00042,4e-05,-0.00013000000000000002,-0.00042,-0.00026000000000000003,2
5515,5750,-0.0001,-4e-05,-2.9999999999999997e-05,0.00042,4e-05,-0.00013000000000000002,-0.00042,-0.00026000000000000003,2
5516,5751,-0.0001,-4e-05,-2.9999999999999997e-05,0.00042,4e-05,-0.00013000000000000002,-0.00042,-0.00026000000000000003,2
5517,5752,-0.0001,-4e-05,-2.9999999999999997e-05,0.00042,4e-05,-0.00013000000000000002,-0.00042,-0.00026000000000000003,2
5518,5753,-0.0001,-4e-05,-2.9999999999999997e-05,0.00042,4e-05,-0.00013000000000000002,-0.00042,-0.00026000000000000003,2
5519,5754,-0.0001,-4e-05,-2.9999999999999997e-05,0.00042,4e-05,-0.00013000000000000002,-0.00042,-0.00026000000000000003,2
5520,5755,-0.0001,-4e-05,-2.9999999999999997e-05,0.00042,4e-05,-0.00013000000000000002,-0.00042,-0.00026000000000000003,2
5521,5756,-0.0001,-4e-05,-2.9999999999999997e-05,0.00042,4e-05,-0.00013000000000000002,-0.00042,-0.00026000000000000003,2
5522,5757,-0.0001,-4e-05,-2.9999999999999997e-05,0.00042,4e-05,-0.00013000000000000002,-0.00042,-0.00026000000000000003,2
5523,5758,-0.0001,-4e-05,-2.9999999999999997e-05,0.00042,4e-05,-0.00013000000000000002,-0.00042,-0.00026000000000000003,2
5524,5759,-0.0001,-4e-05,-2.9999999999999997e-05,0.00042,4e-05,-0.00013000000000000002,-0.00042,-0.00026000000000000003,2
5525,5760,-0.0001,-4e-05,-2.9999999999999997e-05,0.00042,4e-05,-0.00013000000000000002,-0.00042,-0.00026000000000000003,2
5526,5761,0.0001,2.9999999999999997e-05,9e-05,0.00018999999999999998,-7e-05,-0.0002,0.00098,0.00033999999999999997,2
5527,5762,0.0001,2.9999999999999997e-05,9e-05,0.00018999999999999998,-7e-05,-0.0002,0.00098,0.00033999999999999997,2
5528,5763,0.0001,2.9999999999999997e-05,9e-05,0.00018999999999999998,-7e-05,-0.0002,0.00098,0.00033999999999999997,2
5529,5764,0.0001,2.9999999999999997e-05,9e-05,0.00018999999999999998,-7e-05,-0.0002,0.00098,0.00033999999999999997,2
5530,5765,0.0001,2.9999999999999997e-05,9e-05,0.00018999999999999998,-7e-05,-0.0002,0.00098,0.00033999999999999997,2
5531,5766,0.0001,2.9999999999999997e-05,9e-05,0.00018999999999999998,-7e-05,-0.0002,0.00098,0.00033999999999999997,2
5532,5767,0.0001,2.9999999999999997e-05,9e-05,0.00018999999999999998,-7e-05,-0.0002,0.00098,0.00033999999999999997,2
5533,5768,0.0001,2.9999999999999997e-05,9e-05,0.00018999999999999998,-7e-05,-0.0002,0.00098,0.00033999999999999997,2
5534,5769,-0.00014,-2.9999999999999997e-05,-0.00025,-0.00055,-2.9999999999999997e-05,1e-05,-0.00045999999999999996,-0.00025,2
5535,5770,0.0,-4e-05,2e-05,0.0002,8e-05,0.00018999999999999998,0.00033999999999999997,-0.00011,2
5536,5771,0.0,-4e-05,2e-05,0.0002,8e-05,0.00018999999999999998,0.00033999999999999997,-0.00011,2
5537,5772,0.0,-4e-05,2e-05,0.0002,8e-05,0.00018999999999999998,0.00033999999999999997,-0.00011,2
5538,5773,0.0,-4e-05,2e-05,0.0002,8e-05,0.00018999999999999998,0.00033999999999999997,-0.00011,2
5539,5774,0.0,-4e-05,2e-05,0.0002,8e-05,0.00018999999999999998,0.00033999999999999997,-0.00011,2
5540,5775,0.0,-4e-05,2e-05,0.0002,8e-05,0.00018999999999999998,0.00033999999999999997,-0.00011,2
5541,5776,0.0,-4e-05,2e-05,0.0002,8e-05,0.00018999999999999998,0.00033999999999999997,-0.00011,2
5542,5777,0.0,-4e-05,2e-05,0.0002,8e-05,0.00018999999999999998,0.00033999999999999997,-0.00011,2
5543,5778,0.0,-4e-05,2e-05,0.0002,8e-05,0.00018999999999999998,0.00033999999999999997,-0.00011,2
5544,5779,0.0,-4e-05,2e-05,0.0002,8e-05,0.00018999999999999998,0.00033999999999999997,-0.00011,2
5545,5780,0.0,-4e-05,2e-05,0.0002,8e-05,0.00018999999999999998,0.00033999999999999997,-0.00011,2
5546,5781,0.0,-4e-05,2e-05,0.0002,8e-05,0.00018999999999999998,0.00033999999999999997,-0.00011,2
5547,5782,0.0,-4e-05,2e-05,0.0002,8e-05,0.00018999999999999998,0.00033999999999999997,-0.00011,2
5548,5783,0.0,-4e-05,2e-05,0.0002,8e-05,0.00018999999999999998,0.00033999999999999997,-0.00011,2
5549,5784,-2.9999999999999997e-05,-5e-05,-0.0001,2.9999999999999997e-05,-1e-05,0.0003,0.00055,0.00023999999999999998,2
5550,5785,5e-05,2e-05,-1e-05,-0.00028,-0.00018,-0.00013000000000000002,-0.0009,-0.00011999999999999999,2
5551,5786,5e-05,2e-05,-1e-05,-0.00028,-0.00018,-0.00013000000000000002,-0.0009,-0.00011999999999999999,2
5552,5788,1e-05,-8e-05,-1e-05,0.00022999999999999998,2.9999999999999997e-05,-7e-05,0.00022,-0.00016,2
5553,5789,1e-05,-8e-05,-1e-05,0.00022999999999999998,2.9999999999999997e-05,-7e-05,0.00022,-0.00016,2
5554,5790,1e-05,-8e-05,-1e-05,0.00022999999999999998,2.9999999999999997e-05,-7e-05,0.00022,-0.00016,2
5555,5791,1e-05,-8e-05,-1e-05,0.00022999999999999998,2.9999999999999997e-05,-7e-05,0.00022,-0.00016,2
5556,5792,1e-05,-8e-05,-1e-05,0.00022999999999999998,2.9999999999999997e-05,-7e-05,0.00022,-0.00016,2
5557,5793,1e-05,-8e-05,-1e-05,0.00022999999999999998,2.9999999999999997e-05,-7e-05,0.00022,-0.00016,2
5558,5794,1e-05,-8e-05,-1e-05,0.00022999999999999998,2.9999999999999997e-05,-7e-05,0.00022,-0.00016,2
5559,5795,1e-05,-8e-05,-1e-05,0.00022999999999999998,2.9999999999999997e-05,-7e-05,0.00022,-0.00016,2
5560,5796,1e-05,-8e-05,-1e-05,0.00022999999999999998,2.9999999999999997e-05,-7e-05,0.00022,-0.00016,2
5561,5797,1e-05,-8e-05,-1e-05,0.00022999999999999998,2.9999999999999997e-05,-7e-05,0.00022,-0.00016,2
5562,5798,1e-05,-8e-05,-1e-05,0.00022999999999999998,2.9999999999999997e-05,-7e-05,0.00022,-0.00016,2
5563,5799,1e-05,-8e-05,-1e-05,0.00022999999999999998,2.9999999999999997e-05,-7e-05,0.00022,-0.00016,2
5564,5800,1e-05,-8e-05,-1e-05,0.00022999999999999998,2.9999999999999997e-05,-7e-05,0.00022,-0.00016,2
5565,5801,1e-05,-8e-05,-1e-05,0.00022999999999999998,2.9999999999999997e-05,-7e-05,0.00022,-0.00016,2
5566,5802,1e-05,-8e-05,-1e-05,0.00022999999999999998,2.9999999999999997e-05,-7e-05,0.00022,-0.00016,2
5567,5803,1e-05,-8e-05,-1e-05,0.00022999999999999998,2.9999999999999997e-05,-7e-05,0.00022,-0.00016,2
5568,5804,1e-05,-8e-05,-1e-05,0.00022999999999999998,2.9999999999999997e-05,-7e-05,0.00022,-0.00016,2
5569,5805,1e-05,-8e-05,-1e-05,0.00022999999999999998,2.9999999999999997e-05,-7e-05,0.00022,-0.00016,2
5570,5806,1e-05,-8e-05,-1e-05,0.00022999999999999998,2.9999999999999997e-05,-7e-05,0.00022,-0.00016,2
5571,5807,-2.9999999999999997e-05,-8e-05,-7e-05,-5e-05,0.0,-0.00011999999999999999,-0.0002,-1e-05,2
5572,5808,-2.9999999999999997e-05,-8e-05,-7e-05,-5e-05,0.0,-0.00011999999999999999,-0.0002,-1e-05,2
5573,5809,4e-05,0.0,1e-05,0.00022999999999999998,0.0,4e-05,-0.00018999999999999998,5e-05,2
5574,5810,4e-05,0.0,1e-05,0.00022999999999999998,0.0,4e-05,-0.00018999999999999998,5e-05,2
5575,5811,4e-05,0.0,1e-05,0.00022999999999999998,0.0,4e-05,-0.00018999999999999998,5e-05,2
5576,5812,4e-05,0.0,1e-05,0.00022999999999999998,0.0,4e-05,-0.00018999999999999998,5e-05,2
5577,5813,4e-05,0.0,1e-05,0.00022999999999999998,0.0,4e-05,-0.00018999999999999998,5e-05,2
5578,5814,4e-05,0.0,1e-05,0.00022999999999999998,0.0,4e-05,-0.00018999999999999998,5e-05,2
5579,5815,4e-05,0.0,1e-05,0.00022999999999999998,0.0,4e-05,-0.00018999999999999998,5e-05,2
5580,5816,4e-05,0.0,1e-05,0.00022999999999999998,0.0,4e-05,-0.00018999999999999998,5e-05,2
5581,5817,4e-05,0.0,1e-05,0.00022999999999999998,0.0,4e-05,-0.00018999999999999998,5e-05,2
5582,5818,4e-05,0.0,1e-05,0.00022999999999999998,0.0,4e-05,-0.00018999999999999998,5e-05,2
5583,5819,4e-05,0.0,1e-05,0.00022999999999999998,0.0,4e-05,-0.00018999999999999998,5e-05,2
5584,5820,-0.0001,-1e-05,1e-05,-0.00023999999999999998,-9e-05,0.00011,-5.9999999999999995e-05,-0.0002,2
5585,5821,2.9999999999999997e-05,-2e-05,-1e-05,-0.00018,-7e-05,-2e-05,0.00061,8e-05,2
5586,5822,2.9999999999999997e-05,-2e-05,-1e-05,-0.00018,-7e-05,-2e-05,0.00061,8e-05,2
5587,5823,2.9999999999999997e-05,-2e-05,-1e-05,-0.00018,-7e-05,-2e-05,0.00061,8e-05,2
5588,5824,2.9999999999999997e-05,-2e-05,-1e-05,-0.00018,-7e-05,-2e-05,0.00061,8e-05,2
5589,5825,2.9999999999999997e-05,-2e-05,-1e-05,-0.00018,-7e-05,-2e-05,0.00061,8e-05,2
5590,5826,2.9999999999999997e-05,-2e-05,-1e-05,-0.00018,-7e-05,-2e-05,0.00061,8e-05,2
5591,5827,2.9999999999999997e-05,-2e-05,-1e-05,-0.00018,-7e-05,-2e-05,0.00061,8e-05,2
5592,5828,2.9999999999999997e-05,-2e-05,-1e-05,-0.00018,-7e-05,-2e-05,0.00061,8e-05,2
5593,5829,-9e-05,-2e-05,-0.00014,-0.00013000000000000002,-0.0001,-0.00016,-0.0006799999999999999,-0.00022999999999999998,2
5594,5830,-9e-05,-2e-05,-0.00014,-0.00013000000000000002,-0.0001,-0.00016,-0.0006799999999999999,-0.00022999999999999998,2
5595,5831,-9e-05,-2e-05,-0.00014,-0.00013000000000000002,-0.0001,-0.00016,-0.0006799999999999999,-0.00022999999999999998,2
5596,5832,-9e-05,-2e-05,-0.00014,-0.00013000000000000002,-0.0001,-0.00016,-0.0006799999999999999,-0.00022999999999999998,2
5597,5833,-9e-05,-2e-05,-0.00014,-0.00013000000000000002,-0.0001,-0.00016,-0.0006799999999999999,-0.00022999999999999998,2
5598,5834,-9e-05,-2e-05,-0.00014,-0.00013000000000000002,-0.0001,-0.00016,-0.0006799999999999999,-0.00022999999999999998,2
5599,5835,-9e-05,-2e-05,-0.00014,-0.00013000000000000002,-0.0001,-0.00016,-0.0006799999999999999,-0.00022999999999999998,2
5600,5836,-9e-05,-2e-05,-0.00014,-0.00013000000000000002,-0.0001,-0.00016,-0.0006799999999999999,-0.00022999999999999998,2
5601,5838,-9e-05,-2e-05,-0.00014,-0.00013000000000000002,-0.0001,-0.00016,-0.0006799999999999999,-0.00022999999999999998,2
5602,5839,-9e-05,-2e-05,-0.00014,-0.00013000000000000002,-0.0001,-0.00016,-0.0006799999999999999,-0.00022999999999999998,2
5603,5840,-9e-05,-2e-05,-0.00014,-0.00013000000000000002,-0.0001,-0.00016,-0.0006799999999999999,-0.00022999999999999998,2
5604,5841,-9e-05,-2e-05,-0.00014,-0.00013000000000000002,-0.0001,-0.00016,-0.0006799999999999999,-0.00022999999999999998,2
5605,5842,-9e-05,-2e-05,-0.00014,-0.00013000000000000002,-0.0001,-0.00016,-0.0006799999999999999,-0.00022999999999999998,2
5606,5843,-9e-05,-2e-05,-0.00014,-0.00013000000000000002,-0.0001,-0.00016,-0.0006799999999999999,-0.00022999999999999998,2
5607,5844,7e-05,-5.9999999999999995e-05,-5.9999999999999995e-05,-5.9999999999999995e-05,2e-05,2e-05,9e-05,0.00016,2
5608,5845,9e-05,1e-05,0.0,-8e-05,1e-05,0.00039,-0.0002,9e-05,2
5609,5846,9e-05,9e-05,0.0001,-0.00033999999999999997,-0.00011999999999999999,-0.00011999999999999999,-1e-05,7e-05,2
5610,5847,9e-05,9e-05,0.0001,-0.00033999999999999997,-0.00011999999999999999,-0.00011999999999999999,-1e-05,7e-05,2
5611,5848,9e-05,9e-05,0.0001,-0.00033999999999999997,-0.00011999999999999999,-0.00011999999999999999,-1e-05,7e-05,2
5612,5849,9e-05,9e-05,0.0001,-0.00033999999999999997,-0.00011999999999999999,-0.00011999999999999999,-1e-05,7e-05,2
5613,5850,9e-05,9e-05,0.0001,-0.00033999999999999997,-0.00011999999999999999,-0.00011999999999999999,-1e-05,7e-05,2
5614,5851,9e-05,9e-05,0.0001,-0.00033999999999999997,-0.00011999999999999999,-0.00011999999999999999,-1e-05,7e-05,2
5615,5852,9e-05,9e-05,0.0001,-0.00033999999999999997,-0.00011999999999999999,-0.00011999999999999999,-1e-05,7e-05,2
5616,5853,9e-05,9e-05,0.0001,-0.00033999999999999997,-0.00011999999999999999,-0.00011999999999999999,-1e-05,7e-05,2
5617,5854,9e-05,9e-05,0.0001,-0.00033999999999999997,-0.00011999999999999999,-0.00011999999999999999,-1e-05,7e-05,2
5618,5855,9e-05,9e-05,0.0001,-0.00033999999999999997,-0.00011999999999999999,-0.00011999999999999999,-1e-05,7e-05,2
5619,5856,9e-05,9e-05,0.0001,-0.00033999999999999997,-0.00011999999999999999,-0.00011999999999999999,-1e-05,7e-05,2
5620,5857,9e-05,9e-05,0.0001,-0.00033999999999999997,-0.00011999999999999999,-0.00011999999999999999,-1e-05,7e-05,2
5621,5858,9e-05,9e-05,0.0001,-0.00033999999999999997,-0.00011999999999999999,-0.00011999999999999999,-1e-05,7e-05,2
5622,5859,9e-05,9e-05,0.0001,-0.00033999999999999997,-0.00011999999999999999,-0.00011999999999999999,-1e-05,7e-05,2
5623,5860,9e-05,9e-05,0.0001,-0.00033999999999999997,-0.00011999999999999999,-0.00011999999999999999,-1e-05,7e-05,2
5624,5861,9e-05,9e-05,0.0001,-0.00033999999999999997,-0.00011999999999999999,-0.00011999999999999999,-1e-05,7e-05,2
5625,5862,9e-05,9e-05,0.0001,-0.00033999999999999997,-0.00011999999999999999,-0.00011999999999999999,-1e-05,7e-05,2
5626,5863,9e-05,9e-05,0.0001,-0.00033999999999999997,-0.00011999999999999999,-0.00011999999999999999,-1e-05,7e-05,2
5627,5864,9e-05,9e-05,0.0001,-0.00033999999999999997,-0.00011999999999999999,-0.00011999999999999999,-1e-05,7e-05,2
5628,5865,9e-05,9e-05,0.0001,-0.00033999999999999997,-0.00011999999999999999,-0.00011999999999999999,-1e-05,7e-05,2
5629,5866,9e-05,9e-05,0.0001,-0.00033999999999999997,-0.00011999999999999999,-0.00011999999999999999,-1e-05,7e-05,2
5630,5867,5e-05,2e-05,-5.9999999999999995e-05,0.00022999999999999998,5e-05,0.00016999999999999999,0.00073,0.0001,2
5631,5868,5e-05,2e-05,-5.9999999999999995e-05,0.00022999999999999998,5e-05,0.00016999999999999999,0.00073,0.0001,2
5632,5869,1e-05,-5e-05,0.0,-9e-05,-2.9999999999999997e-05,0.0002,-0.00085,-2.9999999999999997e-05,2
5633,5870,1e-05,-5e-05,0.0,-9e-05,-2.9999999999999997e-05,0.0002,-0.00085,-2.9999999999999997e-05,2
5634,5871,1e-05,-5e-05,0.0,-9e-05,-2.9999999999999997e-05,0.0002,-0.00085,-2.9999999999999997e-05,2
5635,5872,1e-05,-5e-05,0.0,-9e-05,-2.9999999999999997e-05,0.0002,-0.00085,-2.9999999999999997e-05,2
5636,5873,1e-05,-5e-05,0.0,-9e-05,-2.9999999999999997e-05,0.0002,-0.00085,-2.9999999999999997e-05,2
5637,5874,1e-05,-5e-05,0.0,-9e-05,-2.9999999999999997e-05,0.0002,-0.00085,-2.9999999999999997e-05,2
5638,5875,1e-05,-5e-05,0.0,-9e-05,-2.9999999999999997e-05,0.0002,-0.00085,-2.9999999999999997e-05,2
5639,5876,1e-05,-5e-05,0.0,-9e-05,-2.9999999999999997e-05,0.0002,-0.00085,-2.9999999999999997e-05,2
5640,5877,1e-05,-5e-05,0.0,-9e-05,-2.9999999999999997e-05,0.0002,-0.00085,-2.9999999999999997e-05,2
5641,5878,1e-05,-5e-05,0.0,-9e-05,-2.9999999999999997e-05,0.0002,-0.00085,-2.9999999999999997e-05,2
5642,5879,1e-05,-5e-05,0.0,-9e-05,-2.9999999999999997e-05,0.0002,-0.00085,-2.9999999999999997e-05,2
5643,5880,1e-05,-5e-05,0.0,-9e-05,-2.9999999999999997e-05,0.0002,-0.00085,-2.9999999999999997e-05,2
5644,5881,-1e-05,-2e-05,1e-05,-4e-05,-2e-05,-0.00016999999999999999,-0.00011,5e-05,2
5645,5882,-1e-05,-2e-05,1e-05,-4e-05,-2e-05,-0.00016999999999999999,-0.00011,5e-05,2
5646,5883,-1e-05,-2e-05,1e-05,-4e-05,-2e-05,-0.00016999999999999999,-0.00011,5e-05,2
5647,5884,-1e-05,-2e-05,1e-05,-4e-05,-2e-05,-0.00016999999999999999,-0.00011,5e-05,2
5648,5885,-1e-05,-2e-05,1e-05,-4e-05,-2e-05,-0.00016999999999999999,-0.00011,5e-05,2
5649,5886,-1e-05,-2e-05,1e-05,-4e-05,-2e-05,-0.00016999999999999999,-0.00011,5e-05,2
5650,5888,-1e-05,-2e-05,1e-05,-4e-05,-2e-05,-0.00016999999999999999,-0.00011,5e-05,2
5651,5889,-7e-05,-4e-05,-0.00011,-0.00037999999999999997,-8e-05,2.9999999999999997e-05,-0.0001,-5e-05,2
5652,5890,-5e-05,2e-05,0.0001,0.00039,-2.9999999999999997e-05,-0.00032,8e-05,-2.9999999999999997e-05,2
5653,5891,-5e-05,2e-05,0.0001,0.00039,-2.9999999999999997e-05,-0.00032,8e-05,-2.9999999999999997e-05,2
5654,5892,-5e-05,2e-05,0.0001,0.00039,-2.9999999999999997e-05,-0.00032,8e-05,-2.9999999999999997e-05,2
5655,5893,-5e-05,2e-05,0.0001,0.00039,-2.9999999999999997e-05,-0.00032,8e-05,-2.9999999999999997e-05,2
5656,5894,-5e-05,2e-05,0.0001,0.00039,-2.9999999999999997e-05,-0.00032,8e-05,-2.9999999999999997e-05,2
5657,5895,-5e-05,2e-05,0.0001,0.00039,-2.9999999999999997e-05,-0.00032,8e-05,-2.9999999999999997e-05,2
5658,5896,-5e-05,2e-05,0.0001,0.00039,-2.9999999999999997e-05,-0.00032,8e-05,-2.9999999999999997e-05,2
5659,5897,-5e-05,2e-05,0.0001,0.00039,-2.9999999999999997e-05,-0.00032,8e-05,-2.9999999999999997e-05,2
5660,5898,-5e-05,2e-05,0.0001,0.00039,-2.9999999999999997e-05,-0.00032,8e-05,-2.9999999999999997e-05,2
5661,5899,-5e-05,2e-05,0.0001,0.00039,-2.9999999999999997e-05,-0.00032,8e-05,-2.9999999999999997e-05,2
5662,5900,-5e-05,2e-05,0.0001,0.00039,-2.9999999999999997e-05,-0.00032,8e-05,-2.9999999999999997e-05,2
5663,5901,-5e-05,2e-05,0.0001,0.00039,-2.9999999999999997e-05,-0.00032,8e-05,-2.9999999999999997e-05,2
5664,5902,-5e-05,2e-05,0.0001,0.00039,-2.9999999999999997e-05,-0.00032,8e-05,-2.9999999999999997e-05,2
5665,5903,-5e-05,2e-05,0.0001,0.00039,-2.9999999999999997e-05,-0.00032,8e-05,-2.9999999999999997e-05,2
5666,5904,5e-05,0.0,-7e-05,-0.0006900000000000001,-9e-05,0.0003,0.00013000000000000002,-1e-05,2
5667,5905,-0.00013000000000000002,-9e-05,-5.9999999999999995e-05,0.00029,-0.0001,-7e-05,-0.0008699999999999999,-0.00016,2
5668,5906,-0.00021,-0.00016,-0.00016999999999999999,-0.00022999999999999998,-0.00011999999999999999,-5.9999999999999995e-05,0.0,-0.00011,2
5669,5907,-0.00021,-0.00016,-0.00016999999999999999,-0.00022999999999999998,-0.00011999999999999999,-5.9999999999999995e-05,0.0,-0.00011,2
5670,5908,-0.00021,-0.00016,-0.00016999999999999999,-0.00022999999999999998,-0.00011999999999999999,-5.9999999999999995e-05,0.0,-0.00011,2
5671,5909,-0.00021,-0.00016,-0.00016999999999999999,-0.00022999999999999998,-0.00011999999999999999,-5.9999999999999995e-05,0.0,-0.00011,2
5672,5910,-0.00021,-0.00016,-0.00016999999999999999,-0.00022999999999999998,-0.00011999999999999999,-5.9999999999999995e-05,0.0,-0.00011,2
5673,5911,-0.00021,-0.00016,-0.00016999999999999999,-0.00022999999999999998,-0.00011999999999999999,-5.9999999999999995e-05,0.0,-0.00011,2
5674,5912,-0.00021,-0.00016,-0.00016999999999999999,-0.00022999999999999998,-0.00011999999999999999,-5.9999999999999995e-05,0.0,-0.00011,2
5675,5913,-0.00021,-0.00016,-0.00016999999999999999,-0.00022999999999999998,-0.00011999999999999999,-5.9999999999999995e-05,0.0,-0.00011,2
5676,5914,-0.00021,-0.00016,-0.00016999999999999999,-0.00022999999999999998,-0.00011999999999999999,-5.9999999999999995e-05,0.0,-0.00011,2
5677,5915,-0.00021,-0.00016,-0.00016999999999999999,-0.00022999999999999998,-0.00011999999999999999,-5.9999999999999995e-05,0.0,-0.00011,2
5678,5916,-0.00021,-0.00016,-0.00016999999999999999,-0.00022999999999999998,-0.00011999999999999999,-5.9999999999999995e-05,0.0,-0.00011,2
5679,5917,-0.00021,-0.00016,-0.00016999999999999999,-0.00022999999999999998,-0.00011999999999999999,-5.9999999999999995e-05,0.0,-0.00011,2
5680,5918,-0.00021,-0.00016,-0.00016999999999999999,-0.00022999999999999998,-0.00011999999999999999,-5.9999999999999995e-05,0.0,-0.00011,2
5681,5919,-0.00021,-0.00016,-0.00016999999999999999,-0.00022999999999999998,-0.00011999999999999999,-5.9999999999999995e-05,0.0,-0.00011,2
5682,5920,-0.00021,-0.00016,-0.00016999999999999999,-0.00022999999999999998,-0.00011999999999999999,-5.9999999999999995e-05,0.0,-0.00011,2
5683,5921,-0.00021,-0.00016,-0.00016999999999999999,-0.00022999999999999998,-0.00011999999999999999,-5.9999999999999995e-05,0.0,-0.00011,2
5684,5922,-0.00021,-0.00016,-0.00016999999999999999,-0.00022999999999999998,-0.00011999999999999999,-5.9999999999999995e-05,0.0,-0.00011,2
5685,5923,-0.00021,-0.00016,-0.00016999999999999999,-0.00022999999999999998,-0.00011999999999999999,-5.9999999999999995e-05,0.0,-0.00011,2
5686,5924,-0.00021,-0.00016,-0.00016999999999999999,-0.00022999999999999998,-0.00011999999999999999,-5.9999999999999995e-05,0.0,-0.00011,2
5687,5925,-0.00021,-0.00016,-0.00016999999999999999,-0.00022999999999999998,-0.00011999999999999999,-5.9999999999999995e-05,0.0,-0.00011,2
5688,5926,-0.00021,-0.00016,-0.00016999999999999999,-0.00022999999999999998,-0.00011999999999999999,-5.9999999999999995e-05,0.0,-0.00011,2
5689,5927,-5e-05,-5.9999999999999995e-05,-4e-05,0.00022,9e-05,-0.00028,-0.00099,-0.0001,2
5690,5928,-1e-05,-4e-05,-5.9999999999999995e-05,4e-05,2e-05,2.9999999999999997e-05,-1e-05,9e-05,2
5691,5929,2e-05,4e-05,0.0,-8e-05,-5.9999999999999995e-05,5.9999999999999995e-05,0.00086,1e-05,2
5692,5930,2e-05,4e-05,0.0,-8e-05,-5.9999999999999995e-05,5.9999999999999995e-05,0.00086,1e-05,2
5693,5931,2e-05,4e-05,0.0,-8e-05,-5.9999999999999995e-05,5.9999999999999995e-05,0.00086,1e-05,2
5694,5932,2e-05,4e-05,0.0,-8e-05,-5.9999999999999995e-05,5.9999999999999995e-05,0.00086,1e-05,2
5695,5933,2e-05,4e-05,0.0,-8e-05,-5.9999999999999995e-05,5.9999999999999995e-05,0.00086,1e-05,2
5696,5934,2e-05,4e-05,0.0,-8e-05,-5.9999999999999995e-05,5.9999999999999995e-05,0.00086,1e-05,2
5697,5935,2e-05,4e-05,0.0,-8e-05,-5.9999999999999995e-05,5.9999999999999995e-05,0.00086,1e-05,2
5698,5936,2e-05,4e-05,0.0,-8e-05,-5.9999999999999995e-05,5.9999999999999995e-05,0.00086,1e-05,2
5699,5938,2e-05,4e-05,0.0,-8e-05,-5.9999999999999995e-05,5.9999999999999995e-05,0.00086,1e-05,2
5700,5939,2e-05,4e-05,0.0,-8e-05,-5.9999999999999995e-05,5.9999999999999995e-05,0.00086,1e-05,2
5701,5940,2e-05,4e-05,0.0,-8e-05,-5.9999999999999995e-05,5.9999999999999995e-05,0.00086,1e-05,2
5702,5941,-0.0001,0.0,1e-05,-0.00045999999999999996,-2.9999999999999997e-05,5e-05,0.00016,-0.00011999999999999999,2
5703,5942,-0.0001,0.0,1e-05,-0.00045999999999999996,-2.9999999999999997e-05,5e-05,0.00016,-0.00011999999999999999,2
5704,5943,-0.0001,0.0,1e-05,-0.00045999999999999996,-2.9999999999999997e-05,5e-05,0.00016,-0.00011999999999999999,2
5705,5944,-0.0001,0.0,1e-05,-0.00045999999999999996,-2.9999999999999997e-05,5e-05,0.00016,-0.00011999999999999999,2
5706,5945,-0.0001,0.0,1e-05,-0.00045999999999999996,-2.9999999999999997e-05,5e-05,0.00016,-0.00011999999999999999,2
5707,5946,-0.0001,0.0,1e-05,-0.00045999999999999996,-2.9999999999999997e-05,5e-05,0.00016,-0.00011999999999999999,2
5708,5947,-0.0001,0.0,1e-05,-0.00045999999999999996,-2.9999999999999997e-05,5e-05,0.00016,-0.00011999999999999999,2
5709,5948,-0.0001,0.0,1e-05,-0.00045999999999999996,-2.9999999999999997e-05,5e-05,0.00016,-0.00011999999999999999,2
5710,5949,8e-05,-2e-05,4e-05,1e-05,-5.9999999999999995e-05,-0.00035,-0.00047000000000000004,8e-05,2
5711,5950,0.00011999999999999999,2.9999999999999997e-05,-5.9999999999999995e-05,1e-05,0.0001,0.00011,0.0008300000000000001,0.00016,2
5712,5951,0.00011999999999999999,2.9999999999999997e-05,-5.9999999999999995e-05,1e-05,0.0001,0.00011,0.0008300000000000001,0.00016,2
5713,5952,0.00011999999999999999,2.9999999999999997e-05,-5.9999999999999995e-05,1e-05,0.0001,0.00011,0.0008300000000000001,0.00016,2
5714,5953,0.00011999999999999999,2.9999999999999997e-05,-5.9999999999999995e-05,1e-05,0.0001,0.00011,0.0008300000000000001,0.00016,2
5715,5954,0.00011999999999999999,2.9999999999999997e-05,-5.9999999999999995e-05,1e-05,0.0001,0.00011,0.0008300000000000001,0.00016,2
5716,5955,0.00011999999999999999,2.9999999999999997e-05,-5.9999999999999995e-05,1e-05,0.0001,0.00011,0.0008300000000000001,0.00016,2
5717,5956,0.00011999999999999999,2.9999999999999997e-05,-5.9999999999999995e-05,1e-05,0.0001,0.00011,0.0008300000000000001,0.00016,2
5718,5957,0.00011999999999999999,2.9999999999999997e-05,-5.9999999999999995e-05,1e-05,0.0001,0.00011,0.0008300000000000001,0.00016,2
5719,5958,0.00011999999999999999,2.9999999999999997e-05,-5.9999999999999995e-05,1e-05,0.0001,0.00011,0.0008300000000000001,0.00016,2
5720,5959,0.00011999999999999999,2.9999999999999997e-05,-5.9999999999999995e-05,1e-05,0.0001,0.00011,0.0008300000000000001,0.00016,2
5721,5960,0.00011999999999999999,2.9999999999999997e-05,-5.9999999999999995e-05,1e-05,0.0001,0.00011,0.0008300000000000001,0.00016,2
5722,5961,0.00011999999999999999,2.9999999999999997e-05,-5.9999999999999995e-05,1e-05,0.0001,0.00011,0.0008300000000000001,0.00016,2
5723,5962,0.00011999999999999999,2.9999999999999997e-05,-5.9999999999999995e-05,1e-05,0.0001,0.00011,0.0008300000000000001,0.00016,2
5724,5963,0.00011999999999999999,2.9999999999999997e-05,-5.9999999999999995e-05,1e-05,0.0001,0.00011,0.0008300000000000001,0.00016,2
5725,5964,-0.00027,-1e-05,0.00011,0.00037,0.0,5e-05,-0.0007,-0.00037,2
5726,5965,0.00021,1e-05,-9e-05,-0.00043,-0.00014,-0.00025,-0.00021,9e-05,2
5727,5966,-4e-05,-7e-05,-0.00022,0.00018,5e-05,-4e-05,0.00112,-4e-05,2
5728,5967,-4e-05,-7e-05,-0.00022,0.00018,5e-05,-4e-05,0.00112,-4e-05,2
5729,5968,-4e-05,-7e-05,-0.00022,0.00018,5e-05,-4e-05,0.00112,-4e-05,2
5730,5969,-4e-05,-7e-05,-0.00022,0.00018,5e-05,-4e-05,0.00112,-4e-05,2
5731,5970,-4e-05,-7e-05,-0.00022,0.00018,5e-05,-4e-05,0.00112,-4e-05,2
5732,5971,-4e-05,-7e-05,-0.00022,0.00018,5e-05,-4e-05,0.00112,-4e-05,2
5733,5972,-4e-05,-7e-05,-0.00022,0.00018,5e-05,-4e-05,0.00112,-4e-05,2
5734,5973,-4e-05,-7e-05,-0.00022,0.00018,5e-05,-4e-05,0.00112,-4e-05,2
5735,5974,-4e-05,-7e-05,-0.00022,0.00018,5e-05,-4e-05,0.00112,-4e-05,2
5736,5975,-4e-05,-7e-05,-0.00022,0.00018,5e-05,-4e-05,0.00112,-4e-05,2
5737,5976,-4e-05,-7e-05,-0.00022,0.00018,5e-05,-4e-05,0.00112,-4e-05,2
5738,5977,-4e-05,-7e-05,-0.00022,0.00018,5e-05,-4e-05,0.00112,-4e-05,2
5739,5978,-4e-05,-7e-05,-0.00022,0.00018,5e-05,-4e-05,0.00112,-4e-05,2
5740,5979,-4e-05,-7e-05,-0.00022,0.00018,5e-05,-4e-05,0.00112,-4e-05,2
5741,5980,-4e-05,-7e-05,-0.00022,0.00018,5e-05,-4e-05,0.00112,-4e-05,2
5742,5981,-4e-05,-7e-05,-0.00022,0.00018,5e-05,-4e-05,0.00112,-4e-05,2
5743,5982,-4e-05,-7e-05,-0.00022,0.00018,5e-05,-4e-05,0.00112,-4e-05,2
5744,5983,-4e-05,-7e-05,-0.00022,0.00018,5e-05,-4e-05,0.00112,-4e-05,2
5745,5984,-4e-05,-7e-05,-0.00022,0.00018,5e-05,-4e-05,0.00112,-4e-05,2
5746,5985,-4e-05,-7e-05,-0.00022,0.00018,5e-05,-4e-05,0.00112,-4e-05,2
5747,5986,-4e-05,-7e-05,-0.00022,0.00018,5e-05,-4e-05,0.00112,-4e-05,2
5748,5988,-0.00013000000000000002,-2e-05,2e-05,1e-05,0.00016999999999999999,0.00014,0.0008699999999999999,2e-05,2
5749,5989,-0.0001,-2.9999999999999997e-05,7e-05,9e-05,0.00011,-4e-05,-0.00057,-0.00031,2
5750,5990,-0.0001,-2.9999999999999997e-05,7e-05,9e-05,0.00011,-4e-05,-0.00057,-0.00031,2
5751,5991,-0.0001,-2.9999999999999997e-05,7e-05,9e-05,0.00011,-4e-05,-0.00057,-0.00031,2
5752,5992,-0.0001,-2.9999999999999997e-05,7e-05,9e-05,0.00011,-4e-05,-0.00057,-0.00031,2
5753,5993,-0.0001,-2.9999999999999997e-05,7e-05,9e-05,0.00011,-4e-05,-0.00057,-0.00031,2
5754,5994,-0.0001,-2.9999999999999997e-05,7e-05,9e-05,0.00011,-4e-05,-0.00057,-0.00031,2
5755,5995,-0.0001,-2.9999999999999997e-05,7e-05,9e-05,0.00011,-4e-05,-0.00057,-0.00031,2
5756,5996,-0.0001,-2.9999999999999997e-05,7e-05,9e-05,0.00011,-4e-05,-0.00057,-0.00031,2
5757,5997,-0.0001,-2.9999999999999997e-05,7e-05,9e-05,0.00011,-4e-05,-0.00057,-0.00031,2
5758,5998,-0.0001,-2.9999999999999997e-05,7e-05,9e-05,0.00011,-4e-05,-0.00057,-0.00031,2
5759,5999,-0.0001,-2.9999999999999997e-05,7e-05,9e-05,0.00011,-4e-05,-0.00057,-0.00031,2
5760,6000,-0.0001,-2.9999999999999997e-05,7e-05,9e-05,0.00011,-4e-05,-0.00057,-0.00031,2
5761,6001,-5.9999999999999995e-05,-5e-05,-5.9999999999999995e-05,0.00058,7e-05,2e-05,0.0005,0.0,2
5762,6002,-5.9999999999999995e-05,-5e-05,-5.9999999999999995e-05,0.00058,7e-05,2e-05,0.0005,0.0,2
5763,6003,-5.9999999999999995e-05,-5e-05,-5.9999999999999995e-05,0.00058,7e-05,2e-05,0.0005,0.0,2
5764,6004,-5.9999999999999995e-05,-5e-05,-5.9999999999999995e-05,0.00058,7e-05,2e-05,0.0005,0.0,2
5765,6005,-5.9999999999999995e-05,-5e-05,-5.9999999999999995e-05,0.00058,7e-05,2e-05,0.0005,0.0,2
5766,6006,-5.9999999999999995e-05,-5e-05,-5.9999999999999995e-05,0.00058,7e-05,2e-05,0.0005,0.0,2
5767,6007,-5.9999999999999995e-05,-5e-05,-5.9999999999999995e-05,0.00058,7e-05,2e-05,0.0005,0.0,2
5768,6008,-5.9999999999999995e-05,-5e-05,-5.9999999999999995e-05,0.00058,7e-05,2e-05,0.0005,0.0,2
5769,6009,0.00011,7e-05,-1e-05,-0.00023999999999999998,-0.00013000000000000002,2.9999999999999997e-05,0.00125,0.00037,2
5770,6010,-8e-05,-5e-05,-0.0001,-0.0002,-7e-05,0.00033,-0.00061,-0.00011999999999999999,2
5771,6011,-8e-05,-5e-05,-0.0001,-0.0002,-7e-05,0.00033,-0.00061,-0.00011999999999999999,2
5772,6012,-8e-05,-5e-05,-0.0001,-0.0002,-7e-05,0.00033,-0.00061,-0.00011999999999999999,2
5773,6013,-8e-05,-5e-05,-0.0001,-0.0002,-7e-05,0.00033,-0.00061,-0.00011999999999999999,2
5774,6014,-8e-05,-5e-05,-0.0001,-0.0002,-7e-05,0.00033,-0.00061,-0.00011999999999999999,2
5775,6015,-8e-05,-5e-05,-0.0001,-0.0002,-7e-05,0.00033,-0.00061,-0.00011999999999999999,2
5776,6016,-8e-05,-5e-05,-0.0001,-0.0002,-7e-05,0.00033,-0.00061,-0.00011999999999999999,2
5777,6017,-8e-05,-5e-05,-0.0001,-0.0002,-7e-05,0.00033,-0.00061,-0.00011999999999999999,2
5778,6018,-8e-05,-5e-05,-0.0001,-0.0002,-7e-05,0.00033,-0.00061,-0.00011999999999999999,2
5779,6019,-8e-05,-5e-05,-0.0001,-0.0002,-7e-05,0.00033,-0.00061,-0.00011999999999999999,2
5780,6020,-8e-05,-5e-05,-0.0001,-0.0002,-7e-05,0.00033,-0.00061,-0.00011999999999999999,2
5781,6021,-8e-05,-5e-05,-0.0001,-0.0002,-7e-05,0.00033,-0.00061,-0.00011999999999999999,2
5782,6022,-8e-05,-5e-05,-0.0001,-0.0002,-7e-05,0.00033,-0.00061,-0.00011999999999999999,2
5783,6023,-8e-05,-5e-05,-0.0001,-0.0002,-7e-05,0.00033,-0.00061,-0.00011999999999999999,2
5784,6024,9e-05,2.9999999999999997e-05,1e-05,-5e-05,-0.00021,0.00011,8e-05,0.00016,2
5785,6025,-0.00015,0.0,4e-05,-0.00023999999999999998,2e-05,-8e-05,-0.00018999999999999998,-0.00021,2
5786,6026,-2e-05,-2e-05,4e-05,-9e-05,-2.9999999999999997e-05,-0.00011,-7e-05,5.9999999999999995e-05,2
5787,6027,-2e-05,-2e-05,4e-05,-9e-05,-2.9999999999999997e-05,-0.00011,-7e-05,5.9999999999999995e-05,2
5788,6028,-2e-05,-2e-05,4e-05,-9e-05,-2.9999999999999997e-05,-0.00011,-7e-05,5.9999999999999995e-05,2
5789,6029,-2e-05,-2e-05,4e-05,-9e-05,-2.9999999999999997e-05,-0.00011,-7e-05,5.9999999999999995e-05,2
5790,6030,-2e-05,-2e-05,4e-05,-9e-05,-2.9999999999999997e-05,-0.00011,-7e-05,5.9999999999999995e-05,2
5791,6031,-2e-05,-2e-05,4e-05,-9e-05,-2.9999999999999997e-05,-0.00011,-7e-05,5.9999999999999995e-05,2
5792,6032,-2e-05,-2e-05,4e-05,-9e-05,-2.9999999999999997e-05,-0.00011,-7e-05,5.9999999999999995e-05,2
5793,6033,-2e-05,-2e-05,4e-05,-9e-05,-2.9999999999999997e-05,-0.00011,-7e-05,5.9999999999999995e-05,2
5794,6034,-2e-05,-2e-05,4e-05,-9e-05,-2.9999999999999997e-05,-0.00011,-7e-05,5.9999999999999995e-05,2
5795,6035,-2e-05,-2e-05,4e-05,-9e-05,-2.9999999999999997e-05,-0.00011,-7e-05,5.9999999999999995e-05,2
5796,6037,-2e-05,-2e-05,4e-05,-9e-05,-2.9999999999999997e-05,-0.00011,-7e-05,5.9999999999999995e-05,2
5797,6039,-2e-05,-2e-05,4e-05,-9e-05,-2.9999999999999997e-05,-0.00011,-7e-05,5.9999999999999995e-05,2
5798,6040,-2e-05,-2e-05,4e-05,-9e-05,-2.9999999999999997e-05,-0.00011,-7e-05,5.9999999999999995e-05,2
5799,6041,-2e-05,-2e-05,4e-05,-9e-05,-2.9999999999999997e-05,-0.00011,-7e-05,5.9999999999999995e-05,2
5800,6042,-2e-05,-2e-05,4e-05,-9e-05,-2.9999999999999997e-05,-0.00011,-7e-05,5.9999999999999995e-05,2
5801,6043,-2e-05,-2e-05,4e-05,-9e-05,-2.9999999999999997e-05,-0.00011,-7e-05,5.9999999999999995e-05,2
5802,6044,-2e-05,-2e-05,4e-05,-9e-05,-2.9999999999999997e-05,-0.00011,-7e-05,5.9999999999999995e-05,2
5803,6045,-2e-05,-2e-05,4e-05,-9e-05,-2.9999999999999997e-05,-0.00011,-7e-05,5.9999999999999995e-05,2
5804,6046,-2e-05,-2e-05,4e-05,-9e-05,-2.9999999999999997e-05,-0.00011,-7e-05,5.9999999999999995e-05,2
5805,6047,5e-05,-1e-05,-2e-05,-0.00072,-2.9999999999999997e-05,5.9999999999999995e-05,-0.00018,-1e-05,2
5806,6048,-0.0001,-9e-05,-4e-05,0.00057,-5e-05,-0.00026000000000000003,0.00031,-2.9999999999999997e-05,2
5807,6049,0.00011999999999999999,0.00011,2e-05,7e-05,-4e-05,0.00029,5e-05,0.0001,2
5808,6050,0.00011999999999999999,0.00011,2e-05,7e-05,-4e-05,0.00029,5e-05,0.0001,2
5809,6051,0.00011999999999999999,0.00011,2e-05,7e-05,-4e-05,0.00029,5e-05,0.0001,2
5810,6052,0.00011999999999999999,0.00011,2e-05,7e-05,-4e-05,0.00029,5e-05,0.0001,2
5811,6053,0.00011999999999999999,0.00011,2e-05,7e-05,-4e-05,0.00029,5e-05,0.0001,2
5812,6054,0.00011999999999999999,0.00011,2e-05,7e-05,-4e-05,0.00029,5e-05,0.0001,2
5813,6055,0.00011999999999999999,0.00011,2e-05,7e-05,-4e-05,0.00029,5e-05,0.0001,2
5814,6056,0.00011999999999999999,0.00011,2e-05,7e-05,-4e-05,0.00029,5e-05,0.0001,2
5815,6057,0.00011999999999999999,0.00011,2e-05,7e-05,-4e-05,0.00029,5e-05,0.0001,2
5816,6058,0.00011999999999999999,0.00011,2e-05,7e-05,-4e-05,0.00029,5e-05,0.0001,2
5817,6059,0.00011999999999999999,0.00011,2e-05,7e-05,-4e-05,0.00029,5e-05,0.0001,2
5818,6060,0.0,-2.9999999999999997e-05,2.9999999999999997e-05,-0.0001,2.9999999999999997e-05,-0.00018,-0.00018999999999999998,-0.00011999999999999999,2
5819,6061,2.9999999999999997e-05,2e-05,5e-05,0.0005,0.00016,-0.00011999999999999999,-8e-05,0.00016,2
5820,6062,2.9999999999999997e-05,2e-05,5e-05,0.0005,0.00016,-0.00011999999999999999,-8e-05,0.00016,2
5821,6063,2.9999999999999997e-05,2e-05,5e-05,0.0005,0.00016,-0.00011999999999999999,-8e-05,0.00016,2
5822,6064,2.9999999999999997e-05,2e-05,5e-05,0.0005,0.00016,-0.00011999999999999999,-8e-05,0.00016,2
5823,6065,2.9999999999999997e-05,2e-05,5e-05,0.0005,0.00016,-0.00011999999999999999,-8e-05,0.00016,2
5824,6066,2.9999999999999997e-05,2e-05,5e-05,0.0005,0.00016,-0.00011999999999999999,-8e-05,0.00016,2
5825,6067,2.9999999999999997e-05,2e-05,5e-05,0.0005,0.00016,-0.00011999999999999999,-8e-05,0.00016,2
5826,6068,2.9999999999999997e-05,2e-05,5e-05,0.0005,0.00016,-0.00011999999999999999,-8e-05,0.00016,2
5827,6069,2.9999999999999997e-05,2e-05,5e-05,0.0005,0.00016,-0.00011999999999999999,-8e-05,0.00016,2
5828,6070,0.00031,0.00013000000000000002,0.00013000000000000002,0.0008900000000000001,0.00025,0.0,0.0007599999999999999,0.0001,2
5829,6071,0.00031,0.00013000000000000002,0.00013000000000000002,0.0008900000000000001,0.00025,0.0,0.0007599999999999999,0.0001,2
5830,6072,0.00031,0.00013000000000000002,0.00013000000000000002,0.0008900000000000001,0.00025,0.0,0.0007599999999999999,0.0001,2
5831,6073,0.00031,0.00013000000000000002,0.00013000000000000002,0.0008900000000000001,0.00025,0.0,0.0007599999999999999,0.0001,2
5832,6074,0.00031,0.00013000000000000002,0.00013000000000000002,0.0008900000000000001,0.00025,0.0,0.0007599999999999999,0.0001,2
5833,6075,0.00031,0.00013000000000000002,0.00013000000000000002,0.0008900000000000001,0.00025,0.0,0.0007599999999999999,0.0001,2
5834,6076,0.00031,0.00013000000000000002,0.00013000000000000002,0.0008900000000000001,0.00025,0.0,0.0007599999999999999,0.0001,2
5835,6077,0.00031,0.00013000000000000002,0.00013000000000000002,0.0008900000000000001,0.00025,0.0,0.0007599999999999999,0.0001,2
5836,6078,0.00031,0.00013000000000000002,0.00013000000000000002,0.0008900000000000001,0.00025,0.0,0.0007599999999999999,0.0001,2
5837,6079,0.00031,0.00013000000000000002,0.00013000000000000002,0.0008900000000000001,0.00025,0.0,0.0007599999999999999,0.0001,2
5838,6080,0.00031,0.00013000000000000002,0.00013000000000000002,0.0008900000000000001,0.00025,0.0,0.0007599999999999999,0.0001,2
5839,6081,0.00031,0.00013000000000000002,0.00013000000000000002,0.0008900000000000001,0.00025,0.0,0.0007599999999999999,0.0001,2
5840,6082,0.00031,0.00013000000000000002,0.00013000000000000002,0.0008900000000000001,0.00025,0.0,0.0007599999999999999,0.0001,2
5841,6083,0.00031,0.00013000000000000002,0.00013000000000000002,0.0008900000000000001,0.00025,0.0,0.0007599999999999999,0.0001,2
5842,6084,0.00031,0.00013000000000000002,0.00013000000000000002,0.0008900000000000001,0.00025,0.0,0.0007599999999999999,0.0001,2
5843,6085,-0.00018999999999999998,-0.0001,-5e-05,0.00018,-8e-05,-8e-05,-0.0010400000000000001,-0.00028,2
5844,6086,-0.00013000000000000002,-5e-05,2.9999999999999997e-05,-0.00033999999999999997,-0.00018,-0.00025,-0.00021,-0.0001,2
5845,6088,-0.00013000000000000002,-5e-05,2.9999999999999997e-05,-0.00033999999999999997,-0.00018,-0.00025,-0.00021,-0.0001,2
5846,6089,-0.00013000000000000002,-5e-05,2.9999999999999997e-05,-0.00033999999999999997,-0.00018,-0.00025,-0.00021,-0.0001,2
5847,6090,-0.00013000000000000002,-5e-05,2.9999999999999997e-05,-0.00033999999999999997,-0.00018,-0.00025,-0.00021,-0.0001,2
5848,6091,-0.00013000000000000002,-5e-05,2.9999999999999997e-05,-0.00033999999999999997,-0.00018,-0.00025,-0.00021,-0.0001,2
5849,6092,-0.00013000000000000002,-5e-05,2.9999999999999997e-05,-0.00033999999999999997,-0.00018,-0.00025,-0.00021,-0.0001,2
5850,6093,-0.00013000000000000002,-5e-05,2.9999999999999997e-05,-0.00033999999999999997,-0.00018,-0.00025,-0.00021,-0.0001,2
5851,6094,-0.00013000000000000002,-5e-05,2.9999999999999997e-05,-0.00033999999999999997,-0.00018,-0.00025,-0.00021,-0.0001,2
5852,6095,-0.00013000000000000002,-5e-05,2.9999999999999997e-05,-0.00033999999999999997,-0.00018,-0.00025,-0.00021,-0.0001,2
5853,6096,-0.00013000000000000002,-5e-05,2.9999999999999997e-05,-0.00033999999999999997,-0.00018,-0.00025,-0.00021,-0.0001,2
5854,6097,-0.00013000000000000002,-5e-05,2.9999999999999997e-05,-0.00033999999999999997,-0.00018,-0.00025,-0.00021,-0.0001,2
5855,6098,-0.00013000000000000002,-5e-05,2.9999999999999997e-05,-0.00033999999999999997,-0.00018,-0.00025,-0.00021,-0.0001,2
5856,6099,-0.00013000000000000002,-5e-05,2.9999999999999997e-05,-0.00033999999999999997,-0.00018,-0.00025,-0.00021,-0.0001,2
5857,6100,-0.00013000000000000002,-5e-05,2.9999999999999997e-05,-0.00033999999999999997,-0.00018,-0.00025,-0.00021,-0.0001,2
5858,6101,-0.00013000000000000002,-5e-05,2.9999999999999997e-05,-0.00033999999999999997,-0.00018,-0.00025,-0.00021,-0.0001,2
5859,6102,-0.00013000000000000002,-5e-05,2.9999999999999997e-05,-0.00033999999999999997,-0.00018,-0.00025,-0.00021,-0.0001,2
5860,6103,-0.00013000000000000002,-5e-05,2.9999999999999997e-05,-0.00033999999999999997,-0.00018,-0.00025,-0.00021,-0.0001,2
5861,6104,-0.00013000000000000002,-5e-05,2.9999999999999997e-05,-0.00033999999999999997,-0.00018,-0.00025,-0.00021,-0.0001,2
5862,6105,-0.00013000000000000002,-5e-05,2.9999999999999997e-05,-0.00033999999999999997,-0.00018,-0.00025,-0.00021,-0.0001,2
5863,6106,-0.00013000000000000002,-5e-05,2.9999999999999997e-05,-0.00033999999999999997,-0.00018,-0.00025,-0.00021,-0.0001,2
5864,6107,0.00011999999999999999,-1e-05,2e-05,0.0007,5.9999999999999995e-05,-0.00011,-0.00064,0.00011999999999999999,2
5865,6108,0.00011999999999999999,-1e-05,2e-05,0.0007,5.9999999999999995e-05,-0.00011,-0.00064,0.00011999999999999999,2
5866,6109,1e-05,-7e-05,-0.00011999999999999999,0.00029,2.9999999999999997e-05,-0.00015,-0.00022999999999999998,0.00015,2
5867,6110,1e-05,-7e-05,-0.00011999999999999999,0.00029,2.9999999999999997e-05,-0.00015,-0.00022999999999999998,0.00015,2
5868,6111,1e-05,-7e-05,-0.00011999999999999999,0.00029,2.9999999999999997e-05,-0.00015,-0.00022999999999999998,0.00015,2
5869,6112,1e-05,-7e-05,-0.00011999999999999999,0.00029,2.9999999999999997e-05,-0.00015,-0.00022999999999999998,0.00015,2
5870,6113,1e-05,-7e-05,-0.00011999999999999999,0.00029,2.9999999999999997e-05,-0.00015,-0.00022999999999999998,0.00015,2
5871,6114,1e-05,-7e-05,-0.00011999999999999999,0.00029,2.9999999999999997e-05,-0.00015,-0.00022999999999999998,0.00015,2
5872,6115,1e-05,-7e-05,-0.00011999999999999999,0.00029,2.9999999999999997e-05,-0.00015,-0.00022999999999999998,0.00015,2
5873,6116,1e-05,-7e-05,-0.00011999999999999999,0.00029,2.9999999999999997e-05,-0.00015,-0.00022999999999999998,0.00015,2
5874,6117,1e-05,-7e-05,-0.00011999999999999999,0.00029,2.9999999999999997e-05,-0.00015,-0.00022999999999999998,0.00015,2
5875,6118,1e-05,-7e-05,-0.00011999999999999999,0.00029,2.9999999999999997e-05,-0.00015,-0.00022999999999999998,0.00015,2
5876,6119,1e-05,-7e-05,-0.00011999999999999999,0.00029,2.9999999999999997e-05,-0.00015,-0.00022999999999999998,0.00015,2
5877,6120,1e-05,-7e-05,-0.00011999999999999999,0.00029,2.9999999999999997e-05,-0.00015,-0.00022999999999999998,0.00015,2
5878,6121,0.00015,2e-05,-2e-05,-0.00055,-0.00026000000000000003,-5.9999999999999995e-05,0.00011999999999999999,0.00013000000000000002,2
5879,6122,0.00015,2e-05,-2e-05,-0.00055,-0.00026000000000000003,-5.9999999999999995e-05,0.00011999999999999999,0.00013000000000000002,2
5880,6123,0.00015,2e-05,-2e-05,-0.00055,-0.00026000000000000003,-5.9999999999999995e-05,0.00011999999999999999,0.00013000000000000002,2
5881,6124,0.00015,2e-05,-2e-05,-0.00055,-0.00026000000000000003,-5.9999999999999995e-05,0.00011999999999999999,0.00013000000000000002,2
5882,6125,0.00015,2e-05,-2e-05,-0.00055,-0.00026000000000000003,-5.9999999999999995e-05,0.00011999999999999999,0.00013000000000000002,2
5883,6126,0.00015,2e-05,-2e-05,-0.00055,-0.00026000000000000003,-5.9999999999999995e-05,0.00011999999999999999,0.00013000000000000002,2
5884,6127,0.00015,2e-05,-2e-05,-0.00055,-0.00026000000000000003,-5.9999999999999995e-05,0.00011999999999999999,0.00013000000000000002,2
5885,6128,0.00015,2e-05,-2e-05,-0.00055,-0.00026000000000000003,-5.9999999999999995e-05,0.00011999999999999999,0.00013000000000000002,2
5886,6129,4e-05,5.9999999999999995e-05,5e-05,0.00036,0.00018999999999999998,-5e-05,-0.00074,-2e-05,2
5887,6130,-0.0001,-9e-05,-0.00015,-0.00047999999999999996,-0.00022999999999999998,-0.00033,-0.0011300000000000001,-5.9999999999999995e-05,2
5888,6131,-0.0001,-9e-05,-0.00015,-0.00047999999999999996,-0.00022999999999999998,-0.00033,-0.0011300000000000001,-5.9999999999999995e-05,2
5889,6132,-0.0001,-9e-05,-0.00015,-0.00047999999999999996,-0.00022999999999999998,-0.00033,-0.0011300000000000001,-5.9999999999999995e-05,2
5890,6133,-0.0001,-9e-05,-0.00015,-0.00047999999999999996,-0.00022999999999999998,-0.00033,-0.0011300000000000001,-5.9999999999999995e-05,2
5891,6134,-0.0001,-9e-05,-0.00015,-0.00047999999999999996,-0.00022999999999999998,-0.00033,-0.0011300000000000001,-5.9999999999999995e-05,2
5892,6135,-0.0001,-9e-05,-0.00015,-0.00047999999999999996,-0.00022999999999999998,-0.00033,-0.0011300000000000001,-5.9999999999999995e-05,2
5893,6136,-0.0001,-9e-05,-0.00015,-0.00047999999999999996,-0.00022999999999999998,-0.00033,-0.0011300000000000001,-5.9999999999999995e-05,2
5894,6138,-0.0001,-9e-05,-0.00015,-0.00047999999999999996,-0.00022999999999999998,-0.00033,-0.0011300000000000001,-5.9999999999999995e-05,2
5895,6139,-0.0001,-9e-05,-0.00015,-0.00047999999999999996,-0.00022999999999999998,-0.00033,-0.0011300000000000001,-5.9999999999999995e-05,2
5896,6140,-0.0001,-9e-05,-0.00015,-0.00047999999999999996,-0.00022999999999999998,-0.00033,-0.0011300000000000001,-5.9999999999999995e-05,2
5897,6142,-0.0001,-9e-05,-0.00015,-0.00047999999999999996,-0.00022999999999999998,-0.00033,-0.0011300000000000001,-5.9999999999999995e-05,2
5898,6143,-0.0001,-9e-05,-0.00015,-0.00047999999999999996,-0.00022999999999999998,-0.00033,-0.0011300000000000001,-5.9999999999999995e-05,2
5899,6144,-0.0001,-9e-05,-0.00015,-0.00047999999999999996,-0.00022999999999999998,-0.00033,-0.0011300000000000001,-5.9999999999999995e-05,2
5900,6145,0.0001,5e-05,-5.9999999999999995e-05,-0.00011,0.00016,-2.9999999999999997e-05,0.00072,0.00016999999999999999,2
5901,6146,-8e-05,-2e-05,-9e-05,-0.00035,-0.00021,0.00016,-0.00016,-5.9999999999999995e-05,2
5902,6147,-0.00011,-2.9999999999999997e-05,-0.00014,5.9999999999999995e-05,-5e-05,0.00032,0.00072,-4e-05,2
5903,6148,-0.00011,-2.9999999999999997e-05,-0.00014,5.9999999999999995e-05,-5e-05,0.00032,0.00072,-4e-05,2
5904,6149,-0.00011,-2.9999999999999997e-05,-0.00014,5.9999999999999995e-05,-5e-05,0.00032,0.00072,-4e-05,2
5905,6150,-0.00011,-2.9999999999999997e-05,-0.00014,5.9999999999999995e-05,-5e-05,0.00032,0.00072,-4e-05,2
5906,6151,-0.00011,-2.9999999999999997e-05,-0.00014,5.9999999999999995e-05,-5e-05,0.00032,0.00072,-4e-05,2
5907,6152,-0.00011,-2.9999999999999997e-05,-0.00014,5.9999999999999995e-05,-5e-05,0.00032,0.00072,-4e-05,2
5908,6153,-0.00011,-2.9999999999999997e-05,-0.00014,5.9999999999999995e-05,-5e-05,0.00032,0.00072,-4e-05,2
5909,6154,-0.00011,-2.9999999999999997e-05,-0.00014,5.9999999999999995e-05,-5e-05,0.00032,0.00072,-4e-05,2
5910,6155,-0.00011,-2.9999999999999997e-05,-0.00014,5.9999999999999995e-05,-5e-05,0.00032,0.00072,-4e-05,2
5911,6156,-0.00011,-2.9999999999999997e-05,-0.00014,5.9999999999999995e-05,-5e-05,0.00032,0.00072,-4e-05,2
5912,6157,-0.00011,-2.9999999999999997e-05,-0.00014,5.9999999999999995e-05,-5e-05,0.00032,0.00072,-4e-05,2
5913,6158,-0.00011,-2.9999999999999997e-05,-0.00014,5.9999999999999995e-05,-5e-05,0.00032,0.00072,-4e-05,2
5914,6159,-0.00011,-2.9999999999999997e-05,-0.00014,5.9999999999999995e-05,-5e-05,0.00032,0.00072,-4e-05,2
5915,6160,-0.00011,-2.9999999999999997e-05,-0.00014,5.9999999999999995e-05,-5e-05,0.00032,0.00072,-4e-05,2
5916,6161,-0.00011,-2.9999999999999997e-05,-0.00014,5.9999999999999995e-05,-5e-05,0.00032,0.00072,-4e-05,2
5917,6162,-0.00011,-2.9999999999999997e-05,-0.00014,5.9999999999999995e-05,-5e-05,0.00032,0.00072,-4e-05,2
5918,6163,-0.00011,-2.9999999999999997e-05,-0.00014,5.9999999999999995e-05,-5e-05,0.00032,0.00072,-4e-05,2
5919,6164,-0.00011,-2.9999999999999997e-05,-0.00014,5.9999999999999995e-05,-5e-05,0.00032,0.00072,-4e-05,2
5920,6165,-0.00011,-2.9999999999999997e-05,-0.00014,5.9999999999999995e-05,-5e-05,0.00032,0.00072,-4e-05,2
5921,6166,-0.00011,-2.9999999999999997e-05,-0.00014,5.9999999999999995e-05,-5e-05,0.00032,0.00072,-4e-05,2
5922,6167,-0.00011,-2.9999999999999997e-05,-0.00014,5.9999999999999995e-05,-5e-05,0.00032,0.00072,-4e-05,2
5923,6168,2e-05,-1e-05,2e-05,0.0003,2e-05,0.0007099999999999999,0.0008,2e-05,2
5924,6169,0.00011999999999999999,2.9999999999999997e-05,-4e-05,0.00033,0.00028,-0.00022,0.00086,0.00016999999999999999,2
5925,6170,-5.9999999999999995e-05,4e-05,5.9999999999999995e-05,-0.00043,5.9999999999999995e-05,0.00053,0.00035,1e-05,2
5926,6171,-5.9999999999999995e-05,4e-05,5.9999999999999995e-05,-0.00043,5.9999999999999995e-05,0.00053,0.00035,1e-05,2
5927,6172,-5.9999999999999995e-05,4e-05,5.9999999999999995e-05,-0.00043,5.9999999999999995e-05,0.00053,0.00035,1e-05,2
5928,6173,-5.9999999999999995e-05,4e-05,5.9999999999999995e-05,-0.00043,5.9999999999999995e-05,0.00053,0.00035,1e-05,2
5929,6174,-5.9999999999999995e-05,4e-05,5.9999999999999995e-05,-0.00043,5.9999999999999995e-05,0.00053,0.00035,1e-05,2
5930,6175,-5.9999999999999995e-05,4e-05,5.9999999999999995e-05,-0.00043,5.9999999999999995e-05,0.00053,0.00035,1e-05,2
5931,6176,-5.9999999999999995e-05,4e-05,5.9999999999999995e-05,-0.00043,5.9999999999999995e-05,0.00053,0.00035,1e-05,2
5932,6177,-5.9999999999999995e-05,4e-05,5.9999999999999995e-05,-0.00043,5.9999999999999995e-05,0.00053,0.00035,1e-05,2
5933,6178,-5.9999999999999995e-05,4e-05,5.9999999999999995e-05,-0.00043,5.9999999999999995e-05,0.00053,0.00035,1e-05,2
5934,6179,-5.9999999999999995e-05,4e-05,5.9999999999999995e-05,-0.00043,5.9999999999999995e-05,0.00053,0.00035,1e-05,2
5935,6180,-5.9999999999999995e-05,4e-05,5.9999999999999995e-05,-0.00043,5.9999999999999995e-05,0.00053,0.00035,1e-05,2
5936,6181,-5.9999999999999995e-05,4e-05,5.9999999999999995e-05,-0.00043,5.9999999999999995e-05,0.00053,0.00035,1e-05,2
5937,6182,-5.9999999999999995e-05,4e-05,5.9999999999999995e-05,-0.00043,5.9999999999999995e-05,0.00053,0.00035,1e-05,2
5938,6183,-5.9999999999999995e-05,4e-05,5.9999999999999995e-05,-0.00043,5.9999999999999995e-05,0.00053,0.00035,1e-05,2
5939,6184,-5.9999999999999995e-05,4e-05,5.9999999999999995e-05,-0.00043,5.9999999999999995e-05,0.00053,0.00035,1e-05,2
5940,6185,-5.9999999999999995e-05,4e-05,5.9999999999999995e-05,-0.00043,5.9999999999999995e-05,0.00053,0.00035,1e-05,2
5941,6186,-5.9999999999999995e-05,4e-05,5.9999999999999995e-05,-0.00043,5.9999999999999995e-05,0.00053,0.00035,1e-05,2
5942,6188,-5.9999999999999995e-05,4e-05,5.9999999999999995e-05,-0.00043,5.9999999999999995e-05,0.00053,0.00035,1e-05,2
5943,6189,-5.9999999999999995e-05,4e-05,5.9999999999999995e-05,-0.00043,5.9999999999999995e-05,0.00053,0.00035,1e-05,2
5944,6190,-7e-05,-4e-05,-5e-05,-1e-05,-0.00011999999999999999,-0.0001,0.00016999999999999999,-0.00018,2
5945,6191,-0.00016999999999999999,-4e-05,-8e-05,4e-05,-8e-05,-0.00026000000000000003,0.00021,-0.00025,2
5946,6192,4e-05,5.9999999999999995e-05,0.00018999999999999998,9e-05,0.00016,-0.00022999999999999998,-0.00029,-0.00011,2
5947,6193,4e-05,5.9999999999999995e-05,0.00018999999999999998,9e-05,0.00016,-0.00022999999999999998,-0.00029,-0.00011,2
5948,6194,4e-05,5.9999999999999995e-05,0.00018999999999999998,9e-05,0.00016,-0.00022999999999999998,-0.00029,-0.00011,2
5949,6195,4e-05,5.9999999999999995e-05,0.00018999999999999998,9e-05,0.00016,-0.00022999999999999998,-0.00029,-0.00011,2
5950,6196,4e-05,5.9999999999999995e-05,0.00018999999999999998,9e-05,0.00016,-0.00022999999999999998,-0.00029,-0.00011,2
5951,6197,4e-05,5.9999999999999995e-05,0.00018999999999999998,9e-05,0.00016,-0.00022999999999999998,-0.00029,-0.00011,2
5952,6198,4e-05,5.9999999999999995e-05,0.00018999999999999998,9e-05,0.00016,-0.00022999999999999998,-0.00029,-0.00011,2
5953,6199,4e-05,5.9999999999999995e-05,0.00018999999999999998,9e-05,0.00016,-0.00022999999999999998,-0.00029,-0.00011,2
5954,6200,4e-05,5.9999999999999995e-05,0.00018999999999999998,9e-05,0.00016,-0.00022999999999999998,-0.00029,-0.00011,2
5955,6201,4e-05,5.9999999999999995e-05,0.00018999999999999998,9e-05,0.00016,-0.00022999999999999998,-0.00029,-0.00011,2
5956,6202,4e-05,5.9999999999999995e-05,0.00018999999999999998,9e-05,0.00016,-0.00022999999999999998,-0.00029,-0.00011,2
5957,6203,4e-05,5.9999999999999995e-05,0.00018999999999999998,9e-05,0.00016,-0.00022999999999999998,-0.00029,-0.00011,2
5958,6204,4e-05,5.9999999999999995e-05,0.00018999999999999998,9e-05,0.00016,-0.00022999999999999998,-0.00029,-0.00011,2
5959,6205,-2.9999999999999997e-05,-5.9999999999999995e-05,-7e-05,0.0,-9e-05,0.0,4e-05,7e-05,2
5960,6206,4e-05,4e-05,-2.9999999999999997e-05,-0.00088,-9e-05,-0.00033999999999999997,-0.0007,2.9999999999999997e-05,2
5961,6207,0.0,-5e-05,0.0,-7e-05,-5.9999999999999995e-05,-0.00037999999999999997,-0.0010199999999999999,-0.0002,2
5962,6208,0.0,-5e-05,0.0,-7e-05,-5.9999999999999995e-05,-0.00037999999999999997,-0.0010199999999999999,-0.0002,2
5963,6209,0.0,-5e-05,0.0,-7e-05,-5.9999999999999995e-05,-0.00037999999999999997,-0.0010199999999999999,-0.0002,2
5964,6210,0.0,-5e-05,0.0,-7e-05,-5.9999999999999995e-05,-0.00037999999999999997,-0.0010199999999999999,-0.0002,2
5965,6211,0.0,-5e-05,0.0,-7e-05,-5.9999999999999995e-05,-0.00037999999999999997,-0.0010199999999999999,-0.0002,2
5966,6212,0.0,-5e-05,0.0,-7e-05,-5.9999999999999995e-05,-0.00037999999999999997,-0.0010199999999999999,-0.0002,2
5967,6213,0.0,-5e-05,0.0,-7e-05,-5.9999999999999995e-05,-0.00037999999999999997,-0.0010199999999999999,-0.0002,2
5968,6214,0.0,-5e-05,0.0,-7e-05,-5.9999999999999995e-05,-0.00037999999999999997,-0.0010199999999999999,-0.0002,2
5969,6215,0.0,-5e-05,0.0,-7e-05,-5.9999999999999995e-05,-0.00037999999999999997,-0.0010199999999999999,-0.0002,2
5970,6216,0.0,-5e-05,0.0,-7e-05,-5.9999999999999995e-05,-0.00037999999999999997,-0.0010199999999999999,-0.0002,2
5971,6217,0.0,-5e-05,0.0,-7e-05,-5.9999999999999995e-05,-0.00037999999999999997,-0.0010199999999999999,-0.0002,2
5972,6218,0.0,-5e-05,0.0,-7e-05,-5.9999999999999995e-05,-0.00037999999999999997,-0.0010199999999999999,-0.0002,2
5973,6219,0.0,-5e-05,0.0,-7e-05,-5.9999999999999995e-05,-0.00037999999999999997,-0.0010199999999999999,-0.0002,2
5974,6220,0.0,-5e-05,0.0,-7e-05,-5.9999999999999995e-05,-0.00037999999999999997,-0.0010199999999999999,-0.0002,2
5975,6221,0.0,-5e-05,0.0,-7e-05,-5.9999999999999995e-05,-0.00037999999999999997,-0.0010199999999999999,-0.0002,2
5976,6222,0.0,-5e-05,0.0,-7e-05,-5.9999999999999995e-05,-0.00037999999999999997,-0.0010199999999999999,-0.0002,2
5977,6223,0.0,-5e-05,0.0,-7e-05,-5.9999999999999995e-05,-0.00037999999999999997,-0.0010199999999999999,-0.0002,2
5978,6224,0.0,-5e-05,0.0,-7e-05,-5.9999999999999995e-05,-0.00037999999999999997,-0.0010199999999999999,-0.0002,2
5979,6225,0.0,-5e-05,0.0,-7e-05,-5.9999999999999995e-05,-0.00037999999999999997,-0.0010199999999999999,-0.0002,2
5980,6226,0.0,-5e-05,0.0,-7e-05,-5.9999999999999995e-05,-0.00037999999999999997,-0.0010199999999999999,-0.0002,2
5981,6227,0.0,-5e-05,0.0,-7e-05,-5.9999999999999995e-05,-0.00037999999999999997,-0.0010199999999999999,-0.0002,2
5982,6228,0.00011999999999999999,7e-05,0.0001,0.00022,-5e-05,0.00011,0.00053,-2e-05,2
5983,6229,-0.00016999999999999999,-0.00015,-0.00021,-0.0002,0.00014,-0.0002,-0.00099,-0.00043,2
5984,6230,-5.9999999999999995e-05,1e-05,-8e-05,-0.00027,-0.00022999999999999998,0.00058,0.00039,0.00016999999999999999,2
5985,6231,-5.9999999999999995e-05,1e-05,-8e-05,-0.00027,-0.00022999999999999998,0.00058,0.00039,0.00016999999999999999,2
5986,6232,-5.9999999999999995e-05,1e-05,-8e-05,-0.00027,-0.00022999999999999998,0.00058,0.00039,0.00016999999999999999,2
5987,6233,-5.9999999999999995e-05,1e-05,-8e-05,-0.00027,-0.00022999999999999998,0.00058,0.00039,0.00016999999999999999,2
5988,6234,-5.9999999999999995e-05,1e-05,-8e-05,-0.00027,-0.00022999999999999998,0.00058,0.00039,0.00016999999999999999,2
5989,6235,-5.9999999999999995e-05,1e-05,-8e-05,-0.00027,-0.00022999999999999998,0.00058,0.00039,0.00016999999999999999,2
5990,6236,-5.9999999999999995e-05,1e-05,-8e-05,-0.00027,-0.00022999999999999998,0.00058,0.00039,0.00016999999999999999,2
5991,6238,-5.9999999999999995e-05,1e-05,-8e-05,-0.00027,-0.00022999999999999998,0.00058,0.00039,0.00016999999999999999,2
5992,6239,-5.9999999999999995e-05,1e-05,-8e-05,-0.00027,-0.00022999999999999998,0.00058,0.00039,0.00016999999999999999,2
5993,6240,-5.9999999999999995e-05,1e-05,-8e-05,-0.00027,-0.00022999999999999998,0.00058,0.00039,0.00016999999999999999,2
5994,6241,-5.9999999999999995e-05,1e-05,-8e-05,-0.00027,-0.00022999999999999998,0.00058,0.00039,0.00016999999999999999,2
5995,6242,-5.9999999999999995e-05,1e-05,-8e-05,-0.00027,-0.00022999999999999998,0.00058,0.00039,0.00016999999999999999,2
5996,6243,-5.9999999999999995e-05,1e-05,-8e-05,-0.00027,-0.00022999999999999998,0.00058,0.00039,0.00016999999999999999,2
5997,6244,-5.9999999999999995e-05,1e-05,-8e-05,-0.00027,-0.00022999999999999998,0.00058,0.00039,0.00016999999999999999,2
5998,6245,-5.9999999999999995e-05,1e-05,-8e-05,-0.00027,-0.00022999999999999998,0.00058,0.00039,0.00016999999999999999,2
5999,6246,-5.9999999999999995e-05,1e-05,-8e-05,-0.00027,-0.00022999999999999998,0.00058,0.00039,0.00016999999999999999,2
6000,6247,-5.9999999999999995e-05,1e-05,-8e-05,-0.00027,-0.00022999999999999998,0.00058,0.00039,0.00016999999999999999,2
6001,6248,-5.9999999999999995e-05,1e-05,-8e-05,-0.00027,-0.00022999999999999998,0.00058,0.00039,0.00016999999999999999,2
6002,6249,-5.9999999999999995e-05,1e-05,-8e-05,-0.00027,-0.00022999999999999998,0.00058,0.00039,0.00016999999999999999,2
6003,6250,-8e-05,5.9999999999999995e-05,0.00025,0.00058,0.00015,-0.00021,-0.0009599999999999999,-0.00028,2
6004,6251,-5e-05,2e-05,1e-05,-0.0004,0.00029,0.00015,4e-05,-0.00015,2
6005,6252,4e-05,-2.9999999999999997e-05,0.0001,0.00047999999999999996,0.00027,0.00037,0.0007700000000000001,0.0002,2
6006,6253,4e-05,-2.9999999999999997e-05,0.0001,0.00047999999999999996,0.00027,0.00037,0.0007700000000000001,0.0002,2
6007,6254,4e-05,-2.9999999999999997e-05,0.0001,0.00047999999999999996,0.00027,0.00037,0.0007700000000000001,0.0002,2
6008,6255,4e-05,-2.9999999999999997e-05,0.0001,0.00047999999999999996,0.00027,0.00037,0.0007700000000000001,0.0002,2
6009,6256,4e-05,-2.9999999999999997e-05,0.0001,0.00047999999999999996,0.00027,0.00037,0.0007700000000000001,0.0002,2
6010,6257,4e-05,-2.9999999999999997e-05,0.0001,0.00047999999999999996,0.00027,0.00037,0.0007700000000000001,0.0002,2
6011,6258,4e-05,-2.9999999999999997e-05,0.0001,0.00047999999999999996,0.00027,0.00037,0.0007700000000000001,0.0002,2
6012,6259,4e-05,-2.9999999999999997e-05,0.0001,0.00047999999999999996,0.00027,0.00037,0.0007700000000000001,0.0002,2
6013,6260,4e-05,-2.9999999999999997e-05,0.0001,0.00047999999999999996,0.00027,0.00037,0.0007700000000000001,0.0002,2
6014,6261,4e-05,-2.9999999999999997e-05,0.0001,0.00047999999999999996,0.00027,0.00037,0.0007700000000000001,0.0002,2
6015,6262,4e-05,-2.9999999999999997e-05,0.0001,0.00047999999999999996,0.00027,0.00037,0.0007700000000000001,0.0002,2
6016,6263,4e-05,-2.9999999999999997e-05,0.0001,0.00047999999999999996,0.00027,0.00037,0.0007700000000000001,0.0002,2
6017,6264,4e-05,-2.9999999999999997e-05,0.0001,0.00047999999999999996,0.00027,0.00037,0.0007700000000000001,0.0002,2
6018,6265,0.00018999999999999998,2e-05,-0.00011999999999999999,-0.00022,0.00013000000000000002,0.00015,0.00101,0.00042,2
6019,6266,-0.0007599999999999999,-0.00023999999999999998,-0.00013000000000000002,-0.00016,-0.00018,-0.00042,-0.00091,-0.00078,2
6020,6267,-7e-05,-1e-05,2.9999999999999997e-05,0.00018,8e-05,-0.00054,-0.00033,-0.00013000000000000002,2
6021,6268,-7e-05,-1e-05,2.9999999999999997e-05,0.00018,8e-05,-0.00054,-0.00033,-0.00013000000000000002,2
6022,6269,-7e-05,-1e-05,2.9999999999999997e-05,0.00018,8e-05,-0.00054,-0.00033,-0.00013000000000000002,2
6023,6270,-7e-05,-1e-05,2.9999999999999997e-05,0.00018,8e-05,-0.00054,-0.00033,-0.00013000000000000002,2
6024,6271,-7e-05,-1e-05,2.9999999999999997e-05,0.00018,8e-05,-0.00054,-0.00033,-0.00013000000000000002,2
6025,6272,-7e-05,-1e-05,2.9999999999999997e-05,0.00018,8e-05,-0.00054,-0.00033,-0.00013000000000000002,2
6026,6273,-7e-05,-1e-05,2.9999999999999997e-05,0.00018,8e-05,-0.00054,-0.00033,-0.00013000000000000002,2
6027,6274,-7e-05,-1e-05,2.9999999999999997e-05,0.00018,8e-05,-0.00054,-0.00033,-0.00013000000000000002,2
6028,6275,-7e-05,-1e-05,2.9999999999999997e-05,0.00018,8e-05,-0.00054,-0.00033,-0.00013000000000000002,2
6029,6276,-7e-05,-1e-05,2.9999999999999997e-05,0.00018,8e-05,-0.00054,-0.00033,-0.00013000000000000002,2
6030,6277,-7e-05,-1e-05,2.9999999999999997e-05,0.00018,8e-05,-0.00054,-0.00033,-0.00013000000000000002,2
6031,6278,-7e-05,-1e-05,2.9999999999999997e-05,0.00018,8e-05,-0.00054,-0.00033,-0.00013000000000000002,2
6032,6279,-7e-05,-1e-05,2.9999999999999997e-05,0.00018,8e-05,-0.00054,-0.00033,-0.00013000000000000002,2
6033,6280,-7e-05,-1e-05,2.9999999999999997e-05,0.00018,8e-05,-0.00054,-0.00033,-0.00013000000000000002,2
6034,6281,-7e-05,-1e-05,2.9999999999999997e-05,0.00018,8e-05,-0.00054,-0.00033,-0.00013000000000000002,2
6035,6282,-7e-05,-1e-05,2.9999999999999997e-05,0.00018,8e-05,-0.00054,-0.00033,-0.00013000000000000002,2
6036,6283,-7e-05,-1e-05,2.9999999999999997e-05,0.00018,8e-05,-0.00054,-0.00033,-0.00013000000000000002,2
6037,6284,-7e-05,-1e-05,2.9999999999999997e-05,0.00018,8e-05,-0.00054,-0.00033,-0.00013000000000000002,2
6038,6285,-7e-05,-1e-05,2.9999999999999997e-05,0.00018,8e-05,-0.00054,-0.00033,-0.00013000000000000002,2
6039,6286,-7e-05,-1e-05,2.9999999999999997e-05,0.00018,8e-05,-0.00054,-0.00033,-0.00013000000000000002,2
6040,6288,-0.00015,-0.00011,-7e-05,0.00039,2e-05,-9e-05,-0.00037999999999999997,9e-05,2
6041,6289,8e-05,7e-05,8e-05,-0.00027,-0.00018,-5e-05,0.0009,0.00011999999999999999,2
6042,6290,-5.9999999999999995e-05,-4e-05,-1e-05,-0.00016,2e-05,-0.00033,0.00043,-4e-05,2
6043,6291,-5.9999999999999995e-05,-4e-05,-1e-05,-0.00016,2e-05,-0.00033,0.00043,-4e-05,2
6044,6292,-5.9999999999999995e-05,-4e-05,-1e-05,-0.00016,2e-05,-0.00033,0.00043,-4e-05,2
6045,6293,-5.9999999999999995e-05,-4e-05,-1e-05,-0.00016,2e-05,-0.00033,0.00043,-4e-05,2
6046,6294,-5.9999999999999995e-05,-4e-05,-1e-05,-0.00016,2e-05,-0.00033,0.00043,-4e-05,2
6047,6295,-5.9999999999999995e-05,-4e-05,-1e-05,-0.00016,2e-05,-0.00033,0.00043,-4e-05,2
6048,6296,-5.9999999999999995e-05,-4e-05,-1e-05,-0.00016,2e-05,-0.00033,0.00043,-4e-05,2
6049,6297,-5.9999999999999995e-05,-4e-05,-1e-05,-0.00016,2e-05,-0.00033,0.00043,-4e-05,2
6050,6298,-5.9999999999999995e-05,-4e-05,-1e-05,-0.00016,2e-05,-0.00033,0.00043,-4e-05,2
6051,6299,-5.9999999999999995e-05,-4e-05,-1e-05,-0.00016,2e-05,-0.00033,0.00043,-4e-05,2
6052,6300,-5.9999999999999995e-05,-4e-05,-1e-05,-0.00016,2e-05,-0.00033,0.00043,-4e-05,2
6053,6301,-5.9999999999999995e-05,-4e-05,-1e-05,-0.00016,2e-05,-0.00033,0.00043,-4e-05,2
6054,6302,-5.9999999999999995e-05,-4e-05,-1e-05,-0.00016,2e-05,-0.00033,0.00043,-4e-05,2
6055,6303,-5.9999999999999995e-05,-4e-05,-1e-05,-0.00016,2e-05,-0.00033,0.00043,-4e-05,2
6056,6304,-5.9999999999999995e-05,-4e-05,-1e-05,-0.00016,2e-05,-0.00033,0.00043,-4e-05,2
6057,6305,-5.9999999999999995e-05,-4e-05,-1e-05,-0.00016,2e-05,-0.00033,0.00043,-4e-05,2
6058,6306,-5.9999999999999995e-05,-4e-05,-1e-05,-0.00016,2e-05,-0.00033,0.00043,-4e-05,2
6059,6307,-5.9999999999999995e-05,-4e-05,-1e-05,-0.00016,2e-05,-0.00033,0.00043,-4e-05,2
6060,6308,-5.9999999999999995e-05,-4e-05,-1e-05,-0.00016,2e-05,-0.00033,0.00043,-4e-05,2
6061,6309,-5.9999999999999995e-05,-4e-05,-1e-05,-0.00016,2e-05,-0.00033,0.00043,-4e-05,2
6062,6310,-5.9999999999999995e-05,-4e-05,-1e-05,-0.00016,2e-05,-0.00033,0.00043,-4e-05,2
6063,6311,0.00023999999999999998,0.0,-0.00015,0.00011,-4e-05,0.00025,0.00115,0.00041,2
6064,6312,7e-05,2e-05,4e-05,-0.00018999999999999998,-8e-05,-0.0002,0.00041,-0.00014,2
6065,6313,7e-05,2e-05,4e-05,-0.00018999999999999998,-8e-05,-0.0002,0.00041,-0.00014,2
6066,6314,7e-05,2e-05,4e-05,-0.00018999999999999998,-8e-05,-0.0002,0.00041,-0.00014,2
6067,6315,7e-05,2e-05,4e-05,-0.00018999999999999998,-8e-05,-0.0002,0.00041,-0.00014,2
6068,6316,7e-05,2e-05,4e-05,-0.00018999999999999998,-8e-05,-0.0002,0.00041,-0.00014,2
6069,6317,7e-05,2e-05,4e-05,-0.00018999999999999998,-8e-05,-0.0002,0.00041,-0.00014,2
6070,6318,7e-05,2e-05,4e-05,-0.00018999999999999998,-8e-05,-0.0002,0.00041,-0.00014,2
6071,6319,7e-05,2e-05,4e-05,-0.00018999999999999998,-8e-05,-0.0002,0.00041,-0.00014,2
6072,6320,7e-05,2e-05,4e-05,-0.00018999999999999998,-8e-05,-0.0002,0.00041,-0.00014,2
6073,6321,7e-05,2e-05,4e-05,-0.00018999999999999998,-8e-05,-0.0002,0.00041,-0.00014,2
6074,6322,7e-05,2e-05,4e-05,-0.00018999999999999998,-8e-05,-0.0002,0.00041,-0.00014,2
6075,6323,7e-05,2e-05,4e-05,-0.00018999999999999998,-8e-05,-0.0002,0.00041,-0.00014,2
6076,6324,7e-05,2e-05,4e-05,-0.00018999999999999998,-8e-05,-0.0002,0.00041,-0.00014,2
6077,6325,-7e-05,-5e-05,-0.00014,-1e-05,-1e-05,0.00042,0.00073,4e-05,2
6078,6326,7e-05,5.9999999999999995e-05,0.00013000000000000002,-0.00039,-2.9999999999999997e-05,0.00041,-0.00035,0.00042,2
6079,6327,-4e-05,2e-05,-2.9999999999999997e-05,0.00037999999999999997,-0.00014,-0.00011999999999999999,-0.00035,-5.9999999999999995e-05,2
6080,6328,0.00014,5.9999999999999995e-05,7e-05,7e-05,0.0002,-0.0001,0.00018999999999999998,0.00023999999999999998,2
6081,6329,0.00014,5.9999999999999995e-05,7e-05,7e-05,0.0002,-0.0001,0.00018999999999999998,0.00023999999999999998,2
6082,6330,0.00014,5.9999999999999995e-05,7e-05,7e-05,0.0002,-0.0001,0.00018999999999999998,0.00023999999999999998,2
6083,6331,0.00014,5.9999999999999995e-05,7e-05,7e-05,0.0002,-0.0001,0.00018999999999999998,0.00023999999999999998,2
6084,6332,0.00014,5.9999999999999995e-05,7e-05,7e-05,0.0002,-0.0001,0.00018999999999999998,0.00023999999999999998,2
6085,6333,0.00014,5.9999999999999995e-05,7e-05,7e-05,0.0002,-0.0001,0.00018999999999999998,0.00023999999999999998,2
6086,6334,0.00014,5.9999999999999995e-05,7e-05,7e-05,0.0002,-0.0001,0.00018999999999999998,0.00023999999999999998,2
6087,6335,0.00014,5.9999999999999995e-05,7e-05,7e-05,0.0002,-0.0001,0.00018999999999999998,0.00023999999999999998,2
6088,6336,0.00014,5.9999999999999995e-05,7e-05,7e-05,0.0002,-0.0001,0.00018999999999999998,0.00023999999999999998,2
6089,6338,0.00014,5.9999999999999995e-05,7e-05,7e-05,0.0002,-0.0001,0.00018999999999999998,0.00023999999999999998,2
6090,6339,0.00014,5.9999999999999995e-05,7e-05,7e-05,0.0002,-0.0001,0.00018999999999999998,0.00023999999999999998,2
6091,6340,0.00014,5.9999999999999995e-05,7e-05,7e-05,0.0002,-0.0001,0.00018999999999999998,0.00023999999999999998,2
6092,6341,0.00014,5.9999999999999995e-05,7e-05,7e-05,0.0002,-0.0001,0.00018999999999999998,0.00023999999999999998,2
6093,6342,0.00014,5.9999999999999995e-05,7e-05,7e-05,0.0002,-0.0001,0.00018999999999999998,0.00023999999999999998,2
6094,6343,0.00014,5.9999999999999995e-05,7e-05,7e-05,0.0002,-0.0001,0.00018999999999999998,0.00023999999999999998,2
6095,6344,0.00014,5.9999999999999995e-05,7e-05,7e-05,0.0002,-0.0001,0.00018999999999999998,0.00023999999999999998,2
6096,6345,0.00014,5.9999999999999995e-05,7e-05,7e-05,0.0002,-0.0001,0.00018999999999999998,0.00023999999999999998,2
6097,6346,0.00014,5.9999999999999995e-05,7e-05,7e-05,0.0002,-0.0001,0.00018999999999999998,0.00023999999999999998,2
6098,6347,0.00014,5.9999999999999995e-05,7e-05,7e-05,0.0002,-0.0001,0.00018999999999999998,0.00023999999999999998,2
6099,6348,0.00014,-4e-05,0.0,0.00011999999999999999,5e-05,2e-05,-0.00018999999999999998,-9e-05,2
6100,6349,-0.00036,-4e-05,5e-05,0.00039,0.00033999999999999997,0.00025,0.0005099999999999999,-0.00011999999999999999,2
6101,6350,-5.9999999999999995e-05,-2e-05,0.0,-0.0007099999999999999,-0.00047999999999999996,-0.00022999999999999998,-0.00082,-0.00011,2
6102,6351,-5.9999999999999995e-05,-2e-05,0.0,-0.0007099999999999999,-0.00047999999999999996,-0.00022999999999999998,-0.00082,-0.00011,2
6103,6352,-5.9999999999999995e-05,-2e-05,0.0,-0.0007099999999999999,-0.00047999999999999996,-0.00022999999999999998,-0.00082,-0.00011,2
6104,6353,-5.9999999999999995e-05,-2e-05,0.0,-0.0007099999999999999,-0.00047999999999999996,-0.00022999999999999998,-0.00082,-0.00011,2
6105,6354,-5.9999999999999995e-05,-2e-05,0.0,-0.0007099999999999999,-0.00047999999999999996,-0.00022999999999999998,-0.00082,-0.00011,2
6106,6355,-5.9999999999999995e-05,-2e-05,0.0,-0.0007099999999999999,-0.00047999999999999996,-0.00022999999999999998,-0.00082,-0.00011,2
6107,6356,-5.9999999999999995e-05,-2e-05,0.0,-0.0007099999999999999,-0.00047999999999999996,-0.00022999999999999998,-0.00082,-0.00011,2
6108,6357,-5.9999999999999995e-05,-2e-05,0.0,-0.0007099999999999999,-0.00047999999999999996,-0.00022999999999999998,-0.00082,-0.00011,2
6109,6358,-5.9999999999999995e-05,-2e-05,0.0,-0.0007099999999999999,-0.00047999999999999996,-0.00022999999999999998,-0.00082,-0.00011,2
6110,6359,-5.9999999999999995e-05,-2e-05,0.0,-0.0007099999999999999,-0.00047999999999999996,-0.00022999999999999998,-0.00082,-0.00011,2
6111,6360,-5.9999999999999995e-05,-2e-05,0.0,-0.0007099999999999999,-0.00047999999999999996,-0.00022999999999999998,-0.00082,-0.00011,2
6112,6361,-5.9999999999999995e-05,-2e-05,0.0,-0.0007099999999999999,-0.00047999999999999996,-0.00022999999999999998,-0.00082,-0.00011,2
6113,6362,-5.9999999999999995e-05,-2e-05,0.0,-0.0007099999999999999,-0.00047999999999999996,-0.00022999999999999998,-0.00082,-0.00011,2
6114,6363,-5.9999999999999995e-05,-2e-05,0.0,-0.0007099999999999999,-0.00047999999999999996,-0.00022999999999999998,-0.00082,-0.00011,2
6115,6364,-5.9999999999999995e-05,-2e-05,0.0,-0.0007099999999999999,-0.00047999999999999996,-0.00022999999999999998,-0.00082,-0.00011,2
6116,6365,-5.9999999999999995e-05,-2e-05,0.0,-0.0007099999999999999,-0.00047999999999999996,-0.00022999999999999998,-0.00082,-0.00011,2
6117,6366,-5.9999999999999995e-05,-2e-05,0.0,-0.0007099999999999999,-0.00047999999999999996,-0.00022999999999999998,-0.00082,-0.00011,2
6118,6367,-5.9999999999999995e-05,-2e-05,0.0,-0.0007099999999999999,-0.00047999999999999996,-0.00022999999999999998,-0.00082,-0.00011,2
6119,6368,-5.9999999999999995e-05,-2e-05,0.0,-0.0007099999999999999,-0.00047999999999999996,-0.00022999999999999998,-0.00082,-0.00011,2
6120,6369,-5.9999999999999995e-05,-2e-05,0.0,-0.0007099999999999999,-0.00047999999999999996,-0.00022999999999999998,-0.00082,-0.00011,2
6121,6370,-5.9999999999999995e-05,-2e-05,0.0,-0.0007099999999999999,-0.00047999999999999996,-0.00022999999999999998,-0.00082,-0.00011,2
6122,6371,7e-05,0.00011999999999999999,0.00013000000000000002,0.00058,0.00032,0.00037999999999999997,0.0010199999999999999,0.00027,2
6123,6372,7e-05,0.00011999999999999999,0.00013000000000000002,0.00058,0.00032,0.00037999999999999997,0.0010199999999999999,0.00027,2
6124,6373,7e-05,0.00011999999999999999,0.00013000000000000002,0.00058,0.00032,0.00037999999999999997,0.0010199999999999999,0.00027,2
6125,6374,7e-05,0.00011999999999999999,0.00013000000000000002,0.00058,0.00032,0.00037999999999999997,0.0010199999999999999,0.00027,2
6126,6375,7e-05,0.00011999999999999999,0.00013000000000000002,0.00058,0.00032,0.00037999999999999997,0.0010199999999999999,0.00027,2
6127,6376,0.00027,2e-05,2e-05,-0.00073,-0.00027,-0.0003,0.0007099999999999999,0.00033999999999999997,2
6128,6377,-1e-05,0.00011999999999999999,0.00011,0.00047000000000000004,0.00021,-4e-05,-0.00016999999999999999,-0.00013000000000000002,2
6129,6378,-1e-05,0.00011999999999999999,0.00011,0.00047000000000000004,0.00021,-4e-05,-0.00016999999999999999,-0.00013000000000000002,2
6130,6379,-1e-05,0.00011999999999999999,0.00011,0.00047000000000000004,0.00021,-4e-05,-0.00016999999999999999,-0.00013000000000000002,2
6131,6380,-1e-05,0.00011999999999999999,0.00011,0.00047000000000000004,0.00021,-4e-05,-0.00016999999999999999,-0.00013000000000000002,2
6132,6381,-1e-05,0.00011999999999999999,0.00011,0.00047000000000000004,0.00021,-4e-05,-0.00016999999999999999,-0.00013000000000000002,2
6133,6382,-1e-05,0.00011999999999999999,0.00011,0.00047000000000000004,0.00021,-4e-05,-0.00016999999999999999,-0.00013000000000000002,2
6134,6383,-1e-05,0.00011999999999999999,0.00011,0.00047000000000000004,0.00021,-4e-05,-0.00016999999999999999,-0.00013000000000000002,2
6135,6384,-1e-05,0.00011999999999999999,0.00011,0.00047000000000000004,0.00021,-4e-05,-0.00016999999999999999,-0.00013000000000000002,2
6136,6385,-5.9999999999999995e-05,-7e-05,-0.0001,-0.0001,-0.00029,-0.00037,0.00031,-0.00016999999999999999,2
6137,6386,-5.9999999999999995e-05,-7e-05,-0.0001,-0.0001,-0.00029,-0.00037,0.00031,-0.00016999999999999999,2
6138,6388,-5.9999999999999995e-05,-7e-05,-0.0001,-0.0001,-0.00029,-0.00037,0.00031,-0.00016999999999999999,2
6139,6389,-5.9999999999999995e-05,-7e-05,-0.0001,-0.0001,-0.00029,-0.00037,0.00031,-0.00016999999999999999,2
6140,6390,-5.9999999999999995e-05,-7e-05,-0.0001,-0.0001,-0.00029,-0.00037,0.00031,-0.00016999999999999999,2
6141,6391,-0.00014,-0.0001,-0.00011999999999999999,-5.9999999999999995e-05,-0.00021,2.9999999999999997e-05,0.0005200000000000001,9e-05,2
6142,6392,-0.00011,-1e-05,-2e-05,5.9999999999999995e-05,0.00028,0.0006799999999999999,-0.0006,-0.00018999999999999998,2
6143,6393,-0.00011,-1e-05,-2e-05,5.9999999999999995e-05,0.00028,0.0006799999999999999,-0.0006,-0.00018999999999999998,2
6144,6394,-0.00011,-1e-05,-2e-05,5.9999999999999995e-05,0.00028,0.0006799999999999999,-0.0006,-0.00018999999999999998,2
6145,6395,-0.00011,-1e-05,-2e-05,5.9999999999999995e-05,0.00028,0.0006799999999999999,-0.0006,-0.00018999999999999998,2
6146,6396,-0.00011,-1e-05,-2e-05,5.9999999999999995e-05,0.00028,0.0006799999999999999,-0.0006,-0.00018999999999999998,2
6147,6397,-0.00011,-1e-05,-2e-05,5.9999999999999995e-05,0.00028,0.0006799999999999999,-0.0006,-0.00018999999999999998,2
6148,6398,-0.00011,-1e-05,-2e-05,5.9999999999999995e-05,0.00028,0.0006799999999999999,-0.0006,-0.00018999999999999998,2
6149,6399,-0.00011,-1e-05,-2e-05,5.9999999999999995e-05,0.00028,0.0006799999999999999,-0.0006,-0.00018999999999999998,2
6150,6400,-0.00011,-1e-05,-2e-05,5.9999999999999995e-05,0.00028,0.0006799999999999999,-0.0006,-0.00018999999999999998,2
6151,6401,-0.00011,-1e-05,-2e-05,5.9999999999999995e-05,0.00028,0.0006799999999999999,-0.0006,-0.00018999999999999998,2
6152,6402,-0.00011,-1e-05,-2e-05,5.9999999999999995e-05,0.00028,0.0006799999999999999,-0.0006,-0.00018999999999999998,2
6153,6403,-0.00011,-1e-05,-2e-05,5.9999999999999995e-05,0.00028,0.0006799999999999999,-0.0006,-0.00018999999999999998,2
6154,6404,-0.00011,-1e-05,-2e-05,5.9999999999999995e-05,0.00028,0.0006799999999999999,-0.0006,-0.00018999999999999998,2
6155,6405,-0.00011,-1e-05,-2e-05,5.9999999999999995e-05,0.00028,0.0006799999999999999,-0.0006,-0.00018999999999999998,2
6156,6406,-0.00011,-1e-05,-2e-05,5.9999999999999995e-05,0.00028,0.0006799999999999999,-0.0006,-0.00018999999999999998,2
6157,6407,-0.00011,-1e-05,-2e-05,5.9999999999999995e-05,0.00028,0.0006799999999999999,-0.0006,-0.00018999999999999998,2
6158,6408,-0.00011,-1e-05,-2e-05,5.9999999999999995e-05,0.00028,0.0006799999999999999,-0.0006,-0.00018999999999999998,2
6159,6409,-0.00011,-1e-05,-2e-05,5.9999999999999995e-05,0.00028,0.0006799999999999999,-0.0006,-0.00018999999999999998,2
6160,6410,-0.00011,-1e-05,-2e-05,5.9999999999999995e-05,0.00028,0.0006799999999999999,-0.0006,-0.00018999999999999998,2
6161,6411,-0.00011,-1e-05,-2e-05,5.9999999999999995e-05,0.00028,0.0006799999999999999,-0.0006,-0.00018999999999999998,2
6162,6412,-0.00011,-1e-05,-2e-05,5.9999999999999995e-05,0.00028,0.0006799999999999999,-0.0006,-0.00018999999999999998,2
6163,6413,-0.00011,-1e-05,-2e-05,5.9999999999999995e-05,0.00028,0.0006799999999999999,-0.0006,-0.00018999999999999998,2
6164,6414,-0.00011,-1e-05,-2e-05,5.9999999999999995e-05,0.00028,0.0006799999999999999,-0.0006,-0.00018999999999999998,2
6165,6415,0.00016999999999999999,7e-05,2e-05,-0.00014,-8e-05,-0.00035,-0.00036,0.00031,2
6166,6416,2.9999999999999997e-05,-7e-05,-8e-05,0.0,-5.9999999999999995e-05,-0.00029,-0.00053,-0.00021,2
6167,6417,5.9999999999999995e-05,-2e-05,-0.00025,-0.00042,-0.00021,0.00013000000000000002,5.9999999999999995e-05,-1e-05,2
6168,6418,5.9999999999999995e-05,-2e-05,-0.00025,-0.00042,-0.00021,0.00013000000000000002,5.9999999999999995e-05,-1e-05,2
6169,6419,5.9999999999999995e-05,-2e-05,-0.00025,-0.00042,-0.00021,0.00013000000000000002,5.9999999999999995e-05,-1e-05,2
6170,6420,5.9999999999999995e-05,-2e-05,-0.00025,-0.00042,-0.00021,0.00013000000000000002,5.9999999999999995e-05,-1e-05,2
6171,6421,5.9999999999999995e-05,-2e-05,-0.00025,-0.00042,-0.00021,0.00013000000000000002,5.9999999999999995e-05,-1e-05,2
6172,6422,5.9999999999999995e-05,-2e-05,-0.00025,-0.00042,-0.00021,0.00013000000000000002,5.9999999999999995e-05,-1e-05,2
6173,6423,5.9999999999999995e-05,-2e-05,-0.00025,-0.00042,-0.00021,0.00013000000000000002,5.9999999999999995e-05,-1e-05,2
6174,6424,5.9999999999999995e-05,-2e-05,-0.00025,-0.00042,-0.00021,0.00013000000000000002,5.9999999999999995e-05,-1e-05,2
6175,6425,5.9999999999999995e-05,-2e-05,-0.00025,-0.00042,-0.00021,0.00013000000000000002,5.9999999999999995e-05,-1e-05,2
6176,6426,5.9999999999999995e-05,-2e-05,-0.00025,-0.00042,-0.00021,0.00013000000000000002,5.9999999999999995e-05,-1e-05,2
6177,6427,5.9999999999999995e-05,-2e-05,-0.00025,-0.00042,-0.00021,0.00013000000000000002,5.9999999999999995e-05,-1e-05,2
6178,6428,5.9999999999999995e-05,-2e-05,-0.00025,-0.00042,-0.00021,0.00013000000000000002,5.9999999999999995e-05,-1e-05,2
6179,6429,5.9999999999999995e-05,-2e-05,-0.00025,-0.00042,-0.00021,0.00013000000000000002,5.9999999999999995e-05,-1e-05,2
6180,6430,0.0,0.0001,0.00027,0.00031,-7e-05,-0.00066,-0.00018999999999999998,2.9999999999999997e-05,2
6181,6431,-1e-05,5e-05,-5.9999999999999995e-05,-0.00022,-0.00011,0.00028,0.00061,-2e-05,2
6182,6432,-2.9999999999999997e-05,-9e-05,-2e-05,-9e-05,-0.00014,-0.00013000000000000002,-0.0009199999999999999,0.0,2
6183,6433,-2.9999999999999997e-05,-9e-05,-2e-05,-9e-05,-0.00014,-0.00013000000000000002,-0.0009199999999999999,0.0,2
6184,6434,-2.9999999999999997e-05,-9e-05,-2e-05,-9e-05,-0.00014,-0.00013000000000000002,-0.0009199999999999999,0.0,2
6185,6435,-2.9999999999999997e-05,-9e-05,-2e-05,-9e-05,-0.00014,-0.00013000000000000002,-0.0009199999999999999,0.0,2
6186,6436,-2.9999999999999997e-05,-9e-05,-2e-05,-9e-05,-0.00014,-0.00013000000000000002,-0.0009199999999999999,0.0,2
6187,6438,-2.9999999999999997e-05,-9e-05,-2e-05,-9e-05,-0.00014,-0.00013000000000000002,-0.0009199999999999999,0.0,2
6188,6439,-2.9999999999999997e-05,-9e-05,-2e-05,-9e-05,-0.00014,-0.00013000000000000002,-0.0009199999999999999,0.0,2
6189,6440,-2.9999999999999997e-05,-9e-05,-2e-05,-9e-05,-0.00014,-0.00013000000000000002,-0.0009199999999999999,0.0,2
6190,6441,-2.9999999999999997e-05,-9e-05,-2e-05,-9e-05,-0.00014,-0.00013000000000000002,-0.0009199999999999999,0.0,2
6191,6442,-2.9999999999999997e-05,-9e-05,-2e-05,-9e-05,-0.00014,-0.00013000000000000002,-0.0009199999999999999,0.0,2
6192,6443,-2.9999999999999997e-05,-9e-05,-2e-05,-9e-05,-0.00014,-0.00013000000000000002,-0.0009199999999999999,0.0,2
6193,6444,-2.9999999999999997e-05,-9e-05,-2e-05,-9e-05,-0.00014,-0.00013000000000000002,-0.0009199999999999999,0.0,2
6194,6445,1e-05,2.9999999999999997e-05,2.9999999999999997e-05,-8e-05,-0.00016999999999999999,-9e-05,-0.00013000000000000002,-0.00014,2
6195,6446,1e-05,2.9999999999999997e-05,2.9999999999999997e-05,-8e-05,-0.00016999999999999999,-9e-05,-0.00013000000000000002,-0.00014,2
6196,6447,1e-05,2.9999999999999997e-05,2.9999999999999997e-05,-8e-05,-0.00016999999999999999,-9e-05,-0.00013000000000000002,-0.00014,2
6197,6448,1e-05,2.9999999999999997e-05,2.9999999999999997e-05,-8e-05,-0.00016999999999999999,-9e-05,-0.00013000000000000002,-0.00014,2
6198,6449,1e-05,2.9999999999999997e-05,2.9999999999999997e-05,-8e-05,-0.00016999999999999999,-9e-05,-0.00013000000000000002,-0.00014,2
6199,6450,1e-05,2.9999999999999997e-05,2.9999999999999997e-05,-8e-05,-0.00016999999999999999,-9e-05,-0.00013000000000000002,-0.00014,2
6200,6451,0.00031,2e-05,-1e-05,0.0,0.0001,0.00036,0.00081,0.00018,2
6201,6452,-0.0005099999999999999,-1e-05,4e-05,0.00035,-0.00018,-0.00055,0.00039,-0.00028,2
6202,6453,-0.0005099999999999999,-1e-05,4e-05,0.00035,-0.00018,-0.00055,0.00039,-0.00028,2
6203,6454,-0.0005099999999999999,-1e-05,4e-05,0.00035,-0.00018,-0.00055,0.00039,-0.00028,2
6204,6455,-0.0005099999999999999,-1e-05,4e-05,0.00035,-0.00018,-0.00055,0.00039,-0.00028,2
6205,6456,-0.0005099999999999999,-1e-05,4e-05,0.00035,-0.00018,-0.00055,0.00039,-0.00028,2
6206,6457,-0.0005099999999999999,-1e-05,4e-05,0.00035,-0.00018,-0.00055,0.00039,-0.00028,2
6207,6458,-0.0005099999999999999,-1e-05,4e-05,0.00035,-0.00018,-0.00055,0.00039,-0.00028,2
6208,6459,-0.0005099999999999999,-1e-05,4e-05,0.00035,-0.00018,-0.00055,0.00039,-0.00028,2
6209,6460,-0.0005099999999999999,-1e-05,4e-05,0.00035,-0.00018,-0.00055,0.00039,-0.00028,2
6210,6461,-0.0005099999999999999,-1e-05,4e-05,0.00035,-0.00018,-0.00055,0.00039,-0.00028,2
6211,6462,-0.0005099999999999999,-1e-05,4e-05,0.00035,-0.00018,-0.00055,0.00039,-0.00028,2
6212,6463,-0.0005099999999999999,-1e-05,4e-05,0.00035,-0.00018,-0.00055,0.00039,-0.00028,2
6213,6464,-0.0005099999999999999,-1e-05,4e-05,0.00035,-0.00018,-0.00055,0.00039,-0.00028,2
6214,6465,-0.0005099999999999999,-1e-05,4e-05,0.00035,-0.00018,-0.00055,0.00039,-0.00028,2
6215,6466,-0.0005099999999999999,-1e-05,4e-05,0.00035,-0.00018,-0.00055,0.00039,-0.00028,2
6216,6467,-0.0005099999999999999,-1e-05,4e-05,0.00035,-0.00018,-0.00055,0.00039,-0.00028,2
6217,6468,0.00066,0.00015,8e-05,0.00033,5e-05,-0.00079,0.00053,0.00045999999999999996,2
6218,6469,1e-05,-5e-05,-4e-05,0.00016999999999999999,0.0001,5.9999999999999995e-05,-0.0006900000000000001,-4e-05,2
6219,6470,1e-05,-5e-05,-4e-05,0.00016999999999999999,0.0001,5.9999999999999995e-05,-0.0006900000000000001,-4e-05,2
6220,6471,1e-05,-5e-05,-4e-05,0.00016999999999999999,0.0001,5.9999999999999995e-05,-0.0006900000000000001,-4e-05,2
6221,6472,1e-05,-5e-05,-4e-05,0.00016999999999999999,0.0001,5.9999999999999995e-05,-0.0006900000000000001,-4e-05,2
6222,6473,1e-05,-5e-05,-4e-05,0.00016999999999999999,0.0001,5.9999999999999995e-05,-0.0006900000000000001,-4e-05,2
6223,6474,1e-05,-5e-05,-4e-05,0.00016999999999999999,0.0001,5.9999999999999995e-05,-0.0006900000000000001,-4e-05,2
6224,6475,1e-05,-5e-05,-4e-05,0.00016999999999999999,0.0001,5.9999999999999995e-05,-0.0006900000000000001,-4e-05,2
6225,6476,1e-05,-5e-05,-4e-05,0.00016999999999999999,0.0001,5.9999999999999995e-05,-0.0006900000000000001,-4e-05,2
6226,6477,1e-05,-5e-05,-4e-05,0.00016999999999999999,0.0001,5.9999999999999995e-05,-0.0006900000000000001,-4e-05,2
6227,6478,1e-05,-5e-05,-4e-05,0.00016999999999999999,0.0001,5.9999999999999995e-05,-0.0006900000000000001,-4e-05,2
6228,6479,1e-05,-5e-05,-4e-05,0.00016999999999999999,0.0001,5.9999999999999995e-05,-0.0006900000000000001,-4e-05,2
6229,6480,1e-05,-5e-05,-4e-05,0.00016999999999999999,0.0001,5.9999999999999995e-05,-0.0006900000000000001,-4e-05,2
6230,6481,1e-05,-5e-05,-4e-05,0.00016999999999999999,0.0001,5.9999999999999995e-05,-0.0006900000000000001,-4e-05,2
6231,6482,1e-05,-5e-05,-4e-05,0.00016999999999999999,0.0001,5.9999999999999995e-05,-0.0006900000000000001,-4e-05,2
6232,6483,1e-05,-5e-05,-4e-05,0.00016999999999999999,0.0001,5.9999999999999995e-05,-0.0006900000000000001,-4e-05,2
6233,6484,1e-05,-5e-05,-4e-05,0.00016999999999999999,0.0001,5.9999999999999995e-05,-0.0006900000000000001,-4e-05,2
6234,6485,1e-05,-5e-05,-4e-05,0.00016999999999999999,0.0001,5.9999999999999995e-05,-0.0006900000000000001,-4e-05,2
6235,6486,1e-05,-5e-05,-4e-05,0.00016999999999999999,0.0001,5.9999999999999995e-05,-0.0006900000000000001,-4e-05,2
6236,6488,1e-05,-5e-05,-4e-05,0.00016999999999999999,0.0001,5.9999999999999995e-05,-0.0006900000000000001,-4e-05,2
6237,6489,1e-05,-5e-05,-4e-05,0.00016999999999999999,0.0001,5.9999999999999995e-05,-0.0006900000000000001,-4e-05,2
6238,6490,1e-05,-5e-05,-4e-05,0.00016999999999999999,0.0001,5.9999999999999995e-05,-0.0006900000000000001,-4e-05,2
6239,6491,1e-05,-5e-05,-4e-05,0.00016999999999999999,0.0001,5.9999999999999995e-05,-0.0006900000000000001,-4e-05,2
6240,6492,1e-05,-5e-05,-4e-05,0.00016999999999999999,0.0001,5.9999999999999995e-05,-0.0006900000000000001,-4e-05,2
6241,6493,1e-05,-5e-05,-4e-05,0.00016999999999999999,0.0001,5.9999999999999995e-05,-0.0006900000000000001,-4e-05,2
6242,6494,1e-05,-5e-05,-4e-05,0.00016999999999999999,0.0001,5.9999999999999995e-05,-0.0006900000000000001,-4e-05,2
6243,6495,1e-05,-5e-05,-4e-05,0.00016999999999999999,0.0001,5.9999999999999995e-05,-0.0006900000000000001,-4e-05,2
6244,6496,1e-05,-5e-05,-4e-05,0.00016999999999999999,0.0001,5.9999999999999995e-05,-0.0006900000000000001,-4e-05,2
6245,6497,1e-05,-5e-05,-4e-05,0.00016999999999999999,0.0001,5.9999999999999995e-05,-0.0006900000000000001,-4e-05,2
6246,6498,-0.00037,-0.0001,-4e-05,4e-05,0.00015,-0.00016,-0.00079,-0.00013000000000000002,2
6247,6499,8e-05,4e-05,-2.9999999999999997e-05,0.00095,-2.9999999999999997e-05,0.00022,0.00026000000000000003,-0.0001,2
6248,6500,0.00015,2e-05,1e-05,-0.0011,-8e-05,-0.00105,8e-05,0.00026000000000000003,2
6249,6501,0.00015,2e-05,1e-05,-0.0011,-8e-05,-0.00105,8e-05,0.00026000000000000003,2
6250,6502,0.00015,2e-05,1e-05,-0.0011,-8e-05,-0.00105,8e-05,0.00026000000000000003,2
6251,6503,0.00015,2e-05,1e-05,-0.0011,-8e-05,-0.00105,8e-05,0.00026000000000000003,2
6252,6504,0.00015,2e-05,1e-05,-0.0011,-8e-05,-0.00105,8e-05,0.00026000000000000003,2
6253,6505,-2.9999999999999997e-05,2e-05,7e-05,0.0008300000000000001,0.00037,4e-05,-0.00021,0.00016,2
6254,6506,-2.9999999999999997e-05,2e-05,7e-05,0.0008300000000000001,0.00037,4e-05,-0.00021,0.00016,2
6255,6507,-2.9999999999999997e-05,2e-05,7e-05,0.0008300000000000001,0.00037,4e-05,-0.00021,0.00016,2
6256,6508,-2.9999999999999997e-05,2e-05,7e-05,0.0008300000000000001,0.00037,4e-05,-0.00021,0.00016,2
6257,6509,-2.9999999999999997e-05,2e-05,7e-05,0.0008300000000000001,0.00037,4e-05,-0.00021,0.00016,2
6258,6510,-2.9999999999999997e-05,2e-05,7e-05,0.0008300000000000001,0.00037,4e-05,-0.00021,0.00016,2
6259,6511,-2.9999999999999997e-05,2e-05,7e-05,0.0008300000000000001,0.00037,4e-05,-0.00021,0.00016,2
6260,6512,-0.00023999999999999998,2e-05,0.00011999999999999999,0.00044,-0.00022,-0.00032,0.00049,8e-05,2
6261,6513,-0.00023999999999999998,2e-05,0.00011999999999999999,0.00044,-0.00022,-0.00032,0.00049,8e-05,2
6262,6514,-0.00023999999999999998,2e-05,0.00011999999999999999,0.00044,-0.00022,-0.00032,0.00049,8e-05,2
6263,6515,-0.00023999999999999998,2e-05,0.00011999999999999999,0.00044,-0.00022,-0.00032,0.00049,8e-05,2
6264,6516,-0.00023999999999999998,2e-05,0.00011999999999999999,0.00044,-0.00022,-0.00032,0.00049,8e-05,2
6265,6517,-0.00023999999999999998,2e-05,0.00011999999999999999,0.00044,-0.00022,-0.00032,0.00049,8e-05,2
6266,6518,-0.00023999999999999998,2e-05,0.00011999999999999999,0.00044,-0.00022,-0.00032,0.00049,8e-05,2
6267,6519,-0.00023999999999999998,2e-05,0.00011999999999999999,0.00044,-0.00022,-0.00032,0.00049,8e-05,2
6268,6520,-0.00023999999999999998,2e-05,0.00011999999999999999,0.00044,-0.00022,-0.00032,0.00049,8e-05,2
6269,6521,-0.00023999999999999998,2e-05,0.00011999999999999999,0.00044,-0.00022,-0.00032,0.00049,8e-05,2
6270,6522,-0.00023999999999999998,2e-05,0.00011999999999999999,0.00044,-0.00022,-0.00032,0.00049,8e-05,2
6271,6523,-0.00023999999999999998,2e-05,0.00011999999999999999,0.00044,-0.00022,-0.00032,0.00049,8e-05,2
6272,6524,-0.00023999999999999998,2e-05,0.00011999999999999999,0.00044,-0.00022,-0.00032,0.00049,8e-05,2
6273,6525,-0.00023999999999999998,2e-05,0.00011999999999999999,0.00044,-0.00022,-0.00032,0.00049,8e-05,2
6274,6526,-0.00023999999999999998,2e-05,0.00011999999999999999,0.00044,-0.00022,-0.00032,0.00049,8e-05,2
6275,6527,-0.00023999999999999998,2e-05,0.00011999999999999999,0.00044,-0.00022,-0.00032,0.00049,8e-05,2
6276,6528,0.00027,-5.9999999999999995e-05,-7e-05,-7e-05,-2e-05,0.00029,7e-05,0.00011,2
6277,6529,-0.00086,1e-05,5.9999999999999995e-05,0.00025,5.9999999999999995e-05,-0.00011999999999999999,0.00018,-0.00015,2
6278,6530,0.0001,-2e-05,-5e-05,0.00016999999999999999,-5.9999999999999995e-05,-0.0002,0.00031,0.00013000000000000002,2
6279,6531,0.0001,-2e-05,-5e-05,0.00016999999999999999,-5.9999999999999995e-05,-0.0002,0.00031,0.00013000000000000002,2
6280,6532,0.0001,-2e-05,-5e-05,0.00016999999999999999,-5.9999999999999995e-05,-0.0002,0.00031,0.00013000000000000002,2
6281,6533,0.0001,-2e-05,-5e-05,0.00016999999999999999,-5.9999999999999995e-05,-0.0002,0.00031,0.00013000000000000002,2
6282,6534,0.0001,-2e-05,-5e-05,0.00016999999999999999,-5.9999999999999995e-05,-0.0002,0.00031,0.00013000000000000002,2
6283,6535,0.0001,-2e-05,-5e-05,0.00016999999999999999,-5.9999999999999995e-05,-0.0002,0.00031,0.00013000000000000002,2
6284,6536,0.0001,-2e-05,-5e-05,0.00016999999999999999,-5.9999999999999995e-05,-0.0002,0.00031,0.00013000000000000002,2
6285,6538,0.0001,-2e-05,-5e-05,0.00016999999999999999,-5.9999999999999995e-05,-0.0002,0.00031,0.00013000000000000002,2
6286,6539,0.0001,-2e-05,-5e-05,0.00016999999999999999,-5.9999999999999995e-05,-0.0002,0.00031,0.00013000000000000002,2
6287,6540,0.0001,-2e-05,-5e-05,0.00016999999999999999,-5.9999999999999995e-05,-0.0002,0.00031,0.00013000000000000002,2
6288,6541,0.0001,-2e-05,-5e-05,0.00016999999999999999,-5.9999999999999995e-05,-0.0002,0.00031,0.00013000000000000002,2
6289,6542,0.0001,-2e-05,-5e-05,0.00016999999999999999,-5.9999999999999995e-05,-0.0002,0.00031,0.00013000000000000002,2
6290,6543,0.0001,-2e-05,-5e-05,0.00016999999999999999,-5.9999999999999995e-05,-0.0002,0.00031,0.00013000000000000002,2
6291,6544,0.0001,-2e-05,-5e-05,0.00016999999999999999,-5.9999999999999995e-05,-0.0002,0.00031,0.00013000000000000002,2
6292,6545,0.0001,-2e-05,-5e-05,0.00016999999999999999,-5.9999999999999995e-05,-0.0002,0.00031,0.00013000000000000002,2
6293,6546,0.0001,-2e-05,-5e-05,0.00016999999999999999,-5.9999999999999995e-05,-0.0002,0.00031,0.00013000000000000002,2
6294,6547,0.0001,-2e-05,-5e-05,0.00016999999999999999,-5.9999999999999995e-05,-0.0002,0.00031,0.00013000000000000002,2
6295,6548,0.0001,-2e-05,-5e-05,0.00016999999999999999,-5.9999999999999995e-05,-0.0002,0.00031,0.00013000000000000002,2
6296,6549,0.0001,-2e-05,-5e-05,0.00016999999999999999,-5.9999999999999995e-05,-0.0002,0.00031,0.00013000000000000002,2
6297,6550,0.00013000000000000002,-7e-05,-5.9999999999999995e-05,-2.9999999999999997e-05,0.00026000000000000003,0.00031,-0.00081,-0.00013000000000000002,2
6298,6551,-0.00015,-2e-05,-0.00011999999999999999,-0.00075,-0.0004,-0.00061,0.00045999999999999996,-5.9999999999999995e-05,2
6299,6552,0.0005099999999999999,-2e-05,-5.9999999999999995e-05,7e-05,-0.00025,-8e-05,-0.00015,0.00011999999999999999,2
6300,6553,0.0005099999999999999,-2e-05,-5.9999999999999995e-05,7e-05,-0.00025,-8e-05,-0.00015,0.00011999999999999999,2
6301,6554,0.0005099999999999999,-2e-05,-5.9999999999999995e-05,7e-05,-0.00025,-8e-05,-0.00015,0.00011999999999999999,2
6302,6555,0.0005099999999999999,-2e-05,-5.9999999999999995e-05,7e-05,-0.00025,-8e-05,-0.00015,0.00011999999999999999,2
6303,6556,0.0005099999999999999,-2e-05,-5.9999999999999995e-05,7e-05,-0.00025,-8e-05,-0.00015,0.00011999999999999999,2
6304,6557,0.0005099999999999999,-2e-05,-5.9999999999999995e-05,7e-05,-0.00025,-8e-05,-0.00015,0.00011999999999999999,2
6305,6558,0.0005099999999999999,-2e-05,-5.9999999999999995e-05,7e-05,-0.00025,-8e-05,-0.00015,0.00011999999999999999,2
6306,6559,0.0005099999999999999,-2e-05,-5.9999999999999995e-05,7e-05,-0.00025,-8e-05,-0.00015,0.00011999999999999999,2
6307,6560,0.0005099999999999999,-2e-05,-5.9999999999999995e-05,7e-05,-0.00025,-8e-05,-0.00015,0.00011999999999999999,2
6308,6561,0.0005099999999999999,-2e-05,-5.9999999999999995e-05,7e-05,-0.00025,-8e-05,-0.00015,0.00011999999999999999,2
6309,6562,0.0005099999999999999,-2e-05,-5.9999999999999995e-05,7e-05,-0.00025,-8e-05,-0.00015,0.00011999999999999999,2
6310,6563,0.0005099999999999999,-2e-05,-5.9999999999999995e-05,7e-05,-0.00025,-8e-05,-0.00015,0.00011999999999999999,2
6311,6564,0.0005099999999999999,-2e-05,-5.9999999999999995e-05,7e-05,-0.00025,-8e-05,-0.00015,0.00011999999999999999,2
6312,6565,-0.00022,-1e-05,0.00011999999999999999,-0.0001,0.0001,2e-05,-0.0009599999999999999,-0.00018,2
6313,6566,-0.00022,-1e-05,0.00011999999999999999,-0.0001,0.0001,2e-05,-0.0009599999999999999,-0.00018,2
6314,6567,-0.00022,-1e-05,0.00011999999999999999,-0.0001,0.0001,2e-05,-0.0009599999999999999,-0.00018,2
6315,6568,-0.00022,-1e-05,0.00011999999999999999,-0.0001,0.0001,2e-05,-0.0009599999999999999,-0.00018,2
6316,6569,-0.00022,-1e-05,0.00011999999999999999,-0.0001,0.0001,2e-05,-0.0009599999999999999,-0.00018,2
6317,6570,-0.00022,-1e-05,0.00011999999999999999,-0.0001,0.0001,2e-05,-0.0009599999999999999,-0.00018,2
6318,6571,-2e-05,-2e-05,-0.00015,-0.0009699999999999999,-0.00022,-0.0007599999999999999,8e-05,-7e-05,2
6319,6572,-9e-05,-0.00018,-0.00011999999999999999,0.00073,0.00032,-0.0007,0.00103,5.9999999999999995e-05,2
6320,6573,-9e-05,-0.00018,-0.00011999999999999999,0.00073,0.00032,-0.0007,0.00103,5.9999999999999995e-05,2
6321,6574,-9e-05,-0.00018,-0.00011999999999999999,0.00073,0.00032,-0.0007,0.00103,5.9999999999999995e-05,2
6322,6575,-9e-05,-0.00018,-0.00011999999999999999,0.00073,0.00032,-0.0007,0.00103,5.9999999999999995e-05,2
6323,6576,-9e-05,-0.00018,-0.00011999999999999999,0.00073,0.00032,-0.0007,0.00103,5.9999999999999995e-05,2
6324,6577,-9e-05,-0.00018,-0.00011999999999999999,0.00073,0.00032,-0.0007,0.00103,5.9999999999999995e-05,2
6325,6578,-9e-05,-0.00018,-0.00011999999999999999,0.00073,0.00032,-0.0007,0.00103,5.9999999999999995e-05,2
6326,6579,-9e-05,-0.00018,-0.00011999999999999999,0.00073,0.00032,-0.0007,0.00103,5.9999999999999995e-05,2
6327,6580,-9e-05,-0.00018,-0.00011999999999999999,0.00073,0.00032,-0.0007,0.00103,5.9999999999999995e-05,2
6328,6581,-9e-05,-0.00018,-0.00011999999999999999,0.00073,0.00032,-0.0007,0.00103,5.9999999999999995e-05,2
6329,6582,-9e-05,-0.00018,-0.00011999999999999999,0.00073,0.00032,-0.0007,0.00103,5.9999999999999995e-05,2
6330,6583,-9e-05,-0.00018,-0.00011999999999999999,0.00073,0.00032,-0.0007,0.00103,5.9999999999999995e-05,2
6331,6584,-9e-05,-0.00018,-0.00011999999999999999,0.00073,0.00032,-0.0007,0.00103,5.9999999999999995e-05,2
6332,6585,-9e-05,-0.00018,-0.00011999999999999999,0.00073,0.00032,-0.0007,0.00103,5.9999999999999995e-05,2
6333,6586,-9e-05,-0.00018,-0.00011999999999999999,0.00073,0.00032,-0.0007,0.00103,5.9999999999999995e-05,2
6334,6588,9e-05,-1e-05,1e-05,0.00042,-2.9999999999999997e-05,-0.00011999999999999999,-0.00114,-0.00026000000000000003,2
6335,6589,-0.00041,7e-05,0.00016,-0.00011999999999999999,0.00029,5.9999999999999995e-05,-0.00107,-0.00021,2
6336,6590,0.00023999999999999998,-2.9999999999999997e-05,-0.00021,-0.00041,8e-05,-0.00064,-7e-05,0.00047000000000000004,2
6337,6591,0.00023999999999999998,-2.9999999999999997e-05,-0.00021,-0.00041,8e-05,-0.00064,-7e-05,0.00047000000000000004,2
6338,6592,0.00023999999999999998,-2.9999999999999997e-05,-0.00021,-0.00041,8e-05,-0.00064,-7e-05,0.00047000000000000004,2
6339,6593,0.00023999999999999998,-2.9999999999999997e-05,-0.00021,-0.00041,8e-05,-0.00064,-7e-05,0.00047000000000000004,2
6340,6594,0.00023999999999999998,-2.9999999999999997e-05,-0.00021,-0.00041,8e-05,-0.00064,-7e-05,0.00047000000000000004,2
6341,6595,0.00023999999999999998,-2.9999999999999997e-05,-0.00021,-0.00041,8e-05,-0.00064,-7e-05,0.00047000000000000004,2
6342,6596,0.00023999999999999998,-2.9999999999999997e-05,-0.00021,-0.00041,8e-05,-0.00064,-7e-05,0.00047000000000000004,2
6343,6597,0.00023999999999999998,-2.9999999999999997e-05,-0.00021,-0.00041,8e-05,-0.00064,-7e-05,0.00047000000000000004,2
6344,6598,0.00023999999999999998,-2.9999999999999997e-05,-0.00021,-0.00041,8e-05,-0.00064,-7e-05,0.00047000000000000004,2
6345,6599,0.00023999999999999998,-2.9999999999999997e-05,-0.00021,-0.00041,8e-05,-0.00064,-7e-05,0.00047000000000000004,2
6346,6600,0.00023999999999999998,-2.9999999999999997e-05,-0.00021,-0.00041,8e-05,-0.00064,-7e-05,0.00047000000000000004,2
6347,6601,0.00023999999999999998,-2.9999999999999997e-05,-0.00021,-0.00041,8e-05,-0.00064,-7e-05,0.00047000000000000004,2
6348,6602,0.00023999999999999998,-2.9999999999999997e-05,-0.00021,-0.00041,8e-05,-0.00064,-7e-05,0.00047000000000000004,2
6349,6603,0.00023999999999999998,-2.9999999999999997e-05,-0.00021,-0.00041,8e-05,-0.00064,-7e-05,0.00047000000000000004,2
6350,6604,0.00023999999999999998,-2.9999999999999997e-05,-0.00021,-0.00041,8e-05,-0.00064,-7e-05,0.00047000000000000004,2
6351,6605,0.00023999999999999998,-2.9999999999999997e-05,-0.00021,-0.00041,8e-05,-0.00064,-7e-05,0.00047000000000000004,2
6352,6606,0.00023999999999999998,-2.9999999999999997e-05,-0.00021,-0.00041,8e-05,-0.00064,-7e-05,0.00047000000000000004,2
6353,6607,0.00023999999999999998,-2.9999999999999997e-05,-0.00021,-0.00041,8e-05,-0.00064,-7e-05,0.00047000000000000004,2
6354,6608,0.00023999999999999998,-2.9999999999999997e-05,-0.00021,-0.00041,8e-05,-0.00064,-7e-05,0.00047000000000000004,2
6355,6609,-0.00011999999999999999,-8e-05,-1e-05,-2.9999999999999997e-05,0.00018,0.00032,0.00013000000000000002,-0.00036,2
6356,6610,-0.00031,-0.0001,-0.00018999999999999998,-0.00075,-0.00021,-0.00026000000000000003,0.00016,0.0002,2
6357,6611,-0.00031,-0.0001,-0.00018999999999999998,-0.00075,-0.00021,-0.00026000000000000003,0.00016,0.0002,2
6358,6612,-0.00031,-0.0001,-0.00018999999999999998,-0.00075,-0.00021,-0.00026000000000000003,0.00016,0.0002,2
6359,6613,-0.00031,-0.0001,-0.00018999999999999998,-0.00075,-0.00021,-0.00026000000000000003,0.00016,0.0002,2
6360,6614,-0.00031,-0.0001,-0.00018999999999999998,-0.00075,-0.00021,-0.00026000000000000003,0.00016,0.0002,2
6361,6615,-0.00031,-0.0001,-0.00018999999999999998,-0.00075,-0.00021,-0.00026000000000000003,0.00016,0.0002,2
6362,6616,-0.00031,-0.0001,-0.00018999999999999998,-0.00075,-0.00021,-0.00026000000000000003,0.00016,0.0002,2
6363,6617,-0.00031,-0.0001,-0.00018999999999999998,-0.00075,-0.00021,-0.00026000000000000003,0.00016,0.0002,2
6364,6618,-0.0001,2.9999999999999997e-05,0.00011999999999999999,-0.00054,-0.00018999999999999998,0.00013000000000000002,0.00064,-0.00018999999999999998,2
6365,6619,-0.0001,2.9999999999999997e-05,0.00011999999999999999,-0.00054,-0.00018999999999999998,0.00013000000000000002,0.00064,-0.00018999999999999998,2
6366,6620,-0.0001,2.9999999999999997e-05,0.00011999999999999999,-0.00054,-0.00018999999999999998,0.00013000000000000002,0.00064,-0.00018999999999999998,2
6367,6621,-0.0001,2.9999999999999997e-05,0.00011999999999999999,-0.00054,-0.00018999999999999998,0.00013000000000000002,0.00064,-0.00018999999999999998,2
6368,6622,-0.0001,2.9999999999999997e-05,0.00011999999999999999,-0.00054,-0.00018999999999999998,0.00013000000000000002,0.00064,-0.00018999999999999998,2
6369,6623,-0.0001,2.9999999999999997e-05,0.00011999999999999999,-0.00054,-0.00018999999999999998,0.00013000000000000002,0.00064,-0.00018999999999999998,2
6370,6624,-0.0001,2.9999999999999997e-05,0.00011999999999999999,-0.00054,-0.00018999999999999998,0.00013000000000000002,0.00064,-0.00018999999999999998,2
6371,6625,-0.00023999999999999998,-0.00011,-7e-05,-0.00109,9e-05,-0.00033999999999999997,-0.0007700000000000001,-0.00026000000000000003,2
6372,6626,-0.00023999999999999998,-0.00011,-7e-05,-0.00109,9e-05,-0.00033999999999999997,-0.0007700000000000001,-0.00026000000000000003,2
6373,6627,-0.00023999999999999998,-0.00011,-7e-05,-0.00109,9e-05,-0.00033999999999999997,-0.0007700000000000001,-0.00026000000000000003,2
6374,6628,-0.00023999999999999998,-0.00011,-7e-05,-0.00109,9e-05,-0.00033999999999999997,-0.0007700000000000001,-0.00026000000000000003,2
6375,6629,-0.00023999999999999998,-0.00011,-7e-05,-0.00109,9e-05,-0.00033999999999999997,-0.0007700000000000001,-0.00026000000000000003,2
6376,6630,-0.00023999999999999998,-0.00011,-7e-05,-0.00109,9e-05,-0.00033999999999999997,-0.0007700000000000001,-0.00026000000000000003,2
6377,6631,0.00033,8e-05,1e-05,0.00053,-0.00015,-0.00023999999999999998,-0.00098,-0.00025,2
6378,6632,5e-05,-5e-05,-2e-05,-0.00023999999999999998,0.00026000000000000003,0.0009199999999999999,0.00018,8e-05,2
6379,6633,5e-05,-5e-05,-2e-05,-0.00023999999999999998,0.00026000000000000003,0.0009199999999999999,0.00018,8e-05,2
6380,6634,5e-05,-5e-05,-2e-05,-0.00023999999999999998,0.00026000000000000003,0.0009199999999999999,0.00018,8e-05,2
6381,6635,5e-05,-5e-05,-2e-05,-0.00023999999999999998,0.00026000000000000003,0.0009199999999999999,0.00018,8e-05,2
6382,6636,5e-05,-5e-05,-2e-05,-0.00023999999999999998,0.00026000000000000003,0.0009199999999999999,0.00018,8e-05,2
6383,6638,5e-05,-5e-05,-2e-05,-0.00023999999999999998,0.00026000000000000003,0.0009199999999999999,0.00018,8e-05,2
6384,6639,5e-05,-5e-05,-2e-05,-0.00023999999999999998,0.00026000000000000003,0.0009199999999999999,0.00018,8e-05,2
6385,6640,5e-05,-5e-05,-2e-05,-0.00023999999999999998,0.00026000000000000003,0.0009199999999999999,0.00018,8e-05,2
6386,6641,5e-05,-5e-05,-2e-05,-0.00023999999999999998,0.00026000000000000003,0.0009199999999999999,0.00018,8e-05,2
6387,6642,5e-05,-5e-05,-2e-05,-0.00023999999999999998,0.00026000000000000003,0.0009199999999999999,0.00018,8e-05,2
6388,6643,5e-05,-5e-05,-2e-05,-0.00023999999999999998,0.00026000000000000003,0.0009199999999999999,0.00018,8e-05,2
6389,6644,5e-05,-5e-05,-2e-05,-0.00023999999999999998,0.00026000000000000003,0.0009199999999999999,0.00018,8e-05,2
6390,6645,5e-05,-5e-05,-2e-05,-0.00023999999999999998,0.00026000000000000003,0.0009199999999999999,0.00018,8e-05,2
6391,6646,5e-05,-5e-05,-2e-05,-0.00023999999999999998,0.00026000000000000003,0.0009199999999999999,0.00018,8e-05,2
6392,6647,5e-05,-5e-05,-2e-05,-0.00023999999999999998,0.00026000000000000003,0.0009199999999999999,0.00018,8e-05,2
6393,6648,5e-05,-5e-05,-2e-05,-0.00023999999999999998,0.00026000000000000003,0.0009199999999999999,0.00018,8e-05,2
6394,6649,5e-05,-5e-05,-2e-05,-0.00023999999999999998,0.00026000000000000003,0.0009199999999999999,0.00018,8e-05,2
6395,6650,5e-05,-5e-05,-2e-05,-0.00023999999999999998,0.00026000000000000003,0.0009199999999999999,0.00018,8e-05,2
6396,6651,5e-05,-5e-05,-2e-05,-0.00023999999999999998,0.00026000000000000003,0.0009199999999999999,0.00018,8e-05,2
6397,6652,5e-05,-5e-05,-2e-05,-0.00023999999999999998,0.00026000000000000003,0.0009199999999999999,0.00018,8e-05,2
6398,6653,5e-05,-5e-05,-2e-05,-0.00023999999999999998,0.00026000000000000003,0.0009199999999999999,0.00018,8e-05,2
6399,6654,5e-05,-5e-05,-2e-05,-0.00023999999999999998,0.00026000000000000003,0.0009199999999999999,0.00018,8e-05,2
6400,6655,-2e-05,-0.00011999999999999999,-0.00013000000000000002,0.00025,-0.00016999999999999999,-0.00093,-2.9999999999999997e-05,-2e-05,2
6401,6656,2e-05,2e-05,7e-05,4e-05,-5.9999999999999995e-05,0.0006,0.00016999999999999999,4e-05,2
6402,6657,-9e-05,8e-05,-0.00011,-0.00082,-0.00013000000000000002,0.0011300000000000001,0.00062,2e-05,2
6403,6658,-9e-05,8e-05,-0.00011,-0.00082,-0.00013000000000000002,0.0011300000000000001,0.00062,2e-05,2
6404,6659,-9e-05,8e-05,-0.00011,-0.00082,-0.00013000000000000002,0.0011300000000000001,0.00062,2e-05,2
6405,6660,-9e-05,8e-05,-0.00011,-0.00082,-0.00013000000000000002,0.0011300000000000001,0.00062,2e-05,2
6406,6661,-9e-05,8e-05,-0.00011,-0.00082,-0.00013000000000000002,0.0011300000000000001,0.00062,2e-05,2
6407,6662,-9e-05,8e-05,-0.00011,-0.00082,-0.00013000000000000002,0.0011300000000000001,0.00062,2e-05,2
6408,6663,-9e-05,8e-05,-0.00011,-0.00082,-0.00013000000000000002,0.0011300000000000001,0.00062,2e-05,2
6409,6664,-9e-05,8e-05,-0.00011,-0.00082,-0.00013000000000000002,0.0011300000000000001,0.00062,2e-05,2
6410,6665,-9e-05,8e-05,-0.00011,-0.00082,-0.00013000000000000002,0.0011300000000000001,0.00062,2e-05,2
6411,6666,-9e-05,8e-05,-0.00011,-0.00082,-0.00013000000000000002,0.0011300000000000001,0.00062,2e-05,2
6412,6667,-9e-05,8e-05,-0.00011,-0.00082,-0.00013000000000000002,0.0011300000000000001,0.00062,2e-05,2
6413,6668,-9e-05,8e-05,-0.00011,-0.00082,-0.00013000000000000002,0.0011300000000000001,0.00062,2e-05,2
6414,6669,-9e-05,8e-05,-0.00011,-0.00082,-0.00013000000000000002,0.0011300000000000001,0.00062,2e-05,2
6415,6670,-0.00023999999999999998,-0.00014,-2.9999999999999997e-05,0.0007700000000000001,0.00016,-0.00098,-0.00041,0.00013000000000000002,2
6416,6671,2e-05,4e-05,9e-05,-0.0009199999999999999,-2.9999999999999997e-05,-0.0004,0.00063,-0.00032,2
6417,6672,0.00018999999999999998,2.9999999999999997e-05,-8e-05,0.00043,0.00021,0.00041,-0.0012699999999999999,2.9999999999999997e-05,2
6418,6673,0.00018999999999999998,2.9999999999999997e-05,-8e-05,0.00043,0.00021,0.00041,-0.0012699999999999999,2.9999999999999997e-05,2
6419,6674,0.00018999999999999998,2.9999999999999997e-05,-8e-05,0.00043,0.00021,0.00041,-0.0012699999999999999,2.9999999999999997e-05,2
6420,6675,0.00018999999999999998,2.9999999999999997e-05,-8e-05,0.00043,0.00021,0.00041,-0.0012699999999999999,2.9999999999999997e-05,2
6421,6676,0.00018999999999999998,2.9999999999999997e-05,-8e-05,0.00043,0.00021,0.00041,-0.0012699999999999999,2.9999999999999997e-05,2
6422,6677,0.00018999999999999998,2.9999999999999997e-05,-8e-05,0.00043,0.00021,0.00041,-0.0012699999999999999,2.9999999999999997e-05,2
6423,6678,0.00018999999999999998,2.9999999999999997e-05,-8e-05,0.00043,0.00021,0.00041,-0.0012699999999999999,2.9999999999999997e-05,2
6424,6679,0.00018999999999999998,2.9999999999999997e-05,-8e-05,0.00043,0.00021,0.00041,-0.0012699999999999999,2.9999999999999997e-05,2
6425,6680,0.00018999999999999998,2.9999999999999997e-05,-8e-05,0.00043,0.00021,0.00041,-0.0012699999999999999,2.9999999999999997e-05,2
6426,6681,0.00018999999999999998,2.9999999999999997e-05,-8e-05,0.00043,0.00021,0.00041,-0.0012699999999999999,2.9999999999999997e-05,2
6427,6682,0.00018999999999999998,2.9999999999999997e-05,-8e-05,0.00043,0.00021,0.00041,-0.0012699999999999999,2.9999999999999997e-05,2
6428,6683,0.00018999999999999998,2.9999999999999997e-05,-8e-05,0.00043,0.00021,0.00041,-0.0012699999999999999,2.9999999999999997e-05,2
6429,6684,0.00035,0.00015,2e-05,0.0007700000000000001,0.00016,-0.00031,0.00061,0.00021,2
6430,6685,0.00035,0.00015,2e-05,0.0007700000000000001,0.00016,-0.00031,0.00061,0.00021,2
6431,6686,0.00035,0.00015,2e-05,0.0007700000000000001,0.00016,-0.00031,0.00061,0.00021,2
6432,6688,0.00035,0.00015,2e-05,0.0007700000000000001,0.00016,-0.00031,0.00061,0.00021,2
6433,6689,0.00035,0.00015,2e-05,0.0007700000000000001,0.00016,-0.00031,0.00061,0.00021,2
6434,6690,0.00035,0.00015,2e-05,0.0007700000000000001,0.00016,-0.00031,0.00061,0.00021,2
6435,6691,0.00035,0.00015,2e-05,0.0007700000000000001,0.00016,-0.00031,0.00061,0.00021,2
6436,6692,0.00035,0.00015,2e-05,0.0007700000000000001,0.00016,-0.00031,0.00061,0.00021,2
6437,6693,0.00033999999999999997,4e-05,-0.00016999999999999999,0.00021,-0.00016,0.00033999999999999997,0.00028,2.9999999999999997e-05,2
6438,6694,0.00033999999999999997,4e-05,-0.00016999999999999999,0.00021,-0.00016,0.00033999999999999997,0.00028,2.9999999999999997e-05,2
6439,6695,0.00033999999999999997,4e-05,-0.00016999999999999999,0.00021,-0.00016,0.00033999999999999997,0.00028,2.9999999999999997e-05,2
6440,6696,0.00033999999999999997,4e-05,-0.00016999999999999999,0.00021,-0.00016,0.00033999999999999997,0.00028,2.9999999999999997e-05,2
6441,6697,0.00033999999999999997,4e-05,-0.00016999999999999999,0.00021,-0.00016,0.00033999999999999997,0.00028,2.9999999999999997e-05,2
6442,6698,0.00033999999999999997,4e-05,-0.00016999999999999999,0.00021,-0.00016,0.00033999999999999997,0.00028,2.9999999999999997e-05,2
6443,6699,0.00033999999999999997,4e-05,-0.00016999999999999999,0.00021,-0.00016,0.00033999999999999997,0.00028,2.9999999999999997e-05,2
6444,6700,0.00033999999999999997,4e-05,-0.00016999999999999999,0.00021,-0.00016,0.00033999999999999997,0.00028,2.9999999999999997e-05,2
6445,6701,0.00033999999999999997,4e-05,-0.00016999999999999999,0.00021,-0.00016,0.00033999999999999997,0.00028,2.9999999999999997e-05,2
6446,6702,0.00033999999999999997,4e-05,-0.00016999999999999999,0.00021,-0.00016,0.00033999999999999997,0.00028,2.9999999999999997e-05,2
6447,6703,0.00033999999999999997,4e-05,-0.00016999999999999999,0.00021,-0.00016,0.00033999999999999997,0.00028,2.9999999999999997e-05,2
6448,6704,0.00033999999999999997,4e-05,-0.00016999999999999999,0.00021,-0.00016,0.00033999999999999997,0.00028,2.9999999999999997e-05,2
6449,6705,0.00033999999999999997,4e-05,-0.00016999999999999999,0.00021,-0.00016,0.00033999999999999997,0.00028,2.9999999999999997e-05,2
6450,6706,0.00033999999999999997,4e-05,-0.00016999999999999999,0.00021,-0.00016,0.00033999999999999997,0.00028,2.9999999999999997e-05,2
6451,6707,0.00033999999999999997,4e-05,-0.00016999999999999999,0.00021,-0.00016,0.00033999999999999997,0.00028,2.9999999999999997e-05,2
6452,6708,-0.00022999999999999998,-0.00011999999999999999,5e-05,0.0012699999999999999,0.00054,0.0001,-0.00045,-2.9999999999999997e-05,2
6453,6709,0.00011,-5e-05,-0.00016,-0.00029,-9e-05,-0.00085,2e-05,9e-05,2
6454,6710,-0.00025,1e-05,0.00016,-0.0003,-0.00028,0.0004,0.0003,-0.0003,2
6455,6711,-0.00025,1e-05,0.00016,-0.0003,-0.00028,0.0004,0.0003,-0.0003,2
6456,6712,-0.00025,1e-05,0.00016,-0.0003,-0.00028,0.0004,0.0003,-0.0003,2
6457,6713,-0.00025,1e-05,0.00016,-0.0003,-0.00028,0.0004,0.0003,-0.0003,2
6458,6714,-0.00025,1e-05,0.00016,-0.0003,-0.00028,0.0004,0.0003,-0.0003,2
6459,6715,-0.00025,1e-05,0.00016,-0.0003,-0.00028,0.0004,0.0003,-0.0003,2
6460,6716,-0.00025,1e-05,0.00016,-0.0003,-0.00028,0.0004,0.0003,-0.0003,2
6461,6717,-0.00025,1e-05,0.00016,-0.0003,-0.00028,0.0004,0.0003,-0.0003,2
6462,6718,-0.00025,1e-05,0.00016,-0.0003,-0.00028,0.0004,0.0003,-0.0003,2
6463,6719,-0.00025,1e-05,0.00016,-0.0003,-0.00028,0.0004,0.0003,-0.0003,2
6464,6720,-0.00025,1e-05,0.00016,-0.0003,-0.00028,0.0004,0.0003,-0.0003,2
6465,6721,-0.00025,1e-05,0.00016,-0.0003,-0.00028,0.0004,0.0003,-0.0003,2
6466,6722,-0.00025,1e-05,0.00016,-0.0003,-0.00028,0.0004,0.0003,-0.0003,2
6467,6723,-0.00025,1e-05,0.00016,-0.0003,-0.00028,0.0004,0.0003,-0.0003,2
6468,6724,-0.00025,1e-05,0.00016,-0.0003,-0.00028,0.0004,0.0003,-0.0003,2
6469,6725,-0.00025,1e-05,0.00016,-0.0003,-0.00028,0.0004,0.0003,-0.0003,2
6470,6726,-0.00025,1e-05,0.00016,-0.0003,-0.00028,0.0004,0.0003,-0.0003,2
6471,6727,-0.00025,1e-05,0.00016,-0.0003,-0.00028,0.0004,0.0003,-0.0003,2
6472,6728,-0.00025,1e-05,0.00016,-0.0003,-0.00028,0.0004,0.0003,-0.0003,2
6473,6729,-0.00025,1e-05,0.00016,-0.0003,-0.00028,0.0004,0.0003,-0.0003,2
6474,6730,-8e-05,-5.9999999999999995e-05,-5.9999999999999995e-05,0.00033,-0.00013000000000000002,-0.00016999999999999999,-0.00029,-0.00014,2
6475,6731,-0.00015,-4e-05,-2.9999999999999997e-05,-0.00015,-0.0001,-0.00016999999999999999,0.00018999999999999998,-0.00037,2
6476,6732,-0.00033,-4e-05,7e-05,1e-05,0.00039,-0.0010199999999999999,-0.00049,-0.00018999999999999998,2
6477,6733,-0.00033,-4e-05,7e-05,1e-05,0.00039,-0.0010199999999999999,-0.00049,-0.00018999999999999998,2
6478,6734,-0.00033,-4e-05,7e-05,1e-05,0.00039,-0.0010199999999999999,-0.00049,-0.00018999999999999998,2
6479,6735,-0.00033,-4e-05,7e-05,1e-05,0.00039,-0.0010199999999999999,-0.00049,-0.00018999999999999998,2
6480,6736,-0.00033,-4e-05,7e-05,1e-05,0.00039,-0.0010199999999999999,-0.00049,-0.00018999999999999998,2
6481,6738,-0.00033,-4e-05,7e-05,1e-05,0.00039,-0.0010199999999999999,-0.00049,-0.00018999999999999998,2
6482,6739,-0.00033,-4e-05,7e-05,1e-05,0.00039,-0.0010199999999999999,-0.00049,-0.00018999999999999998,2
6483,6740,-0.00033,-4e-05,7e-05,1e-05,0.00039,-0.0010199999999999999,-0.00049,-0.00018999999999999998,2
6484,6741,-0.00033,-4e-05,7e-05,1e-05,0.00039,-0.0010199999999999999,-0.00049,-0.00018999999999999998,2
6485,6742,-0.00033,-4e-05,7e-05,1e-05,0.00039,-0.0010199999999999999,-0.00049,-0.00018999999999999998,2
6486,6743,-0.00033,-4e-05,7e-05,1e-05,0.00039,-0.0010199999999999999,-0.00049,-0.00018999999999999998,2
6487,6744,-0.00011,-0.00011,-0.0001,-0.00023999999999999998,-5e-05,-0.00026000000000000003,-0.00018999999999999998,0.00027,2
6488,6745,-0.00011,-0.00011,-0.0001,-0.00023999999999999998,-5e-05,-0.00026000000000000003,-0.00018999999999999998,0.00027,2
6489,6746,-0.00011,-0.00011,-0.0001,-0.00023999999999999998,-5e-05,-0.00026000000000000003,-0.00018999999999999998,0.00027,2
6490,6747,-0.00011,-0.00011,-0.0001,-0.00023999999999999998,-5e-05,-0.00026000000000000003,-0.00018999999999999998,0.00027,2
6491,6748,-0.00011,-0.00011,-0.0001,-0.00023999999999999998,-5e-05,-0.00026000000000000003,-0.00018999999999999998,0.00027,2
6492,6749,-0.00011,-0.00011,-0.0001,-0.00023999999999999998,-5e-05,-0.00026000000000000003,-0.00018999999999999998,0.00027,2
6493,6750,-0.00011,-0.00011,-0.0001,-0.00023999999999999998,-5e-05,-0.00026000000000000003,-0.00018999999999999998,0.00027,2
6494,6751,-0.00011,-0.00011,-0.0001,-0.00023999999999999998,-5e-05,-0.00026000000000000003,-0.00018999999999999998,0.00027,2
6495,6752,-0.00011,-0.00011,-0.0001,-0.00023999999999999998,-5e-05,-0.00026000000000000003,-0.00018999999999999998,0.00027,2
