,time,channel1,channel2,channel3,channel4,channel5,channel6,channel7,channel8,class
4001,4171,0.00018,7e-05,-5e-05,4e-05,-2e-05,-5e-05,8e-05,5.9999999999999995e-05,2
4002,4172,0.00018,7e-05,-5e-05,4e-05,-2e-05,-5e-05,8e-05,5.9999999999999995e-05,2
4003,4173,0.00018,7e-05,-5e-05,4e-05,-2e-05,-5e-05,8e-05,5.9999999999999995e-05,2
4004,4174,0.00018,7e-05,-5e-05,4e-05,-2e-05,-5e-05,8e-05,5.9999999999999995e-05,2
4005,4175,0.00018,7e-05,-5e-05,4e-05,-2e-05,-5e-05,8e-05,5.9999999999999995e-05,2
4006,4176,0.00018,7e-05,-5e-05,4e-05,-2e-05,-5e-05,8e-05,5.9999999999999995e-05,2
4007,4177,0.00018,7e-05,-5e-05,4e-05,-2e-05,-5e-05,8e-05,5.9999999999999995e-05,2
4008,4178,0.00018,7e-05,-5e-05,4e-05,-2e-05,-5e-05,8e-05,5.9999999999999995e-05,2
4009,4179,0.00018,7e-05,-5e-05,4e-05,-2e-05,-5e-05,8e-05,5.9999999999999995e-05,2
4010,4180,0.00018,7e-05,-5e-05,4e-05,-2e-05,-5e-05,8e-05,5.9999999999999995e-05,2
4011,4181,0.00018,7e-05,-5e-05,4e-05,-2e-05,-5e-05,8e-05,5.9999999999999995e-05,2
4012,4182,0.00018,7e-05,-5e-05,4e-05,-2e-05,-5e-05,8e-05,5.9999999999999995e-05,2
4013,4183,0.00018,7e-05,-5e-05,4e-05,-2e-05,-5e-05,8e-05,5.9999999999999995e-05,2
4014,4184,0.00018,7e-05,-5e-05,4e-05,-2e-05,-5e-05,8e-05,5.9999999999999995e-05,2
4015,4185,-0.00013000000000000002,-4e-05,5.9999999999999995e-05,0.00058,0.00016,0.00022,-0.0002,-1e-05,2
4016,4186,-0.00013000000000000002,-5e-05,1e-05,9e-05,-4e-05,7e-05,0.00035,0.00011,2
4017,4188,0.00016999999999999999,0.00016,2.9999999999999997e-05,-0.00032,0.00027,0.00032,4e-05,2e-05,2
4018,4189,0.00016999999999999999,0.00016,2.9999999999999997e-05,-0.00032,0.00027,0.00032,4e-05,2e-05,2
4019,4190,0.00016999999999999999,0.00016,2.9999999999999997e-05,-0.00032,0.00027,0.00032,4e-05,2e-05,2
4020,4191,0.00016999999999999999,0.00016,2.9999999999999997e-05,-0.00032,0.00027,0.00032,4e-05,2e-05,2
4021,4192,0.00016999999999999999,0.00016,2.9999999999999997e-05,-0.00032,0.00027,0.00032,4e-05,2e-05,2
4022,4193,0.00016999999999999999,0.00016,2.9999999999999997e-05,-0.00032,0.00027,0.00032,4e-05,2e-05,2
4023,4194,0.00016999999999999999,0.00016,2.9999999999999997e-05,-0.00032,0.00027,0.00032,4e-05,2e-05,2
4024,4195,0.00016999999999999999,0.00016,2.9999999999999997e-05,-0.00032,0.00027,0.00032,4e-05,2e-05,2
4025,4196,0.00016999999999999999,0.00016,2.9999999999999997e-05,-0.00032,0.00027,0.00032,4e-05,2e-05,2
4026,4197,0.00016999999999999999,0.00016,2.9999999999999997e-05,-0.00032,0.00027,0.00032,4e-05,2e-05,2
4027,4198,0.00016999999999999999,0.00016,2.9999999999999997e-05,-0.00032,0.00027,0.00032,4e-05,2e-05,2
4028,4199,-5e-05,-0.00011999999999999999,-0.00022,0.00043,-4e-05,-0.00015,1e-05,0.0,2
4029,4200,-5e-05,-0.00011999999999999999,-0.00022,0.00043,-4e-05,-0.00015,1e-05,0.0,2
4030,4201,-5e-05,-0.00011999999999999999,-0.00022,0.00043,-4e-05,-0.00015,1e-05,0.0,2
4031,4202,-5e-05,-0.00011999999999999999,-0.00022,0.00043,-4e-05,-0.00015,1e-05,0.0,2
4032,4203,-5e-05,-0.00011999999999999999,-0.00022,0.00043,-4e-05,-0.00015,1e-05,0.0,2
4033,4204,-5e-05,-0.00011999999999999999,-0.00022,0.00043,-4e-05,-0.00015,1e-05,0.0,2
4034,4205,-5e-05,-0.00011999999999999999,-0.00022,0.00043,-4e-05,-0.00015,1e-05,0.0,2
4035,4206,-5e-05,-0.00011999999999999999,-0.00022,0.00043,-4e-05,-0.00015,1e-05,0.0,2
4036,4207,2.9999999999999997e-05,2.9999999999999997e-05,5.9999999999999995e-05,-4e-05,-0.00016,-0.00014,-9e-05,-5.9999999999999995e-05,2
4037,4208,2.9999999999999997e-05,2.9999999999999997e-05,5.9999999999999995e-05,-4e-05,-0.00016,-0.00014,-9e-05,-5.9999999999999995e-05,2
4038,4209,2.9999999999999997e-05,2.9999999999999997e-05,5.9999999999999995e-05,-4e-05,-0.00016,-0.00014,-9e-05,-5.9999999999999995e-05,2
4039,4210,2.9999999999999997e-05,2.9999999999999997e-05,5.9999999999999995e-05,-4e-05,-0.00016,-0.00014,-9e-05,-5.9999999999999995e-05,2
4040,4211,2.9999999999999997e-05,2.9999999999999997e-05,5.9999999999999995e-05,-4e-05,-0.00016,-0.00014,-9e-05,-5.9999999999999995e-05,2
4041,4212,2.9999999999999997e-05,2.9999999999999997e-05,5.9999999999999995e-05,-4e-05,-0.00016,-0.00014,-9e-05,-5.9999999999999995e-05,2
4042,4213,2.9999999999999997e-05,2.9999999999999997e-05,5.9999999999999995e-05,-4e-05,-0.00016,-0.00014,-9e-05,-5.9999999999999995e-05,2
4043,4214,2.9999999999999997e-05,2.9999999999999997e-05,5.9999999999999995e-05,-4e-05,-0.00016,-0.00014,-9e-05,-5.9999999999999995e-05,2
4044,4215,2.9999999999999997e-05,2.9999999999999997e-05,5.9999999999999995e-05,-4e-05,-0.00016,-0.00014,-9e-05,-5.9999999999999995e-05,2
4045,4216,2.9999999999999997e-05,2.9999999999999997e-05,5.9999999999999995e-05,-4e-05,-0.00016,-0.00014,-9e-05,-5.9999999999999995e-05,2
4046,4217,2.9999999999999997e-05,2.9999999999999997e-05,5.9999999999999995e-05,-4e-05,-0.00016,-0.00014,-9e-05,-5.9999999999999995e-05,2
4047,4218,2.9999999999999997e-05,2.9999999999999997e-05,5.9999999999999995e-05,-4e-05,-0.00016,-0.00014,-9e-05,-5.9999999999999995e-05,2
4048,4219,2.9999999999999997e-05,2.9999999999999997e-05,5.9999999999999995e-05,-4e-05,-0.00016,-0.00014,-9e-05,-5.9999999999999995e-05,2
4049,4220,2.9999999999999997e-05,2.9999999999999997e-05,5.9999999999999995e-05,-4e-05,-0.00016,-0.00014,-9e-05,-5.9999999999999995e-05,2
4050,4221,2.9999999999999997e-05,2.9999999999999997e-05,5.9999999999999995e-05,-4e-05,-0.00016,-0.00014,-9e-05,-5.9999999999999995e-05,2
4051,4222,2.9999999999999997e-05,2.9999999999999997e-05,5.9999999999999995e-05,-4e-05,-0.00016,-0.00014,-9e-05,-5.9999999999999995e-05,2
4052,4223,-0.00016999999999999999,-0.00016999999999999999,-0.00011999999999999999,-0.00013000000000000002,1e-05,9e-05,-0.00041,-1e-05,2
4053,4224,0.00025,5e-05,-0.00014,-0.00016,-0.00018,-0.0001,-0.00016999999999999999,0.00011,2
4054,4225,0.00025,5e-05,-0.00014,-0.00016,-0.00018,-0.0001,-0.00016999999999999999,0.00011,2
4055,4226,0.00025,5e-05,-0.00014,-0.00016,-0.00018,-0.0001,-0.00016999999999999999,0.00011,2
4056,4227,0.00025,5e-05,-0.00014,-0.00016,-0.00018,-0.0001,-0.00016999999999999999,0.00011,2
4057,4228,0.00025,5e-05,-0.00014,-0.00016,-0.00018,-0.0001,-0.00016999999999999999,0.00011,2
4058,4229,0.00025,5e-05,-0.00014,-0.00016,-0.00018,-0.0001,-0.00016999999999999999,0.00011,2
4059,4230,0.00025,5e-05,-0.00014,-0.00016,-0.00018,-0.0001,-0.00016999999999999999,0.00011,2
4060,4231,0.00025,5e-05,-0.00014,-0.00016,-0.00018,-0.0001,-0.00016999999999999999,0.00011,2
4061,4232,0.00025,5e-05,-0.00014,-0.00016,-0.00018,-0.0001,-0.00016999999999999999,0.00011,2
4062,4233,0.00025,5e-05,-0.00014,-0.00016,-0.00018,-0.0001,-0.00016999999999999999,0.00011,2
4063,4234,0.00025,5e-05,-0.00014,-0.00016,-0.00018,-0.0001,-0.00016999999999999999,0.00011,2
4064,4235,0.00025,5e-05,-0.00014,-0.00016,-0.00018,-0.0001,-0.00016999999999999999,0.00011,2
4065,4236,0.00025,5e-05,-0.00014,-0.00016,-0.00018,-0.0001,-0.00016999999999999999,0.00011,2
4066,4238,0.00025,5e-05,-0.00014,-0.00016,-0.00018,-0.0001,-0.00016999999999999999,0.00011,2
4067,4239,0.00025,5e-05,-0.00014,-0.00016,-0.00018,-0.0001,-0.00016999999999999999,0.00011,2
4068,4240,0.00025,5e-05,-0.00014,-0.00016,-0.00018,-0.0001,-0.00016999999999999999,0.00011,2
4069,4241,0.00025,5e-05,-0.00014,-0.00016,-0.00018,-0.0001,-0.00016999999999999999,0.00011,2
4070,4242,0.00025,5e-05,-0.00014,-0.00016,-0.00018,-0.0001,-0.00016999999999999999,0.00011,2
4071,4243,0.00025,5e-05,-0.00014,-0.00016,-0.00018,-0.0001,-0.00016999999999999999,0.00011,2
4072,4244,0.00025,5e-05,-0.00014,-0.00016,-0.00018,-0.0001,-0.00016999999999999999,0.00011,2
4073,4245,0.00025,5e-05,-0.00014,-0.00016,-0.00018,-0.0001,-0.00016999999999999999,0.00011,2
4074,4246,-8e-05,7e-05,0.00022999999999999998,0.0005099999999999999,0.0,-0.0005099999999999999,-0.0005,-0.00025,2
4075,4247,-8e-05,7e-05,0.00022999999999999998,0.0005099999999999999,0.0,-0.0005099999999999999,-0.0005,-0.00025,2
4076,4248,-8e-05,7e-05,0.00022999999999999998,0.0005099999999999999,0.0,-0.0005099999999999999,-0.0005,-0.00025,2
4077,4249,-8e-05,7e-05,0.00022999999999999998,0.0005099999999999999,0.0,-0.0005099999999999999,-0.0005,-0.00025,2
4078,4250,-8e-05,7e-05,0.00022999999999999998,0.0005099999999999999,0.0,-0.0005099999999999999,-0.0005,-0.00025,2
4079,4251,-8e-05,7e-05,0.00022999999999999998,0.0005099999999999999,0.0,-0.0005099999999999999,-0.0005,-0.00025,2
4080,4252,-8e-05,7e-05,0.00022999999999999998,0.0005099999999999999,0.0,-0.0005099999999999999,-0.0005,-0.00025,2
4081,4253,-8e-05,7e-05,0.00022999999999999998,0.0005099999999999999,0.0,-0.0005099999999999999,-0.0005,-0.00025,2
4082,4254,-8e-05,7e-05,0.00022999999999999998,0.0005099999999999999,0.0,-0.0005099999999999999,-0.0005,-0.00025,2
4083,4255,-8e-05,7e-05,0.00022999999999999998,0.0005099999999999999,0.0,-0.0005099999999999999,-0.0005,-0.00025,2
4084,4256,-8e-05,7e-05,0.00022999999999999998,0.0005099999999999999,0.0,-0.0005099999999999999,-0.0005,-0.00025,2
4085,4257,-8e-05,7e-05,0.00022999999999999998,0.0005099999999999999,0.0,-0.0005099999999999999,-0.0005,-0.00025,2
4086,4258,-8e-05,7e-05,0.00022999999999999998,0.0005099999999999999,0.0,-0.0005099999999999999,-0.0005,-0.00025,2
4087,4259,0.00014,5e-05,0.00023999999999999998,0.00029,2.9999999999999997e-05,0.00023999999999999998,0.00105,8e-05,2
4088,4260,0.00014,5e-05,0.00023999999999999998,0.00029,2.9999999999999997e-05,0.00023999999999999998,0.00105,8e-05,2
4089,4261,0.00014,5e-05,0.00023999999999999998,0.00029,2.9999999999999997e-05,0.00023999999999999998,0.00105,8e-05,2
4090,4262,0.00014,5e-05,0.00023999999999999998,0.00029,2.9999999999999997e-05,0.00023999999999999998,0.00105,8e-05,2
4091,4263,0.00014,5e-05,0.00023999999999999998,0.00029,2.9999999999999997e-05,0.00023999999999999998,0.00105,8e-05,2
4092,4264,0.00014,5e-05,0.00023999999999999998,0.00029,2.9999999999999997e-05,0.00023999999999999998,0.00105,8e-05,2
4093,4265,0.00014,5e-05,0.00023999999999999998,0.00029,2.9999999999999997e-05,0.00023999999999999998,0.00105,8e-05,2
4094,4266,0.00014,5e-05,0.00023999999999999998,0.00029,2.9999999999999997e-05,0.00023999999999999998,0.00105,8e-05,2
4095,4267,-0.00028,-0.00013000000000000002,0.0,-0.00018999999999999998,-2.9999999999999997e-05,2e-05,0.00031,-0.0001,2
4096,4268,-0.00028,-0.00013000000000000002,0.0,-0.00018999999999999998,-2.9999999999999997e-05,2e-05,0.00031,-0.0001,2
4097,4269,-0.00028,-0.00013000000000000002,0.0,-0.00018999999999999998,-2.9999999999999997e-05,2e-05,0.00031,-0.0001,2
4098,4270,-0.00028,-0.00013000000000000002,0.0,-0.00018999999999999998,-2.9999999999999997e-05,2e-05,0.00031,-0.0001,2
4099,4271,-0.00028,-0.00013000000000000002,0.0,-0.00018999999999999998,-2.9999999999999997e-05,2e-05,0.00031,-0.0001,2
4100,4272,-0.00028,-0.00013000000000000002,0.0,-0.00018999999999999998,-2.9999999999999997e-05,2e-05,0.00031,-0.0001,2
4101,4273,-0.00028,-0.00013000000000000002,0.0,-0.00018999999999999998,-2.9999999999999997e-05,2e-05,0.00031,-0.0001,2
4102,4274,-0.00028,-0.00013000000000000002,0.0,-0.00018999999999999998,-2.9999999999999997e-05,2e-05,0.00031,-0.0001,2
4103,4275,-0.00028,-0.00013000000000000002,0.0,-0.00018999999999999998,-2.9999999999999997e-05,2e-05,0.00031,-0.0001,2
4104,4276,-0.00028,-0.00013000000000000002,0.0,-0.00018999999999999998,-2.9999999999999997e-05,2e-05,0.00031,-0.0001,2
4105,4277,-0.00028,-0.00013000000000000002,0.0,-0.00018999999999999998,-2.9999999999999997e-05,2e-05,0.00031,-0.0001,2
4106,4278,-0.00028,-0.00013000000000000002,0.0,-0.00018999999999999998,-2.9999999999999997e-05,2e-05,0.00031,-0.0001,2
4107,4279,-0.00028,-0.00013000000000000002,0.0,-0.00018999999999999998,-2.9999999999999997e-05,2e-05,0.00031,-0.0001,2
4108,4280,-0.00028,-0.00013000000000000002,0.0,-0.00018999999999999998,-2.9999999999999997e-05,2e-05,0.00031,-0.0001,2
4109,4281,-0.00028,-0.00013000000000000002,0.0,-0.00018999999999999998,-2.9999999999999997e-05,2e-05,0.00031,-0.0001,2
4110,4282,-0.00028,-0.00013000000000000002,0.0,-0.00018999999999999998,-2.9999999999999997e-05,2e-05,0.00031,-0.0001,2
4111,4283,-0.0001,-4e-05,0.00022999999999999998,0.00032,0.0001,-0.00011999999999999999,-0.00021,0.0001,2
4112,4284,0.00033999999999999997,0.00011,-9e-05,-0.00013000000000000002,4e-05,0.00035,0.00062,0.0003,2
4113,4285,0.00033999999999999997,0.00011,-9e-05,-0.00013000000000000002,4e-05,0.00035,0.00062,0.0003,2
4114,4286,0.00033999999999999997,0.00011,-9e-05,-0.00013000000000000002,4e-05,0.00035,0.00062,0.0003,2
4115,4288,0.00033999999999999997,0.00011,-9e-05,-0.00013000000000000002,4e-05,0.00035,0.00062,0.0003,2
4116,4289,0.00033999999999999997,0.00011,-9e-05,-0.00013000000000000002,4e-05,0.00035,0.00062,0.0003,2
4117,4290,0.00033999999999999997,0.00011,-9e-05,-0.00013000000000000002,4e-05,0.00035,0.00062,0.0003,2
4118,4291,0.00033999999999999997,0.00011,-9e-05,-0.00013000000000000002,4e-05,0.00035,0.00062,0.0003,2
4119,4292,0.00033999999999999997,0.00011,-9e-05,-0.00013000000000000002,4e-05,0.00035,0.00062,0.0003,2
4120,4293,0.00033999999999999997,0.00011,-9e-05,-0.00013000000000000002,4e-05,0.00035,0.00062,0.0003,2
4121,4294,0.00033999999999999997,0.00011,-9e-05,-0.00013000000000000002,4e-05,0.00035,0.00062,0.0003,2
4122,4295,0.00033999999999999997,0.00011,-9e-05,-0.00013000000000000002,4e-05,0.00035,0.00062,0.0003,2
4123,4296,0.00033999999999999997,0.00011,-9e-05,-0.00013000000000000002,4e-05,0.00035,0.00062,0.0003,2
4124,4297,0.00033999999999999997,0.00011,-9e-05,-0.00013000000000000002,4e-05,0.00035,0.00062,0.0003,2
4125,4298,0.00033999999999999997,0.00011,-9e-05,-0.00013000000000000002,4e-05,0.00035,0.00062,0.0003,2
4126,4299,0.00033999999999999997,0.00011,-9e-05,-0.00013000000000000002,4e-05,0.00035,0.00062,0.0003,2
4127,4300,0.00033999999999999997,0.00011,-9e-05,-0.00013000000000000002,4e-05,0.00035,0.00062,0.0003,2
4128,4301,0.00033999999999999997,0.00011,-9e-05,-0.00013000000000000002,4e-05,0.00035,0.00062,0.0003,2
4129,4302,0.00033999999999999997,0.00011,-9e-05,-0.00013000000000000002,4e-05,0.00035,0.00062,0.0003,2
4130,4303,0.00033999999999999997,0.00011,-9e-05,-0.00013000000000000002,4e-05,0.00035,0.00062,0.0003,2
4131,4305,0.00033999999999999997,0.00011,-9e-05,-0.00013000000000000002,4e-05,0.00035,0.00062,0.0003,2
4132,4306,-0.0002,-0.00011,-0.00022,-0.00023999999999999998,-0.00011,-0.0004,-0.00036,-0.0001,2
4133,4307,-0.00011,-0.00025,-0.00057,-0.0007700000000000001,-2e-05,0.00066,0.00021,-2e-05,2
4134,4308,-0.00011,-0.00025,-0.00057,-0.0007700000000000001,-2e-05,0.00066,0.00021,-2e-05,2
4135,4309,-0.00011,-0.00025,-0.00057,-0.0007700000000000001,-2e-05,0.00066,0.00021,-2e-05,2
4136,4310,-0.00011,-0.00025,-0.00057,-0.0007700000000000001,-2e-05,0.00066,0.00021,-2e-05,2
4137,4311,-0.00011,-0.00025,-0.00057,-0.0007700000000000001,-2e-05,0.00066,0.00021,-2e-05,2
4138,4312,-0.00011,-0.00025,-0.00057,-0.0007700000000000001,-2e-05,0.00066,0.00021,-2e-05,2
4139,4313,-0.00011,-0.00025,-0.00057,-0.0007700000000000001,-2e-05,0.00066,0.00021,-2e-05,2
4140,4314,-0.00011,-0.00025,-0.00057,-0.0007700000000000001,-2e-05,0.00066,0.00021,-2e-05,2
4141,4315,-0.00011,-0.00025,-0.00057,-0.0007700000000000001,-2e-05,0.00066,0.00021,-2e-05,2
4142,4316,-0.00011,-0.00025,-0.00057,-0.0007700000000000001,-2e-05,0.00066,0.00021,-2e-05,2
4143,4317,-0.00011,-0.00025,-0.00057,-0.0007700000000000001,-2e-05,0.00066,0.00021,-2e-05,2
4144,4318,-0.00011,-0.00025,-0.00057,-0.0007700000000000001,-2e-05,0.00066,0.00021,-2e-05,2
4145,4319,-0.00011,-0.00025,-0.00057,-0.0007700000000000001,-2e-05,0.00066,0.00021,-2e-05,2
4146,4320,-0.00011,-0.00025,-0.00057,-0.0007700000000000001,-2e-05,0.00066,0.00021,-2e-05,2
4147,4321,-0.00011,-0.00025,-0.00057,-0.0007700000000000001,-2e-05,0.00066,0.00021,-2e-05,2
4148,4322,-0.00011,-0.00025,-0.00057,-0.0007700000000000001,-2e-05,0.00066,0.00021,-2e-05,2
4149,4323,-0.00011,-0.00025,-0.00057,-0.0007700000000000001,-2e-05,0.00066,0.00021,-2e-05,2
4150,4324,-0.00011,-0.00025,-0.00057,-0.0007700000000000001,-2e-05,0.00066,0.00021,-2e-05,2
4151,4325,-0.00011,-0.00025,-0.00057,-0.0007700000000000001,-2e-05,0.00066,0.00021,-2e-05,2
4152,4326,-0.00011,-0.00025,-0.00057,-0.0007700000000000001,-2e-05,0.00066,0.00021,-2e-05,2
4153,4327,-0.00011,-0.00025,-0.00057,-0.0007700000000000001,-2e-05,0.00066,0.00021,-2e-05,2
4154,4328,0.00014,0.00011,0.00011,-0.00021,-0.00016999999999999999,-8e-05,-0.00011,-2e-05,2
4155,4329,0.00014,0.00011,0.00011,-0.00021,-0.00016999999999999999,-8e-05,-0.00011,-2e-05,2
4156,4330,-0.00015,-2e-05,0.00014,7e-05,-1e-05,0.00022,-0.00013000000000000002,-0.00028,2
4157,4331,-0.00015,-2e-05,0.00014,7e-05,-1e-05,0.00022,-0.00013000000000000002,-0.00028,2
4158,4332,-0.00015,-2e-05,0.00014,7e-05,-1e-05,0.00022,-0.00013000000000000002,-0.00028,2
4159,4333,-0.00015,-2e-05,0.00014,7e-05,-1e-05,0.00022,-0.00013000000000000002,-0.00028,2
4160,4334,-0.00015,-2e-05,0.00014,7e-05,-1e-05,0.00022,-0.00013000000000000002,-0.00028,2
4161,4335,-0.00015,-2e-05,0.00014,7e-05,-1e-05,0.00022,-0.00013000000000000002,-0.00028,2
4162,4336,-0.00015,-2e-05,0.00014,7e-05,-1e-05,0.00022,-0.00013000000000000002,-0.00028,2
4163,4338,-0.00015,-2e-05,0.00014,7e-05,-1e-05,0.00022,-0.00013000000000000002,-0.00028,2
4164,4339,-0.00015,-2e-05,0.00014,7e-05,-1e-05,0.00022,-0.00013000000000000002,-0.00028,2
4165,4340,-0.00015,-2e-05,0.00014,7e-05,-1e-05,0.00022,-0.00013000000000000002,-0.00028,2
4166,4341,-0.00015,-2e-05,0.00014,7e-05,-1e-05,0.00022,-0.00013000000000000002,-0.00028,2
4167,4342,-0.00025,1e-05,0.0002,0.00061,0.00011999999999999999,0.00085,0.00045999999999999996,-2e-05,2
4168,4343,-0.00025,1e-05,0.0002,0.00061,0.00011999999999999999,0.00085,0.00045999999999999996,-2e-05,2
4169,4344,-0.00025,1e-05,0.0002,0.00061,0.00011999999999999999,0.00085,0.00045999999999999996,-2e-05,2
4170,4345,-0.00025,1e-05,0.0002,0.00061,0.00011999999999999999,0.00085,0.00045999999999999996,-2e-05,2
4171,4346,-0.00025,1e-05,0.0002,0.00061,0.00011999999999999999,0.00085,0.00045999999999999996,-2e-05,2
4172,4347,-0.00025,1e-05,0.0002,0.00061,0.00011999999999999999,0.00085,0.00045999999999999996,-2e-05,2
4173,4348,-0.00025,1e-05,0.0002,0.00061,0.00011999999999999999,0.00085,0.00045999999999999996,-2e-05,2
4174,4349,-0.00025,1e-05,0.0002,0.00061,0.00011999999999999999,0.00085,0.00045999999999999996,-2e-05,2
4175,4351,-0.00025,1e-05,0.0002,0.00061,0.00011999999999999999,0.00085,0.00045999999999999996,-2e-05,2
4176,4352,-0.00015,-0.00011999999999999999,-9e-05,-0.00045,-0.00015,-0.00016999999999999999,-0.00027,-1e-05,2
4177,4353,-0.00015,-0.00011999999999999999,-9e-05,-0.00045,-0.00015,-0.00016999999999999999,-0.00027,-1e-05,2
4178,4354,-0.00015,-0.00011999999999999999,-9e-05,-0.00045,-0.00015,-0.00016999999999999999,-0.00027,-1e-05,2
4179,4355,-0.00015,-0.00011999999999999999,-9e-05,-0.00045,-0.00015,-0.00016999999999999999,-0.00027,-1e-05,2
4180,4356,-0.00015,-0.00011999999999999999,-9e-05,-0.00045,-0.00015,-0.00016999999999999999,-0.00027,-1e-05,2
4181,4357,-0.00015,-0.00011999999999999999,-9e-05,-0.00045,-0.00015,-0.00016999999999999999,-0.00027,-1e-05,2
4182,4358,-0.00015,-0.00011999999999999999,-9e-05,-0.00045,-0.00015,-0.00016999999999999999,-0.00027,-1e-05,2
4183,4359,-0.00015,-0.00011999999999999999,-9e-05,-0.00045,-0.00015,-0.00016999999999999999,-0.00027,-1e-05,2
4184,4360,-0.00015,-0.00011999999999999999,-9e-05,-0.00045,-0.00015,-0.00016999999999999999,-0.00027,-1e-05,2
4185,4361,-0.00015,-0.00011999999999999999,-9e-05,-0.00045,-0.00015,-0.00016999999999999999,-0.00027,-1e-05,2
4186,4362,-0.00015,-0.00011999999999999999,-9e-05,-0.00045,-0.00015,-0.00016999999999999999,-0.00027,-1e-05,2
4187,4363,-0.00015,-0.00011999999999999999,-9e-05,-0.00045,-0.00015,-0.00016999999999999999,-0.00027,-1e-05,2
4188,4364,-0.00015,-0.00011999999999999999,-9e-05,-0.00045,-0.00015,-0.00016999999999999999,-0.00027,-1e-05,2
4189,4365,-0.00015,-0.00011999999999999999,-9e-05,-0.00045,-0.00015,-0.00016999999999999999,-0.00027,-1e-05,2
4190,4366,-0.00033,-0.00013000000000000002,-9e-05,-0.0001,-0.00013000000000000002,-0.00026000000000000003,-0.00081,-0.00035,2
4191,4367,0.00018999999999999998,9e-05,0.00015,0.00026000000000000003,7e-05,-0.00022,-5e-05,0.00039,2
4192,4368,0.00018999999999999998,9e-05,0.00015,0.00026000000000000003,7e-05,-0.00022,-5e-05,0.00039,2
4193,4369,0.00018999999999999998,9e-05,0.00015,0.00026000000000000003,7e-05,-0.00022,-5e-05,0.00039,2
4194,4370,0.00018999999999999998,9e-05,0.00015,0.00026000000000000003,7e-05,-0.00022,-5e-05,0.00039,2
4195,4371,0.00018999999999999998,9e-05,0.00015,0.00026000000000000003,7e-05,-0.00022,-5e-05,0.00039,2
4196,4372,0.00018999999999999998,9e-05,0.00015,0.00026000000000000003,7e-05,-0.00022,-5e-05,0.00039,2
4197,4373,0.00018999999999999998,9e-05,0.00015,0.00026000000000000003,7e-05,-0.00022,-5e-05,0.00039,2
4198,4374,0.00018999999999999998,9e-05,0.00015,0.00026000000000000003,7e-05,-0.00022,-5e-05,0.00039,2
4199,4375,0.00018999999999999998,9e-05,0.00015,0.00026000000000000003,7e-05,-0.00022,-5e-05,0.00039,2
4200,4376,0.00018999999999999998,9e-05,0.00015,0.00026000000000000003,7e-05,-0.00022,-5e-05,0.00039,2
4201,4377,0.00018999999999999998,9e-05,0.00015,0.00026000000000000003,7e-05,-0.00022,-5e-05,0.00039,2
4202,4378,0.00018999999999999998,9e-05,0.00015,0.00026000000000000003,7e-05,-0.00022,-5e-05,0.00039,2
4203,4379,0.00018999999999999998,9e-05,0.00015,0.00026000000000000003,7e-05,-0.00022,-5e-05,0.00039,2
4204,4380,0.00018999999999999998,9e-05,0.00015,0.00026000000000000003,7e-05,-0.00022,-5e-05,0.00039,2
4205,4381,0.00018999999999999998,9e-05,0.00015,0.00026000000000000003,7e-05,-0.00022,-5e-05,0.00039,2
4206,4382,0.00018999999999999998,9e-05,0.00015,0.00026000000000000003,7e-05,-0.00022,-5e-05,0.00039,2
4207,4383,0.00018999999999999998,9e-05,0.00015,0.00026000000000000003,7e-05,-0.00022,-5e-05,0.00039,2
4208,4384,0.00018999999999999998,9e-05,0.00015,0.00026000000000000003,7e-05,-0.00022,-5e-05,0.00039,2
4209,4385,0.00018999999999999998,9e-05,0.00015,0.00026000000000000003,7e-05,-0.00022,-5e-05,0.00039,2
4210,4386,0.00018999999999999998,9e-05,0.00015,0.00026000000000000003,7e-05,-0.00022,-5e-05,0.00039,2
4211,4388,4e-05,-0.00016,-0.00065,-0.00061,8e-05,-0.00016,5e-05,-5e-05,2
4212,4389,4e-05,-0.00016,-0.00065,-0.00061,8e-05,-0.00016,5e-05,-5e-05,2
4213,4390,0.00014,4e-05,0.00041,0.0006799999999999999,8e-05,0.00014,0.00016,-4e-05,2
4214,4391,0.00014,4e-05,0.00041,0.0006799999999999999,8e-05,0.00014,0.00016,-4e-05,2
4215,4392,0.00014,4e-05,0.00041,0.0006799999999999999,8e-05,0.00014,0.00016,-4e-05,2
4216,4393,0.00014,4e-05,0.00041,0.0006799999999999999,8e-05,0.00014,0.00016,-4e-05,2
4217,4394,0.00014,4e-05,0.00041,0.0006799999999999999,8e-05,0.00014,0.00016,-4e-05,2
4218,4395,0.00014,4e-05,0.00041,0.0006799999999999999,8e-05,0.00014,0.00016,-4e-05,2
4219,4396,0.00014,4e-05,0.00041,0.0006799999999999999,8e-05,0.00014,0.00016,-4e-05,2
4220,4398,0.00014,4e-05,0.00041,0.0006799999999999999,8e-05,0.00014,0.00016,-4e-05,2
4221,4399,0.00014,4e-05,0.00041,0.0006799999999999999,8e-05,0.00014,0.00016,-4e-05,2
4222,4400,0.00014,4e-05,0.00041,0.0006799999999999999,8e-05,0.00014,0.00016,-4e-05,2
4223,4401,0.00014,4e-05,0.00041,0.0006799999999999999,8e-05,0.00014,0.00016,-4e-05,2
4224,4402,0.00013000000000000002,-5.9999999999999995e-05,-0.00013000000000000002,-0.00018,-0.00016999999999999999,-0.0001,-0.00023999999999999998,2e-05,2
4225,4403,0.00013000000000000002,-5.9999999999999995e-05,-0.00013000000000000002,-0.00018,-0.00016999999999999999,-0.0001,-0.00023999999999999998,2e-05,2
4226,4404,0.00013000000000000002,-5.9999999999999995e-05,-0.00013000000000000002,-0.00018,-0.00016999999999999999,-0.0001,-0.00023999999999999998,2e-05,2
4227,4405,0.00013000000000000002,-5.9999999999999995e-05,-0.00013000000000000002,-0.00018,-0.00016999999999999999,-0.0001,-0.00023999999999999998,2e-05,2
4228,4406,0.00013000000000000002,-5.9999999999999995e-05,-0.00013000000000000002,-0.00018,-0.00016999999999999999,-0.0001,-0.00023999999999999998,2e-05,2
4229,4407,0.00013000000000000002,-5.9999999999999995e-05,-0.00013000000000000002,-0.00018,-0.00016999999999999999,-0.0001,-0.00023999999999999998,2e-05,2
4230,4408,0.00013000000000000002,-5.9999999999999995e-05,-0.00013000000000000002,-0.00018,-0.00016999999999999999,-0.0001,-0.00023999999999999998,2e-05,2
4231,4409,-5e-05,-0.0002,-0.00065,-0.0008,-0.0001,0.0,0.00025,-9e-05,2
4232,4410,-5e-05,-0.0002,-0.00065,-0.0008,-0.0001,0.0,0.00025,-9e-05,2
4233,4411,-5e-05,-0.0002,-0.00065,-0.0008,-0.0001,0.0,0.00025,-9e-05,2
4234,4412,-5e-05,-0.0002,-0.00065,-0.0008,-0.0001,0.0,0.00025,-9e-05,2
4235,4413,-5e-05,-0.0002,-0.00065,-0.0008,-0.0001,0.0,0.00025,-9e-05,2
4236,4414,-5e-05,-0.0002,-0.00065,-0.0008,-0.0001,0.0,0.00025,-9e-05,2
4237,4415,-5e-05,-0.0002,-0.00065,-0.0008,-0.0001,0.0,0.00025,-9e-05,2
4238,4416,-5e-05,-0.0002,-0.00065,-0.0008,-0.0001,0.0,0.00025,-9e-05,2
4239,4417,-5e-05,-0.0002,-0.00065,-0.0008,-0.0001,0.0,0.00025,-9e-05,2
4240,4418,-5e-05,-0.0002,-0.00065,-0.0008,-0.0001,0.0,0.00025,-9e-05,2
4241,4419,-5e-05,-0.0002,-0.00065,-0.0008,-0.0001,0.0,0.00025,-9e-05,2
4242,4420,-5e-05,-0.0002,-0.00065,-0.0008,-0.0001,0.0,0.00025,-9e-05,2
4243,4421,-5e-05,-0.0002,-0.00065,-0.0008,-0.0001,0.0,0.00025,-9e-05,2
4244,4422,-5e-05,-0.0002,-0.00065,-0.0008,-0.0001,0.0,0.00025,-9e-05,2
4245,4423,-5e-05,-0.0002,-0.00065,-0.0008,-0.0001,0.0,0.00025,-9e-05,2
4246,4424,-5e-05,-0.0002,-0.00065,-0.0008,-0.0001,0.0,0.00025,-9e-05,2
4247,4425,-5e-05,-0.0002,-0.00065,-0.0008,-0.0001,0.0,0.00025,-9e-05,2
4248,4426,8e-05,7e-05,0.00022999999999999998,0.0003,-0.00018999999999999998,-0.00013000000000000002,-0.00021,9e-05,2
4249,4427,-5e-05,0.00014,0.00033,0.00074,5e-05,1e-05,-0.00025,-0.00014,2
4250,4428,-5e-05,0.00014,0.00033,0.00074,5e-05,1e-05,-0.00025,-0.00014,2
4251,4429,-5e-05,0.00014,0.00033,0.00074,5e-05,1e-05,-0.00025,-0.00014,2
4252,4430,-5e-05,0.00014,0.00033,0.00074,5e-05,1e-05,-0.00025,-0.00014,2
4253,4431,-5e-05,0.00014,0.00033,0.00074,5e-05,1e-05,-0.00025,-0.00014,2
4254,4432,-5e-05,0.00014,0.00033,0.00074,5e-05,1e-05,-0.00025,-0.00014,2
4255,4433,-5e-05,0.00014,0.00033,0.00074,5e-05,1e-05,-0.00025,-0.00014,2
4256,4434,-5e-05,0.00014,0.00033,0.00074,5e-05,1e-05,-0.00025,-0.00014,2
4257,4435,-5e-05,0.00014,0.00033,0.00074,5e-05,1e-05,-0.00025,-0.00014,2
4258,4436,-5e-05,0.00014,0.00033,0.00074,5e-05,1e-05,-0.00025,-0.00014,2
4259,4438,-5e-05,0.00014,0.00033,0.00074,5e-05,1e-05,-0.00025,-0.00014,2
4260,4439,-5e-05,0.00014,0.00033,0.00074,5e-05,1e-05,-0.00025,-0.00014,2
4261,4440,-5e-05,0.00014,0.00033,0.00074,5e-05,1e-05,-0.00025,-0.00014,2
4262,4441,-5e-05,0.00014,0.00033,0.00074,5e-05,1e-05,-0.00025,-0.00014,2
4263,4442,-5e-05,0.00014,0.00033,0.00074,5e-05,1e-05,-0.00025,-0.00014,2
4264,4444,-5e-05,0.00014,0.00033,0.00074,5e-05,1e-05,-0.00025,-0.00014,2
4265,4445,-5e-05,0.00014,0.00033,0.00074,5e-05,1e-05,-0.00025,-0.00014,2
4266,4446,-5e-05,0.00014,0.00033,0.00074,5e-05,1e-05,-0.00025,-0.00014,2
4267,4447,-5e-05,0.00014,0.00033,0.00074,5e-05,1e-05,-0.00025,-0.00014,2
4268,4448,-5e-05,0.00014,0.00033,0.00074,5e-05,1e-05,-0.00025,-0.00014,2
4269,4449,0.00018999999999999998,0.0002,0.00016999999999999999,4e-05,0.00016,0.00013000000000000002,0.00059,0.0002,2
4270,4450,-0.00016999999999999999,-4e-05,-5e-05,2e-05,0.00013000000000000002,-0.00028,-0.00025,-0.00014,2
4271,4451,-0.00016999999999999999,-4e-05,-5e-05,2e-05,0.00013000000000000002,-0.00028,-0.00025,-0.00014,2
4272,4452,-0.00016999999999999999,-4e-05,-5e-05,2e-05,0.00013000000000000002,-0.00028,-0.00025,-0.00014,2
4273,4453,-0.00016999999999999999,-4e-05,-5e-05,2e-05,0.00013000000000000002,-0.00028,-0.00025,-0.00014,2
4274,4454,-0.00016999999999999999,-4e-05,-5e-05,2e-05,0.00013000000000000002,-0.00028,-0.00025,-0.00014,2
4275,4455,-0.00016999999999999999,-4e-05,-5e-05,2e-05,0.00013000000000000002,-0.00028,-0.00025,-0.00014,2
4276,4456,-0.00016999999999999999,-4e-05,-5e-05,2e-05,0.00013000000000000002,-0.00028,-0.00025,-0.00014,2
4277,4457,-0.00016999999999999999,-4e-05,-5e-05,2e-05,0.00013000000000000002,-0.00028,-0.00025,-0.00014,2
4278,4458,-0.00016999999999999999,-4e-05,-5e-05,2e-05,0.00013000000000000002,-0.00028,-0.00025,-0.00014,2
4279,4459,-0.00016999999999999999,-4e-05,-5e-05,2e-05,0.00013000000000000002,-0.00028,-0.00025,-0.00014,2
4280,4460,-0.00016999999999999999,-4e-05,-5e-05,2e-05,0.00013000000000000002,-0.00028,-0.00025,-0.00014,2
4281,4461,-0.00016999999999999999,-4e-05,-5e-05,2e-05,0.00013000000000000002,-0.00028,-0.00025,-0.00014,2
4282,4462,0.00016,0.00013000000000000002,0.00032,0.00033,-5.9999999999999995e-05,-4e-05,-2.9999999999999997e-05,0.00016,2
4283,4463,0.00016,0.00013000000000000002,0.00032,0.00033,-5.9999999999999995e-05,-4e-05,-2.9999999999999997e-05,0.00016,2
4284,4464,0.00016,0.00013000000000000002,0.00032,0.00033,-5.9999999999999995e-05,-4e-05,-2.9999999999999997e-05,0.00016,2
4285,4465,0.00016,0.00013000000000000002,0.00032,0.00033,-5.9999999999999995e-05,-4e-05,-2.9999999999999997e-05,0.00016,2
4286,4466,0.00016,0.00013000000000000002,0.00032,0.00033,-5.9999999999999995e-05,-4e-05,-2.9999999999999997e-05,0.00016,2
4287,4467,0.00016,0.00013000000000000002,0.00032,0.00033,-5.9999999999999995e-05,-4e-05,-2.9999999999999997e-05,0.00016,2
4288,4468,0.00016,0.00013000000000000002,0.00032,0.00033,-5.9999999999999995e-05,-4e-05,-2.9999999999999997e-05,0.00016,2
4289,4469,0.00016999999999999999,0.00014,0.0002,0.00049,4e-05,-0.00022999999999999998,0.00018,-2.9999999999999997e-05,2
4290,4470,0.00016999999999999999,0.00014,0.0002,0.00049,4e-05,-0.00022999999999999998,0.00018,-2.9999999999999997e-05,2
4291,4471,0.00016999999999999999,0.00014,0.0002,0.00049,4e-05,-0.00022999999999999998,0.00018,-2.9999999999999997e-05,2
4292,4472,0.00016999999999999999,0.00014,0.0002,0.00049,4e-05,-0.00022999999999999998,0.00018,-2.9999999999999997e-05,2
4293,4473,0.00016999999999999999,0.00014,0.0002,0.00049,4e-05,-0.00022999999999999998,0.00018,-2.9999999999999997e-05,2
4294,4474,0.00016999999999999999,0.00014,0.0002,0.00049,4e-05,-0.00022999999999999998,0.00018,-2.9999999999999997e-05,2
4295,4475,0.00016999999999999999,0.00014,0.0002,0.00049,4e-05,-0.00022999999999999998,0.00018,-2.9999999999999997e-05,2
4296,4476,0.00016999999999999999,0.00014,0.0002,0.00049,4e-05,-0.00022999999999999998,0.00018,-2.9999999999999997e-05,2
4297,4477,0.00016999999999999999,0.00014,0.0002,0.00049,4e-05,-0.00022999999999999998,0.00018,-2.9999999999999997e-05,2
4298,4478,0.00016999999999999999,0.00014,0.0002,0.00049,4e-05,-0.00022999999999999998,0.00018,-2.9999999999999997e-05,2
4299,4479,0.00016999999999999999,0.00014,0.0002,0.00049,4e-05,-0.00022999999999999998,0.00018,-2.9999999999999997e-05,2
4300,4480,0.00016999999999999999,0.00014,0.0002,0.00049,4e-05,-0.00022999999999999998,0.00018,-2.9999999999999997e-05,2
4301,4481,0.00016999999999999999,0.00014,0.0002,0.00049,4e-05,-0.00022999999999999998,0.00018,-2.9999999999999997e-05,2
4302,4482,0.00016999999999999999,0.00014,0.0002,0.00049,4e-05,-0.00022999999999999998,0.00018,-2.9999999999999997e-05,2
4303,4483,0.00016999999999999999,0.00014,0.0002,0.00049,4e-05,-0.00022999999999999998,0.00018,-2.9999999999999997e-05,2
4304,4484,0.00016999999999999999,0.00014,0.0002,0.00049,4e-05,-0.00022999999999999998,0.00018,-2.9999999999999997e-05,2
4305,4485,0.00016999999999999999,0.00014,0.0002,0.00049,4e-05,-0.00022999999999999998,0.00018,-2.9999999999999997e-05,2
4306,4486,-1e-05,-0.00018999999999999998,-0.00053,-0.00079,-7e-05,-1e-05,-0.00028,-0.00021,2
4307,4488,-4e-05,1e-05,-1e-05,-0.00022999999999999998,-5.9999999999999995e-05,-0.00032,-0.00054,-0.00023999999999999998,2
4308,4489,-4e-05,1e-05,-1e-05,-0.00022999999999999998,-5.9999999999999995e-05,-0.00032,-0.00054,-0.00023999999999999998,2
4309,4490,-4e-05,1e-05,-1e-05,-0.00022999999999999998,-5.9999999999999995e-05,-0.00032,-0.00054,-0.00023999999999999998,2
4310,4492,-4e-05,1e-05,-1e-05,-0.00022999999999999998,-5.9999999999999995e-05,-0.00032,-0.00054,-0.00023999999999999998,2
4311,4493,-4e-05,1e-05,-1e-05,-0.00022999999999999998,-5.9999999999999995e-05,-0.00032,-0.00054,-0.00023999999999999998,2
4312,4494,-4e-05,1e-05,-1e-05,-0.00022999999999999998,-5.9999999999999995e-05,-0.00032,-0.00054,-0.00023999999999999998,2
4313,4495,-4e-05,1e-05,-1e-05,-0.00022999999999999998,-5.9999999999999995e-05,-0.00032,-0.00054,-0.00023999999999999998,2
4314,4496,-4e-05,1e-05,-1e-05,-0.00022999999999999998,-5.9999999999999995e-05,-0.00032,-0.00054,-0.00023999999999999998,2
4315,4497,-4e-05,1e-05,-1e-05,-0.00022999999999999998,-5.9999999999999995e-05,-0.00032,-0.00054,-0.00023999999999999998,2
4316,4498,-4e-05,1e-05,-1e-05,-0.00022999999999999998,-5.9999999999999995e-05,-0.00032,-0.00054,-0.00023999999999999998,2
4317,4499,-4e-05,1e-05,-1e-05,-0.00022999999999999998,-5.9999999999999995e-05,-0.00032,-0.00054,-0.00023999999999999998,2
4318,4500,-4e-05,1e-05,-1e-05,-0.00022999999999999998,-5.9999999999999995e-05,-0.00032,-0.00054,-0.00023999999999999998,2
4319,4501,-4e-05,1e-05,-1e-05,-0.00022999999999999998,-5.9999999999999995e-05,-0.00032,-0.00054,-0.00023999999999999998,2
4320,4502,-4e-05,1e-05,-1e-05,-0.00022999999999999998,-5.9999999999999995e-05,-0.00032,-0.00054,-0.00023999999999999998,2
4321,4503,-4e-05,1e-05,-1e-05,-0.00022999999999999998,-5.9999999999999995e-05,-0.00032,-0.00054,-0.00023999999999999998,2
4322,4504,-4e-05,1e-05,-1e-05,-0.00022999999999999998,-5.9999999999999995e-05,-0.00032,-0.00054,-0.00023999999999999998,2
4323,4505,-4e-05,1e-05,-1e-05,-0.00022999999999999998,-5.9999999999999995e-05,-0.00032,-0.00054,-0.00023999999999999998,2
4324,4506,-4e-05,1e-05,-1e-05,-0.00022999999999999998,-5.9999999999999995e-05,-0.00032,-0.00054,-0.00023999999999999998,2
4325,4507,-4e-05,1e-05,-1e-05,-0.00022999999999999998,-5.9999999999999995e-05,-0.00032,-0.00054,-0.00023999999999999998,2
4326,4508,-4e-05,1e-05,-1e-05,-0.00022999999999999998,-5.9999999999999995e-05,-0.00032,-0.00054,-0.00023999999999999998,2
4327,4509,-0.00016,4e-05,0.00014,0.0001,0.00014,-0.00016,-0.00035,-0.0001,2
4328,4510,5.9999999999999995e-05,4e-05,0.00028,0.00081,9e-05,0.00016,0.00023999999999999998,0.00026000000000000003,2
4329,4511,5.9999999999999995e-05,4e-05,0.00028,0.00081,9e-05,0.00016,0.00023999999999999998,0.00026000000000000003,2
4330,4512,5.9999999999999995e-05,4e-05,0.00028,0.00081,9e-05,0.00016,0.00023999999999999998,0.00026000000000000003,2
4331,4513,5.9999999999999995e-05,4e-05,0.00028,0.00081,9e-05,0.00016,0.00023999999999999998,0.00026000000000000003,2
4332,4514,5.9999999999999995e-05,4e-05,0.00028,0.00081,9e-05,0.00016,0.00023999999999999998,0.00026000000000000003,2
4333,4515,5.9999999999999995e-05,4e-05,0.00028,0.00081,9e-05,0.00016,0.00023999999999999998,0.00026000000000000003,2
4334,4516,5.9999999999999995e-05,4e-05,0.00028,0.00081,9e-05,0.00016,0.00023999999999999998,0.00026000000000000003,2
4335,4517,5.9999999999999995e-05,4e-05,0.00028,0.00081,9e-05,0.00016,0.00023999999999999998,0.00026000000000000003,2
4336,4518,5.9999999999999995e-05,4e-05,0.00028,0.00081,9e-05,0.00016,0.00023999999999999998,0.00026000000000000003,2
4337,4519,5.9999999999999995e-05,4e-05,0.00028,0.00081,9e-05,0.00016,0.00023999999999999998,0.00026000000000000003,2
4338,4520,5.9999999999999995e-05,4e-05,0.00028,0.00081,9e-05,0.00016,0.00023999999999999998,0.00026000000000000003,2
4339,4521,5.9999999999999995e-05,4e-05,0.00028,0.00081,9e-05,0.00016,0.00023999999999999998,0.00026000000000000003,2
4340,4522,-0.00032,2e-05,0.00022,0.00027,8e-05,0.00027,0.00018999999999999998,0.00018,2
4341,4523,-0.00032,2e-05,0.00022,0.00027,8e-05,0.00027,0.00018999999999999998,0.00018,2
4342,4524,-0.00032,2e-05,0.00022,0.00027,8e-05,0.00027,0.00018999999999999998,0.00018,2
4343,4525,-0.00032,2e-05,0.00022,0.00027,8e-05,0.00027,0.00018999999999999998,0.00018,2
4344,4526,-0.00032,2e-05,0.00022,0.00027,8e-05,0.00027,0.00018999999999999998,0.00018,2
4345,4527,-0.00032,2e-05,0.00022,0.00027,8e-05,0.00027,0.00018999999999999998,0.00018,2
4346,4528,-0.00032,2e-05,0.00022,0.00027,8e-05,0.00027,0.00018999999999999998,0.00018,2
4347,4529,-7e-05,1e-05,-5e-05,-0.0005200000000000001,-4e-05,-0.00016999999999999999,-0.0002,-2e-05,2
4348,4530,-7e-05,1e-05,-5e-05,-0.0005200000000000001,-4e-05,-0.00016999999999999999,-0.0002,-2e-05,2
4349,4531,-7e-05,1e-05,-5e-05,-0.0005200000000000001,-4e-05,-0.00016999999999999999,-0.0002,-2e-05,2
4350,4532,-7e-05,1e-05,-5e-05,-0.0005200000000000001,-4e-05,-0.00016999999999999999,-0.0002,-2e-05,2
4351,4533,-7e-05,1e-05,-5e-05,-0.0005200000000000001,-4e-05,-0.00016999999999999999,-0.0002,-2e-05,2
4352,4534,-7e-05,1e-05,-5e-05,-0.0005200000000000001,-4e-05,-0.00016999999999999999,-0.0002,-2e-05,2
4353,4535,-7e-05,1e-05,-5e-05,-0.0005200000000000001,-4e-05,-0.00016999999999999999,-0.0002,-2e-05,2
4354,4536,-7e-05,1e-05,-5e-05,-0.0005200000000000001,-4e-05,-0.00016999999999999999,-0.0002,-2e-05,2
4355,4539,-7e-05,1e-05,-5e-05,-0.0005200000000000001,-4e-05,-0.00016999999999999999,-0.0002,-2e-05,2
4356,4540,-7e-05,1e-05,-5e-05,-0.0005200000000000001,-4e-05,-0.00016999999999999999,-0.0002,-2e-05,2
4357,4541,-7e-05,1e-05,-5e-05,-0.0005200000000000001,-4e-05,-0.00016999999999999999,-0.0002,-2e-05,2
4358,4542,-7e-05,1e-05,-5e-05,-0.0005200000000000001,-4e-05,-0.00016999999999999999,-0.0002,-2e-05,2
4359,4543,-7e-05,1e-05,-5e-05,-0.0005200000000000001,-4e-05,-0.00016999999999999999,-0.0002,-2e-05,2
4360,4544,-7e-05,1e-05,-5e-05,-0.0005200000000000001,-4e-05,-0.00016999999999999999,-0.0002,-2e-05,2
4361,4545,-7e-05,1e-05,-5e-05,-0.0005200000000000001,-4e-05,-0.00016999999999999999,-0.0002,-2e-05,2
4362,4546,-0.00029,5.9999999999999995e-05,0.00037999999999999997,0.00039,-1e-05,-2e-05,5e-05,-0.00028,2
4363,4547,5.9999999999999995e-05,4e-05,0.00016,0.00031,9e-05,0.00033999999999999997,0.00032,0.0,2
4364,4548,5.9999999999999995e-05,4e-05,0.00016,0.00031,9e-05,0.00033999999999999997,0.00032,0.0,2
4365,4549,5.9999999999999995e-05,4e-05,0.00016,0.00031,9e-05,0.00033999999999999997,0.00032,0.0,2
4366,4550,5.9999999999999995e-05,4e-05,0.00016,0.00031,9e-05,0.00033999999999999997,0.00032,0.0,2
4367,4551,5.9999999999999995e-05,4e-05,0.00016,0.00031,9e-05,0.00033999999999999997,0.00032,0.0,2
4368,4552,5.9999999999999995e-05,4e-05,0.00016,0.00031,9e-05,0.00033999999999999997,0.00032,0.0,2
4369,4553,5.9999999999999995e-05,4e-05,0.00016,0.00031,9e-05,0.00033999999999999997,0.00032,0.0,2
4370,4554,5.9999999999999995e-05,4e-05,0.00016,0.00031,9e-05,0.00033999999999999997,0.00032,0.0,2
4371,4555,5.9999999999999995e-05,4e-05,0.00016,0.00031,9e-05,0.00033999999999999997,0.00032,0.0,2
4372,4556,5.9999999999999995e-05,4e-05,0.00016,0.00031,9e-05,0.00033999999999999997,0.00032,0.0,2
4373,4557,5.9999999999999995e-05,4e-05,0.00016,0.00031,9e-05,0.00033999999999999997,0.00032,0.0,2
4374,4558,5.9999999999999995e-05,4e-05,0.00016,0.00031,9e-05,0.00033999999999999997,0.00032,0.0,2
4375,4559,5.9999999999999995e-05,4e-05,0.00016,0.00031,9e-05,0.00033999999999999997,0.00032,0.0,2
4376,4560,5.9999999999999995e-05,4e-05,0.00016,0.00031,9e-05,0.00033999999999999997,0.00032,0.0,2
4377,4561,5.9999999999999995e-05,4e-05,0.00016,0.00031,9e-05,0.00033999999999999997,0.00032,0.0,2
4378,4562,5.9999999999999995e-05,4e-05,0.00016,0.00031,9e-05,0.00033999999999999997,0.00032,0.0,2
4379,4563,5.9999999999999995e-05,4e-05,0.00016,0.00031,9e-05,0.00033999999999999997,0.00032,0.0,2
4380,4564,5.9999999999999995e-05,4e-05,0.00016,0.00031,9e-05,0.00033999999999999997,0.00032,0.0,2
4381,4565,5.9999999999999995e-05,4e-05,0.00016,0.00031,9e-05,0.00033999999999999997,0.00032,0.0,2
4382,4566,5.9999999999999995e-05,4e-05,0.00016,0.00031,9e-05,0.00033999999999999997,0.00032,0.0,2
4383,4567,5.9999999999999995e-05,4e-05,0.00016,0.00031,9e-05,0.00033999999999999997,0.00032,0.0,2
4384,4568,0.00022999999999999998,0.0,4e-05,2.9999999999999997e-05,-8e-05,-0.00027,-0.00014,0.00033,2
4385,4569,0.00022999999999999998,0.0,4e-05,2.9999999999999997e-05,-8e-05,-0.00027,-0.00014,0.00033,2
4386,4570,-0.00014,-0.0001,-1e-05,-2.9999999999999997e-05,-0.00016,0.0,-4e-05,5e-05,2
4387,4571,-0.00014,-0.0001,-1e-05,-2.9999999999999997e-05,-0.00016,0.0,-4e-05,5e-05,2
4388,4572,-0.00014,-0.0001,-1e-05,-2.9999999999999997e-05,-0.00016,0.0,-4e-05,5e-05,2
4389,4573,-0.00014,-0.0001,-1e-05,-2.9999999999999997e-05,-0.00016,0.0,-4e-05,5e-05,2
4390,4574,-0.00014,-0.0001,-1e-05,-2.9999999999999997e-05,-0.00016,0.0,-4e-05,5e-05,2
4391,4575,-0.00014,-0.0001,-1e-05,-2.9999999999999997e-05,-0.00016,0.0,-4e-05,5e-05,2
4392,4576,-0.00014,-0.0001,-1e-05,-2.9999999999999997e-05,-0.00016,0.0,-4e-05,5e-05,2
4393,4577,-0.00014,-0.0001,-1e-05,-2.9999999999999997e-05,-0.00016,0.0,-4e-05,5e-05,2
4394,4578,-0.00014,-0.0001,-1e-05,-2.9999999999999997e-05,-0.00016,0.0,-4e-05,5e-05,2
4395,4579,-0.00014,-0.0001,-1e-05,-2.9999999999999997e-05,-0.00016,0.0,-4e-05,5e-05,2
4396,4580,-0.00014,-0.0001,-1e-05,-2.9999999999999997e-05,-0.00016,0.0,-4e-05,5e-05,2
4397,4581,-0.00014,-0.0001,-1e-05,-2.9999999999999997e-05,-0.00016,0.0,-4e-05,5e-05,2
4398,4582,-7e-05,-0.0001,-0.00022999999999999998,-0.00041,-0.00011,-0.00035,-5e-05,-0.00018999999999999998,2
4399,4583,-7e-05,-0.0001,-0.00022999999999999998,-0.00041,-0.00011,-0.00035,-5e-05,-0.00018999999999999998,2
4400,4584,-7e-05,-0.0001,-0.00022999999999999998,-0.00041,-0.00011,-0.00035,-5e-05,-0.00018999999999999998,2
4401,4586,-7e-05,-0.0001,-0.00022999999999999998,-0.00041,-0.00011,-0.00035,-5e-05,-0.00018999999999999998,2
4402,4587,-7e-05,-0.0001,-0.00022999999999999998,-0.00041,-0.00011,-0.00035,-5e-05,-0.00018999999999999998,2
4403,4588,-7e-05,-0.0001,-0.00022999999999999998,-0.00041,-0.00011,-0.00035,-5e-05,-0.00018999999999999998,2
4404,4589,-0.00016999999999999999,-5.9999999999999995e-05,-5.9999999999999995e-05,-2e-05,-8e-05,-0.00022999999999999998,-0.00015,-0.00023999999999999998,2
4405,4590,-0.00016999999999999999,-5.9999999999999995e-05,-5.9999999999999995e-05,-2e-05,-8e-05,-0.00022999999999999998,-0.00015,-0.00023999999999999998,2
4406,4591,-0.00016999999999999999,-5.9999999999999995e-05,-5.9999999999999995e-05,-2e-05,-8e-05,-0.00022999999999999998,-0.00015,-0.00023999999999999998,2
4407,4592,-0.00016999999999999999,-5.9999999999999995e-05,-5.9999999999999995e-05,-2e-05,-8e-05,-0.00022999999999999998,-0.00015,-0.00023999999999999998,2
4408,4593,-0.00016999999999999999,-5.9999999999999995e-05,-5.9999999999999995e-05,-2e-05,-8e-05,-0.00022999999999999998,-0.00015,-0.00023999999999999998,2
4409,4594,-0.00016999999999999999,-5.9999999999999995e-05,-5.9999999999999995e-05,-2e-05,-8e-05,-0.00022999999999999998,-0.00015,-0.00023999999999999998,2
4410,4595,-0.00016999999999999999,-5.9999999999999995e-05,-5.9999999999999995e-05,-2e-05,-8e-05,-0.00022999999999999998,-0.00015,-0.00023999999999999998,2
4411,4596,-0.00016999999999999999,-5.9999999999999995e-05,-5.9999999999999995e-05,-2e-05,-8e-05,-0.00022999999999999998,-0.00015,-0.00023999999999999998,2
4412,4597,-0.00016999999999999999,-5.9999999999999995e-05,-5.9999999999999995e-05,-2e-05,-8e-05,-0.00022999999999999998,-0.00015,-0.00023999999999999998,2
4413,4598,-0.00016999999999999999,-5.9999999999999995e-05,-5.9999999999999995e-05,-2e-05,-8e-05,-0.00022999999999999998,-0.00015,-0.00023999999999999998,2
4414,4599,-0.00016999999999999999,-5.9999999999999995e-05,-5.9999999999999995e-05,-2e-05,-8e-05,-0.00022999999999999998,-0.00015,-0.00023999999999999998,2
4415,4600,-0.00016999999999999999,-5.9999999999999995e-05,-5.9999999999999995e-05,-2e-05,-8e-05,-0.00022999999999999998,-0.00015,-0.00023999999999999998,2
4416,4601,-0.00016999999999999999,-5.9999999999999995e-05,-5.9999999999999995e-05,-2e-05,-8e-05,-0.00022999999999999998,-0.00015,-0.00023999999999999998,2
4417,4602,-0.00016999999999999999,-5.9999999999999995e-05,-5.9999999999999995e-05,-2e-05,-8e-05,-0.00022999999999999998,-0.00015,-0.00023999999999999998,2
4418,4603,-0.00016999999999999999,-5.9999999999999995e-05,-5.9999999999999995e-05,-2e-05,-8e-05,-0.00022999999999999998,-0.00015,-0.00023999999999999998,2
4419,4604,-0.00016999999999999999,-5.9999999999999995e-05,-5.9999999999999995e-05,-2e-05,-8e-05,-0.00022999999999999998,-0.00015,-0.00023999999999999998,2
4420,4605,-0.00016999999999999999,-5.9999999999999995e-05,-5.9999999999999995e-05,-2e-05,-8e-05,-0.00022999999999999998,-0.00015,-0.00023999999999999998,2
4421,4606,-1e-05,-2e-05,-0.00014,-0.00033999999999999997,-0.00011,-9e-05,0.00021,2e-05,2
4422,4607,-0.00014,-2e-05,0.0002,0.00015,-5e-05,-0.00018999999999999998,-0.00037,-5.9999999999999995e-05,2
4423,4608,-0.00014,-2e-05,0.0002,0.00015,-5e-05,-0.00018999999999999998,-0.00037,-5.9999999999999995e-05,2
4424,4609,-0.00014,-2e-05,0.0002,0.00015,-5e-05,-0.00018999999999999998,-0.00037,-5.9999999999999995e-05,2
4425,4610,-0.00014,-2e-05,0.0002,0.00015,-5e-05,-0.00018999999999999998,-0.00037,-5.9999999999999995e-05,2
4426,4611,-0.00014,-2e-05,0.0002,0.00015,-5e-05,-0.00018999999999999998,-0.00037,-5.9999999999999995e-05,2
4427,4612,-0.00014,-2e-05,0.0002,0.00015,-5e-05,-0.00018999999999999998,-0.00037,-5.9999999999999995e-05,2
4428,4613,-0.00014,-2e-05,0.0002,0.00015,-5e-05,-0.00018999999999999998,-0.00037,-5.9999999999999995e-05,2
4429,4614,-0.00014,-2e-05,0.0002,0.00015,-5e-05,-0.00018999999999999998,-0.00037,-5.9999999999999995e-05,2
4430,4615,-0.00014,-2e-05,0.0002,0.00015,-5e-05,-0.00018999999999999998,-0.00037,-5.9999999999999995e-05,2
4431,4616,-0.00014,-2e-05,0.0002,0.00015,-5e-05,-0.00018999999999999998,-0.00037,-5.9999999999999995e-05,2
4432,4617,-0.00014,-2e-05,0.0002,0.00015,-5e-05,-0.00018999999999999998,-0.00037,-5.9999999999999995e-05,2
4433,4618,-0.00014,-2e-05,0.0002,0.00015,-5e-05,-0.00018999999999999998,-0.00037,-5.9999999999999995e-05,2
4434,4619,-0.00014,-2e-05,0.0002,0.00015,-5e-05,-0.00018999999999999998,-0.00037,-5.9999999999999995e-05,2
4435,4620,-0.00014,-2e-05,0.0002,0.00015,-5e-05,-0.00018999999999999998,-0.00037,-5.9999999999999995e-05,2
4436,4621,-0.00014,-2e-05,0.0002,0.00015,-5e-05,-0.00018999999999999998,-0.00037,-5.9999999999999995e-05,2
4437,4622,-0.00014,-2e-05,0.0002,0.00015,-5e-05,-0.00018999999999999998,-0.00037,-5.9999999999999995e-05,2
4438,4623,-0.00014,-2e-05,0.0002,0.00015,-5e-05,-0.00018999999999999998,-0.00037,-5.9999999999999995e-05,2
4439,4624,-0.00014,-2e-05,0.0002,0.00015,-5e-05,-0.00018999999999999998,-0.00037,-5.9999999999999995e-05,2
4440,4625,-0.00014,-2e-05,0.0002,0.00015,-5e-05,-0.00018999999999999998,-0.00037,-5.9999999999999995e-05,2
4441,4626,-0.00014,-2e-05,0.0002,0.00015,-5e-05,-0.00018999999999999998,-0.00037,-5.9999999999999995e-05,2
4442,4627,-0.00014,-2e-05,0.0002,0.00015,-5e-05,-0.00018999999999999998,-0.00037,-5.9999999999999995e-05,2
4443,4628,-0.00015,-0.00013000000000000002,-0.00015,-0.00014,0.00013000000000000002,5.9999999999999995e-05,-4e-05,2.9999999999999997e-05,2
4444,4629,-0.00015,-0.00013000000000000002,-0.00015,-0.00014,0.00013000000000000002,5.9999999999999995e-05,-4e-05,2.9999999999999997e-05,2
4445,4630,-2.9999999999999997e-05,-0.00015,-0.00045999999999999996,-0.00064,-0.00016,-5.9999999999999995e-05,0.00059,-0.00011,2
4446,4632,-2.9999999999999997e-05,-0.00015,-0.00045999999999999996,-0.00064,-0.00016,-5.9999999999999995e-05,0.00059,-0.00011,2
4447,4633,-2.9999999999999997e-05,-0.00015,-0.00045999999999999996,-0.00064,-0.00016,-5.9999999999999995e-05,0.00059,-0.00011,2
4448,4634,-2.9999999999999997e-05,-0.00015,-0.00045999999999999996,-0.00064,-0.00016,-5.9999999999999995e-05,0.00059,-0.00011,2
4449,4635,-2.9999999999999997e-05,-0.00015,-0.00045999999999999996,-0.00064,-0.00016,-5.9999999999999995e-05,0.00059,-0.00011,2
4450,4636,-2.9999999999999997e-05,-0.00015,-0.00045999999999999996,-0.00064,-0.00016,-5.9999999999999995e-05,0.00059,-0.00011,2
4451,4638,-2.9999999999999997e-05,-0.00015,-0.00045999999999999996,-0.00064,-0.00016,-5.9999999999999995e-05,0.00059,-0.00011,2
4452,4639,-2.9999999999999997e-05,-0.00015,-0.00045999999999999996,-0.00064,-0.00016,-5.9999999999999995e-05,0.00059,-0.00011,2
4453,4640,-2.9999999999999997e-05,-0.00015,-0.00045999999999999996,-0.00064,-0.00016,-5.9999999999999995e-05,0.00059,-0.00011,2
4454,4641,-2.9999999999999997e-05,-0.00015,-0.00045999999999999996,-0.00064,-0.00016,-5.9999999999999995e-05,0.00059,-0.00011,2
4455,4642,-0.00015,2.9999999999999997e-05,0.00013000000000000002,0.00035,8e-05,0.00018,0.00078,-0.0001,2
4456,4643,-0.00015,2.9999999999999997e-05,0.00013000000000000002,0.00035,8e-05,0.00018,0.00078,-0.0001,2
4457,4644,-0.00015,2.9999999999999997e-05,0.00013000000000000002,0.00035,8e-05,0.00018,0.00078,-0.0001,2
4458,4645,-0.00015,2.9999999999999997e-05,0.00013000000000000002,0.00035,8e-05,0.00018,0.00078,-0.0001,2
4459,4646,-0.00015,2.9999999999999997e-05,0.00013000000000000002,0.00035,8e-05,0.00018,0.00078,-0.0001,2
4460,4647,-0.00015,2.9999999999999997e-05,0.00013000000000000002,0.00035,8e-05,0.00018,0.00078,-0.0001,2
4461,4648,-0.00015,2.9999999999999997e-05,0.00013000000000000002,0.00035,8e-05,0.00018,0.00078,-0.0001,2
4462,4649,0.00011999999999999999,-1e-05,-0.00037,-0.00074,2e-05,0.00029,1e-05,0.00022999999999999998,2
4463,4650,0.00011999999999999999,-1e-05,-0.00037,-0.00074,2e-05,0.00029,1e-05,0.00022999999999999998,2
4464,4651,0.00011999999999999999,-1e-05,-0.00037,-0.00074,2e-05,0.00029,1e-05,0.00022999999999999998,2
4465,4652,0.00011999999999999999,-1e-05,-0.00037,-0.00074,2e-05,0.00029,1e-05,0.00022999999999999998,2
4466,4653,0.00011999999999999999,-1e-05,-0.00037,-0.00074,2e-05,0.00029,1e-05,0.00022999999999999998,2
4467,4654,0.00011999999999999999,-1e-05,-0.00037,-0.00074,2e-05,0.00029,1e-05,0.00022999999999999998,2
4468,4655,0.00011999999999999999,-1e-05,-0.00037,-0.00074,2e-05,0.00029,1e-05,0.00022999999999999998,2
4469,4656,0.00011999999999999999,-1e-05,-0.00037,-0.00074,2e-05,0.00029,1e-05,0.00022999999999999998,2
4470,4657,0.00011999999999999999,-1e-05,-0.00037,-0.00074,2e-05,0.00029,1e-05,0.00022999999999999998,2
4471,4658,0.00011999999999999999,-1e-05,-0.00037,-0.00074,2e-05,0.00029,1e-05,0.00022999999999999998,2
4472,4659,0.00011999999999999999,-1e-05,-0.00037,-0.00074,2e-05,0.00029,1e-05,0.00022999999999999998,2
4473,4660,0.00011999999999999999,-1e-05,-0.00037,-0.00074,2e-05,0.00029,1e-05,0.00022999999999999998,2
4474,4661,0.00011999999999999999,-1e-05,-0.00037,-0.00074,2e-05,0.00029,1e-05,0.00022999999999999998,2
4475,4662,0.00011999999999999999,-1e-05,-0.00037,-0.00074,2e-05,0.00029,1e-05,0.00022999999999999998,2
4476,4663,0.00011999999999999999,-1e-05,-0.00037,-0.00074,2e-05,0.00029,1e-05,0.00022999999999999998,2
4477,4664,0.00011999999999999999,-1e-05,-0.00037,-0.00074,2e-05,0.00029,1e-05,0.00022999999999999998,2
4478,4665,0.00011999999999999999,-1e-05,-0.00037,-0.00074,2e-05,0.00029,1e-05,0.00022999999999999998,2
4479,4666,0.00037999999999999997,-2e-05,-0.00021,-9e-05,5.9999999999999995e-05,0.00021,-0.00011,8e-05,2
4480,4667,-2e-05,-8e-05,-0.00018999999999999998,-0.00054,-5e-05,0.00026000000000000003,-0.00016999999999999999,-2.9999999999999997e-05,2
4481,4668,-2e-05,-8e-05,-0.00018999999999999998,-0.00054,-5e-05,0.00026000000000000003,-0.00016999999999999999,-2.9999999999999997e-05,2
4482,4669,-2e-05,-8e-05,-0.00018999999999999998,-0.00054,-5e-05,0.00026000000000000003,-0.00016999999999999999,-2.9999999999999997e-05,2
4483,4670,-2e-05,-8e-05,-0.00018999999999999998,-0.00054,-5e-05,0.00026000000000000003,-0.00016999999999999999,-2.9999999999999997e-05,2
4484,4671,-2e-05,-8e-05,-0.00018999999999999998,-0.00054,-5e-05,0.00026000000000000003,-0.00016999999999999999,-2.9999999999999997e-05,2
4485,4672,-2e-05,-8e-05,-0.00018999999999999998,-0.00054,-5e-05,0.00026000000000000003,-0.00016999999999999999,-2.9999999999999997e-05,2
4486,4673,-2e-05,-8e-05,-0.00018999999999999998,-0.00054,-5e-05,0.00026000000000000003,-0.00016999999999999999,-2.9999999999999997e-05,2
4487,4674,-2e-05,-8e-05,-0.00018999999999999998,-0.00054,-5e-05,0.00026000000000000003,-0.00016999999999999999,-2.9999999999999997e-05,2
4488,4675,-2e-05,-8e-05,-0.00018999999999999998,-0.00054,-5e-05,0.00026000000000000003,-0.00016999999999999999,-2.9999999999999997e-05,2
4489,4676,-2e-05,-8e-05,-0.00018999999999999998,-0.00054,-5e-05,0.00026000000000000003,-0.00016999999999999999,-2.9999999999999997e-05,2
4490,4677,-2e-05,-8e-05,-0.00018999999999999998,-0.00054,-5e-05,0.00026000000000000003,-0.00016999999999999999,-2.9999999999999997e-05,2
4491,4679,-2e-05,-8e-05,-0.00018999999999999998,-0.00054,-5e-05,0.00026000000000000003,-0.00016999999999999999,-2.9999999999999997e-05,2
4492,4680,-2e-05,-8e-05,-0.00018999999999999998,-0.00054,-5e-05,0.00026000000000000003,-0.00016999999999999999,-2.9999999999999997e-05,2
4493,4681,-2e-05,-8e-05,-0.00018999999999999998,-0.00054,-5e-05,0.00026000000000000003,-0.00016999999999999999,-2.9999999999999997e-05,2
4494,4682,-2e-05,-8e-05,-0.00018999999999999998,-0.00054,-5e-05,0.00026000000000000003,-0.00016999999999999999,-2.9999999999999997e-05,2
4495,4683,-2e-05,-8e-05,-0.00018999999999999998,-0.00054,-5e-05,0.00026000000000000003,-0.00016999999999999999,-2.9999999999999997e-05,2
4496,4684,-2e-05,-8e-05,-0.00018999999999999998,-0.00054,-5e-05,0.00026000000000000003,-0.00016999999999999999,-2.9999999999999997e-05,2
4497,4685,-2e-05,-8e-05,-0.00018999999999999998,-0.00054,-5e-05,0.00026000000000000003,-0.00016999999999999999,-2.9999999999999997e-05,2
4498,4686,-2e-05,-8e-05,-0.00018999999999999998,-0.00054,-5e-05,0.00026000000000000003,-0.00016999999999999999,-2.9999999999999997e-05,2
4499,4688,-0.00011,9e-05,5.9999999999999995e-05,-0.00032,-0.00016999999999999999,-0.00039,-0.00053,-0.00033999999999999997,2
4500,4689,-0.00011,9e-05,5.9999999999999995e-05,-0.00032,-0.00016999999999999999,-0.00039,-0.00053,-0.00033999999999999997,2
4501,4690,2.9999999999999997e-05,-9e-05,-0.00014,0.00014,4e-05,-0.00027,-0.00043,0.00014,2
4502,4691,2.9999999999999997e-05,-9e-05,-0.00014,0.00014,4e-05,-0.00027,-0.00043,0.00014,2
4503,4692,2.9999999999999997e-05,-9e-05,-0.00014,0.00014,4e-05,-0.00027,-0.00043,0.00014,2
4504,4693,2.9999999999999997e-05,-9e-05,-0.00014,0.00014,4e-05,-0.00027,-0.00043,0.00014,2
4505,4694,2.9999999999999997e-05,-9e-05,-0.00014,0.00014,4e-05,-0.00027,-0.00043,0.00014,2
4506,4695,2.9999999999999997e-05,-9e-05,-0.00014,0.00014,4e-05,-0.00027,-0.00043,0.00014,2
4507,4696,2.9999999999999997e-05,-9e-05,-0.00014,0.00014,4e-05,-0.00027,-0.00043,0.00014,2
4508,4697,2.9999999999999997e-05,-9e-05,-0.00014,0.00014,4e-05,-0.00027,-0.00043,0.00014,2
4509,4698,2.9999999999999997e-05,-9e-05,-0.00014,0.00014,4e-05,-0.00027,-0.00043,0.00014,2
4510,4699,2.9999999999999997e-05,-9e-05,-0.00014,0.00014,4e-05,-0.00027,-0.00043,0.00014,2
4511,4700,2.9999999999999997e-05,-9e-05,-0.00014,0.00014,4e-05,-0.00027,-0.00043,0.00014,2
4512,4701,2.9999999999999997e-05,-9e-05,-0.00014,0.00014,4e-05,-0.00027,-0.00043,0.00014,2
4513,4702,-7e-05,0.0,2.9999999999999997e-05,0.00016999999999999999,-0.00011999999999999999,-0.00027,-0.00032,-0.00015,2
4514,4703,-7e-05,0.0,2.9999999999999997e-05,0.00016999999999999999,-0.00011999999999999999,-0.00027,-0.00032,-0.00015,2
4515,4704,-7e-05,0.0,2.9999999999999997e-05,0.00016999999999999999,-0.00011999999999999999,-0.00027,-0.00032,-0.00015,2
4516,4705,-7e-05,0.0,2.9999999999999997e-05,0.00016999999999999999,-0.00011999999999999999,-0.00027,-0.00032,-0.00015,2
4517,4706,-7e-05,0.0,2.9999999999999997e-05,0.00016999999999999999,-0.00011999999999999999,-0.00027,-0.00032,-0.00015,2
4518,4707,-7e-05,0.0,2.9999999999999997e-05,0.00016999999999999999,-0.00011999999999999999,-0.00027,-0.00032,-0.00015,2
4519,4711,-7e-05,0.0,2.9999999999999997e-05,0.00016999999999999999,-0.00011999999999999999,-0.00027,-0.00032,-0.00015,2
4520,4712,-0.00016999999999999999,4e-05,0.00018,0.0,8e-05,0.00011,0.00033999999999999997,0.00025,2
4521,4713,-0.00016999999999999999,4e-05,0.00018,0.0,8e-05,0.00011,0.00033999999999999997,0.00025,2
4522,4714,-0.00016999999999999999,4e-05,0.00018,0.0,8e-05,0.00011,0.00033999999999999997,0.00025,2
4523,4715,-0.00016999999999999999,4e-05,0.00018,0.0,8e-05,0.00011,0.00033999999999999997,0.00025,2
4524,4716,-0.00016999999999999999,4e-05,0.00018,0.0,8e-05,0.00011,0.00033999999999999997,0.00025,2
4525,4717,-0.00016999999999999999,4e-05,0.00018,0.0,8e-05,0.00011,0.00033999999999999997,0.00025,2
4526,4718,-0.00016999999999999999,4e-05,0.00018,0.0,8e-05,0.00011,0.00033999999999999997,0.00025,2
4527,4719,-0.00016999999999999999,4e-05,0.00018,0.0,8e-05,0.00011,0.00033999999999999997,0.00025,2
4528,4720,-0.00016999999999999999,4e-05,0.00018,0.0,8e-05,0.00011,0.00033999999999999997,0.00025,2
4529,4721,-0.00016999999999999999,4e-05,0.00018,0.0,8e-05,0.00011,0.00033999999999999997,0.00025,2
4530,4722,-0.00016999999999999999,4e-05,0.00018,0.0,8e-05,0.00011,0.00033999999999999997,0.00025,2
4531,4723,-0.00016999999999999999,4e-05,0.00018,0.0,8e-05,0.00011,0.00033999999999999997,0.00025,2
4532,4724,-0.00016999999999999999,4e-05,0.00018,0.0,8e-05,0.00011,0.00033999999999999997,0.00025,2
4533,4726,0.00016999999999999999,2.9999999999999997e-05,-0.00016999999999999999,-0.0005099999999999999,-5e-05,9e-05,-4e-05,-8e-05,2
4534,4727,-0.0003,-0.00022999999999999998,-0.00031,-0.00027,-0.00021,-0.00026000000000000003,-0.00047000000000000004,-0.00016999999999999999,2
4535,4728,-0.0003,-0.00022999999999999998,-0.00031,-0.00027,-0.00021,-0.00026000000000000003,-0.00047000000000000004,-0.00016999999999999999,2
4536,4729,-0.0003,-0.00022999999999999998,-0.00031,-0.00027,-0.00021,-0.00026000000000000003,-0.00047000000000000004,-0.00016999999999999999,2
4537,4730,-0.0003,-0.00022999999999999998,-0.00031,-0.00027,-0.00021,-0.00026000000000000003,-0.00047000000000000004,-0.00016999999999999999,2
4538,4731,-0.0003,-0.00022999999999999998,-0.00031,-0.00027,-0.00021,-0.00026000000000000003,-0.00047000000000000004,-0.00016999999999999999,2
4539,4732,-0.0003,-0.00022999999999999998,-0.00031,-0.00027,-0.00021,-0.00026000000000000003,-0.00047000000000000004,-0.00016999999999999999,2
4540,4733,-0.0003,-0.00022999999999999998,-0.00031,-0.00027,-0.00021,-0.00026000000000000003,-0.00047000000000000004,-0.00016999999999999999,2
4541,4734,-0.0003,-0.00022999999999999998,-0.00031,-0.00027,-0.00021,-0.00026000000000000003,-0.00047000000000000004,-0.00016999999999999999,2
4542,4735,-0.0003,-0.00022999999999999998,-0.00031,-0.00027,-0.00021,-0.00026000000000000003,-0.00047000000000000004,-0.00016999999999999999,2
4543,4736,-0.0003,-0.00022999999999999998,-0.00031,-0.00027,-0.00021,-0.00026000000000000003,-0.00047000000000000004,-0.00016999999999999999,2
4544,4738,-0.0003,-0.00022999999999999998,-0.00031,-0.00027,-0.00021,-0.00026000000000000003,-0.00047000000000000004,-0.00016999999999999999,2
4545,4739,-0.0003,-0.00022999999999999998,-0.00031,-0.00027,-0.00021,-0.00026000000000000003,-0.00047000000000000004,-0.00016999999999999999,2
4546,4740,-0.0003,-0.00022999999999999998,-0.00031,-0.00027,-0.00021,-0.00026000000000000003,-0.00047000000000000004,-0.00016999999999999999,2
4547,4741,-0.0003,-0.00022999999999999998,-0.00031,-0.00027,-0.00021,-0.00026000000000000003,-0.00047000000000000004,-0.00016999999999999999,2
4548,4742,-0.0003,-0.00022999999999999998,-0.00031,-0.00027,-0.00021,-0.00026000000000000003,-0.00047000000000000004,-0.00016999999999999999,2
4549,4743,-0.0003,-0.00022999999999999998,-0.00031,-0.00027,-0.00021,-0.00026000000000000003,-0.00047000000000000004,-0.00016999999999999999,2
4550,4744,-0.0003,-0.00022999999999999998,-0.00031,-0.00027,-0.00021,-0.00026000000000000003,-0.00047000000000000004,-0.00016999999999999999,2
4551,4745,-0.0003,-0.00022999999999999998,-0.00031,-0.00027,-0.00021,-0.00026000000000000003,-0.00047000000000000004,-0.00016999999999999999,2
4552,4746,-0.0003,-0.00022999999999999998,-0.00031,-0.00027,-0.00021,-0.00026000000000000003,-0.00047000000000000004,-0.00016999999999999999,2
4553,4747,-0.0003,-0.00022999999999999998,-0.00031,-0.00027,-0.00021,-0.00026000000000000003,-0.00047000000000000004,-0.00016999999999999999,2
4554,4748,-0.0003,-0.00022999999999999998,-0.00031,-0.00027,-0.00021,-0.00026000000000000003,-0.00047000000000000004,-0.00016999999999999999,2
4555,4749,0.00022,7e-05,0.00031,0.00081,0.00013000000000000002,0.00013000000000000002,-0.00011,0.00014,2
4556,4750,0.00033999999999999997,0.00021,0.00026000000000000003,0.00022999999999999998,-1e-05,0.00021,0.00066,0.00022,2
4557,4751,0.00033999999999999997,0.00021,0.00026000000000000003,0.00022999999999999998,-1e-05,0.00021,0.00066,0.00022,2
4558,4752,0.00033999999999999997,0.00021,0.00026000000000000003,0.00022999999999999998,-1e-05,0.00021,0.00066,0.00022,2
4559,4753,0.00033999999999999997,0.00021,0.00026000000000000003,0.00022999999999999998,-1e-05,0.00021,0.00066,0.00022,2
4560,4754,0.00033999999999999997,0.00021,0.00026000000000000003,0.00022999999999999998,-1e-05,0.00021,0.00066,0.00022,2
4561,4755,0.00033999999999999997,0.00021,0.00026000000000000003,0.00022999999999999998,-1e-05,0.00021,0.00066,0.00022,2
4562,4756,0.00033999999999999997,0.00021,0.00026000000000000003,0.00022999999999999998,-1e-05,0.00021,0.00066,0.00022,2
4563,4757,0.00033999999999999997,0.00021,0.00026000000000000003,0.00022999999999999998,-1e-05,0.00021,0.00066,0.00022,2
4564,4758,0.00033999999999999997,0.00021,0.00026000000000000003,0.00022999999999999998,-1e-05,0.00021,0.00066,0.00022,2
4565,4759,0.00033999999999999997,0.00021,0.00026000000000000003,0.00022999999999999998,-1e-05,0.00021,0.00066,0.00022,2
4566,4760,0.00033999999999999997,0.00021,0.00026000000000000003,0.00022999999999999998,-1e-05,0.00021,0.00066,0.00022,2
4567,4761,0.00033999999999999997,0.00021,0.00026000000000000003,0.00022999999999999998,-1e-05,0.00021,0.00066,0.00022,2
4568,4762,-7e-05,-5e-05,1e-05,0.00023999999999999998,-0.00011999999999999999,-0.00015,0.00022,-5e-05,2
4569,4763,-7e-05,-5e-05,1e-05,0.00023999999999999998,-0.00011999999999999999,-0.00015,0.00022,-5e-05,2
4570,4764,-7e-05,-5e-05,1e-05,0.00023999999999999998,-0.00011999999999999999,-0.00015,0.00022,-5e-05,2
4571,4765,-7e-05,-5e-05,1e-05,0.00023999999999999998,-0.00011999999999999999,-0.00015,0.00022,-5e-05,2
4572,4766,-7e-05,-5e-05,1e-05,0.00023999999999999998,-0.00011999999999999999,-0.00015,0.00022,-5e-05,2
4573,4767,-7e-05,-5e-05,1e-05,0.00023999999999999998,-0.00011999999999999999,-0.00015,0.00022,-5e-05,2
4574,4768,-7e-05,-5e-05,1e-05,0.00023999999999999998,-0.00011999999999999999,-0.00015,0.00022,-5e-05,2
4575,4769,-7e-05,-5e-05,1e-05,0.00023999999999999998,-0.00011999999999999999,-0.00015,0.00022,-5e-05,2
4576,4770,-7e-05,-5e-05,1e-05,0.00023999999999999998,-0.00011999999999999999,-0.00015,0.00022,-5e-05,2
4577,4772,5.9999999999999995e-05,-2e-05,9e-05,0.00033,2e-05,-0.00026000000000000003,-0.0002,5.9999999999999995e-05,2
4578,4773,5.9999999999999995e-05,-2e-05,9e-05,0.00033,2e-05,-0.00026000000000000003,-0.0002,5.9999999999999995e-05,2
4579,4774,5.9999999999999995e-05,-2e-05,9e-05,0.00033,2e-05,-0.00026000000000000003,-0.0002,5.9999999999999995e-05,2
4580,4775,5.9999999999999995e-05,-2e-05,9e-05,0.00033,2e-05,-0.00026000000000000003,-0.0002,5.9999999999999995e-05,2
4581,4776,5.9999999999999995e-05,-2e-05,9e-05,0.00033,2e-05,-0.00026000000000000003,-0.0002,5.9999999999999995e-05,2
4582,4777,5.9999999999999995e-05,-2e-05,9e-05,0.00033,2e-05,-0.00026000000000000003,-0.0002,5.9999999999999995e-05,2
4583,4778,5.9999999999999995e-05,-2e-05,9e-05,0.00033,2e-05,-0.00026000000000000003,-0.0002,5.9999999999999995e-05,2
4584,4779,5.9999999999999995e-05,-2e-05,9e-05,0.00033,2e-05,-0.00026000000000000003,-0.0002,5.9999999999999995e-05,2
4585,4780,5.9999999999999995e-05,-2e-05,9e-05,0.00033,2e-05,-0.00026000000000000003,-0.0002,5.9999999999999995e-05,2
4586,4781,5.9999999999999995e-05,-2e-05,9e-05,0.00033,2e-05,-0.00026000000000000003,-0.0002,5.9999999999999995e-05,2
4587,4782,5.9999999999999995e-05,-2e-05,9e-05,0.00033,2e-05,-0.00026000000000000003,-0.0002,5.9999999999999995e-05,2
4588,4783,5.9999999999999995e-05,-2e-05,9e-05,0.00033,2e-05,-0.00026000000000000003,-0.0002,5.9999999999999995e-05,2
4589,4784,5.9999999999999995e-05,-2e-05,9e-05,0.00033,2e-05,-0.00026000000000000003,-0.0002,5.9999999999999995e-05,2
4590,4785,5.9999999999999995e-05,-2e-05,9e-05,0.00033,2e-05,-0.00026000000000000003,-0.0002,5.9999999999999995e-05,2
4591,4786,0.00027,0.00011,0.00022999999999999998,0.00018999999999999998,2.9999999999999997e-05,0.00011,0.00026000000000000003,0.00033999999999999997,2
4592,4788,0.0003,0.00013000000000000002,2e-05,0.00042,-8e-05,-0.00041,-0.00015,-0.00016,2
4593,4789,0.0003,0.00013000000000000002,2e-05,0.00042,-8e-05,-0.00041,-0.00015,-0.00016,2
4594,4790,0.0003,0.00013000000000000002,2e-05,0.00042,-8e-05,-0.00041,-0.00015,-0.00016,2
4595,4791,0.0003,0.00013000000000000002,2e-05,0.00042,-8e-05,-0.00041,-0.00015,-0.00016,2
4596,4792,0.0003,0.00013000000000000002,2e-05,0.00042,-8e-05,-0.00041,-0.00015,-0.00016,2
4597,4793,0.0003,0.00013000000000000002,2e-05,0.00042,-8e-05,-0.00041,-0.00015,-0.00016,2
4598,4794,0.0003,0.00013000000000000002,2e-05,0.00042,-8e-05,-0.00041,-0.00015,-0.00016,2
4599,4795,0.0003,0.00013000000000000002,2e-05,0.00042,-8e-05,-0.00041,-0.00015,-0.00016,2
4600,4796,0.0003,0.00013000000000000002,2e-05,0.00042,-8e-05,-0.00041,-0.00015,-0.00016,2
4601,4797,0.0003,0.00013000000000000002,2e-05,0.00042,-8e-05,-0.00041,-0.00015,-0.00016,2
4602,4798,0.0003,0.00013000000000000002,2e-05,0.00042,-8e-05,-0.00041,-0.00015,-0.00016,2
4603,4799,0.0003,0.00013000000000000002,2e-05,0.00042,-8e-05,-0.00041,-0.00015,-0.00016,2
4604,4800,0.0003,0.00013000000000000002,2e-05,0.00042,-8e-05,-0.00041,-0.00015,-0.00016,2
4605,4801,0.0003,0.00013000000000000002,2e-05,0.00042,-8e-05,-0.00041,-0.00015,-0.00016,2
4606,4802,0.0003,0.00013000000000000002,2e-05,0.00042,-8e-05,-0.00041,-0.00015,-0.00016,2
4607,4803,0.0003,0.00013000000000000002,2e-05,0.00042,-8e-05,-0.00041,-0.00015,-0.00016,2
4608,4804,0.0003,0.00013000000000000002,2e-05,0.00042,-8e-05,-0.00041,-0.00015,-0.00016,2
4609,4805,0.0003,0.00013000000000000002,2e-05,0.00042,-8e-05,-0.00041,-0.00015,-0.00016,2
4610,4806,0.0003,0.00013000000000000002,2e-05,0.00042,-8e-05,-0.00041,-0.00015,-0.00016,2
4611,4807,0.0003,0.00013000000000000002,2e-05,0.00042,-8e-05,-0.00041,-0.00015,-0.00016,2
4612,4808,-4e-05,-4e-05,2e-05,0.00036,0.00013000000000000002,0.00011,0.00033999999999999997,0.00016999999999999999,2
4613,4809,-4e-05,-4e-05,2e-05,0.00036,0.00013000000000000002,0.00011,0.00033999999999999997,0.00016999999999999999,2
4614,4810,0.00013000000000000002,0.0001,0.0002,0.00039,5.9999999999999995e-05,4e-05,8e-05,-0.00018,2
4615,4811,0.00013000000000000002,0.0001,0.0002,0.00039,5.9999999999999995e-05,4e-05,8e-05,-0.00018,2
4616,4812,0.00013000000000000002,0.0001,0.0002,0.00039,5.9999999999999995e-05,4e-05,8e-05,-0.00018,2
4617,4813,0.00013000000000000002,0.0001,0.0002,0.00039,5.9999999999999995e-05,4e-05,8e-05,-0.00018,2
4618,4814,0.00013000000000000002,0.0001,0.0002,0.00039,5.9999999999999995e-05,4e-05,8e-05,-0.00018,2
4619,4815,0.00013000000000000002,0.0001,0.0002,0.00039,5.9999999999999995e-05,4e-05,8e-05,-0.00018,2
4620,4816,0.00013000000000000002,0.0001,0.0002,0.00039,5.9999999999999995e-05,4e-05,8e-05,-0.00018,2
4621,4817,0.00013000000000000002,0.0001,0.0002,0.00039,5.9999999999999995e-05,4e-05,8e-05,-0.00018,2
4622,4818,0.00013000000000000002,0.0001,0.0002,0.00039,5.9999999999999995e-05,4e-05,8e-05,-0.00018,2
4623,4820,0.00013000000000000002,0.0001,0.0002,0.00039,5.9999999999999995e-05,4e-05,8e-05,-0.00018,2
4624,4821,0.00013000000000000002,0.0001,0.0002,0.00039,5.9999999999999995e-05,4e-05,8e-05,-0.00018,2
4625,4822,7e-05,7e-05,5e-05,0.00036,0.00011999999999999999,2.9999999999999997e-05,-0.0005099999999999999,-8e-05,2
4626,4823,7e-05,7e-05,5e-05,0.00036,0.00011999999999999999,2.9999999999999997e-05,-0.0005099999999999999,-8e-05,2
4627,4824,7e-05,7e-05,5e-05,0.00036,0.00011999999999999999,2.9999999999999997e-05,-0.0005099999999999999,-8e-05,2
4628,4825,7e-05,7e-05,5e-05,0.00036,0.00011999999999999999,2.9999999999999997e-05,-0.0005099999999999999,-8e-05,2
4629,4826,7e-05,7e-05,5e-05,0.00036,0.00011999999999999999,2.9999999999999997e-05,-0.0005099999999999999,-8e-05,2
4630,4827,7e-05,7e-05,5e-05,0.00036,0.00011999999999999999,2.9999999999999997e-05,-0.0005099999999999999,-8e-05,2
4631,4828,7e-05,7e-05,5e-05,0.00036,0.00011999999999999999,2.9999999999999997e-05,-0.0005099999999999999,-8e-05,2
4632,4829,7e-05,7e-05,5e-05,0.00036,0.00011999999999999999,2.9999999999999997e-05,-0.0005099999999999999,-8e-05,2
4633,4830,7e-05,7e-05,5e-05,0.00036,0.00011999999999999999,2.9999999999999997e-05,-0.0005099999999999999,-8e-05,2
4634,4831,-0.00018999999999999998,-7e-05,2e-05,0.00025,0.00016,0.00032,7e-05,-9e-05,2
4635,4832,-0.00018999999999999998,-7e-05,2e-05,0.00025,0.00016,0.00032,7e-05,-9e-05,2
4636,4833,-0.00018999999999999998,-7e-05,2e-05,0.00025,0.00016,0.00032,7e-05,-9e-05,2
4637,4834,-0.00018999999999999998,-7e-05,2e-05,0.00025,0.00016,0.00032,7e-05,-9e-05,2
4638,4835,-0.00018999999999999998,-7e-05,2e-05,0.00025,0.00016,0.00032,7e-05,-9e-05,2
4639,4836,-0.00018999999999999998,-7e-05,2e-05,0.00025,0.00016,0.00032,7e-05,-9e-05,2
4640,4838,-0.00018999999999999998,-7e-05,2e-05,0.00025,0.00016,0.00032,7e-05,-9e-05,2
4641,4839,-0.00018999999999999998,-7e-05,2e-05,0.00025,0.00016,0.00032,7e-05,-9e-05,2
4642,4840,-0.00018999999999999998,-7e-05,2e-05,0.00025,0.00016,0.00032,7e-05,-9e-05,2
4643,4841,-0.00018999999999999998,-7e-05,2e-05,0.00025,0.00016,0.00032,7e-05,-9e-05,2
4644,4842,-0.00018999999999999998,-7e-05,2e-05,0.00025,0.00016,0.00032,7e-05,-9e-05,2
4645,4843,-0.00018999999999999998,-7e-05,2e-05,0.00025,0.00016,0.00032,7e-05,-9e-05,2
4646,4844,-0.00018999999999999998,-7e-05,2e-05,0.00025,0.00016,0.00032,7e-05,-9e-05,2
4647,4845,-0.00018999999999999998,-7e-05,2e-05,0.00025,0.00016,0.00032,7e-05,-9e-05,2
4648,4846,-1e-05,-5.9999999999999995e-05,5.9999999999999995e-05,0.0001,-5.9999999999999995e-05,-0.00011999999999999999,2e-05,0.0002,2
4649,4847,-5.9999999999999995e-05,-9e-05,2e-05,0.00021,0.0,0.00018999999999999998,-0.0001,-9e-05,2
4650,4848,-5.9999999999999995e-05,-9e-05,2e-05,0.00021,0.0,0.00018999999999999998,-0.0001,-9e-05,2
4651,4849,-5.9999999999999995e-05,-9e-05,2e-05,0.00021,0.0,0.00018999999999999998,-0.0001,-9e-05,2
4652,4850,-5.9999999999999995e-05,-9e-05,2e-05,0.00021,0.0,0.00018999999999999998,-0.0001,-9e-05,2
4653,4851,-5.9999999999999995e-05,-9e-05,2e-05,0.00021,0.0,0.00018999999999999998,-0.0001,-9e-05,2
4654,4852,-5.9999999999999995e-05,-9e-05,2e-05,0.00021,0.0,0.00018999999999999998,-0.0001,-9e-05,2
4655,4853,-5.9999999999999995e-05,-9e-05,2e-05,0.00021,0.0,0.00018999999999999998,-0.0001,-9e-05,2
4656,4854,-5.9999999999999995e-05,-9e-05,2e-05,0.00021,0.0,0.00018999999999999998,-0.0001,-9e-05,2
4657,4855,-5.9999999999999995e-05,-9e-05,2e-05,0.00021,0.0,0.00018999999999999998,-0.0001,-9e-05,2
4658,4856,-5.9999999999999995e-05,-9e-05,2e-05,0.00021,0.0,0.00018999999999999998,-0.0001,-9e-05,2
4659,4857,-5.9999999999999995e-05,-9e-05,2e-05,0.00021,0.0,0.00018999999999999998,-0.0001,-9e-05,2
4660,4858,-5.9999999999999995e-05,-9e-05,2e-05,0.00021,0.0,0.00018999999999999998,-0.0001,-9e-05,2
4661,4859,-5.9999999999999995e-05,-9e-05,2e-05,0.00021,0.0,0.00018999999999999998,-0.0001,-9e-05,2
4662,4860,-5.9999999999999995e-05,-9e-05,2e-05,0.00021,0.0,0.00018999999999999998,-0.0001,-9e-05,2
4663,4861,-5.9999999999999995e-05,-9e-05,2e-05,0.00021,0.0,0.00018999999999999998,-0.0001,-9e-05,2
4664,4862,-5.9999999999999995e-05,-9e-05,2e-05,0.00021,0.0,0.00018999999999999998,-0.0001,-9e-05,2
4665,4863,-5.9999999999999995e-05,-9e-05,2e-05,0.00021,0.0,0.00018999999999999998,-0.0001,-9e-05,2
4666,4864,-5.9999999999999995e-05,-9e-05,2e-05,0.00021,0.0,0.00018999999999999998,-0.0001,-9e-05,2
4667,4866,-5.9999999999999995e-05,-9e-05,2e-05,0.00021,0.0,0.00018999999999999998,-0.0001,-9e-05,2
4668,4867,-5.9999999999999995e-05,-9e-05,2e-05,0.00021,0.0,0.00018999999999999998,-0.0001,-9e-05,2
4669,4868,-0.00032,-0.00021,-0.00054,-0.00106,-8e-05,5e-05,-0.00023999999999999998,-0.00025,2
4670,4869,-0.00032,-0.00021,-0.00054,-0.00106,-8e-05,5e-05,-0.00023999999999999998,-0.00025,2
4671,4870,-4e-05,-2.9999999999999997e-05,-0.00031,-0.0005,-8e-05,-8e-05,1e-05,-0.00015,2
4672,4871,-4e-05,-2.9999999999999997e-05,-0.00031,-0.0005,-8e-05,-8e-05,1e-05,-0.00015,2
4673,4872,-4e-05,-2.9999999999999997e-05,-0.00031,-0.0005,-8e-05,-8e-05,1e-05,-0.00015,2
4674,4873,-4e-05,-2.9999999999999997e-05,-0.00031,-0.0005,-8e-05,-8e-05,1e-05,-0.00015,2
4675,4874,-4e-05,-2.9999999999999997e-05,-0.00031,-0.0005,-8e-05,-8e-05,1e-05,-0.00015,2
4676,4875,-4e-05,-2.9999999999999997e-05,-0.00031,-0.0005,-8e-05,-8e-05,1e-05,-0.00015,2
4677,4876,-4e-05,-2.9999999999999997e-05,-0.00031,-0.0005,-8e-05,-8e-05,1e-05,-0.00015,2
4678,4877,-4e-05,-2.9999999999999997e-05,-0.00031,-0.0005,-8e-05,-8e-05,1e-05,-0.00015,2
4679,4878,-4e-05,-2.9999999999999997e-05,-0.00031,-0.0005,-8e-05,-8e-05,1e-05,-0.00015,2
4680,4879,-4e-05,-2.9999999999999997e-05,-0.00031,-0.0005,-8e-05,-8e-05,1e-05,-0.00015,2
4681,4880,-4e-05,-2.9999999999999997e-05,-0.00031,-0.0005,-8e-05,-8e-05,1e-05,-0.00015,2
4682,4881,-4e-05,-2.9999999999999997e-05,-0.00031,-0.0005,-8e-05,-8e-05,1e-05,-0.00015,2
4683,4882,-0.0003,-4e-05,0.00011999999999999999,0.00043,0.00011,2.9999999999999997e-05,-2e-05,-9e-05,2
4684,4883,-0.0003,-4e-05,0.00011999999999999999,0.00043,0.00011,2.9999999999999997e-05,-2e-05,-9e-05,2
4685,4884,-0.0003,-4e-05,0.00011999999999999999,0.00043,0.00011,2.9999999999999997e-05,-2e-05,-9e-05,2
4686,4885,-0.0003,-4e-05,0.00011999999999999999,0.00043,0.00011,2.9999999999999997e-05,-2e-05,-9e-05,2
4687,4886,-0.0003,-4e-05,0.00011999999999999999,0.00043,0.00011,2.9999999999999997e-05,-2e-05,-9e-05,2
4688,4888,-0.0003,-4e-05,0.00011999999999999999,0.00043,0.00011,2.9999999999999997e-05,-2e-05,-9e-05,2
4689,4889,-0.0003,-4e-05,0.00011999999999999999,0.00043,0.00011,2.9999999999999997e-05,-2e-05,-9e-05,2
4690,4890,-0.0003,-4e-05,0.00011999999999999999,0.00043,0.00011,2.9999999999999997e-05,-2e-05,-9e-05,2
4691,4891,-0.00011999999999999999,0.0,-9e-05,-0.0005,-0.00022,-0.00035,-0.00015,-2.9999999999999997e-05,2
4692,4892,-0.00011999999999999999,0.0,-9e-05,-0.0005,-0.00022,-0.00035,-0.00015,-2.9999999999999997e-05,2
4693,4893,-0.00011999999999999999,0.0,-9e-05,-0.0005,-0.00022,-0.00035,-0.00015,-2.9999999999999997e-05,2
4694,4894,-0.00011999999999999999,0.0,-9e-05,-0.0005,-0.00022,-0.00035,-0.00015,-2.9999999999999997e-05,2
4695,4895,-0.00011999999999999999,0.0,-9e-05,-0.0005,-0.00022,-0.00035,-0.00015,-2.9999999999999997e-05,2
4696,4896,-0.00011999999999999999,0.0,-9e-05,-0.0005,-0.00022,-0.00035,-0.00015,-2.9999999999999997e-05,2
4697,4897,-0.00011999999999999999,0.0,-9e-05,-0.0005,-0.00022,-0.00035,-0.00015,-2.9999999999999997e-05,2
4698,4898,-0.00011999999999999999,0.0,-9e-05,-0.0005,-0.00022,-0.00035,-0.00015,-2.9999999999999997e-05,2
4699,4899,-0.00011999999999999999,0.0,-9e-05,-0.0005,-0.00022,-0.00035,-0.00015,-2.9999999999999997e-05,2
4700,4900,-0.00011999999999999999,0.0,-9e-05,-0.0005,-0.00022,-0.00035,-0.00015,-2.9999999999999997e-05,2
4701,4901,-0.00011999999999999999,0.0,-9e-05,-0.0005,-0.00022,-0.00035,-0.00015,-2.9999999999999997e-05,2
4702,4902,-0.00011999999999999999,0.0,-9e-05,-0.0005,-0.00022,-0.00035,-0.00015,-2.9999999999999997e-05,2
4703,4903,-0.00011999999999999999,0.0,-9e-05,-0.0005,-0.00022,-0.00035,-0.00015,-2.9999999999999997e-05,2
4704,4904,-0.00011999999999999999,0.0,-9e-05,-0.0005,-0.00022,-0.00035,-0.00015,-2.9999999999999997e-05,2
4705,4905,-0.00011999999999999999,0.0,-9e-05,-0.0005,-0.00022,-0.00035,-0.00015,-2.9999999999999997e-05,2
4706,4906,5.9999999999999995e-05,-5.9999999999999995e-05,-0.0004,-0.00057,2.9999999999999997e-05,0.0001,0.0,0.00016999999999999999,2
4707,4907,0.00028,9e-05,0.00023999999999999998,0.00045999999999999996,0.00016999999999999999,0.00011,0.00041,0.00018999999999999998,2
4708,4908,0.00028,9e-05,0.00023999999999999998,0.00045999999999999996,0.00016999999999999999,0.00011,0.00041,0.00018999999999999998,2
4709,4909,0.00028,9e-05,0.00023999999999999998,0.00045999999999999996,0.00016999999999999999,0.00011,0.00041,0.00018999999999999998,2
4710,4910,0.00028,9e-05,0.00023999999999999998,0.00045999999999999996,0.00016999999999999999,0.00011,0.00041,0.00018999999999999998,2
4711,4912,0.00028,9e-05,0.00023999999999999998,0.00045999999999999996,0.00016999999999999999,0.00011,0.00041,0.00018999999999999998,2
4712,4913,0.00028,9e-05,0.00023999999999999998,0.00045999999999999996,0.00016999999999999999,0.00011,0.00041,0.00018999999999999998,2
4713,4914,0.00028,9e-05,0.00023999999999999998,0.00045999999999999996,0.00016999999999999999,0.00011,0.00041,0.00018999999999999998,2
4714,4915,0.00028,9e-05,0.00023999999999999998,0.00045999999999999996,0.00016999999999999999,0.00011,0.00041,0.00018999999999999998,2
4715,4916,0.00028,9e-05,0.00023999999999999998,0.00045999999999999996,0.00016999999999999999,0.00011,0.00041,0.00018999999999999998,2
4716,4917,0.00028,9e-05,0.00023999999999999998,0.00045999999999999996,0.00016999999999999999,0.00011,0.00041,0.00018999999999999998,2
4717,4918,0.00028,9e-05,0.00023999999999999998,0.00045999999999999996,0.00016999999999999999,0.00011,0.00041,0.00018999999999999998,2
4718,4919,0.00028,9e-05,0.00023999999999999998,0.00045999999999999996,0.00016999999999999999,0.00011,0.00041,0.00018999999999999998,2
4719,4920,0.00028,9e-05,0.00023999999999999998,0.00045999999999999996,0.00016999999999999999,0.00011,0.00041,0.00018999999999999998,2
4720,4921,0.00028,9e-05,0.00023999999999999998,0.00045999999999999996,0.00016999999999999999,0.00011,0.00041,0.00018999999999999998,2
4721,4922,0.00028,9e-05,0.00023999999999999998,0.00045999999999999996,0.00016999999999999999,0.00011,0.00041,0.00018999999999999998,2
4722,4923,0.00028,9e-05,0.00023999999999999998,0.00045999999999999996,0.00016999999999999999,0.00011,0.00041,0.00018999999999999998,2
4723,4924,0.00028,9e-05,0.00023999999999999998,0.00045999999999999996,0.00016999999999999999,0.00011,0.00041,0.00018999999999999998,2
4724,4925,0.00028,9e-05,0.00023999999999999998,0.00045999999999999996,0.00016999999999999999,0.00011,0.00041,0.00018999999999999998,2
4725,4926,0.00028,9e-05,0.00023999999999999998,0.00045999999999999996,0.00016999999999999999,0.00011,0.00041,0.00018999999999999998,2
4726,4927,0.00028,9e-05,0.00023999999999999998,0.00045999999999999996,0.00016999999999999999,0.00011,0.00041,0.00018999999999999998,2
4727,4928,0.0002,2e-05,-2e-05,0.00011,2.9999999999999997e-05,1e-05,0.0005,0.00031,2
4728,4929,0.0002,2e-05,-2e-05,0.00011,2.9999999999999997e-05,1e-05,0.0005,0.00031,2
4729,4930,2e-05,-1e-05,-9e-05,-0.0004,-0.00018,-9e-05,1e-05,-0.00011999999999999999,2
4730,4931,2e-05,-1e-05,-9e-05,-0.0004,-0.00018,-9e-05,1e-05,-0.00011999999999999999,2
4731,4932,2e-05,-1e-05,-9e-05,-0.0004,-0.00018,-9e-05,1e-05,-0.00011999999999999999,2
4732,4933,2e-05,-1e-05,-9e-05,-0.0004,-0.00018,-9e-05,1e-05,-0.00011999999999999999,2
4733,4934,2e-05,-1e-05,-9e-05,-0.0004,-0.00018,-9e-05,1e-05,-0.00011999999999999999,2
4734,4935,2e-05,-1e-05,-9e-05,-0.0004,-0.00018,-9e-05,1e-05,-0.00011999999999999999,2
4735,4936,2e-05,-1e-05,-9e-05,-0.0004,-0.00018,-9e-05,1e-05,-0.00011999999999999999,2
4736,4938,2e-05,-1e-05,-9e-05,-0.0004,-0.00018,-9e-05,1e-05,-0.00011999999999999999,2
4737,4939,2e-05,-1e-05,-9e-05,-0.0004,-0.00018,-9e-05,1e-05,-0.00011999999999999999,2
4738,4940,2e-05,-1e-05,-9e-05,-0.0004,-0.00018,-9e-05,1e-05,-0.00011999999999999999,2
4739,4941,2e-05,-1e-05,-9e-05,-0.0004,-0.00018,-9e-05,1e-05,-0.00011999999999999999,2
4740,4942,-0.00029,0.0,0.00018999999999999998,0.00011999999999999999,0.00011999999999999999,0.00011,-0.00031,-0.00044,2
4741,4943,-0.00029,0.0,0.00018999999999999998,0.00011999999999999999,0.00011999999999999999,0.00011,-0.00031,-0.00044,2
4742,4944,-0.00029,0.0,0.00018999999999999998,0.00011999999999999999,0.00011999999999999999,0.00011,-0.00031,-0.00044,2
4743,4945,-0.00029,0.0,0.00018999999999999998,0.00011999999999999999,0.00011999999999999999,0.00011,-0.00031,-0.00044,2
4744,4946,-0.00029,0.0,0.00018999999999999998,0.00011999999999999999,0.00011999999999999999,0.00011,-0.00031,-0.00044,2
4745,4947,-0.00029,0.0,0.00018999999999999998,0.00011999999999999999,0.00011999999999999999,0.00011,-0.00031,-0.00044,2
4746,4948,-0.00029,0.0,0.00018999999999999998,0.00011999999999999999,0.00011999999999999999,0.00011,-0.00031,-0.00044,2
4747,4949,-0.00029,0.0,0.00018999999999999998,0.00011999999999999999,0.00011999999999999999,0.00011,-0.00031,-0.00044,2
4748,4950,-0.00029,0.0,0.00018999999999999998,0.00011999999999999999,0.00011999999999999999,0.00011,-0.00031,-0.00044,2
4749,4951,-8e-05,-2e-05,0.00021,0.0009199999999999999,0.00025,-0.00015,-0.00015,4e-05,2
4750,4952,-8e-05,-2e-05,0.00021,0.0009199999999999999,0.00025,-0.00015,-0.00015,4e-05,2
4751,4953,-8e-05,-2e-05,0.00021,0.0009199999999999999,0.00025,-0.00015,-0.00015,4e-05,2
4752,4954,-8e-05,-2e-05,0.00021,0.0009199999999999999,0.00025,-0.00015,-0.00015,4e-05,2
4753,4955,-8e-05,-2e-05,0.00021,0.0009199999999999999,0.00025,-0.00015,-0.00015,4e-05,2
4754,4956,-8e-05,-2e-05,0.00021,0.0009199999999999999,0.00025,-0.00015,-0.00015,4e-05,2
4755,4957,-8e-05,-2e-05,0.00021,0.0009199999999999999,0.00025,-0.00015,-0.00015,4e-05,2
4756,4959,-8e-05,-2e-05,0.00021,0.0009199999999999999,0.00025,-0.00015,-0.00015,4e-05,2
4757,4960,-8e-05,-2e-05,0.00021,0.0009199999999999999,0.00025,-0.00015,-0.00015,4e-05,2
4758,4961,-8e-05,-2e-05,0.00021,0.0009199999999999999,0.00025,-0.00015,-0.00015,4e-05,2
4759,4962,-8e-05,-2e-05,0.00021,0.0009199999999999999,0.00025,-0.00015,-0.00015,4e-05,2
4760,4963,-8e-05,-2e-05,0.00021,0.0009199999999999999,0.00025,-0.00015,-0.00015,4e-05,2
4761,4964,-8e-05,-2e-05,0.00021,0.0009199999999999999,0.00025,-0.00015,-0.00015,4e-05,2
4762,4965,-8e-05,-2e-05,0.00021,0.0009199999999999999,0.00025,-0.00015,-0.00015,4e-05,2
4763,4966,0.00018999999999999998,2.9999999999999997e-05,2e-05,-0.00039,-0.00015,0.00022,0.00047999999999999996,0.00028,2
4764,4967,4e-05,-9e-05,-0.00026000000000000003,-0.00091,-0.0002,-0.00016999999999999999,-0.00064,0.00011,2
4765,4968,4e-05,-9e-05,-0.00026000000000000003,-0.00091,-0.0002,-0.00016999999999999999,-0.00064,0.00011,2
4766,4969,4e-05,-9e-05,-0.00026000000000000003,-0.00091,-0.0002,-0.00016999999999999999,-0.00064,0.00011,2
4767,4970,4e-05,-9e-05,-0.00026000000000000003,-0.00091,-0.0002,-0.00016999999999999999,-0.00064,0.00011,2
4768,4971,4e-05,-9e-05,-0.00026000000000000003,-0.00091,-0.0002,-0.00016999999999999999,-0.00064,0.00011,2
4769,4972,4e-05,-9e-05,-0.00026000000000000003,-0.00091,-0.0002,-0.00016999999999999999,-0.00064,0.00011,2
4770,4973,4e-05,-9e-05,-0.00026000000000000003,-0.00091,-0.0002,-0.00016999999999999999,-0.00064,0.00011,2
4771,4974,4e-05,-9e-05,-0.00026000000000000003,-0.00091,-0.0002,-0.00016999999999999999,-0.00064,0.00011,2
4772,4975,4e-05,-9e-05,-0.00026000000000000003,-0.00091,-0.0002,-0.00016999999999999999,-0.00064,0.00011,2
4773,4976,4e-05,-9e-05,-0.00026000000000000003,-0.00091,-0.0002,-0.00016999999999999999,-0.00064,0.00011,2
4774,4977,4e-05,-9e-05,-0.00026000000000000003,-0.00091,-0.0002,-0.00016999999999999999,-0.00064,0.00011,2
4775,4978,4e-05,-9e-05,-0.00026000000000000003,-0.00091,-0.0002,-0.00016999999999999999,-0.00064,0.00011,2
4776,4979,4e-05,-9e-05,-0.00026000000000000003,-0.00091,-0.0002,-0.00016999999999999999,-0.00064,0.00011,2
4777,4980,4e-05,-9e-05,-0.00026000000000000003,-0.00091,-0.0002,-0.00016999999999999999,-0.00064,0.00011,2
4778,4981,4e-05,-9e-05,-0.00026000000000000003,-0.00091,-0.0002,-0.00016999999999999999,-0.00064,0.00011,2
4779,4982,4e-05,-9e-05,-0.00026000000000000003,-0.00091,-0.0002,-0.00016999999999999999,-0.00064,0.00011,2
4780,4983,4e-05,-9e-05,-0.00026000000000000003,-0.00091,-0.0002,-0.00016999999999999999,-0.00064,0.00011,2
4781,4984,4e-05,-9e-05,-0.00026000000000000003,-0.00091,-0.0002,-0.00016999999999999999,-0.00064,0.00011,2
4782,4985,4e-05,-9e-05,-0.00026000000000000003,-0.00091,-0.0002,-0.00016999999999999999,-0.00064,0.00011,2
4783,4986,4e-05,-9e-05,-0.00026000000000000003,-0.00091,-0.0002,-0.00016999999999999999,-0.00064,0.00011,2
4784,4988,1e-05,7e-05,0.00036,0.00062,4e-05,-0.00011,0.00014,-1e-05,2
4785,4989,1e-05,7e-05,0.00036,0.00062,4e-05,-0.00011,0.00014,-1e-05,2
4786,4990,2e-05,0.00011999999999999999,0.0002,0.00042,0.0,0.00039,0.0008,0.00013000000000000002,2
4787,4991,2e-05,0.00011999999999999999,0.0002,0.00042,0.0,0.00039,0.0008,0.00013000000000000002,2
4788,4992,2e-05,0.00011999999999999999,0.0002,0.00042,0.0,0.00039,0.0008,0.00013000000000000002,2
4789,4993,2e-05,0.00011999999999999999,0.0002,0.00042,0.0,0.00039,0.0008,0.00013000000000000002,2
4790,4994,2e-05,0.00011999999999999999,0.0002,0.00042,0.0,0.00039,0.0008,0.00013000000000000002,2
4791,4995,2e-05,0.00011999999999999999,0.0002,0.00042,0.0,0.00039,0.0008,0.00013000000000000002,2
4792,4996,2e-05,0.00011999999999999999,0.0002,0.00042,0.0,0.00039,0.0008,0.00013000000000000002,2
4793,4997,2e-05,0.00011999999999999999,0.0002,0.00042,0.0,0.00039,0.0008,0.00013000000000000002,2
4794,4998,2e-05,0.00011999999999999999,0.0002,0.00042,0.0,0.00039,0.0008,0.00013000000000000002,2
4795,4999,2e-05,0.00011999999999999999,0.0002,0.00042,0.0,0.00039,0.0008,0.00013000000000000002,2
4796,5000,2e-05,0.00011999999999999999,0.0002,0.00042,0.0,0.00039,0.0008,0.00013000000000000002,2
4797,5001,2e-05,0.00011999999999999999,0.0002,0.00042,0.0,0.00039,0.0008,0.00013000000000000002,2
4798,5002,5.9999999999999995e-05,-0.0001,-0.00057,-0.00082,-0.00032,-0.00062,-0.00058,-0.00022,2
4799,5003,5.9999999999999995e-05,-0.0001,-0.00057,-0.00082,-0.00032,-0.00062,-0.00058,-0.00022,2
4800,5004,5.9999999999999995e-05,-0.0001,-0.00057,-0.00082,-0.00032,-0.00062,-0.00058,-0.00022,2
4801,5006,5.9999999999999995e-05,-0.0001,-0.00057,-0.00082,-0.00032,-0.00062,-0.00058,-0.00022,2
4802,5007,5.9999999999999995e-05,-0.0001,-0.00057,-0.00082,-0.00032,-0.00062,-0.00058,-0.00022,2
4803,5008,5.9999999999999995e-05,-0.0001,-0.00057,-0.00082,-0.00032,-0.00062,-0.00058,-0.00022,2
4804,5009,5.9999999999999995e-05,-0.0001,-0.00057,-0.00082,-0.00032,-0.00062,-0.00058,-0.00022,2
4805,5010,5.9999999999999995e-05,-0.0001,-0.00057,-0.00082,-0.00032,-0.00062,-0.00058,-0.00022,2
4806,5011,-0.00014,-0.00011999999999999999,-8e-05,0.0001,-0.00014,-0.00022999999999999998,-0.00018,-0.00036,2
4807,5012,-0.00014,-0.00011999999999999999,-8e-05,0.0001,-0.00014,-0.00022999999999999998,-0.00018,-0.00036,2
4808,5013,-0.00014,-0.00011999999999999999,-8e-05,0.0001,-0.00014,-0.00022999999999999998,-0.00018,-0.00036,2
4809,5014,-0.00014,-0.00011999999999999999,-8e-05,0.0001,-0.00014,-0.00022999999999999998,-0.00018,-0.00036,2
4810,5015,-0.00014,-0.00011999999999999999,-8e-05,0.0001,-0.00014,-0.00022999999999999998,-0.00018,-0.00036,2
4811,5016,-0.00014,-0.00011999999999999999,-8e-05,0.0001,-0.00014,-0.00022999999999999998,-0.00018,-0.00036,2
4812,5017,-0.00014,-0.00011999999999999999,-8e-05,0.0001,-0.00014,-0.00022999999999999998,-0.00018,-0.00036,2
4813,5018,-0.00014,-0.00011999999999999999,-8e-05,0.0001,-0.00014,-0.00022999999999999998,-0.00018,-0.00036,2
4814,5019,-0.00014,-0.00011999999999999999,-8e-05,0.0001,-0.00014,-0.00022999999999999998,-0.00018,-0.00036,2
4815,5020,-0.00014,-0.00011999999999999999,-8e-05,0.0001,-0.00014,-0.00022999999999999998,-0.00018,-0.00036,2
4816,5021,-0.00014,-0.00011999999999999999,-8e-05,0.0001,-0.00014,-0.00022999999999999998,-0.00018,-0.00036,2
4817,5022,-0.00014,-0.00011999999999999999,-8e-05,0.0001,-0.00014,-0.00022999999999999998,-0.00018,-0.00036,2
4818,5023,-0.00014,-0.00011999999999999999,-8e-05,0.0001,-0.00014,-0.00022999999999999998,-0.00018,-0.00036,2
4819,5024,-0.00014,-0.00011999999999999999,-8e-05,0.0001,-0.00014,-0.00022999999999999998,-0.00018,-0.00036,2
4820,5025,-0.00014,-0.00011999999999999999,-8e-05,0.0001,-0.00014,-0.00022999999999999998,-0.00018,-0.00036,2
4821,5026,0.00011,0.00011,0.00033,0.00042,4e-05,-0.00018,-1e-05,8e-05,2
4822,5027,7e-05,0.0001,8e-05,-1e-05,-4e-05,0.00013000000000000002,-5.9999999999999995e-05,9e-05,2
4823,5028,7e-05,0.0001,8e-05,-1e-05,-4e-05,0.00013000000000000002,-5.9999999999999995e-05,9e-05,2
4824,5029,7e-05,0.0001,8e-05,-1e-05,-4e-05,0.00013000000000000002,-5.9999999999999995e-05,9e-05,2
4825,5030,7e-05,0.0001,8e-05,-1e-05,-4e-05,0.00013000000000000002,-5.9999999999999995e-05,9e-05,2
4826,5031,7e-05,0.0001,8e-05,-1e-05,-4e-05,0.00013000000000000002,-5.9999999999999995e-05,9e-05,2
4827,5032,7e-05,0.0001,8e-05,-1e-05,-4e-05,0.00013000000000000002,-5.9999999999999995e-05,9e-05,2
4828,5033,7e-05,0.0001,8e-05,-1e-05,-4e-05,0.00013000000000000002,-5.9999999999999995e-05,9e-05,2
4829,5034,7e-05,0.0001,8e-05,-1e-05,-4e-05,0.00013000000000000002,-5.9999999999999995e-05,9e-05,2
4830,5035,7e-05,0.0001,8e-05,-1e-05,-4e-05,0.00013000000000000002,-5.9999999999999995e-05,9e-05,2
4831,5036,7e-05,0.0001,8e-05,-1e-05,-4e-05,0.00013000000000000002,-5.9999999999999995e-05,9e-05,2
4832,5038,7e-05,0.0001,8e-05,-1e-05,-4e-05,0.00013000000000000002,-5.9999999999999995e-05,9e-05,2
4833,5039,7e-05,0.0001,8e-05,-1e-05,-4e-05,0.00013000000000000002,-5.9999999999999995e-05,9e-05,2
4834,5040,7e-05,0.0001,8e-05,-1e-05,-4e-05,0.00013000000000000002,-5.9999999999999995e-05,9e-05,2
4835,5041,7e-05,0.0001,8e-05,-1e-05,-4e-05,0.00013000000000000002,-5.9999999999999995e-05,9e-05,2
4836,5042,7e-05,0.0001,8e-05,-1e-05,-4e-05,0.00013000000000000002,-5.9999999999999995e-05,9e-05,2
4837,5043,7e-05,0.0001,8e-05,-1e-05,-4e-05,0.00013000000000000002,-5.9999999999999995e-05,9e-05,2
4838,5044,7e-05,0.0001,8e-05,-1e-05,-4e-05,0.00013000000000000002,-5.9999999999999995e-05,9e-05,2
4839,5045,7e-05,0.0001,8e-05,-1e-05,-4e-05,0.00013000000000000002,-5.9999999999999995e-05,9e-05,2
4840,5046,7e-05,0.0001,8e-05,-1e-05,-4e-05,0.00013000000000000002,-5.9999999999999995e-05,9e-05,2
4841,5047,7e-05,0.0001,8e-05,-1e-05,-4e-05,0.00013000000000000002,-5.9999999999999995e-05,9e-05,2
4842,5048,7e-05,0.0001,8e-05,-1e-05,-4e-05,0.00013000000000000002,-5.9999999999999995e-05,9e-05,2
4843,5049,0.00016,0.0001,0.00014,0.00027,0.0001,0.00027,0.00021,0.00018999999999999998,2
4844,5050,0.00018999999999999998,0.00018,0.00018999999999999998,0.0,4e-05,-1e-05,2.9999999999999997e-05,0.00014,2
4845,5051,0.00018999999999999998,0.00018,0.00018999999999999998,0.0,4e-05,-1e-05,2.9999999999999997e-05,0.00014,2
4846,5053,0.00018999999999999998,0.00018,0.00018999999999999998,0.0,4e-05,-1e-05,2.9999999999999997e-05,0.00014,2
4847,5054,0.00018999999999999998,0.00018,0.00018999999999999998,0.0,4e-05,-1e-05,2.9999999999999997e-05,0.00014,2
4848,5055,0.00018999999999999998,0.00018,0.00018999999999999998,0.0,4e-05,-1e-05,2.9999999999999997e-05,0.00014,2
4849,5056,0.00018999999999999998,0.00018,0.00018999999999999998,0.0,4e-05,-1e-05,2.9999999999999997e-05,0.00014,2
4850,5057,0.00018999999999999998,0.00018,0.00018999999999999998,0.0,4e-05,-1e-05,2.9999999999999997e-05,0.00014,2
4851,5058,0.00018999999999999998,0.00018,0.00018999999999999998,0.0,4e-05,-1e-05,2.9999999999999997e-05,0.00014,2
4852,5059,0.00018999999999999998,0.00018,0.00018999999999999998,0.0,4e-05,-1e-05,2.9999999999999997e-05,0.00014,2
4853,5060,0.00018999999999999998,0.00018,0.00018999999999999998,0.0,4e-05,-1e-05,2.9999999999999997e-05,0.00014,2
4854,5061,4e-05,-0.00023999999999999998,-0.0007,-0.00103,-0.00015,0.00011999999999999999,1e-05,0.00031,2
4855,5062,4e-05,-0.00023999999999999998,-0.0007,-0.00103,-0.00015,0.00011999999999999999,1e-05,0.00031,2
4856,5063,4e-05,-0.00023999999999999998,-0.0007,-0.00103,-0.00015,0.00011999999999999999,1e-05,0.00031,2
4857,5064,4e-05,-0.00023999999999999998,-0.0007,-0.00103,-0.00015,0.00011999999999999999,1e-05,0.00031,2
4858,5065,4e-05,-0.00023999999999999998,-0.0007,-0.00103,-0.00015,0.00011999999999999999,1e-05,0.00031,2
4859,5066,4e-05,-0.00023999999999999998,-0.0007,-0.00103,-0.00015,0.00011999999999999999,1e-05,0.00031,2
4860,5067,4e-05,-0.00023999999999999998,-0.0007,-0.00103,-0.00015,0.00011999999999999999,1e-05,0.00031,2
4861,5068,4e-05,-0.00023999999999999998,-0.0007,-0.00103,-0.00015,0.00011999999999999999,1e-05,0.00031,2
4862,5069,4e-05,-0.00023999999999999998,-0.0007,-0.00103,-0.00015,0.00011999999999999999,1e-05,0.00031,2
4863,5070,4e-05,-0.00023999999999999998,-0.0007,-0.00103,-0.00015,0.00011999999999999999,1e-05,0.00031,2
4864,5071,4e-05,-0.00023999999999999998,-0.0007,-0.00103,-0.00015,0.00011999999999999999,1e-05,0.00031,2
4865,5072,4e-05,-0.00023999999999999998,-0.0007,-0.00103,-0.00015,0.00011999999999999999,1e-05,0.00031,2
4866,5073,4e-05,-0.00023999999999999998,-0.0007,-0.00103,-0.00015,0.00011999999999999999,1e-05,0.00031,2
4867,5074,4e-05,-0.00023999999999999998,-0.0007,-0.00103,-0.00015,0.00011999999999999999,1e-05,0.00031,2
4868,5075,4e-05,-0.00023999999999999998,-0.0007,-0.00103,-0.00015,0.00011999999999999999,1e-05,0.00031,2
4869,5076,4e-05,-0.00023999999999999998,-0.0007,-0.00103,-0.00015,0.00011999999999999999,1e-05,0.00031,2
4870,5077,-0.00016999999999999999,-7e-05,2.9999999999999997e-05,0.00033999999999999997,0.00022,0.00028,-0.00013000000000000002,4e-05,2
4871,5078,-0.00016999999999999999,-7e-05,2.9999999999999997e-05,0.00033999999999999997,0.00022,0.00028,-0.00013000000000000002,4e-05,2
4872,5079,-0.00016999999999999999,-7e-05,2.9999999999999997e-05,0.00033999999999999997,0.00022,0.00028,-0.00013000000000000002,4e-05,2
4873,5080,-0.00016999999999999999,-7e-05,2.9999999999999997e-05,0.00033999999999999997,0.00022,0.00028,-0.00013000000000000002,4e-05,2
4874,5081,-0.00016999999999999999,-7e-05,2.9999999999999997e-05,0.00033999999999999997,0.00022,0.00028,-0.00013000000000000002,4e-05,2
4875,5082,-0.00016999999999999999,-7e-05,2.9999999999999997e-05,0.00033999999999999997,0.00022,0.00028,-0.00013000000000000002,4e-05,2
4876,5083,-0.00016999999999999999,-7e-05,2.9999999999999997e-05,0.00033999999999999997,0.00022,0.00028,-0.00013000000000000002,4e-05,2
4877,5084,-0.00016999999999999999,-7e-05,2.9999999999999997e-05,0.00033999999999999997,0.00022,0.00028,-0.00013000000000000002,4e-05,2
4878,5085,-0.00016999999999999999,-7e-05,2.9999999999999997e-05,0.00033999999999999997,0.00022,0.00028,-0.00013000000000000002,4e-05,2
4879,5086,-0.00016999999999999999,-7e-05,2.9999999999999997e-05,0.00033999999999999997,0.00022,0.00028,-0.00013000000000000002,4e-05,2
4880,5088,-5e-05,-2e-05,-4e-05,-0.00044,-7e-05,-7e-05,0.00018999999999999998,-0.00013000000000000002,2
4881,5089,-5e-05,-2e-05,-4e-05,-0.00044,-7e-05,-7e-05,0.00018999999999999998,-0.00013000000000000002,2
4882,5090,-5e-05,-2e-05,-4e-05,-0.00044,-7e-05,-7e-05,0.00018999999999999998,-0.00013000000000000002,2
4883,5091,-5e-05,-2e-05,-4e-05,-0.00044,-7e-05,-7e-05,0.00018999999999999998,-0.00013000000000000002,2
4884,5092,-5e-05,-2e-05,-4e-05,-0.00044,-7e-05,-7e-05,0.00018999999999999998,-0.00013000000000000002,2
4885,5093,-5e-05,-2e-05,-4e-05,-0.00044,-7e-05,-7e-05,0.00018999999999999998,-0.00013000000000000002,2
4886,5094,-5e-05,-2e-05,-4e-05,-0.00044,-7e-05,-7e-05,0.00018999999999999998,-0.00013000000000000002,2
4887,5095,-5e-05,-2e-05,-4e-05,-0.00044,-7e-05,-7e-05,0.00018999999999999998,-0.00013000000000000002,2
4888,5096,-5e-05,-2e-05,-4e-05,-0.00044,-7e-05,-7e-05,0.00018999999999999998,-0.00013000000000000002,2
4889,5097,-5e-05,-2e-05,-4e-05,-0.00044,-7e-05,-7e-05,0.00018999999999999998,-0.00013000000000000002,2
4890,5098,-5e-05,-2e-05,-4e-05,-0.00044,-7e-05,-7e-05,0.00018999999999999998,-0.00013000000000000002,2
4891,5100,-5e-05,-2e-05,-4e-05,-0.00044,-7e-05,-7e-05,0.00018999999999999998,-0.00013000000000000002,2
4892,5101,-5e-05,-2e-05,-4e-05,-0.00044,-7e-05,-7e-05,0.00018999999999999998,-0.00013000000000000002,2
4893,5102,-5e-05,-2e-05,-4e-05,-0.00044,-7e-05,-7e-05,0.00018999999999999998,-0.00013000000000000002,2
4894,5103,-5e-05,-2e-05,-4e-05,-0.00044,-7e-05,-7e-05,0.00018999999999999998,-0.00013000000000000002,2
4895,5104,-5e-05,-2e-05,-4e-05,-0.00044,-7e-05,-7e-05,0.00018999999999999998,-0.00013000000000000002,2
4896,5105,-5e-05,-2e-05,-4e-05,-0.00044,-7e-05,-7e-05,0.00018999999999999998,-0.00013000000000000002,2
4897,5106,-5e-05,-2e-05,-4e-05,-0.00044,-7e-05,-7e-05,0.00018999999999999998,-0.00013000000000000002,2
4898,5107,-5e-05,-2e-05,-4e-05,-0.00044,-7e-05,-7e-05,0.00018999999999999998,-0.00013000000000000002,2
4899,5108,-0.00013000000000000002,5e-05,0.00018999999999999998,9e-05,0.00011,0.00011,-0.0001,-0.0001,2
4900,5109,-0.00016,-2e-05,2.9999999999999997e-05,0.00032,8e-05,-0.00023999999999999998,-0.00029,-0.00029,2
4901,5110,-0.00016,-2e-05,2.9999999999999997e-05,0.00032,8e-05,-0.00023999999999999998,-0.00029,-0.00029,2
4902,5111,-0.00016,-2e-05,2.9999999999999997e-05,0.00032,8e-05,-0.00023999999999999998,-0.00029,-0.00029,2
4903,5112,-0.00016,-2e-05,2.9999999999999997e-05,0.00032,8e-05,-0.00023999999999999998,-0.00029,-0.00029,2
4904,5113,-0.00016,-2e-05,2.9999999999999997e-05,0.00032,8e-05,-0.00023999999999999998,-0.00029,-0.00029,2
4905,5114,-0.00016,-2e-05,2.9999999999999997e-05,0.00032,8e-05,-0.00023999999999999998,-0.00029,-0.00029,2
4906,5115,-0.00016,-2e-05,2.9999999999999997e-05,0.00032,8e-05,-0.00023999999999999998,-0.00029,-0.00029,2
4907,5116,-0.00016,-2e-05,2.9999999999999997e-05,0.00032,8e-05,-0.00023999999999999998,-0.00029,-0.00029,2
4908,5117,-0.00016,-2e-05,2.9999999999999997e-05,0.00032,8e-05,-0.00023999999999999998,-0.00029,-0.00029,2
4909,5118,-0.00016,-2e-05,2.9999999999999997e-05,0.00032,8e-05,-0.00023999999999999998,-0.00029,-0.00029,2
4910,5119,-0.00016,-2e-05,2.9999999999999997e-05,0.00032,8e-05,-0.00023999999999999998,-0.00029,-0.00029,2
4911,5120,-0.00016,-2e-05,2.9999999999999997e-05,0.00032,8e-05,-0.00023999999999999998,-0.00029,-0.00029,2
4912,5121,-0.00016,-2e-05,2.9999999999999997e-05,0.00032,8e-05,-0.00023999999999999998,-0.00029,-0.00029,2
4913,5122,5e-05,5e-05,0.00029,0.00066,5e-05,-0.00022999999999999998,-0.00021,-9e-05,2
4914,5123,5e-05,5e-05,0.00029,0.00066,5e-05,-0.00022999999999999998,-0.00021,-9e-05,2
4915,5124,5e-05,5e-05,0.00029,0.00066,5e-05,-0.00022999999999999998,-0.00021,-9e-05,2
4916,5125,5e-05,5e-05,0.00029,0.00066,5e-05,-0.00022999999999999998,-0.00021,-9e-05,2
4917,5126,5e-05,5e-05,0.00029,0.00066,5e-05,-0.00022999999999999998,-0.00021,-9e-05,2
4918,5127,5e-05,5e-05,0.00029,0.00066,5e-05,-0.00022999999999999998,-0.00021,-9e-05,2
4919,5128,5e-05,5e-05,0.00029,0.00066,5e-05,-0.00022999999999999998,-0.00021,-9e-05,2
4920,5129,5e-05,5e-05,0.00029,0.00066,5e-05,-0.00022999999999999998,-0.00021,-9e-05,2
4921,5130,5e-05,5e-05,0.00029,0.00066,5e-05,-0.00022999999999999998,-0.00021,-9e-05,2
4922,5131,0.0001,-4e-05,-0.00015,-2.9999999999999997e-05,-2.9999999999999997e-05,7e-05,0.00016,0.00011999999999999999,2
4923,5132,0.0001,-4e-05,-0.00015,-2.9999999999999997e-05,-2.9999999999999997e-05,7e-05,0.00016,0.00011999999999999999,2
4924,5133,0.0001,-4e-05,-0.00015,-2.9999999999999997e-05,-2.9999999999999997e-05,7e-05,0.00016,0.00011999999999999999,2
4925,5134,0.0001,-4e-05,-0.00015,-2.9999999999999997e-05,-2.9999999999999997e-05,7e-05,0.00016,0.00011999999999999999,2
4926,5135,0.0001,-4e-05,-0.00015,-2.9999999999999997e-05,-2.9999999999999997e-05,7e-05,0.00016,0.00011999999999999999,2
4927,5136,0.0001,-4e-05,-0.00015,-2.9999999999999997e-05,-2.9999999999999997e-05,7e-05,0.00016,0.00011999999999999999,2
4928,5138,0.0001,-4e-05,-0.00015,-2.9999999999999997e-05,-2.9999999999999997e-05,7e-05,0.00016,0.00011999999999999999,2
4929,5139,0.0001,-4e-05,-0.00015,-2.9999999999999997e-05,-2.9999999999999997e-05,7e-05,0.00016,0.00011999999999999999,2
4930,5140,0.0001,-4e-05,-0.00015,-2.9999999999999997e-05,-2.9999999999999997e-05,7e-05,0.00016,0.00011999999999999999,2
4931,5141,0.0001,-4e-05,-0.00015,-2.9999999999999997e-05,-2.9999999999999997e-05,7e-05,0.00016,0.00011999999999999999,2
4932,5142,0.0001,-4e-05,-0.00015,-2.9999999999999997e-05,-2.9999999999999997e-05,7e-05,0.00016,0.00011999999999999999,2
4933,5143,0.0001,-4e-05,-0.00015,-2.9999999999999997e-05,-2.9999999999999997e-05,7e-05,0.00016,0.00011999999999999999,2
4934,5144,0.0001,-4e-05,-0.00015,-2.9999999999999997e-05,-2.9999999999999997e-05,7e-05,0.00016,0.00011999999999999999,2
4935,5146,-0.0001,-4e-05,-1e-05,0.00045999999999999996,-2e-05,7e-05,-0.0005,-0.00035,2
4936,5147,-0.00027,-0.00015,-0.00011,-0.00015,-9e-05,2e-05,0.00014,4e-05,2
4937,5149,-0.00027,-0.00015,-0.00011,-0.00015,-9e-05,2e-05,0.00014,4e-05,2
4938,5150,-0.00027,-0.00015,-0.00011,-0.00015,-9e-05,2e-05,0.00014,4e-05,2
4939,5151,-0.00027,-0.00015,-0.00011,-0.00015,-9e-05,2e-05,0.00014,4e-05,2
4940,5152,-0.00027,-0.00015,-0.00011,-0.00015,-9e-05,2e-05,0.00014,4e-05,2
4941,5153,-0.00027,-0.00015,-0.00011,-0.00015,-9e-05,2e-05,0.00014,4e-05,2
4942,5154,-0.00027,-0.00015,-0.00011,-0.00015,-9e-05,2e-05,0.00014,4e-05,2
4943,5155,-0.00027,-0.00015,-0.00011,-0.00015,-9e-05,2e-05,0.00014,4e-05,2
4944,5156,-0.00027,-0.00015,-0.00011,-0.00015,-9e-05,2e-05,0.00014,4e-05,2
4945,5157,-0.00027,-0.00015,-0.00011,-0.00015,-9e-05,2e-05,0.00014,4e-05,2
4946,5158,-0.00027,-0.00015,-0.00011,-0.00015,-9e-05,2e-05,0.00014,4e-05,2
4947,5159,-0.00027,-0.00015,-0.00011,-0.00015,-9e-05,2e-05,0.00014,4e-05,2
4948,5160,-0.00027,-0.00015,-0.00011,-0.00015,-9e-05,2e-05,0.00014,4e-05,2
4949,5161,-0.00027,-0.00015,-0.00011,-0.00015,-9e-05,2e-05,0.00014,4e-05,2
4950,5162,-0.00027,-0.00015,-0.00011,-0.00015,-9e-05,2e-05,0.00014,4e-05,2
4951,5163,-0.00027,-0.00015,-0.00011,-0.00015,-9e-05,2e-05,0.00014,4e-05,2
4952,5164,-0.00027,-0.00015,-0.00011,-0.00015,-9e-05,2e-05,0.00014,4e-05,2
4953,5165,-0.00027,-0.00015,-0.00011,-0.00015,-9e-05,2e-05,0.00014,4e-05,2
4954,5166,-0.00027,-0.00015,-0.00011,-0.00015,-9e-05,2e-05,0.00014,4e-05,2
4955,5167,-0.00027,-0.00015,-0.00011,-0.00015,-9e-05,2e-05,0.00014,4e-05,2
4956,5168,-2e-05,0.00016999999999999999,0.00021,0.0001,0.00011999999999999999,0.00016,2e-05,-1e-05,2
4957,5169,-2e-05,0.00016999999999999999,0.00021,0.0001,0.00011999999999999999,0.00016,2e-05,-1e-05,2
4958,5170,-2.9999999999999997e-05,-8e-05,1e-05,0.00028,-7e-05,-0.00026000000000000003,-0.0007,-0.00015,2
4959,5171,-2.9999999999999997e-05,-8e-05,1e-05,0.00028,-7e-05,-0.00026000000000000003,-0.0007,-0.00015,2
4960,5172,-2.9999999999999997e-05,-8e-05,1e-05,0.00028,-7e-05,-0.00026000000000000003,-0.0007,-0.00015,2
4961,5173,-2.9999999999999997e-05,-8e-05,1e-05,0.00028,-7e-05,-0.00026000000000000003,-0.0007,-0.00015,2
4962,5174,-2.9999999999999997e-05,-8e-05,1e-05,0.00028,-7e-05,-0.00026000000000000003,-0.0007,-0.00015,2
4963,5175,-2.9999999999999997e-05,-8e-05,1e-05,0.00028,-7e-05,-0.00026000000000000003,-0.0007,-0.00015,2
4964,5176,-2.9999999999999997e-05,-8e-05,1e-05,0.00028,-7e-05,-0.00026000000000000003,-0.0007,-0.00015,2
4965,5177,-2.9999999999999997e-05,-8e-05,1e-05,0.00028,-7e-05,-0.00026000000000000003,-0.0007,-0.00015,2
4966,5178,-2.9999999999999997e-05,-8e-05,1e-05,0.00028,-7e-05,-0.00026000000000000003,-0.0007,-0.00015,2
4967,5179,-2.9999999999999997e-05,-8e-05,1e-05,0.00028,-7e-05,-0.00026000000000000003,-0.0007,-0.00015,2
4968,5180,-2.9999999999999997e-05,-8e-05,1e-05,0.00028,-7e-05,-0.00026000000000000003,-0.0007,-0.00015,2
4969,5181,-2.9999999999999997e-05,-8e-05,1e-05,0.00028,-7e-05,-0.00026000000000000003,-0.0007,-0.00015,2
4970,5182,-0.00021,-0.0001,-0.00011,-2e-05,8e-05,0.0007,0.00049,-2.9999999999999997e-05,2
4971,5183,-0.00021,-0.0001,-0.00011,-2e-05,8e-05,0.0007,0.00049,-2.9999999999999997e-05,2
4972,5184,-0.00021,-0.0001,-0.00011,-2e-05,8e-05,0.0007,0.00049,-2.9999999999999997e-05,2
4973,5185,-0.00021,-0.0001,-0.00011,-2e-05,8e-05,0.0007,0.00049,-2.9999999999999997e-05,2
4974,5186,-0.00021,-0.0001,-0.00011,-2e-05,8e-05,0.0007,0.00049,-2.9999999999999997e-05,2
4975,5188,-0.00021,-0.0001,-0.00011,-2e-05,8e-05,0.0007,0.00049,-2.9999999999999997e-05,2
4976,5189,-0.00021,-0.0001,-0.00011,-2e-05,8e-05,0.0007,0.00049,-2.9999999999999997e-05,2
4977,5190,-0.00021,-0.0001,-0.00011,-2e-05,8e-05,0.0007,0.00049,-2.9999999999999997e-05,2
4978,5191,4e-05,-5.9999999999999995e-05,-0.00021,-0.00022,-9e-05,-9e-05,-2e-05,-8e-05,2
4979,5192,4e-05,-5.9999999999999995e-05,-0.00021,-0.00022,-9e-05,-9e-05,-2e-05,-8e-05,2
4980,5194,4e-05,-5.9999999999999995e-05,-0.00021,-0.00022,-9e-05,-9e-05,-2e-05,-8e-05,2
4981,5195,4e-05,-5.9999999999999995e-05,-0.00021,-0.00022,-9e-05,-9e-05,-2e-05,-8e-05,2
4982,5196,4e-05,-5.9999999999999995e-05,-0.00021,-0.00022,-9e-05,-9e-05,-2e-05,-8e-05,2
4983,5197,4e-05,-5.9999999999999995e-05,-0.00021,-0.00022,-9e-05,-9e-05,-2e-05,-8e-05,2
4984,5199,4e-05,-5.9999999999999995e-05,-0.00021,-0.00022,-9e-05,-9e-05,-2e-05,-8e-05,2
4985,5200,4e-05,-5.9999999999999995e-05,-0.00021,-0.00022,-9e-05,-9e-05,-2e-05,-8e-05,2
4986,5201,4e-05,-5.9999999999999995e-05,-0.00021,-0.00022,-9e-05,-9e-05,-2e-05,-8e-05,2
4987,5202,4e-05,-5.9999999999999995e-05,-0.00021,-0.00022,-9e-05,-9e-05,-2e-05,-8e-05,2
4988,5203,4e-05,-5.9999999999999995e-05,-0.00021,-0.00022,-9e-05,-9e-05,-2e-05,-8e-05,2
4989,5204,4e-05,-5.9999999999999995e-05,-0.00021,-0.00022,-9e-05,-9e-05,-2e-05,-8e-05,2
4990,5205,4e-05,-5.9999999999999995e-05,-0.00021,-0.00022,-9e-05,-9e-05,-2e-05,-8e-05,2
4991,5206,0.00011999999999999999,5.9999999999999995e-05,5.9999999999999995e-05,0.00011,-2.9999999999999997e-05,-4e-05,-0.00043,-0.00027,2
4992,5207,7e-05,0.0001,0.00029,0.00039,0.00023999999999999998,0.00036,5.9999999999999995e-05,0.0002,2
4993,5208,7e-05,0.0001,0.00029,0.00039,0.00023999999999999998,0.00036,5.9999999999999995e-05,0.0002,2
4994,5209,7e-05,0.0001,0.00029,0.00039,0.00023999999999999998,0.00036,5.9999999999999995e-05,0.0002,2
4995,5210,7e-05,0.0001,0.00029,0.00039,0.00023999999999999998,0.00036,5.9999999999999995e-05,0.0002,2
4996,5211,7e-05,0.0001,0.00029,0.00039,0.00023999999999999998,0.00036,5.9999999999999995e-05,0.0002,2
4997,5212,7e-05,0.0001,0.00029,0.00039,0.00023999999999999998,0.00036,5.9999999999999995e-05,0.0002,2
4998,5213,7e-05,0.0001,0.00029,0.00039,0.00023999999999999998,0.00036,5.9999999999999995e-05,0.0002,2
4999,5214,7e-05,0.0001,0.00029,0.00039,0.00023999999999999998,0.00036,5.9999999999999995e-05,0.0002,2
5000,5215,7e-05,0.0001,0.00029,0.00039,0.00023999999999999998,0.00036,5.9999999999999995e-05,0.0002,2
5001,5216,7e-05,0.0001,0.00029,0.00039,0.00023999999999999998,0.00036,5.9999999999999995e-05,0.0002,2
5002,5217,7e-05,0.0001,0.00029,0.00039,0.00023999999999999998,0.00036,5.9999999999999995e-05,0.0002,2
5003,5218,7e-05,0.0001,0.00029,0.00039,0.00023999999999999998,0.00036,5.9999999999999995e-05,0.0002,2
5004,5219,7e-05,0.0001,0.00029,0.00039,0.00023999999999999998,0.00036,5.9999999999999995e-05,0.0002,2
5005,5220,7e-05,0.0001,0.00029,0.00039,0.00023999999999999998,0.00036,5.9999999999999995e-05,0.0002,2
5006,5221,7e-05,0.0001,0.00029,0.00039,0.00023999999999999998,0.00036,5.9999999999999995e-05,0.0002,2
5007,5222,7e-05,0.0001,0.00029,0.00039,0.00023999999999999998,0.00036,5.9999999999999995e-05,0.0002,2
5008,5223,7e-05,0.0001,0.00029,0.00039,0.00023999999999999998,0.00036,5.9999999999999995e-05,0.0002,2
5009,5224,7e-05,0.0001,0.00029,0.00039,0.00023999999999999998,0.00036,5.9999999999999995e-05,0.0002,2
5010,5225,7e-05,0.0001,0.00029,0.00039,0.00023999999999999998,0.00036,5.9999999999999995e-05,0.0002,2
5011,5226,7e-05,0.0001,0.00029,0.00039,0.00023999999999999998,0.00036,5.9999999999999995e-05,0.0002,2
5012,5227,7e-05,0.0001,0.00029,0.00039,0.00023999999999999998,0.00036,5.9999999999999995e-05,0.0002,2
5013,5228,-1e-05,-5e-05,-1e-05,0.00022,-5.9999999999999995e-05,-0.00016,0.00018,1e-05,2
5014,5229,-1e-05,-5e-05,-1e-05,0.00022,-5.9999999999999995e-05,-0.00016,0.00018,1e-05,2
5015,5230,-0.00022,-0.00016999999999999999,-0.00022,-0.00018,-5e-05,-0.0001,0.0002,-8e-05,2
5016,5231,-0.00022,-0.00016999999999999999,-0.00022,-0.00018,-5e-05,-0.0001,0.0002,-8e-05,2
5017,5232,-0.00022,-0.00016999999999999999,-0.00022,-0.00018,-5e-05,-0.0001,0.0002,-8e-05,2
5018,5233,-0.00022,-0.00016999999999999999,-0.00022,-0.00018,-5e-05,-0.0001,0.0002,-8e-05,2
5019,5234,-0.00022,-0.00016999999999999999,-0.00022,-0.00018,-5e-05,-0.0001,0.0002,-8e-05,2
5020,5235,-0.00022,-0.00016999999999999999,-0.00022,-0.00018,-5e-05,-0.0001,0.0002,-8e-05,2
5021,5236,-0.00022,-0.00016999999999999999,-0.00022,-0.00018,-5e-05,-0.0001,0.0002,-8e-05,2
5022,5238,-0.00022,-0.00016999999999999999,-0.00022,-0.00018,-5e-05,-0.0001,0.0002,-8e-05,2
5023,5240,-0.00022,-0.00016999999999999999,-0.00022,-0.00018,-5e-05,-0.0001,0.0002,-8e-05,2
5024,5241,-0.00022,-0.00016999999999999999,-0.00022,-0.00018,-5e-05,-0.0001,0.0002,-8e-05,2
5025,5242,-0.00022,-0.00016999999999999999,-0.00022,-0.00018,-5e-05,-0.0001,0.0002,-8e-05,2
5026,5243,-0.00022,-0.00016999999999999999,-0.00022,-0.00018,-5e-05,-0.0001,0.0002,-8e-05,2
5027,5244,-0.00022,-0.00016999999999999999,-0.00022,-0.00018,-5e-05,-0.0001,0.0002,-8e-05,2
5028,5245,-0.00022,-0.00016999999999999999,-0.00022,-0.00018,-5e-05,-0.0001,0.0002,-8e-05,2
5029,5246,-0.00022,-0.00016999999999999999,-0.00022,-0.00018,-5e-05,-0.0001,0.0002,-8e-05,2
5030,5247,-0.00022,-0.00016999999999999999,-0.00022,-0.00018,-5e-05,-0.0001,0.0002,-8e-05,2
5031,5249,-0.00022,-0.00016999999999999999,-0.00022,-0.00018,-5e-05,-0.0001,0.0002,-8e-05,2
5032,5250,-0.00022,-0.00016999999999999999,-0.00022,-0.00018,-5e-05,-0.0001,0.0002,-8e-05,2
5033,5251,5.9999999999999995e-05,-9e-05,-0.00029,-0.0005,2.9999999999999997e-05,-0.00057,0.00035,-7e-05,2
5034,5252,-0.00011,-2.9999999999999997e-05,-5.9999999999999995e-05,4e-05,-0.00016999999999999999,0.00031,2.9999999999999997e-05,0.0,2
5035,5253,-0.00011,-2.9999999999999997e-05,-5.9999999999999995e-05,4e-05,-0.00016999999999999999,0.00031,2.9999999999999997e-05,0.0,2
5036,5254,-0.00011,-2.9999999999999997e-05,-5.9999999999999995e-05,4e-05,-0.00016999999999999999,0.00031,2.9999999999999997e-05,0.0,2
5037,5255,-0.00011,-2.9999999999999997e-05,-5.9999999999999995e-05,4e-05,-0.00016999999999999999,0.00031,2.9999999999999997e-05,0.0,2
5038,5256,-0.00011,-2.9999999999999997e-05,-5.9999999999999995e-05,4e-05,-0.00016999999999999999,0.00031,2.9999999999999997e-05,0.0,2
5039,5257,-0.00011,-2.9999999999999997e-05,-5.9999999999999995e-05,4e-05,-0.00016999999999999999,0.00031,2.9999999999999997e-05,0.0,2
5040,5258,-0.00011,-2.9999999999999997e-05,-5.9999999999999995e-05,4e-05,-0.00016999999999999999,0.00031,2.9999999999999997e-05,0.0,2
5041,5259,-0.00011,-2.9999999999999997e-05,-5.9999999999999995e-05,4e-05,-0.00016999999999999999,0.00031,2.9999999999999997e-05,0.0,2
5042,5260,-0.00011,-2.9999999999999997e-05,-5.9999999999999995e-05,4e-05,-0.00016999999999999999,0.00031,2.9999999999999997e-05,0.0,2
5043,5261,-0.00011,-2.9999999999999997e-05,-5.9999999999999995e-05,4e-05,-0.00016999999999999999,0.00031,2.9999999999999997e-05,0.0,2
5044,5262,-0.00011,-2.9999999999999997e-05,-5.9999999999999995e-05,4e-05,-0.00016999999999999999,0.00031,2.9999999999999997e-05,0.0,2
5045,5263,-0.00011,-2.9999999999999997e-05,-5.9999999999999995e-05,4e-05,-0.00016999999999999999,0.00031,2.9999999999999997e-05,0.0,2
5046,5264,-0.00011,-2.9999999999999997e-05,-5.9999999999999995e-05,4e-05,-0.00016999999999999999,0.00031,2.9999999999999997e-05,0.0,2
5047,5265,-0.00011,-2.9999999999999997e-05,-5.9999999999999995e-05,4e-05,-0.00016999999999999999,0.00031,2.9999999999999997e-05,0.0,2
5048,5266,0.00014,-2.9999999999999997e-05,-8e-05,-0.00013000000000000002,-0.0001,0.0001,0.00011999999999999999,0.00015,2
5049,5267,0.00016999999999999999,2.9999999999999997e-05,2e-05,-0.00018999999999999998,2.9999999999999997e-05,-0.00011,0.00011,4e-05,2
5050,5268,0.00016999999999999999,2.9999999999999997e-05,2e-05,-0.00018999999999999998,2.9999999999999997e-05,-0.00011,0.00011,4e-05,2
5051,5269,0.00016999999999999999,2.9999999999999997e-05,2e-05,-0.00018999999999999998,2.9999999999999997e-05,-0.00011,0.00011,4e-05,2
5052,5270,0.00016999999999999999,2.9999999999999997e-05,2e-05,-0.00018999999999999998,2.9999999999999997e-05,-0.00011,0.00011,4e-05,2
5053,5271,0.00016999999999999999,2.9999999999999997e-05,2e-05,-0.00018999999999999998,2.9999999999999997e-05,-0.00011,0.00011,4e-05,2
5054,5272,0.00016999999999999999,2.9999999999999997e-05,2e-05,-0.00018999999999999998,2.9999999999999997e-05,-0.00011,0.00011,4e-05,2
5055,5273,0.00016999999999999999,2.9999999999999997e-05,2e-05,-0.00018999999999999998,2.9999999999999997e-05,-0.00011,0.00011,4e-05,2
5056,5274,0.00016999999999999999,2.9999999999999997e-05,2e-05,-0.00018999999999999998,2.9999999999999997e-05,-0.00011,0.00011,4e-05,2
5057,5275,0.00016999999999999999,2.9999999999999997e-05,2e-05,-0.00018999999999999998,2.9999999999999997e-05,-0.00011,0.00011,4e-05,2
5058,5276,0.00016999999999999999,2.9999999999999997e-05,2e-05,-0.00018999999999999998,2.9999999999999997e-05,-0.00011,0.00011,4e-05,2
5059,5277,0.00016999999999999999,2.9999999999999997e-05,2e-05,-0.00018999999999999998,2.9999999999999997e-05,-0.00011,0.00011,4e-05,2
5060,5278,0.00016999999999999999,2.9999999999999997e-05,2e-05,-0.00018999999999999998,2.9999999999999997e-05,-0.00011,0.00011,4e-05,2
5061,5279,0.00016999999999999999,2.9999999999999997e-05,2e-05,-0.00018999999999999998,2.9999999999999997e-05,-0.00011,0.00011,4e-05,2
5062,5280,0.00016999999999999999,2.9999999999999997e-05,2e-05,-0.00018999999999999998,2.9999999999999997e-05,-0.00011,0.00011,4e-05,2
5063,5281,0.00016999999999999999,2.9999999999999997e-05,2e-05,-0.00018999999999999998,2.9999999999999997e-05,-0.00011,0.00011,4e-05,2
5064,5282,0.00016999999999999999,2.9999999999999997e-05,2e-05,-0.00018999999999999998,2.9999999999999997e-05,-0.00011,0.00011,4e-05,2
5065,5283,0.00016999999999999999,2.9999999999999997e-05,2e-05,-0.00018999999999999998,2.9999999999999997e-05,-0.00011,0.00011,4e-05,2
5066,5284,0.00016999999999999999,2.9999999999999997e-05,2e-05,-0.00018999999999999998,2.9999999999999997e-05,-0.00011,0.00011,4e-05,2
5067,5285,0.00016999999999999999,2.9999999999999997e-05,2e-05,-0.00018999999999999998,2.9999999999999997e-05,-0.00011,0.00011,4e-05,2
5068,5287,-1e-05,-7e-05,-8e-05,-0.00028,-2e-05,0.00029,-2e-05,0.00015,2
5069,5289,-1e-05,-7e-05,-8e-05,-0.00028,-2e-05,0.00029,-2e-05,0.00015,2
5070,5290,0.00015,9e-05,1e-05,-5e-05,7e-05,-4e-05,-0.0001,5.9999999999999995e-05,2
5071,5291,0.00015,9e-05,1e-05,-5e-05,7e-05,-4e-05,-0.0001,5.9999999999999995e-05,2
5072,5292,0.00015,9e-05,1e-05,-5e-05,7e-05,-4e-05,-0.0001,5.9999999999999995e-05,2
5073,5293,0.00015,9e-05,1e-05,-5e-05,7e-05,-4e-05,-0.0001,5.9999999999999995e-05,2
5074,5294,0.00015,9e-05,1e-05,-5e-05,7e-05,-4e-05,-0.0001,5.9999999999999995e-05,2
5075,5295,0.00015,9e-05,1e-05,-5e-05,7e-05,-4e-05,-0.0001,5.9999999999999995e-05,2
5076,5296,0.00015,9e-05,1e-05,-5e-05,7e-05,-4e-05,-0.0001,5.9999999999999995e-05,2
5077,5297,0.00015,9e-05,1e-05,-5e-05,7e-05,-4e-05,-0.0001,5.9999999999999995e-05,2
5078,5299,0.00015,9e-05,1e-05,-5e-05,7e-05,-4e-05,-0.0001,5.9999999999999995e-05,2
5079,5300,0.00015,9e-05,1e-05,-5e-05,7e-05,-4e-05,-0.0001,5.9999999999999995e-05,2
5080,5301,0.00015,9e-05,1e-05,-5e-05,7e-05,-4e-05,-0.0001,5.9999999999999995e-05,2
5081,5302,0.00015,9e-05,1e-05,-5e-05,7e-05,-4e-05,-0.0001,5.9999999999999995e-05,2
5082,5303,0.00015,9e-05,1e-05,-5e-05,7e-05,-4e-05,-0.0001,5.9999999999999995e-05,2
5083,5304,0.00015,9e-05,1e-05,-5e-05,7e-05,-4e-05,-0.0001,5.9999999999999995e-05,2
5084,5305,0.00015,9e-05,1e-05,-5e-05,7e-05,-4e-05,-0.0001,5.9999999999999995e-05,2
5085,5306,0.00015,9e-05,1e-05,-5e-05,7e-05,-4e-05,-0.0001,5.9999999999999995e-05,2
5086,5307,0.00015,9e-05,1e-05,-5e-05,7e-05,-4e-05,-0.0001,5.9999999999999995e-05,2
5087,5308,0.00015,9e-05,1e-05,-5e-05,7e-05,-4e-05,-0.0001,5.9999999999999995e-05,2
5088,5309,0.00015,9e-05,1e-05,-5e-05,7e-05,-4e-05,-0.0001,5.9999999999999995e-05,2
5089,5310,0.00015,9e-05,1e-05,-5e-05,7e-05,-4e-05,-0.0001,5.9999999999999995e-05,2
5090,5311,-0.00014,-5.9999999999999995e-05,4e-05,0.00022,-2e-05,-0.00027,-0.00031,-0.0001,2
5091,5312,-0.00026000000000000003,-0.00011,-0.00011,-0.0005200000000000001,0.0,0.00014,-1e-05,0.0,2
5092,5313,-0.00026000000000000003,-0.00011,-0.00011,-0.0005200000000000001,0.0,0.00014,-1e-05,0.0,2
5093,5314,-0.00026000000000000003,-0.00011,-0.00011,-0.0005200000000000001,0.0,0.00014,-1e-05,0.0,2
5094,5315,-0.00026000000000000003,-0.00011,-0.00011,-0.0005200000000000001,0.0,0.00014,-1e-05,0.0,2
5095,5316,-0.00026000000000000003,-0.00011,-0.00011,-0.0005200000000000001,0.0,0.00014,-1e-05,0.0,2
5096,5317,-0.00026000000000000003,-0.00011,-0.00011,-0.0005200000000000001,0.0,0.00014,-1e-05,0.0,2
5097,5318,-0.00026000000000000003,-0.00011,-0.00011,-0.0005200000000000001,0.0,0.00014,-1e-05,0.0,2
5098,5319,-0.00026000000000000003,-0.00011,-0.00011,-0.0005200000000000001,0.0,0.00014,-1e-05,0.0,2
5099,5320,-0.00026000000000000003,-0.00011,-0.00011,-0.0005200000000000001,0.0,0.00014,-1e-05,0.0,2
5100,5321,-0.00026000000000000003,-0.00011,-0.00011,-0.0005200000000000001,0.0,0.00014,-1e-05,0.0,2
5101,5322,-0.00026000000000000003,-0.00011,-0.00011,-0.0005200000000000001,0.0,0.00014,-1e-05,0.0,2
5102,5323,-0.00026000000000000003,-0.00011,-0.00011,-0.0005200000000000001,0.0,0.00014,-1e-05,0.0,2
5103,5324,-0.00026000000000000003,-0.00011,-0.00011,-0.0005200000000000001,0.0,0.00014,-1e-05,0.0,2
5104,5325,-4e-05,4e-05,-7e-05,-0.00047000000000000004,-4e-05,-0.00011999999999999999,5.9999999999999995e-05,5.9999999999999995e-05,2
5105,5326,-4e-05,4e-05,-7e-05,-0.00047000000000000004,-4e-05,-0.00011999999999999999,5.9999999999999995e-05,5.9999999999999995e-05,2
5106,5327,4e-05,7e-05,5.9999999999999995e-05,-0.00022999999999999998,-0.00014,0.00016,0.00014,-9e-05,2
5107,5328,4e-05,7e-05,5.9999999999999995e-05,-0.00022999999999999998,-0.00014,0.00016,0.00014,-9e-05,2
5108,5329,4e-05,7e-05,5.9999999999999995e-05,-0.00022999999999999998,-0.00014,0.00016,0.00014,-9e-05,2
5109,5330,4e-05,7e-05,5.9999999999999995e-05,-0.00022999999999999998,-0.00014,0.00016,0.00014,-9e-05,2
5110,5331,4e-05,7e-05,5.9999999999999995e-05,-0.00022999999999999998,-0.00014,0.00016,0.00014,-9e-05,2
5111,5332,4e-05,7e-05,5.9999999999999995e-05,-0.00022999999999999998,-0.00014,0.00016,0.00014,-9e-05,2
5112,5334,4e-05,7e-05,5.9999999999999995e-05,-0.00022999999999999998,-0.00014,0.00016,0.00014,-9e-05,2
5113,5335,4e-05,7e-05,5.9999999999999995e-05,-0.00022999999999999998,-0.00014,0.00016,0.00014,-9e-05,2
5114,5336,4e-05,7e-05,5.9999999999999995e-05,-0.00022999999999999998,-0.00014,0.00016,0.00014,-9e-05,2
5115,5337,4e-05,7e-05,5.9999999999999995e-05,-0.00022999999999999998,-0.00014,0.00016,0.00014,-9e-05,2
5116,5339,4e-05,7e-05,5.9999999999999995e-05,-0.00022999999999999998,-0.00014,0.00016,0.00014,-9e-05,2
5117,5340,4e-05,7e-05,5.9999999999999995e-05,-0.00022999999999999998,-0.00014,0.00016,0.00014,-9e-05,2
5118,5341,4e-05,7e-05,5.9999999999999995e-05,-0.00022999999999999998,-0.00014,0.00016,0.00014,-9e-05,2
5119,5342,4e-05,7e-05,5.9999999999999995e-05,-0.00022999999999999998,-0.00014,0.00016,0.00014,-9e-05,2
5120,5343,4e-05,7e-05,5.9999999999999995e-05,-0.00022999999999999998,-0.00014,0.00016,0.00014,-9e-05,2
5121,5344,4e-05,7e-05,5.9999999999999995e-05,-0.00022999999999999998,-0.00014,0.00016,0.00014,-9e-05,2
5122,5345,4e-05,7e-05,5.9999999999999995e-05,-0.00022999999999999998,-0.00014,0.00016,0.00014,-9e-05,2
5123,5346,4e-05,7e-05,5.9999999999999995e-05,-0.00022999999999999998,-0.00014,0.00016,0.00014,-9e-05,2
5124,5347,4e-05,7e-05,5.9999999999999995e-05,-0.00022999999999999998,-0.00014,0.00016,0.00014,-9e-05,2
5125,5349,-2e-05,0.00011,0.00031,0.00054,-4e-05,-2.9999999999999997e-05,0.00033,2e-05,2
5126,5350,4e-05,-2.9999999999999997e-05,-0.00015,-0.00037,-5e-05,-0.00025,-0.00011999999999999999,2e-05,2
5127,5351,4e-05,-2.9999999999999997e-05,-0.00015,-0.00037,-5e-05,-0.00025,-0.00011999999999999999,2e-05,2
5128,5352,4e-05,-2.9999999999999997e-05,-0.00015,-0.00037,-5e-05,-0.00025,-0.00011999999999999999,2e-05,2
5129,5353,4e-05,-2.9999999999999997e-05,-0.00015,-0.00037,-5e-05,-0.00025,-0.00011999999999999999,2e-05,2
5130,5354,4e-05,-2.9999999999999997e-05,-0.00015,-0.00037,-5e-05,-0.00025,-0.00011999999999999999,2e-05,2
5131,5355,4e-05,-2.9999999999999997e-05,-0.00015,-0.00037,-5e-05,-0.00025,-0.00011999999999999999,2e-05,2
5132,5356,4e-05,-2.9999999999999997e-05,-0.00015,-0.00037,-5e-05,-0.00025,-0.00011999999999999999,2e-05,2
5133,5357,4e-05,-2.9999999999999997e-05,-0.00015,-0.00037,-5e-05,-0.00025,-0.00011999999999999999,2e-05,2
5134,5358,4e-05,-2.9999999999999997e-05,-0.00015,-0.00037,-5e-05,-0.00025,-0.00011999999999999999,2e-05,2
5135,5359,4e-05,-2.9999999999999997e-05,-0.00015,-0.00037,-5e-05,-0.00025,-0.00011999999999999999,2e-05,2
5136,5360,4e-05,-2.9999999999999997e-05,-0.00015,-0.00037,-5e-05,-0.00025,-0.00011999999999999999,2e-05,2
5137,5361,4e-05,-2.9999999999999997e-05,-0.00015,-0.00037,-5e-05,-0.00025,-0.00011999999999999999,2e-05,2
5138,5362,4e-05,-2.9999999999999997e-05,-0.00015,-0.00037,-5e-05,-0.00025,-0.00011999999999999999,2e-05,2
