,time,channel1,channel2,channel3,channel4,channel5,channel6,channel7,channel8,class
4611,4847,0.0,-5e-05,-0.00015,5e-05,-1e-05,2.9999999999999997e-05,-0.00018,-0.00014,2
4612,4848,0.0,-5e-05,-0.00015,5e-05,-1e-05,2.9999999999999997e-05,-0.00018,-0.00014,2
4613,4849,0.0,-5e-05,-0.00015,5e-05,-1e-05,2.9999999999999997e-05,-0.00018,-0.00014,2
4614,4850,0.0,-5e-05,-0.00015,5e-05,-1e-05,2.9999999999999997e-05,-0.00018,-0.00014,2
4615,4851,0.0,-5e-05,-0.00015,5e-05,-1e-05,2.9999999999999997e-05,-0.00018,-0.00014,2
4616,4852,0.0,-5e-05,-0.00015,5e-05,-1e-05,2.9999999999999997e-05,-0.00018,-0.00014,2
4617,4853,0.0,-5e-05,-0.00015,5e-05,-1e-05,2.9999999999999997e-05,-0.00018,-0.00014,2
4618,4854,0.0,-5e-05,-0.00015,5e-05,-1e-05,2.9999999999999997e-05,-0.00018,-0.00014,2
4619,4855,0.0,-5e-05,-0.00015,5e-05,-1e-05,2.9999999999999997e-05,-0.00018,-0.00014,2
4620,4856,0.0,-5e-05,-0.00015,5e-05,-1e-05,2.9999999999999997e-05,-0.00018,-0.00014,2
4621,4857,0.0,-5e-05,-0.00015,5e-05,-1e-05,2.9999999999999997e-05,-0.00018,-0.00014,2
4622,4858,0.0,-5e-05,-0.00015,5e-05,-1e-05,2.9999999999999997e-05,-0.00018,-0.00014,2
4623,4859,0.0,-5e-05,-0.00015,5e-05,-1e-05,2.9999999999999997e-05,-0.00018,-0.00014,2
4624,4860,0.0,-5e-05,-0.00015,5e-05,-1e-05,2.9999999999999997e-05,-0.00018,-0.00014,2
4625,4861,0.0,-5e-05,-0.00015,5e-05,-1e-05,2.9999999999999997e-05,-0.00018,-0.00014,2
4626,4862,0.0,-5e-05,-0.00015,5e-05,-1e-05,2.9999999999999997e-05,-0.00018,-0.00014,2
4627,4863,0.0,-5e-05,-0.00015,5e-05,-1e-05,2.9999999999999997e-05,-0.00018,-0.00014,2
4628,4864,-4e-05,2e-05,2e-05,-0.0001,5.9999999999999995e-05,2.9999999999999997e-05,-7e-05,-4e-05,2
4629,4865,8e-05,-1e-05,-2e-05,-4e-05,-5e-05,-8e-05,-2e-05,2e-05,2
4630,4866,8e-05,-1e-05,-2e-05,-4e-05,-5e-05,-8e-05,-2e-05,2e-05,2
4631,4867,8e-05,-1e-05,-2e-05,-4e-05,-5e-05,-8e-05,-2e-05,2e-05,2
4632,4868,8e-05,-1e-05,-2e-05,-4e-05,-5e-05,-8e-05,-2e-05,2e-05,2
4633,4869,8e-05,-1e-05,-2e-05,-4e-05,-5e-05,-8e-05,-2e-05,2e-05,2
4634,4870,8e-05,-1e-05,-2e-05,-4e-05,-5e-05,-8e-05,-2e-05,2e-05,2
4635,4871,8e-05,-1e-05,-2e-05,-4e-05,-5e-05,-8e-05,-2e-05,2e-05,2
4636,4872,8e-05,-1e-05,-2e-05,-4e-05,-5e-05,-8e-05,-2e-05,2e-05,2
4637,4873,8e-05,-1e-05,-2e-05,-4e-05,-5e-05,-8e-05,-2e-05,2e-05,2
4638,4874,8e-05,-1e-05,-2e-05,-4e-05,-5e-05,-8e-05,-2e-05,2e-05,2
4639,4875,8e-05,-1e-05,-2e-05,-4e-05,-5e-05,-8e-05,-2e-05,2e-05,2
4640,4876,8e-05,-1e-05,-2e-05,-4e-05,-5e-05,-8e-05,-2e-05,2e-05,2
4641,4877,1e-05,-4e-05,-5e-05,2.9999999999999997e-05,-4e-05,-5e-05,9e-05,-1e-05,2
4642,4878,1e-05,-4e-05,-5e-05,2.9999999999999997e-05,-4e-05,-5e-05,9e-05,-1e-05,2
4643,4879,1e-05,-4e-05,-5e-05,2.9999999999999997e-05,-4e-05,-5e-05,9e-05,-1e-05,2
4644,4880,1e-05,-4e-05,-5e-05,2.9999999999999997e-05,-4e-05,-5e-05,9e-05,-1e-05,2
4645,4881,1e-05,-4e-05,-5e-05,2.9999999999999997e-05,-4e-05,-5e-05,9e-05,-1e-05,2
4646,4882,1e-05,-4e-05,-5e-05,2.9999999999999997e-05,-4e-05,-5e-05,9e-05,-1e-05,2
4647,4883,1e-05,-4e-05,-5e-05,2.9999999999999997e-05,-4e-05,-5e-05,9e-05,-1e-05,2
4648,4884,0.0001,-2.9999999999999997e-05,-0.00011,-1e-05,0.00011,0.00011999999999999999,0.00042,9e-05,2
4649,4885,0.0001,-2.9999999999999997e-05,-0.00011,-1e-05,0.00011,0.00011999999999999999,0.00042,9e-05,2
4650,4886,0.0001,-2.9999999999999997e-05,-0.00011,-1e-05,0.00011,0.00011999999999999999,0.00042,9e-05,2
4651,4889,0.0001,-2.9999999999999997e-05,-0.00011,-1e-05,0.00011,0.00011999999999999999,0.00042,9e-05,2
4652,4890,0.0001,-2.9999999999999997e-05,-0.00011,-1e-05,0.00011,0.00011999999999999999,0.00042,9e-05,2
4653,4891,0.0001,-2.9999999999999997e-05,-0.00011,-1e-05,0.00011,0.00011999999999999999,0.00042,9e-05,2
4654,4892,0.0001,-2.9999999999999997e-05,-0.00011,-1e-05,0.00011,0.00011999999999999999,0.00042,9e-05,2
4655,4893,0.0001,-2.9999999999999997e-05,-0.00011,-1e-05,0.00011,0.00011999999999999999,0.00042,9e-05,2
4656,4894,0.0001,-2.9999999999999997e-05,-0.00011,-1e-05,0.00011,0.00011999999999999999,0.00042,9e-05,2
4657,4895,0.0001,-2.9999999999999997e-05,-0.00011,-1e-05,0.00011,0.00011999999999999999,0.00042,9e-05,2
4658,4896,0.0001,-2.9999999999999997e-05,-0.00011,-1e-05,0.00011,0.00011999999999999999,0.00042,9e-05,2
4659,4897,0.0001,-2.9999999999999997e-05,-0.00011,-1e-05,0.00011,0.00011999999999999999,0.00042,9e-05,2
4660,4898,0.0001,-2.9999999999999997e-05,-0.00011,-1e-05,0.00011,0.00011999999999999999,0.00042,9e-05,2
4661,4899,0.0001,-2.9999999999999997e-05,-0.00011,-1e-05,0.00011,0.00011999999999999999,0.00042,9e-05,2
4662,4900,-2.9999999999999997e-05,-2.9999999999999997e-05,-5.9999999999999995e-05,1e-05,1e-05,2.9999999999999997e-05,0.0001,2.9999999999999997e-05,2
4663,4901,-2.9999999999999997e-05,-2.9999999999999997e-05,-5.9999999999999995e-05,1e-05,1e-05,2.9999999999999997e-05,0.0001,2.9999999999999997e-05,2
4664,4902,-8e-05,2.9999999999999997e-05,0.0001,9e-05,-1e-05,7e-05,-0.00014,4e-05,2
4665,4903,-8e-05,2.9999999999999997e-05,0.0001,9e-05,-1e-05,7e-05,-0.00014,4e-05,2
4666,4904,-8e-05,2.9999999999999997e-05,0.0001,9e-05,-1e-05,7e-05,-0.00014,4e-05,2
4667,4905,-8e-05,2.9999999999999997e-05,0.0001,9e-05,-1e-05,7e-05,-0.00014,4e-05,2
4668,4906,-8e-05,2.9999999999999997e-05,0.0001,9e-05,-1e-05,7e-05,-0.00014,4e-05,2
4669,4907,-8e-05,2.9999999999999997e-05,0.0001,9e-05,-1e-05,7e-05,-0.00014,4e-05,2
4670,4908,-8e-05,2.9999999999999997e-05,0.0001,9e-05,-1e-05,7e-05,-0.00014,4e-05,2
4671,4909,-8e-05,2.9999999999999997e-05,0.0001,9e-05,-1e-05,7e-05,-0.00014,4e-05,2
4672,4910,-8e-05,2.9999999999999997e-05,0.0001,9e-05,-1e-05,7e-05,-0.00014,4e-05,2
4673,4911,-8e-05,2.9999999999999997e-05,0.0001,9e-05,-1e-05,7e-05,-0.00014,4e-05,2
4674,4912,-8e-05,2.9999999999999997e-05,0.0001,9e-05,-1e-05,7e-05,-0.00014,4e-05,2
4675,4913,-8e-05,2.9999999999999997e-05,0.0001,9e-05,-1e-05,7e-05,-0.00014,4e-05,2
4676,4914,-8e-05,2.9999999999999997e-05,0.0001,9e-05,-1e-05,7e-05,-0.00014,4e-05,2
4677,4915,-8e-05,2.9999999999999997e-05,0.0001,9e-05,-1e-05,7e-05,-0.00014,4e-05,2
4678,4916,-8e-05,2.9999999999999997e-05,0.0001,9e-05,-1e-05,7e-05,-0.00014,4e-05,2
4679,4917,-8e-05,2.9999999999999997e-05,0.0001,9e-05,-1e-05,7e-05,-0.00014,4e-05,2
4680,4918,-8e-05,2.9999999999999997e-05,0.0001,9e-05,-1e-05,7e-05,-0.00014,4e-05,2
4681,4919,-8e-05,2.9999999999999997e-05,0.0001,9e-05,-1e-05,7e-05,-0.00014,4e-05,2
4682,4920,-8e-05,2.9999999999999997e-05,0.0001,9e-05,-1e-05,7e-05,-0.00014,4e-05,2
4683,4921,-8e-05,2.9999999999999997e-05,0.0001,9e-05,-1e-05,7e-05,-0.00014,4e-05,2
4684,4922,-8e-05,2.9999999999999997e-05,0.0001,9e-05,-1e-05,7e-05,-0.00014,4e-05,2
4685,4923,-5.9999999999999995e-05,-2e-05,-5e-05,-8e-05,-0.00011,-2.9999999999999997e-05,9e-05,0.0,2
4686,4924,5.9999999999999995e-05,5.9999999999999995e-05,-2e-05,-2e-05,-4e-05,0.00016999999999999999,-0.00023999999999999998,-5e-05,2
4687,4925,5.9999999999999995e-05,5.9999999999999995e-05,-2e-05,-2e-05,-4e-05,0.00016999999999999999,-0.00023999999999999998,-5e-05,2
4688,4926,5.9999999999999995e-05,5.9999999999999995e-05,-2e-05,-2e-05,-4e-05,0.00016999999999999999,-0.00023999999999999998,-5e-05,2
4689,4927,5.9999999999999995e-05,5.9999999999999995e-05,-2e-05,-2e-05,-4e-05,0.00016999999999999999,-0.00023999999999999998,-5e-05,2
4690,4928,5.9999999999999995e-05,5.9999999999999995e-05,-2e-05,-2e-05,-4e-05,0.00016999999999999999,-0.00023999999999999998,-5e-05,2
4691,4929,5.9999999999999995e-05,5.9999999999999995e-05,-2e-05,-2e-05,-4e-05,0.00016999999999999999,-0.00023999999999999998,-5e-05,2
4692,4930,5.9999999999999995e-05,5.9999999999999995e-05,-2e-05,-2e-05,-4e-05,0.00016999999999999999,-0.00023999999999999998,-5e-05,2
4693,4931,5.9999999999999995e-05,5.9999999999999995e-05,-2e-05,-2e-05,-4e-05,0.00016999999999999999,-0.00023999999999999998,-5e-05,2
4694,4932,5.9999999999999995e-05,5.9999999999999995e-05,-2e-05,-2e-05,-4e-05,0.00016999999999999999,-0.00023999999999999998,-5e-05,2
4695,4933,5.9999999999999995e-05,5.9999999999999995e-05,-2e-05,-2e-05,-4e-05,0.00016999999999999999,-0.00023999999999999998,-5e-05,2
4696,4934,5.9999999999999995e-05,5.9999999999999995e-05,-2e-05,-2e-05,-4e-05,0.00016999999999999999,-0.00023999999999999998,-5e-05,2
4697,4935,5.9999999999999995e-05,5.9999999999999995e-05,-2e-05,-2e-05,-4e-05,0.00016999999999999999,-0.00023999999999999998,-5e-05,2
4698,4936,5.9999999999999995e-05,5.9999999999999995e-05,-2e-05,-2e-05,-4e-05,0.00016999999999999999,-0.00023999999999999998,-5e-05,2
4699,4939,-0.00011999999999999999,1e-05,8e-05,7e-05,2.9999999999999997e-05,-8e-05,-0.00013000000000000002,-0.0001,2
4700,4940,-0.00011999999999999999,1e-05,8e-05,7e-05,2.9999999999999997e-05,-8e-05,-0.00013000000000000002,-0.0001,2
4701,4941,-0.00011999999999999999,1e-05,8e-05,7e-05,2.9999999999999997e-05,-8e-05,-0.00013000000000000002,-0.0001,2
4702,4942,-0.00011999999999999999,1e-05,8e-05,7e-05,2.9999999999999997e-05,-8e-05,-0.00013000000000000002,-0.0001,2
4703,4943,-0.00011999999999999999,1e-05,8e-05,7e-05,2.9999999999999997e-05,-8e-05,-0.00013000000000000002,-0.0001,2
4704,4944,-5.9999999999999995e-05,-7e-05,-0.00011999999999999999,-0.00039,-5e-05,-2e-05,-5e-05,-8e-05,2
4705,4945,-5.9999999999999995e-05,-7e-05,-0.00011999999999999999,-0.00039,-5e-05,-2e-05,-5e-05,-8e-05,2
4706,4946,-5.9999999999999995e-05,-7e-05,-0.00011999999999999999,-0.00039,-5e-05,-2e-05,-5e-05,-8e-05,2
4707,4947,-5.9999999999999995e-05,-7e-05,-0.00011999999999999999,-0.00039,-5e-05,-2e-05,-5e-05,-8e-05,2
4708,4948,-5.9999999999999995e-05,-7e-05,-0.00011999999999999999,-0.00039,-5e-05,-2e-05,-5e-05,-8e-05,2
4709,4949,-5.9999999999999995e-05,-7e-05,-0.00011999999999999999,-0.00039,-5e-05,-2e-05,-5e-05,-8e-05,2
4710,4950,-5.9999999999999995e-05,-7e-05,-0.00011999999999999999,-0.00039,-5e-05,-2e-05,-5e-05,-8e-05,2
4711,4951,-5.9999999999999995e-05,-7e-05,-0.00011999999999999999,-0.00039,-5e-05,-2e-05,-5e-05,-8e-05,2
4712,4952,-5.9999999999999995e-05,-7e-05,-0.00011999999999999999,-0.00039,-5e-05,-2e-05,-5e-05,-8e-05,2
4713,4953,-5.9999999999999995e-05,-7e-05,-0.00011999999999999999,-0.00039,-5e-05,-2e-05,-5e-05,-8e-05,2
4714,4954,-5.9999999999999995e-05,-7e-05,-0.00011999999999999999,-0.00039,-5e-05,-2e-05,-5e-05,-8e-05,2
4715,4955,-5.9999999999999995e-05,-7e-05,-0.00011999999999999999,-0.00039,-5e-05,-2e-05,-5e-05,-8e-05,2
4716,4956,-5.9999999999999995e-05,-7e-05,-0.00011999999999999999,-0.00039,-5e-05,-2e-05,-5e-05,-8e-05,2
4717,4957,-5.9999999999999995e-05,-7e-05,-0.00011999999999999999,-0.00039,-5e-05,-2e-05,-5e-05,-8e-05,2
4718,4958,-5.9999999999999995e-05,-7e-05,-0.00011999999999999999,-0.00039,-5e-05,-2e-05,-5e-05,-8e-05,2
4719,4959,-5.9999999999999995e-05,-7e-05,-0.00011999999999999999,-0.00039,-5e-05,-2e-05,-5e-05,-8e-05,2
4720,4960,-5.9999999999999995e-05,-7e-05,-0.00011999999999999999,-0.00039,-5e-05,-2e-05,-5e-05,-8e-05,2
4721,4961,-5.9999999999999995e-05,-7e-05,-0.00011999999999999999,-0.00039,-5e-05,-2e-05,-5e-05,-8e-05,2
4722,4962,-5.9999999999999995e-05,-7e-05,-0.00011999999999999999,-0.00039,-5e-05,-2e-05,-5e-05,-8e-05,2
4723,4963,-5.9999999999999995e-05,-7e-05,-0.00011999999999999999,-0.00039,-5e-05,-2e-05,-5e-05,-8e-05,2
4724,4964,-5.9999999999999995e-05,-7e-05,-0.00011999999999999999,-0.00039,-5e-05,-2e-05,-5e-05,-8e-05,2
4725,4965,-5.9999999999999995e-05,-7e-05,-0.00011999999999999999,-0.00039,-5e-05,-2e-05,-5e-05,-8e-05,2
4726,4966,-5.9999999999999995e-05,-7e-05,-0.00011999999999999999,-0.00039,-5e-05,-2e-05,-5e-05,-8e-05,2
4727,4967,-5.9999999999999995e-05,-7e-05,-0.00011999999999999999,-0.00039,-5e-05,-2e-05,-5e-05,-8e-05,2
4728,4968,5e-05,2e-05,-1e-05,-2e-05,-4e-05,0.0,7e-05,-1e-05,2
4729,4969,0.0,2.9999999999999997e-05,-5e-05,-1e-05,0.0001,1e-05,2.9999999999999997e-05,-8e-05,2
4730,4970,-2.9999999999999997e-05,0.0,0.00011999999999999999,0.00011999999999999999,-4e-05,-0.00011,-2e-05,4e-05,2
4731,4971,-2.9999999999999997e-05,0.0,0.00011999999999999999,0.00011999999999999999,-4e-05,-0.00011,-2e-05,4e-05,2
4732,4972,-2.9999999999999997e-05,0.0,0.00011999999999999999,0.00011999999999999999,-4e-05,-0.00011,-2e-05,4e-05,2
4733,4973,-2.9999999999999997e-05,0.0,0.00011999999999999999,0.00011999999999999999,-4e-05,-0.00011,-2e-05,4e-05,2
4734,4974,-2.9999999999999997e-05,0.0,0.00011999999999999999,0.00011999999999999999,-4e-05,-0.00011,-2e-05,4e-05,2
4735,4975,-2.9999999999999997e-05,0.0,0.00011999999999999999,0.00011999999999999999,-4e-05,-0.00011,-2e-05,4e-05,2
4736,4976,-2.9999999999999997e-05,0.0,0.00011999999999999999,0.00011999999999999999,-4e-05,-0.00011,-2e-05,4e-05,2
4737,4977,-2.9999999999999997e-05,0.0,0.00011999999999999999,0.00011999999999999999,-4e-05,-0.00011,-2e-05,4e-05,2
4738,4978,-2.9999999999999997e-05,0.0,0.00011999999999999999,0.00011999999999999999,-4e-05,-0.00011,-2e-05,4e-05,2
4739,4979,-2.9999999999999997e-05,0.0,0.00011999999999999999,0.00011999999999999999,-4e-05,-0.00011,-2e-05,4e-05,2
4740,4980,-2.9999999999999997e-05,0.0,0.00011999999999999999,0.00011999999999999999,-4e-05,-0.00011,-2e-05,4e-05,2
4741,4981,-2.9999999999999997e-05,0.0,0.00011999999999999999,0.00011999999999999999,-4e-05,-0.00011,-2e-05,4e-05,2
4742,4982,-2.9999999999999997e-05,0.0,0.00011999999999999999,0.00011999999999999999,-4e-05,-0.00011,-2e-05,4e-05,2
4743,4983,0.0,-5.9999999999999995e-05,-5e-05,2e-05,0.0,-8e-05,-0.00027,-7e-05,2
4744,4984,-5e-05,-4e-05,5e-05,5.9999999999999995e-05,-7e-05,-9e-05,2.9999999999999997e-05,-4e-05,2
4745,4985,-5e-05,-4e-05,5e-05,5.9999999999999995e-05,-7e-05,-9e-05,2.9999999999999997e-05,-4e-05,2
4746,4986,-5e-05,-4e-05,5e-05,5.9999999999999995e-05,-7e-05,-9e-05,2.9999999999999997e-05,-4e-05,2
4747,4988,-5e-05,-4e-05,5e-05,5.9999999999999995e-05,-7e-05,-9e-05,2.9999999999999997e-05,-4e-05,2
4748,4989,-5e-05,-4e-05,5e-05,5.9999999999999995e-05,-7e-05,-9e-05,2.9999999999999997e-05,-4e-05,2
4749,4990,-5e-05,-4e-05,5e-05,5.9999999999999995e-05,-7e-05,-9e-05,2.9999999999999997e-05,-4e-05,2
4750,4991,-5e-05,-4e-05,5e-05,5.9999999999999995e-05,-7e-05,-9e-05,2.9999999999999997e-05,-4e-05,2
4751,4992,-5e-05,-4e-05,5e-05,5.9999999999999995e-05,-7e-05,-9e-05,2.9999999999999997e-05,-4e-05,2
4752,4993,-5e-05,-4e-05,5e-05,5.9999999999999995e-05,-7e-05,-9e-05,2.9999999999999997e-05,-4e-05,2
4753,4994,-5e-05,-4e-05,5e-05,5.9999999999999995e-05,-7e-05,-9e-05,2.9999999999999997e-05,-4e-05,2
4754,4995,-5e-05,-4e-05,5e-05,5.9999999999999995e-05,-7e-05,-9e-05,2.9999999999999997e-05,-4e-05,2
4755,4996,-5e-05,-4e-05,5e-05,5.9999999999999995e-05,-7e-05,-9e-05,2.9999999999999997e-05,-4e-05,2
4756,4997,-5e-05,-4e-05,5e-05,5.9999999999999995e-05,-7e-05,-9e-05,2.9999999999999997e-05,-4e-05,2
4757,4998,0.0,0.0,-2e-05,5.9999999999999995e-05,8e-05,2.9999999999999997e-05,7e-05,-5.9999999999999995e-05,2
4758,4999,0.0,0.0,-2e-05,5.9999999999999995e-05,8e-05,2.9999999999999997e-05,7e-05,-5.9999999999999995e-05,2
4759,5000,0.0,0.0,-2e-05,5.9999999999999995e-05,8e-05,2.9999999999999997e-05,7e-05,-5.9999999999999995e-05,2
4760,5001,0.0,0.0,-2e-05,5.9999999999999995e-05,8e-05,2.9999999999999997e-05,7e-05,-5.9999999999999995e-05,2
4761,5002,0.0,0.0,-2e-05,5.9999999999999995e-05,8e-05,2.9999999999999997e-05,7e-05,-5.9999999999999995e-05,2
4762,5003,0.0,0.0,-2e-05,5.9999999999999995e-05,8e-05,2.9999999999999997e-05,7e-05,-5.9999999999999995e-05,2
4763,5004,0.0,0.0,-2e-05,5.9999999999999995e-05,8e-05,2.9999999999999997e-05,7e-05,-5.9999999999999995e-05,2
4764,5005,-5.9999999999999995e-05,-1e-05,-4e-05,9e-05,2.9999999999999997e-05,-0.00027,-1e-05,-0.0001,2
4765,5006,-5.9999999999999995e-05,-1e-05,-4e-05,9e-05,2.9999999999999997e-05,-0.00027,-1e-05,-0.0001,2
4766,5007,-5.9999999999999995e-05,-1e-05,-4e-05,9e-05,2.9999999999999997e-05,-0.00027,-1e-05,-0.0001,2
4767,5008,-5.9999999999999995e-05,-1e-05,-4e-05,9e-05,2.9999999999999997e-05,-0.00027,-1e-05,-0.0001,2
4768,5009,-5.9999999999999995e-05,-1e-05,-4e-05,9e-05,2.9999999999999997e-05,-0.00027,-1e-05,-0.0001,2
4769,5010,-5.9999999999999995e-05,-1e-05,-4e-05,9e-05,2.9999999999999997e-05,-0.00027,-1e-05,-0.0001,2
4770,5011,-5.9999999999999995e-05,-1e-05,-4e-05,9e-05,2.9999999999999997e-05,-0.00027,-1e-05,-0.0001,2
4771,5012,-5.9999999999999995e-05,-1e-05,-4e-05,9e-05,2.9999999999999997e-05,-0.00027,-1e-05,-0.0001,2
4772,5013,-5.9999999999999995e-05,-1e-05,-4e-05,9e-05,2.9999999999999997e-05,-0.00027,-1e-05,-0.0001,2
4773,5014,-5.9999999999999995e-05,-1e-05,-4e-05,9e-05,2.9999999999999997e-05,-0.00027,-1e-05,-0.0001,2
4774,5015,-5.9999999999999995e-05,-1e-05,-4e-05,9e-05,2.9999999999999997e-05,-0.00027,-1e-05,-0.0001,2
4775,5016,-5.9999999999999995e-05,-1e-05,-4e-05,9e-05,2.9999999999999997e-05,-0.00027,-1e-05,-0.0001,2
4776,5017,-5.9999999999999995e-05,-1e-05,-4e-05,9e-05,2.9999999999999997e-05,-0.00027,-1e-05,-0.0001,2
4777,5018,-5.9999999999999995e-05,-1e-05,-4e-05,9e-05,2.9999999999999997e-05,-0.00027,-1e-05,-0.0001,2
4778,5019,-5.9999999999999995e-05,-1e-05,-4e-05,9e-05,2.9999999999999997e-05,-0.00027,-1e-05,-0.0001,2
4779,5020,8e-05,1e-05,-1e-05,-5.9999999999999995e-05,-1e-05,7e-05,0.0003,0.00011999999999999999,2
4780,5021,8e-05,1e-05,-1e-05,-5.9999999999999995e-05,-1e-05,7e-05,0.0003,0.00011999999999999999,2
4781,5022,1e-05,1e-05,2.9999999999999997e-05,8e-05,1e-05,2.9999999999999997e-05,2.9999999999999997e-05,1e-05,2
4782,5023,1e-05,1e-05,2.9999999999999997e-05,8e-05,1e-05,2.9999999999999997e-05,2.9999999999999997e-05,1e-05,2
4783,5024,1e-05,1e-05,2.9999999999999997e-05,8e-05,1e-05,2.9999999999999997e-05,2.9999999999999997e-05,1e-05,2
4784,5025,1e-05,1e-05,2.9999999999999997e-05,8e-05,1e-05,2.9999999999999997e-05,2.9999999999999997e-05,1e-05,2
4785,5026,1e-05,1e-05,2.9999999999999997e-05,8e-05,1e-05,2.9999999999999997e-05,2.9999999999999997e-05,1e-05,2
4786,5027,1e-05,1e-05,2.9999999999999997e-05,8e-05,1e-05,2.9999999999999997e-05,2.9999999999999997e-05,1e-05,2
4787,5028,1e-05,1e-05,2.9999999999999997e-05,8e-05,1e-05,2.9999999999999997e-05,2.9999999999999997e-05,1e-05,2
4788,5029,1e-05,1e-05,2.9999999999999997e-05,8e-05,1e-05,2.9999999999999997e-05,2.9999999999999997e-05,1e-05,2
4789,5030,1e-05,1e-05,2.9999999999999997e-05,8e-05,1e-05,2.9999999999999997e-05,2.9999999999999997e-05,1e-05,2
4790,5031,1e-05,1e-05,2.9999999999999997e-05,8e-05,1e-05,2.9999999999999997e-05,2.9999999999999997e-05,1e-05,2
4791,5033,1e-05,1e-05,2.9999999999999997e-05,8e-05,1e-05,2.9999999999999997e-05,2.9999999999999997e-05,1e-05,2
4792,5034,1e-05,1e-05,2.9999999999999997e-05,8e-05,1e-05,2.9999999999999997e-05,2.9999999999999997e-05,1e-05,2
4793,5035,1e-05,1e-05,2.9999999999999997e-05,8e-05,1e-05,2.9999999999999997e-05,2.9999999999999997e-05,1e-05,2
4794,5036,1e-05,1e-05,2.9999999999999997e-05,8e-05,1e-05,2.9999999999999997e-05,2.9999999999999997e-05,1e-05,2
4795,5038,1e-05,1e-05,2.9999999999999997e-05,8e-05,1e-05,2.9999999999999997e-05,2.9999999999999997e-05,1e-05,2
4796,5039,1e-05,1e-05,2.9999999999999997e-05,8e-05,1e-05,2.9999999999999997e-05,2.9999999999999997e-05,1e-05,2
4797,5040,1e-05,1e-05,2.9999999999999997e-05,8e-05,1e-05,2.9999999999999997e-05,2.9999999999999997e-05,1e-05,2
4798,5041,1e-05,1e-05,2.9999999999999997e-05,8e-05,1e-05,2.9999999999999997e-05,2.9999999999999997e-05,1e-05,2
4799,5042,1e-05,1e-05,2.9999999999999997e-05,8e-05,1e-05,2.9999999999999997e-05,2.9999999999999997e-05,1e-05,2
4800,5043,1e-05,1e-05,2.9999999999999997e-05,8e-05,1e-05,2.9999999999999997e-05,2.9999999999999997e-05,1e-05,2
4801,5044,1e-05,1e-05,2.9999999999999997e-05,8e-05,1e-05,2.9999999999999997e-05,2.9999999999999997e-05,1e-05,2
4802,5045,1e-05,1e-05,2.9999999999999997e-05,8e-05,1e-05,2.9999999999999997e-05,2.9999999999999997e-05,1e-05,2
4803,5046,1e-05,1e-05,2.9999999999999997e-05,8e-05,1e-05,2.9999999999999997e-05,2.9999999999999997e-05,1e-05,2
4804,5047,1e-05,1e-05,2.9999999999999997e-05,8e-05,1e-05,2.9999999999999997e-05,2.9999999999999997e-05,1e-05,2
4805,5048,1e-05,1e-05,2.9999999999999997e-05,8e-05,1e-05,2.9999999999999997e-05,2.9999999999999997e-05,1e-05,2
4806,5049,1e-05,1e-05,2.9999999999999997e-05,8e-05,1e-05,2.9999999999999997e-05,2.9999999999999997e-05,1e-05,2
4807,5050,-2e-05,1e-05,0.0001,0.0002,1e-05,0.0001,0.00035,2.9999999999999997e-05,2
4808,5051,-2e-05,1e-05,0.0001,0.0002,1e-05,0.0001,0.00035,2.9999999999999997e-05,2
4809,5052,0.0,1e-05,-1e-05,-0.00027,-5e-05,2.9999999999999997e-05,8e-05,7e-05,2
4810,5053,0.0,1e-05,-1e-05,-0.00027,-5e-05,2.9999999999999997e-05,8e-05,7e-05,2
4811,5054,0.0,1e-05,-1e-05,-0.00027,-5e-05,2.9999999999999997e-05,8e-05,7e-05,2
4812,5055,0.0,1e-05,-1e-05,-0.00027,-5e-05,2.9999999999999997e-05,8e-05,7e-05,2
4813,5056,0.0,1e-05,-1e-05,-0.00027,-5e-05,2.9999999999999997e-05,8e-05,7e-05,2
4814,5057,-0.00016,-1e-05,4e-05,0.00014,-5e-05,2.9999999999999997e-05,-0.00025,-0.00025,2
4815,5058,-0.00016,-1e-05,4e-05,0.00014,-5e-05,2.9999999999999997e-05,-0.00025,-0.00025,2
4816,5059,-0.00016,-1e-05,4e-05,0.00014,-5e-05,2.9999999999999997e-05,-0.00025,-0.00025,2
4817,5060,-0.00016,-1e-05,4e-05,0.00014,-5e-05,2.9999999999999997e-05,-0.00025,-0.00025,2
4818,5061,-0.00016,-1e-05,4e-05,0.00014,-5e-05,2.9999999999999997e-05,-0.00025,-0.00025,2
4819,5062,-0.00016,-1e-05,4e-05,0.00014,-5e-05,2.9999999999999997e-05,-0.00025,-0.00025,2
4820,5063,-0.00016,-1e-05,4e-05,0.00014,-5e-05,2.9999999999999997e-05,-0.00025,-0.00025,2
4821,5064,-4e-05,-4e-05,0.0,8e-05,2e-05,2e-05,1e-05,-2e-05,2
4822,5065,-4e-05,-4e-05,0.0,8e-05,2e-05,2e-05,1e-05,-2e-05,2
4823,5066,-4e-05,-4e-05,0.0,8e-05,2e-05,2e-05,1e-05,-2e-05,2
4824,5067,-4e-05,-4e-05,0.0,8e-05,2e-05,2e-05,1e-05,-2e-05,2
4825,5068,-4e-05,-4e-05,0.0,8e-05,2e-05,2e-05,1e-05,-2e-05,2
4826,5069,-4e-05,-4e-05,0.0,8e-05,2e-05,2e-05,1e-05,-2e-05,2
4827,5070,-4e-05,-4e-05,0.0,8e-05,2e-05,2e-05,1e-05,-2e-05,2
4828,5071,-4e-05,-4e-05,0.0,8e-05,2e-05,2e-05,1e-05,-2e-05,2
4829,5072,-4e-05,-4e-05,0.0,8e-05,2e-05,2e-05,1e-05,-2e-05,2
4830,5073,-4e-05,-4e-05,0.0,8e-05,2e-05,2e-05,1e-05,-2e-05,2
4831,5075,-4e-05,-4e-05,0.0,8e-05,2e-05,2e-05,1e-05,-2e-05,2
4832,5076,-4e-05,-4e-05,0.0,8e-05,2e-05,2e-05,1e-05,-2e-05,2
4833,5078,-4e-05,-4e-05,0.0,8e-05,2e-05,2e-05,1e-05,-2e-05,2
4834,5079,-4e-05,-4e-05,0.0,8e-05,2e-05,2e-05,1e-05,-2e-05,2
4835,5080,0.0,2.9999999999999997e-05,8e-05,-1e-05,-0.00015,-7e-05,-0.00016999999999999999,1e-05,2
4836,5081,0.0,2.9999999999999997e-05,8e-05,-1e-05,-0.00015,-7e-05,-0.00016999999999999999,1e-05,2
4837,5082,7e-05,0.0,-5.9999999999999995e-05,1e-05,8e-05,1e-05,-2e-05,-2e-05,2
4838,5083,7e-05,0.0,-5.9999999999999995e-05,1e-05,8e-05,1e-05,-2e-05,-2e-05,2
4839,5084,7e-05,0.0,-5.9999999999999995e-05,1e-05,8e-05,1e-05,-2e-05,-2e-05,2
4840,5085,7e-05,0.0,-5.9999999999999995e-05,1e-05,8e-05,1e-05,-2e-05,-2e-05,2
4841,5086,7e-05,0.0,-5.9999999999999995e-05,1e-05,8e-05,1e-05,-2e-05,-2e-05,2
4842,5088,7e-05,0.0,-5.9999999999999995e-05,1e-05,8e-05,1e-05,-2e-05,-2e-05,2
4843,5090,7e-05,0.0,-5.9999999999999995e-05,1e-05,8e-05,1e-05,-2e-05,-2e-05,2
4844,5091,7e-05,0.0,-5.9999999999999995e-05,1e-05,8e-05,1e-05,-2e-05,-2e-05,2
4845,5092,7e-05,0.0,-5.9999999999999995e-05,1e-05,8e-05,1e-05,-2e-05,-2e-05,2
4846,5093,7e-05,0.0,-5.9999999999999995e-05,1e-05,8e-05,1e-05,-2e-05,-2e-05,2
4847,5094,7e-05,0.0,-5.9999999999999995e-05,1e-05,8e-05,1e-05,-2e-05,-2e-05,2
4848,5095,7e-05,0.0,-5.9999999999999995e-05,1e-05,8e-05,1e-05,-2e-05,-2e-05,2
4849,5096,7e-05,0.0,-5.9999999999999995e-05,1e-05,8e-05,1e-05,-2e-05,-2e-05,2
4850,5097,7e-05,0.0,-5.9999999999999995e-05,1e-05,8e-05,1e-05,-2e-05,-2e-05,2
4851,5098,7e-05,0.0,-5.9999999999999995e-05,1e-05,8e-05,1e-05,-2e-05,-2e-05,2
4852,5099,7e-05,0.0,-5.9999999999999995e-05,1e-05,8e-05,1e-05,-2e-05,-2e-05,2
4853,5100,7e-05,0.0,-5.9999999999999995e-05,1e-05,8e-05,1e-05,-2e-05,-2e-05,2
4854,5101,7e-05,0.0,-5.9999999999999995e-05,1e-05,8e-05,1e-05,-2e-05,-2e-05,2
4855,5102,7e-05,0.0,-5.9999999999999995e-05,1e-05,8e-05,1e-05,-2e-05,-2e-05,2
4856,5103,0.00011,2.9999999999999997e-05,1e-05,0.00022,5e-05,-4e-05,-0.00013000000000000002,2.9999999999999997e-05,2
4857,5104,-0.0001,-2e-05,2e-05,2.9999999999999997e-05,2.9999999999999997e-05,0.00011,9e-05,-5e-05,2
4858,5105,-0.0001,-2e-05,2e-05,2.9999999999999997e-05,2.9999999999999997e-05,0.00011,9e-05,-5e-05,2
4859,5106,-0.0001,-2e-05,2e-05,2.9999999999999997e-05,2.9999999999999997e-05,0.00011,9e-05,-5e-05,2
4860,5107,-0.0001,-2e-05,2e-05,2.9999999999999997e-05,2.9999999999999997e-05,0.00011,9e-05,-5e-05,2
4861,5108,-0.0001,-2e-05,2e-05,2.9999999999999997e-05,2.9999999999999997e-05,0.00011,9e-05,-5e-05,2
4862,5109,-0.0001,-2e-05,2e-05,2.9999999999999997e-05,2.9999999999999997e-05,0.00011,9e-05,-5e-05,2
4863,5110,-0.0001,-2e-05,2e-05,2.9999999999999997e-05,2.9999999999999997e-05,0.00011,9e-05,-5e-05,2
4864,5111,-0.0001,-2e-05,2e-05,2.9999999999999997e-05,2.9999999999999997e-05,0.00011,9e-05,-5e-05,2
4865,5112,-0.0001,-2e-05,2e-05,2.9999999999999997e-05,2.9999999999999997e-05,0.00011,9e-05,-5e-05,2
4866,5113,-0.0001,-2e-05,2e-05,2.9999999999999997e-05,2.9999999999999997e-05,0.00011,9e-05,-5e-05,2
4867,5114,-0.0001,-2e-05,2e-05,2.9999999999999997e-05,2.9999999999999997e-05,0.00011,9e-05,-5e-05,2
4868,5115,-0.0001,-2e-05,2e-05,2.9999999999999997e-05,2.9999999999999997e-05,0.00011,9e-05,-5e-05,2
4869,5116,-0.0001,-2e-05,2e-05,2.9999999999999997e-05,2.9999999999999997e-05,0.00011,9e-05,-5e-05,2
4870,5117,9e-05,-2e-05,-0.00011999999999999999,-8e-05,2e-05,-7e-05,-0.00018999999999999998,-2e-05,2
4871,5118,9e-05,-2e-05,-0.00011999999999999999,-8e-05,2e-05,-7e-05,-0.00018999999999999998,-2e-05,2
4872,5119,9e-05,-2e-05,-0.00011999999999999999,-8e-05,2e-05,-7e-05,-0.00018999999999999998,-2e-05,2
4873,5120,9e-05,-2e-05,-0.00011999999999999999,-8e-05,2e-05,-7e-05,-0.00018999999999999998,-2e-05,2
4874,5121,9e-05,-2e-05,-0.00011999999999999999,-8e-05,2e-05,-7e-05,-0.00018999999999999998,-2e-05,2
4875,5122,9e-05,-2e-05,-0.00011999999999999999,-8e-05,2e-05,-7e-05,-0.00018999999999999998,-2e-05,2
4876,5123,9e-05,-2e-05,-0.00011999999999999999,-8e-05,2e-05,-7e-05,-0.00018999999999999998,-2e-05,2
4877,5124,9e-05,-2e-05,-0.00011999999999999999,-8e-05,2e-05,-7e-05,-0.00018999999999999998,-2e-05,2
4878,5125,0.00015,-2e-05,-4e-05,7e-05,2e-05,-5e-05,-4e-05,2.9999999999999997e-05,2
4879,5126,0.00015,-2e-05,-4e-05,7e-05,2e-05,-5e-05,-4e-05,2.9999999999999997e-05,2
4880,5127,0.00015,-2e-05,-4e-05,7e-05,2e-05,-5e-05,-4e-05,2.9999999999999997e-05,2
4881,5128,0.00015,-2e-05,-4e-05,7e-05,2e-05,-5e-05,-4e-05,2.9999999999999997e-05,2
4882,5129,0.00015,-2e-05,-4e-05,7e-05,2e-05,-5e-05,-4e-05,2.9999999999999997e-05,2
4883,5130,0.00015,-2e-05,-4e-05,7e-05,2e-05,-5e-05,-4e-05,2.9999999999999997e-05,2
4884,5131,0.00015,-2e-05,-4e-05,7e-05,2e-05,-5e-05,-4e-05,2.9999999999999997e-05,2
4885,5132,0.00015,-2e-05,-4e-05,7e-05,2e-05,-5e-05,-4e-05,2.9999999999999997e-05,2
4886,5133,0.00015,-2e-05,-4e-05,7e-05,2e-05,-5e-05,-4e-05,2.9999999999999997e-05,2
4887,5134,0.00015,-2e-05,-4e-05,7e-05,2e-05,-5e-05,-4e-05,2.9999999999999997e-05,2
4888,5135,0.00015,-2e-05,-4e-05,7e-05,2e-05,-5e-05,-4e-05,2.9999999999999997e-05,2
4889,5136,0.00015,-2e-05,-4e-05,7e-05,2e-05,-5e-05,-4e-05,2.9999999999999997e-05,2
4890,5138,0.00015,-2e-05,-4e-05,7e-05,2e-05,-5e-05,-4e-05,2.9999999999999997e-05,2
4891,5139,0.00015,-2e-05,-4e-05,7e-05,2e-05,-5e-05,-4e-05,2.9999999999999997e-05,2
4892,5140,0.00015,-2e-05,-4e-05,7e-05,2e-05,-5e-05,-4e-05,2.9999999999999997e-05,2
4893,5141,0.00015,-2e-05,-4e-05,7e-05,2e-05,-5e-05,-4e-05,2.9999999999999997e-05,2
4894,5142,0.00015,-2e-05,-4e-05,7e-05,2e-05,-5e-05,-4e-05,2.9999999999999997e-05,2
4895,5143,0.00015,-2e-05,-4e-05,7e-05,2e-05,-5e-05,-4e-05,2.9999999999999997e-05,2
4896,5144,0.00015,-2e-05,-4e-05,7e-05,2e-05,-5e-05,-4e-05,2.9999999999999997e-05,2
4897,5145,0.00015,-2e-05,-4e-05,7e-05,2e-05,-5e-05,-4e-05,2.9999999999999997e-05,2
4898,5146,0.00015,-2e-05,-4e-05,7e-05,2e-05,-5e-05,-4e-05,2.9999999999999997e-05,2
4899,5147,0.00015,-2e-05,-4e-05,7e-05,2e-05,-5e-05,-4e-05,2.9999999999999997e-05,2
4900,5148,-5e-05,-2e-05,1e-05,-4e-05,-5e-05,-7e-05,-0.00011999999999999999,-1e-05,2
4901,5149,0.0001,-1e-05,-0.00014,-0.00021,0.00011,-2e-05,1e-05,0.0001,2
4902,5150,-5.9999999999999995e-05,-2e-05,9e-05,0.00033,4e-05,1e-05,1e-05,0.0,2
4903,5151,-5.9999999999999995e-05,-2e-05,9e-05,0.00033,4e-05,1e-05,1e-05,0.0,2
4904,5152,-5.9999999999999995e-05,-2e-05,9e-05,0.00033,4e-05,1e-05,1e-05,0.0,2
4905,5153,-5.9999999999999995e-05,-2e-05,9e-05,0.00033,4e-05,1e-05,1e-05,0.0,2
4906,5154,-5.9999999999999995e-05,-2e-05,9e-05,0.00033,4e-05,1e-05,1e-05,0.0,2
4907,5155,-5.9999999999999995e-05,-2e-05,9e-05,0.00033,4e-05,1e-05,1e-05,0.0,2
4908,5156,-5.9999999999999995e-05,-2e-05,9e-05,0.00033,4e-05,1e-05,1e-05,0.0,2
4909,5157,-5.9999999999999995e-05,-2e-05,9e-05,0.00033,4e-05,1e-05,1e-05,0.0,2
4910,5158,-5.9999999999999995e-05,-2e-05,9e-05,0.00033,4e-05,1e-05,1e-05,0.0,2
4911,5159,-5.9999999999999995e-05,-2e-05,9e-05,0.00033,4e-05,1e-05,1e-05,0.0,2
4912,5160,-5.9999999999999995e-05,-2e-05,9e-05,0.00033,4e-05,1e-05,1e-05,0.0,2
4913,5161,-5.9999999999999995e-05,-2e-05,9e-05,0.00033,4e-05,1e-05,1e-05,0.0,2
4914,5162,-5.9999999999999995e-05,-2e-05,9e-05,0.00033,4e-05,1e-05,1e-05,0.0,2
4915,5163,0.00018,1e-05,-4e-05,-0.00018999999999999998,-0.00011,-2e-05,-0.00016,5.9999999999999995e-05,2
4916,5164,-5.9999999999999995e-05,-4e-05,-4e-05,-8e-05,5e-05,-2.9999999999999997e-05,1e-05,-4e-05,2
4917,5165,2e-05,4e-05,-4e-05,-0.0001,-1e-05,-2.9999999999999997e-05,-0.00016999999999999999,5e-05,2
4918,5166,2e-05,4e-05,-4e-05,-0.0001,-1e-05,-2.9999999999999997e-05,-0.00016999999999999999,5e-05,2
4919,5167,2e-05,4e-05,-4e-05,-0.0001,-1e-05,-2.9999999999999997e-05,-0.00016999999999999999,5e-05,2
4920,5168,2e-05,4e-05,-4e-05,-0.0001,-1e-05,-2.9999999999999997e-05,-0.00016999999999999999,5e-05,2
4921,5169,2e-05,4e-05,-4e-05,-0.0001,-1e-05,-2.9999999999999997e-05,-0.00016999999999999999,5e-05,2
4922,5170,2e-05,4e-05,-4e-05,-0.0001,-1e-05,-2.9999999999999997e-05,-0.00016999999999999999,5e-05,2
4923,5171,2e-05,4e-05,-4e-05,-0.0001,-1e-05,-2.9999999999999997e-05,-0.00016999999999999999,5e-05,2
4924,5172,2e-05,4e-05,-4e-05,-0.0001,-1e-05,-2.9999999999999997e-05,-0.00016999999999999999,5e-05,2
4925,5173,2e-05,4e-05,-4e-05,-0.0001,-1e-05,-2.9999999999999997e-05,-0.00016999999999999999,5e-05,2
4926,5174,2e-05,4e-05,-4e-05,-0.0001,-1e-05,-2.9999999999999997e-05,-0.00016999999999999999,5e-05,2
4927,5175,2e-05,4e-05,-4e-05,-0.0001,-1e-05,-2.9999999999999997e-05,-0.00016999999999999999,5e-05,2
4928,5176,2e-05,4e-05,-4e-05,-0.0001,-1e-05,-2.9999999999999997e-05,-0.00016999999999999999,5e-05,2
4929,5177,2e-05,4e-05,-4e-05,-0.0001,-1e-05,-2.9999999999999997e-05,-0.00016999999999999999,5e-05,2
4930,5178,2e-05,4e-05,-4e-05,-0.0001,-1e-05,-2.9999999999999997e-05,-0.00016999999999999999,5e-05,2
4931,5179,2e-05,4e-05,-4e-05,-0.0001,-1e-05,-2.9999999999999997e-05,-0.00016999999999999999,5e-05,2
4932,5180,2e-05,4e-05,-4e-05,-0.0001,-1e-05,-2.9999999999999997e-05,-0.00016999999999999999,5e-05,2
4933,5181,2e-05,4e-05,-4e-05,-0.0001,-1e-05,-2.9999999999999997e-05,-0.00016999999999999999,5e-05,2
4934,5182,2e-05,4e-05,-4e-05,-0.0001,-1e-05,-2.9999999999999997e-05,-0.00016999999999999999,5e-05,2
4935,5183,2e-05,4e-05,-4e-05,-0.0001,-1e-05,-2.9999999999999997e-05,-0.00016999999999999999,5e-05,2
4936,5184,2e-05,4e-05,-4e-05,-0.0001,-1e-05,-2.9999999999999997e-05,-0.00016999999999999999,5e-05,2
4937,5185,2e-05,4e-05,-4e-05,-0.0001,-1e-05,-2.9999999999999997e-05,-0.00016999999999999999,5e-05,2
4938,5186,2e-05,4e-05,-4e-05,-0.0001,-1e-05,-2.9999999999999997e-05,-0.00016999999999999999,5e-05,2
4939,5188,2e-05,4e-05,-4e-05,-0.0001,-1e-05,-2.9999999999999997e-05,-0.00016999999999999999,5e-05,2
4940,5189,2e-05,4e-05,-4e-05,-0.0001,-1e-05,-2.9999999999999997e-05,-0.00016999999999999999,5e-05,2
4941,5190,2e-05,4e-05,-4e-05,-0.0001,-1e-05,-2.9999999999999997e-05,-0.00016999999999999999,5e-05,2
4942,5191,2e-05,4e-05,-4e-05,-0.0001,-1e-05,-2.9999999999999997e-05,-0.00016999999999999999,5e-05,2
4943,5192,2e-05,4e-05,-4e-05,-0.0001,-1e-05,-2.9999999999999997e-05,-0.00016999999999999999,5e-05,2
4944,5193,2e-05,4e-05,-4e-05,-0.0001,-1e-05,-2.9999999999999997e-05,-0.00016999999999999999,5e-05,2
4945,5194,2e-05,4e-05,-4e-05,-0.0001,-1e-05,-2.9999999999999997e-05,-0.00016999999999999999,5e-05,2
4946,5195,2e-05,4e-05,-4e-05,-0.0001,-1e-05,-2.9999999999999997e-05,-0.00016999999999999999,5e-05,2
4947,5196,2e-05,4e-05,-4e-05,-0.0001,-1e-05,-2.9999999999999997e-05,-0.00016999999999999999,5e-05,2
4948,5197,2e-05,4e-05,-4e-05,-0.0001,-1e-05,-2.9999999999999997e-05,-0.00016999999999999999,5e-05,2
4949,5198,2e-05,4e-05,-4e-05,-0.0001,-1e-05,-2.9999999999999997e-05,-0.00016999999999999999,5e-05,2
4950,5199,2e-05,4e-05,-4e-05,-0.0001,-1e-05,-2.9999999999999997e-05,-0.00016999999999999999,5e-05,2
4951,5200,2e-05,4e-05,-4e-05,-0.0001,-1e-05,-2.9999999999999997e-05,-0.00016999999999999999,5e-05,2
4952,5201,2e-05,4e-05,-4e-05,-0.0001,-1e-05,-2.9999999999999997e-05,-0.00016999999999999999,5e-05,2
4953,5202,-0.00013000000000000002,2.9999999999999997e-05,7e-05,-2.9999999999999997e-05,-8e-05,-1e-05,2e-05,0.0,2
4954,5203,-0.00022999999999999998,-8e-05,-0.0001,-0.00015,1e-05,-5e-05,-1e-05,-5e-05,2
4955,5204,-0.00016,-2e-05,-4e-05,1e-05,5e-05,0.0001,7e-05,-5e-05,2
4956,5205,-0.00016,-2e-05,-4e-05,1e-05,5e-05,0.0001,7e-05,-5e-05,2
4957,5206,-0.00016,-2e-05,-4e-05,1e-05,5e-05,0.0001,7e-05,-5e-05,2
4958,5207,0.00015,5e-05,0.00011,0.00018999999999999998,-5.9999999999999995e-05,-0.00013000000000000002,-0.00011999999999999999,0.0,2
4959,5208,-8e-05,0.0,1e-05,-0.00011999999999999999,-2e-05,1e-05,9e-05,2.9999999999999997e-05,2
4960,5209,-8e-05,0.0,1e-05,-0.00011999999999999999,-2e-05,1e-05,9e-05,2.9999999999999997e-05,2
4961,5210,-8e-05,0.0,1e-05,-0.00011999999999999999,-2e-05,1e-05,9e-05,2.9999999999999997e-05,2
4962,5211,-8e-05,0.0,1e-05,-0.00011999999999999999,-2e-05,1e-05,9e-05,2.9999999999999997e-05,2
4963,5212,-8e-05,0.0,1e-05,-0.00011999999999999999,-2e-05,1e-05,9e-05,2.9999999999999997e-05,2
4964,5213,-8e-05,0.0,1e-05,-0.00011999999999999999,-2e-05,1e-05,9e-05,2.9999999999999997e-05,2
4965,5214,-8e-05,0.0,1e-05,-0.00011999999999999999,-2e-05,1e-05,9e-05,2.9999999999999997e-05,2
4966,5216,-8e-05,0.0,1e-05,-0.00011999999999999999,-2e-05,1e-05,9e-05,2.9999999999999997e-05,2
4967,5217,-8e-05,0.0,1e-05,-0.00011999999999999999,-2e-05,1e-05,9e-05,2.9999999999999997e-05,2
4968,5218,-8e-05,0.0,1e-05,-0.00011999999999999999,-2e-05,1e-05,9e-05,2.9999999999999997e-05,2
4969,5219,-8e-05,0.0,1e-05,-0.00011999999999999999,-2e-05,1e-05,9e-05,2.9999999999999997e-05,2
4970,5220,-8e-05,0.0,1e-05,-0.00011999999999999999,-2e-05,1e-05,9e-05,2.9999999999999997e-05,2
4971,5221,-8e-05,0.0,1e-05,-0.00011999999999999999,-2e-05,1e-05,9e-05,2.9999999999999997e-05,2
4972,5222,-8e-05,0.0,1e-05,-0.00011999999999999999,-2e-05,1e-05,9e-05,2.9999999999999997e-05,2
4973,5223,-8e-05,0.0,1e-05,-0.00011999999999999999,-2e-05,1e-05,9e-05,2.9999999999999997e-05,2
4974,5224,0.00018,-1e-05,-5e-05,-0.0003,4e-05,4e-05,0.00013000000000000002,5.9999999999999995e-05,2
4975,5225,0.0,-4e-05,-8e-05,-0.00015,-0.00011999999999999999,-9e-05,-9e-05,0.0,2
4976,5226,0.0,-4e-05,-8e-05,-0.00015,-0.00011999999999999999,-9e-05,-9e-05,0.0,2
4977,5227,0.0,-4e-05,-8e-05,-0.00015,-0.00011999999999999999,-9e-05,-9e-05,0.0,2
4978,5228,0.0,-4e-05,-8e-05,-0.00015,-0.00011999999999999999,-9e-05,-9e-05,0.0,2
4979,5229,0.0,-4e-05,-8e-05,-0.00015,-0.00011999999999999999,-9e-05,-9e-05,0.0,2
4980,5230,0.0,-4e-05,-8e-05,-0.00015,-0.00011999999999999999,-9e-05,-9e-05,0.0,2
4981,5231,0.0,-4e-05,-8e-05,-0.00015,-0.00011999999999999999,-9e-05,-9e-05,0.0,2
4982,5232,0.0,-4e-05,-8e-05,-0.00015,-0.00011999999999999999,-9e-05,-9e-05,0.0,2
4983,5233,0.0,-4e-05,-8e-05,-0.00015,-0.00011999999999999999,-9e-05,-9e-05,0.0,2
4984,5234,0.0,-4e-05,-8e-05,-0.00015,-0.00011999999999999999,-9e-05,-9e-05,0.0,2
4985,5235,0.0,-4e-05,-8e-05,-0.00015,-0.00011999999999999999,-9e-05,-9e-05,0.0,2
4986,5236,-2e-05,-5.9999999999999995e-05,-5e-05,9e-05,-0.0001,-5e-05,-5.9999999999999995e-05,-1e-05,2
4987,5238,-2e-05,-5.9999999999999995e-05,-5e-05,9e-05,-0.0001,-5e-05,-5.9999999999999995e-05,-1e-05,2
4988,5239,-2e-05,-5.9999999999999995e-05,-5e-05,9e-05,-0.0001,-5e-05,-5.9999999999999995e-05,-1e-05,2
4989,5240,-2e-05,-5.9999999999999995e-05,-5e-05,9e-05,-0.0001,-5e-05,-5.9999999999999995e-05,-1e-05,2
4990,5241,-2e-05,-5.9999999999999995e-05,-5e-05,9e-05,-0.0001,-5e-05,-5.9999999999999995e-05,-1e-05,2
4991,5242,-2e-05,-5.9999999999999995e-05,-5e-05,9e-05,-0.0001,-5e-05,-5.9999999999999995e-05,-1e-05,2
4992,5243,-2e-05,-5.9999999999999995e-05,-5e-05,9e-05,-0.0001,-5e-05,-5.9999999999999995e-05,-1e-05,2
4993,5244,-2e-05,-5.9999999999999995e-05,-5e-05,9e-05,-0.0001,-5e-05,-5.9999999999999995e-05,-1e-05,2
4994,5245,0.00011,5e-05,4e-05,-0.00011,5e-05,-1e-05,0.0,4e-05,2
4995,5246,0.00011,5e-05,4e-05,-0.00011,5e-05,-1e-05,0.0,4e-05,2
4996,5247,0.00011,5e-05,4e-05,-0.00011,5e-05,-1e-05,0.0,4e-05,2
4997,5248,0.00011,5e-05,4e-05,-0.00011,5e-05,-1e-05,0.0,4e-05,2
4998,5249,0.00011,5e-05,4e-05,-0.00011,5e-05,-1e-05,0.0,4e-05,2
4999,5250,0.00011,5e-05,4e-05,-0.00011,5e-05,-1e-05,0.0,4e-05,2
5000,5251,0.00011,5e-05,4e-05,-0.00011,5e-05,-1e-05,0.0,4e-05,2
5001,5252,0.00011,5e-05,4e-05,-0.00011,5e-05,-1e-05,0.0,4e-05,2
5002,5253,0.00011,5e-05,4e-05,-0.00011,5e-05,-1e-05,0.0,4e-05,2
5003,5254,0.00011,5e-05,4e-05,-0.00011,5e-05,-1e-05,0.0,4e-05,2
5004,5255,0.00011,5e-05,4e-05,-0.00011,5e-05,-1e-05,0.0,4e-05,2
5005,5256,0.00011,5e-05,4e-05,-0.00011,5e-05,-1e-05,0.0,4e-05,2
5006,5257,0.00011,5e-05,4e-05,-0.00011,5e-05,-1e-05,0.0,4e-05,2
5007,5258,0.00011,5e-05,4e-05,-0.00011,5e-05,-1e-05,0.0,4e-05,2
5008,5259,0.00011,5e-05,4e-05,-0.00011,5e-05,-1e-05,0.0,4e-05,2
5009,5260,0.0,-2e-05,0.0,4e-05,5.9999999999999995e-05,-5.9999999999999995e-05,0.00022,9e-05,2
5010,5261,0.0,-2e-05,0.0,4e-05,5.9999999999999995e-05,-5.9999999999999995e-05,0.00022,9e-05,2
5011,5262,-2.9999999999999997e-05,-2.9999999999999997e-05,0.0,0.00029,8e-05,-8e-05,0.00022,2e-05,2
5012,5263,-2.9999999999999997e-05,-2.9999999999999997e-05,0.0,0.00029,8e-05,-8e-05,0.00022,2e-05,2
5013,5264,-2.9999999999999997e-05,-2.9999999999999997e-05,0.0,0.00029,8e-05,-8e-05,0.00022,2e-05,2
5014,5265,-2.9999999999999997e-05,-2.9999999999999997e-05,0.0,0.00029,8e-05,-8e-05,0.00022,2e-05,2
5015,5266,-2.9999999999999997e-05,-2.9999999999999997e-05,0.0,0.00029,8e-05,-8e-05,0.00022,2e-05,2
5016,5267,-2.9999999999999997e-05,-2.9999999999999997e-05,0.0,0.00029,8e-05,-8e-05,0.00022,2e-05,2
5017,5268,-2.9999999999999997e-05,-2.9999999999999997e-05,0.0,0.00029,8e-05,-8e-05,0.00022,2e-05,2
5018,5269,-2.9999999999999997e-05,-2.9999999999999997e-05,0.0,0.00029,8e-05,-8e-05,0.00022,2e-05,2
5019,5270,-2.9999999999999997e-05,-2.9999999999999997e-05,0.0,0.00029,8e-05,-8e-05,0.00022,2e-05,2
5020,5271,-2.9999999999999997e-05,-2.9999999999999997e-05,0.0,0.00029,8e-05,-8e-05,0.00022,2e-05,2
5021,5272,-2.9999999999999997e-05,-2.9999999999999997e-05,0.0,0.00029,8e-05,-8e-05,0.00022,2e-05,2
5022,5273,-2.9999999999999997e-05,-2.9999999999999997e-05,0.0,0.00029,8e-05,-8e-05,0.00022,2e-05,2
5023,5274,-2.9999999999999997e-05,-2.9999999999999997e-05,0.0,0.00029,8e-05,-8e-05,0.00022,2e-05,2
5024,5275,-2.9999999999999997e-05,-2.9999999999999997e-05,0.0,0.00029,8e-05,-8e-05,0.00022,2e-05,2
5025,5276,-2.9999999999999997e-05,-2.9999999999999997e-05,0.0,0.00029,8e-05,-8e-05,0.00022,2e-05,2
5026,5277,-2.9999999999999997e-05,-2.9999999999999997e-05,0.0,0.00029,8e-05,-8e-05,0.00022,2e-05,2
5027,5278,-2.9999999999999997e-05,-2.9999999999999997e-05,0.0,0.00029,8e-05,-8e-05,0.00022,2e-05,2
5028,5279,-2.9999999999999997e-05,-2.9999999999999997e-05,0.0,0.00029,8e-05,-8e-05,0.00022,2e-05,2
5029,5280,-2.9999999999999997e-05,-2.9999999999999997e-05,0.0,0.00029,8e-05,-8e-05,0.00022,2e-05,2
5030,5281,-2.9999999999999997e-05,-2.9999999999999997e-05,0.0,0.00029,8e-05,-8e-05,0.00022,2e-05,2
5031,5282,-2.9999999999999997e-05,-2.9999999999999997e-05,0.0,0.00029,8e-05,-8e-05,0.00022,2e-05,2
5032,5283,2e-05,1e-05,5.9999999999999995e-05,0.00021,7e-05,-5.9999999999999995e-05,-1e-05,0.0,2
5033,5284,0.0001,5e-05,5e-05,-8e-05,-9e-05,2e-05,0.00021,0.00014,2
5034,5285,-9e-05,-7e-05,-5.9999999999999995e-05,-0.00021,-7e-05,1e-05,-0.00018,-0.00011,2
5035,5286,-9e-05,-7e-05,-5.9999999999999995e-05,-0.00021,-7e-05,1e-05,-0.00018,-0.00011,2
5036,5288,-9e-05,-7e-05,-5.9999999999999995e-05,-0.00021,-7e-05,1e-05,-0.00018,-0.00011,2
5037,5289,-9e-05,-7e-05,-5.9999999999999995e-05,-0.00021,-7e-05,1e-05,-0.00018,-0.00011,2
5038,5290,-9e-05,-7e-05,-5.9999999999999995e-05,-0.00021,-7e-05,1e-05,-0.00018,-0.00011,2
5039,5291,-9e-05,-7e-05,-5.9999999999999995e-05,-0.00021,-7e-05,1e-05,-0.00018,-0.00011,2
5040,5292,-9e-05,-7e-05,-5.9999999999999995e-05,-0.00021,-7e-05,1e-05,-0.00018,-0.00011,2
5041,5293,-9e-05,-7e-05,-5.9999999999999995e-05,-0.00021,-7e-05,1e-05,-0.00018,-0.00011,2
5042,5294,-9e-05,-7e-05,-5.9999999999999995e-05,-0.00021,-7e-05,1e-05,-0.00018,-0.00011,2
5043,5295,-9e-05,-7e-05,-5.9999999999999995e-05,-0.00021,-7e-05,1e-05,-0.00018,-0.00011,2
5044,5296,-1e-05,0.0,2.9999999999999997e-05,0.00016999999999999999,-4e-05,-5.9999999999999995e-05,-0.00014,-9e-05,2
5045,5297,-2e-05,1e-05,-2.9999999999999997e-05,-5e-05,-1e-05,2e-05,0.0,0.0,2
5046,5298,-2e-05,1e-05,-2.9999999999999997e-05,-5e-05,-1e-05,2e-05,0.0,0.0,2
5047,5299,-2e-05,1e-05,-2.9999999999999997e-05,-5e-05,-1e-05,2e-05,0.0,0.0,2
5048,5300,-2e-05,1e-05,-2.9999999999999997e-05,-5e-05,-1e-05,2e-05,0.0,0.0,2
5049,5301,-2e-05,1e-05,-2.9999999999999997e-05,-5e-05,-1e-05,2e-05,0.0,0.0,2
5050,5302,-2e-05,1e-05,-2.9999999999999997e-05,-5e-05,-1e-05,2e-05,0.0,0.0,2
5051,5303,-2e-05,1e-05,-2.9999999999999997e-05,-5e-05,-1e-05,2e-05,0.0,0.0,2
5052,5304,-2e-05,1e-05,-2.9999999999999997e-05,-5e-05,-1e-05,2e-05,0.0,0.0,2
5053,5305,-7e-05,-1e-05,4e-05,9e-05,-5.9999999999999995e-05,-4e-05,-2.9999999999999997e-05,0.0,2
5054,5306,-7e-05,-1e-05,4e-05,9e-05,-5.9999999999999995e-05,-4e-05,-2.9999999999999997e-05,0.0,2
5055,5307,-7e-05,-1e-05,4e-05,9e-05,-5.9999999999999995e-05,-4e-05,-2.9999999999999997e-05,0.0,2
5056,5308,-7e-05,-1e-05,4e-05,9e-05,-5.9999999999999995e-05,-4e-05,-2.9999999999999997e-05,0.0,2
5057,5309,-7e-05,-1e-05,4e-05,9e-05,-5.9999999999999995e-05,-4e-05,-2.9999999999999997e-05,0.0,2
5058,5310,-7e-05,-1e-05,4e-05,9e-05,-5.9999999999999995e-05,-4e-05,-2.9999999999999997e-05,0.0,2
5059,5311,-7e-05,-1e-05,4e-05,9e-05,-5.9999999999999995e-05,-4e-05,-2.9999999999999997e-05,0.0,2
5060,5312,-7e-05,-1e-05,4e-05,9e-05,-5.9999999999999995e-05,-4e-05,-2.9999999999999997e-05,0.0,2
5061,5313,-7e-05,-1e-05,4e-05,9e-05,-5.9999999999999995e-05,-4e-05,-2.9999999999999997e-05,0.0,2
5062,5314,-7e-05,-1e-05,4e-05,9e-05,-5.9999999999999995e-05,-4e-05,-2.9999999999999997e-05,0.0,2
5063,5315,-7e-05,-1e-05,4e-05,9e-05,-5.9999999999999995e-05,-4e-05,-2.9999999999999997e-05,0.0,2
5064,5316,-7e-05,-1e-05,4e-05,9e-05,-5.9999999999999995e-05,-4e-05,-2.9999999999999997e-05,0.0,2
5065,5317,-7e-05,-1e-05,4e-05,9e-05,-5.9999999999999995e-05,-4e-05,-2.9999999999999997e-05,0.0,2
5066,5318,-7e-05,-1e-05,4e-05,9e-05,-5.9999999999999995e-05,-4e-05,-2.9999999999999997e-05,0.0,2
5067,5319,-7e-05,-1e-05,4e-05,9e-05,-5.9999999999999995e-05,-4e-05,-2.9999999999999997e-05,0.0,2
5068,5320,-7e-05,-1e-05,4e-05,9e-05,-5.9999999999999995e-05,-4e-05,-2.9999999999999997e-05,0.0,2
5069,5321,-7e-05,-1e-05,4e-05,9e-05,-5.9999999999999995e-05,-4e-05,-2.9999999999999997e-05,0.0,2
5070,5322,-7e-05,-1e-05,4e-05,9e-05,-5.9999999999999995e-05,-4e-05,-2.9999999999999997e-05,0.0,2
5071,5323,-7e-05,-1e-05,4e-05,9e-05,-5.9999999999999995e-05,-4e-05,-2.9999999999999997e-05,0.0,2
5072,5324,-7e-05,-1e-05,4e-05,9e-05,-5.9999999999999995e-05,-4e-05,-2.9999999999999997e-05,0.0,2
5073,5325,-7e-05,-1e-05,4e-05,9e-05,-5.9999999999999995e-05,-4e-05,-2.9999999999999997e-05,0.0,2
5074,5326,-7e-05,-1e-05,4e-05,9e-05,-5.9999999999999995e-05,-4e-05,-2.9999999999999997e-05,0.0,2
5075,5327,-7e-05,-1e-05,4e-05,9e-05,-5.9999999999999995e-05,-4e-05,-2.9999999999999997e-05,0.0,2
5076,5328,2e-05,-9e-05,-0.0003,-0.0007,5.9999999999999995e-05,4e-05,-9e-05,2e-05,2
5077,5329,-2.9999999999999997e-05,-1e-05,-5e-05,-0.00022,-8e-05,-2e-05,-0.00018,-9e-05,2
5078,5330,-2.9999999999999997e-05,-1e-05,-5e-05,-0.00022,-8e-05,-2e-05,-0.00018,-9e-05,2
5079,5331,-2.9999999999999997e-05,-1e-05,-5e-05,-0.00022,-8e-05,-2e-05,-0.00018,-9e-05,2
5080,5332,-2.9999999999999997e-05,-1e-05,-5e-05,-0.00022,-8e-05,-2e-05,-0.00018,-9e-05,2
5081,5333,-2.9999999999999997e-05,-1e-05,-5e-05,-0.00022,-8e-05,-2e-05,-0.00018,-9e-05,2
5082,5334,-2.9999999999999997e-05,-1e-05,-5e-05,-0.00022,-8e-05,-2e-05,-0.00018,-9e-05,2
5083,5335,-2.9999999999999997e-05,-1e-05,-5e-05,-0.00022,-8e-05,-2e-05,-0.00018,-9e-05,2
5084,5336,-2.9999999999999997e-05,-1e-05,-5e-05,-0.00022,-8e-05,-2e-05,-0.00018,-9e-05,2
5085,5338,-2.9999999999999997e-05,-1e-05,-5e-05,-0.00022,-8e-05,-2e-05,-0.00018,-9e-05,2
5086,5339,-2.9999999999999997e-05,-1e-05,-5e-05,-0.00022,-8e-05,-2e-05,-0.00018,-9e-05,2
5087,5340,-2.9999999999999997e-05,-1e-05,-5e-05,-0.00022,-8e-05,-2e-05,-0.00018,-9e-05,2
5088,5341,-2.9999999999999997e-05,-1e-05,-5e-05,-0.00022,-8e-05,-2e-05,-0.00018,-9e-05,2
5089,5342,-2.9999999999999997e-05,-1e-05,-5e-05,-0.00022,-8e-05,-2e-05,-0.00018,-9e-05,2
5090,5343,-5.9999999999999995e-05,0.0,7e-05,0.00031,-7e-05,-5e-05,2e-05,0.0,2
5091,5344,0.0002,2e-05,0.0,-2.9999999999999997e-05,-4e-05,5.9999999999999995e-05,0.00022999999999999998,9e-05,2
5092,5345,0.0002,2e-05,0.0,-2.9999999999999997e-05,-4e-05,5.9999999999999995e-05,0.00022999999999999998,9e-05,2
5093,5346,0.0002,2e-05,0.0,-2.9999999999999997e-05,-4e-05,5.9999999999999995e-05,0.00022999999999999998,9e-05,2
5094,5347,0.0002,2e-05,0.0,-2.9999999999999997e-05,-4e-05,5.9999999999999995e-05,0.00022999999999999998,9e-05,2
5095,5348,0.0002,2e-05,0.0,-2.9999999999999997e-05,-4e-05,5.9999999999999995e-05,0.00022999999999999998,9e-05,2
5096,5349,0.0002,2e-05,0.0,-2.9999999999999997e-05,-4e-05,5.9999999999999995e-05,0.00022999999999999998,9e-05,2
5097,5350,0.0002,2e-05,0.0,-2.9999999999999997e-05,-4e-05,5.9999999999999995e-05,0.00022999999999999998,9e-05,2
5098,5351,0.0002,2e-05,0.0,-2.9999999999999997e-05,-4e-05,5.9999999999999995e-05,0.00022999999999999998,9e-05,2
5099,5352,0.0002,2e-05,0.0,-2.9999999999999997e-05,-4e-05,5.9999999999999995e-05,0.00022999999999999998,9e-05,2
5100,5353,0.0002,2e-05,0.0,-2.9999999999999997e-05,-4e-05,5.9999999999999995e-05,0.00022999999999999998,9e-05,2
5101,5354,0.0002,2e-05,0.0,-2.9999999999999997e-05,-4e-05,5.9999999999999995e-05,0.00022999999999999998,9e-05,2
5102,5355,0.0002,2e-05,0.0,-2.9999999999999997e-05,-4e-05,5.9999999999999995e-05,0.00022999999999999998,9e-05,2
5103,5356,-2e-05,-1e-05,5e-05,8e-05,-0.00015,-5e-05,5.9999999999999995e-05,-5e-05,2
5104,5357,-2.9999999999999997e-05,-5.9999999999999995e-05,-8e-05,-0.00016999999999999999,0.00011999999999999999,7e-05,-5e-05,-1e-05,2
5105,5358,-2.9999999999999997e-05,-5.9999999999999995e-05,-8e-05,-0.00016999999999999999,0.00011999999999999999,7e-05,-5e-05,-1e-05,2
5106,5359,-2.9999999999999997e-05,-5.9999999999999995e-05,-8e-05,-0.00016999999999999999,0.00011999999999999999,7e-05,-5e-05,-1e-05,2
5107,5360,-2.9999999999999997e-05,-5.9999999999999995e-05,-8e-05,-0.00016999999999999999,0.00011999999999999999,7e-05,-5e-05,-1e-05,2
5108,5361,-2.9999999999999997e-05,-5.9999999999999995e-05,-8e-05,-0.00016999999999999999,0.00011999999999999999,7e-05,-5e-05,-1e-05,2
5109,5362,-2.9999999999999997e-05,-5.9999999999999995e-05,-8e-05,-0.00016999999999999999,0.00011999999999999999,7e-05,-5e-05,-1e-05,2
5110,5363,-2.9999999999999997e-05,-5.9999999999999995e-05,-8e-05,-0.00016999999999999999,0.00011999999999999999,7e-05,-5e-05,-1e-05,2
5111,5364,-2.9999999999999997e-05,-5.9999999999999995e-05,-8e-05,-0.00016999999999999999,0.00011999999999999999,7e-05,-5e-05,-1e-05,2
5112,5365,-2.9999999999999997e-05,-5.9999999999999995e-05,-8e-05,-0.00016999999999999999,0.00011999999999999999,7e-05,-5e-05,-1e-05,2
5113,5366,-2.9999999999999997e-05,-5.9999999999999995e-05,-8e-05,-0.00016999999999999999,0.00011999999999999999,7e-05,-5e-05,-1e-05,2
5114,5367,-2.9999999999999997e-05,-5.9999999999999995e-05,-8e-05,-0.00016999999999999999,0.00011999999999999999,7e-05,-5e-05,-1e-05,2
5115,5368,-2.9999999999999997e-05,-5.9999999999999995e-05,-8e-05,-0.00016999999999999999,0.00011999999999999999,7e-05,-5e-05,-1e-05,2
5116,5369,-2.9999999999999997e-05,-5.9999999999999995e-05,-8e-05,-0.00016999999999999999,0.00011999999999999999,7e-05,-5e-05,-1e-05,2
5117,5370,-2.9999999999999997e-05,-5.9999999999999995e-05,-8e-05,-0.00016999999999999999,0.00011999999999999999,7e-05,-5e-05,-1e-05,2
5118,5371,-2.9999999999999997e-05,-4e-05,-4e-05,-4e-05,-7e-05,-0.00011999999999999999,-9e-05,1e-05,2
5119,5372,2.9999999999999997e-05,2.9999999999999997e-05,0.0001,0.00036,-5.9999999999999995e-05,-4e-05,-8e-05,0.0,2
5120,5373,2.9999999999999997e-05,2.9999999999999997e-05,0.0001,0.00036,-5.9999999999999995e-05,-4e-05,-8e-05,0.0,2
5121,5374,2.9999999999999997e-05,2.9999999999999997e-05,0.0001,0.00036,-5.9999999999999995e-05,-4e-05,-8e-05,0.0,2
5122,5375,2.9999999999999997e-05,2.9999999999999997e-05,0.0001,0.00036,-5.9999999999999995e-05,-4e-05,-8e-05,0.0,2
5123,5376,2.9999999999999997e-05,2.9999999999999997e-05,0.0001,0.00036,-5.9999999999999995e-05,-4e-05,-8e-05,0.0,2
5124,5377,2.9999999999999997e-05,2.9999999999999997e-05,0.0001,0.00036,-5.9999999999999995e-05,-4e-05,-8e-05,0.0,2
5125,5378,2.9999999999999997e-05,2.9999999999999997e-05,0.0001,0.00036,-5.9999999999999995e-05,-4e-05,-8e-05,0.0,2
5126,5379,2.9999999999999997e-05,2.9999999999999997e-05,0.0001,0.00036,-5.9999999999999995e-05,-4e-05,-8e-05,0.0,2
5127,5380,1e-05,1e-05,2.9999999999999997e-05,7e-05,2.9999999999999997e-05,2e-05,0.0001,8e-05,2
5128,5381,1e-05,1e-05,2.9999999999999997e-05,7e-05,2.9999999999999997e-05,2e-05,0.0001,8e-05,2
5129,5382,4e-05,-1e-05,-5e-05,-0.00016,1e-05,2.9999999999999997e-05,-5e-05,0.0,2
5130,5383,4e-05,-1e-05,-5e-05,-0.00016,1e-05,2.9999999999999997e-05,-5e-05,0.0,2
5131,5384,4e-05,-1e-05,-5e-05,-0.00016,1e-05,2.9999999999999997e-05,-5e-05,0.0,2
5132,5385,4e-05,-1e-05,-5e-05,-0.00016,1e-05,2.9999999999999997e-05,-5e-05,0.0,2
5133,5386,4e-05,-1e-05,-5e-05,-0.00016,1e-05,2.9999999999999997e-05,-5e-05,0.0,2
5134,5388,4e-05,-1e-05,-5e-05,-0.00016,1e-05,2.9999999999999997e-05,-5e-05,0.0,2
5135,5389,4e-05,-1e-05,-5e-05,-0.00016,1e-05,2.9999999999999997e-05,-5e-05,0.0,2
5136,5390,4e-05,-1e-05,-5e-05,-0.00016,1e-05,2.9999999999999997e-05,-5e-05,0.0,2
5137,5391,4e-05,-1e-05,-5e-05,-0.00016,1e-05,2.9999999999999997e-05,-5e-05,0.0,2
5138,5392,4e-05,-1e-05,-5e-05,-0.00016,1e-05,2.9999999999999997e-05,-5e-05,0.0,2
5139,5393,4e-05,-1e-05,-5e-05,-0.00016,1e-05,2.9999999999999997e-05,-5e-05,0.0,2
5140,5394,4e-05,-1e-05,-5e-05,-0.00016,1e-05,2.9999999999999997e-05,-5e-05,0.0,2
5141,5395,4e-05,-1e-05,-5e-05,-0.00016,1e-05,2.9999999999999997e-05,-5e-05,0.0,2
5142,5396,4e-05,-1e-05,-5e-05,-0.00016,1e-05,2.9999999999999997e-05,-5e-05,0.0,2
5143,5397,4e-05,-1e-05,-5e-05,-0.00016,1e-05,2.9999999999999997e-05,-5e-05,0.0,2
5144,5398,4e-05,-1e-05,-5e-05,-0.00016,1e-05,2.9999999999999997e-05,-5e-05,0.0,2
5145,5399,4e-05,-1e-05,-5e-05,-0.00016,1e-05,2.9999999999999997e-05,-5e-05,0.0,2
5146,5400,4e-05,-1e-05,-5e-05,-0.00016,1e-05,2.9999999999999997e-05,-5e-05,0.0,2
5147,5401,4e-05,-1e-05,-5e-05,-0.00016,1e-05,2.9999999999999997e-05,-5e-05,0.0,2
5148,5402,4e-05,-1e-05,-5e-05,-0.00016,1e-05,2.9999999999999997e-05,-5e-05,0.0,2
5149,5403,0.00018,0.0,-1e-05,0.00011999999999999999,2e-05,0.0,4e-05,8e-05,2
5150,5404,0.00014,2e-05,-5e-05,-1e-05,-5e-05,-1e-05,5.9999999999999995e-05,8e-05,2
5151,5405,0.00014,2e-05,-5e-05,-1e-05,-5e-05,-1e-05,5.9999999999999995e-05,8e-05,2
5152,5406,0.00014,2e-05,-5e-05,-1e-05,-5e-05,-1e-05,5.9999999999999995e-05,8e-05,2
5153,5407,0.00014,2e-05,-5e-05,-1e-05,-5e-05,-1e-05,5.9999999999999995e-05,8e-05,2
5154,5408,0.00014,2e-05,-5e-05,-1e-05,-5e-05,-1e-05,5.9999999999999995e-05,8e-05,2
5155,5409,0.00014,2e-05,-5e-05,-1e-05,-5e-05,-1e-05,5.9999999999999995e-05,8e-05,2
5156,5410,0.00014,2e-05,-5e-05,-1e-05,-5e-05,-1e-05,5.9999999999999995e-05,8e-05,2
5157,5411,0.00014,2e-05,-5e-05,-1e-05,-5e-05,-1e-05,5.9999999999999995e-05,8e-05,2
5158,5412,0.00014,2e-05,-5e-05,-1e-05,-5e-05,-1e-05,5.9999999999999995e-05,8e-05,2
5159,5413,0.00014,2e-05,-5e-05,-1e-05,-5e-05,-1e-05,5.9999999999999995e-05,8e-05,2
5160,5414,0.00014,2e-05,-5e-05,-1e-05,-5e-05,-1e-05,5.9999999999999995e-05,8e-05,2
5161,5415,0.00014,2e-05,-5e-05,-1e-05,-5e-05,-1e-05,5.9999999999999995e-05,8e-05,2
5162,5416,0.00014,2e-05,-5e-05,-1e-05,-5e-05,-1e-05,5.9999999999999995e-05,8e-05,2
5163,5417,0.00014,2e-05,-5e-05,-1e-05,-5e-05,-1e-05,5.9999999999999995e-05,8e-05,2
5164,5418,0.00014,2e-05,-5e-05,-1e-05,-5e-05,-1e-05,5.9999999999999995e-05,8e-05,2
5165,5419,0.00014,2e-05,-5e-05,-1e-05,-5e-05,-1e-05,5.9999999999999995e-05,8e-05,2
5166,5420,0.00014,2e-05,-5e-05,-1e-05,-5e-05,-1e-05,5.9999999999999995e-05,8e-05,2
5167,5421,0.00014,2e-05,-5e-05,-1e-05,-5e-05,-1e-05,5.9999999999999995e-05,8e-05,2
5168,5422,0.00014,2e-05,-5e-05,-1e-05,-5e-05,-1e-05,5.9999999999999995e-05,8e-05,2
5169,5423,0.00014,2e-05,-5e-05,-1e-05,-5e-05,-1e-05,5.9999999999999995e-05,8e-05,2
5170,5424,0.00014,2e-05,-5e-05,-1e-05,-5e-05,-1e-05,5.9999999999999995e-05,8e-05,2
5171,5425,0.0,0.0,8e-05,0.00036,-8e-05,-7e-05,-0.00018,-5e-05,2
5172,5426,0.0,0.0,8e-05,0.00036,-8e-05,-7e-05,-0.00018,-5e-05,2
5173,5427,-8e-05,-2e-05,-1e-05,-2.9999999999999997e-05,0.00011,2.9999999999999997e-05,7e-05,2e-05,2
5174,5428,-8e-05,-2e-05,-1e-05,-2.9999999999999997e-05,0.00011,2.9999999999999997e-05,7e-05,2e-05,2
5175,5429,-8e-05,-2e-05,-1e-05,-2.9999999999999997e-05,0.00011,2.9999999999999997e-05,7e-05,2e-05,2
5176,5430,-8e-05,-2e-05,-1e-05,-2.9999999999999997e-05,0.00011,2.9999999999999997e-05,7e-05,2e-05,2
5177,5431,-8e-05,-2e-05,-1e-05,-2.9999999999999997e-05,0.00011,2.9999999999999997e-05,7e-05,2e-05,2
5178,5432,-8e-05,-2e-05,-1e-05,-2.9999999999999997e-05,0.00011,2.9999999999999997e-05,7e-05,2e-05,2
5179,5433,-8e-05,-2e-05,-1e-05,-2.9999999999999997e-05,0.00011,2.9999999999999997e-05,7e-05,2e-05,2
5180,5434,-8e-05,-2e-05,-1e-05,-2.9999999999999997e-05,0.00011,2.9999999999999997e-05,7e-05,2e-05,2
5181,5435,-8e-05,-2e-05,-1e-05,-2.9999999999999997e-05,0.00011,2.9999999999999997e-05,7e-05,2e-05,2
5182,5436,-8e-05,-2e-05,-1e-05,-2.9999999999999997e-05,0.00011,2.9999999999999997e-05,7e-05,2e-05,2
5183,5438,-8e-05,-2e-05,-1e-05,-2.9999999999999997e-05,0.00011,2.9999999999999997e-05,7e-05,2e-05,2
5184,5439,-8e-05,-2e-05,-1e-05,-2.9999999999999997e-05,0.00011,2.9999999999999997e-05,7e-05,2e-05,2
5185,5440,-8e-05,-2e-05,-1e-05,-2.9999999999999997e-05,0.00011,2.9999999999999997e-05,7e-05,2e-05,2
5186,5441,-4e-05,0.0,2.9999999999999997e-05,0.00016,4e-05,-2.9999999999999997e-05,0.00018999999999999998,2.9999999999999997e-05,2
5187,5442,-8e-05,1e-05,2.9999999999999997e-05,5e-05,-5.9999999999999995e-05,4e-05,-0.00016,-8e-05,2
5188,5443,-8e-05,1e-05,2.9999999999999997e-05,5e-05,-5.9999999999999995e-05,4e-05,-0.00016,-8e-05,2
5189,5444,-8e-05,1e-05,2.9999999999999997e-05,5e-05,-5.9999999999999995e-05,4e-05,-0.00016,-8e-05,2
5190,5445,-8e-05,1e-05,2.9999999999999997e-05,5e-05,-5.9999999999999995e-05,4e-05,-0.00016,-8e-05,2
5191,5446,-8e-05,1e-05,2.9999999999999997e-05,5e-05,-5.9999999999999995e-05,4e-05,-0.00016,-8e-05,2
5192,5447,-8e-05,1e-05,2.9999999999999997e-05,5e-05,-5.9999999999999995e-05,4e-05,-0.00016,-8e-05,2
5193,5448,-8e-05,1e-05,2.9999999999999997e-05,5e-05,-5.9999999999999995e-05,4e-05,-0.00016,-8e-05,2
5194,5449,-8e-05,1e-05,2.9999999999999997e-05,5e-05,-5.9999999999999995e-05,4e-05,-0.00016,-8e-05,2
5195,5450,-8e-05,1e-05,2.9999999999999997e-05,5e-05,-5.9999999999999995e-05,4e-05,-0.00016,-8e-05,2
5196,5451,-8e-05,1e-05,2.9999999999999997e-05,5e-05,-5.9999999999999995e-05,4e-05,-0.00016,-8e-05,2
5197,5452,-8e-05,1e-05,2.9999999999999997e-05,5e-05,-5.9999999999999995e-05,4e-05,-0.00016,-8e-05,2
5198,5453,-8e-05,1e-05,2.9999999999999997e-05,5e-05,-5.9999999999999995e-05,4e-05,-0.00016,-8e-05,2
5199,5454,-8e-05,1e-05,2.9999999999999997e-05,5e-05,-5.9999999999999995e-05,4e-05,-0.00016,-8e-05,2
5200,5455,-8e-05,1e-05,2.9999999999999997e-05,5e-05,-5.9999999999999995e-05,4e-05,-0.00016,-8e-05,2
5201,5456,-8e-05,1e-05,2.9999999999999997e-05,5e-05,-5.9999999999999995e-05,4e-05,-0.00016,-8e-05,2
5202,5457,-8e-05,1e-05,2.9999999999999997e-05,5e-05,-5.9999999999999995e-05,4e-05,-0.00016,-8e-05,2
5203,5458,-8e-05,1e-05,2.9999999999999997e-05,5e-05,-5.9999999999999995e-05,4e-05,-0.00016,-8e-05,2
5204,5459,-8e-05,1e-05,2.9999999999999997e-05,5e-05,-5.9999999999999995e-05,4e-05,-0.00016,-8e-05,2
5205,5460,-8e-05,1e-05,2.9999999999999997e-05,5e-05,-5.9999999999999995e-05,4e-05,-0.00016,-8e-05,2
5206,5461,-8e-05,1e-05,2.9999999999999997e-05,5e-05,-5.9999999999999995e-05,4e-05,-0.00016,-8e-05,2
5207,5462,-8e-05,1e-05,2.9999999999999997e-05,5e-05,-5.9999999999999995e-05,4e-05,-0.00016,-8e-05,2
5208,5463,-8e-05,1e-05,2.9999999999999997e-05,5e-05,-5.9999999999999995e-05,4e-05,-0.00016,-8e-05,2
5209,5464,-8e-05,1e-05,2.9999999999999997e-05,5e-05,-5.9999999999999995e-05,4e-05,-0.00016,-8e-05,2
5210,5465,-8e-05,1e-05,2.9999999999999997e-05,5e-05,-5.9999999999999995e-05,4e-05,-0.00016,-8e-05,2
5211,5466,-8e-05,1e-05,2.9999999999999997e-05,5e-05,-5.9999999999999995e-05,4e-05,-0.00016,-8e-05,2
5212,5467,-8e-05,1e-05,2.9999999999999997e-05,5e-05,-5.9999999999999995e-05,4e-05,-0.00016,-8e-05,2
5213,5468,-8e-05,1e-05,2.9999999999999997e-05,5e-05,-5.9999999999999995e-05,4e-05,-0.00016,-8e-05,2
5214,5469,-8e-05,1e-05,2.9999999999999997e-05,5e-05,-5.9999999999999995e-05,4e-05,-0.00016,-8e-05,2
5215,5470,-5.9999999999999995e-05,2.9999999999999997e-05,2e-05,-0.00011999999999999999,-4e-05,-2.9999999999999997e-05,-0.00013000000000000002,-0.0001,2
5216,5471,-5.9999999999999995e-05,2.9999999999999997e-05,2e-05,-0.00011999999999999999,-4e-05,-2.9999999999999997e-05,-0.00013000000000000002,-0.0001,2
5217,5472,-0.00013000000000000002,0.0,5.9999999999999995e-05,0.00015,-2e-05,-2.9999999999999997e-05,-5.9999999999999995e-05,-0.00016999999999999999,2
5218,5473,-0.00013000000000000002,0.0,5.9999999999999995e-05,0.00015,-2e-05,-2.9999999999999997e-05,-5.9999999999999995e-05,-0.00016999999999999999,2
5219,5474,-0.00013000000000000002,0.0,5.9999999999999995e-05,0.00015,-2e-05,-2.9999999999999997e-05,-5.9999999999999995e-05,-0.00016999999999999999,2
5220,5475,-0.00013000000000000002,0.0,5.9999999999999995e-05,0.00015,-2e-05,-2.9999999999999997e-05,-5.9999999999999995e-05,-0.00016999999999999999,2
5221,5476,1e-05,2.9999999999999997e-05,-1e-05,-0.00013000000000000002,-5e-05,-1e-05,-9e-05,-5e-05,2
5222,5477,1e-05,2.9999999999999997e-05,-1e-05,-0.00013000000000000002,-5e-05,-1e-05,-9e-05,-5e-05,2
5223,5478,1e-05,2.9999999999999997e-05,-1e-05,-0.00013000000000000002,-5e-05,-1e-05,-9e-05,-5e-05,2
5224,5479,1e-05,2.9999999999999997e-05,-1e-05,-0.00013000000000000002,-5e-05,-1e-05,-9e-05,-5e-05,2
5225,5480,1e-05,2.9999999999999997e-05,-1e-05,-0.00013000000000000002,-5e-05,-1e-05,-9e-05,-5e-05,2
5226,5481,1e-05,2.9999999999999997e-05,-1e-05,-0.00013000000000000002,-5e-05,-1e-05,-9e-05,-5e-05,2
5227,5482,1e-05,2.9999999999999997e-05,-1e-05,-0.00013000000000000002,-5e-05,-1e-05,-9e-05,-5e-05,2
5228,5483,1e-05,2.9999999999999997e-05,-1e-05,-0.00013000000000000002,-5e-05,-1e-05,-9e-05,-5e-05,2
5229,5484,1e-05,2.9999999999999997e-05,-1e-05,-0.00013000000000000002,-5e-05,-1e-05,-9e-05,-5e-05,2
5230,5485,-4e-05,-4e-05,-5e-05,4e-05,7e-05,-1e-05,-2.9999999999999997e-05,0.0,2
5231,5486,-4e-05,-4e-05,-5e-05,4e-05,7e-05,-1e-05,-2.9999999999999997e-05,0.0,2
5232,5489,-4e-05,-4e-05,-5e-05,4e-05,7e-05,-1e-05,-2.9999999999999997e-05,0.0,2
5233,5490,-4e-05,-4e-05,-5e-05,4e-05,7e-05,-1e-05,-2.9999999999999997e-05,0.0,2
5234,5491,-4e-05,-4e-05,-5e-05,4e-05,7e-05,-1e-05,-2.9999999999999997e-05,0.0,2
5235,5492,-4e-05,-4e-05,-5e-05,4e-05,7e-05,-1e-05,-2.9999999999999997e-05,0.0,2
5236,5493,-4e-05,-4e-05,-5e-05,4e-05,7e-05,-1e-05,-2.9999999999999997e-05,0.0,2
5237,5494,-4e-05,-4e-05,-5e-05,4e-05,7e-05,-1e-05,-2.9999999999999997e-05,0.0,2
5238,5495,-4e-05,-4e-05,-5e-05,4e-05,7e-05,-1e-05,-2.9999999999999997e-05,0.0,2
5239,5496,-4e-05,-4e-05,-5e-05,4e-05,7e-05,-1e-05,-2.9999999999999997e-05,0.0,2
5240,5497,-4e-05,-4e-05,-5e-05,4e-05,7e-05,-1e-05,-2.9999999999999997e-05,0.0,2
5241,5498,-4e-05,-4e-05,-5e-05,4e-05,7e-05,-1e-05,-2.9999999999999997e-05,0.0,2
5242,5499,-4e-05,-4e-05,-5e-05,4e-05,7e-05,-1e-05,-2.9999999999999997e-05,0.0,2
5243,5500,-0.00031,-0.00016999999999999999,-0.0001,-0.00022,-2.9999999999999997e-05,2.9999999999999997e-05,4e-05,-0.00016999999999999999,2
5244,5501,-0.00031,-0.00016999999999999999,-0.0001,-0.00022,-2.9999999999999997e-05,2.9999999999999997e-05,4e-05,-0.00016999999999999999,2
5245,5502,-0.00015,0.0,7e-05,0.00022999999999999998,-0.00011,-2.9999999999999997e-05,0.00011999999999999999,1e-05,2
5246,5503,-0.00015,0.0,7e-05,0.00022999999999999998,-0.00011,-2.9999999999999997e-05,0.00011999999999999999,1e-05,2
5247,5504,-0.00015,0.0,7e-05,0.00022999999999999998,-0.00011,-2.9999999999999997e-05,0.00011999999999999999,1e-05,2
5248,5505,-0.00015,0.0,7e-05,0.00022999999999999998,-0.00011,-2.9999999999999997e-05,0.00011999999999999999,1e-05,2
5249,5506,-0.00015,0.0,7e-05,0.00022999999999999998,-0.00011,-2.9999999999999997e-05,0.00011999999999999999,1e-05,2
5250,5507,-0.00015,0.0,7e-05,0.00022999999999999998,-0.00011,-2.9999999999999997e-05,0.00011999999999999999,1e-05,2
5251,5508,-0.00015,0.0,7e-05,0.00022999999999999998,-0.00011,-2.9999999999999997e-05,0.00011999999999999999,1e-05,2
5252,5509,-0.00015,0.0,7e-05,0.00022999999999999998,-0.00011,-2.9999999999999997e-05,0.00011999999999999999,1e-05,2
5253,5510,-0.00015,0.0,7e-05,0.00022999999999999998,-0.00011,-2.9999999999999997e-05,0.00011999999999999999,1e-05,2
5254,5511,-0.00015,0.0,7e-05,0.00022999999999999998,-0.00011,-2.9999999999999997e-05,0.00011999999999999999,1e-05,2
5255,5512,-0.00015,0.0,7e-05,0.00022999999999999998,-0.00011,-2.9999999999999997e-05,0.00011999999999999999,1e-05,2
5256,5513,-0.00015,0.0,7e-05,0.00022999999999999998,-0.00011,-2.9999999999999997e-05,0.00011999999999999999,1e-05,2
5257,5514,-0.00015,0.0,7e-05,0.00022999999999999998,-0.00011,-2.9999999999999997e-05,0.00011999999999999999,1e-05,2
5258,5515,-0.00015,0.0,7e-05,0.00022999999999999998,-0.00011,-2.9999999999999997e-05,0.00011999999999999999,1e-05,2
5259,5516,-0.00015,0.0,7e-05,0.00022999999999999998,-0.00011,-2.9999999999999997e-05,0.00011999999999999999,1e-05,2
5260,5517,-0.00015,0.0,7e-05,0.00022999999999999998,-0.00011,-2.9999999999999997e-05,0.00011999999999999999,1e-05,2
5261,5518,-0.00015,0.0,7e-05,0.00022999999999999998,-0.00011,-2.9999999999999997e-05,0.00011999999999999999,1e-05,2
5262,5519,-0.00015,0.0,7e-05,0.00022999999999999998,-0.00011,-2.9999999999999997e-05,0.00011999999999999999,1e-05,2
5263,5520,-0.00015,0.0,7e-05,0.00022999999999999998,-0.00011,-2.9999999999999997e-05,0.00011999999999999999,1e-05,2
5264,5521,-0.00015,0.0,7e-05,0.00022999999999999998,-0.00011,-2.9999999999999997e-05,0.00011999999999999999,1e-05,2
5265,5522,-0.00015,0.0,7e-05,0.00022999999999999998,-0.00011,-2.9999999999999997e-05,0.00011999999999999999,1e-05,2
5266,5523,0.0,1e-05,8e-05,0.00023999999999999998,2.9999999999999997e-05,5e-05,-5e-05,0.0,2
5267,5524,0.0,1e-05,8e-05,0.00023999999999999998,2.9999999999999997e-05,5e-05,-5e-05,0.0,2
5268,5525,-0.00014,-4e-05,-5.9999999999999995e-05,-0.00015,-0.00011,-5.9999999999999995e-05,-9e-05,-0.00018,2
5269,5526,-0.00014,-4e-05,-5.9999999999999995e-05,-0.00015,-0.00011,-5.9999999999999995e-05,-9e-05,-0.00018,2
5270,5527,-0.00014,-4e-05,-5.9999999999999995e-05,-0.00015,-0.00011,-5.9999999999999995e-05,-9e-05,-0.00018,2
5271,5528,-0.00014,-4e-05,-5.9999999999999995e-05,-0.00015,-0.00011,-5.9999999999999995e-05,-9e-05,-0.00018,2
5272,5529,-0.00014,-4e-05,-5.9999999999999995e-05,-0.00015,-0.00011,-5.9999999999999995e-05,-9e-05,-0.00018,2
5273,5530,-0.00014,-4e-05,-5.9999999999999995e-05,-0.00015,-0.00011,-5.9999999999999995e-05,-9e-05,-0.00018,2
5274,5531,-0.00014,-4e-05,-5.9999999999999995e-05,-0.00015,-0.00011,-5.9999999999999995e-05,-9e-05,-0.00018,2
5275,5532,-0.00014,-4e-05,-5.9999999999999995e-05,-0.00015,-0.00011,-5.9999999999999995e-05,-9e-05,-0.00018,2
5276,5533,-0.00014,-4e-05,-5.9999999999999995e-05,-0.00015,-0.00011,-5.9999999999999995e-05,-9e-05,-0.00018,2
5277,5534,-0.00014,-4e-05,-5.9999999999999995e-05,-0.00015,-0.00011,-5.9999999999999995e-05,-9e-05,-0.00018,2
5278,5535,-0.00014,-4e-05,-5.9999999999999995e-05,-0.00015,-0.00011,-5.9999999999999995e-05,-9e-05,-0.00018,2
5279,5536,-0.00014,-4e-05,-5.9999999999999995e-05,-0.00015,-0.00011,-5.9999999999999995e-05,-9e-05,-0.00018,2
5280,5538,-0.00014,-4e-05,-5.9999999999999995e-05,-0.00015,-0.00011,-5.9999999999999995e-05,-9e-05,-0.00018,2
5281,5539,-0.00014,-4e-05,-5.9999999999999995e-05,-0.00015,-0.00011,-5.9999999999999995e-05,-9e-05,-0.00018,2
5282,5540,-0.00014,-4e-05,-5.9999999999999995e-05,-0.00015,-0.00011,-5.9999999999999995e-05,-9e-05,-0.00018,2
5283,5541,-0.00014,-4e-05,-5.9999999999999995e-05,-0.00015,-0.00011,-5.9999999999999995e-05,-9e-05,-0.00018,2
5284,5542,-0.00014,-4e-05,-5.9999999999999995e-05,-0.00015,-0.00011,-5.9999999999999995e-05,-9e-05,-0.00018,2
5285,5543,-0.00014,-4e-05,-5.9999999999999995e-05,-0.00015,-0.00011,-5.9999999999999995e-05,-9e-05,-0.00018,2
5286,5544,-0.00014,-4e-05,-5.9999999999999995e-05,-0.00015,-0.00011,-5.9999999999999995e-05,-9e-05,-0.00018,2
5287,5545,0.00018999999999999998,0.0,-4e-05,-2e-05,2e-05,-2.9999999999999997e-05,-5.9999999999999995e-05,4e-05,2
5288,5546,0.00018999999999999998,0.0,-4e-05,-2e-05,2e-05,-2.9999999999999997e-05,-5.9999999999999995e-05,4e-05,2
5289,5547,5e-05,1e-05,-8e-05,-0.00028,0.00018,5.9999999999999995e-05,-0.00016,2e-05,2
5290,5548,5e-05,1e-05,-8e-05,-0.00028,0.00018,5.9999999999999995e-05,-0.00016,2e-05,2
5291,5549,5e-05,1e-05,-8e-05,-0.00028,0.00018,5.9999999999999995e-05,-0.00016,2e-05,2
5292,5550,5e-05,1e-05,-8e-05,-0.00028,0.00018,5.9999999999999995e-05,-0.00016,2e-05,2
5293,5551,5e-05,1e-05,-8e-05,-0.00028,0.00018,5.9999999999999995e-05,-0.00016,2e-05,2
5294,5552,5e-05,1e-05,-8e-05,-0.00028,0.00018,5.9999999999999995e-05,-0.00016,2e-05,2
5295,5553,5e-05,1e-05,-8e-05,-0.00028,0.00018,5.9999999999999995e-05,-0.00016,2e-05,2
5296,5554,5e-05,1e-05,-8e-05,-0.00028,0.00018,5.9999999999999995e-05,-0.00016,2e-05,2
5297,5555,5e-05,1e-05,-8e-05,-0.00028,0.00018,5.9999999999999995e-05,-0.00016,2e-05,2
5298,5556,5e-05,1e-05,-8e-05,-0.00028,0.00018,5.9999999999999995e-05,-0.00016,2e-05,2
5299,5557,5e-05,1e-05,-8e-05,-0.00028,0.00018,5.9999999999999995e-05,-0.00016,2e-05,2
5300,5558,5e-05,1e-05,-8e-05,-0.00028,0.00018,5.9999999999999995e-05,-0.00016,2e-05,2
5301,5559,5e-05,1e-05,-8e-05,-0.00028,0.00018,5.9999999999999995e-05,-0.00016,2e-05,2
5302,5560,-0.00011,-5e-05,-0.0001,-0.00016,2e-05,0.0,9e-05,-0.00013000000000000002,2
5303,5561,-0.00011,-5e-05,-0.0001,-0.00016,2e-05,0.0,9e-05,-0.00013000000000000002,2
5304,5562,5.9999999999999995e-05,1e-05,-1e-05,-5.9999999999999995e-05,-0.00011999999999999999,-4e-05,-0.00011,2.9999999999999997e-05,2
5305,5563,5.9999999999999995e-05,1e-05,-1e-05,-5.9999999999999995e-05,-0.00011999999999999999,-4e-05,-0.00011,2.9999999999999997e-05,2
5306,5564,5.9999999999999995e-05,1e-05,-1e-05,-5.9999999999999995e-05,-0.00011999999999999999,-4e-05,-0.00011,2.9999999999999997e-05,2
5307,5565,5.9999999999999995e-05,1e-05,-1e-05,-5.9999999999999995e-05,-0.00011999999999999999,-4e-05,-0.00011,2.9999999999999997e-05,2
5308,5566,5.9999999999999995e-05,1e-05,-1e-05,-5.9999999999999995e-05,-0.00011999999999999999,-4e-05,-0.00011,2.9999999999999997e-05,2
5309,5567,5.9999999999999995e-05,1e-05,-1e-05,-5.9999999999999995e-05,-0.00011999999999999999,-4e-05,-0.00011,2.9999999999999997e-05,2
5310,5568,5.9999999999999995e-05,1e-05,-1e-05,-5.9999999999999995e-05,-0.00011999999999999999,-4e-05,-0.00011,2.9999999999999997e-05,2
5311,5569,5.9999999999999995e-05,1e-05,-1e-05,-5.9999999999999995e-05,-0.00011999999999999999,-4e-05,-0.00011,2.9999999999999997e-05,2
5312,5570,5.9999999999999995e-05,1e-05,-1e-05,-5.9999999999999995e-05,-0.00011999999999999999,-4e-05,-0.00011,2.9999999999999997e-05,2
5313,5571,5.9999999999999995e-05,1e-05,-1e-05,-5.9999999999999995e-05,-0.00011999999999999999,-4e-05,-0.00011,2.9999999999999997e-05,2
5314,5572,5.9999999999999995e-05,1e-05,-1e-05,-5.9999999999999995e-05,-0.00011999999999999999,-4e-05,-0.00011,2.9999999999999997e-05,2
5315,5573,5.9999999999999995e-05,1e-05,-1e-05,-5.9999999999999995e-05,-0.00011999999999999999,-4e-05,-0.00011,2.9999999999999997e-05,2
5316,5574,5.9999999999999995e-05,1e-05,-1e-05,-5.9999999999999995e-05,-0.00011999999999999999,-4e-05,-0.00011,2.9999999999999997e-05,2
5317,5575,5.9999999999999995e-05,1e-05,-1e-05,-5.9999999999999995e-05,-0.00011999999999999999,-4e-05,-0.00011,2.9999999999999997e-05,2
5318,5576,5.9999999999999995e-05,1e-05,-1e-05,-5.9999999999999995e-05,-0.00011999999999999999,-4e-05,-0.00011,2.9999999999999997e-05,2
5319,5577,5.9999999999999995e-05,1e-05,-1e-05,-5.9999999999999995e-05,-0.00011999999999999999,-4e-05,-0.00011,2.9999999999999997e-05,2
5320,5578,5.9999999999999995e-05,1e-05,-1e-05,-5.9999999999999995e-05,-0.00011999999999999999,-4e-05,-0.00011,2.9999999999999997e-05,2
5321,5579,5.9999999999999995e-05,1e-05,-1e-05,-5.9999999999999995e-05,-0.00011999999999999999,-4e-05,-0.00011,2.9999999999999997e-05,2
5322,5580,5.9999999999999995e-05,1e-05,-1e-05,-5.9999999999999995e-05,-0.00011999999999999999,-4e-05,-0.00011,2.9999999999999997e-05,2
5323,5581,5.9999999999999995e-05,1e-05,-1e-05,-5.9999999999999995e-05,-0.00011999999999999999,-4e-05,-0.00011,2.9999999999999997e-05,2
5324,5582,5.9999999999999995e-05,1e-05,-1e-05,-5.9999999999999995e-05,-0.00011999999999999999,-4e-05,-0.00011,2.9999999999999997e-05,2
5325,5583,0.00053,1e-05,-0.0001,-0.00045,-0.00016,2e-05,2e-05,0.00018,2
5326,5584,0.00011,5e-05,0.00014,0.00035,-8e-05,-1e-05,7e-05,2e-05,2
5327,5585,0.00011,5e-05,0.00014,0.00035,-8e-05,-1e-05,7e-05,2e-05,2
5328,5586,0.00011,5e-05,0.00014,0.00035,-8e-05,-1e-05,7e-05,2e-05,2
5329,5588,0.00011,5e-05,0.00014,0.00035,-8e-05,-1e-05,7e-05,2e-05,2
5330,5589,0.00011,5e-05,0.00014,0.00035,-8e-05,-1e-05,7e-05,2e-05,2
5331,5590,0.00011,5e-05,0.00014,0.00035,-8e-05,-1e-05,7e-05,2e-05,2
5332,5591,0.00011,5e-05,0.00014,0.00035,-8e-05,-1e-05,7e-05,2e-05,2
5333,5592,0.00011,5e-05,0.00014,0.00035,-8e-05,-1e-05,7e-05,2e-05,2
5334,5593,0.00011,5e-05,0.00014,0.00035,-8e-05,-1e-05,7e-05,2e-05,2
5335,5594,0.00011,5e-05,0.00014,0.00035,-8e-05,-1e-05,7e-05,2e-05,2
5336,5595,0.00011,5e-05,0.00014,0.00035,-8e-05,-1e-05,7e-05,2e-05,2
5337,5596,0.00011,5e-05,0.00014,0.00035,-8e-05,-1e-05,7e-05,2e-05,2
5338,5597,0.00011,5e-05,0.00014,0.00035,-8e-05,-1e-05,7e-05,2e-05,2
5339,5598,0.00011,5e-05,0.00014,0.00035,-8e-05,-1e-05,7e-05,2e-05,2
5340,5599,0.00011,5e-05,0.00014,0.00035,-8e-05,-1e-05,7e-05,2e-05,2
5341,5600,0.00011,5e-05,0.00014,0.00035,-8e-05,-1e-05,7e-05,2e-05,2
5342,5601,0.00011,5e-05,0.00014,0.00035,-8e-05,-1e-05,7e-05,2e-05,2
5343,5602,0.00011,5e-05,0.00014,0.00035,-8e-05,-1e-05,7e-05,2e-05,2
5344,5603,0.00011,5e-05,0.00014,0.00035,-8e-05,-1e-05,7e-05,2e-05,2
5345,5604,0.00011,5e-05,0.00014,0.00035,-8e-05,-1e-05,7e-05,2e-05,2
5346,5605,2e-05,5.9999999999999995e-05,0.00016,0.00044,-0.00011,-4e-05,2e-05,0.00023999999999999998,2
5347,5606,2e-05,5.9999999999999995e-05,0.00016,0.00044,-0.00011,-4e-05,2e-05,0.00023999999999999998,2
5348,5607,7e-05,-1e-05,-0.0001,-0.0003,0.00018999999999999998,5e-05,0.0001,0.00015,2
5349,5608,7e-05,-1e-05,-0.0001,-0.0003,0.00018999999999999998,5e-05,0.0001,0.00015,2
5350,5609,7e-05,-1e-05,-0.0001,-0.0003,0.00018999999999999998,5e-05,0.0001,0.00015,2
5351,5610,7e-05,-1e-05,-0.0001,-0.0003,0.00018999999999999998,5e-05,0.0001,0.00015,2
5352,5611,7e-05,-1e-05,-0.0001,-0.0003,0.00018999999999999998,5e-05,0.0001,0.00015,2
5353,5612,7e-05,-1e-05,-0.0001,-0.0003,0.00018999999999999998,5e-05,0.0001,0.00015,2
5354,5613,7e-05,-1e-05,-0.0001,-0.0003,0.00018999999999999998,5e-05,0.0001,0.00015,2
5355,5614,7e-05,-1e-05,-0.0001,-0.0003,0.00018999999999999998,5e-05,0.0001,0.00015,2
5356,5615,7e-05,-1e-05,-0.0001,-0.0003,0.00018999999999999998,5e-05,0.0001,0.00015,2
5357,5616,7e-05,-1e-05,-0.0001,-0.0003,0.00018999999999999998,5e-05,0.0001,0.00015,2
5358,5617,7e-05,-1e-05,-0.0001,-0.0003,0.00018999999999999998,5e-05,0.0001,0.00015,2
5359,5618,7e-05,-1e-05,-0.0001,-0.0003,0.00018999999999999998,5e-05,0.0001,0.00015,2
5360,5619,-2e-05,0.0,-2.9999999999999997e-05,-0.00032,1e-05,-4e-05,0.0,0.0,2
5361,5620,-2e-05,0.0,-2.9999999999999997e-05,-0.00032,1e-05,-4e-05,0.0,0.0,2
5362,5621,-2e-05,0.0,-2.9999999999999997e-05,-0.00032,1e-05,-4e-05,0.0,0.0,2
5363,5622,-2e-05,0.0,-2.9999999999999997e-05,-0.00032,1e-05,-4e-05,0.0,0.0,2
5364,5623,-2e-05,0.0,-2.9999999999999997e-05,-0.00032,1e-05,-4e-05,0.0,0.0,2
5365,5624,-2e-05,0.0,-2.9999999999999997e-05,-0.00032,1e-05,-4e-05,0.0,0.0,2
5366,5625,-2e-05,0.0,-2.9999999999999997e-05,-0.00032,1e-05,-4e-05,0.0,0.0,2
5367,5626,-2e-05,0.0,-2.9999999999999997e-05,-0.00032,1e-05,-4e-05,0.0,0.0,2
5368,5627,-2e-05,0.0,-2.9999999999999997e-05,-0.00032,1e-05,-4e-05,0.0,0.0,2
5369,5628,1e-05,2e-05,2e-05,-1e-05,5e-05,5e-05,0.0001,-2e-05,2
5370,5629,1e-05,2e-05,2e-05,-1e-05,5e-05,5e-05,0.0001,-2e-05,2
5371,5630,1e-05,2e-05,2e-05,-1e-05,5e-05,5e-05,0.0001,-2e-05,2
5372,5631,1e-05,2e-05,2e-05,-1e-05,5e-05,5e-05,0.0001,-2e-05,2
5373,5632,1e-05,2e-05,2e-05,-1e-05,5e-05,5e-05,0.0001,-2e-05,2
5374,5633,1e-05,2e-05,2e-05,-1e-05,5e-05,5e-05,0.0001,-2e-05,2
5375,5634,1e-05,2e-05,2e-05,-1e-05,5e-05,5e-05,0.0001,-2e-05,2
5376,5635,1e-05,2e-05,2e-05,-1e-05,5e-05,5e-05,0.0001,-2e-05,2
5377,5636,1e-05,2e-05,2e-05,-1e-05,5e-05,5e-05,0.0001,-2e-05,2
5378,5638,1e-05,2e-05,2e-05,-1e-05,5e-05,5e-05,0.0001,-2e-05,2
5379,5639,1e-05,2e-05,2e-05,-1e-05,5e-05,5e-05,0.0001,-2e-05,2
5380,5640,1e-05,2e-05,2e-05,-1e-05,5e-05,5e-05,0.0001,-2e-05,2
5381,5641,1e-05,2e-05,2e-05,-1e-05,5e-05,5e-05,0.0001,-2e-05,2
5382,5642,1e-05,2e-05,2e-05,-1e-05,5e-05,5e-05,0.0001,-2e-05,2
5383,5643,1e-05,2e-05,2e-05,-1e-05,5e-05,5e-05,0.0001,-2e-05,2
5384,5644,-0.00013000000000000002,1e-05,-2e-05,0.00011,2e-05,2e-05,0.0,-2e-05,2
5385,5645,-0.00013000000000000002,1e-05,-2e-05,0.00011,2e-05,2e-05,0.0,-2e-05,2
5386,5646,0.0,-5e-05,-5e-05,1e-05,-2.9999999999999997e-05,0.0,7e-05,-2e-05,2
5387,5647,0.0,-5e-05,-5e-05,1e-05,-2.9999999999999997e-05,0.0,7e-05,-2e-05,2
5388,5648,0.0,-5e-05,-5e-05,1e-05,-2.9999999999999997e-05,0.0,7e-05,-2e-05,2
5389,5649,0.0,-5e-05,-5e-05,1e-05,-2.9999999999999997e-05,0.0,7e-05,-2e-05,2
5390,5650,0.0,-5e-05,-5e-05,1e-05,-2.9999999999999997e-05,0.0,7e-05,-2e-05,2
5391,5651,0.0,-5e-05,-5e-05,1e-05,-2.9999999999999997e-05,0.0,7e-05,-2e-05,2
5392,5652,0.0,-5e-05,-5e-05,1e-05,-2.9999999999999997e-05,0.0,7e-05,-2e-05,2
5393,5653,0.0,-5e-05,-5e-05,1e-05,-2.9999999999999997e-05,0.0,7e-05,-2e-05,2
5394,5654,0.0,-5e-05,-5e-05,1e-05,-2.9999999999999997e-05,0.0,7e-05,-2e-05,2
5395,5655,0.0,-5e-05,-5e-05,1e-05,-2.9999999999999997e-05,0.0,7e-05,-2e-05,2
5396,5656,0.0,-5e-05,-5e-05,1e-05,-2.9999999999999997e-05,0.0,7e-05,-2e-05,2
5397,5657,0.0,-5e-05,-5e-05,1e-05,-2.9999999999999997e-05,0.0,7e-05,-2e-05,2
5398,5658,0.0,-5e-05,-5e-05,1e-05,-2.9999999999999997e-05,0.0,7e-05,-2e-05,2
5399,5659,0.0,-5e-05,-5e-05,1e-05,-2.9999999999999997e-05,0.0,7e-05,-2e-05,2
5400,5660,0.0,-5e-05,-5e-05,1e-05,-2.9999999999999997e-05,0.0,7e-05,-2e-05,2
5401,5661,0.0,-5e-05,-5e-05,1e-05,-2.9999999999999997e-05,0.0,7e-05,-2e-05,2
5402,5662,0.0,-5e-05,-5e-05,1e-05,-2.9999999999999997e-05,0.0,7e-05,-2e-05,2
5403,5663,0.0,-5e-05,-5e-05,1e-05,-2.9999999999999997e-05,0.0,7e-05,-2e-05,2
5404,5664,0.0,-5e-05,-5e-05,1e-05,-2.9999999999999997e-05,0.0,7e-05,-2e-05,2
5405,5665,0.0,8e-05,0.00011,0.00032,-2.9999999999999997e-05,-2.9999999999999997e-05,-8e-05,-7e-05,2
5406,5666,0.0,8e-05,0.00011,0.00032,-2.9999999999999997e-05,-2.9999999999999997e-05,-8e-05,-7e-05,2
5407,5667,1e-05,-0.00015,-0.00025,-0.00025,-1e-05,-2.9999999999999997e-05,-5e-05,4e-05,2
5408,5668,1e-05,-0.00015,-0.00025,-0.00025,-1e-05,-2.9999999999999997e-05,-5e-05,4e-05,2
5409,5669,1e-05,-0.00015,-0.00025,-0.00025,-1e-05,-2.9999999999999997e-05,-5e-05,4e-05,2
5410,5670,1e-05,-0.00015,-0.00025,-0.00025,-1e-05,-2.9999999999999997e-05,-5e-05,4e-05,2
5411,5671,1e-05,-0.00015,-0.00025,-0.00025,-1e-05,-2.9999999999999997e-05,-5e-05,4e-05,2
5412,5672,1e-05,-0.00015,-0.00025,-0.00025,-1e-05,-2.9999999999999997e-05,-5e-05,4e-05,2
5413,5673,1e-05,-0.00015,-0.00025,-0.00025,-1e-05,-2.9999999999999997e-05,-5e-05,4e-05,2
5414,5674,1e-05,-0.00015,-0.00025,-0.00025,-1e-05,-2.9999999999999997e-05,-5e-05,4e-05,2
5415,5675,1e-05,-0.00015,-0.00025,-0.00025,-1e-05,-2.9999999999999997e-05,-5e-05,4e-05,2
5416,5676,1e-05,-0.00015,-0.00025,-0.00025,-1e-05,-2.9999999999999997e-05,-5e-05,4e-05,2
5417,5677,1e-05,-0.00015,-0.00025,-0.00025,-1e-05,-2.9999999999999997e-05,-5e-05,4e-05,2
5418,5678,1e-05,-0.00015,-0.00025,-0.00025,-1e-05,-2.9999999999999997e-05,-5e-05,4e-05,2
5419,5679,1e-05,-0.00015,-0.00025,-0.00025,-1e-05,-2.9999999999999997e-05,-5e-05,4e-05,2
5420,5680,-5.9999999999999995e-05,-1e-05,0.0001,0.00042,-2e-05,2e-05,0.00018,4e-05,2
5421,5681,-5.9999999999999995e-05,-1e-05,0.0001,0.00042,-2e-05,2e-05,0.00018,4e-05,2
5422,5682,9e-05,1e-05,2e-05,-5e-05,-2.9999999999999997e-05,-0.00011,-0.00011999999999999999,1e-05,2
5423,5683,9e-05,1e-05,2e-05,-5e-05,-2.9999999999999997e-05,-0.00011,-0.00011999999999999999,1e-05,2
5424,5684,9e-05,1e-05,2e-05,-5e-05,-2.9999999999999997e-05,-0.00011,-0.00011999999999999999,1e-05,2
5425,5685,9e-05,1e-05,2e-05,-5e-05,-2.9999999999999997e-05,-0.00011,-0.00011999999999999999,1e-05,2
5426,5686,9e-05,1e-05,2e-05,-5e-05,-2.9999999999999997e-05,-0.00011,-0.00011999999999999999,1e-05,2
5427,5688,9e-05,1e-05,2e-05,-5e-05,-2.9999999999999997e-05,-0.00011,-0.00011999999999999999,1e-05,2
5428,5689,9e-05,1e-05,2e-05,-5e-05,-2.9999999999999997e-05,-0.00011,-0.00011999999999999999,1e-05,2
5429,5690,9e-05,1e-05,2e-05,-5e-05,-2.9999999999999997e-05,-0.00011,-0.00011999999999999999,1e-05,2
5430,5691,9e-05,1e-05,2e-05,-5e-05,-2.9999999999999997e-05,-0.00011,-0.00011999999999999999,1e-05,2
5431,5692,9e-05,1e-05,2e-05,-5e-05,-2.9999999999999997e-05,-0.00011,-0.00011999999999999999,1e-05,2
5432,5693,9e-05,1e-05,2e-05,-5e-05,-2.9999999999999997e-05,-0.00011,-0.00011999999999999999,1e-05,2
5433,5694,9e-05,1e-05,2e-05,-5e-05,-2.9999999999999997e-05,-0.00011,-0.00011999999999999999,1e-05,2
5434,5695,9e-05,1e-05,2e-05,-5e-05,-2.9999999999999997e-05,-0.00011,-0.00011999999999999999,1e-05,2
5435,5696,9e-05,1e-05,2e-05,-5e-05,-2.9999999999999997e-05,-0.00011,-0.00011999999999999999,1e-05,2
5436,5698,9e-05,1e-05,2e-05,-5e-05,-2.9999999999999997e-05,-0.00011,-0.00011999999999999999,1e-05,2
5437,5699,9e-05,1e-05,2e-05,-5e-05,-2.9999999999999997e-05,-0.00011,-0.00011999999999999999,1e-05,2
5438,5700,9e-05,1e-05,2e-05,-5e-05,-2.9999999999999997e-05,-0.00011,-0.00011999999999999999,1e-05,2
5439,5701,9e-05,1e-05,2e-05,-5e-05,-2.9999999999999997e-05,-0.00011,-0.00011999999999999999,1e-05,2
5440,5702,9e-05,1e-05,2e-05,-5e-05,-2.9999999999999997e-05,-0.00011,-0.00011999999999999999,1e-05,2
5441,5703,-0.00021,-9e-05,-0.00015,-0.00011999999999999999,-2.9999999999999997e-05,-0.0001,-8e-05,-0.00025,2
5442,5704,-0.00021,-9e-05,-0.00015,-0.00011999999999999999,-2.9999999999999997e-05,-0.0001,-8e-05,-0.00025,2
5443,5705,-1e-05,-2e-05,-2e-05,-0.00013000000000000002,5.9999999999999995e-05,-1e-05,-7e-05,-7e-05,2
5444,5706,-1e-05,-2e-05,-2e-05,-0.00013000000000000002,5.9999999999999995e-05,-1e-05,-7e-05,-7e-05,2
5445,5707,-1e-05,-2e-05,-2e-05,-0.00013000000000000002,5.9999999999999995e-05,-1e-05,-7e-05,-7e-05,2
5446,5708,-1e-05,-2e-05,-2e-05,-0.00013000000000000002,5.9999999999999995e-05,-1e-05,-7e-05,-7e-05,2
5447,5709,-1e-05,-2e-05,-2e-05,-0.00013000000000000002,5.9999999999999995e-05,-1e-05,-7e-05,-7e-05,2
5448,5710,-1e-05,-2e-05,-2e-05,-0.00013000000000000002,5.9999999999999995e-05,-1e-05,-7e-05,-7e-05,2
5449,5711,-1e-05,-2e-05,-2e-05,-0.00013000000000000002,5.9999999999999995e-05,-1e-05,-7e-05,-7e-05,2
5450,5712,-1e-05,-2e-05,-2e-05,-0.00013000000000000002,5.9999999999999995e-05,-1e-05,-7e-05,-7e-05,2
5451,5713,-1e-05,-2e-05,-2e-05,-0.00013000000000000002,5.9999999999999995e-05,-1e-05,-7e-05,-7e-05,2
5452,5714,-1e-05,-2e-05,-2e-05,-0.00013000000000000002,5.9999999999999995e-05,-1e-05,-7e-05,-7e-05,2
5453,5715,-1e-05,-2e-05,-2e-05,-0.00013000000000000002,5.9999999999999995e-05,-1e-05,-7e-05,-7e-05,2
5454,5716,-1e-05,-2e-05,-2e-05,-0.00013000000000000002,5.9999999999999995e-05,-1e-05,-7e-05,-7e-05,2
5455,5717,-1e-05,-2e-05,-2e-05,-0.00013000000000000002,5.9999999999999995e-05,-1e-05,-7e-05,-7e-05,2
5456,5718,-1e-05,-2e-05,-2e-05,-0.00013000000000000002,5.9999999999999995e-05,-1e-05,-7e-05,-7e-05,2
5457,5719,-1e-05,-2e-05,-2e-05,-0.00013000000000000002,5.9999999999999995e-05,-1e-05,-7e-05,-7e-05,2
5458,5720,-1e-05,-2e-05,-2e-05,-0.00013000000000000002,5.9999999999999995e-05,-1e-05,-7e-05,-7e-05,2
5459,5721,-1e-05,-2e-05,-2e-05,-0.00013000000000000002,5.9999999999999995e-05,-1e-05,-7e-05,-7e-05,2
5460,5722,-1e-05,-2e-05,-2e-05,-0.00013000000000000002,5.9999999999999995e-05,-1e-05,-7e-05,-7e-05,2
5461,5723,-1e-05,-2e-05,-2e-05,-0.00013000000000000002,5.9999999999999995e-05,-1e-05,-7e-05,-7e-05,2
5462,5724,-1e-05,-2e-05,-2e-05,-0.00013000000000000002,5.9999999999999995e-05,-1e-05,-7e-05,-7e-05,2
5463,5725,-1e-05,-2e-05,-2e-05,-0.00013000000000000002,5.9999999999999995e-05,-1e-05,-7e-05,-7e-05,2
5464,5726,5e-05,2.9999999999999997e-05,1e-05,-0.0003,-4e-05,2.9999999999999997e-05,-2.9999999999999997e-05,8e-05,2
5465,5727,-2e-05,-5.9999999999999995e-05,-4e-05,-8e-05,-0.0001,-5e-05,-0.0001,-7e-05,2
5466,5728,-2e-05,-5.9999999999999995e-05,-4e-05,-8e-05,-0.0001,-5e-05,-0.0001,-7e-05,2
5467,5729,-2e-05,-5.9999999999999995e-05,-4e-05,-8e-05,-0.0001,-5e-05,-0.0001,-7e-05,2
5468,5730,-2e-05,-5.9999999999999995e-05,-4e-05,-8e-05,-0.0001,-5e-05,-0.0001,-7e-05,2
5469,5731,-2e-05,-5.9999999999999995e-05,-4e-05,-8e-05,-0.0001,-5e-05,-0.0001,-7e-05,2
5470,5732,-2e-05,-5.9999999999999995e-05,-4e-05,-8e-05,-0.0001,-5e-05,-0.0001,-7e-05,2
5471,5733,-2e-05,-5.9999999999999995e-05,-4e-05,-8e-05,-0.0001,-5e-05,-0.0001,-7e-05,2
5472,5734,-2e-05,-5.9999999999999995e-05,-4e-05,-8e-05,-0.0001,-5e-05,-0.0001,-7e-05,2
5473,5735,-2e-05,-5.9999999999999995e-05,-4e-05,-8e-05,-0.0001,-5e-05,-0.0001,-7e-05,2
5474,5736,-2e-05,-5.9999999999999995e-05,-4e-05,-8e-05,-0.0001,-5e-05,-0.0001,-7e-05,2
5475,5738,-2e-05,-5.9999999999999995e-05,-4e-05,-8e-05,-0.0001,-5e-05,-0.0001,-7e-05,2
5476,5739,-2e-05,-5.9999999999999995e-05,-4e-05,-8e-05,-0.0001,-5e-05,-0.0001,-7e-05,2
5477,5740,-2e-05,-5.9999999999999995e-05,-4e-05,-8e-05,-0.0001,-5e-05,-0.0001,-7e-05,2
5478,5741,-2e-05,-5.9999999999999995e-05,-4e-05,-8e-05,-0.0001,-5e-05,-0.0001,-7e-05,2
5479,5742,-2e-05,-5.9999999999999995e-05,-4e-05,-8e-05,-0.0001,-5e-05,-0.0001,-7e-05,2
5480,5743,-2e-05,-5.9999999999999995e-05,-4e-05,-8e-05,-0.0001,-5e-05,-0.0001,-7e-05,2
5481,5744,-2e-05,-5.9999999999999995e-05,-4e-05,-8e-05,-0.0001,-5e-05,-0.0001,-7e-05,2
5482,5745,-2e-05,-5.9999999999999995e-05,-4e-05,-8e-05,-0.0001,-5e-05,-0.0001,-7e-05,2
5483,5746,-2e-05,-5.9999999999999995e-05,-4e-05,-8e-05,-0.0001,-5e-05,-0.0001,-7e-05,2
5484,5747,-2e-05,-5.9999999999999995e-05,-4e-05,-8e-05,-0.0001,-5e-05,-0.0001,-7e-05,2
5485,5748,-2e-05,-5.9999999999999995e-05,-4e-05,-8e-05,-0.0001,-5e-05,-0.0001,-7e-05,2
5486,5749,-2e-05,-5.9999999999999995e-05,-4e-05,-8e-05,-0.0001,-5e-05,-0.0001,-7e-05,2
5487,5750,-2e-05,-5.9999999999999995e-05,-4e-05,-8e-05,-0.0001,-5e-05,-0.0001,-7e-05,2
5488,5751,-2e-05,-5.9999999999999995e-05,-4e-05,-8e-05,-0.0001,-5e-05,-0.0001,-7e-05,2
5489,5752,-2e-05,-5.9999999999999995e-05,-4e-05,-8e-05,-0.0001,-5e-05,-0.0001,-7e-05,2
5490,5753,-2e-05,-5.9999999999999995e-05,-4e-05,-8e-05,-0.0001,-5e-05,-0.0001,-7e-05,2
5491,5754,-2e-05,-5.9999999999999995e-05,-4e-05,-8e-05,-0.0001,-5e-05,-0.0001,-7e-05,2
5492,5755,0.00029,7e-05,0.0,-0.00035,0.0,-9e-05,-4e-05,0.00011999999999999999,2
5493,5756,0.00029,7e-05,0.0,-0.00035,0.0,-9e-05,-4e-05,0.00011999999999999999,2
5494,5757,-5e-05,2e-05,7e-05,0.00014,-2e-05,-2.9999999999999997e-05,0.00014,1e-05,2
5495,5758,-5e-05,2e-05,7e-05,0.00014,-2e-05,-2.9999999999999997e-05,0.00014,1e-05,2
5496,5759,-5e-05,2e-05,7e-05,0.00014,-2e-05,-2.9999999999999997e-05,0.00014,1e-05,2
5497,5760,-5e-05,2e-05,7e-05,0.00014,-2e-05,-2.9999999999999997e-05,0.00014,1e-05,2
5498,5761,-5e-05,2e-05,7e-05,0.00014,-2e-05,-2.9999999999999997e-05,0.00014,1e-05,2
5499,5762,-5e-05,2e-05,7e-05,0.00014,-2e-05,-2.9999999999999997e-05,0.00014,1e-05,2
5500,5763,-0.00011999999999999999,-5e-05,-1e-05,5e-05,-0.00015,-5.9999999999999995e-05,-2.9999999999999997e-05,-0.00016999999999999999,2
5501,5764,9e-05,5e-05,9e-05,0.00018999999999999998,-1e-05,-5e-05,0.0001,2e-05,2
5502,5765,9e-05,5e-05,9e-05,0.00018999999999999998,-1e-05,-5e-05,0.0001,2e-05,2
5503,5766,9e-05,5e-05,9e-05,0.00018999999999999998,-1e-05,-5e-05,0.0001,2e-05,2
5504,5767,9e-05,5e-05,9e-05,0.00018999999999999998,-1e-05,-5e-05,0.0001,2e-05,2
5505,5768,9e-05,5e-05,9e-05,0.00018999999999999998,-1e-05,-5e-05,0.0001,2e-05,2
5506,5769,9e-05,5e-05,9e-05,0.00018999999999999998,-1e-05,-5e-05,0.0001,2e-05,2
5507,5770,9e-05,5e-05,9e-05,0.00018999999999999998,-1e-05,-5e-05,0.0001,2e-05,2
5508,5771,9e-05,5e-05,9e-05,0.00018999999999999998,-1e-05,-5e-05,0.0001,2e-05,2
5509,5772,9e-05,5e-05,9e-05,0.00018999999999999998,-1e-05,-5e-05,0.0001,2e-05,2
5510,5773,9e-05,5e-05,9e-05,0.00018999999999999998,-1e-05,-5e-05,0.0001,2e-05,2
5511,5774,9e-05,5e-05,9e-05,0.00018999999999999998,-1e-05,-5e-05,0.0001,2e-05,2
5512,5775,9e-05,5e-05,9e-05,0.00018999999999999998,-1e-05,-5e-05,0.0001,2e-05,2
5513,5776,9e-05,5e-05,9e-05,0.00018999999999999998,-1e-05,-5e-05,0.0001,2e-05,2
5514,5777,9e-05,5e-05,9e-05,0.00018999999999999998,-1e-05,-5e-05,0.0001,2e-05,2
5515,5778,9e-05,5e-05,9e-05,0.00018999999999999998,-1e-05,-5e-05,0.0001,2e-05,2
5516,5779,9e-05,5e-05,9e-05,0.00018999999999999998,-1e-05,-5e-05,0.0001,2e-05,2
5517,5780,9e-05,5e-05,9e-05,0.00018999999999999998,-1e-05,-5e-05,0.0001,2e-05,2
5518,5781,9e-05,5e-05,9e-05,0.00018999999999999998,-1e-05,-5e-05,0.0001,2e-05,2
5519,5782,9e-05,5e-05,9e-05,0.00018999999999999998,-1e-05,-5e-05,0.0001,2e-05,2
5520,5783,9e-05,5e-05,9e-05,0.00018999999999999998,-1e-05,-5e-05,0.0001,2e-05,2
5521,5784,9e-05,5e-05,9e-05,0.00018999999999999998,-1e-05,-5e-05,0.0001,2e-05,2
5522,5785,9e-05,5e-05,9e-05,0.00018999999999999998,-1e-05,-5e-05,0.0001,2e-05,2
5523,5786,9e-05,5e-05,9e-05,0.00018999999999999998,-1e-05,-5e-05,0.0001,2e-05,2
5524,5788,9e-05,5e-05,9e-05,0.00018999999999999998,-1e-05,-5e-05,0.0001,2e-05,2
5525,5789,9e-05,5e-05,9e-05,0.00018999999999999998,-1e-05,-5e-05,0.0001,2e-05,2
5526,5790,9e-05,5e-05,9e-05,0.00018999999999999998,-1e-05,-5e-05,0.0001,2e-05,2
5527,5791,9e-05,5e-05,9e-05,0.00018999999999999998,-1e-05,-5e-05,0.0001,2e-05,2
5528,5793,-0.00016999999999999999,-2e-05,1e-05,0.00018,5.9999999999999995e-05,-7e-05,-0.0001,-0.00015,2
5529,5794,-0.00016999999999999999,-2e-05,1e-05,0.00018,5.9999999999999995e-05,-7e-05,-0.0001,-0.00015,2
5530,5795,-0.00016999999999999999,-2e-05,1e-05,0.00018,5.9999999999999995e-05,-7e-05,-0.0001,-0.00015,2
5531,5796,-0.00016999999999999999,-2e-05,1e-05,0.00018,5.9999999999999995e-05,-7e-05,-0.0001,-0.00015,2
5532,5797,-0.00016999999999999999,-2e-05,1e-05,0.00018,5.9999999999999995e-05,-7e-05,-0.0001,-0.00015,2
5533,5798,-0.00016999999999999999,-2e-05,1e-05,0.00018,5.9999999999999995e-05,-7e-05,-0.0001,-0.00015,2
5534,5799,-0.00016999999999999999,-2e-05,1e-05,0.00018,5.9999999999999995e-05,-7e-05,-0.0001,-0.00015,2
5535,5800,-0.00016999999999999999,-2e-05,1e-05,0.00018,5.9999999999999995e-05,-7e-05,-0.0001,-0.00015,2
5536,5801,-0.00016999999999999999,-2e-05,1e-05,0.00018,5.9999999999999995e-05,-7e-05,-0.0001,-0.00015,2
5537,5802,-4e-05,-5e-05,-9e-05,0.00023999999999999998,0.00021,2e-05,0.0,-2.9999999999999997e-05,2
5538,5803,0.00014,0.0,5.9999999999999995e-05,0.00029,-4e-05,-2e-05,0.00018999999999999998,9e-05,2
5539,5804,0.00014,0.0,5.9999999999999995e-05,0.00029,-4e-05,-2e-05,0.00018999999999999998,9e-05,2
5540,5805,0.00014,0.0,5.9999999999999995e-05,0.00029,-4e-05,-2e-05,0.00018999999999999998,9e-05,2
5541,5806,2e-05,0.00011,0.00011999999999999999,0.0001,-8e-05,7e-05,-2e-05,-2e-05,2
5542,5807,2e-05,0.00011,0.00011999999999999999,0.0001,-8e-05,7e-05,-2e-05,-2e-05,2
5543,5808,2e-05,0.00011,0.00011999999999999999,0.0001,-8e-05,7e-05,-2e-05,-2e-05,2
5544,5809,2e-05,0.00011,0.00011999999999999999,0.0001,-8e-05,7e-05,-2e-05,-2e-05,2
5545,5810,2e-05,0.00011,0.00011999999999999999,0.0001,-8e-05,7e-05,-2e-05,-2e-05,2
5546,5811,2e-05,0.00011,0.00011999999999999999,0.0001,-8e-05,7e-05,-2e-05,-2e-05,2
5547,5812,2e-05,0.00011,0.00011999999999999999,0.0001,-8e-05,7e-05,-2e-05,-2e-05,2
5548,5813,2e-05,0.00011,0.00011999999999999999,0.0001,-8e-05,7e-05,-2e-05,-2e-05,2
5549,5814,2e-05,0.00011,0.00011999999999999999,0.0001,-8e-05,7e-05,-2e-05,-2e-05,2
5550,5815,2e-05,0.00011,0.00011999999999999999,0.0001,-8e-05,7e-05,-2e-05,-2e-05,2
5551,5816,2e-05,0.00011,0.00011999999999999999,0.0001,-8e-05,7e-05,-2e-05,-2e-05,2
5552,5817,2e-05,0.00011,0.00011999999999999999,0.0001,-8e-05,7e-05,-2e-05,-2e-05,2
5553,5818,2e-05,0.00011,0.00011999999999999999,0.0001,-8e-05,7e-05,-2e-05,-2e-05,2
5554,5819,2e-05,0.00011,0.00011999999999999999,0.0001,-8e-05,7e-05,-2e-05,-2e-05,2
5555,5820,2e-05,0.00011,0.00011999999999999999,0.0001,-8e-05,7e-05,-2e-05,-2e-05,2
5556,5821,2e-05,0.00011,0.00011999999999999999,0.0001,-8e-05,7e-05,-2e-05,-2e-05,2
5557,5822,2e-05,0.00011,0.00011999999999999999,0.0001,-8e-05,7e-05,-2e-05,-2e-05,2
5558,5823,-0.0001,-0.00011999999999999999,-0.00027,-0.00037,7e-05,1e-05,-8e-05,2e-05,2
5559,5824,-2.9999999999999997e-05,-1e-05,-2.9999999999999997e-05,-5.9999999999999995e-05,-0.00016999999999999999,4e-05,2.9999999999999997e-05,1e-05,2
5560,5825,-2.9999999999999997e-05,-1e-05,-2.9999999999999997e-05,-5.9999999999999995e-05,-0.00016999999999999999,4e-05,2.9999999999999997e-05,1e-05,2
5561,5826,-2.9999999999999997e-05,-1e-05,-2.9999999999999997e-05,-5.9999999999999995e-05,-0.00016999999999999999,4e-05,2.9999999999999997e-05,1e-05,2
5562,5827,-2.9999999999999997e-05,-1e-05,-2.9999999999999997e-05,-5.9999999999999995e-05,-0.00016999999999999999,4e-05,2.9999999999999997e-05,1e-05,2
5563,5828,-2.9999999999999997e-05,-1e-05,-2.9999999999999997e-05,-5.9999999999999995e-05,-0.00016999999999999999,4e-05,2.9999999999999997e-05,1e-05,2
5564,5829,-2.9999999999999997e-05,-1e-05,-2.9999999999999997e-05,-5.9999999999999995e-05,-0.00016999999999999999,4e-05,2.9999999999999997e-05,1e-05,2
5565,5830,-2.9999999999999997e-05,-1e-05,-2.9999999999999997e-05,-5.9999999999999995e-05,-0.00016999999999999999,4e-05,2.9999999999999997e-05,1e-05,2
5566,5831,-2.9999999999999997e-05,-1e-05,-2.9999999999999997e-05,-5.9999999999999995e-05,-0.00016999999999999999,4e-05,2.9999999999999997e-05,1e-05,2
5567,5832,-2.9999999999999997e-05,-1e-05,-2.9999999999999997e-05,-5.9999999999999995e-05,-0.00016999999999999999,4e-05,2.9999999999999997e-05,1e-05,2
5568,5833,-2.9999999999999997e-05,-1e-05,-2.9999999999999997e-05,-5.9999999999999995e-05,-0.00016999999999999999,4e-05,2.9999999999999997e-05,1e-05,2
5569,5834,-2.9999999999999997e-05,-1e-05,-2.9999999999999997e-05,-5.9999999999999995e-05,-0.00016999999999999999,4e-05,2.9999999999999997e-05,1e-05,2
5570,5835,-2.9999999999999997e-05,-1e-05,-2.9999999999999997e-05,-5.9999999999999995e-05,-0.00016999999999999999,4e-05,2.9999999999999997e-05,1e-05,2
5571,5836,-2.9999999999999997e-05,-1e-05,-2.9999999999999997e-05,-5.9999999999999995e-05,-0.00016999999999999999,4e-05,2.9999999999999997e-05,1e-05,2
5572,5839,-2.9999999999999997e-05,-1e-05,-2.9999999999999997e-05,-5.9999999999999995e-05,-0.00016999999999999999,4e-05,2.9999999999999997e-05,1e-05,2
5573,5840,-2.9999999999999997e-05,-1e-05,-2.9999999999999997e-05,-5.9999999999999995e-05,-0.00016999999999999999,4e-05,2.9999999999999997e-05,1e-05,2
5574,5841,-2.9999999999999997e-05,-1e-05,-2.9999999999999997e-05,-5.9999999999999995e-05,-0.00016999999999999999,4e-05,2.9999999999999997e-05,1e-05,2
5575,5842,-2.9999999999999997e-05,-1e-05,-2.9999999999999997e-05,-5.9999999999999995e-05,-0.00016999999999999999,4e-05,2.9999999999999997e-05,1e-05,2
5576,5843,-2.9999999999999997e-05,-1e-05,-2.9999999999999997e-05,-5.9999999999999995e-05,-0.00016999999999999999,4e-05,2.9999999999999997e-05,1e-05,2
5577,5844,-2.9999999999999997e-05,-1e-05,-2.9999999999999997e-05,-5.9999999999999995e-05,-0.00016999999999999999,4e-05,2.9999999999999997e-05,1e-05,2
5578,5845,-5e-05,1e-05,-4e-05,-0.00022999999999999998,2.9999999999999997e-05,-2.9999999999999997e-05,-8e-05,-1e-05,2
5579,5846,-5e-05,1e-05,-4e-05,-0.00022999999999999998,2.9999999999999997e-05,-2.9999999999999997e-05,-8e-05,-1e-05,2
5580,5847,-5e-05,-5.9999999999999995e-05,0.0,-0.00016,-0.00018,-0.00011999999999999999,-2e-05,-1e-05,2
5581,5848,-5e-05,-5.9999999999999995e-05,0.0,-0.00016,-0.00018,-0.00011999999999999999,-2e-05,-1e-05,2
5582,5849,-5e-05,-5.9999999999999995e-05,0.0,-0.00016,-0.00018,-0.00011999999999999999,-2e-05,-1e-05,2
5583,5850,-5e-05,-5.9999999999999995e-05,0.0,-0.00016,-0.00018,-0.00011999999999999999,-2e-05,-1e-05,2
5584,5851,-5e-05,-5.9999999999999995e-05,0.0,-0.00016,-0.00018,-0.00011999999999999999,-2e-05,-1e-05,2
5585,5852,-5e-05,-5.9999999999999995e-05,0.0,-0.00016,-0.00018,-0.00011999999999999999,-2e-05,-1e-05,2
5586,5853,-5e-05,-5.9999999999999995e-05,0.0,-0.00016,-0.00018,-0.00011999999999999999,-2e-05,-1e-05,2
5587,5854,-5e-05,-5.9999999999999995e-05,0.0,-0.00016,-0.00018,-0.00011999999999999999,-2e-05,-1e-05,2
5588,5855,-5e-05,-5.9999999999999995e-05,0.0,-0.00016,-0.00018,-0.00011999999999999999,-2e-05,-1e-05,2
5589,5856,-5e-05,-5.9999999999999995e-05,0.0,-0.00016,-0.00018,-0.00011999999999999999,-2e-05,-1e-05,2
5590,5857,-5e-05,-5.9999999999999995e-05,0.0,-0.00016,-0.00018,-0.00011999999999999999,-2e-05,-1e-05,2
5591,5858,-5e-05,-5.9999999999999995e-05,0.0,-0.00016,-0.00018,-0.00011999999999999999,-2e-05,-1e-05,2
5592,5859,-5e-05,-5.9999999999999995e-05,0.0,-0.00016,-0.00018,-0.00011999999999999999,-2e-05,-1e-05,2
5593,5860,5e-05,-1e-05,-5.9999999999999995e-05,-7e-05,4e-05,0.00011999999999999999,-1e-05,0.0,2
5594,5861,5e-05,-1e-05,-5.9999999999999995e-05,-7e-05,4e-05,0.00011999999999999999,-1e-05,0.0,2
5595,5862,5e-05,-1e-05,-5.9999999999999995e-05,-7e-05,4e-05,0.00011999999999999999,-1e-05,0.0,2
5596,5863,5e-05,-1e-05,-5.9999999999999995e-05,-7e-05,4e-05,0.00011999999999999999,-1e-05,0.0,2
5597,5864,5e-05,-1e-05,-5.9999999999999995e-05,-7e-05,4e-05,0.00011999999999999999,-1e-05,0.0,2
5598,5865,5e-05,-1e-05,-5.9999999999999995e-05,-7e-05,4e-05,0.00011999999999999999,-1e-05,0.0,2
5599,5866,-5.9999999999999995e-05,-2.9999999999999997e-05,5.9999999999999995e-05,9e-05,1e-05,2e-05,2e-05,-8e-05,2
5600,5867,-5.9999999999999995e-05,-2.9999999999999997e-05,5.9999999999999995e-05,9e-05,1e-05,2e-05,2e-05,-8e-05,2
5601,5868,-5.9999999999999995e-05,-2.9999999999999997e-05,5.9999999999999995e-05,9e-05,1e-05,2e-05,2e-05,-8e-05,2
5602,5869,-5.9999999999999995e-05,-2.9999999999999997e-05,5.9999999999999995e-05,9e-05,1e-05,2e-05,2e-05,-8e-05,2
5603,5870,-5.9999999999999995e-05,-2.9999999999999997e-05,5.9999999999999995e-05,9e-05,1e-05,2e-05,2e-05,-8e-05,2
5604,5871,-5.9999999999999995e-05,-2.9999999999999997e-05,5.9999999999999995e-05,9e-05,1e-05,2e-05,2e-05,-8e-05,2
5605,5872,-5.9999999999999995e-05,-2.9999999999999997e-05,5.9999999999999995e-05,9e-05,1e-05,2e-05,2e-05,-8e-05,2
5606,5873,-5.9999999999999995e-05,-2.9999999999999997e-05,5.9999999999999995e-05,9e-05,1e-05,2e-05,2e-05,-8e-05,2
5607,5874,-5.9999999999999995e-05,-2.9999999999999997e-05,5.9999999999999995e-05,9e-05,1e-05,2e-05,2e-05,-8e-05,2
5608,5875,-5.9999999999999995e-05,-2.9999999999999997e-05,5.9999999999999995e-05,9e-05,1e-05,2e-05,2e-05,-8e-05,2
5609,5876,-5.9999999999999995e-05,-2.9999999999999997e-05,5.9999999999999995e-05,9e-05,1e-05,2e-05,2e-05,-8e-05,2
5610,5877,-5.9999999999999995e-05,-2.9999999999999997e-05,5.9999999999999995e-05,9e-05,1e-05,2e-05,2e-05,-8e-05,2
5611,5878,-5.9999999999999995e-05,-2.9999999999999997e-05,5.9999999999999995e-05,9e-05,1e-05,2e-05,2e-05,-8e-05,2
5612,5879,-5.9999999999999995e-05,-2.9999999999999997e-05,5.9999999999999995e-05,9e-05,1e-05,2e-05,2e-05,-8e-05,2
5613,5880,-5.9999999999999995e-05,-2.9999999999999997e-05,5.9999999999999995e-05,9e-05,1e-05,2e-05,2e-05,-8e-05,2
5614,5881,-5.9999999999999995e-05,-2.9999999999999997e-05,5.9999999999999995e-05,9e-05,1e-05,2e-05,2e-05,-8e-05,2
5615,5882,-5.9999999999999995e-05,-2.9999999999999997e-05,5.9999999999999995e-05,9e-05,1e-05,2e-05,2e-05,-8e-05,2
5616,5883,0.00011,-1e-05,2e-05,9e-05,0.00011999999999999999,4e-05,0.0,5.9999999999999995e-05,2
5617,5884,0.00011,-1e-05,2e-05,9e-05,0.00011999999999999999,4e-05,0.0,5.9999999999999995e-05,2
5618,5885,-1e-05,2e-05,-5e-05,-0.00018999999999999998,0.00011,-1e-05,-5e-05,-0.00025,2
5619,5886,-1e-05,2e-05,-5e-05,-0.00018999999999999998,0.00011,-1e-05,-5e-05,-0.00025,2
5620,5888,-1e-05,2e-05,-5e-05,-0.00018999999999999998,0.00011,-1e-05,-5e-05,-0.00025,2
5621,5889,-1e-05,2e-05,-5e-05,-0.00018999999999999998,0.00011,-1e-05,-5e-05,-0.00025,2
5622,5890,-1e-05,2e-05,-5e-05,-0.00018999999999999998,0.00011,-1e-05,-5e-05,-0.00025,2
5623,5891,-1e-05,2e-05,-5e-05,-0.00018999999999999998,0.00011,-1e-05,-5e-05,-0.00025,2
5624,5892,-1e-05,2e-05,-5e-05,-0.00018999999999999998,0.00011,-1e-05,-5e-05,-0.00025,2
5625,5893,-1e-05,2e-05,-5e-05,-0.00018999999999999998,0.00011,-1e-05,-5e-05,-0.00025,2
5626,5894,-1e-05,2e-05,-5e-05,-0.00018999999999999998,0.00011,-1e-05,-5e-05,-0.00025,2
5627,5895,-1e-05,2e-05,-5e-05,-0.00018999999999999998,0.00011,-1e-05,-5e-05,-0.00025,2
5628,5896,-1e-05,2e-05,-5e-05,-0.00018999999999999998,0.00011,-1e-05,-5e-05,-0.00025,2
5629,5897,-1e-05,2e-05,-5e-05,-0.00018999999999999998,0.00011,-1e-05,-5e-05,-0.00025,2
5630,5898,-1e-05,2e-05,-5e-05,-0.00018999999999999998,0.00011,-1e-05,-5e-05,-0.00025,2
5631,5899,-1e-05,2e-05,-5e-05,-0.00018999999999999998,0.00011,-1e-05,-5e-05,-0.00025,2
5632,5900,-1e-05,2e-05,-5e-05,-0.00018999999999999998,0.00011,-1e-05,-5e-05,-0.00025,2
5633,5901,-1e-05,2e-05,-5e-05,-0.00018999999999999998,0.00011,-1e-05,-5e-05,-0.00025,2
5634,5902,-1e-05,2e-05,-5e-05,-0.00018999999999999998,0.00011,-1e-05,-5e-05,-0.00025,2
5635,5903,-1e-05,2e-05,-5e-05,-0.00018999999999999998,0.00011,-1e-05,-5e-05,-0.00025,2
5636,5904,-1e-05,2e-05,-5e-05,-0.00018999999999999998,0.00011,-1e-05,-5e-05,-0.00025,2
5637,5905,7e-05,4e-05,9e-05,0.00011,-1e-05,5e-05,4e-05,0.00011,2
5638,5906,7e-05,4e-05,9e-05,0.00011,-1e-05,5e-05,4e-05,0.00011,2
5639,5907,-7e-05,1e-05,-7e-05,-0.00062,4e-05,7e-05,1e-05,7e-05,2
5640,5908,-7e-05,1e-05,-7e-05,-0.00062,4e-05,7e-05,1e-05,7e-05,2
5641,5909,-7e-05,1e-05,-7e-05,-0.00062,4e-05,7e-05,1e-05,7e-05,2
5642,5910,-7e-05,1e-05,-7e-05,-0.00062,4e-05,7e-05,1e-05,7e-05,2
5643,5911,-7e-05,1e-05,-7e-05,-0.00062,4e-05,7e-05,1e-05,7e-05,2
5644,5912,-7e-05,1e-05,-7e-05,-0.00062,4e-05,7e-05,1e-05,7e-05,2
5645,5913,-7e-05,1e-05,-7e-05,-0.00062,4e-05,7e-05,1e-05,7e-05,2
5646,5914,-7e-05,1e-05,-7e-05,-0.00062,4e-05,7e-05,1e-05,7e-05,2
5647,5915,-7e-05,1e-05,-7e-05,-0.00062,4e-05,7e-05,1e-05,7e-05,2
5648,5916,-7e-05,1e-05,-7e-05,-0.00062,4e-05,7e-05,1e-05,7e-05,2
5649,5917,-7e-05,1e-05,-7e-05,-0.00062,4e-05,7e-05,1e-05,7e-05,2
5650,5918,-7e-05,1e-05,-7e-05,-0.00062,4e-05,7e-05,1e-05,7e-05,2
5651,5919,-7e-05,1e-05,-7e-05,-0.00062,4e-05,7e-05,1e-05,7e-05,2
5652,5920,-2.9999999999999997e-05,1e-05,-1e-05,5.9999999999999995e-05,-2.9999999999999997e-05,-5.9999999999999995e-05,7e-05,-5e-05,2
5653,5921,-2.9999999999999997e-05,1e-05,-1e-05,5.9999999999999995e-05,-2.9999999999999997e-05,-5.9999999999999995e-05,7e-05,-5e-05,2
5654,5922,-2.9999999999999997e-05,1e-05,-1e-05,5.9999999999999995e-05,-2.9999999999999997e-05,-5.9999999999999995e-05,7e-05,-5e-05,2
5655,5923,-2.9999999999999997e-05,1e-05,-1e-05,5.9999999999999995e-05,-2.9999999999999997e-05,-5.9999999999999995e-05,7e-05,-5e-05,2
5656,5924,-2.9999999999999997e-05,1e-05,-1e-05,5.9999999999999995e-05,-2.9999999999999997e-05,-5.9999999999999995e-05,7e-05,-5e-05,2
5657,5925,-2.9999999999999997e-05,1e-05,-1e-05,5.9999999999999995e-05,-2.9999999999999997e-05,-5.9999999999999995e-05,7e-05,-5e-05,2
5658,5926,-2.9999999999999997e-05,1e-05,-1e-05,5.9999999999999995e-05,-2.9999999999999997e-05,-5.9999999999999995e-05,7e-05,-5e-05,2
5659,5927,-2.9999999999999997e-05,1e-05,-1e-05,5.9999999999999995e-05,-2.9999999999999997e-05,-5.9999999999999995e-05,7e-05,-5e-05,2
5660,5928,-2.9999999999999997e-05,1e-05,-1e-05,5.9999999999999995e-05,-2.9999999999999997e-05,-5.9999999999999995e-05,7e-05,-5e-05,2
5661,5929,-2.9999999999999997e-05,1e-05,-1e-05,5.9999999999999995e-05,-2.9999999999999997e-05,-5.9999999999999995e-05,7e-05,-5e-05,2
5662,5930,-2.9999999999999997e-05,1e-05,-1e-05,5.9999999999999995e-05,-2.9999999999999997e-05,-5.9999999999999995e-05,7e-05,-5e-05,2
5663,5931,-2.9999999999999997e-05,1e-05,-1e-05,5.9999999999999995e-05,-2.9999999999999997e-05,-5.9999999999999995e-05,7e-05,-5e-05,2
5664,5932,-2.9999999999999997e-05,1e-05,-1e-05,5.9999999999999995e-05,-2.9999999999999997e-05,-5.9999999999999995e-05,7e-05,-5e-05,2
5665,5933,-2.9999999999999997e-05,1e-05,-1e-05,5.9999999999999995e-05,-2.9999999999999997e-05,-5.9999999999999995e-05,7e-05,-5e-05,2
5666,5934,1e-05,1e-05,0.0,7e-05,1e-05,0.0,1e-05,5e-05,2
5667,5935,1e-05,1e-05,0.0,7e-05,1e-05,0.0,1e-05,5e-05,2
5668,5936,1e-05,1e-05,0.0,7e-05,1e-05,0.0,1e-05,5e-05,2
5669,5938,1e-05,1e-05,0.0,7e-05,1e-05,0.0,1e-05,5e-05,2
5670,5939,1e-05,1e-05,0.0,7e-05,1e-05,0.0,1e-05,5e-05,2
5671,5940,1e-05,1e-05,0.0,7e-05,1e-05,0.0,1e-05,5e-05,2
5672,5941,1e-05,1e-05,0.0,7e-05,1e-05,0.0,1e-05,5e-05,2
5673,5942,1e-05,1e-05,0.0,7e-05,1e-05,0.0,1e-05,5e-05,2
5674,5943,1e-05,1e-05,0.0,7e-05,1e-05,0.0,1e-05,5e-05,2
5675,5944,-0.00026000000000000003,-4e-05,2e-05,0.00016999999999999999,0.00018,-1e-05,-0.00026000000000000003,-0.00022,2
5676,5945,-0.00026000000000000003,-4e-05,2e-05,0.00016999999999999999,0.00018,-1e-05,-0.00026000000000000003,-0.00022,2
5677,5946,-0.00026000000000000003,-4e-05,2e-05,0.00016999999999999999,0.00018,-1e-05,-0.00026000000000000003,-0.00022,2
5678,5947,-0.00026000000000000003,-4e-05,2e-05,0.00016999999999999999,0.00018,-1e-05,-0.00026000000000000003,-0.00022,2
5679,5948,-0.00026000000000000003,-4e-05,2e-05,0.00016999999999999999,0.00018,-1e-05,-0.00026000000000000003,-0.00022,2
5680,5949,-0.00026000000000000003,-4e-05,2e-05,0.00016999999999999999,0.00018,-1e-05,-0.00026000000000000003,-0.00022,2
5681,5950,-0.00026000000000000003,-4e-05,2e-05,0.00016999999999999999,0.00018,-1e-05,-0.00026000000000000003,-0.00022,2
5682,5951,-0.00026000000000000003,-4e-05,2e-05,0.00016999999999999999,0.00018,-1e-05,-0.00026000000000000003,-0.00022,2
5683,5952,-0.00026000000000000003,-4e-05,2e-05,0.00016999999999999999,0.00018,-1e-05,-0.00026000000000000003,-0.00022,2
5684,5953,-0.00026000000000000003,-4e-05,2e-05,0.00016999999999999999,0.00018,-1e-05,-0.00026000000000000003,-0.00022,2
5685,5954,-0.00026000000000000003,-4e-05,2e-05,0.00016999999999999999,0.00018,-1e-05,-0.00026000000000000003,-0.00022,2
5686,5955,-0.00026000000000000003,-4e-05,2e-05,0.00016999999999999999,0.00018,-1e-05,-0.00026000000000000003,-0.00022,2
5687,5956,-0.00026000000000000003,-4e-05,2e-05,0.00016999999999999999,0.00018,-1e-05,-0.00026000000000000003,-0.00022,2
5688,5957,-0.00026000000000000003,-4e-05,2e-05,0.00016999999999999999,0.00018,-1e-05,-0.00026000000000000003,-0.00022,2
5689,5958,-0.00026000000000000003,-4e-05,2e-05,0.00016999999999999999,0.00018,-1e-05,-0.00026000000000000003,-0.00022,2
5690,5959,-0.00026000000000000003,-4e-05,2e-05,0.00016999999999999999,0.00018,-1e-05,-0.00026000000000000003,-0.00022,2
5691,5960,-0.00026000000000000003,-4e-05,2e-05,0.00016999999999999999,0.00018,-1e-05,-0.00026000000000000003,-0.00022,2
5692,5961,-0.00026000000000000003,-4e-05,2e-05,0.00016999999999999999,0.00018,-1e-05,-0.00026000000000000003,-0.00022,2
5693,5962,-0.00026000000000000003,-4e-05,2e-05,0.00016999999999999999,0.00018,-1e-05,-0.00026000000000000003,-0.00022,2
5694,5963,-0.00026000000000000003,-4e-05,2e-05,0.00016999999999999999,0.00018,-1e-05,-0.00026000000000000003,-0.00022,2
5695,5964,0.0002,5.9999999999999995e-05,-2e-05,-0.00013000000000000002,-0.00011999999999999999,2e-05,0.00013000000000000002,9e-05,2
5696,5965,0.00013000000000000002,1e-05,1e-05,0.00018999999999999998,-0.00011999999999999999,-5e-05,5e-05,5.9999999999999995e-05,2
5697,5966,0.00013000000000000002,1e-05,1e-05,0.00018999999999999998,-0.00011999999999999999,-5e-05,5e-05,5.9999999999999995e-05,2
5698,5967,0.00013000000000000002,1e-05,1e-05,0.00018999999999999998,-0.00011999999999999999,-5e-05,5e-05,5.9999999999999995e-05,2
5699,5968,0.00013000000000000002,1e-05,1e-05,0.00018999999999999998,-0.00011999999999999999,-5e-05,5e-05,5.9999999999999995e-05,2
5700,5969,0.00013000000000000002,1e-05,1e-05,0.00018999999999999998,-0.00011999999999999999,-5e-05,5e-05,5.9999999999999995e-05,2
5701,5970,0.00013000000000000002,1e-05,1e-05,0.00018999999999999998,-0.00011999999999999999,-5e-05,5e-05,5.9999999999999995e-05,2
5702,5971,0.00013000000000000002,1e-05,1e-05,0.00018999999999999998,-0.00011999999999999999,-5e-05,5e-05,5.9999999999999995e-05,2
5703,5972,0.00013000000000000002,1e-05,1e-05,0.00018999999999999998,-0.00011999999999999999,-5e-05,5e-05,5.9999999999999995e-05,2
5704,5973,0.00013000000000000002,1e-05,1e-05,0.00018999999999999998,-0.00011999999999999999,-5e-05,5e-05,5.9999999999999995e-05,2
5705,5974,0.00013000000000000002,1e-05,1e-05,0.00018999999999999998,-0.00011999999999999999,-5e-05,5e-05,5.9999999999999995e-05,2
5706,5975,0.00013000000000000002,1e-05,1e-05,0.00018999999999999998,-0.00011999999999999999,-5e-05,5e-05,5.9999999999999995e-05,2
5707,5976,0.00013000000000000002,1e-05,1e-05,0.00018999999999999998,-0.00011999999999999999,-5e-05,5e-05,5.9999999999999995e-05,2
5708,5977,0.00013000000000000002,1e-05,1e-05,0.00018999999999999998,-0.00011999999999999999,-5e-05,5e-05,5.9999999999999995e-05,2
5709,5978,0.00013000000000000002,1e-05,1e-05,0.00018999999999999998,-0.00011999999999999999,-5e-05,5e-05,5.9999999999999995e-05,2
5710,5979,0.00013000000000000002,1e-05,1e-05,0.00018999999999999998,-0.00011999999999999999,-5e-05,5e-05,5.9999999999999995e-05,2
5711,5980,0.0001,2.9999999999999997e-05,-5e-05,-1e-05,1e-05,-9e-05,-5e-05,7e-05,2
5712,5981,0.0001,2.9999999999999997e-05,-5e-05,-1e-05,1e-05,-9e-05,-5e-05,7e-05,2
5713,5982,0.0001,2.9999999999999997e-05,-5e-05,-1e-05,1e-05,-9e-05,-5e-05,7e-05,2
5714,5983,0.0001,2.9999999999999997e-05,-5e-05,-1e-05,1e-05,-9e-05,-5e-05,7e-05,2
5715,5984,0.0001,2.9999999999999997e-05,-5e-05,-1e-05,1e-05,-9e-05,-5e-05,7e-05,2
5716,5985,0.0001,2.9999999999999997e-05,-5e-05,-1e-05,1e-05,-9e-05,-5e-05,7e-05,2
5717,5986,0.0001,2.9999999999999997e-05,-5e-05,-1e-05,1e-05,-9e-05,-5e-05,7e-05,2
5718,5989,0.00045,7e-05,-2e-05,-0.00022999999999999998,-0.00014,-5e-05,-4e-05,0.00018999999999999998,2
5719,5990,0.00045,7e-05,-2e-05,-0.00022999999999999998,-0.00014,-5e-05,-4e-05,0.00018999999999999998,2
5720,5991,0.00045,7e-05,-2e-05,-0.00022999999999999998,-0.00014,-5e-05,-4e-05,0.00018999999999999998,2
5721,5992,0.00045,7e-05,-2e-05,-0.00022999999999999998,-0.00014,-5e-05,-4e-05,0.00018999999999999998,2
5722,5993,0.00045,7e-05,-2e-05,-0.00022999999999999998,-0.00014,-5e-05,-4e-05,0.00018999999999999998,2
5723,5994,0.00045,7e-05,-2e-05,-0.00022999999999999998,-0.00014,-5e-05,-4e-05,0.00018999999999999998,2
5724,5995,0.00045,7e-05,-2e-05,-0.00022999999999999998,-0.00014,-5e-05,-4e-05,0.00018999999999999998,2
5725,5996,0.00045,7e-05,-2e-05,-0.00022999999999999998,-0.00014,-5e-05,-4e-05,0.00018999999999999998,2
5726,5997,0.00045,7e-05,-2e-05,-0.00022999999999999998,-0.00014,-5e-05,-4e-05,0.00018999999999999998,2
5727,5998,0.00045,7e-05,-2e-05,-0.00022999999999999998,-0.00014,-5e-05,-4e-05,0.00018999999999999998,2
5728,5999,0.00045,7e-05,-2e-05,-0.00022999999999999998,-0.00014,-5e-05,-4e-05,0.00018999999999999998,2
5729,6000,0.00045,7e-05,-2e-05,-0.00022999999999999998,-0.00014,-5e-05,-4e-05,0.00018999999999999998,2
5730,6001,0.00045,7e-05,-2e-05,-0.00022999999999999998,-0.00014,-5e-05,-4e-05,0.00018999999999999998,2
5731,6002,-4e-05,-1e-05,2e-05,0.00018,2e-05,2.9999999999999997e-05,2.9999999999999997e-05,-2e-05,2
5732,6003,-0.0002,-7e-05,-4e-05,0.00011999999999999999,-0.0001,-5.9999999999999995e-05,-9e-05,-1e-05,2
5733,6004,-0.0002,-7e-05,-4e-05,0.00011999999999999999,-0.0001,-5.9999999999999995e-05,-9e-05,-1e-05,2
5734,6005,-0.0002,-7e-05,-4e-05,0.00011999999999999999,-0.0001,-5.9999999999999995e-05,-9e-05,-1e-05,2
5735,6006,-0.0002,-7e-05,-4e-05,0.00011999999999999999,-0.0001,-5.9999999999999995e-05,-9e-05,-1e-05,2
5736,6007,-0.0002,-7e-05,-4e-05,0.00011999999999999999,-0.0001,-5.9999999999999995e-05,-9e-05,-1e-05,2
5737,6008,-0.0002,-7e-05,-4e-05,0.00011999999999999999,-0.0001,-5.9999999999999995e-05,-9e-05,-1e-05,2
5738,6009,-0.0002,-7e-05,-4e-05,0.00011999999999999999,-0.0001,-5.9999999999999995e-05,-9e-05,-1e-05,2
5739,6010,-0.0002,-7e-05,-4e-05,0.00011999999999999999,-0.0001,-5.9999999999999995e-05,-9e-05,-1e-05,2
5740,6011,-0.0002,-7e-05,-4e-05,0.00011999999999999999,-0.0001,-5.9999999999999995e-05,-9e-05,-1e-05,2
5741,6012,-0.0002,-7e-05,-4e-05,0.00011999999999999999,-0.0001,-5.9999999999999995e-05,-9e-05,-1e-05,2
5742,6013,-0.0002,-7e-05,-4e-05,0.00011999999999999999,-0.0001,-5.9999999999999995e-05,-9e-05,-1e-05,2
5743,6014,-0.0002,-7e-05,-4e-05,0.00011999999999999999,-0.0001,-5.9999999999999995e-05,-9e-05,-1e-05,2
5744,6015,-0.0002,-7e-05,-4e-05,0.00011999999999999999,-0.0001,-5.9999999999999995e-05,-9e-05,-1e-05,2
5745,6016,-0.0002,-7e-05,-4e-05,0.00011999999999999999,-0.0001,-5.9999999999999995e-05,-9e-05,-1e-05,2
5746,6017,-0.0002,-7e-05,-4e-05,0.00011999999999999999,-0.0001,-5.9999999999999995e-05,-9e-05,-1e-05,2
5747,6018,-0.0002,-7e-05,-4e-05,0.00011999999999999999,-0.0001,-5.9999999999999995e-05,-9e-05,-1e-05,2
5748,6019,-0.0002,-7e-05,-4e-05,0.00011999999999999999,-0.0001,-5.9999999999999995e-05,-9e-05,-1e-05,2
5749,6020,-0.0002,-7e-05,-4e-05,0.00011999999999999999,-0.0001,-5.9999999999999995e-05,-9e-05,-1e-05,2
5750,6021,-0.0002,-7e-05,-4e-05,0.00011999999999999999,-0.0001,-5.9999999999999995e-05,-9e-05,-1e-05,2
5751,6022,-0.0002,-7e-05,-4e-05,0.00011999999999999999,-0.0001,-5.9999999999999995e-05,-9e-05,-1e-05,2
5752,6023,-0.0002,-7e-05,-4e-05,0.00011999999999999999,-0.0001,-5.9999999999999995e-05,-9e-05,-1e-05,2
5753,6024,-0.0002,-7e-05,-4e-05,0.00011999999999999999,-0.0001,-5.9999999999999995e-05,-9e-05,-1e-05,2
5754,6025,0.00011999999999999999,5e-05,-1e-05,-0.00033,-4e-05,5e-05,0.0001,1e-05,2
5755,6026,-0.00021,-5e-05,-4e-05,8e-05,5.9999999999999995e-05,0.00011,0.00015,-5.9999999999999995e-05,2
5756,6028,-0.00021,-5e-05,-4e-05,8e-05,5.9999999999999995e-05,0.00011,0.00015,-5.9999999999999995e-05,2
5757,6029,-0.00021,-5e-05,-4e-05,8e-05,5.9999999999999995e-05,0.00011,0.00015,-5.9999999999999995e-05,2
5758,6030,-0.00021,-5e-05,-4e-05,8e-05,5.9999999999999995e-05,0.00011,0.00015,-5.9999999999999995e-05,2
5759,6031,-0.00021,-5e-05,-4e-05,8e-05,5.9999999999999995e-05,0.00011,0.00015,-5.9999999999999995e-05,2
5760,6032,-0.00021,-5e-05,-4e-05,8e-05,5.9999999999999995e-05,0.00011,0.00015,-5.9999999999999995e-05,2
5761,6033,-0.00021,-5e-05,-4e-05,8e-05,5.9999999999999995e-05,0.00011,0.00015,-5.9999999999999995e-05,2
5762,6034,-0.00021,-5e-05,-4e-05,8e-05,5.9999999999999995e-05,0.00011,0.00015,-5.9999999999999995e-05,2
5763,6035,-0.00021,-5e-05,-4e-05,8e-05,5.9999999999999995e-05,0.00011,0.00015,-5.9999999999999995e-05,2
5764,6036,-0.00021,-5e-05,-4e-05,8e-05,5.9999999999999995e-05,0.00011,0.00015,-5.9999999999999995e-05,2
5765,6038,-0.00021,-5e-05,-4e-05,8e-05,5.9999999999999995e-05,0.00011,0.00015,-5.9999999999999995e-05,2
5766,6039,-0.00045999999999999996,-0.0001,-2e-05,-5e-05,0.0,2.9999999999999997e-05,0.00036,-0.0002,2
5767,6040,-0.00045999999999999996,-0.0001,-2e-05,-5e-05,0.0,2.9999999999999997e-05,0.00036,-0.0002,2
5768,6041,-0.00045999999999999996,-0.0001,-2e-05,-5e-05,0.0,2.9999999999999997e-05,0.00036,-0.0002,2
5769,6042,-0.00045999999999999996,-0.0001,-2e-05,-5e-05,0.0,2.9999999999999997e-05,0.00036,-0.0002,2
5770,6043,-0.00045999999999999996,-0.0001,-2e-05,-5e-05,0.0,2.9999999999999997e-05,0.00036,-0.0002,2
5771,6044,-0.00045999999999999996,-0.0001,-2e-05,-5e-05,0.0,2.9999999999999997e-05,0.00036,-0.0002,2
5772,6045,-0.00045999999999999996,-0.0001,-2e-05,-5e-05,0.0,2.9999999999999997e-05,0.00036,-0.0002,2
5773,6046,-0.00045999999999999996,-0.0001,-2e-05,-5e-05,0.0,2.9999999999999997e-05,0.00036,-0.0002,2
5774,6047,-0.00011,-1e-05,-2.9999999999999997e-05,1e-05,-4e-05,5.9999999999999995e-05,-7e-05,1e-05,2
5775,6048,-0.00011,-1e-05,-2.9999999999999997e-05,1e-05,-4e-05,5.9999999999999995e-05,-7e-05,1e-05,2
5776,6049,-0.00011,-1e-05,-2.9999999999999997e-05,1e-05,-4e-05,5.9999999999999995e-05,-7e-05,1e-05,2
5777,6050,-0.00011,-1e-05,-2.9999999999999997e-05,1e-05,-4e-05,5.9999999999999995e-05,-7e-05,1e-05,2
5778,6051,-0.00011,-1e-05,-2.9999999999999997e-05,1e-05,-4e-05,5.9999999999999995e-05,-7e-05,1e-05,2
5779,6052,-0.00011,-1e-05,-2.9999999999999997e-05,1e-05,-4e-05,5.9999999999999995e-05,-7e-05,1e-05,2
5780,6053,-0.00011,-1e-05,-2.9999999999999997e-05,1e-05,-4e-05,5.9999999999999995e-05,-7e-05,1e-05,2
5781,6054,-0.00011,-1e-05,-2.9999999999999997e-05,1e-05,-4e-05,5.9999999999999995e-05,-7e-05,1e-05,2
5782,6055,-0.00011,-1e-05,-2.9999999999999997e-05,1e-05,-4e-05,5.9999999999999995e-05,-7e-05,1e-05,2
5783,6056,-0.00011,-1e-05,-2.9999999999999997e-05,1e-05,-4e-05,5.9999999999999995e-05,-7e-05,1e-05,2
5784,6057,-0.00011,-1e-05,-2.9999999999999997e-05,1e-05,-4e-05,5.9999999999999995e-05,-7e-05,1e-05,2
5785,6058,-0.00011,-1e-05,-2.9999999999999997e-05,1e-05,-4e-05,5.9999999999999995e-05,-7e-05,1e-05,2
5786,6059,-0.00011,-1e-05,-2.9999999999999997e-05,1e-05,-4e-05,5.9999999999999995e-05,-7e-05,1e-05,2
5787,6060,-0.00011,-1e-05,-2.9999999999999997e-05,1e-05,-4e-05,5.9999999999999995e-05,-7e-05,1e-05,2
5788,6061,-0.00011,-1e-05,-2.9999999999999997e-05,1e-05,-4e-05,5.9999999999999995e-05,-7e-05,1e-05,2
5789,6062,-0.00011,-1e-05,-2.9999999999999997e-05,1e-05,-4e-05,5.9999999999999995e-05,-7e-05,1e-05,2
5790,6063,-0.00011,-1e-05,-2.9999999999999997e-05,1e-05,-4e-05,5.9999999999999995e-05,-7e-05,1e-05,2
5791,6064,-0.00011,-1e-05,-2.9999999999999997e-05,1e-05,-4e-05,5.9999999999999995e-05,-7e-05,1e-05,2
5792,6065,-0.00011,-1e-05,-2.9999999999999997e-05,1e-05,-4e-05,5.9999999999999995e-05,-7e-05,1e-05,2
5793,6066,-0.00011,-1e-05,-2.9999999999999997e-05,1e-05,-4e-05,5.9999999999999995e-05,-7e-05,1e-05,2
5794,6067,-0.00011,-1e-05,-2.9999999999999997e-05,1e-05,-4e-05,5.9999999999999995e-05,-7e-05,1e-05,2
5795,6068,-0.00011,-1e-05,-2.9999999999999997e-05,1e-05,-4e-05,5.9999999999999995e-05,-7e-05,1e-05,2
5796,6069,-0.00011,-1e-05,-2.9999999999999997e-05,1e-05,-4e-05,5.9999999999999995e-05,-7e-05,1e-05,2
5797,6070,-9e-05,-5.9999999999999995e-05,-5.9999999999999995e-05,2.9999999999999997e-05,4e-05,-4e-05,2e-05,0.0,2
5798,6071,-9e-05,-5.9999999999999995e-05,-5.9999999999999995e-05,2.9999999999999997e-05,4e-05,-4e-05,2e-05,0.0,2
5799,6072,2.9999999999999997e-05,-2.9999999999999997e-05,-5e-05,2.9999999999999997e-05,-1e-05,-2.9999999999999997e-05,5e-05,0.0001,2
5800,6073,2.9999999999999997e-05,-2.9999999999999997e-05,-5e-05,2.9999999999999997e-05,-1e-05,-2.9999999999999997e-05,5e-05,0.0001,2
5801,6074,2.9999999999999997e-05,-2.9999999999999997e-05,-5e-05,2.9999999999999997e-05,-1e-05,-2.9999999999999997e-05,5e-05,0.0001,2
5802,6075,2.9999999999999997e-05,-2.9999999999999997e-05,-5e-05,2.9999999999999997e-05,-1e-05,-2.9999999999999997e-05,5e-05,0.0001,2
5803,6076,2.9999999999999997e-05,-2.9999999999999997e-05,-5e-05,2.9999999999999997e-05,-1e-05,-2.9999999999999997e-05,5e-05,0.0001,2
5804,6077,2.9999999999999997e-05,-2.9999999999999997e-05,-5e-05,2.9999999999999997e-05,-1e-05,-2.9999999999999997e-05,5e-05,0.0001,2
5805,6078,2.9999999999999997e-05,-2.9999999999999997e-05,-5e-05,2.9999999999999997e-05,-1e-05,-2.9999999999999997e-05,5e-05,0.0001,2
5806,6079,2.9999999999999997e-05,-2.9999999999999997e-05,-5e-05,2.9999999999999997e-05,-1e-05,-2.9999999999999997e-05,5e-05,0.0001,2
5807,6080,2.9999999999999997e-05,-2.9999999999999997e-05,-5e-05,2.9999999999999997e-05,-1e-05,-2.9999999999999997e-05,5e-05,0.0001,2
5808,6081,2.9999999999999997e-05,-2.9999999999999997e-05,-5e-05,2.9999999999999997e-05,-1e-05,-2.9999999999999997e-05,5e-05,0.0001,2
5809,6082,2.9999999999999997e-05,-2.9999999999999997e-05,-5e-05,2.9999999999999997e-05,-1e-05,-2.9999999999999997e-05,5e-05,0.0001,2
5810,6083,2.9999999999999997e-05,-2.9999999999999997e-05,-5e-05,2.9999999999999997e-05,-1e-05,-2.9999999999999997e-05,5e-05,0.0001,2
5811,6084,2.9999999999999997e-05,-2.9999999999999997e-05,-5e-05,2.9999999999999997e-05,-1e-05,-2.9999999999999997e-05,5e-05,0.0001,2
5812,6085,8e-05,-2e-05,-0.00011,-0.00028,5.9999999999999995e-05,0.0,0.00011999999999999999,5e-05,2
5813,6086,8e-05,-2e-05,-0.00011,-0.00028,5.9999999999999995e-05,0.0,0.00011999999999999999,5e-05,2
5814,6088,8e-05,-2e-05,-0.00011,-0.00028,5.9999999999999995e-05,0.0,0.00011999999999999999,5e-05,2
5815,6089,8e-05,-2e-05,-0.00011,-0.00028,5.9999999999999995e-05,0.0,0.00011999999999999999,5e-05,2
5816,6090,8e-05,-2e-05,-0.00011,-0.00028,5.9999999999999995e-05,0.0,0.00011999999999999999,5e-05,2
5817,6091,8e-05,-2e-05,-0.00011,-0.00028,5.9999999999999995e-05,0.0,0.00011999999999999999,5e-05,2
5818,6092,8e-05,-2e-05,-0.00011,-0.00028,5.9999999999999995e-05,0.0,0.00011999999999999999,5e-05,2
5819,6093,8e-05,-2e-05,-0.00011,-0.00028,5.9999999999999995e-05,0.0,0.00011999999999999999,5e-05,2
5820,6094,8e-05,-2e-05,-0.00011,-0.00028,5.9999999999999995e-05,0.0,0.00011999999999999999,5e-05,2
5821,6095,8e-05,-2e-05,-0.00011,-0.00028,5.9999999999999995e-05,0.0,0.00011999999999999999,5e-05,2
5822,6096,8e-05,-2e-05,-0.00011,-0.00028,5.9999999999999995e-05,0.0,0.00011999999999999999,5e-05,2
5823,6097,8e-05,-2e-05,-0.00011,-0.00028,5.9999999999999995e-05,0.0,0.00011999999999999999,5e-05,2
5824,6098,8e-05,-2e-05,-0.00011,-0.00028,5.9999999999999995e-05,0.0,0.00011999999999999999,5e-05,2
5825,6099,0.00015,4e-05,0.0001,0.0002,-2e-05,-2.9999999999999997e-05,-0.00013000000000000002,4e-05,2
5826,6100,0.00015,4e-05,0.0001,0.0002,-2e-05,-2.9999999999999997e-05,-0.00013000000000000002,4e-05,2
5827,6101,0.00015,4e-05,0.0001,0.0002,-2e-05,-2.9999999999999997e-05,-0.00013000000000000002,4e-05,2
5828,6102,0.00015,4e-05,0.0001,0.0002,-2e-05,-2.9999999999999997e-05,-0.00013000000000000002,4e-05,2
5829,6103,0.00015,4e-05,0.0001,0.0002,-2e-05,-2.9999999999999997e-05,-0.00013000000000000002,4e-05,2
5830,6104,0.00015,4e-05,0.0001,0.0002,-2e-05,-2.9999999999999997e-05,-0.00013000000000000002,4e-05,2
5831,6105,0.00015,4e-05,0.0001,0.0002,-2e-05,-2.9999999999999997e-05,-0.00013000000000000002,4e-05,2
5832,6106,0.00015,4e-05,0.0001,0.0002,-2e-05,-2.9999999999999997e-05,-0.00013000000000000002,4e-05,2
5833,6107,0.00015,4e-05,0.0001,0.0002,-2e-05,-2.9999999999999997e-05,-0.00013000000000000002,4e-05,2
5834,6108,0.00015,4e-05,0.0001,0.0002,-2e-05,-2.9999999999999997e-05,-0.00013000000000000002,4e-05,2
5835,6109,0.00015,4e-05,0.0001,0.0002,-2e-05,-2.9999999999999997e-05,-0.00013000000000000002,4e-05,2
5836,6110,0.00015,4e-05,0.0001,0.0002,-2e-05,-2.9999999999999997e-05,-0.00013000000000000002,4e-05,2
5837,6111,0.00015,4e-05,0.0001,0.0002,-2e-05,-2.9999999999999997e-05,-0.00013000000000000002,4e-05,2
5838,6112,0.00015,4e-05,0.0001,0.0002,-2e-05,-2.9999999999999997e-05,-0.00013000000000000002,4e-05,2
5839,6113,0.00015,4e-05,0.0001,0.0002,-2e-05,-2.9999999999999997e-05,-0.00013000000000000002,4e-05,2
5840,6114,0.00015,4e-05,0.0001,0.0002,-2e-05,-2.9999999999999997e-05,-0.00013000000000000002,4e-05,2
5841,6115,-0.0001,-2.9999999999999997e-05,-7e-05,5e-05,-2e-05,-5.9999999999999995e-05,5e-05,-5e-05,2
5842,6117,-0.0001,-2.9999999999999997e-05,-7e-05,5e-05,-2e-05,-5.9999999999999995e-05,5e-05,-5e-05,2
5843,6118,-0.0001,-2.9999999999999997e-05,-7e-05,5e-05,-2e-05,-5.9999999999999995e-05,5e-05,-5e-05,2
5844,6119,-0.0001,-2.9999999999999997e-05,-7e-05,5e-05,-2e-05,-5.9999999999999995e-05,5e-05,-5e-05,2
5845,6120,-0.0001,-2.9999999999999997e-05,-7e-05,5e-05,-2e-05,-5.9999999999999995e-05,5e-05,-5e-05,2
