,time,channel1,channel2,channel3,channel4,channel5,channel6,channel7,channel8,class
5158,5446,0.00016,0.00056,0.00016,0.00023999999999999998,-0.00028,-0.00016,0.00054,0.00025,2
5159,5447,0.00016,0.00056,0.00016,0.00023999999999999998,-0.00028,-0.00016,0.00054,0.00025,2
5160,5448,0.00016,0.00056,0.00016,0.00023999999999999998,-0.00028,-0.00016,0.00054,0.00025,2
5161,5449,0.00016,0.00056,0.00016,0.00023999999999999998,-0.00028,-0.00016,0.00054,0.00025,2
5162,5450,0.00016,0.00056,0.00016,0.00023999999999999998,-0.00028,-0.00016,0.00054,0.00025,2
5163,5451,0.00016,0.00056,0.00016,0.00023999999999999998,-0.00028,-0.00016,0.00054,0.00025,2
5164,5452,0.00016,0.00056,0.00016,0.00023999999999999998,-0.00028,-0.00016,0.00054,0.00025,2
5165,5453,0.00016,0.00056,0.00016,0.00023999999999999998,-0.00028,-0.00016,0.00054,0.00025,2
5166,5454,0.00016,0.00056,0.00016,0.00023999999999999998,-0.00028,-0.00016,0.00054,0.00025,2
5167,5455,0.00016,0.00056,0.00016,0.00023999999999999998,-0.00028,-0.00016,0.00054,0.00025,2
5168,5456,0.00016,0.00056,0.00016,0.00023999999999999998,-0.00028,-0.00016,0.00054,0.00025,2
5169,5457,0.00016,0.00056,0.00016,0.00023999999999999998,-0.00028,-0.00016,0.00054,0.00025,2
5170,5458,0.00016,0.00056,0.00016,0.00023999999999999998,-0.00028,-0.00016,0.00054,0.00025,2
5171,5459,0.00016,0.00056,0.00016,0.00023999999999999998,-0.00028,-0.00016,0.00054,0.00025,2
5172,5460,0.00016,0.00056,0.00016,0.00023999999999999998,-0.00028,-0.00016,0.00054,0.00025,2
5173,5461,0.00016,0.00056,0.00016,0.00023999999999999998,-0.00028,-0.00016,0.00054,0.00025,2
5174,5462,0.00043,-2.9999999999999997e-05,0.00016,-1e-05,-0.00016,0.00053,0.00078,0.0003,2
5175,5463,-0.0004,2.9999999999999997e-05,0.00033,0.00045,-2e-05,0.00031,0.00018999999999999998,0.00032,2
5176,5464,-0.0004,2.9999999999999997e-05,0.00033,0.00045,-2e-05,0.00031,0.00018999999999999998,0.00032,2
5177,5465,-0.0004,2.9999999999999997e-05,0.00033,0.00045,-2e-05,0.00031,0.00018999999999999998,0.00032,2
5178,5466,-0.0004,2.9999999999999997e-05,0.00033,0.00045,-2e-05,0.00031,0.00018999999999999998,0.00032,2
5179,5467,-0.0004,2.9999999999999997e-05,0.00033,0.00045,-2e-05,0.00031,0.00018999999999999998,0.00032,2
5180,5468,-0.0004,2.9999999999999997e-05,0.00033,0.00045,-2e-05,0.00031,0.00018999999999999998,0.00032,2
5181,5469,-0.0004,2.9999999999999997e-05,0.00033,0.00045,-2e-05,0.00031,0.00018999999999999998,0.00032,2
5182,5470,-0.0004,2.9999999999999997e-05,0.00033,0.00045,-2e-05,0.00031,0.00018999999999999998,0.00032,2
5183,5471,-0.0004,2.9999999999999997e-05,0.00033,0.00045,-2e-05,0.00031,0.00018999999999999998,0.00032,2
5184,5472,-0.0004,2.9999999999999997e-05,0.00033,0.00045,-2e-05,0.00031,0.00018999999999999998,0.00032,2
5185,5473,-0.0004,2.9999999999999997e-05,0.00033,0.00045,-2e-05,0.00031,0.00018999999999999998,0.00032,2
5186,5474,-0.0004,2.9999999999999997e-05,0.00033,0.00045,-2e-05,0.00031,0.00018999999999999998,0.00032,2
5187,5475,0.00023999999999999998,0.00011,5.9999999999999995e-05,-0.00025,-0.0002,0.0001,0.00014,-0.00011999999999999999,2
5188,5476,0.00044,-4e-05,0.00026000000000000003,0.0005,0.00018999999999999998,-7e-05,0.00011999999999999999,0.0003,2
5189,5477,0.00044,-4e-05,0.00026000000000000003,0.0005,0.00018999999999999998,-7e-05,0.00011999999999999999,0.0003,2
5190,5478,0.00044,-4e-05,0.00026000000000000003,0.0005,0.00018999999999999998,-7e-05,0.00011999999999999999,0.0003,2
5191,5479,0.00044,-4e-05,0.00026000000000000003,0.0005,0.00018999999999999998,-7e-05,0.00011999999999999999,0.0003,2
5192,5481,0.00044,-4e-05,0.00026000000000000003,0.0005,0.00018999999999999998,-7e-05,0.00011999999999999999,0.0003,2
5193,5482,0.00044,-4e-05,0.00026000000000000003,0.0005,0.00018999999999999998,-7e-05,0.00011999999999999999,0.0003,2
5194,5483,0.00044,-4e-05,0.00026000000000000003,0.0005,0.00018999999999999998,-7e-05,0.00011999999999999999,0.0003,2
5195,5484,0.00044,-4e-05,0.00026000000000000003,0.0005,0.00018999999999999998,-7e-05,0.00011999999999999999,0.0003,2
5196,5485,4e-05,4e-05,-0.00011,-0.00016999999999999999,9e-05,-0.00015,-4e-05,-9e-05,2
5197,5486,4e-05,4e-05,-0.00011,-0.00016999999999999999,9e-05,-0.00015,-4e-05,-9e-05,2
5198,5489,4e-05,4e-05,-0.00011,-0.00016999999999999999,9e-05,-0.00015,-4e-05,-9e-05,2
5199,5490,4e-05,4e-05,-0.00011,-0.00016999999999999999,9e-05,-0.00015,-4e-05,-9e-05,2
5200,5491,4e-05,4e-05,-0.00011,-0.00016999999999999999,9e-05,-0.00015,-4e-05,-9e-05,2
5201,5492,4e-05,4e-05,-0.00011,-0.00016999999999999999,9e-05,-0.00015,-4e-05,-9e-05,2
5202,5493,4e-05,4e-05,-0.00011,-0.00016999999999999999,9e-05,-0.00015,-4e-05,-9e-05,2
5203,5494,4e-05,4e-05,-0.00011,-0.00016999999999999999,9e-05,-0.00015,-4e-05,-9e-05,2
5204,5495,4e-05,4e-05,-0.00011,-0.00016999999999999999,9e-05,-0.00015,-4e-05,-9e-05,2
5205,5496,4e-05,4e-05,-0.00011,-0.00016999999999999999,9e-05,-0.00015,-4e-05,-9e-05,2
5206,5497,4e-05,4e-05,-0.00011,-0.00016999999999999999,9e-05,-0.00015,-4e-05,-9e-05,2
5207,5498,4e-05,4e-05,-0.00011,-0.00016999999999999999,9e-05,-0.00015,-4e-05,-9e-05,2
5208,5499,-0.00043,0.0002,5.9999999999999995e-05,-2.9999999999999997e-05,0.0002,0.0002,0.00058,2.9999999999999997e-05,2
5209,5500,-0.00043,0.0002,5.9999999999999995e-05,-2.9999999999999997e-05,0.0002,0.0002,0.00058,2.9999999999999997e-05,2
5210,5501,-0.00021,-8e-05,-0.00036,-0.00036,-7e-05,0.0001,-2.9999999999999997e-05,-7e-05,2
5211,5502,-0.00021,-8e-05,-0.00036,-0.00036,-7e-05,0.0001,-2.9999999999999997e-05,-7e-05,2
5212,5503,-0.00021,-8e-05,-0.00036,-0.00036,-7e-05,0.0001,-2.9999999999999997e-05,-7e-05,2
5213,5504,-0.00021,-8e-05,-0.00036,-0.00036,-7e-05,0.0001,-2.9999999999999997e-05,-7e-05,2
5214,5505,-0.00021,-8e-05,-0.00036,-0.00036,-7e-05,0.0001,-2.9999999999999997e-05,-7e-05,2
5215,5506,-0.00021,-8e-05,-0.00036,-0.00036,-7e-05,0.0001,-2.9999999999999997e-05,-7e-05,2
5216,5507,-0.00021,-8e-05,-0.00036,-0.00036,-7e-05,0.0001,-2.9999999999999997e-05,-7e-05,2
5217,5508,-0.00021,-8e-05,-0.00036,-0.00036,-7e-05,0.0001,-2.9999999999999997e-05,-7e-05,2
5218,5509,-0.00021,-8e-05,-0.00036,-0.00036,-7e-05,0.0001,-2.9999999999999997e-05,-7e-05,2
5219,5510,-0.00021,-8e-05,-0.00036,-0.00036,-7e-05,0.0001,-2.9999999999999997e-05,-7e-05,2
5220,5511,-0.00021,-8e-05,-0.00036,-0.00036,-7e-05,0.0001,-2.9999999999999997e-05,-7e-05,2
5221,5512,-0.00021,-8e-05,-0.00036,-0.00036,-7e-05,0.0001,-2.9999999999999997e-05,-7e-05,2
5222,5513,-0.00021,-8e-05,-0.00036,-0.00036,-7e-05,0.0001,-2.9999999999999997e-05,-7e-05,2
5223,5514,-0.00021,-8e-05,-0.00036,-0.00036,-7e-05,0.0001,-2.9999999999999997e-05,-7e-05,2
5224,5515,-0.00021,-8e-05,-0.00036,-0.00036,-7e-05,0.0001,-2.9999999999999997e-05,-7e-05,2
5225,5516,-0.00021,-8e-05,-0.00036,-0.00036,-7e-05,0.0001,-2.9999999999999997e-05,-7e-05,2
5226,5517,-0.00021,-8e-05,-0.00036,-0.00036,-7e-05,0.0001,-2.9999999999999997e-05,-7e-05,2
5227,5518,-0.00021,-8e-05,-0.00036,-0.00036,-7e-05,0.0001,-2.9999999999999997e-05,-7e-05,2
5228,5519,-0.00021,-8e-05,-0.00036,-0.00036,-7e-05,0.0001,-2.9999999999999997e-05,-7e-05,2
5229,5520,-0.00021,-8e-05,-0.00036,-0.00036,-7e-05,0.0001,-2.9999999999999997e-05,-7e-05,2
5230,5521,-0.00021,-8e-05,-0.00036,-0.00036,-7e-05,0.0001,-2.9999999999999997e-05,-7e-05,2
5231,5522,-0.00021,-8e-05,-0.00036,-0.00036,-7e-05,0.0001,-2.9999999999999997e-05,-7e-05,2
5232,5523,9e-05,0.00011,0.00021,0.00025,-0.00028,-0.00011,-0.00043,-1e-05,2
5233,5524,0.0001,-0.00044,5.9999999999999995e-05,-5e-05,-4e-05,-0.00018,-0.00084,-0.00021,2
5234,5525,0.0001,-0.00044,5.9999999999999995e-05,-5e-05,-4e-05,-0.00018,-0.00084,-0.00021,2
5235,5526,0.0001,-0.00044,5.9999999999999995e-05,-5e-05,-4e-05,-0.00018,-0.00084,-0.00021,2
5236,5527,0.0001,-0.00044,5.9999999999999995e-05,-5e-05,-4e-05,-0.00018,-0.00084,-0.00021,2
5237,5528,0.0001,-0.00044,5.9999999999999995e-05,-5e-05,-4e-05,-0.00018,-0.00084,-0.00021,2
5238,5529,0.0001,-0.00044,5.9999999999999995e-05,-5e-05,-4e-05,-0.00018,-0.00084,-0.00021,2
5239,5530,0.0001,-0.00044,5.9999999999999995e-05,-5e-05,-4e-05,-0.00018,-0.00084,-0.00021,2
5240,5531,0.0001,-0.00044,5.9999999999999995e-05,-5e-05,-4e-05,-0.00018,-0.00084,-0.00021,2
5241,5532,0.0001,-0.00044,5.9999999999999995e-05,-5e-05,-4e-05,-0.00018,-0.00084,-0.00021,2
5242,5533,0.0001,-0.00044,5.9999999999999995e-05,-5e-05,-4e-05,-0.00018,-0.00084,-0.00021,2
5243,5534,0.0001,-0.00044,5.9999999999999995e-05,-5e-05,-4e-05,-0.00018,-0.00084,-0.00021,2
5244,5535,0.00059,0.00022999999999999998,5e-05,0.00029,-1e-05,0.00022999999999999998,-0.0007,0.0004,2
5245,5536,0.00059,0.00022999999999999998,5e-05,0.00029,-1e-05,0.00022999999999999998,-0.0007,0.0004,2
5246,5539,0.00059,0.00022999999999999998,5e-05,0.00029,-1e-05,0.00022999999999999998,-0.0007,0.0004,2
5247,5540,0.00059,0.00022999999999999998,5e-05,0.00029,-1e-05,0.00022999999999999998,-0.0007,0.0004,2
5248,5541,0.00059,0.00022999999999999998,5e-05,0.00029,-1e-05,0.00022999999999999998,-0.0007,0.0004,2
5249,5542,0.00059,0.00022999999999999998,5e-05,0.00029,-1e-05,0.00022999999999999998,-0.0007,0.0004,2
5250,5543,0.00059,0.00022999999999999998,5e-05,0.00029,-1e-05,0.00022999999999999998,-0.0007,0.0004,2
5251,5544,0.00059,0.00022999999999999998,5e-05,0.00029,-1e-05,0.00022999999999999998,-0.0007,0.0004,2
5252,5545,0.00059,0.00022999999999999998,5e-05,0.00029,-1e-05,0.00022999999999999998,-0.0007,0.0004,2
5253,5546,0.00059,0.00022999999999999998,5e-05,0.00029,-1e-05,0.00022999999999999998,-0.0007,0.0004,2
5254,5547,0.00059,0.00022999999999999998,5e-05,0.00029,-1e-05,0.00022999999999999998,-0.0007,0.0004,2
5255,5548,0.00059,0.00022999999999999998,5e-05,0.00029,-1e-05,0.00022999999999999998,-0.0007,0.0004,2
5256,5549,0.00059,0.00022999999999999998,5e-05,0.00029,-1e-05,0.00022999999999999998,-0.0007,0.0004,2
5257,5550,0.00059,0.00022999999999999998,5e-05,0.00029,-1e-05,0.00022999999999999998,-0.0007,0.0004,2
5258,5551,0.00059,0.00022999999999999998,5e-05,0.00029,-1e-05,0.00022999999999999998,-0.0007,0.0004,2
5259,5552,0.00015,0.00033,0.00033,-4e-05,-2.9999999999999997e-05,-0.00018,-0.0006900000000000001,-0.00015,2
5260,5553,0.00015,0.00033,0.00033,-4e-05,-2.9999999999999997e-05,-0.00018,-0.0006900000000000001,-0.00015,2
5261,5554,0.00015,0.00033,0.00033,-4e-05,-2.9999999999999997e-05,-0.00018,-0.0006900000000000001,-0.00015,2
5262,5555,0.00015,0.00033,0.00033,-4e-05,-2.9999999999999997e-05,-0.00018,-0.0006900000000000001,-0.00015,2
5263,5556,0.00015,0.00033,0.00033,-4e-05,-2.9999999999999997e-05,-0.00018,-0.0006900000000000001,-0.00015,2
5264,5557,0.00015,0.00033,0.00033,-4e-05,-2.9999999999999997e-05,-0.00018,-0.0006900000000000001,-0.00015,2
5265,5558,0.00015,0.00033,0.00033,-4e-05,-2.9999999999999997e-05,-0.00018,-0.0006900000000000001,-0.00015,2
5266,5559,-0.00059,-1e-05,-4e-05,-0.0002,0.00039,0.0004,-0.00021,-0.00018,2
5267,5560,-0.00059,-1e-05,-4e-05,-0.0002,0.00039,0.0004,-0.00021,-0.00018,2
5268,5561,-0.00016,0.0,5e-05,0.00032,-2.9999999999999997e-05,0.00015,7e-05,0.00014,2
5269,5562,-0.00016,0.0,5e-05,0.00032,-2.9999999999999997e-05,0.00015,7e-05,0.00014,2
5270,5563,-0.00016,0.0,5e-05,0.00032,-2.9999999999999997e-05,0.00015,7e-05,0.00014,2
5271,5564,-0.00016,0.0,5e-05,0.00032,-2.9999999999999997e-05,0.00015,7e-05,0.00014,2
5272,5565,-0.00016,0.0,5e-05,0.00032,-2.9999999999999997e-05,0.00015,7e-05,0.00014,2
5273,5566,-0.00016,0.0,5e-05,0.00032,-2.9999999999999997e-05,0.00015,7e-05,0.00014,2
5274,5567,-0.00016,0.0,5e-05,0.00032,-2.9999999999999997e-05,0.00015,7e-05,0.00014,2
5275,5568,-0.00016,0.0,5e-05,0.00032,-2.9999999999999997e-05,0.00015,7e-05,0.00014,2
5276,5569,-0.00016,0.0,5e-05,0.00032,-2.9999999999999997e-05,0.00015,7e-05,0.00014,2
5277,5570,-0.00016,0.0,5e-05,0.00032,-2.9999999999999997e-05,0.00015,7e-05,0.00014,2
5278,5571,-0.00016,0.0,5e-05,0.00032,-2.9999999999999997e-05,0.00015,7e-05,0.00014,2
5279,5572,-0.00016,0.0,5e-05,0.00032,-2.9999999999999997e-05,0.00015,7e-05,0.00014,2
5280,5573,-0.00016,0.0,5e-05,0.00032,-2.9999999999999997e-05,0.00015,7e-05,0.00014,2
5281,5574,-0.00016,0.0,5e-05,0.00032,-2.9999999999999997e-05,0.00015,7e-05,0.00014,2
5282,5575,-0.00016,0.0,5e-05,0.00032,-2.9999999999999997e-05,0.00015,7e-05,0.00014,2
5283,5576,-0.00016,0.0,5e-05,0.00032,-2.9999999999999997e-05,0.00015,7e-05,0.00014,2
5284,5577,-0.00016,0.0,5e-05,0.00032,-2.9999999999999997e-05,0.00015,7e-05,0.00014,2
5285,5578,-0.00016,0.0,5e-05,0.00032,-2.9999999999999997e-05,0.00015,7e-05,0.00014,2
5286,5579,-0.00016,0.0,5e-05,0.00032,-2.9999999999999997e-05,0.00015,7e-05,0.00014,2
5287,5580,-0.00016,0.0,5e-05,0.00032,-2.9999999999999997e-05,0.00015,7e-05,0.00014,2
5288,5581,-0.00016,0.0,5e-05,0.00032,-2.9999999999999997e-05,0.00015,7e-05,0.00014,2
5289,5582,0.00043,9e-05,-0.00013000000000000002,-0.0002,-0.00022,0.0001,0.00043,0.00035,2
5290,5583,0.0002,0.00027,0.00027,-7e-05,-0.00015,-0.00047000000000000004,-0.00014,-5e-05,2
5291,5584,0.0002,0.00027,0.00027,-7e-05,-0.00015,-0.00047000000000000004,-0.00014,-5e-05,2
5292,5585,0.0002,0.00027,0.00027,-7e-05,-0.00015,-0.00047000000000000004,-0.00014,-5e-05,2
5293,5586,0.0002,0.00027,0.00027,-7e-05,-0.00015,-0.00047000000000000004,-0.00014,-5e-05,2
5294,5589,0.0002,0.00027,0.00027,-7e-05,-0.00015,-0.00047000000000000004,-0.00014,-5e-05,2
5295,5590,0.0002,0.00027,0.00027,-7e-05,-0.00015,-0.00047000000000000004,-0.00014,-5e-05,2
5296,5591,0.0002,0.00027,0.00027,-7e-05,-0.00015,-0.00047000000000000004,-0.00014,-5e-05,2
5297,5592,0.0002,0.00027,0.00027,-7e-05,-0.00015,-0.00047000000000000004,-0.00014,-5e-05,2
5298,5593,0.0002,0.00027,0.00027,-7e-05,-0.00015,-0.00047000000000000004,-0.00014,-5e-05,2
5299,5594,0.0002,0.00027,0.00027,-7e-05,-0.00015,-0.00047000000000000004,-0.00014,-5e-05,2
5300,5595,1e-05,1e-05,8e-05,0.00022999999999999998,-0.00016,0.00031,-0.0008699999999999999,-8e-05,2
5301,5596,-0.00054,-0.00011,-0.0006,-0.00039,-0.00011,-0.0002,0.00073,-5e-05,2
5302,5597,-0.00054,-0.00011,-0.0006,-0.00039,-0.00011,-0.0002,0.00073,-5e-05,2
5303,5598,-0.00054,-0.00011,-0.0006,-0.00039,-0.00011,-0.0002,0.00073,-5e-05,2
5304,5599,-0.00054,-0.00011,-0.0006,-0.00039,-0.00011,-0.0002,0.00073,-5e-05,2
5305,5600,-0.00054,-0.00011,-0.0006,-0.00039,-0.00011,-0.0002,0.00073,-5e-05,2
5306,5601,-0.00054,-0.00011,-0.0006,-0.00039,-0.00011,-0.0002,0.00073,-5e-05,2
5307,5602,-0.00054,-0.00011,-0.0006,-0.00039,-0.00011,-0.0002,0.00073,-5e-05,2
5308,5603,-0.00054,-0.00011,-0.0006,-0.00039,-0.00011,-0.0002,0.00073,-5e-05,2
5309,5604,0.00033999999999999997,-0.00018,0.00032,0.0004,0.00045,0.0007099999999999999,-4e-05,0.00018,2
5310,5605,0.00039,4e-05,-8e-05,-1e-05,-9e-05,-4e-05,-0.00016999999999999999,2e-05,2
5311,5606,0.00039,4e-05,-8e-05,-1e-05,-9e-05,-4e-05,-0.00016999999999999999,2e-05,2
5312,5607,0.00039,4e-05,-8e-05,-1e-05,-9e-05,-4e-05,-0.00016999999999999999,2e-05,2
5313,5608,0.00039,4e-05,-8e-05,-1e-05,-9e-05,-4e-05,-0.00016999999999999999,2e-05,2
5314,5609,0.00039,4e-05,-8e-05,-1e-05,-9e-05,-4e-05,-0.00016999999999999999,2e-05,2
5315,5610,0.00039,4e-05,-8e-05,-1e-05,-9e-05,-4e-05,-0.00016999999999999999,2e-05,2
5316,5611,0.00039,4e-05,-8e-05,-1e-05,-9e-05,-4e-05,-0.00016999999999999999,2e-05,2
5317,5612,0.00039,4e-05,-8e-05,-1e-05,-9e-05,-4e-05,-0.00016999999999999999,2e-05,2
5318,5613,0.00039,4e-05,-8e-05,-1e-05,-9e-05,-4e-05,-0.00016999999999999999,2e-05,2
5319,5614,0.00039,4e-05,-8e-05,-1e-05,-9e-05,-4e-05,-0.00016999999999999999,2e-05,2
5320,5615,0.00039,4e-05,-8e-05,-1e-05,-9e-05,-4e-05,-0.00016999999999999999,2e-05,2
5321,5616,0.00039,4e-05,-8e-05,-1e-05,-9e-05,-4e-05,-0.00016999999999999999,2e-05,2
5322,5617,0.00039,4e-05,-8e-05,-1e-05,-9e-05,-4e-05,-0.00016999999999999999,2e-05,2
5323,5618,0.00039,4e-05,-8e-05,-1e-05,-9e-05,-4e-05,-0.00016999999999999999,2e-05,2
5324,5619,-9e-05,0.0,-0.0001,0.00016999999999999999,-0.00044,-0.00056,-0.00011999999999999999,-9e-05,2
5325,5620,-9e-05,0.0,-0.0001,0.00016999999999999999,-0.00044,-0.00056,-0.00011999999999999999,-9e-05,2
5326,5621,-0.00026000000000000003,-0.0002,-0.00015,-0.00029,-8e-05,0.0006900000000000001,0.0011099999999999999,-0.00016999999999999999,2
5327,5622,-0.00026000000000000003,-0.0002,-0.00015,-0.00029,-8e-05,0.0006900000000000001,0.0011099999999999999,-0.00016999999999999999,2
5328,5623,-0.00026000000000000003,-0.0002,-0.00015,-0.00029,-8e-05,0.0006900000000000001,0.0011099999999999999,-0.00016999999999999999,2
5329,5624,-0.00026000000000000003,-0.0002,-0.00015,-0.00029,-8e-05,0.0006900000000000001,0.0011099999999999999,-0.00016999999999999999,2
5330,5625,-0.00026000000000000003,-0.0002,-0.00015,-0.00029,-8e-05,0.0006900000000000001,0.0011099999999999999,-0.00016999999999999999,2
5331,5626,-0.00026000000000000003,-0.0002,-0.00015,-0.00029,-8e-05,0.0006900000000000001,0.0011099999999999999,-0.00016999999999999999,2
5332,5627,-0.00026000000000000003,-0.0002,-0.00015,-0.00029,-8e-05,0.0006900000000000001,0.0011099999999999999,-0.00016999999999999999,2
5333,5628,-0.00026000000000000003,-0.0002,-0.00015,-0.00029,-8e-05,0.0006900000000000001,0.0011099999999999999,-0.00016999999999999999,2
5334,5629,-0.00026000000000000003,-0.0002,-0.00015,-0.00029,-8e-05,0.0006900000000000001,0.0011099999999999999,-0.00016999999999999999,2
5335,5630,-0.00026000000000000003,-0.0002,-0.00015,-0.00029,-8e-05,0.0006900000000000001,0.0011099999999999999,-0.00016999999999999999,2
5336,5631,-0.00026000000000000003,-0.0002,-0.00015,-0.00029,-8e-05,0.0006900000000000001,0.0011099999999999999,-0.00016999999999999999,2
5337,5632,-0.00026000000000000003,-0.0002,-0.00015,-0.00029,-8e-05,0.0006900000000000001,0.0011099999999999999,-0.00016999999999999999,2
5338,5633,-0.00026000000000000003,-0.0002,-0.00015,-0.00029,-8e-05,0.0006900000000000001,0.0011099999999999999,-0.00016999999999999999,2
5339,5634,-0.00026000000000000003,-0.0002,-0.00015,-0.00029,-8e-05,0.0006900000000000001,0.0011099999999999999,-0.00016999999999999999,2
5340,5635,-0.00026000000000000003,-0.0002,-0.00015,-0.00029,-8e-05,0.0006900000000000001,0.0011099999999999999,-0.00016999999999999999,2
5341,5636,-0.00026000000000000003,-0.0002,-0.00015,-0.00029,-8e-05,0.0006900000000000001,0.0011099999999999999,-0.00016999999999999999,2
5342,5639,-0.00026000000000000003,-0.0002,-0.00015,-0.00029,-8e-05,0.0006900000000000001,0.0011099999999999999,-0.00016999999999999999,2
5343,5640,-0.00026000000000000003,-0.0002,-0.00015,-0.00029,-8e-05,0.0006900000000000001,0.0011099999999999999,-0.00016999999999999999,2
5344,5641,-0.00026000000000000003,-0.0002,-0.00015,-0.00029,-8e-05,0.0006900000000000001,0.0011099999999999999,-0.00016999999999999999,2
5345,5642,-0.00035,-0.00025,-4e-05,-9e-05,-0.0001,-0.00036,-0.00027,-0.00033999999999999997,2
5346,5643,-0.00033999999999999997,7e-05,0.00013000000000000002,0.00021,0.00013000000000000002,-5e-05,-0.00015,-0.0001,2
5347,5644,-0.00033999999999999997,7e-05,0.00013000000000000002,0.00021,0.00013000000000000002,-5e-05,-0.00015,-0.0001,2
5348,5645,-0.00033999999999999997,7e-05,0.00013000000000000002,0.00021,0.00013000000000000002,-5e-05,-0.00015,-0.0001,2
5349,5646,-0.00033999999999999997,7e-05,0.00013000000000000002,0.00021,0.00013000000000000002,-5e-05,-0.00015,-0.0001,2
5350,5647,-0.00033999999999999997,7e-05,0.00013000000000000002,0.00021,0.00013000000000000002,-5e-05,-0.00015,-0.0001,2
5351,5648,-0.00033999999999999997,7e-05,0.00013000000000000002,0.00021,0.00013000000000000002,-5e-05,-0.00015,-0.0001,2
5352,5649,-0.00033999999999999997,7e-05,0.00013000000000000002,0.00021,0.00013000000000000002,-5e-05,-0.00015,-0.0001,2
5353,5650,-0.00033999999999999997,7e-05,0.00013000000000000002,0.00021,0.00013000000000000002,-5e-05,-0.00015,-0.0001,2
5354,5651,-0.00033999999999999997,7e-05,0.00013000000000000002,0.00021,0.00013000000000000002,-5e-05,-0.00015,-0.0001,2
5355,5652,-0.00033999999999999997,7e-05,0.00013000000000000002,0.00021,0.00013000000000000002,-5e-05,-0.00015,-0.0001,2
5356,5653,-0.00033999999999999997,7e-05,0.00013000000000000002,0.00021,0.00013000000000000002,-5e-05,-0.00015,-0.0001,2
5357,5654,-0.00033999999999999997,7e-05,0.00013000000000000002,0.00021,0.00013000000000000002,-5e-05,-0.00015,-0.0001,2
5358,5655,-0.00033999999999999997,7e-05,0.00013000000000000002,0.00021,0.00013000000000000002,-5e-05,-0.00015,-0.0001,2
5359,5656,-0.0005,-0.0007,-0.00072,-0.00037,-0.00022999999999999998,-0.00031,-0.00053,-0.00021,2
5360,5657,0.00021,-8e-05,1e-05,-0.00032,-2.9999999999999997e-05,0.0005200000000000001,0.00072,7e-05,2
5361,5658,0.00021,-8e-05,1e-05,-0.00032,-2.9999999999999997e-05,0.0005200000000000001,0.00072,7e-05,2
5362,5659,0.00021,-8e-05,1e-05,-0.00032,-2.9999999999999997e-05,0.0005200000000000001,0.00072,7e-05,2
5363,5660,0.00021,-8e-05,1e-05,-0.00032,-2.9999999999999997e-05,0.0005200000000000001,0.00072,7e-05,2
5364,5661,0.00021,-8e-05,1e-05,-0.00032,-2.9999999999999997e-05,0.0005200000000000001,0.00072,7e-05,2
5365,5662,0.00021,-8e-05,1e-05,-0.00032,-2.9999999999999997e-05,0.0005200000000000001,0.00072,7e-05,2
5366,5663,0.00021,-8e-05,1e-05,-0.00032,-2.9999999999999997e-05,0.0005200000000000001,0.00072,7e-05,2
5367,5664,-0.00086,0.00039,0.00026000000000000003,0.00033,2e-05,-0.00037,-0.00053,-0.00016,2
5368,5665,-0.00027,-0.00016,5.9999999999999995e-05,-1e-05,5.9999999999999995e-05,-0.00014,0.00031,0.0001,2
5369,5666,-0.00027,-0.00016,5.9999999999999995e-05,-1e-05,5.9999999999999995e-05,-0.00014,0.00031,0.0001,2
5370,5667,-0.00027,-0.00016,5.9999999999999995e-05,-1e-05,5.9999999999999995e-05,-0.00014,0.00031,0.0001,2
5371,5668,-0.00027,-0.00016,5.9999999999999995e-05,-1e-05,5.9999999999999995e-05,-0.00014,0.00031,0.0001,2
5372,5669,-0.00027,-0.00016,5.9999999999999995e-05,-1e-05,5.9999999999999995e-05,-0.00014,0.00031,0.0001,2
5373,5670,-0.00027,-0.00016,5.9999999999999995e-05,-1e-05,5.9999999999999995e-05,-0.00014,0.00031,0.0001,2
5374,5671,-0.00027,-0.00016,5.9999999999999995e-05,-1e-05,5.9999999999999995e-05,-0.00014,0.00031,0.0001,2
5375,5672,-0.00027,-0.00016,5.9999999999999995e-05,-1e-05,5.9999999999999995e-05,-0.00014,0.00031,0.0001,2
5376,5673,-0.00027,-0.00016,5.9999999999999995e-05,-1e-05,5.9999999999999995e-05,-0.00014,0.00031,0.0001,2
5377,5674,-0.00027,-0.00016,5.9999999999999995e-05,-1e-05,5.9999999999999995e-05,-0.00014,0.00031,0.0001,2
5378,5675,-0.00027,-0.00016,5.9999999999999995e-05,-1e-05,5.9999999999999995e-05,-0.00014,0.00031,0.0001,2
5379,5676,-0.00027,-0.00016,5.9999999999999995e-05,-1e-05,5.9999999999999995e-05,-0.00014,0.00031,0.0001,2
5380,5677,-0.00027,-0.00016,5.9999999999999995e-05,-1e-05,5.9999999999999995e-05,-0.00014,0.00031,0.0001,2
5381,5678,-2e-05,-0.00037999999999999997,0.00016999999999999999,0.00031,0.0007099999999999999,-5.9999999999999995e-05,-0.0006799999999999999,-0.00015,2
5382,5679,-2e-05,-0.00037999999999999997,0.00016999999999999999,0.00031,0.0007099999999999999,-5.9999999999999995e-05,-0.0006799999999999999,-0.00015,2
5383,5681,-2e-05,-0.00037999999999999997,0.00016999999999999999,0.00031,0.0007099999999999999,-5.9999999999999995e-05,-0.0006799999999999999,-0.00015,2
5384,5682,-2e-05,-0.00037999999999999997,0.00016999999999999999,0.00031,0.0007099999999999999,-5.9999999999999995e-05,-0.0006799999999999999,-0.00015,2
5385,5683,-2e-05,-0.00037999999999999997,0.00016999999999999999,0.00031,0.0007099999999999999,-5.9999999999999995e-05,-0.0006799999999999999,-0.00015,2
5386,5684,-2e-05,-0.00037999999999999997,0.00016999999999999999,0.00031,0.0007099999999999999,-5.9999999999999995e-05,-0.0006799999999999999,-0.00015,2
5387,5685,-2e-05,-0.00037999999999999997,0.00016999999999999999,0.00031,0.0007099999999999999,-5.9999999999999995e-05,-0.0006799999999999999,-0.00015,2
5388,5687,2.9999999999999997e-05,2.9999999999999997e-05,-7e-05,2.9999999999999997e-05,8e-05,-0.00022,-0.00061,-1e-05,2
5389,5690,2.9999999999999997e-05,2.9999999999999997e-05,-7e-05,2.9999999999999997e-05,8e-05,-0.00022,-0.00061,-1e-05,2
5390,5691,2.9999999999999997e-05,2.9999999999999997e-05,-7e-05,2.9999999999999997e-05,8e-05,-0.00022,-0.00061,-1e-05,2
5391,5692,2.9999999999999997e-05,2.9999999999999997e-05,-7e-05,2.9999999999999997e-05,8e-05,-0.00022,-0.00061,-1e-05,2
5392,5693,2.9999999999999997e-05,2.9999999999999997e-05,-7e-05,2.9999999999999997e-05,8e-05,-0.00022,-0.00061,-1e-05,2
5393,5694,2.9999999999999997e-05,2.9999999999999997e-05,-7e-05,2.9999999999999997e-05,8e-05,-0.00022,-0.00061,-1e-05,2
5394,5695,2.9999999999999997e-05,2.9999999999999997e-05,-7e-05,2.9999999999999997e-05,8e-05,-0.00022,-0.00061,-1e-05,2
5395,5696,2.9999999999999997e-05,2.9999999999999997e-05,-7e-05,2.9999999999999997e-05,8e-05,-0.00022,-0.00061,-1e-05,2
5396,5697,2.9999999999999997e-05,2.9999999999999997e-05,-7e-05,2.9999999999999997e-05,8e-05,-0.00022,-0.00061,-1e-05,2
5397,5698,2.9999999999999997e-05,2.9999999999999997e-05,-7e-05,2.9999999999999997e-05,8e-05,-0.00022,-0.00061,-1e-05,2
5398,5699,2.9999999999999997e-05,2.9999999999999997e-05,-7e-05,2.9999999999999997e-05,8e-05,-0.00022,-0.00061,-1e-05,2
5399,5701,2.9999999999999997e-05,2.9999999999999997e-05,-7e-05,2.9999999999999997e-05,8e-05,-0.00022,-0.00061,-1e-05,2
5400,5702,-9e-05,-0.00031,-2.9999999999999997e-05,0.0003,-0.00033999999999999997,0.0,-0.0005099999999999999,2.9999999999999997e-05,2
5401,5703,-0.00016,-0.00011,-0.0001,-0.0001,-0.00021,1e-05,-0.00032,5e-05,2
5402,5704,-0.00016,-0.00011,-0.0001,-0.0001,-0.00021,1e-05,-0.00032,5e-05,2
5403,5705,-0.00016,-0.00011,-0.0001,-0.0001,-0.00021,1e-05,-0.00032,5e-05,2
5404,5706,-0.00016,-0.00011,-0.0001,-0.0001,-0.00021,1e-05,-0.00032,5e-05,2
5405,5707,-0.00016,-0.00011,-0.0001,-0.0001,-0.00021,1e-05,-0.00032,5e-05,2
5406,5708,-0.00016,-0.00011,-0.0001,-0.0001,-0.00021,1e-05,-0.00032,5e-05,2
5407,5709,-0.00016,-0.00011,-0.0001,-0.0001,-0.00021,1e-05,-0.00032,5e-05,2
5408,5710,-0.00016,-0.00011,-0.0001,-0.0001,-0.00021,1e-05,-0.00032,5e-05,2
5409,5711,-0.00016,-0.00011,-0.0001,-0.0001,-0.00021,1e-05,-0.00032,5e-05,2
5410,5712,-0.00016,-0.00011,-0.0001,-0.0001,-0.00021,1e-05,-0.00032,5e-05,2
5411,5713,-0.00016,-0.00011,-0.0001,-0.0001,-0.00021,1e-05,-0.00032,5e-05,2
5412,5714,-0.00016,-0.00011,-0.0001,-0.0001,-0.00021,1e-05,-0.00032,5e-05,2
5413,5715,4e-05,0.00022999999999999998,-2e-05,0.0001,-0.00029,-8e-05,9e-05,-0.0001,2
5414,5716,4e-05,0.00022999999999999998,-2e-05,0.0001,-0.00029,-8e-05,9e-05,-0.0001,2
5415,5717,4e-05,0.00022999999999999998,-2e-05,0.0001,-0.00029,-8e-05,9e-05,-0.0001,2
5416,5718,4e-05,0.00022999999999999998,-2e-05,0.0001,-0.00029,-8e-05,9e-05,-0.0001,2
5417,5719,4e-05,0.00022999999999999998,-2e-05,0.0001,-0.00029,-8e-05,9e-05,-0.0001,2
5418,5720,4e-05,0.00022999999999999998,-2e-05,0.0001,-0.00029,-8e-05,9e-05,-0.0001,2
5419,5721,4e-05,0.00022999999999999998,-2e-05,0.0001,-0.00029,-8e-05,9e-05,-0.0001,2
5420,5722,4e-05,0.00022999999999999998,-2e-05,0.0001,-0.00029,-8e-05,9e-05,-0.0001,2
5421,5723,4e-05,0.00022999999999999998,-2e-05,0.0001,-0.00029,-8e-05,9e-05,-0.0001,2
5422,5724,2.9999999999999997e-05,-0.00016,-0.00014,9e-05,4e-05,-0.00016,-0.00014,-0.00022,2
5423,5725,0.00015,5e-05,8e-05,8e-05,0.0002,7e-05,2e-05,0.00033,2
5424,5726,0.00015,5e-05,8e-05,8e-05,0.0002,7e-05,2e-05,0.00033,2
5425,5727,0.00015,5e-05,8e-05,8e-05,0.0002,7e-05,2e-05,0.00033,2
5426,5728,0.00015,5e-05,8e-05,8e-05,0.0002,7e-05,2e-05,0.00033,2
5427,5729,0.00015,5e-05,8e-05,8e-05,0.0002,7e-05,2e-05,0.00033,2
5428,5731,0.00015,5e-05,8e-05,8e-05,0.0002,7e-05,2e-05,0.00033,2
5429,5732,0.00015,5e-05,8e-05,8e-05,0.0002,7e-05,2e-05,0.00033,2
5430,5733,0.00015,5e-05,8e-05,8e-05,0.0002,7e-05,2e-05,0.00033,2
5431,5734,0.00015,5e-05,8e-05,8e-05,0.0002,7e-05,2e-05,0.00033,2
5432,5735,0.00015,5e-05,8e-05,8e-05,0.0002,7e-05,2e-05,0.00033,2
5433,5736,0.00015,5e-05,8e-05,8e-05,0.0002,7e-05,2e-05,0.00033,2
5434,5739,0.00015,5e-05,8e-05,8e-05,0.0002,7e-05,2e-05,0.00033,2
5435,5741,0.00015,0.00021,0.0002,-2e-05,5.9999999999999995e-05,0.00011,2e-05,-2e-05,2
5436,5742,0.00042,4e-05,-0.00027,-1e-05,-0.00018999999999999998,-0.0003,-0.00029,-0.00011999999999999999,2
5437,5743,0.00042,4e-05,-0.00027,-1e-05,-0.00018999999999999998,-0.0003,-0.00029,-0.00011999999999999999,2
5438,5744,0.00042,4e-05,-0.00027,-1e-05,-0.00018999999999999998,-0.0003,-0.00029,-0.00011999999999999999,2
5439,5745,0.00042,4e-05,-0.00027,-1e-05,-0.00018999999999999998,-0.0003,-0.00029,-0.00011999999999999999,2
5440,5746,0.00042,4e-05,-0.00027,-1e-05,-0.00018999999999999998,-0.0003,-0.00029,-0.00011999999999999999,2
5441,5747,0.00042,4e-05,-0.00027,-1e-05,-0.00018999999999999998,-0.0003,-0.00029,-0.00011999999999999999,2
5442,5748,0.00042,4e-05,-0.00027,-1e-05,-0.00018999999999999998,-0.0003,-0.00029,-0.00011999999999999999,2
5443,5749,0.00042,4e-05,-0.00027,-1e-05,-0.00018999999999999998,-0.0003,-0.00029,-0.00011999999999999999,2
5444,5750,0.00042,4e-05,-0.00027,-1e-05,-0.00018999999999999998,-0.0003,-0.00029,-0.00011999999999999999,2
5445,5751,0.00042,4e-05,-0.00027,-1e-05,-0.00018999999999999998,-0.0003,-0.00029,-0.00011999999999999999,2
5446,5752,0.00042,4e-05,-0.00027,-1e-05,-0.00018999999999999998,-0.0003,-0.00029,-0.00011999999999999999,2
5447,5753,0.00042,4e-05,-0.00027,-1e-05,-0.00018999999999999998,-0.0003,-0.00029,-0.00011999999999999999,2
5448,5754,0.00042,4e-05,-0.00027,-1e-05,-0.00018999999999999998,-0.0003,-0.00029,-0.00011999999999999999,2
5449,5755,0.00042,4e-05,-0.00027,-1e-05,-0.00018999999999999998,-0.0003,-0.00029,-0.00011999999999999999,2
5450,5756,0.00042,4e-05,-0.00027,-1e-05,-0.00018999999999999998,-0.0003,-0.00029,-0.00011999999999999999,2
5451,5757,0.00042,4e-05,-0.00027,-1e-05,-0.00018999999999999998,-0.0003,-0.00029,-0.00011999999999999999,2
5452,5758,0.00042,4e-05,-0.00027,-1e-05,-0.00018999999999999998,-0.0003,-0.00029,-0.00011999999999999999,2
5453,5759,0.00042,4e-05,-0.00027,-1e-05,-0.00018999999999999998,-0.0003,-0.00029,-0.00011999999999999999,2
5454,5760,0.00042,4e-05,-0.00027,-1e-05,-0.00018999999999999998,-0.0003,-0.00029,-0.00011999999999999999,2
5455,5761,0.00042,4e-05,-0.00027,-1e-05,-0.00018999999999999998,-0.0003,-0.00029,-0.00011999999999999999,2
5456,5762,0.00043,9e-05,0.00014,0.00015,5.9999999999999995e-05,-0.00018,-5.9999999999999995e-05,0.0001,2
5457,5763,0.00085,0.00016,-0.00018,-9e-05,0.00018,-0.00021,0.00037,-0.00018,2
5458,5764,0.00085,0.00016,-0.00018,-9e-05,0.00018,-0.00021,0.00037,-0.00018,2
5459,5765,0.00085,0.00016,-0.00018,-9e-05,0.00018,-0.00021,0.00037,-0.00018,2
5460,5766,0.00085,0.00016,-0.00018,-9e-05,0.00018,-0.00021,0.00037,-0.00018,2
5461,5767,0.00085,0.00016,-0.00018,-9e-05,0.00018,-0.00021,0.00037,-0.00018,2
5462,5768,0.00085,0.00016,-0.00018,-9e-05,0.00018,-0.00021,0.00037,-0.00018,2
5463,5769,0.00085,0.00016,-0.00018,-9e-05,0.00018,-0.00021,0.00037,-0.00018,2
5464,5770,0.00085,0.00016,-0.00018,-9e-05,0.00018,-0.00021,0.00037,-0.00018,2
5465,5771,0.00085,0.00016,-0.00018,-9e-05,0.00018,-0.00021,0.00037,-0.00018,2
5466,5772,0.00085,0.00016,-0.00018,-9e-05,0.00018,-0.00021,0.00037,-0.00018,2
5467,5773,0.00085,0.00016,-0.00018,-9e-05,0.00018,-0.00021,0.00037,-0.00018,2
5468,5774,0.00085,0.00016,-0.00018,-9e-05,0.00018,-0.00021,0.00037,-0.00018,2
5469,5775,0.0,0.00015,-0.00022,-0.00037999999999999997,-0.00029,0.00022999999999999998,-2.9999999999999997e-05,4e-05,2
5470,5776,0.0,0.00015,-0.00022,-0.00037999999999999997,-0.00029,0.00022999999999999998,-2.9999999999999997e-05,4e-05,2
5471,5777,0.0,0.00015,-0.00022,-0.00037999999999999997,-0.00029,0.00022999999999999998,-2.9999999999999997e-05,4e-05,2
5472,5778,0.0,0.00015,-0.00022,-0.00037999999999999997,-0.00029,0.00022999999999999998,-2.9999999999999997e-05,4e-05,2
5473,5779,0.0,0.00015,-0.00022,-0.00037999999999999997,-0.00029,0.00022999999999999998,-2.9999999999999997e-05,4e-05,2
5474,5780,0.0,0.00015,-0.00022,-0.00037999999999999997,-0.00029,0.00022999999999999998,-2.9999999999999997e-05,4e-05,2
5475,5781,0.0,0.00015,-0.00022,-0.00037999999999999997,-0.00029,0.00022999999999999998,-2.9999999999999997e-05,4e-05,2
5476,5782,0.0,0.00015,-0.00022,-0.00037999999999999997,-0.00029,0.00022999999999999998,-2.9999999999999997e-05,4e-05,2
5477,5783,0.0,0.00015,-0.00022,-0.00037999999999999997,-0.00029,0.00022999999999999998,-2.9999999999999997e-05,4e-05,2
5478,5784,-1e-05,-0.00014,-1e-05,-1e-05,0.00023999999999999998,-0.00022,-0.00042,-2e-05,2
5479,5785,-0.00067,0.00014,0.00022999999999999998,0.00016999999999999999,0.00026000000000000003,0.00041,0.00073,1e-05,2
5480,5786,-0.00067,0.00014,0.00022999999999999998,0.00016999999999999999,0.00026000000000000003,0.00041,0.00073,1e-05,2
5481,5789,-0.00067,0.00014,0.00022999999999999998,0.00016999999999999999,0.00026000000000000003,0.00041,0.00073,1e-05,2
5482,5790,-0.00067,0.00014,0.00022999999999999998,0.00016999999999999999,0.00026000000000000003,0.00041,0.00073,1e-05,2
5483,5791,-0.00067,0.00014,0.00022999999999999998,0.00016999999999999999,0.00026000000000000003,0.00041,0.00073,1e-05,2
5484,5792,-0.00067,0.00014,0.00022999999999999998,0.00016999999999999999,0.00026000000000000003,0.00041,0.00073,1e-05,2
5485,5793,-0.00067,0.00014,0.00022999999999999998,0.00016999999999999999,0.00026000000000000003,0.00041,0.00073,1e-05,2
5486,5794,-0.00067,0.00014,0.00022999999999999998,0.00016999999999999999,0.00026000000000000003,0.00041,0.00073,1e-05,2
5487,5795,-0.00067,0.00014,0.00022999999999999998,0.00016999999999999999,0.00026000000000000003,0.00041,0.00073,1e-05,2
5488,5796,-0.00067,0.00014,0.00022999999999999998,0.00016999999999999999,0.00026000000000000003,0.00041,0.00073,1e-05,2
5489,5797,-0.00067,0.00014,0.00022999999999999998,0.00016999999999999999,0.00026000000000000003,0.00041,0.00073,1e-05,2
5490,5798,-0.00067,0.00014,0.00022999999999999998,0.00016999999999999999,0.00026000000000000003,0.00041,0.00073,1e-05,2
5491,5799,-1e-05,-5.9999999999999995e-05,-5.9999999999999995e-05,2e-05,0.00011,0.0001,-8e-05,-2.9999999999999997e-05,2
5492,5800,-1e-05,-5.9999999999999995e-05,-5.9999999999999995e-05,2e-05,0.00011,0.0001,-8e-05,-2.9999999999999997e-05,2
5493,5801,-0.00041,-0.00023999999999999998,-0.00014,2e-05,2e-05,-8e-05,-0.00095,-5.9999999999999995e-05,2
5494,5802,-0.00041,-0.00023999999999999998,-0.00014,2e-05,2e-05,-8e-05,-0.00095,-5.9999999999999995e-05,2
5495,5803,-0.00041,-0.00023999999999999998,-0.00014,2e-05,2e-05,-8e-05,-0.00095,-5.9999999999999995e-05,2
5496,5804,-0.00041,-0.00023999999999999998,-0.00014,2e-05,2e-05,-8e-05,-0.00095,-5.9999999999999995e-05,2
5497,5805,-0.00041,-0.00023999999999999998,-0.00014,2e-05,2e-05,-8e-05,-0.00095,-5.9999999999999995e-05,2
5498,5806,-0.00041,-0.00023999999999999998,-0.00014,2e-05,2e-05,-8e-05,-0.00095,-5.9999999999999995e-05,2
5499,5807,-0.00041,-0.00023999999999999998,-0.00014,2e-05,2e-05,-8e-05,-0.00095,-5.9999999999999995e-05,2
5500,5808,-0.00041,-0.00023999999999999998,-0.00014,2e-05,2e-05,-8e-05,-0.00095,-5.9999999999999995e-05,2
5501,5809,-0.00041,-0.00023999999999999998,-0.00014,2e-05,2e-05,-8e-05,-0.00095,-5.9999999999999995e-05,2
5502,5810,-0.00041,-0.00023999999999999998,-0.00014,2e-05,2e-05,-8e-05,-0.00095,-5.9999999999999995e-05,2
5503,5811,-0.00041,-0.00023999999999999998,-0.00014,2e-05,2e-05,-8e-05,-0.00095,-5.9999999999999995e-05,2
5504,5812,-0.00041,-0.00023999999999999998,-0.00014,2e-05,2e-05,-8e-05,-0.00095,-5.9999999999999995e-05,2
5505,5813,-0.00041,-0.00023999999999999998,-0.00014,2e-05,2e-05,-8e-05,-0.00095,-5.9999999999999995e-05,2
5506,5814,-0.00041,-0.00023999999999999998,-0.00014,2e-05,2e-05,-8e-05,-0.00095,-5.9999999999999995e-05,2
5507,5815,-0.00041,-0.00023999999999999998,-0.00014,2e-05,2e-05,-8e-05,-0.00095,-5.9999999999999995e-05,2
5508,5816,-0.00041,-0.00023999999999999998,-0.00014,2e-05,2e-05,-8e-05,-0.00095,-5.9999999999999995e-05,2
5509,5817,-0.00041,-0.00023999999999999998,-0.00014,2e-05,2e-05,-8e-05,-0.00095,-5.9999999999999995e-05,2
5510,5818,-0.00041,-0.00023999999999999998,-0.00014,2e-05,2e-05,-8e-05,-0.00095,-5.9999999999999995e-05,2
5511,5819,-0.00041,-0.00023999999999999998,-0.00014,2e-05,2e-05,-8e-05,-0.00095,-5.9999999999999995e-05,2
5512,5820,-0.00041,-0.00023999999999999998,-0.00014,2e-05,2e-05,-8e-05,-0.00095,-5.9999999999999995e-05,2
5513,5821,-0.00041,-0.00023999999999999998,-0.00014,2e-05,2e-05,-8e-05,-0.00095,-5.9999999999999995e-05,2
5514,5822,-0.00041,-0.00023999999999999998,-0.00014,2e-05,2e-05,-8e-05,-0.00095,-5.9999999999999995e-05,2
5515,5823,-0.00041,-0.00023999999999999998,-0.00014,2e-05,2e-05,-8e-05,-0.00095,-5.9999999999999995e-05,2
5516,5825,-0.00041,-0.00023999999999999998,-0.00014,2e-05,2e-05,-8e-05,-0.00095,-5.9999999999999995e-05,2
5517,5826,-0.00041,-0.00023999999999999998,-0.00014,2e-05,2e-05,-8e-05,-0.00095,-5.9999999999999995e-05,2
5518,5827,-0.00041,-0.00023999999999999998,-0.00014,2e-05,2e-05,-8e-05,-0.00095,-5.9999999999999995e-05,2
5519,5828,-0.00041,-0.00023999999999999998,-0.00014,2e-05,2e-05,-8e-05,-0.00095,-5.9999999999999995e-05,2
5520,5829,-0.00022999999999999998,-2e-05,0.00013000000000000002,0.0002,0.0002,0.00033,-8e-05,0.00027,2
5521,5830,-0.00022999999999999998,-2e-05,0.00013000000000000002,0.0002,0.0002,0.00033,-8e-05,0.00027,2
5522,5831,-5e-05,-0.0001,-0.00021,-0.00037999999999999997,-0.00027,-2.9999999999999997e-05,-0.0007599999999999999,-0.0002,2
5523,5832,-5e-05,-0.0001,-0.00021,-0.00037999999999999997,-0.00027,-2.9999999999999997e-05,-0.0007599999999999999,-0.0002,2
5524,5833,-5e-05,-0.0001,-0.00021,-0.00037999999999999997,-0.00027,-2.9999999999999997e-05,-0.0007599999999999999,-0.0002,2
5525,5834,-5e-05,-0.0001,-0.00021,-0.00037999999999999997,-0.00027,-2.9999999999999997e-05,-0.0007599999999999999,-0.0002,2
5526,5835,-5e-05,-0.0001,-0.00021,-0.00037999999999999997,-0.00027,-2.9999999999999997e-05,-0.0007599999999999999,-0.0002,2
5527,5836,-5e-05,-0.0001,-0.00021,-0.00037999999999999997,-0.00027,-2.9999999999999997e-05,-0.0007599999999999999,-0.0002,2
5528,5839,-5e-05,-0.0001,-0.00021,-0.00037999999999999997,-0.00027,-2.9999999999999997e-05,-0.0007599999999999999,-0.0002,2
5529,5840,-5e-05,-0.0001,-0.00021,-0.00037999999999999997,-0.00027,-2.9999999999999997e-05,-0.0007599999999999999,-0.0002,2
5530,5841,-5e-05,-0.0001,-0.00021,-0.00037999999999999997,-0.00027,-2.9999999999999997e-05,-0.0007599999999999999,-0.0002,2
5531,5842,-5e-05,-0.0001,-0.00021,-0.00037999999999999997,-0.00027,-2.9999999999999997e-05,-0.0007599999999999999,-0.0002,2
5532,5843,-5e-05,-0.0001,-0.00021,-0.00037999999999999997,-0.00027,-2.9999999999999997e-05,-0.0007599999999999999,-0.0002,2
5533,5844,-0.00011999999999999999,-5.9999999999999995e-05,-0.00016999999999999999,-0.00032,0.00037999999999999997,-0.00054,-0.0007,-0.00035,2
5534,5845,-0.00011999999999999999,-5.9999999999999995e-05,-0.00016999999999999999,-0.00032,0.00037999999999999997,-0.00054,-0.0007,-0.00035,2
5535,5846,0.00047000000000000004,-0.00027,-8e-05,4e-05,5e-05,0.00016,0.00028,0.00027,2
5536,5847,0.00047000000000000004,-0.00027,-8e-05,4e-05,5e-05,0.00016,0.00028,0.00027,2
5537,5848,0.00047000000000000004,-0.00027,-8e-05,4e-05,5e-05,0.00016,0.00028,0.00027,2
5538,5849,0.00047000000000000004,-0.00027,-8e-05,4e-05,5e-05,0.00016,0.00028,0.00027,2
5539,5850,0.00047000000000000004,-0.00027,-8e-05,4e-05,5e-05,0.00016,0.00028,0.00027,2
5540,5851,0.00047000000000000004,-0.00027,-8e-05,4e-05,5e-05,0.00016,0.00028,0.00027,2
5541,5852,0.00047000000000000004,-0.00027,-8e-05,4e-05,5e-05,0.00016,0.00028,0.00027,2
5542,5853,0.00047000000000000004,-0.00027,-8e-05,4e-05,5e-05,0.00016,0.00028,0.00027,2
5543,5854,0.00047000000000000004,-0.00027,-8e-05,4e-05,5e-05,0.00016,0.00028,0.00027,2
5544,5855,0.00047000000000000004,-0.00027,-8e-05,4e-05,5e-05,0.00016,0.00028,0.00027,2
5545,5856,0.00047000000000000004,-0.00027,-8e-05,4e-05,5e-05,0.00016,0.00028,0.00027,2
5546,5857,0.00047000000000000004,-0.00027,-8e-05,4e-05,5e-05,0.00016,0.00028,0.00027,2
5547,5858,0.00047000000000000004,-0.00027,-8e-05,4e-05,5e-05,0.00016,0.00028,0.00027,2
5548,5859,-2.9999999999999997e-05,-8e-05,0.00018999999999999998,2.9999999999999997e-05,-0.00013000000000000002,0.00018,0.0001,-2.9999999999999997e-05,2
5549,5860,-2.9999999999999997e-05,-8e-05,0.00018999999999999998,2.9999999999999997e-05,-0.00013000000000000002,0.00018,0.0001,-2.9999999999999997e-05,2
5550,5861,-2e-05,-0.00032,-0.00013000000000000002,-2.9999999999999997e-05,-0.00022999999999999998,-0.00033,-0.00032,-0.00018,2
5551,5862,-2e-05,-0.00032,-0.00013000000000000002,-2.9999999999999997e-05,-0.00022999999999999998,-0.00033,-0.00032,-0.00018,2
5552,5863,-2e-05,-0.00032,-0.00013000000000000002,-2.9999999999999997e-05,-0.00022999999999999998,-0.00033,-0.00032,-0.00018,2
5553,5864,-2e-05,-0.00032,-0.00013000000000000002,-2.9999999999999997e-05,-0.00022999999999999998,-0.00033,-0.00032,-0.00018,2
5554,5865,-2e-05,-0.00032,-0.00013000000000000002,-2.9999999999999997e-05,-0.00022999999999999998,-0.00033,-0.00032,-0.00018,2
5555,5866,-2e-05,-0.00032,-0.00013000000000000002,-2.9999999999999997e-05,-0.00022999999999999998,-0.00033,-0.00032,-0.00018,2
5556,5867,-2e-05,-0.00032,-0.00013000000000000002,-2.9999999999999997e-05,-0.00022999999999999998,-0.00033,-0.00032,-0.00018,2
5557,5868,-2e-05,-0.00032,-0.00013000000000000002,-2.9999999999999997e-05,-0.00022999999999999998,-0.00033,-0.00032,-0.00018,2
5558,5869,-2e-05,-0.00032,-0.00013000000000000002,-2.9999999999999997e-05,-0.00022999999999999998,-0.00033,-0.00032,-0.00018,2
5559,5870,-2e-05,-0.00032,-0.00013000000000000002,-2.9999999999999997e-05,-0.00022999999999999998,-0.00033,-0.00032,-0.00018,2
5560,5872,-2e-05,-0.00032,-0.00013000000000000002,-2.9999999999999997e-05,-0.00022999999999999998,-0.00033,-0.00032,-0.00018,2
5561,5873,-2e-05,-0.00032,-0.00013000000000000002,-2.9999999999999997e-05,-0.00022999999999999998,-0.00033,-0.00032,-0.00018,2
5562,5874,-2e-05,-0.00032,-0.00013000000000000002,-2.9999999999999997e-05,-0.00022999999999999998,-0.00033,-0.00032,-0.00018,2
5563,5875,-2e-05,-0.00032,-0.00013000000000000002,-2.9999999999999997e-05,-0.00022999999999999998,-0.00033,-0.00032,-0.00018,2
5564,5876,-2e-05,-0.00032,-0.00013000000000000002,-2.9999999999999997e-05,-0.00022999999999999998,-0.00033,-0.00032,-0.00018,2
5565,5877,-2e-05,-0.00032,-0.00013000000000000002,-2.9999999999999997e-05,-0.00022999999999999998,-0.00033,-0.00032,-0.00018,2
5566,5878,-2e-05,-0.00032,-0.00013000000000000002,-2.9999999999999997e-05,-0.00022999999999999998,-0.00033,-0.00032,-0.00018,2
5567,5879,-2e-05,-0.00032,-0.00013000000000000002,-2.9999999999999997e-05,-0.00022999999999999998,-0.00033,-0.00032,-0.00018,2
5568,5880,-2e-05,-0.00032,-0.00013000000000000002,-2.9999999999999997e-05,-0.00022999999999999998,-0.00033,-0.00032,-0.00018,2
5569,5881,-0.00022,-1e-05,8e-05,-9e-05,0.0,-0.00013000000000000002,-0.00041,-0.00022999999999999998,2
5570,5882,-0.00022,-1e-05,8e-05,-9e-05,0.0,-0.00013000000000000002,-0.00041,-0.00022999999999999998,2
5571,5883,-0.00022,-1e-05,8e-05,-9e-05,0.0,-0.00013000000000000002,-0.00041,-0.00022999999999999998,2
5572,5884,-0.00022,-1e-05,8e-05,-9e-05,0.0,-0.00013000000000000002,-0.00041,-0.00022999999999999998,2
5573,5885,-0.00022,-1e-05,8e-05,-9e-05,0.0,-0.00013000000000000002,-0.00041,-0.00022999999999999998,2
5574,5886,-0.00022,-1e-05,8e-05,-9e-05,0.0,-0.00013000000000000002,-0.00041,-0.00022999999999999998,2
5575,5889,-7e-05,-0.00023999999999999998,8e-05,0.00016,-8e-05,-5e-05,-0.00042,2e-05,2
5576,5890,-0.0005200000000000001,0.00018999999999999998,0.0002,0.00023999999999999998,-8e-05,5e-05,0.0005099999999999999,0.0,2
5577,5891,-0.0005200000000000001,0.00018999999999999998,0.0002,0.00023999999999999998,-8e-05,5e-05,0.0005099999999999999,0.0,2
5578,5892,-0.0005200000000000001,0.00018999999999999998,0.0002,0.00023999999999999998,-8e-05,5e-05,0.0005099999999999999,0.0,2
5579,5893,-0.0005200000000000001,0.00018999999999999998,0.0002,0.00023999999999999998,-8e-05,5e-05,0.0005099999999999999,0.0,2
5580,5894,-0.0005200000000000001,0.00018999999999999998,0.0002,0.00023999999999999998,-8e-05,5e-05,0.0005099999999999999,0.0,2
5581,5895,-0.0005200000000000001,0.00018999999999999998,0.0002,0.00023999999999999998,-8e-05,5e-05,0.0005099999999999999,0.0,2
5582,5896,-0.0005200000000000001,0.00018999999999999998,0.0002,0.00023999999999999998,-8e-05,5e-05,0.0005099999999999999,0.0,2
5583,5897,-0.0005200000000000001,0.00018999999999999998,0.0002,0.00023999999999999998,-8e-05,5e-05,0.0005099999999999999,0.0,2
5584,5898,-0.0005200000000000001,0.00018999999999999998,0.0002,0.00023999999999999998,-8e-05,5e-05,0.0005099999999999999,0.0,2
5585,5899,-0.0005200000000000001,0.00018999999999999998,0.0002,0.00023999999999999998,-8e-05,5e-05,0.0005099999999999999,0.0,2
5586,5900,-0.0005200000000000001,0.00018999999999999998,0.0002,0.00023999999999999998,-8e-05,5e-05,0.0005099999999999999,0.0,2
5587,5901,-0.0005200000000000001,0.00018999999999999998,0.0002,0.00023999999999999998,-8e-05,5e-05,0.0005099999999999999,0.0,2
5588,5902,-0.0005200000000000001,0.00018999999999999998,0.0002,0.00023999999999999998,-8e-05,5e-05,0.0005099999999999999,0.0,2
5589,5903,-0.0005200000000000001,0.00018999999999999998,0.0002,0.00023999999999999998,-8e-05,5e-05,0.0005099999999999999,0.0,2
5590,5904,0.00062,0.0003,2.9999999999999997e-05,0.00011999999999999999,0.00025,0.00023999999999999998,-0.00014,0.00011,2
5591,5905,0.00062,0.0003,2.9999999999999997e-05,0.00011999999999999999,0.00025,0.00023999999999999998,-0.00014,0.00011,2
5592,5906,-0.00011999999999999999,-0.00032,-1e-05,-0.0001,2.9999999999999997e-05,5.9999999999999995e-05,-8e-05,-0.0002,2
5593,5907,-0.00011999999999999999,-0.00032,-1e-05,-0.0001,2.9999999999999997e-05,5.9999999999999995e-05,-8e-05,-0.0002,2
5594,5908,-0.00011999999999999999,-0.00032,-1e-05,-0.0001,2.9999999999999997e-05,5.9999999999999995e-05,-8e-05,-0.0002,2
5595,5909,-0.00011999999999999999,-0.00032,-1e-05,-0.0001,2.9999999999999997e-05,5.9999999999999995e-05,-8e-05,-0.0002,2
5596,5910,-0.00011999999999999999,-0.00032,-1e-05,-0.0001,2.9999999999999997e-05,5.9999999999999995e-05,-8e-05,-0.0002,2
5597,5911,-0.00011999999999999999,-0.00032,-1e-05,-0.0001,2.9999999999999997e-05,5.9999999999999995e-05,-8e-05,-0.0002,2
5598,5912,-0.00011999999999999999,-0.00032,-1e-05,-0.0001,2.9999999999999997e-05,5.9999999999999995e-05,-8e-05,-0.0002,2
5599,5913,-0.00011999999999999999,-0.00032,-1e-05,-0.0001,2.9999999999999997e-05,5.9999999999999995e-05,-8e-05,-0.0002,2
5600,5914,-0.00011999999999999999,-0.00032,-1e-05,-0.0001,2.9999999999999997e-05,5.9999999999999995e-05,-8e-05,-0.0002,2
5601,5915,-0.00011999999999999999,-0.00032,-1e-05,-0.0001,2.9999999999999997e-05,5.9999999999999995e-05,-8e-05,-0.0002,2
5602,5916,-0.00011999999999999999,-0.00032,-1e-05,-0.0001,2.9999999999999997e-05,5.9999999999999995e-05,-8e-05,-0.0002,2
5603,5917,-0.00011999999999999999,-0.00032,-1e-05,-0.0001,2.9999999999999997e-05,5.9999999999999995e-05,-8e-05,-0.0002,2
5604,5918,-0.00011999999999999999,-0.00032,-1e-05,-0.0001,2.9999999999999997e-05,5.9999999999999995e-05,-8e-05,-0.0002,2
5605,5919,0.00029,5.9999999999999995e-05,-0.00056,-0.00018999999999999998,0.00018,0.00015,0.0011099999999999999,0.00041,2
5606,5920,0.00029,5.9999999999999995e-05,-0.00056,-0.00018999999999999998,0.00018,0.00015,0.0011099999999999999,0.00041,2
5607,5921,0.00037999999999999997,0.00022999999999999998,-2e-05,0.0001,0.00016999999999999999,-2.9999999999999997e-05,-0.00016,-0.00026000000000000003,2
5608,5922,0.00037999999999999997,0.00022999999999999998,-2e-05,0.0001,0.00016999999999999999,-2.9999999999999997e-05,-0.00016,-0.00026000000000000003,2
5609,5923,0.00037999999999999997,0.00022999999999999998,-2e-05,0.0001,0.00016999999999999999,-2.9999999999999997e-05,-0.00016,-0.00026000000000000003,2
5610,5924,0.00037999999999999997,0.00022999999999999998,-2e-05,0.0001,0.00016999999999999999,-2.9999999999999997e-05,-0.00016,-0.00026000000000000003,2
5611,5925,0.00037999999999999997,0.00022999999999999998,-2e-05,0.0001,0.00016999999999999999,-2.9999999999999997e-05,-0.00016,-0.00026000000000000003,2
5612,5926,0.00037999999999999997,0.00022999999999999998,-2e-05,0.0001,0.00016999999999999999,-2.9999999999999997e-05,-0.00016,-0.00026000000000000003,2
5613,5927,0.00037999999999999997,0.00022999999999999998,-2e-05,0.0001,0.00016999999999999999,-2.9999999999999997e-05,-0.00016,-0.00026000000000000003,2
5614,5928,0.00037999999999999997,0.00022999999999999998,-2e-05,0.0001,0.00016999999999999999,-2.9999999999999997e-05,-0.00016,-0.00026000000000000003,2
5615,5929,0.00037999999999999997,0.00022999999999999998,-2e-05,0.0001,0.00016999999999999999,-2.9999999999999997e-05,-0.00016,-0.00026000000000000003,2
5616,5930,0.00037999999999999997,0.00022999999999999998,-2e-05,0.0001,0.00016999999999999999,-2.9999999999999997e-05,-0.00016,-0.00026000000000000003,2
5617,5931,0.00037999999999999997,0.00022999999999999998,-2e-05,0.0001,0.00016999999999999999,-2.9999999999999997e-05,-0.00016,-0.00026000000000000003,2
5618,5932,0.00037999999999999997,0.00022999999999999998,-2e-05,0.0001,0.00016999999999999999,-2.9999999999999997e-05,-0.00016,-0.00026000000000000003,2
5619,5933,0.00037999999999999997,0.00022999999999999998,-2e-05,0.0001,0.00016999999999999999,-2.9999999999999997e-05,-0.00016,-0.00026000000000000003,2
5620,5934,0.00037999999999999997,0.00022999999999999998,-2e-05,0.0001,0.00016999999999999999,-2.9999999999999997e-05,-0.00016,-0.00026000000000000003,2
5621,5935,0.00037999999999999997,0.00022999999999999998,-2e-05,0.0001,0.00016999999999999999,-2.9999999999999997e-05,-0.00016,-0.00026000000000000003,2
5622,5936,0.00037999999999999997,0.00022999999999999998,-2e-05,0.0001,0.00016999999999999999,-2.9999999999999997e-05,-0.00016,-0.00026000000000000003,2
5623,5938,0.00037999999999999997,0.00022999999999999998,-2e-05,0.0001,0.00016999999999999999,-2.9999999999999997e-05,-0.00016,-0.00026000000000000003,2
5624,5939,0.00037999999999999997,0.00022999999999999998,-2e-05,0.0001,0.00016999999999999999,-2.9999999999999997e-05,-0.00016,-0.00026000000000000003,2
5625,5940,0.00037999999999999997,0.00022999999999999998,-2e-05,0.0001,0.00016999999999999999,-2.9999999999999997e-05,-0.00016,-0.00026000000000000003,2
5626,5941,0.00037999999999999997,0.00022999999999999998,-2e-05,0.0001,0.00016999999999999999,-2.9999999999999997e-05,-0.00016,-0.00026000000000000003,2
5627,5942,4e-05,-9e-05,-0.00013000000000000002,-1e-05,-0.00026000000000000003,0.0,5e-05,5.9999999999999995e-05,2
5628,5943,2.9999999999999997e-05,0.00023999999999999998,-0.00021,-0.00037,-7e-05,-2.9999999999999997e-05,-0.00045999999999999996,0.00016999999999999999,2
5629,5944,2.9999999999999997e-05,0.00023999999999999998,-0.00021,-0.00037,-7e-05,-2.9999999999999997e-05,-0.00045999999999999996,0.00016999999999999999,2
5630,5945,2.9999999999999997e-05,0.00023999999999999998,-0.00021,-0.00037,-7e-05,-2.9999999999999997e-05,-0.00045999999999999996,0.00016999999999999999,2
5631,5946,2.9999999999999997e-05,0.00023999999999999998,-0.00021,-0.00037,-7e-05,-2.9999999999999997e-05,-0.00045999999999999996,0.00016999999999999999,2
5632,5947,2.9999999999999997e-05,0.00023999999999999998,-0.00021,-0.00037,-7e-05,-2.9999999999999997e-05,-0.00045999999999999996,0.00016999999999999999,2
5633,5948,2.9999999999999997e-05,0.00023999999999999998,-0.00021,-0.00037,-7e-05,-2.9999999999999997e-05,-0.00045999999999999996,0.00016999999999999999,2
5634,5949,2.9999999999999997e-05,0.00023999999999999998,-0.00021,-0.00037,-7e-05,-2.9999999999999997e-05,-0.00045999999999999996,0.00016999999999999999,2
5635,5951,2.9999999999999997e-05,0.00023999999999999998,-0.00021,-0.00037,-7e-05,-2.9999999999999997e-05,-0.00045999999999999996,0.00016999999999999999,2
5636,5952,2.9999999999999997e-05,0.00023999999999999998,-0.00021,-0.00037,-7e-05,-2.9999999999999997e-05,-0.00045999999999999996,0.00016999999999999999,2
5637,5953,2.9999999999999997e-05,0.00023999999999999998,-0.00021,-0.00037,-7e-05,-2.9999999999999997e-05,-0.00045999999999999996,0.00016999999999999999,2
5638,5954,2.9999999999999997e-05,0.00023999999999999998,-0.00021,-0.00037,-7e-05,-2.9999999999999997e-05,-0.00045999999999999996,0.00016999999999999999,2
5639,5955,2.9999999999999997e-05,0.00023999999999999998,-0.00021,-0.00037,-7e-05,-2.9999999999999997e-05,-0.00045999999999999996,0.00016999999999999999,2
5640,5956,2.9999999999999997e-05,0.00023999999999999998,-0.00021,-0.00037,-7e-05,-2.9999999999999997e-05,-0.00045999999999999996,0.00016999999999999999,2
5641,5957,2.9999999999999997e-05,0.00023999999999999998,-0.00021,-0.00037,-7e-05,-2.9999999999999997e-05,-0.00045999999999999996,0.00016999999999999999,2
5642,5958,2.9999999999999997e-05,0.00023999999999999998,-0.00021,-0.00037,-7e-05,-2.9999999999999997e-05,-0.00045999999999999996,0.00016999999999999999,2
5643,5959,2.9999999999999997e-05,0.00023999999999999998,-0.00021,-0.00037,-7e-05,-2.9999999999999997e-05,-0.00045999999999999996,0.00016999999999999999,2
5644,5961,2.9999999999999997e-05,0.00023999999999999998,-0.00021,-0.00037,-7e-05,-2.9999999999999997e-05,-0.00045999999999999996,0.00016999999999999999,2
5645,5962,2.9999999999999997e-05,0.00023999999999999998,-0.00021,-0.00037,-7e-05,-2.9999999999999997e-05,-0.00045999999999999996,0.00016999999999999999,2
5646,5963,2.9999999999999997e-05,0.00023999999999999998,-0.00021,-0.00037,-7e-05,-2.9999999999999997e-05,-0.00045999999999999996,0.00016999999999999999,2
5647,5964,-0.00075,-0.00011,1e-05,0.0,7e-05,-0.00033,-8e-05,-0.00016,2
5648,5965,-0.00075,-0.00011,1e-05,0.0,7e-05,-0.00033,-8e-05,-0.00016,2
5649,5966,-0.00044,0.00011999999999999999,9e-05,-0.00014,-2.9999999999999997e-05,-0.00011999999999999999,-9e-05,-2e-05,2
5650,5967,-0.00044,0.00011999999999999999,9e-05,-0.00014,-2.9999999999999997e-05,-0.00011999999999999999,-9e-05,-2e-05,2
5651,5968,-0.00044,0.00011999999999999999,9e-05,-0.00014,-2.9999999999999997e-05,-0.00011999999999999999,-9e-05,-2e-05,2
5652,5969,-0.00044,0.00011999999999999999,9e-05,-0.00014,-2.9999999999999997e-05,-0.00011999999999999999,-9e-05,-2e-05,2
5653,5971,-0.00044,0.00011999999999999999,9e-05,-0.00014,-2.9999999999999997e-05,-0.00011999999999999999,-9e-05,-2e-05,2
5654,5972,-0.00044,0.00011999999999999999,9e-05,-0.00014,-2.9999999999999997e-05,-0.00011999999999999999,-9e-05,-2e-05,2
5655,5973,-0.00044,0.00011999999999999999,9e-05,-0.00014,-2.9999999999999997e-05,-0.00011999999999999999,-9e-05,-2e-05,2
5656,5974,-0.00044,0.00011999999999999999,9e-05,-0.00014,-2.9999999999999997e-05,-0.00011999999999999999,-9e-05,-2e-05,2
5657,5975,-0.00044,0.00011999999999999999,9e-05,-0.00014,-2.9999999999999997e-05,-0.00011999999999999999,-9e-05,-2e-05,2
5658,5976,-0.00044,0.00011999999999999999,9e-05,-0.00014,-2.9999999999999997e-05,-0.00011999999999999999,-9e-05,-2e-05,2
5659,5977,-0.00044,0.00011999999999999999,9e-05,-0.00014,-2.9999999999999997e-05,-0.00011999999999999999,-9e-05,-2e-05,2
5660,5978,-0.00044,0.00011999999999999999,9e-05,-0.00014,-2.9999999999999997e-05,-0.00011999999999999999,-9e-05,-2e-05,2
5661,5979,0.00013000000000000002,-0.00015,-1e-05,-0.00022,-0.0003,-0.00018999999999999998,-0.00066,-0.00011,2
5662,5980,0.00013000000000000002,-0.00015,-1e-05,-0.00022,-0.0003,-0.00018999999999999998,-0.00066,-0.00011,2
5663,5981,4e-05,4e-05,-4e-05,-0.00013000000000000002,-0.00027,0.00011,0.00028,-2e-05,2
5664,5982,4e-05,4e-05,-4e-05,-0.00013000000000000002,-0.00027,0.00011,0.00028,-2e-05,2
5665,5983,4e-05,4e-05,-4e-05,-0.00013000000000000002,-0.00027,0.00011,0.00028,-2e-05,2
5666,5984,4e-05,4e-05,-4e-05,-0.00013000000000000002,-0.00027,0.00011,0.00028,-2e-05,2
5667,5985,4e-05,4e-05,-4e-05,-0.00013000000000000002,-0.00027,0.00011,0.00028,-2e-05,2
5668,5986,4e-05,4e-05,-4e-05,-0.00013000000000000002,-0.00027,0.00011,0.00028,-2e-05,2
5669,5988,4e-05,4e-05,-4e-05,-0.00013000000000000002,-0.00027,0.00011,0.00028,-2e-05,2
5670,5989,4e-05,4e-05,-4e-05,-0.00013000000000000002,-0.00027,0.00011,0.00028,-2e-05,2
5671,5990,4e-05,4e-05,-4e-05,-0.00013000000000000002,-0.00027,0.00011,0.00028,-2e-05,2
5672,5991,4e-05,4e-05,-4e-05,-0.00013000000000000002,-0.00027,0.00011,0.00028,-2e-05,2
5673,5992,4e-05,4e-05,-4e-05,-0.00013000000000000002,-0.00027,0.00011,0.00028,-2e-05,2
5674,5993,4e-05,4e-05,-4e-05,-0.00013000000000000002,-0.00027,0.00011,0.00028,-2e-05,2
5675,5994,4e-05,4e-05,-4e-05,-0.00013000000000000002,-0.00027,0.00011,0.00028,-2e-05,2
5676,5995,4e-05,4e-05,-4e-05,-0.00013000000000000002,-0.00027,0.00011,0.00028,-2e-05,2
5677,5996,4e-05,4e-05,-4e-05,-0.00013000000000000002,-0.00027,0.00011,0.00028,-2e-05,2
5678,5997,4e-05,4e-05,-4e-05,-0.00013000000000000002,-0.00027,0.00011,0.00028,-2e-05,2
5679,5998,4e-05,4e-05,-4e-05,-0.00013000000000000002,-0.00027,0.00011,0.00028,-2e-05,2
5680,5999,4e-05,4e-05,-4e-05,-0.00013000000000000002,-0.00027,0.00011,0.00028,-2e-05,2
5681,6000,4e-05,4e-05,-4e-05,-0.00013000000000000002,-0.00027,0.00011,0.00028,-2e-05,2
5682,6001,4e-05,4e-05,-4e-05,-0.00013000000000000002,-0.00027,0.00011,0.00028,-2e-05,2
5683,6002,-0.0003,-0.00018999999999999998,0.00023999999999999998,0.0003,-0.00016999999999999999,-0.00011,0.00037999999999999997,-2e-05,2
5684,6003,-0.00015,-0.00055,-0.00011999999999999999,0.00022,-0.00016,-0.00021,0.00011999999999999999,2.9999999999999997e-05,2
5685,6004,-0.00015,-0.00055,-0.00011999999999999999,0.00022,-0.00016,-0.00021,0.00011999999999999999,2.9999999999999997e-05,2
5686,6005,-0.00015,-0.00055,-0.00011999999999999999,0.00022,-0.00016,-0.00021,0.00011999999999999999,2.9999999999999997e-05,2
5687,6006,-0.00015,-0.00055,-0.00011999999999999999,0.00022,-0.00016,-0.00021,0.00011999999999999999,2.9999999999999997e-05,2
5688,6007,-0.00015,-0.00055,-0.00011999999999999999,0.00022,-0.00016,-0.00021,0.00011999999999999999,2.9999999999999997e-05,2
5689,6008,-0.00015,-0.00055,-0.00011999999999999999,0.00022,-0.00016,-0.00021,0.00011999999999999999,2.9999999999999997e-05,2
5690,6009,-0.00015,-0.00055,-0.00011999999999999999,0.00022,-0.00016,-0.00021,0.00011999999999999999,2.9999999999999997e-05,2
5691,6010,-0.00015,-0.00055,-0.00011999999999999999,0.00022,-0.00016,-0.00021,0.00011999999999999999,2.9999999999999997e-05,2
5692,6011,-0.00015,-0.00055,-0.00011999999999999999,0.00022,-0.00016,-0.00021,0.00011999999999999999,2.9999999999999997e-05,2
5693,6013,-0.00015,-0.00055,-0.00011999999999999999,0.00022,-0.00016,-0.00021,0.00011999999999999999,2.9999999999999997e-05,2
5694,6014,-0.00015,-0.00055,-0.00011999999999999999,0.00022,-0.00016,-0.00021,0.00011999999999999999,2.9999999999999997e-05,2
5695,6015,-0.00015,-0.00055,-0.00011999999999999999,0.00022,-0.00016,-0.00021,0.00011999999999999999,2.9999999999999997e-05,2
5696,6016,-0.00015,-0.00055,-0.00011999999999999999,0.00022,-0.00016,-0.00021,0.00011999999999999999,2.9999999999999997e-05,2
5697,6017,-0.00015,-0.00055,-0.00011999999999999999,0.00022,-0.00016,-0.00021,0.00011999999999999999,2.9999999999999997e-05,2
5698,6018,-0.00015,-0.00055,-0.00011999999999999999,0.00022,-0.00016,-0.00021,0.00011999999999999999,2.9999999999999997e-05,2
5699,6019,-0.00015,-0.00055,-0.00011999999999999999,0.00022,-0.00016,-0.00021,0.00011999999999999999,2.9999999999999997e-05,2
5700,6020,-0.00015,-0.00055,-0.00011999999999999999,0.00022,-0.00016,-0.00021,0.00011999999999999999,2.9999999999999997e-05,2
5701,6021,-0.00015,-0.00055,-0.00011999999999999999,0.00022,-0.00016,-0.00021,0.00011999999999999999,2.9999999999999997e-05,2
5702,6022,-0.00015,-0.00055,-0.00011999999999999999,0.00022,-0.00016,-0.00021,0.00011999999999999999,2.9999999999999997e-05,2
5703,6023,-0.00015,-0.00055,-0.00011999999999999999,0.00022,-0.00016,-0.00021,0.00011999999999999999,2.9999999999999997e-05,2
5704,6024,9e-05,0.00022999999999999998,0.00016,-2e-05,2.9999999999999997e-05,0.00016,0.00031,-5.9999999999999995e-05,2
5705,6025,9e-05,0.00022999999999999998,0.00016,-2e-05,2.9999999999999997e-05,0.00016,0.00031,-5.9999999999999995e-05,2
5706,6026,8e-05,-0.00011,-0.00016999999999999999,-0.00016,-4e-05,-7e-05,2e-05,0.00011,2
5707,6027,8e-05,-0.00011,-0.00016999999999999999,-0.00016,-4e-05,-7e-05,2e-05,0.00011,2
5708,6028,8e-05,-0.00011,-0.00016999999999999999,-0.00016,-4e-05,-7e-05,2e-05,0.00011,2
5709,6029,8e-05,-0.00011,-0.00016999999999999999,-0.00016,-4e-05,-7e-05,2e-05,0.00011,2
5710,6030,8e-05,-0.00011,-0.00016999999999999999,-0.00016,-4e-05,-7e-05,2e-05,0.00011,2
5711,6031,8e-05,-0.00011,-0.00016999999999999999,-0.00016,-4e-05,-7e-05,2e-05,0.00011,2
5712,6032,8e-05,-0.00011,-0.00016999999999999999,-0.00016,-4e-05,-7e-05,2e-05,0.00011,2
5713,6033,8e-05,-0.00011,-0.00016999999999999999,-0.00016,-4e-05,-7e-05,2e-05,0.00011,2
5714,6034,8e-05,-0.00011,-0.00016999999999999999,-0.00016,-4e-05,-7e-05,2e-05,0.00011,2
5715,6035,8e-05,-0.00011,-0.00016999999999999999,-0.00016,-4e-05,-7e-05,2e-05,0.00011,2
5716,6036,8e-05,-0.00011,-0.00016999999999999999,-0.00016,-4e-05,-7e-05,2e-05,0.00011,2
5717,6039,-0.00036,-0.00011999999999999999,-7e-05,0.00011,0.00035,1e-05,0.00049,-1e-05,2
5718,6040,-0.00036,-0.00011999999999999999,-7e-05,0.00011,0.00035,1e-05,0.00049,-1e-05,2
5719,6041,-0.00036,-0.00011999999999999999,-7e-05,0.00011,0.00035,1e-05,0.00049,-1e-05,2
5720,6042,-0.00036,-0.00011999999999999999,-7e-05,0.00011,0.00035,1e-05,0.00049,-1e-05,2
5721,6043,-0.00036,-0.00011999999999999999,-7e-05,0.00011,0.00035,1e-05,0.00049,-1e-05,2
5722,6044,-0.00036,-0.00011999999999999999,-7e-05,0.00011,0.00035,1e-05,0.00049,-1e-05,2
5723,6045,-0.00036,-0.00011999999999999999,-7e-05,0.00011,0.00035,1e-05,0.00049,-1e-05,2
5724,6046,-0.00036,-0.00011999999999999999,-7e-05,0.00011,0.00035,1e-05,0.00049,-1e-05,2
5725,6047,0.00041,0.00027,0.00011999999999999999,1e-05,-0.00022,0.00021,0.00062,0.00018999999999999998,2
5726,6048,0.00041,0.00027,0.00011999999999999999,1e-05,-0.00022,0.00021,0.00062,0.00018999999999999998,2
5727,6049,0.00041,0.00027,0.00011999999999999999,1e-05,-0.00022,0.00021,0.00062,0.00018999999999999998,2
5728,6050,0.00041,0.00027,0.00011999999999999999,1e-05,-0.00022,0.00021,0.00062,0.00018999999999999998,2
5729,6051,0.00041,0.00027,0.00011999999999999999,1e-05,-0.00022,0.00021,0.00062,0.00018999999999999998,2
5730,6052,0.00041,0.00027,0.00011999999999999999,1e-05,-0.00022,0.00021,0.00062,0.00018999999999999998,2
5731,6053,0.00041,0.00027,0.00011999999999999999,1e-05,-0.00022,0.00021,0.00062,0.00018999999999999998,2
5732,6054,0.00041,0.00027,0.00011999999999999999,1e-05,-0.00022,0.00021,0.00062,0.00018999999999999998,2
5733,6055,0.00041,0.00027,0.00011999999999999999,1e-05,-0.00022,0.00021,0.00062,0.00018999999999999998,2
5734,6057,0.00041,0.00027,0.00011999999999999999,1e-05,-0.00022,0.00021,0.00062,0.00018999999999999998,2
5735,6058,0.00041,0.00027,0.00011999999999999999,1e-05,-0.00022,0.00021,0.00062,0.00018999999999999998,2
5736,6059,0.00041,0.00027,0.00011999999999999999,1e-05,-0.00022,0.00021,0.00062,0.00018999999999999998,2
5737,6060,0.00041,0.00027,0.00011999999999999999,1e-05,-0.00022,0.00021,0.00062,0.00018999999999999998,2
5738,6061,0.00041,0.00027,0.00011999999999999999,1e-05,-0.00022,0.00021,0.00062,0.00018999999999999998,2
5739,6062,0.00049,7e-05,0.00036,0.00025,0.00016999999999999999,9e-05,-0.00026000000000000003,0.00011,2
5740,6063,-0.0007,-2.9999999999999997e-05,-0.00022999999999999998,-1e-05,0.00018999999999999998,0.00016,0.00057,2.9999999999999997e-05,2
5741,6064,-0.0007,-2.9999999999999997e-05,-0.00022999999999999998,-1e-05,0.00018999999999999998,0.00016,0.00057,2.9999999999999997e-05,2
5742,6065,-0.0007,-2.9999999999999997e-05,-0.00022999999999999998,-1e-05,0.00018999999999999998,0.00016,0.00057,2.9999999999999997e-05,2
5743,6066,-0.0007,-2.9999999999999997e-05,-0.00022999999999999998,-1e-05,0.00018999999999999998,0.00016,0.00057,2.9999999999999997e-05,2
5744,6067,-0.0007,-2.9999999999999997e-05,-0.00022999999999999998,-1e-05,0.00018999999999999998,0.00016,0.00057,2.9999999999999997e-05,2
5745,6068,-0.0007,-2.9999999999999997e-05,-0.00022999999999999998,-1e-05,0.00018999999999999998,0.00016,0.00057,2.9999999999999997e-05,2
5746,6069,-0.0007,-2.9999999999999997e-05,-0.00022999999999999998,-1e-05,0.00018999999999999998,0.00016,0.00057,2.9999999999999997e-05,2
5747,6070,-0.0007,-2.9999999999999997e-05,-0.00022999999999999998,-1e-05,0.00018999999999999998,0.00016,0.00057,2.9999999999999997e-05,2
5748,6071,-0.0007,-2.9999999999999997e-05,-0.00022999999999999998,-1e-05,0.00018999999999999998,0.00016,0.00057,2.9999999999999997e-05,2
5749,6072,-0.0007,-2.9999999999999997e-05,-0.00022999999999999998,-1e-05,0.00018999999999999998,0.00016,0.00057,2.9999999999999997e-05,2
5750,6073,-0.0007,-2.9999999999999997e-05,-0.00022999999999999998,-1e-05,0.00018999999999999998,0.00016,0.00057,2.9999999999999997e-05,2
5751,6074,-0.0007,-2.9999999999999997e-05,-0.00022999999999999998,-1e-05,0.00018999999999999998,0.00016,0.00057,2.9999999999999997e-05,2
5752,6075,-0.0007,-2.9999999999999997e-05,-0.00022999999999999998,-1e-05,0.00018999999999999998,0.00016,0.00057,2.9999999999999997e-05,2
5753,6076,-0.0007,-2.9999999999999997e-05,-0.00022999999999999998,-1e-05,0.00018999999999999998,0.00016,0.00057,2.9999999999999997e-05,2
5754,6077,-0.0007,-2.9999999999999997e-05,-0.00022999999999999998,-1e-05,0.00018999999999999998,0.00016,0.00057,2.9999999999999997e-05,2
5755,6078,-0.0007,-2.9999999999999997e-05,-0.00022999999999999998,-1e-05,0.00018999999999999998,0.00016,0.00057,2.9999999999999997e-05,2
5756,6079,-0.0007,-2.9999999999999997e-05,-0.00022999999999999998,-1e-05,0.00018999999999999998,0.00016,0.00057,2.9999999999999997e-05,2
5757,6080,-0.0007,-2.9999999999999997e-05,-0.00022999999999999998,-1e-05,0.00018999999999999998,0.00016,0.00057,2.9999999999999997e-05,2
5758,6081,-0.0007,-2.9999999999999997e-05,-0.00022999999999999998,-1e-05,0.00018999999999999998,0.00016,0.00057,2.9999999999999997e-05,2
5759,6082,-0.0007,-2.9999999999999997e-05,-0.00022999999999999998,-1e-05,0.00018999999999999998,0.00016,0.00057,2.9999999999999997e-05,2
5760,6083,-0.0007,-2.9999999999999997e-05,-0.00022999999999999998,-1e-05,0.00018999999999999998,0.00016,0.00057,2.9999999999999997e-05,2
5761,6084,5e-05,0.00029,0.00033999999999999997,0.0004,0.00037,0.00011999999999999999,0.00084,-9e-05,2
5762,6085,5e-05,0.00029,0.00033999999999999997,0.0004,0.00037,0.00011999999999999999,0.00084,-9e-05,2
5763,6087,0.00037999999999999997,0.00031,0.00027,0.00011999999999999999,-0.00057,-0.00032,-0.0006799999999999999,-0.00015,2
5764,6089,0.00037999999999999997,0.00031,0.00027,0.00011999999999999999,-0.00057,-0.00032,-0.0006799999999999999,-0.00015,2
5765,6090,0.00037999999999999997,0.00031,0.00027,0.00011999999999999999,-0.00057,-0.00032,-0.0006799999999999999,-0.00015,2
5766,6091,0.00037999999999999997,0.00031,0.00027,0.00011999999999999999,-0.00057,-0.00032,-0.0006799999999999999,-0.00015,2
5767,6092,0.00037999999999999997,0.00031,0.00027,0.00011999999999999999,-0.00057,-0.00032,-0.0006799999999999999,-0.00015,2
5768,6093,0.00037999999999999997,0.00031,0.00027,0.00011999999999999999,-0.00057,-0.00032,-0.0006799999999999999,-0.00015,2
5769,6094,0.00037999999999999997,0.00031,0.00027,0.00011999999999999999,-0.00057,-0.00032,-0.0006799999999999999,-0.00015,2
5770,6095,0.00037999999999999997,0.00031,0.00027,0.00011999999999999999,-0.00057,-0.00032,-0.0006799999999999999,-0.00015,2
5771,6096,0.00037999999999999997,0.00031,0.00027,0.00011999999999999999,-0.00057,-0.00032,-0.0006799999999999999,-0.00015,2
5772,6097,0.00037999999999999997,0.00031,0.00027,0.00011999999999999999,-0.00057,-0.00032,-0.0006799999999999999,-0.00015,2
5773,6098,0.00037999999999999997,0.00031,0.00027,0.00011999999999999999,-0.00057,-0.00032,-0.0006799999999999999,-0.00015,2
5774,6099,0.00037999999999999997,0.00031,0.00027,0.00011999999999999999,-0.00057,-0.00032,-0.0006799999999999999,-0.00015,2
5775,6100,0.00037999999999999997,0.00031,0.00027,0.00011999999999999999,-0.00057,-0.00032,-0.0006799999999999999,-0.00015,2
5776,6101,0.00037999999999999997,0.00031,0.00027,0.00011999999999999999,-0.00057,-0.00032,-0.0006799999999999999,-0.00015,2
5777,6102,0.00037999999999999997,0.00031,0.00027,0.00011999999999999999,-0.00057,-0.00032,-0.0006799999999999999,-0.00015,2
5778,6103,0.00037999999999999997,0.00031,0.00027,0.00011999999999999999,-0.00057,-0.00032,-0.0006799999999999999,-0.00015,2
5779,6104,0.00037999999999999997,0.00031,0.00027,0.00011999999999999999,-0.00057,-0.00032,-0.0006799999999999999,-0.00015,2
5780,6105,0.00037999999999999997,0.00031,0.00027,0.00011999999999999999,-0.00057,-0.00032,-0.0006799999999999999,-0.00015,2
5781,6106,0.00037999999999999997,0.00031,0.00027,0.00011999999999999999,-0.00057,-0.00032,-0.0006799999999999999,-0.00015,2
5782,6107,-5e-05,0.00023999999999999998,-0.00041,-0.00021,0.0,0.00022,-0.00011,9e-05,2
5783,6108,-0.00037999999999999997,-0.00027,7e-05,5.9999999999999995e-05,-0.00011,-2.9999999999999997e-05,-0.00057,0.0,2
5784,6109,-5e-05,7e-05,0.00015,0.00022,0.0005200000000000001,0.00033,0.0006900000000000001,-0.0001,2
5785,6110,-5e-05,7e-05,0.00015,0.00022,0.0005200000000000001,0.00033,0.0006900000000000001,-0.0001,2
5786,6111,-5e-05,7e-05,0.00015,0.00022,0.0005200000000000001,0.00033,0.0006900000000000001,-0.0001,2
5787,6112,-5e-05,7e-05,0.00015,0.00022,0.0005200000000000001,0.00033,0.0006900000000000001,-0.0001,2
5788,6113,-5e-05,7e-05,0.00015,0.00022,0.0005200000000000001,0.00033,0.0006900000000000001,-0.0001,2
5789,6114,-5e-05,7e-05,0.00015,0.00022,0.0005200000000000001,0.00033,0.0006900000000000001,-0.0001,2
5790,6115,-5e-05,7e-05,0.00015,0.00022,0.0005200000000000001,0.00033,0.0006900000000000001,-0.0001,2
5791,6116,-5e-05,7e-05,0.00015,0.00022,0.0005200000000000001,0.00033,0.0006900000000000001,-0.0001,2
5792,6117,-5e-05,7e-05,0.00015,0.00022,0.0005200000000000001,0.00033,0.0006900000000000001,-0.0001,2
5793,6118,-5e-05,7e-05,0.00015,0.00022,0.0005200000000000001,0.00033,0.0006900000000000001,-0.0001,2
5794,6119,-5e-05,7e-05,0.00015,0.00022,0.0005200000000000001,0.00033,0.0006900000000000001,-0.0001,2
5795,6120,-5e-05,7e-05,0.00015,0.00022,0.0005200000000000001,0.00033,0.0006900000000000001,-0.0001,2
5796,6121,-5e-05,7e-05,0.00015,0.00022,0.0005200000000000001,0.00033,0.0006900000000000001,-0.0001,2
5797,6122,1e-05,8e-05,-0.0002,-0.00013000000000000002,5e-05,0.00055,0.00011,-0.00014,2
5798,6123,-0.0002,-0.00021,-0.00021,-0.00011999999999999999,7e-05,-2e-05,-0.00041,-0.00016999999999999999,2
5799,6124,-0.0002,-0.00021,-0.00021,-0.00011999999999999999,7e-05,-2e-05,-0.00041,-0.00016999999999999999,2
5800,6125,-0.0002,-0.00021,-0.00021,-0.00011999999999999999,7e-05,-2e-05,-0.00041,-0.00016999999999999999,2
5801,6126,-0.0002,-0.00021,-0.00021,-0.00011999999999999999,7e-05,-2e-05,-0.00041,-0.00016999999999999999,2
5802,6127,-0.0002,-0.00021,-0.00021,-0.00011999999999999999,7e-05,-2e-05,-0.00041,-0.00016999999999999999,2
5803,6128,-0.0002,-0.00021,-0.00021,-0.00011999999999999999,7e-05,-2e-05,-0.00041,-0.00016999999999999999,2
5804,6129,-0.0002,-0.00021,-0.00021,-0.00011999999999999999,7e-05,-2e-05,-0.00041,-0.00016999999999999999,2
5805,6130,-0.0002,-0.00021,-0.00021,-0.00011999999999999999,7e-05,-2e-05,-0.00041,-0.00016999999999999999,2
5806,6131,-0.0002,-0.00021,-0.00021,-0.00011999999999999999,7e-05,-2e-05,-0.00041,-0.00016999999999999999,2
5807,6132,-0.0002,-0.00021,-0.00021,-0.00011999999999999999,7e-05,-2e-05,-0.00041,-0.00016999999999999999,2
5808,6133,-0.0002,-0.00021,-0.00021,-0.00011999999999999999,7e-05,-2e-05,-0.00041,-0.00016999999999999999,2
5809,6134,-0.0002,-0.00021,-0.00021,-0.00011999999999999999,7e-05,-2e-05,-0.00041,-0.00016999999999999999,2
5810,6135,-0.0002,-0.00021,-0.00021,-0.00011999999999999999,7e-05,-2e-05,-0.00041,-0.00016999999999999999,2
5811,6136,-0.0002,-0.00021,-0.00021,-0.00011999999999999999,7e-05,-2e-05,-0.00041,-0.00016999999999999999,2
5812,6138,-0.0002,-0.00021,-0.00021,-0.00011999999999999999,7e-05,-2e-05,-0.00041,-0.00016999999999999999,2
5813,6140,-0.0002,-0.00021,-0.00021,-0.00011999999999999999,7e-05,-2e-05,-0.00041,-0.00016999999999999999,2
5814,6141,-0.0002,-0.00021,-0.00021,-0.00011999999999999999,7e-05,-2e-05,-0.00041,-0.00016999999999999999,2
5815,6142,-0.0002,-0.00021,-0.00021,-0.00011999999999999999,7e-05,-2e-05,-0.00041,-0.00016999999999999999,2
5816,6143,-0.0002,-0.00021,-0.00021,-0.00011999999999999999,7e-05,-2e-05,-0.00041,-0.00016999999999999999,2
5817,6144,-0.00036,0.0001,1e-05,-0.00022,-0.00036,-0.00037,-0.00058,-0.0001,2
5818,6145,-0.00036,0.0001,1e-05,-0.00022,-0.00036,-0.00037,-0.00058,-0.0001,2
5819,6146,-0.0004,7e-05,2e-05,-2e-05,0.00011,0.00018999999999999998,0.00047000000000000004,-5e-05,2
5820,6147,-0.0004,7e-05,2e-05,-2e-05,0.00011,0.00018999999999999998,0.00047000000000000004,-5e-05,2
5821,6148,-0.0004,7e-05,2e-05,-2e-05,0.00011,0.00018999999999999998,0.00047000000000000004,-5e-05,2
5822,6149,-0.0004,7e-05,2e-05,-2e-05,0.00011,0.00018999999999999998,0.00047000000000000004,-5e-05,2
5823,6150,-0.0004,7e-05,2e-05,-2e-05,0.00011,0.00018999999999999998,0.00047000000000000004,-5e-05,2
5824,6151,-0.0004,7e-05,2e-05,-2e-05,0.00011,0.00018999999999999998,0.00047000000000000004,-5e-05,2
5825,6152,-0.0004,7e-05,2e-05,-2e-05,0.00011,0.00018999999999999998,0.00047000000000000004,-5e-05,2
5826,6153,-0.0004,7e-05,2e-05,-2e-05,0.00011,0.00018999999999999998,0.00047000000000000004,-5e-05,2
5827,6154,-0.0004,7e-05,2e-05,-2e-05,0.00011,0.00018999999999999998,0.00047000000000000004,-5e-05,2
5828,6155,-0.0004,7e-05,2e-05,-2e-05,0.00011,0.00018999999999999998,0.00047000000000000004,-5e-05,2
5829,6156,-0.0004,7e-05,2e-05,-2e-05,0.00011,0.00018999999999999998,0.00047000000000000004,-5e-05,2
5830,6157,-0.0004,7e-05,2e-05,-2e-05,0.00011,0.00018999999999999998,0.00047000000000000004,-5e-05,2
5831,6158,-0.0004,7e-05,2e-05,-2e-05,0.00011,0.00018999999999999998,0.00047000000000000004,-5e-05,2
5832,6159,-0.00011999999999999999,-2e-05,-0.00022999999999999998,-5.9999999999999995e-05,-9e-05,7e-05,-0.0003,-4e-05,2
5833,6160,-0.00011999999999999999,-2e-05,-0.00022999999999999998,-5.9999999999999995e-05,-9e-05,7e-05,-0.0003,-4e-05,2
5834,6161,-0.00011999999999999999,-2e-05,-0.00022999999999999998,-5.9999999999999995e-05,-9e-05,7e-05,-0.0003,-4e-05,2
5835,6162,-0.00011999999999999999,-2e-05,-0.00022999999999999998,-5.9999999999999995e-05,-9e-05,7e-05,-0.0003,-4e-05,2
5836,6163,-0.00011999999999999999,-2e-05,-0.00022999999999999998,-5.9999999999999995e-05,-9e-05,7e-05,-0.0003,-4e-05,2
5837,6164,-0.00011999999999999999,-2e-05,-0.00022999999999999998,-5.9999999999999995e-05,-9e-05,7e-05,-0.0003,-4e-05,2
5838,6165,2.9999999999999997e-05,0.00013000000000000002,0.00021,7e-05,-2.9999999999999997e-05,-2e-05,0.00041,4e-05,2
5839,6166,0.00026000000000000003,-7e-05,0.00021,0.00014,-0.00014,-7e-05,0.0,0.00011999999999999999,2
5840,6167,0.00026000000000000003,-7e-05,0.00021,0.00014,-0.00014,-7e-05,0.0,0.00011999999999999999,2
5841,6168,0.00026000000000000003,-7e-05,0.00021,0.00014,-0.00014,-7e-05,0.0,0.00011999999999999999,2
5842,6169,0.00026000000000000003,-7e-05,0.00021,0.00014,-0.00014,-7e-05,0.0,0.00011999999999999999,2
5843,6170,0.00026000000000000003,-7e-05,0.00021,0.00014,-0.00014,-7e-05,0.0,0.00011999999999999999,2
5844,6171,0.00026000000000000003,-7e-05,0.00021,0.00014,-0.00014,-7e-05,0.0,0.00011999999999999999,2
5845,6172,0.00026000000000000003,-7e-05,0.00021,0.00014,-0.00014,-7e-05,0.0,0.00011999999999999999,2
5846,6173,0.00026000000000000003,-7e-05,0.00021,0.00014,-0.00014,-7e-05,0.0,0.00011999999999999999,2
5847,6174,0.00026000000000000003,-7e-05,0.00021,0.00014,-0.00014,-7e-05,0.0,0.00011999999999999999,2
5848,6175,0.00026000000000000003,-7e-05,0.00021,0.00014,-0.00014,-7e-05,0.0,0.00011999999999999999,2
5849,6176,0.00026000000000000003,-7e-05,0.00021,0.00014,-0.00014,-7e-05,0.0,0.00011999999999999999,2
5850,6177,0.00026000000000000003,-7e-05,0.00021,0.00014,-0.00014,-7e-05,0.0,0.00011999999999999999,2
5851,6178,0.00026000000000000003,-7e-05,0.00021,0.00014,-0.00014,-7e-05,0.0,0.00011999999999999999,2
5852,6179,0.00026000000000000003,-7e-05,0.00021,0.00014,-0.00014,-7e-05,0.0,0.00011999999999999999,2
5853,6180,0.00026000000000000003,-7e-05,0.00021,0.00014,-0.00014,-7e-05,0.0,0.00011999999999999999,2
5854,6181,0.00026000000000000003,-7e-05,0.00021,0.00014,-0.00014,-7e-05,0.0,0.00011999999999999999,2
5855,6182,0.0003,-2e-05,-0.00035,-0.00021,-0.00021,-8e-05,0.00014,7e-05,2
5856,6183,-0.00039,-0.00016999999999999999,-5.9999999999999995e-05,1e-05,0.00022,2e-05,-0.00042,-0.00021,2
5857,6184,-5.9999999999999995e-05,0.00011,0.00016999999999999999,0.00037999999999999997,0.00018,1e-05,-0.00015,5e-05,2
5858,6185,-5.9999999999999995e-05,0.00011,0.00016999999999999999,0.00037999999999999997,0.00018,1e-05,-0.00015,5e-05,2
5859,6186,-5.9999999999999995e-05,0.00011,0.00016999999999999999,0.00037999999999999997,0.00018,1e-05,-0.00015,5e-05,2
5860,6188,-5.9999999999999995e-05,0.00011,0.00016999999999999999,0.00037999999999999997,0.00018,1e-05,-0.00015,5e-05,2
5861,6189,-5.9999999999999995e-05,0.00011,0.00016999999999999999,0.00037999999999999997,0.00018,1e-05,-0.00015,5e-05,2
5862,6190,-5.9999999999999995e-05,0.00011,0.00016999999999999999,0.00037999999999999997,0.00018,1e-05,-0.00015,5e-05,2
5863,6191,-5.9999999999999995e-05,0.00011,0.00016999999999999999,0.00037999999999999997,0.00018,1e-05,-0.00015,5e-05,2
5864,6192,-5.9999999999999995e-05,0.00011,0.00016999999999999999,0.00037999999999999997,0.00018,1e-05,-0.00015,5e-05,2
5865,6193,-5.9999999999999995e-05,0.00011,0.00016999999999999999,0.00037999999999999997,0.00018,1e-05,-0.00015,5e-05,2
5866,6194,-5.9999999999999995e-05,0.00011,0.00016999999999999999,0.00037999999999999997,0.00018,1e-05,-0.00015,5e-05,2
5867,6195,-5.9999999999999995e-05,0.00011,0.00016999999999999999,0.00037999999999999997,0.00018,1e-05,-0.00015,5e-05,2
5868,6196,-5.9999999999999995e-05,0.00011,0.00016999999999999999,0.00037999999999999997,0.00018,1e-05,-0.00015,5e-05,2
5869,6197,-5.9999999999999995e-05,0.00011,0.00016999999999999999,0.00037999999999999997,0.00018,1e-05,-0.00015,5e-05,2
5870,6198,-5.9999999999999995e-05,0.00011,0.00016999999999999999,0.00037999999999999997,0.00018,1e-05,-0.00015,5e-05,2
5871,6199,-5.9999999999999995e-05,0.00011,0.00016999999999999999,0.00037999999999999997,0.00018,1e-05,-0.00015,5e-05,2
5872,6200,-5.9999999999999995e-05,0.00011,0.00016999999999999999,0.00037999999999999997,0.00018,1e-05,-0.00015,5e-05,2
5873,6201,-5.9999999999999995e-05,0.00011,0.00016999999999999999,0.00037999999999999997,0.00018,1e-05,-0.00015,5e-05,2
5874,6202,-5.9999999999999995e-05,0.00011,0.00016999999999999999,0.00037999999999999997,0.00018,1e-05,-0.00015,5e-05,2
5875,6203,-5.9999999999999995e-05,0.00011,0.00016999999999999999,0.00037999999999999997,0.00018,1e-05,-0.00015,5e-05,2
5876,6204,-0.00045999999999999996,-0.0005200000000000001,-0.00033,8e-05,1e-05,-0.00011999999999999999,-0.00013000000000000002,-0.00018999999999999998,2
5877,6205,-0.00045999999999999996,-0.0005200000000000001,-0.00033,8e-05,1e-05,-0.00011999999999999999,-0.00013000000000000002,-0.00018999999999999998,2
5878,6206,-0.00016999999999999999,-0.00035,-0.0003,-5.9999999999999995e-05,-0.00014,-0.00023999999999999998,-0.00067,-0.00039,2
5879,6207,-0.00016999999999999999,-0.00035,-0.0003,-5.9999999999999995e-05,-0.00014,-0.00023999999999999998,-0.00067,-0.00039,2
5880,6208,-0.00016999999999999999,-0.00035,-0.0003,-5.9999999999999995e-05,-0.00014,-0.00023999999999999998,-0.00067,-0.00039,2
5881,6209,-0.00016999999999999999,-0.00035,-0.0003,-5.9999999999999995e-05,-0.00014,-0.00023999999999999998,-0.00067,-0.00039,2
5882,6210,-0.00016999999999999999,-0.00035,-0.0003,-5.9999999999999995e-05,-0.00014,-0.00023999999999999998,-0.00067,-0.00039,2
5883,6211,-0.00016999999999999999,-0.00035,-0.0003,-5.9999999999999995e-05,-0.00014,-0.00023999999999999998,-0.00067,-0.00039,2
5884,6212,-0.00016999999999999999,-0.00035,-0.0003,-5.9999999999999995e-05,-0.00014,-0.00023999999999999998,-0.00067,-0.00039,2
5885,6213,-0.00016999999999999999,-0.00035,-0.0003,-5.9999999999999995e-05,-0.00014,-0.00023999999999999998,-0.00067,-0.00039,2
5886,6214,-0.00016999999999999999,-0.00035,-0.0003,-5.9999999999999995e-05,-0.00014,-0.00023999999999999998,-0.00067,-0.00039,2
5887,6215,-0.00016999999999999999,-0.00035,-0.0003,-5.9999999999999995e-05,-0.00014,-0.00023999999999999998,-0.00067,-0.00039,2
5888,6216,-0.00016999999999999999,-0.00035,-0.0003,-5.9999999999999995e-05,-0.00014,-0.00023999999999999998,-0.00067,-0.00039,2
5889,6217,-0.00016999999999999999,-0.00035,-0.0003,-5.9999999999999995e-05,-0.00014,-0.00023999999999999998,-0.00067,-0.00039,2
5890,6218,-0.00016999999999999999,-0.00035,-0.0003,-5.9999999999999995e-05,-0.00014,-0.00023999999999999998,-0.00067,-0.00039,2
5891,6219,0.00041,0.00016999999999999999,-5e-05,-9e-05,-1e-05,4e-05,-0.00027,8e-05,2
5892,6220,0.00041,0.00016999999999999999,-5e-05,-9e-05,-1e-05,4e-05,-0.00027,8e-05,2
5893,6221,0.00041,0.00016999999999999999,-5e-05,-9e-05,-1e-05,4e-05,-0.00027,8e-05,2
5894,6222,0.00041,0.00016999999999999999,-5e-05,-9e-05,-1e-05,4e-05,-0.00027,8e-05,2
5895,6223,0.00041,0.00016999999999999999,-5e-05,-9e-05,-1e-05,4e-05,-0.00027,8e-05,2
5896,6224,0.00041,0.00016999999999999999,-5e-05,-9e-05,-1e-05,4e-05,-0.00027,8e-05,2
5897,6225,0.00041,0.00016999999999999999,-5e-05,-9e-05,-1e-05,4e-05,-0.00027,8e-05,2
5898,6226,-0.00018999999999999998,-0.00028,0.00022999999999999998,0.00016,9e-05,-4e-05,-0.00031,2.9999999999999997e-05,2
5899,6227,-0.00018999999999999998,-0.00028,0.00022999999999999998,0.00016,9e-05,-4e-05,-0.00031,2.9999999999999997e-05,2
5900,6228,-0.00018999999999999998,-0.00028,0.00022999999999999998,0.00016,9e-05,-4e-05,-0.00031,2.9999999999999997e-05,2
5901,6229,-0.00018999999999999998,-0.00028,0.00022999999999999998,0.00016,9e-05,-4e-05,-0.00031,2.9999999999999997e-05,2
5902,6230,-0.00018999999999999998,-0.00028,0.00022999999999999998,0.00016,9e-05,-4e-05,-0.00031,2.9999999999999997e-05,2
5903,6231,-0.00018999999999999998,-0.00028,0.00022999999999999998,0.00016,9e-05,-4e-05,-0.00031,2.9999999999999997e-05,2
5904,6232,-0.00018999999999999998,-0.00028,0.00022999999999999998,0.00016,9e-05,-4e-05,-0.00031,2.9999999999999997e-05,2
5905,6233,-0.00018999999999999998,-0.00028,0.00022999999999999998,0.00016,9e-05,-4e-05,-0.00031,2.9999999999999997e-05,2
5906,6234,-0.00018999999999999998,-0.00028,0.00022999999999999998,0.00016,9e-05,-4e-05,-0.00031,2.9999999999999997e-05,2
5907,6235,-0.00018999999999999998,-0.00028,0.00022999999999999998,0.00016,9e-05,-4e-05,-0.00031,2.9999999999999997e-05,2
5908,6236,-0.00018999999999999998,-0.00028,0.00022999999999999998,0.00016,9e-05,-4e-05,-0.00031,2.9999999999999997e-05,2
5909,6239,-0.00018999999999999998,-0.00028,0.00022999999999999998,0.00016,9e-05,-4e-05,-0.00031,2.9999999999999997e-05,2
5910,6240,-0.00018999999999999998,-0.00028,0.00022999999999999998,0.00016,9e-05,-4e-05,-0.00031,2.9999999999999997e-05,2
5911,6241,-0.00018999999999999998,-0.00028,0.00022999999999999998,0.00016,9e-05,-4e-05,-0.00031,2.9999999999999997e-05,2
5912,6242,0.00027,-0.00031,-7e-05,-0.00016,-0.00026000000000000003,-0.00023999999999999998,0.00032,0.0002,2
5913,6243,0.0003,0.00015,0.00032,0.00016999999999999999,0.00026000000000000003,0.00036,0.00025,0.00036,2
5914,6245,0.0003,0.00015,0.00032,0.00016999999999999999,0.00026000000000000003,0.00036,0.00025,0.00036,2
5915,6246,0.0003,0.00015,0.00032,0.00016999999999999999,0.00026000000000000003,0.00036,0.00025,0.00036,2
5916,6247,0.0003,0.00015,0.00032,0.00016999999999999999,0.00026000000000000003,0.00036,0.00025,0.00036,2
5917,6248,0.0003,0.00015,0.00032,0.00016999999999999999,0.00026000000000000003,0.00036,0.00025,0.00036,2
5918,6249,0.0003,0.00015,0.00032,0.00016999999999999999,0.00026000000000000003,0.00036,0.00025,0.00036,2
5919,6250,0.0003,0.00015,0.00032,0.00016999999999999999,0.00026000000000000003,0.00036,0.00025,0.00036,2
5920,6251,0.0003,0.00015,0.00032,0.00016999999999999999,0.00026000000000000003,0.00036,0.00025,0.00036,2
5921,6252,0.0003,0.00015,0.00032,0.00016999999999999999,0.00026000000000000003,0.00036,0.00025,0.00036,2
5922,6253,0.0003,0.00015,0.00032,0.00016999999999999999,0.00026000000000000003,0.00036,0.00025,0.00036,2
5923,6254,0.0003,0.00015,0.00032,0.00016999999999999999,0.00026000000000000003,0.00036,0.00025,0.00036,2
5924,6255,0.0003,0.00015,0.00032,0.00016999999999999999,0.00026000000000000003,0.00036,0.00025,0.00036,2
5925,6256,0.0003,0.00015,0.00032,0.00016999999999999999,0.00026000000000000003,0.00036,0.00025,0.00036,2
5926,6257,0.0003,0.00015,0.00032,0.00016999999999999999,0.00026000000000000003,0.00036,0.00025,0.00036,2
5927,6258,0.0003,0.00015,0.00032,0.00016999999999999999,0.00026000000000000003,0.00036,0.00025,0.00036,2
5928,6259,0.0003,0.00015,0.00032,0.00016999999999999999,0.00026000000000000003,0.00036,0.00025,0.00036,2
5929,6260,0.0003,0.00015,0.00032,0.00016999999999999999,0.00026000000000000003,0.00036,0.00025,0.00036,2
5930,6261,0.0003,0.00015,0.00032,0.00016999999999999999,0.00026000000000000003,0.00036,0.00025,0.00036,2
5931,6262,0.0003,0.00015,0.00032,0.00016999999999999999,0.00026000000000000003,0.00036,0.00025,0.00036,2
5932,6263,0.0003,0.00015,0.00032,0.00016999999999999999,0.00026000000000000003,0.00036,0.00025,0.00036,2
5933,6264,0.0003,2e-05,0.00026000000000000003,2e-05,0.00011,-0.00011999999999999999,-0.00014,0.00014,2
5934,6265,0.0003,2e-05,0.00026000000000000003,2e-05,0.00011,-0.00011999999999999999,-0.00014,0.00014,2
5935,6266,5e-05,-9e-05,0.0,-0.00011,7e-05,4e-05,-0.00053,-2e-05,2
5936,6267,5e-05,-9e-05,0.0,-0.00011,7e-05,4e-05,-0.00053,-2e-05,2
5937,6268,5e-05,-9e-05,0.0,-0.00011,7e-05,4e-05,-0.00053,-2e-05,2
5938,6269,5e-05,-9e-05,0.0,-0.00011,7e-05,4e-05,-0.00053,-2e-05,2
5939,6270,5e-05,-9e-05,0.0,-0.00011,7e-05,4e-05,-0.00053,-2e-05,2
5940,6271,5e-05,-9e-05,0.0,-0.00011,7e-05,4e-05,-0.00053,-2e-05,2
5941,6272,5e-05,-9e-05,0.0,-0.00011,7e-05,4e-05,-0.00053,-2e-05,2
5942,6273,5e-05,-9e-05,0.0,-0.00011,7e-05,4e-05,-0.00053,-2e-05,2
5943,6274,5e-05,-9e-05,0.0,-0.00011,7e-05,4e-05,-0.00053,-2e-05,2
5944,6275,5e-05,-9e-05,0.0,-0.00011,7e-05,4e-05,-0.00053,-2e-05,2
5945,6276,5e-05,-9e-05,0.0,-0.00011,7e-05,4e-05,-0.00053,-2e-05,2
5946,6277,5e-05,-9e-05,0.0,-0.00011,7e-05,4e-05,-0.00053,-2e-05,2
5947,6278,5e-05,-9e-05,0.0,-0.00011,7e-05,4e-05,-0.00053,-2e-05,2
5948,6279,0.00011999999999999999,0.00021,-9e-05,-0.00016999999999999999,-0.00013000000000000002,-0.00011,-0.00025,0.00014,2
5949,6280,0.00011999999999999999,0.00021,-9e-05,-0.00016999999999999999,-0.00013000000000000002,-0.00011,-0.00025,0.00014,2
5950,6281,0.00011999999999999999,0.00021,-9e-05,-0.00016999999999999999,-0.00013000000000000002,-0.00011,-0.00025,0.00014,2
5951,6282,0.00011999999999999999,0.00021,-9e-05,-0.00016999999999999999,-0.00013000000000000002,-0.00011,-0.00025,0.00014,2
5952,6283,0.00011999999999999999,0.00021,-9e-05,-0.00016999999999999999,-0.00013000000000000002,-0.00011,-0.00025,0.00014,2
5953,6284,0.00011999999999999999,0.00021,-9e-05,-0.00016999999999999999,-0.00013000000000000002,-0.00011,-0.00025,0.00014,2
5954,6285,2e-05,-1e-05,-0.00015,-0.0002,-0.00022,-0.00016,5e-05,4e-05,2
5955,6287,2e-05,-1e-05,-0.00015,-0.0002,-0.00022,-0.00016,5e-05,4e-05,2
5956,6289,2e-05,-1e-05,-0.00015,-0.0002,-0.00022,-0.00016,5e-05,4e-05,2
5957,6290,2e-05,-1e-05,-0.00015,-0.0002,-0.00022,-0.00016,5e-05,4e-05,2
5958,6291,2e-05,-1e-05,-0.00015,-0.0002,-0.00022,-0.00016,5e-05,4e-05,2
5959,6293,2e-05,-1e-05,-0.00015,-0.0002,-0.00022,-0.00016,5e-05,4e-05,2
5960,6294,2e-05,-1e-05,-0.00015,-0.0002,-0.00022,-0.00016,5e-05,4e-05,2
5961,6295,2e-05,-1e-05,-0.00015,-0.0002,-0.00022,-0.00016,5e-05,4e-05,2
5962,6296,2e-05,-1e-05,-0.00015,-0.0002,-0.00022,-0.00016,5e-05,4e-05,2
5963,6297,2e-05,-1e-05,-0.00015,-0.0002,-0.00022,-0.00016,5e-05,4e-05,2
5964,6298,2e-05,-1e-05,-0.00015,-0.0002,-0.00022,-0.00016,5e-05,4e-05,2
5965,6299,2e-05,-1e-05,-0.00015,-0.0002,-0.00022,-0.00016,5e-05,4e-05,2
5966,6300,2e-05,-1e-05,-0.00015,-0.0002,-0.00022,-0.00016,5e-05,4e-05,2
5967,6301,2e-05,-1e-05,-0.00015,-0.0002,-0.00022,-0.00016,5e-05,4e-05,2
5968,6302,0.0002,2.9999999999999997e-05,-7e-05,-0.00016,-2e-05,0.0002,0.0008,5.9999999999999995e-05,2
5969,6303,-0.00036,-0.00016,-0.00022,-0.00018999999999999998,-5e-05,0.00011999999999999999,-0.00016,-0.00016,2
5970,6304,-0.00033,-0.00026000000000000003,-0.00021,-5.9999999999999995e-05,-0.00018,-0.00037,-1e-05,-5e-05,2
5971,6305,-0.00033,-0.00026000000000000003,-0.00021,-5.9999999999999995e-05,-0.00018,-0.00037,-1e-05,-5e-05,2
5972,6306,-0.00033,-0.00026000000000000003,-0.00021,-5.9999999999999995e-05,-0.00018,-0.00037,-1e-05,-5e-05,2
5973,6307,-0.00033,-0.00026000000000000003,-0.00021,-5.9999999999999995e-05,-0.00018,-0.00037,-1e-05,-5e-05,2
5974,6308,-0.00033,-0.00026000000000000003,-0.00021,-5.9999999999999995e-05,-0.00018,-0.00037,-1e-05,-5e-05,2
5975,6309,-0.00033,-0.00026000000000000003,-0.00021,-5.9999999999999995e-05,-0.00018,-0.00037,-1e-05,-5e-05,2
5976,6311,-0.00033,-0.00026000000000000003,-0.00021,-5.9999999999999995e-05,-0.00018,-0.00037,-1e-05,-5e-05,2
5977,6312,-0.00033,-0.00026000000000000003,-0.00021,-5.9999999999999995e-05,-0.00018,-0.00037,-1e-05,-5e-05,2
5978,6313,-0.00033,-0.00026000000000000003,-0.00021,-5.9999999999999995e-05,-0.00018,-0.00037,-1e-05,-5e-05,2
5979,6314,-0.00033,-0.00026000000000000003,-0.00021,-5.9999999999999995e-05,-0.00018,-0.00037,-1e-05,-5e-05,2
5980,6315,-0.00033,-0.00026000000000000003,-0.00021,-5.9999999999999995e-05,-0.00018,-0.00037,-1e-05,-5e-05,2
5981,6316,-0.00033,-0.00026000000000000003,-0.00021,-5.9999999999999995e-05,-0.00018,-0.00037,-1e-05,-5e-05,2
5982,6317,-0.00033,-0.00026000000000000003,-0.00021,-5.9999999999999995e-05,-0.00018,-0.00037,-1e-05,-5e-05,2
5983,6318,-0.00033,-0.00026000000000000003,-0.00021,-5.9999999999999995e-05,-0.00018,-0.00037,-1e-05,-5e-05,2
5984,6319,-0.00033,-0.00026000000000000003,-0.00021,-5.9999999999999995e-05,-0.00018,-0.00037,-1e-05,-5e-05,2
5985,6320,-0.00033,-0.00026000000000000003,-0.00021,-5.9999999999999995e-05,-0.00018,-0.00037,-1e-05,-5e-05,2
5986,6321,-0.00033,-0.00026000000000000003,-0.00021,-5.9999999999999995e-05,-0.00018,-0.00037,-1e-05,-5e-05,2
5987,6322,-0.00033,-0.00026000000000000003,-0.00021,-5.9999999999999995e-05,-0.00018,-0.00037,-1e-05,-5e-05,2
5988,6323,-0.00033,-0.00026000000000000003,-0.00021,-5.9999999999999995e-05,-0.00018,-0.00037,-1e-05,-5e-05,2
5989,6324,-0.00059,-0.00039,0.00011,0.00032,-5e-05,5e-05,0.00079,8e-05,2
5990,6325,-0.00059,-0.00039,0.00011,0.00032,-5e-05,5e-05,0.00079,8e-05,2
5991,6326,-0.00059,-0.00039,0.00011,0.00032,-5e-05,5e-05,0.00079,8e-05,2
5992,6327,-0.00023999999999999998,-1e-05,-0.0001,-0.00029,2.9999999999999997e-05,9e-05,-0.00014,-9e-05,2
5993,6328,-0.00023999999999999998,-1e-05,-0.0001,-0.00029,2.9999999999999997e-05,9e-05,-0.00014,-9e-05,2
5994,6329,-0.00023999999999999998,-1e-05,-0.0001,-0.00029,2.9999999999999997e-05,9e-05,-0.00014,-9e-05,2
5995,6330,-0.00023999999999999998,-1e-05,-0.0001,-0.00029,2.9999999999999997e-05,9e-05,-0.00014,-9e-05,2
5996,6331,-0.00023999999999999998,-1e-05,-0.0001,-0.00029,2.9999999999999997e-05,9e-05,-0.00014,-9e-05,2
5997,6332,-0.00023999999999999998,-1e-05,-0.0001,-0.00029,2.9999999999999997e-05,9e-05,-0.00014,-9e-05,2
5998,6333,-0.00023999999999999998,-1e-05,-0.0001,-0.00029,2.9999999999999997e-05,9e-05,-0.00014,-9e-05,2
5999,6334,-0.00023999999999999998,-1e-05,-0.0001,-0.00029,2.9999999999999997e-05,9e-05,-0.00014,-9e-05,2
6000,6335,-0.00023999999999999998,-1e-05,-0.0001,-0.00029,2.9999999999999997e-05,9e-05,-0.00014,-9e-05,2
6001,6336,-0.00023999999999999998,-1e-05,-0.0001,-0.00029,2.9999999999999997e-05,9e-05,-0.00014,-9e-05,2
6002,6339,-0.00043,-9e-05,-0.00021,-0.00025,-0.00022999999999999998,-0.00018999999999999998,-0.0005,-0.00036,2
6003,6340,-0.00043,-9e-05,-0.00021,-0.00025,-0.00022999999999999998,-0.00018999999999999998,-0.0005,-0.00036,2
6004,6341,-0.00043,-9e-05,-0.00021,-0.00025,-0.00022999999999999998,-0.00018999999999999998,-0.0005,-0.00036,2
6005,6342,-0.00043,-9e-05,-0.00021,-0.00025,-0.00022999999999999998,-0.00018999999999999998,-0.0005,-0.00036,2
6006,6343,-0.00043,-9e-05,-0.00021,-0.00025,-0.00022999999999999998,-0.00018999999999999998,-0.0005,-0.00036,2
6007,6344,-0.00043,-9e-05,-0.00021,-0.00025,-0.00022999999999999998,-0.00018999999999999998,-0.0005,-0.00036,2
6008,6345,-0.00043,-9e-05,-0.00021,-0.00025,-0.00022999999999999998,-0.00018999999999999998,-0.0005,-0.00036,2
6009,6346,-0.00043,-9e-05,-0.00021,-0.00025,-0.00022999999999999998,-0.00018999999999999998,-0.0005,-0.00036,2
6010,6347,-0.00043,-9e-05,-0.00021,-0.00025,-0.00022999999999999998,-0.00018999999999999998,-0.0005,-0.00036,2
6011,6348,-0.00043,-9e-05,-0.00021,-0.00025,-0.00022999999999999998,-0.00018999999999999998,-0.0005,-0.00036,2
6012,6349,-0.00043,-9e-05,-0.00021,-0.00025,-0.00022999999999999998,-0.00018999999999999998,-0.0005,-0.00036,2
6013,6351,-0.00043,-9e-05,-0.00021,-0.00025,-0.00022999999999999998,-0.00018999999999999998,-0.0005,-0.00036,2
6014,6352,-0.00043,-9e-05,-0.00021,-0.00025,-0.00022999999999999998,-0.00018999999999999998,-0.0005,-0.00036,2
6015,6353,0.00033,-1e-05,-0.00027,-0.00026000000000000003,-4e-05,0.00022999999999999998,0.001,0.00037,2
6016,6354,0.00033,-1e-05,-0.00027,-0.00026000000000000003,-4e-05,0.00022999999999999998,0.001,0.00037,2
6017,6355,0.00033,-1e-05,-0.00027,-0.00026000000000000003,-4e-05,0.00022999999999999998,0.001,0.00037,2
6018,6356,0.00033,-1e-05,-0.00027,-0.00026000000000000003,-4e-05,0.00022999999999999998,0.001,0.00037,2
6019,6357,0.00033,-1e-05,-0.00027,-0.00026000000000000003,-4e-05,0.00022999999999999998,0.001,0.00037,2
6020,6358,0.00033,-1e-05,-0.00027,-0.00026000000000000003,-4e-05,0.00022999999999999998,0.001,0.00037,2
6021,6359,0.00033,-1e-05,-0.00027,-0.00026000000000000003,-4e-05,0.00022999999999999998,0.001,0.00037,2
6022,6360,0.00033,-1e-05,-0.00027,-0.00026000000000000003,-4e-05,0.00022999999999999998,0.001,0.00037,2
6023,6361,0.00033,-1e-05,-0.00027,-0.00026000000000000003,-4e-05,0.00022999999999999998,0.001,0.00037,2
6024,6362,0.00021,0.00041,0.00016,7e-05,0.0001,-0.00013000000000000002,-0.00115,-9e-05,2
6025,6363,0.00025,0.0002,-4e-05,-5.9999999999999995e-05,1e-05,-0.00031,-0.00059,-0.00033,2
6026,6364,0.00025,0.0002,-4e-05,-5.9999999999999995e-05,1e-05,-0.00031,-0.00059,-0.00033,2
6027,6365,0.00025,0.0002,-4e-05,-5.9999999999999995e-05,1e-05,-0.00031,-0.00059,-0.00033,2
6028,6366,0.00025,0.0002,-4e-05,-5.9999999999999995e-05,1e-05,-0.00031,-0.00059,-0.00033,2
6029,6367,0.00025,0.0002,-4e-05,-5.9999999999999995e-05,1e-05,-0.00031,-0.00059,-0.00033,2
6030,6368,0.00025,0.0002,-4e-05,-5.9999999999999995e-05,1e-05,-0.00031,-0.00059,-0.00033,2
6031,6369,0.00025,0.0002,-4e-05,-5.9999999999999995e-05,1e-05,-0.00031,-0.00059,-0.00033,2
6032,6370,0.00025,0.0002,-4e-05,-5.9999999999999995e-05,1e-05,-0.00031,-0.00059,-0.00033,2
6033,6371,0.00025,0.0002,-4e-05,-5.9999999999999995e-05,1e-05,-0.00031,-0.00059,-0.00033,2
6034,6372,0.00025,0.0002,-4e-05,-5.9999999999999995e-05,1e-05,-0.00031,-0.00059,-0.00033,2
6035,6373,0.00025,0.0002,-4e-05,-5.9999999999999995e-05,1e-05,-0.00031,-0.00059,-0.00033,2
6036,6374,0.00025,0.0002,-4e-05,-5.9999999999999995e-05,1e-05,-0.00031,-0.00059,-0.00033,2
6037,6375,0.00025,0.0002,-4e-05,-5.9999999999999995e-05,1e-05,-0.00031,-0.00059,-0.00033,2
6038,6376,0.00025,0.0002,-4e-05,-5.9999999999999995e-05,1e-05,-0.00031,-0.00059,-0.00033,2
6039,6377,0.00025,0.0002,-4e-05,-5.9999999999999995e-05,1e-05,-0.00031,-0.00059,-0.00033,2
6040,6378,0.00025,0.0002,-4e-05,-5.9999999999999995e-05,1e-05,-0.00031,-0.00059,-0.00033,2
6041,6379,0.00025,0.0002,-4e-05,-5.9999999999999995e-05,1e-05,-0.00031,-0.00059,-0.00033,2
6042,6380,0.00025,0.0002,-4e-05,-5.9999999999999995e-05,1e-05,-0.00031,-0.00059,-0.00033,2
6043,6381,0.00025,0.0002,-4e-05,-5.9999999999999995e-05,1e-05,-0.00031,-0.00059,-0.00033,2
6044,6382,0.00025,0.0002,-4e-05,-5.9999999999999995e-05,1e-05,-0.00031,-0.00059,-0.00033,2
6045,6383,0.00025,0.0002,-4e-05,-5.9999999999999995e-05,1e-05,-0.00031,-0.00059,-0.00033,2
6046,6384,0.00025,0.0002,-4e-05,-5.9999999999999995e-05,1e-05,-0.00031,-0.00059,-0.00033,2
6047,6385,0.00011,-2.9999999999999997e-05,0.00013000000000000002,5e-05,7e-05,0.00031,0.00014,0.0001,2
6048,6386,0.00014,0.00018999999999999998,-2.9999999999999997e-05,-0.00011,-0.0001,-5.9999999999999995e-05,-0.00028,0.00011,2
6049,6388,-7e-05,0.00011,0.00028,0.00016999999999999999,4e-05,-0.0002,0.00022,-2.9999999999999997e-05,2
6050,6390,-7e-05,0.00011,0.00028,0.00016999999999999999,4e-05,-0.0002,0.00022,-2.9999999999999997e-05,2
6051,6391,-7e-05,0.00011,0.00028,0.00016999999999999999,4e-05,-0.0002,0.00022,-2.9999999999999997e-05,2
6052,6392,-7e-05,0.00011,0.00028,0.00016999999999999999,4e-05,-0.0002,0.00022,-2.9999999999999997e-05,2
6053,6393,-7e-05,0.00011,0.00028,0.00016999999999999999,4e-05,-0.0002,0.00022,-2.9999999999999997e-05,2
6054,6394,-7e-05,0.00011,0.00028,0.00016999999999999999,4e-05,-0.0002,0.00022,-2.9999999999999997e-05,2
6055,6395,-7e-05,0.00011,0.00028,0.00016999999999999999,4e-05,-0.0002,0.00022,-2.9999999999999997e-05,2
6056,6396,-7e-05,0.00011,0.00028,0.00016999999999999999,4e-05,-0.0002,0.00022,-2.9999999999999997e-05,2
6057,6397,-7e-05,0.00011,0.00028,0.00016999999999999999,4e-05,-0.0002,0.00022,-2.9999999999999997e-05,2
6058,6398,-0.00013000000000000002,-0.00013000000000000002,-0.00011999999999999999,2.9999999999999997e-05,5e-05,-0.00045,-0.00049,-9e-05,2
6059,6399,-0.00013000000000000002,-0.00013000000000000002,-0.00011999999999999999,2.9999999999999997e-05,5e-05,-0.00045,-0.00049,-9e-05,2
6060,6400,-0.00013000000000000002,-0.00013000000000000002,-0.00011999999999999999,2.9999999999999997e-05,5e-05,-0.00045,-0.00049,-9e-05,2
6061,6401,-0.00013000000000000002,-0.00013000000000000002,-0.00011999999999999999,2.9999999999999997e-05,5e-05,-0.00045,-0.00049,-9e-05,2
6062,6402,-0.00013000000000000002,-0.00013000000000000002,-0.00011999999999999999,2.9999999999999997e-05,5e-05,-0.00045,-0.00049,-9e-05,2
6063,6403,-0.00013000000000000002,-0.00013000000000000002,-0.00011999999999999999,2.9999999999999997e-05,5e-05,-0.00045,-0.00049,-9e-05,2
6064,6404,-0.00013000000000000002,-0.00013000000000000002,-0.00011999999999999999,2.9999999999999997e-05,5e-05,-0.00045,-0.00049,-9e-05,2
6065,6405,-0.00013000000000000002,-0.00013000000000000002,-0.00011999999999999999,2.9999999999999997e-05,5e-05,-0.00045,-0.00049,-9e-05,2
6066,6406,-0.00013000000000000002,-0.00013000000000000002,-0.00011999999999999999,2.9999999999999997e-05,5e-05,-0.00045,-0.00049,-9e-05,2
6067,6407,-0.00013000000000000002,-0.00013000000000000002,-0.00011999999999999999,2.9999999999999997e-05,5e-05,-0.00045,-0.00049,-9e-05,2
6068,6408,-0.00013000000000000002,-0.00013000000000000002,-0.00011999999999999999,2.9999999999999997e-05,5e-05,-0.00045,-0.00049,-9e-05,2
6069,6409,-0.00013000000000000002,-0.00013000000000000002,-0.00011999999999999999,2.9999999999999997e-05,5e-05,-0.00045,-0.00049,-9e-05,2
6070,6410,-0.00013000000000000002,-0.00013000000000000002,-0.00011999999999999999,2.9999999999999997e-05,5e-05,-0.00045,-0.00049,-9e-05,2
6071,6411,-0.00013000000000000002,-0.00013000000000000002,-0.00011999999999999999,2.9999999999999997e-05,5e-05,-0.00045,-0.00049,-9e-05,2
6072,6412,-0.00013000000000000002,-0.00013000000000000002,-0.00011999999999999999,2.9999999999999997e-05,5e-05,-0.00045,-0.00049,-9e-05,2
6073,6413,-0.00013000000000000002,-0.00013000000000000002,-0.00011999999999999999,2.9999999999999997e-05,5e-05,-0.00045,-0.00049,-9e-05,2
6074,6414,4e-05,9e-05,1e-05,-0.00022999999999999998,0.00014,0.00028,0.00021,0.0001,2
6075,6415,1e-05,0.00029,5.9999999999999995e-05,5.9999999999999995e-05,5e-05,2e-05,5e-05,-0.00011999999999999999,2
6076,6416,1e-05,0.00029,5.9999999999999995e-05,5.9999999999999995e-05,5e-05,2e-05,5e-05,-0.00011999999999999999,2
6077,6417,1e-05,0.00029,5.9999999999999995e-05,5.9999999999999995e-05,5e-05,2e-05,5e-05,-0.00011999999999999999,2
6078,6418,1e-05,0.00029,5.9999999999999995e-05,5.9999999999999995e-05,5e-05,2e-05,5e-05,-0.00011999999999999999,2
6079,6419,1e-05,0.00029,5.9999999999999995e-05,5.9999999999999995e-05,5e-05,2e-05,5e-05,-0.00011999999999999999,2
6080,6420,1e-05,0.00029,5.9999999999999995e-05,5.9999999999999995e-05,5e-05,2e-05,5e-05,-0.00011999999999999999,2
6081,6421,1e-05,0.00029,5.9999999999999995e-05,5.9999999999999995e-05,5e-05,2e-05,5e-05,-0.00011999999999999999,2
6082,6422,0.00011999999999999999,0.00018999999999999998,-0.00011999999999999999,-5e-05,-1e-05,-0.00023999999999999998,-0.00016999999999999999,-5.9999999999999995e-05,2
6083,6423,7e-05,-7e-05,-0.00018,-0.00026000000000000003,-2e-05,-0.00016,5e-05,-0.00023999999999999998,2
6084,6424,7e-05,-7e-05,-0.00018,-0.00026000000000000003,-2e-05,-0.00016,5e-05,-0.00023999999999999998,2
6085,6425,7e-05,-7e-05,-0.00018,-0.00026000000000000003,-2e-05,-0.00016,5e-05,-0.00023999999999999998,2
6086,6426,7e-05,-7e-05,-0.00018,-0.00026000000000000003,-2e-05,-0.00016,5e-05,-0.00023999999999999998,2
6087,6427,7e-05,-7e-05,-0.00018,-0.00026000000000000003,-2e-05,-0.00016,5e-05,-0.00023999999999999998,2
6088,6428,7e-05,-7e-05,-0.00018,-0.00026000000000000003,-2e-05,-0.00016,5e-05,-0.00023999999999999998,2
6089,6429,7e-05,-7e-05,-0.00018,-0.00026000000000000003,-2e-05,-0.00016,5e-05,-0.00023999999999999998,2
6090,6430,7e-05,-7e-05,-0.00018,-0.00026000000000000003,-2e-05,-0.00016,5e-05,-0.00023999999999999998,2
6091,6431,7e-05,-7e-05,-0.00018,-0.00026000000000000003,-2e-05,-0.00016,5e-05,-0.00023999999999999998,2
6092,6432,7e-05,-7e-05,-0.00018,-0.00026000000000000003,-2e-05,-0.00016,5e-05,-0.00023999999999999998,2
6093,6433,7e-05,-7e-05,-0.00018,-0.00026000000000000003,-2e-05,-0.00016,5e-05,-0.00023999999999999998,2
6094,6434,7e-05,-7e-05,-0.00018,-0.00026000000000000003,-2e-05,-0.00016,5e-05,-0.00023999999999999998,2
6095,6435,7e-05,-7e-05,-0.00018,-0.00026000000000000003,-2e-05,-0.00016,5e-05,-0.00023999999999999998,2
6096,6436,7e-05,-7e-05,-0.00018,-0.00026000000000000003,-2e-05,-0.00016,5e-05,-0.00023999999999999998,2
6097,6439,7e-05,-7e-05,-0.00018,-0.00026000000000000003,-2e-05,-0.00016,5e-05,-0.00023999999999999998,2
6098,6440,7e-05,-7e-05,-0.00018,-0.00026000000000000003,-2e-05,-0.00016,5e-05,-0.00023999999999999998,2
6099,6441,7e-05,-7e-05,-0.00018,-0.00026000000000000003,-2e-05,-0.00016,5e-05,-0.00023999999999999998,2
6100,6442,7e-05,-7e-05,-0.00018,-0.00026000000000000003,-2e-05,-0.00016,5e-05,-0.00023999999999999998,2
6101,6443,7e-05,-7e-05,-0.00018,-0.00026000000000000003,-2e-05,-0.00016,5e-05,-0.00023999999999999998,2
6102,6444,-7e-05,-0.00045999999999999996,-0.00011999999999999999,-9e-05,-0.00023999999999999998,-0.00021,-0.0003,-0.00011999999999999999,2
6103,6445,-7e-05,-0.00045999999999999996,-0.00011999999999999999,-9e-05,-0.00023999999999999998,-0.00021,-0.0003,-0.00011999999999999999,2
6104,6446,0.00031,0.00018,-8e-05,-8e-05,-0.00011,0.0,1e-05,0.00015,2
6105,6447,0.00031,0.00018,-8e-05,-8e-05,-0.00011,0.0,1e-05,0.00015,2
6106,6448,0.00031,0.00018,-8e-05,-8e-05,-0.00011,0.0,1e-05,0.00015,2
6107,6449,0.00031,0.00018,-8e-05,-8e-05,-0.00011,0.0,1e-05,0.00015,2
6108,6450,0.00031,0.00018,-8e-05,-8e-05,-0.00011,0.0,1e-05,0.00015,2
6109,6451,0.00031,0.00018,-8e-05,-8e-05,-0.00011,0.0,1e-05,0.00015,2
6110,6452,0.00031,0.00018,-8e-05,-8e-05,-0.00011,0.0,1e-05,0.00015,2
6111,6453,0.00031,0.00018,-8e-05,-8e-05,-0.00011,0.0,1e-05,0.00015,2
6112,6454,0.00031,0.00018,-8e-05,-8e-05,-0.00011,0.0,1e-05,0.00015,2
6113,6455,0.00031,0.00018,-8e-05,-8e-05,-0.00011,0.0,1e-05,0.00015,2
6114,6456,0.00031,0.00018,-8e-05,-8e-05,-0.00011,0.0,1e-05,0.00015,2
6115,6457,0.00031,0.00018,-8e-05,-8e-05,-0.00011,0.0,1e-05,0.00015,2
6116,6458,-1e-05,0.00022,0.00035,9e-05,8e-05,0.00018999999999999998,0.00057,5e-05,2
6117,6459,-1e-05,0.00022,0.00035,9e-05,8e-05,0.00018999999999999998,0.00057,5e-05,2
6118,6460,-1e-05,0.00022,0.00035,9e-05,8e-05,0.00018999999999999998,0.00057,5e-05,2
6119,6461,-1e-05,0.00022,0.00035,9e-05,8e-05,0.00018999999999999998,0.00057,5e-05,2
6120,6462,-1e-05,0.00022,0.00035,9e-05,8e-05,0.00018999999999999998,0.00057,5e-05,2
6121,6463,-1e-05,0.00022,0.00035,9e-05,8e-05,0.00018999999999999998,0.00057,5e-05,2
6122,6464,-1e-05,0.00022,0.00035,9e-05,8e-05,0.00018999999999999998,0.00057,5e-05,2
6123,6465,-1e-05,0.00022,0.00035,9e-05,8e-05,0.00018999999999999998,0.00057,5e-05,2
6124,6466,-1e-05,0.00022,0.00035,9e-05,8e-05,0.00018999999999999998,0.00057,5e-05,2
6125,6467,-7e-05,-4e-05,4e-05,-5e-05,0.00029,-0.00015,0.0001,8e-05,2
6126,6468,-7e-05,-4e-05,4e-05,-5e-05,0.00029,-0.00015,0.0001,8e-05,2
6127,6469,-7e-05,-4e-05,4e-05,-5e-05,0.00029,-0.00015,0.0001,8e-05,2
6128,6470,-7e-05,-4e-05,4e-05,-5e-05,0.00029,-0.00015,0.0001,8e-05,2
6129,6471,-7e-05,-4e-05,4e-05,-5e-05,0.00029,-0.00015,0.0001,8e-05,2
6130,6472,-7e-05,-4e-05,4e-05,-5e-05,0.00029,-0.00015,0.0001,8e-05,2
6131,6473,-7e-05,-4e-05,4e-05,-5e-05,0.00029,-0.00015,0.0001,8e-05,2
6132,6474,-7e-05,-4e-05,4e-05,-5e-05,0.00029,-0.00015,0.0001,8e-05,2
6133,6475,-7e-05,-4e-05,4e-05,-5e-05,0.00029,-0.00015,0.0001,8e-05,2
6134,6476,-7e-05,-4e-05,4e-05,-5e-05,0.00029,-0.00015,0.0001,8e-05,2
6135,6477,-7e-05,-4e-05,4e-05,-5e-05,0.00029,-0.00015,0.0001,8e-05,2
6136,6478,-7e-05,-4e-05,4e-05,-5e-05,0.00029,-0.00015,0.0001,8e-05,2
6137,6479,-7e-05,-4e-05,4e-05,-5e-05,0.00029,-0.00015,0.0001,8e-05,2
6138,6480,-7e-05,-4e-05,4e-05,-5e-05,0.00029,-0.00015,0.0001,8e-05,2
6139,6481,-7e-05,-4e-05,4e-05,-5e-05,0.00029,-0.00015,0.0001,8e-05,2
6140,6482,0.00028,0.00021,0.0002,0.00011999999999999999,-5e-05,0.00014,0.0004,4e-05,2
6141,6483,-0.00041,4e-05,0.00022,0.00027,-0.0001,0.00018999999999999998,-0.00025,-8e-05,2
6142,6484,-0.00041,4e-05,0.00022,0.00027,-0.0001,0.00018999999999999998,-0.00025,-8e-05,2
6143,6485,-0.00041,4e-05,0.00022,0.00027,-0.0001,0.00018999999999999998,-0.00025,-8e-05,2
6144,6486,-0.00041,4e-05,0.00022,0.00027,-0.0001,0.00018999999999999998,-0.00025,-8e-05,2
6145,6488,-0.00041,4e-05,0.00022,0.00027,-0.0001,0.00018999999999999998,-0.00025,-8e-05,2
6146,6489,-0.00041,4e-05,0.00022,0.00027,-0.0001,0.00018999999999999998,-0.00025,-8e-05,2
6147,6490,-0.00041,4e-05,0.00022,0.00027,-0.0001,0.00018999999999999998,-0.00025,-8e-05,2
6148,6491,-0.00041,4e-05,0.00022,0.00027,-0.0001,0.00018999999999999998,-0.00025,-8e-05,2
6149,6492,-0.00041,4e-05,0.00022,0.00027,-0.0001,0.00018999999999999998,-0.00025,-8e-05,2
6150,6493,-0.00041,4e-05,0.00022,0.00027,-0.0001,0.00018999999999999998,-0.00025,-8e-05,2
6151,6494,-0.00041,4e-05,0.00022,0.00027,-0.0001,0.00018999999999999998,-0.00025,-8e-05,2
6152,6495,-0.00041,4e-05,0.00022,0.00027,-0.0001,0.00018999999999999998,-0.00025,-8e-05,2
6153,6496,-0.00041,4e-05,0.00022,0.00027,-0.0001,0.00018999999999999998,-0.00025,-8e-05,2
6154,6497,-0.00041,4e-05,0.00022,0.00027,-0.0001,0.00018999999999999998,-0.00025,-8e-05,2
6155,6498,-0.00041,4e-05,0.00022,0.00027,-0.0001,0.00018999999999999998,-0.00025,-8e-05,2
6156,6499,-0.00041,4e-05,0.00022,0.00027,-0.0001,0.00018999999999999998,-0.00025,-8e-05,2
6157,6500,-0.00041,4e-05,0.00022,0.00027,-0.0001,0.00018999999999999998,-0.00025,-8e-05,2
6158,6501,-0.00041,4e-05,0.00022,0.00027,-0.0001,0.00018999999999999998,-0.00025,-8e-05,2
6159,6502,-0.00041,4e-05,0.00022,0.00027,-0.0001,0.00018999999999999998,-0.00025,-8e-05,2
6160,6503,-0.00041,4e-05,0.00022,0.00027,-0.0001,0.00018999999999999998,-0.00025,-8e-05,2
6161,6504,-8e-05,0.00022,-4e-05,0.00016,7e-05,-0.00021,-0.00015,0.00025,2
6162,6505,-8e-05,0.00022,-4e-05,0.00016,7e-05,-0.00021,-0.00015,0.00025,2
6163,6506,0.00033999999999999997,-0.00033999999999999997,-0.00031,-0.00021,-5.9999999999999995e-05,-7e-05,-0.00014,0.00011999999999999999,2
6164,6507,0.00033999999999999997,-0.00033999999999999997,-0.00031,-0.00021,-5.9999999999999995e-05,-7e-05,-0.00014,0.00011999999999999999,2
6165,6508,0.00033999999999999997,-0.00033999999999999997,-0.00031,-0.00021,-5.9999999999999995e-05,-7e-05,-0.00014,0.00011999999999999999,2
6166,6509,0.00033999999999999997,-0.00033999999999999997,-0.00031,-0.00021,-5.9999999999999995e-05,-7e-05,-0.00014,0.00011999999999999999,2
6167,6510,0.00033999999999999997,-0.00033999999999999997,-0.00031,-0.00021,-5.9999999999999995e-05,-7e-05,-0.00014,0.00011999999999999999,2
6168,6511,0.00033999999999999997,-0.00033999999999999997,-0.00031,-0.00021,-5.9999999999999995e-05,-7e-05,-0.00014,0.00011999999999999999,2
6169,6512,0.00033999999999999997,-0.00033999999999999997,-0.00031,-0.00021,-5.9999999999999995e-05,-7e-05,-0.00014,0.00011999999999999999,2
6170,6513,0.00033999999999999997,-0.00033999999999999997,-0.00031,-0.00021,-5.9999999999999995e-05,-7e-05,-0.00014,0.00011999999999999999,2
6171,6514,0.00033999999999999997,-0.00033999999999999997,-0.00031,-0.00021,-5.9999999999999995e-05,-7e-05,-0.00014,0.00011999999999999999,2
6172,6515,0.00033999999999999997,-0.00033999999999999997,-0.00031,-0.00021,-5.9999999999999995e-05,-7e-05,-0.00014,0.00011999999999999999,2
6173,6516,0.00033999999999999997,-0.00033999999999999997,-0.00031,-0.00021,-5.9999999999999995e-05,-7e-05,-0.00014,0.00011999999999999999,2
6174,6517,0.00033999999999999997,-0.00033999999999999997,-0.00031,-0.00021,-5.9999999999999995e-05,-7e-05,-0.00014,0.00011999999999999999,2
6175,6518,-0.00011999999999999999,-0.00031,-7e-05,-7e-05,-2e-05,0.00014,-0.00021,-7e-05,2
6176,6519,-0.00011999999999999999,-0.00031,-7e-05,-7e-05,-2e-05,0.00014,-0.00021,-7e-05,2
6177,6520,-0.00011999999999999999,-0.00031,-7e-05,-7e-05,-2e-05,0.00014,-0.00021,-7e-05,2
6178,6521,-0.00011999999999999999,-0.00031,-7e-05,-7e-05,-2e-05,0.00014,-0.00021,-7e-05,2
6179,6522,-0.00011999999999999999,-0.00031,-7e-05,-7e-05,-2e-05,0.00014,-0.00021,-7e-05,2
6180,6523,-0.00011999999999999999,-0.00031,-7e-05,-7e-05,-2e-05,0.00014,-0.00021,-7e-05,2
6181,6524,-0.00011999999999999999,-0.00031,-7e-05,-7e-05,-2e-05,0.00014,-0.00021,-7e-05,2
6182,6525,-0.00011999999999999999,-0.00031,-7e-05,-7e-05,-2e-05,0.00014,-0.00021,-7e-05,2
6183,6526,-0.00011999999999999999,-0.00031,-7e-05,-7e-05,-2e-05,0.00014,-0.00021,-7e-05,2
6184,6527,-0.00016,0.00015,0.0001,7e-05,1e-05,0.00028,-0.00026000000000000003,0.00018999999999999998,2
6185,6528,-0.00016,0.00015,0.0001,7e-05,1e-05,0.00028,-0.00026000000000000003,0.00018999999999999998,2
6186,6529,-0.00016,0.00015,0.0001,7e-05,1e-05,0.00028,-0.00026000000000000003,0.00018999999999999998,2
6187,6531,-0.00016,0.00015,0.0001,7e-05,1e-05,0.00028,-0.00026000000000000003,0.00018999999999999998,2
6188,6532,-0.00016,0.00015,0.0001,7e-05,1e-05,0.00028,-0.00026000000000000003,0.00018999999999999998,2
6189,6533,-0.00016,0.00015,0.0001,7e-05,1e-05,0.00028,-0.00026000000000000003,0.00018999999999999998,2
6190,6534,-0.00016,0.00015,0.0001,7e-05,1e-05,0.00028,-0.00026000000000000003,0.00018999999999999998,2
6191,6535,-0.00016,0.00015,0.0001,7e-05,1e-05,0.00028,-0.00026000000000000003,0.00018999999999999998,2
6192,6536,-0.00016,0.00015,0.0001,7e-05,1e-05,0.00028,-0.00026000000000000003,0.00018999999999999998,2
6193,6539,-0.00016,0.00015,0.0001,7e-05,1e-05,0.00028,-0.00026000000000000003,0.00018999999999999998,2
6194,6540,-0.00016,0.00015,0.0001,7e-05,1e-05,0.00028,-0.00026000000000000003,0.00018999999999999998,2
6195,6541,-0.00016,0.00015,0.0001,7e-05,1e-05,0.00028,-0.00026000000000000003,0.00018999999999999998,2
6196,6543,0.00029,2e-05,-0.00016,0.0,0.00078,0.00026000000000000003,-0.00022,0.0,2
6197,6544,-0.00011,-0.00025,-0.00029,-0.00043,-0.00043,-0.00021,-0.0002,-2e-05,2
6198,6545,-0.00011,-0.00025,-0.00029,-0.00043,-0.00043,-0.00021,-0.0002,-2e-05,2
6199,6546,-0.00011,-0.00025,-0.00029,-0.00043,-0.00043,-0.00021,-0.0002,-2e-05,2
6200,6547,-0.00011,-0.00025,-0.00029,-0.00043,-0.00043,-0.00021,-0.0002,-2e-05,2
6201,6548,-0.00011,-0.00025,-0.00029,-0.00043,-0.00043,-0.00021,-0.0002,-2e-05,2
6202,6549,-0.00011,-0.00025,-0.00029,-0.00043,-0.00043,-0.00021,-0.0002,-2e-05,2
6203,6551,-0.00011,-0.00025,-0.00029,-0.00043,-0.00043,-0.00021,-0.0002,-2e-05,2
6204,6552,-0.00011,-0.00025,-0.00029,-0.00043,-0.00043,-0.00021,-0.0002,-2e-05,2
6205,6553,-0.00011,-0.00025,-0.00029,-0.00043,-0.00043,-0.00021,-0.0002,-2e-05,2
6206,6554,-0.00011,-0.00025,-0.00029,-0.00043,-0.00043,-0.00021,-0.0002,-2e-05,2
6207,6555,-0.00011,-0.00025,-0.00029,-0.00043,-0.00043,-0.00021,-0.0002,-2e-05,2
6208,6556,-0.00011,-0.00025,-0.00029,-0.00043,-0.00043,-0.00021,-0.0002,-2e-05,2
6209,6557,-0.00011,-0.00025,-0.00029,-0.00043,-0.00043,-0.00021,-0.0002,-2e-05,2
6210,6558,-0.00011,-0.00025,-0.00029,-0.00043,-0.00043,-0.00021,-0.0002,-2e-05,2
6211,6559,-0.00011,-0.00025,-0.00029,-0.00043,-0.00043,-0.00021,-0.0002,-2e-05,2
6212,6560,-0.00011,-0.00025,-0.00029,-0.00043,-0.00043,-0.00021,-0.0002,-2e-05,2
6213,6561,-0.00011,-0.00025,-0.00029,-0.00043,-0.00043,-0.00021,-0.0002,-2e-05,2
6214,6562,-0.00011,-0.00025,-0.00029,-0.00043,-0.00043,-0.00021,-0.0002,-2e-05,2
6215,6563,-0.00011,-0.00025,-0.00029,-0.00043,-0.00043,-0.00021,-0.0002,-2e-05,2
6216,6564,0.00021,0.0004,5e-05,5.9999999999999995e-05,0.00041,0.00023999999999999998,-0.00025,2.9999999999999997e-05,2
6217,6565,0.00021,0.0004,5e-05,5.9999999999999995e-05,0.00041,0.00023999999999999998,-0.00025,2.9999999999999997e-05,2
6218,6566,-0.00031,0.00022999999999999998,-2e-05,0.00028,-0.0002,-2e-05,-0.00031,-0.00032,2
6219,6567,-0.00031,0.00022999999999999998,-2e-05,0.00028,-0.0002,-2e-05,-0.00031,-0.00032,2
6220,6568,-0.00031,0.00022999999999999998,-2e-05,0.00028,-0.0002,-2e-05,-0.00031,-0.00032,2
6221,6569,-0.00031,0.00022999999999999998,-2e-05,0.00028,-0.0002,-2e-05,-0.00031,-0.00032,2
6222,6570,-0.00031,0.00022999999999999998,-2e-05,0.00028,-0.0002,-2e-05,-0.00031,-0.00032,2
6223,6571,-0.00031,0.00022999999999999998,-2e-05,0.00028,-0.0002,-2e-05,-0.00031,-0.00032,2
6224,6572,-0.00031,0.00022999999999999998,-2e-05,0.00028,-0.0002,-2e-05,-0.00031,-0.00032,2
6225,6573,-0.00031,0.00022999999999999998,-2e-05,0.00028,-0.0002,-2e-05,-0.00031,-0.00032,2
6226,6574,-0.00031,0.00022999999999999998,-2e-05,0.00028,-0.0002,-2e-05,-0.00031,-0.00032,2
6227,6575,-0.00031,0.00022999999999999998,-2e-05,0.00028,-0.0002,-2e-05,-0.00031,-0.00032,2
6228,6576,-0.00031,0.00022999999999999998,-2e-05,0.00028,-0.0002,-2e-05,-0.00031,-0.00032,2
6229,6577,-0.00031,0.00022999999999999998,-2e-05,0.00028,-0.0002,-2e-05,-0.00031,-0.00032,2
6230,6578,-9e-05,0.00011,-1e-05,-8e-05,0.0,-0.0003,-0.00042,-0.00022999999999999998,2
6231,6579,-9e-05,0.00011,-1e-05,-8e-05,0.0,-0.0003,-0.00042,-0.00022999999999999998,2
6232,6580,-9e-05,0.00011,-1e-05,-8e-05,0.0,-0.0003,-0.00042,-0.00022999999999999998,2
6233,6581,-9e-05,0.00011,-1e-05,-8e-05,0.0,-0.0003,-0.00042,-0.00022999999999999998,2
6234,6582,-9e-05,0.00011,-1e-05,-8e-05,0.0,-0.0003,-0.00042,-0.00022999999999999998,2
6235,6583,-9e-05,0.00011,-1e-05,-8e-05,0.0,-0.0003,-0.00042,-0.00022999999999999998,2
6236,6584,-9e-05,0.00011,-1e-05,-8e-05,0.0,-0.0003,-0.00042,-0.00022999999999999998,2
6237,6585,-9e-05,0.00011,-1e-05,-8e-05,0.0,-0.0003,-0.00042,-0.00022999999999999998,2
6238,6586,-9e-05,0.00011,-1e-05,-8e-05,0.0,-0.0003,-0.00042,-0.00022999999999999998,2
6239,6588,1e-05,-0.0001,0.00016999999999999999,-7e-05,5e-05,0.00016,0.00064,0.00011999999999999999,2
6240,6590,1e-05,-0.0001,0.00016999999999999999,-7e-05,5e-05,0.00016,0.00064,0.00011999999999999999,2
6241,6591,1e-05,-0.0001,0.00016999999999999999,-7e-05,5e-05,0.00016,0.00064,0.00011999999999999999,2
6242,6592,1e-05,-0.0001,0.00016999999999999999,-7e-05,5e-05,0.00016,0.00064,0.00011999999999999999,2
6243,6593,1e-05,-0.0001,0.00016999999999999999,-7e-05,5e-05,0.00016,0.00064,0.00011999999999999999,2
6244,6594,1e-05,-0.0001,0.00016999999999999999,-7e-05,5e-05,0.00016,0.00064,0.00011999999999999999,2
6245,6595,1e-05,-0.0001,0.00016999999999999999,-7e-05,5e-05,0.00016,0.00064,0.00011999999999999999,2
6246,6596,1e-05,-0.0001,0.00016999999999999999,-7e-05,5e-05,0.00016,0.00064,0.00011999999999999999,2
6247,6597,1e-05,-0.0001,0.00016999999999999999,-7e-05,5e-05,0.00016,0.00064,0.00011999999999999999,2
6248,6598,1e-05,-0.0001,0.00016999999999999999,-7e-05,5e-05,0.00016,0.00064,0.00011999999999999999,2
6249,6599,1e-05,-0.0001,0.00016999999999999999,-7e-05,5e-05,0.00016,0.00064,0.00011999999999999999,2
6250,6600,1e-05,-0.0001,0.00016999999999999999,-7e-05,5e-05,0.00016,0.00064,0.00011999999999999999,2
6251,6601,1e-05,-0.0001,0.00016999999999999999,-7e-05,5e-05,0.00016,0.00064,0.00011999999999999999,2
6252,6602,-0.00026000000000000003,-4e-05,-0.0002,-0.00011999999999999999,0.00016999999999999999,0.00022,0.00065,2e-05,2
6253,6603,-0.00011999999999999999,-9e-05,0.00029,0.00014,0.00047999999999999996,0.00018,-0.0005099999999999999,1e-05,2
6254,6605,-0.00011999999999999999,-9e-05,0.00029,0.00014,0.00047999999999999996,0.00018,-0.0005099999999999999,1e-05,2
6255,6606,-0.00011999999999999999,-9e-05,0.00029,0.00014,0.00047999999999999996,0.00018,-0.0005099999999999999,1e-05,2
6256,6607,-0.00011999999999999999,-9e-05,0.00029,0.00014,0.00047999999999999996,0.00018,-0.0005099999999999999,1e-05,2
6257,6608,-0.00011999999999999999,-9e-05,0.00029,0.00014,0.00047999999999999996,0.00018,-0.0005099999999999999,1e-05,2
6258,6609,-0.00011999999999999999,-9e-05,0.00029,0.00014,0.00047999999999999996,0.00018,-0.0005099999999999999,1e-05,2
6259,6610,-0.00011999999999999999,-9e-05,0.00029,0.00014,0.00047999999999999996,0.00018,-0.0005099999999999999,1e-05,2
6260,6611,-0.00011999999999999999,-9e-05,0.00029,0.00014,0.00047999999999999996,0.00018,-0.0005099999999999999,1e-05,2
6261,6612,-0.00011999999999999999,-9e-05,0.00029,0.00014,0.00047999999999999996,0.00018,-0.0005099999999999999,1e-05,2
6262,6613,-0.00011999999999999999,-9e-05,0.00029,0.00014,0.00047999999999999996,0.00018,-0.0005099999999999999,1e-05,2
6263,6614,-0.00011999999999999999,-9e-05,0.00029,0.00014,0.00047999999999999996,0.00018,-0.0005099999999999999,1e-05,2
6264,6615,-0.00011999999999999999,-9e-05,0.00029,0.00014,0.00047999999999999996,0.00018,-0.0005099999999999999,1e-05,2
6265,6616,-0.00011999999999999999,-9e-05,0.00029,0.00014,0.00047999999999999996,0.00018,-0.0005099999999999999,1e-05,2
6266,6617,-0.00011999999999999999,-9e-05,0.00029,0.00014,0.00047999999999999996,0.00018,-0.0005099999999999999,1e-05,2
6267,6618,-0.00011999999999999999,-9e-05,0.00029,0.00014,0.00047999999999999996,0.00018,-0.0005099999999999999,1e-05,2
6268,6619,-0.00011999999999999999,-9e-05,0.00029,0.00014,0.00047999999999999996,0.00018,-0.0005099999999999999,1e-05,2
6269,6620,-0.00011999999999999999,-9e-05,0.00029,0.00014,0.00047999999999999996,0.00018,-0.0005099999999999999,1e-05,2
6270,6621,-0.00011999999999999999,-9e-05,0.00029,0.00014,0.00047999999999999996,0.00018,-0.0005099999999999999,1e-05,2
6271,6622,-0.00011999999999999999,-9e-05,0.00029,0.00014,0.00047999999999999996,0.00018,-0.0005099999999999999,1e-05,2
6272,6623,-0.00011999999999999999,-9e-05,0.00029,0.00014,0.00047999999999999996,0.00018,-0.0005099999999999999,1e-05,2
6273,6624,-0.00011999999999999999,-9e-05,0.00029,0.00014,0.00047999999999999996,0.00018,-0.0005099999999999999,1e-05,2
6274,6625,-0.00011999999999999999,-9e-05,0.00029,0.00014,0.00047999999999999996,0.00018,-0.0005099999999999999,1e-05,2
6275,6626,-0.00011999999999999999,-9e-05,0.00029,0.00014,0.00047999999999999996,0.00018,-0.0005099999999999999,1e-05,2
6276,6627,-0.00011999999999999999,-9e-05,0.00029,0.00014,0.00047999999999999996,0.00018,-0.0005099999999999999,1e-05,2
6277,6628,-0.00011999999999999999,-9e-05,0.00029,0.00014,0.00047999999999999996,0.00018,-0.0005099999999999999,1e-05,2
6278,6629,-0.00011999999999999999,-9e-05,0.00029,0.00014,0.00047999999999999996,0.00018,-0.0005099999999999999,1e-05,2
6279,6631,-0.00011999999999999999,-9e-05,0.00029,0.00014,0.00047999999999999996,0.00018,-0.0005099999999999999,1e-05,2
6280,6632,-0.00022999999999999998,-0.00011999999999999999,-0.00035,-0.00015,-0.00016999999999999999,-7e-05,0.00058,8e-05,2
6281,6633,-0.00016999999999999999,-0.00036,-0.00011999999999999999,-5e-05,-0.00013000000000000002,-2.9999999999999997e-05,5e-05,2.9999999999999997e-05,2
6282,6634,-0.00016999999999999999,-0.00036,-0.00011999999999999999,-5e-05,-0.00013000000000000002,-2.9999999999999997e-05,5e-05,2.9999999999999997e-05,2
6283,6635,-0.00016999999999999999,-0.00036,-0.00011999999999999999,-5e-05,-0.00013000000000000002,-2.9999999999999997e-05,5e-05,2.9999999999999997e-05,2
6284,6636,-0.00016999999999999999,-0.00036,-0.00011999999999999999,-5e-05,-0.00013000000000000002,-2.9999999999999997e-05,5e-05,2.9999999999999997e-05,2
6285,6639,-0.00016999999999999999,-0.00036,-0.00011999999999999999,-5e-05,-0.00013000000000000002,-2.9999999999999997e-05,5e-05,2.9999999999999997e-05,2
6286,6640,-0.00016999999999999999,-0.00036,-0.00011999999999999999,-5e-05,-0.00013000000000000002,-2.9999999999999997e-05,5e-05,2.9999999999999997e-05,2
6287,6641,-0.00016999999999999999,-0.00036,-0.00011999999999999999,-5e-05,-0.00013000000000000002,-2.9999999999999997e-05,5e-05,2.9999999999999997e-05,2
