,time,channel1,channel2,channel3,channel4,channel5,channel6,channel7,channel8,class
6213,6478,-0.00016,-8e-05,-0.00031,-0.00029,0.00011,-5e-05,-0.00033999999999999997,-0.00016999999999999999,2
6214,6479,-0.00016,-8e-05,-0.00031,-0.00029,0.00011,-5e-05,-0.00033999999999999997,-0.00016999999999999999,2
6215,6480,-0.00016,-8e-05,-0.00031,-0.00029,0.00011,-5e-05,-0.00033999999999999997,-0.00016999999999999999,2
6216,6481,-0.00016,-8e-05,-0.00031,-0.00029,0.00011,-5e-05,-0.00033999999999999997,-0.00016999999999999999,2
6217,6482,-0.00016,-8e-05,-0.00031,-0.00029,0.00011,-5e-05,-0.00033999999999999997,-0.00016999999999999999,2
6218,6483,-0.00016,-8e-05,-0.00031,-0.00029,0.00011,-5e-05,-0.00033999999999999997,-0.00016999999999999999,2
6219,6484,-0.00016,-8e-05,-0.00031,-0.00029,0.00011,-5e-05,-0.00033999999999999997,-0.00016999999999999999,2
6220,6485,-0.00016,-8e-05,-0.00031,-0.00029,0.00011,-5e-05,-0.00033999999999999997,-0.00016999999999999999,2
6221,6486,-0.00011,0.00011,0.00031,0.0005099999999999999,0.00015,0.00039,0.00016999999999999999,5.9999999999999995e-05,2
6222,6488,5.9999999999999995e-05,0.00011999999999999999,0.00042,0.00047000000000000004,5e-05,8e-05,1e-05,-5.9999999999999995e-05,2
6223,6489,5.9999999999999995e-05,0.00011999999999999999,0.00042,0.00047000000000000004,5e-05,8e-05,1e-05,-5.9999999999999995e-05,2
6224,6490,5.9999999999999995e-05,0.00011999999999999999,0.00042,0.00047000000000000004,5e-05,8e-05,1e-05,-5.9999999999999995e-05,2
6225,6491,5.9999999999999995e-05,0.00011999999999999999,0.00042,0.00047000000000000004,5e-05,8e-05,1e-05,-5.9999999999999995e-05,2
6226,6492,5.9999999999999995e-05,0.00011999999999999999,0.00042,0.00047000000000000004,5e-05,8e-05,1e-05,-5.9999999999999995e-05,2
6227,6493,5.9999999999999995e-05,0.00011999999999999999,0.00042,0.00047000000000000004,5e-05,8e-05,1e-05,-5.9999999999999995e-05,2
6228,6494,5.9999999999999995e-05,0.00011999999999999999,0.00042,0.00047000000000000004,5e-05,8e-05,1e-05,-5.9999999999999995e-05,2
6229,6495,5.9999999999999995e-05,0.00011999999999999999,0.00042,0.00047000000000000004,5e-05,8e-05,1e-05,-5.9999999999999995e-05,2
6230,6496,5.9999999999999995e-05,0.00011999999999999999,0.00042,0.00047000000000000004,5e-05,8e-05,1e-05,-5.9999999999999995e-05,2
6231,6497,5.9999999999999995e-05,0.00011999999999999999,0.00042,0.00047000000000000004,5e-05,8e-05,1e-05,-5.9999999999999995e-05,2
6232,6498,5.9999999999999995e-05,0.00011999999999999999,0.00042,0.00047000000000000004,5e-05,8e-05,1e-05,-5.9999999999999995e-05,2
6233,6499,5.9999999999999995e-05,0.00011999999999999999,0.00042,0.00047000000000000004,5e-05,8e-05,1e-05,-5.9999999999999995e-05,2
6234,6500,2e-05,-0.00014,-0.00032,-0.00047999999999999996,4e-05,-0.00018999999999999998,1e-05,-0.00016,2
6235,6501,2e-05,-0.00014,-0.00032,-0.00047999999999999996,4e-05,-0.00018999999999999998,1e-05,-0.00016,2
6236,6502,2e-05,-0.00014,-0.00032,-0.00047999999999999996,4e-05,-0.00018999999999999998,1e-05,-0.00016,2
6237,6503,2e-05,-0.00014,-0.00032,-0.00047999999999999996,4e-05,-0.00018999999999999998,1e-05,-0.00016,2
6238,6504,2e-05,-0.00014,-0.00032,-0.00047999999999999996,4e-05,-0.00018999999999999998,1e-05,-0.00016,2
6239,6505,2e-05,-0.00014,-0.00032,-0.00047999999999999996,4e-05,-0.00018999999999999998,1e-05,-0.00016,2
6240,6506,2e-05,-0.00014,-0.00032,-0.00047999999999999996,4e-05,-0.00018999999999999998,1e-05,-0.00016,2
6241,6507,-5e-05,-2.9999999999999997e-05,7e-05,0.00011999999999999999,-0.00011,0.00011,0.00022999999999999998,-7e-05,2
6242,6508,-5e-05,-2.9999999999999997e-05,7e-05,0.00011999999999999999,-0.00011,0.00011,0.00022999999999999998,-7e-05,2
6243,6509,-5e-05,-2.9999999999999997e-05,7e-05,0.00011999999999999999,-0.00011,0.00011,0.00022999999999999998,-7e-05,2
6244,6510,-5e-05,-2.9999999999999997e-05,7e-05,0.00011999999999999999,-0.00011,0.00011,0.00022999999999999998,-7e-05,2
6245,6511,-5e-05,-2.9999999999999997e-05,7e-05,0.00011999999999999999,-0.00011,0.00011,0.00022999999999999998,-7e-05,2
6246,6512,-5e-05,-2.9999999999999997e-05,7e-05,0.00011999999999999999,-0.00011,0.00011,0.00022999999999999998,-7e-05,2
6247,6513,-5e-05,-2.9999999999999997e-05,7e-05,0.00011999999999999999,-0.00011,0.00011,0.00022999999999999998,-7e-05,2
6248,6514,-5e-05,-2.9999999999999997e-05,7e-05,0.00011999999999999999,-0.00011,0.00011,0.00022999999999999998,-7e-05,2
6249,6515,-5e-05,-2.9999999999999997e-05,7e-05,0.00011999999999999999,-0.00011,0.00011,0.00022999999999999998,-7e-05,2
6250,6516,-5e-05,-2.9999999999999997e-05,7e-05,0.00011999999999999999,-0.00011,0.00011,0.00022999999999999998,-7e-05,2
6251,6517,-5e-05,-2.9999999999999997e-05,7e-05,0.00011999999999999999,-0.00011,0.00011,0.00022999999999999998,-7e-05,2
6252,6518,-5e-05,-2.9999999999999997e-05,7e-05,0.00011999999999999999,-0.00011,0.00011,0.00022999999999999998,-7e-05,2
6253,6519,-5e-05,-2.9999999999999997e-05,7e-05,0.00011999999999999999,-0.00011,0.00011,0.00022999999999999998,-7e-05,2
6254,6520,-5e-05,-2.9999999999999997e-05,7e-05,0.00011999999999999999,-0.00011,0.00011,0.00022999999999999998,-7e-05,2
6255,6521,-5e-05,-2.9999999999999997e-05,7e-05,0.00011999999999999999,-0.00011,0.00011,0.00022999999999999998,-7e-05,2
6256,6522,-5e-05,-2.9999999999999997e-05,7e-05,0.00011999999999999999,-0.00011,0.00011,0.00022999999999999998,-7e-05,2
6257,6523,-5e-05,-2.9999999999999997e-05,7e-05,0.00011999999999999999,-0.00011,0.00011,0.00022999999999999998,-7e-05,2
6258,6524,0.00029,0.00011999999999999999,0.0002,9e-05,0.0,-8e-05,8e-05,0.00011,2
6259,6525,0.00018999999999999998,9e-05,0.00026000000000000003,0.00018,-2.9999999999999997e-05,-0.00023999999999999998,-0.00025,0.00018,2
6260,6526,0.00018999999999999998,9e-05,0.00026000000000000003,0.00018,-2.9999999999999997e-05,-0.00023999999999999998,-0.00025,0.00018,2
6261,6527,0.00018999999999999998,9e-05,0.00026000000000000003,0.00018,-2.9999999999999997e-05,-0.00023999999999999998,-0.00025,0.00018,2
6262,6528,0.00018999999999999998,9e-05,0.00026000000000000003,0.00018,-2.9999999999999997e-05,-0.00023999999999999998,-0.00025,0.00018,2
6263,6529,0.00018999999999999998,9e-05,0.00026000000000000003,0.00018,-2.9999999999999997e-05,-0.00023999999999999998,-0.00025,0.00018,2
6264,6530,0.00018999999999999998,9e-05,0.00026000000000000003,0.00018,-2.9999999999999997e-05,-0.00023999999999999998,-0.00025,0.00018,2
6265,6531,0.00018999999999999998,9e-05,0.00026000000000000003,0.00018,-2.9999999999999997e-05,-0.00023999999999999998,-0.00025,0.00018,2
6266,6532,0.00018999999999999998,9e-05,0.00026000000000000003,0.00018,-2.9999999999999997e-05,-0.00023999999999999998,-0.00025,0.00018,2
6267,6533,0.00018999999999999998,9e-05,0.00026000000000000003,0.00018,-2.9999999999999997e-05,-0.00023999999999999998,-0.00025,0.00018,2
6268,6534,0.00018999999999999998,9e-05,0.00026000000000000003,0.00018,-2.9999999999999997e-05,-0.00023999999999999998,-0.00025,0.00018,2
6269,6535,0.00018999999999999998,9e-05,0.00026000000000000003,0.00018,-2.9999999999999997e-05,-0.00023999999999999998,-0.00025,0.00018,2
6270,6536,0.00018999999999999998,9e-05,0.00026000000000000003,0.00018,-2.9999999999999997e-05,-0.00023999999999999998,-0.00025,0.00018,2
6271,6538,0.00018999999999999998,9e-05,0.00026000000000000003,0.00018,-2.9999999999999997e-05,-0.00023999999999999998,-0.00025,0.00018,2
6272,6539,0.00018999999999999998,9e-05,0.00026000000000000003,0.00018,-2.9999999999999997e-05,-0.00023999999999999998,-0.00025,0.00018,2
6273,6540,0.00018999999999999998,9e-05,0.00026000000000000003,0.00018,-2.9999999999999997e-05,-0.00023999999999999998,-0.00025,0.00018,2
6274,6541,0.00018999999999999998,9e-05,0.00026000000000000003,0.00018,-2.9999999999999997e-05,-0.00023999999999999998,-0.00025,0.00018,2
6275,6542,0.00018999999999999998,9e-05,0.00026000000000000003,0.00018,-2.9999999999999997e-05,-0.00023999999999999998,-0.00025,0.00018,2
6276,6543,0.00018999999999999998,9e-05,0.00026000000000000003,0.00018,-2.9999999999999997e-05,-0.00023999999999999998,-0.00025,0.00018,2
6277,6544,0.00018999999999999998,9e-05,0.00026000000000000003,0.00018,-2.9999999999999997e-05,-0.00023999999999999998,-0.00025,0.00018,2
6278,6545,0.00018999999999999998,9e-05,0.00026000000000000003,0.00018,-2.9999999999999997e-05,-0.00023999999999999998,-0.00025,0.00018,2
6279,6546,-0.00032,-0.00022,-0.00047000000000000004,-0.00057,-0.00011999999999999999,-0.00014,-0.00016999999999999999,-0.00018999999999999998,2
6280,6547,0.00043,5e-05,-5e-05,-0.0001,-5.9999999999999995e-05,2e-05,-5.9999999999999995e-05,-5.9999999999999995e-05,2
6281,6548,0.00043,5e-05,-5e-05,-0.0001,-5.9999999999999995e-05,2e-05,-5.9999999999999995e-05,-5.9999999999999995e-05,2
6282,6549,0.00043,5e-05,-5e-05,-0.0001,-5.9999999999999995e-05,2e-05,-5.9999999999999995e-05,-5.9999999999999995e-05,2
6283,6550,0.00043,5e-05,-5e-05,-0.0001,-5.9999999999999995e-05,2e-05,-5.9999999999999995e-05,-5.9999999999999995e-05,2
6284,6551,0.00043,5e-05,-5e-05,-0.0001,-5.9999999999999995e-05,2e-05,-5.9999999999999995e-05,-5.9999999999999995e-05,2
6285,6552,0.00043,5e-05,-5e-05,-0.0001,-5.9999999999999995e-05,2e-05,-5.9999999999999995e-05,-5.9999999999999995e-05,2
6286,6553,0.00043,5e-05,-5e-05,-0.0001,-5.9999999999999995e-05,2e-05,-5.9999999999999995e-05,-5.9999999999999995e-05,2
6287,6554,0.00043,5e-05,-5e-05,-0.0001,-5.9999999999999995e-05,2e-05,-5.9999999999999995e-05,-5.9999999999999995e-05,2
6288,6555,0.00043,5e-05,-5e-05,-0.0001,-5.9999999999999995e-05,2e-05,-5.9999999999999995e-05,-5.9999999999999995e-05,2
6289,6556,0.00043,5e-05,-5e-05,-0.0001,-5.9999999999999995e-05,2e-05,-5.9999999999999995e-05,-5.9999999999999995e-05,2
6290,6557,0.00043,5e-05,-5e-05,-0.0001,-5.9999999999999995e-05,2e-05,-5.9999999999999995e-05,-5.9999999999999995e-05,2
6291,6558,0.00043,5e-05,-5e-05,-0.0001,-5.9999999999999995e-05,2e-05,-5.9999999999999995e-05,-5.9999999999999995e-05,2
6292,6559,0.00043,5e-05,-5e-05,-0.0001,-5.9999999999999995e-05,2e-05,-5.9999999999999995e-05,-5.9999999999999995e-05,2
6293,6560,0.00043,5e-05,-5e-05,-0.0001,-5.9999999999999995e-05,2e-05,-5.9999999999999995e-05,-5.9999999999999995e-05,2
6294,6561,0.00043,5e-05,-5e-05,-0.0001,-5.9999999999999995e-05,2e-05,-5.9999999999999995e-05,-5.9999999999999995e-05,2
6295,6562,0.00043,5e-05,-5e-05,-0.0001,-5.9999999999999995e-05,2e-05,-5.9999999999999995e-05,-5.9999999999999995e-05,2
6296,6563,0.00043,5e-05,-5e-05,-0.0001,-5.9999999999999995e-05,2e-05,-5.9999999999999995e-05,-5.9999999999999995e-05,2
6297,6564,0.00043,5e-05,-5e-05,-0.0001,-5.9999999999999995e-05,2e-05,-5.9999999999999995e-05,-5.9999999999999995e-05,2
6298,6565,0.00043,5e-05,-5e-05,-0.0001,-5.9999999999999995e-05,2e-05,-5.9999999999999995e-05,-5.9999999999999995e-05,2
6299,6566,0.00043,5e-05,-5e-05,-0.0001,-5.9999999999999995e-05,2e-05,-5.9999999999999995e-05,-5.9999999999999995e-05,2
6300,6567,0.00043,5e-05,-5e-05,-0.0001,-5.9999999999999995e-05,2e-05,-5.9999999999999995e-05,-5.9999999999999995e-05,2
6301,6568,0.00018999999999999998,2.9999999999999997e-05,-5e-05,-0.00021,2.9999999999999997e-05,-1e-05,2.9999999999999997e-05,0.00018,2
6302,6569,0.00018999999999999998,2.9999999999999997e-05,-5e-05,-0.00021,2.9999999999999997e-05,-1e-05,2.9999999999999997e-05,0.00018,2
6303,6570,0.00011999999999999999,0.00025,0.00044,0.0006,0.00015,0.00045999999999999996,0.00023999999999999998,0.0,2
6304,6571,0.00011999999999999999,0.00025,0.00044,0.0006,0.00015,0.00045999999999999996,0.00023999999999999998,0.0,2
6305,6572,0.00011999999999999999,0.00025,0.00044,0.0006,0.00015,0.00045999999999999996,0.00023999999999999998,0.0,2
6306,6573,0.00011999999999999999,0.00025,0.00044,0.0006,0.00015,0.00045999999999999996,0.00023999999999999998,0.0,2
6307,6574,0.00011999999999999999,0.00025,0.00044,0.0006,0.00015,0.00045999999999999996,0.00023999999999999998,0.0,2
6308,6575,0.00011999999999999999,0.00025,0.00044,0.0006,0.00015,0.00045999999999999996,0.00023999999999999998,0.0,2
6309,6576,0.00011999999999999999,0.00025,0.00044,0.0006,0.00015,0.00045999999999999996,0.00023999999999999998,0.0,2
6310,6577,0.00011999999999999999,0.00025,0.00044,0.0006,0.00015,0.00045999999999999996,0.00023999999999999998,0.0,2
6311,6578,0.00011999999999999999,0.00025,0.00044,0.0006,0.00015,0.00045999999999999996,0.00023999999999999998,0.0,2
6312,6579,0.00011999999999999999,0.00025,0.00044,0.0006,0.00015,0.00045999999999999996,0.00023999999999999998,0.0,2
6313,6580,0.00011999999999999999,0.00025,0.00044,0.0006,0.00015,0.00045999999999999996,0.00023999999999999998,0.0,2
6314,6581,0.00011999999999999999,0.00025,0.00044,0.0006,0.00015,0.00045999999999999996,0.00023999999999999998,0.0,2
6315,6582,0.00011999999999999999,0.00025,0.00044,0.0006,0.00015,0.00045999999999999996,0.00023999999999999998,0.0,2
6316,6583,9e-05,9e-05,0.00036,0.00061,7e-05,0.00011,-8e-05,-4e-05,2
6317,6584,9e-05,9e-05,0.00036,0.00061,7e-05,0.00011,-8e-05,-4e-05,2
6318,6585,-0.00039,-0.00013000000000000002,-0.00014,-8e-05,-0.00016,-0.00021,-0.00037,-0.00018,2
6319,6586,-0.00039,-0.00013000000000000002,-0.00014,-8e-05,-0.00016,-0.00021,-0.00037,-0.00018,2
6320,6588,-0.00039,-0.00013000000000000002,-0.00014,-8e-05,-0.00016,-0.00021,-0.00037,-0.00018,2
6321,6590,-0.00039,-0.00013000000000000002,-0.00014,-8e-05,-0.00016,-0.00021,-0.00037,-0.00018,2
6322,6591,-0.00039,-0.00013000000000000002,-0.00014,-8e-05,-0.00016,-0.00021,-0.00037,-0.00018,2
6323,6592,-0.00039,-0.00013000000000000002,-0.00014,-8e-05,-0.00016,-0.00021,-0.00037,-0.00018,2
6324,6593,-0.00039,-0.00013000000000000002,-0.00014,-8e-05,-0.00016,-0.00021,-0.00037,-0.00018,2
6325,6594,-0.00039,-0.00013000000000000002,-0.00014,-8e-05,-0.00016,-0.00021,-0.00037,-0.00018,2
6326,6595,-0.00039,-0.00013000000000000002,-0.00014,-8e-05,-0.00016,-0.00021,-0.00037,-0.00018,2
6327,6596,-0.00039,-0.00013000000000000002,-0.00014,-8e-05,-0.00016,-0.00021,-0.00037,-0.00018,2
6328,6597,-0.00039,-0.00013000000000000002,-0.00014,-8e-05,-0.00016,-0.00021,-0.00037,-0.00018,2
6329,6598,-0.00039,-0.00013000000000000002,-0.00014,-8e-05,-0.00016,-0.00021,-0.00037,-0.00018,2
6330,6599,-0.00039,-0.00013000000000000002,-0.00014,-8e-05,-0.00016,-0.00021,-0.00037,-0.00018,2
6331,6600,-0.00039,-0.00013000000000000002,-0.00014,-8e-05,-0.00016,-0.00021,-0.00037,-0.00018,2
6332,6601,-0.00039,-0.00013000000000000002,-0.00014,-8e-05,-0.00016,-0.00021,-0.00037,-0.00018,2
6333,6602,-0.00039,-0.00013000000000000002,-0.00014,-8e-05,-0.00016,-0.00021,-0.00037,-0.00018,2
6334,6603,-0.00039,-0.00013000000000000002,-0.00014,-8e-05,-0.00016,-0.00021,-0.00037,-0.00018,2
6335,6604,-0.00039,-0.00013000000000000002,-0.00014,-8e-05,-0.00016,-0.00021,-0.00037,-0.00018,2
6336,6605,-0.00039,-0.00013000000000000002,-0.00014,-8e-05,-0.00016,-0.00021,-0.00037,-0.00018,2
6337,6606,0.0,2e-05,0.00011,0.00036,2.9999999999999997e-05,0.00011,0.00014,9e-05,2
6338,6607,-5.9999999999999995e-05,-7e-05,2.9999999999999997e-05,0.00027,8e-05,4e-05,-2e-05,0.00013000000000000002,2
6339,6608,-5.9999999999999995e-05,-7e-05,2.9999999999999997e-05,0.00027,8e-05,4e-05,-2e-05,0.00013000000000000002,2
6340,6609,-5.9999999999999995e-05,-7e-05,2.9999999999999997e-05,0.00027,8e-05,4e-05,-2e-05,0.00013000000000000002,2
6341,6610,-5.9999999999999995e-05,-7e-05,2.9999999999999997e-05,0.00027,8e-05,4e-05,-2e-05,0.00013000000000000002,2
6342,6611,-5.9999999999999995e-05,-7e-05,2.9999999999999997e-05,0.00027,8e-05,4e-05,-2e-05,0.00013000000000000002,2
6343,6612,-5.9999999999999995e-05,-7e-05,2.9999999999999997e-05,0.00027,8e-05,4e-05,-2e-05,0.00013000000000000002,2
6344,6613,-5.9999999999999995e-05,-7e-05,2.9999999999999997e-05,0.00027,8e-05,4e-05,-2e-05,0.00013000000000000002,2
6345,6614,-5.9999999999999995e-05,-7e-05,2.9999999999999997e-05,0.00027,8e-05,4e-05,-2e-05,0.00013000000000000002,2
6346,6615,-5.9999999999999995e-05,-7e-05,2.9999999999999997e-05,0.00027,8e-05,4e-05,-2e-05,0.00013000000000000002,2
6347,6616,-5.9999999999999995e-05,-7e-05,2.9999999999999997e-05,0.00027,8e-05,4e-05,-2e-05,0.00013000000000000002,2
6348,6618,-5.9999999999999995e-05,-7e-05,2.9999999999999997e-05,0.00027,8e-05,4e-05,-2e-05,0.00013000000000000002,2
6349,6619,-5.9999999999999995e-05,-7e-05,2.9999999999999997e-05,0.00027,8e-05,4e-05,-2e-05,0.00013000000000000002,2
6350,6620,-4e-05,0.0,-9e-05,-0.00041,-0.00011999999999999999,-0.00033999999999999997,-0.00033999999999999997,5.9999999999999995e-05,2
6351,6621,-4e-05,0.0,-9e-05,-0.00041,-0.00011999999999999999,-0.00033999999999999997,-0.00033999999999999997,5.9999999999999995e-05,2
6352,6622,-4e-05,0.0,-9e-05,-0.00041,-0.00011999999999999999,-0.00033999999999999997,-0.00033999999999999997,5.9999999999999995e-05,2
6353,6623,-4e-05,0.0,-9e-05,-0.00041,-0.00011999999999999999,-0.00033999999999999997,-0.00033999999999999997,5.9999999999999995e-05,2
6354,6624,-4e-05,0.0,-9e-05,-0.00041,-0.00011999999999999999,-0.00033999999999999997,-0.00033999999999999997,5.9999999999999995e-05,2
6355,6625,-4e-05,0.0,-9e-05,-0.00041,-0.00011999999999999999,-0.00033999999999999997,-0.00033999999999999997,5.9999999999999995e-05,2
6356,6626,-4e-05,0.0,-9e-05,-0.00041,-0.00011999999999999999,-0.00033999999999999997,-0.00033999999999999997,5.9999999999999995e-05,2
6357,6627,7e-05,5.9999999999999995e-05,5.9999999999999995e-05,0.0,-2.9999999999999997e-05,-0.00015,-1e-05,5.9999999999999995e-05,2
6358,6628,7e-05,5.9999999999999995e-05,5.9999999999999995e-05,0.0,-2.9999999999999997e-05,-0.00015,-1e-05,5.9999999999999995e-05,2
6359,6629,7e-05,5.9999999999999995e-05,5.9999999999999995e-05,0.0,-2.9999999999999997e-05,-0.00015,-1e-05,5.9999999999999995e-05,2
6360,6630,7e-05,5.9999999999999995e-05,5.9999999999999995e-05,0.0,-2.9999999999999997e-05,-0.00015,-1e-05,5.9999999999999995e-05,2
6361,6631,7e-05,5.9999999999999995e-05,5.9999999999999995e-05,0.0,-2.9999999999999997e-05,-0.00015,-1e-05,5.9999999999999995e-05,2
6362,6632,7e-05,5.9999999999999995e-05,5.9999999999999995e-05,0.0,-2.9999999999999997e-05,-0.00015,-1e-05,5.9999999999999995e-05,2
6363,6633,7e-05,5.9999999999999995e-05,5.9999999999999995e-05,0.0,-2.9999999999999997e-05,-0.00015,-1e-05,5.9999999999999995e-05,2
6364,6634,7e-05,5.9999999999999995e-05,5.9999999999999995e-05,0.0,-2.9999999999999997e-05,-0.00015,-1e-05,5.9999999999999995e-05,2
6365,6635,7e-05,5.9999999999999995e-05,5.9999999999999995e-05,0.0,-2.9999999999999997e-05,-0.00015,-1e-05,5.9999999999999995e-05,2
6366,6636,7e-05,5.9999999999999995e-05,5.9999999999999995e-05,0.0,-2.9999999999999997e-05,-0.00015,-1e-05,5.9999999999999995e-05,2
6367,6638,7e-05,5.9999999999999995e-05,5.9999999999999995e-05,0.0,-2.9999999999999997e-05,-0.00015,-1e-05,5.9999999999999995e-05,2
6368,6639,7e-05,5.9999999999999995e-05,5.9999999999999995e-05,0.0,-2.9999999999999997e-05,-0.00015,-1e-05,5.9999999999999995e-05,2
6369,6640,7e-05,5.9999999999999995e-05,5.9999999999999995e-05,0.0,-2.9999999999999997e-05,-0.00015,-1e-05,5.9999999999999995e-05,2
6370,6641,7e-05,5.9999999999999995e-05,5.9999999999999995e-05,0.0,-2.9999999999999997e-05,-0.00015,-1e-05,5.9999999999999995e-05,2
6371,6642,7e-05,5.9999999999999995e-05,5.9999999999999995e-05,0.0,-2.9999999999999997e-05,-0.00015,-1e-05,5.9999999999999995e-05,2
6372,6643,7e-05,5.9999999999999995e-05,5.9999999999999995e-05,0.0,-2.9999999999999997e-05,-0.00015,-1e-05,5.9999999999999995e-05,2
6373,6644,0.00018999999999999998,0.00016999999999999999,0.00022999999999999998,0.00014,-5.9999999999999995e-05,-0.00016999999999999999,-5e-05,0.0,2
6374,6645,-9e-05,-2.9999999999999997e-05,-2e-05,-2.9999999999999997e-05,0.0,-2e-05,-0.00015,-0.00011999999999999999,2
6375,6646,-9e-05,-2e-05,-9e-05,-0.0003,-5.9999999999999995e-05,-5e-05,-5.9999999999999995e-05,2e-05,2
6376,6647,-9e-05,-2e-05,-9e-05,-0.0003,-5.9999999999999995e-05,-5e-05,-5.9999999999999995e-05,2e-05,2
6377,6648,-9e-05,-2e-05,-9e-05,-0.0003,-5.9999999999999995e-05,-5e-05,-5.9999999999999995e-05,2e-05,2
6378,6649,-9e-05,-2e-05,-9e-05,-0.0003,-5.9999999999999995e-05,-5e-05,-5.9999999999999995e-05,2e-05,2
6379,6650,-9e-05,-2e-05,-9e-05,-0.0003,-5.9999999999999995e-05,-5e-05,-5.9999999999999995e-05,2e-05,2
6380,6651,-9e-05,-2e-05,-9e-05,-0.0003,-5.9999999999999995e-05,-5e-05,-5.9999999999999995e-05,2e-05,2
6381,6652,-9e-05,-2e-05,-9e-05,-0.0003,-5.9999999999999995e-05,-5e-05,-5.9999999999999995e-05,2e-05,2
6382,6653,-9e-05,-2e-05,-9e-05,-0.0003,-5.9999999999999995e-05,-5e-05,-5.9999999999999995e-05,2e-05,2
6383,6654,-9e-05,-2e-05,-9e-05,-0.0003,-5.9999999999999995e-05,-5e-05,-5.9999999999999995e-05,2e-05,2
6384,6655,-9e-05,-2e-05,-9e-05,-0.0003,-5.9999999999999995e-05,-5e-05,-5.9999999999999995e-05,2e-05,2
6385,6656,-9e-05,-2e-05,-9e-05,-0.0003,-5.9999999999999995e-05,-5e-05,-5.9999999999999995e-05,2e-05,2
6386,6657,-9e-05,-2e-05,-9e-05,-0.0003,-5.9999999999999995e-05,-5e-05,-5.9999999999999995e-05,2e-05,2
6387,6658,-9e-05,-2e-05,-9e-05,-0.0003,-5.9999999999999995e-05,-5e-05,-5.9999999999999995e-05,2e-05,2
6388,6659,-9e-05,-2e-05,-9e-05,-0.0003,-5.9999999999999995e-05,-5e-05,-5.9999999999999995e-05,2e-05,2
6389,6660,-9e-05,-2e-05,-9e-05,-0.0003,-5.9999999999999995e-05,-5e-05,-5.9999999999999995e-05,2e-05,2
6390,6661,-9e-05,-2e-05,-9e-05,-0.0003,-5.9999999999999995e-05,-5e-05,-5.9999999999999995e-05,2e-05,2
6391,6662,-9e-05,-2e-05,-9e-05,-0.0003,-5.9999999999999995e-05,-5e-05,-5.9999999999999995e-05,2e-05,2
6392,6663,-9e-05,-2e-05,-9e-05,-0.0003,-5.9999999999999995e-05,-5e-05,-5.9999999999999995e-05,2e-05,2
6393,6664,-9e-05,-2e-05,-9e-05,-0.0003,-5.9999999999999995e-05,-5e-05,-5.9999999999999995e-05,2e-05,2
6394,6665,-9e-05,-2e-05,-9e-05,-0.0003,-5.9999999999999995e-05,-5e-05,-5.9999999999999995e-05,2e-05,2
6395,6666,-0.00015,0.0,0.00022,0.00025,-1e-05,0.0002,-1e-05,-0.00023999999999999998,2
6396,6667,-0.00039,-2e-05,0.00022,0.00045999999999999996,-0.00011999999999999999,-0.00028,-0.00011999999999999999,-0.0003,2
6397,6668,-0.00039,-2e-05,0.00022,0.00045999999999999996,-0.00011999999999999999,-0.00028,-0.00011999999999999999,-0.0003,2
6398,6669,-0.00039,-2e-05,0.00022,0.00045999999999999996,-0.00011999999999999999,-0.00028,-0.00011999999999999999,-0.0003,2
6399,6670,-0.00039,-2e-05,0.00022,0.00045999999999999996,-0.00011999999999999999,-0.00028,-0.00011999999999999999,-0.0003,2
6400,6671,-0.00039,-2e-05,0.00022,0.00045999999999999996,-0.00011999999999999999,-0.00028,-0.00011999999999999999,-0.0003,2
6401,6672,-0.00039,-2e-05,0.00022,0.00045999999999999996,-0.00011999999999999999,-0.00028,-0.00011999999999999999,-0.0003,2
6402,6673,-0.00039,-2e-05,0.00022,0.00045999999999999996,-0.00011999999999999999,-0.00028,-0.00011999999999999999,-0.0003,2
6403,6674,-0.00039,-2e-05,0.00022,0.00045999999999999996,-0.00011999999999999999,-0.00028,-0.00011999999999999999,-0.0003,2
6404,6675,-0.00039,-2e-05,0.00022,0.00045999999999999996,-0.00011999999999999999,-0.00028,-0.00011999999999999999,-0.0003,2
6405,6676,-0.00039,-2e-05,0.00022,0.00045999999999999996,-0.00011999999999999999,-0.00028,-0.00011999999999999999,-0.0003,2
6406,6677,-0.00039,-2e-05,0.00022,0.00045999999999999996,-0.00011999999999999999,-0.00028,-0.00011999999999999999,-0.0003,2
6407,6678,-0.00039,-2e-05,0.00022,0.00045999999999999996,-0.00011999999999999999,-0.00028,-0.00011999999999999999,-0.0003,2
6408,6679,-0.00039,-2e-05,0.00022,0.00045999999999999996,-0.00011999999999999999,-0.00028,-0.00011999999999999999,-0.0003,2
6409,6680,-9e-05,-2e-05,0.00014,0.00045,1e-05,0.00013000000000000002,-2e-05,1e-05,2
6410,6681,-9e-05,-2e-05,0.00014,0.00045,1e-05,0.00013000000000000002,-2e-05,1e-05,2
6411,6682,-9e-05,-2e-05,0.00014,0.00045,1e-05,0.00013000000000000002,-2e-05,1e-05,2
6412,6683,-9e-05,-2e-05,0.00014,0.00045,1e-05,0.00013000000000000002,-2e-05,1e-05,2
6413,6684,-9e-05,-2e-05,0.00014,0.00045,1e-05,0.00013000000000000002,-2e-05,1e-05,2
6414,6685,-9e-05,-2e-05,0.00014,0.00045,1e-05,0.00013000000000000002,-2e-05,1e-05,2
6415,6686,-9e-05,-2e-05,0.00014,0.00045,1e-05,0.00013000000000000002,-2e-05,1e-05,2
6416,6688,-5e-05,-5.9999999999999995e-05,-2e-05,0.00041,7e-05,0.00014,-2.9999999999999997e-05,-8e-05,2
6417,6689,-5e-05,-5.9999999999999995e-05,-2e-05,0.00041,7e-05,0.00014,-2.9999999999999997e-05,-8e-05,2
6418,6690,-5e-05,-5.9999999999999995e-05,-2e-05,0.00041,7e-05,0.00014,-2.9999999999999997e-05,-8e-05,2
6419,6691,-5e-05,-5.9999999999999995e-05,-2e-05,0.00041,7e-05,0.00014,-2.9999999999999997e-05,-8e-05,2
6420,6692,-5e-05,-5.9999999999999995e-05,-2e-05,0.00041,7e-05,0.00014,-2.9999999999999997e-05,-8e-05,2
6421,6693,-5e-05,-5.9999999999999995e-05,-2e-05,0.00041,7e-05,0.00014,-2.9999999999999997e-05,-8e-05,2
6422,6694,-5e-05,-5.9999999999999995e-05,-2e-05,0.00041,7e-05,0.00014,-2.9999999999999997e-05,-8e-05,2
6423,6695,-5e-05,-5.9999999999999995e-05,-2e-05,0.00041,7e-05,0.00014,-2.9999999999999997e-05,-8e-05,2
6424,6696,-5e-05,-5.9999999999999995e-05,-2e-05,0.00041,7e-05,0.00014,-2.9999999999999997e-05,-8e-05,2
6425,6697,-5e-05,-5.9999999999999995e-05,-2e-05,0.00041,7e-05,0.00014,-2.9999999999999997e-05,-8e-05,2
6426,6698,-5e-05,-5.9999999999999995e-05,-2e-05,0.00041,7e-05,0.00014,-2.9999999999999997e-05,-8e-05,2
6427,6699,-5e-05,-5.9999999999999995e-05,-2e-05,0.00041,7e-05,0.00014,-2.9999999999999997e-05,-8e-05,2
6428,6700,-5e-05,-5.9999999999999995e-05,-2e-05,0.00041,7e-05,0.00014,-2.9999999999999997e-05,-8e-05,2
6429,6701,-5e-05,-5.9999999999999995e-05,-2e-05,0.00041,7e-05,0.00014,-2.9999999999999997e-05,-8e-05,2
6430,6702,-5e-05,-5.9999999999999995e-05,-2e-05,0.00041,7e-05,0.00014,-2.9999999999999997e-05,-8e-05,2
6431,6703,-5e-05,-5.9999999999999995e-05,-2e-05,0.00041,7e-05,0.00014,-2.9999999999999997e-05,-8e-05,2
6432,6704,-0.00018,-0.00018999999999999998,-0.00025,2.9999999999999997e-05,0.0,-0.00015,0.00016999999999999999,-0.00011,2
6433,6705,-0.00018,-0.00018999999999999998,-0.00025,2.9999999999999997e-05,0.0,-0.00015,0.00016999999999999999,-0.00011,2
6434,6706,-0.00018,-0.00018999999999999998,-0.00025,2.9999999999999997e-05,0.0,-0.00015,0.00016999999999999999,-0.00011,2
6435,6707,-0.00018,-0.00018999999999999998,-0.00025,2.9999999999999997e-05,0.0,-0.00015,0.00016999999999999999,-0.00011,2
6436,6708,-0.00018,-0.00018999999999999998,-0.00025,2.9999999999999997e-05,0.0,-0.00015,0.00016999999999999999,-0.00011,2
6437,6709,2.9999999999999997e-05,-0.00018999999999999998,-0.00047000000000000004,-0.00086,-8e-05,-0.00014,-0.00025,-0.00011,2
6438,6711,2.9999999999999997e-05,-0.00018999999999999998,-0.00047000000000000004,-0.00086,-8e-05,-0.00014,-0.00025,-0.00011,2
6439,6712,2.9999999999999997e-05,-0.00018999999999999998,-0.00047000000000000004,-0.00086,-8e-05,-0.00014,-0.00025,-0.00011,2
6440,6713,2.9999999999999997e-05,-0.00018999999999999998,-0.00047000000000000004,-0.00086,-8e-05,-0.00014,-0.00025,-0.00011,2
6441,6714,2.9999999999999997e-05,-0.00018999999999999998,-0.00047000000000000004,-0.00086,-8e-05,-0.00014,-0.00025,-0.00011,2
6442,6715,2.9999999999999997e-05,-0.00018999999999999998,-0.00047000000000000004,-0.00086,-8e-05,-0.00014,-0.00025,-0.00011,2
6443,6716,2.9999999999999997e-05,-0.00018999999999999998,-0.00047000000000000004,-0.00086,-8e-05,-0.00014,-0.00025,-0.00011,2
6444,6717,2.9999999999999997e-05,-0.00018999999999999998,-0.00047000000000000004,-0.00086,-8e-05,-0.00014,-0.00025,-0.00011,2
6445,6718,2.9999999999999997e-05,-0.00018999999999999998,-0.00047000000000000004,-0.00086,-8e-05,-0.00014,-0.00025,-0.00011,2
6446,6719,2.9999999999999997e-05,-0.00018999999999999998,-0.00047000000000000004,-0.00086,-8e-05,-0.00014,-0.00025,-0.00011,2
6447,6720,2.9999999999999997e-05,-0.00018999999999999998,-0.00047000000000000004,-0.00086,-8e-05,-0.00014,-0.00025,-0.00011,2
6448,6721,2.9999999999999997e-05,-0.00018999999999999998,-0.00047000000000000004,-0.00086,-8e-05,-0.00014,-0.00025,-0.00011,2
6449,6722,2.9999999999999997e-05,-0.00018999999999999998,-0.00047000000000000004,-0.00086,-8e-05,-0.00014,-0.00025,-0.00011,2
6450,6723,2.9999999999999997e-05,-0.00018999999999999998,-0.00047000000000000004,-0.00086,-8e-05,-0.00014,-0.00025,-0.00011,2
6451,6724,2.9999999999999997e-05,-0.00018999999999999998,-0.00047000000000000004,-0.00086,-8e-05,-0.00014,-0.00025,-0.00011,2
6452,6725,2.9999999999999997e-05,-0.00018999999999999998,-0.00047000000000000004,-0.00086,-8e-05,-0.00014,-0.00025,-0.00011,2
6453,6726,0.0001,0.00016,0.00037,0.0005099999999999999,-8e-05,-0.00018,-9e-05,5e-05,2
6454,6727,0.0001,0.00016,0.00037,0.0005099999999999999,-8e-05,-0.00018,-9e-05,5e-05,2
6455,6728,0.00016,8e-05,0.00022999999999999998,0.00027,-4e-05,-9e-05,1e-05,0.00011999999999999999,2
6456,6729,0.00016,8e-05,0.00022999999999999998,0.00027,-4e-05,-9e-05,1e-05,0.00011999999999999999,2
6457,6730,0.00016,8e-05,0.00022999999999999998,0.00027,-4e-05,-9e-05,1e-05,0.00011999999999999999,2
6458,6731,0.00016,8e-05,0.00022999999999999998,0.00027,-4e-05,-9e-05,1e-05,0.00011999999999999999,2
6459,6732,0.00016,8e-05,0.00022999999999999998,0.00027,-4e-05,-9e-05,1e-05,0.00011999999999999999,2
6460,6733,0.00016,8e-05,0.00022999999999999998,0.00027,-4e-05,-9e-05,1e-05,0.00011999999999999999,2
6461,6734,0.00016,8e-05,0.00022999999999999998,0.00027,-4e-05,-9e-05,1e-05,0.00011999999999999999,2
6462,6735,0.00016,8e-05,0.00022999999999999998,0.00027,-4e-05,-9e-05,1e-05,0.00011999999999999999,2
6463,6736,0.00016,8e-05,0.00022999999999999998,0.00027,-4e-05,-9e-05,1e-05,0.00011999999999999999,2
6464,6738,0.00016,8e-05,0.00022999999999999998,0.00027,-4e-05,-9e-05,1e-05,0.00011999999999999999,2
6465,6739,2.9999999999999997e-05,-2.9999999999999997e-05,-0.00014,-0.00036,-2e-05,-0.00011,-0.00037999999999999997,-7e-05,2
6466,6740,2.9999999999999997e-05,-2.9999999999999997e-05,-0.00014,-0.00036,-2e-05,-0.00011,-0.00037999999999999997,-7e-05,2
6467,6741,2.9999999999999997e-05,-2.9999999999999997e-05,-0.00014,-0.00036,-2e-05,-0.00011,-0.00037999999999999997,-7e-05,2
6468,6742,2.9999999999999997e-05,-2.9999999999999997e-05,-0.00014,-0.00036,-2e-05,-0.00011,-0.00037999999999999997,-7e-05,2
6469,6743,2.9999999999999997e-05,-2.9999999999999997e-05,-0.00014,-0.00036,-2e-05,-0.00011,-0.00037999999999999997,-7e-05,2
6470,6744,2.9999999999999997e-05,-2.9999999999999997e-05,-0.00014,-0.00036,-2e-05,-0.00011,-0.00037999999999999997,-7e-05,2
6471,6745,2.9999999999999997e-05,-2.9999999999999997e-05,-0.00014,-0.00036,-2e-05,-0.00011,-0.00037999999999999997,-7e-05,2
6472,6746,2.9999999999999997e-05,-2.9999999999999997e-05,-0.00014,-0.00036,-2e-05,-0.00011,-0.00037999999999999997,-7e-05,2
6473,6747,2.9999999999999997e-05,-2.9999999999999997e-05,-0.00014,-0.00036,-2e-05,-0.00011,-0.00037999999999999997,-7e-05,2
6474,6748,0.0003,0.0,-2e-05,9e-05,-5.9999999999999995e-05,-0.00011999999999999999,-1e-05,1e-05,2
6475,6749,0.0003,0.0,-2e-05,9e-05,-5.9999999999999995e-05,-0.00011999999999999999,-1e-05,1e-05,2
6476,6750,0.0003,0.0,-2e-05,9e-05,-5.9999999999999995e-05,-0.00011999999999999999,-1e-05,1e-05,2
6477,6751,0.0003,0.0,-2e-05,9e-05,-5.9999999999999995e-05,-0.00011999999999999999,-1e-05,1e-05,2
6478,6752,0.0003,0.0,-2e-05,9e-05,-5.9999999999999995e-05,-0.00011999999999999999,-1e-05,1e-05,2
6479,6753,0.0003,0.0,-2e-05,9e-05,-5.9999999999999995e-05,-0.00011999999999999999,-1e-05,1e-05,2
6480,6754,0.0003,0.0,-2e-05,9e-05,-5.9999999999999995e-05,-0.00011999999999999999,-1e-05,1e-05,2
6481,6755,0.0003,0.0,-2e-05,9e-05,-5.9999999999999995e-05,-0.00011999999999999999,-1e-05,1e-05,2
6482,6756,0.0003,0.0,-2e-05,9e-05,-5.9999999999999995e-05,-0.00011999999999999999,-1e-05,1e-05,2
6483,6757,0.0003,0.0,-2e-05,9e-05,-5.9999999999999995e-05,-0.00011999999999999999,-1e-05,1e-05,2
6484,6758,0.0003,0.0,-2e-05,9e-05,-5.9999999999999995e-05,-0.00011999999999999999,-1e-05,1e-05,2
6485,6759,0.0003,0.0,-2e-05,9e-05,-5.9999999999999995e-05,-0.00011999999999999999,-1e-05,1e-05,2
6486,6760,0.0003,0.0,-2e-05,9e-05,-5.9999999999999995e-05,-0.00011999999999999999,-1e-05,1e-05,2
6487,6761,0.0003,0.0,-2e-05,9e-05,-5.9999999999999995e-05,-0.00011999999999999999,-1e-05,1e-05,2
6488,6762,0.0003,0.0,-2e-05,9e-05,-5.9999999999999995e-05,-0.00011999999999999999,-1e-05,1e-05,2
6489,6763,-0.00018999999999999998,-0.0001,-9e-05,0.00021,8e-05,0.0002,7e-05,-7e-05,2
6490,6764,-0.00018999999999999998,-0.0001,-9e-05,0.00021,8e-05,0.0002,7e-05,-7e-05,2
6491,6765,2.9999999999999997e-05,-5e-05,-0.00026000000000000003,-0.00033999999999999997,-1e-05,8e-05,-0.00027,9e-05,2
6492,6766,2.9999999999999997e-05,-5e-05,-0.00026000000000000003,-0.00033999999999999997,-1e-05,8e-05,-0.00027,9e-05,2
6493,6767,2.9999999999999997e-05,-5e-05,-0.00026000000000000003,-0.00033999999999999997,-1e-05,8e-05,-0.00027,9e-05,2
6494,6768,2.9999999999999997e-05,-5e-05,-0.00026000000000000003,-0.00033999999999999997,-1e-05,8e-05,-0.00027,9e-05,2
6495,6769,2.9999999999999997e-05,-5e-05,-0.00026000000000000003,-0.00033999999999999997,-1e-05,8e-05,-0.00027,9e-05,2
6496,6770,2.9999999999999997e-05,-5e-05,-0.00026000000000000003,-0.00033999999999999997,-1e-05,8e-05,-0.00027,9e-05,2
6497,6771,2.9999999999999997e-05,-5e-05,-0.00026000000000000003,-0.00033999999999999997,-1e-05,8e-05,-0.00027,9e-05,2
6498,6772,2.9999999999999997e-05,-5e-05,-0.00026000000000000003,-0.00033999999999999997,-1e-05,8e-05,-0.00027,9e-05,2
6499,6773,2.9999999999999997e-05,-5e-05,-0.00026000000000000003,-0.00033999999999999997,-1e-05,8e-05,-0.00027,9e-05,2
6500,6774,2.9999999999999997e-05,-5e-05,-0.00026000000000000003,-0.00033999999999999997,-1e-05,8e-05,-0.00027,9e-05,2
6501,6775,2.9999999999999997e-05,-5e-05,-0.00026000000000000003,-0.00033999999999999997,-1e-05,8e-05,-0.00027,9e-05,2
6502,6776,2.9999999999999997e-05,-5e-05,-0.00026000000000000003,-0.00033999999999999997,-1e-05,8e-05,-0.00027,9e-05,2
6503,6777,2.9999999999999997e-05,-5e-05,-0.00026000000000000003,-0.00033999999999999997,-1e-05,8e-05,-0.00027,9e-05,2
6504,6778,2.9999999999999997e-05,-5e-05,-0.00026000000000000003,-0.00033999999999999997,-1e-05,8e-05,-0.00027,9e-05,2
6505,6779,2.9999999999999997e-05,-5e-05,-0.00026000000000000003,-0.00033999999999999997,-1e-05,8e-05,-0.00027,9e-05,2
6506,6780,2.9999999999999997e-05,-5e-05,-0.00026000000000000003,-0.00033999999999999997,-1e-05,8e-05,-0.00027,9e-05,2
6507,6781,2.9999999999999997e-05,-5e-05,-0.00026000000000000003,-0.00033999999999999997,-1e-05,8e-05,-0.00027,9e-05,2
6508,6782,2.9999999999999997e-05,-5e-05,-0.00026000000000000003,-0.00033999999999999997,-1e-05,8e-05,-0.00027,9e-05,2
6509,6783,2.9999999999999997e-05,-5e-05,-0.00026000000000000003,-0.00033999999999999997,-1e-05,8e-05,-0.00027,9e-05,2
6510,6784,2.9999999999999997e-05,-5e-05,-0.00026000000000000003,-0.00033999999999999997,-1e-05,8e-05,-0.00027,9e-05,2
6511,6785,2.9999999999999997e-05,-5e-05,-0.00026000000000000003,-0.00033999999999999997,-1e-05,8e-05,-0.00027,9e-05,2
6512,6786,0.0001,-4e-05,-0.00014,-0.00095,-8e-05,-1e-05,-0.00011999999999999999,5e-05,2
6513,6789,0.00063,5.9999999999999995e-05,0.00018,0.00022999999999999998,0.0,-2.9999999999999997e-05,0.00015,5e-05,2
6514,6790,0.00063,5.9999999999999995e-05,0.00018,0.00022999999999999998,0.0,-2.9999999999999997e-05,0.00015,5e-05,2
6515,6791,0.00063,5.9999999999999995e-05,0.00018,0.00022999999999999998,0.0,-2.9999999999999997e-05,0.00015,5e-05,2
6516,6792,0.00063,5.9999999999999995e-05,0.00018,0.00022999999999999998,0.0,-2.9999999999999997e-05,0.00015,5e-05,2
6517,6793,0.00063,5.9999999999999995e-05,0.00018,0.00022999999999999998,0.0,-2.9999999999999997e-05,0.00015,5e-05,2
6518,6794,0.00063,5.9999999999999995e-05,0.00018,0.00022999999999999998,0.0,-2.9999999999999997e-05,0.00015,5e-05,2
6519,6795,0.00063,5.9999999999999995e-05,0.00018,0.00022999999999999998,0.0,-2.9999999999999997e-05,0.00015,5e-05,2
6520,6796,0.00063,5.9999999999999995e-05,0.00018,0.00022999999999999998,0.0,-2.9999999999999997e-05,0.00015,5e-05,2
6521,6797,0.00063,5.9999999999999995e-05,0.00018,0.00022999999999999998,0.0,-2.9999999999999997e-05,0.00015,5e-05,2
6522,6798,0.00063,5.9999999999999995e-05,0.00018,0.00022999999999999998,0.0,-2.9999999999999997e-05,0.00015,5e-05,2
6523,6799,5e-05,7e-05,0.00016999999999999999,-0.00011999999999999999,2.9999999999999997e-05,0.00029,0.00021,0.0001,2
6524,6800,5e-05,7e-05,0.00016999999999999999,-0.00011999999999999999,2.9999999999999997e-05,0.00029,0.00021,0.0001,2
6525,6801,5e-05,7e-05,0.00016999999999999999,-0.00011999999999999999,2.9999999999999997e-05,0.00029,0.00021,0.0001,2
6526,6802,5e-05,7e-05,0.00016999999999999999,-0.00011999999999999999,2.9999999999999997e-05,0.00029,0.00021,0.0001,2
6527,6803,5e-05,7e-05,0.00016999999999999999,-0.00011999999999999999,2.9999999999999997e-05,0.00029,0.00021,0.0001,2
6528,6804,5e-05,7e-05,0.00016999999999999999,-0.00011999999999999999,2.9999999999999997e-05,0.00029,0.00021,0.0001,2
6529,6805,5e-05,7e-05,0.00016999999999999999,-0.00011999999999999999,2.9999999999999997e-05,0.00029,0.00021,0.0001,2
6530,6806,5e-05,7e-05,0.00016999999999999999,-0.00011999999999999999,2.9999999999999997e-05,0.00029,0.00021,0.0001,2
6531,6807,5e-05,7e-05,0.00016999999999999999,-0.00011999999999999999,2.9999999999999997e-05,0.00029,0.00021,0.0001,2
6532,6808,-0.00018,-4e-05,-0.00023999999999999998,-0.00039,-0.00011,-0.00016,-0.0002,-2e-05,2
6533,6809,-0.00018,-4e-05,-0.00023999999999999998,-0.00039,-0.00011,-0.00016,-0.0002,-2e-05,2
6534,6810,-0.00018,-4e-05,-0.00023999999999999998,-0.00039,-0.00011,-0.00016,-0.0002,-2e-05,2
6535,6811,-0.00018,-4e-05,-0.00023999999999999998,-0.00039,-0.00011,-0.00016,-0.0002,-2e-05,2
6536,6812,-0.00018,-4e-05,-0.00023999999999999998,-0.00039,-0.00011,-0.00016,-0.0002,-2e-05,2
6537,6813,-0.00018,-4e-05,-0.00023999999999999998,-0.00039,-0.00011,-0.00016,-0.0002,-2e-05,2
6538,6814,-0.00018,-4e-05,-0.00023999999999999998,-0.00039,-0.00011,-0.00016,-0.0002,-2e-05,2
6539,6815,-0.00018,-4e-05,-0.00023999999999999998,-0.00039,-0.00011,-0.00016,-0.0002,-2e-05,2
6540,6816,-0.00018,-4e-05,-0.00023999999999999998,-0.00039,-0.00011,-0.00016,-0.0002,-2e-05,2
6541,6817,-0.00018,-4e-05,-0.00023999999999999998,-0.00039,-0.00011,-0.00016,-0.0002,-2e-05,2
6542,6818,-0.00018,-4e-05,-0.00023999999999999998,-0.00039,-0.00011,-0.00016,-0.0002,-2e-05,2
6543,6819,-0.00018,-4e-05,-0.00023999999999999998,-0.00039,-0.00011,-0.00016,-0.0002,-2e-05,2
6544,6820,-0.00018,-4e-05,-0.00023999999999999998,-0.00039,-0.00011,-0.00016,-0.0002,-2e-05,2
6545,6821,-0.00018,-4e-05,-0.00023999999999999998,-0.00039,-0.00011,-0.00016,-0.0002,-2e-05,2
6546,6822,-0.00018,-4e-05,-0.00023999999999999998,-0.00039,-0.00011,-0.00016,-0.0002,-2e-05,2
6547,6823,0.00011999999999999999,-4e-05,-0.00011999999999999999,-0.00016,1e-05,8e-05,-0.00014,4e-05,2
6548,6824,0.00011999999999999999,-4e-05,-0.00011999999999999999,-0.00016,1e-05,8e-05,-0.00014,4e-05,2
6549,6825,-0.00016,-5.9999999999999995e-05,0.0,0.0003,2.9999999999999997e-05,2.9999999999999997e-05,0.00018999999999999998,2e-05,2
6550,6826,-0.00016,-5.9999999999999995e-05,0.0,0.0003,2.9999999999999997e-05,2.9999999999999997e-05,0.00018999999999999998,2e-05,2
6551,6827,-0.00016,-5.9999999999999995e-05,0.0,0.0003,2.9999999999999997e-05,2.9999999999999997e-05,0.00018999999999999998,2e-05,2
6552,6828,-0.00016,-5.9999999999999995e-05,0.0,0.0003,2.9999999999999997e-05,2.9999999999999997e-05,0.00018999999999999998,2e-05,2
6553,6829,-0.00016,-5.9999999999999995e-05,0.0,0.0003,2.9999999999999997e-05,2.9999999999999997e-05,0.00018999999999999998,2e-05,2
6554,6830,-0.00016,-5.9999999999999995e-05,0.0,0.0003,2.9999999999999997e-05,2.9999999999999997e-05,0.00018999999999999998,2e-05,2
6555,6831,-0.00016,-5.9999999999999995e-05,0.0,0.0003,2.9999999999999997e-05,2.9999999999999997e-05,0.00018999999999999998,2e-05,2
6556,6832,-0.00016,-5.9999999999999995e-05,0.0,0.0003,2.9999999999999997e-05,2.9999999999999997e-05,0.00018999999999999998,2e-05,2
6557,6833,-0.00016,-5.9999999999999995e-05,0.0,0.0003,2.9999999999999997e-05,2.9999999999999997e-05,0.00018999999999999998,2e-05,2
6558,6834,-0.00016,-5.9999999999999995e-05,0.0,0.0003,2.9999999999999997e-05,2.9999999999999997e-05,0.00018999999999999998,2e-05,2
6559,6835,-0.00016,-5.9999999999999995e-05,0.0,0.0003,2.9999999999999997e-05,2.9999999999999997e-05,0.00018999999999999998,2e-05,2
6560,6836,-0.00016,-5.9999999999999995e-05,0.0,0.0003,2.9999999999999997e-05,2.9999999999999997e-05,0.00018999999999999998,2e-05,2
6561,6838,-0.00016,-5.9999999999999995e-05,0.0,0.0003,2.9999999999999997e-05,2.9999999999999997e-05,0.00018999999999999998,2e-05,2
6562,6839,-0.00016,-5.9999999999999995e-05,0.0,0.0003,2.9999999999999997e-05,2.9999999999999997e-05,0.00018999999999999998,2e-05,2
6563,6840,-0.00016,-5.9999999999999995e-05,0.0,0.0003,2.9999999999999997e-05,2.9999999999999997e-05,0.00018999999999999998,2e-05,2
6564,6841,-0.00016,-5.9999999999999995e-05,0.0,0.0003,2.9999999999999997e-05,2.9999999999999997e-05,0.00018999999999999998,2e-05,2
6565,6842,-0.00016,-5.9999999999999995e-05,0.0,0.0003,2.9999999999999997e-05,2.9999999999999997e-05,0.00018999999999999998,2e-05,2
6566,6843,-0.00016,-5.9999999999999995e-05,0.0,0.0003,2.9999999999999997e-05,2.9999999999999997e-05,0.00018999999999999998,2e-05,2
6567,6844,-0.00016,-5.9999999999999995e-05,0.0,0.0003,2.9999999999999997e-05,2.9999999999999997e-05,0.00018999999999999998,2e-05,2
6568,6845,-0.00016,-5.9999999999999995e-05,0.0,0.0003,2.9999999999999997e-05,2.9999999999999997e-05,0.00018999999999999998,2e-05,2
6569,6846,-0.00011,-0.00015,-0.00054,-0.00045999999999999996,-0.0001,-0.00011999999999999999,-0.00029,2.9999999999999997e-05,2
6570,6847,-2e-05,5.9999999999999995e-05,0.00027,0.00047999999999999996,0.00011999999999999999,0.00023999999999999998,5e-05,0.00015,2
6571,6848,-2e-05,5.9999999999999995e-05,0.00027,0.00047999999999999996,0.00011999999999999999,0.00023999999999999998,5e-05,0.00015,2
6572,6849,-2e-05,5.9999999999999995e-05,0.00027,0.00047999999999999996,0.00011999999999999999,0.00023999999999999998,5e-05,0.00015,2
6573,6850,-2e-05,5.9999999999999995e-05,0.00027,0.00047999999999999996,0.00011999999999999999,0.00023999999999999998,5e-05,0.00015,2
6574,6851,-2e-05,5.9999999999999995e-05,0.00027,0.00047999999999999996,0.00011999999999999999,0.00023999999999999998,5e-05,0.00015,2
6575,6852,-2e-05,5.9999999999999995e-05,0.00027,0.00047999999999999996,0.00011999999999999999,0.00023999999999999998,5e-05,0.00015,2
6576,6853,-2e-05,5.9999999999999995e-05,0.00027,0.00047999999999999996,0.00011999999999999999,0.00023999999999999998,5e-05,0.00015,2
6577,6854,-2e-05,5.9999999999999995e-05,0.00027,0.00047999999999999996,0.00011999999999999999,0.00023999999999999998,5e-05,0.00015,2
6578,6855,-2e-05,5.9999999999999995e-05,0.00027,0.00047999999999999996,0.00011999999999999999,0.00023999999999999998,5e-05,0.00015,2
6579,6856,-2e-05,5.9999999999999995e-05,0.00027,0.00047999999999999996,0.00011999999999999999,0.00023999999999999998,5e-05,0.00015,2
6580,6857,-2e-05,5.9999999999999995e-05,0.00027,0.00047999999999999996,0.00011999999999999999,0.00023999999999999998,5e-05,0.00015,2
6581,6858,-2e-05,5.9999999999999995e-05,0.00027,0.00047999999999999996,0.00011999999999999999,0.00023999999999999998,5e-05,0.00015,2
6582,6859,-0.0001,1e-05,-2e-05,-0.0002,-9e-05,-0.00028,-7e-05,8e-05,2
6583,6860,-0.0001,1e-05,-2e-05,-0.0002,-9e-05,-0.00028,-7e-05,8e-05,2
6584,6861,-0.0001,1e-05,-2e-05,-0.0002,-9e-05,-0.00028,-7e-05,8e-05,2
6585,6862,-0.0001,1e-05,-2e-05,-0.0002,-9e-05,-0.00028,-7e-05,8e-05,2
6586,6863,-0.0001,1e-05,-2e-05,-0.0002,-9e-05,-0.00028,-7e-05,8e-05,2
6587,6864,-0.0001,1e-05,-2e-05,-0.0002,-9e-05,-0.00028,-7e-05,8e-05,2
6588,6865,-0.0001,1e-05,-2e-05,-0.0002,-9e-05,-0.00028,-7e-05,8e-05,2
6589,6866,-0.0001,1e-05,-2e-05,-0.0002,-9e-05,-0.00028,-7e-05,8e-05,2
6590,6867,-0.0001,1e-05,-2e-05,-0.0002,-9e-05,-0.00028,-7e-05,8e-05,2
6591,6868,0.00028,-0.0001,-0.00015,-9e-05,2e-05,0.00014,0.00026000000000000003,2.9999999999999997e-05,2
6592,6869,-0.00015,-2e-05,-9e-05,-0.00027,-2.9999999999999997e-05,0.00014,4e-05,-0.00016,2
6593,6870,-0.00015,-2e-05,-9e-05,-0.00027,-2.9999999999999997e-05,0.00014,4e-05,-0.00016,2
6594,6871,-0.00015,-2e-05,-9e-05,-0.00027,-2.9999999999999997e-05,0.00014,4e-05,-0.00016,2
6595,6872,-0.00015,-2e-05,-9e-05,-0.00027,-2.9999999999999997e-05,0.00014,4e-05,-0.00016,2
6596,6873,-0.00015,-2e-05,-9e-05,-0.00027,-2.9999999999999997e-05,0.00014,4e-05,-0.00016,2
6597,6874,-0.00015,-2e-05,-9e-05,-0.00027,-2.9999999999999997e-05,0.00014,4e-05,-0.00016,2
6598,6875,-0.00015,-2e-05,-9e-05,-0.00027,-2.9999999999999997e-05,0.00014,4e-05,-0.00016,2
6599,6876,-0.00015,-2e-05,-9e-05,-0.00027,-2.9999999999999997e-05,0.00014,4e-05,-0.00016,2
6600,6878,-0.00015,-2e-05,-9e-05,-0.00027,-2.9999999999999997e-05,0.00014,4e-05,-0.00016,2
6601,6879,-0.00015,-2e-05,-9e-05,-0.00027,-2.9999999999999997e-05,0.00014,4e-05,-0.00016,2
6602,6880,-0.00015,-2e-05,-9e-05,-0.00027,-2.9999999999999997e-05,0.00014,4e-05,-0.00016,2
6603,6881,-0.00015,-2e-05,-9e-05,-0.00027,-2.9999999999999997e-05,0.00014,4e-05,-0.00016,2
6604,6882,-0.00015,-2e-05,-9e-05,-0.00027,-2.9999999999999997e-05,0.00014,4e-05,-0.00016,2
6605,6883,-4e-05,-2e-05,-9e-05,0.0004,7e-05,0.00011,-0.00018999999999999998,-4e-05,2
6606,6884,-4e-05,-2e-05,-9e-05,0.0004,7e-05,0.00011,-0.00018999999999999998,-4e-05,2
6607,6885,-0.00037,-2.9999999999999997e-05,-5.9999999999999995e-05,5.9999999999999995e-05,2e-05,9e-05,0.00022,-8e-05,2
6608,6886,-0.00037,-2.9999999999999997e-05,-5.9999999999999995e-05,5.9999999999999995e-05,2e-05,9e-05,0.00022,-8e-05,2
6609,6888,-0.00037,-2.9999999999999997e-05,-5.9999999999999995e-05,5.9999999999999995e-05,2e-05,9e-05,0.00022,-8e-05,2
6610,6889,-0.00037,-2.9999999999999997e-05,-5.9999999999999995e-05,5.9999999999999995e-05,2e-05,9e-05,0.00022,-8e-05,2
6611,6890,-0.00037,-2.9999999999999997e-05,-5.9999999999999995e-05,5.9999999999999995e-05,2e-05,9e-05,0.00022,-8e-05,2
6612,6891,-0.00037,-2.9999999999999997e-05,-5.9999999999999995e-05,5.9999999999999995e-05,2e-05,9e-05,0.00022,-8e-05,2
6613,6892,-0.00037,-2.9999999999999997e-05,-5.9999999999999995e-05,5.9999999999999995e-05,2e-05,9e-05,0.00022,-8e-05,2
6614,6893,-0.00037,-2.9999999999999997e-05,-5.9999999999999995e-05,5.9999999999999995e-05,2e-05,9e-05,0.00022,-8e-05,2
6615,6894,-0.00037,-2.9999999999999997e-05,-5.9999999999999995e-05,5.9999999999999995e-05,2e-05,9e-05,0.00022,-8e-05,2
6616,6895,-0.00037,-2.9999999999999997e-05,-5.9999999999999995e-05,5.9999999999999995e-05,2e-05,9e-05,0.00022,-8e-05,2
6617,6896,-0.00037,-2.9999999999999997e-05,-5.9999999999999995e-05,5.9999999999999995e-05,2e-05,9e-05,0.00022,-8e-05,2
6618,6897,-0.00037,-2.9999999999999997e-05,-5.9999999999999995e-05,5.9999999999999995e-05,2e-05,9e-05,0.00022,-8e-05,2
6619,6898,-0.00037,-2.9999999999999997e-05,-5.9999999999999995e-05,5.9999999999999995e-05,2e-05,9e-05,0.00022,-8e-05,2
6620,6899,-0.00037,-2.9999999999999997e-05,-5.9999999999999995e-05,5.9999999999999995e-05,2e-05,9e-05,0.00022,-8e-05,2
6621,6900,-0.00037,-2.9999999999999997e-05,-5.9999999999999995e-05,5.9999999999999995e-05,2e-05,9e-05,0.00022,-8e-05,2
6622,6901,-0.00037,-2.9999999999999997e-05,-5.9999999999999995e-05,5.9999999999999995e-05,2e-05,9e-05,0.00022,-8e-05,2
6623,6902,-0.00037,-2.9999999999999997e-05,-5.9999999999999995e-05,5.9999999999999995e-05,2e-05,9e-05,0.00022,-8e-05,2
6624,6903,-0.00037,-2.9999999999999997e-05,-5.9999999999999995e-05,5.9999999999999995e-05,2e-05,9e-05,0.00022,-8e-05,2
6625,6904,-0.00037,-2.9999999999999997e-05,-5.9999999999999995e-05,5.9999999999999995e-05,2e-05,9e-05,0.00022,-8e-05,2
6626,6905,-0.00037,-2.9999999999999997e-05,-5.9999999999999995e-05,5.9999999999999995e-05,2e-05,9e-05,0.00022,-8e-05,2
6627,6906,9e-05,0.0002,0.00067,0.001,5e-05,-1e-05,0.00028,4e-05,2
6628,6907,9e-05,0.0002,0.00067,0.001,5e-05,-1e-05,0.00028,4e-05,2
6629,6908,-1e-05,-5.9999999999999995e-05,2e-05,0.00018,-2.9999999999999997e-05,-0.00011999999999999999,0.00028,0.0,2
6630,6909,-1e-05,-5.9999999999999995e-05,2e-05,0.00018,-2.9999999999999997e-05,-0.00011999999999999999,0.00028,0.0,2
6631,6910,-1e-05,-5.9999999999999995e-05,2e-05,0.00018,-2.9999999999999997e-05,-0.00011999999999999999,0.00028,0.0,2
6632,6911,-1e-05,-5.9999999999999995e-05,2e-05,0.00018,-2.9999999999999997e-05,-0.00011999999999999999,0.00028,0.0,2
6633,6912,-1e-05,-5.9999999999999995e-05,2e-05,0.00018,-2.9999999999999997e-05,-0.00011999999999999999,0.00028,0.0,2
6634,6913,-1e-05,-5.9999999999999995e-05,2e-05,0.00018,-2.9999999999999997e-05,-0.00011999999999999999,0.00028,0.0,2
6635,6914,-1e-05,-5.9999999999999995e-05,2e-05,0.00018,-2.9999999999999997e-05,-0.00011999999999999999,0.00028,0.0,2
6636,6916,-1e-05,-5.9999999999999995e-05,2e-05,0.00018,-2.9999999999999997e-05,-0.00011999999999999999,0.00028,0.0,2
6637,6918,-1e-05,-5.9999999999999995e-05,2e-05,0.00018,-2.9999999999999997e-05,-0.00011999999999999999,0.00028,0.0,2
6638,6919,7e-05,-1e-05,2.9999999999999997e-05,0.00016999999999999999,5.9999999999999995e-05,0.00018999999999999998,0.00022,5.9999999999999995e-05,2
6639,6920,7e-05,-1e-05,2.9999999999999997e-05,0.00016999999999999999,5.9999999999999995e-05,0.00018999999999999998,0.00022,5.9999999999999995e-05,2
6640,6921,7e-05,-1e-05,2.9999999999999997e-05,0.00016999999999999999,5.9999999999999995e-05,0.00018999999999999998,0.00022,5.9999999999999995e-05,2
6641,6922,7e-05,-1e-05,2.9999999999999997e-05,0.00016999999999999999,5.9999999999999995e-05,0.00018999999999999998,0.00022,5.9999999999999995e-05,2
6642,6923,7e-05,-1e-05,2.9999999999999997e-05,0.00016999999999999999,5.9999999999999995e-05,0.00018999999999999998,0.00022,5.9999999999999995e-05,2
6643,6924,7e-05,-1e-05,2.9999999999999997e-05,0.00016999999999999999,5.9999999999999995e-05,0.00018999999999999998,0.00022,5.9999999999999995e-05,2
6644,6925,7e-05,-1e-05,2.9999999999999997e-05,0.00016999999999999999,5.9999999999999995e-05,0.00018999999999999998,0.00022,5.9999999999999995e-05,2
6645,6926,7e-05,-1e-05,2.9999999999999997e-05,0.00016999999999999999,5.9999999999999995e-05,0.00018999999999999998,0.00022,5.9999999999999995e-05,2
6646,6927,7e-05,-1e-05,2.9999999999999997e-05,0.00016999999999999999,5.9999999999999995e-05,0.00018999999999999998,0.00022,5.9999999999999995e-05,2
6647,6928,7e-05,-1e-05,2.9999999999999997e-05,0.00016999999999999999,5.9999999999999995e-05,0.00018999999999999998,0.00022,5.9999999999999995e-05,2
6648,6929,7e-05,-1e-05,2.9999999999999997e-05,0.00016999999999999999,5.9999999999999995e-05,0.00018999999999999998,0.00022,5.9999999999999995e-05,2
6649,6930,7e-05,-1e-05,2.9999999999999997e-05,0.00016999999999999999,5.9999999999999995e-05,0.00018999999999999998,0.00022,5.9999999999999995e-05,2
6650,6931,7e-05,-1e-05,2.9999999999999997e-05,0.00016999999999999999,5.9999999999999995e-05,0.00018999999999999998,0.00022,5.9999999999999995e-05,2
6651,6932,7e-05,-1e-05,2.9999999999999997e-05,0.00016999999999999999,5.9999999999999995e-05,0.00018999999999999998,0.00022,5.9999999999999995e-05,2
6652,6933,7e-05,-1e-05,2.9999999999999997e-05,0.00016999999999999999,5.9999999999999995e-05,0.00018999999999999998,0.00022,5.9999999999999995e-05,2
6653,6934,7e-05,-1e-05,2.9999999999999997e-05,0.00016999999999999999,5.9999999999999995e-05,0.00018999999999999998,0.00022,5.9999999999999995e-05,2
6654,6935,7e-05,-1e-05,2.9999999999999997e-05,0.00016999999999999999,5.9999999999999995e-05,0.00018999999999999998,0.00022,5.9999999999999995e-05,2
6655,6936,-4e-05,-1e-05,0.0,-8e-05,4e-05,-4e-05,0.00016999999999999999,-2e-05,2
6656,6938,-4e-05,-1e-05,0.0,-8e-05,4e-05,-4e-05,0.00016999999999999999,-2e-05,2
6657,6939,-4e-05,-1e-05,0.0,-8e-05,4e-05,-4e-05,0.00016999999999999999,-2e-05,2
6658,6940,-4e-05,-1e-05,0.0,-8e-05,4e-05,-4e-05,0.00016999999999999999,-2e-05,2
6659,6941,-4e-05,-1e-05,0.0,-8e-05,4e-05,-4e-05,0.00016999999999999999,-2e-05,2
6660,6942,-4e-05,-1e-05,0.0,-8e-05,4e-05,-4e-05,0.00016999999999999999,-2e-05,2
6661,6943,-0.00018,-8e-05,-0.00016999999999999999,-0.00023999999999999998,-4e-05,0.00016,7e-05,-5.9999999999999995e-05,2
6662,6944,-0.00018,-8e-05,-0.00016999999999999999,-0.00023999999999999998,-4e-05,0.00016,7e-05,-5.9999999999999995e-05,2
6663,6945,-0.00013000000000000002,-0.00013000000000000002,-0.00033999999999999997,-0.00061,-0.00011999999999999999,7e-05,-5e-05,1e-05,2
6664,6946,-0.00013000000000000002,-0.00013000000000000002,-0.00033999999999999997,-0.00061,-0.00011999999999999999,7e-05,-5e-05,1e-05,2
6665,6947,-0.00013000000000000002,-0.00013000000000000002,-0.00033999999999999997,-0.00061,-0.00011999999999999999,7e-05,-5e-05,1e-05,2
6666,6948,-0.00013000000000000002,-0.00013000000000000002,-0.00033999999999999997,-0.00061,-0.00011999999999999999,7e-05,-5e-05,1e-05,2
6667,6949,-0.00013000000000000002,-0.00013000000000000002,-0.00033999999999999997,-0.00061,-0.00011999999999999999,7e-05,-5e-05,1e-05,2
6668,6950,-0.00013000000000000002,-0.00013000000000000002,-0.00033999999999999997,-0.00061,-0.00011999999999999999,7e-05,-5e-05,1e-05,2
6669,6951,-0.00013000000000000002,-0.00013000000000000002,-0.00033999999999999997,-0.00061,-0.00011999999999999999,7e-05,-5e-05,1e-05,2
6670,6952,-0.00013000000000000002,-0.00013000000000000002,-0.00033999999999999997,-0.00061,-0.00011999999999999999,7e-05,-5e-05,1e-05,2
6671,6953,-0.00013000000000000002,-0.00013000000000000002,-0.00033999999999999997,-0.00061,-0.00011999999999999999,7e-05,-5e-05,1e-05,2
6672,6954,-0.00013000000000000002,-0.00013000000000000002,-0.00033999999999999997,-0.00061,-0.00011999999999999999,7e-05,-5e-05,1e-05,2
6673,6955,-0.00013000000000000002,-0.00013000000000000002,-0.00033999999999999997,-0.00061,-0.00011999999999999999,7e-05,-5e-05,1e-05,2
6674,6956,-0.00013000000000000002,-0.00013000000000000002,-0.00033999999999999997,-0.00061,-0.00011999999999999999,7e-05,-5e-05,1e-05,2
6675,6957,-0.00013000000000000002,-0.00013000000000000002,-0.00033999999999999997,-0.00061,-0.00011999999999999999,7e-05,-5e-05,1e-05,2
6676,6958,-0.00013000000000000002,-0.00013000000000000002,-0.00033999999999999997,-0.00061,-0.00011999999999999999,7e-05,-5e-05,1e-05,2
6677,6959,-0.00013000000000000002,-0.00013000000000000002,-0.00033999999999999997,-0.00061,-0.00011999999999999999,7e-05,-5e-05,1e-05,2
6678,6960,-0.00013000000000000002,-0.00013000000000000002,-0.00033999999999999997,-0.00061,-0.00011999999999999999,7e-05,-5e-05,1e-05,2
6679,6961,-0.00013000000000000002,-0.00013000000000000002,-0.00033999999999999997,-0.00061,-0.00011999999999999999,7e-05,-5e-05,1e-05,2
6680,6963,-0.00013000000000000002,-0.00013000000000000002,-0.00033999999999999997,-0.00061,-0.00011999999999999999,7e-05,-5e-05,1e-05,2
6681,6964,-0.00013000000000000002,-0.00013000000000000002,-0.00033999999999999997,-0.00061,-0.00011999999999999999,7e-05,-5e-05,1e-05,2
6682,6965,-0.00013000000000000002,-0.00013000000000000002,-0.00033999999999999997,-0.00061,-0.00011999999999999999,7e-05,-5e-05,1e-05,2
6683,6966,-5e-05,-9e-05,2.9999999999999997e-05,0.0001,0.0,-0.0001,9e-05,-2e-05,2
6684,6967,-5e-05,-9e-05,2.9999999999999997e-05,0.0001,0.0,-0.0001,9e-05,-2e-05,2
6685,6968,0.00011,0.00016,0.00041,0.00035,8e-05,-5.9999999999999995e-05,-0.00022,0.00011999999999999999,2
6686,6969,0.00011,0.00016,0.00041,0.00035,8e-05,-5.9999999999999995e-05,-0.00022,0.00011999999999999999,2
6687,6970,0.00011,0.00016,0.00041,0.00035,8e-05,-5.9999999999999995e-05,-0.00022,0.00011999999999999999,2
6688,6971,0.00011,0.00016,0.00041,0.00035,8e-05,-5.9999999999999995e-05,-0.00022,0.00011999999999999999,2
6689,6972,0.00011,0.00016,0.00041,0.00035,8e-05,-5.9999999999999995e-05,-0.00022,0.00011999999999999999,2
6690,6973,0.00011,0.00016,0.00041,0.00035,8e-05,-5.9999999999999995e-05,-0.00022,0.00011999999999999999,2
6691,6974,0.00011,0.00016,0.00041,0.00035,8e-05,-5.9999999999999995e-05,-0.00022,0.00011999999999999999,2
6692,6975,0.00011,0.00016,0.00041,0.00035,8e-05,-5.9999999999999995e-05,-0.00022,0.00011999999999999999,2
6693,6976,0.00011,0.00016,0.00041,0.00035,8e-05,-5.9999999999999995e-05,-0.00022,0.00011999999999999999,2
6694,6977,0.00011,0.00016,0.00041,0.00035,8e-05,-5.9999999999999995e-05,-0.00022,0.00011999999999999999,2
6695,6978,0.00011,0.00016,0.00041,0.00035,8e-05,-5.9999999999999995e-05,-0.00022,0.00011999999999999999,2
6696,6979,0.00011,0.00016,0.00041,0.00035,8e-05,-5.9999999999999995e-05,-0.00022,0.00011999999999999999,2
6697,6980,0.00011,0.00016,0.00041,0.00035,8e-05,-5.9999999999999995e-05,-0.00022,0.00011999999999999999,2
6698,6981,0.00011,0.00016,0.00041,0.00035,8e-05,-5.9999999999999995e-05,-0.00022,0.00011999999999999999,2
6699,6982,0.00011,0.00016,0.00041,0.00035,8e-05,-5.9999999999999995e-05,-0.00022,0.00011999999999999999,2
6700,6983,0.00011,0.00016,0.00041,0.00035,8e-05,-5.9999999999999995e-05,-0.00022,0.00011999999999999999,2
6701,6984,0.00011,0.00016,0.00041,0.00035,8e-05,-5.9999999999999995e-05,-0.00022,0.00011999999999999999,2
6702,6985,0.00011,0.00016,0.00041,0.00035,8e-05,-5.9999999999999995e-05,-0.00022,0.00011999999999999999,2
6703,6986,0.00011,0.00016,0.00041,0.00035,8e-05,-5.9999999999999995e-05,-0.00022,0.00011999999999999999,2
6704,6988,-0.00015,0.0,5.9999999999999995e-05,0.00011999999999999999,5.9999999999999995e-05,8e-05,0.0001,-5e-05,2
6705,6989,7e-05,7e-05,0.00025,0.0005200000000000001,-5.9999999999999995e-05,-5.9999999999999995e-05,-0.00018,-4e-05,2
6706,6990,-0.0002,-2e-05,-0.00018,-7e-05,7e-05,-4e-05,-0.00016999999999999999,-0.00018999999999999998,2
6707,6991,-0.0002,-2e-05,-0.00018,-7e-05,7e-05,-4e-05,-0.00016999999999999999,-0.00018999999999999998,2
6708,6992,-0.0002,-2e-05,-0.00018,-7e-05,7e-05,-4e-05,-0.00016999999999999999,-0.00018999999999999998,2
6709,6993,-0.0002,-2e-05,-0.00018,-7e-05,7e-05,-4e-05,-0.00016999999999999999,-0.00018999999999999998,2
6710,6994,-0.0002,-2e-05,-0.00018,-7e-05,7e-05,-4e-05,-0.00016999999999999999,-0.00018999999999999998,2
6711,6995,-0.0002,-2e-05,-0.00018,-7e-05,7e-05,-4e-05,-0.00016999999999999999,-0.00018999999999999998,2
6712,6996,-0.0002,-2e-05,-0.00018,-7e-05,7e-05,-4e-05,-0.00016999999999999999,-0.00018999999999999998,2
6713,6997,-0.0002,-2e-05,-0.00018,-7e-05,7e-05,-4e-05,-0.00016999999999999999,-0.00018999999999999998,2
6714,6998,-0.0002,-2e-05,-0.00018,-7e-05,7e-05,-4e-05,-0.00016999999999999999,-0.00018999999999999998,2
6715,6999,-0.0002,-2e-05,-0.00018,-7e-05,7e-05,-4e-05,-0.00016999999999999999,-0.00018999999999999998,2
6716,7000,-0.0002,-2e-05,-0.00018,-7e-05,7e-05,-4e-05,-0.00016999999999999999,-0.00018999999999999998,2
6717,7001,-0.0002,-2e-05,-0.00018,-7e-05,7e-05,-4e-05,-0.00016999999999999999,-0.00018999999999999998,2
6718,7002,-0.0002,-2e-05,-0.00018,-7e-05,7e-05,-4e-05,-0.00016999999999999999,-0.00018999999999999998,2
6719,7003,0.00011,2.9999999999999997e-05,-0.00023999999999999998,-0.00045,-5.9999999999999995e-05,-0.00018,5e-05,-0.00022,2
6720,7004,0.00011,2.9999999999999997e-05,-0.00023999999999999998,-0.00045,-5.9999999999999995e-05,-0.00018,5e-05,-0.00022,2
6721,7005,-5e-05,-7e-05,-4e-05,-2.9999999999999997e-05,-5e-05,5e-05,2.9999999999999997e-05,-1e-05,2
6722,7006,-5e-05,-7e-05,-4e-05,-2.9999999999999997e-05,-5e-05,5e-05,2.9999999999999997e-05,-1e-05,2
6723,7007,-5e-05,-7e-05,-4e-05,-2.9999999999999997e-05,-5e-05,5e-05,2.9999999999999997e-05,-1e-05,2
6724,7008,-5e-05,-7e-05,-4e-05,-2.9999999999999997e-05,-5e-05,5e-05,2.9999999999999997e-05,-1e-05,2
6725,7009,-5e-05,-7e-05,-4e-05,-2.9999999999999997e-05,-5e-05,5e-05,2.9999999999999997e-05,-1e-05,2
6726,7010,-5e-05,-7e-05,-4e-05,-2.9999999999999997e-05,-5e-05,5e-05,2.9999999999999997e-05,-1e-05,2
6727,7011,-5e-05,-7e-05,-4e-05,-2.9999999999999997e-05,-5e-05,5e-05,2.9999999999999997e-05,-1e-05,2
6728,7012,-5e-05,-7e-05,-4e-05,-2.9999999999999997e-05,-5e-05,5e-05,2.9999999999999997e-05,-1e-05,2
6729,7013,-5e-05,-7e-05,-4e-05,-2.9999999999999997e-05,-5e-05,5e-05,2.9999999999999997e-05,-1e-05,2
6730,7014,-5e-05,-7e-05,-4e-05,-2.9999999999999997e-05,-5e-05,5e-05,2.9999999999999997e-05,-1e-05,2
6731,7015,-5e-05,-7e-05,-4e-05,-2.9999999999999997e-05,-5e-05,5e-05,2.9999999999999997e-05,-1e-05,2
6732,7016,-5e-05,-7e-05,-4e-05,-2.9999999999999997e-05,-5e-05,5e-05,2.9999999999999997e-05,-1e-05,2
6733,7017,-5e-05,-7e-05,-4e-05,-2.9999999999999997e-05,-5e-05,5e-05,2.9999999999999997e-05,-1e-05,2
6734,7018,-5e-05,-7e-05,-4e-05,-2.9999999999999997e-05,-5e-05,5e-05,2.9999999999999997e-05,-1e-05,2
6735,7019,-5e-05,-7e-05,-4e-05,-2.9999999999999997e-05,-5e-05,5e-05,2.9999999999999997e-05,-1e-05,2
6736,7020,-5e-05,-7e-05,-4e-05,-2.9999999999999997e-05,-5e-05,5e-05,2.9999999999999997e-05,-1e-05,2
6737,7021,-5e-05,-7e-05,-4e-05,-2.9999999999999997e-05,-5e-05,5e-05,2.9999999999999997e-05,-1e-05,2
6738,7022,-5e-05,-7e-05,-4e-05,-2.9999999999999997e-05,-5e-05,5e-05,2.9999999999999997e-05,-1e-05,2
6739,7023,-5e-05,-7e-05,-4e-05,-2.9999999999999997e-05,-5e-05,5e-05,2.9999999999999997e-05,-1e-05,2
6740,7024,-5e-05,-7e-05,-4e-05,-2.9999999999999997e-05,-5e-05,5e-05,2.9999999999999997e-05,-1e-05,2
6741,7025,-5e-05,-7e-05,-4e-05,-2.9999999999999997e-05,-5e-05,5e-05,2.9999999999999997e-05,-1e-05,2
6742,7026,-0.0001,-0.00013000000000000002,-0.00022,-0.00028,-0.00011,-0.00031,-7e-05,5e-05,2
6743,7027,-0.0001,-0.00013000000000000002,-0.00022,-0.00028,-0.00011,-0.00031,-7e-05,5e-05,2
6744,7028,0.00011999999999999999,-5e-05,-5e-05,-2e-05,-4e-05,-0.00016,8e-05,0.00011,2
6745,7029,0.00011999999999999999,-5e-05,-5e-05,-2e-05,-4e-05,-0.00016,8e-05,0.00011,2
6746,7030,0.00011999999999999999,-5e-05,-5e-05,-2e-05,-4e-05,-0.00016,8e-05,0.00011,2
6747,7031,0.00011999999999999999,-5e-05,-5e-05,-2e-05,-4e-05,-0.00016,8e-05,0.00011,2
6748,7032,0.00011999999999999999,-5e-05,-5e-05,-2e-05,-4e-05,-0.00016,8e-05,0.00011,2
6749,7033,0.00011999999999999999,-5e-05,-5e-05,-2e-05,-4e-05,-0.00016,8e-05,0.00011,2
6750,7034,0.00011999999999999999,-5e-05,-5e-05,-2e-05,-4e-05,-0.00016,8e-05,0.00011,2
6751,7035,0.00011999999999999999,-5e-05,-5e-05,-2e-05,-4e-05,-0.00016,8e-05,0.00011,2
6752,7036,0.00011999999999999999,-5e-05,-5e-05,-2e-05,-4e-05,-0.00016,8e-05,0.00011,2
6753,7038,0.00011999999999999999,-5e-05,-5e-05,-2e-05,-4e-05,-0.00016,8e-05,0.00011,2
6754,7039,-0.00014,-7e-05,-0.00011999999999999999,-0.00011999999999999999,-7e-05,-8e-05,-7e-05,-7e-05,2
6755,7041,-0.00014,-7e-05,-0.00011999999999999999,-0.00011999999999999999,-7e-05,-8e-05,-7e-05,-7e-05,2
6756,7042,-0.00014,-7e-05,-0.00011999999999999999,-0.00011999999999999999,-7e-05,-8e-05,-7e-05,-7e-05,2
6757,7043,-0.00014,-7e-05,-0.00011999999999999999,-0.00011999999999999999,-7e-05,-8e-05,-7e-05,-7e-05,2
6758,7044,-0.00014,-7e-05,-0.00011999999999999999,-0.00011999999999999999,-7e-05,-8e-05,-7e-05,-7e-05,2
6759,7045,-0.00014,-7e-05,-0.00011999999999999999,-0.00011999999999999999,-7e-05,-8e-05,-7e-05,-7e-05,2
6760,7046,-0.00014,-7e-05,-0.00011999999999999999,-0.00011999999999999999,-7e-05,-8e-05,-7e-05,-7e-05,2
6761,7047,-0.00014,-7e-05,-0.00011999999999999999,-0.00011999999999999999,-7e-05,-8e-05,-7e-05,-7e-05,2
6762,7048,-1e-05,-0.00011,-0.00049,-0.00047000000000000004,8e-05,-2e-05,-0.00016999999999999999,-4e-05,2
6763,7049,-1e-05,-0.00011,-0.00049,-0.00047000000000000004,8e-05,-2e-05,-0.00016999999999999999,-4e-05,2
6764,7050,-1e-05,-0.00011,-0.00049,-0.00047000000000000004,8e-05,-2e-05,-0.00016999999999999999,-4e-05,2
6765,7051,-1e-05,-0.00011,-0.00049,-0.00047000000000000004,8e-05,-2e-05,-0.00016999999999999999,-4e-05,2
6766,7052,-1e-05,-0.00011,-0.00049,-0.00047000000000000004,8e-05,-2e-05,-0.00016999999999999999,-4e-05,2
6767,7053,-1e-05,-0.00011,-0.00049,-0.00047000000000000004,8e-05,-2e-05,-0.00016999999999999999,-4e-05,2
6768,7054,-1e-05,-0.00011,-0.00049,-0.00047000000000000004,8e-05,-2e-05,-0.00016999999999999999,-4e-05,2
6769,7055,-1e-05,-0.00011,-0.00049,-0.00047000000000000004,8e-05,-2e-05,-0.00016999999999999999,-4e-05,2
6770,7056,-1e-05,-0.00011,-0.00049,-0.00047000000000000004,8e-05,-2e-05,-0.00016999999999999999,-4e-05,2
6771,7057,-1e-05,-0.00011,-0.00049,-0.00047000000000000004,8e-05,-2e-05,-0.00016999999999999999,-4e-05,2
6772,7058,-1e-05,-0.00011,-0.00049,-0.00047000000000000004,8e-05,-2e-05,-0.00016999999999999999,-4e-05,2
6773,7059,-1e-05,-0.00011,-0.00049,-0.00047000000000000004,8e-05,-2e-05,-0.00016999999999999999,-4e-05,2
6774,7060,-1e-05,-0.00011,-0.00049,-0.00047000000000000004,8e-05,-2e-05,-0.00016999999999999999,-4e-05,2
6775,7061,-1e-05,-0.00011,-0.00049,-0.00047000000000000004,8e-05,-2e-05,-0.00016999999999999999,-4e-05,2
6776,7062,-1e-05,-0.00011,-0.00049,-0.00047000000000000004,8e-05,-2e-05,-0.00016999999999999999,-4e-05,2
6777,7063,-0.00032,-0.0001,-0.00018999999999999998,-0.00042,2.9999999999999997e-05,0.00027,0.00022,-2.9999999999999997e-05,2
6778,7064,-0.00032,-0.0001,-0.00018999999999999998,-0.00042,2.9999999999999997e-05,0.00027,0.00022,-2.9999999999999997e-05,2
6779,7065,0.00016999999999999999,8e-05,0.00032,0.00059,-4e-05,-9e-05,0.00016,-1e-05,2
6780,7066,0.00016999999999999999,8e-05,0.00032,0.00059,-4e-05,-9e-05,0.00016,-1e-05,2
6781,7067,0.00016999999999999999,8e-05,0.00032,0.00059,-4e-05,-9e-05,0.00016,-1e-05,2
6782,7068,0.00016999999999999999,8e-05,0.00032,0.00059,-4e-05,-9e-05,0.00016,-1e-05,2
6783,7069,0.00016999999999999999,8e-05,0.00032,0.00059,-4e-05,-9e-05,0.00016,-1e-05,2
6784,7070,0.00016999999999999999,8e-05,0.00032,0.00059,-4e-05,-9e-05,0.00016,-1e-05,2
6785,7071,0.00016999999999999999,8e-05,0.00032,0.00059,-4e-05,-9e-05,0.00016,-1e-05,2
6786,7072,0.00016999999999999999,8e-05,0.00032,0.00059,-4e-05,-9e-05,0.00016,-1e-05,2
6787,7073,0.00016999999999999999,8e-05,0.00032,0.00059,-4e-05,-9e-05,0.00016,-1e-05,2
6788,7074,0.00016999999999999999,8e-05,0.00032,0.00059,-4e-05,-9e-05,0.00016,-1e-05,2
6789,7075,0.00016999999999999999,8e-05,0.00032,0.00059,-4e-05,-9e-05,0.00016,-1e-05,2
6790,7076,0.00016999999999999999,8e-05,0.00032,0.00059,-4e-05,-9e-05,0.00016,-1e-05,2
6791,7077,0.00016999999999999999,8e-05,0.00032,0.00059,-4e-05,-9e-05,0.00016,-1e-05,2
6792,7078,0.00016999999999999999,8e-05,0.00032,0.00059,-4e-05,-9e-05,0.00016,-1e-05,2
6793,7079,0.00016999999999999999,8e-05,0.00032,0.00059,-4e-05,-9e-05,0.00016,-1e-05,2
6794,7080,0.00016999999999999999,8e-05,0.00032,0.00059,-4e-05,-9e-05,0.00016,-1e-05,2
6795,7081,0.00016999999999999999,8e-05,0.00032,0.00059,-4e-05,-9e-05,0.00016,-1e-05,2
6796,7082,0.00016999999999999999,8e-05,0.00032,0.00059,-4e-05,-9e-05,0.00016,-1e-05,2
6797,7083,0.00016999999999999999,8e-05,0.00032,0.00059,-4e-05,-9e-05,0.00016,-1e-05,2
6798,7084,0.00016999999999999999,8e-05,0.00032,0.00059,-4e-05,-9e-05,0.00016,-1e-05,2
6799,7085,0.00016999999999999999,8e-05,0.00032,0.00059,-4e-05,-9e-05,0.00016,-1e-05,2
6800,7086,2.9999999999999997e-05,-1e-05,9e-05,0.00031,-2.9999999999999997e-05,-0.00011,-0.0001,-1e-05,2
6801,7088,7e-05,-5.9999999999999995e-05,-0.00023999999999999998,-0.0004,-1e-05,2.9999999999999997e-05,-0.00018999999999999998,5e-05,2
6802,7089,7e-05,-5.9999999999999995e-05,-0.00023999999999999998,-0.0004,-1e-05,2.9999999999999997e-05,-0.00018999999999999998,5e-05,2
6803,7090,7e-05,-5.9999999999999995e-05,-0.00023999999999999998,-0.0004,-1e-05,2.9999999999999997e-05,-0.00018999999999999998,5e-05,2
6804,7091,7e-05,-5.9999999999999995e-05,-0.00023999999999999998,-0.0004,-1e-05,2.9999999999999997e-05,-0.00018999999999999998,5e-05,2
6805,7092,7e-05,-5.9999999999999995e-05,-0.00023999999999999998,-0.0004,-1e-05,2.9999999999999997e-05,-0.00018999999999999998,5e-05,2
6806,7093,7e-05,-5.9999999999999995e-05,-0.00023999999999999998,-0.0004,-1e-05,2.9999999999999997e-05,-0.00018999999999999998,5e-05,2
6807,7094,7e-05,-5.9999999999999995e-05,-0.00023999999999999998,-0.0004,-1e-05,2.9999999999999997e-05,-0.00018999999999999998,5e-05,2
6808,7095,7e-05,-5.9999999999999995e-05,-0.00023999999999999998,-0.0004,-1e-05,2.9999999999999997e-05,-0.00018999999999999998,5e-05,2
6809,7096,7e-05,-5.9999999999999995e-05,-0.00023999999999999998,-0.0004,-1e-05,2.9999999999999997e-05,-0.00018999999999999998,5e-05,2
6810,7097,7e-05,-5.9999999999999995e-05,-0.00023999999999999998,-0.0004,-1e-05,2.9999999999999997e-05,-0.00018999999999999998,5e-05,2
6811,7098,7e-05,-5.9999999999999995e-05,-0.00023999999999999998,-0.0004,-1e-05,2.9999999999999997e-05,-0.00018999999999999998,5e-05,2
6812,7099,0.00013000000000000002,9e-05,0.00025,0.0003,2.9999999999999997e-05,0.0001,4e-05,7e-05,2
6813,7100,0.00013000000000000002,9e-05,0.00025,0.0003,2.9999999999999997e-05,0.0001,4e-05,7e-05,2
6814,7101,0.00013000000000000002,9e-05,0.00025,0.0003,2.9999999999999997e-05,0.0001,4e-05,7e-05,2
6815,7102,0.00013000000000000002,9e-05,0.00025,0.0003,2.9999999999999997e-05,0.0001,4e-05,7e-05,2
6816,7103,0.00013000000000000002,9e-05,0.00025,0.0003,2.9999999999999997e-05,0.0001,4e-05,7e-05,2
6817,7104,0.00013000000000000002,9e-05,0.00025,0.0003,2.9999999999999997e-05,0.0001,4e-05,7e-05,2
6818,7105,0.00013000000000000002,9e-05,0.00025,0.0003,2.9999999999999997e-05,0.0001,4e-05,7e-05,2
6819,7106,0.00013000000000000002,9e-05,0.00025,0.0003,2.9999999999999997e-05,0.0001,4e-05,7e-05,2
6820,7108,0.00013000000000000002,9e-05,0.00025,0.0003,2.9999999999999997e-05,0.0001,4e-05,7e-05,2
6821,7109,0.00014,0.0001,0.00014,5e-05,-2.9999999999999997e-05,0.00011999999999999999,-2e-05,5.9999999999999995e-05,2
6822,7110,0.00014,0.0001,0.00014,5e-05,-2.9999999999999997e-05,0.00011999999999999999,-2e-05,5.9999999999999995e-05,2
6823,7111,0.00014,0.0001,0.00014,5e-05,-2.9999999999999997e-05,0.00011999999999999999,-2e-05,5.9999999999999995e-05,2
6824,7112,0.00014,0.0001,0.00014,5e-05,-2.9999999999999997e-05,0.00011999999999999999,-2e-05,5.9999999999999995e-05,2
6825,7113,0.00014,0.0001,0.00014,5e-05,-2.9999999999999997e-05,0.00011999999999999999,-2e-05,5.9999999999999995e-05,2
6826,7114,0.00014,0.0001,0.00014,5e-05,-2.9999999999999997e-05,0.00011999999999999999,-2e-05,5.9999999999999995e-05,2
6827,7115,0.00014,0.0001,0.00014,5e-05,-2.9999999999999997e-05,0.00011999999999999999,-2e-05,5.9999999999999995e-05,2
6828,7116,0.00014,0.0001,0.00014,5e-05,-2.9999999999999997e-05,0.00011999999999999999,-2e-05,5.9999999999999995e-05,2
6829,7117,0.00014,0.0001,0.00014,5e-05,-2.9999999999999997e-05,0.00011999999999999999,-2e-05,5.9999999999999995e-05,2
6830,7119,0.00014,0.0001,0.00014,5e-05,-2.9999999999999997e-05,0.00011999999999999999,-2e-05,5.9999999999999995e-05,2
6831,7120,0.00014,0.0001,0.00014,5e-05,-2.9999999999999997e-05,0.00011999999999999999,-2e-05,5.9999999999999995e-05,2
6832,7121,0.00014,0.0001,0.00014,5e-05,-2.9999999999999997e-05,0.00011999999999999999,-2e-05,5.9999999999999995e-05,2
6833,7122,0.00014,0.0001,0.00014,5e-05,-2.9999999999999997e-05,0.00011999999999999999,-2e-05,5.9999999999999995e-05,2
6834,7123,7e-05,-5e-05,-5e-05,7e-05,-2e-05,-0.00018999999999999998,-0.00032,5.9999999999999995e-05,2
6835,7124,7e-05,-5e-05,-5e-05,7e-05,-2e-05,-0.00018999999999999998,-0.00032,5.9999999999999995e-05,2
6836,7125,7e-05,-5e-05,-5e-05,7e-05,-2e-05,-0.00018999999999999998,-0.00032,5.9999999999999995e-05,2
6837,7126,7e-05,-5e-05,-5e-05,7e-05,-2e-05,-0.00018999999999999998,-0.00032,5.9999999999999995e-05,2
6838,7127,7e-05,-5e-05,-5e-05,7e-05,-2e-05,-0.00018999999999999998,-0.00032,5.9999999999999995e-05,2
6839,7128,7e-05,-5e-05,-5e-05,7e-05,-2e-05,-0.00018999999999999998,-0.00032,5.9999999999999995e-05,2
6840,7129,7e-05,-5e-05,-5e-05,7e-05,-2e-05,-0.00018999999999999998,-0.00032,5.9999999999999995e-05,2
6841,7130,7e-05,-5e-05,-5e-05,7e-05,-2e-05,-0.00018999999999999998,-0.00032,5.9999999999999995e-05,2
6842,7131,-0.00011,-2.9999999999999997e-05,0.00016,0.00043,5e-05,0.00041,0.00033,-2.9999999999999997e-05,2
6843,7132,-0.00011,-2.9999999999999997e-05,0.00016,0.00043,5e-05,0.00041,0.00033,-2.9999999999999997e-05,2
6844,7133,-0.00011,-2.9999999999999997e-05,0.00016,0.00043,5e-05,0.00041,0.00033,-2.9999999999999997e-05,2
6845,7134,-0.00011,-2.9999999999999997e-05,0.00016,0.00043,5e-05,0.00041,0.00033,-2.9999999999999997e-05,2
6846,7135,-0.00011,-2.9999999999999997e-05,0.00016,0.00043,5e-05,0.00041,0.00033,-2.9999999999999997e-05,2
6847,7136,-0.00011,-2.9999999999999997e-05,0.00016,0.00043,5e-05,0.00041,0.00033,-2.9999999999999997e-05,2
6848,7138,-0.00011,-2.9999999999999997e-05,0.00016,0.00043,5e-05,0.00041,0.00033,-2.9999999999999997e-05,2
6849,7139,-0.00011,-2.9999999999999997e-05,0.00016,0.00043,5e-05,0.00041,0.00033,-2.9999999999999997e-05,2
6850,7140,-0.00011,-2.9999999999999997e-05,0.00016,0.00043,5e-05,0.00041,0.00033,-2.9999999999999997e-05,2
6851,7141,-0.00011,-2.9999999999999997e-05,0.00016,0.00043,5e-05,0.00041,0.00033,-2.9999999999999997e-05,2
6852,7142,-0.00011,-2.9999999999999997e-05,0.00016,0.00043,5e-05,0.00041,0.00033,-2.9999999999999997e-05,2
6853,7143,-0.00011,-2.9999999999999997e-05,0.00016,0.00043,5e-05,0.00041,0.00033,-2.9999999999999997e-05,2
6854,7144,-0.00011,-2.9999999999999997e-05,0.00016,0.00043,5e-05,0.00041,0.00033,-2.9999999999999997e-05,2
6855,7145,-0.00011,-2.9999999999999997e-05,0.00016,0.00043,5e-05,0.00041,0.00033,-2.9999999999999997e-05,2
6856,7146,-0.00011,-2.9999999999999997e-05,0.00016,0.00043,5e-05,0.00041,0.00033,-2.9999999999999997e-05,2
6857,7147,-0.00011,-2.9999999999999997e-05,0.00016,0.00043,5e-05,0.00041,0.00033,-2.9999999999999997e-05,2
6858,7148,-0.00011,-2.9999999999999997e-05,0.00016,0.00043,5e-05,0.00041,0.00033,-2.9999999999999997e-05,2
6859,7149,-0.00011,-2.9999999999999997e-05,0.00016,0.00043,5e-05,0.00041,0.00033,-2.9999999999999997e-05,2
6860,7150,-0.00011,-2.9999999999999997e-05,0.00016,0.00043,5e-05,0.00041,0.00033,-2.9999999999999997e-05,2
6861,7151,-0.00011,-2.9999999999999997e-05,0.00016,0.00043,5e-05,0.00041,0.00033,-2.9999999999999997e-05,2
6862,7152,-0.00011,-2.9999999999999997e-05,0.00016,0.00043,5e-05,0.00041,0.00033,-2.9999999999999997e-05,2
6863,7153,-8e-05,7e-05,0.00044,0.0009400000000000001,-2e-05,0.00018999999999999998,0.00018999999999999998,-1e-05,2
6864,7154,-8e-05,7e-05,0.00044,0.0009400000000000001,-2e-05,0.00018999999999999998,0.00018999999999999998,-1e-05,2
6865,7155,-5.9999999999999995e-05,-1e-05,-0.00035,-0.0006900000000000001,-5e-05,0.00023999999999999998,5e-05,2e-05,2
6866,7156,-5.9999999999999995e-05,-1e-05,-0.00035,-0.0006900000000000001,-5e-05,0.00023999999999999998,5e-05,2e-05,2
6867,7157,-5.9999999999999995e-05,-1e-05,-0.00035,-0.0006900000000000001,-5e-05,0.00023999999999999998,5e-05,2e-05,2
6868,7158,-5.9999999999999995e-05,-1e-05,-0.00035,-0.0006900000000000001,-5e-05,0.00023999999999999998,5e-05,2e-05,2
6869,7159,-5.9999999999999995e-05,-1e-05,-0.00035,-0.0006900000000000001,-5e-05,0.00023999999999999998,5e-05,2e-05,2
6870,7160,-5.9999999999999995e-05,-1e-05,-0.00035,-0.0006900000000000001,-5e-05,0.00023999999999999998,5e-05,2e-05,2
6871,7161,-5.9999999999999995e-05,-1e-05,-0.00035,-0.0006900000000000001,-5e-05,0.00023999999999999998,5e-05,2e-05,2
6872,7162,-5.9999999999999995e-05,-1e-05,-0.00035,-0.0006900000000000001,-5e-05,0.00023999999999999998,5e-05,2e-05,2
6873,7163,-5.9999999999999995e-05,-1e-05,-0.00035,-0.0006900000000000001,-5e-05,0.00023999999999999998,5e-05,2e-05,2
6874,7164,-5.9999999999999995e-05,-1e-05,-0.00035,-0.0006900000000000001,-5e-05,0.00023999999999999998,5e-05,2e-05,2
6875,7165,-5.9999999999999995e-05,-1e-05,-0.00035,-0.0006900000000000001,-5e-05,0.00023999999999999998,5e-05,2e-05,2
6876,7166,-5.9999999999999995e-05,-1e-05,-0.00035,-0.0006900000000000001,-5e-05,0.00023999999999999998,5e-05,2e-05,2
6877,7167,-5.9999999999999995e-05,-1e-05,-0.00035,-0.0006900000000000001,-5e-05,0.00023999999999999998,5e-05,2e-05,2
6878,7168,-5.9999999999999995e-05,-1e-05,-0.00035,-0.0006900000000000001,-5e-05,0.00023999999999999998,5e-05,2e-05,2
6879,7169,-5.9999999999999995e-05,-1e-05,-0.00035,-0.0006900000000000001,-5e-05,0.00023999999999999998,5e-05,2e-05,2
6880,7170,-5.9999999999999995e-05,-1e-05,-0.00035,-0.0006900000000000001,-5e-05,0.00023999999999999998,5e-05,2e-05,2
6881,7171,-5.9999999999999995e-05,-1e-05,-0.00035,-0.0006900000000000001,-5e-05,0.00023999999999999998,5e-05,2e-05,2
6882,7172,-5.9999999999999995e-05,-1e-05,-0.00035,-0.0006900000000000001,-5e-05,0.00023999999999999998,5e-05,2e-05,2
6883,7173,-5.9999999999999995e-05,-1e-05,-0.00035,-0.0006900000000000001,-5e-05,0.00023999999999999998,5e-05,2e-05,2
6884,7174,-5.9999999999999995e-05,-1e-05,-0.00035,-0.0006900000000000001,-5e-05,0.00023999999999999998,5e-05,2e-05,2
6885,7175,-5.9999999999999995e-05,-1e-05,-0.00035,-0.0006900000000000001,-5e-05,0.00023999999999999998,5e-05,2e-05,2
6886,7176,1e-05,0.0,-9e-05,0.00029,7e-05,-1e-05,-2.9999999999999997e-05,0.0,2
6887,7177,1e-05,0.0,-9e-05,0.00029,7e-05,-1e-05,-2.9999999999999997e-05,0.0,2
6888,7178,1e-05,0.0,-9e-05,0.00029,7e-05,-1e-05,-2.9999999999999997e-05,0.0,2
6889,7179,1e-05,0.0,-9e-05,0.00029,7e-05,-1e-05,-2.9999999999999997e-05,0.0,2
6890,7180,1e-05,0.0,-9e-05,0.00029,7e-05,-1e-05,-2.9999999999999997e-05,0.0,2
6891,7181,1e-05,0.0,-9e-05,0.00029,7e-05,-1e-05,-2.9999999999999997e-05,0.0,2
6892,7182,1e-05,0.0,-9e-05,0.00029,7e-05,-1e-05,-2.9999999999999997e-05,0.0,2
6893,7183,-2e-05,7e-05,9e-05,-0.00036,-5e-05,-5e-05,-0.00011999999999999999,4e-05,2
6894,7184,0.0001,4e-05,0.00015,0.00031,1e-05,1e-05,0.0,5e-05,2
6895,7185,0.0001,4e-05,0.00015,0.00031,1e-05,1e-05,0.0,5e-05,2
6896,7186,0.0001,4e-05,0.00015,0.00031,1e-05,1e-05,0.0,5e-05,2
6897,7188,0.0001,4e-05,0.00015,0.00031,1e-05,1e-05,0.0,5e-05,2
6898,7189,0.0001,4e-05,0.00015,0.00031,1e-05,1e-05,0.0,5e-05,2
6899,7190,0.0001,4e-05,0.00015,0.00031,1e-05,1e-05,0.0,5e-05,2
6900,7191,0.0001,4e-05,0.00015,0.00031,1e-05,1e-05,0.0,5e-05,2
6901,7192,0.0001,4e-05,0.00015,0.00031,1e-05,1e-05,0.0,5e-05,2
6902,7193,0.0001,4e-05,0.00015,0.00031,1e-05,1e-05,0.0,5e-05,2
6903,7194,0.0001,4e-05,0.00015,0.00031,1e-05,1e-05,0.0,5e-05,2
6904,7196,0.0001,4e-05,0.00015,0.00031,1e-05,1e-05,0.0,5e-05,2
6905,7197,0.00031,2.9999999999999997e-05,4e-05,-2e-05,1e-05,2e-05,-4e-05,5.9999999999999995e-05,2
6906,7198,0.00031,2.9999999999999997e-05,4e-05,-2e-05,1e-05,2e-05,-4e-05,5.9999999999999995e-05,2
6907,7199,0.00031,2.9999999999999997e-05,4e-05,-2e-05,1e-05,2e-05,-4e-05,5.9999999999999995e-05,2
6908,7200,0.00031,2.9999999999999997e-05,4e-05,-2e-05,1e-05,2e-05,-4e-05,5.9999999999999995e-05,2
6909,7201,0.00031,2.9999999999999997e-05,4e-05,-2e-05,1e-05,2e-05,-4e-05,5.9999999999999995e-05,2
6910,7202,0.00031,2.9999999999999997e-05,4e-05,-2e-05,1e-05,2e-05,-4e-05,5.9999999999999995e-05,2
6911,7203,0.00031,2.9999999999999997e-05,4e-05,-2e-05,1e-05,2e-05,-4e-05,5.9999999999999995e-05,2
6912,7204,0.00031,2.9999999999999997e-05,4e-05,-2e-05,1e-05,2e-05,-4e-05,5.9999999999999995e-05,2
6913,7205,0.00031,2.9999999999999997e-05,4e-05,-2e-05,1e-05,2e-05,-4e-05,5.9999999999999995e-05,2
6914,7206,-9e-05,-5e-05,-1e-05,2e-05,0.0,-4e-05,0.0003,8e-05,2
6915,7207,-9e-05,-5e-05,-1e-05,2e-05,0.0,-4e-05,0.0003,8e-05,2
6916,7208,-2e-05,2.9999999999999997e-05,0.00018999999999999998,0.00033,2.9999999999999997e-05,0.00018,-0.00023999999999999998,-0.0001,2
6917,7209,-8e-05,-5e-05,-4e-05,-0.00035,1e-05,2e-05,0.0,1e-05,2
6918,7210,-8e-05,-5e-05,-4e-05,-0.00035,1e-05,2e-05,0.0,1e-05,2
6919,7211,-8e-05,-5e-05,-4e-05,-0.00035,1e-05,2e-05,0.0,1e-05,2
6920,7212,-8e-05,-5e-05,-4e-05,-0.00035,1e-05,2e-05,0.0,1e-05,2
6921,7213,-8e-05,-5e-05,-4e-05,-0.00035,1e-05,2e-05,0.0,1e-05,2
6922,7214,-8e-05,-5e-05,-4e-05,-0.00035,1e-05,2e-05,0.0,1e-05,2
6923,7215,-8e-05,-5e-05,-4e-05,-0.00035,1e-05,2e-05,0.0,1e-05,2
6924,7216,-8e-05,-5e-05,-4e-05,-0.00035,1e-05,2e-05,0.0,1e-05,2
6925,7217,-8e-05,-5e-05,-4e-05,-0.00035,1e-05,2e-05,0.0,1e-05,2
6926,7218,-8e-05,-5e-05,-4e-05,-0.00035,1e-05,2e-05,0.0,1e-05,2
6927,7219,-8e-05,-5e-05,-4e-05,-0.00035,1e-05,2e-05,0.0,1e-05,2
6928,7220,-8e-05,-5e-05,-4e-05,-0.00035,1e-05,2e-05,0.0,1e-05,2
6929,7221,-8e-05,-5e-05,-4e-05,-0.00035,1e-05,2e-05,0.0,1e-05,2
6930,7222,-8e-05,-5e-05,-4e-05,-0.00035,1e-05,2e-05,0.0,1e-05,2
6931,7223,-8e-05,-5e-05,-4e-05,-0.00035,1e-05,2e-05,0.0,1e-05,2
6932,7224,-8e-05,-5e-05,-4e-05,-0.00035,1e-05,2e-05,0.0,1e-05,2
6933,7225,-8e-05,-5e-05,-4e-05,-0.00035,1e-05,2e-05,0.0,1e-05,2
6934,7226,-8e-05,-5e-05,-4e-05,-0.00035,1e-05,2e-05,0.0,1e-05,2
6935,7227,-8e-05,-5e-05,-4e-05,-0.00035,1e-05,2e-05,0.0,1e-05,2
6936,7228,-8e-05,-5e-05,-4e-05,-0.00035,1e-05,2e-05,0.0,1e-05,2
6937,7229,-8e-05,-5e-05,-4e-05,-0.00035,1e-05,2e-05,0.0,1e-05,2
6938,7230,-8e-05,-5e-05,-4e-05,-0.00035,1e-05,2e-05,0.0,1e-05,2
6939,7231,-8e-05,-5e-05,-4e-05,-0.00035,1e-05,2e-05,0.0,1e-05,2
6940,7232,-8e-05,-5e-05,-4e-05,-0.00035,1e-05,2e-05,0.0,1e-05,2
6941,7233,-8e-05,-5e-05,-4e-05,-0.00035,1e-05,2e-05,0.0,1e-05,2
6942,7234,-8e-05,-5e-05,-4e-05,-0.00035,1e-05,2e-05,0.0,1e-05,2
6943,7235,0.00011,-1e-05,-8e-05,-0.0003,1e-05,2.9999999999999997e-05,-8e-05,-1e-05,2
6944,7236,0.00011,-1e-05,-8e-05,-0.0003,1e-05,2.9999999999999997e-05,-8e-05,-1e-05,2
6945,7238,0.00011,-1e-05,-8e-05,-0.0003,1e-05,2.9999999999999997e-05,-8e-05,-1e-05,2
6946,7239,0.00011,-1e-05,-8e-05,-0.0003,1e-05,2.9999999999999997e-05,-8e-05,-1e-05,2
6947,7240,0.00011,-1e-05,-8e-05,-0.0003,1e-05,2.9999999999999997e-05,-8e-05,-1e-05,2
6948,7241,0.00011,-1e-05,-8e-05,-0.0003,1e-05,2.9999999999999997e-05,-8e-05,-1e-05,2
6949,7242,0.00011,-1e-05,-8e-05,-0.0003,1e-05,2.9999999999999997e-05,-8e-05,-1e-05,2
6950,7243,0.00011,-1e-05,-8e-05,-0.0003,1e-05,2.9999999999999997e-05,-8e-05,-1e-05,2
6951,7244,0.00011,-1e-05,-8e-05,-0.0003,1e-05,2.9999999999999997e-05,-8e-05,-1e-05,2
6952,7245,-2.9999999999999997e-05,-2e-05,-0.0002,-0.0007099999999999999,-0.0001,-0.00021,-5e-05,5.9999999999999995e-05,2
6953,7246,-0.00013000000000000002,2.9999999999999997e-05,7e-05,-0.00014,7e-05,0.0001,-5e-05,-0.00011999999999999999,2
6954,7247,-0.00013000000000000002,2.9999999999999997e-05,7e-05,-0.00014,7e-05,0.0001,-5e-05,-0.00011999999999999999,2
6955,7248,-0.00013000000000000002,2.9999999999999997e-05,7e-05,-0.00014,7e-05,0.0001,-5e-05,-0.00011999999999999999,2
6956,7249,-0.00016,-4e-05,0.0001,0.0006799999999999999,-5.9999999999999995e-05,-0.0002,-0.00013000000000000002,-0.0001,2
6957,7250,-0.00016,-4e-05,0.0001,0.0006799999999999999,-5.9999999999999995e-05,-0.0002,-0.00013000000000000002,-0.0001,2
6958,7251,-0.00016,-4e-05,0.0001,0.0006799999999999999,-5.9999999999999995e-05,-0.0002,-0.00013000000000000002,-0.0001,2
6959,7252,-0.00016,-4e-05,0.0001,0.0006799999999999999,-5.9999999999999995e-05,-0.0002,-0.00013000000000000002,-0.0001,2
6960,7253,-0.00016,-4e-05,0.0001,0.0006799999999999999,-5.9999999999999995e-05,-0.0002,-0.00013000000000000002,-0.0001,2
6961,7254,-0.00016,-4e-05,0.0001,0.0006799999999999999,-5.9999999999999995e-05,-0.0002,-0.00013000000000000002,-0.0001,2
6962,7255,-0.00016,-4e-05,0.0001,0.0006799999999999999,-5.9999999999999995e-05,-0.0002,-0.00013000000000000002,-0.0001,2
6963,7256,-0.00016,-4e-05,0.0001,0.0006799999999999999,-5.9999999999999995e-05,-0.0002,-0.00013000000000000002,-0.0001,2
6964,7257,-0.00016,-4e-05,0.0001,0.0006799999999999999,-5.9999999999999995e-05,-0.0002,-0.00013000000000000002,-0.0001,2
6965,7258,-0.00016,-4e-05,0.0001,0.0006799999999999999,-5.9999999999999995e-05,-0.0002,-0.00013000000000000002,-0.0001,2
6966,7259,-0.00016,-4e-05,0.0001,0.0006799999999999999,-5.9999999999999995e-05,-0.0002,-0.00013000000000000002,-0.0001,2
6967,7260,-0.00016,-4e-05,0.0001,0.0006799999999999999,-5.9999999999999995e-05,-0.0002,-0.00013000000000000002,-0.0001,2
6968,7261,-0.00016,-4e-05,0.0001,0.0006799999999999999,-5.9999999999999995e-05,-0.0002,-0.00013000000000000002,-0.0001,2
6969,7262,-0.00016,-4e-05,0.0001,0.0006799999999999999,-5.9999999999999995e-05,-0.0002,-0.00013000000000000002,-0.0001,2
6970,7263,-0.00016,-4e-05,0.0001,0.0006799999999999999,-5.9999999999999995e-05,-0.0002,-0.00013000000000000002,-0.0001,2
6971,7264,-0.00016,-4e-05,0.0001,0.0006799999999999999,-5.9999999999999995e-05,-0.0002,-0.00013000000000000002,-0.0001,2
6972,7265,0.00022,-9e-05,-0.00047999999999999996,-0.0006799999999999999,-8e-05,0.00023999999999999998,5.9999999999999995e-05,2e-05,2
6973,7266,0.0,0.00011999999999999999,0.0003,0.00047999999999999996,1e-05,-2.9999999999999997e-05,-0.00011999999999999999,0.0,2
6974,7267,-5e-05,0.0,0.00013000000000000002,0.00033999999999999997,-5e-05,-0.00011999999999999999,-0.00033,-0.0001,2
6975,7268,-5e-05,0.0,0.00013000000000000002,0.00033999999999999997,-5e-05,-0.00011999999999999999,-0.00033,-0.0001,2
6976,7269,-5e-05,0.0,0.00013000000000000002,0.00033999999999999997,-5e-05,-0.00011999999999999999,-0.00033,-0.0001,2
6977,7270,-5e-05,0.0,0.00013000000000000002,0.00033999999999999997,-5e-05,-0.00011999999999999999,-0.00033,-0.0001,2
6978,7271,-5e-05,0.0,0.00013000000000000002,0.00033999999999999997,-5e-05,-0.00011999999999999999,-0.00033,-0.0001,2
6979,7272,-5e-05,0.0,0.00013000000000000002,0.00033999999999999997,-5e-05,-0.00011999999999999999,-0.00033,-0.0001,2
6980,7273,-5e-05,0.0,0.00013000000000000002,0.00033999999999999997,-5e-05,-0.00011999999999999999,-0.00033,-0.0001,2
6981,7274,-5e-05,0.0,0.00013000000000000002,0.00033999999999999997,-5e-05,-0.00011999999999999999,-0.00033,-0.0001,2
6982,7275,-5e-05,0.0,0.00013000000000000002,0.00033999999999999997,-5e-05,-0.00011999999999999999,-0.00033,-0.0001,2
6983,7276,-5e-05,0.0,0.00013000000000000002,0.00033999999999999997,-5e-05,-0.00011999999999999999,-0.00033,-0.0001,2
6984,7277,-5e-05,0.0,0.00013000000000000002,0.00033999999999999997,-5e-05,-0.00011999999999999999,-0.00033,-0.0001,2
6985,7278,-5e-05,0.0,0.00013000000000000002,0.00033999999999999997,-5e-05,-0.00011999999999999999,-0.00033,-0.0001,2
6986,7279,-5e-05,0.0,0.00013000000000000002,0.00033999999999999997,-5e-05,-0.00011999999999999999,-0.00033,-0.0001,2
6987,7280,-5e-05,0.0,0.00013000000000000002,0.00033999999999999997,-5e-05,-0.00011999999999999999,-0.00033,-0.0001,2
6988,7281,-5e-05,0.0,0.00013000000000000002,0.00033999999999999997,-5e-05,-0.00011999999999999999,-0.00033,-0.0001,2
6989,7282,-5e-05,0.0,0.00013000000000000002,0.00033999999999999997,-5e-05,-0.00011999999999999999,-0.00033,-0.0001,2
6990,7283,-5e-05,0.0,0.00013000000000000002,0.00033999999999999997,-5e-05,-0.00011999999999999999,-0.00033,-0.0001,2
6991,7284,-5e-05,0.0,0.00013000000000000002,0.00033999999999999997,-5e-05,-0.00011999999999999999,-0.00033,-0.0001,2
6992,7285,-5e-05,0.0,0.00013000000000000002,0.00033999999999999997,-5e-05,-0.00011999999999999999,-0.00033,-0.0001,2
6993,7286,-5e-05,0.0,0.00013000000000000002,0.00033999999999999997,-5e-05,-0.00011999999999999999,-0.00033,-0.0001,2
6994,7288,0.00022,2e-05,7e-05,0.00022,4e-05,-8e-05,-0.00016,2.9999999999999997e-05,2
6995,7290,-0.00018999999999999998,-5e-05,-5e-05,-0.0002,-5.9999999999999995e-05,-0.00014,-0.00016999999999999999,-0.00016999999999999999,2
6996,7291,-0.00018999999999999998,-5e-05,-5e-05,-0.0002,-5.9999999999999995e-05,-0.00014,-0.00016999999999999999,-0.00016999999999999999,2
6997,7292,-0.00018999999999999998,-5e-05,-5e-05,-0.0002,-5.9999999999999995e-05,-0.00014,-0.00016999999999999999,-0.00016999999999999999,2
6998,7293,-0.00018999999999999998,-5e-05,-5e-05,-0.0002,-5.9999999999999995e-05,-0.00014,-0.00016999999999999999,-0.00016999999999999999,2
6999,7294,-0.00018999999999999998,-5e-05,-5e-05,-0.0002,-5.9999999999999995e-05,-0.00014,-0.00016999999999999999,-0.00016999999999999999,2
7000,7295,-0.00018999999999999998,-5e-05,-5e-05,-0.0002,-5.9999999999999995e-05,-0.00014,-0.00016999999999999999,-0.00016999999999999999,2
7001,7296,-0.00018999999999999998,-5e-05,-5e-05,-0.0002,-5.9999999999999995e-05,-0.00014,-0.00016999999999999999,-0.00016999999999999999,2
7002,7297,-0.00018999999999999998,-5e-05,-5e-05,-0.0002,-5.9999999999999995e-05,-0.00014,-0.00016999999999999999,-0.00016999999999999999,2
7003,7298,-0.00018999999999999998,-5e-05,-5e-05,-0.0002,-5.9999999999999995e-05,-0.00014,-0.00016999999999999999,-0.00016999999999999999,2
7004,7299,-0.00018999999999999998,-5e-05,-5e-05,-0.0002,-5.9999999999999995e-05,-0.00014,-0.00016999999999999999,-0.00016999999999999999,2
7005,7300,-0.00018999999999999998,-5e-05,-5e-05,-0.0002,-5.9999999999999995e-05,-0.00014,-0.00016999999999999999,-0.00016999999999999999,2
7006,7301,-0.00018999999999999998,-5e-05,-5e-05,-0.0002,-5.9999999999999995e-05,-0.00014,-0.00016999999999999999,-0.00016999999999999999,2
7007,7302,-2e-05,5e-05,0.00013000000000000002,0.00011,-2e-05,5e-05,0.0002,9e-05,2
7008,7303,-5.9999999999999995e-05,-7e-05,-0.00011,-0.00023999999999999998,-8e-05,-0.00022,-0.00055,-0.00015,2
7009,7304,-5.9999999999999995e-05,-7e-05,-0.00011,-0.00023999999999999998,-8e-05,-0.00022,-0.00055,-0.00015,2
7010,7305,-5.9999999999999995e-05,-7e-05,-0.00011,-0.00023999999999999998,-8e-05,-0.00022,-0.00055,-0.00015,2
7011,7306,-5.9999999999999995e-05,-7e-05,-0.00011,-0.00023999999999999998,-8e-05,-0.00022,-0.00055,-0.00015,2
7012,7307,-5.9999999999999995e-05,-7e-05,-0.00011,-0.00023999999999999998,-8e-05,-0.00022,-0.00055,-0.00015,2
7013,7308,-5.9999999999999995e-05,-7e-05,-0.00011,-0.00023999999999999998,-8e-05,-0.00022,-0.00055,-0.00015,2
7014,7309,0.0001,0.00018,0.00031,0.0006,0.00011999999999999999,-2.9999999999999997e-05,0.00032,2.9999999999999997e-05,2
7015,7310,0.00037,5e-05,-8e-05,-0.0002,0.00013000000000000002,0.0002,2.9999999999999997e-05,0.00018999999999999998,2
7016,7311,0.00037,5e-05,-8e-05,-0.0002,0.00013000000000000002,0.0002,2.9999999999999997e-05,0.00018999999999999998,2
7017,7312,0.00037,5e-05,-8e-05,-0.0002,0.00013000000000000002,0.0002,2.9999999999999997e-05,0.00018999999999999998,2
7018,7313,0.00037,5e-05,-8e-05,-0.0002,0.00013000000000000002,0.0002,2.9999999999999997e-05,0.00018999999999999998,2
7019,7314,0.00037,5e-05,-8e-05,-0.0002,0.00013000000000000002,0.0002,2.9999999999999997e-05,0.00018999999999999998,2
7020,7315,0.00037,5e-05,-8e-05,-0.0002,0.00013000000000000002,0.0002,2.9999999999999997e-05,0.00018999999999999998,2
7021,7316,0.00037,5e-05,-8e-05,-0.0002,0.00013000000000000002,0.0002,2.9999999999999997e-05,0.00018999999999999998,2
7022,7317,0.00037,5e-05,-8e-05,-0.0002,0.00013000000000000002,0.0002,2.9999999999999997e-05,0.00018999999999999998,2
7023,7318,0.00037,5e-05,-8e-05,-0.0002,0.00013000000000000002,0.0002,2.9999999999999997e-05,0.00018999999999999998,2
7024,7319,0.00037,5e-05,-8e-05,-0.0002,0.00013000000000000002,0.0002,2.9999999999999997e-05,0.00018999999999999998,2
7025,7320,0.00037,5e-05,-8e-05,-0.0002,0.00013000000000000002,0.0002,2.9999999999999997e-05,0.00018999999999999998,2
7026,7321,0.00037,5e-05,-8e-05,-0.0002,0.00013000000000000002,0.0002,2.9999999999999997e-05,0.00018999999999999998,2
7027,7322,0.00037,5e-05,-8e-05,-0.0002,0.00013000000000000002,0.0002,2.9999999999999997e-05,0.00018999999999999998,2
7028,7323,0.00037,5e-05,-8e-05,-0.0002,0.00013000000000000002,0.0002,2.9999999999999997e-05,0.00018999999999999998,2
7029,7324,0.00037,5e-05,-8e-05,-0.0002,0.00013000000000000002,0.0002,2.9999999999999997e-05,0.00018999999999999998,2
7030,7325,0.00037,5e-05,-8e-05,-0.0002,0.00013000000000000002,0.0002,2.9999999999999997e-05,0.00018999999999999998,2
7031,7326,-2.9999999999999997e-05,0.0,2e-05,0.00011,-2e-05,-1e-05,0.00011,0.00014,2
7032,7327,-0.00013000000000000002,0.00011999999999999999,0.00033999999999999997,0.00044,0.0001,-4e-05,-2e-05,-5e-05,2
7033,7328,-0.00013000000000000002,0.00011999999999999999,0.00033999999999999997,0.00044,0.0001,-4e-05,-2e-05,-5e-05,2
7034,7329,-0.00013000000000000002,0.00011999999999999999,0.00033999999999999997,0.00044,0.0001,-4e-05,-2e-05,-5e-05,2
7035,7330,-0.00013000000000000002,0.00011999999999999999,0.00033999999999999997,0.00044,0.0001,-4e-05,-2e-05,-5e-05,2
7036,7331,-0.00013000000000000002,0.00011999999999999999,0.00033999999999999997,0.00044,0.0001,-4e-05,-2e-05,-5e-05,2
7037,7332,-0.00013000000000000002,0.00011999999999999999,0.00033999999999999997,0.00044,0.0001,-4e-05,-2e-05,-5e-05,2
7038,7333,-0.00013000000000000002,0.00011999999999999999,0.00033999999999999997,0.00044,0.0001,-4e-05,-2e-05,-5e-05,2
7039,7334,-0.00013000000000000002,0.00011999999999999999,0.00033999999999999997,0.00044,0.0001,-4e-05,-2e-05,-5e-05,2
7040,7335,-0.00013000000000000002,0.00011999999999999999,0.00033999999999999997,0.00044,0.0001,-4e-05,-2e-05,-5e-05,2
7041,7336,-0.00013000000000000002,0.00011999999999999999,0.00033999999999999997,0.00044,0.0001,-4e-05,-2e-05,-5e-05,2
7042,7338,-0.00013000000000000002,0.00011999999999999999,0.00033999999999999997,0.00044,0.0001,-4e-05,-2e-05,-5e-05,2
7043,7339,-0.00013000000000000002,0.00011999999999999999,0.00033999999999999997,0.00044,0.0001,-4e-05,-2e-05,-5e-05,2
7044,7340,-0.00013000000000000002,0.00011999999999999999,0.00033999999999999997,0.00044,0.0001,-4e-05,-2e-05,-5e-05,2
7045,7341,-0.00013000000000000002,0.00011999999999999999,0.00033999999999999997,0.00044,0.0001,-4e-05,-2e-05,-5e-05,2
7046,7342,-0.00013000000000000002,0.00011999999999999999,0.00033999999999999997,0.00044,0.0001,-4e-05,-2e-05,-5e-05,2
7047,7343,-0.00013000000000000002,0.00011999999999999999,0.00033999999999999997,0.00044,0.0001,-4e-05,-2e-05,-5e-05,2
7048,7344,-0.00013000000000000002,0.00011999999999999999,0.00033999999999999997,0.00044,0.0001,-4e-05,-2e-05,-5e-05,2
7049,7345,-0.00013000000000000002,0.00011999999999999999,0.00033999999999999997,0.00044,0.0001,-4e-05,-2e-05,-5e-05,2
7050,7346,-0.00013000000000000002,0.00011999999999999999,0.00033999999999999997,0.00044,0.0001,-4e-05,-2e-05,-5e-05,2
7051,7347,-0.00013000000000000002,0.00011999999999999999,0.00033999999999999997,0.00044,0.0001,-4e-05,-2e-05,-5e-05,2
7052,7348,-2e-05,-1e-05,-1e-05,0.00011,2.9999999999999997e-05,0.00016999999999999999,0.00018999999999999998,-1e-05,2
7053,7349,-2e-05,-1e-05,-1e-05,0.00011,2.9999999999999997e-05,0.00016999999999999999,0.00018999999999999998,-1e-05,2
7054,7350,-0.00011999999999999999,-0.0001,-5e-05,0.00015,-0.0001,-0.0004,-2.9999999999999997e-05,-2.9999999999999997e-05,2
7055,7351,-0.00011999999999999999,-0.0001,-5e-05,0.00015,-0.0001,-0.0004,-2.9999999999999997e-05,-2.9999999999999997e-05,2
7056,7352,-0.00011999999999999999,-0.0001,-5e-05,0.00015,-0.0001,-0.0004,-2.9999999999999997e-05,-2.9999999999999997e-05,2
7057,7353,-0.00011999999999999999,-0.0001,-5e-05,0.00015,-0.0001,-0.0004,-2.9999999999999997e-05,-2.9999999999999997e-05,2
7058,7354,-0.00011999999999999999,-0.0001,-5e-05,0.00015,-0.0001,-0.0004,-2.9999999999999997e-05,-2.9999999999999997e-05,2
7059,7355,-0.00011999999999999999,-0.0001,-5e-05,0.00015,-0.0001,-0.0004,-2.9999999999999997e-05,-2.9999999999999997e-05,2
7060,7356,-0.00011999999999999999,-0.0001,-5e-05,0.00015,-0.0001,-0.0004,-2.9999999999999997e-05,-2.9999999999999997e-05,2
7061,7357,-0.00011999999999999999,-0.0001,-5e-05,0.00015,-0.0001,-0.0004,-2.9999999999999997e-05,-2.9999999999999997e-05,2
7062,7358,-0.00011999999999999999,-0.0001,-5e-05,0.00015,-0.0001,-0.0004,-2.9999999999999997e-05,-2.9999999999999997e-05,2
7063,7359,-0.00011999999999999999,-0.0001,-5e-05,0.00015,-0.0001,-0.0004,-2.9999999999999997e-05,-2.9999999999999997e-05,2
7064,7360,-0.00011999999999999999,-0.0001,-5e-05,0.00015,-0.0001,-0.0004,-2.9999999999999997e-05,-2.9999999999999997e-05,2
7065,7361,-0.00011999999999999999,-0.0001,-5e-05,0.00015,-0.0001,-0.0004,-2.9999999999999997e-05,-2.9999999999999997e-05,2
7066,7362,2.9999999999999997e-05,4e-05,-8e-05,-0.00032,0.0,1e-05,0.00011999999999999999,-2e-05,2
7067,7363,2.9999999999999997e-05,4e-05,-8e-05,-0.00032,0.0,1e-05,0.00011999999999999999,-2e-05,2
7068,7364,2.9999999999999997e-05,4e-05,-8e-05,-0.00032,0.0,1e-05,0.00011999999999999999,-2e-05,2
7069,7365,2.9999999999999997e-05,4e-05,-8e-05,-0.00032,0.0,1e-05,0.00011999999999999999,-2e-05,2
7070,7366,2.9999999999999997e-05,4e-05,-8e-05,-0.00032,0.0,1e-05,0.00011999999999999999,-2e-05,2
7071,7368,2.9999999999999997e-05,4e-05,-8e-05,-0.00032,0.0,1e-05,0.00011999999999999999,-2e-05,2
7072,7369,9e-05,7e-05,0.00015,0.00043,9e-05,1e-05,8e-05,7e-05,2
7073,7371,9e-05,7e-05,0.00015,0.00043,9e-05,1e-05,8e-05,7e-05,2
7074,7372,9e-05,7e-05,0.00015,0.00043,9e-05,1e-05,8e-05,7e-05,2
7075,7373,9e-05,7e-05,0.00015,0.00043,9e-05,1e-05,8e-05,7e-05,2
7076,7374,9e-05,7e-05,0.00015,0.00043,9e-05,1e-05,8e-05,7e-05,2
7077,7375,9e-05,7e-05,0.00015,0.00043,9e-05,1e-05,8e-05,7e-05,2
7078,7376,9e-05,7e-05,0.00015,0.00043,9e-05,1e-05,8e-05,7e-05,2
7079,7377,9e-05,7e-05,0.00015,0.00043,9e-05,1e-05,8e-05,7e-05,2
7080,7378,9e-05,7e-05,0.00015,0.00043,9e-05,1e-05,8e-05,7e-05,2
7081,7379,9e-05,7e-05,0.00015,0.00043,9e-05,1e-05,8e-05,7e-05,2
7082,7380,9e-05,7e-05,0.00015,0.00043,9e-05,1e-05,8e-05,7e-05,2
7083,7381,9e-05,7e-05,0.00015,0.00043,9e-05,1e-05,8e-05,7e-05,2
7084,7383,9e-05,7e-05,0.00015,0.00043,9e-05,1e-05,8e-05,7e-05,2
7085,7384,9e-05,7e-05,0.00015,0.00043,9e-05,1e-05,8e-05,7e-05,2
7086,7385,9e-05,7e-05,0.00015,0.00043,9e-05,1e-05,8e-05,7e-05,2
7087,7386,-0.00011,-7e-05,4e-05,0.00016999999999999999,-2e-05,-0.00016999999999999999,-9e-05,-5.9999999999999995e-05,2
7088,7388,-0.00016999999999999999,-0.00016,-0.00023999999999999998,-0.00033,-0.00013000000000000002,-1e-05,-0.00016999999999999999,-0.00011,2
7089,7389,-0.00016999999999999999,-0.00016,-0.00023999999999999998,-0.00033,-0.00013000000000000002,-1e-05,-0.00016999999999999999,-0.00011,2
7090,7390,-0.00016999999999999999,-0.00016,-0.00023999999999999998,-0.00033,-0.00013000000000000002,-1e-05,-0.00016999999999999999,-0.00011,2
7091,7391,-0.00016999999999999999,-0.00016,-0.00023999999999999998,-0.00033,-0.00013000000000000002,-1e-05,-0.00016999999999999999,-0.00011,2
7092,7392,-0.00016999999999999999,-0.00016,-0.00023999999999999998,-0.00033,-0.00013000000000000002,-1e-05,-0.00016999999999999999,-0.00011,2
7093,7393,-0.00016999999999999999,-0.00016,-0.00023999999999999998,-0.00033,-0.00013000000000000002,-1e-05,-0.00016999999999999999,-0.00011,2
7094,7394,-0.00016999999999999999,-0.00016,-0.00023999999999999998,-0.00033,-0.00013000000000000002,-1e-05,-0.00016999999999999999,-0.00011,2
7095,7395,-0.00016999999999999999,-0.00016,-0.00023999999999999998,-0.00033,-0.00013000000000000002,-1e-05,-0.00016999999999999999,-0.00011,2
7096,7396,-0.00016999999999999999,-0.00016,-0.00023999999999999998,-0.00033,-0.00013000000000000002,-1e-05,-0.00016999999999999999,-0.00011,2
7097,7397,-0.00016999999999999999,-0.00016,-0.00023999999999999998,-0.00033,-0.00013000000000000002,-1e-05,-0.00016999999999999999,-0.00011,2
7098,7398,-0.00016999999999999999,-0.00016,-0.00023999999999999998,-0.00033,-0.00013000000000000002,-1e-05,-0.00016999999999999999,-0.00011,2
7099,7399,-0.00016999999999999999,-0.00016,-0.00023999999999999998,-0.00033,-0.00013000000000000002,-1e-05,-0.00016999999999999999,-0.00011,2
7100,7400,-0.00016999999999999999,-0.00016,-0.00023999999999999998,-0.00033,-0.00013000000000000002,-1e-05,-0.00016999999999999999,-0.00011,2
7101,7401,-0.00016999999999999999,-0.00016,-0.00023999999999999998,-0.00033,-0.00013000000000000002,-1e-05,-0.00016999999999999999,-0.00011,2
7102,7402,-0.00016999999999999999,-0.00016,-0.00023999999999999998,-0.00033,-0.00013000000000000002,-1e-05,-0.00016999999999999999,-0.00011,2
7103,7403,-0.00016999999999999999,-0.00016,-0.00023999999999999998,-0.00033,-0.00013000000000000002,-1e-05,-0.00016999999999999999,-0.00011,2
7104,7404,-0.00016999999999999999,-0.00016,-0.00023999999999999998,-0.00033,-0.00013000000000000002,-1e-05,-0.00016999999999999999,-0.00011,2
7105,7405,-0.00016999999999999999,-0.00016,-0.00023999999999999998,-0.00033,-0.00013000000000000002,-1e-05,-0.00016999999999999999,-0.00011,2
7106,7406,-0.00016999999999999999,-0.00016,-0.00023999999999999998,-0.00033,-0.00013000000000000002,-1e-05,-0.00016999999999999999,-0.00011,2
7107,7407,-0.00016999999999999999,-0.00016,-0.00023999999999999998,-0.00033,-0.00013000000000000002,-1e-05,-0.00016999999999999999,-0.00011,2
7108,7408,0.00011,0.00011,8e-05,8e-05,-1e-05,2.9999999999999997e-05,4e-05,9e-05,2
7109,7409,0.00011,0.00011,8e-05,8e-05,-1e-05,2.9999999999999997e-05,4e-05,9e-05,2
7110,7410,0.00026000000000000003,0.00016999999999999999,0.00028,0.00042,-5.9999999999999995e-05,-1e-05,2e-05,9e-05,2
7111,7411,0.00026000000000000003,0.00016999999999999999,0.00028,0.00042,-5.9999999999999995e-05,-1e-05,2e-05,9e-05,2
7112,7412,0.00026000000000000003,0.00016999999999999999,0.00028,0.00042,-5.9999999999999995e-05,-1e-05,2e-05,9e-05,2
7113,7413,0.00026000000000000003,0.00016999999999999999,0.00028,0.00042,-5.9999999999999995e-05,-1e-05,2e-05,9e-05,2
7114,7414,0.00026000000000000003,0.00016999999999999999,0.00028,0.00042,-5.9999999999999995e-05,-1e-05,2e-05,9e-05,2
7115,7415,0.00026000000000000003,0.00016999999999999999,0.00028,0.00042,-5.9999999999999995e-05,-1e-05,2e-05,9e-05,2
7116,7416,0.00026000000000000003,0.00016999999999999999,0.00028,0.00042,-5.9999999999999995e-05,-1e-05,2e-05,9e-05,2
7117,7417,0.00026000000000000003,0.00016999999999999999,0.00028,0.00042,-5.9999999999999995e-05,-1e-05,2e-05,9e-05,2
7118,7419,0.00026000000000000003,0.00016999999999999999,0.00028,0.00042,-5.9999999999999995e-05,-1e-05,2e-05,9e-05,2
7119,7420,0.00026000000000000003,0.00016999999999999999,0.00028,0.00042,-5.9999999999999995e-05,-1e-05,2e-05,9e-05,2
7120,7421,0.00026000000000000003,0.00016999999999999999,0.00028,0.00042,-5.9999999999999995e-05,-1e-05,2e-05,9e-05,2
7121,7422,-7e-05,-0.00011,-0.00026000000000000003,-0.00059,7e-05,0.00016,0.00011999999999999999,-1e-05,2
7122,7423,-7e-05,-7e-05,-0.00013000000000000002,-0.00049,-5.9999999999999995e-05,-0.0001,-2e-05,-2e-05,2
7123,7424,-7e-05,-7e-05,-0.00013000000000000002,-0.00049,-5.9999999999999995e-05,-0.0001,-2e-05,-2e-05,2
7124,7425,-7e-05,-7e-05,-0.00013000000000000002,-0.00049,-5.9999999999999995e-05,-0.0001,-2e-05,-2e-05,2
7125,7426,-7e-05,-7e-05,-0.00013000000000000002,-0.00049,-5.9999999999999995e-05,-0.0001,-2e-05,-2e-05,2
7126,7427,-7e-05,-7e-05,-0.00013000000000000002,-0.00049,-5.9999999999999995e-05,-0.0001,-2e-05,-2e-05,2
7127,7428,-7e-05,-7e-05,-0.00013000000000000002,-0.00049,-5.9999999999999995e-05,-0.0001,-2e-05,-2e-05,2
7128,7429,-7e-05,-7e-05,-0.00013000000000000002,-0.00049,-5.9999999999999995e-05,-0.0001,-2e-05,-2e-05,2
7129,7430,-5e-05,-2.9999999999999997e-05,2e-05,-0.00011,-2.9999999999999997e-05,0.00013000000000000002,0.00027,2e-05,2
7130,7431,-5e-05,-2.9999999999999997e-05,2e-05,-0.00011,-2.9999999999999997e-05,0.00013000000000000002,0.00027,2e-05,2
7131,7432,-5e-05,-2.9999999999999997e-05,2e-05,-0.00011,-2.9999999999999997e-05,0.00013000000000000002,0.00027,2e-05,2
7132,7433,-5e-05,-2.9999999999999997e-05,2e-05,-0.00011,-2.9999999999999997e-05,0.00013000000000000002,0.00027,2e-05,2
7133,7434,-5e-05,-2.9999999999999997e-05,2e-05,-0.00011,-2.9999999999999997e-05,0.00013000000000000002,0.00027,2e-05,2
7134,7435,-5e-05,-2.9999999999999997e-05,2e-05,-0.00011,-2.9999999999999997e-05,0.00013000000000000002,0.00027,2e-05,2
7135,7436,-5e-05,-2.9999999999999997e-05,2e-05,-0.00011,-2.9999999999999997e-05,0.00013000000000000002,0.00027,2e-05,2
7136,7438,-5e-05,-2.9999999999999997e-05,2e-05,-0.00011,-2.9999999999999997e-05,0.00013000000000000002,0.00027,2e-05,2
7137,7439,-5e-05,-2.9999999999999997e-05,2e-05,-0.00011,-2.9999999999999997e-05,0.00013000000000000002,0.00027,2e-05,2
7138,7440,-5e-05,-2.9999999999999997e-05,2e-05,-0.00011,-2.9999999999999997e-05,0.00013000000000000002,0.00027,2e-05,2
7139,7441,-5e-05,-2.9999999999999997e-05,2e-05,-0.00011,-2.9999999999999997e-05,0.00013000000000000002,0.00027,2e-05,2
7140,7442,-5e-05,-2.9999999999999997e-05,2e-05,-0.00011,-2.9999999999999997e-05,0.00013000000000000002,0.00027,2e-05,2
7141,7443,-5e-05,-2.9999999999999997e-05,2e-05,-0.00011,-2.9999999999999997e-05,0.00013000000000000002,0.00027,2e-05,2
7142,7444,-5e-05,-2.9999999999999997e-05,2e-05,-0.00011,-2.9999999999999997e-05,0.00013000000000000002,0.00027,2e-05,2
7143,7445,-5e-05,-2.9999999999999997e-05,2e-05,-0.00011,-2.9999999999999997e-05,0.00013000000000000002,0.00027,2e-05,2
7144,7446,8e-05,-8e-05,-0.00028,-0.0002,5.9999999999999995e-05,1e-05,4e-05,0.0,2
7145,7447,-5e-05,0.0,8e-05,0.0001,-2.9999999999999997e-05,-0.0001,-9e-05,-9e-05,2
7146,7448,-5e-05,0.0,8e-05,0.0001,-2.9999999999999997e-05,-0.0001,-9e-05,-9e-05,2
7147,7449,-5e-05,0.0,8e-05,0.0001,-2.9999999999999997e-05,-0.0001,-9e-05,-9e-05,2
7148,7450,-5e-05,0.0,8e-05,0.0001,-2.9999999999999997e-05,-0.0001,-9e-05,-9e-05,2
7149,7451,-5e-05,0.0,8e-05,0.0001,-2.9999999999999997e-05,-0.0001,-9e-05,-9e-05,2
7150,7452,-5e-05,0.0,8e-05,0.0001,-2.9999999999999997e-05,-0.0001,-9e-05,-9e-05,2
7151,7453,-5e-05,0.0,8e-05,0.0001,-2.9999999999999997e-05,-0.0001,-9e-05,-9e-05,2
7152,7454,-5e-05,0.0,8e-05,0.0001,-2.9999999999999997e-05,-0.0001,-9e-05,-9e-05,2
7153,7455,-5e-05,0.0,8e-05,0.0001,-2.9999999999999997e-05,-0.0001,-9e-05,-9e-05,2
7154,7456,-5e-05,0.0,8e-05,0.0001,-2.9999999999999997e-05,-0.0001,-9e-05,-9e-05,2
7155,7457,-5e-05,0.0,8e-05,0.0001,-2.9999999999999997e-05,-0.0001,-9e-05,-9e-05,2
7156,7458,-5e-05,0.0,8e-05,0.0001,-2.9999999999999997e-05,-0.0001,-9e-05,-9e-05,2
7157,7459,-5e-05,0.0,8e-05,0.0001,-2.9999999999999997e-05,-0.0001,-9e-05,-9e-05,2
7158,7460,-5e-05,0.0,8e-05,0.0001,-2.9999999999999997e-05,-0.0001,-9e-05,-9e-05,2
7159,7461,-5e-05,0.0,8e-05,0.0001,-2.9999999999999997e-05,-0.0001,-9e-05,-9e-05,2
7160,7462,-5e-05,0.0,8e-05,0.0001,-2.9999999999999997e-05,-0.0001,-9e-05,-9e-05,2
7161,7463,-5e-05,0.0,8e-05,0.0001,-2.9999999999999997e-05,-0.0001,-9e-05,-9e-05,2
7162,7464,-5e-05,0.0,8e-05,0.0001,-2.9999999999999997e-05,-0.0001,-9e-05,-9e-05,2
7163,7465,-5e-05,0.0,8e-05,0.0001,-2.9999999999999997e-05,-0.0001,-9e-05,-9e-05,2
7164,7466,-5e-05,0.0,8e-05,0.0001,-2.9999999999999997e-05,-0.0001,-9e-05,-9e-05,2
7165,7467,-5e-05,0.0,8e-05,0.0001,-2.9999999999999997e-05,-0.0001,-9e-05,-9e-05,2
7166,7468,1e-05,-1e-05,0.0,-0.0001,-8e-05,-0.00011999999999999999,-0.00013000000000000002,-7e-05,2
7167,7469,1e-05,-1e-05,0.0,-0.0001,-8e-05,-0.00011999999999999999,-0.00013000000000000002,-7e-05,2
7168,7470,-8e-05,-9e-05,-0.00015,-0.00011,0.0,-4e-05,-7e-05,-2.9999999999999997e-05,2
7169,7471,-8e-05,-9e-05,-0.00015,-0.00011,0.0,-4e-05,-7e-05,-2.9999999999999997e-05,2
7170,7472,-8e-05,-9e-05,-0.00015,-0.00011,0.0,-4e-05,-7e-05,-2.9999999999999997e-05,2
7171,7473,-8e-05,-9e-05,-0.00015,-0.00011,0.0,-4e-05,-7e-05,-2.9999999999999997e-05,2
7172,7474,-8e-05,-9e-05,-0.00015,-0.00011,0.0,-4e-05,-7e-05,-2.9999999999999997e-05,2
7173,7475,-8e-05,-9e-05,-0.00015,-0.00011,0.0,-4e-05,-7e-05,-2.9999999999999997e-05,2
7174,7476,-8e-05,-9e-05,-0.00015,-0.00011,0.0,-4e-05,-7e-05,-2.9999999999999997e-05,2
7175,7477,-8e-05,-9e-05,-0.00015,-0.00011,0.0,-4e-05,-7e-05,-2.9999999999999997e-05,2
7176,7478,-8e-05,-9e-05,-0.00015,-0.00011,0.0,-4e-05,-7e-05,-2.9999999999999997e-05,2
7177,7479,-8e-05,-9e-05,-0.00015,-0.00011,0.0,-4e-05,-7e-05,-2.9999999999999997e-05,2
7178,7480,-8e-05,-9e-05,-0.00015,-0.00011,0.0,-4e-05,-7e-05,-2.9999999999999997e-05,2
7179,7481,-8e-05,-9e-05,-0.00015,-0.00011,0.0,-4e-05,-7e-05,-2.9999999999999997e-05,2
7180,7482,-8e-05,-9e-05,-0.00015,-0.00011,0.0,-4e-05,-7e-05,-2.9999999999999997e-05,2
7181,7483,0.00011999999999999999,2.9999999999999997e-05,-2e-05,-0.00014,5.9999999999999995e-05,0.00016,0.00027,5.9999999999999995e-05,2
7182,7484,0.00011999999999999999,2.9999999999999997e-05,-2e-05,-0.00014,5.9999999999999995e-05,0.00016,0.00027,5.9999999999999995e-05,2
7183,7485,0.00011999999999999999,2.9999999999999997e-05,-2e-05,-0.00014,5.9999999999999995e-05,0.00016,0.00027,5.9999999999999995e-05,2
7184,7486,0.00011999999999999999,2.9999999999999997e-05,-2e-05,-0.00014,5.9999999999999995e-05,0.00016,0.00027,5.9999999999999995e-05,2
7185,7488,0.00011999999999999999,2.9999999999999997e-05,-2e-05,-0.00014,5.9999999999999995e-05,0.00016,0.00027,5.9999999999999995e-05,2
7186,7489,-0.00014,-5.9999999999999995e-05,5e-05,-0.00015,-7e-05,-5e-05,-5.9999999999999995e-05,-2.9999999999999997e-05,2
7187,7490,-0.00014,-5.9999999999999995e-05,5e-05,-0.00015,-7e-05,-5e-05,-5.9999999999999995e-05,-2.9999999999999997e-05,2
7188,7491,-0.00014,-5.9999999999999995e-05,5e-05,-0.00015,-7e-05,-5e-05,-5.9999999999999995e-05,-2.9999999999999997e-05,2
7189,7492,-0.00014,-5.9999999999999995e-05,5e-05,-0.00015,-7e-05,-5e-05,-5.9999999999999995e-05,-2.9999999999999997e-05,2
7190,7493,-0.00014,-5.9999999999999995e-05,5e-05,-0.00015,-7e-05,-5e-05,-5.9999999999999995e-05,-2.9999999999999997e-05,2
7191,7494,-0.00014,-5.9999999999999995e-05,5e-05,-0.00015,-7e-05,-5e-05,-5.9999999999999995e-05,-2.9999999999999997e-05,2
7192,7495,-0.00014,-5.9999999999999995e-05,5e-05,-0.00015,-7e-05,-5e-05,-5.9999999999999995e-05,-2.9999999999999997e-05,2
7193,7496,-0.00014,-5.9999999999999995e-05,5e-05,-0.00015,-7e-05,-5e-05,-5.9999999999999995e-05,-2.9999999999999997e-05,2
7194,7497,-0.00014,-5.9999999999999995e-05,5e-05,-0.00015,-7e-05,-5e-05,-5.9999999999999995e-05,-2.9999999999999997e-05,2
7195,7498,-0.00014,-5.9999999999999995e-05,5e-05,-0.00015,-7e-05,-5e-05,-5.9999999999999995e-05,-2.9999999999999997e-05,2
7196,7499,-0.00014,-5.9999999999999995e-05,5e-05,-0.00015,-7e-05,-5e-05,-5.9999999999999995e-05,-2.9999999999999997e-05,2
7197,7500,-0.00014,-5.9999999999999995e-05,5e-05,-0.00015,-7e-05,-5e-05,-5.9999999999999995e-05,-2.9999999999999997e-05,2
7198,7501,-0.00014,-5.9999999999999995e-05,5e-05,-0.00015,-7e-05,-5e-05,-5.9999999999999995e-05,-2.9999999999999997e-05,2
7199,7502,-0.00014,-5.9999999999999995e-05,5e-05,-0.00015,-7e-05,-5e-05,-5.9999999999999995e-05,-2.9999999999999997e-05,2
7200,7503,-0.00014,-5.9999999999999995e-05,5e-05,-0.00015,-7e-05,-5e-05,-5.9999999999999995e-05,-2.9999999999999997e-05,2
7201,7504,-0.00014,-5.9999999999999995e-05,5e-05,-0.00015,-7e-05,-5e-05,-5.9999999999999995e-05,-2.9999999999999997e-05,2
7202,7505,-0.00014,-5.9999999999999995e-05,5e-05,-0.00015,-7e-05,-5e-05,-5.9999999999999995e-05,-2.9999999999999997e-05,2
7203,7506,0.0,0.0001,0.00039,0.00056,-0.0001,-9e-05,-1e-05,-2e-05,2
7204,7507,-1e-05,0.0,-0.0001,-0.00031,-2e-05,-0.00016999999999999999,4e-05,2e-05,2
7205,7508,-1e-05,0.0,-0.0001,-0.00031,-2e-05,-0.00016999999999999999,4e-05,2e-05,2
7206,7509,-1e-05,0.0,-0.0001,-0.00031,-2e-05,-0.00016999999999999999,4e-05,2e-05,2
7207,7510,-1e-05,0.0,-0.0001,-0.00031,-2e-05,-0.00016999999999999999,4e-05,2e-05,2
7208,7511,-1e-05,0.0,-0.0001,-0.00031,-2e-05,-0.00016999999999999999,4e-05,2e-05,2
7209,7512,-1e-05,0.0,-0.0001,-0.00031,-2e-05,-0.00016999999999999999,4e-05,2e-05,2
7210,7513,-1e-05,0.0,-0.0001,-0.00031,-2e-05,-0.00016999999999999999,4e-05,2e-05,2
7211,7514,-1e-05,0.0,-0.0001,-0.00031,-2e-05,-0.00016999999999999999,4e-05,2e-05,2
7212,7515,-1e-05,0.0,-0.0001,-0.00031,-2e-05,-0.00016999999999999999,4e-05,2e-05,2
7213,7516,-1e-05,0.0,-0.0001,-0.00031,-2e-05,-0.00016999999999999999,4e-05,2e-05,2
7214,7517,-1e-05,0.0,-0.0001,-0.00031,-2e-05,-0.00016999999999999999,4e-05,2e-05,2
7215,7518,-1e-05,0.0,-0.0001,-0.00031,-2e-05,-0.00016999999999999999,4e-05,2e-05,2
7216,7519,-1e-05,0.0,-0.0001,-0.00031,-2e-05,-0.00016999999999999999,4e-05,2e-05,2
7217,7520,-1e-05,0.0,-0.0001,-0.00031,-2e-05,-0.00016999999999999999,4e-05,2e-05,2
7218,7521,-1e-05,0.0,-0.0001,-0.00031,-2e-05,-0.00016999999999999999,4e-05,2e-05,2
7219,7522,-1e-05,0.0,-0.0001,-0.00031,-2e-05,-0.00016999999999999999,4e-05,2e-05,2
7220,7523,-1e-05,0.0,-0.0001,-0.00031,-2e-05,-0.00016999999999999999,4e-05,2e-05,2
7221,7524,-1e-05,0.0,-0.0001,-0.00031,-2e-05,-0.00016999999999999999,4e-05,2e-05,2
7222,7525,-1e-05,0.0,-0.0001,-0.00031,-2e-05,-0.00016999999999999999,4e-05,2e-05,2
7223,7526,-1e-05,0.0,-0.0001,-0.00031,-2e-05,-0.00016999999999999999,4e-05,2e-05,2
7224,7527,-1e-05,0.0,-0.0001,-0.00031,-2e-05,-0.00016999999999999999,4e-05,2e-05,2
7225,7528,0.0001,4e-05,0.00011999999999999999,-2e-05,5e-05,5.9999999999999995e-05,8e-05,0.00011,2
7226,7529,0.0001,4e-05,0.00011999999999999999,-2e-05,5e-05,5.9999999999999995e-05,8e-05,0.00011,2
7227,7530,-5.9999999999999995e-05,-2e-05,-2.9999999999999997e-05,0.00013000000000000002,2.9999999999999997e-05,0.0001,-0.00018,-7e-05,2
7228,7531,-5.9999999999999995e-05,-2e-05,-2.9999999999999997e-05,0.00013000000000000002,2.9999999999999997e-05,0.0001,-0.00018,-7e-05,2
7229,7532,-5.9999999999999995e-05,-2e-05,-2.9999999999999997e-05,0.00013000000000000002,2.9999999999999997e-05,0.0001,-0.00018,-7e-05,2
7230,7533,-5.9999999999999995e-05,-2e-05,-2.9999999999999997e-05,0.00013000000000000002,2.9999999999999997e-05,0.0001,-0.00018,-7e-05,2
7231,7534,-5.9999999999999995e-05,-2e-05,-2.9999999999999997e-05,0.00013000000000000002,2.9999999999999997e-05,0.0001,-0.00018,-7e-05,2
7232,7535,-5.9999999999999995e-05,-2e-05,-2.9999999999999997e-05,0.00013000000000000002,2.9999999999999997e-05,0.0001,-0.00018,-7e-05,2
7233,7536,-5.9999999999999995e-05,-2e-05,-2.9999999999999997e-05,0.00013000000000000002,2.9999999999999997e-05,0.0001,-0.00018,-7e-05,2
7234,7538,-5.9999999999999995e-05,-2e-05,-2.9999999999999997e-05,0.00013000000000000002,2.9999999999999997e-05,0.0001,-0.00018,-7e-05,2
7235,7539,-5.9999999999999995e-05,-2e-05,-2.9999999999999997e-05,0.00013000000000000002,2.9999999999999997e-05,0.0001,-0.00018,-7e-05,2
7236,7540,-5.9999999999999995e-05,-2e-05,-2.9999999999999997e-05,0.00013000000000000002,2.9999999999999997e-05,0.0001,-0.00018,-7e-05,2
7237,7541,-5.9999999999999995e-05,-2e-05,-2.9999999999999997e-05,0.00013000000000000002,2.9999999999999997e-05,0.0001,-0.00018,-7e-05,2
7238,7542,-5.9999999999999995e-05,-2e-05,-2.9999999999999997e-05,0.00013000000000000002,2.9999999999999997e-05,0.0001,-0.00018,-7e-05,2
7239,7543,-5e-05,5e-05,0.00021,0.00026000000000000003,-2.9999999999999997e-05,-0.0002,0.0,2.9999999999999997e-05,2
7240,7544,-5e-05,5e-05,0.00021,0.00026000000000000003,-2.9999999999999997e-05,-0.0002,0.0,2.9999999999999997e-05,2
7241,7545,-5e-05,5e-05,0.00021,0.00026000000000000003,-2.9999999999999997e-05,-0.0002,0.0,2.9999999999999997e-05,2
7242,7546,-5e-05,5e-05,0.00021,0.00026000000000000003,-2.9999999999999997e-05,-0.0002,0.0,2.9999999999999997e-05,2
7243,7547,-5e-05,5e-05,0.00021,0.00026000000000000003,-2.9999999999999997e-05,-0.0002,0.0,2.9999999999999997e-05,2
7244,7548,-5e-05,5e-05,0.00021,0.00026000000000000003,-2.9999999999999997e-05,-0.0002,0.0,2.9999999999999997e-05,2
7245,7549,0.00022,5.9999999999999995e-05,5e-05,9e-05,7e-05,0.00014,8e-05,5e-05,2
7246,7550,0.00022,5.9999999999999995e-05,5e-05,9e-05,7e-05,0.00014,8e-05,5e-05,2
7247,7551,0.00022,5.9999999999999995e-05,5e-05,9e-05,7e-05,0.00014,8e-05,5e-05,2
7248,7552,0.00022,5.9999999999999995e-05,5e-05,9e-05,7e-05,0.00014,8e-05,5e-05,2
7249,7553,0.00022,5.9999999999999995e-05,5e-05,9e-05,7e-05,0.00014,8e-05,5e-05,2
7250,7554,0.00022,5.9999999999999995e-05,5e-05,9e-05,7e-05,0.00014,8e-05,5e-05,2
7251,7555,0.00022,5.9999999999999995e-05,5e-05,9e-05,7e-05,0.00014,8e-05,5e-05,2
7252,7556,0.00022,5.9999999999999995e-05,5e-05,9e-05,7e-05,0.00014,8e-05,5e-05,2
7253,7557,0.00022,5.9999999999999995e-05,5e-05,9e-05,7e-05,0.00014,8e-05,5e-05,2
7254,7558,0.00022,5.9999999999999995e-05,5e-05,9e-05,7e-05,0.00014,8e-05,5e-05,2
7255,7559,0.00022,5.9999999999999995e-05,5e-05,9e-05,7e-05,0.00014,8e-05,5e-05,2
7256,7560,0.00022,5.9999999999999995e-05,5e-05,9e-05,7e-05,0.00014,8e-05,5e-05,2
7257,7561,0.00022,5.9999999999999995e-05,5e-05,9e-05,7e-05,0.00014,8e-05,5e-05,2
7258,7562,0.00022,5.9999999999999995e-05,5e-05,9e-05,7e-05,0.00014,8e-05,5e-05,2
7259,7563,0.00022,5.9999999999999995e-05,5e-05,9e-05,7e-05,0.00014,8e-05,5e-05,2
7260,7564,0.00022,5.9999999999999995e-05,5e-05,9e-05,7e-05,0.00014,8e-05,5e-05,2
7261,7565,0.00022,5.9999999999999995e-05,5e-05,9e-05,7e-05,0.00014,8e-05,5e-05,2
7262,7566,2e-05,5.9999999999999995e-05,0.00022999999999999998,0.0003,-4e-05,-0.00015,-5e-05,-7e-05,2
7263,7567,-0.00015,-7e-05,-0.00027,-0.0002,-7e-05,5e-05,-0.00022999999999999998,-0.00016,2
7264,7568,-0.00015,-7e-05,-0.00027,-0.0002,-7e-05,5e-05,-0.00022999999999999998,-0.00016,2
7265,7569,-0.00015,-7e-05,-0.00027,-0.0002,-7e-05,5e-05,-0.00022999999999999998,-0.00016,2
7266,7571,-0.00015,-7e-05,-0.00027,-0.0002,-7e-05,5e-05,-0.00022999999999999998,-0.00016,2
7267,7572,-0.00015,-7e-05,-0.00027,-0.0002,-7e-05,5e-05,-0.00022999999999999998,-0.00016,2
7268,7573,-0.00015,-7e-05,-0.00027,-0.0002,-7e-05,5e-05,-0.00022999999999999998,-0.00016,2
7269,7574,-0.00015,-7e-05,-0.00027,-0.0002,-7e-05,5e-05,-0.00022999999999999998,-0.00016,2
7270,7575,-0.00015,-7e-05,-0.00027,-0.0002,-7e-05,5e-05,-0.00022999999999999998,-0.00016,2
7271,7576,-0.00015,-7e-05,-0.00027,-0.0002,-7e-05,5e-05,-0.00022999999999999998,-0.00016,2
7272,7577,-0.00015,-7e-05,-0.00027,-0.0002,-7e-05,5e-05,-0.00022999999999999998,-0.00016,2
7273,7578,-0.00015,-7e-05,-0.00027,-0.0002,-7e-05,5e-05,-0.00022999999999999998,-0.00016,2
7274,7579,-0.00015,-7e-05,-0.00027,-0.0002,-7e-05,5e-05,-0.00022999999999999998,-0.00016,2
7275,7580,-0.00015,-7e-05,-0.00027,-0.0002,-7e-05,5e-05,-0.00022999999999999998,-0.00016,2
7276,7581,-0.00015,-7e-05,-0.00027,-0.0002,-7e-05,5e-05,-0.00022999999999999998,-0.00016,2
7277,7582,-0.00015,-7e-05,-0.00027,-0.0002,-7e-05,5e-05,-0.00022999999999999998,-0.00016,2
7278,7583,-0.00015,-7e-05,-0.00027,-0.0002,-7e-05,5e-05,-0.00022999999999999998,-0.00016,2
7279,7584,-0.00015,-7e-05,-0.00027,-0.0002,-7e-05,5e-05,-0.00022999999999999998,-0.00016,2
7280,7585,-0.00015,-7e-05,-0.00027,-0.0002,-7e-05,5e-05,-0.00022999999999999998,-0.00016,2
7281,7586,-0.00015,-7e-05,-0.00027,-0.0002,-7e-05,5e-05,-0.00022999999999999998,-0.00016,2
7282,7588,0.00029,0.00016,0.00022,0.00045,1e-05,9e-05,0.0,5.9999999999999995e-05,2
7283,7589,0.00029,0.00016,0.00022,0.00045,1e-05,9e-05,0.0,5.9999999999999995e-05,2
7284,7590,-4e-05,-1e-05,-1e-05,-9e-05,0.0,2.9999999999999997e-05,-7e-05,0.0,2
7285,7591,-4e-05,-1e-05,-1e-05,-9e-05,0.0,2.9999999999999997e-05,-7e-05,0.0,2
7286,7592,-4e-05,-1e-05,-1e-05,-9e-05,0.0,2.9999999999999997e-05,-7e-05,0.0,2
7287,7593,-4e-05,-1e-05,-1e-05,-9e-05,0.0,2.9999999999999997e-05,-7e-05,0.0,2
7288,7594,-4e-05,-1e-05,-1e-05,-9e-05,0.0,2.9999999999999997e-05,-7e-05,0.0,2
7289,7595,-4e-05,-1e-05,-1e-05,-9e-05,0.0,2.9999999999999997e-05,-7e-05,0.0,2
7290,7596,-4e-05,-1e-05,-1e-05,-9e-05,0.0,2.9999999999999997e-05,-7e-05,0.0,2
7291,7597,-4e-05,-1e-05,-1e-05,-9e-05,0.0,2.9999999999999997e-05,-7e-05,0.0,2
7292,7598,-4e-05,-1e-05,-1e-05,-9e-05,0.0,2.9999999999999997e-05,-7e-05,0.0,2
7293,7599,-4e-05,-1e-05,-1e-05,-9e-05,0.0,2.9999999999999997e-05,-7e-05,0.0,2
7294,7600,-4e-05,-1e-05,-1e-05,-9e-05,0.0,2.9999999999999997e-05,-7e-05,0.0,2
7295,7601,-4e-05,-1e-05,-1e-05,-9e-05,0.0,2.9999999999999997e-05,-7e-05,0.0,2
7296,7602,-9e-05,-0.00011999999999999999,-0.00031,-0.00035,2e-05,0.00013000000000000002,9e-05,5e-05,2
7297,7603,-9e-05,-0.00011999999999999999,-0.00031,-0.00035,2e-05,0.00013000000000000002,9e-05,5e-05,2
7298,7604,-9e-05,-0.00011999999999999999,-0.00031,-0.00035,2e-05,0.00013000000000000002,9e-05,5e-05,2
7299,7605,-9e-05,-0.00011999999999999999,-0.00031,-0.00035,2e-05,0.00013000000000000002,9e-05,5e-05,2
7300,7606,-9e-05,-0.00011999999999999999,-0.00031,-0.00035,2e-05,0.00013000000000000002,9e-05,5e-05,2
7301,7608,-9e-05,-0.00011999999999999999,-0.00031,-0.00035,2e-05,0.00013000000000000002,9e-05,5e-05,2
7302,7609,1e-05,-4e-05,-0.00013000000000000002,4e-05,-9e-05,-0.00016999999999999999,0.00014,0.00015,2
7303,7610,1e-05,-4e-05,-0.00013000000000000002,4e-05,-9e-05,-0.00016999999999999999,0.00014,0.00015,2
7304,7611,1e-05,-4e-05,-0.00013000000000000002,4e-05,-9e-05,-0.00016999999999999999,0.00014,0.00015,2
7305,7612,1e-05,-4e-05,-0.00013000000000000002,4e-05,-9e-05,-0.00016999999999999999,0.00014,0.00015,2
7306,7613,1e-05,-4e-05,-0.00013000000000000002,4e-05,-9e-05,-0.00016999999999999999,0.00014,0.00015,2
7307,7614,1e-05,-4e-05,-0.00013000000000000002,4e-05,-9e-05,-0.00016999999999999999,0.00014,0.00015,2
7308,7615,1e-05,-4e-05,-0.00013000000000000002,4e-05,-9e-05,-0.00016999999999999999,0.00014,0.00015,2
7309,7616,1e-05,-4e-05,-0.00013000000000000002,4e-05,-9e-05,-0.00016999999999999999,0.00014,0.00015,2
7310,7617,1e-05,-4e-05,-0.00013000000000000002,4e-05,-9e-05,-0.00016999999999999999,0.00014,0.00015,2
7311,7618,1e-05,-4e-05,-0.00013000000000000002,4e-05,-9e-05,-0.00016999999999999999,0.00014,0.00015,2
7312,7619,1e-05,-4e-05,-0.00013000000000000002,4e-05,-9e-05,-0.00016999999999999999,0.00014,0.00015,2
7313,7620,1e-05,-4e-05,-0.00013000000000000002,4e-05,-9e-05,-0.00016999999999999999,0.00014,0.00015,2
7314,7621,1e-05,-4e-05,-0.00013000000000000002,4e-05,-9e-05,-0.00016999999999999999,0.00014,0.00015,2
7315,7622,1e-05,-4e-05,-0.00013000000000000002,4e-05,-9e-05,-0.00016999999999999999,0.00014,0.00015,2
7316,7623,1e-05,-4e-05,-0.00013000000000000002,4e-05,-9e-05,-0.00016999999999999999,0.00014,0.00015,2
7317,7624,1e-05,-4e-05,-0.00013000000000000002,4e-05,-9e-05,-0.00016999999999999999,0.00014,0.00015,2
7318,7625,1e-05,-4e-05,-0.00013000000000000002,4e-05,-9e-05,-0.00016999999999999999,0.00014,0.00015,2
7319,7626,8e-05,-2.9999999999999997e-05,8e-05,0.00026000000000000003,2.9999999999999997e-05,-2e-05,-0.00015,9e-05,2
7320,7627,8e-05,-4e-05,-2e-05,0.00014,-8e-05,-0.00015,-0.00013000000000000002,5.9999999999999995e-05,2
7321,7628,-7e-05,2e-05,0.00011999999999999999,-0.00011999999999999999,-2.9999999999999997e-05,-0.00018999999999999998,-5e-05,-0.0001,2
