,time,channel1,channel2,channel3,channel4,channel5,channel6,channel7,channel8,class
4130,4271,-2e-05,-0.00021,-0.00063,0.00032,0.00074,9e-05,0.00073,5e-05,2
4131,4272,-2e-05,-0.00021,-0.00063,0.00032,0.00074,9e-05,0.00073,5e-05,2
4132,4273,-2e-05,-0.00021,-0.00063,0.00032,0.00074,9e-05,0.00073,5e-05,2
4133,4274,-2e-05,-0.00021,-0.00063,0.00032,0.00074,9e-05,0.00073,5e-05,2
4134,4275,-2e-05,-0.00021,-0.00063,0.00032,0.00074,9e-05,0.00073,5e-05,2
4135,4276,-2e-05,-0.00021,-0.00063,0.00032,0.00074,9e-05,0.00073,5e-05,2
4136,4277,-2e-05,-0.00021,-0.00063,0.00032,0.00074,9e-05,0.00073,5e-05,2
4137,4278,-2e-05,-0.00021,-0.00063,0.00032,0.00074,9e-05,0.00073,5e-05,2
4138,4279,-2e-05,-0.00021,-0.00063,0.00032,0.00074,9e-05,0.00073,5e-05,2
4139,4280,-2e-05,-0.00021,-0.00063,0.00032,0.00074,9e-05,0.00073,5e-05,2
4140,4281,-2e-05,-0.00021,-0.00063,0.00032,0.00074,9e-05,0.00073,5e-05,2
4141,4282,-0.0004,0.00011999999999999999,0.0007,0.00085,-0.00029,-0.0004,0.0003,-5e-05,2
4142,4283,0.0,0.00011999999999999999,0.0002,0.00041,1e-05,-0.00016999999999999999,0.00086,0.00036,2
4143,4284,0.0,0.00011999999999999999,0.0002,0.00041,1e-05,-0.00016999999999999999,0.00086,0.00036,2
4144,4285,0.0,0.00011999999999999999,0.0002,0.00041,1e-05,-0.00016999999999999999,0.00086,0.00036,2
4145,4286,0.0,0.00011999999999999999,0.0002,0.00041,1e-05,-0.00016999999999999999,0.00086,0.00036,2
4146,4288,0.0,0.00011999999999999999,0.0002,0.00041,1e-05,-0.00016999999999999999,0.00086,0.00036,2
4147,4289,0.0,0.00011999999999999999,0.0002,0.00041,1e-05,-0.00016999999999999999,0.00086,0.00036,2
4148,4290,0.0,0.00011999999999999999,0.0002,0.00041,1e-05,-0.00016999999999999999,0.00086,0.00036,2
4149,4291,0.0,0.00011999999999999999,0.0002,0.00041,1e-05,-0.00016999999999999999,0.00086,0.00036,2
4150,4292,0.0,0.00011999999999999999,0.0002,0.00041,1e-05,-0.00016999999999999999,0.00086,0.00036,2
4151,4293,0.0,0.00011999999999999999,0.0002,0.00041,1e-05,-0.00016999999999999999,0.00086,0.00036,2
4152,4294,0.0,0.00011999999999999999,0.0002,0.00041,1e-05,-0.00016999999999999999,0.00086,0.00036,2
4153,4295,0.0,0.00011999999999999999,0.0002,0.00041,1e-05,-0.00016999999999999999,0.00086,0.00036,2
4154,4296,0.0,0.00011999999999999999,0.0002,0.00041,1e-05,-0.00016999999999999999,0.00086,0.00036,2
4155,4297,0.0,0.00011999999999999999,0.0002,0.00041,1e-05,-0.00016999999999999999,0.00086,0.00036,2
4156,4298,0.0,0.00011999999999999999,0.0002,0.00041,1e-05,-0.00016999999999999999,0.00086,0.00036,2
4157,4299,0.0,0.00011999999999999999,0.0002,0.00041,1e-05,-0.00016999999999999999,0.00086,0.00036,2
4158,4300,0.0,0.00011999999999999999,0.0002,0.00041,1e-05,-0.00016999999999999999,0.00086,0.00036,2
4159,4301,0.0,0.00011999999999999999,0.0002,0.00041,1e-05,-0.00016999999999999999,0.00086,0.00036,2
4160,4302,0.0,0.00011999999999999999,0.0002,0.00041,1e-05,-0.00016999999999999999,0.00086,0.00036,2
4161,4303,0.0,0.00011999999999999999,0.0002,0.00041,1e-05,-0.00016999999999999999,0.00086,0.00036,2
4162,4304,0.0,0.00011999999999999999,0.0002,0.00041,1e-05,-0.00016999999999999999,0.00086,0.00036,2
4163,4305,-0.0004,-0.0002,-0.00128,-0.00128,0.00016,0.00054,0.0012699999999999999,0.0002,2
4164,4306,0.00022,-2.9999999999999997e-05,5e-05,0.00033999999999999997,-0.00015,-0.00022999999999999998,-0.00128,-0.00037999999999999997,2
4165,4307,0.00022,-2.9999999999999997e-05,5e-05,0.00033999999999999997,-0.00015,-0.00022999999999999998,-0.00128,-0.00037999999999999997,2
4166,4308,0.00022,-2.9999999999999997e-05,5e-05,0.00033999999999999997,-0.00015,-0.00022999999999999998,-0.00128,-0.00037999999999999997,2
4167,4309,0.00022,-2.9999999999999997e-05,5e-05,0.00033999999999999997,-0.00015,-0.00022999999999999998,-0.00128,-0.00037999999999999997,2
4168,4310,0.00022,-2.9999999999999997e-05,5e-05,0.00033999999999999997,-0.00015,-0.00022999999999999998,-0.00128,-0.00037999999999999997,2
4169,4311,0.00022,-2.9999999999999997e-05,5e-05,0.00033999999999999997,-0.00015,-0.00022999999999999998,-0.00128,-0.00037999999999999997,2
4170,4312,0.00022,-2.9999999999999997e-05,5e-05,0.00033999999999999997,-0.00015,-0.00022999999999999998,-0.00128,-0.00037999999999999997,2
4171,4313,0.00022,-2.9999999999999997e-05,5e-05,0.00033999999999999997,-0.00015,-0.00022999999999999998,-0.00128,-0.00037999999999999997,2
4172,4314,0.00022,-2.9999999999999997e-05,5e-05,0.00033999999999999997,-0.00015,-0.00022999999999999998,-0.00128,-0.00037999999999999997,2
4173,4315,0.00022,-2.9999999999999997e-05,5e-05,0.00033999999999999997,-0.00015,-0.00022999999999999998,-0.00128,-0.00037999999999999997,2
4174,4316,0.00022,-2.9999999999999997e-05,5e-05,0.00033999999999999997,-0.00015,-0.00022999999999999998,-0.00128,-0.00037999999999999997,2
4175,4317,0.00022,-2.9999999999999997e-05,5e-05,0.00033999999999999997,-0.00015,-0.00022999999999999998,-0.00128,-0.00037999999999999997,2
4176,4318,0.00022,-2.9999999999999997e-05,5e-05,0.00033999999999999997,-0.00015,-0.00022999999999999998,-0.00128,-0.00037999999999999997,2
4177,4319,-0.00028,0.00016999999999999999,5e-05,-0.00016999999999999999,2e-05,-0.00099,-0.00016,0.00022,2
4178,4320,-0.00065,-0.00018,-0.00041,-0.0008699999999999999,-0.00072,-0.00075,0.00064,-5.9999999999999995e-05,2
4179,4321,-0.00065,-0.00018,-0.00041,-0.0008699999999999999,-0.00072,-0.00075,0.00064,-5.9999999999999995e-05,2
4180,4322,-0.00065,-0.00018,-0.00041,-0.0008699999999999999,-0.00072,-0.00075,0.00064,-5.9999999999999995e-05,2
4181,4323,-0.00065,-0.00018,-0.00041,-0.0008699999999999999,-0.00072,-0.00075,0.00064,-5.9999999999999995e-05,2
4182,4324,-0.00065,-0.00018,-0.00041,-0.0008699999999999999,-0.00072,-0.00075,0.00064,-5.9999999999999995e-05,2
4183,4325,-0.00065,-0.00018,-0.00041,-0.0008699999999999999,-0.00072,-0.00075,0.00064,-5.9999999999999995e-05,2
4184,4326,-0.00065,-0.00018,-0.00041,-0.0008699999999999999,-0.00072,-0.00075,0.00064,-5.9999999999999995e-05,2
4185,4327,-0.00065,-0.00018,-0.00041,-0.0008699999999999999,-0.00072,-0.00075,0.00064,-5.9999999999999995e-05,2
4186,4328,-0.00065,-0.00018,-0.00041,-0.0008699999999999999,-0.00072,-0.00075,0.00064,-5.9999999999999995e-05,2
4187,4329,-0.00065,-0.00018,-0.00041,-0.0008699999999999999,-0.00072,-0.00075,0.00064,-5.9999999999999995e-05,2
4188,4330,-0.00065,-0.00018,-0.00041,-0.0008699999999999999,-0.00072,-0.00075,0.00064,-5.9999999999999995e-05,2
4189,4331,-0.00065,-0.00018,-0.00041,-0.0008699999999999999,-0.00072,-0.00075,0.00064,-5.9999999999999995e-05,2
4190,4332,-0.00065,-0.00018,-0.00041,-0.0008699999999999999,-0.00072,-0.00075,0.00064,-5.9999999999999995e-05,2
4191,4333,-0.00065,-0.00018,-0.00041,-0.0008699999999999999,-0.00072,-0.00075,0.00064,-5.9999999999999995e-05,2
4192,4334,-0.00065,-0.00018,-0.00041,-0.0008699999999999999,-0.00072,-0.00075,0.00064,-5.9999999999999995e-05,2
4193,4335,-0.00065,-0.00018,-0.00041,-0.0008699999999999999,-0.00072,-0.00075,0.00064,-5.9999999999999995e-05,2
4194,4336,-0.00065,-0.00018,-0.00041,-0.0008699999999999999,-0.00072,-0.00075,0.00064,-5.9999999999999995e-05,2
4195,4338,-0.00065,-0.00018,-0.00041,-0.0008699999999999999,-0.00072,-0.00075,0.00064,-5.9999999999999995e-05,2
4196,4339,-0.00065,-0.00018,-0.00041,-0.0008699999999999999,-0.00072,-0.00075,0.00064,-5.9999999999999995e-05,2
4197,4340,-0.00065,-0.00018,-0.00041,-0.0008699999999999999,-0.00072,-0.00075,0.00064,-5.9999999999999995e-05,2
4198,4341,-0.00065,-0.00018,-0.00041,-0.0008699999999999999,-0.00072,-0.00075,0.00064,-5.9999999999999995e-05,2
4199,4342,0.0005099999999999999,2e-05,-0.00013000000000000002,7e-05,9e-05,8e-05,0.00125,0.00072,2
4200,4343,-0.00018999999999999998,0.00018,0.00056,-0.00061,-0.00055,0.0005,-0.00093,-0.00042,2
4201,4344,-0.00018999999999999998,0.00018,0.00056,-0.00061,-0.00055,0.0005,-0.00093,-0.00042,2
4202,4345,-0.00018999999999999998,0.00018,0.00056,-0.00061,-0.00055,0.0005,-0.00093,-0.00042,2
4203,4346,-0.00018999999999999998,0.00018,0.00056,-0.00061,-0.00055,0.0005,-0.00093,-0.00042,2
4204,4347,-0.00018999999999999998,0.00018,0.00056,-0.00061,-0.00055,0.0005,-0.00093,-0.00042,2
4205,4348,-0.00018999999999999998,0.00018,0.00056,-0.00061,-0.00055,0.0005,-0.00093,-0.00042,2
4206,4349,-0.00018999999999999998,0.00018,0.00056,-0.00061,-0.00055,0.0005,-0.00093,-0.00042,2
4207,4350,-0.00018999999999999998,0.00018,0.00056,-0.00061,-0.00055,0.0005,-0.00093,-0.00042,2
4208,4351,-0.00018999999999999998,0.00018,0.00056,-0.00061,-0.00055,0.0005,-0.00093,-0.00042,2
4209,4352,-0.00018999999999999998,0.00018,0.00056,-0.00061,-0.00055,0.0005,-0.00093,-0.00042,2
4210,4353,-0.00018999999999999998,0.00018,0.00056,-0.00061,-0.00055,0.0005,-0.00093,-0.00042,2
4211,4354,-0.00018999999999999998,0.00018,0.00056,-0.00061,-0.00055,0.0005,-0.00093,-0.00042,2
4212,4355,-0.00018999999999999998,0.00018,0.00056,-0.00061,-0.00055,0.0005,-0.00093,-0.00042,2
4213,4356,-0.00014,-9e-05,-5e-05,0.0008699999999999999,2.9999999999999997e-05,-0.0008900000000000001,0.00081,0.00029,2
4214,4357,-0.00043,-0.0001,7e-05,0.00018999999999999998,-0.00045999999999999996,0.00049,-0.00044,-0.00013000000000000002,2
4215,4358,0.00026000000000000003,-5.9999999999999995e-05,0.00022,0.0007700000000000001,0.00049,-0.0009699999999999999,0.0012699999999999999,0.00011999999999999999,2
4216,4359,0.00026000000000000003,-5.9999999999999995e-05,0.00022,0.0007700000000000001,0.00049,-0.0009699999999999999,0.0012699999999999999,0.00011999999999999999,2
4217,4360,0.00026000000000000003,-5.9999999999999995e-05,0.00022,0.0007700000000000001,0.00049,-0.0009699999999999999,0.0012699999999999999,0.00011999999999999999,2
4218,4361,0.00026000000000000003,-5.9999999999999995e-05,0.00022,0.0007700000000000001,0.00049,-0.0009699999999999999,0.0012699999999999999,0.00011999999999999999,2
4219,4362,0.00026000000000000003,-5.9999999999999995e-05,0.00022,0.0007700000000000001,0.00049,-0.0009699999999999999,0.0012699999999999999,0.00011999999999999999,2
4220,4363,0.00026000000000000003,-5.9999999999999995e-05,0.00022,0.0007700000000000001,0.00049,-0.0009699999999999999,0.0012699999999999999,0.00011999999999999999,2
4221,4365,0.00026000000000000003,-5.9999999999999995e-05,0.00022,0.0007700000000000001,0.00049,-0.0009699999999999999,0.0012699999999999999,0.00011999999999999999,2
4222,4366,0.00026000000000000003,-5.9999999999999995e-05,0.00022,0.0007700000000000001,0.00049,-0.0009699999999999999,0.0012699999999999999,0.00011999999999999999,2
4223,4367,0.00026000000000000003,-5.9999999999999995e-05,0.00022,0.0007700000000000001,0.00049,-0.0009699999999999999,0.0012699999999999999,0.00011999999999999999,2
4224,4368,0.00026000000000000003,-5.9999999999999995e-05,0.00022,0.0007700000000000001,0.00049,-0.0009699999999999999,0.0012699999999999999,0.00011999999999999999,2
4225,4369,0.00026000000000000003,-5.9999999999999995e-05,0.00022,0.0007700000000000001,0.00049,-0.0009699999999999999,0.0012699999999999999,0.00011999999999999999,2
4226,4370,0.00026000000000000003,-5.9999999999999995e-05,0.00022,0.0007700000000000001,0.00049,-0.0009699999999999999,0.0012699999999999999,0.00011999999999999999,2
4227,4371,0.00026000000000000003,-5.9999999999999995e-05,0.00022,0.0007700000000000001,0.00049,-0.0009699999999999999,0.0012699999999999999,0.00011999999999999999,2
4228,4372,0.00026000000000000003,-5.9999999999999995e-05,0.00022,0.0007700000000000001,0.00049,-0.0009699999999999999,0.0012699999999999999,0.00011999999999999999,2
4229,4373,0.00026000000000000003,-5.9999999999999995e-05,0.00022,0.0007700000000000001,0.00049,-0.0009699999999999999,0.0012699999999999999,0.00011999999999999999,2
4230,4374,0.00026000000000000003,-5.9999999999999995e-05,0.00022,0.0007700000000000001,0.00049,-0.0009699999999999999,0.0012699999999999999,0.00011999999999999999,2
4231,4375,0.00026000000000000003,-5.9999999999999995e-05,0.00022,0.0007700000000000001,0.00049,-0.0009699999999999999,0.0012699999999999999,0.00011999999999999999,2
4232,4376,0.00026000000000000003,-5.9999999999999995e-05,0.00022,0.0007700000000000001,0.00049,-0.0009699999999999999,0.0012699999999999999,0.00011999999999999999,2
4233,4377,0.00026000000000000003,-5.9999999999999995e-05,0.00022,0.0007700000000000001,0.00049,-0.0009699999999999999,0.0012699999999999999,0.00011999999999999999,2
4234,4378,0.00026000000000000003,-5.9999999999999995e-05,0.00022,0.0007700000000000001,0.00049,-0.0009699999999999999,0.0012699999999999999,0.00011999999999999999,2
4235,4379,0.00026000000000000003,-5.9999999999999995e-05,0.00022,0.0007700000000000001,0.00049,-0.0009699999999999999,0.0012699999999999999,0.00011999999999999999,2
4236,4380,-8e-05,-0.00018,-0.00032,0.00098,7e-05,-0.00029,-0.00054,-0.00033999999999999997,2
4237,4381,-8e-05,-0.00018,-0.00032,0.00098,7e-05,-0.00029,-0.00054,-0.00033999999999999997,2
4238,4382,-8e-05,-0.00018,-0.00032,0.00098,7e-05,-0.00029,-0.00054,-0.00033999999999999997,2
4239,4383,-8e-05,-0.00018,-0.00032,0.00098,7e-05,-0.00029,-0.00054,-0.00033999999999999997,2
4240,4384,-8e-05,-0.00018,-0.00032,0.00098,7e-05,-0.00029,-0.00054,-0.00033999999999999997,2
4241,4385,-8e-05,-0.00018,-0.00032,0.00098,7e-05,-0.00029,-0.00054,-0.00033999999999999997,2
4242,4386,-8e-05,-0.00018,-0.00032,0.00098,7e-05,-0.00029,-0.00054,-0.00033999999999999997,2
4243,4388,-8e-05,-0.00018,-0.00032,0.00098,7e-05,-0.00029,-0.00054,-0.00033999999999999997,2
4244,4389,-8e-05,-0.00018,-0.00032,0.00098,7e-05,-0.00029,-0.00054,-0.00033999999999999997,2
4245,4390,-8e-05,-0.00018,-0.00032,0.00098,7e-05,-0.00029,-0.00054,-0.00033999999999999997,2
4246,4391,-8e-05,-0.00018,-0.00032,0.00098,7e-05,-0.00029,-0.00054,-0.00033999999999999997,2
4247,4392,-8e-05,-0.00018,-0.00032,0.00098,7e-05,-0.00029,-0.00054,-0.00033999999999999997,2
4248,4393,-8e-05,-0.00018,-0.00032,0.00098,7e-05,-0.00029,-0.00054,-0.00033999999999999997,2
4249,4394,-8e-05,-0.00018,-0.00032,0.00098,7e-05,-0.00029,-0.00054,-0.00033999999999999997,2
4250,4395,-8e-05,-0.00018,-0.00032,0.00098,7e-05,-0.00029,-0.00054,-0.00033999999999999997,2
4251,4396,-8e-05,-0.00018,-0.00032,0.00098,7e-05,-0.00029,-0.00054,-0.00033999999999999997,2
4252,4397,-8e-05,-0.00018,-0.00032,0.00098,7e-05,-0.00029,-0.00054,-0.00033999999999999997,2
4253,4398,-8e-05,-0.00018,-0.00032,0.00098,7e-05,-0.00029,-0.00054,-0.00033999999999999997,2
4254,4399,-8e-05,-0.00018,-0.00032,0.00098,7e-05,-0.00029,-0.00054,-0.00033999999999999997,2
4255,4400,-8e-05,-0.00018,-0.00032,0.00098,7e-05,-0.00029,-0.00054,-0.00033999999999999997,2
4256,4401,-8e-05,-0.00018,-0.00032,0.00098,7e-05,-0.00029,-0.00054,-0.00033999999999999997,2
4257,4402,-0.00072,-0.00037999999999999997,-0.0005200000000000001,-0.00061,0.00014,9e-05,0.00023999999999999998,-0.00044,2
4258,4403,0.00033999999999999997,-8e-05,-0.00042,-0.0009400000000000001,-0.00018,0.00126,-0.00061,0.0004,2
4259,4404,0.00033999999999999997,-8e-05,-0.00042,-0.0009400000000000001,-0.00018,0.00126,-0.00061,0.0004,2
4260,4405,0.00033999999999999997,-8e-05,-0.00042,-0.0009400000000000001,-0.00018,0.00126,-0.00061,0.0004,2
4261,4406,0.00033999999999999997,-8e-05,-0.00042,-0.0009400000000000001,-0.00018,0.00126,-0.00061,0.0004,2
4262,4407,0.00033999999999999997,-8e-05,-0.00042,-0.0009400000000000001,-0.00018,0.00126,-0.00061,0.0004,2
4263,4408,0.00033999999999999997,-8e-05,-0.00042,-0.0009400000000000001,-0.00018,0.00126,-0.00061,0.0004,2
4264,4409,0.00033999999999999997,-8e-05,-0.00042,-0.0009400000000000001,-0.00018,0.00126,-0.00061,0.0004,2
4265,4410,0.00033999999999999997,-8e-05,-0.00042,-0.0009400000000000001,-0.00018,0.00126,-0.00061,0.0004,2
4266,4411,0.00033999999999999997,-8e-05,-0.00042,-0.0009400000000000001,-0.00018,0.00126,-0.00061,0.0004,2
4267,4412,0.00033999999999999997,-8e-05,-0.00042,-0.0009400000000000001,-0.00018,0.00126,-0.00061,0.0004,2
4268,4413,0.00033999999999999997,-8e-05,-0.00042,-0.0009400000000000001,-0.00018,0.00126,-0.00061,0.0004,2
4269,4414,0.00033999999999999997,-8e-05,-0.00042,-0.0009400000000000001,-0.00018,0.00126,-0.00061,0.0004,2
4270,4415,0.00033999999999999997,-8e-05,-0.00042,-0.0009400000000000001,-0.00018,0.00126,-0.00061,0.0004,2
4271,4416,-0.00047000000000000004,-9e-05,0.00033999999999999997,0.0,-0.00043,0.00045999999999999996,0.00014,-2.9999999999999997e-05,2
4272,4417,-0.00047000000000000004,-9e-05,0.00033999999999999997,0.0,-0.00043,0.00045999999999999996,0.00014,-2.9999999999999997e-05,2
4273,4418,-0.00047000000000000004,-9e-05,0.00033999999999999997,0.0,-0.00043,0.00045999999999999996,0.00014,-2.9999999999999997e-05,2
4274,4419,-0.00047000000000000004,-9e-05,0.00033999999999999997,0.0,-0.00043,0.00045999999999999996,0.00014,-2.9999999999999997e-05,2
4275,4420,-0.00047000000000000004,-9e-05,0.00033999999999999997,0.0,-0.00043,0.00045999999999999996,0.00014,-2.9999999999999997e-05,2
4276,4421,-0.00047000000000000004,-9e-05,0.00033999999999999997,0.0,-0.00043,0.00045999999999999996,0.00014,-2.9999999999999997e-05,2
4277,4422,-0.00047000000000000004,-9e-05,0.00033999999999999997,0.0,-0.00043,0.00045999999999999996,0.00014,-2.9999999999999997e-05,2
4278,4423,-0.00047000000000000004,-9e-05,0.00033999999999999997,0.0,-0.00043,0.00045999999999999996,0.00014,-2.9999999999999997e-05,2
4279,4424,-0.00047000000000000004,-9e-05,0.00033999999999999997,0.0,-0.00043,0.00045999999999999996,0.00014,-2.9999999999999997e-05,2
4280,4425,-0.00022999999999999998,0.0001,0.00047000000000000004,0.00117,-0.00042,-0.00045,-0.0008,-0.0010199999999999999,2
4281,4426,-0.00022999999999999998,0.0001,0.00047000000000000004,0.00117,-0.00042,-0.00045,-0.0008,-0.0010199999999999999,2
4282,4427,-0.00022999999999999998,0.0001,0.00047000000000000004,0.00117,-0.00042,-0.00045,-0.0008,-0.0010199999999999999,2
4283,4428,-0.00022999999999999998,0.0001,0.00047000000000000004,0.00117,-0.00042,-0.00045,-0.0008,-0.0010199999999999999,2
4284,4429,-0.00022999999999999998,0.0001,0.00047000000000000004,0.00117,-0.00042,-0.00045,-0.0008,-0.0010199999999999999,2
4285,4430,-0.00022999999999999998,0.0001,0.00047000000000000004,0.00117,-0.00042,-0.00045,-0.0008,-0.0010199999999999999,2
4286,4431,-0.00022999999999999998,0.0001,0.00047000000000000004,0.00117,-0.00042,-0.00045,-0.0008,-0.0010199999999999999,2
4287,4432,-0.00022999999999999998,0.0001,0.00047000000000000004,0.00117,-0.00042,-0.00045,-0.0008,-0.0010199999999999999,2
4288,4433,-0.00022999999999999998,0.0001,0.00047000000000000004,0.00117,-0.00042,-0.00045,-0.0008,-0.0010199999999999999,2
4289,4434,-0.00022999999999999998,0.0001,0.00047000000000000004,0.00117,-0.00042,-0.00045,-0.0008,-0.0010199999999999999,2
4290,4435,-0.00022999999999999998,0.0001,0.00047000000000000004,0.00117,-0.00042,-0.00045,-0.0008,-0.0010199999999999999,2
4291,4436,-0.00022999999999999998,0.0001,0.00047000000000000004,0.00117,-0.00042,-0.00045,-0.0008,-0.0010199999999999999,2
4292,4438,-0.00022999999999999998,0.0001,0.00047000000000000004,0.00117,-0.00042,-0.00045,-0.0008,-0.0010199999999999999,2
4293,4439,0.00057,0.00016,0.00064,0.0002,-0.00015,-0.00054,1e-05,0.0003,2
4294,4440,0.00037,4e-05,-0.00022,-0.00023999999999999998,-0.00022999999999999998,0.00037999999999999997,-0.00084,-0.0005,2
4295,4441,0.00037,4e-05,-0.00022,-0.00023999999999999998,-0.00022999999999999998,0.00037999999999999997,-0.00084,-0.0005,2
4296,4442,0.00037,4e-05,-0.00022,-0.00023999999999999998,-0.00022999999999999998,0.00037999999999999997,-0.00084,-0.0005,2
4297,4443,0.00037,4e-05,-0.00022,-0.00023999999999999998,-0.00022999999999999998,0.00037999999999999997,-0.00084,-0.0005,2
4298,4444,0.00037,4e-05,-0.00022,-0.00023999999999999998,-0.00022999999999999998,0.00037999999999999997,-0.00084,-0.0005,2
4299,4445,0.00037,4e-05,-0.00022,-0.00023999999999999998,-0.00022999999999999998,0.00037999999999999997,-0.00084,-0.0005,2
4300,4446,0.00037,4e-05,-0.00022,-0.00023999999999999998,-0.00022999999999999998,0.00037999999999999997,-0.00084,-0.0005,2
4301,4447,0.00037,4e-05,-0.00022,-0.00023999999999999998,-0.00022999999999999998,0.00037999999999999997,-0.00084,-0.0005,2
4302,4448,0.00037,4e-05,-0.00022,-0.00023999999999999998,-0.00022999999999999998,0.00037999999999999997,-0.00084,-0.0005,2
4303,4449,0.00037,4e-05,-0.00022,-0.00023999999999999998,-0.00022999999999999998,0.00037999999999999997,-0.00084,-0.0005,2
4304,4450,0.00037,4e-05,-0.00022,-0.00023999999999999998,-0.00022999999999999998,0.00037999999999999997,-0.00084,-0.0005,2
4305,4451,0.00037,4e-05,-0.00022,-0.00023999999999999998,-0.00022999999999999998,0.00037999999999999997,-0.00084,-0.0005,2
4306,4452,0.00037,4e-05,-0.00022,-0.00023999999999999998,-0.00022999999999999998,0.00037999999999999997,-0.00084,-0.0005,2
4307,4453,0.00037,4e-05,-0.00022,-0.00023999999999999998,-0.00022999999999999998,0.00037999999999999997,-0.00084,-0.0005,2
4308,4454,0.00037,4e-05,-0.00022,-0.00023999999999999998,-0.00022999999999999998,0.00037999999999999997,-0.00084,-0.0005,2
4309,4455,0.00037,4e-05,-0.00022,-0.00023999999999999998,-0.00022999999999999998,0.00037999999999999997,-0.00084,-0.0005,2
4310,4456,0.00037,4e-05,-0.00022,-0.00023999999999999998,-0.00022999999999999998,0.00037999999999999997,-0.00084,-0.0005,2
4311,4457,0.00037,4e-05,-0.00022,-0.00023999999999999998,-0.00022999999999999998,0.00037999999999999997,-0.00084,-0.0005,2
4312,4458,0.00037,4e-05,-0.00022,-0.00023999999999999998,-0.00022999999999999998,0.00037999999999999997,-0.00084,-0.0005,2
4313,4459,0.00037,4e-05,-0.00022,-0.00023999999999999998,-0.00022999999999999998,0.00037999999999999997,-0.00084,-0.0005,2
4314,4460,0.00037,4e-05,-0.00022,-0.00023999999999999998,-0.00022999999999999998,0.00037999999999999997,-0.00084,-0.0005,2
4315,4461,0.00037,4e-05,-0.00022,-0.00023999999999999998,-0.00022999999999999998,0.00037999999999999997,-0.00084,-0.0005,2
4316,4462,-0.00015,9e-05,0.00023999999999999998,9e-05,0.00022,0.00028,-0.00015,0.00023999999999999998,2
4317,4463,-0.0006,-0.00013000000000000002,0.0003,-0.0008900000000000001,-0.0009699999999999999,-0.00045999999999999996,0.00099,-0.0003,2
4318,4464,-0.0006,-0.00013000000000000002,0.0003,-0.0008900000000000001,-0.0009699999999999999,-0.00045999999999999996,0.00099,-0.0003,2
4319,4465,-0.0006,-0.00013000000000000002,0.0003,-0.0008900000000000001,-0.0009699999999999999,-0.00045999999999999996,0.00099,-0.0003,2
4320,4466,-0.0006,-0.00013000000000000002,0.0003,-0.0008900000000000001,-0.0009699999999999999,-0.00045999999999999996,0.00099,-0.0003,2
4321,4467,-0.0006,-0.00013000000000000002,0.0003,-0.0008900000000000001,-0.0009699999999999999,-0.00045999999999999996,0.00099,-0.0003,2
4322,4468,-0.0006,-0.00013000000000000002,0.0003,-0.0008900000000000001,-0.0009699999999999999,-0.00045999999999999996,0.00099,-0.0003,2
4323,4469,-0.0006,-0.00013000000000000002,0.0003,-0.0008900000000000001,-0.0009699999999999999,-0.00045999999999999996,0.00099,-0.0003,2
4324,4470,-0.0006,-0.00013000000000000002,0.0003,-0.0008900000000000001,-0.0009699999999999999,-0.00045999999999999996,0.00099,-0.0003,2
4325,4471,-0.0006,-0.00013000000000000002,0.0003,-0.0008900000000000001,-0.0009699999999999999,-0.00045999999999999996,0.00099,-0.0003,2
4326,4472,-0.0006,-0.00013000000000000002,0.0003,-0.0008900000000000001,-0.0009699999999999999,-0.00045999999999999996,0.00099,-0.0003,2
4327,4473,-0.0006,-0.00013000000000000002,0.0003,-0.0008900000000000001,-0.0009699999999999999,-0.00045999999999999996,0.00099,-0.0003,2
4328,4474,-0.0006,-0.00013000000000000002,0.0003,-0.0008900000000000001,-0.0009699999999999999,-0.00045999999999999996,0.00099,-0.0003,2
4329,4475,-0.0006,-0.00013000000000000002,0.0003,-0.0008900000000000001,-0.0009699999999999999,-0.00045999999999999996,0.00099,-0.0003,2
4330,4476,0.00073,9e-05,-0.00033,-0.00025,-0.0005099999999999999,-0.0004,0.00036,0.0006,2
4331,4477,0.00073,9e-05,-0.00033,-0.00025,-0.0005099999999999999,-0.0004,0.00036,0.0006,2
4332,4478,0.00073,9e-05,-0.00033,-0.00025,-0.0005099999999999999,-0.0004,0.00036,0.0006,2
4333,4479,0.00073,9e-05,-0.00033,-0.00025,-0.0005099999999999999,-0.0004,0.00036,0.0006,2
4334,4480,0.00073,9e-05,-0.00033,-0.00025,-0.0005099999999999999,-0.0004,0.00036,0.0006,2
4335,4481,0.00073,9e-05,-0.00033,-0.00025,-0.0005099999999999999,-0.0004,0.00036,0.0006,2
4336,4482,0.00073,9e-05,-0.00033,-0.00025,-0.0005099999999999999,-0.0004,0.00036,0.0006,2
4337,4483,0.00073,9e-05,-0.00033,-0.00025,-0.0005099999999999999,-0.0004,0.00036,0.0006,2
4338,4484,0.00036,9e-05,-0.00035,0.00054,0.0005200000000000001,-0.0007,0.00036,0.00065,2
4339,4485,0.00036,9e-05,-0.00035,0.00054,0.0005200000000000001,-0.0007,0.00036,0.00065,2
4340,4486,0.00036,9e-05,-0.00035,0.00054,0.0005200000000000001,-0.0007,0.00036,0.00065,2
4341,4488,0.00036,9e-05,-0.00035,0.00054,0.0005200000000000001,-0.0007,0.00036,0.00065,2
4342,4489,0.00036,9e-05,-0.00035,0.00054,0.0005200000000000001,-0.0007,0.00036,0.00065,2
4343,4490,0.00036,9e-05,-0.00035,0.00054,0.0005200000000000001,-0.0007,0.00036,0.00065,2
4344,4491,0.00036,9e-05,-0.00035,0.00054,0.0005200000000000001,-0.0007,0.00036,0.00065,2
4345,4492,0.00036,9e-05,-0.00035,0.00054,0.0005200000000000001,-0.0007,0.00036,0.00065,2
4346,4493,0.00036,9e-05,-0.00035,0.00054,0.0005200000000000001,-0.0007,0.00036,0.00065,2
4347,4494,0.00036,9e-05,-0.00035,0.00054,0.0005200000000000001,-0.0007,0.00036,0.00065,2
4348,4495,0.00036,9e-05,-0.00035,0.00054,0.0005200000000000001,-0.0007,0.00036,0.00065,2
4349,4496,0.00036,9e-05,-0.00035,0.00054,0.0005200000000000001,-0.0007,0.00036,0.00065,2
4350,4497,0.00036,9e-05,-0.00035,0.00054,0.0005200000000000001,-0.0007,0.00036,0.00065,2
4351,4498,0.00036,9e-05,-0.00035,0.00054,0.0005200000000000001,-0.0007,0.00036,0.00065,2
4352,4499,0.00036,9e-05,-0.00035,0.00054,0.0005200000000000001,-0.0007,0.00036,0.00065,2
4353,4500,0.00036,9e-05,-0.00035,0.00054,0.0005200000000000001,-0.0007,0.00036,0.00065,2
4354,4501,0.00036,9e-05,-0.00035,0.00054,0.0005200000000000001,-0.0007,0.00036,0.00065,2
4355,4502,0.00036,9e-05,-0.00035,0.00054,0.0005200000000000001,-0.0007,0.00036,0.00065,2
4356,4503,0.00036,9e-05,-0.00035,0.00054,0.0005200000000000001,-0.0007,0.00036,0.00065,2
4357,4504,0.00036,9e-05,-0.00035,0.00054,0.0005200000000000001,-0.0007,0.00036,0.00065,2
4358,4505,0.00036,9e-05,-0.00035,0.00054,0.0005200000000000001,-0.0007,0.00036,0.00065,2
4359,4506,0.00036,9e-05,-0.00035,0.00054,0.0005200000000000001,-0.0007,0.00036,0.00065,2
4360,4507,-0.0005200000000000001,-0.00025,-0.00045,-0.00047000000000000004,-0.00028,-0.00073,0.0002,-0.00045,2
4361,4508,-0.00025,5e-05,0.0009699999999999999,0.0009199999999999999,-0.00022,0.0006900000000000001,-0.00037999999999999997,0.00022999999999999998,2
4362,4509,-0.00025,5e-05,0.0009699999999999999,0.0009199999999999999,-0.00022,0.0006900000000000001,-0.00037999999999999997,0.00022999999999999998,2
4363,4510,-0.00025,5e-05,0.0009699999999999999,0.0009199999999999999,-0.00022,0.0006900000000000001,-0.00037999999999999997,0.00022999999999999998,2
4364,4511,-0.00025,5e-05,0.0009699999999999999,0.0009199999999999999,-0.00022,0.0006900000000000001,-0.00037999999999999997,0.00022999999999999998,2
4365,4512,-0.00025,5e-05,0.0009699999999999999,0.0009199999999999999,-0.00022,0.0006900000000000001,-0.00037999999999999997,0.00022999999999999998,2
4366,4513,-0.00025,5e-05,0.0009699999999999999,0.0009199999999999999,-0.00022,0.0006900000000000001,-0.00037999999999999997,0.00022999999999999998,2
4367,4514,-0.00025,5e-05,0.0009699999999999999,0.0009199999999999999,-0.00022,0.0006900000000000001,-0.00037999999999999997,0.00022999999999999998,2
4368,4515,-0.00025,5e-05,0.0009699999999999999,0.0009199999999999999,-0.00022,0.0006900000000000001,-0.00037999999999999997,0.00022999999999999998,2
4369,4516,-0.00025,5e-05,0.0009699999999999999,0.0009199999999999999,-0.00022,0.0006900000000000001,-0.00037999999999999997,0.00022999999999999998,2
4370,4517,-0.00025,5e-05,0.0009699999999999999,0.0009199999999999999,-0.00022,0.0006900000000000001,-0.00037999999999999997,0.00022999999999999998,2
4371,4518,-0.00025,5e-05,0.0009699999999999999,0.0009199999999999999,-0.00022,0.0006900000000000001,-0.00037999999999999997,0.00022999999999999998,2
4372,4519,-0.00025,5e-05,0.0009699999999999999,0.0009199999999999999,-0.00022,0.0006900000000000001,-0.00037999999999999997,0.00022999999999999998,2
4373,4520,-0.00025,5e-05,0.0009699999999999999,0.0009199999999999999,-0.00022,0.0006900000000000001,-0.00037999999999999997,0.00022999999999999998,2
4374,4521,-0.00025,5e-05,0.0009699999999999999,0.0009199999999999999,-0.00022,0.0006900000000000001,-0.00037999999999999997,0.00022999999999999998,2
4375,4522,4e-05,0.00033999999999999997,0.0009599999999999999,0.00103,-0.00029,-0.0002,-0.00128,-0.00067,2
4376,4523,-0.00031,-0.00013000000000000002,-0.0006,-0.00073,0.00022999999999999998,-0.00059,0.00079,-2.9999999999999997e-05,2
4377,4524,-0.00031,-0.00013000000000000002,-0.0006,-0.00073,0.00022999999999999998,-0.00059,0.00079,-2.9999999999999997e-05,2
4378,4525,-0.00031,-0.00013000000000000002,-0.0006,-0.00073,0.00022999999999999998,-0.00059,0.00079,-2.9999999999999997e-05,2
4379,4526,-0.00031,-0.00013000000000000002,-0.0006,-0.00073,0.00022999999999999998,-0.00059,0.00079,-2.9999999999999997e-05,2
4380,4527,-0.00031,-0.00013000000000000002,-0.0006,-0.00073,0.00022999999999999998,-0.00059,0.00079,-2.9999999999999997e-05,2
4381,4528,-0.00031,-0.00013000000000000002,-0.0006,-0.00073,0.00022999999999999998,-0.00059,0.00079,-2.9999999999999997e-05,2
4382,4529,-0.00031,-0.00013000000000000002,-0.0006,-0.00073,0.00022999999999999998,-0.00059,0.00079,-2.9999999999999997e-05,2
4383,4530,-0.00031,-0.00013000000000000002,-0.0006,-0.00073,0.00022999999999999998,-0.00059,0.00079,-2.9999999999999997e-05,2
4384,4531,-0.00031,-0.00013000000000000002,-0.0006,-0.00073,0.00022999999999999998,-0.00059,0.00079,-2.9999999999999997e-05,2
4385,4532,-0.00031,-0.00013000000000000002,-0.0006,-0.00073,0.00022999999999999998,-0.00059,0.00079,-2.9999999999999997e-05,2
4386,4533,-0.00031,-0.00013000000000000002,-0.0006,-0.00073,0.00022999999999999998,-0.00059,0.00079,-2.9999999999999997e-05,2
4387,4534,-0.00031,-0.00013000000000000002,-0.0006,-0.00073,0.00022999999999999998,-0.00059,0.00079,-2.9999999999999997e-05,2
4388,4535,-0.00031,-0.00013000000000000002,-0.0006,-0.00073,0.00022999999999999998,-0.00059,0.00079,-2.9999999999999997e-05,2
4389,4536,0.00029,-9e-05,-0.0005200000000000001,-0.00033,0.0010199999999999999,0.00036,-0.00022999999999999998,0.00029,2
4390,4538,0.00029,-9e-05,-0.0005200000000000001,-0.00033,0.0010199999999999999,0.00036,-0.00022999999999999998,0.00029,2
4391,4539,0.00029,-9e-05,-0.0005200000000000001,-0.00033,0.0010199999999999999,0.00036,-0.00022999999999999998,0.00029,2
4392,4540,0.00029,-9e-05,-0.0005200000000000001,-0.00033,0.0010199999999999999,0.00036,-0.00022999999999999998,0.00029,2
4393,4541,0.00029,-9e-05,-0.0005200000000000001,-0.00033,0.0010199999999999999,0.00036,-0.00022999999999999998,0.00029,2
4394,4542,0.00029,-9e-05,-0.0005200000000000001,-0.00033,0.0010199999999999999,0.00036,-0.00022999999999999998,0.00029,2
4395,4543,0.00029,-9e-05,-0.0005200000000000001,-0.00033,0.0010199999999999999,0.00036,-0.00022999999999999998,0.00029,2
4396,4544,0.00013000000000000002,-4e-05,-0.00047000000000000004,0.0008300000000000001,0.00014,-0.00086,-8e-05,-2e-05,2
4397,4545,0.00013000000000000002,-4e-05,-0.00047000000000000004,0.0008300000000000001,0.00014,-0.00086,-8e-05,-2e-05,2
4398,4546,0.00013000000000000002,-4e-05,-0.00047000000000000004,0.0008300000000000001,0.00014,-0.00086,-8e-05,-2e-05,2
4399,4547,0.00013000000000000002,-4e-05,-0.00047000000000000004,0.0008300000000000001,0.00014,-0.00086,-8e-05,-2e-05,2
4400,4548,0.00013000000000000002,-4e-05,-0.00047000000000000004,0.0008300000000000001,0.00014,-0.00086,-8e-05,-2e-05,2
4401,4549,0.00013000000000000002,-4e-05,-0.00047000000000000004,0.0008300000000000001,0.00014,-0.00086,-8e-05,-2e-05,2
4402,4550,0.00013000000000000002,-4e-05,-0.00047000000000000004,0.0008300000000000001,0.00014,-0.00086,-8e-05,-2e-05,2
4403,4551,0.00013000000000000002,-4e-05,-0.00047000000000000004,0.0008300000000000001,0.00014,-0.00086,-8e-05,-2e-05,2
4404,4552,0.00013000000000000002,-4e-05,-0.00047000000000000004,0.0008300000000000001,0.00014,-0.00086,-8e-05,-2e-05,2
4405,4553,0.00013000000000000002,-4e-05,-0.00047000000000000004,0.0008300000000000001,0.00014,-0.00086,-8e-05,-2e-05,2
4406,4554,0.00013000000000000002,-4e-05,-0.00047000000000000004,0.0008300000000000001,0.00014,-0.00086,-8e-05,-2e-05,2
4407,4555,0.00013000000000000002,-4e-05,-0.00047000000000000004,0.0008300000000000001,0.00014,-0.00086,-8e-05,-2e-05,2
4408,4556,0.00013000000000000002,-4e-05,-0.00047000000000000004,0.0008300000000000001,0.00014,-0.00086,-8e-05,-2e-05,2
4409,4557,0.00013000000000000002,-4e-05,-0.00047000000000000004,0.0008300000000000001,0.00014,-0.00086,-8e-05,-2e-05,2
4410,4558,0.00013000000000000002,-4e-05,-0.00047000000000000004,0.0008300000000000001,0.00014,-0.00086,-8e-05,-2e-05,2
4411,4559,0.00013000000000000002,-4e-05,-0.00047000000000000004,0.0008300000000000001,0.00014,-0.00086,-8e-05,-2e-05,2
4412,4560,-0.0009699999999999999,0.00021,0.0011,0.0012699999999999999,2e-05,0.00099,-0.00074,-0.00036,2
4413,4561,-0.00039,-0.0007700000000000001,-0.0008,-0.00121,0.00022,0.00047000000000000004,-0.00081,-0.00073,2
4414,4562,-0.00039,-0.0007700000000000001,-0.0008,-0.00121,0.00022,0.00047000000000000004,-0.00081,-0.00073,2
4415,4563,-0.00039,-0.0007700000000000001,-0.0008,-0.00121,0.00022,0.00047000000000000004,-0.00081,-0.00073,2
4416,4564,-0.00039,-0.0007700000000000001,-0.0008,-0.00121,0.00022,0.00047000000000000004,-0.00081,-0.00073,2
4417,4565,-0.00039,-0.0007700000000000001,-0.0008,-0.00121,0.00022,0.00047000000000000004,-0.00081,-0.00073,2
4418,4566,-0.00039,-0.0007700000000000001,-0.0008,-0.00121,0.00022,0.00047000000000000004,-0.00081,-0.00073,2
4419,4567,-0.00039,-0.0007700000000000001,-0.0008,-0.00121,0.00022,0.00047000000000000004,-0.00081,-0.00073,2
4420,4568,-0.00039,-0.0007700000000000001,-0.0008,-0.00121,0.00022,0.00047000000000000004,-0.00081,-0.00073,2
4421,4569,-0.00039,-0.0007700000000000001,-0.0008,-0.00121,0.00022,0.00047000000000000004,-0.00081,-0.00073,2
4422,4570,-0.00039,-0.0007700000000000001,-0.0008,-0.00121,0.00022,0.00047000000000000004,-0.00081,-0.00073,2
4423,4571,-0.00039,-0.0007700000000000001,-0.0008,-0.00121,0.00022,0.00047000000000000004,-0.00081,-0.00073,2
4424,4572,-0.00039,-0.0007700000000000001,-0.0008,-0.00121,0.00022,0.00047000000000000004,-0.00081,-0.00073,2
4425,4573,-0.00039,-0.0007700000000000001,-0.0008,-0.00121,0.00022,0.00047000000000000004,-0.00081,-0.00073,2
4426,4574,-0.00039,-0.0007700000000000001,-0.0008,-0.00121,0.00022,0.00047000000000000004,-0.00081,-0.00073,2
4427,4575,-0.00039,-0.0007700000000000001,-0.0008,-0.00121,0.00022,0.00047000000000000004,-0.00081,-0.00073,2
4428,4576,-0.00039,-0.0007700000000000001,-0.0008,-0.00121,0.00022,0.00047000000000000004,-0.00081,-0.00073,2
4429,4577,-0.00039,-0.0007700000000000001,-0.0008,-0.00121,0.00022,0.00047000000000000004,-0.00081,-0.00073,2
4430,4578,-0.00039,-0.0007700000000000001,-0.0008,-0.00121,0.00022,0.00047000000000000004,-0.00081,-0.00073,2
4431,4579,-0.00039,-0.0007700000000000001,-0.0008,-0.00121,0.00022,0.00047000000000000004,-0.00081,-0.00073,2
4432,4580,-0.00039,-0.0007700000000000001,-0.0008,-0.00121,0.00022,0.00047000000000000004,-0.00081,-0.00073,2
4433,4581,-0.00039,-0.0007700000000000001,-0.0008,-0.00121,0.00022,0.00047000000000000004,-0.00081,-0.00073,2
4434,4582,-0.00039,-0.0007700000000000001,-0.0008,-0.00121,0.00022,0.00047000000000000004,-0.00081,-0.00073,2
4435,4583,-0.0005,-0.00014,-0.00049,-0.00032,-0.00037999999999999997,4e-05,-0.0008900000000000001,-0.00037999999999999997,2
4436,4584,-0.0005,-0.00014,-0.00049,-0.00032,-0.00037999999999999997,4e-05,-0.0008900000000000001,-0.00037999999999999997,2
4437,4585,-0.0005,-0.00014,-0.00049,-0.00032,-0.00037999999999999997,4e-05,-0.0008900000000000001,-0.00037999999999999997,2
4438,4586,-0.0005,-0.00014,-0.00049,-0.00032,-0.00037999999999999997,4e-05,-0.0008900000000000001,-0.00037999999999999997,2
4439,4588,-0.0005,-0.00014,-0.00049,-0.00032,-0.00037999999999999997,4e-05,-0.0008900000000000001,-0.00037999999999999997,2
4440,4589,-0.0005,-0.00014,-0.00049,-0.00032,-0.00037999999999999997,4e-05,-0.0008900000000000001,-0.00037999999999999997,2
4441,4590,-0.0005,-0.00014,-0.00049,-0.00032,-0.00037999999999999997,4e-05,-0.0008900000000000001,-0.00037999999999999997,2
4442,4591,-0.0005,-0.00014,-0.00049,-0.00032,-0.00037999999999999997,4e-05,-0.0008900000000000001,-0.00037999999999999997,2
4443,4592,-0.0005,-0.00014,-0.00049,-0.00032,-0.00037999999999999997,4e-05,-0.0008900000000000001,-0.00037999999999999997,2
4444,4593,-0.0005,-0.00014,-0.00049,-0.00032,-0.00037999999999999997,4e-05,-0.0008900000000000001,-0.00037999999999999997,2
4445,4594,-0.0005,-0.00014,-0.00049,-0.00032,-0.00037999999999999997,4e-05,-0.0008900000000000001,-0.00037999999999999997,2
4446,4595,-0.0005,-0.00014,-0.00049,-0.00032,-0.00037999999999999997,4e-05,-0.0008900000000000001,-0.00037999999999999997,2
4447,4596,-4e-05,-0.00018999999999999998,-0.0002,-0.00032,-0.00056,-0.00057,0.00033999999999999997,0.00027,2
4448,4597,-4e-05,-0.00018999999999999998,-0.0002,-0.00032,-0.00056,-0.00057,0.00033999999999999997,0.00027,2
4449,4598,-4e-05,-0.00018999999999999998,-0.0002,-0.00032,-0.00056,-0.00057,0.00033999999999999997,0.00027,2
4450,4599,-4e-05,-0.00018999999999999998,-0.0002,-0.00032,-0.00056,-0.00057,0.00033999999999999997,0.00027,2
4451,4600,-4e-05,-0.00018999999999999998,-0.0002,-0.00032,-0.00056,-0.00057,0.00033999999999999997,0.00027,2
4452,4601,-4e-05,-0.00018999999999999998,-0.0002,-0.00032,-0.00056,-0.00057,0.00033999999999999997,0.00027,2
4453,4602,-4e-05,-0.00018999999999999998,-0.0002,-0.00032,-0.00056,-0.00057,0.00033999999999999997,0.00027,2
4454,4603,-4e-05,-0.00018999999999999998,-0.0002,-0.00032,-0.00056,-0.00057,0.00033999999999999997,0.00027,2
4455,4604,0.00072,-5e-05,-0.00045,4e-05,0.00036,-0.0007700000000000001,-0.00037999999999999997,0.0002,2
4456,4605,0.00072,-5e-05,-0.00045,4e-05,0.00036,-0.0007700000000000001,-0.00037999999999999997,0.0002,2
4457,4606,0.00072,-5e-05,-0.00045,4e-05,0.00036,-0.0007700000000000001,-0.00037999999999999997,0.0002,2
4458,4607,0.00072,-5e-05,-0.00045,4e-05,0.00036,-0.0007700000000000001,-0.00037999999999999997,0.0002,2
4459,4608,0.00072,-5e-05,-0.00045,4e-05,0.00036,-0.0007700000000000001,-0.00037999999999999997,0.0002,2
4460,4609,0.00072,-5e-05,-0.00045,4e-05,0.00036,-0.0007700000000000001,-0.00037999999999999997,0.0002,2
4461,4610,0.00072,-5e-05,-0.00045,4e-05,0.00036,-0.0007700000000000001,-0.00037999999999999997,0.0002,2
4462,4611,0.00072,-5e-05,-0.00045,4e-05,0.00036,-0.0007700000000000001,-0.00037999999999999997,0.0002,2
4463,4612,0.00072,-5e-05,-0.00045,4e-05,0.00036,-0.0007700000000000001,-0.00037999999999999997,0.0002,2
4464,4613,0.00072,-5e-05,-0.00045,4e-05,0.00036,-0.0007700000000000001,-0.00037999999999999997,0.0002,2
4465,4614,0.00072,-5e-05,-0.00045,4e-05,0.00036,-0.0007700000000000001,-0.00037999999999999997,0.0002,2
4466,4615,0.00072,-5e-05,-0.00045,4e-05,0.00036,-0.0007700000000000001,-0.00037999999999999997,0.0002,2
4467,4616,0.00072,-5e-05,-0.00045,4e-05,0.00036,-0.0007700000000000001,-0.00037999999999999997,0.0002,2
4468,4617,0.00072,-5e-05,-0.00045,4e-05,0.00036,-0.0007700000000000001,-0.00037999999999999997,0.0002,2
4469,4618,0.00072,-5e-05,-0.00045,4e-05,0.00036,-0.0007700000000000001,-0.00037999999999999997,0.0002,2
4470,4619,0.00072,-5e-05,-0.00045,4e-05,0.00036,-0.0007700000000000001,-0.00037999999999999997,0.0002,2
4471,4620,-0.00011999999999999999,-0.00011999999999999999,-1e-05,0.00011999999999999999,-0.00066,-0.00078,1e-05,0.0,2
4472,4621,-0.00022,-0.00037,-0.00022,-0.00013000000000000002,0.00015,-0.00057,0.00042,0.00027,2
4473,4623,-0.00022,-0.00037,-0.00022,-0.00013000000000000002,0.00015,-0.00057,0.00042,0.00027,2
4474,4624,-0.00022,-0.00037,-0.00022,-0.00013000000000000002,0.00015,-0.00057,0.00042,0.00027,2
4475,4625,-0.00022,-0.00037,-0.00022,-0.00013000000000000002,0.00015,-0.00057,0.00042,0.00027,2
4476,4626,-0.00022,-0.00037,-0.00022,-0.00013000000000000002,0.00015,-0.00057,0.00042,0.00027,2
4477,4627,-0.00022,-0.00037,-0.00022,-0.00013000000000000002,0.00015,-0.00057,0.00042,0.00027,2
4478,4628,-0.00022,-0.00037,-0.00022,-0.00013000000000000002,0.00015,-0.00057,0.00042,0.00027,2
4479,4629,-0.00022,-0.00037,-0.00022,-0.00013000000000000002,0.00015,-0.00057,0.00042,0.00027,2
4480,4630,-0.00022,-0.00037,-0.00022,-0.00013000000000000002,0.00015,-0.00057,0.00042,0.00027,2
4481,4631,-0.00022,-0.00037,-0.00022,-0.00013000000000000002,0.00015,-0.00057,0.00042,0.00027,2
4482,4632,-0.00022,-0.00037,-0.00022,-0.00013000000000000002,0.00015,-0.00057,0.00042,0.00027,2
4483,4633,-0.00022,-0.00037,-0.00022,-0.00013000000000000002,0.00015,-0.00057,0.00042,0.00027,2
4484,4634,-0.00022,-0.00037,-0.00022,-0.00013000000000000002,0.00015,-0.00057,0.00042,0.00027,2
4485,4635,-0.00022,-0.00037,-0.00022,-0.00013000000000000002,0.00015,-0.00057,0.00042,0.00027,2
4486,4636,-0.00022,-0.00037,-0.00022,-0.00013000000000000002,0.00015,-0.00057,0.00042,0.00027,2
4487,4638,-0.00022,-0.00037,-0.00022,-0.00013000000000000002,0.00015,-0.00057,0.00042,0.00027,2
4488,4639,-0.00022,-0.00037,-0.00022,-0.00013000000000000002,0.00015,-0.00057,0.00042,0.00027,2
4489,4640,-0.00022,-0.00037,-0.00022,-0.00013000000000000002,0.00015,-0.00057,0.00042,0.00027,2
4490,4641,-0.00022,-0.00037,-0.00022,-0.00013000000000000002,0.00015,-0.00057,0.00042,0.00027,2
4491,4642,-0.00022,-0.00037,-0.00022,-0.00013000000000000002,0.00015,-0.00057,0.00042,0.00027,2
4492,4643,0.00028,0.00033,7e-05,0.00049,0.0001,0.0004,0.00023999999999999998,0.00016,2
4493,4644,0.00028,0.00033,7e-05,0.00049,0.0001,0.0004,0.00023999999999999998,0.00016,2
4494,4645,0.00028,0.00033,7e-05,0.00049,0.0001,0.0004,0.00023999999999999998,0.00016,2
4495,4646,0.00028,0.00033,7e-05,0.00049,0.0001,0.0004,0.00023999999999999998,0.00016,2
4496,4647,0.00028,0.00033,7e-05,0.00049,0.0001,0.0004,0.00023999999999999998,0.00016,2
4497,4648,0.00028,0.00033,7e-05,0.00049,0.0001,0.0004,0.00023999999999999998,0.00016,2
4498,4649,0.00028,0.00033,7e-05,0.00049,0.0001,0.0004,0.00023999999999999998,0.00016,2
4499,4650,0.00028,0.00033,7e-05,0.00049,0.0001,0.0004,0.00023999999999999998,0.00016,2
4500,4651,0.00028,0.00033,7e-05,0.00049,0.0001,0.0004,0.00023999999999999998,0.00016,2
4501,4652,0.00028,0.00033,7e-05,0.00049,0.0001,0.0004,0.00023999999999999998,0.00016,2
4502,4653,0.00028,0.00033,7e-05,0.00049,0.0001,0.0004,0.00023999999999999998,0.00016,2
4503,4654,0.00028,0.00033,7e-05,0.00049,0.0001,0.0004,0.00023999999999999998,0.00016,2
4504,4655,0.00028,0.00033,7e-05,0.00049,0.0001,0.0004,0.00023999999999999998,0.00016,2
4505,4656,-0.0003,-0.00014,-0.0004,-0.00081,-0.00041,-0.00036,0.00108,8e-05,2
4506,4657,-0.0003,-0.00014,-0.0004,-0.00081,-0.00041,-0.00036,0.00108,8e-05,2
4507,4658,-0.0003,-0.00014,-0.0004,-0.00081,-0.00041,-0.00036,0.00108,8e-05,2
4508,4659,-0.0003,-0.00014,-0.0004,-0.00081,-0.00041,-0.00036,0.00108,8e-05,2
4509,4660,-0.0003,-0.00014,-0.0004,-0.00081,-0.00041,-0.00036,0.00108,8e-05,2
4510,4661,-0.0003,-0.00014,-0.0004,-0.00081,-0.00041,-0.00036,0.00108,8e-05,2
4511,4662,-0.0003,-0.00014,-0.0004,-0.00081,-0.00041,-0.00036,0.00108,8e-05,2
4512,4663,-0.0003,-0.00014,-0.0004,-0.00081,-0.00041,-0.00036,0.00108,8e-05,2
4513,4664,0.00018,1e-05,0.00022999999999999998,-8e-05,5.9999999999999995e-05,4e-05,0.0012699999999999999,0.00043,2
4514,4665,0.00018,1e-05,0.00022999999999999998,-8e-05,5.9999999999999995e-05,4e-05,0.0012699999999999999,0.00043,2
4515,4666,0.00018,1e-05,0.00022999999999999998,-8e-05,5.9999999999999995e-05,4e-05,0.0012699999999999999,0.00043,2
4516,4667,0.00018,1e-05,0.00022999999999999998,-8e-05,5.9999999999999995e-05,4e-05,0.0012699999999999999,0.00043,2
4517,4668,0.00018,1e-05,0.00022999999999999998,-8e-05,5.9999999999999995e-05,4e-05,0.0012699999999999999,0.00043,2
4518,4669,0.00018,1e-05,0.00022999999999999998,-8e-05,5.9999999999999995e-05,4e-05,0.0012699999999999999,0.00043,2
4519,4670,0.00018,1e-05,0.00022999999999999998,-8e-05,5.9999999999999995e-05,4e-05,0.0012699999999999999,0.00043,2
4520,4671,0.00018,1e-05,0.00022999999999999998,-8e-05,5.9999999999999995e-05,4e-05,0.0012699999999999999,0.00043,2
4521,4672,0.00018,1e-05,0.00022999999999999998,-8e-05,5.9999999999999995e-05,4e-05,0.0012699999999999999,0.00043,2
4522,4673,0.00018,1e-05,0.00022999999999999998,-8e-05,5.9999999999999995e-05,4e-05,0.0012699999999999999,0.00043,2
4523,4674,0.00018,1e-05,0.00022999999999999998,-8e-05,5.9999999999999995e-05,4e-05,0.0012699999999999999,0.00043,2
4524,4675,0.00018,1e-05,0.00022999999999999998,-8e-05,5.9999999999999995e-05,4e-05,0.0012699999999999999,0.00043,2
4525,4676,0.00018,1e-05,0.00022999999999999998,-8e-05,5.9999999999999995e-05,4e-05,0.0012699999999999999,0.00043,2
4526,4677,0.00018,1e-05,0.00022999999999999998,-8e-05,5.9999999999999995e-05,4e-05,0.0012699999999999999,0.00043,2
4527,4678,0.00018,1e-05,0.00022999999999999998,-8e-05,5.9999999999999995e-05,4e-05,0.0012699999999999999,0.00043,2
4528,4679,0.00018,1e-05,0.00022999999999999998,-8e-05,5.9999999999999995e-05,4e-05,0.0012699999999999999,0.00043,2
4529,4680,8e-05,-0.00031,-0.00091,-0.00078,-2.9999999999999997e-05,-0.00042,-0.0001,0.00016,2
4530,4681,8e-05,0.00037999999999999997,0.00107,0.00063,5.9999999999999995e-05,0.00027,0.0005099999999999999,0.00016999999999999999,2
4531,4682,8e-05,0.00037999999999999997,0.00107,0.00063,5.9999999999999995e-05,0.00027,0.0005099999999999999,0.00016999999999999999,2
4532,4683,8e-05,0.00037999999999999997,0.00107,0.00063,5.9999999999999995e-05,0.00027,0.0005099999999999999,0.00016999999999999999,2
4533,4684,8e-05,0.00037999999999999997,0.00107,0.00063,5.9999999999999995e-05,0.00027,0.0005099999999999999,0.00016999999999999999,2
4534,4685,8e-05,0.00037999999999999997,0.00107,0.00063,5.9999999999999995e-05,0.00027,0.0005099999999999999,0.00016999999999999999,2
4535,4686,8e-05,0.00037999999999999997,0.00107,0.00063,5.9999999999999995e-05,0.00027,0.0005099999999999999,0.00016999999999999999,2
4536,4688,8e-05,0.00037999999999999997,0.00107,0.00063,5.9999999999999995e-05,0.00027,0.0005099999999999999,0.00016999999999999999,2
4537,4689,8e-05,0.00037999999999999997,0.00107,0.00063,5.9999999999999995e-05,0.00027,0.0005099999999999999,0.00016999999999999999,2
4538,4690,8e-05,0.00037999999999999997,0.00107,0.00063,5.9999999999999995e-05,0.00027,0.0005099999999999999,0.00016999999999999999,2
4539,4691,8e-05,0.00037999999999999997,0.00107,0.00063,5.9999999999999995e-05,0.00027,0.0005099999999999999,0.00016999999999999999,2
4540,4692,8e-05,0.00037999999999999997,0.00107,0.00063,5.9999999999999995e-05,0.00027,0.0005099999999999999,0.00016999999999999999,2
4541,4693,8e-05,0.00037999999999999997,0.00107,0.00063,5.9999999999999995e-05,0.00027,0.0005099999999999999,0.00016999999999999999,2
4542,4694,8e-05,0.00037999999999999997,0.00107,0.00063,5.9999999999999995e-05,0.00027,0.0005099999999999999,0.00016999999999999999,2
4543,4695,8e-05,0.00037999999999999997,0.00107,0.00063,5.9999999999999995e-05,0.00027,0.0005099999999999999,0.00016999999999999999,2
4544,4696,8e-05,0.00037999999999999997,0.00107,0.00063,5.9999999999999995e-05,0.00027,0.0005099999999999999,0.00016999999999999999,2
4545,4697,8e-05,0.00037999999999999997,0.00107,0.00063,5.9999999999999995e-05,0.00027,0.0005099999999999999,0.00016999999999999999,2
4546,4698,8e-05,0.00037999999999999997,0.00107,0.00063,5.9999999999999995e-05,0.00027,0.0005099999999999999,0.00016999999999999999,2
4547,4699,8e-05,0.00037999999999999997,0.00107,0.00063,5.9999999999999995e-05,0.00027,0.0005099999999999999,0.00016999999999999999,2
4548,4700,8e-05,0.00037999999999999997,0.00107,0.00063,5.9999999999999995e-05,0.00027,0.0005099999999999999,0.00016999999999999999,2
4549,4701,8e-05,0.00037999999999999997,0.00107,0.00063,5.9999999999999995e-05,0.00027,0.0005099999999999999,0.00016999999999999999,2
4550,4702,8e-05,0.00037999999999999997,0.00107,0.00063,5.9999999999999995e-05,0.00027,0.0005099999999999999,0.00016999999999999999,2
4551,4703,8e-05,0.00037999999999999997,0.00107,0.00063,5.9999999999999995e-05,0.00027,0.0005099999999999999,0.00016999999999999999,2
4552,4704,8e-05,0.00037999999999999997,0.00107,0.00063,5.9999999999999995e-05,0.00027,0.0005099999999999999,0.00016999999999999999,2
4553,4705,8e-05,0.00037999999999999997,0.00107,0.00063,5.9999999999999995e-05,0.00027,0.0005099999999999999,0.00016999999999999999,2
4554,4706,8e-05,0.00037999999999999997,0.00107,0.00063,5.9999999999999995e-05,0.00027,0.0005099999999999999,0.00016999999999999999,2
4555,4707,8e-05,0.00037999999999999997,0.00107,0.00063,5.9999999999999995e-05,0.00027,0.0005099999999999999,0.00016999999999999999,2
4556,4708,8e-05,0.00037999999999999997,0.00107,0.00063,5.9999999999999995e-05,0.00027,0.0005099999999999999,0.00016999999999999999,2
4557,4709,8e-05,0.00037999999999999997,0.00107,0.00063,5.9999999999999995e-05,0.00027,0.0005099999999999999,0.00016999999999999999,2
4558,4710,0.00059,2.9999999999999997e-05,-0.00014,0.00032,0.00107,0.0009199999999999999,0.00015,-0.00015,2
4559,4711,0.00033999999999999997,0.00022999999999999998,0.00028,0.00018,-0.00061,-0.00072,-0.00065,0.00011,2
4560,4712,0.00033999999999999997,0.00022999999999999998,0.00028,0.00018,-0.00061,-0.00072,-0.00065,0.00011,2
4561,4713,0.00033999999999999997,0.00022999999999999998,0.00028,0.00018,-0.00061,-0.00072,-0.00065,0.00011,2
4562,4714,0.00033999999999999997,0.00022999999999999998,0.00028,0.00018,-0.00061,-0.00072,-0.00065,0.00011,2
4563,4715,0.00033999999999999997,0.00022999999999999998,0.00028,0.00018,-0.00061,-0.00072,-0.00065,0.00011,2
4564,4716,-0.0001,-5.9999999999999995e-05,0.00011999999999999999,0.00033999999999999997,2.9999999999999997e-05,0.00035,0.00054,-8e-05,2
4565,4717,-0.0001,-5.9999999999999995e-05,0.00011999999999999999,0.00033999999999999997,2.9999999999999997e-05,0.00035,0.00054,-8e-05,2
4566,4718,-0.0001,-5.9999999999999995e-05,0.00011999999999999999,0.00033999999999999997,2.9999999999999997e-05,0.00035,0.00054,-8e-05,2
4567,4719,-0.0001,-5.9999999999999995e-05,0.00011999999999999999,0.00033999999999999997,2.9999999999999997e-05,0.00035,0.00054,-8e-05,2
4568,4720,-0.0001,-5.9999999999999995e-05,0.00011999999999999999,0.00033999999999999997,2.9999999999999997e-05,0.00035,0.00054,-8e-05,2
4569,4721,-0.0001,-5.9999999999999995e-05,0.00011999999999999999,0.00033999999999999997,2.9999999999999997e-05,0.00035,0.00054,-8e-05,2
4570,4722,-0.0001,-5.9999999999999995e-05,0.00011999999999999999,0.00033999999999999997,2.9999999999999997e-05,0.00035,0.00054,-8e-05,2
4571,4723,-0.0001,-5.9999999999999995e-05,0.00011999999999999999,0.00033999999999999997,2.9999999999999997e-05,0.00035,0.00054,-8e-05,2
4572,4724,0.00021,0.00013000000000000002,0.00016,-0.00044,-0.00047000000000000004,-2e-05,0.00054,5e-05,2
4573,4725,0.00021,0.00013000000000000002,0.00016,-0.00044,-0.00047000000000000004,-2e-05,0.00054,5e-05,2
4574,4726,0.00021,0.00013000000000000002,0.00016,-0.00044,-0.00047000000000000004,-2e-05,0.00054,5e-05,2
4575,4727,0.00021,0.00013000000000000002,0.00016,-0.00044,-0.00047000000000000004,-2e-05,0.00054,5e-05,2
4576,4728,0.00021,0.00013000000000000002,0.00016,-0.00044,-0.00047000000000000004,-2e-05,0.00054,5e-05,2
4577,4729,0.00021,0.00013000000000000002,0.00016,-0.00044,-0.00047000000000000004,-2e-05,0.00054,5e-05,2
4578,4730,0.00021,0.00013000000000000002,0.00016,-0.00044,-0.00047000000000000004,-2e-05,0.00054,5e-05,2
4579,4731,0.00021,0.00013000000000000002,0.00016,-0.00044,-0.00047000000000000004,-2e-05,0.00054,5e-05,2
4580,4732,0.00021,0.00013000000000000002,0.00016,-0.00044,-0.00047000000000000004,-2e-05,0.00054,5e-05,2
4581,4733,0.00021,0.00013000000000000002,0.00016,-0.00044,-0.00047000000000000004,-2e-05,0.00054,5e-05,2
4582,4734,0.00021,0.00013000000000000002,0.00016,-0.00044,-0.00047000000000000004,-2e-05,0.00054,5e-05,2
4583,4735,0.00021,0.00013000000000000002,0.00016,-0.00044,-0.00047000000000000004,-2e-05,0.00054,5e-05,2
4584,4736,0.00021,0.00013000000000000002,0.00016,-0.00044,-0.00047000000000000004,-2e-05,0.00054,5e-05,2
4585,4738,0.00021,0.00013000000000000002,0.00016,-0.00044,-0.00047000000000000004,-2e-05,0.00054,5e-05,2
4586,4739,0.00021,0.00013000000000000002,0.00016,-0.00044,-0.00047000000000000004,-2e-05,0.00054,5e-05,2
4587,4740,2.9999999999999997e-05,5e-05,-8e-05,-0.00015,-0.00028,-0.00026000000000000003,-0.00042,0.0002,2
4588,4741,-0.0005200000000000001,0.00011,0.00064,0.0003,-0.00014,0.00064,0.00033,0.00021,2
4589,4742,-0.0005200000000000001,0.00011,0.00064,0.0003,-0.00014,0.00064,0.00033,0.00021,2
4590,4743,-0.0005200000000000001,0.00011,0.00064,0.0003,-0.00014,0.00064,0.00033,0.00021,2
4591,4744,-0.0005200000000000001,0.00011,0.00064,0.0003,-0.00014,0.00064,0.00033,0.00021,2
4592,4745,-0.0005200000000000001,0.00011,0.00064,0.0003,-0.00014,0.00064,0.00033,0.00021,2
4593,4746,-0.0005200000000000001,0.00011,0.00064,0.0003,-0.00014,0.00064,0.00033,0.00021,2
4594,4747,-0.0005200000000000001,0.00011,0.00064,0.0003,-0.00014,0.00064,0.00033,0.00021,2
4595,4748,-0.0005200000000000001,0.00011,0.00064,0.0003,-0.00014,0.00064,0.00033,0.00021,2
4596,4749,-0.0005200000000000001,0.00011,0.00064,0.0003,-0.00014,0.00064,0.00033,0.00021,2
4597,4750,-0.0005200000000000001,0.00011,0.00064,0.0003,-0.00014,0.00064,0.00033,0.00021,2
4598,4751,-0.0005200000000000001,0.00011,0.00064,0.0003,-0.00014,0.00064,0.00033,0.00021,2
4599,4752,-0.0005200000000000001,0.00011,0.00064,0.0003,-0.00014,0.00064,0.00033,0.00021,2
4600,4753,-0.0005200000000000001,0.00011,0.00064,0.0003,-0.00014,0.00064,0.00033,0.00021,2
4601,4754,-0.0005200000000000001,0.00011,0.00064,0.0003,-0.00014,0.00064,0.00033,0.00021,2
4602,4755,-0.0005200000000000001,0.00011,0.00064,0.0003,-0.00014,0.00064,0.00033,0.00021,2
4603,4756,-0.0005200000000000001,0.00011,0.00064,0.0003,-0.00014,0.00064,0.00033,0.00021,2
4604,4757,-0.0005200000000000001,0.00011,0.00064,0.0003,-0.00014,0.00064,0.00033,0.00021,2
4605,4758,-0.0005200000000000001,0.00011,0.00064,0.0003,-0.00014,0.00064,0.00033,0.00021,2
4606,4759,-0.0005200000000000001,0.00011,0.00064,0.0003,-0.00014,0.00064,0.00033,0.00021,2
4607,4760,-0.0005200000000000001,0.00011,0.00064,0.0003,-0.00014,0.00064,0.00033,0.00021,2
4608,4761,-0.0005200000000000001,0.00011,0.00064,0.0003,-0.00014,0.00064,0.00033,0.00021,2
4609,4762,0.00025,-0.00026000000000000003,-7e-05,0.00091,0.00021,-0.00063,-0.00085,-0.00016,2
4610,4763,0.00061,5e-05,0.00028,-5e-05,-0.00037,-0.00022,-0.00054,9e-05,2
4611,4764,0.00061,5e-05,0.00028,-5e-05,-0.00037,-0.00022,-0.00054,9e-05,2
4612,4765,0.00061,5e-05,0.00028,-5e-05,-0.00037,-0.00022,-0.00054,9e-05,2
4613,4766,0.00061,5e-05,0.00028,-5e-05,-0.00037,-0.00022,-0.00054,9e-05,2
4614,4767,0.00061,5e-05,0.00028,-5e-05,-0.00037,-0.00022,-0.00054,9e-05,2
4615,4768,0.00061,5e-05,0.00028,-5e-05,-0.00037,-0.00022,-0.00054,9e-05,2
4616,4769,0.00061,5e-05,0.00028,-5e-05,-0.00037,-0.00022,-0.00054,9e-05,2
4617,4770,0.00061,5e-05,0.00028,-5e-05,-0.00037,-0.00022,-0.00054,9e-05,2
4618,4771,0.00061,5e-05,0.00028,-5e-05,-0.00037,-0.00022,-0.00054,9e-05,2
4619,4772,0.00061,5e-05,0.00028,-5e-05,-0.00037,-0.00022,-0.00054,9e-05,2
4620,4773,0.00061,5e-05,0.00028,-5e-05,-0.00037,-0.00022,-0.00054,9e-05,2
4621,4774,0.00061,5e-05,0.00028,-5e-05,-0.00037,-0.00022,-0.00054,9e-05,2
4622,4775,0.00061,5e-05,0.00028,-5e-05,-0.00037,-0.00022,-0.00054,9e-05,2
4623,4776,0.00061,5e-05,0.00028,-5e-05,-0.00037,-0.00022,-0.00054,9e-05,2
4624,4777,0.00061,5e-05,0.00028,-5e-05,-0.00037,-0.00022,-0.00054,9e-05,2
4625,4778,0.00061,5e-05,0.00028,-5e-05,-0.00037,-0.00022,-0.00054,9e-05,2
4626,4779,0.00061,5e-05,0.00028,-5e-05,-0.00037,-0.00022,-0.00054,9e-05,2
4627,4780,0.00061,5e-05,0.00028,-5e-05,-0.00037,-0.00022,-0.00054,9e-05,2
4628,4781,0.00061,5e-05,0.00028,-5e-05,-0.00037,-0.00022,-0.00054,9e-05,2
4629,4782,0.00061,5e-05,0.00028,-5e-05,-0.00037,-0.00022,-0.00054,9e-05,2
4630,4783,0.00061,5e-05,0.00028,-5e-05,-0.00037,-0.00022,-0.00054,9e-05,2
4631,4784,0.00061,5e-05,0.00028,-5e-05,-0.00037,-0.00022,-0.00054,9e-05,2
4632,4785,-0.0004,0.00011,0.0007599999999999999,-0.00032,-0.00044,-0.0002,-0.0001,0.0005200000000000001,2
4633,4786,0.0002,0.00013000000000000002,0.00031,0.00032,8e-05,0.00114,0.0012699999999999999,0.0009599999999999999,2
4634,4788,0.0002,0.00013000000000000002,0.00031,0.00032,8e-05,0.00114,0.0012699999999999999,0.0009599999999999999,2
4635,4789,0.0002,0.00013000000000000002,0.00031,0.00032,8e-05,0.00114,0.0012699999999999999,0.0009599999999999999,2
4636,4790,0.0002,0.00013000000000000002,0.00031,0.00032,8e-05,0.00114,0.0012699999999999999,0.0009599999999999999,2
4637,4791,0.0002,0.00013000000000000002,0.00031,0.00032,8e-05,0.00114,0.0012699999999999999,0.0009599999999999999,2
4638,4792,0.0002,0.00013000000000000002,0.00031,0.00032,8e-05,0.00114,0.0012699999999999999,0.0009599999999999999,2
4639,4793,0.0002,0.00013000000000000002,0.00031,0.00032,8e-05,0.00114,0.0012699999999999999,0.0009599999999999999,2
4640,4794,0.0002,0.00013000000000000002,0.00031,0.00032,8e-05,0.00114,0.0012699999999999999,0.0009599999999999999,2
4641,4795,0.0002,0.00013000000000000002,0.00031,0.00032,8e-05,0.00114,0.0012699999999999999,0.0009599999999999999,2
4642,4796,0.0002,0.00013000000000000002,0.00031,0.00032,8e-05,0.00114,0.0012699999999999999,0.0009599999999999999,2
4643,4797,0.0002,0.00013000000000000002,0.00031,0.00032,8e-05,0.00114,0.0012699999999999999,0.0009599999999999999,2
4644,4798,-0.00016,0.00013000000000000002,8e-05,2.9999999999999997e-05,0.00045999999999999996,-0.0005200000000000001,-0.00079,-0.00056,2
4645,4799,-0.00016,0.00013000000000000002,8e-05,2.9999999999999997e-05,0.00045999999999999996,-0.0005200000000000001,-0.00079,-0.00056,2
4646,4800,-0.00016,0.00013000000000000002,8e-05,2.9999999999999997e-05,0.00045999999999999996,-0.0005200000000000001,-0.00079,-0.00056,2
4647,4801,-0.00016,0.00013000000000000002,8e-05,2.9999999999999997e-05,0.00045999999999999996,-0.0005200000000000001,-0.00079,-0.00056,2
4648,4802,-0.00016,0.00013000000000000002,8e-05,2.9999999999999997e-05,0.00045999999999999996,-0.0005200000000000001,-0.00079,-0.00056,2
4649,4803,-0.00016,0.00013000000000000002,8e-05,2.9999999999999997e-05,0.00045999999999999996,-0.0005200000000000001,-0.00079,-0.00056,2
4650,4804,-0.00016,0.00013000000000000002,8e-05,2.9999999999999997e-05,0.00045999999999999996,-0.0005200000000000001,-0.00079,-0.00056,2
4651,4805,-0.00016,0.00013000000000000002,8e-05,2.9999999999999997e-05,0.00045999999999999996,-0.0005200000000000001,-0.00079,-0.00056,2
4652,4806,-0.00016,0.00013000000000000002,8e-05,2.9999999999999997e-05,0.00045999999999999996,-0.0005200000000000001,-0.00079,-0.00056,2
4653,4807,-7e-05,9e-05,0.00016,0.0005099999999999999,0.00037,0.0008900000000000001,-0.00049,-0.00028,2
4654,4808,-7e-05,9e-05,0.00016,0.0005099999999999999,0.00037,0.0008900000000000001,-0.00049,-0.00028,2
4655,4809,-7e-05,9e-05,0.00016,0.0005099999999999999,0.00037,0.0008900000000000001,-0.00049,-0.00028,2
4656,4810,-7e-05,9e-05,0.00016,0.0005099999999999999,0.00037,0.0008900000000000001,-0.00049,-0.00028,2
4657,4811,-7e-05,9e-05,0.00016,0.0005099999999999999,0.00037,0.0008900000000000001,-0.00049,-0.00028,2
4658,4812,-7e-05,9e-05,0.00016,0.0005099999999999999,0.00037,0.0008900000000000001,-0.00049,-0.00028,2
4659,4813,-7e-05,9e-05,0.00016,0.0005099999999999999,0.00037,0.0008900000000000001,-0.00049,-0.00028,2
4660,4814,-7e-05,9e-05,0.00016,0.0005099999999999999,0.00037,0.0008900000000000001,-0.00049,-0.00028,2
4661,4815,-7e-05,9e-05,0.00016,0.0005099999999999999,0.00037,0.0008900000000000001,-0.00049,-0.00028,2
4662,4816,-7e-05,9e-05,0.00016,0.0005099999999999999,0.00037,0.0008900000000000001,-0.00049,-0.00028,2
4663,4817,-7e-05,9e-05,0.00016,0.0005099999999999999,0.00037,0.0008900000000000001,-0.00049,-0.00028,2
4664,4818,-7e-05,9e-05,0.00016,0.0005099999999999999,0.00037,0.0008900000000000001,-0.00049,-0.00028,2
4665,4819,-7e-05,9e-05,0.00016,0.0005099999999999999,0.00037,0.0008900000000000001,-0.00049,-0.00028,2
4666,4820,-7e-05,9e-05,0.00016,0.0005099999999999999,0.00037,0.0008900000000000001,-0.00049,-0.00028,2
4667,4821,-7e-05,9e-05,0.00016,0.0005099999999999999,0.00037,0.0008900000000000001,-0.00049,-0.00028,2
4668,4822,0.00027,1e-05,-0.00016,-0.00035,-0.00018,0.00065,0.00082,0.00037999999999999997,2
4669,4823,0.00027,1e-05,-0.00016,-0.00035,-0.00018,0.00065,0.00082,0.00037999999999999997,2
4670,4824,-0.00041,-0.00031,-0.0010199999999999999,-0.00084,0.0005099999999999999,-0.00049,-0.00047000000000000004,-0.00062,2
4671,4825,-0.00041,-0.00031,-0.0010199999999999999,-0.00084,0.0005099999999999999,-0.00049,-0.00047000000000000004,-0.00062,2
4672,4826,-0.00041,-0.00031,-0.0010199999999999999,-0.00084,0.0005099999999999999,-0.00049,-0.00047000000000000004,-0.00062,2
4673,4827,-0.00041,-0.00031,-0.0010199999999999999,-0.00084,0.0005099999999999999,-0.00049,-0.00047000000000000004,-0.00062,2
4674,4828,-0.00041,-0.00031,-0.0010199999999999999,-0.00084,0.0005099999999999999,-0.00049,-0.00047000000000000004,-0.00062,2
4675,4829,-0.00041,-0.00031,-0.0010199999999999999,-0.00084,0.0005099999999999999,-0.00049,-0.00047000000000000004,-0.00062,2
4676,4830,-0.00041,-0.00031,-0.0010199999999999999,-0.00084,0.0005099999999999999,-0.00049,-0.00047000000000000004,-0.00062,2
4677,4831,-0.00041,-0.00031,-0.0010199999999999999,-0.00084,0.0005099999999999999,-0.00049,-0.00047000000000000004,-0.00062,2
4678,4832,-0.00041,-0.00031,-0.0010199999999999999,-0.00084,0.0005099999999999999,-0.00049,-0.00047000000000000004,-0.00062,2
4679,4833,-0.00041,-0.00031,-0.0010199999999999999,-0.00084,0.0005099999999999999,-0.00049,-0.00047000000000000004,-0.00062,2
4680,4834,-0.00041,-0.00031,-0.0010199999999999999,-0.00084,0.0005099999999999999,-0.00049,-0.00047000000000000004,-0.00062,2
4681,4835,-0.00041,-0.00031,-0.0010199999999999999,-0.00084,0.0005099999999999999,-0.00049,-0.00047000000000000004,-0.00062,2
4682,4836,-0.00041,-0.00031,-0.0010199999999999999,-0.00084,0.0005099999999999999,-0.00049,-0.00047000000000000004,-0.00062,2
4683,4838,-0.00041,-0.00031,-0.0010199999999999999,-0.00084,0.0005099999999999999,-0.00049,-0.00047000000000000004,-0.00062,2
4684,4839,-0.00041,-0.00031,-0.0010199999999999999,-0.00084,0.0005099999999999999,-0.00049,-0.00047000000000000004,-0.00062,2
4685,4840,-0.00041,-0.00031,-0.0010199999999999999,-0.00084,0.0005099999999999999,-0.00049,-0.00047000000000000004,-0.00062,2
4686,4841,-0.00041,-0.00031,-0.0010199999999999999,-0.00084,0.0005099999999999999,-0.00049,-0.00047000000000000004,-0.00062,2
4687,4842,-0.00041,-0.00031,-0.0010199999999999999,-0.00084,0.0005099999999999999,-0.00049,-0.00047000000000000004,-0.00062,2
4688,4843,-0.00041,-0.00031,-0.0010199999999999999,-0.00084,0.0005099999999999999,-0.00049,-0.00047000000000000004,-0.00062,2
4689,4844,-0.00041,-0.00031,-0.0010199999999999999,-0.00084,0.0005099999999999999,-0.00049,-0.00047000000000000004,-0.00062,2
4690,4845,-0.00037,0.0,0.00011999999999999999,-5e-05,-0.00021,0.00047999999999999996,0.00042,0.0,2
4691,4846,0.00016999999999999999,0.00022999999999999998,0.00084,0.0006900000000000001,0.00033999999999999997,0.00084,0.00061,0.00059,2
4692,4847,0.00016999999999999999,0.00022999999999999998,0.00084,0.0006900000000000001,0.00033999999999999997,0.00084,0.00061,0.00059,2
4693,4848,0.00016999999999999999,0.00022999999999999998,0.00084,0.0006900000000000001,0.00033999999999999997,0.00084,0.00061,0.00059,2
4694,4849,0.00016999999999999999,0.00022999999999999998,0.00084,0.0006900000000000001,0.00033999999999999997,0.00084,0.00061,0.00059,2
4695,4850,0.00016999999999999999,0.00022999999999999998,0.00084,0.0006900000000000001,0.00033999999999999997,0.00084,0.00061,0.00059,2
4696,4851,0.00016999999999999999,0.00022999999999999998,0.00084,0.0006900000000000001,0.00033999999999999997,0.00084,0.00061,0.00059,2
4697,4852,0.00016999999999999999,0.00022999999999999998,0.00084,0.0006900000000000001,0.00033999999999999997,0.00084,0.00061,0.00059,2
4698,4853,0.00016999999999999999,0.00022999999999999998,0.00084,0.0006900000000000001,0.00033999999999999997,0.00084,0.00061,0.00059,2
4699,4854,0.00016999999999999999,0.00022999999999999998,0.00084,0.0006900000000000001,0.00033999999999999997,0.00084,0.00061,0.00059,2
4700,4855,0.00016999999999999999,0.00022999999999999998,0.00084,0.0006900000000000001,0.00033999999999999997,0.00084,0.00061,0.00059,2
4701,4856,0.00016999999999999999,0.00022999999999999998,0.00084,0.0006900000000000001,0.00033999999999999997,0.00084,0.00061,0.00059,2
4702,4857,0.00016999999999999999,0.00022999999999999998,0.00084,0.0006900000000000001,0.00033999999999999997,0.00084,0.00061,0.00059,2
4703,4858,0.00016999999999999999,0.00022999999999999998,0.00084,0.0006900000000000001,0.00033999999999999997,0.00084,0.00061,0.00059,2
4704,4859,5.9999999999999995e-05,5e-05,0.00041,0.00049,-0.00039,-0.00018999999999999998,-0.0009699999999999999,-5.9999999999999995e-05,2
4705,4860,5e-05,0.00036,0.001,0.0004,0.00013000000000000002,0.00023999999999999998,0.00044,0.00026000000000000003,2
4706,4861,5e-05,0.00036,0.001,0.0004,0.00013000000000000002,0.00023999999999999998,0.00044,0.00026000000000000003,2
4707,4862,5e-05,0.00036,0.001,0.0004,0.00013000000000000002,0.00023999999999999998,0.00044,0.00026000000000000003,2
4708,4863,5e-05,0.00036,0.001,0.0004,0.00013000000000000002,0.00023999999999999998,0.00044,0.00026000000000000003,2
4709,4864,5e-05,0.00036,0.001,0.0004,0.00013000000000000002,0.00023999999999999998,0.00044,0.00026000000000000003,2
4710,4865,5e-05,0.00036,0.001,0.0004,0.00013000000000000002,0.00023999999999999998,0.00044,0.00026000000000000003,2
4711,4866,5e-05,0.00036,0.001,0.0004,0.00013000000000000002,0.00023999999999999998,0.00044,0.00026000000000000003,2
4712,4867,-0.00033999999999999997,-7e-05,0.00028,0.00033,0.00021,0.0004,0.00018,-9e-05,2
4713,4868,-0.00033999999999999997,-7e-05,0.00028,0.00033,0.00021,0.0004,0.00018,-9e-05,2
4714,4869,-0.00033999999999999997,-7e-05,0.00028,0.00033,0.00021,0.0004,0.00018,-9e-05,2
4715,4870,-0.00033999999999999997,-7e-05,0.00028,0.00033,0.00021,0.0004,0.00018,-9e-05,2
4716,4871,-0.00033999999999999997,-7e-05,0.00028,0.00033,0.00021,0.0004,0.00018,-9e-05,2
4717,4872,-0.00033999999999999997,-7e-05,0.00028,0.00033,0.00021,0.0004,0.00018,-9e-05,2
4718,4873,-0.00033999999999999997,-7e-05,0.00028,0.00033,0.00021,0.0004,0.00018,-9e-05,2
4719,4874,-0.00033999999999999997,-7e-05,0.00028,0.00033,0.00021,0.0004,0.00018,-9e-05,2
4720,4875,-0.00033999999999999997,-7e-05,0.00028,0.00033,0.00021,0.0004,0.00018,-9e-05,2
4721,4876,-0.00033999999999999997,-7e-05,0.00028,0.00033,0.00021,0.0004,0.00018,-9e-05,2
4722,4877,-0.00033999999999999997,-7e-05,0.00028,0.00033,0.00021,0.0004,0.00018,-9e-05,2
4723,4878,-0.00033999999999999997,-7e-05,0.00028,0.00033,0.00021,0.0004,0.00018,-9e-05,2
4724,4879,-0.00033999999999999997,-7e-05,0.00028,0.00033,0.00021,0.0004,0.00018,-9e-05,2
4725,4880,-0.00033999999999999997,-7e-05,0.00028,0.00033,0.00021,0.0004,0.00018,-9e-05,2
4726,4881,-0.00033999999999999997,-7e-05,0.00028,0.00033,0.00021,0.0004,0.00018,-9e-05,2
4727,4882,-2.9999999999999997e-05,4e-05,5e-05,2.9999999999999997e-05,0.00086,0.00033,0.0007,0.00022999999999999998,2
4728,4883,-2.9999999999999997e-05,4e-05,5e-05,2.9999999999999997e-05,0.00086,0.00033,0.0007,0.00022999999999999998,2
4729,4884,0.00063,-1e-05,-8e-05,-0.00018,-0.00029,-0.0005200000000000001,0.00065,0.00013000000000000002,2
4730,4885,0.00063,-1e-05,-8e-05,-0.00018,-0.00029,-0.0005200000000000001,0.00065,0.00013000000000000002,2
4731,4886,0.00063,-1e-05,-8e-05,-0.00018,-0.00029,-0.0005200000000000001,0.00065,0.00013000000000000002,2
4732,4888,0.00063,-1e-05,-8e-05,-0.00018,-0.00029,-0.0005200000000000001,0.00065,0.00013000000000000002,2
4733,4889,0.00063,-1e-05,-8e-05,-0.00018,-0.00029,-0.0005200000000000001,0.00065,0.00013000000000000002,2
4734,4890,0.00063,-1e-05,-8e-05,-0.00018,-0.00029,-0.0005200000000000001,0.00065,0.00013000000000000002,2
4735,4891,0.00063,-1e-05,-8e-05,-0.00018,-0.00029,-0.0005200000000000001,0.00065,0.00013000000000000002,2
4736,4892,0.00063,-1e-05,-8e-05,-0.00018,-0.00029,-0.0005200000000000001,0.00065,0.00013000000000000002,2
4737,4893,0.00063,-1e-05,-8e-05,-0.00018,-0.00029,-0.0005200000000000001,0.00065,0.00013000000000000002,2
4738,4894,0.00063,-1e-05,-8e-05,-0.00018,-0.00029,-0.0005200000000000001,0.00065,0.00013000000000000002,2
4739,4895,0.00063,-1e-05,-8e-05,-0.00018,-0.00029,-0.0005200000000000001,0.00065,0.00013000000000000002,2
4740,4896,0.00063,-1e-05,-8e-05,-0.00018,-0.00029,-0.0005200000000000001,0.00065,0.00013000000000000002,2
4741,4897,0.00063,-1e-05,-8e-05,-0.00018,-0.00029,-0.0005200000000000001,0.00065,0.00013000000000000002,2
4742,4898,0.00063,-1e-05,-8e-05,-0.00018,-0.00029,-0.0005200000000000001,0.00065,0.00013000000000000002,2
4743,4899,0.00063,-1e-05,-8e-05,-0.00018,-0.00029,-0.0005200000000000001,0.00065,0.00013000000000000002,2
4744,4900,0.00063,-1e-05,-8e-05,-0.00018,-0.00029,-0.0005200000000000001,0.00065,0.00013000000000000002,2
4745,4901,0.00063,-1e-05,-8e-05,-0.00018,-0.00029,-0.0005200000000000001,0.00065,0.00013000000000000002,2
4746,4902,0.00063,-1e-05,-8e-05,-0.00018,-0.00029,-0.0005200000000000001,0.00065,0.00013000000000000002,2
4747,4903,0.00063,-1e-05,-8e-05,-0.00018,-0.00029,-0.0005200000000000001,0.00065,0.00013000000000000002,2
4748,4904,0.00063,-1e-05,-8e-05,-0.00018,-0.00029,-0.0005200000000000001,0.00065,0.00013000000000000002,2
4749,4905,0.00044,0.00015,-0.00028,0.00025,2.9999999999999997e-05,0.00037,-0.00033999999999999997,-0.0004,2
4750,4906,-8e-05,-1e-05,0.00029,0.00031,-0.00044,-0.00061,0.00062,-0.00041,2
4751,4907,-8e-05,-1e-05,0.00029,0.00031,-0.00044,-0.00061,0.00062,-0.00041,2
4752,4908,-8e-05,-1e-05,0.00029,0.00031,-0.00044,-0.00061,0.00062,-0.00041,2
4753,4909,-8e-05,-1e-05,0.00029,0.00031,-0.00044,-0.00061,0.00062,-0.00041,2
4754,4910,-8e-05,-1e-05,0.00029,0.00031,-0.00044,-0.00061,0.00062,-0.00041,2
4755,4911,-8e-05,-1e-05,0.00029,0.00031,-0.00044,-0.00061,0.00062,-0.00041,2
4756,4912,-8e-05,-1e-05,0.00029,0.00031,-0.00044,-0.00061,0.00062,-0.00041,2
4757,4913,-8e-05,-1e-05,0.00029,0.00031,-0.00044,-0.00061,0.00062,-0.00041,2
4758,4914,-8e-05,-1e-05,0.00029,0.00031,-0.00044,-0.00061,0.00062,-0.00041,2
4759,4915,-8e-05,-1e-05,0.00029,0.00031,-0.00044,-0.00061,0.00062,-0.00041,2
4760,4916,-8e-05,-1e-05,0.00029,0.00031,-0.00044,-0.00061,0.00062,-0.00041,2
4761,4917,-8e-05,-1e-05,0.00029,0.00031,-0.00044,-0.00061,0.00062,-0.00041,2
4762,4918,-8e-05,-1e-05,0.00029,0.00031,-0.00044,-0.00061,0.00062,-0.00041,2
4763,4919,0.00011999999999999999,-0.00015,-0.0004,-0.00128,0.0,-0.00036,-0.00025,-7e-05,2
4764,4920,0.00011999999999999999,-0.00015,-0.0004,-0.00128,0.0,-0.00036,-0.00025,-7e-05,2
4765,4921,0.00011999999999999999,-0.00015,-0.0004,-0.00128,0.0,-0.00036,-0.00025,-7e-05,2
4766,4922,0.00011999999999999999,-0.00015,-0.0004,-0.00128,0.0,-0.00036,-0.00025,-7e-05,2
4767,4923,0.00011999999999999999,-0.00015,-0.0004,-0.00128,0.0,-0.00036,-0.00025,-7e-05,2
4768,4924,0.00011999999999999999,-0.00015,-0.0004,-0.00128,0.0,-0.00036,-0.00025,-7e-05,2
4769,4925,0.00011999999999999999,-0.00015,-0.0004,-0.00128,0.0,-0.00036,-0.00025,-7e-05,2
4770,4926,0.00011999999999999999,-0.00015,-0.0004,-0.00128,0.0,-0.00036,-0.00025,-7e-05,2
4771,4927,0.00011999999999999999,-0.00015,-0.0004,-0.00128,0.0,-0.00036,-0.00025,-7e-05,2
4772,4928,0.00011999999999999999,-0.00015,-0.0004,-0.00128,0.0,-0.00036,-0.00025,-7e-05,2
4773,4929,0.00011999999999999999,-0.00015,-0.0004,-0.00128,0.0,-0.00036,-0.00025,-7e-05,2
4774,4930,0.00011999999999999999,-0.00015,-0.0004,-0.00128,0.0,-0.00036,-0.00025,-7e-05,2
4775,4931,0.00011999999999999999,-0.00015,-0.0004,-0.00128,0.0,-0.00036,-0.00025,-7e-05,2
4776,4932,0.00011999999999999999,-0.00015,-0.0004,-0.00128,0.0,-0.00036,-0.00025,-7e-05,2
4777,4933,0.00059,2.9999999999999997e-05,5e-05,0.0007700000000000001,4e-05,-0.00074,-0.00022999999999999998,-0.00021,2
4778,4934,0.00059,2.9999999999999997e-05,5e-05,0.0007700000000000001,4e-05,-0.00074,-0.00022999999999999998,-0.00021,2
4779,4935,0.00059,2.9999999999999997e-05,5e-05,0.0007700000000000001,4e-05,-0.00074,-0.00022999999999999998,-0.00021,2
4780,4936,0.00059,2.9999999999999997e-05,5e-05,0.0007700000000000001,4e-05,-0.00074,-0.00022999999999999998,-0.00021,2
4781,4938,0.00059,2.9999999999999997e-05,5e-05,0.0007700000000000001,4e-05,-0.00074,-0.00022999999999999998,-0.00021,2
4782,4939,0.00059,2.9999999999999997e-05,5e-05,0.0007700000000000001,4e-05,-0.00074,-0.00022999999999999998,-0.00021,2
4783,4940,0.00059,2.9999999999999997e-05,5e-05,0.0007700000000000001,4e-05,-0.00074,-0.00022999999999999998,-0.00021,2
4784,4941,0.00059,2.9999999999999997e-05,5e-05,0.0007700000000000001,4e-05,-0.00074,-0.00022999999999999998,-0.00021,2
4785,4942,0.00037999999999999997,0.0,5e-05,0.00025,0.00088,0.00021,-0.00054,-1e-05,2
4786,4943,0.00037999999999999997,0.0,5e-05,0.00025,0.00088,0.00021,-0.00054,-1e-05,2
4787,4944,-0.0008300000000000001,-0.00016,0.00033,-0.00056,-0.00072,-0.00032,-0.00115,-0.0006,2
4788,4945,-0.0008300000000000001,-0.00016,0.00033,-0.00056,-0.00072,-0.00032,-0.00115,-0.0006,2
4789,4946,-0.0008300000000000001,-0.00016,0.00033,-0.00056,-0.00072,-0.00032,-0.00115,-0.0006,2
4790,4947,-0.0008300000000000001,-0.00016,0.00033,-0.00056,-0.00072,-0.00032,-0.00115,-0.0006,2
4791,4948,-0.0008300000000000001,-0.00016,0.00033,-0.00056,-0.00072,-0.00032,-0.00115,-0.0006,2
4792,4949,-0.0008300000000000001,-0.00016,0.00033,-0.00056,-0.00072,-0.00032,-0.00115,-0.0006,2
4793,4950,-0.0008300000000000001,-0.00016,0.00033,-0.00056,-0.00072,-0.00032,-0.00115,-0.0006,2
4794,4951,-0.0008300000000000001,-0.00016,0.00033,-0.00056,-0.00072,-0.00032,-0.00115,-0.0006,2
4795,4952,-0.0008300000000000001,-0.00016,0.00033,-0.00056,-0.00072,-0.00032,-0.00115,-0.0006,2
4796,4953,-0.0008300000000000001,-0.00016,0.00033,-0.00056,-0.00072,-0.00032,-0.00115,-0.0006,2
4797,4954,-0.0008300000000000001,-0.00016,0.00033,-0.00056,-0.00072,-0.00032,-0.00115,-0.0006,2
4798,4955,-0.0008300000000000001,-0.00016,0.00033,-0.00056,-0.00072,-0.00032,-0.00115,-0.0006,2
4799,4956,-0.0008300000000000001,-0.00016,0.00033,-0.00056,-0.00072,-0.00032,-0.00115,-0.0006,2
4800,4957,-0.0008300000000000001,-0.00016,0.00033,-0.00056,-0.00072,-0.00032,-0.00115,-0.0006,2
4801,4958,-0.0008300000000000001,-0.00016,0.00033,-0.00056,-0.00072,-0.00032,-0.00115,-0.0006,2
4802,4959,-0.0008300000000000001,-0.00016,0.00033,-0.00056,-0.00072,-0.00032,-0.00115,-0.0006,2
4803,4960,-0.0008300000000000001,-0.00016,0.00033,-0.00056,-0.00072,-0.00032,-0.00115,-0.0006,2
4804,4961,-0.0008300000000000001,-0.00016,0.00033,-0.00056,-0.00072,-0.00032,-0.00115,-0.0006,2
4805,4962,-0.0008300000000000001,-0.00016,0.00033,-0.00056,-0.00072,-0.00032,-0.00115,-0.0006,2
4806,4963,-0.0008300000000000001,-0.00016,0.00033,-0.00056,-0.00072,-0.00032,-0.00115,-0.0006,2
4807,4964,-0.0008300000000000001,-0.00016,0.00033,-0.00056,-0.00072,-0.00032,-0.00115,-0.0006,2
4808,4965,0.00044,-0.0001,-0.00044,-4e-05,-0.00027,-0.0008300000000000001,0.0010400000000000001,-9e-05,2
4809,4966,0.00013000000000000002,0.00011999999999999999,0.00011999999999999999,7e-05,-0.00063,-0.0005,-0.00078,-0.00011999999999999999,2
4810,4967,0.00013000000000000002,0.00011999999999999999,0.00011999999999999999,7e-05,-0.00063,-0.0005,-0.00078,-0.00011999999999999999,2
4811,4968,0.00013000000000000002,0.00011999999999999999,0.00011999999999999999,7e-05,-0.00063,-0.0005,-0.00078,-0.00011999999999999999,2
4812,4969,0.00013000000000000002,0.00011999999999999999,0.00011999999999999999,7e-05,-0.00063,-0.0005,-0.00078,-0.00011999999999999999,2
4813,4970,0.00013000000000000002,0.00011999999999999999,0.00011999999999999999,7e-05,-0.00063,-0.0005,-0.00078,-0.00011999999999999999,2
4814,4971,0.00013000000000000002,0.00011999999999999999,0.00011999999999999999,7e-05,-0.00063,-0.0005,-0.00078,-0.00011999999999999999,2
4815,4972,0.00013000000000000002,0.00011999999999999999,0.00011999999999999999,7e-05,-0.00063,-0.0005,-0.00078,-0.00011999999999999999,2
4816,4973,0.00013000000000000002,0.00011999999999999999,0.00011999999999999999,7e-05,-0.00063,-0.0005,-0.00078,-0.00011999999999999999,2
4817,4974,0.00013000000000000002,0.00011999999999999999,0.00011999999999999999,7e-05,-0.00063,-0.0005,-0.00078,-0.00011999999999999999,2
4818,4975,0.00013000000000000002,0.00011999999999999999,0.00011999999999999999,7e-05,-0.00063,-0.0005,-0.00078,-0.00011999999999999999,2
4819,4976,0.00013000000000000002,0.00011999999999999999,0.00011999999999999999,7e-05,-0.00063,-0.0005,-0.00078,-0.00011999999999999999,2
4820,4977,0.00013000000000000002,0.00011999999999999999,0.00011999999999999999,7e-05,-0.00063,-0.0005,-0.00078,-0.00011999999999999999,2
4821,4978,0.00013000000000000002,0.00011999999999999999,0.00011999999999999999,7e-05,-0.00063,-0.0005,-0.00078,-0.00011999999999999999,2
4822,4979,-0.00042,2e-05,0.00036,0.00022999999999999998,-0.00081,-0.00066,0.00039,5.9999999999999995e-05,2
4823,4980,-0.00042,2e-05,0.00036,0.00022999999999999998,-0.00081,-0.00066,0.00039,5.9999999999999995e-05,2
4824,4981,-0.00042,2e-05,0.00036,0.00022999999999999998,-0.00081,-0.00066,0.00039,5.9999999999999995e-05,2
4825,4982,-0.00042,2e-05,0.00036,0.00022999999999999998,-0.00081,-0.00066,0.00039,5.9999999999999995e-05,2
4826,4983,-0.00042,2e-05,0.00036,0.00022999999999999998,-0.00081,-0.00066,0.00039,5.9999999999999995e-05,2
4827,4984,-0.00042,2e-05,0.00036,0.00022999999999999998,-0.00081,-0.00066,0.00039,5.9999999999999995e-05,2
4828,4985,-0.00042,2e-05,0.00036,0.00022999999999999998,-0.00081,-0.00066,0.00039,5.9999999999999995e-05,2
4829,4986,0.00014,-0.00031,-0.00058,1e-05,0.00119,-0.00032,-0.00112,-0.00026000000000000003,2
4830,4988,0.00014,-0.00031,-0.00058,1e-05,0.00119,-0.00032,-0.00112,-0.00026000000000000003,2
4831,4989,0.00014,-0.00031,-0.00058,1e-05,0.00119,-0.00032,-0.00112,-0.00026000000000000003,2
4832,4990,0.00014,-0.00031,-0.00058,1e-05,0.00119,-0.00032,-0.00112,-0.00026000000000000003,2
4833,4991,0.00014,-0.00031,-0.00058,1e-05,0.00119,-0.00032,-0.00112,-0.00026000000000000003,2
4834,4992,0.00014,-0.00031,-0.00058,1e-05,0.00119,-0.00032,-0.00112,-0.00026000000000000003,2
4835,4993,0.00014,-0.00031,-0.00058,1e-05,0.00119,-0.00032,-0.00112,-0.00026000000000000003,2
4836,4994,0.00014,-0.00031,-0.00058,1e-05,0.00119,-0.00032,-0.00112,-0.00026000000000000003,2
4837,4995,0.00014,-0.00031,-0.00058,1e-05,0.00119,-0.00032,-0.00112,-0.00026000000000000003,2
4838,4996,0.00014,-0.00031,-0.00058,1e-05,0.00119,-0.00032,-0.00112,-0.00026000000000000003,2
4839,4997,0.00014,-0.00031,-0.00058,1e-05,0.00119,-0.00032,-0.00112,-0.00026000000000000003,2
4840,4998,0.00014,-0.00031,-0.00058,1e-05,0.00119,-0.00032,-0.00112,-0.00026000000000000003,2
4841,4999,0.00014,-0.00031,-0.00058,1e-05,0.00119,-0.00032,-0.00112,-0.00026000000000000003,2
4842,5000,0.00014,-0.00031,-0.00058,1e-05,0.00119,-0.00032,-0.00112,-0.00026000000000000003,2
4843,5001,0.00014,-0.00031,-0.00058,1e-05,0.00119,-0.00032,-0.00112,-0.00026000000000000003,2
4844,5002,-0.00037999999999999997,-0.00018999999999999998,-0.00033999999999999997,0.00025,-0.00037,0.00064,0.00029,0.00026000000000000003,2
4845,5003,-0.00037999999999999997,-0.00018999999999999998,-0.00033999999999999997,0.00025,-0.00037,0.00064,0.00029,0.00026000000000000003,2
4846,5004,-0.00032,7e-05,2e-05,0.00041,-0.00035,9e-05,0.00039,0.00043,2
4847,5005,-0.00032,7e-05,2e-05,0.00041,-0.00035,9e-05,0.00039,0.00043,2
4848,5006,-0.00032,7e-05,2e-05,0.00041,-0.00035,9e-05,0.00039,0.00043,2
4849,5007,-0.00032,7e-05,2e-05,0.00041,-0.00035,9e-05,0.00039,0.00043,2
4850,5008,-0.00032,7e-05,2e-05,0.00041,-0.00035,9e-05,0.00039,0.00043,2
4851,5009,-0.00032,7e-05,2e-05,0.00041,-0.00035,9e-05,0.00039,0.00043,2
4852,5010,-0.00032,7e-05,2e-05,0.00041,-0.00035,9e-05,0.00039,0.00043,2
4853,5011,-0.00032,7e-05,2e-05,0.00041,-0.00035,9e-05,0.00039,0.00043,2
4854,5012,-0.00032,7e-05,2e-05,0.00041,-0.00035,9e-05,0.00039,0.00043,2
4855,5013,-0.00032,7e-05,2e-05,0.00041,-0.00035,9e-05,0.00039,0.00043,2
4856,5014,-0.00032,7e-05,2e-05,0.00041,-0.00035,9e-05,0.00039,0.00043,2
4857,5015,-0.00032,7e-05,2e-05,0.00041,-0.00035,9e-05,0.00039,0.00043,2
4858,5016,-0.00032,7e-05,2e-05,0.00041,-0.00035,9e-05,0.00039,0.00043,2
4859,5017,-0.00032,7e-05,2e-05,0.00041,-0.00035,9e-05,0.00039,0.00043,2
4860,5018,-0.00032,7e-05,2e-05,0.00041,-0.00035,9e-05,0.00039,0.00043,2
4861,5019,-0.00032,7e-05,2e-05,0.00041,-0.00035,9e-05,0.00039,0.00043,2
4862,5020,-0.00032,7e-05,2e-05,0.00041,-0.00035,9e-05,0.00039,0.00043,2
4863,5021,-0.00032,7e-05,2e-05,0.00041,-0.00035,9e-05,0.00039,0.00043,2
4864,5022,-0.00032,7e-05,2e-05,0.00041,-0.00035,9e-05,0.00039,0.00043,2
4865,5023,-0.00032,7e-05,2e-05,0.00041,-0.00035,9e-05,0.00039,0.00043,2
4866,5024,-0.00032,7e-05,2e-05,0.00041,-0.00035,9e-05,0.00039,0.00043,2
4867,5025,-0.0004,-2.9999999999999997e-05,8e-05,-0.00057,-1e-05,-0.00022999999999999998,-0.0001,7e-05,2
4868,5026,0.00037,0.00018999999999999998,0.00023999999999999998,-0.00013000000000000002,-0.00011,0.00032,-0.00014,0.00063,2
4869,5027,0.00037,0.00018999999999999998,0.00023999999999999998,-0.00013000000000000002,-0.00011,0.00032,-0.00014,0.00063,2
4870,5028,0.00037,0.00018999999999999998,0.00023999999999999998,-0.00013000000000000002,-0.00011,0.00032,-0.00014,0.00063,2
4871,5029,0.00037,0.00018999999999999998,0.00023999999999999998,-0.00013000000000000002,-0.00011,0.00032,-0.00014,0.00063,2
4872,5030,0.00037,0.00018999999999999998,0.00023999999999999998,-0.00013000000000000002,-0.00011,0.00032,-0.00014,0.00063,2
4873,5031,0.00037,0.00018999999999999998,0.00023999999999999998,-0.00013000000000000002,-0.00011,0.00032,-0.00014,0.00063,2
4874,5033,0.00037,0.00018999999999999998,0.00023999999999999998,-0.00013000000000000002,-0.00011,0.00032,-0.00014,0.00063,2
4875,5034,0.00037,0.00018999999999999998,0.00023999999999999998,-0.00013000000000000002,-0.00011,0.00032,-0.00014,0.00063,2
4876,5035,0.00037,0.00018999999999999998,0.00023999999999999998,-0.00013000000000000002,-0.00011,0.00032,-0.00014,0.00063,2
4877,5036,0.00037,0.00018999999999999998,0.00023999999999999998,-0.00013000000000000002,-0.00011,0.00032,-0.00014,0.00063,2
4878,5038,0.00037,0.00018999999999999998,0.00023999999999999998,-0.00013000000000000002,-0.00011,0.00032,-0.00014,0.00063,2
4879,5039,-0.00029,2e-05,9e-05,0.00022999999999999998,0.0003,-0.00014,-0.00128,-0.00036,2
4880,5040,-0.00029,2e-05,9e-05,0.00022999999999999998,0.0003,-0.00014,-0.00128,-0.00036,2
4881,5041,-0.00029,2e-05,9e-05,0.00022999999999999998,0.0003,-0.00014,-0.00128,-0.00036,2
4882,5042,-0.00029,2e-05,9e-05,0.00022999999999999998,0.0003,-0.00014,-0.00128,-0.00036,2
4883,5044,-0.00029,2e-05,9e-05,0.00022999999999999998,0.0003,-0.00014,-0.00128,-0.00036,2
4884,5045,-0.00029,2e-05,9e-05,0.00022999999999999998,0.0003,-0.00014,-0.00128,-0.00036,2
4885,5046,-0.00016999999999999999,0.00016,0.00031,0.00022,0.00015,0.00088,-0.00049,-0.00016999999999999999,2
4886,5047,-0.00016999999999999999,0.00016,0.00031,0.00022,0.00015,0.00088,-0.00049,-0.00016999999999999999,2
4887,5048,-0.00016999999999999999,0.00016,0.00031,0.00022,0.00015,0.00088,-0.00049,-0.00016999999999999999,2
4888,5049,-0.00016999999999999999,0.00016,0.00031,0.00022,0.00015,0.00088,-0.00049,-0.00016999999999999999,2
4889,5050,-0.00016999999999999999,0.00016,0.00031,0.00022,0.00015,0.00088,-0.00049,-0.00016999999999999999,2
4890,5051,-0.00016999999999999999,0.00016,0.00031,0.00022,0.00015,0.00088,-0.00049,-0.00016999999999999999,2
4891,5052,-0.00016999999999999999,0.00016,0.00031,0.00022,0.00015,0.00088,-0.00049,-0.00016999999999999999,2
4892,5053,-0.00016999999999999999,0.00016,0.00031,0.00022,0.00015,0.00088,-0.00049,-0.00016999999999999999,2
4893,5054,-0.00016999999999999999,0.00016,0.00031,0.00022,0.00015,0.00088,-0.00049,-0.00016999999999999999,2
4894,5055,-0.00016999999999999999,0.00016,0.00031,0.00022,0.00015,0.00088,-0.00049,-0.00016999999999999999,2
4895,5056,-0.00016999999999999999,0.00016,0.00031,0.00022,0.00015,0.00088,-0.00049,-0.00016999999999999999,2
4896,5057,-0.00016999999999999999,0.00016,0.00031,0.00022,0.00015,0.00088,-0.00049,-0.00016999999999999999,2
4897,5058,-0.00016999999999999999,0.00016,0.00031,0.00022,0.00015,0.00088,-0.00049,-0.00016999999999999999,2
4898,5059,-0.00016999999999999999,0.00016,0.00031,0.00022,0.00015,0.00088,-0.00049,-0.00016999999999999999,2
4899,5060,-0.00016999999999999999,0.00016,0.00031,0.00022,0.00015,0.00088,-0.00049,-0.00016999999999999999,2
4900,5061,-0.00016999999999999999,0.00016,0.00031,0.00022,0.00015,0.00088,-0.00049,-0.00016999999999999999,2
4901,5062,-0.00016999999999999999,0.00016,0.00031,0.00022,0.00015,0.00088,-0.00049,-0.00016999999999999999,2
4902,5063,-0.00021,-5.9999999999999995e-05,-2e-05,0.00016,2e-05,-0.00056,0.00045,1e-05,2
4903,5064,-0.00098,-0.00015,-0.00044,-0.0005200000000000001,8e-05,-0.00015,-0.00011,-0.0004,2
4904,5065,-0.00098,-0.00015,-0.00044,-0.0005200000000000001,8e-05,-0.00015,-0.00011,-0.0004,2
4905,5066,-0.00098,-0.00015,-0.00044,-0.0005200000000000001,8e-05,-0.00015,-0.00011,-0.0004,2
4906,5067,-0.00098,-0.00015,-0.00044,-0.0005200000000000001,8e-05,-0.00015,-0.00011,-0.0004,2
4907,5068,-0.00098,-0.00015,-0.00044,-0.0005200000000000001,8e-05,-0.00015,-0.00011,-0.0004,2
4908,5069,-0.00098,-0.00015,-0.00044,-0.0005200000000000001,8e-05,-0.00015,-0.00011,-0.0004,2
4909,5070,-0.00098,-0.00015,-0.00044,-0.0005200000000000001,8e-05,-0.00015,-0.00011,-0.0004,2
4910,5071,-0.00098,-0.00015,-0.00044,-0.0005200000000000001,8e-05,-0.00015,-0.00011,-0.0004,2
4911,5072,-0.00098,-0.00015,-0.00044,-0.0005200000000000001,8e-05,-0.00015,-0.00011,-0.0004,2
4912,5073,-0.00098,-0.00015,-0.00044,-0.0005200000000000001,8e-05,-0.00015,-0.00011,-0.0004,2
4913,5074,-0.00098,-0.00015,-0.00044,-0.0005200000000000001,8e-05,-0.00015,-0.00011,-0.0004,2
4914,5075,-0.00098,-0.00015,-0.00044,-0.0005200000000000001,8e-05,-0.00015,-0.00011,-0.0004,2
4915,5076,-0.00098,-0.00015,-0.00044,-0.0005200000000000001,8e-05,-0.00015,-0.00011,-0.0004,2
4916,5077,-0.00098,-0.00015,-0.00044,-0.0005200000000000001,8e-05,-0.00015,-0.00011,-0.0004,2
4917,5078,-0.00098,-0.00015,-0.00044,-0.0005200000000000001,8e-05,-0.00015,-0.00011,-0.0004,2
4918,5079,-0.00098,-0.00015,-0.00044,-0.0005200000000000001,8e-05,-0.00015,-0.00011,-0.0004,2
4919,5080,-0.00098,-0.00015,-0.00044,-0.0005200000000000001,8e-05,-0.00015,-0.00011,-0.0004,2
4920,5081,-0.00098,-0.00015,-0.00044,-0.0005200000000000001,8e-05,-0.00015,-0.00011,-0.0004,2
4921,5082,-0.00098,-0.00015,-0.00044,-0.0005200000000000001,8e-05,-0.00015,-0.00011,-0.0004,2
4922,5083,-0.00098,-0.00015,-0.00044,-0.0005200000000000001,8e-05,-0.00015,-0.00011,-0.0004,2
4923,5084,-0.00098,-0.00015,-0.00044,-0.0005200000000000001,8e-05,-0.00015,-0.00011,-0.0004,2
4924,5085,0.00049,7e-05,-2e-05,-2e-05,0.00047999999999999996,0.00021,8e-05,0.0003,2
4925,5086,5.9999999999999995e-05,-5.9999999999999995e-05,-0.00016,-0.00116,-0.00045,-0.00045999999999999996,0.00042,2.9999999999999997e-05,2
4926,5088,5.9999999999999995e-05,-5.9999999999999995e-05,-0.00016,-0.00116,-0.00045,-0.00045999999999999996,0.00042,2.9999999999999997e-05,2
4927,5089,5.9999999999999995e-05,-5.9999999999999995e-05,-0.00016,-0.00116,-0.00045,-0.00045999999999999996,0.00042,2.9999999999999997e-05,2
4928,5091,5.9999999999999995e-05,-5.9999999999999995e-05,-0.00016,-0.00116,-0.00045,-0.00045999999999999996,0.00042,2.9999999999999997e-05,2
4929,5092,5.9999999999999995e-05,-5.9999999999999995e-05,-0.00016,-0.00116,-0.00045,-0.00045999999999999996,0.00042,2.9999999999999997e-05,2
4930,5093,5.9999999999999995e-05,-5.9999999999999995e-05,-0.00016,-0.00116,-0.00045,-0.00045999999999999996,0.00042,2.9999999999999997e-05,2
4931,5094,5.9999999999999995e-05,-5.9999999999999995e-05,-0.00016,-0.00116,-0.00045,-0.00045999999999999996,0.00042,2.9999999999999997e-05,2
4932,5095,5.9999999999999995e-05,-5.9999999999999995e-05,-0.00016,-0.00116,-0.00045,-0.00045999999999999996,0.00042,2.9999999999999997e-05,2
4933,5096,5.9999999999999995e-05,-5.9999999999999995e-05,-0.00016,-0.00116,-0.00045,-0.00045999999999999996,0.00042,2.9999999999999997e-05,2
4934,5097,5.9999999999999995e-05,-5.9999999999999995e-05,-0.00016,-0.00116,-0.00045,-0.00045999999999999996,0.00042,2.9999999999999997e-05,2
4935,5098,5.9999999999999995e-05,-5.9999999999999995e-05,-0.00016,-0.00116,-0.00045,-0.00045999999999999996,0.00042,2.9999999999999997e-05,2
4936,5099,-0.00033999999999999997,-0.00014,-0.00028,9e-05,-0.00026000000000000003,-0.0009199999999999999,-0.0009199999999999999,-0.00057,2
4937,5100,-0.00033999999999999997,-0.00014,-0.00028,9e-05,-0.00026000000000000003,-0.0009199999999999999,-0.0009199999999999999,-0.00057,2
4938,5101,-0.00033999999999999997,-0.00014,-0.00028,9e-05,-0.00026000000000000003,-0.0009199999999999999,-0.0009199999999999999,-0.00057,2
4939,5102,-0.00033999999999999997,-0.00014,-0.00028,9e-05,-0.00026000000000000003,-0.0009199999999999999,-0.0009199999999999999,-0.00057,2
4940,5103,-0.00033999999999999997,-0.00014,-0.00028,9e-05,-0.00026000000000000003,-0.0009199999999999999,-0.0009199999999999999,-0.00057,2
4941,5104,-0.00033999999999999997,-0.00014,-0.00028,9e-05,-0.00026000000000000003,-0.0009199999999999999,-0.0009199999999999999,-0.00057,2
4942,5105,-0.00033999999999999997,-0.00014,-0.00028,9e-05,-0.00026000000000000003,-0.0009199999999999999,-0.0009199999999999999,-0.00057,2
4943,5106,0.0006799999999999999,-0.00022999999999999998,-0.00045,0.00054,0.00016999999999999999,0.0011099999999999999,-0.00042,0.00028,2
4944,5107,0.0006799999999999999,-0.00022999999999999998,-0.00045,0.00054,0.00016999999999999999,0.0011099999999999999,-0.00042,0.00028,2
4945,5108,0.0006799999999999999,-0.00022999999999999998,-0.00045,0.00054,0.00016999999999999999,0.0011099999999999999,-0.00042,0.00028,2
4946,5109,0.0006799999999999999,-0.00022999999999999998,-0.00045,0.00054,0.00016999999999999999,0.0011099999999999999,-0.00042,0.00028,2
4947,5110,0.0006799999999999999,-0.00022999999999999998,-0.00045,0.00054,0.00016999999999999999,0.0011099999999999999,-0.00042,0.00028,2
4948,5111,0.0006799999999999999,-0.00022999999999999998,-0.00045,0.00054,0.00016999999999999999,0.0011099999999999999,-0.00042,0.00028,2
4949,5112,0.0006799999999999999,-0.00022999999999999998,-0.00045,0.00054,0.00016999999999999999,0.0011099999999999999,-0.00042,0.00028,2
4950,5113,0.0006799999999999999,-0.00022999999999999998,-0.00045,0.00054,0.00016999999999999999,0.0011099999999999999,-0.00042,0.00028,2
4951,5114,0.0006799999999999999,-0.00022999999999999998,-0.00045,0.00054,0.00016999999999999999,0.0011099999999999999,-0.00042,0.00028,2
4952,5115,0.0006799999999999999,-0.00022999999999999998,-0.00045,0.00054,0.00016999999999999999,0.0011099999999999999,-0.00042,0.00028,2
4953,5116,0.0006799999999999999,-0.00022999999999999998,-0.00045,0.00054,0.00016999999999999999,0.0011099999999999999,-0.00042,0.00028,2
4954,5117,0.0006799999999999999,-0.00022999999999999998,-0.00045,0.00054,0.00016999999999999999,0.0011099999999999999,-0.00042,0.00028,2
4955,5118,0.0006799999999999999,-0.00022999999999999998,-0.00045,0.00054,0.00016999999999999999,0.0011099999999999999,-0.00042,0.00028,2
4956,5119,0.0006799999999999999,-0.00022999999999999998,-0.00045,0.00054,0.00016999999999999999,0.0011099999999999999,-0.00042,0.00028,2
4957,5120,0.0006799999999999999,-0.00022999999999999998,-0.00045,0.00054,0.00016999999999999999,0.0011099999999999999,-0.00042,0.00028,2
4958,5121,0.0006799999999999999,-0.00022999999999999998,-0.00045,0.00054,0.00016999999999999999,0.0011099999999999999,-0.00042,0.00028,2
4959,5122,-0.00028,-8e-05,-8e-05,0.0001,-0.0006900000000000001,0.00055,-0.00043,-1e-05,2
4960,5123,-0.00028,-8e-05,-8e-05,0.0001,-0.0006900000000000001,0.00055,-0.00043,-1e-05,2
4961,5124,-0.00032,-9e-05,-0.00029,-0.0006799999999999999,-0.00064,-0.0011,-0.00109,-0.00018999999999999998,2
4962,5125,-0.00032,-9e-05,-0.00029,-0.0006799999999999999,-0.00064,-0.0011,-0.00109,-0.00018999999999999998,2
4963,5126,-0.00032,-9e-05,-0.00029,-0.0006799999999999999,-0.00064,-0.0011,-0.00109,-0.00018999999999999998,2
4964,5127,-0.00032,-9e-05,-0.00029,-0.0006799999999999999,-0.00064,-0.0011,-0.00109,-0.00018999999999999998,2
4965,5128,-0.00032,-9e-05,-0.00029,-0.0006799999999999999,-0.00064,-0.0011,-0.00109,-0.00018999999999999998,2
4966,5129,-0.00032,-9e-05,-0.00029,-0.0006799999999999999,-0.00064,-0.0011,-0.00109,-0.00018999999999999998,2
4967,5130,-0.00032,-9e-05,-0.00029,-0.0006799999999999999,-0.00064,-0.0011,-0.00109,-0.00018999999999999998,2
4968,5131,-0.00032,-9e-05,-0.00029,-0.0006799999999999999,-0.00064,-0.0011,-0.00109,-0.00018999999999999998,2
4969,5132,-0.00032,-9e-05,-0.00029,-0.0006799999999999999,-0.00064,-0.0011,-0.00109,-0.00018999999999999998,2
4970,5133,-0.00032,-9e-05,-0.00029,-0.0006799999999999999,-0.00064,-0.0011,-0.00109,-0.00018999999999999998,2
4971,5134,-0.00032,-9e-05,-0.00029,-0.0006799999999999999,-0.00064,-0.0011,-0.00109,-0.00018999999999999998,2
4972,5135,-0.00032,-9e-05,-0.00029,-0.0006799999999999999,-0.00064,-0.0011,-0.00109,-0.00018999999999999998,2
4973,5136,-0.00032,-9e-05,-0.00029,-0.0006799999999999999,-0.00064,-0.0011,-0.00109,-0.00018999999999999998,2
4974,5138,-0.00032,-9e-05,-0.00029,-0.0006799999999999999,-0.00064,-0.0011,-0.00109,-0.00018999999999999998,2
4975,5139,-0.00032,-9e-05,-0.00029,-0.0006799999999999999,-0.00064,-0.0011,-0.00109,-0.00018999999999999998,2
4976,5140,-0.00032,-9e-05,-0.00029,-0.0006799999999999999,-0.00064,-0.0011,-0.00109,-0.00018999999999999998,2
4977,5141,-0.00032,-9e-05,-0.00029,-0.0006799999999999999,-0.00064,-0.0011,-0.00109,-0.00018999999999999998,2
4978,5142,-0.00032,-9e-05,-0.00029,-0.0006799999999999999,-0.00064,-0.0011,-0.00109,-0.00018999999999999998,2
4979,5143,-0.00032,-9e-05,-0.00029,-0.0006799999999999999,-0.00064,-0.0011,-0.00109,-0.00018999999999999998,2
4980,5144,-0.00032,-9e-05,-0.00029,-0.0006799999999999999,-0.00064,-0.0011,-0.00109,-0.00018999999999999998,2
4981,5145,2.9999999999999997e-05,2.9999999999999997e-05,0.00037999999999999997,-0.00027,-0.00029,4e-05,0.00115,9e-05,2
4982,5146,8e-05,-2e-05,5e-05,2e-05,0.00036,0.0006900000000000001,0.00074,0.00015,2
4983,5147,8e-05,-2e-05,5e-05,2e-05,0.00036,0.0006900000000000001,0.00074,0.00015,2
4984,5148,8e-05,-2e-05,5e-05,2e-05,0.00036,0.0006900000000000001,0.00074,0.00015,2
4985,5149,8e-05,-2e-05,5e-05,2e-05,0.00036,0.0006900000000000001,0.00074,0.00015,2
4986,5150,8e-05,-2e-05,5e-05,2e-05,0.00036,0.0006900000000000001,0.00074,0.00015,2
4987,5151,8e-05,-2e-05,5e-05,2e-05,0.00036,0.0006900000000000001,0.00074,0.00015,2
4988,5152,8e-05,-2e-05,5e-05,2e-05,0.00036,0.0006900000000000001,0.00074,0.00015,2
4989,5153,8e-05,-2e-05,5e-05,2e-05,0.00036,0.0006900000000000001,0.00074,0.00015,2
4990,5154,8e-05,-2e-05,5e-05,2e-05,0.00036,0.0006900000000000001,0.00074,0.00015,2
4991,5155,8e-05,-2e-05,5e-05,2e-05,0.00036,0.0006900000000000001,0.00074,0.00015,2
4992,5156,8e-05,-2e-05,5e-05,2e-05,0.00036,0.0006900000000000001,0.00074,0.00015,2
4993,5157,8e-05,-2e-05,5e-05,2e-05,0.00036,0.0006900000000000001,0.00074,0.00015,2
4994,5158,8e-05,-2e-05,5e-05,2e-05,0.00036,0.0006900000000000001,0.00074,0.00015,2
4995,5159,0.00043,5e-05,-9e-05,-0.0006,-0.00022,0.00091,-0.00036,0.00015,2
4996,5160,0.00043,5e-05,-9e-05,-0.0006,-0.00022,0.00091,-0.00036,0.00015,2
4997,5162,0.00043,5e-05,-9e-05,-0.0006,-0.00022,0.00091,-0.00036,0.00015,2
4998,5163,0.00043,5e-05,-9e-05,-0.0006,-0.00022,0.00091,-0.00036,0.00015,2
4999,5164,0.00043,5e-05,-9e-05,-0.0006,-0.00022,0.00091,-0.00036,0.00015,2
5000,5165,0.00043,5e-05,-9e-05,-0.0006,-0.00022,0.00091,-0.00036,0.00015,2
5001,5166,0.00022999999999999998,9e-05,0.00028,0.00042,-8e-05,-0.00084,7e-05,-8e-05,2
5002,5167,0.00022999999999999998,9e-05,0.00028,0.00042,-8e-05,-0.00084,7e-05,-8e-05,2
5003,5168,0.00022999999999999998,9e-05,0.00028,0.00042,-8e-05,-0.00084,7e-05,-8e-05,2
5004,5169,0.00022999999999999998,9e-05,0.00028,0.00042,-8e-05,-0.00084,7e-05,-8e-05,2
5005,5170,0.00022999999999999998,9e-05,0.00028,0.00042,-8e-05,-0.00084,7e-05,-8e-05,2
5006,5171,0.00022999999999999998,9e-05,0.00028,0.00042,-8e-05,-0.00084,7e-05,-8e-05,2
5007,5172,0.00022999999999999998,9e-05,0.00028,0.00042,-8e-05,-0.00084,7e-05,-8e-05,2
5008,5173,0.00022999999999999998,9e-05,0.00028,0.00042,-8e-05,-0.00084,7e-05,-8e-05,2
5009,5174,0.00022999999999999998,9e-05,0.00028,0.00042,-8e-05,-0.00084,7e-05,-8e-05,2
5010,5175,0.00022999999999999998,9e-05,0.00028,0.00042,-8e-05,-0.00084,7e-05,-8e-05,2
5011,5176,0.00022999999999999998,9e-05,0.00028,0.00042,-8e-05,-0.00084,7e-05,-8e-05,2
5012,5177,0.00022999999999999998,9e-05,0.00028,0.00042,-8e-05,-0.00084,7e-05,-8e-05,2
5013,5178,0.00022999999999999998,9e-05,0.00028,0.00042,-8e-05,-0.00084,7e-05,-8e-05,2
5014,5179,0.00022999999999999998,9e-05,0.00028,0.00042,-8e-05,-0.00084,7e-05,-8e-05,2
5015,5180,0.00022999999999999998,9e-05,0.00028,0.00042,-8e-05,-0.00084,7e-05,-8e-05,2
5016,5181,0.00022999999999999998,9e-05,0.00028,0.00042,-8e-05,-0.00084,7e-05,-8e-05,2
5017,5182,-8e-05,-0.0002,-0.00026000000000000003,-0.00031,-5.9999999999999995e-05,-0.0005200000000000001,-0.00065,-0.0005200000000000001,2
5018,5183,-8e-05,-0.0002,-0.00026000000000000003,-0.00031,-5.9999999999999995e-05,-0.0005200000000000001,-0.00065,-0.0005200000000000001,2
5019,5184,-9e-05,-1e-05,8e-05,0.00072,0.00118,0.0007099999999999999,-2e-05,7e-05,2
5020,5185,-9e-05,-1e-05,8e-05,0.00072,0.00118,0.0007099999999999999,-2e-05,7e-05,2
5021,5186,-9e-05,-1e-05,8e-05,0.00072,0.00118,0.0007099999999999999,-2e-05,7e-05,2
5022,5188,-9e-05,-1e-05,8e-05,0.00072,0.00118,0.0007099999999999999,-2e-05,7e-05,2
5023,5189,-9e-05,-1e-05,8e-05,0.00072,0.00118,0.0007099999999999999,-2e-05,7e-05,2
5024,5190,-9e-05,-1e-05,8e-05,0.00072,0.00118,0.0007099999999999999,-2e-05,7e-05,2
5025,5191,-9e-05,-1e-05,8e-05,0.00072,0.00118,0.0007099999999999999,-2e-05,7e-05,2
5026,5192,-9e-05,-1e-05,8e-05,0.00072,0.00118,0.0007099999999999999,-2e-05,7e-05,2
5027,5193,-9e-05,-1e-05,8e-05,0.00072,0.00118,0.0007099999999999999,-2e-05,7e-05,2
5028,5194,-9e-05,-1e-05,8e-05,0.00072,0.00118,0.0007099999999999999,-2e-05,7e-05,2
5029,5195,-9e-05,-1e-05,8e-05,0.00072,0.00118,0.0007099999999999999,-2e-05,7e-05,2
5030,5196,-9e-05,-1e-05,8e-05,0.00072,0.00118,0.0007099999999999999,-2e-05,7e-05,2
5031,5197,-9e-05,-1e-05,8e-05,0.00072,0.00118,0.0007099999999999999,-2e-05,7e-05,2
5032,5198,-9e-05,-1e-05,8e-05,0.00072,0.00118,0.0007099999999999999,-2e-05,7e-05,2
5033,5199,-9e-05,-1e-05,8e-05,0.00072,0.00118,0.0007099999999999999,-2e-05,7e-05,2
5034,5200,-9e-05,-1e-05,8e-05,0.00072,0.00118,0.0007099999999999999,-2e-05,7e-05,2
5035,5201,-9e-05,-1e-05,8e-05,0.00072,0.00118,0.0007099999999999999,-2e-05,7e-05,2
5036,5202,-9e-05,-1e-05,8e-05,0.00072,0.00118,0.0007099999999999999,-2e-05,7e-05,2
5037,5203,-9e-05,-1e-05,8e-05,0.00072,0.00118,0.0007099999999999999,-2e-05,7e-05,2
5038,5204,-9e-05,-1e-05,8e-05,0.00072,0.00118,0.0007099999999999999,-2e-05,7e-05,2
5039,5205,-9e-05,-1e-05,8e-05,0.00072,0.00118,0.0007099999999999999,-2e-05,7e-05,2
5040,5206,-9e-05,-1e-05,8e-05,0.00072,0.00118,0.0007099999999999999,-2e-05,7e-05,2
5041,5207,-9e-05,-1e-05,8e-05,0.00072,0.00118,0.0007099999999999999,-2e-05,7e-05,2
5042,5208,-9e-05,-1e-05,8e-05,0.00072,0.00118,0.0007099999999999999,-2e-05,7e-05,2
5043,5209,-9e-05,-1e-05,8e-05,0.00072,0.00118,0.0007099999999999999,-2e-05,7e-05,2
5044,5210,-9e-05,-1e-05,8e-05,0.00072,0.00118,0.0007099999999999999,-2e-05,7e-05,2
5045,5211,-9e-05,-1e-05,8e-05,0.00072,0.00118,0.0007099999999999999,-2e-05,7e-05,2
5046,5212,0.00011999999999999999,0.0,1e-05,-0.00036,-0.00037,9e-05,0.0008300000000000001,-2.9999999999999997e-05,2
5047,5213,0.00011999999999999999,0.0,1e-05,-0.00036,-0.00037,9e-05,0.0008300000000000001,-2.9999999999999997e-05,2
5048,5214,-0.00055,2e-05,0.00027,0.0002,-0.00011999999999999999,-0.00091,0.00044,-0.00027,2
5049,5215,-0.00055,2e-05,0.00027,0.0002,-0.00011999999999999999,-0.00091,0.00044,-0.00027,2
5050,5216,-0.00055,2e-05,0.00027,0.0002,-0.00011999999999999999,-0.00091,0.00044,-0.00027,2
5051,5217,-0.00055,2e-05,0.00027,0.0002,-0.00011999999999999999,-0.00091,0.00044,-0.00027,2
5052,5218,-0.00055,2e-05,0.00027,0.0002,-0.00011999999999999999,-0.00091,0.00044,-0.00027,2
5053,5219,0.00021,-5e-05,-0.0004,-9e-05,0.00072,-2e-05,-1e-05,-2e-05,2
5054,5220,0.00021,-5e-05,-0.0004,-9e-05,0.00072,-2e-05,-1e-05,-2e-05,2
5055,5221,0.00021,-5e-05,-0.0004,-9e-05,0.00072,-2e-05,-1e-05,-2e-05,2
5056,5222,0.00021,-5e-05,-0.0004,-9e-05,0.00072,-2e-05,-1e-05,-2e-05,2
5057,5223,0.00021,-5e-05,-0.0004,-9e-05,0.00072,-2e-05,-1e-05,-2e-05,2
5058,5224,0.00021,-5e-05,-0.0004,-9e-05,0.00072,-2e-05,-1e-05,-2e-05,2
5059,5225,0.00021,-5e-05,-0.0004,-9e-05,0.00072,-2e-05,-1e-05,-2e-05,2
5060,5226,-0.0009,-0.00011,-8e-05,-4e-05,-0.00028,-0.00031,0.00041,-0.00023999999999999998,2
5061,5227,-0.0009,-0.00011,-8e-05,-4e-05,-0.00028,-0.00031,0.00041,-0.00023999999999999998,2
5062,5228,-0.0009,-0.00011,-8e-05,-4e-05,-0.00028,-0.00031,0.00041,-0.00023999999999999998,2
5063,5229,-0.0009,-0.00011,-8e-05,-4e-05,-0.00028,-0.00031,0.00041,-0.00023999999999999998,2
5064,5230,-0.0009,-0.00011,-8e-05,-4e-05,-0.00028,-0.00031,0.00041,-0.00023999999999999998,2
5065,5231,-0.0009,-0.00011,-8e-05,-4e-05,-0.00028,-0.00031,0.00041,-0.00023999999999999998,2
5066,5232,-0.0009,-0.00011,-8e-05,-4e-05,-0.00028,-0.00031,0.00041,-0.00023999999999999998,2
5067,5233,-0.0009,-0.00011,-8e-05,-4e-05,-0.00028,-0.00031,0.00041,-0.00023999999999999998,2
5068,5234,-0.0009,-0.00011,-8e-05,-4e-05,-0.00028,-0.00031,0.00041,-0.00023999999999999998,2
5069,5235,-0.0009,-0.00011,-8e-05,-4e-05,-0.00028,-0.00031,0.00041,-0.00023999999999999998,2
5070,5236,-0.0009,-0.00011,-8e-05,-4e-05,-0.00028,-0.00031,0.00041,-0.00023999999999999998,2
5071,5238,-0.0009,-0.00011,-8e-05,-4e-05,-0.00028,-0.00031,0.00041,-0.00023999999999999998,2
5072,5239,-0.0009,-0.00011,-8e-05,-4e-05,-0.00028,-0.00031,0.00041,-0.00023999999999999998,2
5073,5240,-0.0009,-0.00011,-8e-05,-4e-05,-0.00028,-0.00031,0.00041,-0.00023999999999999998,2
5074,5241,-0.0009,-0.00011,-8e-05,-4e-05,-0.00028,-0.00031,0.00041,-0.00023999999999999998,2
5075,5242,2e-05,-0.00018999999999999998,-0.00018,-5e-05,-0.00022,0.00037999999999999997,0.0,0.00018,2
5076,5243,2e-05,-0.00018999999999999998,-0.00018,-5e-05,-0.00022,0.00037999999999999997,0.0,0.00018,2
5077,5244,0.00021,0.00015,0.00042,0.0006900000000000001,0.00018999999999999998,-5.9999999999999995e-05,-9e-05,-0.00011999999999999999,2
5078,5245,5.9999999999999995e-05,-8e-05,-0.0005,-0.00022,2.9999999999999997e-05,4e-05,-0.0005099999999999999,0.00042,2
5079,5246,5.9999999999999995e-05,-8e-05,-0.0005,-0.00022,2.9999999999999997e-05,4e-05,-0.0005099999999999999,0.00042,2
5080,5247,5.9999999999999995e-05,-8e-05,-0.0005,-0.00022,2.9999999999999997e-05,4e-05,-0.0005099999999999999,0.00042,2
5081,5248,5.9999999999999995e-05,-8e-05,-0.0005,-0.00022,2.9999999999999997e-05,4e-05,-0.0005099999999999999,0.00042,2
5082,5249,5.9999999999999995e-05,-8e-05,-0.0005,-0.00022,2.9999999999999997e-05,4e-05,-0.0005099999999999999,0.00042,2
5083,5250,5.9999999999999995e-05,-8e-05,-0.0005,-0.00022,2.9999999999999997e-05,4e-05,-0.0005099999999999999,0.00042,2
5084,5251,5.9999999999999995e-05,-8e-05,-0.0005,-0.00022,2.9999999999999997e-05,4e-05,-0.0005099999999999999,0.00042,2
5085,5252,5.9999999999999995e-05,-8e-05,-0.0005,-0.00022,2.9999999999999997e-05,4e-05,-0.0005099999999999999,0.00042,2
5086,5253,5.9999999999999995e-05,-8e-05,-0.0005,-0.00022,2.9999999999999997e-05,4e-05,-0.0005099999999999999,0.00042,2
5087,5254,5.9999999999999995e-05,-8e-05,-0.0005,-0.00022,2.9999999999999997e-05,4e-05,-0.0005099999999999999,0.00042,2
5088,5255,5.9999999999999995e-05,-8e-05,-0.0005,-0.00022,2.9999999999999997e-05,4e-05,-0.0005099999999999999,0.00042,2
5089,5256,5.9999999999999995e-05,-8e-05,-0.0005,-0.00022,2.9999999999999997e-05,4e-05,-0.0005099999999999999,0.00042,2
5090,5257,5.9999999999999995e-05,-8e-05,-0.0005,-0.00022,2.9999999999999997e-05,4e-05,-0.0005099999999999999,0.00042,2
5091,5258,5.9999999999999995e-05,-8e-05,-0.0005,-0.00022,2.9999999999999997e-05,4e-05,-0.0005099999999999999,0.00042,2
5092,5259,5.9999999999999995e-05,-8e-05,-0.0005,-0.00022,2.9999999999999997e-05,4e-05,-0.0005099999999999999,0.00042,2
5093,5260,5.9999999999999995e-05,-8e-05,-0.0005,-0.00022,2.9999999999999997e-05,4e-05,-0.0005099999999999999,0.00042,2
5094,5261,5.9999999999999995e-05,-8e-05,-0.0005,-0.00022,2.9999999999999997e-05,4e-05,-0.0005099999999999999,0.00042,2
5095,5262,5.9999999999999995e-05,-8e-05,-0.0005,-0.00022,2.9999999999999997e-05,4e-05,-0.0005099999999999999,0.00042,2
5096,5263,5.9999999999999995e-05,-8e-05,-0.0005,-0.00022,2.9999999999999997e-05,4e-05,-0.0005099999999999999,0.00042,2
5097,5264,5.9999999999999995e-05,-8e-05,-0.0005,-0.00022,2.9999999999999997e-05,4e-05,-0.0005099999999999999,0.00042,2
5098,5265,-0.0001,-0.00011,-0.0005200000000000001,-0.0006900000000000001,-0.00039,-5e-05,-0.00037999999999999997,-0.00015,2
5099,5266,-0.0001,-0.00011,-0.0005200000000000001,-0.0006900000000000001,-0.00039,-5e-05,-0.00037999999999999997,-0.00015,2
5100,5267,0.0002,0.0002,0.00067,0.00082,0.00013000000000000002,0.0011099999999999999,-0.0002,0.00011,2
5101,5268,0.0002,0.0002,0.00067,0.00082,0.00013000000000000002,0.0011099999999999999,-0.0002,0.00011,2
5102,5269,0.0002,0.0002,0.00067,0.00082,0.00013000000000000002,0.0011099999999999999,-0.0002,0.00011,2
5103,5270,0.0002,0.0002,0.00067,0.00082,0.00013000000000000002,0.0011099999999999999,-0.0002,0.00011,2
5104,5271,0.0002,0.0002,0.00067,0.00082,0.00013000000000000002,0.0011099999999999999,-0.0002,0.00011,2
5105,5272,0.0002,0.0002,0.00067,0.00082,0.00013000000000000002,0.0011099999999999999,-0.0002,0.00011,2
5106,5273,0.0002,0.0002,0.00067,0.00082,0.00013000000000000002,0.0011099999999999999,-0.0002,0.00011,2
5107,5274,0.0002,0.0002,0.00067,0.00082,0.00013000000000000002,0.0011099999999999999,-0.0002,0.00011,2
5108,5275,0.0002,0.0002,0.00067,0.00082,0.00013000000000000002,0.0011099999999999999,-0.0002,0.00011,2
5109,5276,0.0002,0.0002,0.00067,0.00082,0.00013000000000000002,0.0011099999999999999,-0.0002,0.00011,2
5110,5277,0.0002,0.0002,0.00067,0.00082,0.00013000000000000002,0.0011099999999999999,-0.0002,0.00011,2
5111,5278,0.00015,0.00014,0.00014,0.0012699999999999999,0.0011,0.00028,0.00047000000000000004,-0.00026000000000000003,2
5112,5279,0.00015,0.00014,0.00014,0.0012699999999999999,0.0011,0.00028,0.00047000000000000004,-0.00026000000000000003,2
5113,5280,0.00015,0.00014,0.00014,0.0012699999999999999,0.0011,0.00028,0.00047000000000000004,-0.00026000000000000003,2
5114,5281,0.00015,0.00014,0.00014,0.0012699999999999999,0.0011,0.00028,0.00047000000000000004,-0.00026000000000000003,2
5115,5282,0.00015,0.00014,0.00014,0.0012699999999999999,0.0011,0.00028,0.00047000000000000004,-0.00026000000000000003,2
5116,5283,0.00015,0.00014,0.00014,0.0012699999999999999,0.0011,0.00028,0.00047000000000000004,-0.00026000000000000003,2
5117,5284,0.00015,0.00014,0.00014,0.0012699999999999999,0.0011,0.00028,0.00047000000000000004,-0.00026000000000000003,2
5118,5285,0.00015,0.00014,0.00014,0.0012699999999999999,0.0011,0.00028,0.00047000000000000004,-0.00026000000000000003,2
5119,5286,0.00015,0.00014,0.00014,0.0012699999999999999,0.0011,0.00028,0.00047000000000000004,-0.00026000000000000003,2
5120,5288,0.00064,0.00016999999999999999,0.00036,-0.00036,0.00011999999999999999,0.00016999999999999999,0.00081,0.00018,2
5121,5289,0.00064,0.00016999999999999999,0.00036,-0.00036,0.00011999999999999999,0.00016999999999999999,0.00081,0.00018,2
5122,5290,0.00064,0.00016999999999999999,0.00036,-0.00036,0.00011999999999999999,0.00016999999999999999,0.00081,0.00018,2
5123,5291,0.00064,0.00016999999999999999,0.00036,-0.00036,0.00011999999999999999,0.00016999999999999999,0.00081,0.00018,2
5124,5292,0.00064,0.00016999999999999999,0.00036,-0.00036,0.00011999999999999999,0.00016999999999999999,0.00081,0.00018,2
5125,5293,0.00064,0.00016999999999999999,0.00036,-0.00036,0.00011999999999999999,0.00016999999999999999,0.00081,0.00018,2
5126,5294,0.00064,0.00016999999999999999,0.00036,-0.00036,0.00011999999999999999,0.00016999999999999999,0.00081,0.00018,2
5127,5295,0.00064,0.00016999999999999999,0.00036,-0.00036,0.00011999999999999999,0.00016999999999999999,0.00081,0.00018,2
5128,5296,0.00064,0.00016999999999999999,0.00036,-0.00036,0.00011999999999999999,0.00016999999999999999,0.00081,0.00018,2
5129,5297,0.00064,0.00016999999999999999,0.00036,-0.00036,0.00011999999999999999,0.00016999999999999999,0.00081,0.00018,2
5130,5298,0.00064,0.00016999999999999999,0.00036,-0.00036,0.00011999999999999999,0.00016999999999999999,0.00081,0.00018,2
5131,5299,0.00064,0.00016999999999999999,0.00036,-0.00036,0.00011999999999999999,0.00016999999999999999,0.00081,0.00018,2
5132,5300,0.00064,0.00016999999999999999,0.00036,-0.00036,0.00011999999999999999,0.00016999999999999999,0.00081,0.00018,2
5133,5301,0.00064,0.00016999999999999999,0.00036,-0.00036,0.00011999999999999999,0.00016999999999999999,0.00081,0.00018,2
5134,5302,-9e-05,2e-05,0.00026000000000000003,-0.00041,0.0008699999999999999,-0.00029,-0.00043,0.00011999999999999999,2
5135,5303,-9e-05,2e-05,0.00026000000000000003,-0.00041,0.0008699999999999999,-0.00029,-0.00043,0.00011999999999999999,2
5136,5304,5.9999999999999995e-05,0.0001,0.00047999999999999996,0.00058,8e-05,-0.0009199999999999999,-0.00036,-1e-05,2
5137,5305,5.9999999999999995e-05,0.0001,0.00047999999999999996,0.00058,8e-05,-0.0009199999999999999,-0.00036,-1e-05,2
5138,5306,5.9999999999999995e-05,0.0001,0.00047999999999999996,0.00058,8e-05,-0.0009199999999999999,-0.00036,-1e-05,2
5139,5307,5.9999999999999995e-05,0.0001,0.00047999999999999996,0.00058,8e-05,-0.0009199999999999999,-0.00036,-1e-05,2
5140,5308,5.9999999999999995e-05,0.0001,0.00047999999999999996,0.00058,8e-05,-0.0009199999999999999,-0.00036,-1e-05,2
5141,5309,5.9999999999999995e-05,0.0001,0.00047999999999999996,0.00058,8e-05,-0.0009199999999999999,-0.00036,-1e-05,2
5142,5310,5.9999999999999995e-05,0.0001,0.00047999999999999996,0.00058,8e-05,-0.0009199999999999999,-0.00036,-1e-05,2
5143,5311,5.9999999999999995e-05,0.0001,0.00047999999999999996,0.00058,8e-05,-0.0009199999999999999,-0.00036,-1e-05,2
5144,5312,5.9999999999999995e-05,0.0001,0.00047999999999999996,0.00058,8e-05,-0.0009199999999999999,-0.00036,-1e-05,2
5145,5313,5.9999999999999995e-05,0.0001,0.00047999999999999996,0.00058,8e-05,-0.0009199999999999999,-0.00036,-1e-05,2
5146,5314,5.9999999999999995e-05,0.0001,0.00047999999999999996,0.00058,8e-05,-0.0009199999999999999,-0.00036,-1e-05,2
5147,5315,5.9999999999999995e-05,0.0001,0.00047999999999999996,0.00058,8e-05,-0.0009199999999999999,-0.00036,-1e-05,2
5148,5316,5.9999999999999995e-05,0.0001,0.00047999999999999996,0.00058,8e-05,-0.0009199999999999999,-0.00036,-1e-05,2
5149,5317,5.9999999999999995e-05,0.0001,0.00047999999999999996,0.00058,8e-05,-0.0009199999999999999,-0.00036,-1e-05,2
5150,5318,5.9999999999999995e-05,0.0001,0.00047999999999999996,0.00058,8e-05,-0.0009199999999999999,-0.00036,-1e-05,2
5151,5319,5.9999999999999995e-05,0.0001,0.00047999999999999996,0.00058,8e-05,-0.0009199999999999999,-0.00036,-1e-05,2
5152,5320,5.9999999999999995e-05,0.0001,0.00047999999999999996,0.00058,8e-05,-0.0009199999999999999,-0.00036,-1e-05,2
5153,5321,5.9999999999999995e-05,0.0001,0.00047999999999999996,0.00058,8e-05,-0.0009199999999999999,-0.00036,-1e-05,2
5154,5322,5.9999999999999995e-05,0.0001,0.00047999999999999996,0.00058,8e-05,-0.0009199999999999999,-0.00036,-1e-05,2
5155,5323,5.9999999999999995e-05,0.0001,0.00047999999999999996,0.00058,8e-05,-0.0009199999999999999,-0.00036,-1e-05,2
5156,5324,5.9999999999999995e-05,0.0001,0.00047999999999999996,0.00058,8e-05,-0.0009199999999999999,-0.00036,-1e-05,2
5157,5325,0.00011999999999999999,-0.0001,-7e-05,0.0005200000000000001,-0.00011999999999999999,-0.00045999999999999996,-0.00101,5e-05,2
5158,5326,0.00037,0.0002,0.00015,-8e-05,-0.0007700000000000001,0.00023999999999999998,0.00056,-0.00011,2
5159,5327,0.00037,0.0002,0.00015,-8e-05,-0.0007700000000000001,0.00023999999999999998,0.00056,-0.00011,2
5160,5328,0.00037,0.0002,0.00015,-8e-05,-0.0007700000000000001,0.00023999999999999998,0.00056,-0.00011,2
5161,5329,0.00037,0.0002,0.00015,-8e-05,-0.0007700000000000001,0.00023999999999999998,0.00056,-0.00011,2
5162,5330,0.00037,0.0002,0.00015,-8e-05,-0.0007700000000000001,0.00023999999999999998,0.00056,-0.00011,2
5163,5331,0.00037,0.0002,0.00015,-8e-05,-0.0007700000000000001,0.00023999999999999998,0.00056,-0.00011,2
5164,5332,0.00037,0.0002,0.00015,-8e-05,-0.0007700000000000001,0.00023999999999999998,0.00056,-0.00011,2
5165,5333,0.00037,0.0002,0.00015,-8e-05,-0.0007700000000000001,0.00023999999999999998,0.00056,-0.00011,2
5166,5334,0.00037,0.0002,0.00015,-8e-05,-0.0007700000000000001,0.00023999999999999998,0.00056,-0.00011,2
5167,5335,0.00037,0.0002,0.00015,-8e-05,-0.0007700000000000001,0.00023999999999999998,0.00056,-0.00011,2
5168,5336,0.00037,0.0002,0.00015,-8e-05,-0.0007700000000000001,0.00023999999999999998,0.00056,-0.00011,2
5169,5338,0.00037,0.0002,0.00015,-8e-05,-0.0007700000000000001,0.00023999999999999998,0.00056,-0.00011,2
5170,5339,-8e-05,-0.00036,-0.00095,-0.00065,0.00026000000000000003,-0.00014,0.0007099999999999999,0.00016,2
5171,5340,-8e-05,-0.00036,-0.00095,-0.00065,0.00026000000000000003,-0.00014,0.0007099999999999999,0.00016,2
5172,5341,-8e-05,-0.00036,-0.00095,-0.00065,0.00026000000000000003,-0.00014,0.0007099999999999999,0.00016,2
5173,5342,-8e-05,-0.00036,-0.00095,-0.00065,0.00026000000000000003,-0.00014,0.0007099999999999999,0.00016,2
5174,5343,-8e-05,-0.00036,-0.00095,-0.00065,0.00026000000000000003,-0.00014,0.0007099999999999999,0.00016,2
5175,5344,-8e-05,-0.00036,-0.00095,-0.00065,0.00026000000000000003,-0.00014,0.0007099999999999999,0.00016,2
5176,5345,-8e-05,-0.00036,-0.00095,-0.00065,0.00026000000000000003,-0.00014,0.0007099999999999999,0.00016,2
5177,5346,-8e-05,-0.00036,-0.00095,-0.00065,0.00026000000000000003,-0.00014,0.0007099999999999999,0.00016,2
5178,5347,5.9999999999999995e-05,-0.00011999999999999999,-0.00015,0.00011999999999999999,-0.00037999999999999997,-0.0001,-0.0007,2.9999999999999997e-05,2
5179,5348,5.9999999999999995e-05,-0.00011999999999999999,-0.00015,0.00011999999999999999,-0.00037999999999999997,-0.0001,-0.0007,2.9999999999999997e-05,2
5180,5349,5.9999999999999995e-05,-0.00011999999999999999,-0.00015,0.00011999999999999999,-0.00037999999999999997,-0.0001,-0.0007,2.9999999999999997e-05,2
5181,5350,5.9999999999999995e-05,-0.00011999999999999999,-0.00015,0.00011999999999999999,-0.00037999999999999997,-0.0001,-0.0007,2.9999999999999997e-05,2
5182,5351,5.9999999999999995e-05,-0.00011999999999999999,-0.00015,0.00011999999999999999,-0.00037999999999999997,-0.0001,-0.0007,2.9999999999999997e-05,2
5183,5352,5.9999999999999995e-05,-0.00011999999999999999,-0.00015,0.00011999999999999999,-0.00037999999999999997,-0.0001,-0.0007,2.9999999999999997e-05,2
5184,5353,5.9999999999999995e-05,-0.00011999999999999999,-0.00015,0.00011999999999999999,-0.00037999999999999997,-0.0001,-0.0007,2.9999999999999997e-05,2
5185,5354,5.9999999999999995e-05,-0.00011999999999999999,-0.00015,0.00011999999999999999,-0.00037999999999999997,-0.0001,-0.0007,2.9999999999999997e-05,2
5186,5355,5.9999999999999995e-05,-0.00011999999999999999,-0.00015,0.00011999999999999999,-0.00037999999999999997,-0.0001,-0.0007,2.9999999999999997e-05,2
5187,5356,5.9999999999999995e-05,-0.00011999999999999999,-0.00015,0.00011999999999999999,-0.00037999999999999997,-0.0001,-0.0007,2.9999999999999997e-05,2
5188,5357,5.9999999999999995e-05,-0.00011999999999999999,-0.00015,0.00011999999999999999,-0.00037999999999999997,-0.0001,-0.0007,2.9999999999999997e-05,2
5189,5358,5.9999999999999995e-05,-0.00011999999999999999,-0.00015,0.00011999999999999999,-0.00037999999999999997,-0.0001,-0.0007,2.9999999999999997e-05,2
5190,5359,5.9999999999999995e-05,-0.00011999999999999999,-0.00015,0.00011999999999999999,-0.00037999999999999997,-0.0001,-0.0007,2.9999999999999997e-05,2
5191,5360,5.9999999999999995e-05,-0.00011999999999999999,-0.00015,0.00011999999999999999,-0.00037999999999999997,-0.0001,-0.0007,2.9999999999999997e-05,2
5192,5361,5.9999999999999995e-05,-0.00011999999999999999,-0.00015,0.00011999999999999999,-0.00037999999999999997,-0.0001,-0.0007,2.9999999999999997e-05,2
5193,5362,0.00022,5e-05,-8e-05,-0.0002,-0.00045999999999999996,-0.0010199999999999999,-0.00081,-0.00021,2
5194,5363,0.00022,5e-05,-8e-05,-0.0002,-0.00045999999999999996,-0.0010199999999999999,-0.00081,-0.00021,2
5195,5364,-0.00013000000000000002,-0.00023999999999999998,-0.00047000000000000004,-0.00025,2.9999999999999997e-05,-0.0009599999999999999,0.0012699999999999999,0.0,2
5196,5365,-0.00013000000000000002,-0.00023999999999999998,-0.00047000000000000004,-0.00025,2.9999999999999997e-05,-0.0009599999999999999,0.0012699999999999999,0.0,2
5197,5366,-0.00013000000000000002,-0.00023999999999999998,-0.00047000000000000004,-0.00025,2.9999999999999997e-05,-0.0009599999999999999,0.0012699999999999999,0.0,2
5198,5367,-0.00013000000000000002,-0.00023999999999999998,-0.00047000000000000004,-0.00025,2.9999999999999997e-05,-0.0009599999999999999,0.0012699999999999999,0.0,2
5199,5368,-0.00013000000000000002,-0.00023999999999999998,-0.00047000000000000004,-0.00025,2.9999999999999997e-05,-0.0009599999999999999,0.0012699999999999999,0.0,2
5200,5369,-0.00013000000000000002,-0.00023999999999999998,-0.00047000000000000004,-0.00025,2.9999999999999997e-05,-0.0009599999999999999,0.0012699999999999999,0.0,2
5201,5370,-0.00013000000000000002,-0.00023999999999999998,-0.00047000000000000004,-0.00025,2.9999999999999997e-05,-0.0009599999999999999,0.0012699999999999999,0.0,2
5202,5371,-0.00013000000000000002,-0.00023999999999999998,-0.00047000000000000004,-0.00025,2.9999999999999997e-05,-0.0009599999999999999,0.0012699999999999999,0.0,2
5203,5372,-0.00013000000000000002,-0.00023999999999999998,-0.00047000000000000004,-0.00025,2.9999999999999997e-05,-0.0009599999999999999,0.0012699999999999999,0.0,2
5204,5373,-0.00013000000000000002,-0.00023999999999999998,-0.00047000000000000004,-0.00025,2.9999999999999997e-05,-0.0009599999999999999,0.0012699999999999999,0.0,2
5205,5374,-0.00013000000000000002,-0.00023999999999999998,-0.00047000000000000004,-0.00025,2.9999999999999997e-05,-0.0009599999999999999,0.0012699999999999999,0.0,2
5206,5375,-0.00013000000000000002,-0.00023999999999999998,-0.00047000000000000004,-0.00025,2.9999999999999997e-05,-0.0009599999999999999,0.0012699999999999999,0.0,2
5207,5376,-0.00013000000000000002,-0.00023999999999999998,-0.00047000000000000004,-0.00025,2.9999999999999997e-05,-0.0009599999999999999,0.0012699999999999999,0.0,2
5208,5377,-0.00013000000000000002,-0.00023999999999999998,-0.00047000000000000004,-0.00025,2.9999999999999997e-05,-0.0009599999999999999,0.0012699999999999999,0.0,2
5209,5378,-0.00013000000000000002,-0.00023999999999999998,-0.00047000000000000004,-0.00025,2.9999999999999997e-05,-0.0009599999999999999,0.0012699999999999999,0.0,2
5210,5379,-0.00013000000000000002,-0.00023999999999999998,-0.00047000000000000004,-0.00025,2.9999999999999997e-05,-0.0009599999999999999,0.0012699999999999999,0.0,2
5211,5380,-0.00013000000000000002,-0.00023999999999999998,-0.00047000000000000004,-0.00025,2.9999999999999997e-05,-0.0009599999999999999,0.0012699999999999999,0.0,2
5212,5381,-0.00013000000000000002,-0.00023999999999999998,-0.00047000000000000004,-0.00025,2.9999999999999997e-05,-0.0009599999999999999,0.0012699999999999999,0.0,2
5213,5382,-0.00013000000000000002,-0.00023999999999999998,-0.00047000000000000004,-0.00025,2.9999999999999997e-05,-0.0009599999999999999,0.0012699999999999999,0.0,2
5214,5383,-0.00013000000000000002,-0.00023999999999999998,-0.00047000000000000004,-0.00025,2.9999999999999997e-05,-0.0009599999999999999,0.0012699999999999999,0.0,2
5215,5384,-0.00013000000000000002,-0.00023999999999999998,-0.00047000000000000004,-0.00025,2.9999999999999997e-05,-0.0009599999999999999,0.0012699999999999999,0.0,2
5216,5385,-0.00074,-0.00021,-0.00035,-0.00065,-0.00037,-0.00033999999999999997,-0.00085,-0.00023999999999999998,2
5217,5386,0.00032,0.00011,0.00039,5.9999999999999995e-05,-0.00074,0.00049,-0.00112,-8e-05,2
5218,5388,0.00032,0.00011,0.00039,5.9999999999999995e-05,-0.00074,0.00049,-0.00112,-8e-05,2
