,time,channel1,channel2,channel3,channel4,channel5,channel6,channel7,channel8,class
1155,1223,-2.9999999999999997e-05,-4e-05,-1e-05,1e-05,2e-05,1e-05,0.0,-2e-05,1
1156,1224,-2.9999999999999997e-05,-4e-05,-1e-05,1e-05,2e-05,1e-05,0.0,-2e-05,1
1157,1225,-2.9999999999999997e-05,-4e-05,-1e-05,1e-05,2e-05,1e-05,0.0,-2e-05,1
1158,1226,0.0,0.0,0.0,-2e-05,-2.9999999999999997e-05,1e-05,0.0,1e-05,1
1159,1227,0.0,0.0,0.0,-2e-05,-2.9999999999999997e-05,1e-05,0.0,1e-05,1
1160,1228,0.0,0.0,0.0,-2e-05,-2.9999999999999997e-05,1e-05,0.0,1e-05,1
1161,1229,0.0,0.0,0.0,-2e-05,-2.9999999999999997e-05,1e-05,0.0,1e-05,1
1162,1230,0.0,0.0,0.0,-2e-05,-2.9999999999999997e-05,1e-05,0.0,1e-05,1
1163,1231,0.0,0.0,0.0,-2e-05,-2.9999999999999997e-05,1e-05,0.0,1e-05,1
1164,1232,0.0,0.0,0.0,-2e-05,-2.9999999999999997e-05,1e-05,0.0,1e-05,1
1165,1233,0.0,0.0,0.0,-2e-05,-2.9999999999999997e-05,1e-05,0.0,1e-05,1
1166,1234,0.0,0.0,0.0,-2e-05,-2.9999999999999997e-05,1e-05,0.0,1e-05,1
1167,1235,0.0,0.0,0.0,-2e-05,-2.9999999999999997e-05,1e-05,0.0,1e-05,1
1168,1236,0.0,0.0,0.0,-2e-05,-2.9999999999999997e-05,1e-05,0.0,1e-05,1
1169,1239,0.0,0.0,0.0,-2e-05,-2.9999999999999997e-05,1e-05,0.0,1e-05,1
1170,1240,0.0,0.0,0.0,-2e-05,-2.9999999999999997e-05,1e-05,0.0,1e-05,1
1171,1241,0.0,0.0,0.0,-2e-05,-2.9999999999999997e-05,1e-05,0.0,1e-05,1
1172,1242,0.0,0.0,0.0,-2e-05,-2.9999999999999997e-05,1e-05,0.0,1e-05,1
1173,1243,0.0,0.0,0.0,-2e-05,-2.9999999999999997e-05,1e-05,0.0,1e-05,1
1174,1244,0.0,0.0,0.0,-2e-05,-2.9999999999999997e-05,1e-05,0.0,1e-05,1
1175,1245,0.0,0.0,0.0,-2e-05,-2.9999999999999997e-05,1e-05,0.0,1e-05,1
1176,1246,0.0,0.0,0.0,-2e-05,-2.9999999999999997e-05,1e-05,0.0,1e-05,1
1177,1247,0.0,0.0,0.0,-2e-05,-2.9999999999999997e-05,1e-05,0.0,1e-05,1
1178,1248,-1e-05,-1e-05,-4e-05,4e-05,0.0,0.0,0.0,-2.9999999999999997e-05,1
1179,1249,2e-05,1e-05,-2.9999999999999997e-05,1e-05,0.0,-2e-05,-2e-05,-2e-05,1
1180,1250,2e-05,1e-05,-2.9999999999999997e-05,1e-05,0.0,-2e-05,-2e-05,-2e-05,1
1181,1251,2e-05,1e-05,-2.9999999999999997e-05,1e-05,0.0,-2e-05,-2e-05,-2e-05,1
1182,1252,2e-05,1e-05,-2.9999999999999997e-05,1e-05,0.0,-2e-05,-2e-05,-2e-05,1
1183,1253,2e-05,1e-05,-2.9999999999999997e-05,1e-05,0.0,-2e-05,-2e-05,-2e-05,1
1184,1254,2e-05,1e-05,-2.9999999999999997e-05,1e-05,0.0,-2e-05,-2e-05,-2e-05,1
1185,1255,2e-05,1e-05,-2.9999999999999997e-05,1e-05,0.0,-2e-05,-2e-05,-2e-05,1
1186,1256,2e-05,1e-05,-2.9999999999999997e-05,1e-05,0.0,-2e-05,-2e-05,-2e-05,1
1187,1257,2e-05,1e-05,-2.9999999999999997e-05,1e-05,0.0,-2e-05,-2e-05,-2e-05,1
1188,1258,2e-05,1e-05,-2.9999999999999997e-05,1e-05,0.0,-2e-05,-2e-05,-2e-05,1
1189,1259,2e-05,1e-05,-2.9999999999999997e-05,1e-05,0.0,-2e-05,-2e-05,-2e-05,1
1190,1260,2e-05,1e-05,-2.9999999999999997e-05,1e-05,0.0,-2e-05,-2e-05,-2e-05,1
1191,1261,2e-05,1e-05,-2.9999999999999997e-05,1e-05,0.0,-2e-05,-2e-05,-2e-05,1
1192,1262,2e-05,1e-05,-2.9999999999999997e-05,1e-05,0.0,-2e-05,-2e-05,-2e-05,1
1193,1263,2e-05,1e-05,-2.9999999999999997e-05,1e-05,0.0,-2e-05,-2e-05,-2e-05,1
1194,1264,2e-05,1e-05,-2.9999999999999997e-05,1e-05,0.0,-2e-05,-2e-05,-2e-05,1
1195,1265,2e-05,1e-05,-2.9999999999999997e-05,1e-05,0.0,-2e-05,-2e-05,-2e-05,1
1196,1266,2e-05,1e-05,-2.9999999999999997e-05,1e-05,0.0,-2e-05,-2e-05,-2e-05,1
1197,1267,2e-05,1e-05,-2.9999999999999997e-05,1e-05,0.0,-2e-05,-2e-05,-2e-05,1
1198,1268,2e-05,1e-05,-2.9999999999999997e-05,1e-05,0.0,-2e-05,-2e-05,-2e-05,1
1199,1269,2e-05,1e-05,-2.9999999999999997e-05,1e-05,0.0,-2e-05,-2e-05,-2e-05,1
1200,1270,2e-05,1e-05,-2.9999999999999997e-05,1e-05,0.0,-2e-05,-2e-05,-2e-05,1
1201,1271,1e-05,-1e-05,-1e-05,-1e-05,-1e-05,-2e-05,-1e-05,-5e-05,1
1202,1272,1e-05,-1e-05,-1e-05,-1e-05,-1e-05,-2e-05,-1e-05,-5e-05,1
1203,1273,1e-05,-1e-05,-1e-05,-1e-05,-1e-05,-2e-05,-1e-05,-5e-05,1
1204,1274,1e-05,-1e-05,-1e-05,-1e-05,-1e-05,-2e-05,-1e-05,-5e-05,1
1205,1275,1e-05,-1e-05,-1e-05,-1e-05,-1e-05,-2e-05,-1e-05,-5e-05,1
1206,1276,1e-05,-1e-05,-1e-05,-1e-05,-1e-05,-2e-05,-1e-05,-5e-05,1
1207,1277,-2e-05,-2.9999999999999997e-05,-1e-05,0.0,1e-05,2e-05,0.0,0.0,1
1208,1278,-2e-05,-2.9999999999999997e-05,-1e-05,0.0,1e-05,2e-05,0.0,0.0,1
1209,1279,-2e-05,-2.9999999999999997e-05,-1e-05,0.0,1e-05,2e-05,0.0,0.0,1
1210,1280,-2e-05,-2.9999999999999997e-05,-1e-05,0.0,1e-05,2e-05,0.0,0.0,1
1211,1281,-2e-05,-2.9999999999999997e-05,-1e-05,0.0,1e-05,2e-05,0.0,0.0,1
1212,1282,-2e-05,-2.9999999999999997e-05,-1e-05,0.0,1e-05,2e-05,0.0,0.0,1
1213,1283,-2e-05,-2.9999999999999997e-05,-1e-05,0.0,1e-05,2e-05,0.0,0.0,1
1214,1284,-2e-05,-2.9999999999999997e-05,-1e-05,0.0,1e-05,2e-05,0.0,0.0,1
1215,1285,-2e-05,-2.9999999999999997e-05,-1e-05,0.0,1e-05,2e-05,0.0,0.0,1
1216,1286,-2e-05,-2.9999999999999997e-05,-1e-05,0.0,1e-05,2e-05,0.0,0.0,1
1217,1288,-2e-05,-2.9999999999999997e-05,-1e-05,0.0,1e-05,2e-05,0.0,0.0,1
1218,1289,-2e-05,-2.9999999999999997e-05,-1e-05,0.0,1e-05,2e-05,0.0,0.0,1
1219,1290,-2e-05,-2.9999999999999997e-05,-1e-05,0.0,1e-05,2e-05,0.0,0.0,1
1220,1292,-2e-05,-2.9999999999999997e-05,-1e-05,0.0,1e-05,2e-05,0.0,0.0,1
1221,1293,0.0,5e-05,0.0,1e-05,-2.9999999999999997e-05,-1e-05,0.0,0.0,1
1222,1294,0.0,5e-05,0.0,1e-05,-2.9999999999999997e-05,-1e-05,0.0,0.0,1
1223,1295,0.0,5e-05,0.0,1e-05,-2.9999999999999997e-05,-1e-05,0.0,0.0,1
1224,1296,0.0,5e-05,0.0,1e-05,-2.9999999999999997e-05,-1e-05,0.0,0.0,1
1225,1297,0.0,5e-05,0.0,1e-05,-2.9999999999999997e-05,-1e-05,0.0,0.0,1
1226,1298,0.0,5e-05,0.0,1e-05,-2.9999999999999997e-05,-1e-05,0.0,0.0,1
1227,1299,0.0,5e-05,0.0,1e-05,-2.9999999999999997e-05,-1e-05,0.0,0.0,1
1228,1300,-2e-05,-2.9999999999999997e-05,-4e-05,-2e-05,0.0,0.0,1e-05,2e-05,1
1229,1301,-2e-05,1e-05,5e-05,1e-05,2e-05,0.0,-1e-05,-2e-05,1
1230,1302,-2e-05,1e-05,5e-05,1e-05,2e-05,0.0,-1e-05,-2e-05,1
1231,1303,-2e-05,1e-05,5e-05,1e-05,2e-05,0.0,-1e-05,-2e-05,1
1232,1304,-2e-05,1e-05,5e-05,1e-05,2e-05,0.0,-1e-05,-2e-05,1
1233,1305,-2e-05,1e-05,5e-05,1e-05,2e-05,0.0,-1e-05,-2e-05,1
1234,1306,-2e-05,1e-05,5e-05,1e-05,2e-05,0.0,-1e-05,-2e-05,1
1235,1307,-2e-05,1e-05,5e-05,1e-05,2e-05,0.0,-1e-05,-2e-05,1
1236,1308,-2e-05,1e-05,5e-05,1e-05,2e-05,0.0,-1e-05,-2e-05,1
1237,1309,-2e-05,1e-05,5e-05,1e-05,2e-05,0.0,-1e-05,-2e-05,1
1238,1310,-2e-05,1e-05,5e-05,1e-05,2e-05,0.0,-1e-05,-2e-05,1
1239,1311,-2e-05,1e-05,5e-05,1e-05,2e-05,0.0,-1e-05,-2e-05,1
1240,1312,-2e-05,1e-05,5e-05,1e-05,2e-05,0.0,-1e-05,-2e-05,1
1241,1313,-2e-05,1e-05,5e-05,1e-05,2e-05,0.0,-1e-05,-2e-05,1
1242,1314,-2e-05,1e-05,5e-05,1e-05,2e-05,0.0,-1e-05,-2e-05,1
1243,1316,-2e-05,1e-05,5e-05,1e-05,2e-05,0.0,-1e-05,-2e-05,1
1244,1317,-2e-05,1e-05,5e-05,1e-05,2e-05,0.0,-1e-05,-2e-05,1
1245,1318,-2e-05,1e-05,5e-05,1e-05,2e-05,0.0,-1e-05,-2e-05,1
1246,1319,-2e-05,1e-05,5e-05,1e-05,2e-05,0.0,-1e-05,-2e-05,1
1247,1320,-2e-05,1e-05,5e-05,1e-05,2e-05,0.0,-1e-05,-2e-05,1
1248,1321,-2e-05,1e-05,5e-05,1e-05,2e-05,0.0,-1e-05,-2e-05,1
1249,1322,-2e-05,1e-05,5e-05,1e-05,2e-05,0.0,-1e-05,-2e-05,1
1250,1323,-2e-05,0.0,-2e-05,-7e-05,-7e-05,-2e-05,-2.9999999999999997e-05,-2e-05,1
1251,1324,-1e-05,-2.9999999999999997e-05,0.0,-1e-05,-2.9999999999999997e-05,-1e-05,-2e-05,1e-05,1
1252,1325,-1e-05,-2.9999999999999997e-05,0.0,-1e-05,-2.9999999999999997e-05,-1e-05,-2e-05,1e-05,1
1253,1326,-1e-05,-2.9999999999999997e-05,0.0,-1e-05,-2.9999999999999997e-05,-1e-05,-2e-05,1e-05,1
1254,1327,-1e-05,-2.9999999999999997e-05,0.0,-1e-05,-2.9999999999999997e-05,-1e-05,-2e-05,1e-05,1
1255,1328,-1e-05,-2.9999999999999997e-05,0.0,-1e-05,-2.9999999999999997e-05,-1e-05,-2e-05,1e-05,1
1256,1329,-1e-05,-2.9999999999999997e-05,0.0,-1e-05,-2.9999999999999997e-05,-1e-05,-2e-05,1e-05,1
1257,1330,-1e-05,-2.9999999999999997e-05,0.0,-1e-05,-2.9999999999999997e-05,-1e-05,-2e-05,1e-05,1
1258,1331,-1e-05,-2.9999999999999997e-05,0.0,-1e-05,-2.9999999999999997e-05,-1e-05,-2e-05,1e-05,1
1259,1332,-1e-05,-2.9999999999999997e-05,0.0,-1e-05,-2.9999999999999997e-05,-1e-05,-2e-05,1e-05,1
1260,1333,-1e-05,-2.9999999999999997e-05,0.0,-1e-05,-2.9999999999999997e-05,-1e-05,-2e-05,1e-05,1
1261,1334,-1e-05,-2.9999999999999997e-05,0.0,-1e-05,-2.9999999999999997e-05,-1e-05,-2e-05,1e-05,1
1262,1335,-1e-05,-2.9999999999999997e-05,0.0,-1e-05,-2.9999999999999997e-05,-1e-05,-2e-05,1e-05,1
1263,1336,-1e-05,-2.9999999999999997e-05,0.0,-1e-05,-2.9999999999999997e-05,-1e-05,-2e-05,1e-05,1
1264,1339,1e-05,1e-05,4e-05,1e-05,-1e-05,0.0,-2.9999999999999997e-05,-1e-05,1
1265,1340,1e-05,1e-05,4e-05,1e-05,-1e-05,0.0,-2.9999999999999997e-05,-1e-05,1
1266,1341,1e-05,1e-05,4e-05,1e-05,-1e-05,0.0,-2.9999999999999997e-05,-1e-05,1
1267,1342,1e-05,1e-05,4e-05,1e-05,-1e-05,0.0,-2.9999999999999997e-05,-1e-05,1
1268,1343,1e-05,1e-05,4e-05,1e-05,-1e-05,0.0,-2.9999999999999997e-05,-1e-05,1
1269,1344,1e-05,1e-05,4e-05,1e-05,-1e-05,0.0,-2.9999999999999997e-05,-1e-05,1
1270,1345,0.0,-1e-05,-4e-05,-1e-05,-2e-05,-2e-05,-1e-05,-1e-05,1
1271,1346,0.0,-1e-05,-4e-05,-1e-05,-2e-05,-2e-05,-1e-05,-1e-05,1
1272,1347,0.0,-1e-05,-4e-05,-1e-05,-2e-05,-2e-05,-1e-05,-1e-05,1
1273,1348,0.0,-1e-05,-4e-05,-1e-05,-2e-05,-2e-05,-1e-05,-1e-05,1
1274,1349,0.0,-1e-05,-4e-05,-1e-05,-2e-05,-2e-05,-1e-05,-1e-05,1
1275,1350,0.0,-1e-05,-4e-05,-1e-05,-2e-05,-2e-05,-1e-05,-1e-05,1
1276,1351,0.0,-1e-05,-4e-05,-1e-05,-2e-05,-2e-05,-1e-05,-1e-05,1
1277,1352,0.0,-1e-05,-4e-05,-1e-05,-2e-05,-2e-05,-1e-05,-1e-05,1
1278,1353,0.0,-1e-05,-4e-05,-1e-05,-2e-05,-2e-05,-1e-05,-1e-05,1
1279,1354,0.0,-1e-05,-4e-05,-1e-05,-2e-05,-2e-05,-1e-05,-1e-05,1
1280,1355,0.0,-1e-05,-4e-05,-1e-05,-2e-05,-2e-05,-1e-05,-1e-05,1
1281,1356,0.0,-1e-05,-4e-05,-1e-05,-2e-05,-2e-05,-1e-05,-1e-05,1
1282,1357,0.0,-1e-05,-4e-05,-1e-05,-2e-05,-2e-05,-1e-05,-1e-05,1
1283,1358,0.0,-1e-05,-4e-05,-1e-05,-2e-05,-2e-05,-1e-05,-1e-05,1
1284,1359,0.0,-1e-05,-4e-05,-1e-05,-2e-05,-2e-05,-1e-05,-1e-05,1
1285,1360,0.0,-1e-05,-4e-05,-1e-05,-2e-05,-2e-05,-1e-05,-1e-05,1
1286,1361,-2e-05,-1e-05,-1e-05,-4e-05,1e-05,1e-05,-2.9999999999999997e-05,0.0,1
1287,1362,-2e-05,-1e-05,-1e-05,-4e-05,1e-05,1e-05,-2.9999999999999997e-05,0.0,1
1288,1363,-2e-05,-1e-05,-1e-05,-4e-05,1e-05,1e-05,-2.9999999999999997e-05,0.0,1
1289,1364,-2e-05,-1e-05,-1e-05,-4e-05,1e-05,1e-05,-2.9999999999999997e-05,0.0,1
1290,1365,-2e-05,-1e-05,-1e-05,-4e-05,1e-05,1e-05,-2.9999999999999997e-05,0.0,1
1291,1366,-2e-05,-1e-05,-1e-05,-4e-05,1e-05,1e-05,-2.9999999999999997e-05,0.0,1
1292,1367,-2e-05,-1e-05,-1e-05,-4e-05,1e-05,1e-05,-2.9999999999999997e-05,0.0,1
1293,1368,-2e-05,-1e-05,-1e-05,-4e-05,1e-05,1e-05,-2.9999999999999997e-05,0.0,1
1294,1369,-2e-05,-1e-05,-1e-05,-4e-05,1e-05,1e-05,-2.9999999999999997e-05,0.0,1
1295,1370,-2e-05,-1e-05,-1e-05,-4e-05,1e-05,1e-05,-2.9999999999999997e-05,0.0,1
1296,1371,-2e-05,-1e-05,-1e-05,-4e-05,1e-05,1e-05,-2.9999999999999997e-05,0.0,1
1297,1372,-2e-05,-1e-05,-1e-05,-4e-05,1e-05,1e-05,-2.9999999999999997e-05,0.0,1
1298,1373,-2e-05,-1e-05,-1e-05,-4e-05,1e-05,1e-05,-2.9999999999999997e-05,0.0,1
1299,1374,-2e-05,-1e-05,-1e-05,-4e-05,1e-05,1e-05,-2.9999999999999997e-05,0.0,1
1300,1375,-2e-05,-1e-05,-1e-05,-4e-05,1e-05,1e-05,-2.9999999999999997e-05,0.0,1
1301,1376,-2e-05,-1e-05,-1e-05,-4e-05,1e-05,1e-05,-2.9999999999999997e-05,0.0,1
1302,1377,-2e-05,-1e-05,-1e-05,-4e-05,1e-05,1e-05,-2.9999999999999997e-05,0.0,1
1303,1378,-2e-05,-1e-05,-1e-05,-4e-05,1e-05,1e-05,-2.9999999999999997e-05,0.0,1
1304,1379,-2e-05,-1e-05,-1e-05,-4e-05,1e-05,1e-05,-2.9999999999999997e-05,0.0,1
1305,1380,-2e-05,-1e-05,-1e-05,-4e-05,1e-05,1e-05,-2.9999999999999997e-05,0.0,1
1306,1381,-2e-05,-1e-05,-1e-05,-4e-05,1e-05,1e-05,-2.9999999999999997e-05,0.0,1
1307,1382,-2e-05,-1e-05,-1e-05,-4e-05,1e-05,1e-05,-2.9999999999999997e-05,0.0,1
1308,1383,-1e-05,-1e-05,-1e-05,-4e-05,5e-05,-1e-05,-1e-05,-2.9999999999999997e-05,1
1309,1384,0.0,0.0,-1e-05,0.0,-2e-05,-1e-05,0.0,-1e-05,1
1310,1385,0.0,0.0,-1e-05,0.0,-2e-05,-1e-05,0.0,-1e-05,1
1311,1386,0.0,0.0,-1e-05,0.0,-2e-05,-1e-05,0.0,-1e-05,1
1312,1388,0.0,0.0,-1e-05,0.0,-2e-05,-1e-05,0.0,-1e-05,1
1313,1389,0.0,0.0,-1e-05,0.0,-2e-05,-1e-05,0.0,-1e-05,1
1314,1390,0.0,0.0,-1e-05,0.0,-2e-05,-1e-05,0.0,-1e-05,1
1315,1391,0.0,0.0,-1e-05,0.0,-2e-05,-1e-05,0.0,-1e-05,1
1316,1392,0.0,0.0,-1e-05,0.0,-2e-05,-1e-05,0.0,-1e-05,1
1317,1393,0.0,0.0,-1e-05,0.0,-2e-05,-1e-05,0.0,-1e-05,1
1318,1394,0.0,0.0,-1e-05,0.0,-2e-05,-1e-05,0.0,-1e-05,1
1319,1395,0.0,0.0,-1e-05,0.0,-2e-05,-1e-05,0.0,-1e-05,1
1320,1396,0.0,0.0,-1e-05,0.0,-2e-05,-1e-05,0.0,-1e-05,1
1321,1397,-1e-05,-2e-05,-5e-05,-5e-05,-4e-05,0.0,-1e-05,1e-05,1
1322,1398,-1e-05,-2e-05,-5e-05,-5e-05,-4e-05,0.0,-1e-05,1e-05,1
1323,1399,-1e-05,-2e-05,-5e-05,-5e-05,-4e-05,0.0,-1e-05,1e-05,1
1324,1400,-1e-05,-2e-05,-5e-05,-5e-05,-4e-05,0.0,-1e-05,1e-05,1
1325,1401,-1e-05,-2e-05,-5e-05,-5e-05,-4e-05,0.0,-1e-05,1e-05,1
1326,1402,-1e-05,-2e-05,-5e-05,-5e-05,-4e-05,0.0,-1e-05,1e-05,1
1327,1403,-1e-05,-2e-05,-5e-05,-5e-05,-4e-05,0.0,-1e-05,1e-05,1
1328,1404,-1e-05,-2e-05,-5e-05,-5e-05,-4e-05,0.0,-1e-05,1e-05,1
1329,1405,0.0,0.0,-2e-05,-1e-05,1e-05,2.9999999999999997e-05,-1e-05,0.0,1
1330,1406,0.0,0.0,-2e-05,-1e-05,1e-05,2.9999999999999997e-05,-1e-05,0.0,1
1331,1407,0.0,0.0,-2e-05,-1e-05,1e-05,2.9999999999999997e-05,-1e-05,0.0,1
1332,1408,0.0,0.0,-2e-05,-1e-05,1e-05,2.9999999999999997e-05,-1e-05,0.0,1
1333,1409,0.0,0.0,-2e-05,-1e-05,1e-05,2.9999999999999997e-05,-1e-05,0.0,1
1334,1410,0.0,0.0,-2e-05,-1e-05,1e-05,2.9999999999999997e-05,-1e-05,0.0,1
1335,1411,0.0,0.0,-2e-05,-1e-05,1e-05,2.9999999999999997e-05,-1e-05,0.0,1
1336,1412,0.0,0.0,-2e-05,-1e-05,1e-05,2.9999999999999997e-05,-1e-05,0.0,1
1337,1413,0.0,0.0,-2e-05,-1e-05,1e-05,2.9999999999999997e-05,-1e-05,0.0,1
1338,1414,0.0,0.0,-2e-05,-1e-05,1e-05,2.9999999999999997e-05,-1e-05,0.0,1
1339,1415,0.0,0.0,-2e-05,-1e-05,1e-05,2.9999999999999997e-05,-1e-05,0.0,1
1340,1416,0.0,0.0,-2e-05,-1e-05,1e-05,2.9999999999999997e-05,-1e-05,0.0,1
1341,1417,0.0,0.0,-2e-05,-1e-05,1e-05,2.9999999999999997e-05,-1e-05,0.0,1
1342,1418,0.0,0.0,-2e-05,-1e-05,1e-05,2.9999999999999997e-05,-1e-05,0.0,1
1343,1419,0.0,0.0,-2e-05,-1e-05,1e-05,2.9999999999999997e-05,-1e-05,0.0,1
1344,1420,0.0,0.0,-2e-05,-1e-05,1e-05,2.9999999999999997e-05,-1e-05,0.0,1
1345,1421,0.0,0.0,-2e-05,-1e-05,1e-05,2.9999999999999997e-05,-1e-05,0.0,1
1346,1422,0.0,0.0,-2e-05,-1e-05,1e-05,2.9999999999999997e-05,-1e-05,0.0,1
1347,1423,0.0,0.0,-2e-05,-1e-05,1e-05,2.9999999999999997e-05,-1e-05,0.0,1
1348,1424,0.0,0.0,-2e-05,-1e-05,1e-05,2.9999999999999997e-05,-1e-05,0.0,1
1349,1425,0.0,0.0,-2e-05,-1e-05,1e-05,2.9999999999999997e-05,-1e-05,0.0,1
1350,1426,0.0,0.0,-2e-05,-1e-05,1e-05,2.9999999999999997e-05,-1e-05,0.0,1
1351,1427,0.0,0.0,-2e-05,-1e-05,1e-05,2.9999999999999997e-05,-1e-05,0.0,1
1352,1428,1e-05,1e-05,2.9999999999999997e-05,-1e-05,-4e-05,-2e-05,-2e-05,-1e-05,1
1353,1429,-2e-05,-2.9999999999999997e-05,-2.9999999999999997e-05,-8e-05,-5.9999999999999995e-05,-2e-05,0.0,1e-05,1
1354,1430,-2e-05,-2.9999999999999997e-05,-2.9999999999999997e-05,-8e-05,-5.9999999999999995e-05,-2e-05,0.0,1e-05,1
1355,1431,-2e-05,-2.9999999999999997e-05,-2.9999999999999997e-05,-8e-05,-5.9999999999999995e-05,-2e-05,0.0,1e-05,1
1356,1432,-2e-05,-2.9999999999999997e-05,-2.9999999999999997e-05,-8e-05,-5.9999999999999995e-05,-2e-05,0.0,1e-05,1
1357,1433,-2e-05,-2.9999999999999997e-05,-2.9999999999999997e-05,-8e-05,-5.9999999999999995e-05,-2e-05,0.0,1e-05,1
1358,1434,-2e-05,-2.9999999999999997e-05,-2.9999999999999997e-05,-8e-05,-5.9999999999999995e-05,-2e-05,0.0,1e-05,1
1359,1435,-2e-05,-2.9999999999999997e-05,-2.9999999999999997e-05,-8e-05,-5.9999999999999995e-05,-2e-05,0.0,1e-05,1
1360,1436,-2e-05,-2.9999999999999997e-05,-2.9999999999999997e-05,-8e-05,-5.9999999999999995e-05,-2e-05,0.0,1e-05,1
1361,1439,-2e-05,-2.9999999999999997e-05,-2.9999999999999997e-05,-8e-05,-5.9999999999999995e-05,-2e-05,0.0,1e-05,1
1362,1440,-2e-05,-2.9999999999999997e-05,-2.9999999999999997e-05,-8e-05,-5.9999999999999995e-05,-2e-05,0.0,1e-05,1
1363,1441,-2e-05,-2.9999999999999997e-05,-2.9999999999999997e-05,-8e-05,-5.9999999999999995e-05,-2e-05,0.0,1e-05,1
1364,1442,-2e-05,-2.9999999999999997e-05,-2.9999999999999997e-05,-8e-05,-5.9999999999999995e-05,-2e-05,0.0,1e-05,1
1365,1443,-2e-05,-2.9999999999999997e-05,-2.9999999999999997e-05,-8e-05,-5.9999999999999995e-05,-2e-05,0.0,1e-05,1
1366,1444,-1e-05,2e-05,-2e-05,0.0,2e-05,2e-05,-1e-05,-1e-05,1
1367,1445,-1e-05,-4e-05,-1e-05,0.0,2.9999999999999997e-05,-1e-05,-1e-05,-1e-05,1
1368,1446,-1e-05,-4e-05,-1e-05,0.0,2.9999999999999997e-05,-1e-05,-1e-05,-1e-05,1
1369,1447,-1e-05,-4e-05,-1e-05,0.0,2.9999999999999997e-05,-1e-05,-1e-05,-1e-05,1
1370,1448,-1e-05,-4e-05,-1e-05,0.0,2.9999999999999997e-05,-1e-05,-1e-05,-1e-05,1
1371,1449,-1e-05,-4e-05,-1e-05,0.0,2.9999999999999997e-05,-1e-05,-1e-05,-1e-05,1
1372,1450,-1e-05,-4e-05,-1e-05,0.0,2.9999999999999997e-05,-1e-05,-1e-05,-1e-05,1
1373,1451,-1e-05,-4e-05,-1e-05,0.0,2.9999999999999997e-05,-1e-05,-1e-05,-1e-05,1
1374,1452,-1e-05,-4e-05,-1e-05,0.0,2.9999999999999997e-05,-1e-05,-1e-05,-1e-05,1
1375,1453,-1e-05,-4e-05,-1e-05,0.0,2.9999999999999997e-05,-1e-05,-1e-05,-1e-05,1
1376,1454,-1e-05,-4e-05,-1e-05,0.0,2.9999999999999997e-05,-1e-05,-1e-05,-1e-05,1
1377,1455,-1e-05,-4e-05,-1e-05,0.0,2.9999999999999997e-05,-1e-05,-1e-05,-1e-05,1
1378,1456,-1e-05,-4e-05,-1e-05,0.0,2.9999999999999997e-05,-1e-05,-1e-05,-1e-05,1
1379,1457,-1e-05,-4e-05,-1e-05,0.0,2.9999999999999997e-05,-1e-05,-1e-05,-1e-05,1
1380,1458,-1e-05,-4e-05,-1e-05,0.0,2.9999999999999997e-05,-1e-05,-1e-05,-1e-05,1
1381,1459,-1e-05,-4e-05,-1e-05,0.0,2.9999999999999997e-05,-1e-05,-1e-05,-1e-05,1
1382,1460,-1e-05,-4e-05,-1e-05,0.0,2.9999999999999997e-05,-1e-05,-1e-05,-1e-05,1
1383,1461,-1e-05,-4e-05,-1e-05,0.0,2.9999999999999997e-05,-1e-05,-1e-05,-1e-05,1
1384,1462,-1e-05,-4e-05,-1e-05,0.0,2.9999999999999997e-05,-1e-05,-1e-05,-1e-05,1
1385,1463,-1e-05,-4e-05,-1e-05,0.0,2.9999999999999997e-05,-1e-05,-1e-05,-1e-05,1
1386,1464,-1e-05,-4e-05,-1e-05,0.0,2.9999999999999997e-05,-1e-05,-1e-05,-1e-05,1
1387,1465,-1e-05,-4e-05,-1e-05,0.0,2.9999999999999997e-05,-1e-05,-1e-05,-1e-05,1
1388,1466,-1e-05,-4e-05,-1e-05,0.0,2.9999999999999997e-05,-1e-05,-1e-05,-1e-05,1
1389,1467,-1e-05,-4e-05,-1e-05,0.0,2.9999999999999997e-05,-1e-05,-1e-05,-1e-05,1
1390,1468,-1e-05,-4e-05,-1e-05,0.0,2.9999999999999997e-05,-1e-05,-1e-05,-1e-05,1
1391,1469,-1e-05,-4e-05,-1e-05,0.0,2.9999999999999997e-05,-1e-05,-1e-05,-1e-05,1
1392,1470,-1e-05,-4e-05,-1e-05,0.0,2.9999999999999997e-05,-1e-05,-1e-05,-1e-05,1
1393,1471,-1e-05,-4e-05,-1e-05,0.0,2.9999999999999997e-05,-1e-05,-1e-05,-1e-05,1
1394,1472,-1e-05,-4e-05,-1e-05,0.0,2.9999999999999997e-05,-1e-05,-1e-05,-1e-05,1
1395,1473,1e-05,0.0,0.0,-2.9999999999999997e-05,-2e-05,-2e-05,-2e-05,-1e-05,1
1396,1474,-1e-05,-5e-05,-2e-05,-1e-05,1e-05,-1e-05,-1e-05,-2e-05,1
1397,1475,-1e-05,-5e-05,-2e-05,-1e-05,1e-05,-1e-05,-1e-05,-2e-05,1
1398,1476,-1e-05,-5e-05,-2e-05,-1e-05,1e-05,-1e-05,-1e-05,-2e-05,1
1399,1477,-1e-05,-5e-05,-2e-05,-1e-05,1e-05,-1e-05,-1e-05,-2e-05,1
1400,1478,-1e-05,-5e-05,-2e-05,-1e-05,1e-05,-1e-05,-1e-05,-2e-05,1
1401,1479,-1e-05,-5e-05,-2e-05,-1e-05,1e-05,-1e-05,-1e-05,-2e-05,1
1402,1480,-2e-05,1e-05,1e-05,1e-05,1e-05,2e-05,-1e-05,-1e-05,1
1403,1481,-2.9999999999999997e-05,-8e-05,-5.9999999999999995e-05,-4e-05,-4e-05,-1e-05,-1e-05,-2e-05,1
1404,1482,-2.9999999999999997e-05,-8e-05,-5.9999999999999995e-05,-4e-05,-4e-05,-1e-05,-1e-05,-2e-05,1
1405,1483,-2.9999999999999997e-05,-8e-05,-5.9999999999999995e-05,-4e-05,-4e-05,-1e-05,-1e-05,-2e-05,1
1406,1484,-2.9999999999999997e-05,-8e-05,-5.9999999999999995e-05,-4e-05,-4e-05,-1e-05,-1e-05,-2e-05,1
1407,1485,-2.9999999999999997e-05,-8e-05,-5.9999999999999995e-05,-4e-05,-4e-05,-1e-05,-1e-05,-2e-05,1
1408,1486,-2.9999999999999997e-05,-8e-05,-5.9999999999999995e-05,-4e-05,-4e-05,-1e-05,-1e-05,-2e-05,1
1409,1488,-2.9999999999999997e-05,-8e-05,-5.9999999999999995e-05,-4e-05,-4e-05,-1e-05,-1e-05,-2e-05,1
1410,1489,-2.9999999999999997e-05,-8e-05,-5.9999999999999995e-05,-4e-05,-4e-05,-1e-05,-1e-05,-2e-05,1
1411,1490,-2.9999999999999997e-05,-8e-05,-5.9999999999999995e-05,-4e-05,-4e-05,-1e-05,-1e-05,-2e-05,1
1412,1491,-2.9999999999999997e-05,-8e-05,-5.9999999999999995e-05,-4e-05,-4e-05,-1e-05,-1e-05,-2e-05,1
1413,1492,-2.9999999999999997e-05,-8e-05,-5.9999999999999995e-05,-4e-05,-4e-05,-1e-05,-1e-05,-2e-05,1
1414,1493,-2.9999999999999997e-05,-8e-05,-5.9999999999999995e-05,-4e-05,-4e-05,-1e-05,-1e-05,-2e-05,1
1415,1494,-2.9999999999999997e-05,-8e-05,-5.9999999999999995e-05,-4e-05,-4e-05,-1e-05,-1e-05,-2e-05,1
1416,1495,-2.9999999999999997e-05,-8e-05,-5.9999999999999995e-05,-4e-05,-4e-05,-1e-05,-1e-05,-2e-05,1
1417,1496,-2.9999999999999997e-05,-8e-05,-5.9999999999999995e-05,-4e-05,-4e-05,-1e-05,-1e-05,-2e-05,1
1418,1497,-2.9999999999999997e-05,-8e-05,-5.9999999999999995e-05,-4e-05,-4e-05,-1e-05,-1e-05,-2e-05,1
1419,1498,-2.9999999999999997e-05,-8e-05,-5.9999999999999995e-05,-4e-05,-4e-05,-1e-05,-1e-05,-2e-05,1
1420,1499,-2.9999999999999997e-05,-8e-05,-5.9999999999999995e-05,-4e-05,-4e-05,-1e-05,-1e-05,-2e-05,1
1421,1500,-2.9999999999999997e-05,-8e-05,-5.9999999999999995e-05,-4e-05,-4e-05,-1e-05,-1e-05,-2e-05,1
1422,1501,-2.9999999999999997e-05,-8e-05,-5.9999999999999995e-05,-4e-05,-4e-05,-1e-05,-1e-05,-2e-05,1
1423,1502,-2.9999999999999997e-05,-8e-05,-5.9999999999999995e-05,-4e-05,-4e-05,-1e-05,-1e-05,-2e-05,1
1424,1503,-2.9999999999999997e-05,-8e-05,-5.9999999999999995e-05,-4e-05,-4e-05,-1e-05,-1e-05,-2e-05,1
1425,1504,-1e-05,4e-05,0.0,-5e-05,0.0,-2e-05,-1e-05,1e-05,1
1426,1505,0.0,-1e-05,2e-05,2e-05,0.0,-2e-05,0.0,-1e-05,1
1427,1506,-2e-05,0.0,-2e-05,2e-05,-2e-05,-1e-05,-1e-05,1e-05,1
1428,1507,-2e-05,0.0,-2e-05,2e-05,-2e-05,-1e-05,-1e-05,1e-05,1
1429,1508,-2e-05,0.0,-2e-05,2e-05,-2e-05,-1e-05,-1e-05,1e-05,1
1430,1509,-2e-05,0.0,-2e-05,2e-05,-2e-05,-1e-05,-1e-05,1e-05,1
1431,1510,-2e-05,0.0,-2e-05,2e-05,-2e-05,-1e-05,-1e-05,1e-05,1
1432,1511,-2e-05,0.0,-2e-05,2e-05,-2e-05,-1e-05,-1e-05,1e-05,1
1433,1512,-2e-05,0.0,-2e-05,2e-05,-2e-05,-1e-05,-1e-05,1e-05,1
1434,1513,-2e-05,0.0,-2e-05,2e-05,-2e-05,-1e-05,-1e-05,1e-05,1
1435,1514,-2e-05,0.0,-2e-05,2e-05,-2e-05,-1e-05,-1e-05,1e-05,1
1436,1515,-2e-05,0.0,-2e-05,2e-05,-2e-05,-1e-05,-1e-05,1e-05,1
1437,1516,-2e-05,0.0,-2e-05,2e-05,-2e-05,-1e-05,-1e-05,1e-05,1
1438,1517,-2e-05,0.0,-2e-05,2e-05,-2e-05,-1e-05,-1e-05,1e-05,1
1439,1518,-2e-05,0.0,-2e-05,2e-05,-2e-05,-1e-05,-1e-05,1e-05,1
1440,1519,-2e-05,0.0,-2e-05,2e-05,-2e-05,-1e-05,-1e-05,1e-05,1
1441,1520,-2e-05,0.0,-2e-05,2e-05,-2e-05,-1e-05,-1e-05,1e-05,1
1442,1521,-2e-05,0.0,-2e-05,2e-05,-2e-05,-1e-05,-1e-05,1e-05,1
1443,1522,-2e-05,0.0,-2e-05,2e-05,-2e-05,-1e-05,-1e-05,1e-05,1
1444,1523,-2e-05,0.0,-2e-05,2e-05,-2e-05,-1e-05,-1e-05,1e-05,1
1445,1524,-2e-05,0.0,-2e-05,2e-05,-2e-05,-1e-05,-1e-05,1e-05,1
1446,1525,-2e-05,0.0,-2e-05,2e-05,-2e-05,-1e-05,-1e-05,1e-05,1
1447,1526,0.0,-2e-05,2e-05,-2e-05,1e-05,-2e-05,-1e-05,-1e-05,1
1448,1527,0.0,-2.9999999999999997e-05,0.0,1e-05,1e-05,-1e-05,-1e-05,-2e-05,1
1449,1528,-1e-05,1e-05,-1e-05,-2.9999999999999997e-05,-2e-05,1e-05,-2e-05,-2e-05,1
1450,1529,-1e-05,1e-05,-1e-05,-2.9999999999999997e-05,-2e-05,1e-05,-2e-05,-2e-05,1
1451,1530,-1e-05,1e-05,-1e-05,-2.9999999999999997e-05,-2e-05,1e-05,-2e-05,-2e-05,1
1452,1531,-1e-05,1e-05,-1e-05,-2.9999999999999997e-05,-2e-05,1e-05,-2e-05,-2e-05,1
1453,1532,-1e-05,1e-05,-1e-05,-2.9999999999999997e-05,-2e-05,1e-05,-2e-05,-2e-05,1
1454,1533,-1e-05,1e-05,-1e-05,-2.9999999999999997e-05,-2e-05,1e-05,-2e-05,-2e-05,1
1455,1534,-1e-05,1e-05,-1e-05,-2.9999999999999997e-05,-2e-05,1e-05,-2e-05,-2e-05,1
1456,1535,-1e-05,1e-05,-1e-05,-2.9999999999999997e-05,-2e-05,1e-05,-2e-05,-2e-05,1
1457,1536,-1e-05,1e-05,-1e-05,-2.9999999999999997e-05,-2e-05,1e-05,-2e-05,-2e-05,1
1458,1538,-1e-05,1e-05,-1e-05,-2.9999999999999997e-05,-2e-05,1e-05,-2e-05,-2e-05,1
1459,1540,-1e-05,1e-05,-1e-05,-2.9999999999999997e-05,-2e-05,1e-05,-2e-05,-2e-05,1
1460,1541,-1e-05,1e-05,-1e-05,-2.9999999999999997e-05,-2e-05,1e-05,-2e-05,-2e-05,1
1461,1542,-1e-05,1e-05,-1e-05,-2.9999999999999997e-05,-2e-05,1e-05,-2e-05,-2e-05,1
1462,1543,-1e-05,1e-05,-1e-05,-2.9999999999999997e-05,-2e-05,1e-05,-2e-05,-2e-05,1
1463,1544,-1e-05,1e-05,-1e-05,-2.9999999999999997e-05,-2e-05,1e-05,-2e-05,-2e-05,1
1464,1545,-1e-05,1e-05,-1e-05,-2.9999999999999997e-05,-2e-05,1e-05,-2e-05,-2e-05,1
1465,1546,-1e-05,1e-05,-1e-05,-2.9999999999999997e-05,-2e-05,1e-05,-2e-05,-2e-05,1
1466,1547,-1e-05,1e-05,-1e-05,-2.9999999999999997e-05,-2e-05,1e-05,-2e-05,-2e-05,1
1467,1548,-1e-05,-4e-05,-2.9999999999999997e-05,0.0,1e-05,-2.9999999999999997e-05,0.0,-2.9999999999999997e-05,1
1468,1549,-1e-05,-5.9999999999999995e-05,-7e-05,-4e-05,0.0,-2e-05,0.0,0.0,1
1469,1550,-1e-05,-5.9999999999999995e-05,-7e-05,-4e-05,0.0,-2e-05,0.0,0.0,1
1470,1551,-1e-05,-5.9999999999999995e-05,-7e-05,-4e-05,0.0,-2e-05,0.0,0.0,1
1471,1552,-1e-05,-5.9999999999999995e-05,-7e-05,-4e-05,0.0,-2e-05,0.0,0.0,1
1472,1553,-1e-05,-5.9999999999999995e-05,-7e-05,-4e-05,0.0,-2e-05,0.0,0.0,1
1473,1554,-1e-05,-5.9999999999999995e-05,-7e-05,-4e-05,0.0,-2e-05,0.0,0.0,1
1474,1555,-1e-05,-5.9999999999999995e-05,-7e-05,-4e-05,0.0,-2e-05,0.0,0.0,1
1475,1556,-1e-05,-5.9999999999999995e-05,-7e-05,-4e-05,0.0,-2e-05,0.0,0.0,1
1476,1557,-1e-05,-5.9999999999999995e-05,-7e-05,-4e-05,0.0,-2e-05,0.0,0.0,1
1477,1558,-1e-05,-5.9999999999999995e-05,-7e-05,-4e-05,0.0,-2e-05,0.0,0.0,1
1478,1559,-1e-05,-5.9999999999999995e-05,-7e-05,-4e-05,0.0,-2e-05,0.0,0.0,1
1479,1560,-1e-05,-5.9999999999999995e-05,-7e-05,-4e-05,0.0,-2e-05,0.0,0.0,1
1480,1561,-1e-05,-5.9999999999999995e-05,-7e-05,-4e-05,0.0,-2e-05,0.0,0.0,1
1481,1562,-1e-05,-5.9999999999999995e-05,-7e-05,-4e-05,0.0,-2e-05,0.0,0.0,1
1482,1563,-1e-05,-5.9999999999999995e-05,-7e-05,-4e-05,0.0,-2e-05,0.0,0.0,1
1483,1564,-1e-05,-5.9999999999999995e-05,-7e-05,-4e-05,0.0,-2e-05,0.0,0.0,1
1484,1565,-1e-05,-5.9999999999999995e-05,-7e-05,-4e-05,0.0,-2e-05,0.0,0.0,1
1485,1566,-1e-05,-5.9999999999999995e-05,-7e-05,-4e-05,0.0,-2e-05,0.0,0.0,1
1486,1567,-1e-05,-5.9999999999999995e-05,-7e-05,-4e-05,0.0,-2e-05,0.0,0.0,1
1487,1568,-1e-05,-5.9999999999999995e-05,-7e-05,-4e-05,0.0,-2e-05,0.0,0.0,1
1488,1569,-1e-05,-5.9999999999999995e-05,-7e-05,-4e-05,0.0,-2e-05,0.0,0.0,1
1489,1570,-1e-05,-5.9999999999999995e-05,-7e-05,-4e-05,0.0,-2e-05,0.0,0.0,1
1490,1571,-1e-05,-2.9999999999999997e-05,7e-05,2.9999999999999997e-05,-1e-05,0.0,0.0,1e-05,1
1491,1572,-1e-05,-2.9999999999999997e-05,7e-05,2.9999999999999997e-05,-1e-05,0.0,0.0,1e-05,1
1492,1573,-1e-05,-2.9999999999999997e-05,7e-05,2.9999999999999997e-05,-1e-05,0.0,0.0,1e-05,1
1493,1574,-1e-05,-2.9999999999999997e-05,7e-05,2.9999999999999997e-05,-1e-05,0.0,0.0,1e-05,1
1494,1575,-1e-05,-2.9999999999999997e-05,7e-05,2.9999999999999997e-05,-1e-05,0.0,0.0,1e-05,1
1495,1576,-1e-05,-2.9999999999999997e-05,7e-05,2.9999999999999997e-05,-1e-05,0.0,0.0,1e-05,1
1496,1577,-1e-05,-2.9999999999999997e-05,7e-05,2.9999999999999997e-05,-1e-05,0.0,0.0,1e-05,1
1497,1578,-1e-05,-2.9999999999999997e-05,7e-05,2.9999999999999997e-05,-1e-05,0.0,0.0,1e-05,1
1498,1579,-1e-05,-2.9999999999999997e-05,7e-05,2.9999999999999997e-05,-1e-05,0.0,0.0,1e-05,1
1499,1580,-1e-05,-2.9999999999999997e-05,7e-05,2.9999999999999997e-05,-1e-05,0.0,0.0,1e-05,1
1500,1581,-1e-05,-2.9999999999999997e-05,7e-05,2.9999999999999997e-05,-1e-05,0.0,0.0,1e-05,1
1501,1582,-1e-05,-2.9999999999999997e-05,7e-05,2.9999999999999997e-05,-1e-05,0.0,0.0,1e-05,1
1502,1583,-1e-05,-2.9999999999999997e-05,7e-05,2.9999999999999997e-05,-1e-05,0.0,0.0,1e-05,1
1503,1584,-1e-05,-2.9999999999999997e-05,7e-05,2.9999999999999997e-05,-1e-05,0.0,0.0,1e-05,1
1504,1585,-1e-05,-2.9999999999999997e-05,7e-05,2.9999999999999997e-05,-1e-05,0.0,0.0,1e-05,1
1505,1586,-1e-05,-2.9999999999999997e-05,7e-05,2.9999999999999997e-05,-1e-05,0.0,0.0,1e-05,1
1506,1588,1e-05,-2e-05,-5e-05,0.0,0.0,1e-05,-1e-05,-1e-05,1
1507,1589,1e-05,-2e-05,-5e-05,0.0,0.0,1e-05,-1e-05,-1e-05,1
1508,1590,1e-05,-2e-05,-5e-05,0.0,0.0,1e-05,-1e-05,-1e-05,1
1509,1591,1e-05,-2e-05,-5e-05,0.0,0.0,1e-05,-1e-05,-1e-05,1
1510,1592,1e-05,-2e-05,-5e-05,0.0,0.0,1e-05,-1e-05,-1e-05,1
1511,1594,-1e-05,4e-05,-2e-05,-2e-05,-1e-05,-1e-05,0.0,0.0,1
1512,1595,-1e-05,4e-05,-2e-05,-2e-05,-1e-05,-1e-05,0.0,0.0,1
1513,1596,-1e-05,4e-05,-2e-05,-2e-05,-1e-05,-1e-05,0.0,0.0,1
1514,1597,-1e-05,4e-05,-2e-05,-2e-05,-1e-05,-1e-05,0.0,0.0,1
1515,1598,-1e-05,4e-05,-2e-05,-2e-05,-1e-05,-1e-05,0.0,0.0,1
1516,1599,-1e-05,4e-05,-2e-05,-2e-05,-1e-05,-1e-05,0.0,0.0,1
1517,1600,0.0,-2e-05,0.0,0.0,-2e-05,-1e-05,0.0,-2e-05,1
1518,1601,-1e-05,-2e-05,-5.9999999999999995e-05,-2e-05,0.0,-2e-05,-1e-05,-2.9999999999999997e-05,1
1519,1602,-1e-05,-2e-05,-5.9999999999999995e-05,-2e-05,0.0,-2e-05,-1e-05,-2.9999999999999997e-05,1
1520,1603,-1e-05,-2e-05,-5.9999999999999995e-05,-2e-05,0.0,-2e-05,-1e-05,-2.9999999999999997e-05,1
1521,1604,-1e-05,-2e-05,-5.9999999999999995e-05,-2e-05,0.0,-2e-05,-1e-05,-2.9999999999999997e-05,1
1522,1605,-1e-05,-2e-05,-5.9999999999999995e-05,-2e-05,0.0,-2e-05,-1e-05,-2.9999999999999997e-05,1
1523,1606,-1e-05,-2e-05,-5.9999999999999995e-05,-2e-05,0.0,-2e-05,-1e-05,-2.9999999999999997e-05,1
1524,1607,-1e-05,-2e-05,-5.9999999999999995e-05,-2e-05,0.0,-2e-05,-1e-05,-2.9999999999999997e-05,1
1525,1608,-1e-05,-2e-05,-5.9999999999999995e-05,-2e-05,0.0,-2e-05,-1e-05,-2.9999999999999997e-05,1
1526,1609,-1e-05,-2e-05,-5.9999999999999995e-05,-2e-05,0.0,-2e-05,-1e-05,-2.9999999999999997e-05,1
1527,1610,-1e-05,-2e-05,-5.9999999999999995e-05,-2e-05,0.0,-2e-05,-1e-05,-2.9999999999999997e-05,1
1528,1611,-1e-05,-2e-05,-5.9999999999999995e-05,-2e-05,0.0,-2e-05,-1e-05,-2.9999999999999997e-05,1
1529,1612,-1e-05,-2e-05,-5.9999999999999995e-05,-2e-05,0.0,-2e-05,-1e-05,-2.9999999999999997e-05,1
1530,1613,-1e-05,-2e-05,-5.9999999999999995e-05,-2e-05,0.0,-2e-05,-1e-05,-2.9999999999999997e-05,1
1531,1614,-1e-05,-2e-05,-5.9999999999999995e-05,-2e-05,0.0,-2e-05,-1e-05,-2.9999999999999997e-05,1
1532,1615,-1e-05,-2e-05,-5.9999999999999995e-05,-2e-05,0.0,-2e-05,-1e-05,-2.9999999999999997e-05,1
1533,1616,-1e-05,-2e-05,-5.9999999999999995e-05,-2e-05,0.0,-2e-05,-1e-05,-2.9999999999999997e-05,1
1534,1617,-1e-05,-2e-05,-5.9999999999999995e-05,-2e-05,0.0,-2e-05,-1e-05,-2.9999999999999997e-05,1
1535,1618,-1e-05,-2e-05,-5.9999999999999995e-05,-2e-05,0.0,-2e-05,-1e-05,-2.9999999999999997e-05,1
1536,1619,-1e-05,-2e-05,-5.9999999999999995e-05,-2e-05,0.0,-2e-05,-1e-05,-2.9999999999999997e-05,1
1537,1620,-1e-05,-2e-05,-5.9999999999999995e-05,-2e-05,0.0,-2e-05,-1e-05,-2.9999999999999997e-05,1
1538,1621,-1e-05,-2e-05,-5.9999999999999995e-05,-2e-05,0.0,-2e-05,-1e-05,-2.9999999999999997e-05,1
1539,1622,-1e-05,-2e-05,-5.9999999999999995e-05,-2e-05,0.0,-2e-05,-1e-05,-2.9999999999999997e-05,1
1540,1623,0.0,2e-05,2e-05,0.0,1e-05,1e-05,0.0,0.0,1
1541,1624,-1e-05,-5e-05,-4e-05,-5.9999999999999995e-05,-2e-05,-2e-05,-1e-05,0.0,1
1542,1625,-1e-05,-5e-05,-4e-05,-5.9999999999999995e-05,-2e-05,-2e-05,-1e-05,0.0,1
1543,1626,-1e-05,-5e-05,-4e-05,-5.9999999999999995e-05,-2e-05,-2e-05,-1e-05,0.0,1
1544,1627,-1e-05,-5e-05,-4e-05,-5.9999999999999995e-05,-2e-05,-2e-05,-1e-05,0.0,1
1545,1628,-1e-05,-5e-05,-4e-05,-5.9999999999999995e-05,-2e-05,-2e-05,-1e-05,0.0,1
1546,1629,-1e-05,-5e-05,-4e-05,-5.9999999999999995e-05,-2e-05,-2e-05,-1e-05,0.0,1
1547,1630,-1e-05,-5e-05,-4e-05,-5.9999999999999995e-05,-2e-05,-2e-05,-1e-05,0.0,1
1548,1631,-1e-05,-5e-05,-4e-05,-5.9999999999999995e-05,-2e-05,-2e-05,-1e-05,0.0,1
1549,1632,-1e-05,-5e-05,-4e-05,-5.9999999999999995e-05,-2e-05,-2e-05,-1e-05,0.0,1
1550,1633,-1e-05,-5e-05,-4e-05,-5.9999999999999995e-05,-2e-05,-2e-05,-1e-05,0.0,1
1551,1634,-1e-05,-5e-05,-4e-05,-5.9999999999999995e-05,-2e-05,-2e-05,-1e-05,0.0,1
1552,1635,-1e-05,-5e-05,-4e-05,-5.9999999999999995e-05,-2e-05,-2e-05,-1e-05,0.0,1
1553,1636,-1e-05,-5e-05,-4e-05,-5.9999999999999995e-05,-2e-05,-2e-05,-1e-05,0.0,1
1554,1638,-1e-05,-5e-05,-4e-05,-5.9999999999999995e-05,-2e-05,-2e-05,-1e-05,0.0,1
1555,1640,-1e-05,-5e-05,-4e-05,-5.9999999999999995e-05,-2e-05,-2e-05,-1e-05,0.0,1
1556,1641,-1e-05,-5e-05,-4e-05,-5.9999999999999995e-05,-2e-05,-2e-05,-1e-05,0.0,1
1557,1642,-1e-05,-5e-05,-4e-05,-5.9999999999999995e-05,-2e-05,-2e-05,-1e-05,0.0,1
1558,1643,-1e-05,-5e-05,-4e-05,-5.9999999999999995e-05,-2e-05,-2e-05,-1e-05,0.0,1
1559,1644,-1e-05,-5e-05,-4e-05,-5.9999999999999995e-05,-2e-05,-2e-05,-1e-05,0.0,1
1560,1645,-1e-05,-5e-05,-4e-05,-5.9999999999999995e-05,-2e-05,-2e-05,-1e-05,0.0,1
1561,1646,1e-05,4e-05,4e-05,1e-05,0.0,-1e-05,1e-05,0.0,1
1562,1647,1e-05,4e-05,4e-05,1e-05,0.0,-1e-05,1e-05,0.0,1
1563,1648,1e-05,4e-05,4e-05,1e-05,0.0,-1e-05,1e-05,0.0,1
1564,1649,1e-05,4e-05,4e-05,1e-05,0.0,-1e-05,1e-05,0.0,1
1565,1650,1e-05,4e-05,4e-05,1e-05,0.0,-1e-05,1e-05,0.0,1
1566,1651,1e-05,4e-05,4e-05,1e-05,0.0,-1e-05,1e-05,0.0,1
1567,1652,1e-05,4e-05,4e-05,1e-05,0.0,-1e-05,1e-05,0.0,1
1568,1653,1e-05,4e-05,4e-05,1e-05,0.0,-1e-05,1e-05,0.0,1
1569,1654,1e-05,4e-05,4e-05,1e-05,0.0,-1e-05,1e-05,0.0,1
1570,1655,1e-05,4e-05,4e-05,1e-05,0.0,-1e-05,1e-05,0.0,1
1571,1656,1e-05,4e-05,4e-05,1e-05,0.0,-1e-05,1e-05,0.0,1
1572,1657,1e-05,4e-05,4e-05,1e-05,0.0,-1e-05,1e-05,0.0,1
1573,1658,1e-05,4e-05,4e-05,1e-05,0.0,-1e-05,1e-05,0.0,1
1574,1659,1e-05,4e-05,4e-05,1e-05,0.0,-1e-05,1e-05,0.0,1
1575,1660,1e-05,-5.9999999999999995e-05,1e-05,-2.9999999999999997e-05,-1e-05,-2.9999999999999997e-05,-2e-05,0.0,1
1576,1661,0.0,2.9999999999999997e-05,0.0,1e-05,1e-05,-2.9999999999999997e-05,-2.9999999999999997e-05,-1e-05,1
1577,1662,0.0,2.9999999999999997e-05,0.0,1e-05,1e-05,-2.9999999999999997e-05,-2.9999999999999997e-05,-1e-05,1
1578,1663,0.0,2.9999999999999997e-05,0.0,1e-05,1e-05,-2.9999999999999997e-05,-2.9999999999999997e-05,-1e-05,1
1579,1664,0.0,2.9999999999999997e-05,0.0,1e-05,1e-05,-2.9999999999999997e-05,-2.9999999999999997e-05,-1e-05,1
1580,1665,0.0,2.9999999999999997e-05,0.0,1e-05,1e-05,-2.9999999999999997e-05,-2.9999999999999997e-05,-1e-05,1
1581,1666,0.0,2.9999999999999997e-05,0.0,1e-05,1e-05,-2.9999999999999997e-05,-2.9999999999999997e-05,-1e-05,1
1582,1667,0.0,2.9999999999999997e-05,0.0,1e-05,1e-05,-2.9999999999999997e-05,-2.9999999999999997e-05,-1e-05,1
1583,1668,0.0,2.9999999999999997e-05,0.0,1e-05,1e-05,-2.9999999999999997e-05,-2.9999999999999997e-05,-1e-05,1
1584,1669,0.0,2.9999999999999997e-05,0.0,1e-05,1e-05,-2.9999999999999997e-05,-2.9999999999999997e-05,-1e-05,1
1585,1670,0.0,2.9999999999999997e-05,0.0,1e-05,1e-05,-2.9999999999999997e-05,-2.9999999999999997e-05,-1e-05,1
1586,1671,0.0,2.9999999999999997e-05,0.0,1e-05,1e-05,-2.9999999999999997e-05,-2.9999999999999997e-05,-1e-05,1
1587,1672,0.0,2.9999999999999997e-05,0.0,1e-05,1e-05,-2.9999999999999997e-05,-2.9999999999999997e-05,-1e-05,1
1588,1673,0.0,2.9999999999999997e-05,0.0,1e-05,1e-05,-2.9999999999999997e-05,-2.9999999999999997e-05,-1e-05,1
1589,1674,0.0,2.9999999999999997e-05,0.0,1e-05,1e-05,-2.9999999999999997e-05,-2.9999999999999997e-05,-1e-05,1
1590,1675,0.0,2.9999999999999997e-05,0.0,1e-05,1e-05,-2.9999999999999997e-05,-2.9999999999999997e-05,-1e-05,1
1591,1676,0.0,2.9999999999999997e-05,0.0,1e-05,1e-05,-2.9999999999999997e-05,-2.9999999999999997e-05,-1e-05,1
1592,1677,0.0,2.9999999999999997e-05,0.0,1e-05,1e-05,-2.9999999999999997e-05,-2.9999999999999997e-05,-1e-05,1
1593,1678,0.0,2.9999999999999997e-05,0.0,1e-05,1e-05,-2.9999999999999997e-05,-2.9999999999999997e-05,-1e-05,1
1594,1679,0.0,2.9999999999999997e-05,0.0,1e-05,1e-05,-2.9999999999999997e-05,-2.9999999999999997e-05,-1e-05,1
1595,1680,0.0,2.9999999999999997e-05,0.0,1e-05,1e-05,-2.9999999999999997e-05,-2.9999999999999997e-05,-1e-05,1
1596,1681,0.0,2.9999999999999997e-05,0.0,1e-05,1e-05,-2.9999999999999997e-05,-2.9999999999999997e-05,-1e-05,1
1597,1682,0.0,2.9999999999999997e-05,0.0,1e-05,1e-05,-2.9999999999999997e-05,-2.9999999999999997e-05,-1e-05,1
1598,1683,-1e-05,4e-05,0.0,0.0,1e-05,-1e-05,0.0,-2.9999999999999997e-05,1
1599,1684,-2e-05,-1e-05,-5.9999999999999995e-05,-4e-05,0.0,0.0,-2.9999999999999997e-05,-1e-05,1
1600,1685,-2e-05,-1e-05,-5.9999999999999995e-05,-4e-05,0.0,0.0,-2.9999999999999997e-05,-1e-05,1
1601,1686,-2e-05,-1e-05,-5.9999999999999995e-05,-4e-05,0.0,0.0,-2.9999999999999997e-05,-1e-05,1
1602,1688,-2e-05,-1e-05,-5.9999999999999995e-05,-4e-05,0.0,0.0,-2.9999999999999997e-05,-1e-05,1
1603,1689,-2e-05,-1e-05,-5.9999999999999995e-05,-4e-05,0.0,0.0,-2.9999999999999997e-05,-1e-05,1
1604,1690,-2e-05,-1e-05,-5.9999999999999995e-05,-4e-05,0.0,0.0,-2.9999999999999997e-05,-1e-05,1
1605,1691,-2e-05,-1e-05,-5.9999999999999995e-05,-4e-05,0.0,0.0,-2.9999999999999997e-05,-1e-05,1
1606,1692,-2e-05,-1e-05,-5.9999999999999995e-05,-4e-05,0.0,0.0,-2.9999999999999997e-05,-1e-05,1
1607,1693,-2e-05,-1e-05,-5.9999999999999995e-05,-4e-05,0.0,0.0,-2.9999999999999997e-05,-1e-05,1
1608,1694,-2e-05,-1e-05,-5.9999999999999995e-05,-4e-05,0.0,0.0,-2.9999999999999997e-05,-1e-05,1
1609,1695,-2e-05,-1e-05,-5.9999999999999995e-05,-4e-05,0.0,0.0,-2.9999999999999997e-05,-1e-05,1
1610,1696,-2e-05,-1e-05,-5.9999999999999995e-05,-4e-05,0.0,0.0,-2.9999999999999997e-05,-1e-05,1
1611,1697,-2e-05,-1e-05,-5.9999999999999995e-05,-4e-05,0.0,0.0,-2.9999999999999997e-05,-1e-05,1
1612,1698,-2e-05,-1e-05,-5.9999999999999995e-05,-4e-05,0.0,0.0,-2.9999999999999997e-05,-1e-05,1
1613,1699,-2e-05,-1e-05,-5.9999999999999995e-05,-4e-05,0.0,0.0,-2.9999999999999997e-05,-1e-05,1
1614,1700,-2e-05,-1e-05,-5.9999999999999995e-05,-4e-05,0.0,0.0,-2.9999999999999997e-05,-1e-05,1
1615,1701,-2e-05,-1e-05,-5.9999999999999995e-05,-4e-05,0.0,0.0,-2.9999999999999997e-05,-1e-05,1
1616,1702,-2e-05,-1e-05,-5.9999999999999995e-05,-4e-05,0.0,0.0,-2.9999999999999997e-05,-1e-05,1
1617,1703,-2e-05,-1e-05,-5.9999999999999995e-05,-4e-05,0.0,0.0,-2.9999999999999997e-05,-1e-05,1
1618,1704,-2e-05,-1e-05,-5.9999999999999995e-05,-4e-05,0.0,0.0,-2.9999999999999997e-05,-1e-05,1
1619,1705,0.0,0.0,1e-05,0.0,-1e-05,-1e-05,2.9999999999999997e-05,2e-05,1
1620,1706,-1e-05,-2.9999999999999997e-05,2e-05,2e-05,1e-05,-1e-05,0.0,-2.9999999999999997e-05,1
1621,1707,-1e-05,-2.9999999999999997e-05,2e-05,2e-05,1e-05,-1e-05,0.0,-2.9999999999999997e-05,1
1622,1708,-1e-05,-2.9999999999999997e-05,2e-05,2e-05,1e-05,-1e-05,0.0,-2.9999999999999997e-05,1
1623,1709,-1e-05,-2.9999999999999997e-05,2e-05,2e-05,1e-05,-1e-05,0.0,-2.9999999999999997e-05,1
1624,1710,-1e-05,-2.9999999999999997e-05,2e-05,2e-05,1e-05,-1e-05,0.0,-2.9999999999999997e-05,1
1625,1711,-1e-05,-2.9999999999999997e-05,2e-05,2e-05,1e-05,-1e-05,0.0,-2.9999999999999997e-05,1
1626,1712,-1e-05,-2.9999999999999997e-05,2e-05,2e-05,1e-05,-1e-05,0.0,-2.9999999999999997e-05,1
1627,1713,-1e-05,-2.9999999999999997e-05,2e-05,2e-05,1e-05,-1e-05,0.0,-2.9999999999999997e-05,1
1628,1714,-1e-05,-2.9999999999999997e-05,2e-05,2e-05,1e-05,-1e-05,0.0,-2.9999999999999997e-05,1
1629,1715,-1e-05,-2.9999999999999997e-05,2e-05,2e-05,1e-05,-1e-05,0.0,-2.9999999999999997e-05,1
1630,1716,-1e-05,-2.9999999999999997e-05,2e-05,2e-05,1e-05,-1e-05,0.0,-2.9999999999999997e-05,1
1631,1717,-1e-05,-2.9999999999999997e-05,2e-05,2e-05,1e-05,-1e-05,0.0,-2.9999999999999997e-05,1
1632,1718,-1e-05,-2.9999999999999997e-05,2e-05,2e-05,1e-05,-1e-05,0.0,-2.9999999999999997e-05,1
1633,1719,-1e-05,-2.9999999999999997e-05,2e-05,2e-05,1e-05,-1e-05,0.0,-2.9999999999999997e-05,1
1634,1720,-1e-05,-2.9999999999999997e-05,2e-05,2e-05,1e-05,-1e-05,0.0,-2.9999999999999997e-05,1
1635,1721,-1e-05,-2.9999999999999997e-05,2e-05,2e-05,1e-05,-1e-05,0.0,-2.9999999999999997e-05,1
1636,1722,-1e-05,-2.9999999999999997e-05,2e-05,2e-05,1e-05,-1e-05,0.0,-2.9999999999999997e-05,1
1637,1723,-1e-05,-2.9999999999999997e-05,2e-05,2e-05,1e-05,-1e-05,0.0,-2.9999999999999997e-05,1
1638,1724,-1e-05,-2.9999999999999997e-05,2e-05,2e-05,1e-05,-1e-05,0.0,-2.9999999999999997e-05,1
1639,1725,-1e-05,-2.9999999999999997e-05,2e-05,2e-05,1e-05,-1e-05,0.0,-2.9999999999999997e-05,1
1640,1726,-1e-05,-2.9999999999999997e-05,2e-05,2e-05,1e-05,-1e-05,0.0,-2.9999999999999997e-05,1
1641,1727,-1e-05,-2.9999999999999997e-05,2e-05,2e-05,1e-05,-1e-05,0.0,-2.9999999999999997e-05,1
1642,1728,-1e-05,-2.9999999999999997e-05,2e-05,2e-05,1e-05,-1e-05,0.0,-2.9999999999999997e-05,1
1643,1729,-1e-05,-2.9999999999999997e-05,2e-05,2e-05,1e-05,-1e-05,0.0,-2.9999999999999997e-05,1
1644,1730,-1e-05,-2.9999999999999997e-05,2e-05,2e-05,1e-05,-1e-05,0.0,-2.9999999999999997e-05,1
1645,1731,-1e-05,-2.9999999999999997e-05,2e-05,2e-05,1e-05,-1e-05,0.0,-2.9999999999999997e-05,1
1646,1732,-1e-05,-2.9999999999999997e-05,2e-05,2e-05,1e-05,-1e-05,0.0,-2.9999999999999997e-05,1
1647,1733,-1e-05,-2.9999999999999997e-05,2e-05,2e-05,1e-05,-1e-05,0.0,-2.9999999999999997e-05,1
1648,1734,-1e-05,-2.9999999999999997e-05,2e-05,2e-05,1e-05,-1e-05,0.0,-2.9999999999999997e-05,1
1649,1735,-1e-05,-2.9999999999999997e-05,2e-05,2e-05,1e-05,-1e-05,0.0,-2.9999999999999997e-05,1
1650,1736,-2.9999999999999997e-05,0.0,-2e-05,-5e-05,-2e-05,0.0,-1e-05,-1e-05,1
1651,1739,0.0,0.0,4e-05,2.9999999999999997e-05,2e-05,-1e-05,-2e-05,-1e-05,1
1652,1740,0.0,0.0,4e-05,2.9999999999999997e-05,2e-05,-1e-05,-2e-05,-1e-05,1
1653,1741,0.0,0.0,4e-05,2.9999999999999997e-05,2e-05,-1e-05,-2e-05,-1e-05,1
1654,1742,0.0,0.0,4e-05,2.9999999999999997e-05,2e-05,-1e-05,-2e-05,-1e-05,1
1655,1743,0.0,0.0,4e-05,2.9999999999999997e-05,2e-05,-1e-05,-2e-05,-1e-05,1
1656,1744,0.0,0.0,4e-05,2.9999999999999997e-05,2e-05,-1e-05,-2e-05,-1e-05,1
1657,1745,0.0,0.0,4e-05,2.9999999999999997e-05,2e-05,-1e-05,-2e-05,-1e-05,1
1658,1746,0.0,0.0,4e-05,2.9999999999999997e-05,2e-05,-1e-05,-2e-05,-1e-05,1
1659,1747,0.0,0.0,4e-05,2.9999999999999997e-05,2e-05,-1e-05,-2e-05,-1e-05,1
1660,1748,0.0,0.0,4e-05,2.9999999999999997e-05,2e-05,-1e-05,-2e-05,-1e-05,1
1661,1749,0.0,0.0,4e-05,2.9999999999999997e-05,2e-05,-1e-05,-2e-05,-1e-05,1
1662,1750,0.0,0.0,4e-05,2.9999999999999997e-05,2e-05,-1e-05,-2e-05,-1e-05,1
1663,1751,0.0,0.0,4e-05,2.9999999999999997e-05,2e-05,-1e-05,-2e-05,-1e-05,1
1664,1752,0.0,0.0,4e-05,2.9999999999999997e-05,2e-05,-1e-05,-2e-05,-1e-05,1
1665,1753,0.0,0.0,4e-05,2.9999999999999997e-05,2e-05,-1e-05,-2e-05,-1e-05,1
1666,1754,0.0,0.0,4e-05,2.9999999999999997e-05,2e-05,-1e-05,-2e-05,-1e-05,1
1667,1755,0.0,0.0,4e-05,2.9999999999999997e-05,2e-05,-1e-05,-2e-05,-1e-05,1
1668,1756,0.0,0.0,4e-05,2.9999999999999997e-05,2e-05,-1e-05,-2e-05,-1e-05,1
1669,1757,0.0,0.0,4e-05,2.9999999999999997e-05,2e-05,-1e-05,-2e-05,-1e-05,1
1670,1758,-2e-05,-2e-05,-4e-05,-1e-05,-2.9999999999999997e-05,-1e-05,-1e-05,-2e-05,1
1671,1759,1e-05,-1e-05,-1e-05,-1e-05,-2e-05,0.0,1e-05,1e-05,1
1672,1761,1e-05,-1e-05,-1e-05,-1e-05,-2e-05,0.0,1e-05,1e-05,1
1673,1762,1e-05,-1e-05,-1e-05,-1e-05,-2e-05,0.0,1e-05,1e-05,1
1674,1763,1e-05,-1e-05,-1e-05,-1e-05,-2e-05,0.0,1e-05,1e-05,1
1675,1764,1e-05,-1e-05,-1e-05,-1e-05,-2e-05,0.0,1e-05,1e-05,1
1676,1765,1e-05,-1e-05,-1e-05,-1e-05,-2e-05,0.0,1e-05,1e-05,1
1677,1766,1e-05,-1e-05,-1e-05,-1e-05,-2e-05,0.0,1e-05,1e-05,1
1678,1767,-2e-05,-7e-05,-7e-05,-4e-05,-4e-05,-1e-05,0.0,-2.9999999999999997e-05,1
1679,1768,-2e-05,-7e-05,-7e-05,-4e-05,-4e-05,-1e-05,0.0,-2.9999999999999997e-05,1
1680,1769,-2e-05,-7e-05,-7e-05,-4e-05,-4e-05,-1e-05,0.0,-2.9999999999999997e-05,1
1681,1770,-2e-05,-7e-05,-7e-05,-4e-05,-4e-05,-1e-05,0.0,-2.9999999999999997e-05,1
1682,1771,-2e-05,-7e-05,-7e-05,-4e-05,-4e-05,-1e-05,0.0,-2.9999999999999997e-05,1
1683,1772,-2e-05,-7e-05,-7e-05,-4e-05,-4e-05,-1e-05,0.0,-2.9999999999999997e-05,1
1684,1773,-2e-05,-7e-05,-7e-05,-4e-05,-4e-05,-1e-05,0.0,-2.9999999999999997e-05,1
1685,1774,-2e-05,-7e-05,-7e-05,-4e-05,-4e-05,-1e-05,0.0,-2.9999999999999997e-05,1
1686,1775,-2e-05,-7e-05,-7e-05,-4e-05,-4e-05,-1e-05,0.0,-2.9999999999999997e-05,1
1687,1776,-2e-05,-7e-05,-7e-05,-4e-05,-4e-05,-1e-05,0.0,-2.9999999999999997e-05,1
1688,1777,-2e-05,-7e-05,-7e-05,-4e-05,-4e-05,-1e-05,0.0,-2.9999999999999997e-05,1
1689,1778,-2e-05,-7e-05,-7e-05,-4e-05,-4e-05,-1e-05,0.0,-2.9999999999999997e-05,1
1690,1779,-2e-05,-7e-05,-7e-05,-4e-05,-4e-05,-1e-05,0.0,-2.9999999999999997e-05,1
1691,1780,-2e-05,-7e-05,-7e-05,-4e-05,-4e-05,-1e-05,0.0,-2.9999999999999997e-05,1
1692,1781,-2e-05,-2e-05,-2e-05,-2e-05,0.0,-2.9999999999999997e-05,0.0,-1e-05,1
1693,1782,0.0,1e-05,1e-05,-2e-05,-2.9999999999999997e-05,0.0,-1e-05,-1e-05,1
1694,1783,0.0,1e-05,1e-05,-2e-05,-2.9999999999999997e-05,0.0,-1e-05,-1e-05,1
1695,1784,0.0,1e-05,1e-05,-2e-05,-2.9999999999999997e-05,0.0,-1e-05,-1e-05,1
1696,1785,0.0,1e-05,1e-05,-2e-05,-2.9999999999999997e-05,0.0,-1e-05,-1e-05,1
1697,1786,0.0,1e-05,1e-05,-2e-05,-2.9999999999999997e-05,0.0,-1e-05,-1e-05,1
1698,1788,0.0,1e-05,1e-05,-2e-05,-2.9999999999999997e-05,0.0,-1e-05,-1e-05,1
1699,1789,0.0,1e-05,1e-05,-2e-05,-2.9999999999999997e-05,0.0,-1e-05,-1e-05,1
1700,1790,0.0,1e-05,1e-05,-2e-05,-2.9999999999999997e-05,0.0,-1e-05,-1e-05,1
1701,1791,0.0,1e-05,1e-05,-2e-05,-2.9999999999999997e-05,0.0,-1e-05,-1e-05,1
1702,1792,0.0,1e-05,1e-05,-2e-05,-2.9999999999999997e-05,0.0,-1e-05,-1e-05,1
1703,1793,0.0,1e-05,1e-05,-2e-05,-2.9999999999999997e-05,0.0,-1e-05,-1e-05,1
1704,1794,0.0,1e-05,1e-05,-2e-05,-2.9999999999999997e-05,0.0,-1e-05,-1e-05,1
1705,1795,0.0,1e-05,1e-05,-2e-05,-2.9999999999999997e-05,0.0,-1e-05,-1e-05,1
1706,1796,0.0,1e-05,1e-05,-2e-05,-2.9999999999999997e-05,0.0,-1e-05,-1e-05,1
1707,1797,0.0,1e-05,1e-05,-2e-05,-2.9999999999999997e-05,0.0,-1e-05,-1e-05,1
1708,1798,0.0,1e-05,1e-05,-2e-05,-2.9999999999999997e-05,0.0,-1e-05,-1e-05,1
1709,1799,0.0,1e-05,1e-05,-2e-05,-2.9999999999999997e-05,0.0,-1e-05,-1e-05,1
1710,1800,0.0,1e-05,1e-05,-2e-05,-2.9999999999999997e-05,0.0,-1e-05,-1e-05,1
1711,1801,0.0,1e-05,1e-05,-2e-05,-2.9999999999999997e-05,0.0,-1e-05,-1e-05,1
1712,1802,0.0,1e-05,1e-05,-2e-05,-2.9999999999999997e-05,0.0,-1e-05,-1e-05,1
1713,1803,0.0,1e-05,1e-05,-2e-05,-2.9999999999999997e-05,0.0,-1e-05,-1e-05,1
1714,1804,0.0,1e-05,1e-05,-2e-05,-2.9999999999999997e-05,0.0,-1e-05,-1e-05,1
1715,1805,-2e-05,-2.9999999999999997e-05,-5.9999999999999995e-05,-2e-05,0.0,0.0,-1e-05,0.0,1
1716,1806,-2e-05,-2.9999999999999997e-05,-5.9999999999999995e-05,-2e-05,0.0,0.0,-1e-05,0.0,1
1717,1807,-2e-05,-2.9999999999999997e-05,-5.9999999999999995e-05,-2e-05,0.0,0.0,-1e-05,0.0,1
1718,1808,-2e-05,-2.9999999999999997e-05,-5.9999999999999995e-05,-2e-05,0.0,0.0,-1e-05,0.0,1
1719,1809,-2e-05,-2.9999999999999997e-05,-5.9999999999999995e-05,-2e-05,0.0,0.0,-1e-05,0.0,1
1720,1810,-2e-05,-2.9999999999999997e-05,-5.9999999999999995e-05,-2e-05,0.0,0.0,-1e-05,0.0,1
1721,1811,-2e-05,-2.9999999999999997e-05,-5.9999999999999995e-05,-2e-05,0.0,0.0,-1e-05,0.0,1
1722,1812,-2e-05,-2.9999999999999997e-05,-5.9999999999999995e-05,-2e-05,0.0,0.0,-1e-05,0.0,1
1723,1813,-2e-05,-2.9999999999999997e-05,-5.9999999999999995e-05,-2e-05,0.0,0.0,-1e-05,0.0,1
1724,1814,-2e-05,-2.9999999999999997e-05,-5.9999999999999995e-05,-2e-05,0.0,0.0,-1e-05,0.0,1
1725,1815,-2e-05,-2.9999999999999997e-05,-5.9999999999999995e-05,-2e-05,0.0,0.0,-1e-05,0.0,1
1726,1816,-2e-05,-2.9999999999999997e-05,-5.9999999999999995e-05,-2e-05,0.0,0.0,-1e-05,0.0,1
1727,1817,-2e-05,-2.9999999999999997e-05,-5.9999999999999995e-05,-2e-05,0.0,0.0,-1e-05,0.0,1
1728,1818,-2e-05,-2.9999999999999997e-05,-5.9999999999999995e-05,-2e-05,0.0,0.0,-1e-05,0.0,1
1729,1819,-2e-05,-2.9999999999999997e-05,-5.9999999999999995e-05,-2e-05,0.0,0.0,-1e-05,0.0,1
1730,1820,-2e-05,-2.9999999999999997e-05,-5.9999999999999995e-05,-2e-05,0.0,0.0,-1e-05,0.0,1
1731,1821,-2e-05,-2.9999999999999997e-05,-5.9999999999999995e-05,-2e-05,0.0,0.0,-1e-05,0.0,1
1732,1822,-2e-05,-2.9999999999999997e-05,-5.9999999999999995e-05,-2e-05,0.0,0.0,-1e-05,0.0,1
1733,1823,-2e-05,-2.9999999999999997e-05,-5.9999999999999995e-05,-2e-05,0.0,0.0,-1e-05,0.0,1
1734,1824,-2e-05,-2.9999999999999997e-05,-5.9999999999999995e-05,-2e-05,0.0,0.0,-1e-05,0.0,1
1735,1825,-1e-05,2.9999999999999997e-05,2.9999999999999997e-05,0.0,-1e-05,-2.9999999999999997e-05,-4e-05,0.0,1
1736,1826,-1e-05,2.9999999999999997e-05,2.9999999999999997e-05,0.0,-1e-05,-2.9999999999999997e-05,-4e-05,0.0,1
1737,1827,-1e-05,2.9999999999999997e-05,2.9999999999999997e-05,0.0,-1e-05,-2.9999999999999997e-05,-4e-05,0.0,1
1738,1828,-1e-05,2.9999999999999997e-05,2.9999999999999997e-05,0.0,-1e-05,-2.9999999999999997e-05,-4e-05,0.0,1
1739,1829,-1e-05,2.9999999999999997e-05,2.9999999999999997e-05,0.0,-1e-05,-2.9999999999999997e-05,-4e-05,0.0,1
1740,1830,-1e-05,2.9999999999999997e-05,2.9999999999999997e-05,0.0,-1e-05,-2.9999999999999997e-05,-4e-05,0.0,1
1741,1831,-1e-05,2.9999999999999997e-05,2.9999999999999997e-05,0.0,-1e-05,-2.9999999999999997e-05,-4e-05,0.0,1
1742,1832,-1e-05,2.9999999999999997e-05,2.9999999999999997e-05,0.0,-1e-05,-2.9999999999999997e-05,-4e-05,0.0,1
1743,1833,-1e-05,2.9999999999999997e-05,2.9999999999999997e-05,0.0,-1e-05,-2.9999999999999997e-05,-4e-05,0.0,1
1744,1834,2e-05,2e-05,1e-05,0.0,-2e-05,7e-05,-2.9999999999999997e-05,-5.9999999999999995e-05,1
1745,1835,1e-05,1e-05,2e-05,-2e-05,-1e-05,-2e-05,-1e-05,-5.9999999999999995e-05,1
1746,1836,1e-05,1e-05,2e-05,-2e-05,-1e-05,-2e-05,-1e-05,-5.9999999999999995e-05,1
1747,1840,1e-05,1e-05,2e-05,-2e-05,-1e-05,-2e-05,-1e-05,-5.9999999999999995e-05,1
1748,1841,1e-05,1e-05,2e-05,-2e-05,-1e-05,-2e-05,-1e-05,-5.9999999999999995e-05,1
1749,1842,1e-05,1e-05,2e-05,-2e-05,-1e-05,-2e-05,-1e-05,-5.9999999999999995e-05,1
1750,1843,1e-05,1e-05,2e-05,-2e-05,-1e-05,-2e-05,-1e-05,-5.9999999999999995e-05,1
1751,1844,1e-05,1e-05,2e-05,-2e-05,-1e-05,-2e-05,-1e-05,-5.9999999999999995e-05,1
1752,1845,1e-05,1e-05,2e-05,-2e-05,-1e-05,-2e-05,-1e-05,-5.9999999999999995e-05,1
1753,1846,1e-05,1e-05,2e-05,-2e-05,-1e-05,-2e-05,-1e-05,-5.9999999999999995e-05,1
1754,1847,1e-05,1e-05,2e-05,-2e-05,-1e-05,-2e-05,-1e-05,-5.9999999999999995e-05,1
1755,1848,-1e-05,-7e-05,-5.9999999999999995e-05,-7e-05,-2e-05,-1e-05,-2.9999999999999997e-05,-9e-05,1
1756,1849,-1e-05,-7e-05,-5.9999999999999995e-05,-7e-05,-2e-05,-1e-05,-2.9999999999999997e-05,-9e-05,1
1757,1850,-1e-05,-7e-05,-5.9999999999999995e-05,-7e-05,-2e-05,-1e-05,-2.9999999999999997e-05,-9e-05,1
1758,1851,-1e-05,-7e-05,-5.9999999999999995e-05,-7e-05,-2e-05,-1e-05,-2.9999999999999997e-05,-9e-05,1
1759,1852,-1e-05,-7e-05,-5.9999999999999995e-05,-7e-05,-2e-05,-1e-05,-2.9999999999999997e-05,-9e-05,1
1760,1853,-1e-05,-7e-05,-5.9999999999999995e-05,-7e-05,-2e-05,-1e-05,-2.9999999999999997e-05,-9e-05,1
1761,1854,-1e-05,-7e-05,-5.9999999999999995e-05,-7e-05,-2e-05,-1e-05,-2.9999999999999997e-05,-9e-05,1
1762,1855,-1e-05,2.9999999999999997e-05,2e-05,4e-05,0.0,2.9999999999999997e-05,2e-05,5e-05,1
1763,1856,-1e-05,2.9999999999999997e-05,2e-05,4e-05,0.0,2.9999999999999997e-05,2e-05,5e-05,1
1764,1857,-1e-05,2.9999999999999997e-05,2e-05,4e-05,0.0,2.9999999999999997e-05,2e-05,5e-05,1
1765,1858,-1e-05,2.9999999999999997e-05,2e-05,4e-05,0.0,2.9999999999999997e-05,2e-05,5e-05,1
1766,1859,-1e-05,2.9999999999999997e-05,2e-05,4e-05,0.0,2.9999999999999997e-05,2e-05,5e-05,1
1767,1860,-1e-05,2.9999999999999997e-05,2e-05,4e-05,0.0,2.9999999999999997e-05,2e-05,5e-05,1
1768,1861,-1e-05,2.9999999999999997e-05,2e-05,4e-05,0.0,2.9999999999999997e-05,2e-05,5e-05,1
1769,1862,-1e-05,2.9999999999999997e-05,2e-05,4e-05,0.0,2.9999999999999997e-05,2e-05,5e-05,1
1770,1863,-1e-05,2.9999999999999997e-05,2e-05,4e-05,0.0,2.9999999999999997e-05,2e-05,5e-05,1
1771,1864,-1e-05,2.9999999999999997e-05,2e-05,4e-05,0.0,2.9999999999999997e-05,2e-05,5e-05,1
1772,1865,-1e-05,2.9999999999999997e-05,2e-05,4e-05,0.0,2.9999999999999997e-05,2e-05,5e-05,1
1773,1866,-1e-05,2.9999999999999997e-05,2e-05,4e-05,0.0,2.9999999999999997e-05,2e-05,5e-05,1
1774,1867,-1e-05,2.9999999999999997e-05,2e-05,4e-05,0.0,2.9999999999999997e-05,2e-05,5e-05,1
1775,1868,-1e-05,2.9999999999999997e-05,2e-05,4e-05,0.0,2.9999999999999997e-05,2e-05,5e-05,1
1776,1869,-1e-05,2.9999999999999997e-05,2e-05,4e-05,0.0,2.9999999999999997e-05,2e-05,5e-05,1
1777,1870,-1e-05,2.9999999999999997e-05,2e-05,4e-05,0.0,2.9999999999999997e-05,2e-05,5e-05,1
1778,1871,-1e-05,2.9999999999999997e-05,2e-05,4e-05,0.0,2.9999999999999997e-05,2e-05,5e-05,1
1779,1872,-1e-05,2.9999999999999997e-05,2e-05,4e-05,0.0,2.9999999999999997e-05,2e-05,5e-05,1
1780,1873,-1e-05,2.9999999999999997e-05,2e-05,4e-05,0.0,2.9999999999999997e-05,2e-05,5e-05,1
1781,1874,-1e-05,2.9999999999999997e-05,2e-05,4e-05,0.0,2.9999999999999997e-05,2e-05,5e-05,1
1782,1875,-1e-05,2.9999999999999997e-05,2e-05,4e-05,0.0,2.9999999999999997e-05,2e-05,5e-05,1
1783,1876,-1e-05,2.9999999999999997e-05,2e-05,4e-05,0.0,2.9999999999999997e-05,2e-05,5e-05,1
1784,1877,-1e-05,2.9999999999999997e-05,2e-05,4e-05,0.0,2.9999999999999997e-05,2e-05,5e-05,1
1785,1878,-1e-05,2.9999999999999997e-05,2e-05,4e-05,0.0,2.9999999999999997e-05,2e-05,5e-05,1
1786,1879,-1e-05,-4e-05,4e-05,-2.9999999999999997e-05,-1e-05,1e-05,-1e-05,-0.0001,1
1787,1880,-1e-05,-4e-05,4e-05,-2.9999999999999997e-05,-1e-05,1e-05,-1e-05,-0.0001,1
1788,1881,-1e-05,-4e-05,4e-05,-2.9999999999999997e-05,-1e-05,1e-05,-1e-05,-0.0001,1
1789,1882,-1e-05,-4e-05,4e-05,-2.9999999999999997e-05,-1e-05,1e-05,-1e-05,-0.0001,1
1790,1883,-1e-05,-4e-05,4e-05,-2.9999999999999997e-05,-1e-05,1e-05,-1e-05,-0.0001,1
1791,1884,-1e-05,-4e-05,4e-05,-2.9999999999999997e-05,-1e-05,1e-05,-1e-05,-0.0001,1
1792,1885,-1e-05,-4e-05,4e-05,-2.9999999999999997e-05,-1e-05,1e-05,-1e-05,-0.0001,1
1793,1886,-1e-05,-4e-05,4e-05,-2.9999999999999997e-05,-1e-05,1e-05,-1e-05,-0.0001,1
1794,1888,-1e-05,-4e-05,4e-05,-2.9999999999999997e-05,-1e-05,1e-05,-1e-05,-0.0001,1
1795,1889,-1e-05,-4e-05,4e-05,-2.9999999999999997e-05,-1e-05,1e-05,-1e-05,-0.0001,1
1796,1890,-1e-05,-4e-05,4e-05,-2.9999999999999997e-05,-1e-05,1e-05,-1e-05,-0.0001,1
1797,1891,-1e-05,-4e-05,4e-05,-2.9999999999999997e-05,-1e-05,1e-05,-1e-05,-0.0001,1
1798,1892,-1e-05,-4e-05,4e-05,-2.9999999999999997e-05,-1e-05,1e-05,-1e-05,-0.0001,1
1799,1893,-1e-05,-4e-05,4e-05,-2.9999999999999997e-05,-1e-05,1e-05,-1e-05,-0.0001,1
1800,1894,-2e-05,-4e-05,-2.9999999999999997e-05,-2.9999999999999997e-05,-2e-05,2.9999999999999997e-05,2.9999999999999997e-05,-5e-05,1
1801,1895,0.0,2.9999999999999997e-05,2.9999999999999997e-05,0.0,-1e-05,1e-05,-2e-05,-1e-05,1
1802,1896,0.0,2.9999999999999997e-05,2.9999999999999997e-05,0.0,-1e-05,1e-05,-2e-05,-1e-05,1
1803,1897,0.0,2.9999999999999997e-05,2.9999999999999997e-05,0.0,-1e-05,1e-05,-2e-05,-1e-05,1
1804,1898,0.0,2.9999999999999997e-05,2.9999999999999997e-05,0.0,-1e-05,1e-05,-2e-05,-1e-05,1
1805,1899,0.0,2.9999999999999997e-05,2.9999999999999997e-05,0.0,-1e-05,1e-05,-2e-05,-1e-05,1
1806,1900,0.0,2.9999999999999997e-05,2.9999999999999997e-05,0.0,-1e-05,1e-05,-2e-05,-1e-05,1
1807,1901,0.0,2.9999999999999997e-05,2.9999999999999997e-05,0.0,-1e-05,1e-05,-2e-05,-1e-05,1
1808,1902,2.9999999999999997e-05,5e-05,0.0,0.0,0.0,-1e-05,0.0,-2.9999999999999997e-05,1
1809,1903,-1e-05,-0.0001,-8e-05,-2e-05,1e-05,0.00013000000000000002,1e-05,2.9999999999999997e-05,1
1810,1904,-1e-05,-0.0001,-8e-05,-2e-05,1e-05,0.00013000000000000002,1e-05,2.9999999999999997e-05,1
1811,1905,-1e-05,-0.0001,-8e-05,-2e-05,1e-05,0.00013000000000000002,1e-05,2.9999999999999997e-05,1
1812,1906,-1e-05,-0.0001,-8e-05,-2e-05,1e-05,0.00013000000000000002,1e-05,2.9999999999999997e-05,1
1813,1907,-1e-05,-0.0001,-8e-05,-2e-05,1e-05,0.00013000000000000002,1e-05,2.9999999999999997e-05,1
1814,1908,-1e-05,-0.0001,-8e-05,-2e-05,1e-05,0.00013000000000000002,1e-05,2.9999999999999997e-05,1
1815,1909,-1e-05,-0.0001,-8e-05,-2e-05,1e-05,0.00013000000000000002,1e-05,2.9999999999999997e-05,1
1816,1910,-1e-05,-0.0001,-8e-05,-2e-05,1e-05,0.00013000000000000002,1e-05,2.9999999999999997e-05,1
1817,1911,-1e-05,-0.0001,-8e-05,-2e-05,1e-05,0.00013000000000000002,1e-05,2.9999999999999997e-05,1
1818,1912,-1e-05,-0.0001,-8e-05,-2e-05,1e-05,0.00013000000000000002,1e-05,2.9999999999999997e-05,1
1819,1913,-1e-05,-0.0001,-8e-05,-2e-05,1e-05,0.00013000000000000002,1e-05,2.9999999999999997e-05,1
1820,1914,-1e-05,-0.0001,-8e-05,-2e-05,1e-05,0.00013000000000000002,1e-05,2.9999999999999997e-05,1
1821,1915,-1e-05,-0.0001,-8e-05,-2e-05,1e-05,0.00013000000000000002,1e-05,2.9999999999999997e-05,1
1822,1916,-1e-05,-0.0001,-8e-05,-2e-05,1e-05,0.00013000000000000002,1e-05,2.9999999999999997e-05,1
1823,1917,-1e-05,-0.0001,-8e-05,-2e-05,1e-05,0.00013000000000000002,1e-05,2.9999999999999997e-05,1
1824,1918,-1e-05,-0.0001,-8e-05,-2e-05,1e-05,0.00013000000000000002,1e-05,2.9999999999999997e-05,1
1825,1919,-1e-05,-0.0001,-8e-05,-2e-05,1e-05,0.00013000000000000002,1e-05,2.9999999999999997e-05,1
1826,1920,-1e-05,-0.0001,-8e-05,-2e-05,1e-05,0.00013000000000000002,1e-05,2.9999999999999997e-05,1
1827,1921,-1e-05,-0.0001,-8e-05,-2e-05,1e-05,0.00013000000000000002,1e-05,2.9999999999999997e-05,1
1828,1922,-1e-05,-0.0001,-8e-05,-2e-05,1e-05,0.00013000000000000002,1e-05,2.9999999999999997e-05,1
1829,1923,-1e-05,-0.0001,-8e-05,-2e-05,1e-05,0.00013000000000000002,1e-05,2.9999999999999997e-05,1
1830,1924,2.9999999999999997e-05,1e-05,2e-05,2e-05,-2e-05,0.0,2.9999999999999997e-05,0.00013000000000000002,1
1831,1925,-2.9999999999999997e-05,-2e-05,-8e-05,-2e-05,0.0,-5.9999999999999995e-05,0.0,-7e-05,1
1832,1926,-2.9999999999999997e-05,-2e-05,-8e-05,-2e-05,0.0,-5.9999999999999995e-05,0.0,-7e-05,1
1833,1927,-2.9999999999999997e-05,-2e-05,-8e-05,-2e-05,0.0,-5.9999999999999995e-05,0.0,-7e-05,1
1834,1928,-2.9999999999999997e-05,-2e-05,-8e-05,-2e-05,0.0,-5.9999999999999995e-05,0.0,-7e-05,1
1835,1929,-2.9999999999999997e-05,-2e-05,-8e-05,-2e-05,0.0,-5.9999999999999995e-05,0.0,-7e-05,1
1836,1930,-2.9999999999999997e-05,-2e-05,-8e-05,-2e-05,0.0,-5.9999999999999995e-05,0.0,-7e-05,1
1837,1931,-2.9999999999999997e-05,-2e-05,-8e-05,-2e-05,0.0,-5.9999999999999995e-05,0.0,-7e-05,1
1838,1932,-2.9999999999999997e-05,-2e-05,-8e-05,-2e-05,0.0,-5.9999999999999995e-05,0.0,-7e-05,1
1839,1933,-2.9999999999999997e-05,-2e-05,-8e-05,-2e-05,0.0,-5.9999999999999995e-05,0.0,-7e-05,1
1840,1934,-2.9999999999999997e-05,-2e-05,-8e-05,-2e-05,0.0,-5.9999999999999995e-05,0.0,-7e-05,1
1841,1935,-2.9999999999999997e-05,-2e-05,-8e-05,-2e-05,0.0,-5.9999999999999995e-05,0.0,-7e-05,1
1842,1936,-2.9999999999999997e-05,-2e-05,-8e-05,-2e-05,0.0,-5.9999999999999995e-05,0.0,-7e-05,1
1843,1938,-2.9999999999999997e-05,-2e-05,-8e-05,-2e-05,0.0,-5.9999999999999995e-05,0.0,-7e-05,1
1844,1939,-2.9999999999999997e-05,-2e-05,-8e-05,-2e-05,0.0,-5.9999999999999995e-05,0.0,-7e-05,1
1845,1940,-2.9999999999999997e-05,-2e-05,-8e-05,-2e-05,0.0,-5.9999999999999995e-05,0.0,-7e-05,1
1846,1941,-2.9999999999999997e-05,-2e-05,-8e-05,-2e-05,0.0,-5.9999999999999995e-05,0.0,-7e-05,1
1847,1942,-2.9999999999999997e-05,-2e-05,-8e-05,-2e-05,0.0,-5.9999999999999995e-05,0.0,-7e-05,1
1848,1943,-2.9999999999999997e-05,-2e-05,-8e-05,-2e-05,0.0,-5.9999999999999995e-05,0.0,-7e-05,1
1849,1944,-2.9999999999999997e-05,-2e-05,-8e-05,-2e-05,0.0,-5.9999999999999995e-05,0.0,-7e-05,1
1850,1945,-2.9999999999999997e-05,-2e-05,-8e-05,-2e-05,0.0,-5.9999999999999995e-05,0.0,-7e-05,1
1851,1946,-2e-05,-1e-05,-2.9999999999999997e-05,-2e-05,-1e-05,-5e-05,0.0,-7e-05,1
1852,1947,1e-05,1e-05,2e-05,1e-05,1e-05,0.0,-1e-05,2.9999999999999997e-05,1
1853,1948,1e-05,1e-05,2e-05,1e-05,1e-05,0.0,-1e-05,2.9999999999999997e-05,1
1854,1949,1e-05,1e-05,2e-05,1e-05,1e-05,0.0,-1e-05,2.9999999999999997e-05,1
1855,1950,1e-05,1e-05,2e-05,1e-05,1e-05,0.0,-1e-05,2.9999999999999997e-05,1
1856,1951,1e-05,1e-05,2e-05,1e-05,1e-05,0.0,-1e-05,2.9999999999999997e-05,1
1857,1952,1e-05,1e-05,2e-05,1e-05,1e-05,0.0,-1e-05,2.9999999999999997e-05,1
1858,1953,1e-05,1e-05,2e-05,1e-05,1e-05,0.0,-1e-05,2.9999999999999997e-05,1
1859,1954,1e-05,1e-05,2e-05,1e-05,1e-05,0.0,-1e-05,2.9999999999999997e-05,1
1860,1955,1e-05,1e-05,2e-05,1e-05,1e-05,0.0,-1e-05,2.9999999999999997e-05,1
1861,1956,1e-05,1e-05,2e-05,1e-05,1e-05,0.0,-1e-05,2.9999999999999997e-05,1
1862,1957,1e-05,1e-05,2e-05,1e-05,1e-05,0.0,-1e-05,2.9999999999999997e-05,1
1863,1958,1e-05,1e-05,2e-05,1e-05,1e-05,0.0,-1e-05,2.9999999999999997e-05,1
1864,1959,1e-05,1e-05,2e-05,1e-05,1e-05,0.0,-1e-05,2.9999999999999997e-05,1
1865,1960,1e-05,1e-05,2e-05,1e-05,1e-05,0.0,-1e-05,2.9999999999999997e-05,1
1866,1961,1e-05,1e-05,2e-05,1e-05,1e-05,0.0,-1e-05,2.9999999999999997e-05,1
1867,1962,-2e-05,-7e-05,-1e-05,1e-05,-1e-05,-4e-05,-1e-05,0.0,1
1868,1963,-2e-05,-7e-05,-1e-05,1e-05,-1e-05,-4e-05,-1e-05,0.0,1
1869,1964,-2e-05,-7e-05,-1e-05,1e-05,-1e-05,-4e-05,-1e-05,0.0,1
1870,1965,-2e-05,-7e-05,-1e-05,1e-05,-1e-05,-4e-05,-1e-05,0.0,1
1871,1966,-2e-05,-7e-05,-1e-05,1e-05,-1e-05,-4e-05,-1e-05,0.0,1
1872,1967,-2e-05,-7e-05,-1e-05,1e-05,-1e-05,-4e-05,-1e-05,0.0,1
1873,1968,-2e-05,-7e-05,-1e-05,1e-05,-1e-05,-4e-05,-1e-05,0.0,1
1874,1969,-2e-05,-7e-05,-1e-05,1e-05,-1e-05,-4e-05,-1e-05,0.0,1
1875,1970,-2e-05,-7e-05,-1e-05,1e-05,-1e-05,-4e-05,-1e-05,0.0,1
1876,1971,-2e-05,-7e-05,-1e-05,1e-05,-1e-05,-4e-05,-1e-05,0.0,1
1877,1972,-2e-05,-7e-05,-1e-05,1e-05,-1e-05,-4e-05,-1e-05,0.0,1
1878,1973,-2e-05,-7e-05,-1e-05,1e-05,-1e-05,-4e-05,-1e-05,0.0,1
1879,1974,-2e-05,-7e-05,-1e-05,1e-05,-1e-05,-4e-05,-1e-05,0.0,1
1880,1975,-2e-05,-7e-05,-1e-05,1e-05,-1e-05,-4e-05,-1e-05,0.0,1
1881,1976,-2e-05,-7e-05,-1e-05,1e-05,-1e-05,-4e-05,-1e-05,0.0,1
1882,1977,-2e-05,-7e-05,-1e-05,1e-05,-1e-05,-4e-05,-1e-05,0.0,1
1883,1978,-2e-05,-7e-05,-1e-05,1e-05,-1e-05,-4e-05,-1e-05,0.0,1
1884,1979,-2e-05,-7e-05,-1e-05,1e-05,-1e-05,-4e-05,-1e-05,0.0,1
1885,1980,-2e-05,-7e-05,-1e-05,1e-05,-1e-05,-4e-05,-1e-05,0.0,1
1886,1981,-2e-05,-7e-05,-1e-05,1e-05,-1e-05,-4e-05,-1e-05,0.0,1
1887,1982,-2e-05,-7e-05,-1e-05,1e-05,-1e-05,-4e-05,-1e-05,0.0,1
1888,1983,-2.9999999999999997e-05,1e-05,1e-05,-1e-05,-1e-05,2.9999999999999997e-05,1e-05,-5e-05,1
1889,1984,0.0,1e-05,-2.9999999999999997e-05,0.0,-1e-05,-2.9999999999999997e-05,-2e-05,0.0,1
1890,1985,0.0,1e-05,-2.9999999999999997e-05,0.0,-1e-05,-2.9999999999999997e-05,-2e-05,0.0,1
1891,1986,0.0,1e-05,-2.9999999999999997e-05,0.0,-1e-05,-2.9999999999999997e-05,-2e-05,0.0,1
1892,1988,0.0,1e-05,-2.9999999999999997e-05,0.0,-1e-05,-2.9999999999999997e-05,-2e-05,0.0,1
1893,1989,0.0,1e-05,-2.9999999999999997e-05,0.0,-1e-05,-2.9999999999999997e-05,-2e-05,0.0,1
1894,1990,0.0,1e-05,-2.9999999999999997e-05,0.0,-1e-05,-2.9999999999999997e-05,-2e-05,0.0,1
1895,1991,0.0,1e-05,-2.9999999999999997e-05,0.0,-1e-05,-2.9999999999999997e-05,-2e-05,0.0,1
1896,1992,0.0,1e-05,-2.9999999999999997e-05,0.0,-1e-05,-2.9999999999999997e-05,-2e-05,0.0,1
1897,1993,0.0,1e-05,-2.9999999999999997e-05,0.0,-1e-05,-2.9999999999999997e-05,-2e-05,0.0,1
1898,1995,0.0,1e-05,-2.9999999999999997e-05,0.0,-1e-05,-2.9999999999999997e-05,-2e-05,0.0,1
1899,1996,0.0,1e-05,-2.9999999999999997e-05,0.0,-1e-05,-2.9999999999999997e-05,-2e-05,0.0,1
1900,1997,0.0,1e-05,-2.9999999999999997e-05,0.0,-1e-05,-2.9999999999999997e-05,-2e-05,0.0,1
1901,1998,0.0,1e-05,-2.9999999999999997e-05,0.0,-1e-05,-2.9999999999999997e-05,-2e-05,0.0,1
1902,1999,0.0,1e-05,-2.9999999999999997e-05,0.0,-1e-05,-2.9999999999999997e-05,-2e-05,0.0,1
1903,2000,0.0,1e-05,-2.9999999999999997e-05,0.0,-1e-05,-2.9999999999999997e-05,-2e-05,0.0,1
1904,2001,0.0,1e-05,-2.9999999999999997e-05,0.0,-1e-05,-2.9999999999999997e-05,-2e-05,0.0,1
1905,2002,0.0,1e-05,-2.9999999999999997e-05,0.0,-1e-05,-2.9999999999999997e-05,-2e-05,0.0,1
1906,2003,0.0,1e-05,-2.9999999999999997e-05,0.0,-1e-05,-2.9999999999999997e-05,-2e-05,0.0,1
1907,2004,0.0,1e-05,-2.9999999999999997e-05,0.0,-1e-05,-2.9999999999999997e-05,-2e-05,0.0,1
1908,2005,0.0,1e-05,-2.9999999999999997e-05,0.0,-1e-05,-2.9999999999999997e-05,-2e-05,0.0,1
1909,2006,-1e-05,-2.9999999999999997e-05,2e-05,0.0,-2.9999999999999997e-05,-8e-05,-2e-05,-2.9999999999999997e-05,1
1910,2007,-1e-05,-2.9999999999999997e-05,2e-05,0.0,-2.9999999999999997e-05,-8e-05,-2e-05,-2.9999999999999997e-05,1
1911,2008,-1e-05,-2.9999999999999997e-05,2e-05,0.0,-2.9999999999999997e-05,-8e-05,-2e-05,-2.9999999999999997e-05,1
1912,2009,-1e-05,-2.9999999999999997e-05,2e-05,0.0,-2.9999999999999997e-05,-8e-05,-2e-05,-2.9999999999999997e-05,1
1913,2010,-1e-05,-2.9999999999999997e-05,2e-05,0.0,-2.9999999999999997e-05,-8e-05,-2e-05,-2.9999999999999997e-05,1
1914,2011,-1e-05,-2.9999999999999997e-05,2e-05,0.0,-2.9999999999999997e-05,-8e-05,-2e-05,-2.9999999999999997e-05,1
1915,2012,-1e-05,-2.9999999999999997e-05,2e-05,0.0,-2.9999999999999997e-05,-8e-05,-2e-05,-2.9999999999999997e-05,1
1916,2013,1e-05,2e-05,5e-05,2e-05,-1e-05,-4e-05,-2e-05,0.0,1
1917,2014,1e-05,2e-05,5e-05,2e-05,-1e-05,-4e-05,-2e-05,0.0,1
1918,2015,1e-05,2e-05,5e-05,2e-05,-1e-05,-4e-05,-2e-05,0.0,1
1919,2016,1e-05,2e-05,5e-05,2e-05,-1e-05,-4e-05,-2e-05,0.0,1
1920,2017,1e-05,2e-05,5e-05,2e-05,-1e-05,-4e-05,-2e-05,0.0,1
1921,2018,1e-05,2e-05,5e-05,2e-05,-1e-05,-4e-05,-2e-05,0.0,1
1922,2019,-2e-05,4e-05,-4e-05,-5.9999999999999995e-05,1e-05,-2.9999999999999997e-05,-1e-05,-1e-05,1
1923,2020,-2e-05,4e-05,-4e-05,-5.9999999999999995e-05,1e-05,-2.9999999999999997e-05,-1e-05,-1e-05,1
1924,2021,-2e-05,4e-05,-4e-05,-5.9999999999999995e-05,1e-05,-2.9999999999999997e-05,-1e-05,-1e-05,1
1925,2022,-2e-05,4e-05,-4e-05,-5.9999999999999995e-05,1e-05,-2.9999999999999997e-05,-1e-05,-1e-05,1
1926,2023,-2e-05,4e-05,-4e-05,-5.9999999999999995e-05,1e-05,-2.9999999999999997e-05,-1e-05,-1e-05,1
1927,2024,-2e-05,4e-05,-4e-05,-5.9999999999999995e-05,1e-05,-2.9999999999999997e-05,-1e-05,-1e-05,1
1928,2025,-2e-05,4e-05,-4e-05,-5.9999999999999995e-05,1e-05,-2.9999999999999997e-05,-1e-05,-1e-05,1
1929,2026,-2e-05,4e-05,-4e-05,-5.9999999999999995e-05,1e-05,-2.9999999999999997e-05,-1e-05,-1e-05,1
1930,2027,-2e-05,4e-05,-4e-05,-5.9999999999999995e-05,1e-05,-2.9999999999999997e-05,-1e-05,-1e-05,1
1931,2028,-2e-05,4e-05,-4e-05,-5.9999999999999995e-05,1e-05,-2.9999999999999997e-05,-1e-05,-1e-05,1
1932,2029,-2e-05,2.9999999999999997e-05,2e-05,-1e-05,-2e-05,-2e-05,0.0,-1e-05,1
1933,2030,-2e-05,2.9999999999999997e-05,2e-05,-1e-05,-2e-05,-2e-05,0.0,-1e-05,1
1934,2031,-2e-05,2.9999999999999997e-05,2e-05,-1e-05,-2e-05,-2e-05,0.0,-1e-05,1
1935,2032,-2e-05,2.9999999999999997e-05,2e-05,-1e-05,-2e-05,-2e-05,0.0,-1e-05,1
1936,2033,-2e-05,2.9999999999999997e-05,2e-05,-1e-05,-2e-05,-2e-05,0.0,-1e-05,1
1937,2034,-2e-05,2.9999999999999997e-05,2e-05,-1e-05,-2e-05,-2e-05,0.0,-1e-05,1
1938,2035,-2e-05,2.9999999999999997e-05,2e-05,-1e-05,-2e-05,-2e-05,0.0,-1e-05,1
1939,2036,-2e-05,2.9999999999999997e-05,2e-05,-1e-05,-2e-05,-2e-05,0.0,-1e-05,1
1940,2039,-2e-05,2.9999999999999997e-05,2e-05,-1e-05,-2e-05,-2e-05,0.0,-1e-05,1
1941,2040,-2e-05,2.9999999999999997e-05,2e-05,-1e-05,-2e-05,-2e-05,0.0,-1e-05,1
1942,2041,-2e-05,2.9999999999999997e-05,2e-05,-1e-05,-2e-05,-2e-05,0.0,-1e-05,1
1943,2042,0.0,2.9999999999999997e-05,2e-05,1e-05,1e-05,5e-05,0.0,-1e-05,1
1944,2043,0.0,2.9999999999999997e-05,2e-05,1e-05,1e-05,5e-05,0.0,-1e-05,1
1945,2044,0.0,2.9999999999999997e-05,2e-05,1e-05,1e-05,5e-05,0.0,-1e-05,1
1946,2045,0.0,2.9999999999999997e-05,2e-05,1e-05,1e-05,5e-05,0.0,-1e-05,1
1947,2046,0.0,2.9999999999999997e-05,2e-05,1e-05,1e-05,5e-05,0.0,-1e-05,1
1948,2047,0.0,2.9999999999999997e-05,2e-05,1e-05,1e-05,5e-05,0.0,-1e-05,1
1949,2048,0.0,2.9999999999999997e-05,2e-05,1e-05,1e-05,5e-05,0.0,-1e-05,1
1950,2049,0.0,2.9999999999999997e-05,2e-05,1e-05,1e-05,5e-05,0.0,-1e-05,1
1951,2050,0.0,2.9999999999999997e-05,2e-05,1e-05,1e-05,5e-05,0.0,-1e-05,1
1952,2051,0.0,-2e-05,-5e-05,-2e-05,-1e-05,-2e-05,-1e-05,0.0,1
1953,2052,0.0,-2e-05,-5e-05,-2e-05,-1e-05,-2e-05,-1e-05,0.0,1
1954,2053,0.0,-2e-05,-5e-05,-2e-05,-1e-05,-2e-05,-1e-05,0.0,1
1955,2054,0.0,-2e-05,-5e-05,-2e-05,-1e-05,-2e-05,-1e-05,0.0,1
1956,2055,0.0,-2e-05,-5e-05,-2e-05,-1e-05,-2e-05,-1e-05,0.0,1
1957,2056,0.0,-2e-05,-5e-05,-2e-05,-1e-05,-2e-05,-1e-05,0.0,1
1958,2057,0.0,-2e-05,-5e-05,-2e-05,-1e-05,-2e-05,-1e-05,0.0,1
1959,2058,0.0,-2e-05,-5e-05,-2e-05,-1e-05,-2e-05,-1e-05,0.0,1
1960,2059,0.0,-2e-05,-5e-05,-2e-05,-1e-05,-2e-05,-1e-05,0.0,1
1961,2060,0.0,-2e-05,-5e-05,-2e-05,-1e-05,-2e-05,-1e-05,0.0,1
1962,2061,0.0,-2e-05,-5e-05,-2e-05,-1e-05,-2e-05,-1e-05,0.0,1
1963,2062,0.0,-2e-05,-5e-05,-2e-05,-1e-05,-2e-05,-1e-05,0.0,1
1964,2063,0.0,-2e-05,-5e-05,-2e-05,-1e-05,-2e-05,-1e-05,0.0,1
1965,2064,0.0,-2e-05,-5e-05,-2e-05,-1e-05,-2e-05,-1e-05,0.0,1
1966,2065,0.0,-2e-05,1e-05,1e-05,0.0,-8e-05,-1e-05,-2.9999999999999997e-05,1
1967,2066,1e-05,2e-05,5e-05,0.0,1e-05,2.9999999999999997e-05,-1e-05,-2.9999999999999997e-05,1
1968,2067,-2.9999999999999997e-05,-7e-05,-5e-05,-2e-05,-1e-05,-4e-05,0.0,-1e-05,1
1969,2068,-2.9999999999999997e-05,-7e-05,-5e-05,-2e-05,-1e-05,-4e-05,0.0,-1e-05,1
1970,2069,-2.9999999999999997e-05,-7e-05,-5e-05,-2e-05,-1e-05,-4e-05,0.0,-1e-05,1
1971,2070,-2.9999999999999997e-05,-7e-05,-5e-05,-2e-05,-1e-05,-4e-05,0.0,-1e-05,1
1972,2071,-2.9999999999999997e-05,-7e-05,-5e-05,-2e-05,-1e-05,-4e-05,0.0,-1e-05,1
1973,2072,-2.9999999999999997e-05,-7e-05,-5e-05,-2e-05,-1e-05,-4e-05,0.0,-1e-05,1
1974,2073,-2.9999999999999997e-05,-7e-05,-5e-05,-2e-05,-1e-05,-4e-05,0.0,-1e-05,1
1975,2074,-2.9999999999999997e-05,-7e-05,-5e-05,-2e-05,-1e-05,-4e-05,0.0,-1e-05,1
1976,2075,-2.9999999999999997e-05,-7e-05,-5e-05,-2e-05,-1e-05,-4e-05,0.0,-1e-05,1
1977,2076,-2.9999999999999997e-05,-7e-05,-5e-05,-2e-05,-1e-05,-4e-05,0.0,-1e-05,1
1978,2077,-2.9999999999999997e-05,-7e-05,-5e-05,-2e-05,-1e-05,-4e-05,0.0,-1e-05,1
1979,2078,-2.9999999999999997e-05,-7e-05,-5e-05,-2e-05,-1e-05,-4e-05,0.0,-1e-05,1
1980,2079,-2.9999999999999997e-05,-7e-05,-5e-05,-2e-05,-1e-05,-4e-05,0.0,-1e-05,1
1981,2080,-2.9999999999999997e-05,-7e-05,-5e-05,-2e-05,-1e-05,-4e-05,0.0,-1e-05,1
1982,2081,-2.9999999999999997e-05,-7e-05,-5e-05,-2e-05,-1e-05,-4e-05,0.0,-1e-05,1
1983,2082,-2.9999999999999997e-05,-7e-05,-5e-05,-2e-05,-1e-05,-4e-05,0.0,-1e-05,1
1984,2083,-2.9999999999999997e-05,-7e-05,-5e-05,-2e-05,-1e-05,-4e-05,0.0,-1e-05,1
1985,2084,-2.9999999999999997e-05,-7e-05,-5e-05,-2e-05,-1e-05,-4e-05,0.0,-1e-05,1
1986,2085,-2.9999999999999997e-05,-7e-05,-5e-05,-2e-05,-1e-05,-4e-05,0.0,-1e-05,1
1987,2086,-2.9999999999999997e-05,-7e-05,-5e-05,-2e-05,-1e-05,-4e-05,0.0,-1e-05,1
1988,2089,-2.9999999999999997e-05,-5.9999999999999995e-05,-2.9999999999999997e-05,-1e-05,-2e-05,-4e-05,0.0,-2e-05,1
1989,2090,2e-05,2e-05,-1e-05,0.0,0.0,-5e-05,-1e-05,1e-05,1
1990,2091,2e-05,2e-05,-1e-05,0.0,0.0,-5e-05,-1e-05,1e-05,1
1991,2092,2e-05,2e-05,-1e-05,0.0,0.0,-5e-05,-1e-05,1e-05,1
1992,2093,2e-05,2e-05,-1e-05,0.0,0.0,-5e-05,-1e-05,1e-05,1
1993,2094,2e-05,2e-05,-1e-05,0.0,0.0,-5e-05,-1e-05,1e-05,1
1994,2095,2e-05,2e-05,-1e-05,0.0,0.0,-5e-05,-1e-05,1e-05,1
1995,2096,2e-05,2e-05,-1e-05,0.0,0.0,-5e-05,-1e-05,1e-05,1
1996,2097,2e-05,2e-05,-1e-05,0.0,0.0,-5e-05,-1e-05,1e-05,1
1997,2098,2e-05,2e-05,-1e-05,0.0,0.0,-5e-05,-1e-05,1e-05,1
1998,2099,2e-05,2e-05,-1e-05,0.0,0.0,-5e-05,-1e-05,1e-05,1
1999,2100,2e-05,2e-05,-1e-05,0.0,0.0,-5e-05,-1e-05,1e-05,1
2000,2101,2e-05,2e-05,-1e-05,0.0,0.0,-5e-05,-1e-05,1e-05,1
2001,2102,2e-05,2e-05,-1e-05,0.0,0.0,-5e-05,-1e-05,1e-05,1
2002,2103,2e-05,2e-05,-1e-05,0.0,0.0,-5e-05,-1e-05,1e-05,1
2003,2104,2e-05,2e-05,-1e-05,0.0,0.0,-5e-05,-1e-05,1e-05,1
2004,2105,2e-05,2e-05,-1e-05,0.0,0.0,-5e-05,-1e-05,1e-05,1
2005,2106,2e-05,2e-05,-1e-05,0.0,0.0,-5e-05,-1e-05,1e-05,1
2006,2107,2e-05,2e-05,-1e-05,0.0,0.0,-5e-05,-1e-05,1e-05,1
2007,2108,2e-05,2e-05,-1e-05,0.0,0.0,-5e-05,-1e-05,1e-05,1
2008,2109,2e-05,2e-05,-1e-05,0.0,0.0,-5e-05,-1e-05,1e-05,1
2009,2110,0.0,4e-05,4e-05,0.0,0.0,4e-05,-2e-05,0.0,1
2010,2111,-1e-05,-2.9999999999999997e-05,-1e-05,-1e-05,-1e-05,1e-05,-1e-05,1e-05,1
2011,2112,-1e-05,-2.9999999999999997e-05,-1e-05,-1e-05,-1e-05,1e-05,-1e-05,1e-05,1
2012,2113,-4e-05,-2.9999999999999997e-05,-5.9999999999999995e-05,-1e-05,-2.9999999999999997e-05,-7e-05,-4e-05,-4e-05,1
2013,2114,-4e-05,-2.9999999999999997e-05,-5.9999999999999995e-05,-1e-05,-2.9999999999999997e-05,-7e-05,-4e-05,-4e-05,1
2014,2115,-4e-05,-2.9999999999999997e-05,-5.9999999999999995e-05,-1e-05,-2.9999999999999997e-05,-7e-05,-4e-05,-4e-05,1
2015,2116,-4e-05,-2.9999999999999997e-05,-5.9999999999999995e-05,-1e-05,-2.9999999999999997e-05,-7e-05,-4e-05,-4e-05,1
2016,2117,-4e-05,-2.9999999999999997e-05,-5.9999999999999995e-05,-1e-05,-2.9999999999999997e-05,-7e-05,-4e-05,-4e-05,1
2017,2118,-4e-05,-2.9999999999999997e-05,-5.9999999999999995e-05,-1e-05,-2.9999999999999997e-05,-7e-05,-4e-05,-4e-05,1
2018,2119,-4e-05,-2.9999999999999997e-05,-5.9999999999999995e-05,-1e-05,-2.9999999999999997e-05,-7e-05,-4e-05,-4e-05,1
2019,2120,-4e-05,-2.9999999999999997e-05,-5.9999999999999995e-05,-1e-05,-2.9999999999999997e-05,-7e-05,-4e-05,-4e-05,1
2020,2121,-4e-05,-2.9999999999999997e-05,-5.9999999999999995e-05,-1e-05,-2.9999999999999997e-05,-7e-05,-4e-05,-4e-05,1
2021,2122,-4e-05,-2.9999999999999997e-05,-5.9999999999999995e-05,-1e-05,-2.9999999999999997e-05,-7e-05,-4e-05,-4e-05,1
2022,2123,-4e-05,-2.9999999999999997e-05,-5.9999999999999995e-05,-1e-05,-2.9999999999999997e-05,-7e-05,-4e-05,-4e-05,1
2023,2124,-4e-05,-2.9999999999999997e-05,-5.9999999999999995e-05,-1e-05,-2.9999999999999997e-05,-7e-05,-4e-05,-4e-05,1
2024,2125,-4e-05,-2.9999999999999997e-05,-5.9999999999999995e-05,-1e-05,-2.9999999999999997e-05,-7e-05,-4e-05,-4e-05,1
2025,2126,-4e-05,-2.9999999999999997e-05,-5.9999999999999995e-05,-1e-05,-2.9999999999999997e-05,-7e-05,-4e-05,-4e-05,1
2026,2127,-4e-05,-2.9999999999999997e-05,-5.9999999999999995e-05,-1e-05,-2.9999999999999997e-05,-7e-05,-4e-05,-4e-05,1
2027,2128,-4e-05,-2.9999999999999997e-05,-5.9999999999999995e-05,-1e-05,-2.9999999999999997e-05,-7e-05,-4e-05,-4e-05,1
2028,2129,-4e-05,-2.9999999999999997e-05,-5.9999999999999995e-05,-1e-05,-2.9999999999999997e-05,-7e-05,-4e-05,-4e-05,1
2029,2130,-4e-05,-2.9999999999999997e-05,-5.9999999999999995e-05,-1e-05,-2.9999999999999997e-05,-7e-05,-4e-05,-4e-05,1
2030,2131,-4e-05,-2.9999999999999997e-05,-5.9999999999999995e-05,-1e-05,-2.9999999999999997e-05,-7e-05,-4e-05,-4e-05,1
2031,2132,-4e-05,-2.9999999999999997e-05,-5.9999999999999995e-05,-1e-05,-2.9999999999999997e-05,-7e-05,-4e-05,-4e-05,1
2032,2133,0.0,-1e-05,4e-05,0.0,1e-05,4e-05,1e-05,-1e-05,1
2033,2134,-2e-05,0.0,0.0,0.0,-1e-05,-8e-05,0.0,0.0,1
2034,2135,-2e-05,0.0,0.0,0.0,-1e-05,-8e-05,0.0,0.0,1
2035,2136,0.0,1e-05,-1e-05,-2.9999999999999997e-05,-2e-05,5.9999999999999995e-05,1e-05,0.0,1
2036,2138,0.0,1e-05,-1e-05,-2.9999999999999997e-05,-2e-05,5.9999999999999995e-05,1e-05,0.0,1
2037,2140,0.0,1e-05,-1e-05,-2.9999999999999997e-05,-2e-05,5.9999999999999995e-05,1e-05,0.0,1
2038,2141,0.0,1e-05,-1e-05,-2.9999999999999997e-05,-2e-05,5.9999999999999995e-05,1e-05,0.0,1
2039,2142,0.0,1e-05,-1e-05,-2.9999999999999997e-05,-2e-05,5.9999999999999995e-05,1e-05,0.0,1
2040,2143,0.0,1e-05,-1e-05,-2.9999999999999997e-05,-2e-05,5.9999999999999995e-05,1e-05,0.0,1
2041,2144,0.0,1e-05,-1e-05,-2.9999999999999997e-05,-2e-05,5.9999999999999995e-05,1e-05,0.0,1
2042,2145,0.0,1e-05,-1e-05,-2.9999999999999997e-05,-2e-05,5.9999999999999995e-05,1e-05,0.0,1
2043,2146,0.0,1e-05,-1e-05,-2.9999999999999997e-05,-2e-05,5.9999999999999995e-05,1e-05,0.0,1
2044,2147,0.0,1e-05,-1e-05,-2.9999999999999997e-05,-2e-05,5.9999999999999995e-05,1e-05,0.0,1
2045,2148,0.0,1e-05,-1e-05,-2.9999999999999997e-05,-2e-05,5.9999999999999995e-05,1e-05,0.0,1
2046,2149,0.0,1e-05,-1e-05,-2.9999999999999997e-05,-2e-05,5.9999999999999995e-05,1e-05,0.0,1
2047,2150,0.0,1e-05,-1e-05,-2.9999999999999997e-05,-2e-05,5.9999999999999995e-05,1e-05,0.0,1
2048,2151,0.0,1e-05,-1e-05,-2.9999999999999997e-05,-2e-05,5.9999999999999995e-05,1e-05,0.0,1
2049,2152,0.0,1e-05,-1e-05,-2.9999999999999997e-05,-2e-05,5.9999999999999995e-05,1e-05,0.0,1
2050,2153,0.0,1e-05,-1e-05,-2.9999999999999997e-05,-2e-05,5.9999999999999995e-05,1e-05,0.0,1
2051,2154,0.0,1e-05,-1e-05,-2.9999999999999997e-05,-2e-05,5.9999999999999995e-05,1e-05,0.0,1
2052,2155,0.0,1e-05,-1e-05,-2.9999999999999997e-05,-2e-05,5.9999999999999995e-05,1e-05,0.0,1
2053,2156,-2e-05,-4e-05,-4e-05,-4e-05,-5e-05,-1e-05,-2.9999999999999997e-05,-1e-05,1
2054,2157,-2.9999999999999997e-05,-9e-05,-2.9999999999999997e-05,-4e-05,0.0,0.00011,-1e-05,0.0,1
2055,2158,-2.9999999999999997e-05,-9e-05,-2.9999999999999997e-05,-4e-05,0.0,0.00011,-1e-05,0.0,1
2056,2159,-2.9999999999999997e-05,-9e-05,-2.9999999999999997e-05,-4e-05,0.0,0.00011,-1e-05,0.0,1
2057,2160,-2.9999999999999997e-05,-9e-05,-2.9999999999999997e-05,-4e-05,0.0,0.00011,-1e-05,0.0,1
2058,2161,-2.9999999999999997e-05,-9e-05,-2.9999999999999997e-05,-4e-05,0.0,0.00011,-1e-05,0.0,1
2059,2162,-2.9999999999999997e-05,-9e-05,-2.9999999999999997e-05,-4e-05,0.0,0.00011,-1e-05,0.0,1
2060,2163,-2.9999999999999997e-05,-9e-05,-2.9999999999999997e-05,-4e-05,0.0,0.00011,-1e-05,0.0,1
2061,2164,-2.9999999999999997e-05,-9e-05,-2.9999999999999997e-05,-4e-05,0.0,0.00011,-1e-05,0.0,1
2062,2165,-2.9999999999999997e-05,-9e-05,-2.9999999999999997e-05,-4e-05,0.0,0.00011,-1e-05,0.0,1
2063,2166,-2.9999999999999997e-05,-9e-05,-2.9999999999999997e-05,-4e-05,0.0,0.00011,-1e-05,0.0,1
2064,2167,-2.9999999999999997e-05,-9e-05,-2.9999999999999997e-05,-4e-05,0.0,0.00011,-1e-05,0.0,1
2065,2168,-2.9999999999999997e-05,-9e-05,-2.9999999999999997e-05,-4e-05,0.0,0.00011,-1e-05,0.0,1
2066,2169,-2.9999999999999997e-05,-9e-05,-2.9999999999999997e-05,-4e-05,0.0,0.00011,-1e-05,0.0,1
2067,2170,-2.9999999999999997e-05,-9e-05,-2.9999999999999997e-05,-4e-05,0.0,0.00011,-1e-05,0.0,1
2068,2171,0.0,2e-05,2e-05,0.0,0.0,-7e-05,-2e-05,1e-05,1
2069,2172,0.0,2e-05,2e-05,0.0,0.0,-7e-05,-2e-05,1e-05,1
2070,2173,0.0,2e-05,2e-05,0.0,0.0,-7e-05,-2e-05,1e-05,1
2071,2174,0.0,2e-05,2e-05,0.0,0.0,-7e-05,-2e-05,1e-05,1
2072,2175,0.0,2e-05,2e-05,0.0,0.0,-7e-05,-2e-05,1e-05,1
2073,2176,0.0,2e-05,2e-05,0.0,0.0,-7e-05,-2e-05,1e-05,1
2074,2177,0.0,2e-05,2e-05,0.0,0.0,-7e-05,-2e-05,1e-05,1
2075,2178,0.0,0.0,-2e-05,-1e-05,-2.9999999999999997e-05,-5e-05,-1e-05,1e-05,1
2076,2179,0.0,0.0,-2e-05,-1e-05,-2.9999999999999997e-05,-5e-05,-1e-05,1e-05,1
2077,2180,0.0,0.0,-2e-05,-1e-05,-2.9999999999999997e-05,-5e-05,-1e-05,1e-05,1
2078,2181,0.0,0.0,-2e-05,-1e-05,-2.9999999999999997e-05,-5e-05,-1e-05,1e-05,1
2079,2182,0.0,0.0,-2e-05,-1e-05,-2.9999999999999997e-05,-5e-05,-1e-05,1e-05,1
2080,2183,0.0,0.0,-2e-05,-1e-05,-2.9999999999999997e-05,-5e-05,-1e-05,1e-05,1
2081,2184,0.0,0.0,-2e-05,-1e-05,-2.9999999999999997e-05,-5e-05,-1e-05,1e-05,1
2082,2185,0.0,0.0,-2e-05,-1e-05,-2.9999999999999997e-05,-5e-05,-1e-05,1e-05,1
2083,2186,0.0,0.0,-2e-05,-1e-05,-2.9999999999999997e-05,-5e-05,-1e-05,1e-05,1
2084,2189,0.0,0.0,-2e-05,-1e-05,-2.9999999999999997e-05,-5e-05,-1e-05,1e-05,1
2085,2190,0.0,0.0,-2e-05,-1e-05,-2.9999999999999997e-05,-5e-05,-1e-05,1e-05,1
2086,2191,0.0,0.0,-2e-05,-1e-05,-2.9999999999999997e-05,-5e-05,-1e-05,1e-05,1
2087,2192,0.0,0.0,-2e-05,-1e-05,-2.9999999999999997e-05,-5e-05,-1e-05,1e-05,1
2088,2193,0.0,0.0,-2e-05,-1e-05,-2.9999999999999997e-05,-5e-05,-1e-05,1e-05,1
2089,2194,0.0,0.0,-2e-05,-1e-05,-2.9999999999999997e-05,-5e-05,-1e-05,1e-05,1
2090,2195,0.0,0.0,-2e-05,-1e-05,-2.9999999999999997e-05,-5e-05,-1e-05,1e-05,1
2091,2196,0.0,0.0,-2e-05,-1e-05,-2.9999999999999997e-05,-5e-05,-1e-05,1e-05,1
2092,2197,0.0,0.0,-2e-05,-1e-05,-2.9999999999999997e-05,-5e-05,-1e-05,1e-05,1
2093,2198,0.0,0.0,-2e-05,-1e-05,-2.9999999999999997e-05,-5e-05,-1e-05,1e-05,1
2094,2199,0.0,0.0,-2e-05,-1e-05,-2.9999999999999997e-05,-5e-05,-1e-05,1e-05,1
2095,2200,0.0,0.0,-2e-05,-1e-05,-2.9999999999999997e-05,-5e-05,-1e-05,1e-05,1
2096,2201,0.0,-2.9999999999999997e-05,1e-05,1e-05,2e-05,0.0,-2e-05,-2.9999999999999997e-05,1
2097,2202,0.0,-2.9999999999999997e-05,1e-05,1e-05,2e-05,0.0,-2e-05,-2.9999999999999997e-05,1
2098,2203,0.0,2e-05,2e-05,1e-05,0.0,-4e-05,-2e-05,-1e-05,1
2099,2204,-1e-05,-1e-05,2.9999999999999997e-05,0.0,0.0,0.0,-1e-05,-1e-05,1
2100,2205,-1e-05,-1e-05,2.9999999999999997e-05,0.0,0.0,0.0,-1e-05,-1e-05,1
2101,2206,-1e-05,-1e-05,2.9999999999999997e-05,0.0,0.0,0.0,-1e-05,-1e-05,1
2102,2207,-1e-05,-1e-05,2.9999999999999997e-05,0.0,0.0,0.0,-1e-05,-1e-05,1
2103,2208,-1e-05,-1e-05,2.9999999999999997e-05,0.0,0.0,0.0,-1e-05,-1e-05,1
2104,2209,-1e-05,-1e-05,2.9999999999999997e-05,0.0,0.0,0.0,-1e-05,-1e-05,1
2105,2210,-1e-05,-1e-05,2.9999999999999997e-05,0.0,0.0,0.0,-1e-05,-1e-05,1
2106,2211,-1e-05,-1e-05,2.9999999999999997e-05,0.0,0.0,0.0,-1e-05,-1e-05,1
2107,2212,-1e-05,-1e-05,2.9999999999999997e-05,0.0,0.0,0.0,-1e-05,-1e-05,1
2108,2213,-1e-05,-1e-05,2.9999999999999997e-05,0.0,0.0,0.0,-1e-05,-1e-05,1
2109,2214,-1e-05,-1e-05,2.9999999999999997e-05,0.0,0.0,0.0,-1e-05,-1e-05,1
2110,2215,-1e-05,-1e-05,2.9999999999999997e-05,0.0,0.0,0.0,-1e-05,-1e-05,1
2111,2216,0.0,0.0,-2e-05,-4e-05,1e-05,-5e-05,0.0,-1e-05,1
2112,2217,0.0,0.0,-2e-05,-4e-05,1e-05,-5e-05,0.0,-1e-05,1
2113,2218,0.0,0.0,-2e-05,-4e-05,1e-05,-5e-05,0.0,-1e-05,1
2114,2219,0.0,0.0,-2e-05,-4e-05,1e-05,-5e-05,0.0,-1e-05,1
2115,2220,0.0,0.0,-2e-05,-4e-05,1e-05,-5e-05,0.0,-1e-05,1
2116,2221,0.0,0.0,-2e-05,-4e-05,1e-05,-5e-05,0.0,-1e-05,1
2117,2222,0.0,0.0,-2e-05,-4e-05,1e-05,-5e-05,0.0,-1e-05,1
2118,2223,-2e-05,0.0,-2.9999999999999997e-05,-1e-05,-1e-05,-2e-05,-1e-05,-1e-05,1
2119,2224,-2e-05,0.0,-2.9999999999999997e-05,-1e-05,-1e-05,-2e-05,-1e-05,-1e-05,1
2120,2225,-2e-05,-2.9999999999999997e-05,-2e-05,-1e-05,-2.9999999999999997e-05,-4e-05,-1e-05,1e-05,1
2121,2226,-2e-05,-2.9999999999999997e-05,-2e-05,-1e-05,-2.9999999999999997e-05,-4e-05,-1e-05,1e-05,1
2122,2227,-2e-05,-2.9999999999999997e-05,-2e-05,-1e-05,-2.9999999999999997e-05,-4e-05,-1e-05,1e-05,1
2123,2228,-2e-05,-2.9999999999999997e-05,-2e-05,-1e-05,-2.9999999999999997e-05,-4e-05,-1e-05,1e-05,1
2124,2229,-2e-05,-2.9999999999999997e-05,-2e-05,-1e-05,-2.9999999999999997e-05,-4e-05,-1e-05,1e-05,1
2125,2230,-2e-05,-2.9999999999999997e-05,-2e-05,-1e-05,-2.9999999999999997e-05,-4e-05,-1e-05,1e-05,1
2126,2231,-2e-05,-2.9999999999999997e-05,-2e-05,-1e-05,-2.9999999999999997e-05,-4e-05,-1e-05,1e-05,1
2127,2232,-2e-05,-2.9999999999999997e-05,-2e-05,-1e-05,-2.9999999999999997e-05,-4e-05,-1e-05,1e-05,1
2128,2233,-2e-05,-2.9999999999999997e-05,-2e-05,-1e-05,-2.9999999999999997e-05,-4e-05,-1e-05,1e-05,1
2129,2234,-2e-05,-2.9999999999999997e-05,-2e-05,-1e-05,-2.9999999999999997e-05,-4e-05,-1e-05,1e-05,1
2130,2235,-2e-05,-2.9999999999999997e-05,-2e-05,-1e-05,-2.9999999999999997e-05,-4e-05,-1e-05,1e-05,1
2131,2236,-2e-05,-2.9999999999999997e-05,-2e-05,-1e-05,-2.9999999999999997e-05,-4e-05,-1e-05,1e-05,1
2132,2239,-2e-05,-2.9999999999999997e-05,-2e-05,-1e-05,-2.9999999999999997e-05,-4e-05,-1e-05,1e-05,1
2133,2240,-2e-05,-2.9999999999999997e-05,-2e-05,-1e-05,-2.9999999999999997e-05,-4e-05,-1e-05,1e-05,1
2134,2241,-2e-05,-2.9999999999999997e-05,-2e-05,-1e-05,-2.9999999999999997e-05,-4e-05,-1e-05,1e-05,1
2135,2242,-2e-05,-2.9999999999999997e-05,-2e-05,-1e-05,-2.9999999999999997e-05,-4e-05,-1e-05,1e-05,1
2136,2243,-2e-05,-2.9999999999999997e-05,-2e-05,-1e-05,-2.9999999999999997e-05,-4e-05,-1e-05,1e-05,1
2137,2244,-2e-05,-2.9999999999999997e-05,-2e-05,-1e-05,-2.9999999999999997e-05,-4e-05,-1e-05,1e-05,1
2138,2245,-2e-05,-2.9999999999999997e-05,-2e-05,-1e-05,-2.9999999999999997e-05,-4e-05,-1e-05,1e-05,1
2139,2246,-2e-05,-2.9999999999999997e-05,-2e-05,-1e-05,-2.9999999999999997e-05,-4e-05,-1e-05,1e-05,1
2140,2247,-2e-05,-5e-05,-9e-05,-1e-05,0.0,-4e-05,-1e-05,-2.9999999999999997e-05,1
2141,2248,-2e-05,-5e-05,-9e-05,-1e-05,0.0,-4e-05,-1e-05,-2.9999999999999997e-05,1
2142,2249,-2e-05,-5e-05,-9e-05,-1e-05,0.0,-4e-05,-1e-05,-2.9999999999999997e-05,1
2143,2250,-2e-05,-5e-05,-9e-05,-1e-05,0.0,-4e-05,-1e-05,-2.9999999999999997e-05,1
2144,2251,-2e-05,-5e-05,-9e-05,-1e-05,0.0,-4e-05,-1e-05,-2.9999999999999997e-05,1
2145,2252,-2e-05,-5e-05,-9e-05,-1e-05,0.0,-4e-05,-1e-05,-2.9999999999999997e-05,1
2146,2253,-2e-05,-5e-05,-9e-05,-1e-05,0.0,-4e-05,-1e-05,-2.9999999999999997e-05,1
2147,2254,-2e-05,-5e-05,-9e-05,-1e-05,0.0,-4e-05,-1e-05,-2.9999999999999997e-05,1
2148,2255,-2e-05,-5e-05,-9e-05,-1e-05,0.0,-4e-05,-1e-05,-2.9999999999999997e-05,1
2149,2256,-2e-05,-5e-05,-9e-05,-1e-05,0.0,-4e-05,-1e-05,-2.9999999999999997e-05,1
2150,2257,-2e-05,-5e-05,-9e-05,-1e-05,0.0,-4e-05,-1e-05,-2.9999999999999997e-05,1
2151,2258,-2e-05,-5e-05,-9e-05,-1e-05,0.0,-4e-05,-1e-05,-2.9999999999999997e-05,1
2152,2259,0.0,2.9999999999999997e-05,0.0,-1e-05,-1e-05,-1e-05,-2e-05,-2e-05,1
2153,2260,0.0,2.9999999999999997e-05,0.0,-1e-05,-1e-05,-1e-05,-2e-05,-2e-05,1
2154,2261,0.0,2.9999999999999997e-05,0.0,-1e-05,-1e-05,-1e-05,-2e-05,-2e-05,1
2155,2262,0.0,2.9999999999999997e-05,0.0,-1e-05,-1e-05,-1e-05,-2e-05,-2e-05,1
2156,2263,0.0,2.9999999999999997e-05,0.0,-1e-05,-1e-05,-1e-05,-2e-05,-2e-05,1
2157,2264,0.0,2.9999999999999997e-05,0.0,-1e-05,-1e-05,-1e-05,-2e-05,-2e-05,1
2158,2265,0.0,2.9999999999999997e-05,0.0,-1e-05,-1e-05,-1e-05,-2e-05,-2e-05,1
2159,2266,0.0,2.9999999999999997e-05,0.0,-1e-05,-1e-05,-1e-05,-2e-05,-2e-05,1
2160,2267,0.0,2.9999999999999997e-05,0.0,-1e-05,-1e-05,-1e-05,-2e-05,-2e-05,1
2161,2268,1e-05,2e-05,4e-05,-1e-05,-2.9999999999999997e-05,1e-05,1e-05,-1e-05,1
2162,2269,1e-05,2e-05,4e-05,-1e-05,-2.9999999999999997e-05,1e-05,1e-05,-1e-05,1
2163,2270,1e-05,2e-05,4e-05,-1e-05,-2.9999999999999997e-05,1e-05,1e-05,-1e-05,1
2164,2271,1e-05,2e-05,4e-05,-1e-05,-2.9999999999999997e-05,1e-05,1e-05,-1e-05,1
2165,2272,1e-05,2e-05,4e-05,-1e-05,-2.9999999999999997e-05,1e-05,1e-05,-1e-05,1
2166,2273,1e-05,2e-05,4e-05,-1e-05,-2.9999999999999997e-05,1e-05,1e-05,-1e-05,1
2167,2274,1e-05,2e-05,4e-05,-1e-05,-2.9999999999999997e-05,1e-05,1e-05,-1e-05,1
2168,2275,1e-05,2e-05,4e-05,-1e-05,-2.9999999999999997e-05,1e-05,1e-05,-1e-05,1
2169,2276,1e-05,2e-05,4e-05,-1e-05,-2.9999999999999997e-05,1e-05,1e-05,-1e-05,1
2170,2277,1e-05,2e-05,4e-05,-1e-05,-2.9999999999999997e-05,1e-05,1e-05,-1e-05,1
2171,2278,1e-05,2e-05,4e-05,-1e-05,-2.9999999999999997e-05,1e-05,1e-05,-1e-05,1
2172,2279,1e-05,2e-05,4e-05,-1e-05,-2.9999999999999997e-05,1e-05,1e-05,-1e-05,1
2173,2280,1e-05,2e-05,4e-05,-1e-05,-2.9999999999999997e-05,1e-05,1e-05,-1e-05,1
2174,2281,1e-05,2e-05,4e-05,-1e-05,-2.9999999999999997e-05,1e-05,1e-05,-1e-05,1
2175,2282,1e-05,2e-05,4e-05,-1e-05,-2.9999999999999997e-05,1e-05,1e-05,-1e-05,1
2176,2283,-1e-05,2e-05,-5e-05,-1e-05,-2e-05,-2e-05,0.0,0.0,1
2177,2284,-1e-05,2e-05,-5e-05,-1e-05,-2e-05,-2e-05,0.0,0.0,1
2178,2285,0.0,2.9999999999999997e-05,2.9999999999999997e-05,-2e-05,-2e-05,0.0,-2e-05,-2.9999999999999997e-05,1
2179,2286,0.0,2.9999999999999997e-05,2.9999999999999997e-05,-2e-05,-2e-05,0.0,-2e-05,-2.9999999999999997e-05,1
2180,2288,0.0,2.9999999999999997e-05,2.9999999999999997e-05,-2e-05,-2e-05,0.0,-2e-05,-2.9999999999999997e-05,1
2181,2289,0.0,2.9999999999999997e-05,2.9999999999999997e-05,-2e-05,-2e-05,0.0,-2e-05,-2.9999999999999997e-05,1
2182,2290,0.0,2.9999999999999997e-05,2.9999999999999997e-05,-2e-05,-2e-05,0.0,-2e-05,-2.9999999999999997e-05,1
2183,2291,0.0,2.9999999999999997e-05,2.9999999999999997e-05,-2e-05,-2e-05,0.0,-2e-05,-2.9999999999999997e-05,1
2184,2292,0.0,2.9999999999999997e-05,2.9999999999999997e-05,-2e-05,-2e-05,0.0,-2e-05,-2.9999999999999997e-05,1
2185,2293,0.0,2.9999999999999997e-05,2.9999999999999997e-05,-2e-05,-2e-05,0.0,-2e-05,-2.9999999999999997e-05,1
2186,2294,0.0,2.9999999999999997e-05,2.9999999999999997e-05,-2e-05,-2e-05,0.0,-2e-05,-2.9999999999999997e-05,1
2187,2295,0.0,2.9999999999999997e-05,2.9999999999999997e-05,-2e-05,-2e-05,0.0,-2e-05,-2.9999999999999997e-05,1
2188,2296,0.0,2.9999999999999997e-05,2.9999999999999997e-05,-2e-05,-2e-05,0.0,-2e-05,-2.9999999999999997e-05,1
2189,2297,0.0,2.9999999999999997e-05,2.9999999999999997e-05,-2e-05,-2e-05,0.0,-2e-05,-2.9999999999999997e-05,1
2190,2298,0.0,2.9999999999999997e-05,2.9999999999999997e-05,-2e-05,-2e-05,0.0,-2e-05,-2.9999999999999997e-05,1
2191,2299,0.0,2.9999999999999997e-05,2.9999999999999997e-05,-2e-05,-2e-05,0.0,-2e-05,-2.9999999999999997e-05,1
2192,2300,0.0,2.9999999999999997e-05,2.9999999999999997e-05,-2e-05,-2e-05,0.0,-2e-05,-2.9999999999999997e-05,1
2193,2301,0.0,2.9999999999999997e-05,2.9999999999999997e-05,-2e-05,-2e-05,0.0,-2e-05,-2.9999999999999997e-05,1
2194,2302,0.0,2.9999999999999997e-05,2.9999999999999997e-05,-2e-05,-2e-05,0.0,-2e-05,-2.9999999999999997e-05,1
2195,2303,0.0,2.9999999999999997e-05,2.9999999999999997e-05,-2e-05,-2e-05,0.0,-2e-05,-2.9999999999999997e-05,1
2196,2304,0.0,2.9999999999999997e-05,2.9999999999999997e-05,-2e-05,-2e-05,0.0,-2e-05,-2.9999999999999997e-05,1
2197,2305,0.0,2.9999999999999997e-05,2.9999999999999997e-05,-2e-05,-2e-05,0.0,-2e-05,-2.9999999999999997e-05,1
2198,2306,-1e-05,1e-05,0.0,1e-05,0.0,0.00013000000000000002,0.0,-1e-05,1
2199,2307,0.0,-2e-05,1e-05,1e-05,0.0,-1e-05,-1e-05,-2e-05,1
2200,2308,0.0,-2e-05,1e-05,1e-05,0.0,-1e-05,-1e-05,-2e-05,1
2201,2309,0.0,-2e-05,1e-05,1e-05,0.0,-1e-05,-1e-05,-2e-05,1
2202,2310,0.0,-2e-05,1e-05,1e-05,0.0,-1e-05,-1e-05,-2e-05,1
2203,2311,0.0,-2e-05,1e-05,1e-05,0.0,-1e-05,-1e-05,-2e-05,1
2204,2312,0.0,-2e-05,1e-05,1e-05,0.0,-1e-05,-1e-05,-2e-05,1
2205,2313,0.0,-2e-05,1e-05,1e-05,0.0,-1e-05,-1e-05,-2e-05,1
2206,2314,0.0,-2e-05,1e-05,1e-05,0.0,-1e-05,-1e-05,-2e-05,1
2207,2315,0.0,-2e-05,1e-05,1e-05,0.0,-1e-05,-1e-05,-2e-05,1
2208,2316,0.0,-2e-05,1e-05,1e-05,0.0,-1e-05,-1e-05,-2e-05,1
2209,2317,0.0,-2e-05,1e-05,1e-05,0.0,-1e-05,-1e-05,-2e-05,1
2210,2318,0.0,-2e-05,1e-05,1e-05,0.0,-1e-05,-1e-05,-2e-05,1
2211,2319,0.0,0.0,0.0,2e-05,-1e-05,-2e-05,-2.9999999999999997e-05,-2e-05,1
2212,2320,0.0,0.0,0.0,2e-05,-1e-05,-2e-05,-2.9999999999999997e-05,-2e-05,1
2213,2321,0.0,0.0,0.0,2e-05,-1e-05,-2e-05,-2.9999999999999997e-05,-2e-05,1
2214,2322,0.0,0.0,0.0,2e-05,-1e-05,-2e-05,-2.9999999999999997e-05,-2e-05,1
2215,2323,0.0,0.0,0.0,2e-05,-1e-05,-2e-05,-2.9999999999999997e-05,-2e-05,1
2216,2324,0.0,0.0,0.0,2e-05,-1e-05,-2e-05,-2.9999999999999997e-05,-2e-05,1
2217,2325,0.0,0.0,0.0,2e-05,-1e-05,-2e-05,-2.9999999999999997e-05,-2e-05,1
2218,2326,0.0,0.0,0.0,2e-05,-1e-05,-2e-05,-2.9999999999999997e-05,-2e-05,1
2219,2327,0.0,0.0,0.0,2e-05,-1e-05,-2e-05,-2.9999999999999997e-05,-2e-05,1
2220,2328,-2e-05,-2e-05,-7e-05,-2.9999999999999997e-05,-2.9999999999999997e-05,-2e-05,-2.9999999999999997e-05,0.0,1
2221,2329,-2e-05,-2e-05,-7e-05,-2.9999999999999997e-05,-2.9999999999999997e-05,-2e-05,-2.9999999999999997e-05,0.0,1
2222,2330,-2e-05,-2e-05,-7e-05,-2.9999999999999997e-05,-2.9999999999999997e-05,-2e-05,-2.9999999999999997e-05,0.0,1
2223,2331,-2e-05,-2e-05,-7e-05,-2.9999999999999997e-05,-2.9999999999999997e-05,-2e-05,-2.9999999999999997e-05,0.0,1
2224,2332,-2e-05,-2e-05,-7e-05,-2.9999999999999997e-05,-2.9999999999999997e-05,-2e-05,-2.9999999999999997e-05,0.0,1
2225,2333,-2e-05,-2e-05,-7e-05,-2.9999999999999997e-05,-2.9999999999999997e-05,-2e-05,-2.9999999999999997e-05,0.0,1
2226,2334,-2e-05,-2e-05,-7e-05,-2.9999999999999997e-05,-2.9999999999999997e-05,-2e-05,-2.9999999999999997e-05,0.0,1
2227,2335,-2e-05,-2e-05,-7e-05,-2.9999999999999997e-05,-2.9999999999999997e-05,-2e-05,-2.9999999999999997e-05,0.0,1
2228,2336,-2e-05,-2e-05,-7e-05,-2.9999999999999997e-05,-2.9999999999999997e-05,-2e-05,-2.9999999999999997e-05,0.0,1
2229,2339,-2e-05,-2e-05,-7e-05,-2.9999999999999997e-05,-2.9999999999999997e-05,-2e-05,-2.9999999999999997e-05,0.0,1
2230,2340,-2e-05,-2e-05,-7e-05,-2.9999999999999997e-05,-2.9999999999999997e-05,-2e-05,-2.9999999999999997e-05,0.0,1
2231,2341,-2e-05,-2e-05,-7e-05,-2.9999999999999997e-05,-2.9999999999999997e-05,-2e-05,-2.9999999999999997e-05,0.0,1
2232,2342,-2e-05,-2e-05,-7e-05,-2.9999999999999997e-05,-2.9999999999999997e-05,-2e-05,-2.9999999999999997e-05,0.0,1
2233,2343,0.0,-2.9999999999999997e-05,1e-05,1e-05,-2e-05,0.0,-1e-05,0.0,1
2234,2344,0.0,-2.9999999999999997e-05,1e-05,1e-05,-2e-05,0.0,-1e-05,0.0,1
2235,2345,2e-05,1e-05,2e-05,2.9999999999999997e-05,-1e-05,-1e-05,-1e-05,-1e-05,1
2236,2346,2e-05,1e-05,2e-05,2.9999999999999997e-05,-1e-05,-1e-05,-1e-05,-1e-05,1
2237,2347,2e-05,1e-05,2e-05,2.9999999999999997e-05,-1e-05,-1e-05,-1e-05,-1e-05,1
2238,2348,2e-05,1e-05,2e-05,2.9999999999999997e-05,-1e-05,-1e-05,-1e-05,-1e-05,1
2239,2349,2e-05,1e-05,2e-05,2.9999999999999997e-05,-1e-05,-1e-05,-1e-05,-1e-05,1
2240,2350,2e-05,1e-05,2e-05,2.9999999999999997e-05,-1e-05,-1e-05,-1e-05,-1e-05,1
2241,2351,2e-05,1e-05,2e-05,2.9999999999999997e-05,-1e-05,-1e-05,-1e-05,-1e-05,1
2242,2352,2e-05,1e-05,2e-05,2.9999999999999997e-05,-1e-05,-1e-05,-1e-05,-1e-05,1
2243,2353,2e-05,1e-05,2e-05,2.9999999999999997e-05,-1e-05,-1e-05,-1e-05,-1e-05,1
2244,2354,2e-05,1e-05,2e-05,2.9999999999999997e-05,-1e-05,-1e-05,-1e-05,-1e-05,1
2245,2355,2e-05,1e-05,2e-05,2.9999999999999997e-05,-1e-05,-1e-05,-1e-05,-1e-05,1
2246,2356,2e-05,1e-05,2e-05,2.9999999999999997e-05,-1e-05,-1e-05,-1e-05,-1e-05,1
2247,2357,2e-05,1e-05,2e-05,2.9999999999999997e-05,-1e-05,-1e-05,-1e-05,-1e-05,1
2248,2358,2e-05,1e-05,2e-05,2.9999999999999997e-05,-1e-05,-1e-05,-1e-05,-1e-05,1
2249,2359,2e-05,1e-05,2e-05,2.9999999999999997e-05,-1e-05,-1e-05,-1e-05,-1e-05,1
2250,2360,2e-05,1e-05,2e-05,2.9999999999999997e-05,-1e-05,-1e-05,-1e-05,-1e-05,1
2251,2361,2e-05,1e-05,2e-05,2.9999999999999997e-05,-1e-05,-1e-05,-1e-05,-1e-05,1
2252,2362,2e-05,1e-05,2e-05,2.9999999999999997e-05,-1e-05,-1e-05,-1e-05,-1e-05,1
2253,2363,2e-05,1e-05,2e-05,2.9999999999999997e-05,-1e-05,-1e-05,-1e-05,-1e-05,1
2254,2364,2e-05,1e-05,2e-05,2.9999999999999997e-05,-1e-05,-1e-05,-1e-05,-1e-05,1
2255,2365,2e-05,1e-05,2e-05,2.9999999999999997e-05,-1e-05,-1e-05,-1e-05,-1e-05,1
2256,2366,0.0,0.0,1e-05,-1e-05,-1e-05,-5e-05,-2e-05,-1e-05,1
2257,2367,-1e-05,-2e-05,2e-05,-4e-05,0.0,-2e-05,-2e-05,0.0,1
2258,2368,-2.9999999999999997e-05,-5e-05,-4e-05,-5e-05,-2.9999999999999997e-05,0.0,-2e-05,-2.9999999999999997e-05,1
2259,2369,-2.9999999999999997e-05,-5e-05,-4e-05,-5e-05,-2.9999999999999997e-05,0.0,-2e-05,-2.9999999999999997e-05,1
2260,2370,-2.9999999999999997e-05,-5e-05,-4e-05,-5e-05,-2.9999999999999997e-05,0.0,-2e-05,-2.9999999999999997e-05,1
2261,2371,-2.9999999999999997e-05,-5e-05,-4e-05,-5e-05,-2.9999999999999997e-05,0.0,-2e-05,-2.9999999999999997e-05,1
2262,2372,-2.9999999999999997e-05,-5e-05,-4e-05,-5e-05,-2.9999999999999997e-05,0.0,-2e-05,-2.9999999999999997e-05,1
2263,2373,-2.9999999999999997e-05,-5e-05,-4e-05,-5e-05,-2.9999999999999997e-05,0.0,-2e-05,-2.9999999999999997e-05,1
2264,2374,-2.9999999999999997e-05,-5e-05,-4e-05,-5e-05,-2.9999999999999997e-05,0.0,-2e-05,-2.9999999999999997e-05,1
2265,2375,-2.9999999999999997e-05,-5e-05,-4e-05,-5e-05,-2.9999999999999997e-05,0.0,-2e-05,-2.9999999999999997e-05,1
2266,2376,-2.9999999999999997e-05,-5e-05,-4e-05,-5e-05,-2.9999999999999997e-05,0.0,-2e-05,-2.9999999999999997e-05,1
2267,2377,-2.9999999999999997e-05,-5e-05,-4e-05,-5e-05,-2.9999999999999997e-05,0.0,-2e-05,-2.9999999999999997e-05,1
2268,2378,-2.9999999999999997e-05,-5e-05,-4e-05,-5e-05,-2.9999999999999997e-05,0.0,-2e-05,-2.9999999999999997e-05,1
2269,2379,-2.9999999999999997e-05,-5e-05,-4e-05,-5e-05,-2.9999999999999997e-05,0.0,-2e-05,-2.9999999999999997e-05,1
2270,2380,-2.9999999999999997e-05,-5e-05,-4e-05,-5e-05,-2.9999999999999997e-05,0.0,-2e-05,-2.9999999999999997e-05,1
2271,2381,-2.9999999999999997e-05,-5e-05,-4e-05,-5e-05,-2.9999999999999997e-05,0.0,-2e-05,-2.9999999999999997e-05,1
2272,2382,-2.9999999999999997e-05,-5e-05,-4e-05,-5e-05,-2.9999999999999997e-05,0.0,-2e-05,-2.9999999999999997e-05,1
2273,2383,-2.9999999999999997e-05,-5e-05,-4e-05,-5e-05,-2.9999999999999997e-05,0.0,-2e-05,-2.9999999999999997e-05,1
2274,2384,-2.9999999999999997e-05,-5e-05,-4e-05,-5e-05,-2.9999999999999997e-05,0.0,-2e-05,-2.9999999999999997e-05,1
2275,2385,-2.9999999999999997e-05,-5e-05,-4e-05,-5e-05,-2.9999999999999997e-05,0.0,-2e-05,-2.9999999999999997e-05,1
2276,2386,-2.9999999999999997e-05,-5e-05,-4e-05,-5e-05,-2.9999999999999997e-05,0.0,-2e-05,-2.9999999999999997e-05,1
2277,2389,-1e-05,-2.9999999999999997e-05,-1e-05,0.0,-2.9999999999999997e-05,-2e-05,-2e-05,-1e-05,1
2278,2390,0.0,1e-05,2e-05,0.0,0.0,4e-05,0.0,-1e-05,1
2279,2391,0.0,1e-05,2e-05,0.0,0.0,4e-05,0.0,-1e-05,1
2280,2392,0.0,1e-05,2e-05,0.0,0.0,4e-05,0.0,-1e-05,1
2281,2393,0.0,1e-05,2e-05,0.0,0.0,4e-05,0.0,-1e-05,1
2282,2394,0.0,1e-05,2e-05,0.0,0.0,4e-05,0.0,-1e-05,1
2283,2395,0.0,1e-05,2e-05,0.0,0.0,4e-05,0.0,-1e-05,1
2284,2396,0.0,1e-05,2e-05,0.0,0.0,4e-05,0.0,-1e-05,1
2285,2397,0.0,1e-05,2e-05,0.0,0.0,4e-05,0.0,-1e-05,1
2286,2398,0.0,1e-05,2e-05,0.0,0.0,4e-05,0.0,-1e-05,1
2287,2399,0.0,1e-05,2e-05,0.0,0.0,4e-05,0.0,-1e-05,1
2288,2400,0.0,1e-05,2e-05,0.0,0.0,4e-05,0.0,-1e-05,1
2289,2401,0.0,1e-05,2e-05,0.0,0.0,4e-05,0.0,-1e-05,1
2290,2402,0.0,1e-05,2e-05,0.0,0.0,4e-05,0.0,-1e-05,1
2291,2403,0.0,0.0,0.0,-1e-05,1e-05,-1e-05,0.0,-2e-05,1
2292,2404,0.0,0.0,0.0,-1e-05,1e-05,-1e-05,0.0,-2e-05,1
2293,2405,-1e-05,0.0,1e-05,-4e-05,-1e-05,-1e-05,-2e-05,0.0,1
2294,2406,-1e-05,0.0,1e-05,-4e-05,-1e-05,-1e-05,-2e-05,0.0,1
2295,2407,-1e-05,0.0,1e-05,-4e-05,-1e-05,-1e-05,-2e-05,0.0,1
2296,2408,-1e-05,0.0,1e-05,-4e-05,-1e-05,-1e-05,-2e-05,0.0,1
2297,2409,-1e-05,0.0,1e-05,-4e-05,-1e-05,-1e-05,-2e-05,0.0,1
2298,2410,-1e-05,0.0,1e-05,-4e-05,-1e-05,-1e-05,-2e-05,0.0,1
2299,2411,-1e-05,0.0,1e-05,-4e-05,-1e-05,-1e-05,-2e-05,0.0,1
2300,2412,-1e-05,0.0,1e-05,-4e-05,-1e-05,-1e-05,-2e-05,0.0,1
2301,2413,-1e-05,0.0,1e-05,-4e-05,-1e-05,-1e-05,-2e-05,0.0,1
2302,2415,-1e-05,0.0,1e-05,-4e-05,-1e-05,-1e-05,-2e-05,0.0,1
2303,2416,-1e-05,0.0,1e-05,-4e-05,-1e-05,-1e-05,-2e-05,0.0,1
2304,2417,-1e-05,0.0,1e-05,-4e-05,-1e-05,-1e-05,-2e-05,0.0,1
2305,2418,-1e-05,0.0,1e-05,-4e-05,-1e-05,-1e-05,-2e-05,0.0,1
2306,2419,-1e-05,0.0,1e-05,-4e-05,-1e-05,-1e-05,-2e-05,0.0,1
2307,2420,-1e-05,0.0,1e-05,-4e-05,-1e-05,-1e-05,-2e-05,0.0,1
2308,2421,-1e-05,0.0,1e-05,-4e-05,-1e-05,-1e-05,-2e-05,0.0,1
2309,2422,-1e-05,0.0,1e-05,-4e-05,-1e-05,-1e-05,-2e-05,0.0,1
2310,2423,-1e-05,0.0,1e-05,-4e-05,-1e-05,-1e-05,-2e-05,0.0,1
2311,2424,-1e-05,0.0,1e-05,-4e-05,-1e-05,-1e-05,-2e-05,0.0,1
2312,2425,-1e-05,0.0,1e-05,-4e-05,-1e-05,-1e-05,-2e-05,0.0,1
2313,2426,-2e-05,-2.9999999999999997e-05,-2e-05,2e-05,-2e-05,8e-05,2e-05,-1e-05,1
2314,2427,-2e-05,0.0,-5e-05,-1e-05,0.0,-1e-05,-2e-05,-2.9999999999999997e-05,1
2315,2428,-2e-05,0.0,-5e-05,-1e-05,0.0,-1e-05,-2e-05,-2.9999999999999997e-05,1
2316,2429,-2e-05,0.0,-5e-05,-1e-05,0.0,-1e-05,-2e-05,-2.9999999999999997e-05,1
2317,2430,-2e-05,0.0,-5e-05,-1e-05,0.0,-1e-05,-2e-05,-2.9999999999999997e-05,1
2318,2431,-2e-05,0.0,-5e-05,-1e-05,0.0,-1e-05,-2e-05,-2.9999999999999997e-05,1
2319,2432,-2e-05,0.0,-5e-05,-1e-05,0.0,-1e-05,-2e-05,-2.9999999999999997e-05,1
2320,2433,-2e-05,0.0,-5e-05,-1e-05,0.0,-1e-05,-2e-05,-2.9999999999999997e-05,1
2321,2434,-2e-05,0.0,-5e-05,-1e-05,0.0,-1e-05,-2e-05,-2.9999999999999997e-05,1
2322,2435,-2e-05,0.0,-5e-05,-1e-05,0.0,-1e-05,-2e-05,-2.9999999999999997e-05,1
2323,2436,-2e-05,0.0,-5e-05,-1e-05,0.0,-1e-05,-2e-05,-2.9999999999999997e-05,1
2324,2439,-2e-05,0.0,-5e-05,-1e-05,0.0,-1e-05,-2e-05,-2.9999999999999997e-05,1
2325,2440,-2e-05,0.0,-5e-05,-1e-05,0.0,-1e-05,-2e-05,-2.9999999999999997e-05,1
2326,2441,-2e-05,0.0,-5e-05,-1e-05,0.0,-1e-05,-2e-05,-2.9999999999999997e-05,1
2327,2442,-2e-05,0.0,-5e-05,-1e-05,0.0,-1e-05,-2e-05,-2.9999999999999997e-05,1
2328,2443,-2e-05,0.0,-5e-05,-1e-05,0.0,-1e-05,-2e-05,-2.9999999999999997e-05,1
2329,2444,-2e-05,0.0,-5e-05,-1e-05,0.0,-1e-05,-2e-05,-2.9999999999999997e-05,1
2330,2445,-2e-05,0.0,-5e-05,-1e-05,0.0,-1e-05,-2e-05,-2.9999999999999997e-05,1
2331,2446,-2e-05,0.0,-5e-05,-1e-05,0.0,-1e-05,-2e-05,-2.9999999999999997e-05,1
2332,2447,-2e-05,0.0,-5e-05,-1e-05,0.0,-1e-05,-2e-05,-2.9999999999999997e-05,1
2333,2448,2e-05,8e-05,1e-05,1e-05,0.0,-2.9999999999999997e-05,-2e-05,-1e-05,1
2334,2449,0.0,-5.9999999999999995e-05,-1e-05,-5e-05,-2e-05,-2e-05,-2e-05,0.0,1
2335,2450,0.0,-5.9999999999999995e-05,-1e-05,-5e-05,-2e-05,-2e-05,-2e-05,0.0,1
2336,2451,-1e-05,1e-05,4e-05,0.0,0.0,1e-05,1e-05,0.0,1
2337,2452,-1e-05,1e-05,4e-05,0.0,0.0,1e-05,1e-05,0.0,1
2338,2453,-1e-05,1e-05,4e-05,0.0,0.0,1e-05,1e-05,0.0,1
2339,2454,-1e-05,1e-05,4e-05,0.0,0.0,1e-05,1e-05,0.0,1
2340,2455,-1e-05,1e-05,4e-05,0.0,0.0,1e-05,1e-05,0.0,1
2341,2456,-1e-05,1e-05,4e-05,0.0,0.0,1e-05,1e-05,0.0,1
2342,2457,-1e-05,1e-05,4e-05,0.0,0.0,1e-05,1e-05,0.0,1
2343,2458,-1e-05,1e-05,4e-05,0.0,0.0,1e-05,1e-05,0.0,1
2344,2459,-1e-05,1e-05,4e-05,0.0,0.0,1e-05,1e-05,0.0,1
2345,2460,-1e-05,1e-05,4e-05,0.0,0.0,1e-05,1e-05,0.0,1
2346,2461,-1e-05,1e-05,4e-05,0.0,0.0,1e-05,1e-05,0.0,1
2347,2462,-1e-05,1e-05,4e-05,0.0,0.0,1e-05,1e-05,0.0,1
2348,2463,-1e-05,1e-05,4e-05,0.0,0.0,1e-05,1e-05,0.0,1
2349,2464,-1e-05,1e-05,4e-05,0.0,0.0,1e-05,1e-05,0.0,1
2350,2465,-1e-05,1e-05,4e-05,0.0,0.0,1e-05,1e-05,0.0,1
2351,2466,-1e-05,1e-05,4e-05,0.0,0.0,1e-05,1e-05,0.0,1
2352,2467,-1e-05,1e-05,4e-05,0.0,0.0,1e-05,1e-05,0.0,1
2353,2468,-1e-05,1e-05,4e-05,0.0,0.0,1e-05,1e-05,0.0,1
2354,2469,-1e-05,1e-05,4e-05,0.0,0.0,1e-05,1e-05,0.0,1
2355,2470,-1e-05,1e-05,4e-05,0.0,0.0,1e-05,1e-05,0.0,1
2356,2471,-2.9999999999999997e-05,-4e-05,-5.9999999999999995e-05,-5e-05,-1e-05,-2.9999999999999997e-05,-1e-05,-1e-05,1
2357,2472,-1e-05,0.0,0.0,2e-05,-1e-05,-2e-05,-2e-05,1e-05,1
2358,2473,-1e-05,0.0,0.0,2e-05,-1e-05,-2e-05,-2e-05,1e-05,1
2359,2474,-1e-05,0.0,0.0,2e-05,-1e-05,-2e-05,-2e-05,1e-05,1
2360,2475,-1e-05,0.0,0.0,2e-05,-1e-05,-2e-05,-2e-05,1e-05,1
2361,2476,-1e-05,0.0,0.0,2e-05,-1e-05,-2e-05,-2e-05,1e-05,1
2362,2477,-1e-05,0.0,0.0,2e-05,-1e-05,-2e-05,-2e-05,1e-05,1
2363,2478,-1e-05,0.0,0.0,2e-05,-1e-05,-2e-05,-2e-05,1e-05,1
2364,2479,-1e-05,0.0,0.0,2e-05,-1e-05,-2e-05,-2e-05,1e-05,1
2365,2480,-1e-05,0.0,0.0,2e-05,-1e-05,-2e-05,-2e-05,1e-05,1
2366,2481,-1e-05,0.0,0.0,2e-05,-1e-05,-2e-05,-2e-05,1e-05,1
2367,2482,-1e-05,0.0,0.0,2e-05,-1e-05,-2e-05,-2e-05,1e-05,1
2368,2483,-1e-05,0.0,0.0,2e-05,-1e-05,-2e-05,-2e-05,1e-05,1
2369,2484,-1e-05,0.0,0.0,2e-05,-1e-05,-2e-05,-2e-05,1e-05,1
2370,2485,-1e-05,0.0,0.0,2e-05,-1e-05,-2e-05,-2e-05,1e-05,1
2371,2486,-1e-05,0.0,0.0,2e-05,-1e-05,-2e-05,-2e-05,1e-05,1
2372,2488,0.0,-1e-05,0.0,2e-05,-2.9999999999999997e-05,-2e-05,0.0,-2e-05,1
2373,2490,0.0,-1e-05,0.0,2e-05,-2.9999999999999997e-05,-2e-05,0.0,-2e-05,1
2374,2491,0.0,-1e-05,0.0,2e-05,-2.9999999999999997e-05,-2e-05,0.0,-2e-05,1
2375,2492,0.0,-1e-05,0.0,2e-05,-2.9999999999999997e-05,-2e-05,0.0,-2e-05,1
2376,2493,0.0,-1e-05,0.0,2e-05,-2.9999999999999997e-05,-2e-05,0.0,-2e-05,1
2377,2494,0.0,-1e-05,0.0,2e-05,-2.9999999999999997e-05,-2e-05,0.0,-2e-05,1
2378,2495,0.0,-1e-05,0.0,2e-05,-2.9999999999999997e-05,-2e-05,0.0,-2e-05,1
2379,2496,0.0,-1e-05,0.0,2e-05,-2.9999999999999997e-05,-2e-05,0.0,-2e-05,1
2380,2497,0.0,-1e-05,0.0,2e-05,-2.9999999999999997e-05,-2e-05,0.0,-2e-05,1
2381,2498,0.0,-1e-05,0.0,2e-05,-2.9999999999999997e-05,-2e-05,0.0,-2e-05,1
2382,2499,0.0,-1e-05,0.0,2e-05,-2.9999999999999997e-05,-2e-05,0.0,-2e-05,1
2383,2500,0.0,-1e-05,0.0,2e-05,-2.9999999999999997e-05,-2e-05,0.0,-2e-05,1
2384,2501,0.0,-1e-05,0.0,2e-05,-2.9999999999999997e-05,-2e-05,0.0,-2e-05,1
2385,2502,0.0,-1e-05,0.0,2e-05,-2.9999999999999997e-05,-2e-05,0.0,-2e-05,1
2386,2503,0.0,-1e-05,0.0,2e-05,-2.9999999999999997e-05,-2e-05,0.0,-2e-05,1
2387,2504,0.0,-1e-05,0.0,2e-05,-2.9999999999999997e-05,-2e-05,0.0,-2e-05,1
2388,2505,0.0,-1e-05,0.0,2e-05,-2.9999999999999997e-05,-2e-05,0.0,-2e-05,1
2389,2506,0.0,-1e-05,0.0,2e-05,-2.9999999999999997e-05,-2e-05,0.0,-2e-05,1
2390,2507,0.0,-1e-05,0.0,2e-05,-2.9999999999999997e-05,-2e-05,0.0,-2e-05,1
2391,2508,0.0,-1e-05,0.0,2e-05,-2.9999999999999997e-05,-2e-05,0.0,-2e-05,1
2392,2509,-2e-05,-2e-05,2e-05,-2e-05,0.0,2e-05,-2e-05,-1e-05,1
2393,2510,-2.9999999999999997e-05,-5e-05,-4e-05,-2e-05,0.0,-2e-05,1e-05,0.0,1
2394,2511,-2.9999999999999997e-05,-5e-05,-4e-05,-2e-05,0.0,-2e-05,1e-05,0.0,1
2395,2512,-2.9999999999999997e-05,-5e-05,-4e-05,-2e-05,0.0,-2e-05,1e-05,0.0,1
2396,2513,-2.9999999999999997e-05,-5e-05,-4e-05,-2e-05,0.0,-2e-05,1e-05,0.0,1
2397,2514,-2.9999999999999997e-05,-5e-05,-4e-05,-2e-05,0.0,-2e-05,1e-05,0.0,1
2398,2515,-2.9999999999999997e-05,-5e-05,-4e-05,-2e-05,0.0,-2e-05,1e-05,0.0,1
2399,2516,-2.9999999999999997e-05,-5e-05,-4e-05,-2e-05,0.0,-2e-05,1e-05,0.0,1
2400,2517,-2.9999999999999997e-05,-5e-05,-4e-05,-2e-05,0.0,-2e-05,1e-05,0.0,1
2401,2518,-2.9999999999999997e-05,-5e-05,-4e-05,-2e-05,0.0,-2e-05,1e-05,0.0,1
2402,2519,-2.9999999999999997e-05,-5e-05,-4e-05,-2e-05,0.0,-2e-05,1e-05,0.0,1
2403,2520,-2.9999999999999997e-05,-5e-05,-4e-05,-2e-05,0.0,-2e-05,1e-05,0.0,1
2404,2521,-2.9999999999999997e-05,-5e-05,-4e-05,-2e-05,0.0,-2e-05,1e-05,0.0,1
2405,2522,-1e-05,-2.9999999999999997e-05,0.0,1e-05,-2e-05,-1e-05,0.0,-1e-05,1
2406,2523,-1e-05,-2.9999999999999997e-05,0.0,1e-05,-2e-05,-1e-05,0.0,-1e-05,1
2407,2524,-1e-05,-2.9999999999999997e-05,0.0,1e-05,-2e-05,-1e-05,0.0,-1e-05,1
2408,2525,-1e-05,-2.9999999999999997e-05,0.0,1e-05,-2e-05,-1e-05,0.0,-1e-05,1
2409,2526,-1e-05,-2.9999999999999997e-05,0.0,1e-05,-2e-05,-1e-05,0.0,-1e-05,1
2410,2527,-1e-05,-2.9999999999999997e-05,0.0,1e-05,-2e-05,-1e-05,0.0,-1e-05,1
2411,2528,-1e-05,-2.9999999999999997e-05,0.0,1e-05,-2e-05,-1e-05,0.0,-1e-05,1
2412,2529,-1e-05,0.0,4e-05,-1e-05,-1e-05,0.0,-1e-05,0.0,1
2413,2530,-1e-05,0.0,4e-05,-1e-05,-1e-05,0.0,-1e-05,0.0,1
2414,2531,-1e-05,0.0,4e-05,-1e-05,-1e-05,0.0,-1e-05,0.0,1
2415,2532,-1e-05,0.0,4e-05,-1e-05,-1e-05,0.0,-1e-05,0.0,1
2416,2533,-1e-05,0.0,4e-05,-1e-05,-1e-05,0.0,-1e-05,0.0,1
2417,2534,-1e-05,0.0,4e-05,-1e-05,-1e-05,0.0,-1e-05,0.0,1
2418,2535,-1e-05,0.0,4e-05,-1e-05,-1e-05,0.0,-1e-05,0.0,1
2419,2536,-1e-05,0.0,4e-05,-1e-05,-1e-05,0.0,-1e-05,0.0,1
2420,2538,-1e-05,0.0,4e-05,-1e-05,-1e-05,0.0,-1e-05,0.0,1
2421,2539,-1e-05,0.0,4e-05,-1e-05,-1e-05,0.0,-1e-05,0.0,1
2422,2540,-1e-05,0.0,4e-05,-1e-05,-1e-05,0.0,-1e-05,0.0,1
2423,2541,-1e-05,0.0,4e-05,-1e-05,-1e-05,0.0,-1e-05,0.0,1
2424,2542,-1e-05,0.0,4e-05,-1e-05,-1e-05,0.0,-1e-05,0.0,1
2425,2543,-1e-05,0.0,4e-05,-1e-05,-1e-05,0.0,-1e-05,0.0,1
2426,2544,-1e-05,0.0,4e-05,-1e-05,-1e-05,0.0,-1e-05,0.0,1
2427,2545,-1e-05,0.0,4e-05,-1e-05,-1e-05,0.0,-1e-05,0.0,1
2428,2546,-2e-05,1e-05,-4e-05,-2.9999999999999997e-05,-1e-05,-2e-05,-1e-05,-2e-05,1
2429,2547,1e-05,2e-05,1e-05,-2e-05,1e-05,-2.9999999999999997e-05,-1e-05,1e-05,1
2430,2548,1e-05,2e-05,1e-05,-2e-05,1e-05,-2.9999999999999997e-05,-1e-05,1e-05,1
2431,2549,1e-05,2e-05,1e-05,-2e-05,1e-05,-2.9999999999999997e-05,-1e-05,1e-05,1
2432,2550,1e-05,2e-05,1e-05,-2e-05,1e-05,-2.9999999999999997e-05,-1e-05,1e-05,1
2433,2551,1e-05,2e-05,1e-05,-2e-05,1e-05,-2.9999999999999997e-05,-1e-05,1e-05,1
2434,2552,1e-05,2e-05,1e-05,-2e-05,1e-05,-2.9999999999999997e-05,-1e-05,1e-05,1
2435,2553,1e-05,2e-05,1e-05,-2e-05,1e-05,-2.9999999999999997e-05,-1e-05,1e-05,1
2436,2554,1e-05,2e-05,1e-05,-2e-05,1e-05,-2.9999999999999997e-05,-1e-05,1e-05,1
2437,2555,1e-05,2e-05,1e-05,-2e-05,1e-05,-2.9999999999999997e-05,-1e-05,1e-05,1
2438,2556,1e-05,2e-05,1e-05,-2e-05,1e-05,-2.9999999999999997e-05,-1e-05,1e-05,1
2439,2557,1e-05,2e-05,1e-05,-2e-05,1e-05,-2.9999999999999997e-05,-1e-05,1e-05,1
2440,2558,1e-05,2e-05,1e-05,-2e-05,1e-05,-2.9999999999999997e-05,-1e-05,1e-05,1
2441,2559,1e-05,2e-05,1e-05,-2e-05,1e-05,-2.9999999999999997e-05,-1e-05,1e-05,1
2442,2560,1e-05,2e-05,1e-05,-2e-05,1e-05,-2.9999999999999997e-05,-1e-05,1e-05,1
2443,2561,1e-05,2e-05,1e-05,-2e-05,1e-05,-2.9999999999999997e-05,-1e-05,1e-05,1
2444,2562,1e-05,2e-05,1e-05,-2e-05,1e-05,-2.9999999999999997e-05,-1e-05,1e-05,1
2445,2563,1e-05,2e-05,1e-05,-2e-05,1e-05,-2.9999999999999997e-05,-1e-05,1e-05,1
2446,2564,1e-05,2e-05,1e-05,-2e-05,1e-05,-2.9999999999999997e-05,-1e-05,1e-05,1
2447,2565,1e-05,2e-05,1e-05,-2e-05,1e-05,-2.9999999999999997e-05,-1e-05,1e-05,1
2448,2566,1e-05,2e-05,1e-05,-2e-05,1e-05,-2.9999999999999997e-05,-1e-05,1e-05,1
2449,2567,1e-05,2e-05,1e-05,-2e-05,1e-05,-2.9999999999999997e-05,-1e-05,1e-05,1
2450,2568,-1e-05,-1e-05,-2e-05,-2e-05,1e-05,-2e-05,1e-05,0.0,1
2451,2569,-1e-05,-1e-05,-2e-05,-2e-05,1e-05,-2e-05,1e-05,0.0,1
2452,2570,-1e-05,-1e-05,0.0,-2e-05,0.0,-2.9999999999999997e-05,-1e-05,-1e-05,1
2453,2571,-1e-05,-1e-05,0.0,-2e-05,0.0,-2.9999999999999997e-05,-1e-05,-1e-05,1
2454,2572,-1e-05,-1e-05,0.0,-2e-05,0.0,-2.9999999999999997e-05,-1e-05,-1e-05,1
2455,2573,-1e-05,-1e-05,0.0,-2e-05,0.0,-2.9999999999999997e-05,-1e-05,-1e-05,1
2456,2574,-1e-05,-1e-05,0.0,-2e-05,0.0,-2.9999999999999997e-05,-1e-05,-1e-05,1
2457,2575,-1e-05,-1e-05,0.0,-2e-05,0.0,-2.9999999999999997e-05,-1e-05,-1e-05,1
2458,2576,-1e-05,-1e-05,0.0,-2e-05,0.0,-2.9999999999999997e-05,-1e-05,-1e-05,1
2459,2577,-1e-05,-1e-05,0.0,-2e-05,0.0,-2.9999999999999997e-05,-1e-05,-1e-05,1
2460,2578,-1e-05,-1e-05,0.0,-2e-05,0.0,-2.9999999999999997e-05,-1e-05,-1e-05,1
2461,2579,-1e-05,-1e-05,0.0,-2e-05,0.0,-2.9999999999999997e-05,-1e-05,-1e-05,1
2462,2580,-1e-05,-1e-05,0.0,-2e-05,0.0,-2.9999999999999997e-05,-1e-05,-1e-05,1
2463,2581,-1e-05,-1e-05,0.0,-2e-05,0.0,-2.9999999999999997e-05,-1e-05,-1e-05,1
2464,2582,0.0,-1e-05,5.9999999999999995e-05,2.9999999999999997e-05,-2e-05,0.00011999999999999999,0.0,1e-05,1
2465,2583,-1e-05,-2e-05,0.0,-4e-05,-2e-05,-2e-05,-2.9999999999999997e-05,-1e-05,1
2466,2584,-1e-05,-2e-05,0.0,-4e-05,-2e-05,-2e-05,-2.9999999999999997e-05,-1e-05,1
2467,2585,-1e-05,-2e-05,0.0,-4e-05,-2e-05,-2e-05,-2.9999999999999997e-05,-1e-05,1
2468,2586,-1e-05,-2e-05,0.0,-4e-05,-2e-05,-2e-05,-2.9999999999999997e-05,-1e-05,1
2469,2588,-1e-05,-2e-05,0.0,-4e-05,-2e-05,-2e-05,-2.9999999999999997e-05,-1e-05,1
2470,2589,-1e-05,-2e-05,-1e-05,-1e-05,-1e-05,-2.9999999999999997e-05,0.0,0.0,1
2471,2590,-1e-05,-2e-05,-1e-05,-1e-05,-1e-05,-2.9999999999999997e-05,0.0,0.0,1
2472,2591,-1e-05,-2e-05,-1e-05,-1e-05,-1e-05,-2.9999999999999997e-05,0.0,0.0,1
2473,2592,-1e-05,-2e-05,-1e-05,-1e-05,-1e-05,-2.9999999999999997e-05,0.0,0.0,1
2474,2593,-1e-05,-2e-05,-1e-05,-1e-05,-1e-05,-2.9999999999999997e-05,0.0,0.0,1
2475,2594,-1e-05,-2e-05,-1e-05,-1e-05,-1e-05,-2.9999999999999997e-05,0.0,0.0,1
2476,2595,-1e-05,-2e-05,-1e-05,-1e-05,-1e-05,-2.9999999999999997e-05,0.0,0.0,1
2477,2596,-1e-05,-2e-05,-1e-05,-1e-05,-1e-05,-2.9999999999999997e-05,0.0,0.0,1
2478,2597,-1e-05,-2e-05,-1e-05,-1e-05,-1e-05,-2.9999999999999997e-05,0.0,0.0,1
2479,2598,-1e-05,-2e-05,-1e-05,-1e-05,-1e-05,-2.9999999999999997e-05,0.0,0.0,1
2480,2599,-1e-05,-2e-05,-1e-05,-1e-05,-1e-05,-2.9999999999999997e-05,0.0,0.0,1
2481,2600,-1e-05,-2e-05,-1e-05,-1e-05,-1e-05,-2.9999999999999997e-05,0.0,0.0,1
2482,2601,-1e-05,-2e-05,-1e-05,-1e-05,-1e-05,-2.9999999999999997e-05,0.0,0.0,1
2483,2602,-1e-05,-2e-05,-1e-05,-1e-05,-1e-05,-2.9999999999999997e-05,0.0,0.0,1
2484,2603,-1e-05,-2e-05,-1e-05,-1e-05,-1e-05,-2.9999999999999997e-05,0.0,0.0,1
2485,2604,-1e-05,-2e-05,-1e-05,-1e-05,-1e-05,-2.9999999999999997e-05,0.0,0.0,1
2486,2605,-1e-05,-2e-05,-1e-05,-1e-05,-1e-05,-2.9999999999999997e-05,0.0,0.0,1
2487,2606,2e-05,1e-05,-1e-05,-1e-05,0.0,-2.9999999999999997e-05,-1e-05,-1e-05,1
2488,2607,1e-05,0.0,-4e-05,1e-05,-2e-05,0.0,0.0,0.0,1
2489,2608,1e-05,0.0,-4e-05,1e-05,-2e-05,0.0,0.0,0.0,1
2490,2609,1e-05,0.0,-4e-05,1e-05,-2e-05,0.0,0.0,0.0,1
2491,2610,1e-05,0.0,-4e-05,1e-05,-2e-05,0.0,0.0,0.0,1
2492,2611,1e-05,0.0,-4e-05,1e-05,-2e-05,0.0,0.0,0.0,1
2493,2612,1e-05,0.0,-4e-05,1e-05,-2e-05,0.0,0.0,0.0,1
2494,2613,1e-05,0.0,-4e-05,1e-05,-2e-05,0.0,0.0,0.0,1
2495,2614,1e-05,0.0,-4e-05,1e-05,-2e-05,0.0,0.0,0.0,1
2496,2615,1e-05,0.0,-4e-05,1e-05,-2e-05,0.0,0.0,0.0,1
2497,2616,1e-05,0.0,-4e-05,1e-05,-2e-05,0.0,0.0,0.0,1
2498,2617,1e-05,0.0,-4e-05,1e-05,-2e-05,0.0,0.0,0.0,1
2499,2618,1e-05,0.0,-4e-05,1e-05,-2e-05,0.0,0.0,0.0,1
2500,2619,1e-05,0.0,-4e-05,1e-05,-2e-05,0.0,0.0,0.0,1
2501,2620,1e-05,0.0,-4e-05,1e-05,-2e-05,0.0,0.0,0.0,1
2502,2621,1e-05,0.0,-4e-05,1e-05,-2e-05,0.0,0.0,0.0,1
2503,2622,1e-05,0.0,-4e-05,1e-05,-2e-05,0.0,0.0,0.0,1
2504,2623,1e-05,0.0,-4e-05,1e-05,-2e-05,0.0,0.0,0.0,1
2505,2624,1e-05,0.0,-4e-05,1e-05,-2e-05,0.0,0.0,0.0,1
2506,2625,1e-05,0.0,-4e-05,1e-05,-2e-05,0.0,0.0,0.0,1
2507,2626,1e-05,0.0,-4e-05,1e-05,-2e-05,0.0,0.0,0.0,1
2508,2627,1e-05,0.0,-4e-05,1e-05,-2e-05,0.0,0.0,0.0,1
2509,2628,-1e-05,0.0,-4e-05,-2e-05,-2e-05,0.0,1e-05,-2e-05,1
2510,2629,-1e-05,0.0,-4e-05,-2e-05,-2e-05,0.0,1e-05,-2e-05,1
2511,2630,-1e-05,-2.9999999999999997e-05,-1e-05,2e-05,0.0,1e-05,-4e-05,-4e-05,1
2512,2631,-1e-05,-2.9999999999999997e-05,-1e-05,2e-05,0.0,1e-05,-4e-05,-4e-05,1
2513,2632,-1e-05,-2.9999999999999997e-05,-1e-05,2e-05,0.0,1e-05,-4e-05,-4e-05,1
2514,2633,-1e-05,-2.9999999999999997e-05,-1e-05,2e-05,0.0,1e-05,-4e-05,-4e-05,1
2515,2634,-1e-05,-2.9999999999999997e-05,-1e-05,2e-05,0.0,1e-05,-4e-05,-4e-05,1
2516,2635,-1e-05,-2.9999999999999997e-05,-1e-05,2e-05,0.0,1e-05,-4e-05,-4e-05,1
2517,2636,-1e-05,-2.9999999999999997e-05,-1e-05,2e-05,0.0,1e-05,-4e-05,-4e-05,1
2518,2638,-1e-05,-2.9999999999999997e-05,-1e-05,2e-05,0.0,1e-05,-4e-05,-4e-05,1
2519,2640,-1e-05,-2.9999999999999997e-05,-1e-05,2e-05,0.0,1e-05,-4e-05,-4e-05,1
2520,2641,-1e-05,-2.9999999999999997e-05,-1e-05,2e-05,0.0,1e-05,-4e-05,-4e-05,1
2521,2642,-2.9999999999999997e-05,-5.9999999999999995e-05,-2.9999999999999997e-05,-5.9999999999999995e-05,-2e-05,-4e-05,-2e-05,0.0,1
2522,2643,1e-05,-1e-05,-2.9999999999999997e-05,0.0,-2e-05,-1e-05,-1e-05,0.0,1
2523,2644,1e-05,-1e-05,-2.9999999999999997e-05,0.0,-2e-05,-1e-05,-1e-05,0.0,1
2524,2645,1e-05,-1e-05,-2.9999999999999997e-05,0.0,-2e-05,-1e-05,-1e-05,0.0,1
2525,2646,1e-05,-1e-05,-2.9999999999999997e-05,0.0,-2e-05,-1e-05,-1e-05,0.0,1
2526,2647,1e-05,-1e-05,-2.9999999999999997e-05,0.0,-2e-05,-1e-05,-1e-05,0.0,1
2527,2648,1e-05,-1e-05,-2.9999999999999997e-05,0.0,-2e-05,-1e-05,-1e-05,0.0,1
2528,2649,0.0,2e-05,1e-05,0.0,-2e-05,-1e-05,1e-05,-2.9999999999999997e-05,1
2529,2650,0.0,2e-05,1e-05,0.0,-2e-05,-1e-05,1e-05,-2.9999999999999997e-05,1
2530,2651,0.0,2e-05,1e-05,0.0,-2e-05,-1e-05,1e-05,-2.9999999999999997e-05,1
2531,2652,0.0,2e-05,1e-05,0.0,-2e-05,-1e-05,1e-05,-2.9999999999999997e-05,1
2532,2653,0.0,2e-05,1e-05,0.0,-2e-05,-1e-05,1e-05,-2.9999999999999997e-05,1
2533,2654,0.0,2e-05,1e-05,0.0,-2e-05,-1e-05,1e-05,-2.9999999999999997e-05,1
2534,2655,0.0,2e-05,1e-05,0.0,-2e-05,-1e-05,1e-05,-2.9999999999999997e-05,1
2535,2656,0.0,2e-05,1e-05,0.0,-2e-05,-1e-05,1e-05,-2.9999999999999997e-05,1
2536,2657,0.0,2e-05,1e-05,0.0,-2e-05,-1e-05,1e-05,-2.9999999999999997e-05,1
2537,2658,0.0,2e-05,1e-05,0.0,-2e-05,-1e-05,1e-05,-2.9999999999999997e-05,1
2538,2659,0.0,2e-05,1e-05,0.0,-2e-05,-1e-05,1e-05,-2.9999999999999997e-05,1
2539,2660,0.0,2e-05,1e-05,0.0,-2e-05,-1e-05,1e-05,-2.9999999999999997e-05,1
2540,2661,0.0,2e-05,1e-05,0.0,-2e-05,-1e-05,1e-05,-2.9999999999999997e-05,1
2541,2662,0.0,2e-05,1e-05,0.0,-2e-05,-1e-05,1e-05,-2.9999999999999997e-05,1
2542,2663,0.0,2e-05,1e-05,0.0,-2e-05,-1e-05,1e-05,-2.9999999999999997e-05,1
2543,2664,0.0,2e-05,1e-05,0.0,-2e-05,-1e-05,1e-05,-2.9999999999999997e-05,1
2544,2665,0.0,2e-05,1e-05,0.0,-2e-05,-1e-05,1e-05,-2.9999999999999997e-05,1
2545,2666,1e-05,5.9999999999999995e-05,2.9999999999999997e-05,1e-05,-1e-05,0.0,-2e-05,0.0,1
2546,2667,-2e-05,-1e-05,-5e-05,-2e-05,-2e-05,-2.9999999999999997e-05,-2e-05,2e-05,1
2547,2668,-2e-05,-1e-05,-5e-05,-2e-05,-2e-05,-2.9999999999999997e-05,-2e-05,2e-05,1
2548,2669,-2e-05,-1e-05,-5e-05,-2e-05,-2e-05,-2.9999999999999997e-05,-2e-05,2e-05,1
2549,2670,-2e-05,-1e-05,-5e-05,-2e-05,-2e-05,-2.9999999999999997e-05,-2e-05,2e-05,1
2550,2671,-2e-05,-1e-05,-5e-05,-2e-05,-2e-05,-2.9999999999999997e-05,-2e-05,2e-05,1
2551,2672,-2e-05,-1e-05,-5e-05,-2e-05,-2e-05,-2.9999999999999997e-05,-2e-05,2e-05,1
2552,2673,-2e-05,-1e-05,-5e-05,-2e-05,-2e-05,-2.9999999999999997e-05,-2e-05,2e-05,1
2553,2674,-2e-05,-1e-05,-5e-05,-2e-05,-2e-05,-2.9999999999999997e-05,-2e-05,2e-05,1
2554,2675,-2e-05,-1e-05,-5e-05,-2e-05,-2e-05,-2.9999999999999997e-05,-2e-05,2e-05,1
2555,2676,-2e-05,-1e-05,-5e-05,-2e-05,-2e-05,-2.9999999999999997e-05,-2e-05,2e-05,1
2556,2677,-2e-05,-1e-05,-5e-05,-2e-05,-2e-05,-2.9999999999999997e-05,-2e-05,2e-05,1
2557,2678,-2e-05,-1e-05,-5e-05,-2e-05,-2e-05,-2.9999999999999997e-05,-2e-05,2e-05,1
2558,2679,-2e-05,-1e-05,-5e-05,-2e-05,-2e-05,-2.9999999999999997e-05,-2e-05,2e-05,1
2559,2680,-2e-05,-1e-05,-5e-05,-2e-05,-2e-05,-2.9999999999999997e-05,-2e-05,2e-05,1
2560,2681,-2e-05,-1e-05,-5e-05,-2e-05,-2e-05,-2.9999999999999997e-05,-2e-05,2e-05,1
2561,2682,-2e-05,-1e-05,-5e-05,-2e-05,-2e-05,-2.9999999999999997e-05,-2e-05,2e-05,1
2562,2683,-2e-05,-1e-05,-5e-05,-2e-05,-2e-05,-2.9999999999999997e-05,-2e-05,2e-05,1
2563,2684,-2e-05,-1e-05,-5e-05,-2e-05,-2e-05,-2.9999999999999997e-05,-2e-05,2e-05,1
2564,2685,-2e-05,-1e-05,-5e-05,-2e-05,-2e-05,-2.9999999999999997e-05,-2e-05,2e-05,1
2565,2686,-2e-05,-1e-05,-5e-05,-2e-05,-2e-05,-2.9999999999999997e-05,-2e-05,2e-05,1
2566,2689,0.0,-2.9999999999999997e-05,-1e-05,-2e-05,-1e-05,-2.9999999999999997e-05,1e-05,1e-05,1
2567,2690,1e-05,-2.9999999999999997e-05,-1e-05,-2e-05,1e-05,-1e-05,0.0,-2e-05,1
2568,2691,1e-05,-2.9999999999999997e-05,-1e-05,-2e-05,1e-05,-1e-05,0.0,-2e-05,1
2569,2692,1e-05,-2.9999999999999997e-05,-1e-05,-2e-05,1e-05,-1e-05,0.0,-2e-05,1
2570,2693,1e-05,-2.9999999999999997e-05,-1e-05,-2e-05,1e-05,-1e-05,0.0,-2e-05,1
2571,2694,1e-05,-2.9999999999999997e-05,-1e-05,-2e-05,1e-05,-1e-05,0.0,-2e-05,1
2572,2695,1e-05,-2.9999999999999997e-05,-1e-05,-2e-05,1e-05,-1e-05,0.0,-2e-05,1
2573,2696,1e-05,-2.9999999999999997e-05,-1e-05,-2e-05,1e-05,-1e-05,0.0,-2e-05,1
2574,2697,1e-05,-2.9999999999999997e-05,-1e-05,-2e-05,1e-05,-1e-05,0.0,-2e-05,1
2575,2698,1e-05,-2.9999999999999997e-05,-1e-05,-2e-05,1e-05,-1e-05,0.0,-2e-05,1
2576,2699,1e-05,-2.9999999999999997e-05,-1e-05,-2e-05,1e-05,-1e-05,0.0,-2e-05,1
2577,2700,1e-05,-2.9999999999999997e-05,-1e-05,-2e-05,1e-05,-1e-05,0.0,-2e-05,1
2578,2701,1e-05,-2.9999999999999997e-05,-1e-05,-2e-05,1e-05,-1e-05,0.0,-2e-05,1
2579,2702,0.0,-1e-05,-2.9999999999999997e-05,-5e-05,0.0,1e-05,-1e-05,-2.9999999999999997e-05,1
2580,2703,-2.9999999999999997e-05,-2e-05,-1e-05,0.0,-2e-05,1e-05,-2e-05,-1e-05,1
2581,2705,-2.9999999999999997e-05,-2e-05,-1e-05,0.0,-2e-05,1e-05,-2e-05,-1e-05,1
2582,2706,-2.9999999999999997e-05,-2e-05,-1e-05,0.0,-2e-05,1e-05,-2e-05,-1e-05,1
2583,2707,-2.9999999999999997e-05,-2e-05,-1e-05,0.0,-2e-05,1e-05,-2e-05,-1e-05,1
2584,2708,-2.9999999999999997e-05,-2e-05,-1e-05,0.0,-2e-05,1e-05,-2e-05,-1e-05,1
2585,2709,-1e-05,-2e-05,0.0,-1e-05,0.0,-1e-05,-1e-05,-2e-05,1
2586,2710,-1e-05,-2e-05,0.0,-1e-05,0.0,-1e-05,-1e-05,-2e-05,1
2587,2711,-1e-05,-2e-05,0.0,-1e-05,0.0,-1e-05,-1e-05,-2e-05,1
2588,2712,-1e-05,-2e-05,0.0,-1e-05,0.0,-1e-05,-1e-05,-2e-05,1
2589,2713,-1e-05,-2e-05,0.0,-1e-05,0.0,-1e-05,-1e-05,-2e-05,1
2590,2714,-1e-05,-2e-05,0.0,-1e-05,0.0,-1e-05,-1e-05,-2e-05,1
2591,2715,-1e-05,-2e-05,0.0,-1e-05,0.0,-1e-05,-1e-05,-2e-05,1
2592,2716,-1e-05,-2e-05,0.0,-1e-05,0.0,-1e-05,-1e-05,-2e-05,1
2593,2717,-1e-05,-2e-05,0.0,-1e-05,0.0,-1e-05,-1e-05,-2e-05,1
2594,2718,-1e-05,-2e-05,0.0,-1e-05,0.0,-1e-05,-1e-05,-2e-05,1
2595,2719,-1e-05,-2e-05,0.0,-1e-05,0.0,-1e-05,-1e-05,-2e-05,1
2596,2720,-1e-05,-2e-05,0.0,-1e-05,0.0,-1e-05,-1e-05,-2e-05,1
2597,2721,-1e-05,-2e-05,0.0,-1e-05,0.0,-1e-05,-1e-05,-2e-05,1
2598,2722,-1e-05,-2e-05,0.0,-1e-05,0.0,-1e-05,-1e-05,-2e-05,1
2599,2723,-1e-05,-2e-05,0.0,-1e-05,0.0,-1e-05,-1e-05,-2e-05,1
2600,2724,-1e-05,-2e-05,0.0,-1e-05,0.0,-1e-05,-1e-05,-2e-05,1
2601,2725,-1e-05,-2e-05,0.0,-1e-05,0.0,-1e-05,-1e-05,-2e-05,1
2602,2726,-1e-05,-2e-05,0.0,-1e-05,0.0,-1e-05,-1e-05,-2e-05,1
2603,2727,-1e-05,-2e-05,0.0,-1e-05,0.0,-1e-05,-1e-05,-2e-05,1
2604,2728,-1e-05,-2e-05,0.0,-1e-05,0.0,-1e-05,-1e-05,-2e-05,1
2605,2729,-1e-05,-2e-05,0.0,-1e-05,0.0,-1e-05,-1e-05,-2e-05,1
2606,2730,-1e-05,-2e-05,0.0,-1e-05,0.0,-1e-05,-1e-05,-2e-05,1
2607,2731,-1e-05,-2e-05,0.0,-1e-05,0.0,-1e-05,-1e-05,-2e-05,1
2608,2732,-1e-05,-2e-05,0.0,-1e-05,0.0,-1e-05,-1e-05,-2e-05,1
2609,2733,0.0,-1e-05,1e-05,-2e-05,-4e-05,-1e-05,-1e-05,-2.9999999999999997e-05,1
2610,2734,0.0,-1e-05,1e-05,-2e-05,-4e-05,-1e-05,-1e-05,-2.9999999999999997e-05,1
2611,2735,0.0,-1e-05,-1e-05,-1e-05,-1e-05,-2e-05,1e-05,-1e-05,1
2612,2736,0.0,-1e-05,-1e-05,-1e-05,-1e-05,-2e-05,1e-05,-1e-05,1
2613,2738,0.0,-1e-05,-1e-05,-1e-05,-1e-05,-2e-05,1e-05,-1e-05,1
2614,2739,0.0,-1e-05,-1e-05,-1e-05,-1e-05,-2e-05,1e-05,-1e-05,1
2615,2740,0.0,-1e-05,-1e-05,-1e-05,-1e-05,-2e-05,1e-05,-1e-05,1
2616,2741,0.0,-1e-05,-1e-05,-1e-05,-1e-05,-2e-05,1e-05,-1e-05,1
2617,2742,0.0,-1e-05,-1e-05,-1e-05,-1e-05,-2e-05,1e-05,-1e-05,1
2618,2743,0.0,-1e-05,-1e-05,-1e-05,-1e-05,-2e-05,1e-05,-1e-05,1
2619,2744,0.0,-1e-05,-1e-05,-1e-05,-1e-05,-2e-05,1e-05,-1e-05,1
2620,2745,0.0,-1e-05,-1e-05,-1e-05,-1e-05,-2e-05,1e-05,-1e-05,1
2621,2746,0.0,-1e-05,-1e-05,-1e-05,-1e-05,-2e-05,1e-05,-1e-05,1
2622,2747,0.0,-1e-05,-1e-05,-1e-05,-1e-05,-2e-05,1e-05,-1e-05,1
2623,2748,0.0,-1e-05,-1e-05,-1e-05,-1e-05,-2e-05,1e-05,-1e-05,1
2624,2749,-2.9999999999999997e-05,-0.0001,-4e-05,-2.9999999999999997e-05,0.0,-4e-05,1e-05,0.0,1
2625,2750,-2.9999999999999997e-05,-0.0001,-4e-05,-2.9999999999999997e-05,0.0,-4e-05,1e-05,0.0,1
2626,2751,-2.9999999999999997e-05,-0.0001,-4e-05,-2.9999999999999997e-05,0.0,-4e-05,1e-05,0.0,1
2627,2752,-2.9999999999999997e-05,-0.0001,-4e-05,-2.9999999999999997e-05,0.0,-4e-05,1e-05,0.0,1
2628,2753,-2.9999999999999997e-05,-0.0001,-4e-05,-2.9999999999999997e-05,0.0,-4e-05,1e-05,0.0,1
2629,2754,-2.9999999999999997e-05,-0.0001,-4e-05,-2.9999999999999997e-05,0.0,-4e-05,1e-05,0.0,1
2630,2755,-2.9999999999999997e-05,-0.0001,-4e-05,-2.9999999999999997e-05,0.0,-4e-05,1e-05,0.0,1
2631,2756,-2e-05,0.0,2e-05,-2e-05,-2e-05,-1e-05,-2.9999999999999997e-05,-1e-05,1
2632,2757,-2e-05,0.0,2e-05,-2e-05,-2e-05,-1e-05,-2.9999999999999997e-05,-1e-05,1
2633,2758,-2e-05,0.0,2e-05,-2e-05,-2e-05,-1e-05,-2.9999999999999997e-05,-1e-05,1
2634,2759,-2e-05,0.0,2e-05,-2e-05,-2e-05,-1e-05,-2.9999999999999997e-05,-1e-05,1
2635,2760,-2e-05,0.0,2e-05,-2e-05,-2e-05,-1e-05,-2.9999999999999997e-05,-1e-05,1
