,time,channel1,channel2,channel3,channel4,channel5,channel6,channel7,channel8,class
1981,2079,-2.9999999999999997e-05,-2e-05,2e-05,-2.9999999999999997e-05,-1e-05,-1e-05,0.0,-2e-05,1.0
1982,2080,-2.9999999999999997e-05,-2e-05,2e-05,-2.9999999999999997e-05,-1e-05,-1e-05,0.0,-2e-05,1.0
1983,2081,-2.9999999999999997e-05,-2e-05,2e-05,-2.9999999999999997e-05,-1e-05,-1e-05,0.0,-2e-05,1.0
1984,2082,-2.9999999999999997e-05,-2e-05,2e-05,-2.9999999999999997e-05,-1e-05,-1e-05,0.0,-2e-05,1.0
1985,2083,-2.9999999999999997e-05,-2e-05,2e-05,-2.9999999999999997e-05,-1e-05,-1e-05,0.0,-2e-05,1.0
1986,2084,-2.9999999999999997e-05,-2e-05,2e-05,-2.9999999999999997e-05,-1e-05,-1e-05,0.0,-2e-05,1.0
1987,2085,-2.9999999999999997e-05,-2e-05,2e-05,-2.9999999999999997e-05,-1e-05,-1e-05,0.0,-2e-05,1.0
1988,2087,-2.9999999999999997e-05,-2e-05,2e-05,-2.9999999999999997e-05,-1e-05,-1e-05,0.0,-2e-05,1.0
1989,2089,-2.9999999999999997e-05,-2e-05,2e-05,-2.9999999999999997e-05,-1e-05,-1e-05,0.0,-2e-05,1.0
1990,2090,-2.9999999999999997e-05,-2e-05,2e-05,-2.9999999999999997e-05,-1e-05,-1e-05,0.0,-2e-05,1.0
1991,2091,-2.9999999999999997e-05,-2e-05,2e-05,-2.9999999999999997e-05,-1e-05,-1e-05,0.0,-2e-05,1.0
1992,2092,-2.9999999999999997e-05,-2e-05,2e-05,-2.9999999999999997e-05,-1e-05,-1e-05,0.0,-2e-05,1.0
1993,2093,-2.9999999999999997e-05,-2e-05,2e-05,-2.9999999999999997e-05,-1e-05,-1e-05,0.0,-2e-05,1.0
1994,2094,-2.9999999999999997e-05,-2e-05,2e-05,-2.9999999999999997e-05,-1e-05,-1e-05,0.0,-2e-05,1.0
1995,2095,-2.9999999999999997e-05,-2e-05,2e-05,-2.9999999999999997e-05,-1e-05,-1e-05,0.0,-2e-05,1.0
1996,2096,-2.9999999999999997e-05,-2e-05,2e-05,-2.9999999999999997e-05,-1e-05,-1e-05,0.0,-2e-05,1.0
1997,2097,-2.9999999999999997e-05,-2e-05,2e-05,-2.9999999999999997e-05,-1e-05,-1e-05,0.0,-2e-05,1.0
1998,2098,-2.9999999999999997e-05,-2e-05,2e-05,-2.9999999999999997e-05,-1e-05,-1e-05,0.0,-2e-05,1.0
1999,2099,-2.9999999999999997e-05,-2e-05,2e-05,-2.9999999999999997e-05,-1e-05,-1e-05,0.0,-2e-05,1.0
2000,2100,-1e-05,1e-05,7e-05,1e-05,0.0,-1e-05,-2e-05,-1e-05,1.0
2001,2101,-1e-05,-1e-05,2e-05,-2e-05,0.0,-1e-05,-1e-05,-1e-05,1.0
2002,2102,-1e-05,-1e-05,2e-05,-2e-05,0.0,-1e-05,-1e-05,-1e-05,1.0
2003,2103,-1e-05,-1e-05,2e-05,-2e-05,0.0,-1e-05,-1e-05,-1e-05,1.0
2004,2104,-1e-05,-1e-05,2e-05,-2e-05,0.0,-1e-05,-1e-05,-1e-05,1.0
2005,2105,-1e-05,-1e-05,2e-05,-2e-05,0.0,-1e-05,-1e-05,-1e-05,1.0
2006,2106,-1e-05,-1e-05,2e-05,-2e-05,0.0,-1e-05,-1e-05,-1e-05,1.0
2007,2107,-1e-05,-1e-05,2e-05,-2e-05,0.0,-1e-05,-1e-05,-1e-05,1.0
2008,2108,-1e-05,-1e-05,2e-05,-2e-05,0.0,-1e-05,-1e-05,-1e-05,1.0
2009,2109,-1e-05,-1e-05,2e-05,-2e-05,0.0,-1e-05,-1e-05,-1e-05,1.0
2010,2110,-1e-05,-1e-05,2e-05,-2e-05,0.0,-1e-05,-1e-05,-1e-05,1.0
2011,2111,-1e-05,-1e-05,2e-05,-2e-05,0.0,-1e-05,-1e-05,-1e-05,1.0
2012,2112,-1e-05,-1e-05,2e-05,-2e-05,0.0,-1e-05,-1e-05,-1e-05,1.0
2013,2113,-2.9999999999999997e-05,-4e-05,-4e-05,-2.9999999999999997e-05,-5e-05,1e-05,0.0,-2e-05,1.0
2014,2114,-2.9999999999999997e-05,-1e-05,-8e-05,-1e-05,0.0,0.0,-4e-05,-1e-05,1.0
2015,2115,-2.9999999999999997e-05,-1e-05,-8e-05,-1e-05,0.0,0.0,-4e-05,-1e-05,1.0
2016,2116,-2.9999999999999997e-05,-1e-05,-8e-05,-1e-05,0.0,0.0,-4e-05,-1e-05,1.0
2017,2117,-2.9999999999999997e-05,-1e-05,-8e-05,-1e-05,0.0,0.0,-4e-05,-1e-05,1.0
2018,2118,-2.9999999999999997e-05,-1e-05,-8e-05,-1e-05,0.0,0.0,-4e-05,-1e-05,1.0
2019,2119,-2.9999999999999997e-05,-1e-05,-8e-05,-1e-05,0.0,0.0,-4e-05,-1e-05,1.0
2020,2120,-2e-05,0.0,2.9999999999999997e-05,-1e-05,-2e-05,-1e-05,-1e-05,1e-05,1.0
2021,2121,0.0,1e-05,1e-05,2.9999999999999997e-05,-1e-05,0.0,0.0,0.0,1.0
2022,2122,0.0,1e-05,1e-05,2.9999999999999997e-05,-1e-05,0.0,0.0,0.0,1.0
2023,2123,0.0,1e-05,1e-05,2.9999999999999997e-05,-1e-05,0.0,0.0,0.0,1.0
2024,2124,0.0,1e-05,1e-05,2.9999999999999997e-05,-1e-05,0.0,0.0,0.0,1.0
2025,2125,0.0,1e-05,1e-05,2.9999999999999997e-05,-1e-05,0.0,0.0,0.0,1.0
2026,2126,0.0,1e-05,1e-05,2.9999999999999997e-05,-1e-05,0.0,0.0,0.0,1.0
2027,2127,0.0,1e-05,1e-05,2.9999999999999997e-05,-1e-05,0.0,0.0,0.0,1.0
2028,2128,0.0,1e-05,1e-05,2.9999999999999997e-05,-1e-05,0.0,0.0,0.0,1.0
2029,2129,0.0,1e-05,1e-05,2.9999999999999997e-05,-1e-05,0.0,0.0,0.0,1.0
2030,2130,0.0,1e-05,1e-05,2.9999999999999997e-05,-1e-05,0.0,0.0,0.0,1.0
2031,2131,0.0,1e-05,1e-05,2.9999999999999997e-05,-1e-05,0.0,0.0,0.0,1.0
2032,2132,0.0,1e-05,1e-05,2.9999999999999997e-05,-1e-05,0.0,0.0,0.0,1.0
2033,2133,0.0,1e-05,1e-05,2.9999999999999997e-05,-1e-05,0.0,0.0,0.0,1.0
2034,2134,0.0,1e-05,1e-05,2.9999999999999997e-05,-1e-05,0.0,0.0,0.0,1.0
2035,2135,0.0,1e-05,1e-05,2.9999999999999997e-05,-1e-05,0.0,0.0,0.0,1.0
2036,2136,0.0,1e-05,1e-05,2.9999999999999997e-05,-1e-05,0.0,0.0,0.0,1.0
2037,2138,0.0,-2.9999999999999997e-05,-2e-05,-2e-05,0.0,0.0,1e-05,0.0,1.0
2038,2139,0.0,-2e-05,1e-05,1e-05,-2e-05,-2e-05,-2e-05,-2.9999999999999997e-05,1.0
2039,2140,0.0,-2e-05,1e-05,1e-05,-2e-05,-2e-05,-2e-05,-2.9999999999999997e-05,1.0
2040,2141,0.0,-2e-05,1e-05,1e-05,-2e-05,-2e-05,-2e-05,-2.9999999999999997e-05,1.0
2041,2142,0.0,-2e-05,1e-05,1e-05,-2e-05,-2e-05,-2e-05,-2.9999999999999997e-05,1.0
2042,2143,0.0,-2e-05,1e-05,1e-05,-2e-05,-2e-05,-2e-05,-2.9999999999999997e-05,1.0
2043,2144,0.0,-2e-05,1e-05,1e-05,-2e-05,-2e-05,-2e-05,-2.9999999999999997e-05,1.0
2044,2145,0.0,-2e-05,1e-05,1e-05,-2e-05,-2e-05,-2e-05,-2.9999999999999997e-05,1.0
2045,2146,0.0,-2e-05,1e-05,1e-05,-2e-05,-2e-05,-2e-05,-2.9999999999999997e-05,1.0
2046,2147,0.0,-2e-05,1e-05,1e-05,-2e-05,-2e-05,-2e-05,-2.9999999999999997e-05,1.0
2047,2148,0.0,-2e-05,1e-05,1e-05,-2e-05,-2e-05,-2e-05,-2.9999999999999997e-05,1.0
2048,2149,0.0,-2e-05,1e-05,1e-05,-2e-05,-2e-05,-2e-05,-2.9999999999999997e-05,1.0
2049,2150,0.0,-2e-05,1e-05,1e-05,-2e-05,-2e-05,-2e-05,-2.9999999999999997e-05,1.0
2050,2151,0.0,-2e-05,1e-05,1e-05,-2e-05,-2e-05,-2e-05,-2.9999999999999997e-05,1.0
2051,2152,0.0,-2e-05,1e-05,1e-05,-2e-05,-2e-05,-2e-05,-2.9999999999999997e-05,1.0
2052,2153,0.0,-2e-05,1e-05,1e-05,-2e-05,-2e-05,-2e-05,-2.9999999999999997e-05,1.0
2053,2154,0.0,-2e-05,1e-05,1e-05,-2e-05,-2e-05,-2e-05,-2.9999999999999997e-05,1.0
2054,2155,0.0,-2e-05,1e-05,1e-05,-2e-05,-2e-05,-2e-05,-2.9999999999999997e-05,1.0
2055,2156,0.0,-2e-05,1e-05,1e-05,-2e-05,-2e-05,-2e-05,-2.9999999999999997e-05,1.0
2056,2157,0.0,-2e-05,1e-05,1e-05,-2e-05,-2e-05,-2e-05,-2.9999999999999997e-05,1.0
2057,2158,0.0,-2e-05,1e-05,1e-05,-2e-05,-2e-05,-2e-05,-2.9999999999999997e-05,1.0
2058,2159,0.0,4e-05,1e-05,2e-05,-2e-05,-1e-05,-2e-05,1e-05,1.0
2059,2160,0.0,4e-05,1e-05,2e-05,-2e-05,-1e-05,-2e-05,1e-05,1.0
2060,2161,-2e-05,-4e-05,-5e-05,-1e-05,-1e-05,-1e-05,-1e-05,-1e-05,1.0
2061,2162,-2e-05,-4e-05,-5e-05,-1e-05,-1e-05,-1e-05,-1e-05,-1e-05,1.0
2062,2163,-2e-05,-4e-05,-5e-05,-1e-05,-1e-05,-1e-05,-1e-05,-1e-05,1.0
2063,2164,-2e-05,-4e-05,-5e-05,-1e-05,-1e-05,-1e-05,-1e-05,-1e-05,1.0
2064,2165,-2e-05,-4e-05,-5e-05,-1e-05,-1e-05,-1e-05,-1e-05,-1e-05,1.0
2065,2166,-2e-05,-4e-05,-5e-05,-1e-05,-1e-05,-1e-05,-1e-05,-1e-05,1.0
2066,2167,-2e-05,-4e-05,-5e-05,-1e-05,-1e-05,-1e-05,-1e-05,-1e-05,1.0
2067,2168,-2e-05,-4e-05,-5e-05,-1e-05,-1e-05,-1e-05,-1e-05,-1e-05,1.0
2068,2169,-2e-05,-4e-05,-5e-05,-1e-05,-1e-05,-1e-05,-1e-05,-1e-05,1.0
2069,2170,-2e-05,-4e-05,-5e-05,-1e-05,-1e-05,-1e-05,-1e-05,-1e-05,1.0
2070,2171,-2e-05,-4e-05,-5e-05,-1e-05,-1e-05,-1e-05,-1e-05,-1e-05,1.0
2071,2172,-2e-05,-4e-05,-5e-05,-1e-05,-1e-05,-1e-05,-1e-05,-1e-05,1.0
2072,2173,-2e-05,-4e-05,-5e-05,-1e-05,-1e-05,-1e-05,-1e-05,-1e-05,1.0
2073,2174,-2e-05,-4e-05,-5e-05,-1e-05,-1e-05,-1e-05,-1e-05,-1e-05,1.0
2074,2175,-2e-05,-4e-05,-5e-05,-1e-05,-1e-05,-1e-05,-1e-05,-1e-05,1.0
2075,2176,-2e-05,-4e-05,-5e-05,-1e-05,-1e-05,-1e-05,-1e-05,-1e-05,1.0
2076,2177,-2e-05,-4e-05,-5e-05,-1e-05,-1e-05,-1e-05,-1e-05,-1e-05,1.0
2077,2178,-2e-05,-4e-05,-5e-05,-1e-05,-1e-05,-1e-05,-1e-05,-1e-05,1.0
2078,2179,-2e-05,-4e-05,-5e-05,-1e-05,-1e-05,-1e-05,-1e-05,-1e-05,1.0
2079,2180,-2e-05,-4e-05,-5e-05,-1e-05,-1e-05,-1e-05,-1e-05,-1e-05,1.0
2080,2181,-2e-05,-4e-05,-5e-05,-1e-05,-1e-05,-1e-05,-1e-05,-1e-05,1.0
2081,2182,-2e-05,-4e-05,-5e-05,-1e-05,-1e-05,-1e-05,-1e-05,-1e-05,1.0
2082,2183,-2e-05,-4e-05,-5e-05,-1e-05,-1e-05,-1e-05,-1e-05,-1e-05,1.0
2083,2184,-2e-05,-4e-05,-5e-05,-1e-05,-1e-05,-1e-05,-1e-05,-1e-05,1.0
2084,2185,-2e-05,-4e-05,-5e-05,-1e-05,-1e-05,-1e-05,-1e-05,-1e-05,1.0
2085,2186,-2e-05,-4e-05,-5e-05,-1e-05,-1e-05,-1e-05,-1e-05,-1e-05,1.0
2086,2188,-2e-05,-4e-05,-5e-05,-1e-05,-1e-05,-1e-05,-1e-05,-1e-05,1.0
2087,2189,1e-05,1e-05,5.9999999999999995e-05,-1e-05,-1e-05,-1e-05,0.0,0.0,1.0
2088,2190,1e-05,1e-05,5.9999999999999995e-05,-1e-05,-1e-05,-1e-05,0.0,0.0,1.0
2089,2191,-1e-05,-1e-05,0.0,-2e-05,-2e-05,-1e-05,0.0,0.0,1.0
2090,2192,-1e-05,-1e-05,0.0,-2e-05,-2e-05,-1e-05,0.0,0.0,1.0
2091,2193,-1e-05,-1e-05,0.0,-2e-05,-2e-05,-1e-05,0.0,0.0,1.0
2092,2194,-1e-05,-1e-05,0.0,-2e-05,-2e-05,-1e-05,0.0,0.0,1.0
2093,2195,-1e-05,-1e-05,0.0,-2e-05,-2e-05,-1e-05,0.0,0.0,1.0
2094,2196,-1e-05,-1e-05,0.0,-2e-05,-2e-05,-1e-05,0.0,0.0,1.0
2095,2197,1e-05,-2e-05,5e-05,0.0,0.0,0.0,0.0,-1e-05,1.0
2096,2198,0.0,-2e-05,-9e-05,-2e-05,-2.9999999999999997e-05,-2e-05,0.0,0.0,1.0
2097,2199,0.0,-2e-05,-9e-05,-2e-05,-2.9999999999999997e-05,-2e-05,0.0,0.0,1.0
2098,2200,0.0,-2e-05,-9e-05,-2e-05,-2.9999999999999997e-05,-2e-05,0.0,0.0,1.0
2099,2201,0.0,-2e-05,-9e-05,-2e-05,-2.9999999999999997e-05,-2e-05,0.0,0.0,1.0
2100,2202,0.0,-2e-05,-9e-05,-2e-05,-2.9999999999999997e-05,-2e-05,0.0,0.0,1.0
2101,2203,0.0,-2e-05,-9e-05,-2e-05,-2.9999999999999997e-05,-2e-05,0.0,0.0,1.0
2102,2204,0.0,-2e-05,-9e-05,-2e-05,-2.9999999999999997e-05,-2e-05,0.0,0.0,1.0
2103,2205,0.0,-2e-05,-9e-05,-2e-05,-2.9999999999999997e-05,-2e-05,0.0,0.0,1.0
2104,2206,0.0,-2e-05,-9e-05,-2e-05,-2.9999999999999997e-05,-2e-05,0.0,0.0,1.0
2105,2207,0.0,-2e-05,-9e-05,-2e-05,-2.9999999999999997e-05,-2e-05,0.0,0.0,1.0
2106,2208,0.0,-2e-05,-9e-05,-2e-05,-2.9999999999999997e-05,-2e-05,0.0,0.0,1.0
2107,2209,0.0,-2e-05,-9e-05,-2e-05,-2.9999999999999997e-05,-2e-05,0.0,0.0,1.0
2108,2210,0.0,-2e-05,-9e-05,-2e-05,-2.9999999999999997e-05,-2e-05,0.0,0.0,1.0
2109,2211,0.0,-2e-05,-9e-05,-2e-05,-2.9999999999999997e-05,-2e-05,0.0,0.0,1.0
2110,2212,0.0,-2e-05,-9e-05,-2e-05,-2.9999999999999997e-05,-2e-05,0.0,0.0,1.0
2111,2213,0.0,-2e-05,-9e-05,-2e-05,-2.9999999999999997e-05,-2e-05,0.0,0.0,1.0
2112,2214,0.0,-2e-05,-9e-05,-2e-05,-2.9999999999999997e-05,-2e-05,0.0,0.0,1.0
2113,2215,0.0,-2e-05,-9e-05,-2e-05,-2.9999999999999997e-05,-2e-05,0.0,0.0,1.0
2114,2216,0.0,-2e-05,-9e-05,-2e-05,-2.9999999999999997e-05,-2e-05,0.0,0.0,1.0
2115,2217,0.0,-2e-05,-9e-05,-2e-05,-2.9999999999999997e-05,-2e-05,0.0,0.0,1.0
2116,2218,0.0,-2e-05,-9e-05,-2e-05,-2.9999999999999997e-05,-2e-05,0.0,0.0,1.0
2117,2219,0.0,-2e-05,-4e-05,-2e-05,-1e-05,0.0,-1e-05,-2.9999999999999997e-05,1.0
2118,2220,0.0,-2e-05,-4e-05,-2e-05,-1e-05,0.0,-1e-05,-2.9999999999999997e-05,1.0
2119,2221,-1e-05,-2e-05,2e-05,0.0,-1e-05,1e-05,-2.9999999999999997e-05,-2.9999999999999997e-05,1.0
2120,2222,-2.9999999999999997e-05,2e-05,2e-05,1e-05,1e-05,0.0,-2.9999999999999997e-05,-1e-05,1.0
2121,2223,-2.9999999999999997e-05,2e-05,2e-05,1e-05,1e-05,0.0,-2.9999999999999997e-05,-1e-05,1.0
2122,2224,-2.9999999999999997e-05,2e-05,2e-05,1e-05,1e-05,0.0,-2.9999999999999997e-05,-1e-05,1.0
2123,2225,-2.9999999999999997e-05,2e-05,2e-05,1e-05,1e-05,0.0,-2.9999999999999997e-05,-1e-05,1.0
2124,2226,-2.9999999999999997e-05,2e-05,2e-05,1e-05,1e-05,0.0,-2.9999999999999997e-05,-1e-05,1.0
2125,2227,-2.9999999999999997e-05,2e-05,2e-05,1e-05,1e-05,0.0,-2.9999999999999997e-05,-1e-05,1.0
2126,2228,-2.9999999999999997e-05,2e-05,2e-05,1e-05,1e-05,0.0,-2.9999999999999997e-05,-1e-05,1.0
2127,2229,-2.9999999999999997e-05,2e-05,2e-05,1e-05,1e-05,0.0,-2.9999999999999997e-05,-1e-05,1.0
2128,2230,-2.9999999999999997e-05,2e-05,2e-05,1e-05,1e-05,0.0,-2.9999999999999997e-05,-1e-05,1.0
2129,2231,-2.9999999999999997e-05,2e-05,2e-05,1e-05,1e-05,0.0,-2.9999999999999997e-05,-1e-05,1.0
2130,2232,-2.9999999999999997e-05,2e-05,2e-05,1e-05,1e-05,0.0,-2.9999999999999997e-05,-1e-05,1.0
2131,2233,0.0,-2.9999999999999997e-05,-4e-05,0.0,-1e-05,-2.9999999999999997e-05,1e-05,0.0,1.0
2132,2234,0.0,-2.9999999999999997e-05,-4e-05,0.0,-1e-05,-2.9999999999999997e-05,1e-05,0.0,1.0
2133,2235,0.0,-2.9999999999999997e-05,-4e-05,0.0,-1e-05,-2.9999999999999997e-05,1e-05,0.0,1.0
2134,2236,0.0,-2.9999999999999997e-05,-4e-05,0.0,-1e-05,-2.9999999999999997e-05,1e-05,0.0,1.0
2135,2239,0.0,-2.9999999999999997e-05,-4e-05,0.0,-1e-05,-2.9999999999999997e-05,1e-05,0.0,1.0
2136,2240,0.0,-2.9999999999999997e-05,-4e-05,0.0,-1e-05,-2.9999999999999997e-05,1e-05,0.0,1.0
2137,2241,0.0,-2.9999999999999997e-05,-4e-05,0.0,-1e-05,-2.9999999999999997e-05,1e-05,0.0,1.0
2138,2242,0.0,-2e-05,1e-05,-1e-05,0.0,-2e-05,0.0,-1e-05,1.0
2139,2243,0.0,-2e-05,1e-05,-1e-05,0.0,-2e-05,0.0,-1e-05,1.0
2140,2244,0.0,-2e-05,1e-05,-1e-05,0.0,-2e-05,0.0,-1e-05,1.0
2141,2245,0.0,-2e-05,1e-05,-1e-05,0.0,-2e-05,0.0,-1e-05,1.0
2142,2246,0.0,-2e-05,1e-05,-1e-05,0.0,-2e-05,0.0,-1e-05,1.0
2143,2247,0.0,-2e-05,1e-05,-1e-05,0.0,-2e-05,0.0,-1e-05,1.0
2144,2248,0.0,-2e-05,1e-05,-1e-05,0.0,-2e-05,0.0,-1e-05,1.0
2145,2249,0.0,-2e-05,1e-05,-1e-05,0.0,-2e-05,0.0,-1e-05,1.0
2146,2250,0.0,-2e-05,1e-05,-1e-05,0.0,-2e-05,0.0,-1e-05,1.0
2147,2251,0.0,-2e-05,1e-05,-1e-05,0.0,-2e-05,0.0,-1e-05,1.0
2148,2252,0.0,-2e-05,1e-05,-1e-05,0.0,-2e-05,0.0,-1e-05,1.0
2149,2253,0.0,-2e-05,1e-05,-1e-05,0.0,-2e-05,0.0,-1e-05,1.0
2150,2254,0.0,-2e-05,1e-05,-1e-05,0.0,-2e-05,0.0,-1e-05,1.0
2151,2255,0.0,-2e-05,1e-05,-1e-05,0.0,-2e-05,0.0,-1e-05,1.0
2152,2256,0.0,-2e-05,1e-05,-1e-05,0.0,-2e-05,0.0,-1e-05,1.0
2153,2257,-1e-05,4e-05,0.00014,2.9999999999999997e-05,0.0,0.0,0.0,-2.9999999999999997e-05,1.0
2154,2258,-2.9999999999999997e-05,-1e-05,2.9999999999999997e-05,-1e-05,-2e-05,-1e-05,-1e-05,-1e-05,1.0
2155,2259,-2.9999999999999997e-05,-1e-05,2.9999999999999997e-05,-1e-05,-2e-05,-1e-05,-1e-05,-1e-05,1.0
2156,2260,-2.9999999999999997e-05,-1e-05,2.9999999999999997e-05,-1e-05,-2e-05,-1e-05,-1e-05,-1e-05,1.0
2157,2261,-2.9999999999999997e-05,-1e-05,2.9999999999999997e-05,-1e-05,-2e-05,-1e-05,-1e-05,-1e-05,1.0
2158,2262,-2.9999999999999997e-05,-1e-05,2.9999999999999997e-05,-1e-05,-2e-05,-1e-05,-1e-05,-1e-05,1.0
2159,2263,-2.9999999999999997e-05,-1e-05,2.9999999999999997e-05,-1e-05,-2e-05,-1e-05,-1e-05,-1e-05,1.0
2160,2264,-2.9999999999999997e-05,-1e-05,2.9999999999999997e-05,-1e-05,-2e-05,-1e-05,-1e-05,-1e-05,1.0
2161,2265,-2.9999999999999997e-05,-1e-05,2.9999999999999997e-05,-1e-05,-2e-05,-1e-05,-1e-05,-1e-05,1.0
2162,2266,-2.9999999999999997e-05,-1e-05,2.9999999999999997e-05,-1e-05,-2e-05,-1e-05,-1e-05,-1e-05,1.0
2163,2267,-2.9999999999999997e-05,-1e-05,2.9999999999999997e-05,-1e-05,-2e-05,-1e-05,-1e-05,-1e-05,1.0
2164,2268,-2.9999999999999997e-05,-1e-05,2.9999999999999997e-05,-1e-05,-2e-05,-1e-05,-1e-05,-1e-05,1.0
2165,2269,-2.9999999999999997e-05,-1e-05,2.9999999999999997e-05,-1e-05,-2e-05,-1e-05,-1e-05,-1e-05,1.0
2166,2270,-2.9999999999999997e-05,-1e-05,2.9999999999999997e-05,-1e-05,-2e-05,-1e-05,-1e-05,-1e-05,1.0
2167,2271,-2.9999999999999997e-05,-1e-05,2.9999999999999997e-05,-1e-05,-2e-05,-1e-05,-1e-05,-1e-05,1.0
2168,2272,-2.9999999999999997e-05,-1e-05,2.9999999999999997e-05,-1e-05,-2e-05,-1e-05,-1e-05,-1e-05,1.0
2169,2273,-2.9999999999999997e-05,-1e-05,2.9999999999999997e-05,-1e-05,-2e-05,-1e-05,-1e-05,-1e-05,1.0
2170,2274,-2.9999999999999997e-05,-1e-05,2.9999999999999997e-05,-1e-05,-2e-05,-1e-05,-1e-05,-1e-05,1.0
2171,2275,-2.9999999999999997e-05,-1e-05,2.9999999999999997e-05,-1e-05,-2e-05,-1e-05,-1e-05,-1e-05,1.0
2172,2276,-2.9999999999999997e-05,-1e-05,2.9999999999999997e-05,-1e-05,-2e-05,-1e-05,-1e-05,-1e-05,1.0
2173,2277,-2.9999999999999997e-05,-1e-05,2.9999999999999997e-05,-1e-05,-2e-05,-1e-05,-1e-05,-1e-05,1.0
2174,2278,-2.9999999999999997e-05,-1e-05,2.9999999999999997e-05,-1e-05,-2e-05,-1e-05,-1e-05,-1e-05,1.0
2175,2279,0.0,-2.9999999999999997e-05,-7e-05,-2e-05,-2e-05,0.0,-1e-05,0.0,1.0
2176,2280,0.0,-2.9999999999999997e-05,-7e-05,-2e-05,-2e-05,0.0,-1e-05,0.0,1.0
2177,2281,-2e-05,-2.9999999999999997e-05,-2e-05,-1e-05,-1e-05,1e-05,0.0,-1e-05,1.0
2178,2282,-2e-05,-2.9999999999999997e-05,-2e-05,-1e-05,-1e-05,1e-05,0.0,-1e-05,1.0
2179,2283,-2e-05,-2.9999999999999997e-05,-2e-05,-1e-05,-1e-05,1e-05,0.0,-1e-05,1.0
2180,2284,-2e-05,-2.9999999999999997e-05,-2e-05,-1e-05,-1e-05,1e-05,0.0,-1e-05,1.0
2181,2285,-2e-05,-2.9999999999999997e-05,-2e-05,-1e-05,-1e-05,1e-05,0.0,-1e-05,1.0
2182,2286,-2e-05,-2.9999999999999997e-05,-2e-05,-1e-05,-1e-05,1e-05,0.0,-1e-05,1.0
2183,2288,-2e-05,-2.9999999999999997e-05,-2e-05,-1e-05,-1e-05,1e-05,0.0,-1e-05,1.0
2184,2289,-2e-05,-2.9999999999999997e-05,-2e-05,-1e-05,-1e-05,1e-05,0.0,-1e-05,1.0
2185,2290,-2e-05,-2.9999999999999997e-05,-2e-05,-1e-05,-1e-05,1e-05,0.0,-1e-05,1.0
2186,2291,-2e-05,-2.9999999999999997e-05,-2e-05,-1e-05,-1e-05,1e-05,0.0,-1e-05,1.0
2187,2292,-2e-05,-2.9999999999999997e-05,-2e-05,-1e-05,-1e-05,1e-05,0.0,-1e-05,1.0
2188,2293,-1e-05,-2e-05,-2e-05,-2e-05,-1e-05,-1e-05,-2.9999999999999997e-05,-1e-05,1.0
2189,2294,-1e-05,-2e-05,-2e-05,-2e-05,-1e-05,-1e-05,-2.9999999999999997e-05,-1e-05,1.0
2190,2295,-1e-05,-2e-05,-2e-05,-2e-05,-1e-05,-1e-05,-2.9999999999999997e-05,-1e-05,1.0
2191,2296,-1e-05,-2e-05,-2e-05,-2e-05,-1e-05,-1e-05,-2.9999999999999997e-05,-1e-05,1.0
2192,2297,-1e-05,-2e-05,-2e-05,-2e-05,-1e-05,-1e-05,-2.9999999999999997e-05,-1e-05,1.0
2193,2298,-1e-05,-2e-05,-2e-05,-2e-05,-1e-05,-1e-05,-2.9999999999999997e-05,-1e-05,1.0
2194,2299,-1e-05,-2e-05,-2e-05,-2e-05,-1e-05,-1e-05,-2.9999999999999997e-05,-1e-05,1.0
2195,2300,-1e-05,-2e-05,-2e-05,-2e-05,-1e-05,-1e-05,-2.9999999999999997e-05,-1e-05,1.0
2196,2301,-1e-05,-2e-05,-2e-05,-2e-05,-1e-05,-1e-05,-2.9999999999999997e-05,-1e-05,1.0
2197,2302,-1e-05,-2e-05,-2e-05,-2e-05,-1e-05,-1e-05,-2.9999999999999997e-05,-1e-05,1.0
2198,2303,-1e-05,-2e-05,-2e-05,-2e-05,-1e-05,-1e-05,-2.9999999999999997e-05,-1e-05,1.0
2199,2304,-1e-05,-2e-05,-2e-05,-2e-05,-1e-05,-1e-05,-2.9999999999999997e-05,-1e-05,1.0
2200,2305,-1e-05,-2e-05,-2e-05,-2e-05,-1e-05,-1e-05,-2.9999999999999997e-05,-1e-05,1.0
2201,2306,-1e-05,-2e-05,-2e-05,-2e-05,-1e-05,-1e-05,-2.9999999999999997e-05,-1e-05,1.0
2202,2307,-1e-05,-2e-05,-2e-05,-2e-05,-1e-05,-1e-05,-2.9999999999999997e-05,-1e-05,1.0
2203,2308,-1e-05,0.0,-2.9999999999999997e-05,0.0,0.0,-2e-05,0.0,1e-05,1.0
2204,2309,-1e-05,0.0,-2.9999999999999997e-05,0.0,0.0,-2e-05,0.0,1e-05,1.0
2205,2310,-1e-05,0.0,-2.9999999999999997e-05,0.0,0.0,-2e-05,0.0,1e-05,1.0
2206,2311,-1e-05,0.0,-2.9999999999999997e-05,0.0,0.0,-2e-05,0.0,1e-05,1.0
2207,2312,-1e-05,0.0,-2.9999999999999997e-05,0.0,0.0,-2e-05,0.0,1e-05,1.0
2208,2313,-1e-05,0.0,-2.9999999999999997e-05,0.0,0.0,-2e-05,0.0,1e-05,1.0
2209,2314,-1e-05,0.0,-2.9999999999999997e-05,0.0,0.0,-2e-05,0.0,1e-05,1.0
2210,2315,-1e-05,0.0,-2.9999999999999997e-05,0.0,0.0,-2e-05,0.0,1e-05,1.0
2211,2316,-1e-05,0.0,-2.9999999999999997e-05,0.0,0.0,-2e-05,0.0,1e-05,1.0
2212,2317,-1e-05,-2e-05,-5.9999999999999995e-05,-4e-05,-2e-05,-1e-05,0.0,0.0,1.0
2213,2318,-1e-05,1e-05,2e-05,1e-05,0.0,-2e-05,-2e-05,-1e-05,1.0
2214,2319,-1e-05,1e-05,2e-05,1e-05,0.0,-2e-05,-2e-05,-1e-05,1.0
2215,2320,-1e-05,1e-05,2e-05,1e-05,0.0,-2e-05,-2e-05,-1e-05,1.0
2216,2321,-1e-05,1e-05,2e-05,1e-05,0.0,-2e-05,-2e-05,-1e-05,1.0
2217,2322,-1e-05,1e-05,2e-05,1e-05,0.0,-2e-05,-2e-05,-1e-05,1.0
2218,2323,-1e-05,1e-05,2e-05,1e-05,0.0,-2e-05,-2e-05,-1e-05,1.0
2219,2324,-1e-05,1e-05,2e-05,1e-05,0.0,-2e-05,-2e-05,-1e-05,1.0
2220,2325,-1e-05,1e-05,2e-05,1e-05,0.0,-2e-05,-2e-05,-1e-05,1.0
2221,2326,-1e-05,1e-05,2e-05,1e-05,0.0,-2e-05,-2e-05,-1e-05,1.0
2222,2327,-1e-05,1e-05,2e-05,1e-05,0.0,-2e-05,-2e-05,-1e-05,1.0
2223,2328,-1e-05,1e-05,2e-05,1e-05,0.0,-2e-05,-2e-05,-1e-05,1.0
2224,2329,-1e-05,1e-05,2e-05,1e-05,0.0,-2e-05,-2e-05,-1e-05,1.0
2225,2330,-1e-05,1e-05,2e-05,1e-05,0.0,-2e-05,-2e-05,-1e-05,1.0
2226,2331,-1e-05,1e-05,2e-05,1e-05,0.0,-2e-05,-2e-05,-1e-05,1.0
2227,2332,-1e-05,1e-05,2e-05,1e-05,0.0,-2e-05,-2e-05,-1e-05,1.0
2228,2333,-1e-05,1e-05,2e-05,1e-05,0.0,-2e-05,-2e-05,-1e-05,1.0
2229,2334,-1e-05,1e-05,2e-05,1e-05,0.0,-2e-05,-2e-05,-1e-05,1.0
2230,2335,-1e-05,1e-05,2e-05,1e-05,0.0,-2e-05,-2e-05,-1e-05,1.0
2231,2336,-1e-05,1e-05,2e-05,1e-05,0.0,-2e-05,-2e-05,-1e-05,1.0
2232,2338,-1e-05,1e-05,2e-05,1e-05,0.0,-2e-05,-2e-05,-1e-05,1.0
2233,2339,0.0,-1e-05,5e-05,2e-05,0.0,-2.9999999999999997e-05,0.0,-1e-05,1.0
2234,2340,0.0,-5e-05,-0.00018,-2.9999999999999997e-05,-2.9999999999999997e-05,1e-05,1e-05,0.0,1.0
2235,2341,0.0,-5e-05,-0.00018,-2.9999999999999997e-05,-2.9999999999999997e-05,1e-05,1e-05,0.0,1.0
2236,2342,0.0,-5e-05,-0.00018,-2.9999999999999997e-05,-2.9999999999999997e-05,1e-05,1e-05,0.0,1.0
2237,2343,0.0,-5e-05,-0.00018,-2.9999999999999997e-05,-2.9999999999999997e-05,1e-05,1e-05,0.0,1.0
2238,2344,0.0,-5e-05,-0.00018,-2.9999999999999997e-05,-2.9999999999999997e-05,1e-05,1e-05,0.0,1.0
2239,2345,-2e-05,1e-05,1e-05,-2.9999999999999997e-05,0.0,0.0,-1e-05,-2e-05,1.0
2240,2346,-2e-05,1e-05,1e-05,-2.9999999999999997e-05,0.0,0.0,-1e-05,-2e-05,1.0
2241,2347,-2e-05,1e-05,1e-05,-2.9999999999999997e-05,0.0,0.0,-1e-05,-2e-05,1.0
2242,2348,-2e-05,1e-05,1e-05,-2.9999999999999997e-05,0.0,0.0,-1e-05,-2e-05,1.0
2243,2349,-2e-05,1e-05,1e-05,-2.9999999999999997e-05,0.0,0.0,-1e-05,-2e-05,1.0
2244,2350,-2e-05,1e-05,1e-05,-2.9999999999999997e-05,0.0,0.0,-1e-05,-2e-05,1.0
2245,2351,-2e-05,1e-05,1e-05,-2.9999999999999997e-05,0.0,0.0,-1e-05,-2e-05,1.0
2246,2352,-2e-05,1e-05,1e-05,-2.9999999999999997e-05,0.0,0.0,-1e-05,-2e-05,1.0
2247,2353,-1e-05,2e-05,4e-05,2.9999999999999997e-05,0.0,-1e-05,-1e-05,-1e-05,1.0
2248,2354,-1e-05,2e-05,4e-05,2.9999999999999997e-05,0.0,-1e-05,-1e-05,-1e-05,1.0
2249,2355,-1e-05,2e-05,4e-05,2.9999999999999997e-05,0.0,-1e-05,-1e-05,-1e-05,1.0
2250,2356,-1e-05,2e-05,4e-05,2.9999999999999997e-05,0.0,-1e-05,-1e-05,-1e-05,1.0
2251,2357,-1e-05,2e-05,4e-05,2.9999999999999997e-05,0.0,-1e-05,-1e-05,-1e-05,1.0
2252,2358,-1e-05,2e-05,4e-05,2.9999999999999997e-05,0.0,-1e-05,-1e-05,-1e-05,1.0
2253,2359,-1e-05,2e-05,4e-05,2.9999999999999997e-05,0.0,-1e-05,-1e-05,-1e-05,1.0
2254,2360,-1e-05,2e-05,4e-05,2.9999999999999997e-05,0.0,-1e-05,-1e-05,-1e-05,1.0
2255,2361,-1e-05,2e-05,4e-05,2.9999999999999997e-05,0.0,-1e-05,-1e-05,-1e-05,1.0
2256,2362,-1e-05,1e-05,-5e-05,-1e-05,-4e-05,1e-05,-2e-05,-1e-05,1.0
2257,2363,-1e-05,1e-05,-5e-05,-1e-05,-4e-05,1e-05,-2e-05,-1e-05,1.0
2258,2364,-1e-05,1e-05,-5e-05,-1e-05,-4e-05,1e-05,-2e-05,-1e-05,1.0
2259,2365,-1e-05,1e-05,-5e-05,-1e-05,-4e-05,1e-05,-2e-05,-1e-05,1.0
2260,2366,-1e-05,1e-05,-5e-05,-1e-05,-4e-05,1e-05,-2e-05,-1e-05,1.0
2261,2367,-1e-05,1e-05,-5e-05,-1e-05,-4e-05,1e-05,-2e-05,-1e-05,1.0
2262,2368,-1e-05,1e-05,-5e-05,-1e-05,-4e-05,1e-05,-2e-05,-1e-05,1.0
2263,2369,-1e-05,1e-05,-5e-05,-1e-05,-4e-05,1e-05,-2e-05,-1e-05,1.0
2264,2370,-1e-05,1e-05,-5e-05,-1e-05,-4e-05,1e-05,-2e-05,-1e-05,1.0
2265,2371,-1e-05,1e-05,-5e-05,-1e-05,-4e-05,1e-05,-2e-05,-1e-05,1.0
2266,2372,-1e-05,1e-05,-5e-05,-1e-05,-4e-05,1e-05,-2e-05,-1e-05,1.0
2267,2373,-1e-05,1e-05,-5e-05,-1e-05,-4e-05,1e-05,-2e-05,-1e-05,1.0
2268,2374,-1e-05,1e-05,-5e-05,-1e-05,-4e-05,1e-05,-2e-05,-1e-05,1.0
2269,2375,-1e-05,1e-05,-5e-05,-1e-05,-4e-05,1e-05,-2e-05,-1e-05,1.0
2270,2376,-1e-05,1e-05,-5e-05,-1e-05,-4e-05,1e-05,-2e-05,-1e-05,1.0
2271,2377,0.0,0.0,4e-05,0.0,0.0,-1e-05,-1e-05,-1e-05,1.0
2272,2378,0.0,0.0,1e-05,0.0,1e-05,-2e-05,0.0,0.0,1.0
2273,2379,0.0,0.0,1e-05,0.0,1e-05,-2e-05,0.0,0.0,1.0
2274,2380,0.0,0.0,1e-05,0.0,1e-05,-2e-05,0.0,0.0,1.0
2275,2381,0.0,0.0,1e-05,0.0,1e-05,-2e-05,0.0,0.0,1.0
2276,2382,0.0,0.0,1e-05,0.0,1e-05,-2e-05,0.0,0.0,1.0
2277,2383,0.0,0.0,1e-05,0.0,1e-05,-2e-05,0.0,0.0,1.0
2278,2384,0.0,0.0,1e-05,0.0,1e-05,-2e-05,0.0,0.0,1.0
2279,2385,0.0,0.0,1e-05,0.0,1e-05,-2e-05,0.0,0.0,1.0
2280,2386,0.0,0.0,1e-05,0.0,1e-05,-2e-05,0.0,0.0,1.0
2281,2388,0.0,0.0,1e-05,0.0,1e-05,-2e-05,0.0,0.0,1.0
2282,2389,0.0,0.0,1e-05,0.0,1e-05,-2e-05,0.0,0.0,1.0
2283,2390,0.0,0.0,1e-05,0.0,1e-05,-2e-05,0.0,0.0,1.0
2284,2391,0.0,0.0,1e-05,0.0,1e-05,-2e-05,0.0,0.0,1.0
2285,2392,0.0,0.0,1e-05,0.0,1e-05,-2e-05,0.0,0.0,1.0
2286,2393,0.0,0.0,1e-05,0.0,1e-05,-2e-05,0.0,0.0,1.0
2287,2394,0.0,0.0,1e-05,0.0,1e-05,-2e-05,0.0,0.0,1.0
2288,2395,0.0,0.0,1e-05,0.0,1e-05,-2e-05,0.0,0.0,1.0
2289,2396,0.0,0.0,1e-05,0.0,1e-05,-2e-05,0.0,0.0,1.0
2290,2397,0.0,0.0,1e-05,0.0,1e-05,-2e-05,0.0,0.0,1.0
2291,2398,0.0,0.0,1e-05,0.0,1e-05,-2e-05,0.0,0.0,1.0
2292,2399,-2e-05,-5e-05,2e-05,-2e-05,-1e-05,-2e-05,-1e-05,0.0,1.0
2293,2400,-2e-05,-5e-05,2e-05,-2e-05,-1e-05,-2e-05,-1e-05,0.0,1.0
2294,2401,-1e-05,-2e-05,-4e-05,1e-05,-2e-05,-1e-05,-1e-05,0.0,1.0
2295,2402,-1e-05,-2e-05,-4e-05,1e-05,-2e-05,-1e-05,-1e-05,0.0,1.0
2296,2403,-1e-05,-2e-05,-4e-05,1e-05,-2e-05,-1e-05,-1e-05,0.0,1.0
2297,2404,-1e-05,-2e-05,-4e-05,1e-05,-2e-05,-1e-05,-1e-05,0.0,1.0
2298,2405,-1e-05,-2e-05,-4e-05,1e-05,-2e-05,-1e-05,-1e-05,0.0,1.0
2299,2406,-1e-05,-2e-05,-4e-05,1e-05,-2e-05,-1e-05,-1e-05,0.0,1.0
2300,2407,-1e-05,-2e-05,-4e-05,1e-05,-2e-05,-1e-05,-1e-05,0.0,1.0
2301,2408,-1e-05,-2e-05,-4e-05,1e-05,-2e-05,-1e-05,-1e-05,0.0,1.0
2302,2409,-1e-05,-2e-05,-4e-05,1e-05,-2e-05,-1e-05,-1e-05,0.0,1.0
2303,2410,-1e-05,-2e-05,-4e-05,1e-05,-2e-05,-1e-05,-1e-05,0.0,1.0
2304,2411,-1e-05,-2e-05,-4e-05,1e-05,-2e-05,-1e-05,-1e-05,0.0,1.0
2305,2412,-1e-05,-2e-05,-4e-05,1e-05,-2e-05,-1e-05,-1e-05,0.0,1.0
2306,2413,-2e-05,-1e-05,1e-05,-1e-05,-2.9999999999999997e-05,-2e-05,-2e-05,-2e-05,1.0
2307,2414,-2e-05,-1e-05,1e-05,-1e-05,-2.9999999999999997e-05,-2e-05,-2e-05,-2e-05,1.0
2308,2415,-2e-05,-1e-05,1e-05,-1e-05,-2.9999999999999997e-05,-2e-05,-2e-05,-2e-05,1.0
2309,2416,-2e-05,-1e-05,1e-05,-1e-05,-2.9999999999999997e-05,-2e-05,-2e-05,-2e-05,1.0
2310,2417,-2e-05,-1e-05,1e-05,-1e-05,-2.9999999999999997e-05,-2e-05,-2e-05,-2e-05,1.0
2311,2418,-2e-05,-1e-05,1e-05,-1e-05,-2.9999999999999997e-05,-2e-05,-2e-05,-2e-05,1.0
2312,2419,-2e-05,-1e-05,1e-05,-1e-05,-2.9999999999999997e-05,-2e-05,-2e-05,-2e-05,1.0
2313,2420,-2e-05,-1e-05,1e-05,-1e-05,-2.9999999999999997e-05,-2e-05,-2e-05,-2e-05,1.0
2314,2421,-2e-05,-1e-05,1e-05,-1e-05,-2.9999999999999997e-05,-2e-05,-2e-05,-2e-05,1.0
2315,2422,0.0,-5e-05,-2.9999999999999997e-05,-5e-05,-2.9999999999999997e-05,-1e-05,-1e-05,-2e-05,1.0
2316,2423,0.0,-5e-05,-2.9999999999999997e-05,-5e-05,-2.9999999999999997e-05,-1e-05,-1e-05,-2e-05,1.0
2317,2424,0.0,-5e-05,-2.9999999999999997e-05,-5e-05,-2.9999999999999997e-05,-1e-05,-1e-05,-2e-05,1.0
2318,2425,0.0,-5e-05,-2.9999999999999997e-05,-5e-05,-2.9999999999999997e-05,-1e-05,-1e-05,-2e-05,1.0
2319,2426,0.0,-5e-05,-2.9999999999999997e-05,-5e-05,-2.9999999999999997e-05,-1e-05,-1e-05,-2e-05,1.0
2320,2427,0.0,-5e-05,-2.9999999999999997e-05,-5e-05,-2.9999999999999997e-05,-1e-05,-1e-05,-2e-05,1.0
2321,2428,0.0,-5e-05,-2.9999999999999997e-05,-5e-05,-2.9999999999999997e-05,-1e-05,-1e-05,-2e-05,1.0
2322,2429,0.0,-5e-05,-2.9999999999999997e-05,-5e-05,-2.9999999999999997e-05,-1e-05,-1e-05,-2e-05,1.0
2323,2430,0.0,-5e-05,-2.9999999999999997e-05,-5e-05,-2.9999999999999997e-05,-1e-05,-1e-05,-2e-05,1.0
2324,2431,0.0,-5e-05,-2.9999999999999997e-05,-5e-05,-2.9999999999999997e-05,-1e-05,-1e-05,-2e-05,1.0
2325,2432,0.0,-5e-05,-2.9999999999999997e-05,-5e-05,-2.9999999999999997e-05,-1e-05,-1e-05,-2e-05,1.0
2326,2433,0.0,-5e-05,-2.9999999999999997e-05,-5e-05,-2.9999999999999997e-05,-1e-05,-1e-05,-2e-05,1.0
2327,2434,0.0,-5e-05,-2.9999999999999997e-05,-5e-05,-2.9999999999999997e-05,-1e-05,-1e-05,-2e-05,1.0
2328,2435,0.0,-5e-05,-2.9999999999999997e-05,-5e-05,-2.9999999999999997e-05,-1e-05,-1e-05,-2e-05,1.0
2329,2436,-1e-05,0.0,-2.9999999999999997e-05,-2e-05,0.0,-1e-05,-1e-05,0.0,1.0
2330,2439,-1e-05,-1e-05,-2.9999999999999997e-05,0.0,0.0,-1e-05,1e-05,0.0,1.0
2331,2440,-1e-05,-1e-05,-2.9999999999999997e-05,0.0,0.0,-1e-05,1e-05,0.0,1.0
2332,2441,-1e-05,-1e-05,-2.9999999999999997e-05,0.0,0.0,-1e-05,1e-05,0.0,1.0
2333,2442,-1e-05,-1e-05,-2.9999999999999997e-05,0.0,0.0,-1e-05,1e-05,0.0,1.0
2334,2443,-1e-05,-1e-05,-2.9999999999999997e-05,0.0,0.0,-1e-05,1e-05,0.0,1.0
2335,2444,-1e-05,-1e-05,-2.9999999999999997e-05,0.0,0.0,-1e-05,1e-05,0.0,1.0
2336,2445,-1e-05,-1e-05,-2.9999999999999997e-05,0.0,0.0,-1e-05,1e-05,0.0,1.0
2337,2446,-1e-05,-1e-05,-2.9999999999999997e-05,0.0,0.0,-1e-05,1e-05,0.0,1.0
2338,2447,-1e-05,-1e-05,-2.9999999999999997e-05,0.0,0.0,-1e-05,1e-05,0.0,1.0
2339,2448,-1e-05,-1e-05,-2.9999999999999997e-05,0.0,0.0,-1e-05,1e-05,0.0,1.0
2340,2449,-1e-05,-1e-05,-2.9999999999999997e-05,0.0,0.0,-1e-05,1e-05,0.0,1.0
2341,2450,-1e-05,-1e-05,-2.9999999999999997e-05,0.0,0.0,-1e-05,1e-05,0.0,1.0
2342,2451,-1e-05,-1e-05,-2.9999999999999997e-05,0.0,0.0,-1e-05,1e-05,0.0,1.0
2343,2452,-1e-05,-1e-05,-2.9999999999999997e-05,0.0,0.0,-1e-05,1e-05,0.0,1.0
2344,2453,-1e-05,-1e-05,-2.9999999999999997e-05,0.0,0.0,-1e-05,1e-05,0.0,1.0
2345,2454,-1e-05,-1e-05,-2.9999999999999997e-05,0.0,0.0,-1e-05,1e-05,0.0,1.0
2346,2455,-1e-05,-1e-05,-2.9999999999999997e-05,0.0,0.0,-1e-05,1e-05,0.0,1.0
2347,2456,-1e-05,-1e-05,-2.9999999999999997e-05,0.0,0.0,-1e-05,1e-05,0.0,1.0
2348,2457,-1e-05,-1e-05,-2.9999999999999997e-05,0.0,0.0,-1e-05,1e-05,0.0,1.0
2349,2458,-1e-05,-1e-05,-2.9999999999999997e-05,0.0,0.0,-1e-05,1e-05,0.0,1.0
2350,2459,-1e-05,-1e-05,-2.9999999999999997e-05,0.0,0.0,-1e-05,1e-05,0.0,1.0
2351,2460,-1e-05,-1e-05,-2.9999999999999997e-05,0.0,0.0,-1e-05,1e-05,0.0,1.0
2352,2461,-1e-05,-1e-05,-2.9999999999999997e-05,0.0,0.0,-1e-05,1e-05,0.0,1.0
2353,2462,-1e-05,-1e-05,-2.9999999999999997e-05,0.0,0.0,-1e-05,1e-05,0.0,1.0
2354,2463,-1e-05,-1e-05,-2.9999999999999997e-05,0.0,0.0,-1e-05,1e-05,0.0,1.0
2355,2464,-1e-05,-1e-05,-2.9999999999999997e-05,0.0,0.0,-1e-05,1e-05,0.0,1.0
2356,2465,-1e-05,-1e-05,-2.9999999999999997e-05,0.0,0.0,-1e-05,1e-05,0.0,1.0
2357,2466,-1e-05,-1e-05,-2.9999999999999997e-05,0.0,0.0,-1e-05,1e-05,0.0,1.0
2358,2467,-1e-05,1e-05,-5e-05,0.0,-1e-05,-2.9999999999999997e-05,-1e-05,0.0,1.0
2359,2468,-1e-05,-2.9999999999999997e-05,-5e-05,-1e-05,-2.9999999999999997e-05,-1e-05,-2e-05,-2e-05,1.0
2360,2469,-1e-05,-2.9999999999999997e-05,-5e-05,-1e-05,-2.9999999999999997e-05,-1e-05,-2e-05,-2e-05,1.0
2361,2470,-1e-05,-2.9999999999999997e-05,-5e-05,-1e-05,-2.9999999999999997e-05,-1e-05,-2e-05,-2e-05,1.0
2362,2471,-1e-05,-2.9999999999999997e-05,-5e-05,-1e-05,-2.9999999999999997e-05,-1e-05,-2e-05,-2e-05,1.0
2363,2472,-1e-05,-2.9999999999999997e-05,-5e-05,-1e-05,-2.9999999999999997e-05,-1e-05,-2e-05,-2e-05,1.0
2364,2473,-1e-05,0.0,0.0,1e-05,-2e-05,0.0,-2e-05,-1e-05,1.0
2365,2474,-1e-05,0.0,0.0,1e-05,-2e-05,0.0,-2e-05,-1e-05,1.0
2366,2475,-1e-05,0.0,0.0,1e-05,-2e-05,0.0,-2e-05,-1e-05,1.0
2367,2476,-1e-05,0.0,0.0,1e-05,-2e-05,0.0,-2e-05,-1e-05,1.0
2368,2477,-1e-05,0.0,0.0,1e-05,-2e-05,0.0,-2e-05,-1e-05,1.0
2369,2478,-1e-05,0.0,0.0,1e-05,-2e-05,0.0,-2e-05,-1e-05,1.0
2370,2479,-1e-05,0.0,0.0,1e-05,-2e-05,0.0,-2e-05,-1e-05,1.0
2371,2480,-1e-05,0.0,0.0,1e-05,-2e-05,0.0,-2e-05,-1e-05,1.0
2372,2481,-1e-05,0.0,0.0,1e-05,-2e-05,0.0,-2e-05,-1e-05,1.0
2373,2482,-1e-05,4e-05,5.9999999999999995e-05,2e-05,0.0,-1e-05,-2e-05,-1e-05,1.0
2374,2483,-1e-05,4e-05,5.9999999999999995e-05,2e-05,0.0,-1e-05,-2e-05,-1e-05,1.0
2375,2484,-1e-05,4e-05,5.9999999999999995e-05,2e-05,0.0,-1e-05,-2e-05,-1e-05,1.0
2376,2485,-1e-05,4e-05,5.9999999999999995e-05,2e-05,0.0,-1e-05,-2e-05,-1e-05,1.0
2377,2486,-1e-05,4e-05,5.9999999999999995e-05,2e-05,0.0,-1e-05,-2e-05,-1e-05,1.0
2378,2489,-1e-05,4e-05,5.9999999999999995e-05,2e-05,0.0,-1e-05,-2e-05,-1e-05,1.0
2379,2490,-1e-05,4e-05,5.9999999999999995e-05,2e-05,0.0,-1e-05,-2e-05,-1e-05,1.0
2380,2491,-1e-05,4e-05,5.9999999999999995e-05,2e-05,0.0,-1e-05,-2e-05,-1e-05,1.0
2381,2492,-1e-05,4e-05,5.9999999999999995e-05,2e-05,0.0,-1e-05,-2e-05,-1e-05,1.0
2382,2493,-1e-05,4e-05,5.9999999999999995e-05,2e-05,0.0,-1e-05,-2e-05,-1e-05,1.0
2383,2494,-1e-05,4e-05,5.9999999999999995e-05,2e-05,0.0,-1e-05,-2e-05,-1e-05,1.0
2384,2495,-1e-05,4e-05,5.9999999999999995e-05,2e-05,0.0,-1e-05,-2e-05,-1e-05,1.0
2385,2496,-1e-05,4e-05,5.9999999999999995e-05,2e-05,0.0,-1e-05,-2e-05,-1e-05,1.0
2386,2497,-1e-05,1e-05,-4e-05,-2.9999999999999997e-05,-1e-05,0.0,0.0,-2.9999999999999997e-05,1.0
2387,2498,0.0,-2e-05,1e-05,1e-05,0.0,-1e-05,-1e-05,-1e-05,1.0
2388,2499,0.0,-2e-05,1e-05,1e-05,0.0,-1e-05,-1e-05,-1e-05,1.0
2389,2500,0.0,-2e-05,1e-05,1e-05,0.0,-1e-05,-1e-05,-1e-05,1.0
2390,2501,0.0,-2e-05,1e-05,1e-05,0.0,-1e-05,-1e-05,-1e-05,1.0
2391,2502,0.0,-2e-05,1e-05,1e-05,0.0,-1e-05,-1e-05,-1e-05,1.0
2392,2503,0.0,-2e-05,1e-05,1e-05,0.0,-1e-05,-1e-05,-1e-05,1.0
2393,2504,0.0,-2e-05,1e-05,1e-05,0.0,-1e-05,-1e-05,-1e-05,1.0
2394,2505,0.0,-2e-05,1e-05,1e-05,0.0,-1e-05,-1e-05,-1e-05,1.0
2395,2506,0.0,-2e-05,1e-05,1e-05,0.0,-1e-05,-1e-05,-1e-05,1.0
2396,2507,0.0,-2e-05,1e-05,1e-05,0.0,-1e-05,-1e-05,-1e-05,1.0
2397,2508,0.0,-2e-05,1e-05,1e-05,0.0,-1e-05,-1e-05,-1e-05,1.0
2398,2509,0.0,-2e-05,1e-05,1e-05,0.0,-1e-05,-1e-05,-1e-05,1.0
2399,2510,0.0,-2e-05,1e-05,1e-05,0.0,-1e-05,-1e-05,-1e-05,1.0
2400,2511,0.0,-2e-05,1e-05,1e-05,0.0,-1e-05,-1e-05,-1e-05,1.0
2401,2512,0.0,-2e-05,1e-05,1e-05,0.0,-1e-05,-1e-05,-1e-05,1.0
2402,2513,0.0,-2e-05,1e-05,1e-05,0.0,-1e-05,-1e-05,-1e-05,1.0
2403,2514,0.0,-2e-05,1e-05,1e-05,0.0,-1e-05,-1e-05,-1e-05,1.0
2404,2515,0.0,-2e-05,1e-05,1e-05,0.0,-1e-05,-1e-05,-1e-05,1.0
2405,2516,0.0,-2e-05,1e-05,1e-05,0.0,-1e-05,-1e-05,-1e-05,1.0
2406,2517,0.0,-2e-05,1e-05,1e-05,0.0,-1e-05,-1e-05,-1e-05,1.0
2407,2518,0.0,-2e-05,1e-05,1e-05,0.0,-1e-05,-1e-05,-1e-05,1.0
2408,2519,0.0,-1e-05,0.0,-2e-05,1e-05,-2e-05,-1e-05,-2e-05,1.0
2409,2520,0.0,-1e-05,0.0,-2e-05,1e-05,-2e-05,-1e-05,-2e-05,1.0
2410,2521,-1e-05,-2e-05,-1e-05,-1e-05,-1e-05,-1e-05,0.0,-1e-05,1.0
2411,2522,-1e-05,-2e-05,-1e-05,-1e-05,-1e-05,-1e-05,0.0,-1e-05,1.0
2412,2523,-1e-05,-2e-05,-1e-05,-1e-05,-1e-05,-1e-05,0.0,-1e-05,1.0
2413,2524,-1e-05,-2e-05,-1e-05,-1e-05,-1e-05,-1e-05,0.0,-1e-05,1.0
2414,2525,-1e-05,-2e-05,-1e-05,-1e-05,-1e-05,-1e-05,0.0,-1e-05,1.0
2415,2526,-1e-05,-2e-05,-1e-05,-1e-05,-1e-05,-1e-05,0.0,-1e-05,1.0
2416,2527,-1e-05,-2e-05,-1e-05,-1e-05,-1e-05,-1e-05,0.0,-1e-05,1.0
2417,2528,-1e-05,-2e-05,-1e-05,-1e-05,-1e-05,-1e-05,0.0,-1e-05,1.0
2418,2529,-1e-05,-2e-05,-1e-05,-1e-05,-1e-05,-1e-05,0.0,-1e-05,1.0
2419,2530,-1e-05,-2e-05,-1e-05,-1e-05,-1e-05,-1e-05,0.0,-1e-05,1.0
2420,2531,-1e-05,-2e-05,-1e-05,-1e-05,-1e-05,-1e-05,0.0,-1e-05,1.0
2421,2532,-1e-05,-2e-05,-1e-05,-1e-05,-1e-05,-1e-05,0.0,-1e-05,1.0
2422,2533,-1e-05,-2.9999999999999997e-05,2e-05,-2e-05,-2e-05,-1e-05,2e-05,1e-05,1.0
2423,2534,-1e-05,-2.9999999999999997e-05,2e-05,-2e-05,-2e-05,-1e-05,2e-05,1e-05,1.0
2424,2535,-1e-05,-2.9999999999999997e-05,2e-05,-2e-05,-2e-05,-1e-05,2e-05,1e-05,1.0
2425,2536,-1e-05,-2.9999999999999997e-05,2e-05,-2e-05,-2e-05,-1e-05,2e-05,1e-05,1.0
2426,2538,-1e-05,-2.9999999999999997e-05,2e-05,-2e-05,-2e-05,-1e-05,2e-05,1e-05,1.0
2427,2539,-1e-05,-2.9999999999999997e-05,2e-05,-2e-05,-2e-05,-1e-05,2e-05,1e-05,1.0
2428,2540,-1e-05,-2.9999999999999997e-05,2e-05,-2e-05,-2e-05,-1e-05,2e-05,1e-05,1.0
2429,2541,-1e-05,-2.9999999999999997e-05,2e-05,-2e-05,-2e-05,-1e-05,2e-05,1e-05,1.0
2430,2542,-2e-05,-1e-05,-2e-05,0.0,-2e-05,-1e-05,1e-05,-1e-05,1.0
2431,2543,-2e-05,-1e-05,-2e-05,0.0,-2e-05,-1e-05,1e-05,-1e-05,1.0
2432,2544,-2e-05,-1e-05,-2e-05,0.0,-2e-05,-1e-05,1e-05,-1e-05,1.0
2433,2545,-2e-05,-1e-05,-2e-05,0.0,-2e-05,-1e-05,1e-05,-1e-05,1.0
2434,2546,-2e-05,-1e-05,-2e-05,0.0,-2e-05,-1e-05,1e-05,-1e-05,1.0
2435,2547,-2e-05,-1e-05,-2e-05,0.0,-2e-05,-1e-05,1e-05,-1e-05,1.0
2436,2548,-2e-05,-1e-05,-2e-05,0.0,-2e-05,-1e-05,1e-05,-1e-05,1.0
2437,2549,-2e-05,-1e-05,-2e-05,0.0,-2e-05,-1e-05,1e-05,-1e-05,1.0
2438,2550,-2e-05,-1e-05,-2e-05,0.0,-2e-05,-1e-05,1e-05,-1e-05,1.0
2439,2551,-2e-05,-1e-05,-2e-05,0.0,-2e-05,-1e-05,1e-05,-1e-05,1.0
2440,2552,-2e-05,-1e-05,-2e-05,0.0,-2e-05,-1e-05,1e-05,-1e-05,1.0
2441,2553,-2e-05,-1e-05,-2e-05,0.0,-2e-05,-1e-05,1e-05,-1e-05,1.0
2442,2554,-2e-05,-1e-05,-2e-05,0.0,-2e-05,-1e-05,1e-05,-1e-05,1.0
2443,2555,-2e-05,-1e-05,-2e-05,0.0,-2e-05,-1e-05,1e-05,-1e-05,1.0
2444,2556,-2e-05,-1e-05,-2e-05,0.0,-2e-05,-1e-05,1e-05,-1e-05,1.0
2445,2557,0.0,-2e-05,0.0,-2e-05,-2e-05,1e-05,-1e-05,-2.9999999999999997e-05,1.0
2446,2558,-1e-05,1e-05,5.9999999999999995e-05,0.0,0.0,-1e-05,0.0,0.0,1.0
2447,2559,-1e-05,1e-05,5.9999999999999995e-05,0.0,0.0,-1e-05,0.0,0.0,1.0
2448,2560,-1e-05,1e-05,5.9999999999999995e-05,0.0,0.0,-1e-05,0.0,0.0,1.0
2449,2561,-1e-05,1e-05,5.9999999999999995e-05,0.0,0.0,-1e-05,0.0,0.0,1.0
2450,2562,-1e-05,1e-05,5.9999999999999995e-05,0.0,0.0,-1e-05,0.0,0.0,1.0
2451,2563,-1e-05,1e-05,5.9999999999999995e-05,0.0,0.0,-1e-05,0.0,0.0,1.0
2452,2564,-1e-05,1e-05,5.9999999999999995e-05,0.0,0.0,-1e-05,0.0,0.0,1.0
2453,2565,-1e-05,1e-05,5.9999999999999995e-05,0.0,0.0,-1e-05,0.0,0.0,1.0
2454,2566,-1e-05,1e-05,5.9999999999999995e-05,0.0,0.0,-1e-05,0.0,0.0,1.0
2455,2567,-1e-05,1e-05,5.9999999999999995e-05,0.0,0.0,-1e-05,0.0,0.0,1.0
2456,2568,-1e-05,1e-05,5.9999999999999995e-05,0.0,0.0,-1e-05,0.0,0.0,1.0
2457,2569,-1e-05,1e-05,5.9999999999999995e-05,0.0,0.0,-1e-05,0.0,0.0,1.0
2458,2570,-1e-05,1e-05,5.9999999999999995e-05,0.0,0.0,-1e-05,0.0,0.0,1.0
2459,2571,-1e-05,1e-05,5.9999999999999995e-05,0.0,0.0,-1e-05,0.0,0.0,1.0
2460,2572,-1e-05,1e-05,5.9999999999999995e-05,0.0,0.0,-1e-05,0.0,0.0,1.0
2461,2573,-1e-05,1e-05,5.9999999999999995e-05,0.0,0.0,-1e-05,0.0,0.0,1.0
2462,2574,-1e-05,1e-05,5.9999999999999995e-05,0.0,0.0,-1e-05,0.0,0.0,1.0
2463,2575,-1e-05,1e-05,5.9999999999999995e-05,0.0,0.0,-1e-05,0.0,0.0,1.0
2464,2576,-1e-05,1e-05,5.9999999999999995e-05,0.0,0.0,-1e-05,0.0,0.0,1.0
2465,2577,-1e-05,1e-05,5.9999999999999995e-05,0.0,0.0,-1e-05,0.0,0.0,1.0
2466,2578,-1e-05,1e-05,5.9999999999999995e-05,0.0,0.0,-1e-05,0.0,0.0,1.0
2467,2579,-1e-05,1e-05,5.9999999999999995e-05,0.0,0.0,-1e-05,0.0,0.0,1.0
2468,2580,-1e-05,1e-05,5.9999999999999995e-05,0.0,0.0,-1e-05,0.0,0.0,1.0
2469,2581,-1e-05,1e-05,5.9999999999999995e-05,0.0,0.0,-1e-05,0.0,0.0,1.0
2470,2582,-1e-05,1e-05,5.9999999999999995e-05,0.0,0.0,-1e-05,0.0,0.0,1.0
2471,2583,-1e-05,1e-05,5.9999999999999995e-05,0.0,0.0,-1e-05,0.0,0.0,1.0
2472,2584,-1e-05,1e-05,5.9999999999999995e-05,0.0,0.0,-1e-05,0.0,0.0,1.0
2473,2585,-1e-05,1e-05,5.9999999999999995e-05,0.0,0.0,-1e-05,0.0,0.0,1.0
2474,2586,-1e-05,1e-05,5.9999999999999995e-05,0.0,0.0,-1e-05,0.0,0.0,1.0
2475,2588,-1e-05,-2e-05,-2e-05,-1e-05,-1e-05,-1e-05,-2e-05,-1e-05,1.0
2476,2589,-1e-05,-4e-05,-2.9999999999999997e-05,-2.9999999999999997e-05,0.0,-2e-05,-2.9999999999999997e-05,-2.9999999999999997e-05,1.0
2477,2591,-1e-05,-4e-05,-2.9999999999999997e-05,-2.9999999999999997e-05,0.0,-2e-05,-2.9999999999999997e-05,-2.9999999999999997e-05,1.0
2478,2592,-1e-05,-4e-05,-2.9999999999999997e-05,-2.9999999999999997e-05,0.0,-2e-05,-2.9999999999999997e-05,-2.9999999999999997e-05,1.0
2479,2593,-1e-05,-4e-05,-2.9999999999999997e-05,-2.9999999999999997e-05,0.0,-2e-05,-2.9999999999999997e-05,-2.9999999999999997e-05,1.0
2480,2594,-1e-05,-4e-05,-2.9999999999999997e-05,-2.9999999999999997e-05,0.0,-2e-05,-2.9999999999999997e-05,-2.9999999999999997e-05,1.0
2481,2595,-1e-05,-4e-05,-2.9999999999999997e-05,-2.9999999999999997e-05,0.0,-2e-05,-2.9999999999999997e-05,-2.9999999999999997e-05,1.0
2482,2596,-1e-05,-4e-05,-2.9999999999999997e-05,-2.9999999999999997e-05,0.0,-2e-05,-2.9999999999999997e-05,-2.9999999999999997e-05,1.0
2483,2597,-1e-05,-4e-05,-2.9999999999999997e-05,-2.9999999999999997e-05,0.0,-2e-05,-2.9999999999999997e-05,-2.9999999999999997e-05,1.0
2484,2598,-1e-05,-4e-05,-2.9999999999999997e-05,-2.9999999999999997e-05,0.0,-2e-05,-2.9999999999999997e-05,-2.9999999999999997e-05,1.0
2485,2599,-1e-05,-4e-05,-2.9999999999999997e-05,-2.9999999999999997e-05,0.0,-2e-05,-2.9999999999999997e-05,-2.9999999999999997e-05,1.0
2486,2600,-1e-05,-4e-05,-2.9999999999999997e-05,-2.9999999999999997e-05,0.0,-2e-05,-2.9999999999999997e-05,-2.9999999999999997e-05,1.0
2487,2601,-1e-05,-4e-05,-2.9999999999999997e-05,-2.9999999999999997e-05,0.0,-2e-05,-2.9999999999999997e-05,-2.9999999999999997e-05,1.0
2488,2602,-1e-05,0.0,4e-05,1e-05,1e-05,0.0,0.0,1e-05,1.0
2489,2603,-1e-05,-2e-05,-1e-05,-1e-05,1e-05,0.0,-2e-05,0.0,1.0
2490,2604,-1e-05,-2e-05,-1e-05,-1e-05,1e-05,0.0,-2e-05,0.0,1.0
2491,2605,-1e-05,-2e-05,-1e-05,-1e-05,1e-05,0.0,-2e-05,0.0,1.0
2492,2606,-1e-05,-2e-05,-1e-05,-1e-05,1e-05,0.0,-2e-05,0.0,1.0
2493,2607,-1e-05,-2e-05,-1e-05,-1e-05,1e-05,0.0,-2e-05,0.0,1.0
2494,2608,-1e-05,-2e-05,-1e-05,-1e-05,1e-05,0.0,-2e-05,0.0,1.0
2495,2609,-1e-05,-2e-05,-1e-05,-1e-05,1e-05,0.0,-2e-05,0.0,1.0
2496,2610,-1e-05,-2e-05,-1e-05,-1e-05,1e-05,0.0,-2e-05,0.0,1.0
2497,2611,-1e-05,-2e-05,-1e-05,-1e-05,1e-05,0.0,-2e-05,0.0,1.0
2498,2612,-1e-05,-2e-05,-1e-05,-1e-05,1e-05,0.0,-2e-05,0.0,1.0
2499,2613,-1e-05,-2e-05,-1e-05,-1e-05,1e-05,0.0,-2e-05,0.0,1.0
2500,2614,-1e-05,-2e-05,-1e-05,-1e-05,1e-05,0.0,-2e-05,0.0,1.0
2501,2615,-1e-05,-2e-05,-1e-05,-1e-05,1e-05,0.0,-2e-05,0.0,1.0
2502,2616,-1e-05,-2e-05,-1e-05,-1e-05,1e-05,0.0,-2e-05,0.0,1.0
2503,2617,-2e-05,-2e-05,9e-05,-2e-05,0.0,-2e-05,1e-05,0.0,1.0
2504,2618,-1e-05,0.0,-1e-05,-2e-05,-2e-05,0.0,0.0,0.0,1.0
2505,2619,-1e-05,0.0,-1e-05,-2e-05,-2e-05,0.0,0.0,0.0,1.0
2506,2620,-1e-05,0.0,-1e-05,-2e-05,-2e-05,0.0,0.0,0.0,1.0
2507,2621,-1e-05,0.0,-1e-05,-2e-05,-2e-05,0.0,0.0,0.0,1.0
2508,2622,-1e-05,0.0,-1e-05,-2e-05,-2e-05,0.0,0.0,0.0,1.0
2509,2623,-1e-05,0.0,-1e-05,-2e-05,-2e-05,0.0,0.0,0.0,1.0
2510,2624,-1e-05,0.0,-1e-05,-2e-05,-2e-05,0.0,0.0,0.0,1.0
2511,2625,-1e-05,0.0,-1e-05,-2e-05,-2e-05,0.0,0.0,0.0,1.0
2512,2626,-1e-05,0.0,-1e-05,-2e-05,-2e-05,0.0,0.0,0.0,1.0
2513,2627,-1e-05,0.0,-1e-05,-2e-05,-2e-05,0.0,0.0,0.0,1.0
2514,2628,-1e-05,0.0,-1e-05,-2e-05,-2e-05,0.0,0.0,0.0,1.0
2515,2629,-1e-05,0.0,-1e-05,-2e-05,-2e-05,0.0,0.0,0.0,1.0
2516,2630,-1e-05,0.0,-1e-05,-2e-05,-2e-05,0.0,0.0,0.0,1.0
2517,2631,-1e-05,0.0,-1e-05,-2e-05,-2e-05,0.0,0.0,0.0,1.0
2518,2632,-1e-05,0.0,-1e-05,-2e-05,-2e-05,0.0,0.0,0.0,1.0
2519,2633,-1e-05,0.0,-1e-05,-2e-05,-2e-05,0.0,0.0,0.0,1.0
2520,2634,-1e-05,0.0,-1e-05,-2e-05,-2e-05,0.0,0.0,0.0,1.0
2521,2635,-1e-05,0.0,-1e-05,-2e-05,-2e-05,0.0,0.0,0.0,1.0
2522,2636,-1e-05,0.0,-1e-05,-2e-05,-2e-05,0.0,0.0,0.0,1.0
2523,2638,-1e-05,0.0,-1e-05,-2e-05,-2e-05,0.0,0.0,0.0,1.0
2524,2639,-1e-05,0.0,2e-05,-1e-05,-2.9999999999999997e-05,-1e-05,-2.9999999999999997e-05,0.0,1.0
2525,2640,-1e-05,1e-05,0.0,-2e-05,-2e-05,0.0,-2e-05,0.0,1.0
2526,2641,0.0,0.0,-7e-05,-1e-05,0.0,0.0,-1e-05,1e-05,1.0
2527,2642,0.0,0.0,-7e-05,-1e-05,0.0,0.0,-1e-05,1e-05,1.0
2528,2643,0.0,0.0,-7e-05,-1e-05,0.0,0.0,-1e-05,1e-05,1.0
2529,2644,0.0,0.0,-7e-05,-1e-05,0.0,0.0,-1e-05,1e-05,1.0
2530,2645,0.0,0.0,-7e-05,-1e-05,0.0,0.0,-1e-05,1e-05,1.0
2531,2646,0.0,0.0,-7e-05,-1e-05,0.0,0.0,-1e-05,1e-05,1.0
2532,2647,0.0,0.0,-7e-05,-1e-05,0.0,0.0,-1e-05,1e-05,1.0
2533,2648,0.0,0.0,-7e-05,-1e-05,0.0,0.0,-1e-05,1e-05,1.0
2534,2649,0.0,0.0,-7e-05,-1e-05,0.0,0.0,-1e-05,1e-05,1.0
2535,2650,0.0,0.0,-7e-05,-1e-05,0.0,0.0,-1e-05,1e-05,1.0
2536,2651,0.0,0.0,-7e-05,-1e-05,0.0,0.0,-1e-05,1e-05,1.0
2537,2652,0.0,0.0,-7e-05,-1e-05,0.0,0.0,-1e-05,1e-05,1.0
2538,2653,0.0,0.0,-7e-05,-1e-05,0.0,0.0,-1e-05,1e-05,1.0
2539,2654,0.0,0.0,-7e-05,-1e-05,0.0,0.0,-1e-05,1e-05,1.0
2540,2655,0.0,0.0,-7e-05,-1e-05,0.0,0.0,-1e-05,1e-05,1.0
2541,2656,0.0,0.0,-7e-05,-1e-05,0.0,0.0,-1e-05,1e-05,1.0
2542,2657,0.0,0.0,-7e-05,-1e-05,0.0,0.0,-1e-05,1e-05,1.0
2543,2658,0.0,0.0,-7e-05,-1e-05,0.0,0.0,-1e-05,1e-05,1.0
2544,2659,0.0,0.0,-7e-05,-1e-05,0.0,0.0,-1e-05,1e-05,1.0
2545,2660,0.0,0.0,-7e-05,-1e-05,0.0,0.0,-1e-05,1e-05,1.0
2546,2661,0.0,0.0,-7e-05,-1e-05,0.0,0.0,-1e-05,1e-05,1.0
2547,2662,-2e-05,2e-05,-8e-05,-1e-05,-1e-05,1e-05,0.0,-1e-05,1.0
2548,2663,-1e-05,0.0,1e-05,-2e-05,-1e-05,-2.9999999999999997e-05,-1e-05,-2e-05,1.0
2549,2664,-1e-05,0.0,1e-05,-2e-05,-1e-05,-2.9999999999999997e-05,-1e-05,-2e-05,1.0
2550,2665,-1e-05,0.0,1e-05,-2e-05,-1e-05,-2.9999999999999997e-05,-1e-05,-2e-05,1.0
2551,2666,-1e-05,0.0,1e-05,-2e-05,-1e-05,-2.9999999999999997e-05,-1e-05,-2e-05,1.0
2552,2667,-1e-05,0.0,1e-05,-2e-05,-1e-05,-2.9999999999999997e-05,-1e-05,-2e-05,1.0
2553,2668,-1e-05,0.0,1e-05,-2e-05,-1e-05,-2.9999999999999997e-05,-1e-05,-2e-05,1.0
2554,2669,-1e-05,0.0,1e-05,-2e-05,-1e-05,-2.9999999999999997e-05,-1e-05,-2e-05,1.0
2555,2670,-1e-05,0.0,1e-05,-2e-05,-1e-05,-2.9999999999999997e-05,-1e-05,-2e-05,1.0
2556,2671,-1e-05,0.0,1e-05,-2e-05,-1e-05,-2.9999999999999997e-05,-1e-05,-2e-05,1.0
2557,2672,-1e-05,0.0,1e-05,-2e-05,-1e-05,-2.9999999999999997e-05,-1e-05,-2e-05,1.0
2558,2673,-1e-05,0.0,1e-05,-2e-05,-1e-05,-2.9999999999999997e-05,-1e-05,-2e-05,1.0
2559,2674,-1e-05,0.0,1e-05,-2e-05,-1e-05,-2.9999999999999997e-05,-1e-05,-2e-05,1.0
2560,2675,-1e-05,0.0,1e-05,-2e-05,-1e-05,-2.9999999999999997e-05,-1e-05,-2e-05,1.0
2561,2676,-1e-05,0.0,1e-05,-2e-05,-1e-05,-2.9999999999999997e-05,-1e-05,-2e-05,1.0
2562,2677,1e-05,-1e-05,-2e-05,-2.9999999999999997e-05,-1e-05,-2e-05,0.0,-1e-05,1.0
2563,2678,2e-05,-2e-05,-2.9999999999999997e-05,0.0,-1e-05,0.0,2e-05,-1e-05,1.0
2564,2679,2e-05,-2e-05,-2.9999999999999997e-05,0.0,-1e-05,0.0,2e-05,-1e-05,1.0
2565,2680,2e-05,-2e-05,-2.9999999999999997e-05,0.0,-1e-05,0.0,2e-05,-1e-05,1.0
2566,2681,2e-05,-2e-05,-2.9999999999999997e-05,0.0,-1e-05,0.0,2e-05,-1e-05,1.0
2567,2682,2e-05,-2e-05,-2.9999999999999997e-05,0.0,-1e-05,0.0,2e-05,-1e-05,1.0
2568,2683,2e-05,-2e-05,-2.9999999999999997e-05,0.0,-1e-05,0.0,2e-05,-1e-05,1.0
2569,2684,2e-05,-2e-05,-2.9999999999999997e-05,0.0,-1e-05,0.0,2e-05,-1e-05,1.0
2570,2685,2e-05,-2e-05,-2.9999999999999997e-05,0.0,-1e-05,0.0,2e-05,-1e-05,1.0
2571,2686,2e-05,-2e-05,-2.9999999999999997e-05,0.0,-1e-05,0.0,2e-05,-1e-05,1.0
2572,2688,2e-05,-2e-05,-2.9999999999999997e-05,0.0,-1e-05,0.0,2e-05,-1e-05,1.0
2573,2689,2e-05,-2e-05,-2.9999999999999997e-05,0.0,-1e-05,0.0,2e-05,-1e-05,1.0
2574,2690,2e-05,-2e-05,-2.9999999999999997e-05,0.0,-1e-05,0.0,2e-05,-1e-05,1.0
2575,2691,2e-05,-2e-05,-2.9999999999999997e-05,0.0,-1e-05,0.0,2e-05,-1e-05,1.0
2576,2692,2e-05,-2e-05,-2.9999999999999997e-05,0.0,-1e-05,0.0,2e-05,-1e-05,1.0
2577,2693,2e-05,-2e-05,-2.9999999999999997e-05,0.0,-1e-05,0.0,2e-05,-1e-05,1.0
2578,2694,2e-05,-2e-05,-2.9999999999999997e-05,0.0,-1e-05,0.0,2e-05,-1e-05,1.0
2579,2695,2e-05,-2e-05,-2.9999999999999997e-05,0.0,-1e-05,0.0,2e-05,-1e-05,1.0
2580,2696,2e-05,-2e-05,-2.9999999999999997e-05,0.0,-1e-05,0.0,2e-05,-1e-05,1.0
2581,2697,2e-05,-2e-05,-2.9999999999999997e-05,0.0,-1e-05,0.0,2e-05,-1e-05,1.0
2582,2698,2e-05,-2e-05,-2.9999999999999997e-05,0.0,-1e-05,0.0,2e-05,-1e-05,1.0
2583,2699,2e-05,-2e-05,-2.9999999999999997e-05,0.0,-1e-05,0.0,2e-05,-1e-05,1.0
2584,2700,2e-05,-2e-05,-2.9999999999999997e-05,0.0,-1e-05,0.0,2e-05,-1e-05,1.0
2585,2701,2e-05,-2e-05,-2.9999999999999997e-05,0.0,-1e-05,0.0,2e-05,-1e-05,1.0
2586,2702,2e-05,-2e-05,-2.9999999999999997e-05,0.0,-1e-05,0.0,2e-05,-1e-05,1.0
2587,2703,2e-05,-2e-05,-2.9999999999999997e-05,0.0,-1e-05,0.0,2e-05,-1e-05,1.0
2588,2704,2e-05,-2e-05,-2.9999999999999997e-05,0.0,-1e-05,0.0,2e-05,-1e-05,1.0
2589,2705,2e-05,-2e-05,-2.9999999999999997e-05,0.0,-1e-05,0.0,2e-05,-1e-05,1.0
2590,2706,-1e-05,-1e-05,2.9999999999999997e-05,0.0,-2.9999999999999997e-05,-1e-05,1e-05,-1e-05,1.0
2591,2707,-1e-05,-2.9999999999999997e-05,-0.00011,-1e-05,-1e-05,0.0,-1e-05,1e-05,1.0
2592,2708,-1e-05,-2e-05,4e-05,1e-05,-1e-05,-1e-05,-2e-05,0.0,1.0
2593,2709,-1e-05,-2e-05,4e-05,1e-05,-1e-05,-1e-05,-2e-05,0.0,1.0
2594,2710,-1e-05,-2e-05,4e-05,1e-05,-1e-05,-1e-05,-2e-05,0.0,1.0
2595,2711,-1e-05,-2e-05,4e-05,1e-05,-1e-05,-1e-05,-2e-05,0.0,1.0
2596,2712,-1e-05,-2e-05,4e-05,1e-05,-1e-05,-1e-05,-2e-05,0.0,1.0
2597,2713,-1e-05,-2e-05,4e-05,1e-05,-1e-05,-1e-05,-2e-05,0.0,1.0
2598,2714,-1e-05,-2e-05,4e-05,1e-05,-1e-05,-1e-05,-2e-05,0.0,1.0
2599,2715,-1e-05,-2e-05,4e-05,1e-05,-1e-05,-1e-05,-2e-05,0.0,1.0
2600,2716,-1e-05,-2e-05,4e-05,1e-05,-1e-05,-1e-05,-2e-05,0.0,1.0
2601,2717,-1e-05,-2e-05,4e-05,1e-05,-1e-05,-1e-05,-2e-05,0.0,1.0
2602,2718,-1e-05,-2e-05,4e-05,1e-05,-1e-05,-1e-05,-2e-05,0.0,1.0
2603,2719,-1e-05,-2e-05,4e-05,1e-05,-1e-05,-1e-05,-2e-05,0.0,1.0
2604,2720,-1e-05,-2e-05,4e-05,1e-05,-1e-05,-1e-05,-2e-05,0.0,1.0
2605,2721,-1e-05,1e-05,4e-05,-2e-05,0.0,-1e-05,-1e-05,-1e-05,1.0
2606,2722,-1e-05,1e-05,4e-05,-2e-05,0.0,-1e-05,-1e-05,-1e-05,1.0
2607,2723,-1e-05,1e-05,4e-05,-2e-05,0.0,-1e-05,-1e-05,-1e-05,1.0
2608,2724,-4e-05,-2e-05,-5e-05,-1e-05,-1e-05,-2e-05,-2e-05,-4e-05,1.0
2609,2725,-4e-05,-2e-05,-5e-05,-1e-05,-1e-05,-2e-05,-2e-05,-4e-05,1.0
2610,2726,-4e-05,-2e-05,-5e-05,-1e-05,-1e-05,-2e-05,-2e-05,-4e-05,1.0
2611,2727,-4e-05,-2e-05,-5e-05,-1e-05,-1e-05,-2e-05,-2e-05,-4e-05,1.0
2612,2728,-4e-05,-2e-05,-5e-05,-1e-05,-1e-05,-2e-05,-2e-05,-4e-05,1.0
2613,2729,-4e-05,-2e-05,-5e-05,-1e-05,-1e-05,-2e-05,-2e-05,-4e-05,1.0
2614,2730,-4e-05,-2e-05,-5e-05,-1e-05,-1e-05,-2e-05,-2e-05,-4e-05,1.0
2615,2731,-4e-05,-2e-05,-5e-05,-1e-05,-1e-05,-2e-05,-2e-05,-4e-05,1.0
2616,2732,-4e-05,-2e-05,-5e-05,-1e-05,-1e-05,-2e-05,-2e-05,-4e-05,1.0
2617,2733,-4e-05,-2e-05,-5e-05,-1e-05,-1e-05,-2e-05,-2e-05,-4e-05,1.0
2618,2734,-4e-05,-2e-05,-5e-05,-1e-05,-1e-05,-2e-05,-2e-05,-4e-05,1.0
2619,2735,-4e-05,-2e-05,-5e-05,-1e-05,-1e-05,-2e-05,-2e-05,-4e-05,1.0
2620,2736,-4e-05,-2e-05,-5e-05,-1e-05,-1e-05,-2e-05,-2e-05,-4e-05,1.0
2621,2738,-4e-05,-2e-05,-5e-05,-1e-05,-1e-05,-2e-05,-2e-05,-4e-05,1.0
2622,2739,-4e-05,-2e-05,-5e-05,-1e-05,-1e-05,-2e-05,-2e-05,-4e-05,1.0
2623,2740,-4e-05,-2e-05,-5e-05,-1e-05,-1e-05,-2e-05,-2e-05,-4e-05,1.0
2624,2741,-4e-05,-2e-05,-5e-05,-1e-05,-1e-05,-2e-05,-2e-05,-4e-05,1.0
2625,2742,-4e-05,-2e-05,-5e-05,-1e-05,-1e-05,-2e-05,-2e-05,-4e-05,1.0
2626,2743,-4e-05,-2e-05,-5e-05,-1e-05,-1e-05,-2e-05,-2e-05,-4e-05,1.0
2627,2744,1e-05,-1e-05,2e-05,4e-05,1e-05,1e-05,-2.9999999999999997e-05,-2.9999999999999997e-05,1.0
2628,2745,1e-05,-1e-05,2e-05,4e-05,1e-05,1e-05,-2.9999999999999997e-05,-2.9999999999999997e-05,1.0
2629,2746,-5e-05,-8e-05,-2.9999999999999997e-05,-5e-05,-2.9999999999999997e-05,-4e-05,0.0,-2.9999999999999997e-05,1.0
2630,2747,-5e-05,-8e-05,-2.9999999999999997e-05,-5e-05,-2.9999999999999997e-05,-4e-05,0.0,-2.9999999999999997e-05,1.0
2631,2748,-5e-05,-8e-05,-2.9999999999999997e-05,-5e-05,-2.9999999999999997e-05,-4e-05,0.0,-2.9999999999999997e-05,1.0
2632,2749,-5e-05,-8e-05,-2.9999999999999997e-05,-5e-05,-2.9999999999999997e-05,-4e-05,0.0,-2.9999999999999997e-05,1.0
2633,2750,-5e-05,-8e-05,-2.9999999999999997e-05,-5e-05,-2.9999999999999997e-05,-4e-05,0.0,-2.9999999999999997e-05,1.0
2634,2751,-5e-05,-8e-05,-2.9999999999999997e-05,-5e-05,-2.9999999999999997e-05,-4e-05,0.0,-2.9999999999999997e-05,1.0
2635,2752,-5e-05,-8e-05,-2.9999999999999997e-05,-5e-05,-2.9999999999999997e-05,-4e-05,0.0,-2.9999999999999997e-05,1.0
2636,2753,-5e-05,-8e-05,-2.9999999999999997e-05,-5e-05,-2.9999999999999997e-05,-4e-05,0.0,-2.9999999999999997e-05,1.0
2637,2754,-5e-05,-8e-05,-2.9999999999999997e-05,-5e-05,-2.9999999999999997e-05,-4e-05,0.0,-2.9999999999999997e-05,1.0
2638,2755,-5e-05,-8e-05,-2.9999999999999997e-05,-5e-05,-2.9999999999999997e-05,-4e-05,0.0,-2.9999999999999997e-05,1.0
2639,2756,-5e-05,-8e-05,-2.9999999999999997e-05,-5e-05,-2.9999999999999997e-05,-4e-05,0.0,-2.9999999999999997e-05,1.0
2640,2757,-5e-05,-8e-05,-2.9999999999999997e-05,-5e-05,-2.9999999999999997e-05,-4e-05,0.0,-2.9999999999999997e-05,1.0
2641,2758,-5e-05,-8e-05,-2.9999999999999997e-05,-5e-05,-2.9999999999999997e-05,-4e-05,0.0,-2.9999999999999997e-05,1.0
2642,2759,2e-05,-2e-05,0.0,1e-05,0.0,-2.9999999999999997e-05,0.0,-2e-05,1.0
2643,2760,2e-05,-2e-05,0.0,1e-05,0.0,-2.9999999999999997e-05,0.0,-2e-05,1.0
2644,2761,-1e-05,-2.9999999999999997e-05,-0.00014,-2e-05,-2.9999999999999997e-05,0.0,-2e-05,2e-05,1.0
2645,2762,-1e-05,-2.9999999999999997e-05,-0.00014,-2e-05,-2.9999999999999997e-05,0.0,-2e-05,2e-05,1.0
2646,2763,-1e-05,-2.9999999999999997e-05,-0.00014,-2e-05,-2.9999999999999997e-05,0.0,-2e-05,2e-05,1.0
2647,2764,-1e-05,-2.9999999999999997e-05,-0.00014,-2e-05,-2.9999999999999997e-05,0.0,-2e-05,2e-05,1.0
2648,2765,-1e-05,-2.9999999999999997e-05,-0.00014,-2e-05,-2.9999999999999997e-05,0.0,-2e-05,2e-05,1.0
2649,2766,-1e-05,-2.9999999999999997e-05,-0.00014,-2e-05,-2.9999999999999997e-05,0.0,-2e-05,2e-05,1.0
2650,2767,-1e-05,-2.9999999999999997e-05,-0.00014,-2e-05,-2.9999999999999997e-05,0.0,-2e-05,2e-05,1.0
2651,2768,-1e-05,-2.9999999999999997e-05,-0.00014,-2e-05,-2.9999999999999997e-05,0.0,-2e-05,2e-05,1.0
2652,2769,-1e-05,-2.9999999999999997e-05,-0.00014,-2e-05,-2.9999999999999997e-05,0.0,-2e-05,2e-05,1.0
2653,2770,-1e-05,-2.9999999999999997e-05,-0.00014,-2e-05,-2.9999999999999997e-05,0.0,-2e-05,2e-05,1.0
2654,2771,-1e-05,-2.9999999999999997e-05,-0.00014,-2e-05,-2.9999999999999997e-05,0.0,-2e-05,2e-05,1.0
2655,2772,-1e-05,-2.9999999999999997e-05,-0.00014,-2e-05,-2.9999999999999997e-05,0.0,-2e-05,2e-05,1.0
2656,2773,-1e-05,-2.9999999999999997e-05,-0.00014,-2e-05,-2.9999999999999997e-05,0.0,-2e-05,2e-05,1.0
2657,2774,-1e-05,-2.9999999999999997e-05,-0.00014,-2e-05,-2.9999999999999997e-05,0.0,-2e-05,2e-05,1.0
2658,2775,-1e-05,-2.9999999999999997e-05,-0.00014,-2e-05,-2.9999999999999997e-05,0.0,-2e-05,2e-05,1.0
2659,2776,-1e-05,-2.9999999999999997e-05,-0.00014,-2e-05,-2.9999999999999997e-05,0.0,-2e-05,2e-05,1.0
2660,2777,-1e-05,-2.9999999999999997e-05,-0.00014,-2e-05,-2.9999999999999997e-05,0.0,-2e-05,2e-05,1.0
2661,2778,-1e-05,-2.9999999999999997e-05,-0.00014,-2e-05,-2.9999999999999997e-05,0.0,-2e-05,2e-05,1.0
2662,2779,-1e-05,-2.9999999999999997e-05,-0.00014,-2e-05,-2.9999999999999997e-05,0.0,-2e-05,2e-05,1.0
2663,2780,-1e-05,-2.9999999999999997e-05,-0.00014,-2e-05,-2.9999999999999997e-05,0.0,-2e-05,2e-05,1.0
2664,2781,-1e-05,-2.9999999999999997e-05,-0.00014,-2e-05,-2.9999999999999997e-05,0.0,-2e-05,2e-05,1.0
2665,2782,-1e-05,-2e-05,-5.9999999999999995e-05,-1e-05,-2e-05,-1e-05,-2e-05,-1e-05,1.0
2666,2783,1e-05,4e-05,5e-05,5e-05,1e-05,-1e-05,-1e-05,-2e-05,1.0
2667,2784,1e-05,4e-05,5e-05,5e-05,1e-05,-1e-05,-1e-05,-2e-05,1.0
2668,2785,1e-05,4e-05,5e-05,5e-05,1e-05,-1e-05,-1e-05,-2e-05,1.0
2669,2786,1e-05,4e-05,5e-05,5e-05,1e-05,-1e-05,-1e-05,-2e-05,1.0
2670,2788,1e-05,4e-05,5e-05,5e-05,1e-05,-1e-05,-1e-05,-2e-05,1.0
2671,2789,1e-05,4e-05,5e-05,5e-05,1e-05,-1e-05,-1e-05,-2e-05,1.0
2672,2790,1e-05,4e-05,5e-05,5e-05,1e-05,-1e-05,-1e-05,-2e-05,1.0
2673,2791,1e-05,4e-05,5e-05,5e-05,1e-05,-1e-05,-1e-05,-2e-05,1.0
2674,2792,1e-05,4e-05,5e-05,5e-05,1e-05,-1e-05,-1e-05,-2e-05,1.0
2675,2793,1e-05,4e-05,5e-05,5e-05,1e-05,-1e-05,-1e-05,-2e-05,1.0
2676,2794,1e-05,4e-05,5e-05,5e-05,1e-05,-1e-05,-1e-05,-2e-05,1.0
2677,2795,1e-05,4e-05,5e-05,5e-05,1e-05,-1e-05,-1e-05,-2e-05,1.0
2678,2796,0.0,1e-05,-5.9999999999999995e-05,0.0,-1e-05,-1e-05,-1e-05,-1e-05,1.0
2679,2797,-1e-05,-2.9999999999999997e-05,-4e-05,-2.9999999999999997e-05,-4e-05,0.0,-1e-05,-1e-05,1.0
2680,2798,-1e-05,-2.9999999999999997e-05,-4e-05,-2.9999999999999997e-05,-4e-05,0.0,-1e-05,-1e-05,1.0
2681,2799,-1e-05,-2.9999999999999997e-05,-4e-05,-2.9999999999999997e-05,-4e-05,0.0,-1e-05,-1e-05,1.0
2682,2800,-1e-05,-2.9999999999999997e-05,-4e-05,-2.9999999999999997e-05,-4e-05,0.0,-1e-05,-1e-05,1.0
2683,2801,-1e-05,-2.9999999999999997e-05,-4e-05,-2.9999999999999997e-05,-4e-05,0.0,-1e-05,-1e-05,1.0
2684,2802,-1e-05,-2.9999999999999997e-05,-4e-05,-2.9999999999999997e-05,-4e-05,0.0,-1e-05,-1e-05,1.0
2685,2803,-1e-05,2e-05,-2e-05,-2e-05,-2e-05,0.0,-2e-05,1e-05,1.0
2686,2804,-1e-05,2e-05,-2e-05,-2e-05,-2e-05,0.0,-2e-05,1e-05,1.0
2687,2805,-1e-05,2e-05,-2e-05,-2e-05,-2e-05,0.0,-2e-05,1e-05,1.0
2688,2806,-1e-05,2e-05,-2e-05,-2e-05,-2e-05,0.0,-2e-05,1e-05,1.0
2689,2807,-1e-05,2e-05,-2e-05,-2e-05,-2e-05,0.0,-2e-05,1e-05,1.0
2690,2808,-1e-05,2e-05,-2e-05,-2e-05,-2e-05,0.0,-2e-05,1e-05,1.0
2691,2809,-1e-05,2e-05,-2e-05,-2e-05,-2e-05,0.0,-2e-05,1e-05,1.0
2692,2810,-1e-05,2e-05,-2e-05,-2e-05,-2e-05,0.0,-2e-05,1e-05,1.0
2693,2811,-1e-05,2e-05,-2e-05,-2e-05,-2e-05,0.0,-2e-05,1e-05,1.0
2694,2812,-1e-05,2e-05,-2e-05,-2e-05,-2e-05,0.0,-2e-05,1e-05,1.0
2695,2813,-1e-05,2e-05,-2e-05,-2e-05,-2e-05,0.0,-2e-05,1e-05,1.0
2696,2814,-1e-05,2e-05,-2e-05,-2e-05,-2e-05,0.0,-2e-05,1e-05,1.0
2697,2815,-1e-05,2e-05,-2e-05,-2e-05,-2e-05,0.0,-2e-05,1e-05,1.0
2698,2816,-1e-05,2e-05,-2e-05,-2e-05,-2e-05,0.0,-2e-05,1e-05,1.0
2699,2817,-1e-05,2e-05,-2e-05,-2e-05,-2e-05,0.0,-2e-05,1e-05,1.0
2700,2818,-1e-05,2e-05,-2e-05,-2e-05,-2e-05,0.0,-2e-05,1e-05,1.0
2701,2819,-1e-05,0.0,-4e-05,0.0,0.0,0.0,-1e-05,-2e-05,1.0
2702,2820,-1e-05,0.0,-4e-05,0.0,0.0,0.0,-1e-05,-2e-05,1.0
2703,2821,-2e-05,-1e-05,-5.9999999999999995e-05,-1e-05,-1e-05,0.0,-1e-05,-2e-05,1.0
2704,2822,-2e-05,-1e-05,-5.9999999999999995e-05,-1e-05,-1e-05,0.0,-1e-05,-2e-05,1.0
2705,2823,-2e-05,-1e-05,-5.9999999999999995e-05,-1e-05,-1e-05,0.0,-1e-05,-2e-05,1.0
2706,2824,-2e-05,-1e-05,-5.9999999999999995e-05,-1e-05,-1e-05,0.0,-1e-05,-2e-05,1.0
2707,2825,-2e-05,-1e-05,-5.9999999999999995e-05,-1e-05,-1e-05,0.0,-1e-05,-2e-05,1.0
2708,2826,-2e-05,-1e-05,-5.9999999999999995e-05,-1e-05,-1e-05,0.0,-1e-05,-2e-05,1.0
2709,2827,-2e-05,-1e-05,-5.9999999999999995e-05,-1e-05,-1e-05,0.0,-1e-05,-2e-05,1.0
2710,2828,-2e-05,-1e-05,-5.9999999999999995e-05,-1e-05,-1e-05,0.0,-1e-05,-2e-05,1.0
2711,2829,-2e-05,-1e-05,-5.9999999999999995e-05,-1e-05,-1e-05,0.0,-1e-05,-2e-05,1.0
2712,2830,-2e-05,-1e-05,-5.9999999999999995e-05,-1e-05,-1e-05,0.0,-1e-05,-2e-05,1.0
2713,2831,-2e-05,-1e-05,-5.9999999999999995e-05,-1e-05,-1e-05,0.0,-1e-05,-2e-05,1.0
2714,2832,-2e-05,-1e-05,-5.9999999999999995e-05,-1e-05,-1e-05,0.0,-1e-05,-2e-05,1.0
2715,2833,-2e-05,-1e-05,-5.9999999999999995e-05,-1e-05,-1e-05,0.0,-1e-05,-2e-05,1.0
2716,2834,-2e-05,-1e-05,-5.9999999999999995e-05,-1e-05,-1e-05,0.0,-1e-05,-2e-05,1.0
2717,2835,-2e-05,-1e-05,-5.9999999999999995e-05,-1e-05,-1e-05,0.0,-1e-05,-2e-05,1.0
2718,2836,-2e-05,-1e-05,-5.9999999999999995e-05,-1e-05,-1e-05,0.0,-1e-05,-2e-05,1.0
2719,2838,-2e-05,-1e-05,-5.9999999999999995e-05,-1e-05,-1e-05,0.0,-1e-05,-2e-05,1.0
2720,2839,-2e-05,-1e-05,-5.9999999999999995e-05,-1e-05,-1e-05,0.0,-1e-05,-2e-05,1.0
2721,2840,-2e-05,-1e-05,-5.9999999999999995e-05,-1e-05,-1e-05,0.0,-1e-05,-2e-05,1.0
2722,2841,-2e-05,-1e-05,-5.9999999999999995e-05,-1e-05,-1e-05,0.0,-1e-05,-2e-05,1.0
2723,2842,-4e-05,-1e-05,1e-05,-2e-05,-2e-05,0.0,1e-05,-2.9999999999999997e-05,1.0
2724,2843,2e-05,-1e-05,-0.0001,-1e-05,-1e-05,-1e-05,-1e-05,0.0,1.0
2725,2844,2e-05,-1e-05,-0.0001,-1e-05,-1e-05,-1e-05,-1e-05,0.0,1.0
2726,2845,2e-05,-1e-05,-0.0001,-1e-05,-1e-05,-1e-05,-1e-05,0.0,1.0
2727,2846,2e-05,-1e-05,-0.0001,-1e-05,-1e-05,-1e-05,-1e-05,0.0,1.0
2728,2847,2e-05,-1e-05,-0.0001,-1e-05,-1e-05,-1e-05,-1e-05,0.0,1.0
2729,2848,2e-05,-1e-05,-0.0001,-1e-05,-1e-05,-1e-05,-1e-05,0.0,1.0
2730,2849,2e-05,-1e-05,-0.0001,-1e-05,-1e-05,-1e-05,-1e-05,0.0,1.0
2731,2850,2e-05,-1e-05,-0.0001,-1e-05,-1e-05,-1e-05,-1e-05,0.0,1.0
2732,2851,2e-05,-1e-05,-0.0001,-1e-05,-1e-05,-1e-05,-1e-05,0.0,1.0
2733,2852,2e-05,-1e-05,-0.0001,-1e-05,-1e-05,-1e-05,-1e-05,0.0,1.0
2734,2853,2e-05,-1e-05,-0.0001,-1e-05,-1e-05,-1e-05,-1e-05,0.0,1.0
2735,2854,2e-05,-1e-05,-0.0001,-1e-05,-1e-05,-1e-05,-1e-05,0.0,1.0
2736,2855,2e-05,-1e-05,-0.0001,-1e-05,-1e-05,-1e-05,-1e-05,0.0,1.0
2737,2856,2e-05,-1e-05,-0.0001,-1e-05,-1e-05,-1e-05,-1e-05,0.0,1.0
2738,2857,2e-05,-1e-05,-0.0001,-1e-05,-1e-05,-1e-05,-1e-05,0.0,1.0
2739,2858,2e-05,-1e-05,-0.0001,-1e-05,-1e-05,-1e-05,-1e-05,0.0,1.0
2740,2859,2e-05,-1e-05,-0.0001,-1e-05,-1e-05,-1e-05,-1e-05,0.0,1.0
2741,2860,2e-05,-1e-05,-0.0001,-1e-05,-1e-05,-1e-05,-1e-05,0.0,1.0
2742,2861,2e-05,-1e-05,-0.0001,-1e-05,-1e-05,-1e-05,-1e-05,0.0,1.0
2743,2862,2e-05,-1e-05,-0.0001,-1e-05,-1e-05,-1e-05,-1e-05,0.0,1.0
2744,2863,2e-05,-1e-05,-0.0001,-1e-05,-1e-05,-1e-05,-1e-05,0.0,1.0
2745,2864,0.0,0.0,0.0,0.0,0.0,-2.9999999999999997e-05,-1e-05,0.0,1.0
2746,2865,0.0,0.0,0.0,0.0,0.0,-2.9999999999999997e-05,-1e-05,0.0,1.0
2747,2866,1e-05,2e-05,0.0001,-1e-05,0.0,-1e-05,-1e-05,-2.9999999999999997e-05,1.0
2748,2867,1e-05,2e-05,0.0001,-1e-05,0.0,-1e-05,-1e-05,-2.9999999999999997e-05,1.0
2749,2868,1e-05,2e-05,0.0001,-1e-05,0.0,-1e-05,-1e-05,-2.9999999999999997e-05,1.0
2750,2869,1e-05,2e-05,0.0001,-1e-05,0.0,-1e-05,-1e-05,-2.9999999999999997e-05,1.0
2751,2870,1e-05,2e-05,0.0001,-1e-05,0.0,-1e-05,-1e-05,-2.9999999999999997e-05,1.0
2752,2871,1e-05,2e-05,0.0001,-1e-05,0.0,-1e-05,-1e-05,-2.9999999999999997e-05,1.0
2753,2872,1e-05,2e-05,0.0001,-1e-05,0.0,-1e-05,-1e-05,-2.9999999999999997e-05,1.0
2754,2873,1e-05,2e-05,0.0001,-1e-05,0.0,-1e-05,-1e-05,-2.9999999999999997e-05,1.0
2755,2874,1e-05,2e-05,0.0001,-1e-05,0.0,-1e-05,-1e-05,-2.9999999999999997e-05,1.0
2756,2875,1e-05,2e-05,0.0001,-1e-05,0.0,-1e-05,-1e-05,-2.9999999999999997e-05,1.0
2757,2876,1e-05,2e-05,0.0001,-1e-05,0.0,-1e-05,-1e-05,-2.9999999999999997e-05,1.0
2758,2877,1e-05,2e-05,0.0001,-1e-05,0.0,-1e-05,-1e-05,-2.9999999999999997e-05,1.0
2759,2878,1e-05,2e-05,0.0001,-1e-05,0.0,-1e-05,-1e-05,-2.9999999999999997e-05,1.0
2760,2879,-1e-05,-5.9999999999999995e-05,-4e-05,-1e-05,-2.9999999999999997e-05,-2e-05,-2.9999999999999997e-05,0.0,1.0
2761,2880,-1e-05,-5.9999999999999995e-05,-4e-05,-1e-05,-2.9999999999999997e-05,-2e-05,-2.9999999999999997e-05,0.0,1.0
2762,2881,-1e-05,0.0,2.9999999999999997e-05,0.0,0.0,-1e-05,1e-05,0.0,1.0
2763,2882,-1e-05,0.0,2.9999999999999997e-05,0.0,0.0,-1e-05,1e-05,0.0,1.0
2764,2883,-1e-05,0.0,2.9999999999999997e-05,0.0,0.0,-1e-05,1e-05,0.0,1.0
2765,2884,-1e-05,0.0,2.9999999999999997e-05,0.0,0.0,-1e-05,1e-05,0.0,1.0
2766,2885,-1e-05,0.0,2.9999999999999997e-05,0.0,0.0,-1e-05,1e-05,0.0,1.0
2767,2886,-1e-05,0.0,2.9999999999999997e-05,0.0,0.0,-1e-05,1e-05,0.0,1.0
2768,2888,-1e-05,0.0,2.9999999999999997e-05,0.0,0.0,-1e-05,1e-05,0.0,1.0
2769,2889,-1e-05,0.0,2.9999999999999997e-05,0.0,0.0,-1e-05,1e-05,0.0,1.0
2770,2890,-1e-05,0.0,2.9999999999999997e-05,0.0,0.0,-1e-05,1e-05,0.0,1.0
2771,2891,-1e-05,0.0,2.9999999999999997e-05,0.0,0.0,-1e-05,1e-05,0.0,1.0
2772,2892,-1e-05,0.0,2.9999999999999997e-05,0.0,0.0,-1e-05,1e-05,0.0,1.0
2773,2893,-1e-05,0.0,2.9999999999999997e-05,0.0,0.0,-1e-05,1e-05,0.0,1.0
2774,2894,-1e-05,0.0,2.9999999999999997e-05,0.0,0.0,-1e-05,1e-05,0.0,1.0
2775,2895,-1e-05,0.0,2.9999999999999997e-05,0.0,0.0,-1e-05,1e-05,0.0,1.0
2776,2896,-1e-05,0.0,2.9999999999999997e-05,0.0,0.0,-1e-05,1e-05,0.0,1.0
2777,2897,-1e-05,0.0,2.9999999999999997e-05,0.0,0.0,-1e-05,1e-05,0.0,1.0
2778,2898,-1e-05,0.0,2.9999999999999997e-05,0.0,0.0,-1e-05,1e-05,0.0,1.0
2779,2899,-1e-05,0.0,2.9999999999999997e-05,0.0,0.0,-1e-05,1e-05,0.0,1.0
2780,2900,-1e-05,0.0,2.9999999999999997e-05,0.0,0.0,-1e-05,1e-05,0.0,1.0
2781,2901,-1e-05,0.0,2.9999999999999997e-05,0.0,0.0,-1e-05,1e-05,0.0,1.0
2782,2902,0.0,-1e-05,4e-05,-1e-05,-2.9999999999999997e-05,-2e-05,0.0,-2e-05,1.0
2783,2903,-1e-05,-2e-05,-1e-05,-1e-05,-2e-05,0.0,-1e-05,-1e-05,1.0
2784,2904,-1e-05,-2e-05,-1e-05,-1e-05,-2e-05,0.0,-1e-05,-1e-05,1.0
2785,2905,-1e-05,-2e-05,-1e-05,-1e-05,-2e-05,0.0,-1e-05,-1e-05,1.0
2786,2906,-1e-05,-2e-05,-1e-05,-1e-05,-2e-05,0.0,-1e-05,-1e-05,1.0
2787,2907,-1e-05,-2e-05,-1e-05,-1e-05,-2e-05,0.0,-1e-05,-1e-05,1.0
2788,2908,-1e-05,-2e-05,-1e-05,-1e-05,-2e-05,0.0,-1e-05,-1e-05,1.0
2789,2909,-1e-05,-2e-05,-1e-05,-1e-05,-2e-05,0.0,-1e-05,-1e-05,1.0
2790,2910,-1e-05,-2e-05,-1e-05,-1e-05,-2e-05,0.0,-1e-05,-1e-05,1.0
2791,2911,-1e-05,-2e-05,-1e-05,-1e-05,-2e-05,0.0,-1e-05,-1e-05,1.0
2792,2912,-1e-05,-2e-05,-1e-05,-1e-05,-2e-05,0.0,-1e-05,-1e-05,1.0
2793,2913,-1e-05,-2e-05,-1e-05,-1e-05,-2e-05,0.0,-1e-05,-1e-05,1.0
2794,2914,-1e-05,-2e-05,-1e-05,-1e-05,-2e-05,0.0,-1e-05,-1e-05,1.0
2795,2915,-1e-05,-2e-05,-1e-05,-1e-05,-2e-05,0.0,-1e-05,-1e-05,1.0
2796,2916,-1e-05,0.0,-2e-05,0.0,-2e-05,0.0,0.0,0.0,1.0
2797,2917,-1e-05,0.0,-2e-05,0.0,-2e-05,0.0,0.0,0.0,1.0
2798,2918,-1e-05,0.0,-2e-05,0.0,-2e-05,0.0,0.0,0.0,1.0
2799,2919,-1e-05,0.0,-2e-05,0.0,-2e-05,0.0,0.0,0.0,1.0
2800,2920,-1e-05,0.0,-2e-05,0.0,-2e-05,0.0,0.0,0.0,1.0
2801,2921,-1e-05,0.0,-2e-05,0.0,-2e-05,0.0,0.0,0.0,1.0
2802,2922,-1e-05,0.0,-2e-05,0.0,-2e-05,0.0,0.0,0.0,1.0
2803,2923,-1e-05,0.0,-2e-05,0.0,-2e-05,0.0,0.0,0.0,1.0
2804,2924,-1e-05,0.0,-2e-05,0.0,-2e-05,0.0,0.0,0.0,1.0
2805,2925,-1e-05,0.0,-2e-05,0.0,-2e-05,0.0,0.0,0.0,1.0
2806,2926,-1e-05,0.0,-2e-05,0.0,-2e-05,0.0,0.0,0.0,1.0
2807,2927,-1e-05,0.0,-2e-05,0.0,-2e-05,0.0,0.0,0.0,1.0
2808,2928,-1e-05,0.0,-2e-05,0.0,-2e-05,0.0,0.0,0.0,1.0
2809,2929,-1e-05,0.0,-2e-05,0.0,-2e-05,0.0,0.0,0.0,1.0
2810,2930,1e-05,-2.9999999999999997e-05,-8e-05,-1e-05,0.0,-2e-05,0.0,-1e-05,1.0
2811,2931,1e-05,-2.9999999999999997e-05,-8e-05,-1e-05,0.0,-2e-05,0.0,-1e-05,1.0
2812,2932,1e-05,-2.9999999999999997e-05,-8e-05,-1e-05,0.0,-2e-05,0.0,-1e-05,1.0
2813,2933,1e-05,-2.9999999999999997e-05,-8e-05,-1e-05,0.0,-2e-05,0.0,-1e-05,1.0
2814,2934,1e-05,-2.9999999999999997e-05,-8e-05,-1e-05,0.0,-2e-05,0.0,-1e-05,1.0
2815,2935,1e-05,-2.9999999999999997e-05,-8e-05,-1e-05,0.0,-2e-05,0.0,-1e-05,1.0
2816,2936,1e-05,-2.9999999999999997e-05,-8e-05,-1e-05,0.0,-2e-05,0.0,-1e-05,1.0
2817,2938,-1e-05,1e-05,0.0,-2e-05,-2e-05,-2.9999999999999997e-05,-2e-05,0.0,1.0
2818,2940,-1e-05,-2e-05,-5e-05,-1e-05,-1e-05,-1e-05,-2e-05,-2e-05,1.0
2819,2941,-1e-05,1e-05,9e-05,2e-05,0.0,2e-05,-1e-05,0.0,1.0
2820,2942,-1e-05,1e-05,9e-05,2e-05,0.0,2e-05,-1e-05,0.0,1.0
2821,2943,-1e-05,1e-05,9e-05,2e-05,0.0,2e-05,-1e-05,0.0,1.0
2822,2944,-1e-05,1e-05,9e-05,2e-05,0.0,2e-05,-1e-05,0.0,1.0
2823,2945,-1e-05,1e-05,9e-05,2e-05,0.0,2e-05,-1e-05,0.0,1.0
2824,2946,-1e-05,1e-05,9e-05,2e-05,0.0,2e-05,-1e-05,0.0,1.0
2825,2947,-1e-05,1e-05,9e-05,2e-05,0.0,2e-05,-1e-05,0.0,1.0
2826,2948,-1e-05,1e-05,9e-05,2e-05,0.0,2e-05,-1e-05,0.0,1.0
2827,2949,-1e-05,1e-05,9e-05,2e-05,0.0,2e-05,-1e-05,0.0,1.0
2828,2950,-1e-05,1e-05,9e-05,2e-05,0.0,2e-05,-1e-05,0.0,1.0
2829,2951,-1e-05,1e-05,9e-05,2e-05,0.0,2e-05,-1e-05,0.0,1.0
2830,2952,-1e-05,1e-05,9e-05,2e-05,0.0,2e-05,-1e-05,0.0,1.0
2831,2953,-1e-05,1e-05,9e-05,2e-05,0.0,2e-05,-1e-05,0.0,1.0
2832,2954,-1e-05,1e-05,9e-05,2e-05,0.0,2e-05,-1e-05,0.0,1.0
2833,2955,-1e-05,1e-05,9e-05,2e-05,0.0,2e-05,-1e-05,0.0,1.0
2834,2956,-1e-05,1e-05,9e-05,2e-05,0.0,2e-05,-1e-05,0.0,1.0
2835,2957,-1e-05,1e-05,9e-05,2e-05,0.0,2e-05,-1e-05,0.0,1.0
2836,2958,-1e-05,1e-05,9e-05,2e-05,0.0,2e-05,-1e-05,0.0,1.0
2837,2959,-1e-05,1e-05,9e-05,2e-05,0.0,2e-05,-1e-05,0.0,1.0
2838,2960,-1e-05,1e-05,9e-05,2e-05,0.0,2e-05,-1e-05,0.0,1.0
2839,2961,-2e-05,-2e-05,0.0,0.0,-1e-05,0.0,-1e-05,-2.9999999999999997e-05,1.0
2840,2962,-2e-05,-2e-05,-0.00011999999999999999,-1e-05,-1e-05,-1e-05,0.0,-1e-05,1.0
2841,2963,-2e-05,-1e-05,0.0,-2e-05,-2e-05,0.0,-1e-05,1e-05,1.0
2842,2964,-2e-05,-1e-05,0.0,-2e-05,-2e-05,0.0,-1e-05,1e-05,1.0
2843,2965,-2e-05,-1e-05,0.0,-2e-05,-2e-05,0.0,-1e-05,1e-05,1.0
2844,2966,-2e-05,-1e-05,0.0,-2e-05,-2e-05,0.0,-1e-05,1e-05,1.0
2845,2967,-2e-05,-1e-05,0.0,-2e-05,-2e-05,0.0,-1e-05,1e-05,1.0
2846,2968,-2e-05,-1e-05,0.0,-2e-05,-2e-05,0.0,-1e-05,1e-05,1.0
2847,2969,-2e-05,-1e-05,0.0,-2e-05,-2e-05,0.0,-1e-05,1e-05,1.0
2848,2970,-2e-05,-1e-05,0.0,-2e-05,-2e-05,0.0,-1e-05,1e-05,1.0
2849,2971,-2e-05,-1e-05,0.0,-2e-05,-2e-05,0.0,-1e-05,1e-05,1.0
2850,2972,-2e-05,-1e-05,0.0,-2e-05,-2e-05,0.0,-1e-05,1e-05,1.0
2851,2973,-2e-05,-1e-05,0.0,-2e-05,-2e-05,0.0,-1e-05,1e-05,1.0
2852,2974,-2e-05,-1e-05,0.0,-2e-05,-2e-05,0.0,-1e-05,1e-05,1.0
2853,2975,-2e-05,-1e-05,0.0,-2e-05,-2e-05,0.0,-1e-05,1e-05,1.0
2854,2976,-2e-05,-1e-05,0.0,-2e-05,-2e-05,0.0,-1e-05,1e-05,1.0
2855,2977,-2e-05,-1e-05,0.0,-2e-05,-2e-05,0.0,-1e-05,1e-05,1.0
2856,2978,-2e-05,-1e-05,0.0,-2e-05,-2e-05,0.0,-1e-05,1e-05,1.0
2857,2979,-2e-05,-1e-05,0.0,-2e-05,-2e-05,0.0,-1e-05,1e-05,1.0
2858,2980,-2e-05,-1e-05,0.0,-2e-05,-2e-05,0.0,-1e-05,1e-05,1.0
2859,2981,-2e-05,-1e-05,0.0,-2e-05,-2e-05,0.0,-1e-05,1e-05,1.0
2860,2982,-2e-05,-1e-05,0.0,-2e-05,-2e-05,0.0,-1e-05,1e-05,1.0
2861,2983,-2e-05,-1e-05,0.0,-2e-05,-2e-05,0.0,-1e-05,1e-05,1.0
2862,2984,-1e-05,2e-05,4e-05,2e-05,1e-05,0.0,0.0,-2e-05,1.0
2863,2985,-1e-05,2e-05,4e-05,2e-05,1e-05,0.0,0.0,-2e-05,1.0
2864,2986,-2.9999999999999997e-05,0.0,5.9999999999999995e-05,-1e-05,0.0,-1e-05,0.0,-1e-05,1.0
2865,2988,-2.9999999999999997e-05,0.0,5.9999999999999995e-05,-1e-05,0.0,-1e-05,0.0,-1e-05,1.0
2866,2989,-2.9999999999999997e-05,0.0,5.9999999999999995e-05,-1e-05,0.0,-1e-05,0.0,-1e-05,1.0
2867,2990,-2.9999999999999997e-05,0.0,5.9999999999999995e-05,-1e-05,0.0,-1e-05,0.0,-1e-05,1.0
2868,2991,-2.9999999999999997e-05,0.0,5.9999999999999995e-05,-1e-05,0.0,-1e-05,0.0,-1e-05,1.0
2869,2992,-2.9999999999999997e-05,0.0,5.9999999999999995e-05,-1e-05,0.0,-1e-05,0.0,-1e-05,1.0
2870,2993,-2.9999999999999997e-05,0.0,5.9999999999999995e-05,-1e-05,0.0,-1e-05,0.0,-1e-05,1.0
2871,2994,-2.9999999999999997e-05,0.0,5.9999999999999995e-05,-1e-05,0.0,-1e-05,0.0,-1e-05,1.0
2872,2995,-2.9999999999999997e-05,0.0,5.9999999999999995e-05,-1e-05,0.0,-1e-05,0.0,-1e-05,1.0
2873,2996,-2.9999999999999997e-05,0.0,5.9999999999999995e-05,-1e-05,0.0,-1e-05,0.0,-1e-05,1.0
2874,2997,-2.9999999999999997e-05,0.0,5.9999999999999995e-05,-1e-05,0.0,-1e-05,0.0,-1e-05,1.0
2875,2998,-2.9999999999999997e-05,0.0,5.9999999999999995e-05,-1e-05,0.0,-1e-05,0.0,-1e-05,1.0
2876,2999,0.0,-2.9999999999999997e-05,1e-05,-1e-05,0.0,-2e-05,-2e-05,-2e-05,1.0
2877,3000,0.0,-2.9999999999999997e-05,1e-05,-1e-05,0.0,-2e-05,-2e-05,-2e-05,1.0
2878,3001,1e-05,0.0,-2e-05,0.0,0.0,-2e-05,-2.9999999999999997e-05,0.0,1.0
2879,3002,1e-05,0.0,-2e-05,0.0,0.0,-2e-05,-2.9999999999999997e-05,0.0,1.0
2880,3003,1e-05,0.0,-2e-05,0.0,0.0,-2e-05,-2.9999999999999997e-05,0.0,1.0
2881,3004,1e-05,0.0,-2e-05,0.0,0.0,-2e-05,-2.9999999999999997e-05,0.0,1.0
2882,3005,1e-05,0.0,-2e-05,0.0,0.0,-2e-05,-2.9999999999999997e-05,0.0,1.0
2883,3006,1e-05,0.0,-2e-05,0.0,0.0,-2e-05,-2.9999999999999997e-05,0.0,1.0
2884,3007,1e-05,0.0,-2e-05,0.0,0.0,-2e-05,-2.9999999999999997e-05,0.0,1.0
2885,3008,1e-05,0.0,-2e-05,0.0,0.0,-2e-05,-2.9999999999999997e-05,0.0,1.0
2886,3009,1e-05,0.0,-2e-05,0.0,0.0,-2e-05,-2.9999999999999997e-05,0.0,1.0
2887,3010,1e-05,0.0,-2e-05,0.0,0.0,-2e-05,-2.9999999999999997e-05,0.0,1.0
2888,3011,1e-05,0.0,-2e-05,0.0,0.0,-2e-05,-2.9999999999999997e-05,0.0,1.0
2889,3012,1e-05,0.0,-2e-05,0.0,0.0,-2e-05,-2.9999999999999997e-05,0.0,1.0
2890,3013,1e-05,0.0,-2e-05,0.0,0.0,-2e-05,-2.9999999999999997e-05,0.0,1.0
2891,3014,1e-05,0.0,-2e-05,0.0,0.0,-2e-05,-2.9999999999999997e-05,0.0,1.0
2892,3015,1e-05,0.0,-2e-05,0.0,0.0,-2e-05,-2.9999999999999997e-05,0.0,1.0
2893,3016,1e-05,0.0,-2e-05,0.0,0.0,-2e-05,-2.9999999999999997e-05,0.0,1.0
2894,3017,1e-05,0.0,-2e-05,0.0,0.0,-2e-05,-2.9999999999999997e-05,0.0,1.0
2895,3018,1e-05,0.0,-2e-05,0.0,0.0,-2e-05,-2.9999999999999997e-05,0.0,1.0
2896,3019,1e-05,0.0,-2e-05,0.0,0.0,-2e-05,-2.9999999999999997e-05,0.0,1.0
2897,3020,1e-05,0.0,-2e-05,0.0,0.0,-2e-05,-2.9999999999999997e-05,0.0,1.0
2898,3021,1e-05,0.0,-2e-05,0.0,0.0,-2e-05,-2.9999999999999997e-05,0.0,1.0
2899,3022,-2e-05,-2e-05,-7e-05,-2.9999999999999997e-05,-1e-05,1e-05,-2.9999999999999997e-05,-1e-05,1.0
2900,3023,0.0,1e-05,7e-05,-1e-05,-1e-05,1e-05,-1e-05,0.0,1.0
2901,3024,0.0,1e-05,7e-05,-1e-05,-1e-05,1e-05,-1e-05,0.0,1.0
2902,3025,0.0,1e-05,7e-05,-1e-05,-1e-05,1e-05,-1e-05,0.0,1.0
2903,3026,0.0,1e-05,7e-05,-1e-05,-1e-05,1e-05,-1e-05,0.0,1.0
2904,3027,0.0,1e-05,7e-05,-1e-05,-1e-05,1e-05,-1e-05,0.0,1.0
2905,3028,0.0,1e-05,7e-05,-1e-05,-1e-05,1e-05,-1e-05,0.0,1.0
2906,3029,0.0,1e-05,7e-05,-1e-05,-1e-05,1e-05,-1e-05,0.0,1.0
2907,3030,0.0,1e-05,7e-05,-1e-05,-1e-05,1e-05,-1e-05,0.0,1.0
2908,3031,0.0,1e-05,7e-05,-1e-05,-1e-05,1e-05,-1e-05,0.0,1.0
2909,3032,0.0,1e-05,7e-05,-1e-05,-1e-05,1e-05,-1e-05,0.0,1.0
2910,3033,0.0,1e-05,7e-05,-1e-05,-1e-05,1e-05,-1e-05,0.0,1.0
2911,3034,0.0,1e-05,7e-05,-1e-05,-1e-05,1e-05,-1e-05,0.0,1.0
2912,3035,0.0,1e-05,7e-05,-1e-05,-1e-05,1e-05,-1e-05,0.0,1.0
2913,3036,0.0,-1e-05,-4e-05,-2e-05,-1e-05,0.0,0.0,1e-05,1.0
2914,3038,0.0,-1e-05,-4e-05,-2e-05,-1e-05,0.0,0.0,1e-05,1.0
2915,3039,0.0,-1e-05,-4e-05,-2e-05,-1e-05,0.0,0.0,1e-05,1.0
2916,3040,0.0,-1e-05,-4e-05,-2e-05,-1e-05,0.0,0.0,1e-05,1.0
2917,3041,0.0,-1e-05,-4e-05,-2e-05,-1e-05,0.0,0.0,1e-05,1.0
2918,3042,0.0,-1e-05,-4e-05,-2e-05,-1e-05,0.0,0.0,1e-05,1.0
2919,3043,0.0,-1e-05,-4e-05,-2e-05,-1e-05,0.0,0.0,1e-05,1.0
2920,3044,0.0,-1e-05,-4e-05,-2e-05,-1e-05,0.0,0.0,1e-05,1.0
2921,3045,0.0,-1e-05,-4e-05,-2e-05,-1e-05,0.0,0.0,1e-05,1.0
2922,3046,0.0,-1e-05,-4e-05,-2e-05,-1e-05,0.0,0.0,1e-05,1.0
2923,3047,0.0,-1e-05,-4e-05,-2e-05,-1e-05,0.0,0.0,1e-05,1.0
2924,3048,0.0,-1e-05,-4e-05,-2e-05,-1e-05,0.0,0.0,1e-05,1.0
2925,3049,0.0,-1e-05,-4e-05,-2e-05,-1e-05,0.0,0.0,1e-05,1.0
2926,3050,-2e-05,-1e-05,-2e-05,1e-05,-2e-05,-2e-05,-1e-05,-2e-05,1.0
2927,3051,-2e-05,-1e-05,-2e-05,1e-05,-2e-05,-2e-05,-1e-05,-2e-05,1.0
2928,3052,-2e-05,-1e-05,-2e-05,1e-05,-2e-05,-2e-05,-1e-05,-2e-05,1.0
2929,3053,-2e-05,-1e-05,-2e-05,1e-05,-2e-05,-2e-05,-1e-05,-2e-05,1.0
2930,3054,-2e-05,-1e-05,-2e-05,1e-05,-2e-05,-2e-05,-1e-05,-2e-05,1.0
2931,3055,-2e-05,-1e-05,-2e-05,1e-05,-2e-05,-2e-05,-1e-05,-2e-05,1.0
2932,3056,-2e-05,-1e-05,-2e-05,1e-05,-2e-05,-2e-05,-1e-05,-2e-05,1.0
2933,3057,-2e-05,-1e-05,-2e-05,1e-05,-2e-05,-2e-05,-1e-05,-2e-05,1.0
2934,3058,-2e-05,-1e-05,-2e-05,1e-05,-2e-05,-2e-05,-1e-05,-2e-05,1.0
2935,3059,0.0,1e-05,4e-05,1e-05,1e-05,-2e-05,0.0,-2e-05,1.0
2936,3060,0.0,1e-05,4e-05,1e-05,1e-05,-2e-05,0.0,-2e-05,1.0
2937,3061,-1e-05,-5e-05,-0.00018,-4e-05,-1e-05,-1e-05,-2e-05,-2e-05,1.0
2938,3062,-1e-05,-5e-05,-0.00018,-4e-05,-1e-05,-1e-05,-2e-05,-2e-05,1.0
2939,3063,-1e-05,-5e-05,-0.00018,-4e-05,-1e-05,-1e-05,-2e-05,-2e-05,1.0
2940,3064,-1e-05,-5e-05,-0.00018,-4e-05,-1e-05,-1e-05,-2e-05,-2e-05,1.0
2941,3065,-1e-05,-5e-05,-0.00018,-4e-05,-1e-05,-1e-05,-2e-05,-2e-05,1.0
2942,3066,-1e-05,-5e-05,-0.00018,-4e-05,-1e-05,-1e-05,-2e-05,-2e-05,1.0
2943,3067,-1e-05,-5e-05,-0.00018,-4e-05,-1e-05,-1e-05,-2e-05,-2e-05,1.0
2944,3068,-1e-05,-5e-05,-0.00018,-4e-05,-1e-05,-1e-05,-2e-05,-2e-05,1.0
2945,3069,-1e-05,-5e-05,-0.00018,-4e-05,-1e-05,-1e-05,-2e-05,-2e-05,1.0
2946,3070,-1e-05,-5e-05,-0.00018,-4e-05,-1e-05,-1e-05,-2e-05,-2e-05,1.0
2947,3071,-1e-05,-5e-05,-0.00018,-4e-05,-1e-05,-1e-05,-2e-05,-2e-05,1.0
2948,3072,-1e-05,-5e-05,-0.00018,-4e-05,-1e-05,-1e-05,-2e-05,-2e-05,1.0
2949,3073,-1e-05,-5e-05,-0.00018,-4e-05,-1e-05,-1e-05,-2e-05,-2e-05,1.0
2950,3074,-1e-05,-5e-05,-0.00018,-4e-05,-1e-05,-1e-05,-2e-05,-2e-05,1.0
2951,3075,-1e-05,-5e-05,-0.00018,-4e-05,-1e-05,-1e-05,-2e-05,-2e-05,1.0
2952,3076,-1e-05,-5e-05,-0.00018,-4e-05,-1e-05,-1e-05,-2e-05,-2e-05,1.0
2953,3077,-1e-05,-5e-05,-0.00018,-4e-05,-1e-05,-1e-05,-2e-05,-2e-05,1.0
2954,3078,-1e-05,-5e-05,-0.00018,-4e-05,-1e-05,-1e-05,-2e-05,-2e-05,1.0
2955,3079,-1e-05,-5e-05,-0.00018,-4e-05,-1e-05,-1e-05,-2e-05,-2e-05,1.0
2956,3080,-1e-05,-5e-05,-0.00018,-4e-05,-1e-05,-1e-05,-2e-05,-2e-05,1.0
2957,3081,-1e-05,-5e-05,-0.00018,-4e-05,-1e-05,-1e-05,-2e-05,-2e-05,1.0
2958,3082,0.0,-2.9999999999999997e-05,-1e-05,0.0,-1e-05,0.0,-2e-05,-1e-05,1.0
2959,3083,0.0,1e-05,5e-05,1e-05,0.0,-2e-05,-2e-05,-1e-05,1.0
2960,3084,0.0,1e-05,5e-05,1e-05,0.0,-2e-05,-2e-05,-1e-05,1.0
2961,3085,0.0,1e-05,5e-05,1e-05,0.0,-2e-05,-2e-05,-1e-05,1.0
2962,3086,0.0,1e-05,5e-05,1e-05,0.0,-2e-05,-2e-05,-1e-05,1.0
2963,3088,0.0,1e-05,5e-05,1e-05,0.0,-2e-05,-2e-05,-1e-05,1.0
2964,3089,0.0,1e-05,5e-05,1e-05,0.0,-2e-05,-2e-05,-1e-05,1.0
2965,3090,0.0,1e-05,5e-05,1e-05,0.0,-2e-05,-2e-05,-1e-05,1.0
2966,3091,0.0,1e-05,5e-05,1e-05,0.0,-2e-05,-2e-05,-1e-05,1.0
2967,3092,0.0,1e-05,5e-05,1e-05,0.0,-2e-05,-2e-05,-1e-05,1.0
2968,3093,0.0,1e-05,5e-05,1e-05,0.0,-2e-05,-2e-05,-1e-05,1.0
2969,3094,0.0,1e-05,5e-05,1e-05,0.0,-2e-05,-2e-05,-1e-05,1.0
2970,3095,-1e-05,-1e-05,0.0,-1e-05,-2e-05,1e-05,0.0,0.0,1.0
2971,3096,-1e-05,-1e-05,0.0,-1e-05,-2e-05,1e-05,0.0,0.0,1.0
2972,3097,-1e-05,-1e-05,0.0,-1e-05,-2e-05,1e-05,0.0,0.0,1.0
2973,3098,-1e-05,-1e-05,0.0,-1e-05,-2e-05,1e-05,0.0,0.0,1.0
2974,3099,-1e-05,-1e-05,0.0,-1e-05,-2e-05,1e-05,0.0,0.0,1.0
2975,3100,-1e-05,-1e-05,0.0,-1e-05,-2e-05,1e-05,0.0,0.0,1.0
2976,3101,-1e-05,-1e-05,0.0,-1e-05,-2e-05,1e-05,0.0,0.0,1.0
2977,3102,-1e-05,-1e-05,0.0,-1e-05,-2e-05,1e-05,0.0,0.0,1.0
2978,3103,-1e-05,-1e-05,0.0,-1e-05,-2e-05,1e-05,0.0,0.0,1.0
2979,3104,0.0,-4e-05,-5e-05,-2.9999999999999997e-05,-2e-05,0.0,-1e-05,1e-05,1.0
2980,3105,0.0,-4e-05,-5e-05,-2.9999999999999997e-05,-2e-05,0.0,-1e-05,1e-05,1.0
2981,3106,0.0,-4e-05,-5e-05,-2.9999999999999997e-05,-2e-05,0.0,-1e-05,1e-05,1.0
2982,3107,0.0,-4e-05,-5e-05,-2.9999999999999997e-05,-2e-05,0.0,-1e-05,1e-05,1.0
2983,3108,0.0,-4e-05,-5e-05,-2.9999999999999997e-05,-2e-05,0.0,-1e-05,1e-05,1.0
2984,3109,0.0,-4e-05,-5e-05,-2.9999999999999997e-05,-2e-05,0.0,-1e-05,1e-05,1.0
2985,3110,0.0,-4e-05,-5e-05,-2.9999999999999997e-05,-2e-05,0.0,-1e-05,1e-05,1.0
2986,3111,0.0,-4e-05,-5e-05,-2.9999999999999997e-05,-2e-05,0.0,-1e-05,1e-05,1.0
2987,3112,0.0,-4e-05,-5e-05,-2.9999999999999997e-05,-2e-05,0.0,-1e-05,1e-05,1.0
2988,3113,0.0,-4e-05,-5e-05,-2.9999999999999997e-05,-2e-05,0.0,-1e-05,1e-05,1.0
2989,3114,0.0,-4e-05,-5e-05,-2.9999999999999997e-05,-2e-05,0.0,-1e-05,1e-05,1.0
2990,3115,0.0,-4e-05,-5e-05,-2.9999999999999997e-05,-2e-05,0.0,-1e-05,1e-05,1.0
2991,3116,0.0,-4e-05,-5e-05,-2.9999999999999997e-05,-2e-05,0.0,-1e-05,1e-05,1.0
2992,3117,0.0,-4e-05,-5e-05,-2.9999999999999997e-05,-2e-05,0.0,-1e-05,1e-05,1.0
2993,3118,0.0,-4e-05,-5e-05,-2.9999999999999997e-05,-2e-05,0.0,-1e-05,1e-05,1.0
2994,3119,0.0,1e-05,8e-05,0.0,-2e-05,-1e-05,0.0,1e-05,1.0
2995,3120,0.0,1e-05,8e-05,0.0,-2e-05,-1e-05,0.0,1e-05,1.0
2996,3121,-2e-05,-5e-05,0.0,-5e-05,-2e-05,-2e-05,0.0,-2e-05,1.0
2997,3122,-2e-05,-5e-05,0.0,-5e-05,-2e-05,-2e-05,0.0,-2e-05,1.0
2998,3123,-2e-05,-5e-05,0.0,-5e-05,-2e-05,-2e-05,0.0,-2e-05,1.0
2999,3124,-2e-05,-5e-05,0.0,-5e-05,-2e-05,-2e-05,0.0,-2e-05,1.0
3000,3125,-2e-05,-5e-05,0.0,-5e-05,-2e-05,-2e-05,0.0,-2e-05,1.0
3001,3126,-2e-05,-5e-05,0.0,-5e-05,-2e-05,-2e-05,0.0,-2e-05,1.0
3002,3127,-2e-05,-5e-05,0.0,-5e-05,-2e-05,-2e-05,0.0,-2e-05,1.0
3003,3128,-2e-05,-5e-05,0.0,-5e-05,-2e-05,-2e-05,0.0,-2e-05,1.0
3004,3129,-2e-05,-5e-05,0.0,-5e-05,-2e-05,-2e-05,0.0,-2e-05,1.0
3005,3130,-2e-05,-5e-05,0.0,-5e-05,-2e-05,-2e-05,0.0,-2e-05,1.0
3006,3131,-2e-05,-5e-05,0.0,-5e-05,-2e-05,-2e-05,0.0,-2e-05,1.0
3007,3132,-2e-05,-5e-05,0.0,-5e-05,-2e-05,-2e-05,0.0,-2e-05,1.0
3008,3133,-2e-05,-5e-05,0.0,-5e-05,-2e-05,-2e-05,0.0,-2e-05,1.0
3009,3134,-2e-05,-5e-05,0.0,-5e-05,-2e-05,-2e-05,0.0,-2e-05,1.0
3010,3135,-2e-05,-5e-05,0.0,-5e-05,-2e-05,-2e-05,0.0,-2e-05,1.0
3011,3136,-2e-05,-5e-05,0.0,-5e-05,-2e-05,-2e-05,0.0,-2e-05,1.0
3012,3138,-2e-05,-5e-05,0.0,-5e-05,-2e-05,-2e-05,0.0,-2e-05,1.0
3013,3139,-2e-05,-5e-05,0.0,-5e-05,-2e-05,-2e-05,0.0,-2e-05,1.0
3014,3140,-2e-05,-5e-05,0.0,-5e-05,-2e-05,-2e-05,0.0,-2e-05,1.0
3015,3141,-2e-05,-5e-05,0.0,-5e-05,-2e-05,-2e-05,0.0,-2e-05,1.0
3016,3142,-2e-05,-5e-05,0.0,-5e-05,-2e-05,-2e-05,0.0,-2e-05,1.0
3017,3143,-1e-05,-2.9999999999999997e-05,-5e-05,0.0,0.0,-1e-05,-1e-05,-1e-05,1.0
3018,3144,0.0,2e-05,1e-05,2e-05,-1e-05,-1e-05,0.0,-1e-05,1.0
3019,3145,0.0,2e-05,1e-05,2e-05,-1e-05,-1e-05,0.0,-1e-05,1.0
3020,3146,0.0,2e-05,1e-05,2e-05,-1e-05,-1e-05,0.0,-1e-05,1.0
3021,3147,0.0,2e-05,1e-05,2e-05,-1e-05,-1e-05,0.0,-1e-05,1.0
3022,3148,0.0,2e-05,1e-05,2e-05,-1e-05,-1e-05,0.0,-1e-05,1.0
3023,3149,0.0,2e-05,1e-05,2e-05,-1e-05,-1e-05,0.0,-1e-05,1.0
3024,3150,0.0,2e-05,1e-05,2e-05,-1e-05,-1e-05,0.0,-1e-05,1.0
3025,3151,0.0,2e-05,1e-05,2e-05,-1e-05,-1e-05,0.0,-1e-05,1.0
3026,3152,0.0,2e-05,1e-05,2e-05,-1e-05,-1e-05,0.0,-1e-05,1.0
3027,3153,0.0,2e-05,1e-05,2e-05,-1e-05,-1e-05,0.0,-1e-05,1.0
3028,3154,0.0,2e-05,1e-05,2e-05,-1e-05,-1e-05,0.0,-1e-05,1.0
3029,3155,-2e-05,1e-05,1e-05,-2e-05,-1e-05,0.0,-1e-05,-2e-05,1.0
3030,3156,-2e-05,1e-05,1e-05,-2e-05,-1e-05,0.0,-1e-05,-2e-05,1.0
3031,3157,-2e-05,1e-05,1e-05,-2e-05,-1e-05,0.0,-1e-05,-2e-05,1.0
3032,3158,-2e-05,1e-05,1e-05,-2e-05,-1e-05,0.0,-1e-05,-2e-05,1.0
3033,3159,-2e-05,1e-05,1e-05,-2e-05,-1e-05,0.0,-1e-05,-2e-05,1.0
3034,3160,-2e-05,1e-05,1e-05,-2e-05,-1e-05,0.0,-1e-05,-2e-05,1.0
3035,3161,-2e-05,1e-05,1e-05,-2e-05,-1e-05,0.0,-1e-05,-2e-05,1.0
3036,3162,-2e-05,1e-05,1e-05,-2e-05,-1e-05,0.0,-1e-05,-2e-05,1.0
3037,3163,-2e-05,1e-05,1e-05,-2e-05,-1e-05,0.0,-1e-05,-2e-05,1.0
3038,3164,-2e-05,1e-05,1e-05,-2e-05,-1e-05,0.0,-1e-05,-2e-05,1.0
3039,3165,-2e-05,1e-05,1e-05,-2e-05,-1e-05,0.0,-1e-05,-2e-05,1.0
3040,3166,-2e-05,1e-05,1e-05,-2e-05,-1e-05,0.0,-1e-05,-2e-05,1.0
3041,3167,-2e-05,1e-05,1e-05,-2e-05,-1e-05,0.0,-1e-05,-2e-05,1.0
3042,3168,-2e-05,1e-05,1e-05,-2e-05,-1e-05,0.0,-1e-05,-2e-05,1.0
3043,3169,-2e-05,1e-05,1e-05,-2e-05,-1e-05,0.0,-1e-05,-2e-05,1.0
3044,3170,-2e-05,1e-05,1e-05,-2e-05,-1e-05,0.0,-1e-05,-2e-05,1.0
3045,3171,-2e-05,1e-05,1e-05,-2e-05,-1e-05,0.0,-1e-05,-2e-05,1.0
3046,3172,-1e-05,-1e-05,2.9999999999999997e-05,-1e-05,0.0,-1e-05,-1e-05,0.0,1.0
3047,3173,-1e-05,-1e-05,2.9999999999999997e-05,-1e-05,0.0,-1e-05,-1e-05,0.0,1.0
3048,3174,-1e-05,-1e-05,2.9999999999999997e-05,-1e-05,0.0,-1e-05,-1e-05,0.0,1.0
3049,3175,-1e-05,-1e-05,2.9999999999999997e-05,-1e-05,0.0,-1e-05,-1e-05,0.0,1.0
3050,3176,-1e-05,-1e-05,2.9999999999999997e-05,-1e-05,0.0,-1e-05,-1e-05,0.0,1.0
3051,3177,-1e-05,-1e-05,2.9999999999999997e-05,-1e-05,0.0,-1e-05,-1e-05,0.0,1.0
3052,3178,-1e-05,-1e-05,2.9999999999999997e-05,-1e-05,0.0,-1e-05,-1e-05,0.0,1.0
3053,3179,1e-05,0.0,0.0,0.0,0.0,-2e-05,-1e-05,-2.9999999999999997e-05,1.0
3054,3180,2e-05,-2.9999999999999997e-05,-2e-05,-2e-05,1e-05,0.0,1e-05,0.0,1.0
3055,3181,-2e-05,-4e-05,0.0,-2.9999999999999997e-05,-2.9999999999999997e-05,-1e-05,-1e-05,-2.9999999999999997e-05,1.0
3056,3182,-2e-05,-4e-05,0.0,-2.9999999999999997e-05,-2.9999999999999997e-05,-1e-05,-1e-05,-2.9999999999999997e-05,1.0
3057,3183,-2e-05,-4e-05,0.0,-2.9999999999999997e-05,-2.9999999999999997e-05,-1e-05,-1e-05,-2.9999999999999997e-05,1.0
3058,3184,-2e-05,-4e-05,0.0,-2.9999999999999997e-05,-2.9999999999999997e-05,-1e-05,-1e-05,-2.9999999999999997e-05,1.0
3059,3185,-2e-05,-4e-05,0.0,-2.9999999999999997e-05,-2.9999999999999997e-05,-1e-05,-1e-05,-2.9999999999999997e-05,1.0
3060,3186,-2e-05,-4e-05,0.0,-2.9999999999999997e-05,-2.9999999999999997e-05,-1e-05,-1e-05,-2.9999999999999997e-05,1.0
3061,3188,-2e-05,-4e-05,0.0,-2.9999999999999997e-05,-2.9999999999999997e-05,-1e-05,-1e-05,-2.9999999999999997e-05,1.0
3062,3189,-2e-05,-4e-05,0.0,-2.9999999999999997e-05,-2.9999999999999997e-05,-1e-05,-1e-05,-2.9999999999999997e-05,1.0
3063,3190,-2e-05,-4e-05,0.0,-2.9999999999999997e-05,-2.9999999999999997e-05,-1e-05,-1e-05,-2.9999999999999997e-05,1.0
3064,3191,-2e-05,-4e-05,0.0,-2.9999999999999997e-05,-2.9999999999999997e-05,-1e-05,-1e-05,-2.9999999999999997e-05,1.0
3065,3192,-2e-05,-4e-05,0.0,-2.9999999999999997e-05,-2.9999999999999997e-05,-1e-05,-1e-05,-2.9999999999999997e-05,1.0
3066,3193,-2e-05,-4e-05,0.0,-2.9999999999999997e-05,-2.9999999999999997e-05,-1e-05,-1e-05,-2.9999999999999997e-05,1.0
3067,3194,-2e-05,-4e-05,0.0,-2.9999999999999997e-05,-2.9999999999999997e-05,-1e-05,-1e-05,-2.9999999999999997e-05,1.0
3068,3195,-2e-05,-4e-05,0.0,-2.9999999999999997e-05,-2.9999999999999997e-05,-1e-05,-1e-05,-2.9999999999999997e-05,1.0
3069,3196,-2e-05,-4e-05,0.0,-2.9999999999999997e-05,-2.9999999999999997e-05,-1e-05,-1e-05,-2.9999999999999997e-05,1.0
3070,3197,-2e-05,-4e-05,0.0,-2.9999999999999997e-05,-2.9999999999999997e-05,-1e-05,-1e-05,-2.9999999999999997e-05,1.0
3071,3198,-2e-05,-4e-05,0.0,-2.9999999999999997e-05,-2.9999999999999997e-05,-1e-05,-1e-05,-2.9999999999999997e-05,1.0
3072,3199,-2e-05,-4e-05,0.0,-2.9999999999999997e-05,-2.9999999999999997e-05,-1e-05,-1e-05,-2.9999999999999997e-05,1.0
3073,3200,-2e-05,-4e-05,0.0,-2.9999999999999997e-05,-2.9999999999999997e-05,-1e-05,-1e-05,-2.9999999999999997e-05,1.0
3074,3201,-2e-05,-4e-05,0.0,-2.9999999999999997e-05,-2.9999999999999997e-05,-1e-05,-1e-05,-2.9999999999999997e-05,1.0
3075,3202,-2e-05,-4e-05,0.0,-2.9999999999999997e-05,-2.9999999999999997e-05,-1e-05,-1e-05,-2.9999999999999997e-05,1.0
3076,3203,-2e-05,-4e-05,0.0,-2.9999999999999997e-05,-2.9999999999999997e-05,-1e-05,-1e-05,-2.9999999999999997e-05,1.0
3077,3204,-2e-05,-4e-05,0.0,-2.9999999999999997e-05,-2.9999999999999997e-05,-1e-05,-1e-05,-2.9999999999999997e-05,1.0
3078,3205,-2e-05,-4e-05,0.0,-2.9999999999999997e-05,-2.9999999999999997e-05,-1e-05,-1e-05,-2.9999999999999997e-05,1.0
3079,3206,-2e-05,-4e-05,0.0,-2.9999999999999997e-05,-2.9999999999999997e-05,-1e-05,-1e-05,-2.9999999999999997e-05,1.0
3080,3207,-2e-05,-4e-05,0.0,-2.9999999999999997e-05,-2.9999999999999997e-05,-1e-05,-1e-05,-2.9999999999999997e-05,1.0
3081,3208,-2e-05,-4e-05,0.0,-2.9999999999999997e-05,-2.9999999999999997e-05,-1e-05,-1e-05,-2.9999999999999997e-05,1.0
3082,3209,0.0,1e-05,1e-05,1e-05,0.0,-2.9999999999999997e-05,-2e-05,1e-05,1.0
3083,3210,0.0,1e-05,1e-05,1e-05,0.0,-2.9999999999999997e-05,-2e-05,1e-05,1.0
3084,3211,-2e-05,-2.9999999999999997e-05,0.0,-2.9999999999999997e-05,-2.9999999999999997e-05,-1e-05,-2e-05,-2e-05,1.0
3085,3212,-2e-05,-2.9999999999999997e-05,0.0,-2.9999999999999997e-05,-2.9999999999999997e-05,-1e-05,-2e-05,-2e-05,1.0
3086,3213,-2e-05,-2.9999999999999997e-05,0.0,-2.9999999999999997e-05,-2.9999999999999997e-05,-1e-05,-2e-05,-2e-05,1.0
3087,3214,-2e-05,-2.9999999999999997e-05,0.0,-2.9999999999999997e-05,-2.9999999999999997e-05,-1e-05,-2e-05,-2e-05,1.0
3088,3215,-2e-05,-2e-05,-2e-05,-1e-05,-2e-05,0.0,-1e-05,-1e-05,1.0
3089,3216,-2e-05,-2e-05,-2e-05,-1e-05,-2e-05,0.0,-1e-05,-1e-05,1.0
3090,3217,-2e-05,-2e-05,-2e-05,-1e-05,-2e-05,0.0,-1e-05,-1e-05,1.0
3091,3218,-2e-05,-2e-05,-2e-05,-1e-05,-2e-05,0.0,-1e-05,-1e-05,1.0
3092,3219,-2e-05,-2e-05,-2e-05,-1e-05,-2e-05,0.0,-1e-05,-1e-05,1.0
3093,3220,-2e-05,-2e-05,-2e-05,-1e-05,-2e-05,0.0,-1e-05,-1e-05,1.0
3094,3221,-2e-05,-2e-05,-2e-05,-1e-05,-2e-05,0.0,-1e-05,-1e-05,1.0
3095,3222,-2e-05,-2e-05,-2e-05,-1e-05,-2e-05,0.0,-1e-05,-1e-05,1.0
3096,3223,-2e-05,-2e-05,-2e-05,-1e-05,-2e-05,0.0,-1e-05,-1e-05,1.0
3097,3224,0.0,-1e-05,-4e-05,-2e-05,1e-05,-1e-05,-2.9999999999999997e-05,2e-05,1.0
3098,3225,0.0,-1e-05,-4e-05,-2e-05,1e-05,-1e-05,-2.9999999999999997e-05,2e-05,1.0
3099,3226,0.0,-1e-05,-4e-05,-2e-05,1e-05,-1e-05,-2.9999999999999997e-05,2e-05,1.0
3100,3227,0.0,-1e-05,-4e-05,-2e-05,1e-05,-1e-05,-2.9999999999999997e-05,2e-05,1.0
3101,3228,0.0,-1e-05,-4e-05,-2e-05,1e-05,-1e-05,-2.9999999999999997e-05,2e-05,1.0
3102,3229,0.0,-1e-05,-4e-05,-2e-05,1e-05,-1e-05,-2.9999999999999997e-05,2e-05,1.0
3103,3230,0.0,-1e-05,-4e-05,-2e-05,1e-05,-1e-05,-2.9999999999999997e-05,2e-05,1.0
3104,3231,0.0,-1e-05,-4e-05,-2e-05,1e-05,-1e-05,-2.9999999999999997e-05,2e-05,1.0
3105,3232,0.0,-1e-05,-4e-05,-2e-05,1e-05,-1e-05,-2.9999999999999997e-05,2e-05,1.0
3106,3233,0.0,-1e-05,-4e-05,-2e-05,1e-05,-1e-05,-2.9999999999999997e-05,2e-05,1.0
3107,3234,0.0,-1e-05,-4e-05,-2e-05,1e-05,-1e-05,-2.9999999999999997e-05,2e-05,1.0
3108,3235,0.0,-1e-05,-4e-05,-2e-05,1e-05,-1e-05,-2.9999999999999997e-05,2e-05,1.0
3109,3236,0.0,-1e-05,-4e-05,-2e-05,1e-05,-1e-05,-2.9999999999999997e-05,2e-05,1.0
3110,3238,0.0,-1e-05,-4e-05,-2e-05,1e-05,-1e-05,-2.9999999999999997e-05,2e-05,1.0
3111,3239,2e-05,-2.9999999999999997e-05,-1e-05,1e-05,-1e-05,-1e-05,1e-05,-1e-05,1.0
3112,3240,2e-05,-2.9999999999999997e-05,-1e-05,1e-05,-1e-05,-1e-05,1e-05,-1e-05,1.0
3113,3241,2e-05,-2.9999999999999997e-05,-1e-05,1e-05,-1e-05,-1e-05,1e-05,-1e-05,1.0
3114,3242,2e-05,-2.9999999999999997e-05,-1e-05,1e-05,-1e-05,-1e-05,1e-05,-1e-05,1.0
3115,3243,2e-05,-2.9999999999999997e-05,-1e-05,1e-05,-1e-05,-1e-05,1e-05,-1e-05,1.0
3116,3244,2e-05,-2.9999999999999997e-05,-1e-05,1e-05,-1e-05,-1e-05,1e-05,-1e-05,1.0
3117,3245,-1e-05,0.0,5e-05,0.0,-1e-05,0.0,-2e-05,-2e-05,1.0
3118,3246,-1e-05,0.0,5e-05,0.0,-1e-05,0.0,-2e-05,-2e-05,1.0
3119,3247,-1e-05,0.0,5e-05,0.0,-1e-05,0.0,-2e-05,-2e-05,1.0
3120,3248,-1e-05,0.0,5e-05,0.0,-1e-05,0.0,-2e-05,-2e-05,1.0
3121,3249,-1e-05,0.0,5e-05,0.0,-1e-05,0.0,-2e-05,-2e-05,1.0
3122,3250,-1e-05,0.0,5e-05,0.0,-1e-05,0.0,-2e-05,-2e-05,1.0
3123,3251,-1e-05,0.0,5e-05,0.0,-1e-05,0.0,-2e-05,-2e-05,1.0
3124,3252,-1e-05,0.0,5e-05,0.0,-1e-05,0.0,-2e-05,-2e-05,1.0
3125,3253,-1e-05,0.0,5e-05,0.0,-1e-05,0.0,-2e-05,-2e-05,1.0
3126,3254,-1e-05,0.0,5e-05,0.0,-1e-05,0.0,-2e-05,-2e-05,1.0
3127,3255,-1e-05,0.0,5e-05,0.0,-1e-05,0.0,-2e-05,-2e-05,1.0
3128,3256,-1e-05,0.0,5e-05,0.0,-1e-05,0.0,-2e-05,-2e-05,1.0
3129,3257,-1e-05,0.0,5e-05,0.0,-1e-05,0.0,-2e-05,-2e-05,1.0
3130,3258,-1e-05,0.0,5e-05,0.0,-1e-05,0.0,-2e-05,-2e-05,1.0
3131,3259,-1e-05,0.0,5e-05,0.0,-1e-05,0.0,-2e-05,-2e-05,1.0
3132,3260,-1e-05,0.0,5e-05,0.0,-1e-05,0.0,-2e-05,-2e-05,1.0
3133,3261,-2e-05,0.0,-7e-05,-2.9999999999999997e-05,-2e-05,-2.9999999999999997e-05,0.0,0.0,1.0
3134,3262,-5e-05,-2.9999999999999997e-05,-2e-05,-2e-05,0.0,-2e-05,0.0,0.0,1.0
3135,3263,2e-05,2e-05,7e-05,4e-05,-1e-05,-1e-05,-2e-05,-2e-05,1.0
3136,3264,2e-05,2e-05,7e-05,4e-05,-1e-05,-1e-05,-2e-05,-2e-05,1.0
3137,3265,2e-05,2e-05,7e-05,4e-05,-1e-05,-1e-05,-2e-05,-2e-05,1.0
3138,3266,2e-05,2e-05,7e-05,4e-05,-1e-05,-1e-05,-2e-05,-2e-05,1.0
3139,3267,2e-05,2e-05,7e-05,4e-05,-1e-05,-1e-05,-2e-05,-2e-05,1.0
3140,3268,2e-05,2e-05,7e-05,4e-05,-1e-05,-1e-05,-2e-05,-2e-05,1.0
3141,3269,2e-05,2e-05,7e-05,4e-05,-1e-05,-1e-05,-2e-05,-2e-05,1.0
3142,3270,2e-05,2e-05,7e-05,4e-05,-1e-05,-1e-05,-2e-05,-2e-05,1.0
3143,3271,2e-05,2e-05,7e-05,4e-05,-1e-05,-1e-05,-2e-05,-2e-05,1.0
3144,3272,2e-05,2e-05,7e-05,4e-05,-1e-05,-1e-05,-2e-05,-2e-05,1.0
3145,3273,2e-05,2e-05,7e-05,4e-05,-1e-05,-1e-05,-2e-05,-2e-05,1.0
3146,3274,2e-05,2e-05,7e-05,4e-05,-1e-05,-1e-05,-2e-05,-2e-05,1.0
3147,3275,-2e-05,-5e-05,-9e-05,-2e-05,-2.9999999999999997e-05,-1e-05,-2e-05,1e-05,1.0
3148,3276,-2e-05,-5e-05,-9e-05,-2e-05,-2.9999999999999997e-05,-1e-05,-2e-05,1e-05,1.0
3149,3277,-2e-05,-5e-05,-9e-05,-2e-05,-2.9999999999999997e-05,-1e-05,-2e-05,1e-05,1.0
3150,3278,-2e-05,-5e-05,-9e-05,-2e-05,-2.9999999999999997e-05,-1e-05,-2e-05,1e-05,1.0
3151,3279,-2e-05,-5e-05,-9e-05,-2e-05,-2.9999999999999997e-05,-1e-05,-2e-05,1e-05,1.0
3152,3280,-2e-05,-5e-05,-9e-05,-2e-05,-2.9999999999999997e-05,-1e-05,-2e-05,1e-05,1.0
3153,3281,-2e-05,-5e-05,-9e-05,-2e-05,-2.9999999999999997e-05,-1e-05,-2e-05,1e-05,1.0
3154,3282,-2e-05,-5e-05,-9e-05,-2e-05,-2.9999999999999997e-05,-1e-05,-2e-05,1e-05,1.0
3155,3283,-2e-05,-5e-05,-9e-05,-2e-05,-2.9999999999999997e-05,-1e-05,-2e-05,1e-05,1.0
3156,3284,-1e-05,0.0,-1e-05,-1e-05,-1e-05,-1e-05,-1e-05,-2e-05,1.0
3157,3285,-1e-05,0.0,-1e-05,-1e-05,-1e-05,-1e-05,-1e-05,-2e-05,1.0
3158,3286,-1e-05,0.0,-1e-05,-1e-05,-1e-05,-1e-05,-1e-05,-2e-05,1.0
3159,3288,-1e-05,0.0,-1e-05,-1e-05,-1e-05,-1e-05,-1e-05,-2e-05,1.0
3160,3289,-1e-05,0.0,-1e-05,-1e-05,-1e-05,-1e-05,-1e-05,-2e-05,1.0
3161,3290,-1e-05,0.0,-1e-05,-1e-05,-1e-05,-1e-05,-1e-05,-2e-05,1.0
3162,3291,-1e-05,0.0,-1e-05,-1e-05,-1e-05,-1e-05,-1e-05,-2e-05,1.0
3163,3292,-1e-05,0.0,-1e-05,-1e-05,-1e-05,-1e-05,-1e-05,-2e-05,1.0
3164,3293,-1e-05,0.0,-1e-05,-1e-05,-1e-05,-1e-05,-1e-05,-2e-05,1.0
3165,3294,-1e-05,0.0,-1e-05,-1e-05,-1e-05,-1e-05,-1e-05,-2e-05,1.0
3166,3295,-1e-05,0.0,-1e-05,-1e-05,-1e-05,-1e-05,-1e-05,-2e-05,1.0
3167,3296,-1e-05,0.0,-1e-05,-1e-05,-1e-05,-1e-05,-1e-05,-2e-05,1.0
3168,3297,-1e-05,0.0,-1e-05,-1e-05,-1e-05,-1e-05,-1e-05,-2e-05,1.0
3169,3298,-1e-05,0.0,-1e-05,-1e-05,-1e-05,-1e-05,-1e-05,-2e-05,1.0
3170,3299,-1e-05,0.0,-1e-05,-1e-05,-1e-05,-1e-05,-1e-05,-2e-05,1.0
3171,3300,1e-05,2e-05,4e-05,-1e-05,0.0,0.0,-1e-05,-2e-05,1.0
3172,3301,-2e-05,-1e-05,-4e-05,-2e-05,-2e-05,-1e-05,0.0,-1e-05,1.0
3173,3302,-2e-05,-1e-05,-4e-05,-2e-05,-2e-05,-1e-05,0.0,-1e-05,1.0
3174,3303,-2e-05,-1e-05,-4e-05,-2e-05,-2e-05,-1e-05,0.0,-1e-05,1.0
3175,3304,-2e-05,-1e-05,-4e-05,-2e-05,-2e-05,-1e-05,0.0,-1e-05,1.0
3176,3305,-2e-05,-1e-05,-4e-05,-2e-05,-2e-05,-1e-05,0.0,-1e-05,1.0
3177,3306,-2e-05,-1e-05,-4e-05,-2e-05,-2e-05,-1e-05,0.0,-1e-05,1.0
3178,3307,-2e-05,-1e-05,-4e-05,-2e-05,-2e-05,-1e-05,0.0,-1e-05,1.0
3179,3308,-2e-05,-1e-05,-4e-05,-2e-05,-2e-05,-1e-05,0.0,-1e-05,1.0
3180,3309,-2e-05,-1e-05,-4e-05,-2e-05,-2e-05,-1e-05,0.0,-1e-05,1.0
3181,3310,-2e-05,-1e-05,-4e-05,-2e-05,-2e-05,-1e-05,0.0,-1e-05,1.0
3182,3311,-2e-05,-1e-05,-4e-05,-2e-05,-2e-05,-1e-05,0.0,-1e-05,1.0
3183,3312,-2e-05,-1e-05,-4e-05,-2e-05,-2e-05,-1e-05,0.0,-1e-05,1.0
3184,3313,-2e-05,-1e-05,-4e-05,-2e-05,-2e-05,-1e-05,0.0,-1e-05,1.0
3185,3314,-2e-05,-1e-05,-4e-05,-2e-05,-2e-05,-1e-05,0.0,-1e-05,1.0
3186,3315,-2e-05,-1e-05,-4e-05,-2e-05,-2e-05,-1e-05,0.0,-1e-05,1.0
3187,3316,-2e-05,-1e-05,-4e-05,-2e-05,-2e-05,-1e-05,0.0,-1e-05,1.0
3188,3317,-2e-05,-1e-05,-4e-05,-2e-05,-2e-05,-1e-05,0.0,-1e-05,1.0
3189,3318,-2e-05,-1e-05,-4e-05,-2e-05,-2e-05,-1e-05,0.0,-1e-05,1.0
3190,3319,-2e-05,-1e-05,-4e-05,-2e-05,-2e-05,-1e-05,0.0,-1e-05,1.0
3191,3320,-2e-05,-1e-05,-4e-05,-2e-05,-2e-05,-1e-05,0.0,-1e-05,1.0
3192,3321,-2e-05,-1e-05,-4e-05,-2e-05,-2e-05,-1e-05,0.0,-1e-05,1.0
3193,3322,-2e-05,-1e-05,-4e-05,-2e-05,-2e-05,-1e-05,0.0,-1e-05,1.0
3194,3323,-2e-05,-1e-05,-4e-05,-2e-05,-2e-05,-1e-05,0.0,-1e-05,1.0
3195,3324,-2e-05,-1e-05,-4e-05,-2e-05,-2e-05,-1e-05,0.0,-1e-05,1.0
3196,3325,-2e-05,-1e-05,-4e-05,-2e-05,-2e-05,-1e-05,0.0,-1e-05,1.0
3197,3326,-2e-05,-1e-05,-4e-05,-2e-05,-2e-05,-1e-05,0.0,-1e-05,1.0
3198,3327,-2e-05,-1e-05,-4e-05,-2e-05,-2e-05,-1e-05,0.0,-1e-05,1.0
3199,3328,-2e-05,-1e-05,-4e-05,-2e-05,-2e-05,-1e-05,0.0,-1e-05,1.0
3200,3329,0.0,-2.9999999999999997e-05,0.0,0.0,-2e-05,-1e-05,0.0,0.0,1.0
3201,3330,-2.9999999999999997e-05,-2e-05,-1e-05,0.0,0.0,-1e-05,-1e-05,0.0,1.0
3202,3331,-1e-05,2e-05,1e-05,2e-05,-1e-05,0.0,1e-05,0.0,1.0
3203,3332,-1e-05,2e-05,1e-05,2e-05,-1e-05,0.0,1e-05,0.0,1.0
3204,3333,-1e-05,2e-05,1e-05,2e-05,-1e-05,0.0,1e-05,0.0,1.0
3205,3334,-1e-05,2e-05,1e-05,2e-05,-1e-05,0.0,1e-05,0.0,1.0
3206,3335,-2.9999999999999997e-05,-5e-05,1e-05,-7e-05,-2.9999999999999997e-05,-2e-05,-2e-05,-2.9999999999999997e-05,1.0
3207,3336,-2.9999999999999997e-05,-5e-05,1e-05,-7e-05,-2.9999999999999997e-05,-2e-05,-2e-05,-2.9999999999999997e-05,1.0
3208,3338,-2.9999999999999997e-05,-5e-05,1e-05,-7e-05,-2.9999999999999997e-05,-2e-05,-2e-05,-2.9999999999999997e-05,1.0
3209,3339,-2.9999999999999997e-05,-5e-05,1e-05,-7e-05,-2.9999999999999997e-05,-2e-05,-2e-05,-2.9999999999999997e-05,1.0
3210,3340,-2.9999999999999997e-05,-5e-05,1e-05,-7e-05,-2.9999999999999997e-05,-2e-05,-2e-05,-2.9999999999999997e-05,1.0
3211,3341,-2.9999999999999997e-05,-5e-05,1e-05,-7e-05,-2.9999999999999997e-05,-2e-05,-2e-05,-2.9999999999999997e-05,1.0
3212,3342,-2.9999999999999997e-05,-5e-05,1e-05,-7e-05,-2.9999999999999997e-05,-2e-05,-2e-05,-2.9999999999999997e-05,1.0
3213,3343,-2.9999999999999997e-05,-5e-05,1e-05,-7e-05,-2.9999999999999997e-05,-2e-05,-2e-05,-2.9999999999999997e-05,1.0
3214,3344,-2e-05,-2.9999999999999997e-05,-2e-05,-2e-05,0.0,-2e-05,1e-05,-1e-05,1.0
3215,3345,-2e-05,-2.9999999999999997e-05,-2e-05,-2e-05,0.0,-2e-05,1e-05,-1e-05,1.0
3216,3346,-2e-05,-2.9999999999999997e-05,-2e-05,-2e-05,0.0,-2e-05,1e-05,-1e-05,1.0
3217,3347,-2e-05,-2.9999999999999997e-05,-2e-05,-2e-05,0.0,-2e-05,1e-05,-1e-05,1.0
3218,3348,-2e-05,-2.9999999999999997e-05,-2e-05,-2e-05,0.0,-2e-05,1e-05,-1e-05,1.0
3219,3349,-2e-05,-2.9999999999999997e-05,-2e-05,-2e-05,0.0,-2e-05,1e-05,-1e-05,1.0
3220,3350,-2e-05,-2.9999999999999997e-05,-2e-05,-2e-05,0.0,-2e-05,1e-05,-1e-05,1.0
3221,3351,-2e-05,-2.9999999999999997e-05,-2e-05,-2e-05,0.0,-2e-05,1e-05,-1e-05,1.0
3222,3352,-2e-05,-2.9999999999999997e-05,-2e-05,-2e-05,0.0,-2e-05,1e-05,-1e-05,1.0
3223,3353,-2e-05,-2.9999999999999997e-05,-2e-05,-2e-05,0.0,-2e-05,1e-05,-1e-05,1.0
3224,3354,-2e-05,-2.9999999999999997e-05,-2e-05,-2e-05,0.0,-2e-05,1e-05,-1e-05,1.0
3225,3355,-2e-05,-2.9999999999999997e-05,-2e-05,-2e-05,0.0,-2e-05,1e-05,-1e-05,1.0
3226,3356,-2e-05,-2.9999999999999997e-05,-2e-05,-2e-05,0.0,-2e-05,1e-05,-1e-05,1.0
3227,3357,-2e-05,-2.9999999999999997e-05,-2e-05,-2e-05,0.0,-2e-05,1e-05,-1e-05,1.0
3228,3358,-2e-05,-2.9999999999999997e-05,-2e-05,-2e-05,0.0,-2e-05,1e-05,-1e-05,1.0
3229,3359,-1e-05,0.0,2e-05,1e-05,1e-05,0.0,-1e-05,1e-05,1.0
3230,3360,0.0,0.0,2e-05,2.9999999999999997e-05,1e-05,0.0,0.0,1e-05,1.0
3231,3361,0.0,0.0,2e-05,2.9999999999999997e-05,1e-05,0.0,0.0,1e-05,1.0
3232,3362,0.0,0.0,2e-05,2.9999999999999997e-05,1e-05,0.0,0.0,1e-05,1.0
3233,3363,0.0,0.0,2e-05,2.9999999999999997e-05,1e-05,0.0,0.0,1e-05,1.0
3234,3364,0.0,0.0,2e-05,2.9999999999999997e-05,1e-05,0.0,0.0,1e-05,1.0
3235,3365,-1e-05,-2e-05,-1e-05,-1e-05,-1e-05,0.0,-2.9999999999999997e-05,-1e-05,1.0
3236,3366,-1e-05,-2e-05,-1e-05,-1e-05,-1e-05,0.0,-2.9999999999999997e-05,-1e-05,1.0
3237,3367,-1e-05,-2e-05,-1e-05,-1e-05,-1e-05,0.0,-2.9999999999999997e-05,-1e-05,1.0
3238,3368,-1e-05,-2e-05,-1e-05,-1e-05,-1e-05,0.0,-2.9999999999999997e-05,-1e-05,1.0
3239,3369,-1e-05,-2e-05,-1e-05,-1e-05,-1e-05,0.0,-2.9999999999999997e-05,-1e-05,1.0
3240,3370,-1e-05,-2e-05,-1e-05,-1e-05,-1e-05,0.0,-2.9999999999999997e-05,-1e-05,1.0
3241,3371,-1e-05,-2e-05,-1e-05,-1e-05,-1e-05,0.0,-2.9999999999999997e-05,-1e-05,1.0
3242,3372,-1e-05,-2e-05,-1e-05,-1e-05,-1e-05,0.0,-2.9999999999999997e-05,-1e-05,1.0
3243,3373,-1e-05,-2e-05,-1e-05,-1e-05,-1e-05,0.0,-2.9999999999999997e-05,-1e-05,1.0
3244,3374,-1e-05,-2e-05,-1e-05,-1e-05,-1e-05,0.0,-2.9999999999999997e-05,-1e-05,1.0
3245,3375,-1e-05,-2e-05,-1e-05,-1e-05,-1e-05,0.0,-2.9999999999999997e-05,-1e-05,1.0
3246,3376,-1e-05,-2e-05,-1e-05,-1e-05,-1e-05,0.0,-2.9999999999999997e-05,-1e-05,1.0
3247,3377,-1e-05,-2e-05,-1e-05,-1e-05,-1e-05,0.0,-2.9999999999999997e-05,-1e-05,1.0
3248,3378,-1e-05,-2e-05,-1e-05,-1e-05,-1e-05,0.0,-2.9999999999999997e-05,-1e-05,1.0
3249,3379,-1e-05,-2e-05,-1e-05,-1e-05,-1e-05,0.0,-2.9999999999999997e-05,-1e-05,1.0
3250,3380,-1e-05,-2e-05,-1e-05,-1e-05,-1e-05,0.0,-2.9999999999999997e-05,-1e-05,1.0
3251,3381,-1e-05,-5e-05,-2e-05,1e-05,-1e-05,0.0,-1e-05,-2e-05,1.0
3252,3382,0.0,4e-05,-2.9999999999999997e-05,-1e-05,-2.9999999999999997e-05,0.0,0.0,-1e-05,1.0
3253,3383,-2e-05,-1e-05,-5e-05,2e-05,0.0,-1e-05,-1e-05,-1e-05,1.0
3254,3384,-2e-05,-1e-05,-5e-05,2e-05,0.0,-1e-05,-1e-05,-1e-05,1.0
3255,3385,-2e-05,-1e-05,-5e-05,2e-05,0.0,-1e-05,-1e-05,-1e-05,1.0
3256,3386,-2e-05,-1e-05,-5e-05,2e-05,0.0,-1e-05,-1e-05,-1e-05,1.0
3257,3388,-2e-05,-1e-05,-5e-05,2e-05,0.0,-1e-05,-1e-05,-1e-05,1.0
3258,3389,-2e-05,-1e-05,-5e-05,2e-05,0.0,-1e-05,-1e-05,-1e-05,1.0
3259,3390,-2e-05,-1e-05,-5e-05,2e-05,0.0,-1e-05,-1e-05,-1e-05,1.0
3260,3391,-2e-05,-1e-05,-5e-05,2e-05,0.0,-1e-05,-1e-05,-1e-05,1.0
3261,3392,-2e-05,-1e-05,-5e-05,2e-05,0.0,-1e-05,-1e-05,-1e-05,1.0
3262,3393,-2e-05,-1e-05,-5e-05,2e-05,0.0,-1e-05,-1e-05,-1e-05,1.0
3263,3394,-2e-05,-1e-05,-5e-05,2e-05,0.0,-1e-05,-1e-05,-1e-05,1.0
3264,3395,-2.9999999999999997e-05,-2e-05,-1e-05,-2e-05,-2e-05,-4e-05,-2.9999999999999997e-05,-2e-05,1.0
3265,3396,-2.9999999999999997e-05,-2e-05,-1e-05,-2e-05,-2e-05,-4e-05,-2.9999999999999997e-05,-2e-05,1.0
3266,3397,-2.9999999999999997e-05,-2e-05,-1e-05,-2e-05,-2e-05,-4e-05,-2.9999999999999997e-05,-2e-05,1.0
3267,3398,-2.9999999999999997e-05,-2e-05,-1e-05,-2e-05,-2e-05,-4e-05,-2.9999999999999997e-05,-2e-05,1.0
3268,3399,-2.9999999999999997e-05,-2e-05,-1e-05,-2e-05,-2e-05,-4e-05,-2.9999999999999997e-05,-2e-05,1.0
3269,3400,-2.9999999999999997e-05,-2e-05,-1e-05,-2e-05,-2e-05,-4e-05,-2.9999999999999997e-05,-2e-05,1.0
3270,3401,-2.9999999999999997e-05,-2e-05,-1e-05,-2e-05,-2e-05,-4e-05,-2.9999999999999997e-05,-2e-05,1.0
3271,3402,-2.9999999999999997e-05,-2e-05,-1e-05,-2e-05,-2e-05,-4e-05,-2.9999999999999997e-05,-2e-05,1.0
3272,3403,-2.9999999999999997e-05,-2e-05,-1e-05,-2e-05,-2e-05,-4e-05,-2.9999999999999997e-05,-2e-05,1.0
3273,3404,-2.9999999999999997e-05,-2e-05,-1e-05,-2e-05,-2e-05,-4e-05,-2.9999999999999997e-05,-2e-05,1.0
3274,3405,-2.9999999999999997e-05,-2e-05,-1e-05,-2e-05,-2e-05,-4e-05,-2.9999999999999997e-05,-2e-05,1.0
3275,3406,-2.9999999999999997e-05,-2e-05,-1e-05,-2e-05,-2e-05,-4e-05,-2.9999999999999997e-05,-2e-05,1.0
3276,3407,-2.9999999999999997e-05,-2e-05,-1e-05,-2e-05,-2e-05,-4e-05,-2.9999999999999997e-05,-2e-05,1.0
3277,3408,-2.9999999999999997e-05,-2e-05,-1e-05,-2e-05,-2e-05,-4e-05,-2.9999999999999997e-05,-2e-05,1.0
3278,3409,-2.9999999999999997e-05,-2e-05,-1e-05,-2e-05,-2e-05,-4e-05,-2.9999999999999997e-05,-2e-05,1.0
3279,3410,-2.9999999999999997e-05,-2e-05,-1e-05,-2e-05,-2e-05,-4e-05,-2.9999999999999997e-05,-2e-05,1.0
3280,3411,-2.9999999999999997e-05,-2e-05,-1e-05,-2e-05,-2e-05,-4e-05,-2.9999999999999997e-05,-2e-05,1.0
3281,3412,-2.9999999999999997e-05,-2e-05,-1e-05,-2e-05,-2e-05,-4e-05,-2.9999999999999997e-05,-2e-05,1.0
3282,3413,-2.9999999999999997e-05,-2e-05,-1e-05,-2e-05,-2e-05,-4e-05,-2.9999999999999997e-05,-2e-05,1.0
3283,3414,-2.9999999999999997e-05,-2e-05,-1e-05,-2e-05,-2e-05,-4e-05,-2.9999999999999997e-05,-2e-05,1.0
3284,3415,-2.9999999999999997e-05,-2e-05,-1e-05,-2e-05,-2e-05,-4e-05,-2.9999999999999997e-05,-2e-05,1.0
3285,3416,-2.9999999999999997e-05,-2e-05,-1e-05,-2e-05,-2e-05,-4e-05,-2.9999999999999997e-05,-2e-05,1.0
3286,3417,-2.9999999999999997e-05,-2e-05,-1e-05,-2e-05,-2e-05,-4e-05,-2.9999999999999997e-05,-2e-05,1.0
3287,3418,-2.9999999999999997e-05,-2e-05,-1e-05,-2e-05,-2e-05,-4e-05,-2.9999999999999997e-05,-2e-05,1.0
3288,3419,-2.9999999999999997e-05,-2e-05,-1e-05,-2e-05,-2e-05,-4e-05,-2.9999999999999997e-05,-2e-05,1.0
3289,3420,-2.9999999999999997e-05,-2e-05,-1e-05,-2e-05,-2e-05,-4e-05,-2.9999999999999997e-05,-2e-05,1.0
3290,3421,0.0,2e-05,0.0,-2.9999999999999997e-05,0.0,-2e-05,0.0,-1e-05,1.0
3291,3422,-1e-05,-1e-05,-0.00013000000000000002,-1e-05,-2e-05,-1e-05,1e-05,0.0,1.0
3292,3423,-1e-05,-1e-05,-0.00013000000000000002,-1e-05,-2e-05,-1e-05,1e-05,0.0,1.0
3293,3424,-1e-05,-1e-05,-0.00013000000000000002,-1e-05,-2e-05,-1e-05,1e-05,0.0,1.0
3294,3425,0.0,0.0,1e-05,-4e-05,-2.9999999999999997e-05,-1e-05,-2e-05,-2e-05,1.0
3295,3426,0.0,0.0,1e-05,-4e-05,-2.9999999999999997e-05,-1e-05,-2e-05,-2e-05,1.0
3296,3427,0.0,0.0,1e-05,-4e-05,-2.9999999999999997e-05,-1e-05,-2e-05,-2e-05,1.0
3297,3428,0.0,0.0,1e-05,-4e-05,-2.9999999999999997e-05,-1e-05,-2e-05,-2e-05,1.0
3298,3429,0.0,0.0,1e-05,-4e-05,-2.9999999999999997e-05,-1e-05,-2e-05,-2e-05,1.0
3299,3430,0.0,0.0,1e-05,-4e-05,-2.9999999999999997e-05,-1e-05,-2e-05,-2e-05,1.0
3300,3431,0.0,0.0,1e-05,-4e-05,-2.9999999999999997e-05,-1e-05,-2e-05,-2e-05,1.0
3301,3432,0.0,0.0,1e-05,-4e-05,-2.9999999999999997e-05,-1e-05,-2e-05,-2e-05,1.0
3302,3433,0.0,0.0,1e-05,-4e-05,-2.9999999999999997e-05,-1e-05,-2e-05,-2e-05,1.0
3303,3434,0.0,0.0,1e-05,-4e-05,-2.9999999999999997e-05,-1e-05,-2e-05,-2e-05,1.0
3304,3435,0.0,0.0,1e-05,-4e-05,-2.9999999999999997e-05,-1e-05,-2e-05,-2e-05,1.0
3305,3436,0.0,0.0,1e-05,-4e-05,-2.9999999999999997e-05,-1e-05,-2e-05,-2e-05,1.0
3306,3438,0.0,0.0,1e-05,-4e-05,-2.9999999999999997e-05,-1e-05,-2e-05,-2e-05,1.0
3307,3439,0.0,0.0,1e-05,-4e-05,-2.9999999999999997e-05,-1e-05,-2e-05,-2e-05,1.0
3308,3440,0.0,0.0,1e-05,-4e-05,-2.9999999999999997e-05,-1e-05,-2e-05,-2e-05,1.0
3309,3441,0.0,0.0,1e-05,-4e-05,-2.9999999999999997e-05,-1e-05,-2e-05,-2e-05,1.0
3310,3442,0.0,0.0,1e-05,-4e-05,-2.9999999999999997e-05,-1e-05,-2e-05,-2e-05,1.0
3311,3443,0.0,0.0,1e-05,-4e-05,-2.9999999999999997e-05,-1e-05,-2e-05,-2e-05,1.0
3312,3444,0.0,0.0,1e-05,-4e-05,-2.9999999999999997e-05,-1e-05,-2e-05,-2e-05,1.0
3313,3445,0.0,0.0,1e-05,-4e-05,-2.9999999999999997e-05,-1e-05,-2e-05,-2e-05,1.0
3314,3446,0.0,0.0,1e-05,-4e-05,-2.9999999999999997e-05,-1e-05,-2e-05,-2e-05,1.0
3315,3447,0.0,0.0,1e-05,-4e-05,-2.9999999999999997e-05,-1e-05,-2e-05,-2e-05,1.0
3316,3448,0.0,0.0,1e-05,-4e-05,-2.9999999999999997e-05,-1e-05,-2e-05,-2e-05,1.0
3317,3449,-1e-05,-1e-05,2e-05,2e-05,-1e-05,0.0,-2e-05,0.0,1.0
3318,3450,-1e-05,-1e-05,2e-05,2e-05,-1e-05,0.0,-2e-05,0.0,1.0
3319,3451,-1e-05,-2.9999999999999997e-05,2e-05,2e-05,0.0,-1e-05,0.0,1e-05,1.0
3320,3452,-1e-05,-2.9999999999999997e-05,2e-05,2e-05,0.0,-1e-05,0.0,1e-05,1.0
3321,3453,-1e-05,-2.9999999999999997e-05,2e-05,2e-05,0.0,-1e-05,0.0,1e-05,1.0
3322,3454,-1e-05,-2.9999999999999997e-05,2e-05,2e-05,0.0,-1e-05,0.0,1e-05,1.0
3323,3455,0.0,-2.9999999999999997e-05,0.0,-2.9999999999999997e-05,-4e-05,-1e-05,0.0,-1e-05,1.0
3324,3456,0.0,-2.9999999999999997e-05,0.0,-2.9999999999999997e-05,-4e-05,-1e-05,0.0,-1e-05,1.0
3325,3457,0.0,-2.9999999999999997e-05,0.0,-2.9999999999999997e-05,-4e-05,-1e-05,0.0,-1e-05,1.0
3326,3458,0.0,-2.9999999999999997e-05,0.0,-2.9999999999999997e-05,-4e-05,-1e-05,0.0,-1e-05,1.0
3327,3459,0.0,-2.9999999999999997e-05,0.0,-2.9999999999999997e-05,-4e-05,-1e-05,0.0,-1e-05,1.0
3328,3460,0.0,-2.9999999999999997e-05,0.0,-2.9999999999999997e-05,-4e-05,-1e-05,0.0,-1e-05,1.0
3329,3461,0.0,-2.9999999999999997e-05,0.0,-2.9999999999999997e-05,-4e-05,-1e-05,0.0,-1e-05,1.0
3330,3462,0.0,-2.9999999999999997e-05,0.0,-2.9999999999999997e-05,-4e-05,-1e-05,0.0,-1e-05,1.0
3331,3463,0.0,-2.9999999999999997e-05,0.0,-2.9999999999999997e-05,-4e-05,-1e-05,0.0,-1e-05,1.0
3332,3464,-2e-05,-1e-05,-0.00011,-2e-05,0.0,-1e-05,-1e-05,-1e-05,1.0
3333,3465,-2e-05,-1e-05,-0.00011,-2e-05,0.0,-1e-05,-1e-05,-1e-05,1.0
3334,3466,-2e-05,-1e-05,-0.00011,-2e-05,0.0,-1e-05,-1e-05,-1e-05,1.0
3335,3467,-2e-05,-1e-05,-0.00011,-2e-05,0.0,-1e-05,-1e-05,-1e-05,1.0
3336,3468,-2e-05,-1e-05,-0.00011,-2e-05,0.0,-1e-05,-1e-05,-1e-05,1.0
3337,3469,-2e-05,-1e-05,-0.00011,-2e-05,0.0,-1e-05,-1e-05,-1e-05,1.0
3338,3470,-2e-05,-1e-05,-0.00011,-2e-05,0.0,-1e-05,-1e-05,-1e-05,1.0
3339,3471,-2e-05,-1e-05,-0.00011,-2e-05,0.0,-1e-05,-1e-05,-1e-05,1.0
3340,3472,-2e-05,-1e-05,-0.00011,-2e-05,0.0,-1e-05,-1e-05,-1e-05,1.0
3341,3473,-2e-05,-1e-05,-0.00011,-2e-05,0.0,-1e-05,-1e-05,-1e-05,1.0
3342,3474,-2e-05,-1e-05,-0.00011,-2e-05,0.0,-1e-05,-1e-05,-1e-05,1.0
3343,3475,-2e-05,-1e-05,-0.00011,-2e-05,0.0,-1e-05,-1e-05,-1e-05,1.0
3344,3476,-2e-05,-1e-05,-0.00011,-2e-05,0.0,-1e-05,-1e-05,-1e-05,1.0
3345,3477,-2e-05,-1e-05,-0.00011,-2e-05,0.0,-1e-05,-1e-05,-1e-05,1.0
3346,3478,-2e-05,-1e-05,-0.00011,-2e-05,0.0,-1e-05,-1e-05,-1e-05,1.0
3347,3479,2e-05,1e-05,1e-05,2e-05,0.0,-2e-05,-2.9999999999999997e-05,0.0,1.0
3348,3480,2e-05,1e-05,1e-05,2e-05,0.0,-2e-05,-2.9999999999999997e-05,0.0,1.0
3349,3481,2e-05,1e-05,1e-05,2e-05,0.0,-2e-05,-2.9999999999999997e-05,0.0,1.0
3350,3482,2e-05,1e-05,1e-05,2e-05,0.0,-2e-05,-2.9999999999999997e-05,0.0,1.0
3351,3483,2e-05,1e-05,1e-05,2e-05,0.0,-2e-05,-2.9999999999999997e-05,0.0,1.0
3352,3484,2e-05,1e-05,1e-05,2e-05,0.0,-2e-05,-2.9999999999999997e-05,0.0,1.0
3353,3485,2e-05,1e-05,1e-05,2e-05,0.0,-2e-05,-2.9999999999999997e-05,0.0,1.0
3354,3486,2e-05,1e-05,1e-05,2e-05,0.0,-2e-05,-2.9999999999999997e-05,0.0,1.0
3355,3488,-1e-05,2e-05,0.00014,0.0,-2e-05,-2.9999999999999997e-05,0.0,-1e-05,1.0
3356,3489,-1e-05,2e-05,0.00014,0.0,-2e-05,-2.9999999999999997e-05,0.0,-1e-05,1.0
3357,3490,-1e-05,2e-05,0.00014,0.0,-2e-05,-2.9999999999999997e-05,0.0,-1e-05,1.0
3358,3491,-1e-05,2e-05,0.00014,0.0,-2e-05,-2.9999999999999997e-05,0.0,-1e-05,1.0
3359,3492,-1e-05,2e-05,0.00014,0.0,-2e-05,-2.9999999999999997e-05,0.0,-1e-05,1.0
3360,3493,-1e-05,2e-05,0.00014,0.0,-2e-05,-2.9999999999999997e-05,0.0,-1e-05,1.0
3361,3494,-1e-05,2e-05,0.00014,0.0,-2e-05,-2.9999999999999997e-05,0.0,-1e-05,1.0
3362,3495,-1e-05,2e-05,0.00014,0.0,-2e-05,-2.9999999999999997e-05,0.0,-1e-05,1.0
3363,3496,-1e-05,2e-05,0.00014,0.0,-2e-05,-2.9999999999999997e-05,0.0,-1e-05,1.0
3364,3497,-1e-05,2e-05,0.00014,0.0,-2e-05,-2.9999999999999997e-05,0.0,-1e-05,1.0
3365,3498,-1e-05,2e-05,0.00014,0.0,-2e-05,-2.9999999999999997e-05,0.0,-1e-05,1.0
3366,3499,-1e-05,2e-05,0.00014,0.0,-2e-05,-2.9999999999999997e-05,0.0,-1e-05,1.0
3367,3500,-1e-05,2e-05,0.00014,0.0,-2e-05,-2.9999999999999997e-05,0.0,-1e-05,1.0
3368,3501,0.0,-5e-05,-0.00022,-2.9999999999999997e-05,-1e-05,0.0,-1e-05,-2.9999999999999997e-05,1.0
3369,3502,-2e-05,0.0,2e-05,0.0,-2.9999999999999997e-05,0.0,-2.9999999999999997e-05,-1e-05,1.0
3370,3503,-1e-05,-4e-05,4e-05,0.0,-2e-05,0.0,-2e-05,0.0,1.0
3371,3504,-1e-05,-4e-05,4e-05,0.0,-2e-05,0.0,-2e-05,0.0,1.0
3372,3505,-1e-05,-4e-05,4e-05,0.0,-2e-05,0.0,-2e-05,0.0,1.0
3373,3506,-1e-05,-4e-05,4e-05,0.0,-2e-05,0.0,-2e-05,0.0,1.0
3374,3507,-1e-05,-4e-05,4e-05,0.0,-2e-05,0.0,-2e-05,0.0,1.0
3375,3508,-1e-05,-4e-05,4e-05,0.0,-2e-05,0.0,-2e-05,0.0,1.0
3376,3509,-1e-05,-4e-05,4e-05,0.0,-2e-05,0.0,-2e-05,0.0,1.0
3377,3510,-1e-05,-4e-05,4e-05,0.0,-2e-05,0.0,-2e-05,0.0,1.0
3378,3511,-1e-05,-4e-05,4e-05,0.0,-2e-05,0.0,-2e-05,0.0,1.0
3379,3512,-1e-05,-4e-05,4e-05,0.0,-2e-05,0.0,-2e-05,0.0,1.0
3380,3513,-1e-05,-4e-05,4e-05,0.0,-2e-05,0.0,-2e-05,0.0,1.0
3381,3514,-1e-05,-4e-05,4e-05,0.0,-2e-05,0.0,-2e-05,0.0,1.0
3382,3515,-1e-05,-4e-05,4e-05,0.0,-2e-05,0.0,-2e-05,0.0,1.0
3383,3516,-1e-05,-4e-05,4e-05,0.0,-2e-05,0.0,-2e-05,0.0,1.0
3384,3517,-1e-05,-4e-05,4e-05,0.0,-2e-05,0.0,-2e-05,0.0,1.0
3385,3518,-1e-05,-4e-05,4e-05,0.0,-2e-05,0.0,-2e-05,0.0,1.0
3386,3519,-1e-05,-4e-05,4e-05,0.0,-2e-05,0.0,-2e-05,0.0,1.0
3387,3520,-1e-05,-4e-05,4e-05,0.0,-2e-05,0.0,-2e-05,0.0,1.0
3388,3521,-1e-05,-4e-05,4e-05,0.0,-2e-05,0.0,-2e-05,0.0,1.0
3389,3522,-1e-05,-4e-05,4e-05,0.0,-2e-05,0.0,-2e-05,0.0,1.0
3390,3523,-1e-05,-4e-05,4e-05,0.0,-2e-05,0.0,-2e-05,0.0,1.0
3391,3524,-1e-05,-2e-05,2e-05,-1e-05,0.0,-1e-05,1e-05,0.0,1.0
3392,3525,-1e-05,-2e-05,2e-05,-1e-05,0.0,-1e-05,1e-05,0.0,1.0
3393,3526,-2e-05,-2e-05,-2e-05,-1e-05,-1e-05,-1e-05,-1e-05,-1e-05,1.0
3394,3527,-2e-05,-2e-05,-2e-05,-1e-05,-1e-05,-1e-05,-1e-05,-1e-05,1.0
3395,3528,-2e-05,-2e-05,-2e-05,-1e-05,-1e-05,-1e-05,-1e-05,-1e-05,1.0
3396,3529,-2e-05,-2e-05,-2e-05,-1e-05,-1e-05,-1e-05,-1e-05,-1e-05,1.0
3397,3530,-2e-05,-2e-05,-2e-05,-1e-05,-1e-05,-1e-05,-1e-05,-1e-05,1.0
3398,3531,-2e-05,-2e-05,-2e-05,-1e-05,-1e-05,-1e-05,-1e-05,-1e-05,1.0
3399,3532,-2e-05,-2e-05,-2e-05,-1e-05,-1e-05,-1e-05,-1e-05,-1e-05,1.0
3400,3533,-2e-05,-2e-05,-2e-05,-1e-05,-1e-05,-1e-05,-1e-05,-1e-05,1.0
3401,3534,-2e-05,-2e-05,-2e-05,-1e-05,-1e-05,-1e-05,-1e-05,-1e-05,1.0
3402,3535,-2e-05,-2e-05,-2e-05,-1e-05,-1e-05,-1e-05,-1e-05,-1e-05,1.0
3403,3536,-2e-05,-2e-05,-2e-05,-1e-05,-1e-05,-1e-05,-1e-05,-1e-05,1.0
3404,3538,-2e-05,-2e-05,-2e-05,-1e-05,-1e-05,-1e-05,-1e-05,-1e-05,1.0
3405,3539,-4e-05,-2e-05,-0.00011,-2.9999999999999997e-05,-1e-05,-2e-05,0.0,-1e-05,1.0
3406,3540,-4e-05,-2e-05,-0.00011,-2.9999999999999997e-05,-1e-05,-2e-05,0.0,-1e-05,1.0
3407,3541,1e-05,0.0,-7e-05,0.0,-1e-05,-1e-05,-1e-05,0.0,1.0
3408,3542,1e-05,0.0,-7e-05,0.0,-1e-05,-1e-05,-1e-05,0.0,1.0
3409,3543,1e-05,0.0,-7e-05,0.0,-1e-05,-1e-05,-1e-05,0.0,1.0
3410,3544,1e-05,0.0,-7e-05,0.0,-1e-05,-1e-05,-1e-05,0.0,1.0
3411,3545,1e-05,0.0,-7e-05,0.0,-1e-05,-1e-05,-1e-05,0.0,1.0
3412,3546,1e-05,0.0,-7e-05,0.0,-1e-05,-1e-05,-1e-05,0.0,1.0
3413,3547,1e-05,0.0,-7e-05,0.0,-1e-05,-1e-05,-1e-05,0.0,1.0
3414,3548,1e-05,0.0,-7e-05,0.0,-1e-05,-1e-05,-1e-05,0.0,1.0
3415,3549,1e-05,0.0,-7e-05,0.0,-1e-05,-1e-05,-1e-05,0.0,1.0
3416,3550,1e-05,0.0,-7e-05,0.0,-1e-05,-1e-05,-1e-05,0.0,1.0
3417,3551,1e-05,0.0,-7e-05,0.0,-1e-05,-1e-05,-1e-05,0.0,1.0
3418,3552,1e-05,0.0,-7e-05,0.0,-1e-05,-1e-05,-1e-05,0.0,1.0
3419,3553,1e-05,0.0,-7e-05,0.0,-1e-05,-1e-05,-1e-05,0.0,1.0
3420,3554,1e-05,0.0,-7e-05,0.0,-1e-05,-1e-05,-1e-05,0.0,1.0
3421,3555,1e-05,0.0,-7e-05,0.0,-1e-05,-1e-05,-1e-05,0.0,1.0
3422,3556,1e-05,0.0,-7e-05,0.0,-1e-05,-1e-05,-1e-05,0.0,1.0
3423,3557,1e-05,0.0,-7e-05,0.0,-1e-05,-1e-05,-1e-05,0.0,1.0
3424,3558,1e-05,0.0,-7e-05,0.0,-1e-05,-1e-05,-1e-05,0.0,1.0
3425,3559,1e-05,0.0,-7e-05,0.0,-1e-05,-1e-05,-1e-05,0.0,1.0
3426,3560,1e-05,0.0,-7e-05,0.0,-1e-05,-1e-05,-1e-05,0.0,1.0
3427,3561,-1e-05,0.0,2.9999999999999997e-05,-2.9999999999999997e-05,-1e-05,1e-05,0.0,-1e-05,1.0
3428,3562,-1e-05,0.0,2.9999999999999997e-05,-2.9999999999999997e-05,-1e-05,1e-05,0.0,-1e-05,1.0
3429,3563,-1e-05,0.0,2.9999999999999997e-05,-2.9999999999999997e-05,-1e-05,1e-05,0.0,-1e-05,1.0
3430,3564,-1e-05,0.0,2.9999999999999997e-05,-2.9999999999999997e-05,-1e-05,1e-05,0.0,-1e-05,1.0
3431,3565,-1e-05,0.0,2.9999999999999997e-05,-2.9999999999999997e-05,-1e-05,1e-05,0.0,-1e-05,1.0
3432,3566,-1e-05,0.0,2.9999999999999997e-05,-2.9999999999999997e-05,-1e-05,1e-05,0.0,-1e-05,1.0
3433,3567,-1e-05,0.0,2.9999999999999997e-05,-2.9999999999999997e-05,-1e-05,1e-05,0.0,-1e-05,1.0
3434,3568,-1e-05,0.0,2.9999999999999997e-05,-2.9999999999999997e-05,-1e-05,1e-05,0.0,-1e-05,1.0
3435,3569,-1e-05,0.0,2.9999999999999997e-05,-2.9999999999999997e-05,-1e-05,1e-05,0.0,-1e-05,1.0
3436,3570,-1e-05,0.0,2.9999999999999997e-05,-2.9999999999999997e-05,-1e-05,1e-05,0.0,-1e-05,1.0
3437,3571,-1e-05,0.0,2.9999999999999997e-05,-2.9999999999999997e-05,-1e-05,1e-05,0.0,-1e-05,1.0
3438,3572,-1e-05,0.0,2.9999999999999997e-05,-2.9999999999999997e-05,-1e-05,1e-05,0.0,-1e-05,1.0
3439,3573,-1e-05,0.0,2.9999999999999997e-05,-2.9999999999999997e-05,-1e-05,1e-05,0.0,-1e-05,1.0
3440,3574,-1e-05,0.0,2.9999999999999997e-05,-2.9999999999999997e-05,-1e-05,1e-05,0.0,-1e-05,1.0
3441,3575,-1e-05,-1e-05,2.9999999999999997e-05,0.0,-1e-05,0.0,0.0,-2.9999999999999997e-05,1.0
3442,3576,-1e-05,-5.9999999999999995e-05,-0.00011,-2e-05,-2e-05,-1e-05,0.0,-2e-05,1.0
3443,3577,-1e-05,-5.9999999999999995e-05,-0.00011,-2e-05,-2e-05,-1e-05,0.0,-2e-05,1.0
3444,3578,-1e-05,-5.9999999999999995e-05,-0.00011,-2e-05,-2e-05,-1e-05,0.0,-2e-05,1.0
3445,3579,-1e-05,-5.9999999999999995e-05,-0.00011,-2e-05,-2e-05,-1e-05,0.0,-2e-05,1.0
3446,3580,-1e-05,-5.9999999999999995e-05,-0.00011,-2e-05,-2e-05,-1e-05,0.0,-2e-05,1.0
3447,3581,-1e-05,-5.9999999999999995e-05,-0.00011,-2e-05,-2e-05,-1e-05,0.0,-2e-05,1.0
3448,3582,-1e-05,-5.9999999999999995e-05,-0.00011,-2e-05,-2e-05,-1e-05,0.0,-2e-05,1.0
3449,3583,-1e-05,-5.9999999999999995e-05,-0.00011,-2e-05,-2e-05,-1e-05,0.0,-2e-05,1.0
3450,3584,0.0,2e-05,2.9999999999999997e-05,-1e-05,-1e-05,0.0,0.0,-1e-05,1.0
3451,3585,0.0,2e-05,2.9999999999999997e-05,-1e-05,-1e-05,0.0,0.0,-1e-05,1.0
3452,3586,0.0,-1e-05,-0.00013000000000000002,-2.9999999999999997e-05,-1e-05,-2.9999999999999997e-05,0.0,-1e-05,1.0
3453,3588,0.0,-1e-05,-0.00013000000000000002,-2.9999999999999997e-05,-1e-05,-2.9999999999999997e-05,0.0,-1e-05,1.0
3454,3589,0.0,-1e-05,-0.00013000000000000002,-2.9999999999999997e-05,-1e-05,-2.9999999999999997e-05,0.0,-1e-05,1.0
3455,3590,0.0,-1e-05,-0.00013000000000000002,-2.9999999999999997e-05,-1e-05,-2.9999999999999997e-05,0.0,-1e-05,1.0
3456,3591,0.0,-1e-05,-0.00013000000000000002,-2.9999999999999997e-05,-1e-05,-2.9999999999999997e-05,0.0,-1e-05,1.0
3457,3592,0.0,-1e-05,-0.00013000000000000002,-2.9999999999999997e-05,-1e-05,-2.9999999999999997e-05,0.0,-1e-05,1.0
3458,3593,0.0,-1e-05,-0.00013000000000000002,-2.9999999999999997e-05,-1e-05,-2.9999999999999997e-05,0.0,-1e-05,1.0
3459,3594,0.0,-1e-05,-0.00013000000000000002,-2.9999999999999997e-05,-1e-05,-2.9999999999999997e-05,0.0,-1e-05,1.0
3460,3595,0.0,-1e-05,-0.00013000000000000002,-2.9999999999999997e-05,-1e-05,-2.9999999999999997e-05,0.0,-1e-05,1.0
3461,3596,0.0,-1e-05,-0.00013000000000000002,-2.9999999999999997e-05,-1e-05,-2.9999999999999997e-05,0.0,-1e-05,1.0
3462,3597,0.0,-1e-05,-0.00013000000000000002,-2.9999999999999997e-05,-1e-05,-2.9999999999999997e-05,0.0,-1e-05,1.0
3463,3598,0.0,-1e-05,-0.00013000000000000002,-2.9999999999999997e-05,-1e-05,-2.9999999999999997e-05,0.0,-1e-05,1.0
3464,3599,0.0,-1e-05,-0.00013000000000000002,-2.9999999999999997e-05,-1e-05,-2.9999999999999997e-05,0.0,-1e-05,1.0
3465,3600,0.0,-1e-05,-0.00013000000000000002,-2.9999999999999997e-05,-1e-05,-2.9999999999999997e-05,0.0,-1e-05,1.0
3466,3601,0.0,-1e-05,-0.00013000000000000002,-2.9999999999999997e-05,-1e-05,-2.9999999999999997e-05,0.0,-1e-05,1.0
3467,3602,0.0,-1e-05,-0.00013000000000000002,-2.9999999999999997e-05,-1e-05,-2.9999999999999997e-05,0.0,-1e-05,1.0
3468,3603,0.0,-1e-05,-0.00013000000000000002,-2.9999999999999997e-05,-1e-05,-2.9999999999999997e-05,0.0,-1e-05,1.0
3469,3604,0.0,-1e-05,-0.00013000000000000002,-2.9999999999999997e-05,-1e-05,-2.9999999999999997e-05,0.0,-1e-05,1.0
3470,3605,0.0,-1e-05,-0.00013000000000000002,-2.9999999999999997e-05,-1e-05,-2.9999999999999997e-05,0.0,-1e-05,1.0
3471,3606,0.0,-1e-05,-0.00013000000000000002,-2.9999999999999997e-05,-1e-05,-2.9999999999999997e-05,0.0,-1e-05,1.0
3472,3607,-2e-05,-1e-05,-2e-05,-2e-05,0.0,-2e-05,-2e-05,-2.9999999999999997e-05,1.0
3473,3608,-1e-05,1e-05,0.0,2e-05,1e-05,-1e-05,-2e-05,-2e-05,1.0
3474,3609,-1e-05,2e-05,5.9999999999999995e-05,-2e-05,-1e-05,-2e-05,-1e-05,-1e-05,1.0
3475,3610,-1e-05,2e-05,5.9999999999999995e-05,-2e-05,-1e-05,-2e-05,-1e-05,-1e-05,1.0
3476,3611,-1e-05,2e-05,5.9999999999999995e-05,-2e-05,-1e-05,-2e-05,-1e-05,-1e-05,1.0
3477,3612,-1e-05,2e-05,5.9999999999999995e-05,-2e-05,-1e-05,-2e-05,-1e-05,-1e-05,1.0
3478,3613,-1e-05,2e-05,5.9999999999999995e-05,-2e-05,-1e-05,-2e-05,-1e-05,-1e-05,1.0
3479,3614,-1e-05,2e-05,5.9999999999999995e-05,-2e-05,-1e-05,-2e-05,-1e-05,-1e-05,1.0
3480,3615,-1e-05,2e-05,5.9999999999999995e-05,-2e-05,-1e-05,-2e-05,-1e-05,-1e-05,1.0
3481,3616,-1e-05,2e-05,5.9999999999999995e-05,-2e-05,-1e-05,-2e-05,-1e-05,-1e-05,1.0
3482,3617,-1e-05,2e-05,5.9999999999999995e-05,-2e-05,-1e-05,-2e-05,-1e-05,-1e-05,1.0
3483,3618,-1e-05,2e-05,5.9999999999999995e-05,-2e-05,-1e-05,-2e-05,-1e-05,-1e-05,1.0
3484,3619,-1e-05,2e-05,5.9999999999999995e-05,-2e-05,-1e-05,-2e-05,-1e-05,-1e-05,1.0
3485,3620,-1e-05,2e-05,5.9999999999999995e-05,-2e-05,-1e-05,-2e-05,-1e-05,-1e-05,1.0
3486,3621,-2e-05,-2e-05,-2e-05,-2.9999999999999997e-05,-2e-05,-1e-05,-2e-05,-2e-05,1.0
3487,3622,0.0,-2.9999999999999997e-05,-5.9999999999999995e-05,-1e-05,1e-05,0.0,-1e-05,0.0,1.0
3488,3623,1e-05,-2e-05,-0.00016999999999999999,-1e-05,1e-05,2e-05,0.0,-1e-05,1.0
3489,3624,1e-05,-2e-05,-0.00016999999999999999,-1e-05,1e-05,2e-05,0.0,-1e-05,1.0
3490,3625,1e-05,-2e-05,-0.00016999999999999999,-1e-05,1e-05,2e-05,0.0,-1e-05,1.0
3491,3626,1e-05,-2e-05,-0.00016999999999999999,-1e-05,1e-05,2e-05,0.0,-1e-05,1.0
3492,3627,1e-05,-2e-05,-0.00016999999999999999,-1e-05,1e-05,2e-05,0.0,-1e-05,1.0
3493,3628,1e-05,-2e-05,-0.00016999999999999999,-1e-05,1e-05,2e-05,0.0,-1e-05,1.0
3494,3629,1e-05,-2e-05,-0.00016999999999999999,-1e-05,1e-05,2e-05,0.0,-1e-05,1.0
3495,3630,1e-05,-2e-05,-0.00016999999999999999,-1e-05,1e-05,2e-05,0.0,-1e-05,1.0
3496,3631,1e-05,-2e-05,-0.00016999999999999999,-1e-05,1e-05,2e-05,0.0,-1e-05,1.0
3497,3632,1e-05,-2e-05,-0.00016999999999999999,-1e-05,1e-05,2e-05,0.0,-1e-05,1.0
3498,3633,1e-05,-2e-05,-0.00016999999999999999,-1e-05,1e-05,2e-05,0.0,-1e-05,1.0
3499,3634,1e-05,-2e-05,-0.00016999999999999999,-1e-05,1e-05,2e-05,0.0,-1e-05,1.0
3500,3635,1e-05,-2e-05,-0.00016999999999999999,-1e-05,1e-05,2e-05,0.0,-1e-05,1.0
3501,3636,1e-05,-2e-05,-0.00016999999999999999,-1e-05,1e-05,2e-05,0.0,-1e-05,1.0
3502,3638,1e-05,-2e-05,-0.00016999999999999999,-1e-05,1e-05,2e-05,0.0,-1e-05,1.0
3503,3639,1e-05,-2e-05,-0.00016999999999999999,-1e-05,1e-05,2e-05,0.0,-1e-05,1.0
3504,3640,1e-05,-2e-05,-0.00016999999999999999,-1e-05,1e-05,2e-05,0.0,-1e-05,1.0
3505,3641,1e-05,-2e-05,-0.00016999999999999999,-1e-05,1e-05,2e-05,0.0,-1e-05,1.0
3506,3642,1e-05,-2e-05,-0.00016999999999999999,-1e-05,1e-05,2e-05,0.0,-1e-05,1.0
3507,3643,1e-05,-2e-05,-0.00016999999999999999,-1e-05,1e-05,2e-05,0.0,-1e-05,1.0
3508,3644,0.0,2.9999999999999997e-05,5e-05,1e-05,-1e-05,1e-05,-1e-05,1e-05,1.0
3509,3645,0.0,2.9999999999999997e-05,5e-05,1e-05,-1e-05,1e-05,-1e-05,1e-05,1.0
3510,3646,-2e-05,-2.9999999999999997e-05,4e-05,0.0,-2.9999999999999997e-05,-1e-05,-2e-05,-1e-05,1.0
3511,3647,-2e-05,-2.9999999999999997e-05,4e-05,0.0,-2.9999999999999997e-05,-1e-05,-2e-05,-1e-05,1.0
3512,3648,-2e-05,-2.9999999999999997e-05,4e-05,0.0,-2.9999999999999997e-05,-1e-05,-2e-05,-1e-05,1.0
3513,3649,-2e-05,-2.9999999999999997e-05,4e-05,0.0,-2.9999999999999997e-05,-1e-05,-2e-05,-1e-05,1.0
3514,3650,-2e-05,-2.9999999999999997e-05,4e-05,0.0,-2.9999999999999997e-05,-1e-05,-2e-05,-1e-05,1.0
3515,3651,-2e-05,-2.9999999999999997e-05,4e-05,0.0,-2.9999999999999997e-05,-1e-05,-2e-05,-1e-05,1.0
3516,3652,-2e-05,-2.9999999999999997e-05,4e-05,0.0,-2.9999999999999997e-05,-1e-05,-2e-05,-1e-05,1.0
3517,3653,-2e-05,-2.9999999999999997e-05,4e-05,0.0,-2.9999999999999997e-05,-1e-05,-2e-05,-1e-05,1.0
3518,3654,-2e-05,-2.9999999999999997e-05,4e-05,0.0,-2.9999999999999997e-05,-1e-05,-2e-05,-1e-05,1.0
3519,3655,-2e-05,-2.9999999999999997e-05,4e-05,0.0,-2.9999999999999997e-05,-1e-05,-2e-05,-1e-05,1.0
3520,3656,-2e-05,-2.9999999999999997e-05,4e-05,0.0,-2.9999999999999997e-05,-1e-05,-2e-05,-1e-05,1.0
3521,3657,-2e-05,-2.9999999999999997e-05,4e-05,0.0,-2.9999999999999997e-05,-1e-05,-2e-05,-1e-05,1.0
3522,3658,-2e-05,-2.9999999999999997e-05,4e-05,0.0,-2.9999999999999997e-05,-1e-05,-2e-05,-1e-05,1.0
3523,3659,0.0,-1e-05,-1e-05,-1e-05,-2.9999999999999997e-05,-1e-05,-1e-05,0.0,1.0
3524,3660,1e-05,0.0,0.0,1e-05,-1e-05,-2e-05,-1e-05,1e-05,1.0
3525,3661,0.0,0.0,0.0,-1e-05,-1e-05,-2e-05,-1e-05,1e-05,1.0
3526,3662,0.0,0.0,0.0,-1e-05,-1e-05,-2e-05,-1e-05,1e-05,1.0
3527,3663,0.0,0.0,0.0,-1e-05,-1e-05,-2e-05,-1e-05,1e-05,1.0
3528,3664,0.0,0.0,0.0,-1e-05,-1e-05,-2e-05,-1e-05,1e-05,1.0
3529,3665,0.0,0.0,0.0,-1e-05,-1e-05,-2e-05,-1e-05,1e-05,1.0
3530,3666,0.0,0.0,0.0,-1e-05,-1e-05,-2e-05,-1e-05,1e-05,1.0
3531,3667,0.0,0.0,0.0,-1e-05,-1e-05,-2e-05,-1e-05,1e-05,1.0
3532,3668,0.0,0.0,0.0,-1e-05,-1e-05,-2e-05,-1e-05,1e-05,1.0
3533,3669,0.0,0.0,0.0,-1e-05,-1e-05,-2e-05,-1e-05,1e-05,1.0
3534,3670,0.0,0.0,0.0,-1e-05,-1e-05,-2e-05,-1e-05,1e-05,1.0
3535,3671,0.0,0.0,0.0,-1e-05,-1e-05,-2e-05,-1e-05,1e-05,1.0
3536,3672,0.0,0.0,0.0,-1e-05,-1e-05,-2e-05,-1e-05,1e-05,1.0
3537,3673,0.0,0.0,0.0,-1e-05,-1e-05,-2e-05,-1e-05,1e-05,1.0
