,time,channel1,channel2,channel3,channel4,channel5,channel6,channel7,channel8,class
761,808,2.9999999999999997e-05,2.9999999999999997e-05,2.9999999999999997e-05,2e-05,2e-05,1e-05,0.0,1e-05,1
762,809,2.9999999999999997e-05,2.9999999999999997e-05,2.9999999999999997e-05,2e-05,2e-05,1e-05,0.0,1e-05,1
763,810,2.9999999999999997e-05,2.9999999999999997e-05,2.9999999999999997e-05,2e-05,2e-05,1e-05,0.0,1e-05,1
764,811,2.9999999999999997e-05,2.9999999999999997e-05,2.9999999999999997e-05,2e-05,2e-05,1e-05,0.0,1e-05,1
765,812,2.9999999999999997e-05,2.9999999999999997e-05,2.9999999999999997e-05,2e-05,2e-05,1e-05,0.0,1e-05,1
766,813,2.9999999999999997e-05,2.9999999999999997e-05,2.9999999999999997e-05,2e-05,2e-05,1e-05,0.0,1e-05,1
767,814,2.9999999999999997e-05,2.9999999999999997e-05,2.9999999999999997e-05,2e-05,2e-05,1e-05,0.0,1e-05,1
768,815,2.9999999999999997e-05,2.9999999999999997e-05,2.9999999999999997e-05,2e-05,2e-05,1e-05,0.0,1e-05,1
769,816,2.9999999999999997e-05,2.9999999999999997e-05,2.9999999999999997e-05,2e-05,2e-05,1e-05,0.0,1e-05,1
770,817,2.9999999999999997e-05,2.9999999999999997e-05,2.9999999999999997e-05,2e-05,2e-05,1e-05,0.0,1e-05,1
771,818,2.9999999999999997e-05,2.9999999999999997e-05,2.9999999999999997e-05,2e-05,2e-05,1e-05,0.0,1e-05,1
772,819,0.0,0.0,1e-05,-2.9999999999999997e-05,-2e-05,-1e-05,0.0,2e-05,1
773,820,1e-05,2e-05,2e-05,0.0,-2e-05,0.0,2e-05,1e-05,1
774,821,1e-05,2e-05,2e-05,0.0,-2e-05,0.0,2e-05,1e-05,1
775,822,1e-05,2e-05,2e-05,0.0,-2e-05,0.0,2e-05,1e-05,1
776,823,1e-05,2e-05,2e-05,0.0,-2e-05,0.0,2e-05,1e-05,1
777,824,1e-05,2e-05,2e-05,0.0,-2e-05,0.0,2e-05,1e-05,1
778,825,1e-05,2e-05,2e-05,0.0,-2e-05,0.0,2e-05,1e-05,1
779,826,1e-05,2e-05,2e-05,0.0,-2e-05,0.0,2e-05,1e-05,1
780,827,1e-05,2e-05,2e-05,0.0,-2e-05,0.0,2e-05,1e-05,1
781,828,1e-05,2e-05,2e-05,0.0,-2e-05,0.0,2e-05,1e-05,1
782,829,1e-05,2e-05,2e-05,0.0,-2e-05,0.0,2e-05,1e-05,1
783,830,1e-05,2e-05,2e-05,0.0,-2e-05,0.0,2e-05,1e-05,1
784,831,1e-05,2e-05,2e-05,0.0,-2e-05,0.0,2e-05,1e-05,1
785,832,1e-05,2e-05,2e-05,0.0,-2e-05,0.0,2e-05,1e-05,1
786,833,1e-05,2e-05,2e-05,0.0,-2e-05,0.0,2e-05,1e-05,1
787,834,1e-05,2e-05,2e-05,0.0,-2e-05,0.0,2e-05,1e-05,1
788,835,1e-05,2e-05,2e-05,0.0,-2e-05,0.0,2e-05,1e-05,1
789,836,1e-05,2e-05,2e-05,0.0,-2e-05,0.0,2e-05,1e-05,1
790,839,1e-05,2e-05,2e-05,0.0,-2e-05,0.0,2e-05,1e-05,1
791,840,1e-05,2e-05,2e-05,0.0,-2e-05,0.0,2e-05,1e-05,1
792,841,1e-05,2e-05,2e-05,0.0,-2e-05,0.0,2e-05,1e-05,1
793,842,-1e-05,-4e-05,-4e-05,-2e-05,-2.9999999999999997e-05,-1e-05,-2e-05,-2.9999999999999997e-05,1
794,843,-2e-05,-2.9999999999999997e-05,-1e-05,-2.9999999999999997e-05,-5e-05,-9e-05,1e-05,0.0,1
795,844,-2e-05,-2.9999999999999997e-05,-1e-05,-2.9999999999999997e-05,-5e-05,-9e-05,1e-05,0.0,1
796,845,-2e-05,-2.9999999999999997e-05,-1e-05,-2.9999999999999997e-05,-5e-05,-9e-05,1e-05,0.0,1
797,846,-2e-05,-2.9999999999999997e-05,-1e-05,-2.9999999999999997e-05,-5e-05,-9e-05,1e-05,0.0,1
798,847,-2e-05,-2.9999999999999997e-05,-1e-05,-2.9999999999999997e-05,-5e-05,-9e-05,1e-05,0.0,1
799,848,-2e-05,-2.9999999999999997e-05,-1e-05,-2.9999999999999997e-05,-5e-05,-9e-05,1e-05,0.0,1
800,849,-2e-05,-2.9999999999999997e-05,-1e-05,-2.9999999999999997e-05,-5e-05,-9e-05,1e-05,0.0,1
801,850,-2e-05,-2.9999999999999997e-05,-1e-05,-2.9999999999999997e-05,-5e-05,-9e-05,1e-05,0.0,1
802,851,-2e-05,-2.9999999999999997e-05,-1e-05,-2.9999999999999997e-05,-5e-05,-9e-05,1e-05,0.0,1
803,852,-2e-05,-2.9999999999999997e-05,-1e-05,-2.9999999999999997e-05,-5e-05,-9e-05,1e-05,0.0,1
804,853,-2e-05,-2.9999999999999997e-05,-1e-05,-2.9999999999999997e-05,-5e-05,-9e-05,1e-05,0.0,1
805,854,-2e-05,-2.9999999999999997e-05,-1e-05,-2.9999999999999997e-05,-5e-05,-9e-05,1e-05,0.0,1
806,855,-2e-05,-2.9999999999999997e-05,-1e-05,-2.9999999999999997e-05,-5e-05,-9e-05,1e-05,0.0,1
807,856,0.0,0.0,1e-05,-2e-05,1e-05,-1e-05,-2.9999999999999997e-05,-2.9999999999999997e-05,1
808,857,0.0,0.0,1e-05,-2e-05,1e-05,-1e-05,-2.9999999999999997e-05,-2.9999999999999997e-05,1
809,858,0.0,0.0,1e-05,-2e-05,1e-05,-1e-05,-2.9999999999999997e-05,-2.9999999999999997e-05,1
810,859,0.0,0.0,1e-05,-2e-05,1e-05,-1e-05,-2.9999999999999997e-05,-2.9999999999999997e-05,1
811,860,0.0,0.0,1e-05,-2e-05,1e-05,-1e-05,-2.9999999999999997e-05,-2.9999999999999997e-05,1
812,861,0.0,0.0,1e-05,-2e-05,1e-05,-1e-05,-2.9999999999999997e-05,-2.9999999999999997e-05,1
813,862,0.0,0.0,1e-05,-2e-05,1e-05,-1e-05,-2.9999999999999997e-05,-2.9999999999999997e-05,1
814,863,0.0,0.0,1e-05,-2e-05,1e-05,-1e-05,-2.9999999999999997e-05,-2.9999999999999997e-05,1
815,864,-2e-05,-1e-05,-2.9999999999999997e-05,-1e-05,1e-05,0.0,-2e-05,2e-05,1
816,865,-2e-05,-1e-05,-2.9999999999999997e-05,-1e-05,1e-05,0.0,-2e-05,2e-05,1
817,866,-2e-05,-1e-05,-2.9999999999999997e-05,-1e-05,1e-05,0.0,-2e-05,2e-05,1
818,867,-2e-05,-1e-05,-2.9999999999999997e-05,-1e-05,1e-05,0.0,-2e-05,2e-05,1
819,868,-2e-05,-1e-05,-2.9999999999999997e-05,-1e-05,1e-05,0.0,-2e-05,2e-05,1
820,869,-2e-05,-1e-05,-2.9999999999999997e-05,-1e-05,1e-05,0.0,-2e-05,2e-05,1
821,870,-2e-05,-1e-05,-2.9999999999999997e-05,-1e-05,1e-05,0.0,-2e-05,2e-05,1
822,871,-2e-05,-1e-05,-2.9999999999999997e-05,-1e-05,1e-05,0.0,-2e-05,2e-05,1
823,872,-2e-05,-1e-05,-2.9999999999999997e-05,-1e-05,1e-05,0.0,-2e-05,2e-05,1
824,873,-2e-05,-1e-05,-2.9999999999999997e-05,-1e-05,1e-05,0.0,-2e-05,2e-05,1
825,874,-2e-05,-1e-05,-2.9999999999999997e-05,-1e-05,1e-05,0.0,-2e-05,2e-05,1
826,875,-2e-05,-1e-05,-2.9999999999999997e-05,-1e-05,1e-05,0.0,-2e-05,2e-05,1
827,876,-2e-05,-1e-05,-2.9999999999999997e-05,-1e-05,1e-05,0.0,-2e-05,2e-05,1
828,877,-2e-05,-1e-05,-2.9999999999999997e-05,-1e-05,1e-05,0.0,-2e-05,2e-05,1
829,878,-2e-05,-1e-05,-2.9999999999999997e-05,-1e-05,1e-05,0.0,-2e-05,2e-05,1
830,879,-1e-05,2e-05,2e-05,2e-05,-2e-05,-2e-05,-1e-05,-1e-05,1
831,880,-1e-05,-4e-05,-5.9999999999999995e-05,-2e-05,0.0,0.0,2e-05,-2.9999999999999997e-05,1
832,881,-1e-05,-4e-05,-5.9999999999999995e-05,-2e-05,0.0,0.0,2e-05,-2.9999999999999997e-05,1
833,882,-1e-05,-4e-05,-5.9999999999999995e-05,-2e-05,0.0,0.0,2e-05,-2.9999999999999997e-05,1
834,883,-1e-05,-4e-05,-5.9999999999999995e-05,-2e-05,0.0,0.0,2e-05,-2.9999999999999997e-05,1
835,884,-1e-05,-4e-05,-5.9999999999999995e-05,-2e-05,0.0,0.0,2e-05,-2.9999999999999997e-05,1
836,885,-1e-05,-4e-05,-5.9999999999999995e-05,-2e-05,0.0,0.0,2e-05,-2.9999999999999997e-05,1
837,886,-1e-05,-4e-05,-5.9999999999999995e-05,-2e-05,0.0,0.0,2e-05,-2.9999999999999997e-05,1
838,888,-1e-05,-4e-05,-5.9999999999999995e-05,-2e-05,0.0,0.0,2e-05,-2.9999999999999997e-05,1
839,889,-1e-05,-4e-05,-5.9999999999999995e-05,-2e-05,0.0,0.0,2e-05,-2.9999999999999997e-05,1
840,890,-1e-05,-4e-05,-5.9999999999999995e-05,-2e-05,0.0,0.0,2e-05,-2.9999999999999997e-05,1
841,891,-1e-05,-4e-05,-5.9999999999999995e-05,-2e-05,0.0,0.0,2e-05,-2.9999999999999997e-05,1
842,892,-1e-05,-4e-05,-5.9999999999999995e-05,-2e-05,0.0,0.0,2e-05,-2.9999999999999997e-05,1
843,893,-1e-05,-4e-05,-5.9999999999999995e-05,-2e-05,0.0,0.0,2e-05,-2.9999999999999997e-05,1
844,894,-1e-05,-4e-05,-5.9999999999999995e-05,-2e-05,0.0,0.0,2e-05,-2.9999999999999997e-05,1
845,895,-1e-05,-4e-05,-5.9999999999999995e-05,-2e-05,0.0,0.0,2e-05,-2.9999999999999997e-05,1
846,896,-1e-05,-4e-05,-5.9999999999999995e-05,-2e-05,0.0,0.0,2e-05,-2.9999999999999997e-05,1
847,897,-1e-05,-4e-05,-5.9999999999999995e-05,-2e-05,0.0,0.0,2e-05,-2.9999999999999997e-05,1
848,898,-1e-05,-4e-05,-5.9999999999999995e-05,-2e-05,0.0,0.0,2e-05,-2.9999999999999997e-05,1
849,899,-1e-05,-4e-05,-5.9999999999999995e-05,-2e-05,0.0,0.0,2e-05,-2.9999999999999997e-05,1
850,900,-1e-05,-4e-05,-5.9999999999999995e-05,-2e-05,0.0,0.0,2e-05,-2.9999999999999997e-05,1
851,901,-1e-05,-4e-05,-5.9999999999999995e-05,-2e-05,0.0,0.0,2e-05,-2.9999999999999997e-05,1
852,902,-2e-05,-2e-05,0.0,1e-05,-1e-05,1e-05,0.0,-1e-05,1
853,903,-2e-05,1e-05,2e-05,1e-05,-1e-05,0.0,0.0,-4e-05,1
854,904,-2e-05,1e-05,2e-05,1e-05,-1e-05,0.0,0.0,-4e-05,1
855,905,-2e-05,1e-05,2e-05,1e-05,-1e-05,0.0,0.0,-4e-05,1
856,906,-2e-05,1e-05,2e-05,1e-05,-1e-05,0.0,0.0,-4e-05,1
857,907,-2e-05,1e-05,2e-05,1e-05,-1e-05,0.0,0.0,-4e-05,1
858,908,-2e-05,1e-05,2e-05,1e-05,-1e-05,0.0,0.0,-4e-05,1
859,909,-2e-05,1e-05,2e-05,1e-05,-1e-05,0.0,0.0,-4e-05,1
860,910,-2e-05,1e-05,2e-05,1e-05,-1e-05,0.0,0.0,-4e-05,1
861,911,-2e-05,1e-05,2e-05,1e-05,-1e-05,0.0,0.0,-4e-05,1
862,912,-2e-05,1e-05,2e-05,1e-05,-1e-05,0.0,0.0,-4e-05,1
863,913,-2e-05,1e-05,2e-05,1e-05,-1e-05,0.0,0.0,-4e-05,1
864,914,-2e-05,1e-05,2e-05,1e-05,-1e-05,0.0,0.0,-4e-05,1
865,915,-2e-05,1e-05,2e-05,1e-05,-1e-05,0.0,0.0,-4e-05,1
866,916,-2e-05,1e-05,2e-05,1e-05,-1e-05,0.0,0.0,-4e-05,1
867,917,-2e-05,1e-05,2e-05,1e-05,-1e-05,0.0,0.0,-4e-05,1
868,918,-2e-05,1e-05,2e-05,1e-05,-1e-05,0.0,0.0,-4e-05,1
869,919,-2e-05,1e-05,2e-05,1e-05,-1e-05,0.0,0.0,-4e-05,1
870,920,-2e-05,1e-05,2e-05,1e-05,-1e-05,0.0,0.0,-4e-05,1
871,921,-2e-05,1e-05,2e-05,1e-05,-1e-05,0.0,0.0,-4e-05,1
872,923,-2e-05,1e-05,2e-05,1e-05,-1e-05,0.0,0.0,-4e-05,1
873,924,-2e-05,1e-05,2e-05,1e-05,-1e-05,0.0,0.0,-4e-05,1
874,925,0.0,-2e-05,-4e-05,-2.9999999999999997e-05,-2e-05,-1e-05,-1e-05,-1e-05,1
875,926,0.0,-1e-05,-1e-05,0.0,-1e-05,-1e-05,1e-05,-2e-05,1
876,927,0.0,-1e-05,-1e-05,0.0,-1e-05,-1e-05,1e-05,-2e-05,1
877,928,0.0,-1e-05,-1e-05,0.0,-1e-05,-1e-05,1e-05,-2e-05,1
878,929,0.0,-1e-05,-1e-05,0.0,-1e-05,-1e-05,1e-05,-2e-05,1
879,930,0.0,-1e-05,-1e-05,0.0,-1e-05,-1e-05,1e-05,-2e-05,1
880,931,0.0,-1e-05,-1e-05,0.0,-1e-05,-1e-05,1e-05,-2e-05,1
881,932,0.0,-1e-05,-1e-05,0.0,-1e-05,-1e-05,1e-05,-2e-05,1
882,933,0.0,-1e-05,-1e-05,0.0,-1e-05,-1e-05,1e-05,-2e-05,1
883,934,0.0,-1e-05,-1e-05,0.0,-1e-05,-1e-05,1e-05,-2e-05,1
884,935,0.0,-1e-05,-1e-05,0.0,-1e-05,-1e-05,1e-05,-2e-05,1
885,936,0.0,-1e-05,-1e-05,0.0,-1e-05,-1e-05,1e-05,-2e-05,1
886,938,0.0,-1e-05,-1e-05,0.0,-1e-05,-1e-05,1e-05,-2e-05,1
887,939,-1e-05,-2e-05,-1e-05,-1e-05,-1e-05,2e-05,-2e-05,-1e-05,1
888,940,0.0,-2e-05,0.0,-1e-05,1e-05,0.0,-2.9999999999999997e-05,0.0,1
889,941,0.0,-2e-05,0.0,-1e-05,1e-05,0.0,-2.9999999999999997e-05,0.0,1
890,942,0.0,-2e-05,0.0,-1e-05,1e-05,0.0,-2.9999999999999997e-05,0.0,1
891,943,0.0,-2e-05,0.0,-1e-05,1e-05,0.0,-2.9999999999999997e-05,0.0,1
892,944,0.0,-2e-05,0.0,-1e-05,1e-05,0.0,-2.9999999999999997e-05,0.0,1
893,945,0.0,-2e-05,0.0,-1e-05,1e-05,0.0,-2.9999999999999997e-05,0.0,1
894,946,0.0,-2e-05,0.0,-1e-05,1e-05,0.0,-2.9999999999999997e-05,0.0,1
895,947,0.0,-2e-05,0.0,-1e-05,1e-05,0.0,-2.9999999999999997e-05,0.0,1
896,948,0.0,-2e-05,0.0,-1e-05,1e-05,0.0,-2.9999999999999997e-05,0.0,1
897,949,0.0,-2e-05,0.0,-1e-05,1e-05,0.0,-2.9999999999999997e-05,0.0,1
898,950,0.0,-2e-05,0.0,-1e-05,1e-05,0.0,-2.9999999999999997e-05,0.0,1
899,951,0.0,-2e-05,0.0,-1e-05,1e-05,0.0,-2.9999999999999997e-05,0.0,1
900,952,0.0,-2e-05,0.0,-1e-05,1e-05,0.0,-2.9999999999999997e-05,0.0,1
901,953,0.0,-2e-05,0.0,-1e-05,1e-05,0.0,-2.9999999999999997e-05,0.0,1
902,954,0.0,-2e-05,0.0,-1e-05,1e-05,0.0,-2.9999999999999997e-05,0.0,1
903,955,0.0,-2e-05,0.0,-1e-05,1e-05,0.0,-2.9999999999999997e-05,0.0,1
904,956,0.0,-2e-05,0.0,-1e-05,1e-05,0.0,-2.9999999999999997e-05,0.0,1
905,957,0.0,-2e-05,0.0,-1e-05,1e-05,0.0,-2.9999999999999997e-05,0.0,1
906,958,0.0,-2e-05,0.0,-1e-05,1e-05,0.0,-2.9999999999999997e-05,0.0,1
907,959,0.0,-2e-05,0.0,-1e-05,1e-05,0.0,-2.9999999999999997e-05,0.0,1
908,960,0.0,-2e-05,0.0,-1e-05,1e-05,0.0,-2.9999999999999997e-05,0.0,1
909,961,0.0,-2e-05,0.0,-1e-05,1e-05,0.0,-2.9999999999999997e-05,0.0,1
910,962,-2e-05,-1e-05,1e-05,-1e-05,-1e-05,-2e-05,0.0,2e-05,1
911,963,-2.9999999999999997e-05,1e-05,-1e-05,0.0,-1e-05,-1e-05,-2.9999999999999997e-05,-2.9999999999999997e-05,1
912,964,-2.9999999999999997e-05,1e-05,-1e-05,0.0,-1e-05,-1e-05,-2.9999999999999997e-05,-2.9999999999999997e-05,1
913,965,-2.9999999999999997e-05,1e-05,-1e-05,0.0,-1e-05,-1e-05,-2.9999999999999997e-05,-2.9999999999999997e-05,1
914,966,-2.9999999999999997e-05,1e-05,-1e-05,0.0,-1e-05,-1e-05,-2.9999999999999997e-05,-2.9999999999999997e-05,1
915,967,-2.9999999999999997e-05,1e-05,-1e-05,0.0,-1e-05,-1e-05,-2.9999999999999997e-05,-2.9999999999999997e-05,1
916,968,-2.9999999999999997e-05,1e-05,-1e-05,0.0,-1e-05,-1e-05,-2.9999999999999997e-05,-2.9999999999999997e-05,1
917,969,-2.9999999999999997e-05,1e-05,-1e-05,0.0,-1e-05,-1e-05,-2.9999999999999997e-05,-2.9999999999999997e-05,1
918,971,-2.9999999999999997e-05,1e-05,-1e-05,0.0,-1e-05,-1e-05,-2.9999999999999997e-05,-2.9999999999999997e-05,1
919,972,-2.9999999999999997e-05,1e-05,-1e-05,0.0,-1e-05,-1e-05,-2.9999999999999997e-05,-2.9999999999999997e-05,1
920,973,-2.9999999999999997e-05,1e-05,-1e-05,0.0,-1e-05,-1e-05,-2.9999999999999997e-05,-2.9999999999999997e-05,1
921,974,-2.9999999999999997e-05,1e-05,-1e-05,0.0,-1e-05,-1e-05,-2.9999999999999997e-05,-2.9999999999999997e-05,1
922,975,-2.9999999999999997e-05,1e-05,-1e-05,0.0,-1e-05,-1e-05,-2.9999999999999997e-05,-2.9999999999999997e-05,1
923,976,-2.9999999999999997e-05,1e-05,-1e-05,0.0,-1e-05,-1e-05,-2.9999999999999997e-05,-2.9999999999999997e-05,1
924,977,-2.9999999999999997e-05,1e-05,-1e-05,0.0,-1e-05,-1e-05,-2.9999999999999997e-05,-2.9999999999999997e-05,1
925,978,-2.9999999999999997e-05,1e-05,-1e-05,0.0,-1e-05,-1e-05,-2.9999999999999997e-05,-2.9999999999999997e-05,1
926,979,-2.9999999999999997e-05,1e-05,-1e-05,0.0,-1e-05,-1e-05,-2.9999999999999997e-05,-2.9999999999999997e-05,1
927,980,-2.9999999999999997e-05,1e-05,-1e-05,0.0,-1e-05,-1e-05,-2.9999999999999997e-05,-2.9999999999999997e-05,1
928,981,-2.9999999999999997e-05,1e-05,-1e-05,0.0,-1e-05,-1e-05,-2.9999999999999997e-05,-2.9999999999999997e-05,1
929,982,-2.9999999999999997e-05,1e-05,-1e-05,0.0,-1e-05,-1e-05,-2.9999999999999997e-05,-2.9999999999999997e-05,1
930,983,-2.9999999999999997e-05,1e-05,-1e-05,0.0,-1e-05,-1e-05,-2.9999999999999997e-05,-2.9999999999999997e-05,1
931,984,-2.9999999999999997e-05,1e-05,-1e-05,0.0,-1e-05,-1e-05,-2.9999999999999997e-05,-2.9999999999999997e-05,1
932,985,-1e-05,-2e-05,0.0,-1e-05,-1e-05,-2.9999999999999997e-05,-1e-05,1e-05,1
933,986,-1e-05,-1e-05,-1e-05,0.0,2.9999999999999997e-05,5.9999999999999995e-05,0.0,0.0,1
934,988,-1e-05,-1e-05,-1e-05,0.0,2.9999999999999997e-05,5.9999999999999995e-05,0.0,0.0,1
935,989,-1e-05,-1e-05,-1e-05,0.0,2.9999999999999997e-05,5.9999999999999995e-05,0.0,0.0,1
936,990,-1e-05,-1e-05,-1e-05,0.0,2.9999999999999997e-05,5.9999999999999995e-05,0.0,0.0,1
937,991,-1e-05,-1e-05,-1e-05,0.0,2.9999999999999997e-05,5.9999999999999995e-05,0.0,0.0,1
938,992,-1e-05,-1e-05,-1e-05,0.0,2.9999999999999997e-05,5.9999999999999995e-05,0.0,0.0,1
939,993,-1e-05,-1e-05,-1e-05,0.0,2.9999999999999997e-05,5.9999999999999995e-05,0.0,0.0,1
940,994,-1e-05,-1e-05,-1e-05,0.0,2.9999999999999997e-05,5.9999999999999995e-05,0.0,0.0,1
941,995,-1e-05,-1e-05,-1e-05,0.0,2.9999999999999997e-05,5.9999999999999995e-05,0.0,0.0,1
942,996,-1e-05,-1e-05,-1e-05,0.0,2.9999999999999997e-05,5.9999999999999995e-05,0.0,0.0,1
943,997,-1e-05,-1e-05,-1e-05,0.0,2.9999999999999997e-05,5.9999999999999995e-05,0.0,0.0,1
944,998,-1e-05,-1e-05,-1e-05,0.0,2.9999999999999997e-05,5.9999999999999995e-05,0.0,0.0,1
945,999,-1e-05,-1e-05,-1e-05,0.0,2.9999999999999997e-05,5.9999999999999995e-05,0.0,0.0,1
946,1000,-1e-05,-1e-05,-1e-05,0.0,2.9999999999999997e-05,5.9999999999999995e-05,0.0,0.0,1
947,1001,-1e-05,-1e-05,-1e-05,0.0,2.9999999999999997e-05,5.9999999999999995e-05,0.0,0.0,1
948,1002,-1e-05,-1e-05,-1e-05,0.0,2.9999999999999997e-05,5.9999999999999995e-05,0.0,0.0,1
949,1003,-1e-05,-1e-05,-1e-05,0.0,2.9999999999999997e-05,5.9999999999999995e-05,0.0,0.0,1
950,1005,-1e-05,-1e-05,-1e-05,0.0,2.9999999999999997e-05,5.9999999999999995e-05,0.0,0.0,1
951,1006,-1e-05,-1e-05,-1e-05,0.0,2.9999999999999997e-05,5.9999999999999995e-05,0.0,0.0,1
952,1008,-1e-05,-1e-05,-1e-05,0.0,2.9999999999999997e-05,5.9999999999999995e-05,0.0,0.0,1
953,1009,-1e-05,0.0,1e-05,-1e-05,0.0,0.0,-1e-05,-5e-05,1
954,1010,-1e-05,-2e-05,-1e-05,-2e-05,-1e-05,0.0,0.0,-2e-05,1
955,1011,-1e-05,-2e-05,-1e-05,-2e-05,-1e-05,0.0,0.0,-2e-05,1
956,1012,-1e-05,-2e-05,-1e-05,-2e-05,-1e-05,0.0,0.0,-2e-05,1
957,1013,-1e-05,-2e-05,-1e-05,-2e-05,-1e-05,0.0,0.0,-2e-05,1
958,1014,-1e-05,-2e-05,-1e-05,-2e-05,-1e-05,0.0,0.0,-2e-05,1
959,1016,-1e-05,-2e-05,-1e-05,-2e-05,-1e-05,0.0,0.0,-2e-05,1
960,1017,-1e-05,-2e-05,-1e-05,-2e-05,-1e-05,0.0,0.0,-2e-05,1
961,1018,-1e-05,-2e-05,-1e-05,-2e-05,-1e-05,0.0,0.0,-2e-05,1
962,1019,-1e-05,-2e-05,-1e-05,-2e-05,-1e-05,0.0,0.0,-2e-05,1
963,1020,-1e-05,-2e-05,-1e-05,-2e-05,-1e-05,0.0,0.0,-2e-05,1
964,1021,-1e-05,-2e-05,-1e-05,-2e-05,-1e-05,0.0,0.0,-2e-05,1
965,1022,1e-05,1e-05,0.0,-1e-05,-2e-05,-1e-05,-2e-05,0.0,1
966,1023,0.0,-1e-05,0.0,0.0,-2.9999999999999997e-05,-2.9999999999999997e-05,1e-05,0.0,1
967,1024,0.0,-1e-05,0.0,0.0,-2.9999999999999997e-05,-2.9999999999999997e-05,1e-05,0.0,1
968,1025,0.0,-1e-05,0.0,0.0,-2.9999999999999997e-05,-2.9999999999999997e-05,1e-05,0.0,1
969,1026,0.0,-1e-05,0.0,0.0,-2.9999999999999997e-05,-2.9999999999999997e-05,1e-05,0.0,1
970,1027,0.0,-1e-05,0.0,0.0,-2.9999999999999997e-05,-2.9999999999999997e-05,1e-05,0.0,1
971,1028,0.0,-1e-05,0.0,0.0,-2.9999999999999997e-05,-2.9999999999999997e-05,1e-05,0.0,1
972,1029,0.0,-1e-05,0.0,0.0,-2.9999999999999997e-05,-2.9999999999999997e-05,1e-05,0.0,1
973,1030,0.0,-1e-05,0.0,0.0,-2.9999999999999997e-05,-2.9999999999999997e-05,1e-05,0.0,1
974,1031,0.0,-1e-05,0.0,0.0,-2.9999999999999997e-05,-2.9999999999999997e-05,1e-05,0.0,1
975,1032,0.0,-1e-05,0.0,0.0,-2.9999999999999997e-05,-2.9999999999999997e-05,1e-05,0.0,1
976,1033,0.0,-1e-05,0.0,0.0,-2.9999999999999997e-05,-2.9999999999999997e-05,1e-05,0.0,1
977,1034,0.0,-1e-05,0.0,0.0,-2.9999999999999997e-05,-2.9999999999999997e-05,1e-05,0.0,1
978,1035,0.0,-1e-05,0.0,0.0,-2.9999999999999997e-05,-2.9999999999999997e-05,1e-05,0.0,1
979,1036,0.0,-1e-05,0.0,0.0,-2.9999999999999997e-05,-2.9999999999999997e-05,1e-05,0.0,1
980,1038,0.0,-1e-05,0.0,0.0,-2.9999999999999997e-05,-2.9999999999999997e-05,1e-05,0.0,1
981,1039,0.0,-1e-05,0.0,0.0,-2.9999999999999997e-05,-2.9999999999999997e-05,1e-05,0.0,1
982,1040,0.0,-1e-05,0.0,0.0,-2.9999999999999997e-05,-2.9999999999999997e-05,1e-05,0.0,1
983,1041,0.0,-1e-05,0.0,0.0,-2.9999999999999997e-05,-2.9999999999999997e-05,1e-05,0.0,1
984,1042,0.0,-1e-05,0.0,0.0,-2.9999999999999997e-05,-2.9999999999999997e-05,1e-05,0.0,1
985,1043,0.0,-1e-05,0.0,0.0,-2.9999999999999997e-05,-2.9999999999999997e-05,1e-05,0.0,1
986,1044,0.0,-1e-05,0.0,0.0,-2.9999999999999997e-05,-2.9999999999999997e-05,1e-05,0.0,1
987,1045,0.0,-1e-05,0.0,0.0,-2.9999999999999997e-05,-2.9999999999999997e-05,1e-05,0.0,1
988,1046,0.0,-1e-05,0.0,0.0,-2.9999999999999997e-05,-2.9999999999999997e-05,1e-05,0.0,1
989,1047,0.0,-1e-05,0.0,0.0,-2.9999999999999997e-05,-2.9999999999999997e-05,1e-05,0.0,1
990,1048,0.0,-1e-05,0.0,0.0,-2.9999999999999997e-05,-2.9999999999999997e-05,1e-05,0.0,1
991,1049,0.0,-1e-05,0.0,0.0,-2.9999999999999997e-05,-2.9999999999999997e-05,1e-05,0.0,1
992,1050,0.0,-1e-05,0.0,0.0,-2.9999999999999997e-05,-2.9999999999999997e-05,1e-05,0.0,1
993,1051,0.0,-1e-05,0.0,0.0,-2.9999999999999997e-05,-2.9999999999999997e-05,1e-05,0.0,1
994,1052,-2e-05,-4e-05,-5.9999999999999995e-05,-2.9999999999999997e-05,-1e-05,-1e-05,-2e-05,1e-05,1
995,1053,0.0,2e-05,4e-05,-1e-05,-2e-05,0.0,0.0,-1e-05,1
996,1054,0.0,2e-05,4e-05,-1e-05,-2e-05,0.0,0.0,-1e-05,1
997,1055,0.0,2e-05,4e-05,-1e-05,-2e-05,0.0,0.0,-1e-05,1
998,1056,0.0,2e-05,4e-05,-1e-05,-2e-05,0.0,0.0,-1e-05,1
999,1057,0.0,2e-05,4e-05,-1e-05,-2e-05,0.0,0.0,-1e-05,1
1000,1058,0.0,2e-05,4e-05,-1e-05,-2e-05,0.0,0.0,-1e-05,1
1001,1059,0.0,2e-05,4e-05,-1e-05,-2e-05,0.0,0.0,-1e-05,1
1002,1060,-2.9999999999999997e-05,-1e-05,-1e-05,-2e-05,0.0,-2.9999999999999997e-05,0.0,-4e-05,1
1003,1061,-2.9999999999999997e-05,-1e-05,-1e-05,-2e-05,0.0,-2.9999999999999997e-05,0.0,-4e-05,1
1004,1062,-2.9999999999999997e-05,-1e-05,-1e-05,-2e-05,0.0,-2.9999999999999997e-05,0.0,-4e-05,1
1005,1063,-2.9999999999999997e-05,-1e-05,-1e-05,-2e-05,0.0,-2.9999999999999997e-05,0.0,-4e-05,1
1006,1064,-2.9999999999999997e-05,-1e-05,-1e-05,-2e-05,0.0,-2.9999999999999997e-05,0.0,-4e-05,1
1007,1065,-2.9999999999999997e-05,-1e-05,-1e-05,-2e-05,0.0,-2.9999999999999997e-05,0.0,-4e-05,1
1008,1066,-2.9999999999999997e-05,-1e-05,-1e-05,-2e-05,0.0,-2.9999999999999997e-05,0.0,-4e-05,1
1009,1067,-2.9999999999999997e-05,-1e-05,-1e-05,-2e-05,0.0,-2.9999999999999997e-05,0.0,-4e-05,1
1010,1068,-2.9999999999999997e-05,-1e-05,-1e-05,-2e-05,0.0,-2.9999999999999997e-05,0.0,-4e-05,1
1011,1069,-2.9999999999999997e-05,-1e-05,-1e-05,-2e-05,0.0,-2.9999999999999997e-05,0.0,-4e-05,1
1012,1070,-2.9999999999999997e-05,-1e-05,-1e-05,-2e-05,0.0,-2.9999999999999997e-05,0.0,-4e-05,1
1013,1071,-2.9999999999999997e-05,-1e-05,-1e-05,-2e-05,0.0,-2.9999999999999997e-05,0.0,-4e-05,1
1014,1072,-2.9999999999999997e-05,-1e-05,-1e-05,-2e-05,0.0,-2.9999999999999997e-05,0.0,-4e-05,1
1015,1073,-2.9999999999999997e-05,-1e-05,-1e-05,-2e-05,0.0,-2.9999999999999997e-05,0.0,-4e-05,1
1016,1074,-2.9999999999999997e-05,-1e-05,-1e-05,-2e-05,0.0,-2.9999999999999997e-05,0.0,-4e-05,1
1017,1075,-2.9999999999999997e-05,-1e-05,-1e-05,-2e-05,0.0,-2.9999999999999997e-05,0.0,-4e-05,1
1018,1076,-2.9999999999999997e-05,-1e-05,-1e-05,-2e-05,0.0,-2.9999999999999997e-05,0.0,-4e-05,1
1019,1077,-2.9999999999999997e-05,-1e-05,-1e-05,-2e-05,0.0,-2.9999999999999997e-05,0.0,-4e-05,1
1020,1078,-2.9999999999999997e-05,-1e-05,-1e-05,-2e-05,0.0,-2.9999999999999997e-05,0.0,-4e-05,1
1021,1079,-2.9999999999999997e-05,-1e-05,-1e-05,-2e-05,0.0,-2.9999999999999997e-05,0.0,-4e-05,1
1022,1080,-2.9999999999999997e-05,-1e-05,-1e-05,-2e-05,0.0,-2.9999999999999997e-05,0.0,-4e-05,1
1023,1081,-2.9999999999999997e-05,-1e-05,-1e-05,-2e-05,0.0,-2.9999999999999997e-05,0.0,-4e-05,1
1024,1082,0.0,0.0,-2e-05,-2e-05,-2e-05,-2e-05,-1e-05,-1e-05,1
1025,1083,-2e-05,-1e-05,-2.9999999999999997e-05,-2.9999999999999997e-05,-2e-05,-1e-05,2e-05,-4e-05,1
1026,1084,-2e-05,-1e-05,-2.9999999999999997e-05,-2.9999999999999997e-05,-2e-05,-1e-05,2e-05,-4e-05,1
1027,1085,-2e-05,-1e-05,-2.9999999999999997e-05,-2.9999999999999997e-05,-2e-05,-1e-05,2e-05,-4e-05,1
1028,1086,-2e-05,-1e-05,-2.9999999999999997e-05,-2.9999999999999997e-05,-2e-05,-1e-05,2e-05,-4e-05,1
1029,1088,-2e-05,-1e-05,-2.9999999999999997e-05,-2.9999999999999997e-05,-2e-05,-1e-05,2e-05,-4e-05,1
1030,1089,-2e-05,-1e-05,-2.9999999999999997e-05,-2.9999999999999997e-05,-2e-05,-1e-05,2e-05,-4e-05,1
1031,1090,-2e-05,-1e-05,-2.9999999999999997e-05,-2.9999999999999997e-05,-2e-05,-1e-05,2e-05,-4e-05,1
1032,1091,-2e-05,-1e-05,-2.9999999999999997e-05,-2.9999999999999997e-05,-2e-05,-1e-05,2e-05,-4e-05,1
1033,1092,-2e-05,-1e-05,-2.9999999999999997e-05,-2.9999999999999997e-05,-2e-05,-1e-05,2e-05,-4e-05,1
1034,1093,-2e-05,-1e-05,-2.9999999999999997e-05,-2.9999999999999997e-05,-2e-05,-1e-05,2e-05,-4e-05,1
1035,1094,-2e-05,-1e-05,-2.9999999999999997e-05,-2.9999999999999997e-05,-2e-05,-1e-05,2e-05,-4e-05,1
1036,1095,-2e-05,-1e-05,-2.9999999999999997e-05,-2.9999999999999997e-05,-2e-05,-1e-05,2e-05,-4e-05,1
1037,1096,-2e-05,-1e-05,-2.9999999999999997e-05,-2.9999999999999997e-05,-2e-05,-1e-05,2e-05,-4e-05,1
1038,1097,-2e-05,-1e-05,-2.9999999999999997e-05,-2.9999999999999997e-05,-2e-05,-1e-05,2e-05,-4e-05,1
1039,1098,-2e-05,-1e-05,-2.9999999999999997e-05,-2.9999999999999997e-05,-2e-05,-1e-05,2e-05,-4e-05,1
1040,1099,-2e-05,-1e-05,-2.9999999999999997e-05,-2.9999999999999997e-05,-2e-05,-1e-05,2e-05,-4e-05,1
1041,1100,-2e-05,-1e-05,-2.9999999999999997e-05,-2.9999999999999997e-05,-2e-05,-1e-05,2e-05,-4e-05,1
1042,1101,-2e-05,-1e-05,-2.9999999999999997e-05,-2.9999999999999997e-05,-2e-05,-1e-05,2e-05,-4e-05,1
1043,1102,-2e-05,-1e-05,-2.9999999999999997e-05,-2.9999999999999997e-05,-2e-05,-1e-05,2e-05,-4e-05,1
1044,1103,-2e-05,-1e-05,-2.9999999999999997e-05,-2.9999999999999997e-05,-2e-05,-1e-05,2e-05,-4e-05,1
1045,1104,-2e-05,-1e-05,-2.9999999999999997e-05,-2.9999999999999997e-05,-2e-05,-1e-05,2e-05,-4e-05,1
1046,1105,2e-05,0.0,-2.9999999999999997e-05,0.0,0.0,1e-05,2e-05,0.0,1
1047,1106,-2e-05,-5e-05,-2.9999999999999997e-05,-2e-05,-2e-05,-5e-05,-9e-05,-1e-05,1
1048,1107,-2e-05,-5e-05,-2.9999999999999997e-05,-2e-05,-2e-05,-5e-05,-9e-05,-1e-05,1
1049,1108,-2e-05,-5e-05,-2.9999999999999997e-05,-2e-05,-2e-05,-5e-05,-9e-05,-1e-05,1
1050,1109,-2e-05,-5e-05,-2.9999999999999997e-05,-2e-05,-2e-05,-5e-05,-9e-05,-1e-05,1
1051,1110,-2e-05,-5e-05,-2.9999999999999997e-05,-2e-05,-2e-05,-5e-05,-9e-05,-1e-05,1
1052,1111,-2e-05,-5e-05,-2.9999999999999997e-05,-2e-05,-2e-05,-5e-05,-9e-05,-1e-05,1
1053,1112,-2e-05,-5e-05,-2.9999999999999997e-05,-2e-05,-2e-05,-5e-05,-9e-05,-1e-05,1
1054,1113,-2e-05,-5e-05,-2.9999999999999997e-05,-2e-05,-2e-05,-5e-05,-9e-05,-1e-05,1
1055,1114,-2e-05,-5e-05,-2.9999999999999997e-05,-2e-05,-2e-05,-5e-05,-9e-05,-1e-05,1
1056,1115,-2e-05,-5e-05,-2.9999999999999997e-05,-2e-05,-2e-05,-5e-05,-9e-05,-1e-05,1
1057,1116,-2e-05,-5e-05,-2.9999999999999997e-05,-2e-05,-2e-05,-5e-05,-9e-05,-1e-05,1
1058,1117,-2e-05,-5e-05,-2.9999999999999997e-05,-2e-05,-2e-05,-5e-05,-9e-05,-1e-05,1
1059,1118,-2e-05,-5e-05,-2.9999999999999997e-05,-2e-05,-2e-05,-5e-05,-9e-05,-1e-05,1
1060,1119,-2e-05,-2e-05,-1e-05,-1e-05,0.0,-1e-05,-1e-05,-2e-05,1
1061,1120,-2e-05,1e-05,-1e-05,-2e-05,-5e-05,-0.0001,0.0,0.0,1
1062,1121,-2e-05,1e-05,-1e-05,-2e-05,-5e-05,-0.0001,0.0,0.0,1
1063,1122,-2e-05,1e-05,-1e-05,-2e-05,-5e-05,-0.0001,0.0,0.0,1
1064,1123,-2e-05,1e-05,-1e-05,-2e-05,-5e-05,-0.0001,0.0,0.0,1
1065,1124,-2e-05,1e-05,-1e-05,-2e-05,-5e-05,-0.0001,0.0,0.0,1
1066,1125,-2e-05,1e-05,-1e-05,-2e-05,-5e-05,-0.0001,0.0,0.0,1
1067,1126,-2e-05,1e-05,-1e-05,-2e-05,-5e-05,-0.0001,0.0,0.0,1
1068,1127,-2e-05,1e-05,-1e-05,-2e-05,-5e-05,-0.0001,0.0,0.0,1
1069,1128,-2e-05,1e-05,-1e-05,-2e-05,-5e-05,-0.0001,0.0,0.0,1
1070,1129,-2e-05,1e-05,-1e-05,-2e-05,-5e-05,-0.0001,0.0,0.0,1
1071,1130,-2e-05,1e-05,-1e-05,-2e-05,-5e-05,-0.0001,0.0,0.0,1
1072,1131,-2e-05,1e-05,-1e-05,-2e-05,-5e-05,-0.0001,0.0,0.0,1
1073,1132,-2e-05,1e-05,-1e-05,-2e-05,-5e-05,-0.0001,0.0,0.0,1
1074,1133,-2e-05,1e-05,-1e-05,-2e-05,-5e-05,-0.0001,0.0,0.0,1
1075,1134,-2e-05,1e-05,-1e-05,-2e-05,-5e-05,-0.0001,0.0,0.0,1
1076,1135,-2e-05,1e-05,-1e-05,-2e-05,-5e-05,-0.0001,0.0,0.0,1
1077,1136,-2e-05,1e-05,-1e-05,-2e-05,-5e-05,-0.0001,0.0,0.0,1
1078,1138,-2e-05,1e-05,-1e-05,-2e-05,-5e-05,-0.0001,0.0,0.0,1
1079,1139,-2e-05,1e-05,-1e-05,-2e-05,-5e-05,-0.0001,0.0,0.0,1
1080,1140,-2e-05,1e-05,-1e-05,-2e-05,-5e-05,-0.0001,0.0,0.0,1
1081,1141,-2e-05,1e-05,-1e-05,-2e-05,-5e-05,-0.0001,0.0,0.0,1
1082,1142,0.0,-2e-05,-5.9999999999999995e-05,-1e-05,-2.9999999999999997e-05,-2.9999999999999997e-05,-5e-05,-2e-05,1
1083,1143,0.0,1e-05,0.0,-1e-05,0.0,2e-05,-1e-05,1e-05,1
1084,1144,0.0,1e-05,0.0,-1e-05,0.0,2e-05,-1e-05,1e-05,1
1085,1145,0.0,1e-05,0.0,-1e-05,0.0,2e-05,-1e-05,1e-05,1
1086,1146,0.0,1e-05,0.0,-1e-05,0.0,2e-05,-1e-05,1e-05,1
1087,1147,0.0,1e-05,0.0,-1e-05,0.0,2e-05,-1e-05,1e-05,1
1088,1148,0.0,1e-05,0.0,-1e-05,0.0,2e-05,-1e-05,1e-05,1
1089,1149,0.0,1e-05,0.0,-1e-05,0.0,2e-05,-1e-05,1e-05,1
1090,1150,0.0,1e-05,0.0,-1e-05,0.0,2e-05,-1e-05,1e-05,1
1091,1151,0.0,1e-05,0.0,-1e-05,0.0,2e-05,-1e-05,1e-05,1
1092,1152,0.0,1e-05,0.0,-1e-05,0.0,2e-05,-1e-05,1e-05,1
1093,1153,0.0,1e-05,0.0,-1e-05,0.0,2e-05,-1e-05,1e-05,1
1094,1154,0.0,1e-05,0.0,-1e-05,0.0,2e-05,-1e-05,1e-05,1
1095,1155,0.0,1e-05,0.0,-1e-05,0.0,2e-05,-1e-05,1e-05,1
1096,1156,0.0,1e-05,0.0,-1e-05,0.0,2e-05,-1e-05,1e-05,1
1097,1157,0.0,1e-05,0.0,-1e-05,0.0,2e-05,-1e-05,1e-05,1
1098,1158,0.0,1e-05,0.0,-1e-05,0.0,2e-05,-1e-05,1e-05,1
1099,1159,0.0,1e-05,0.0,-1e-05,0.0,2e-05,-1e-05,1e-05,1
1100,1160,0.0,1e-05,0.0,-1e-05,0.0,2e-05,-1e-05,1e-05,1
1101,1161,0.0,1e-05,0.0,-1e-05,0.0,2e-05,-1e-05,1e-05,1
1102,1162,0.0,1e-05,0.0,-1e-05,0.0,2e-05,-1e-05,1e-05,1
1103,1163,0.0,1e-05,0.0,-1e-05,0.0,2e-05,-1e-05,1e-05,1
1104,1164,0.0,1e-05,0.0,-1e-05,0.0,2e-05,-1e-05,1e-05,1
1105,1165,0.0,-4e-05,0.0,0.0,0.0,-2.9999999999999997e-05,0.0,1e-05,1
1106,1166,1e-05,-1e-05,0.0,-2e-05,1e-05,2.9999999999999997e-05,2e-05,1e-05,1
1107,1167,1e-05,-1e-05,0.0,-2e-05,1e-05,2.9999999999999997e-05,2e-05,1e-05,1
1108,1168,1e-05,-1e-05,0.0,-2e-05,1e-05,2.9999999999999997e-05,2e-05,1e-05,1
1109,1169,1e-05,-1e-05,0.0,-2e-05,1e-05,2.9999999999999997e-05,2e-05,1e-05,1
1110,1170,1e-05,-1e-05,0.0,-2e-05,1e-05,2.9999999999999997e-05,2e-05,1e-05,1
1111,1171,1e-05,-1e-05,0.0,-2e-05,1e-05,2.9999999999999997e-05,2e-05,1e-05,1
1112,1172,1e-05,-1e-05,0.0,-2e-05,1e-05,2.9999999999999997e-05,2e-05,1e-05,1
1113,1173,1e-05,-1e-05,0.0,-2e-05,1e-05,2.9999999999999997e-05,2e-05,1e-05,1
1114,1174,1e-05,-1e-05,0.0,-2e-05,1e-05,2.9999999999999997e-05,2e-05,1e-05,1
1115,1175,1e-05,-1e-05,0.0,-2e-05,1e-05,2.9999999999999997e-05,2e-05,1e-05,1
1116,1176,1e-05,-1e-05,0.0,-2e-05,1e-05,2.9999999999999997e-05,2e-05,1e-05,1
1117,1177,1e-05,-1e-05,0.0,-2e-05,1e-05,2.9999999999999997e-05,2e-05,1e-05,1
1118,1178,1e-05,-1e-05,0.0,-2e-05,1e-05,2.9999999999999997e-05,2e-05,1e-05,1
1119,1179,-2e-05,-1e-05,-2e-05,-2.9999999999999997e-05,-4e-05,-2e-05,-1e-05,-1e-05,1
1120,1180,1e-05,-1e-05,2e-05,0.0,-1e-05,1e-05,2.9999999999999997e-05,0.0,1
1121,1181,1e-05,-1e-05,2e-05,0.0,-1e-05,1e-05,2.9999999999999997e-05,0.0,1
1122,1182,1e-05,-1e-05,2e-05,0.0,-1e-05,1e-05,2.9999999999999997e-05,0.0,1
1123,1183,1e-05,-1e-05,2e-05,0.0,-1e-05,1e-05,2.9999999999999997e-05,0.0,1
1124,1184,1e-05,-1e-05,2e-05,0.0,-1e-05,1e-05,2.9999999999999997e-05,0.0,1
1125,1185,1e-05,-1e-05,2e-05,0.0,-1e-05,1e-05,2.9999999999999997e-05,0.0,1
1126,1186,1e-05,-1e-05,2e-05,0.0,-1e-05,1e-05,2.9999999999999997e-05,0.0,1
1127,1188,1e-05,-1e-05,2e-05,0.0,-1e-05,1e-05,2.9999999999999997e-05,0.0,1
1128,1189,1e-05,-1e-05,2e-05,0.0,-1e-05,1e-05,2.9999999999999997e-05,0.0,1
1129,1190,1e-05,-1e-05,2e-05,0.0,-1e-05,1e-05,2.9999999999999997e-05,0.0,1
1130,1191,1e-05,-1e-05,2e-05,0.0,-1e-05,1e-05,2.9999999999999997e-05,0.0,1
1131,1192,1e-05,-1e-05,2e-05,0.0,-1e-05,1e-05,2.9999999999999997e-05,0.0,1
1132,1193,1e-05,-1e-05,2e-05,0.0,-1e-05,1e-05,2.9999999999999997e-05,0.0,1
1133,1194,1e-05,-1e-05,2e-05,0.0,-1e-05,1e-05,2.9999999999999997e-05,0.0,1
1134,1195,1e-05,-1e-05,2e-05,0.0,-1e-05,1e-05,2.9999999999999997e-05,0.0,1
1135,1196,1e-05,-1e-05,2e-05,0.0,-1e-05,1e-05,2.9999999999999997e-05,0.0,1
1136,1197,1e-05,-1e-05,2e-05,0.0,-1e-05,1e-05,2.9999999999999997e-05,0.0,1
1137,1198,1e-05,-1e-05,2e-05,0.0,-1e-05,1e-05,2.9999999999999997e-05,0.0,1
1138,1199,1e-05,-1e-05,2e-05,0.0,-1e-05,1e-05,2.9999999999999997e-05,0.0,1
1139,1200,1e-05,-1e-05,2e-05,0.0,-1e-05,1e-05,2.9999999999999997e-05,0.0,1
1140,1201,1e-05,-1e-05,2e-05,0.0,-1e-05,1e-05,2.9999999999999997e-05,0.0,1
1141,1202,0.0,-4e-05,-1e-05,-1e-05,-2.9999999999999997e-05,-5e-05,-1e-05,-4e-05,1
1142,1203,0.0,2e-05,-1e-05,0.0,0.0,-2e-05,-2.9999999999999997e-05,-1e-05,1
1143,1204,0.0,2e-05,-1e-05,0.0,0.0,-2e-05,-2.9999999999999997e-05,-1e-05,1
1144,1205,0.0,2e-05,-1e-05,0.0,0.0,-2e-05,-2.9999999999999997e-05,-1e-05,1
1145,1206,0.0,2e-05,-1e-05,0.0,0.0,-2e-05,-2.9999999999999997e-05,-1e-05,1
1146,1207,0.0,2e-05,-1e-05,0.0,0.0,-2e-05,-2.9999999999999997e-05,-1e-05,1
1147,1208,0.0,2e-05,-1e-05,0.0,0.0,-2e-05,-2.9999999999999997e-05,-1e-05,1
1148,1209,0.0,2e-05,-1e-05,0.0,0.0,-2e-05,-2.9999999999999997e-05,-1e-05,1
1149,1210,0.0,2e-05,-1e-05,0.0,0.0,-2e-05,-2.9999999999999997e-05,-1e-05,1
1150,1211,0.0,2e-05,-1e-05,0.0,0.0,-2e-05,-2.9999999999999997e-05,-1e-05,1
1151,1212,0.0,2e-05,-1e-05,0.0,0.0,-2e-05,-2.9999999999999997e-05,-1e-05,1
1152,1213,0.0,2e-05,-1e-05,0.0,0.0,-2e-05,-2.9999999999999997e-05,-1e-05,1
1153,1214,0.0,2e-05,-1e-05,0.0,0.0,-2e-05,-2.9999999999999997e-05,-1e-05,1
1154,1215,0.0,2e-05,-1e-05,0.0,0.0,-2e-05,-2.9999999999999997e-05,-1e-05,1
1155,1216,0.0,2e-05,-1e-05,0.0,0.0,-2e-05,-2.9999999999999997e-05,-1e-05,1
1156,1217,0.0,2e-05,-1e-05,0.0,0.0,-2e-05,-2.9999999999999997e-05,-1e-05,1
1157,1218,0.0,2e-05,-1e-05,0.0,0.0,-2e-05,-2.9999999999999997e-05,-1e-05,1
1158,1219,0.0,2e-05,-1e-05,0.0,0.0,-2e-05,-2.9999999999999997e-05,-1e-05,1
1159,1220,0.0,2e-05,-1e-05,0.0,0.0,-2e-05,-2.9999999999999997e-05,-1e-05,1
1160,1221,0.0,2e-05,-1e-05,0.0,0.0,-2e-05,-2.9999999999999997e-05,-1e-05,1
1161,1222,0.0,2e-05,-1e-05,0.0,0.0,-2e-05,-2.9999999999999997e-05,-1e-05,1
1162,1223,0.0,2e-05,-1e-05,0.0,0.0,-2e-05,-2.9999999999999997e-05,-1e-05,1
1163,1224,0.0,2e-05,-1e-05,0.0,0.0,-2e-05,-2.9999999999999997e-05,-1e-05,1
1164,1225,-1e-05,1e-05,2e-05,0.0,0.0,-1e-05,0.0,0.0,1
1165,1226,-1e-05,1e-05,0.0,-1e-05,0.0,1e-05,-2e-05,-2.9999999999999997e-05,1
1166,1227,-1e-05,1e-05,0.0,-1e-05,0.0,1e-05,-2e-05,-2.9999999999999997e-05,1
1167,1228,-1e-05,1e-05,0.0,-1e-05,0.0,1e-05,-2e-05,-2.9999999999999997e-05,1
1168,1229,-1e-05,1e-05,0.0,-1e-05,0.0,1e-05,-2e-05,-2.9999999999999997e-05,1
1169,1230,-1e-05,1e-05,0.0,-1e-05,0.0,1e-05,-2e-05,-2.9999999999999997e-05,1
1170,1231,-1e-05,1e-05,0.0,-1e-05,0.0,1e-05,-2e-05,-2.9999999999999997e-05,1
1171,1232,-1e-05,1e-05,0.0,-1e-05,0.0,1e-05,-2e-05,-2.9999999999999997e-05,1
1172,1233,-1e-05,1e-05,0.0,-1e-05,0.0,1e-05,-2e-05,-2.9999999999999997e-05,1
1173,1234,-1e-05,1e-05,0.0,-1e-05,0.0,1e-05,-2e-05,-2.9999999999999997e-05,1
1174,1235,-1e-05,1e-05,0.0,-1e-05,0.0,1e-05,-2e-05,-2.9999999999999997e-05,1
1175,1236,-1e-05,1e-05,0.0,-1e-05,0.0,1e-05,-2e-05,-2.9999999999999997e-05,1
1176,1238,-1e-05,1e-05,0.0,-1e-05,0.0,1e-05,-2e-05,-2.9999999999999997e-05,1
1177,1239,-1e-05,1e-05,0.0,-1e-05,0.0,1e-05,-2e-05,-2.9999999999999997e-05,1
1178,1240,-2e-05,-4e-05,-2.9999999999999997e-05,0.0,-1e-05,-1e-05,1e-05,-1e-05,1
1179,1241,-2e-05,-4e-05,-2.9999999999999997e-05,0.0,-1e-05,-1e-05,1e-05,-1e-05,1
1180,1242,-2e-05,-4e-05,-2.9999999999999997e-05,0.0,-1e-05,-1e-05,1e-05,-1e-05,1
1181,1243,-2e-05,-4e-05,-2.9999999999999997e-05,0.0,-1e-05,-1e-05,1e-05,-1e-05,1
1182,1244,-2e-05,-4e-05,-2.9999999999999997e-05,0.0,-1e-05,-1e-05,1e-05,-1e-05,1
1183,1245,-2e-05,-4e-05,-2.9999999999999997e-05,0.0,-1e-05,-1e-05,1e-05,-1e-05,1
1184,1246,-2e-05,-4e-05,-2.9999999999999997e-05,0.0,-1e-05,-1e-05,1e-05,-1e-05,1
1185,1247,-2e-05,-4e-05,-2.9999999999999997e-05,0.0,-1e-05,-1e-05,1e-05,-1e-05,1
1186,1248,-2e-05,-4e-05,-2.9999999999999997e-05,0.0,-1e-05,-1e-05,1e-05,-1e-05,1
1187,1249,-2e-05,-4e-05,-2.9999999999999997e-05,0.0,-1e-05,-1e-05,1e-05,-1e-05,1
1188,1250,-2e-05,-4e-05,-2.9999999999999997e-05,0.0,-1e-05,-1e-05,1e-05,-1e-05,1
1189,1251,-2e-05,-4e-05,-2.9999999999999997e-05,0.0,-1e-05,-1e-05,1e-05,-1e-05,1
1190,1252,-2e-05,-4e-05,-2.9999999999999997e-05,0.0,-1e-05,-1e-05,1e-05,-1e-05,1
1191,1253,-2e-05,-4e-05,-2.9999999999999997e-05,0.0,-1e-05,-1e-05,1e-05,-1e-05,1
1192,1254,-2e-05,-4e-05,-2.9999999999999997e-05,0.0,-1e-05,-1e-05,1e-05,-1e-05,1
1193,1255,-2e-05,-4e-05,-2.9999999999999997e-05,0.0,-1e-05,-1e-05,1e-05,-1e-05,1
1194,1256,-2e-05,-4e-05,-2.9999999999999997e-05,0.0,-1e-05,-1e-05,1e-05,-1e-05,1
1195,1257,-2e-05,-4e-05,-2.9999999999999997e-05,0.0,-1e-05,-1e-05,1e-05,-1e-05,1
1196,1258,-2e-05,-4e-05,-2.9999999999999997e-05,0.0,-1e-05,-1e-05,1e-05,-1e-05,1
1197,1259,-2e-05,-4e-05,-2.9999999999999997e-05,0.0,-1e-05,-1e-05,1e-05,-1e-05,1
1198,1260,-2e-05,-4e-05,-2.9999999999999997e-05,0.0,-1e-05,-1e-05,1e-05,-1e-05,1
1199,1261,-2e-05,-4e-05,-2.9999999999999997e-05,0.0,-1e-05,-1e-05,1e-05,-1e-05,1
1200,1262,-1e-05,2e-05,-1e-05,0.0,-1e-05,0.0,-2e-05,-2.9999999999999997e-05,1
1201,1263,-1e-05,2e-05,-1e-05,0.0,-1e-05,0.0,-2e-05,-2.9999999999999997e-05,1
1202,1264,-1e-05,2e-05,-1e-05,0.0,-1e-05,0.0,-2e-05,-2.9999999999999997e-05,1
1203,1265,-1e-05,2e-05,-1e-05,0.0,-1e-05,0.0,-2e-05,-2.9999999999999997e-05,1
1204,1266,-1e-05,2e-05,-1e-05,0.0,-1e-05,0.0,-2e-05,-2.9999999999999997e-05,1
1205,1267,-1e-05,2e-05,-1e-05,0.0,-1e-05,0.0,-2e-05,-2.9999999999999997e-05,1
1206,1268,-1e-05,2e-05,-1e-05,0.0,-1e-05,0.0,-2e-05,-2.9999999999999997e-05,1
1207,1269,0.0,-5e-05,-4e-05,0.0,0.0,-2e-05,0.0,0.0,1
1208,1270,0.0,-5e-05,-4e-05,0.0,0.0,-2e-05,0.0,0.0,1
1209,1271,0.0,-5e-05,-4e-05,0.0,0.0,-2e-05,0.0,0.0,1
1210,1272,0.0,-5e-05,-4e-05,0.0,0.0,-2e-05,0.0,0.0,1
1211,1273,0.0,-5e-05,-4e-05,0.0,0.0,-2e-05,0.0,0.0,1
1212,1274,0.0,-5e-05,-4e-05,0.0,0.0,-2e-05,0.0,0.0,1
1213,1275,0.0,-5e-05,-4e-05,0.0,0.0,-2e-05,0.0,0.0,1
1214,1276,0.0,-5e-05,-4e-05,0.0,0.0,-2e-05,0.0,0.0,1
1215,1277,0.0,-5e-05,-4e-05,0.0,0.0,-2e-05,0.0,0.0,1
1216,1278,0.0,-5e-05,-4e-05,0.0,0.0,-2e-05,0.0,0.0,1
1217,1279,0.0,-5e-05,-4e-05,0.0,0.0,-2e-05,0.0,0.0,1
1218,1280,0.0,-5e-05,-4e-05,0.0,0.0,-2e-05,0.0,0.0,1
1219,1281,0.0,-5e-05,-4e-05,0.0,0.0,-2e-05,0.0,0.0,1
1220,1282,0.0,-5e-05,-4e-05,0.0,0.0,-2e-05,0.0,0.0,1
1221,1283,0.0,-5e-05,-4e-05,0.0,0.0,-2e-05,0.0,0.0,1
1222,1284,0.0,-5e-05,-4e-05,0.0,0.0,-2e-05,0.0,0.0,1
1223,1285,-2e-05,-1e-05,-1e-05,-1e-05,-1e-05,-1e-05,1e-05,0.0,1
1224,1286,0.0,-1e-05,-5e-05,0.0,-2e-05,0.0,-2.9999999999999997e-05,0.0,1
1225,1288,0.0,-1e-05,-5e-05,0.0,-2e-05,0.0,-2.9999999999999997e-05,0.0,1
1226,1289,0.0,-1e-05,-5e-05,0.0,-2e-05,0.0,-2.9999999999999997e-05,0.0,1
1227,1290,0.0,-1e-05,-5e-05,0.0,-2e-05,0.0,-2.9999999999999997e-05,0.0,1
1228,1291,0.0,-1e-05,-5e-05,0.0,-2e-05,0.0,-2.9999999999999997e-05,0.0,1
1229,1292,0.0,-1e-05,-5e-05,0.0,-2e-05,0.0,-2.9999999999999997e-05,0.0,1
1230,1293,0.0,-1e-05,-5e-05,0.0,-2e-05,0.0,-2.9999999999999997e-05,0.0,1
1231,1294,0.0,-1e-05,-5e-05,0.0,-2e-05,0.0,-2.9999999999999997e-05,0.0,1
1232,1295,0.0,-1e-05,-5e-05,0.0,-2e-05,0.0,-2.9999999999999997e-05,0.0,1
1233,1296,0.0,-1e-05,-5e-05,0.0,-2e-05,0.0,-2.9999999999999997e-05,0.0,1
1234,1297,0.0,-1e-05,-5e-05,0.0,-2e-05,0.0,-2.9999999999999997e-05,0.0,1
1235,1298,0.0,-1e-05,-5e-05,0.0,-2e-05,0.0,-2.9999999999999997e-05,0.0,1
1236,1299,0.0,-1e-05,0.0,-1e-05,-2e-05,-2.9999999999999997e-05,-4e-05,-2.9999999999999997e-05,1
1237,1300,0.0,0.0,-1e-05,0.0,-1e-05,0.0,-1e-05,0.0,1
1238,1301,0.0,0.0,-1e-05,0.0,-1e-05,0.0,-1e-05,0.0,1
1239,1302,0.0,0.0,-1e-05,0.0,-1e-05,0.0,-1e-05,0.0,1
1240,1303,0.0,0.0,-1e-05,0.0,-1e-05,0.0,-1e-05,0.0,1
1241,1304,0.0,0.0,-1e-05,0.0,-1e-05,0.0,-1e-05,0.0,1
1242,1305,0.0,0.0,-1e-05,0.0,-1e-05,0.0,-1e-05,0.0,1
1243,1306,0.0,0.0,-1e-05,0.0,-1e-05,0.0,-1e-05,0.0,1
1244,1307,0.0,0.0,-1e-05,0.0,-1e-05,0.0,-1e-05,0.0,1
1245,1308,0.0,0.0,-1e-05,0.0,-1e-05,0.0,-1e-05,0.0,1
1246,1309,0.0,0.0,-1e-05,0.0,-1e-05,0.0,-1e-05,0.0,1
1247,1310,0.0,0.0,-1e-05,0.0,-1e-05,0.0,-1e-05,0.0,1
1248,1311,0.0,0.0,-1e-05,0.0,-1e-05,0.0,-1e-05,0.0,1
1249,1312,0.0,0.0,-1e-05,0.0,-1e-05,0.0,-1e-05,0.0,1
1250,1313,0.0,0.0,-1e-05,0.0,-1e-05,0.0,-1e-05,0.0,1
1251,1314,0.0,0.0,-1e-05,0.0,-1e-05,0.0,-1e-05,0.0,1
1252,1315,0.0,0.0,-1e-05,0.0,-1e-05,0.0,-1e-05,0.0,1
1253,1316,0.0,0.0,-1e-05,0.0,-1e-05,0.0,-1e-05,0.0,1
1254,1317,0.0,0.0,-1e-05,0.0,-1e-05,0.0,-1e-05,0.0,1
1255,1318,0.0,0.0,-1e-05,0.0,-1e-05,0.0,-1e-05,0.0,1
1256,1319,0.0,0.0,-1e-05,0.0,-1e-05,0.0,-1e-05,0.0,1
1257,1320,0.0,0.0,-1e-05,0.0,-1e-05,0.0,-1e-05,0.0,1
1258,1321,0.0,0.0,-1e-05,0.0,-1e-05,0.0,-1e-05,0.0,1
1259,1322,-1e-05,0.0,0.0,-2e-05,-1e-05,1e-05,-1e-05,0.0,1
1260,1323,-1e-05,0.0,0.0,-2e-05,-1e-05,1e-05,-1e-05,0.0,1
1261,1324,-4e-05,-2e-05,-2e-05,-2e-05,-1e-05,1e-05,1e-05,1e-05,1
1262,1325,-4e-05,-2e-05,-2e-05,-2e-05,-1e-05,1e-05,1e-05,1e-05,1
1263,1326,-4e-05,-2e-05,-2e-05,-2e-05,-1e-05,1e-05,1e-05,1e-05,1
1264,1327,-4e-05,-2e-05,-2e-05,-2e-05,-1e-05,1e-05,1e-05,1e-05,1
1265,1328,-4e-05,-2e-05,-2e-05,-2e-05,-1e-05,1e-05,1e-05,1e-05,1
1266,1329,-4e-05,-2e-05,-2e-05,-2e-05,-1e-05,1e-05,1e-05,1e-05,1
1267,1330,-4e-05,-2e-05,-2e-05,-2e-05,-1e-05,1e-05,1e-05,1e-05,1
1268,1331,-4e-05,-2e-05,-2e-05,-2e-05,-1e-05,1e-05,1e-05,1e-05,1
1269,1332,-4e-05,-2e-05,-2e-05,-2e-05,-1e-05,1e-05,1e-05,1e-05,1
1270,1333,-4e-05,-2e-05,-2e-05,-2e-05,-1e-05,1e-05,1e-05,1e-05,1
1271,1334,-4e-05,-2e-05,-2e-05,-2e-05,-1e-05,1e-05,1e-05,1e-05,1
1272,1335,-4e-05,-2e-05,-2e-05,-2e-05,-1e-05,1e-05,1e-05,1e-05,1
1273,1336,-4e-05,-2e-05,-2e-05,-2e-05,-1e-05,1e-05,1e-05,1e-05,1
1274,1338,-4e-05,-2e-05,-2e-05,-2e-05,-1e-05,1e-05,1e-05,1e-05,1
1275,1339,-4e-05,-2e-05,-2e-05,-2e-05,-1e-05,1e-05,1e-05,1e-05,1
1276,1340,-4e-05,-2e-05,-2e-05,-2e-05,-1e-05,1e-05,1e-05,1e-05,1
1277,1341,-4e-05,-2e-05,-2e-05,-2e-05,-1e-05,1e-05,1e-05,1e-05,1
1278,1342,-4e-05,-2e-05,-2e-05,-2e-05,-1e-05,1e-05,1e-05,1e-05,1
1279,1343,-4e-05,-2e-05,-2e-05,-2e-05,-1e-05,1e-05,1e-05,1e-05,1
1280,1344,-4e-05,-2e-05,-2e-05,-2e-05,-1e-05,1e-05,1e-05,1e-05,1
1281,1345,0.0,1e-05,0.0,-1e-05,1e-05,1e-05,4e-05,-2e-05,1
1282,1346,-1e-05,-2.9999999999999997e-05,0.0,0.0,0.0,0.0,-2e-05,-1e-05,1
1283,1347,-1e-05,-2.9999999999999997e-05,0.0,0.0,0.0,0.0,-2e-05,-1e-05,1
1284,1348,-1e-05,-2.9999999999999997e-05,0.0,0.0,0.0,0.0,-2e-05,-1e-05,1
1285,1349,-1e-05,-2.9999999999999997e-05,0.0,0.0,0.0,0.0,-2e-05,-1e-05,1
1286,1350,-1e-05,-2.9999999999999997e-05,0.0,0.0,0.0,0.0,-2e-05,-1e-05,1
1287,1351,-1e-05,-2.9999999999999997e-05,0.0,0.0,0.0,0.0,-2e-05,-1e-05,1
1288,1352,-1e-05,-2.9999999999999997e-05,0.0,0.0,0.0,0.0,-2e-05,-1e-05,1
1289,1353,-1e-05,-2.9999999999999997e-05,0.0,0.0,0.0,0.0,-2e-05,-1e-05,1
1290,1354,-1e-05,-2.9999999999999997e-05,0.0,0.0,0.0,0.0,-2e-05,-1e-05,1
1291,1355,-1e-05,-2.9999999999999997e-05,0.0,0.0,0.0,0.0,-2e-05,-1e-05,1
1292,1356,-1e-05,-2.9999999999999997e-05,0.0,0.0,0.0,0.0,-2e-05,-1e-05,1
1293,1357,-1e-05,-2.9999999999999997e-05,0.0,0.0,0.0,0.0,-2e-05,-1e-05,1
1294,1358,-1e-05,-2.9999999999999997e-05,0.0,0.0,0.0,0.0,-2e-05,-1e-05,1
1295,1359,-2.9999999999999997e-05,1e-05,-1e-05,0.0,-2e-05,-2e-05,-2e-05,-5.9999999999999995e-05,1
1296,1360,1e-05,1e-05,2e-05,0.0,-2e-05,-2e-05,1e-05,1e-05,1
1297,1361,1e-05,1e-05,2e-05,0.0,-2e-05,-2e-05,1e-05,1e-05,1
1298,1362,1e-05,1e-05,2e-05,0.0,-2e-05,-2e-05,1e-05,1e-05,1
1299,1363,1e-05,1e-05,2e-05,0.0,-2e-05,-2e-05,1e-05,1e-05,1
1300,1364,1e-05,1e-05,2e-05,0.0,-2e-05,-2e-05,1e-05,1e-05,1
1301,1365,1e-05,1e-05,2e-05,0.0,-2e-05,-2e-05,1e-05,1e-05,1
1302,1366,1e-05,1e-05,2e-05,0.0,-2e-05,-2e-05,1e-05,1e-05,1
1303,1367,1e-05,1e-05,2e-05,0.0,-2e-05,-2e-05,1e-05,1e-05,1
1304,1368,1e-05,1e-05,2e-05,0.0,-2e-05,-2e-05,1e-05,1e-05,1
1305,1369,1e-05,1e-05,2e-05,0.0,-2e-05,-2e-05,1e-05,1e-05,1
1306,1370,1e-05,1e-05,2e-05,0.0,-2e-05,-2e-05,1e-05,1e-05,1
1307,1371,1e-05,1e-05,2e-05,0.0,-2e-05,-2e-05,1e-05,1e-05,1
1308,1372,1e-05,1e-05,2e-05,0.0,-2e-05,-2e-05,1e-05,1e-05,1
1309,1373,1e-05,1e-05,2e-05,0.0,-2e-05,-2e-05,1e-05,1e-05,1
1310,1374,1e-05,1e-05,2e-05,0.0,-2e-05,-2e-05,1e-05,1e-05,1
1311,1375,1e-05,1e-05,2e-05,0.0,-2e-05,-2e-05,1e-05,1e-05,1
1312,1376,1e-05,1e-05,2e-05,0.0,-2e-05,-2e-05,1e-05,1e-05,1
1313,1377,1e-05,1e-05,2e-05,0.0,-2e-05,-2e-05,1e-05,1e-05,1
1314,1378,1e-05,1e-05,2e-05,0.0,-2e-05,-2e-05,1e-05,1e-05,1
1315,1379,1e-05,1e-05,2e-05,0.0,-2e-05,-2e-05,1e-05,1e-05,1
1316,1380,1e-05,1e-05,2e-05,0.0,-2e-05,-2e-05,1e-05,1e-05,1
1317,1381,1e-05,1e-05,2e-05,0.0,-2e-05,-2e-05,1e-05,1e-05,1
1318,1382,-1e-05,-2e-05,-2e-05,0.0,0.0,0.0,-2e-05,-1e-05,1
1319,1383,-4e-05,0.0,-1e-05,-1e-05,-2e-05,0.0,0.0,-1e-05,1
1320,1384,-4e-05,0.0,-1e-05,-1e-05,-2e-05,0.0,0.0,-1e-05,1
1321,1385,-4e-05,0.0,-1e-05,-1e-05,-2e-05,0.0,0.0,-1e-05,1
1322,1386,-4e-05,0.0,-1e-05,-1e-05,-2e-05,0.0,0.0,-1e-05,1
1323,1388,-4e-05,0.0,-1e-05,-1e-05,-2e-05,0.0,0.0,-1e-05,1
1324,1389,-4e-05,0.0,-1e-05,-1e-05,-2e-05,0.0,0.0,-1e-05,1
1325,1390,-4e-05,0.0,-1e-05,-1e-05,-2e-05,0.0,0.0,-1e-05,1
1326,1391,-4e-05,0.0,-1e-05,-1e-05,-2e-05,0.0,0.0,-1e-05,1
1327,1392,-4e-05,0.0,-1e-05,-1e-05,-2e-05,0.0,0.0,-1e-05,1
1328,1393,-4e-05,0.0,-1e-05,-1e-05,-2e-05,0.0,0.0,-1e-05,1
1329,1394,-4e-05,0.0,-1e-05,-1e-05,-2e-05,0.0,0.0,-1e-05,1
1330,1395,-4e-05,0.0,-1e-05,-1e-05,-2e-05,0.0,0.0,-1e-05,1
1331,1396,-4e-05,0.0,-1e-05,-1e-05,-2e-05,0.0,0.0,-1e-05,1
1332,1397,-4e-05,0.0,-1e-05,-1e-05,-2e-05,0.0,0.0,-1e-05,1
1333,1398,-4e-05,0.0,-1e-05,-1e-05,-2e-05,0.0,0.0,-1e-05,1
1334,1399,-4e-05,0.0,-1e-05,-1e-05,-2e-05,0.0,0.0,-1e-05,1
1335,1400,-4e-05,0.0,-1e-05,-1e-05,-2e-05,0.0,0.0,-1e-05,1
1336,1401,-4e-05,0.0,-1e-05,-1e-05,-2e-05,0.0,0.0,-1e-05,1
1337,1402,-4e-05,0.0,-1e-05,-1e-05,-2e-05,0.0,0.0,-1e-05,1
1338,1403,-4e-05,0.0,-1e-05,-1e-05,-2e-05,0.0,0.0,-1e-05,1
1339,1404,-4e-05,0.0,-1e-05,-1e-05,-2e-05,0.0,0.0,-1e-05,1
1340,1405,0.0,-1e-05,-2e-05,1e-05,0.0,0.0,-2e-05,-4e-05,1
1341,1406,-2e-05,-4e-05,-1e-05,-2e-05,-2e-05,0.0,-2e-05,-2.9999999999999997e-05,1
1342,1407,-2e-05,-4e-05,-1e-05,-2e-05,-2e-05,0.0,-2e-05,-2.9999999999999997e-05,1
1343,1408,-2e-05,-4e-05,-1e-05,-2e-05,-2e-05,0.0,-2e-05,-2.9999999999999997e-05,1
1344,1409,-2e-05,-4e-05,-1e-05,-2e-05,-2e-05,0.0,-2e-05,-2.9999999999999997e-05,1
1345,1410,-2e-05,-4e-05,-1e-05,-2e-05,-2e-05,0.0,-2e-05,-2.9999999999999997e-05,1
1346,1411,-2e-05,-4e-05,-1e-05,-2e-05,-2e-05,0.0,-2e-05,-2.9999999999999997e-05,1
1347,1412,-2e-05,-4e-05,-1e-05,-2e-05,-2e-05,0.0,-2e-05,-2.9999999999999997e-05,1
1348,1413,-2e-05,-4e-05,-1e-05,-2e-05,-2e-05,0.0,-2e-05,-2.9999999999999997e-05,1
1349,1414,-2e-05,-4e-05,-1e-05,-2e-05,-2e-05,0.0,-2e-05,-2.9999999999999997e-05,1
1350,1415,-2e-05,-4e-05,-1e-05,-2e-05,-2e-05,0.0,-2e-05,-2.9999999999999997e-05,1
1351,1416,-2e-05,-4e-05,-1e-05,-2e-05,-2e-05,0.0,-2e-05,-2.9999999999999997e-05,1
1352,1417,-2e-05,-4e-05,-1e-05,-2e-05,-2e-05,0.0,-2e-05,-2.9999999999999997e-05,1
1353,1418,-2e-05,-4e-05,-1e-05,-2e-05,-2e-05,0.0,-2e-05,-2.9999999999999997e-05,1
1354,1419,-1e-05,2e-05,2e-05,0.0,-2e-05,-1e-05,1e-05,-2e-05,1
1355,1420,0.0,-2.9999999999999997e-05,-2e-05,-1e-05,0.0,-1e-05,0.0,0.0,1
1356,1421,0.0,-2.9999999999999997e-05,-2e-05,-1e-05,0.0,-1e-05,0.0,0.0,1
1357,1422,0.0,-2.9999999999999997e-05,-2e-05,-1e-05,0.0,-1e-05,0.0,0.0,1
1358,1423,0.0,-2.9999999999999997e-05,-2e-05,-1e-05,0.0,-1e-05,0.0,0.0,1
1359,1424,0.0,-2.9999999999999997e-05,-2e-05,-1e-05,0.0,-1e-05,0.0,0.0,1
1360,1425,0.0,-2.9999999999999997e-05,-2e-05,-1e-05,0.0,-1e-05,0.0,0.0,1
1361,1426,0.0,-2.9999999999999997e-05,-2e-05,-1e-05,0.0,-1e-05,0.0,0.0,1
1362,1427,0.0,-2.9999999999999997e-05,-2e-05,-1e-05,0.0,-1e-05,0.0,0.0,1
1363,1428,0.0,-2.9999999999999997e-05,-2e-05,-1e-05,0.0,-1e-05,0.0,0.0,1
1364,1429,0.0,-2.9999999999999997e-05,-2e-05,-1e-05,0.0,-1e-05,0.0,0.0,1
1365,1430,0.0,-2.9999999999999997e-05,-2e-05,-1e-05,0.0,-1e-05,0.0,0.0,1
1366,1431,0.0,-2.9999999999999997e-05,-2e-05,-1e-05,0.0,-1e-05,0.0,0.0,1
1367,1432,0.0,-2.9999999999999997e-05,-2e-05,-1e-05,0.0,-1e-05,0.0,0.0,1
1368,1433,0.0,-2.9999999999999997e-05,-2e-05,-1e-05,0.0,-1e-05,0.0,0.0,1
1369,1434,0.0,-2.9999999999999997e-05,-2e-05,-1e-05,0.0,-1e-05,0.0,0.0,1
1370,1435,0.0,-2.9999999999999997e-05,-2e-05,-1e-05,0.0,-1e-05,0.0,0.0,1
1371,1436,0.0,-2.9999999999999997e-05,-2e-05,-1e-05,0.0,-1e-05,0.0,0.0,1
1372,1438,0.0,-2.9999999999999997e-05,-2e-05,-1e-05,0.0,-1e-05,0.0,0.0,1
1373,1439,0.0,-2.9999999999999997e-05,-2e-05,-1e-05,0.0,-1e-05,0.0,0.0,1
1374,1440,0.0,-2.9999999999999997e-05,-2e-05,-1e-05,0.0,-1e-05,0.0,0.0,1
1375,1441,0.0,-2.9999999999999997e-05,-2e-05,-1e-05,0.0,-1e-05,0.0,0.0,1
1376,1442,-1e-05,-2.9999999999999997e-05,-1e-05,-2e-05,-1e-05,-1e-05,-2e-05,1e-05,1
1377,1443,0.0,1e-05,-2e-05,-1e-05,0.0,-1e-05,-1e-05,0.0,1
1378,1444,0.0,1e-05,-2e-05,-1e-05,0.0,-1e-05,-1e-05,0.0,1
1379,1445,0.0,1e-05,-2e-05,-1e-05,0.0,-1e-05,-1e-05,0.0,1
1380,1446,0.0,1e-05,-2e-05,-1e-05,0.0,-1e-05,-1e-05,0.0,1
1381,1447,0.0,1e-05,-2e-05,-1e-05,0.0,-1e-05,-1e-05,0.0,1
1382,1448,0.0,1e-05,-2e-05,-1e-05,0.0,-1e-05,-1e-05,0.0,1
1383,1449,0.0,1e-05,-2e-05,-1e-05,0.0,-1e-05,-1e-05,0.0,1
1384,1450,0.0,1e-05,-2e-05,-1e-05,0.0,-1e-05,-1e-05,0.0,1
1385,1451,0.0,1e-05,-2e-05,-1e-05,0.0,-1e-05,-1e-05,0.0,1
1386,1452,0.0,1e-05,-2e-05,-1e-05,0.0,-1e-05,-1e-05,0.0,1
1387,1453,0.0,1e-05,-2e-05,-1e-05,0.0,-1e-05,-1e-05,0.0,1
1388,1454,0.0,1e-05,-2e-05,-1e-05,0.0,-1e-05,-1e-05,0.0,1
1389,1455,0.0,1e-05,-2e-05,-1e-05,0.0,-1e-05,-1e-05,0.0,1
1390,1456,0.0,1e-05,-2e-05,-1e-05,0.0,-1e-05,-1e-05,0.0,1
1391,1457,0.0,1e-05,-2e-05,-1e-05,0.0,-1e-05,-1e-05,0.0,1
1392,1458,0.0,1e-05,-2e-05,-1e-05,0.0,-1e-05,-1e-05,0.0,1
1393,1459,0.0,1e-05,-2e-05,-1e-05,0.0,-1e-05,-1e-05,0.0,1
1394,1460,0.0,1e-05,-2e-05,-1e-05,0.0,-1e-05,-1e-05,0.0,1
1395,1461,0.0,1e-05,-2e-05,-1e-05,0.0,-1e-05,-1e-05,0.0,1
1396,1462,0.0,1e-05,-2e-05,-1e-05,0.0,-1e-05,-1e-05,0.0,1
1397,1463,0.0,1e-05,-2e-05,-1e-05,0.0,-1e-05,-1e-05,0.0,1
1398,1464,0.0,1e-05,-2e-05,-1e-05,0.0,-1e-05,-1e-05,0.0,1
1399,1465,-2e-05,0.0,-2e-05,-2e-05,0.0,0.0,-2e-05,0.0,1
1400,1466,2e-05,0.0,0.0,-1e-05,-1e-05,-2.9999999999999997e-05,-1e-05,1e-05,1
1401,1467,2e-05,0.0,0.0,-1e-05,-1e-05,-2.9999999999999997e-05,-1e-05,1e-05,1
1402,1468,2e-05,0.0,0.0,-1e-05,-1e-05,-2.9999999999999997e-05,-1e-05,1e-05,1
1403,1469,2e-05,0.0,0.0,-1e-05,-1e-05,-2.9999999999999997e-05,-1e-05,1e-05,1
1404,1470,2e-05,0.0,0.0,-1e-05,-1e-05,-2.9999999999999997e-05,-1e-05,1e-05,1
1405,1471,2e-05,0.0,0.0,-1e-05,-1e-05,-2.9999999999999997e-05,-1e-05,1e-05,1
1406,1472,2e-05,0.0,0.0,-1e-05,-1e-05,-2.9999999999999997e-05,-1e-05,1e-05,1
1407,1473,2e-05,0.0,0.0,-1e-05,-1e-05,-2.9999999999999997e-05,-1e-05,1e-05,1
1408,1474,2e-05,0.0,0.0,-1e-05,-1e-05,-2.9999999999999997e-05,-1e-05,1e-05,1
1409,1475,2e-05,0.0,0.0,-1e-05,-1e-05,-2.9999999999999997e-05,-1e-05,1e-05,1
1410,1476,2e-05,0.0,0.0,-1e-05,-1e-05,-2.9999999999999997e-05,-1e-05,1e-05,1
1411,1477,2e-05,0.0,0.0,-1e-05,-1e-05,-2.9999999999999997e-05,-1e-05,1e-05,1
1412,1478,2e-05,0.0,0.0,-1e-05,-1e-05,-2.9999999999999997e-05,-1e-05,1e-05,1
1413,1479,2e-05,0.0,0.0,-1e-05,-1e-05,-2.9999999999999997e-05,-1e-05,1e-05,1
1414,1480,-1e-05,0.0,0.0,-1e-05,-1e-05,1e-05,1e-05,-4e-05,1
1415,1481,-1e-05,0.0,0.0,-1e-05,-1e-05,1e-05,1e-05,-4e-05,1
1416,1482,-1e-05,0.0,0.0,-1e-05,-1e-05,1e-05,1e-05,-4e-05,1
1417,1483,-1e-05,0.0,0.0,-1e-05,-1e-05,1e-05,1e-05,-4e-05,1
1418,1485,-1e-05,0.0,0.0,-1e-05,-1e-05,1e-05,1e-05,-4e-05,1
1419,1486,-1e-05,0.0,0.0,-1e-05,-1e-05,1e-05,1e-05,-4e-05,1
1420,1488,-1e-05,0.0,0.0,-1e-05,-1e-05,1e-05,1e-05,-4e-05,1
1421,1489,-1e-05,0.0,0.0,-1e-05,-1e-05,1e-05,1e-05,-4e-05,1
1422,1490,-1e-05,0.0,0.0,-1e-05,-1e-05,1e-05,1e-05,-4e-05,1
1423,1491,-1e-05,0.0,0.0,-1e-05,-1e-05,1e-05,1e-05,-4e-05,1
1424,1492,-1e-05,0.0,0.0,-1e-05,-1e-05,1e-05,1e-05,-4e-05,1
1425,1493,-1e-05,0.0,0.0,-1e-05,-1e-05,1e-05,1e-05,-4e-05,1
1426,1494,-1e-05,0.0,0.0,-1e-05,-1e-05,1e-05,1e-05,-4e-05,1
1427,1495,-1e-05,0.0,0.0,-1e-05,-1e-05,1e-05,1e-05,-4e-05,1
1428,1496,-1e-05,0.0,0.0,-1e-05,-1e-05,1e-05,1e-05,-4e-05,1
1429,1497,-1e-05,0.0,0.0,-1e-05,-1e-05,1e-05,1e-05,-4e-05,1
1430,1498,-1e-05,0.0,0.0,-1e-05,-1e-05,1e-05,1e-05,-4e-05,1
1431,1499,-1e-05,0.0,0.0,-1e-05,-1e-05,1e-05,1e-05,-4e-05,1
1432,1500,-1e-05,0.0,0.0,-1e-05,-1e-05,1e-05,1e-05,-4e-05,1
1433,1501,-1e-05,0.0,0.0,-1e-05,-1e-05,1e-05,1e-05,-4e-05,1
1434,1502,0.0,-1e-05,-5e-05,-1e-05,-1e-05,-1e-05,-2.9999999999999997e-05,-2.9999999999999997e-05,1
1435,1503,-2e-05,-2e-05,-4e-05,-2e-05,1e-05,0.0,-2e-05,1e-05,1
1436,1504,-2e-05,-2e-05,-4e-05,-2e-05,1e-05,0.0,-2e-05,1e-05,1
1437,1505,-2e-05,-2e-05,-4e-05,-2e-05,1e-05,0.0,-2e-05,1e-05,1
1438,1506,-2e-05,-2e-05,-4e-05,-2e-05,1e-05,0.0,-2e-05,1e-05,1
1439,1507,-2e-05,-2e-05,-4e-05,-2e-05,1e-05,0.0,-2e-05,1e-05,1
1440,1508,-2e-05,-2e-05,-4e-05,-2e-05,1e-05,0.0,-2e-05,1e-05,1
1441,1509,-2e-05,-2e-05,-4e-05,-2e-05,1e-05,0.0,-2e-05,1e-05,1
1442,1510,-2e-05,-2e-05,-4e-05,-2e-05,1e-05,0.0,-2e-05,1e-05,1
1443,1511,-2e-05,-2e-05,-4e-05,-2e-05,1e-05,0.0,-2e-05,1e-05,1
1444,1512,-2e-05,-2e-05,-4e-05,-2e-05,1e-05,0.0,-2e-05,1e-05,1
1445,1513,-2e-05,-2e-05,-4e-05,-2e-05,1e-05,0.0,-2e-05,1e-05,1
1446,1514,-2e-05,-2e-05,-4e-05,-2e-05,1e-05,0.0,-2e-05,1e-05,1
1447,1515,-2e-05,-2e-05,-4e-05,-2e-05,1e-05,0.0,-2e-05,1e-05,1
1448,1516,-2e-05,-2e-05,-4e-05,-2e-05,1e-05,0.0,-2e-05,1e-05,1
1449,1517,-2e-05,-2e-05,-4e-05,-2e-05,1e-05,0.0,-2e-05,1e-05,1
1450,1518,-2e-05,-2e-05,-4e-05,-2e-05,1e-05,0.0,-2e-05,1e-05,1
1451,1519,-2e-05,-2e-05,-4e-05,-2e-05,1e-05,0.0,-2e-05,1e-05,1
1452,1520,-2e-05,-2e-05,-4e-05,-2e-05,1e-05,0.0,-2e-05,1e-05,1
1453,1521,-2e-05,-2e-05,-4e-05,-2e-05,1e-05,0.0,-2e-05,1e-05,1
1454,1522,-2e-05,-2e-05,-4e-05,-2e-05,1e-05,0.0,-2e-05,1e-05,1
1455,1523,-2e-05,-2e-05,-4e-05,-2e-05,1e-05,0.0,-2e-05,1e-05,1
1456,1524,-2e-05,-2e-05,-4e-05,-2e-05,1e-05,0.0,-2e-05,1e-05,1
1457,1525,-4e-05,-2e-05,-2.9999999999999997e-05,-2e-05,-2e-05,-2e-05,-1e-05,2e-05,1
1458,1526,-1e-05,0.0,-2e-05,-1e-05,-2e-05,-1e-05,-2.9999999999999997e-05,-1e-05,1
1459,1527,-1e-05,0.0,-2e-05,-1e-05,-2e-05,-1e-05,-2.9999999999999997e-05,-1e-05,1
1460,1528,-1e-05,0.0,-2e-05,-1e-05,-2e-05,-1e-05,-2.9999999999999997e-05,-1e-05,1
1461,1529,-1e-05,0.0,-2e-05,-1e-05,-2e-05,-1e-05,-2.9999999999999997e-05,-1e-05,1
1462,1530,-1e-05,0.0,-2e-05,-1e-05,-2e-05,-1e-05,-2.9999999999999997e-05,-1e-05,1
1463,1531,-1e-05,0.0,-2e-05,-1e-05,-2e-05,-1e-05,-2.9999999999999997e-05,-1e-05,1
1464,1532,-1e-05,0.0,-2e-05,-1e-05,-2e-05,-1e-05,-2.9999999999999997e-05,-1e-05,1
1465,1533,-1e-05,0.0,-2e-05,-1e-05,-2e-05,-1e-05,-2.9999999999999997e-05,-1e-05,1
1466,1534,-1e-05,0.0,-2e-05,-1e-05,-2e-05,-1e-05,-2.9999999999999997e-05,-1e-05,1
1467,1535,-1e-05,0.0,-2e-05,-1e-05,-2e-05,-1e-05,-2.9999999999999997e-05,-1e-05,1
1468,1536,-1e-05,0.0,-2e-05,-1e-05,-2e-05,-1e-05,-2.9999999999999997e-05,-1e-05,1
1469,1538,-1e-05,0.0,-2e-05,-1e-05,-2e-05,-1e-05,-2.9999999999999997e-05,-1e-05,1
1470,1539,-1e-05,-1e-05,-1e-05,-1e-05,-2e-05,-2e-05,-2.9999999999999997e-05,0.0,1
1471,1540,-1e-05,-1e-05,-1e-05,-1e-05,-2e-05,-2e-05,-2.9999999999999997e-05,0.0,1
1472,1541,-1e-05,-1e-05,-1e-05,-1e-05,-2e-05,-2e-05,-2.9999999999999997e-05,0.0,1
1473,1542,-1e-05,-1e-05,-1e-05,-1e-05,-2e-05,-2e-05,-2.9999999999999997e-05,0.0,1
1474,1543,-1e-05,-1e-05,-1e-05,-1e-05,-2e-05,-2e-05,-2.9999999999999997e-05,0.0,1
1475,1544,-1e-05,-1e-05,-1e-05,-1e-05,-2e-05,-2e-05,-2.9999999999999997e-05,0.0,1
1476,1545,-1e-05,-1e-05,-1e-05,-1e-05,-2e-05,-2e-05,-2.9999999999999997e-05,0.0,1
1477,1546,-1e-05,-1e-05,-1e-05,-1e-05,-2e-05,-2e-05,-2.9999999999999997e-05,0.0,1
1478,1547,0.0,-2.9999999999999997e-05,-5e-05,-1e-05,-2e-05,-4e-05,-1e-05,0.0,1
1479,1548,0.0,-2.9999999999999997e-05,-5e-05,-1e-05,-2e-05,-4e-05,-1e-05,0.0,1
1480,1549,0.0,-2.9999999999999997e-05,-5e-05,-1e-05,-2e-05,-4e-05,-1e-05,0.0,1
1481,1550,0.0,-2.9999999999999997e-05,-5e-05,-1e-05,-2e-05,-4e-05,-1e-05,0.0,1
1482,1551,0.0,-2.9999999999999997e-05,-5e-05,-1e-05,-2e-05,-4e-05,-1e-05,0.0,1
1483,1552,0.0,-2.9999999999999997e-05,-5e-05,-1e-05,-2e-05,-4e-05,-1e-05,0.0,1
1484,1553,0.0,-2.9999999999999997e-05,-5e-05,-1e-05,-2e-05,-4e-05,-1e-05,0.0,1
1485,1554,0.0,-2.9999999999999997e-05,-5e-05,-1e-05,-2e-05,-4e-05,-1e-05,0.0,1
1486,1555,0.0,-2.9999999999999997e-05,-5e-05,-1e-05,-2e-05,-4e-05,-1e-05,0.0,1
1487,1556,0.0,-2.9999999999999997e-05,-5e-05,-1e-05,-2e-05,-4e-05,-1e-05,0.0,1
1488,1557,0.0,-2.9999999999999997e-05,-5e-05,-1e-05,-2e-05,-4e-05,-1e-05,0.0,1
1489,1558,0.0,-2.9999999999999997e-05,-5e-05,-1e-05,-2e-05,-4e-05,-1e-05,0.0,1
1490,1559,0.0,-2.9999999999999997e-05,-5e-05,-1e-05,-2e-05,-4e-05,-1e-05,0.0,1
1491,1560,0.0,-2.9999999999999997e-05,-5e-05,-1e-05,-2e-05,-4e-05,-1e-05,0.0,1
1492,1561,1e-05,-1e-05,1e-05,2e-05,0.0,0.0,-1e-05,0.0,1
1493,1562,-2e-05,1e-05,2e-05,-2e-05,-4e-05,-5e-05,1e-05,-1e-05,1
1494,1563,-2e-05,1e-05,2e-05,-2e-05,-4e-05,-5e-05,1e-05,-1e-05,1
1495,1564,-2e-05,1e-05,2e-05,-2e-05,-4e-05,-5e-05,1e-05,-1e-05,1
1496,1565,-2e-05,1e-05,2e-05,-2e-05,-4e-05,-5e-05,1e-05,-1e-05,1
1497,1566,-2e-05,1e-05,2e-05,-2e-05,-4e-05,-5e-05,1e-05,-1e-05,1
1498,1567,-2e-05,1e-05,2e-05,-2e-05,-4e-05,-5e-05,1e-05,-1e-05,1
1499,1568,-2e-05,1e-05,2e-05,-2e-05,-4e-05,-5e-05,1e-05,-1e-05,1
1500,1569,1e-05,0.0,2e-05,-1e-05,-1e-05,0.0,-1e-05,-2e-05,1
1501,1570,1e-05,0.0,2e-05,-1e-05,-1e-05,0.0,-1e-05,-2e-05,1
1502,1571,1e-05,0.0,2e-05,-1e-05,-1e-05,0.0,-1e-05,-2e-05,1
1503,1572,1e-05,0.0,2e-05,-1e-05,-1e-05,0.0,-1e-05,-2e-05,1
1504,1573,1e-05,0.0,2e-05,-1e-05,-1e-05,0.0,-1e-05,-2e-05,1
1505,1574,1e-05,0.0,2e-05,-1e-05,-1e-05,0.0,-1e-05,-2e-05,1
1506,1575,1e-05,0.0,2e-05,-1e-05,-1e-05,0.0,-1e-05,-2e-05,1
1507,1576,1e-05,0.0,2e-05,-1e-05,-1e-05,0.0,-1e-05,-2e-05,1
1508,1577,1e-05,0.0,2e-05,-1e-05,-1e-05,0.0,-1e-05,-2e-05,1
1509,1578,1e-05,0.0,2e-05,-1e-05,-1e-05,0.0,-1e-05,-2e-05,1
1510,1579,1e-05,0.0,2e-05,-1e-05,-1e-05,0.0,-1e-05,-2e-05,1
1511,1580,1e-05,0.0,2e-05,-1e-05,-1e-05,0.0,-1e-05,-2e-05,1
1512,1581,1e-05,0.0,2e-05,-1e-05,-1e-05,0.0,-1e-05,-2e-05,1
1513,1582,1e-05,0.0,2e-05,-1e-05,-1e-05,0.0,-1e-05,-2e-05,1
1514,1583,1e-05,0.0,2e-05,-1e-05,-1e-05,0.0,-1e-05,-2e-05,1
1515,1584,1e-05,0.0,2e-05,-1e-05,-1e-05,0.0,-1e-05,-2e-05,1
1516,1585,-2.9999999999999997e-05,-2e-05,-2.9999999999999997e-05,-2e-05,-2e-05,0.0,-1e-05,0.0,1
1517,1586,-2.9999999999999997e-05,-2.9999999999999997e-05,-2e-05,-1e-05,-4e-05,-5.9999999999999995e-05,-2e-05,0.0,1
1518,1588,-2.9999999999999997e-05,-2.9999999999999997e-05,-2e-05,-1e-05,-4e-05,-5.9999999999999995e-05,-2e-05,0.0,1
1519,1589,-2.9999999999999997e-05,-2.9999999999999997e-05,-2e-05,-1e-05,-4e-05,-5.9999999999999995e-05,-2e-05,0.0,1
1520,1590,-2.9999999999999997e-05,-2.9999999999999997e-05,-2e-05,-1e-05,-4e-05,-5.9999999999999995e-05,-2e-05,0.0,1
1521,1591,-2.9999999999999997e-05,-2.9999999999999997e-05,-2e-05,-1e-05,-4e-05,-5.9999999999999995e-05,-2e-05,0.0,1
1522,1592,-2.9999999999999997e-05,-2.9999999999999997e-05,-2e-05,-1e-05,-4e-05,-5.9999999999999995e-05,-2e-05,0.0,1
1523,1593,-2.9999999999999997e-05,-2.9999999999999997e-05,-2e-05,-1e-05,-4e-05,-5.9999999999999995e-05,-2e-05,0.0,1
1524,1594,-2.9999999999999997e-05,-2.9999999999999997e-05,-2e-05,-1e-05,-4e-05,-5.9999999999999995e-05,-2e-05,0.0,1
1525,1595,-2.9999999999999997e-05,-2.9999999999999997e-05,-2e-05,-1e-05,-4e-05,-5.9999999999999995e-05,-2e-05,0.0,1
1526,1596,-2.9999999999999997e-05,-2.9999999999999997e-05,-2e-05,-1e-05,-4e-05,-5.9999999999999995e-05,-2e-05,0.0,1
1527,1597,-2.9999999999999997e-05,-2.9999999999999997e-05,-2e-05,-1e-05,-4e-05,-5.9999999999999995e-05,-2e-05,0.0,1
1528,1598,-2.9999999999999997e-05,-2.9999999999999997e-05,-2e-05,-1e-05,-4e-05,-5.9999999999999995e-05,-2e-05,0.0,1
1529,1599,-2.9999999999999997e-05,-2.9999999999999997e-05,-2e-05,-1e-05,-4e-05,-5.9999999999999995e-05,-2e-05,0.0,1
1530,1600,-2.9999999999999997e-05,-2.9999999999999997e-05,-2e-05,-1e-05,-4e-05,-5.9999999999999995e-05,-2e-05,0.0,1
1531,1601,-2.9999999999999997e-05,-2.9999999999999997e-05,-2e-05,-1e-05,-4e-05,-5.9999999999999995e-05,-2e-05,0.0,1
1532,1602,-2.9999999999999997e-05,-2.9999999999999997e-05,-2e-05,-1e-05,-4e-05,-5.9999999999999995e-05,-2e-05,0.0,1
1533,1603,-2.9999999999999997e-05,-2.9999999999999997e-05,-2e-05,-1e-05,-4e-05,-5.9999999999999995e-05,-2e-05,0.0,1
1534,1604,-2.9999999999999997e-05,-2.9999999999999997e-05,-2e-05,-1e-05,-4e-05,-5.9999999999999995e-05,-2e-05,0.0,1
1535,1605,-2.9999999999999997e-05,-2.9999999999999997e-05,-2e-05,-1e-05,-4e-05,-5.9999999999999995e-05,-2e-05,0.0,1
1536,1606,-2.9999999999999997e-05,-2.9999999999999997e-05,-2e-05,-1e-05,-4e-05,-5.9999999999999995e-05,-2e-05,0.0,1
1537,1607,0.0,0.0,1e-05,0.0,-2e-05,-1e-05,-2e-05,-2e-05,1
1538,1608,0.0,-1e-05,0.0,0.0,0.0,0.0,0.0,1e-05,1
1539,1609,0.0,2.9999999999999997e-05,1e-05,-1e-05,0.0,1e-05,0.0,0.0,1
1540,1610,0.0,2.9999999999999997e-05,1e-05,-1e-05,0.0,1e-05,0.0,0.0,1
1541,1611,0.0,2.9999999999999997e-05,1e-05,-1e-05,0.0,1e-05,0.0,0.0,1
1542,1612,0.0,2.9999999999999997e-05,1e-05,-1e-05,0.0,1e-05,0.0,0.0,1
1543,1613,0.0,2.9999999999999997e-05,1e-05,-1e-05,0.0,1e-05,0.0,0.0,1
1544,1614,0.0,2.9999999999999997e-05,1e-05,-1e-05,0.0,1e-05,0.0,0.0,1
1545,1615,0.0,2.9999999999999997e-05,1e-05,-1e-05,0.0,1e-05,0.0,0.0,1
1546,1616,0.0,2.9999999999999997e-05,1e-05,-1e-05,0.0,1e-05,0.0,0.0,1
1547,1617,0.0,2.9999999999999997e-05,1e-05,-1e-05,0.0,1e-05,0.0,0.0,1
1548,1618,0.0,2.9999999999999997e-05,1e-05,-1e-05,0.0,1e-05,0.0,0.0,1
1549,1619,0.0,2.9999999999999997e-05,1e-05,-1e-05,0.0,1e-05,0.0,0.0,1
1550,1620,0.0,2.9999999999999997e-05,1e-05,-1e-05,0.0,1e-05,0.0,0.0,1
1551,1621,0.0,2.9999999999999997e-05,1e-05,-1e-05,0.0,1e-05,0.0,0.0,1
1552,1622,-2.9999999999999997e-05,-2.9999999999999997e-05,-2e-05,-1e-05,-2e-05,-2e-05,0.0,-1e-05,1
1553,1623,-1e-05,-1e-05,1e-05,-1e-05,1e-05,2e-05,0.0,-4e-05,1
1554,1624,-1e-05,-1e-05,1e-05,-1e-05,1e-05,2e-05,0.0,-4e-05,1
1555,1625,-1e-05,-1e-05,1e-05,-1e-05,1e-05,2e-05,0.0,-4e-05,1
1556,1626,-1e-05,-1e-05,1e-05,-1e-05,1e-05,2e-05,0.0,-4e-05,1
1557,1627,-1e-05,-1e-05,1e-05,-1e-05,1e-05,2e-05,0.0,-4e-05,1
1558,1628,-1e-05,-1e-05,1e-05,-1e-05,1e-05,2e-05,0.0,-4e-05,1
1559,1629,-1e-05,-1e-05,1e-05,-1e-05,1e-05,2e-05,0.0,-4e-05,1
1560,1630,-1e-05,-1e-05,1e-05,-1e-05,1e-05,2e-05,0.0,-4e-05,1
1561,1631,-1e-05,-1e-05,1e-05,-1e-05,1e-05,2e-05,0.0,-4e-05,1
1562,1632,-1e-05,-1e-05,1e-05,-1e-05,1e-05,2e-05,0.0,-4e-05,1
1563,1633,-1e-05,-1e-05,1e-05,-1e-05,1e-05,2e-05,0.0,-4e-05,1
1564,1634,-1e-05,-1e-05,1e-05,-1e-05,1e-05,2e-05,0.0,-4e-05,1
1565,1635,-1e-05,-1e-05,1e-05,-1e-05,1e-05,2e-05,0.0,-4e-05,1
1566,1636,-1e-05,-1e-05,1e-05,-1e-05,1e-05,2e-05,0.0,-4e-05,1
1567,1638,-1e-05,-1e-05,1e-05,-1e-05,1e-05,2e-05,0.0,-4e-05,1
1568,1639,-1e-05,-1e-05,1e-05,-1e-05,1e-05,2e-05,0.0,-4e-05,1
1569,1640,-1e-05,-1e-05,1e-05,-1e-05,1e-05,2e-05,0.0,-4e-05,1
1570,1641,-1e-05,-1e-05,1e-05,-1e-05,1e-05,2e-05,0.0,-4e-05,1
1571,1642,-1e-05,-1e-05,1e-05,-1e-05,1e-05,2e-05,0.0,-4e-05,1
1572,1643,-1e-05,-1e-05,1e-05,-1e-05,1e-05,2e-05,0.0,-4e-05,1
1573,1644,-1e-05,-1e-05,1e-05,-1e-05,1e-05,2e-05,0.0,-4e-05,1
1574,1645,-1e-05,-1e-05,1e-05,-1e-05,1e-05,2e-05,0.0,-4e-05,1
1575,1646,-1e-05,-1e-05,1e-05,-1e-05,1e-05,2e-05,0.0,-4e-05,1
1576,1647,-1e-05,-1e-05,1e-05,-1e-05,1e-05,2e-05,0.0,-4e-05,1
1577,1648,-1e-05,-1e-05,1e-05,-1e-05,1e-05,2e-05,0.0,-4e-05,1
1578,1649,-1e-05,-1e-05,1e-05,-1e-05,1e-05,2e-05,0.0,-4e-05,1
1579,1650,-1e-05,-1e-05,1e-05,-1e-05,1e-05,2e-05,0.0,-4e-05,1
1580,1651,-1e-05,-1e-05,1e-05,-1e-05,1e-05,2e-05,0.0,-4e-05,1
1581,1652,0.0,-1e-05,1e-05,-1e-05,0.0,0.0,-2e-05,-5e-05,1
1582,1653,-1e-05,0.0,-1e-05,1e-05,0.0,-1e-05,0.0,-2e-05,1
1583,1654,-1e-05,0.0,-1e-05,1e-05,0.0,-1e-05,0.0,-2e-05,1
1584,1655,-1e-05,0.0,-1e-05,1e-05,0.0,-1e-05,0.0,-2e-05,1
1585,1656,-1e-05,0.0,-1e-05,1e-05,0.0,-1e-05,0.0,-2e-05,1
1586,1657,-1e-05,0.0,-1e-05,1e-05,0.0,-1e-05,0.0,-2e-05,1
1587,1658,-1e-05,0.0,-1e-05,1e-05,0.0,-1e-05,0.0,-2e-05,1
1588,1659,-1e-05,0.0,-1e-05,1e-05,0.0,-1e-05,0.0,-2e-05,1
1589,1660,-1e-05,0.0,-1e-05,1e-05,0.0,-1e-05,0.0,-2e-05,1
1590,1661,-1e-05,0.0,-1e-05,1e-05,0.0,-1e-05,0.0,-2e-05,1
1591,1662,-1e-05,0.0,-1e-05,1e-05,0.0,-1e-05,0.0,-2e-05,1
1592,1663,-1e-05,0.0,-1e-05,1e-05,0.0,-1e-05,0.0,-2e-05,1
1593,1664,-1e-05,0.0,-1e-05,1e-05,0.0,-1e-05,0.0,-2e-05,1
1594,1665,-1e-05,0.0,-1e-05,1e-05,0.0,-1e-05,0.0,-2e-05,1
1595,1666,-1e-05,0.0,-1e-05,1e-05,0.0,-1e-05,0.0,-2e-05,1
1596,1667,-1e-05,-2e-05,0.0,1e-05,0.0,-1e-05,-2e-05,-2.9999999999999997e-05,1
1597,1668,-2e-05,1e-05,0.0,0.0,-2e-05,-2e-05,-1e-05,-1e-05,1
1598,1669,-2e-05,1e-05,0.0,0.0,-2e-05,-2e-05,-1e-05,-1e-05,1
1599,1670,-2e-05,1e-05,0.0,0.0,-2e-05,-2e-05,-1e-05,-1e-05,1
1600,1671,-2e-05,1e-05,0.0,0.0,-2e-05,-2e-05,-1e-05,-1e-05,1
1601,1672,-2e-05,1e-05,0.0,0.0,-2e-05,-2e-05,-1e-05,-1e-05,1
1602,1673,-2e-05,1e-05,0.0,0.0,-2e-05,-2e-05,-1e-05,-1e-05,1
1603,1674,-2e-05,1e-05,0.0,0.0,-2e-05,-2e-05,-1e-05,-1e-05,1
1604,1675,-2e-05,1e-05,0.0,0.0,-2e-05,-2e-05,-1e-05,-1e-05,1
1605,1676,-2e-05,1e-05,0.0,0.0,-2e-05,-2e-05,-1e-05,-1e-05,1
1606,1677,-2e-05,1e-05,0.0,0.0,-2e-05,-2e-05,-1e-05,-1e-05,1
1607,1678,-2e-05,1e-05,0.0,0.0,-2e-05,-2e-05,-1e-05,-1e-05,1
1608,1679,-2e-05,1e-05,0.0,0.0,-2e-05,-2e-05,-1e-05,-1e-05,1
1609,1680,-2e-05,1e-05,0.0,0.0,-2e-05,-2e-05,-1e-05,-1e-05,1
1610,1681,-2e-05,1e-05,0.0,0.0,-2e-05,-2e-05,-1e-05,-1e-05,1
1611,1682,1e-05,0.0,-2e-05,-2.9999999999999997e-05,0.0,-2e-05,-2e-05,2e-05,1
1612,1683,-2e-05,-1e-05,0.0,-1e-05,1e-05,2e-05,1e-05,0.0,1
1613,1684,-2e-05,-1e-05,0.0,-1e-05,1e-05,2e-05,1e-05,0.0,1
1614,1685,-2e-05,-1e-05,0.0,-1e-05,1e-05,2e-05,1e-05,0.0,1
1615,1686,-2e-05,-1e-05,0.0,-1e-05,1e-05,2e-05,1e-05,0.0,1
1616,1688,-2e-05,-1e-05,0.0,-1e-05,1e-05,2e-05,1e-05,0.0,1
1617,1689,-2e-05,-1e-05,0.0,-1e-05,1e-05,2e-05,1e-05,0.0,1
1618,1690,-2e-05,-1e-05,0.0,-1e-05,1e-05,2e-05,1e-05,0.0,1
1619,1691,-2e-05,-1e-05,0.0,-1e-05,1e-05,2e-05,1e-05,0.0,1
1620,1692,-2e-05,-1e-05,0.0,-1e-05,1e-05,2e-05,1e-05,0.0,1
1621,1693,-2e-05,-1e-05,0.0,-1e-05,1e-05,2e-05,1e-05,0.0,1
1622,1694,-2e-05,-1e-05,0.0,-1e-05,1e-05,2e-05,1e-05,0.0,1
1623,1695,-2e-05,-1e-05,0.0,-1e-05,1e-05,2e-05,1e-05,0.0,1
1624,1696,-2e-05,-1e-05,0.0,-1e-05,1e-05,2e-05,1e-05,0.0,1
1625,1697,-2e-05,-1e-05,0.0,-1e-05,1e-05,2e-05,1e-05,0.0,1
1626,1698,-2e-05,-1e-05,0.0,-1e-05,1e-05,2e-05,1e-05,0.0,1
1627,1699,-2e-05,-1e-05,0.0,-1e-05,1e-05,2e-05,1e-05,0.0,1
1628,1700,-2e-05,-1e-05,0.0,-1e-05,1e-05,2e-05,1e-05,0.0,1
1629,1701,-2e-05,-1e-05,0.0,-1e-05,1e-05,2e-05,1e-05,0.0,1
1630,1702,-2e-05,-1e-05,0.0,-1e-05,1e-05,2e-05,1e-05,0.0,1
1631,1703,-2e-05,-1e-05,0.0,-1e-05,1e-05,2e-05,1e-05,0.0,1
1632,1704,-2e-05,-1e-05,0.0,-1e-05,1e-05,2e-05,1e-05,0.0,1
1633,1705,-2e-05,-1e-05,0.0,-1e-05,1e-05,2e-05,1e-05,0.0,1
1634,1706,-2e-05,-1e-05,0.0,-1e-05,1e-05,2e-05,1e-05,0.0,1
1635,1707,-2e-05,-1e-05,0.0,-1e-05,1e-05,2e-05,1e-05,0.0,1
1636,1708,-2e-05,-1e-05,0.0,-1e-05,1e-05,2e-05,1e-05,0.0,1
1637,1709,-2e-05,-1e-05,0.0,-1e-05,1e-05,2e-05,1e-05,0.0,1
1638,1710,-2e-05,-1e-05,0.0,-1e-05,1e-05,2e-05,1e-05,0.0,1
1639,1711,-2e-05,-1e-05,0.0,-1e-05,1e-05,2e-05,1e-05,0.0,1
1640,1712,2e-05,1e-05,0.0,-1e-05,-1e-05,-2.9999999999999997e-05,0.0,-5e-05,1
1641,1713,0.0,-1e-05,-1e-05,-1e-05,-1e-05,0.0,-2e-05,-2e-05,1
1642,1714,0.0,-1e-05,-1e-05,-1e-05,-1e-05,0.0,-2e-05,-2e-05,1
1643,1715,0.0,-1e-05,-1e-05,-1e-05,-1e-05,0.0,-2e-05,-2e-05,1
1644,1716,0.0,-1e-05,-1e-05,-1e-05,-1e-05,0.0,-2e-05,-2e-05,1
1645,1717,0.0,-1e-05,-1e-05,-1e-05,-1e-05,0.0,-2e-05,-2e-05,1
1646,1718,2e-05,0.0,0.0,-1e-05,0.0,1e-05,-2.9999999999999997e-05,0.0,1
1647,1719,2e-05,0.0,0.0,-1e-05,0.0,1e-05,-2.9999999999999997e-05,0.0,1
1648,1720,2e-05,0.0,0.0,-1e-05,0.0,1e-05,-2.9999999999999997e-05,0.0,1
1649,1721,2e-05,0.0,0.0,-1e-05,0.0,1e-05,-2.9999999999999997e-05,0.0,1
1650,1722,2e-05,0.0,0.0,-1e-05,0.0,1e-05,-2.9999999999999997e-05,0.0,1
1651,1723,2e-05,0.0,0.0,-1e-05,0.0,1e-05,-2.9999999999999997e-05,0.0,1
1652,1724,2e-05,0.0,0.0,-1e-05,0.0,1e-05,-2.9999999999999997e-05,0.0,1
1653,1725,2e-05,0.0,0.0,-1e-05,0.0,1e-05,-2.9999999999999997e-05,0.0,1
1654,1726,2e-05,0.0,0.0,-1e-05,0.0,1e-05,-2.9999999999999997e-05,0.0,1
1655,1727,-2e-05,0.0,-1e-05,0.0,-1e-05,-2e-05,-1e-05,0.0,1
1656,1728,-2e-05,-2.9999999999999997e-05,0.0,-2e-05,-2e-05,-1e-05,4e-05,1e-05,1
1657,1729,-2e-05,-2.9999999999999997e-05,0.0,-2e-05,-2e-05,-1e-05,4e-05,1e-05,1
1658,1730,-2e-05,-2.9999999999999997e-05,0.0,-2e-05,-2e-05,-1e-05,4e-05,1e-05,1
1659,1731,-2e-05,-2.9999999999999997e-05,0.0,-2e-05,-2e-05,-1e-05,4e-05,1e-05,1
1660,1732,-2e-05,-2.9999999999999997e-05,0.0,-2e-05,-2e-05,-1e-05,4e-05,1e-05,1
1661,1733,-2e-05,-2.9999999999999997e-05,0.0,-2e-05,-2e-05,-1e-05,4e-05,1e-05,1
1662,1734,-2e-05,-2.9999999999999997e-05,0.0,-2e-05,-2e-05,-1e-05,4e-05,1e-05,1
1663,1735,-2e-05,-2.9999999999999997e-05,0.0,-2e-05,-2e-05,-1e-05,4e-05,1e-05,1
1664,1736,-2e-05,-2.9999999999999997e-05,0.0,-2e-05,-2e-05,-1e-05,4e-05,1e-05,1
1665,1738,-2e-05,-2.9999999999999997e-05,0.0,-2e-05,-2e-05,-1e-05,4e-05,1e-05,1
1666,1739,-2e-05,-2.9999999999999997e-05,0.0,-2e-05,-2e-05,-1e-05,4e-05,1e-05,1
1667,1740,-2e-05,-2.9999999999999997e-05,0.0,-2e-05,-2e-05,-1e-05,4e-05,1e-05,1
1668,1741,-2e-05,-2.9999999999999997e-05,0.0,-2e-05,-2e-05,-1e-05,4e-05,1e-05,1
1669,1742,-2e-05,-2.9999999999999997e-05,0.0,-2e-05,-2e-05,-1e-05,4e-05,1e-05,1
1670,1743,-2.9999999999999997e-05,-1e-05,-2.9999999999999997e-05,-1e-05,-2.9999999999999997e-05,0.0,0.0,-5e-05,1
1671,1744,-2.9999999999999997e-05,-1e-05,-2.9999999999999997e-05,-1e-05,-2.9999999999999997e-05,0.0,0.0,-5e-05,1
1672,1745,-2.9999999999999997e-05,-1e-05,-2.9999999999999997e-05,-1e-05,-2.9999999999999997e-05,0.0,0.0,-5e-05,1
1673,1746,-2.9999999999999997e-05,-1e-05,-2.9999999999999997e-05,-1e-05,-2.9999999999999997e-05,0.0,0.0,-5e-05,1
1674,1747,-2.9999999999999997e-05,-1e-05,-2.9999999999999997e-05,-1e-05,-2.9999999999999997e-05,0.0,0.0,-5e-05,1
1675,1748,-2.9999999999999997e-05,-1e-05,-2.9999999999999997e-05,-1e-05,-2.9999999999999997e-05,0.0,0.0,-5e-05,1
1676,1749,-2.9999999999999997e-05,-1e-05,-2.9999999999999997e-05,-1e-05,-2.9999999999999997e-05,0.0,0.0,-5e-05,1
1677,1750,-2.9999999999999997e-05,-1e-05,-2.9999999999999997e-05,-1e-05,-2.9999999999999997e-05,0.0,0.0,-5e-05,1
1678,1751,-2.9999999999999997e-05,-1e-05,-2.9999999999999997e-05,-1e-05,-2.9999999999999997e-05,0.0,0.0,-5e-05,1
1679,1752,-2.9999999999999997e-05,-1e-05,-2.9999999999999997e-05,-1e-05,-2.9999999999999997e-05,0.0,0.0,-5e-05,1
1680,1753,-2.9999999999999997e-05,-1e-05,-2.9999999999999997e-05,-1e-05,-2.9999999999999997e-05,0.0,0.0,-5e-05,1
1681,1754,-2.9999999999999997e-05,-1e-05,-2.9999999999999997e-05,-1e-05,-2.9999999999999997e-05,0.0,0.0,-5e-05,1
1682,1755,-2.9999999999999997e-05,-1e-05,-2.9999999999999997e-05,-1e-05,-2.9999999999999997e-05,0.0,0.0,-5e-05,1
1683,1756,-1e-05,-4e-05,-5e-05,-1e-05,1e-05,1e-05,-2e-05,0.0,1
1684,1757,-1e-05,-4e-05,-5e-05,-1e-05,1e-05,1e-05,-2e-05,0.0,1
1685,1758,-1e-05,-4e-05,-5e-05,-1e-05,1e-05,1e-05,-2e-05,0.0,1
1686,1759,-1e-05,-4e-05,-5e-05,-1e-05,1e-05,1e-05,-2e-05,0.0,1
1687,1760,-1e-05,-4e-05,-5e-05,-1e-05,1e-05,1e-05,-2e-05,0.0,1
1688,1761,-1e-05,-4e-05,-5e-05,-1e-05,1e-05,1e-05,-2e-05,0.0,1
1689,1762,-1e-05,-4e-05,-5e-05,-1e-05,1e-05,1e-05,-2e-05,0.0,1
1690,1763,-1e-05,-4e-05,-5e-05,-1e-05,1e-05,1e-05,-2e-05,0.0,1
1691,1764,-1e-05,-4e-05,-5e-05,-1e-05,1e-05,1e-05,-2e-05,0.0,1
1692,1765,-4e-05,2e-05,4e-05,0.0,1e-05,-1e-05,1e-05,2e-05,1
1693,1766,1e-05,-2e-05,-2.9999999999999997e-05,-2.9999999999999997e-05,-1e-05,-1e-05,-5e-05,-2.9999999999999997e-05,1
1694,1767,-2.9999999999999997e-05,-1e-05,0.0,-1e-05,-1e-05,-2e-05,-4e-05,-2e-05,1
1695,1768,-2.9999999999999997e-05,-1e-05,0.0,-1e-05,-1e-05,-2e-05,-4e-05,-2e-05,1
1696,1769,-2.9999999999999997e-05,-1e-05,0.0,-1e-05,-1e-05,-2e-05,-4e-05,-2e-05,1
1697,1770,-2.9999999999999997e-05,-1e-05,0.0,-1e-05,-1e-05,-2e-05,-4e-05,-2e-05,1
1698,1771,-2.9999999999999997e-05,-1e-05,0.0,-1e-05,-1e-05,-2e-05,-4e-05,-2e-05,1
1699,1772,-2.9999999999999997e-05,-1e-05,0.0,-1e-05,-1e-05,-2e-05,-4e-05,-2e-05,1
1700,1773,-2.9999999999999997e-05,-1e-05,0.0,-1e-05,-1e-05,-2e-05,-4e-05,-2e-05,1
1701,1774,-2.9999999999999997e-05,-1e-05,0.0,-1e-05,-1e-05,-2e-05,-4e-05,-2e-05,1
1702,1775,-2.9999999999999997e-05,-1e-05,0.0,-1e-05,-1e-05,-2e-05,-4e-05,-2e-05,1
1703,1776,-2.9999999999999997e-05,-1e-05,0.0,-1e-05,-1e-05,-2e-05,-4e-05,-2e-05,1
1704,1777,-2.9999999999999997e-05,-1e-05,0.0,-1e-05,-1e-05,-2e-05,-4e-05,-2e-05,1
1705,1778,-2.9999999999999997e-05,-1e-05,0.0,-1e-05,-1e-05,-2e-05,-4e-05,-2e-05,1
1706,1779,0.0,0.0,-2.9999999999999997e-05,-2e-05,0.0,1e-05,-2e-05,-1e-05,1
1707,1780,0.0,0.0,-2.9999999999999997e-05,-2e-05,0.0,1e-05,-2e-05,-1e-05,1
1708,1781,0.0,0.0,-2.9999999999999997e-05,-2e-05,0.0,1e-05,-2e-05,-1e-05,1
1709,1782,0.0,0.0,-2.9999999999999997e-05,-2e-05,0.0,1e-05,-2e-05,-1e-05,1
1710,1783,0.0,0.0,-2.9999999999999997e-05,-2e-05,0.0,1e-05,-2e-05,-1e-05,1
1711,1784,0.0,0.0,-2.9999999999999997e-05,-2e-05,0.0,1e-05,-2e-05,-1e-05,1
1712,1785,0.0,0.0,-2.9999999999999997e-05,-2e-05,0.0,1e-05,-2e-05,-1e-05,1
1713,1786,0.0,0.0,-2.9999999999999997e-05,-2e-05,0.0,1e-05,-2e-05,-1e-05,1
1714,1788,0.0,0.0,-2.9999999999999997e-05,-2e-05,0.0,1e-05,-2e-05,-1e-05,1
1715,1789,0.0,0.0,-2.9999999999999997e-05,-2e-05,0.0,1e-05,-2e-05,-1e-05,1
1716,1790,0.0,0.0,-2.9999999999999997e-05,-2e-05,0.0,1e-05,-2e-05,-1e-05,1
1717,1791,0.0,0.0,-2.9999999999999997e-05,-2e-05,0.0,1e-05,-2e-05,-1e-05,1
1718,1792,0.0,0.0,-2.9999999999999997e-05,-2e-05,0.0,1e-05,-2e-05,-1e-05,1
1719,1793,0.0,0.0,-2.9999999999999997e-05,-2e-05,0.0,1e-05,-2e-05,-1e-05,1
1720,1794,0.0,0.0,-2.9999999999999997e-05,-2e-05,0.0,1e-05,-2e-05,-1e-05,1
1721,1795,0.0,0.0,-2.9999999999999997e-05,-2e-05,0.0,1e-05,-2e-05,-1e-05,1
1722,1796,0.0,0.0,-2.9999999999999997e-05,-2e-05,0.0,1e-05,-2e-05,-1e-05,1
1723,1797,0.0,0.0,-2.9999999999999997e-05,-2e-05,0.0,1e-05,-2e-05,-1e-05,1
1724,1798,0.0,0.0,-2.9999999999999997e-05,-2e-05,0.0,1e-05,-2e-05,-1e-05,1
1725,1799,0.0,0.0,-2.9999999999999997e-05,-2e-05,0.0,1e-05,-2e-05,-1e-05,1
1726,1800,0.0,0.0,-2.9999999999999997e-05,-2e-05,0.0,1e-05,-2e-05,-1e-05,1
1727,1801,0.0,0.0,-2.9999999999999997e-05,-2e-05,0.0,1e-05,-2e-05,-1e-05,1
1728,1802,0.0,0.0,-2.9999999999999997e-05,-2e-05,0.0,1e-05,-2e-05,-1e-05,1
1729,1803,0.0,0.0,-2.9999999999999997e-05,-2e-05,0.0,1e-05,-2e-05,-1e-05,1
1730,1804,0.0,0.0,-2.9999999999999997e-05,-2e-05,0.0,1e-05,-2e-05,-1e-05,1
1731,1805,-2.9999999999999997e-05,-1e-05,0.0,0.0,1e-05,2.9999999999999997e-05,2.9999999999999997e-05,-1e-05,1
1732,1806,-2.9999999999999997e-05,-1e-05,0.0,0.0,1e-05,2.9999999999999997e-05,2.9999999999999997e-05,-1e-05,1
1733,1807,-2.9999999999999997e-05,-1e-05,0.0,0.0,1e-05,2.9999999999999997e-05,2.9999999999999997e-05,-1e-05,1
1734,1808,-2.9999999999999997e-05,-1e-05,0.0,0.0,1e-05,2.9999999999999997e-05,2.9999999999999997e-05,-1e-05,1
1735,1809,1e-05,-4e-05,-2e-05,-1e-05,-2e-05,1e-05,0.0,-2e-05,1
1736,1810,1e-05,-4e-05,-2e-05,-1e-05,-2e-05,1e-05,0.0,-2e-05,1
1737,1811,1e-05,-4e-05,-2e-05,-1e-05,-2e-05,1e-05,0.0,-2e-05,1
1738,1812,1e-05,-4e-05,-2e-05,-1e-05,-2e-05,1e-05,0.0,-2e-05,1
1739,1813,1e-05,-4e-05,-2e-05,-1e-05,-2e-05,1e-05,0.0,-2e-05,1
1740,1814,1e-05,-4e-05,-2e-05,-1e-05,-2e-05,1e-05,0.0,-2e-05,1
1741,1815,1e-05,-4e-05,-2e-05,-1e-05,-2e-05,1e-05,0.0,-2e-05,1
1742,1816,1e-05,-4e-05,-2e-05,-1e-05,-2e-05,1e-05,0.0,-2e-05,1
1743,1817,1e-05,-4e-05,-2e-05,-1e-05,-2e-05,1e-05,0.0,-2e-05,1
1744,1818,1e-05,-4e-05,-2e-05,-1e-05,-2e-05,1e-05,0.0,-2e-05,1
1745,1819,1e-05,-4e-05,-2e-05,-1e-05,-2e-05,1e-05,0.0,-2e-05,1
1746,1820,1e-05,-4e-05,-2e-05,-1e-05,-2e-05,1e-05,0.0,-2e-05,1
1747,1821,1e-05,-4e-05,-2e-05,-1e-05,-2e-05,1e-05,0.0,-2e-05,1
1748,1822,1e-05,-4e-05,-2e-05,-1e-05,-2e-05,1e-05,0.0,-2e-05,1
1749,1823,1e-05,-4e-05,-2e-05,-1e-05,-2e-05,1e-05,0.0,-2e-05,1
1750,1824,1e-05,-4e-05,-2e-05,-1e-05,-2e-05,1e-05,0.0,-2e-05,1
1751,1825,-1e-05,-4e-05,-2e-05,-2e-05,0.0,0.0,-2e-05,-5e-05,1
1752,1826,-1e-05,-4e-05,-2e-05,-2e-05,0.0,0.0,-2e-05,-5e-05,1
1753,1827,0.0,2.9999999999999997e-05,5.9999999999999995e-05,0.0,-1e-05,-1e-05,1e-05,-1e-05,1
1754,1828,0.0,2.9999999999999997e-05,5.9999999999999995e-05,0.0,-1e-05,-1e-05,1e-05,-1e-05,1
1755,1829,0.0,2.9999999999999997e-05,5.9999999999999995e-05,0.0,-1e-05,-1e-05,1e-05,-1e-05,1
1756,1830,0.0,2.9999999999999997e-05,5.9999999999999995e-05,0.0,-1e-05,-1e-05,1e-05,-1e-05,1
1757,1831,0.0,2.9999999999999997e-05,5.9999999999999995e-05,0.0,-1e-05,-1e-05,1e-05,-1e-05,1
1758,1832,0.0,2.9999999999999997e-05,5.9999999999999995e-05,0.0,-1e-05,-1e-05,1e-05,-1e-05,1
1759,1833,0.0,2.9999999999999997e-05,5.9999999999999995e-05,0.0,-1e-05,-1e-05,1e-05,-1e-05,1
1760,1834,0.0,2.9999999999999997e-05,5.9999999999999995e-05,0.0,-1e-05,-1e-05,1e-05,-1e-05,1
1761,1835,0.0,2.9999999999999997e-05,5.9999999999999995e-05,0.0,-1e-05,-1e-05,1e-05,-1e-05,1
1762,1836,0.0,2.9999999999999997e-05,5.9999999999999995e-05,0.0,-1e-05,-1e-05,1e-05,-1e-05,1
1763,1838,0.0,2.9999999999999997e-05,5.9999999999999995e-05,0.0,-1e-05,-1e-05,1e-05,-1e-05,1
1764,1839,0.0,2.9999999999999997e-05,5.9999999999999995e-05,0.0,-1e-05,-1e-05,1e-05,-1e-05,1
1765,1840,0.0,2.9999999999999997e-05,5.9999999999999995e-05,0.0,-1e-05,-1e-05,1e-05,-1e-05,1
1766,1841,0.0,2.9999999999999997e-05,5.9999999999999995e-05,0.0,-1e-05,-1e-05,1e-05,-1e-05,1
1767,1842,0.0,2.9999999999999997e-05,5.9999999999999995e-05,0.0,-1e-05,-1e-05,1e-05,-1e-05,1
1768,1843,0.0,2.9999999999999997e-05,5.9999999999999995e-05,0.0,-1e-05,-1e-05,1e-05,-1e-05,1
1769,1844,0.0,2.9999999999999997e-05,5.9999999999999995e-05,0.0,-1e-05,-1e-05,1e-05,-1e-05,1
1770,1845,0.0,2.9999999999999997e-05,5.9999999999999995e-05,0.0,-1e-05,-1e-05,1e-05,-1e-05,1
1771,1846,0.0,2.9999999999999997e-05,5.9999999999999995e-05,0.0,-1e-05,-1e-05,1e-05,-1e-05,1
1772,1847,-2e-05,-2.9999999999999997e-05,-2.9999999999999997e-05,0.0,0.0,-2e-05,-1e-05,-1e-05,1
1773,1848,-2e-05,-2.9999999999999997e-05,-2.9999999999999997e-05,0.0,0.0,-2e-05,-1e-05,-1e-05,1
1774,1849,1e-05,0.0,0.0,0.0,-1e-05,0.0,1e-05,0.0,1
1775,1850,1e-05,0.0,0.0,0.0,-1e-05,0.0,1e-05,0.0,1
1776,1851,1e-05,0.0,0.0,0.0,-1e-05,0.0,1e-05,0.0,1
1777,1852,1e-05,0.0,0.0,0.0,-1e-05,0.0,1e-05,0.0,1
1778,1853,1e-05,0.0,0.0,0.0,-1e-05,0.0,1e-05,0.0,1
1779,1854,1e-05,0.0,0.0,0.0,-1e-05,0.0,1e-05,0.0,1
1780,1855,1e-05,0.0,0.0,0.0,-1e-05,0.0,1e-05,0.0,1
1781,1856,1e-05,0.0,0.0,0.0,-1e-05,0.0,1e-05,0.0,1
1782,1857,1e-05,0.0,0.0,0.0,-1e-05,0.0,1e-05,0.0,1
1783,1858,1e-05,0.0,0.0,0.0,-1e-05,0.0,1e-05,0.0,1
1784,1859,1e-05,0.0,0.0,0.0,-1e-05,0.0,1e-05,0.0,1
1785,1860,1e-05,0.0,0.0,0.0,-1e-05,0.0,1e-05,0.0,1
1786,1861,-4e-05,-1e-05,1e-05,-1e-05,-2e-05,-1e-05,-2.9999999999999997e-05,-2e-05,1
1787,1862,1e-05,0.0,-1e-05,0.0,-2e-05,0.0,1e-05,1e-05,1
1788,1863,1e-05,0.0,-1e-05,0.0,-2e-05,0.0,1e-05,1e-05,1
1789,1864,1e-05,0.0,-1e-05,0.0,-2e-05,0.0,1e-05,1e-05,1
1790,1865,1e-05,0.0,-1e-05,0.0,-2e-05,0.0,1e-05,1e-05,1
1791,1866,1e-05,0.0,-1e-05,0.0,-2e-05,0.0,1e-05,1e-05,1
1792,1867,1e-05,0.0,-1e-05,0.0,-2e-05,0.0,1e-05,1e-05,1
1793,1868,1e-05,0.0,-1e-05,0.0,-2e-05,0.0,1e-05,1e-05,1
1794,1869,1e-05,0.0,-1e-05,0.0,-2e-05,0.0,1e-05,1e-05,1
1795,1870,-1e-05,-2e-05,-4e-05,-2e-05,-2e-05,0.0,-2e-05,-5e-05,1
1796,1871,-1e-05,-2e-05,-4e-05,-2e-05,-2e-05,0.0,-2e-05,-5e-05,1
1797,1872,-1e-05,-2e-05,-4e-05,-2e-05,-2e-05,0.0,-2e-05,-5e-05,1
1798,1873,-1e-05,-2e-05,-4e-05,-2e-05,-2e-05,0.0,-2e-05,-5e-05,1
1799,1874,-1e-05,-2e-05,-4e-05,-2e-05,-2e-05,0.0,-2e-05,-5e-05,1
1800,1875,-1e-05,-2e-05,-4e-05,-2e-05,-2e-05,0.0,-2e-05,-5e-05,1
1801,1876,-1e-05,-2e-05,-4e-05,-2e-05,-2e-05,0.0,-2e-05,-5e-05,1
1802,1877,-1e-05,-2e-05,-4e-05,-2e-05,-2e-05,0.0,-2e-05,-5e-05,1
1803,1878,-1e-05,-2e-05,-4e-05,-2e-05,-2e-05,0.0,-2e-05,-5e-05,1
1804,1879,-1e-05,-2e-05,-4e-05,-2e-05,-2e-05,0.0,-2e-05,-5e-05,1
1805,1880,-1e-05,-2e-05,-4e-05,-2e-05,-2e-05,0.0,-2e-05,-5e-05,1
1806,1881,-1e-05,-2e-05,-4e-05,-2e-05,-2e-05,0.0,-2e-05,-5e-05,1
1807,1882,-1e-05,-2e-05,-4e-05,-2e-05,-2e-05,0.0,-2e-05,-5e-05,1
1808,1883,-1e-05,-2e-05,-4e-05,-2e-05,-2e-05,0.0,-2e-05,-5e-05,1
1809,1884,-1e-05,-2e-05,-4e-05,-2e-05,-2e-05,0.0,-2e-05,-5e-05,1
1810,1885,-1e-05,1e-05,-2e-05,-1e-05,-2e-05,0.0,-2e-05,0.0,1
1811,1886,-1e-05,1e-05,-2e-05,-1e-05,-2e-05,0.0,-2e-05,0.0,1
1812,1888,0.0,2.9999999999999997e-05,1e-05,1e-05,-1e-05,-1e-05,1e-05,1e-05,1
1813,1889,0.0,2.9999999999999997e-05,1e-05,1e-05,-1e-05,-1e-05,1e-05,1e-05,1
1814,1890,0.0,2.9999999999999997e-05,1e-05,1e-05,-1e-05,-1e-05,1e-05,1e-05,1
1815,1891,0.0,2.9999999999999997e-05,1e-05,1e-05,-1e-05,-1e-05,1e-05,1e-05,1
1816,1892,0.0,2.9999999999999997e-05,1e-05,1e-05,-1e-05,-1e-05,1e-05,1e-05,1
1817,1893,0.0,2.9999999999999997e-05,1e-05,1e-05,-1e-05,-1e-05,1e-05,1e-05,1
1818,1894,0.0,2.9999999999999997e-05,1e-05,1e-05,-1e-05,-1e-05,1e-05,1e-05,1
1819,1895,0.0,2.9999999999999997e-05,1e-05,1e-05,-1e-05,-1e-05,1e-05,1e-05,1
1820,1896,0.0,2.9999999999999997e-05,1e-05,1e-05,-1e-05,-1e-05,1e-05,1e-05,1
1821,1897,0.0,2.9999999999999997e-05,1e-05,1e-05,-1e-05,-1e-05,1e-05,1e-05,1
1822,1898,0.0,2.9999999999999997e-05,1e-05,1e-05,-1e-05,-1e-05,1e-05,1e-05,1
1823,1899,1e-05,0.0,1e-05,-1e-05,2e-05,-2e-05,2e-05,2e-05,1
1824,1900,1e-05,0.0,1e-05,-1e-05,2e-05,-2e-05,2e-05,2e-05,1
1825,1901,1e-05,0.0,1e-05,-1e-05,2e-05,-2e-05,2e-05,2e-05,1
1826,1902,1e-05,0.0,1e-05,-1e-05,2e-05,-2e-05,2e-05,2e-05,1
1827,1903,1e-05,0.0,1e-05,-1e-05,2e-05,-2e-05,2e-05,2e-05,1
1828,1904,1e-05,0.0,1e-05,-1e-05,2e-05,-2e-05,2e-05,2e-05,1
1829,1905,1e-05,0.0,1e-05,-1e-05,2e-05,-2e-05,2e-05,2e-05,1
1830,1906,1e-05,0.0,1e-05,-1e-05,2e-05,-2e-05,2e-05,2e-05,1
1831,1907,-1e-05,-5e-05,-1e-05,0.0,-1e-05,-2.9999999999999997e-05,-2.9999999999999997e-05,-4e-05,1
1832,1908,1e-05,-2e-05,-2.9999999999999997e-05,-1e-05,-2e-05,-1e-05,1e-05,2e-05,1
1833,1909,1e-05,-2e-05,-2.9999999999999997e-05,-1e-05,-2e-05,-1e-05,1e-05,2e-05,1
1834,1910,1e-05,-2e-05,-2.9999999999999997e-05,-1e-05,-2e-05,-1e-05,1e-05,2e-05,1
1835,1911,1e-05,-2e-05,-2.9999999999999997e-05,-1e-05,-2e-05,-1e-05,1e-05,2e-05,1
1836,1912,1e-05,-2e-05,-2.9999999999999997e-05,-1e-05,-2e-05,-1e-05,1e-05,2e-05,1
1837,1913,1e-05,-2e-05,-2.9999999999999997e-05,-1e-05,-2e-05,-1e-05,1e-05,2e-05,1
1838,1914,1e-05,-2e-05,-2.9999999999999997e-05,-1e-05,-2e-05,-1e-05,1e-05,2e-05,1
1839,1915,1e-05,-2e-05,-2.9999999999999997e-05,-1e-05,-2e-05,-1e-05,1e-05,2e-05,1
1840,1916,1e-05,-2e-05,-2.9999999999999997e-05,-1e-05,-2e-05,-1e-05,1e-05,2e-05,1
1841,1917,1e-05,-2e-05,-2.9999999999999997e-05,-1e-05,-2e-05,-1e-05,1e-05,2e-05,1
1842,1918,1e-05,-2e-05,-2.9999999999999997e-05,-1e-05,-2e-05,-1e-05,1e-05,2e-05,1
1843,1919,1e-05,-2e-05,-2.9999999999999997e-05,-1e-05,-2e-05,-1e-05,1e-05,2e-05,1
1844,1920,1e-05,-2e-05,-2.9999999999999997e-05,-1e-05,-2e-05,-1e-05,1e-05,2e-05,1
1845,1921,1e-05,-2e-05,-2.9999999999999997e-05,-1e-05,-2e-05,-1e-05,1e-05,2e-05,1
1846,1922,-1e-05,1e-05,2.9999999999999997e-05,1e-05,-2e-05,-2e-05,0.0,-2e-05,1
1847,1923,-1e-05,1e-05,2.9999999999999997e-05,1e-05,-2e-05,-2e-05,0.0,-2e-05,1
1848,1924,-1e-05,1e-05,2.9999999999999997e-05,1e-05,-2e-05,-2e-05,0.0,-2e-05,1
1849,1925,-1e-05,1e-05,2.9999999999999997e-05,1e-05,-2e-05,-2e-05,0.0,-2e-05,1
1850,1926,-1e-05,1e-05,2.9999999999999997e-05,1e-05,-2e-05,-2e-05,0.0,-2e-05,1
1851,1927,-1e-05,1e-05,2.9999999999999997e-05,1e-05,-2e-05,-2e-05,0.0,-2e-05,1
1852,1928,-1e-05,1e-05,2.9999999999999997e-05,1e-05,-2e-05,-2e-05,0.0,-2e-05,1
1853,1929,-1e-05,1e-05,2.9999999999999997e-05,1e-05,-2e-05,-2e-05,0.0,-2e-05,1
1854,1930,-1e-05,-4e-05,-5e-05,-2e-05,1e-05,0.0,-1e-05,0.0,1
1855,1931,-1e-05,-4e-05,-5e-05,-2e-05,1e-05,0.0,-1e-05,0.0,1
1856,1932,-1e-05,-4e-05,-5e-05,-2e-05,1e-05,0.0,-1e-05,0.0,1
1857,1933,-1e-05,-4e-05,-5e-05,-2e-05,1e-05,0.0,-1e-05,0.0,1
1858,1934,-1e-05,-4e-05,-5e-05,-2e-05,1e-05,0.0,-1e-05,0.0,1
1859,1935,-1e-05,-4e-05,-5e-05,-2e-05,1e-05,0.0,-1e-05,0.0,1
1860,1936,-1e-05,-4e-05,-5e-05,-2e-05,1e-05,0.0,-1e-05,0.0,1
1861,1938,-1e-05,-4e-05,-5e-05,-2e-05,1e-05,0.0,-1e-05,0.0,1
1862,1939,-1e-05,-4e-05,-5e-05,-2e-05,1e-05,0.0,-1e-05,0.0,1
1863,1940,-1e-05,-4e-05,-5e-05,-2e-05,1e-05,0.0,-1e-05,0.0,1
1864,1941,-1e-05,-4e-05,-5e-05,-2e-05,1e-05,0.0,-1e-05,0.0,1
1865,1942,-1e-05,-4e-05,-5e-05,-2e-05,1e-05,0.0,-1e-05,0.0,1
1866,1943,-1e-05,-4e-05,-5e-05,-2e-05,1e-05,0.0,-1e-05,0.0,1
1867,1944,-1e-05,-4e-05,-5e-05,-2e-05,1e-05,0.0,-1e-05,0.0,1
1868,1945,0.0,0.0,-2e-05,-2.9999999999999997e-05,-2.9999999999999997e-05,-2e-05,-0.00014,-2.9999999999999997e-05,1
1869,1946,0.0,0.0,-2e-05,-2.9999999999999997e-05,-2.9999999999999997e-05,-2e-05,-0.00014,-2.9999999999999997e-05,1
1870,1947,-2e-05,1e-05,0.0,1e-05,1e-05,5.9999999999999995e-05,-4e-05,0.0,1
1871,1948,-2e-05,1e-05,0.0,1e-05,1e-05,5.9999999999999995e-05,-4e-05,0.0,1
1872,1949,-2e-05,1e-05,0.0,1e-05,1e-05,5.9999999999999995e-05,-4e-05,0.0,1
1873,1950,-2e-05,1e-05,0.0,1e-05,1e-05,5.9999999999999995e-05,-4e-05,0.0,1
1874,1951,-2e-05,1e-05,0.0,1e-05,1e-05,5.9999999999999995e-05,-4e-05,0.0,1
1875,1952,-2e-05,1e-05,0.0,1e-05,1e-05,5.9999999999999995e-05,-4e-05,0.0,1
1876,1953,-2e-05,1e-05,0.0,1e-05,1e-05,5.9999999999999995e-05,-4e-05,0.0,1
1877,1954,-2e-05,1e-05,0.0,1e-05,1e-05,5.9999999999999995e-05,-4e-05,0.0,1
1878,1955,-2e-05,1e-05,0.0,1e-05,1e-05,5.9999999999999995e-05,-4e-05,0.0,1
1879,1956,-2e-05,1e-05,0.0,1e-05,1e-05,5.9999999999999995e-05,-4e-05,0.0,1
1880,1957,-2e-05,1e-05,0.0,1e-05,1e-05,5.9999999999999995e-05,-4e-05,0.0,1
1881,1958,-2e-05,1e-05,0.0,1e-05,1e-05,5.9999999999999995e-05,-4e-05,0.0,1
1882,1959,-2e-05,1e-05,0.0,1e-05,1e-05,5.9999999999999995e-05,-4e-05,0.0,1
1883,1960,-2e-05,1e-05,0.0,1e-05,1e-05,5.9999999999999995e-05,-4e-05,0.0,1
1884,1961,-2e-05,1e-05,0.0,1e-05,1e-05,5.9999999999999995e-05,-4e-05,0.0,1
1885,1962,-2e-05,1e-05,0.0,1e-05,1e-05,5.9999999999999995e-05,-4e-05,0.0,1
1886,1963,-2e-05,1e-05,0.0,1e-05,1e-05,5.9999999999999995e-05,-4e-05,0.0,1
1887,1964,-2e-05,1e-05,0.0,1e-05,1e-05,5.9999999999999995e-05,-4e-05,0.0,1
1888,1965,-2e-05,1e-05,0.0,1e-05,1e-05,5.9999999999999995e-05,-4e-05,0.0,1
1889,1966,-2e-05,1e-05,0.0,1e-05,1e-05,5.9999999999999995e-05,-4e-05,0.0,1
1890,1967,-1e-05,0.0,0.0,1e-05,-1e-05,-4e-05,0.0,-1e-05,1
1891,1968,-1e-05,-2.9999999999999997e-05,2e-05,0.0,-2e-05,0.0,-2e-05,1e-05,1
1892,1969,0.0,-2e-05,-5.9999999999999995e-05,-2.9999999999999997e-05,-1e-05,0.0,-1e-05,-1e-05,1
1893,1970,0.0,-2e-05,-5.9999999999999995e-05,-2.9999999999999997e-05,-1e-05,0.0,-1e-05,-1e-05,1
1894,1971,0.0,-2e-05,-5.9999999999999995e-05,-2.9999999999999997e-05,-1e-05,0.0,-1e-05,-1e-05,1
1895,1972,0.0,-2e-05,-5.9999999999999995e-05,-2.9999999999999997e-05,-1e-05,0.0,-1e-05,-1e-05,1
1896,1973,0.0,-2e-05,-5.9999999999999995e-05,-2.9999999999999997e-05,-1e-05,0.0,-1e-05,-1e-05,1
1897,1974,0.0,-2e-05,-5.9999999999999995e-05,-2.9999999999999997e-05,-1e-05,0.0,-1e-05,-1e-05,1
1898,1975,0.0,-2e-05,-5.9999999999999995e-05,-2.9999999999999997e-05,-1e-05,0.0,-1e-05,-1e-05,1
1899,1976,0.0,-2e-05,-5.9999999999999995e-05,-2.9999999999999997e-05,-1e-05,0.0,-1e-05,-1e-05,1
1900,1977,0.0,-2e-05,-5.9999999999999995e-05,-2.9999999999999997e-05,-1e-05,0.0,-1e-05,-1e-05,1
1901,1978,0.0,-2e-05,-5.9999999999999995e-05,-2.9999999999999997e-05,-1e-05,0.0,-1e-05,-1e-05,1
1902,1979,0.0,-2e-05,-5.9999999999999995e-05,-2.9999999999999997e-05,-1e-05,0.0,-1e-05,-1e-05,1
1903,1980,0.0,-2e-05,-5.9999999999999995e-05,-2.9999999999999997e-05,-1e-05,0.0,-1e-05,-1e-05,1
1904,1981,0.0,-2e-05,-5.9999999999999995e-05,-2.9999999999999997e-05,-1e-05,0.0,-1e-05,-1e-05,1
1905,1982,0.0,-2e-05,-5.9999999999999995e-05,-2.9999999999999997e-05,-1e-05,0.0,-1e-05,-1e-05,1
1906,1983,0.0,-2e-05,-5.9999999999999995e-05,-2.9999999999999997e-05,-1e-05,0.0,-1e-05,-1e-05,1
1907,1984,0.0,-2e-05,-5.9999999999999995e-05,-2.9999999999999997e-05,-1e-05,0.0,-1e-05,-1e-05,1
1908,1985,0.0,-2e-05,-5.9999999999999995e-05,-2.9999999999999997e-05,-1e-05,0.0,-1e-05,-1e-05,1
1909,1986,0.0,-2e-05,-5.9999999999999995e-05,-2.9999999999999997e-05,-1e-05,0.0,-1e-05,-1e-05,1
1910,1988,0.0,-2e-05,-5.9999999999999995e-05,-2.9999999999999997e-05,-1e-05,0.0,-1e-05,-1e-05,1
1911,1989,0.0,-2e-05,-5.9999999999999995e-05,-2.9999999999999997e-05,-1e-05,0.0,-1e-05,-1e-05,1
1912,1990,-1e-05,0.0,-1e-05,0.0,-1e-05,-1e-05,4e-05,-2e-05,1
1913,1991,-1e-05,0.0,-1e-05,0.0,-1e-05,-1e-05,4e-05,-2e-05,1
1914,1992,1e-05,2e-05,2.9999999999999997e-05,0.0,-1e-05,-2.9999999999999997e-05,2e-05,4e-05,1
1915,1993,1e-05,2e-05,2.9999999999999997e-05,0.0,-1e-05,-2.9999999999999997e-05,2e-05,4e-05,1
1916,1994,1e-05,2e-05,2.9999999999999997e-05,0.0,-1e-05,-2.9999999999999997e-05,2e-05,4e-05,1
1917,1995,1e-05,2e-05,2.9999999999999997e-05,0.0,-1e-05,-2.9999999999999997e-05,2e-05,4e-05,1
1918,1996,1e-05,2e-05,2.9999999999999997e-05,0.0,-1e-05,-2.9999999999999997e-05,2e-05,4e-05,1
1919,1997,1e-05,2e-05,2.9999999999999997e-05,0.0,-1e-05,-2.9999999999999997e-05,2e-05,4e-05,1
1920,1998,1e-05,2e-05,2.9999999999999997e-05,0.0,-1e-05,-2.9999999999999997e-05,2e-05,4e-05,1
1921,1999,1e-05,2e-05,2.9999999999999997e-05,0.0,-1e-05,-2.9999999999999997e-05,2e-05,4e-05,1
1922,2000,1e-05,2e-05,2.9999999999999997e-05,0.0,-1e-05,-2.9999999999999997e-05,2e-05,4e-05,1
1923,2001,1e-05,2e-05,2.9999999999999997e-05,0.0,-1e-05,-2.9999999999999997e-05,2e-05,4e-05,1
1924,2002,1e-05,2e-05,2.9999999999999997e-05,0.0,-1e-05,-2.9999999999999997e-05,2e-05,4e-05,1
1925,2003,1e-05,2e-05,2.9999999999999997e-05,0.0,-1e-05,-2.9999999999999997e-05,2e-05,4e-05,1
1926,2004,1e-05,2e-05,2.9999999999999997e-05,0.0,-1e-05,-2.9999999999999997e-05,2e-05,4e-05,1
1927,2005,-5e-05,-2.9999999999999997e-05,0.0,-2e-05,1e-05,-2e-05,2.9999999999999997e-05,0.0,1
1928,2006,-2e-05,-4e-05,-4e-05,-2.9999999999999997e-05,0.0,0.0,-2e-05,-2e-05,1
1929,2007,0.0,1e-05,2.9999999999999997e-05,-1e-05,-2.9999999999999997e-05,-2.9999999999999997e-05,-5.9999999999999995e-05,1e-05,1
1930,2008,0.0,1e-05,2.9999999999999997e-05,-1e-05,-2.9999999999999997e-05,-2.9999999999999997e-05,-5.9999999999999995e-05,1e-05,1
1931,2009,0.0,1e-05,2.9999999999999997e-05,-1e-05,-2.9999999999999997e-05,-2.9999999999999997e-05,-5.9999999999999995e-05,1e-05,1
1932,2010,0.0,1e-05,2.9999999999999997e-05,-1e-05,-2.9999999999999997e-05,-2.9999999999999997e-05,-5.9999999999999995e-05,1e-05,1
1933,2011,0.0,1e-05,2.9999999999999997e-05,-1e-05,-2.9999999999999997e-05,-2.9999999999999997e-05,-5.9999999999999995e-05,1e-05,1
1934,2012,0.0,1e-05,2.9999999999999997e-05,-1e-05,-2.9999999999999997e-05,-2.9999999999999997e-05,-5.9999999999999995e-05,1e-05,1
1935,2013,0.0,1e-05,2.9999999999999997e-05,-1e-05,-2.9999999999999997e-05,-2.9999999999999997e-05,-5.9999999999999995e-05,1e-05,1
1936,2014,0.0,1e-05,2.9999999999999997e-05,-1e-05,-2.9999999999999997e-05,-2.9999999999999997e-05,-5.9999999999999995e-05,1e-05,1
1937,2015,0.0,1e-05,2.9999999999999997e-05,-1e-05,-2.9999999999999997e-05,-2.9999999999999997e-05,-5.9999999999999995e-05,1e-05,1
1938,2016,0.0,1e-05,2.9999999999999997e-05,-1e-05,-2.9999999999999997e-05,-2.9999999999999997e-05,-5.9999999999999995e-05,1e-05,1
1939,2017,0.0,1e-05,2.9999999999999997e-05,-1e-05,-2.9999999999999997e-05,-2.9999999999999997e-05,-5.9999999999999995e-05,1e-05,1
1940,2018,0.0,1e-05,2.9999999999999997e-05,-1e-05,-2.9999999999999997e-05,-2.9999999999999997e-05,-5.9999999999999995e-05,1e-05,1
1941,2019,0.0,1e-05,2.9999999999999997e-05,-1e-05,-2.9999999999999997e-05,-2.9999999999999997e-05,-5.9999999999999995e-05,1e-05,1
1942,2020,0.0,1e-05,2.9999999999999997e-05,-1e-05,-2.9999999999999997e-05,-2.9999999999999997e-05,-5.9999999999999995e-05,1e-05,1
1943,2021,0.0,1e-05,2.9999999999999997e-05,-1e-05,-2.9999999999999997e-05,-2.9999999999999997e-05,-5.9999999999999995e-05,1e-05,1
1944,2022,0.0,1e-05,2.9999999999999997e-05,-1e-05,-2.9999999999999997e-05,-2.9999999999999997e-05,-5.9999999999999995e-05,1e-05,1
1945,2023,0.0,1e-05,2.9999999999999997e-05,-1e-05,-2.9999999999999997e-05,-2.9999999999999997e-05,-5.9999999999999995e-05,1e-05,1
1946,2024,0.0,1e-05,2.9999999999999997e-05,-1e-05,-2.9999999999999997e-05,-2.9999999999999997e-05,-5.9999999999999995e-05,1e-05,1
1947,2025,0.0,1e-05,2.9999999999999997e-05,-1e-05,-2.9999999999999997e-05,-2.9999999999999997e-05,-5.9999999999999995e-05,1e-05,1
1948,2026,0.0,1e-05,2.9999999999999997e-05,-1e-05,-2.9999999999999997e-05,-2.9999999999999997e-05,-5.9999999999999995e-05,1e-05,1
1949,2027,0.0,1e-05,2.9999999999999997e-05,-1e-05,-2.9999999999999997e-05,-2.9999999999999997e-05,-5.9999999999999995e-05,1e-05,1
1950,2028,0.0,1e-05,2.9999999999999997e-05,-1e-05,-2.9999999999999997e-05,-2.9999999999999997e-05,-5.9999999999999995e-05,1e-05,1
1951,2029,0.0,1e-05,2.9999999999999997e-05,-1e-05,-2.9999999999999997e-05,-2.9999999999999997e-05,-5.9999999999999995e-05,1e-05,1
1952,2030,0.0,1e-05,2.9999999999999997e-05,-1e-05,-2.9999999999999997e-05,-2.9999999999999997e-05,-5.9999999999999995e-05,1e-05,1
1953,2031,0.0,1e-05,2.9999999999999997e-05,-1e-05,-2.9999999999999997e-05,-2.9999999999999997e-05,-5.9999999999999995e-05,1e-05,1
1954,2032,0.0,1e-05,2.9999999999999997e-05,-1e-05,-2.9999999999999997e-05,-2.9999999999999997e-05,-5.9999999999999995e-05,1e-05,1
1955,2033,0.0,1e-05,2.9999999999999997e-05,-1e-05,-2.9999999999999997e-05,-2.9999999999999997e-05,-5.9999999999999995e-05,1e-05,1
1956,2034,0.0,1e-05,2.9999999999999997e-05,-1e-05,-2.9999999999999997e-05,-2.9999999999999997e-05,-5.9999999999999995e-05,1e-05,1
1957,2035,1e-05,-1e-05,-2e-05,1e-05,0.0,1e-05,-4e-05,-1e-05,1
1958,2036,1e-05,-1e-05,-2e-05,1e-05,0.0,1e-05,-4e-05,-1e-05,1
1959,2038,-1e-05,-1e-05,-2e-05,0.0,-1e-05,-2e-05,8e-05,0.0,1
1960,2039,-1e-05,-1e-05,-2e-05,0.0,-1e-05,-2e-05,8e-05,0.0,1
1961,2040,-1e-05,-1e-05,-2e-05,0.0,-1e-05,-2e-05,8e-05,0.0,1
1962,2041,-1e-05,-1e-05,-2e-05,0.0,-1e-05,-2e-05,8e-05,0.0,1
1963,2042,2e-05,0.0,-1e-05,1e-05,1e-05,2.9999999999999997e-05,-2e-05,0.0,1
1964,2043,2e-05,0.0,-1e-05,1e-05,1e-05,2.9999999999999997e-05,-2e-05,0.0,1
1965,2044,2e-05,0.0,-1e-05,1e-05,1e-05,2.9999999999999997e-05,-2e-05,0.0,1
1966,2045,2e-05,0.0,-1e-05,1e-05,1e-05,2.9999999999999997e-05,-2e-05,0.0,1
1967,2046,2e-05,0.0,-1e-05,1e-05,1e-05,2.9999999999999997e-05,-2e-05,0.0,1
1968,2047,2e-05,0.0,-1e-05,1e-05,1e-05,2.9999999999999997e-05,-2e-05,0.0,1
1969,2048,2e-05,0.0,-1e-05,1e-05,1e-05,2.9999999999999997e-05,-2e-05,0.0,1
1970,2049,-4e-05,-2.9999999999999997e-05,-1e-05,-2e-05,-2e-05,-2.9999999999999997e-05,-1e-05,-5e-05,1
1971,2050,-4e-05,-2.9999999999999997e-05,-1e-05,-2e-05,-2e-05,-2.9999999999999997e-05,-1e-05,-5e-05,1
1972,2051,-4e-05,-2.9999999999999997e-05,-1e-05,-2e-05,-2e-05,-2.9999999999999997e-05,-1e-05,-5e-05,1
1973,2052,-4e-05,-2.9999999999999997e-05,-1e-05,-2e-05,-2e-05,-2.9999999999999997e-05,-1e-05,-5e-05,1
1974,2053,-4e-05,-2.9999999999999997e-05,-1e-05,-2e-05,-2e-05,-2.9999999999999997e-05,-1e-05,-5e-05,1
1975,2054,-4e-05,-2.9999999999999997e-05,-1e-05,-2e-05,-2e-05,-2.9999999999999997e-05,-1e-05,-5e-05,1
1976,2055,-4e-05,-2.9999999999999997e-05,-1e-05,-2e-05,-2e-05,-2.9999999999999997e-05,-1e-05,-5e-05,1
1977,2056,-4e-05,-2.9999999999999997e-05,-1e-05,-2e-05,-2e-05,-2.9999999999999997e-05,-1e-05,-5e-05,1
1978,2057,-4e-05,-2.9999999999999997e-05,-1e-05,-2e-05,-2e-05,-2.9999999999999997e-05,-1e-05,-5e-05,1
1979,2058,-4e-05,-2.9999999999999997e-05,-1e-05,-2e-05,-2e-05,-2.9999999999999997e-05,-1e-05,-5e-05,1
1980,2059,-4e-05,-2.9999999999999997e-05,-1e-05,-2e-05,-2e-05,-2.9999999999999997e-05,-1e-05,-5e-05,1
1981,2060,-4e-05,-2.9999999999999997e-05,-1e-05,-2e-05,-2e-05,-2.9999999999999997e-05,-1e-05,-5e-05,1
1982,2061,-4e-05,-2.9999999999999997e-05,-1e-05,-2e-05,-2e-05,-2.9999999999999997e-05,-1e-05,-5e-05,1
1983,2062,-4e-05,-2.9999999999999997e-05,-1e-05,-2e-05,-2e-05,-2.9999999999999997e-05,-1e-05,-5e-05,1
1984,2063,-4e-05,-2.9999999999999997e-05,-1e-05,-2e-05,-2e-05,-2.9999999999999997e-05,-1e-05,-5e-05,1
1985,2064,-4e-05,-2.9999999999999997e-05,-1e-05,-2e-05,-2e-05,-2.9999999999999997e-05,-1e-05,-5e-05,1
1986,2065,-2e-05,0.0,-2.9999999999999997e-05,-1e-05,-1e-05,1e-05,1e-05,-2.9999999999999997e-05,1
1987,2066,0.0,-2.9999999999999997e-05,-2.9999999999999997e-05,-1e-05,0.0,-2.9999999999999997e-05,-1e-05,4e-05,1
1988,2067,0.0,-2.9999999999999997e-05,-2.9999999999999997e-05,-1e-05,0.0,-2.9999999999999997e-05,-1e-05,4e-05,1
1989,2068,0.0,-2.9999999999999997e-05,-2.9999999999999997e-05,-1e-05,0.0,-2.9999999999999997e-05,-1e-05,4e-05,1
1990,2069,0.0,-2.9999999999999997e-05,-2.9999999999999997e-05,-1e-05,0.0,-2.9999999999999997e-05,-1e-05,4e-05,1
1991,2070,0.0,-2.9999999999999997e-05,-2.9999999999999997e-05,-1e-05,0.0,-2.9999999999999997e-05,-1e-05,4e-05,1
1992,2071,0.0,-2.9999999999999997e-05,-2.9999999999999997e-05,-1e-05,0.0,-2.9999999999999997e-05,-1e-05,4e-05,1
1993,2072,0.0,-2.9999999999999997e-05,-2.9999999999999997e-05,-1e-05,0.0,-2.9999999999999997e-05,-1e-05,4e-05,1
1994,2073,0.0,-2.9999999999999997e-05,-2.9999999999999997e-05,-1e-05,0.0,-2.9999999999999997e-05,-1e-05,4e-05,1
1995,2074,0.0,-2.9999999999999997e-05,-2.9999999999999997e-05,-1e-05,0.0,-2.9999999999999997e-05,-1e-05,4e-05,1
1996,2075,0.0,-2.9999999999999997e-05,-2.9999999999999997e-05,-1e-05,0.0,-2.9999999999999997e-05,-1e-05,4e-05,1
1997,2076,0.0,-2.9999999999999997e-05,-2.9999999999999997e-05,-1e-05,0.0,-2.9999999999999997e-05,-1e-05,4e-05,1
1998,2077,0.0,-2.9999999999999997e-05,-2.9999999999999997e-05,-1e-05,0.0,-2.9999999999999997e-05,-1e-05,4e-05,1
1999,2078,0.0,-2.9999999999999997e-05,-2.9999999999999997e-05,-1e-05,0.0,-2.9999999999999997e-05,-1e-05,4e-05,1
2000,2079,0.0,-2.9999999999999997e-05,-2.9999999999999997e-05,-1e-05,0.0,-2.9999999999999997e-05,-1e-05,4e-05,1
2001,2080,0.0,-2.9999999999999997e-05,-2.9999999999999997e-05,-1e-05,0.0,-2.9999999999999997e-05,-1e-05,4e-05,1
2002,2081,0.0,-2.9999999999999997e-05,-2.9999999999999997e-05,-1e-05,0.0,-2.9999999999999997e-05,-1e-05,4e-05,1
2003,2082,0.0,-2.9999999999999997e-05,-2.9999999999999997e-05,-1e-05,0.0,-2.9999999999999997e-05,-1e-05,4e-05,1
2004,2083,0.0,-2.9999999999999997e-05,-2.9999999999999997e-05,-1e-05,0.0,-2.9999999999999997e-05,-1e-05,4e-05,1
2005,2084,0.0,-2.9999999999999997e-05,-2.9999999999999997e-05,-1e-05,0.0,-2.9999999999999997e-05,-1e-05,4e-05,1
2006,2085,0.0,-2.9999999999999997e-05,-2.9999999999999997e-05,-1e-05,0.0,-2.9999999999999997e-05,-1e-05,4e-05,1
2007,2086,0.0,-2.9999999999999997e-05,-2.9999999999999997e-05,-1e-05,0.0,-2.9999999999999997e-05,-1e-05,4e-05,1
2008,2088,0.0,-2.9999999999999997e-05,-4e-05,-2e-05,-1e-05,-2.9999999999999997e-05,1e-05,1e-05,1
2009,2089,-2.9999999999999997e-05,-2.9999999999999997e-05,-2e-05,-2e-05,-5.9999999999999995e-05,-0.00011,-2.9999999999999997e-05,-5.9999999999999995e-05,1
2010,2090,-2.9999999999999997e-05,-2.9999999999999997e-05,-2e-05,-2e-05,-5.9999999999999995e-05,-0.00011,-2.9999999999999997e-05,-5.9999999999999995e-05,1
2011,2091,-2.9999999999999997e-05,-2.9999999999999997e-05,-2e-05,-2e-05,-5.9999999999999995e-05,-0.00011,-2.9999999999999997e-05,-5.9999999999999995e-05,1
2012,2092,-2.9999999999999997e-05,-2.9999999999999997e-05,-2e-05,-2e-05,-5.9999999999999995e-05,-0.00011,-2.9999999999999997e-05,-5.9999999999999995e-05,1
2013,2093,-2.9999999999999997e-05,-2.9999999999999997e-05,-2e-05,-2e-05,-5.9999999999999995e-05,-0.00011,-2.9999999999999997e-05,-5.9999999999999995e-05,1
2014,2094,-2.9999999999999997e-05,-2.9999999999999997e-05,-2e-05,-2e-05,-5.9999999999999995e-05,-0.00011,-2.9999999999999997e-05,-5.9999999999999995e-05,1
2015,2095,-2.9999999999999997e-05,-2.9999999999999997e-05,-2e-05,-2e-05,-5.9999999999999995e-05,-0.00011,-2.9999999999999997e-05,-5.9999999999999995e-05,1
2016,2096,-2.9999999999999997e-05,-2.9999999999999997e-05,-2e-05,-2e-05,-5.9999999999999995e-05,-0.00011,-2.9999999999999997e-05,-5.9999999999999995e-05,1
2017,2097,-2.9999999999999997e-05,-2.9999999999999997e-05,-2e-05,-2e-05,-5.9999999999999995e-05,-0.00011,-2.9999999999999997e-05,-5.9999999999999995e-05,1
2018,2098,-2.9999999999999997e-05,-2.9999999999999997e-05,-2e-05,-2e-05,-5.9999999999999995e-05,-0.00011,-2.9999999999999997e-05,-5.9999999999999995e-05,1
2019,2099,-2.9999999999999997e-05,-2.9999999999999997e-05,-2e-05,-2e-05,-5.9999999999999995e-05,-0.00011,-2.9999999999999997e-05,-5.9999999999999995e-05,1
2020,2100,-2.9999999999999997e-05,-2.9999999999999997e-05,-2e-05,-2e-05,-5.9999999999999995e-05,-0.00011,-2.9999999999999997e-05,-5.9999999999999995e-05,1
2021,2101,-2.9999999999999997e-05,-2.9999999999999997e-05,-2e-05,-2e-05,-5.9999999999999995e-05,-0.00011,-2.9999999999999997e-05,-5.9999999999999995e-05,1
2022,2102,-2e-05,-1e-05,-2.9999999999999997e-05,-2e-05,-2e-05,-1e-05,1e-05,1e-05,1
2023,2103,-2e-05,-1e-05,-2.9999999999999997e-05,-2e-05,-2e-05,-1e-05,1e-05,1e-05,1
2024,2104,-2e-05,-1e-05,-2.9999999999999997e-05,-2e-05,-2e-05,-1e-05,1e-05,1e-05,1
2025,2105,-2e-05,-1e-05,-2.9999999999999997e-05,-2e-05,-2e-05,-1e-05,1e-05,1e-05,1
2026,2106,-2e-05,-1e-05,-2.9999999999999997e-05,-2e-05,-2e-05,-1e-05,1e-05,1e-05,1
2027,2107,-2e-05,-1e-05,-2.9999999999999997e-05,-2e-05,-2e-05,-1e-05,1e-05,1e-05,1
2028,2108,-2e-05,-1e-05,-2.9999999999999997e-05,-2e-05,-2e-05,-1e-05,1e-05,1e-05,1
2029,2109,-2e-05,-1e-05,-2.9999999999999997e-05,-2e-05,-2e-05,-1e-05,1e-05,1e-05,1
2030,2110,-2e-05,-1e-05,-2.9999999999999997e-05,-2e-05,-2e-05,-1e-05,1e-05,1e-05,1
2031,2111,-2e-05,-1e-05,-2.9999999999999997e-05,-2e-05,-2e-05,-1e-05,1e-05,1e-05,1
2032,2112,-2e-05,-1e-05,-2.9999999999999997e-05,-2e-05,-2e-05,-1e-05,1e-05,1e-05,1
2033,2113,-2e-05,-1e-05,-2.9999999999999997e-05,-2e-05,-2e-05,-1e-05,1e-05,1e-05,1
2034,2114,-2e-05,-1e-05,-2.9999999999999997e-05,-2e-05,-2e-05,-1e-05,1e-05,1e-05,1
2035,2115,-2e-05,-1e-05,-2.9999999999999997e-05,-2e-05,-2e-05,-1e-05,1e-05,1e-05,1
2036,2116,-1e-05,1e-05,0.0,0.0,2e-05,2e-05,-2e-05,-5e-05,1
2037,2117,-1e-05,1e-05,0.0,0.0,2e-05,2e-05,-2e-05,-5e-05,1
2038,2118,-1e-05,1e-05,0.0,0.0,2e-05,2e-05,-2e-05,-5e-05,1
2039,2119,-1e-05,1e-05,0.0,0.0,2e-05,2e-05,-2e-05,-5e-05,1
2040,2120,-1e-05,1e-05,0.0,0.0,2e-05,2e-05,-2e-05,-5e-05,1
2041,2121,-1e-05,1e-05,0.0,0.0,2e-05,2e-05,-2e-05,-5e-05,1
2042,2122,-1e-05,1e-05,0.0,0.0,2e-05,2e-05,-2e-05,-5e-05,1
2043,2123,-1e-05,1e-05,0.0,0.0,2e-05,2e-05,-2e-05,-5e-05,1
2044,2124,-1e-05,1e-05,0.0,0.0,2e-05,2e-05,-2e-05,-5e-05,1
2045,2125,-1e-05,1e-05,0.0,0.0,2e-05,2e-05,-2e-05,-5e-05,1
2046,2126,-1e-05,1e-05,0.0,0.0,2e-05,2e-05,-2e-05,-5e-05,1
2047,2127,-1e-05,1e-05,0.0,0.0,2e-05,2e-05,-2e-05,-5e-05,1
2048,2128,-1e-05,1e-05,0.0,0.0,2e-05,2e-05,-2e-05,-5e-05,1
2049,2129,-1e-05,1e-05,0.0,0.0,2e-05,2e-05,-2e-05,-5e-05,1
2050,2130,-1e-05,1e-05,0.0,0.0,2e-05,2e-05,-2e-05,-5e-05,1
2051,2131,-1e-05,1e-05,0.0,0.0,2e-05,2e-05,-2e-05,-5e-05,1
2052,2132,-1e-05,-1e-05,1e-05,-2.9999999999999997e-05,-2e-05,-1e-05,2.9999999999999997e-05,-1e-05,1
2053,2133,-1e-05,-1e-05,1e-05,-2.9999999999999997e-05,-2e-05,-1e-05,2.9999999999999997e-05,-1e-05,1
2054,2134,-2e-05,-2.9999999999999997e-05,-2.9999999999999997e-05,0.0,-1e-05,0.0,5.9999999999999995e-05,0.0,1
2055,2135,-2e-05,-2.9999999999999997e-05,-2.9999999999999997e-05,0.0,-1e-05,0.0,5.9999999999999995e-05,0.0,1
2056,2136,-2e-05,-2.9999999999999997e-05,-2.9999999999999997e-05,0.0,-1e-05,0.0,5.9999999999999995e-05,0.0,1
2057,2138,-2e-05,-2.9999999999999997e-05,-2.9999999999999997e-05,0.0,-1e-05,0.0,5.9999999999999995e-05,0.0,1
2058,2139,-2e-05,-2.9999999999999997e-05,-2.9999999999999997e-05,0.0,-1e-05,0.0,5.9999999999999995e-05,0.0,1
2059,2140,-2e-05,-2.9999999999999997e-05,-2.9999999999999997e-05,0.0,-1e-05,0.0,5.9999999999999995e-05,0.0,1
2060,2141,-2e-05,-2.9999999999999997e-05,-2.9999999999999997e-05,0.0,-1e-05,0.0,5.9999999999999995e-05,0.0,1
2061,2142,-2e-05,-2.9999999999999997e-05,-2.9999999999999997e-05,0.0,-1e-05,0.0,5.9999999999999995e-05,0.0,1
2062,2143,-2e-05,-2.9999999999999997e-05,-2.9999999999999997e-05,0.0,-1e-05,0.0,5.9999999999999995e-05,0.0,1
2063,2144,-2e-05,-2.9999999999999997e-05,-2.9999999999999997e-05,0.0,-1e-05,0.0,5.9999999999999995e-05,0.0,1
2064,2145,-2e-05,-2.9999999999999997e-05,-2.9999999999999997e-05,0.0,-1e-05,0.0,5.9999999999999995e-05,0.0,1
2065,2146,-2e-05,-2.9999999999999997e-05,-2.9999999999999997e-05,0.0,-1e-05,0.0,5.9999999999999995e-05,0.0,1
2066,2147,-2e-05,-2.9999999999999997e-05,-2.9999999999999997e-05,0.0,-1e-05,0.0,5.9999999999999995e-05,0.0,1
2067,2148,0.0,-1e-05,-2.9999999999999997e-05,0.0,-2e-05,-2.9999999999999997e-05,-2e-05,-4e-05,1
2068,2149,-1e-05,-2e-05,-1e-05,-2e-05,-1e-05,0.0,-2.9999999999999997e-05,-1e-05,1
2069,2150,-1e-05,-2e-05,-1e-05,-2e-05,-1e-05,0.0,-2.9999999999999997e-05,-1e-05,1
2070,2151,-1e-05,-2e-05,-1e-05,-2e-05,-1e-05,0.0,-2.9999999999999997e-05,-1e-05,1
2071,2152,-1e-05,-2e-05,-1e-05,-2e-05,-1e-05,0.0,-2.9999999999999997e-05,-1e-05,1
2072,2153,-1e-05,-2e-05,-1e-05,-2e-05,-1e-05,0.0,-2.9999999999999997e-05,-1e-05,1
2073,2154,-1e-05,-2e-05,-1e-05,-2e-05,-1e-05,0.0,-2.9999999999999997e-05,-1e-05,1
2074,2155,-1e-05,-2e-05,-1e-05,-2e-05,-1e-05,0.0,-2.9999999999999997e-05,-1e-05,1
2075,2156,-1e-05,-2e-05,-1e-05,-2e-05,-1e-05,0.0,-2.9999999999999997e-05,-1e-05,1
2076,2157,-1e-05,-2e-05,-1e-05,-2e-05,-1e-05,0.0,-2.9999999999999997e-05,-1e-05,1
2077,2158,-1e-05,-2e-05,-1e-05,-2e-05,-1e-05,0.0,-2.9999999999999997e-05,-1e-05,1
2078,2159,-1e-05,-2e-05,-1e-05,-2e-05,-1e-05,0.0,-2.9999999999999997e-05,-1e-05,1
2079,2160,-1e-05,-2e-05,-1e-05,-2e-05,-1e-05,0.0,-2.9999999999999997e-05,-1e-05,1
2080,2161,-1e-05,-2e-05,-1e-05,-2e-05,-1e-05,0.0,-2.9999999999999997e-05,-1e-05,1
2081,2162,-1e-05,-2e-05,-1e-05,-2e-05,-1e-05,0.0,-2.9999999999999997e-05,-1e-05,1
2082,2163,1e-05,1e-05,-1e-05,-1e-05,-1e-05,0.0,1e-05,1e-05,1
2083,2164,1e-05,1e-05,-1e-05,-1e-05,-1e-05,0.0,1e-05,1e-05,1
2084,2165,1e-05,1e-05,-1e-05,-1e-05,-1e-05,0.0,1e-05,1e-05,1
2085,2166,1e-05,1e-05,-1e-05,-1e-05,-1e-05,0.0,1e-05,1e-05,1
2086,2167,1e-05,1e-05,-1e-05,-1e-05,-1e-05,0.0,1e-05,1e-05,1
2087,2168,1e-05,1e-05,-1e-05,-1e-05,-1e-05,0.0,1e-05,1e-05,1
2088,2169,1e-05,1e-05,-1e-05,-1e-05,-1e-05,0.0,1e-05,1e-05,1
2089,2170,1e-05,1e-05,-1e-05,-1e-05,-1e-05,0.0,1e-05,1e-05,1
2090,2171,1e-05,1e-05,-1e-05,-1e-05,-1e-05,0.0,1e-05,1e-05,1
2091,2172,1e-05,1e-05,-1e-05,-1e-05,-1e-05,0.0,1e-05,1e-05,1
2092,2173,1e-05,1e-05,-1e-05,-1e-05,-1e-05,0.0,1e-05,1e-05,1
2093,2174,1e-05,1e-05,-1e-05,-1e-05,-1e-05,0.0,1e-05,1e-05,1
2094,2175,1e-05,1e-05,-1e-05,-1e-05,-1e-05,0.0,1e-05,1e-05,1
2095,2176,-1e-05,-1e-05,2e-05,0.0,1e-05,0.0,-5e-05,-1e-05,1
2096,2177,-1e-05,-1e-05,2e-05,0.0,1e-05,0.0,-5e-05,-1e-05,1
2097,2178,-1e-05,-1e-05,2e-05,0.0,1e-05,0.0,-5e-05,-1e-05,1
2098,2179,-1e-05,-1e-05,2e-05,0.0,1e-05,0.0,-5e-05,-1e-05,1
2099,2180,-1e-05,-1e-05,2e-05,0.0,1e-05,0.0,-5e-05,-1e-05,1
2100,2181,-1e-05,-1e-05,2e-05,0.0,1e-05,0.0,-5e-05,-1e-05,1
2101,2182,-1e-05,-1e-05,2e-05,0.0,1e-05,0.0,-5e-05,-1e-05,1
2102,2183,-1e-05,-1e-05,2e-05,0.0,1e-05,0.0,-5e-05,-1e-05,1
2103,2184,-1e-05,-1e-05,2e-05,0.0,1e-05,0.0,-5e-05,-1e-05,1
2104,2185,0.0,-2e-05,-1e-05,-2e-05,-2e-05,0.0,-2e-05,-1e-05,1
2105,2186,0.0,-2e-05,-1e-05,-2e-05,-2e-05,0.0,-2e-05,-1e-05,1
2106,2188,-2e-05,-1e-05,-2e-05,-2e-05,-1e-05,1e-05,-2.9999999999999997e-05,0.0,1
2107,2189,-2e-05,-1e-05,-2e-05,-2e-05,-1e-05,1e-05,-2.9999999999999997e-05,0.0,1
2108,2190,-2e-05,-1e-05,-2e-05,-2e-05,-1e-05,1e-05,-2.9999999999999997e-05,0.0,1
2109,2191,-2e-05,-1e-05,-2e-05,-2e-05,-1e-05,1e-05,-2.9999999999999997e-05,0.0,1
2110,2192,-2e-05,-1e-05,-2e-05,-2e-05,-1e-05,1e-05,-2.9999999999999997e-05,0.0,1
2111,2193,-2e-05,-1e-05,-2e-05,-2e-05,-1e-05,1e-05,-2.9999999999999997e-05,0.0,1
2112,2194,-2e-05,-1e-05,-2e-05,-2e-05,-1e-05,1e-05,-2.9999999999999997e-05,0.0,1
2113,2195,-2e-05,-1e-05,-2e-05,-2e-05,-1e-05,1e-05,-2.9999999999999997e-05,0.0,1
2114,2196,-2e-05,-1e-05,-2e-05,-2e-05,-1e-05,1e-05,-2.9999999999999997e-05,0.0,1
2115,2197,-2e-05,-1e-05,-2e-05,-2e-05,-1e-05,1e-05,-2.9999999999999997e-05,0.0,1
2116,2198,-2e-05,-1e-05,-2e-05,-2e-05,-1e-05,1e-05,-2.9999999999999997e-05,0.0,1
2117,2199,-2e-05,-1e-05,-2e-05,-2e-05,-1e-05,1e-05,-2.9999999999999997e-05,0.0,1
2118,2200,-2e-05,-1e-05,-2e-05,-2e-05,-1e-05,1e-05,-2.9999999999999997e-05,0.0,1
2119,2201,-2e-05,-1e-05,-2e-05,-2e-05,-1e-05,1e-05,-2.9999999999999997e-05,0.0,1
2120,2202,-2e-05,-1e-05,-2e-05,-2e-05,-1e-05,1e-05,-2.9999999999999997e-05,0.0,1
2121,2203,-2e-05,-1e-05,-2e-05,-2e-05,-1e-05,1e-05,-2.9999999999999997e-05,0.0,1
2122,2204,-2e-05,-1e-05,-2e-05,-2e-05,-1e-05,1e-05,-2.9999999999999997e-05,0.0,1
2123,2205,-2e-05,-1e-05,-2e-05,-2e-05,-1e-05,1e-05,-2.9999999999999997e-05,0.0,1
2124,2206,-2e-05,-1e-05,-2e-05,-2e-05,-1e-05,1e-05,-2.9999999999999997e-05,0.0,1
2125,2207,-2e-05,-1e-05,-4e-05,-2e-05,-1e-05,0.0,-2e-05,-7e-05,1
2126,2208,-2e-05,-1e-05,-4e-05,-2e-05,-1e-05,0.0,-2e-05,-7e-05,1
2127,2209,-1e-05,-1e-05,-2e-05,-1e-05,1e-05,1e-05,-2.9999999999999997e-05,-2e-05,1
2128,2210,-1e-05,-1e-05,-2e-05,-1e-05,1e-05,1e-05,-2.9999999999999997e-05,-2e-05,1
2129,2211,-1e-05,-1e-05,-2e-05,-1e-05,1e-05,1e-05,-2.9999999999999997e-05,-2e-05,1
2130,2212,-1e-05,-1e-05,-2e-05,-1e-05,1e-05,1e-05,-2.9999999999999997e-05,-2e-05,1
2131,2213,-1e-05,-1e-05,-2e-05,-1e-05,1e-05,1e-05,-2.9999999999999997e-05,-2e-05,1
2132,2214,-1e-05,-1e-05,-2e-05,-1e-05,1e-05,1e-05,-2.9999999999999997e-05,-2e-05,1
2133,2215,-1e-05,-1e-05,-2e-05,-1e-05,1e-05,1e-05,-2.9999999999999997e-05,-2e-05,1
2134,2216,-1e-05,-1e-05,-2e-05,-1e-05,1e-05,1e-05,-2.9999999999999997e-05,-2e-05,1
2135,2217,-1e-05,-1e-05,-2e-05,-1e-05,1e-05,1e-05,-2.9999999999999997e-05,-2e-05,1
2136,2218,-1e-05,-1e-05,-2e-05,-1e-05,1e-05,1e-05,-2.9999999999999997e-05,-2e-05,1
2137,2219,-1e-05,-1e-05,-2e-05,-1e-05,1e-05,1e-05,-2.9999999999999997e-05,-2e-05,1
2138,2220,-1e-05,-1e-05,-2e-05,-1e-05,1e-05,1e-05,-2.9999999999999997e-05,-2e-05,1
2139,2221,-1e-05,-1e-05,-2e-05,-1e-05,1e-05,1e-05,-2.9999999999999997e-05,-2e-05,1
2140,2222,-4e-05,2e-05,2.9999999999999997e-05,-2e-05,-2e-05,-2e-05,-1e-05,-1e-05,1
2141,2223,-4e-05,2e-05,2.9999999999999997e-05,-2e-05,-2e-05,-2e-05,-1e-05,-1e-05,1
2142,2224,-4e-05,2e-05,2.9999999999999997e-05,-2e-05,-2e-05,-2e-05,-1e-05,-1e-05,1
2143,2225,-4e-05,2e-05,2.9999999999999997e-05,-2e-05,-2e-05,-2e-05,-1e-05,-1e-05,1
2144,2226,-4e-05,2e-05,2.9999999999999997e-05,-2e-05,-2e-05,-2e-05,-1e-05,-1e-05,1
2145,2227,-4e-05,2e-05,2.9999999999999997e-05,-2e-05,-2e-05,-2e-05,-1e-05,-1e-05,1
2146,2228,-4e-05,2e-05,2.9999999999999997e-05,-2e-05,-2e-05,-2e-05,-1e-05,-1e-05,1
2147,2229,-1e-05,2e-05,1e-05,0.0,-1e-05,0.0,4e-05,2e-05,1
2148,2230,-1e-05,2e-05,1e-05,0.0,-1e-05,0.0,4e-05,2e-05,1
2149,2231,-1e-05,2e-05,1e-05,0.0,-1e-05,0.0,4e-05,2e-05,1
2150,2232,-1e-05,2e-05,1e-05,0.0,-1e-05,0.0,4e-05,2e-05,1
2151,2233,-1e-05,2e-05,1e-05,0.0,-1e-05,0.0,4e-05,2e-05,1
2152,2234,-1e-05,2e-05,1e-05,0.0,-1e-05,0.0,4e-05,2e-05,1
2153,2235,-1e-05,2e-05,1e-05,0.0,-1e-05,0.0,4e-05,2e-05,1
2154,2236,-1e-05,2e-05,1e-05,0.0,-1e-05,0.0,4e-05,2e-05,1
2155,2238,-1e-05,2e-05,1e-05,0.0,-1e-05,0.0,4e-05,2e-05,1
2156,2239,-1e-05,2e-05,1e-05,0.0,-1e-05,0.0,4e-05,2e-05,1
2157,2240,-1e-05,2e-05,1e-05,0.0,-1e-05,0.0,4e-05,2e-05,1
2158,2241,-1e-05,2e-05,1e-05,0.0,-1e-05,0.0,4e-05,2e-05,1
2159,2242,-1e-05,2e-05,1e-05,0.0,-1e-05,0.0,4e-05,2e-05,1
2160,2243,-1e-05,2e-05,1e-05,0.0,-1e-05,0.0,4e-05,2e-05,1
2161,2244,-1e-05,2e-05,1e-05,0.0,-1e-05,0.0,4e-05,2e-05,1
26486,27319,1e-05,2.9999999999999997e-05,2e-05,0.0,0.0,0.0,-1e-05,-1e-05,1
26487,27320,1e-05,2.9999999999999997e-05,2e-05,0.0,0.0,0.0,-1e-05,-1e-05,1
26488,27321,1e-05,2.9999999999999997e-05,2e-05,0.0,0.0,0.0,-1e-05,-1e-05,1
26489,27322,1e-05,2.9999999999999997e-05,2e-05,0.0,0.0,0.0,-1e-05,-1e-05,1
26490,27323,1e-05,2.9999999999999997e-05,2e-05,0.0,0.0,0.0,-1e-05,-1e-05,1
26491,27324,1e-05,2.9999999999999997e-05,2e-05,0.0,0.0,0.0,-1e-05,-1e-05,1
26492,27325,1e-05,2.9999999999999997e-05,2e-05,0.0,0.0,0.0,-1e-05,-1e-05,1
26493,27326,1e-05,2.9999999999999997e-05,2e-05,0.0,0.0,0.0,-1e-05,-1e-05,1
26494,27327,1e-05,2.9999999999999997e-05,2e-05,0.0,0.0,0.0,-1e-05,-1e-05,1
26495,27328,1e-05,2.9999999999999997e-05,2e-05,0.0,0.0,0.0,-1e-05,-1e-05,1
26496,27329,1e-05,2.9999999999999997e-05,2e-05,0.0,0.0,0.0,-1e-05,-1e-05,1
26497,27330,1e-05,2.9999999999999997e-05,2e-05,0.0,0.0,0.0,-1e-05,-1e-05,1
26498,27331,1e-05,2.9999999999999997e-05,2e-05,0.0,0.0,0.0,-1e-05,-1e-05,1
26499,27332,1e-05,2.9999999999999997e-05,2e-05,0.0,0.0,0.0,-1e-05,-1e-05,1
26500,27333,1e-05,2.9999999999999997e-05,2e-05,0.0,0.0,0.0,-1e-05,-1e-05,1
26501,27334,1e-05,2.9999999999999997e-05,2e-05,0.0,0.0,0.0,-1e-05,-1e-05,1
26502,27335,1e-05,2.9999999999999997e-05,2e-05,0.0,0.0,0.0,-1e-05,-1e-05,1
26503,27336,1e-05,2.9999999999999997e-05,2e-05,0.0,0.0,0.0,-1e-05,-1e-05,1
26504,27338,1e-05,2.9999999999999997e-05,2e-05,0.0,0.0,0.0,-1e-05,-1e-05,1
26505,27339,1e-05,2.9999999999999997e-05,2e-05,0.0,0.0,0.0,-1e-05,-1e-05,1
26506,27340,1e-05,2.9999999999999997e-05,2e-05,0.0,0.0,0.0,-1e-05,-1e-05,1
26507,27341,-1e-05,1e-05,4e-05,2e-05,0.0,0.0,0.0,-2e-05,1
26508,27342,0.0,-5.9999999999999995e-05,-5.9999999999999995e-05,-2.9999999999999997e-05,1e-05,4e-05,-1e-05,-2e-05,1
26509,27343,0.0,-5.9999999999999995e-05,-5.9999999999999995e-05,-2.9999999999999997e-05,1e-05,4e-05,-1e-05,-2e-05,1
26510,27344,0.0,-5.9999999999999995e-05,-5.9999999999999995e-05,-2.9999999999999997e-05,1e-05,4e-05,-1e-05,-2e-05,1
26511,27345,0.0,-5.9999999999999995e-05,-5.9999999999999995e-05,-2.9999999999999997e-05,1e-05,4e-05,-1e-05,-2e-05,1
26512,27346,0.0,-5.9999999999999995e-05,-5.9999999999999995e-05,-2.9999999999999997e-05,1e-05,4e-05,-1e-05,-2e-05,1
26513,27347,0.0,2e-05,5e-05,1e-05,0.0,-1e-05,-1e-05,0.0,1
26514,27348,0.0,2e-05,5e-05,1e-05,0.0,-1e-05,-1e-05,0.0,1
26515,27349,0.0,2e-05,5e-05,1e-05,0.0,-1e-05,-1e-05,0.0,1
26516,27350,0.0,2e-05,5e-05,1e-05,0.0,-1e-05,-1e-05,0.0,1
26517,27351,0.0,2e-05,5e-05,1e-05,0.0,-1e-05,-1e-05,0.0,1
26518,27352,0.0,2e-05,5e-05,1e-05,0.0,-1e-05,-1e-05,0.0,1
26519,27353,0.0,2e-05,5e-05,1e-05,0.0,-1e-05,-1e-05,0.0,1
26520,27354,0.0,2e-05,5e-05,1e-05,0.0,-1e-05,-1e-05,0.0,1
26521,27355,0.0,1e-05,1e-05,-1e-05,0.0,-1e-05,0.0,-2e-05,1
26522,27356,0.0,1e-05,1e-05,-1e-05,0.0,-1e-05,0.0,-2e-05,1
26523,27357,0.0,1e-05,1e-05,-1e-05,0.0,-1e-05,0.0,-2e-05,1
26524,27358,0.0,1e-05,1e-05,-1e-05,0.0,-1e-05,0.0,-2e-05,1
26525,27359,0.0,1e-05,1e-05,-1e-05,0.0,-1e-05,0.0,-2e-05,1
26526,27360,0.0,1e-05,1e-05,-1e-05,0.0,-1e-05,0.0,-2e-05,1
26527,27361,0.0,1e-05,1e-05,-1e-05,0.0,-1e-05,0.0,-2e-05,1
26528,27362,0.0,1e-05,1e-05,-1e-05,0.0,-1e-05,0.0,-2e-05,1
26529,27363,0.0,1e-05,1e-05,-1e-05,0.0,-1e-05,0.0,-2e-05,1
26530,27364,0.0,1e-05,1e-05,-1e-05,0.0,-1e-05,0.0,-2e-05,1
26531,27365,0.0,1e-05,1e-05,-1e-05,0.0,-1e-05,0.0,-2e-05,1
26532,27366,0.0,1e-05,1e-05,-1e-05,0.0,-1e-05,0.0,-2e-05,1
26533,27367,0.0,1e-05,1e-05,-1e-05,0.0,-1e-05,0.0,-2e-05,1
26534,27368,0.0,1e-05,1e-05,-1e-05,0.0,-1e-05,0.0,-2e-05,1
26535,27369,0.0,1e-05,1e-05,-1e-05,0.0,-1e-05,0.0,-2e-05,1
26536,27370,0.0,1e-05,1e-05,-1e-05,0.0,-1e-05,0.0,-2e-05,1
26537,27371,-2e-05,1e-05,0.0,-1e-05,0.0,-1e-05,-2.9999999999999997e-05,1e-05,1
26538,27372,-2e-05,-1e-05,1e-05,1e-05,-1e-05,-2.9999999999999997e-05,-1e-05,1e-05,1
26539,27373,-2e-05,-1e-05,1e-05,1e-05,-1e-05,-2.9999999999999997e-05,-1e-05,1e-05,1
26540,27374,-2e-05,-1e-05,1e-05,1e-05,-1e-05,-2.9999999999999997e-05,-1e-05,1e-05,1
26541,27375,-2e-05,-1e-05,1e-05,1e-05,-1e-05,-2.9999999999999997e-05,-1e-05,1e-05,1
26542,27376,-2e-05,-1e-05,1e-05,1e-05,-1e-05,-2.9999999999999997e-05,-1e-05,1e-05,1
26543,27377,-2e-05,-1e-05,1e-05,1e-05,-1e-05,-2.9999999999999997e-05,-1e-05,1e-05,1
26544,27378,-2e-05,-1e-05,1e-05,1e-05,-1e-05,-2.9999999999999997e-05,-1e-05,1e-05,1
26545,27379,-2e-05,-1e-05,1e-05,1e-05,-1e-05,-2.9999999999999997e-05,-1e-05,1e-05,1
26546,27380,-2e-05,-1e-05,1e-05,1e-05,-1e-05,-2.9999999999999997e-05,-1e-05,1e-05,1
26547,27381,-2e-05,-1e-05,1e-05,1e-05,-1e-05,-2.9999999999999997e-05,-1e-05,1e-05,1
26548,27382,-2e-05,-1e-05,1e-05,1e-05,-1e-05,-2.9999999999999997e-05,-1e-05,1e-05,1
26549,27383,-2e-05,-1e-05,1e-05,1e-05,-1e-05,-2.9999999999999997e-05,-1e-05,1e-05,1
26550,27384,-2e-05,-1e-05,1e-05,1e-05,-1e-05,-2.9999999999999997e-05,-1e-05,1e-05,1
26551,27385,-2e-05,-1e-05,1e-05,1e-05,-1e-05,-2.9999999999999997e-05,-1e-05,1e-05,1
26552,27386,-2e-05,-1e-05,1e-05,1e-05,-1e-05,-2.9999999999999997e-05,-1e-05,1e-05,1
26553,27388,-2e-05,-1e-05,1e-05,1e-05,-1e-05,-2.9999999999999997e-05,-1e-05,1e-05,1
26554,27389,-2e-05,-1e-05,1e-05,1e-05,-1e-05,-2.9999999999999997e-05,-1e-05,1e-05,1
26555,27390,-2e-05,-1e-05,1e-05,1e-05,-1e-05,-2.9999999999999997e-05,-1e-05,1e-05,1
26556,27391,-2e-05,-1e-05,1e-05,1e-05,-1e-05,-2.9999999999999997e-05,-1e-05,1e-05,1
26557,27392,1e-05,2e-05,5e-05,2e-05,2.9999999999999997e-05,2.9999999999999997e-05,2e-05,-1e-05,1
26558,27393,0.0,-2.9999999999999997e-05,-5.9999999999999995e-05,-2.9999999999999997e-05,-2.9999999999999997e-05,-2e-05,0.0,-2e-05,1
26559,27394,0.0,-2.9999999999999997e-05,-5.9999999999999995e-05,-2.9999999999999997e-05,-2.9999999999999997e-05,-2e-05,0.0,-2e-05,1
26560,27395,0.0,-2.9999999999999997e-05,-5.9999999999999995e-05,-2.9999999999999997e-05,-2.9999999999999997e-05,-2e-05,0.0,-2e-05,1
26561,27396,0.0,-2.9999999999999997e-05,-5.9999999999999995e-05,-2.9999999999999997e-05,-2.9999999999999997e-05,-2e-05,0.0,-2e-05,1
26562,27397,0.0,-2.9999999999999997e-05,-5.9999999999999995e-05,-2.9999999999999997e-05,-2.9999999999999997e-05,-2e-05,0.0,-2e-05,1
26563,27398,0.0,-2.9999999999999997e-05,-5.9999999999999995e-05,-2.9999999999999997e-05,-2.9999999999999997e-05,-2e-05,0.0,-2e-05,1
26564,27399,0.0,-2.9999999999999997e-05,-5.9999999999999995e-05,-2.9999999999999997e-05,-2.9999999999999997e-05,-2e-05,0.0,-2e-05,1
26565,27400,1e-05,-1e-05,0.0,-1e-05,-2e-05,-2e-05,-1e-05,-1e-05,1
26566,27401,1e-05,-1e-05,0.0,-1e-05,-2e-05,-2e-05,-1e-05,-1e-05,1
26567,27402,1e-05,-1e-05,0.0,-1e-05,-2e-05,-2e-05,-1e-05,-1e-05,1
26568,27403,1e-05,-1e-05,0.0,-1e-05,-2e-05,-2e-05,-1e-05,-1e-05,1
26569,27404,1e-05,-1e-05,0.0,-1e-05,-2e-05,-2e-05,-1e-05,-1e-05,1
26570,27405,1e-05,-1e-05,0.0,-1e-05,-2e-05,-2e-05,-1e-05,-1e-05,1
26571,27406,1e-05,-1e-05,0.0,-1e-05,-2e-05,-2e-05,-1e-05,-1e-05,1
26572,27407,-1e-05,0.0,-1e-05,1e-05,-1e-05,1e-05,1e-05,-1e-05,1
26573,27408,-1e-05,0.0,-1e-05,1e-05,-1e-05,1e-05,1e-05,-1e-05,1
26574,27409,-1e-05,0.0,-1e-05,1e-05,-1e-05,1e-05,1e-05,-1e-05,1
26575,27410,-1e-05,0.0,-1e-05,1e-05,-1e-05,1e-05,1e-05,-1e-05,1
26576,27411,-1e-05,0.0,-1e-05,1e-05,-1e-05,1e-05,1e-05,-1e-05,1
26577,27412,-1e-05,0.0,-1e-05,1e-05,-1e-05,1e-05,1e-05,-1e-05,1
26578,27413,-1e-05,0.0,-1e-05,1e-05,-1e-05,1e-05,1e-05,-1e-05,1
26579,27414,-1e-05,0.0,-1e-05,1e-05,-1e-05,1e-05,1e-05,-1e-05,1
26580,27415,-1e-05,0.0,-1e-05,1e-05,-1e-05,1e-05,1e-05,-1e-05,1
26581,27416,-1e-05,0.0,0.0,-2.9999999999999997e-05,-1e-05,-1e-05,-2e-05,-1e-05,1
26582,27417,-1e-05,0.0,0.0,-2.9999999999999997e-05,-1e-05,-1e-05,-2e-05,-1e-05,1
26583,27418,-1e-05,0.0,0.0,-2.9999999999999997e-05,-1e-05,-1e-05,-2e-05,-1e-05,1
26584,27419,-1e-05,0.0,0.0,-2.9999999999999997e-05,-1e-05,-1e-05,-2e-05,-1e-05,1
26585,27420,-1e-05,0.0,0.0,-2.9999999999999997e-05,-1e-05,-1e-05,-2e-05,-1e-05,1
26586,27421,-1e-05,0.0,0.0,-2.9999999999999997e-05,-1e-05,-1e-05,-2e-05,-1e-05,1
26587,27422,-1e-05,0.0,0.0,-2.9999999999999997e-05,-1e-05,-1e-05,-2e-05,-1e-05,1
26588,27423,-1e-05,0.0,0.0,-2.9999999999999997e-05,-1e-05,-1e-05,-2e-05,-1e-05,1
26589,27424,-1e-05,0.0,0.0,-2.9999999999999997e-05,-1e-05,-1e-05,-2e-05,-1e-05,1
26590,27425,-1e-05,0.0,0.0,-2.9999999999999997e-05,-1e-05,-1e-05,-2e-05,-1e-05,1
26591,27426,-1e-05,0.0,0.0,-2.9999999999999997e-05,-1e-05,-1e-05,-2e-05,-1e-05,1
26592,27427,-1e-05,0.0,0.0,-2.9999999999999997e-05,-1e-05,-1e-05,-2e-05,-1e-05,1
26593,27428,-1e-05,0.0,0.0,-2.9999999999999997e-05,-1e-05,-1e-05,-2e-05,-1e-05,1
26594,27429,-1e-05,0.0,0.0,-2.9999999999999997e-05,-1e-05,-1e-05,-2e-05,-1e-05,1
26595,27430,-1e-05,0.0,0.0,-2.9999999999999997e-05,-1e-05,-1e-05,-2e-05,-1e-05,1
26596,27431,-1e-05,2e-05,2.9999999999999997e-05,0.0,0.0,0.0,-1e-05,-1e-05,1
26597,27432,-2.9999999999999997e-05,-4e-05,-2e-05,-1e-05,-1e-05,-4e-05,-2e-05,-1e-05,1
26598,27433,-2.9999999999999997e-05,-4e-05,-2e-05,-1e-05,-1e-05,-4e-05,-2e-05,-1e-05,1
26599,27434,-2.9999999999999997e-05,-4e-05,-2e-05,-1e-05,-1e-05,-4e-05,-2e-05,-1e-05,1
26600,27435,-2.9999999999999997e-05,-4e-05,-2e-05,-1e-05,-1e-05,-4e-05,-2e-05,-1e-05,1
26601,27436,-2.9999999999999997e-05,-4e-05,-2e-05,-1e-05,-1e-05,-4e-05,-2e-05,-1e-05,1
26602,27438,-2.9999999999999997e-05,-4e-05,-2e-05,-1e-05,-1e-05,-4e-05,-2e-05,-1e-05,1
26603,27439,-2.9999999999999997e-05,-4e-05,-2e-05,-1e-05,-1e-05,-4e-05,-2e-05,-1e-05,1
26604,27440,-2.9999999999999997e-05,-4e-05,-2e-05,-1e-05,-1e-05,-4e-05,-2e-05,-1e-05,1
26605,27441,-2.9999999999999997e-05,-4e-05,-2e-05,-1e-05,-1e-05,-4e-05,-2e-05,-1e-05,1
26606,27442,-2.9999999999999997e-05,-4e-05,-2e-05,-1e-05,-1e-05,-4e-05,-2e-05,-1e-05,1
26607,27443,-2.9999999999999997e-05,-4e-05,-2e-05,-1e-05,-1e-05,-4e-05,-2e-05,-1e-05,1
26608,27444,-2.9999999999999997e-05,-4e-05,-2e-05,-1e-05,-1e-05,-4e-05,-2e-05,-1e-05,1
26609,27445,-2.9999999999999997e-05,-4e-05,-2e-05,-1e-05,-1e-05,-4e-05,-2e-05,-1e-05,1
26610,27446,-2.9999999999999997e-05,-4e-05,-2e-05,-1e-05,-1e-05,-4e-05,-2e-05,-1e-05,1
26611,27447,-2.9999999999999997e-05,-4e-05,-2e-05,-1e-05,-1e-05,-4e-05,-2e-05,-1e-05,1
26612,27448,-2.9999999999999997e-05,-4e-05,-2e-05,-1e-05,-1e-05,-4e-05,-2e-05,-1e-05,1
26613,27449,-2.9999999999999997e-05,-4e-05,-2e-05,-1e-05,-1e-05,-4e-05,-2e-05,-1e-05,1
26614,27450,-2.9999999999999997e-05,-4e-05,-2e-05,-1e-05,-1e-05,-4e-05,-2e-05,-1e-05,1
26615,27451,-2.9999999999999997e-05,-4e-05,-2e-05,-1e-05,-1e-05,-4e-05,-2e-05,-1e-05,1
26616,27452,-2.9999999999999997e-05,-4e-05,-2e-05,-1e-05,-1e-05,-4e-05,-2e-05,-1e-05,1
26617,27453,0.0,2e-05,4e-05,1e-05,-2e-05,1e-05,-2e-05,-1e-05,1
26618,27454,-2e-05,2.9999999999999997e-05,4e-05,-1e-05,0.0,-1e-05,2e-05,-2.9999999999999997e-05,1
26619,27455,-2e-05,2.9999999999999997e-05,4e-05,-1e-05,0.0,-1e-05,2e-05,-2.9999999999999997e-05,1
26620,27456,-2e-05,2.9999999999999997e-05,4e-05,-1e-05,0.0,-1e-05,2e-05,-2.9999999999999997e-05,1
26621,27457,-2e-05,2.9999999999999997e-05,4e-05,-1e-05,0.0,-1e-05,2e-05,-2.9999999999999997e-05,1
26622,27458,-2e-05,2.9999999999999997e-05,4e-05,-1e-05,0.0,-1e-05,2e-05,-2.9999999999999997e-05,1
26623,27459,-2e-05,2.9999999999999997e-05,4e-05,-1e-05,0.0,-1e-05,2e-05,-2.9999999999999997e-05,1
26624,27460,-2e-05,2.9999999999999997e-05,4e-05,-1e-05,0.0,-1e-05,2e-05,-2.9999999999999997e-05,1
26625,27461,-2e-05,2.9999999999999997e-05,4e-05,-1e-05,0.0,-1e-05,2e-05,-2.9999999999999997e-05,1
26626,27462,-2e-05,2.9999999999999997e-05,4e-05,-1e-05,0.0,-1e-05,2e-05,-2.9999999999999997e-05,1
26627,27463,-2e-05,2.9999999999999997e-05,4e-05,-1e-05,0.0,-1e-05,2e-05,-2.9999999999999997e-05,1
26628,27464,-2e-05,2.9999999999999997e-05,4e-05,-1e-05,0.0,-1e-05,2e-05,-2.9999999999999997e-05,1
26629,27465,-2e-05,2.9999999999999997e-05,4e-05,-1e-05,0.0,-1e-05,2e-05,-2.9999999999999997e-05,1
