,time,channel1,channel2,channel3,channel4,channel5,channel6,channel7,channel8,class
852,927,-2e-05,-1e-05,-2e-05,-1e-05,-2e-05,0.0,-1e-05,1e-05,1
853,928,-2e-05,-1e-05,-2e-05,-1e-05,-2e-05,0.0,-1e-05,1e-05,1
854,929,-2e-05,-1e-05,-2e-05,-1e-05,-2e-05,0.0,-1e-05,1e-05,1
855,930,-2e-05,-1e-05,-2e-05,-1e-05,-2e-05,0.0,-1e-05,1e-05,1
856,931,-2e-05,-1e-05,-2e-05,-1e-05,-2e-05,0.0,-1e-05,1e-05,1
857,932,-2e-05,-1e-05,-2e-05,-1e-05,-2e-05,0.0,-1e-05,1e-05,1
858,933,-2e-05,-1e-05,-2e-05,-1e-05,-2e-05,0.0,-1e-05,1e-05,1
859,934,-2e-05,-1e-05,-2e-05,-1e-05,-2e-05,0.0,-1e-05,1e-05,1
860,935,-2e-05,-1e-05,-2e-05,-1e-05,-2e-05,0.0,-1e-05,1e-05,1
861,936,-2e-05,-1e-05,-2e-05,-1e-05,-2e-05,0.0,-1e-05,1e-05,1
862,939,0.0,1e-05,1e-05,1e-05,-1e-05,0.0,0.0,0.0,1
863,940,0.0,1e-05,1e-05,1e-05,-1e-05,0.0,0.0,0.0,1
864,941,0.0,1e-05,1e-05,1e-05,-1e-05,0.0,0.0,0.0,1
865,942,0.0,1e-05,1e-05,1e-05,-1e-05,0.0,0.0,0.0,1
866,943,0.0,1e-05,1e-05,1e-05,-1e-05,0.0,0.0,0.0,1
867,944,0.0,1e-05,1e-05,1e-05,-1e-05,0.0,0.0,0.0,1
868,945,0.0,1e-05,1e-05,1e-05,-1e-05,0.0,0.0,0.0,1
869,946,0.0,1e-05,1e-05,1e-05,-1e-05,0.0,0.0,0.0,1
870,947,0.0,-2e-05,-2.9999999999999997e-05,-2e-05,-2e-05,-1e-05,-1e-05,-1e-05,1
871,948,0.0,-2e-05,-2.9999999999999997e-05,-2e-05,-2e-05,-1e-05,-1e-05,-1e-05,1
872,949,0.0,-2e-05,-2.9999999999999997e-05,-2e-05,-2e-05,-1e-05,-1e-05,-1e-05,1
873,950,0.0,-2e-05,-2.9999999999999997e-05,-2e-05,-2e-05,-1e-05,-1e-05,-1e-05,1
874,951,0.0,-2e-05,-2.9999999999999997e-05,-2e-05,-2e-05,-1e-05,-1e-05,-1e-05,1
875,952,0.0,-2e-05,-2.9999999999999997e-05,-2e-05,-2e-05,-1e-05,-1e-05,-1e-05,1
876,953,0.0,-2e-05,-2.9999999999999997e-05,-2e-05,-2e-05,-1e-05,-1e-05,-1e-05,1
877,954,0.0,-2e-05,-2.9999999999999997e-05,-2e-05,-2e-05,-1e-05,-1e-05,-1e-05,1
878,955,0.0,-2e-05,-2.9999999999999997e-05,-2e-05,-2e-05,-1e-05,-1e-05,-1e-05,1
879,956,0.0,-2e-05,-2.9999999999999997e-05,-2e-05,-2e-05,-1e-05,-1e-05,-1e-05,1
880,957,0.0,-2e-05,-2.9999999999999997e-05,-2e-05,-2e-05,-1e-05,-1e-05,-1e-05,1
881,958,0.0,-2e-05,-2.9999999999999997e-05,-2e-05,-2e-05,-1e-05,-1e-05,-1e-05,1
882,959,0.0,-2e-05,-2.9999999999999997e-05,-2e-05,-2e-05,-1e-05,-1e-05,-1e-05,1
883,960,0.0,-2e-05,-2.9999999999999997e-05,-2e-05,-2e-05,-1e-05,-1e-05,-1e-05,1
884,961,0.0,-2e-05,-2.9999999999999997e-05,-2e-05,-2e-05,-1e-05,-1e-05,-1e-05,1
885,962,-1e-05,1e-05,0.0,2e-05,1e-05,0.0,-2e-05,-1e-05,1
886,963,0.0,-2.9999999999999997e-05,-4e-05,-5e-05,-2e-05,-2e-05,-1e-05,-1e-05,1
887,964,0.0,-2.9999999999999997e-05,-4e-05,-5e-05,-2e-05,-2e-05,-1e-05,-1e-05,1
888,965,0.0,-2.9999999999999997e-05,-4e-05,-5e-05,-2e-05,-2e-05,-1e-05,-1e-05,1
889,966,0.0,-2.9999999999999997e-05,-4e-05,-5e-05,-2e-05,-2e-05,-1e-05,-1e-05,1
890,967,0.0,-2.9999999999999997e-05,-4e-05,-5e-05,-2e-05,-2e-05,-1e-05,-1e-05,1
891,968,0.0,-2.9999999999999997e-05,-4e-05,-5e-05,-2e-05,-2e-05,-1e-05,-1e-05,1
892,969,0.0,-2.9999999999999997e-05,-4e-05,-5e-05,-2e-05,-2e-05,-1e-05,-1e-05,1
893,970,0.0,-2.9999999999999997e-05,-4e-05,-5e-05,-2e-05,-2e-05,-1e-05,-1e-05,1
894,971,0.0,-2.9999999999999997e-05,-4e-05,-5e-05,-2e-05,-2e-05,-1e-05,-1e-05,1
895,972,0.0,-2.9999999999999997e-05,-4e-05,-5e-05,-2e-05,-2e-05,-1e-05,-1e-05,1
896,973,0.0,-2.9999999999999997e-05,-4e-05,-5e-05,-2e-05,-2e-05,-1e-05,-1e-05,1
897,974,0.0,-2.9999999999999997e-05,-4e-05,-5e-05,-2e-05,-2e-05,-1e-05,-1e-05,1
898,975,0.0,-2.9999999999999997e-05,-4e-05,-5e-05,-2e-05,-2e-05,-1e-05,-1e-05,1
899,976,0.0,-2.9999999999999997e-05,-4e-05,-5e-05,-2e-05,-2e-05,-1e-05,-1e-05,1
900,977,0.0,-2.9999999999999997e-05,-4e-05,-5e-05,-2e-05,-2e-05,-1e-05,-1e-05,1
901,978,0.0,-2.9999999999999997e-05,-4e-05,-5e-05,-2e-05,-2e-05,-1e-05,-1e-05,1
902,979,0.0,-2.9999999999999997e-05,-4e-05,-5e-05,-2e-05,-2e-05,-1e-05,-1e-05,1
903,980,0.0,-2.9999999999999997e-05,-4e-05,-5e-05,-2e-05,-2e-05,-1e-05,-1e-05,1
904,981,0.0,-2.9999999999999997e-05,-4e-05,-5e-05,-2e-05,-2e-05,-1e-05,-1e-05,1
905,982,0.0,-2.9999999999999997e-05,-4e-05,-5e-05,-2e-05,-2e-05,-1e-05,-1e-05,1
906,983,0.0,-2.9999999999999997e-05,-4e-05,-5e-05,-2e-05,-2e-05,-1e-05,-1e-05,1
907,984,1e-05,0.0,1e-05,2e-05,-1e-05,-1e-05,0.0,-1e-05,1
908,985,1e-05,0.0,1e-05,2e-05,-1e-05,-1e-05,0.0,-1e-05,1
909,986,0.0,0.0,-1e-05,0.0,0.0,-1e-05,-1e-05,-1e-05,1
910,988,0.0,0.0,-1e-05,0.0,0.0,-1e-05,-1e-05,-1e-05,1
911,989,0.0,0.0,-1e-05,0.0,0.0,-1e-05,-1e-05,-1e-05,1
912,990,0.0,0.0,-1e-05,0.0,0.0,-1e-05,-1e-05,-1e-05,1
913,991,0.0,0.0,-1e-05,0.0,0.0,-1e-05,-1e-05,-1e-05,1
914,992,0.0,0.0,-1e-05,0.0,0.0,-1e-05,-1e-05,-1e-05,1
915,993,0.0,0.0,-1e-05,0.0,0.0,-1e-05,-1e-05,-1e-05,1
916,994,0.0,0.0,-1e-05,0.0,0.0,-1e-05,-1e-05,-1e-05,1
917,995,0.0,0.0,-1e-05,0.0,0.0,-1e-05,-1e-05,-1e-05,1
918,996,0.0,0.0,-1e-05,0.0,0.0,-1e-05,-1e-05,-1e-05,1
919,997,0.0,0.0,-1e-05,0.0,0.0,-1e-05,-1e-05,-1e-05,1
920,998,-4e-05,-1e-05,-2.9999999999999997e-05,-4e-05,-2e-05,-1e-05,0.0,1e-05,1
921,999,-4e-05,-1e-05,-2.9999999999999997e-05,-4e-05,-2e-05,-1e-05,0.0,1e-05,1
922,1000,-4e-05,-1e-05,-2.9999999999999997e-05,-4e-05,-2e-05,-1e-05,0.0,1e-05,1
923,1001,-4e-05,-1e-05,-2.9999999999999997e-05,-4e-05,-2e-05,-1e-05,0.0,1e-05,1
924,1002,-4e-05,-1e-05,-2.9999999999999997e-05,-4e-05,-2e-05,-1e-05,0.0,1e-05,1
925,1003,-4e-05,-1e-05,-2.9999999999999997e-05,-4e-05,-2e-05,-1e-05,0.0,1e-05,1
926,1004,-4e-05,-1e-05,-2.9999999999999997e-05,-4e-05,-2e-05,-1e-05,0.0,1e-05,1
927,1005,-4e-05,-1e-05,-2.9999999999999997e-05,-4e-05,-2e-05,-1e-05,0.0,1e-05,1
928,1006,-4e-05,-1e-05,-2.9999999999999997e-05,-4e-05,-2e-05,-1e-05,0.0,1e-05,1
929,1007,-1e-05,1e-05,2e-05,2e-05,-1e-05,0.0,-2e-05,-4e-05,1
930,1008,-1e-05,1e-05,2e-05,2e-05,-1e-05,0.0,-2e-05,-4e-05,1
931,1009,-1e-05,1e-05,2e-05,2e-05,-1e-05,0.0,-2e-05,-4e-05,1
932,1010,-1e-05,1e-05,2e-05,2e-05,-1e-05,0.0,-2e-05,-4e-05,1
933,1011,-1e-05,1e-05,2e-05,2e-05,-1e-05,0.0,-2e-05,-4e-05,1
934,1012,-1e-05,1e-05,2e-05,2e-05,-1e-05,0.0,-2e-05,-4e-05,1
935,1013,-1e-05,1e-05,2e-05,2e-05,-1e-05,0.0,-2e-05,-4e-05,1
936,1015,-1e-05,1e-05,2e-05,2e-05,-1e-05,0.0,-2e-05,-4e-05,1
937,1017,-1e-05,1e-05,2e-05,2e-05,-1e-05,0.0,-2e-05,-4e-05,1
938,1018,-1e-05,1e-05,2e-05,2e-05,-1e-05,0.0,-2e-05,-4e-05,1
939,1019,-1e-05,1e-05,2e-05,2e-05,-1e-05,0.0,-2e-05,-4e-05,1
940,1020,-1e-05,1e-05,2e-05,2e-05,-1e-05,0.0,-2e-05,-4e-05,1
941,1021,-1e-05,1e-05,2e-05,2e-05,-1e-05,0.0,-2e-05,-4e-05,1
942,1025,-1e-05,1e-05,2e-05,2e-05,-1e-05,0.0,-2e-05,-4e-05,1
943,1026,0.0,-4e-05,-4e-05,-4e-05,-2e-05,-1e-05,-2e-05,-1e-05,1
944,1027,0.0,0.0,-1e-05,0.0,0.0,1e-05,-1e-05,-1e-05,1
945,1028,0.0,0.0,-1e-05,0.0,0.0,1e-05,-1e-05,-1e-05,1
946,1029,0.0,0.0,-1e-05,0.0,0.0,1e-05,-1e-05,-1e-05,1
947,1030,0.0,0.0,-1e-05,0.0,0.0,1e-05,-1e-05,-1e-05,1
948,1031,0.0,0.0,-1e-05,0.0,0.0,1e-05,-1e-05,-1e-05,1
949,1032,0.0,0.0,-1e-05,0.0,0.0,1e-05,-1e-05,-1e-05,1
950,1033,0.0,0.0,-1e-05,0.0,0.0,1e-05,-1e-05,-1e-05,1
951,1034,0.0,0.0,-1e-05,0.0,0.0,1e-05,-1e-05,-1e-05,1
952,1035,0.0,0.0,-1e-05,0.0,0.0,1e-05,-1e-05,-1e-05,1
953,1036,0.0,0.0,-1e-05,0.0,0.0,1e-05,-1e-05,-1e-05,1
954,1039,0.0,0.0,-1e-05,0.0,0.0,1e-05,-1e-05,-1e-05,1
955,1040,0.0,0.0,-1e-05,0.0,0.0,1e-05,-1e-05,-1e-05,1
956,1041,0.0,0.0,-1e-05,0.0,0.0,1e-05,-1e-05,-1e-05,1
957,1042,0.0,0.0,-1e-05,0.0,0.0,1e-05,-1e-05,-1e-05,1
958,1043,0.0,0.0,-1e-05,0.0,0.0,1e-05,-1e-05,-1e-05,1
959,1044,0.0,0.0,1e-05,0.0,0.0,-1e-05,0.0,0.0,1
960,1045,0.0,0.0,1e-05,0.0,0.0,-1e-05,0.0,0.0,1
961,1046,-2e-05,-4e-05,-1e-05,-1e-05,-2e-05,-1e-05,0.0,-1e-05,1
962,1047,-2e-05,-4e-05,-1e-05,-1e-05,-2e-05,-1e-05,0.0,-1e-05,1
963,1048,-2e-05,-4e-05,-1e-05,-1e-05,-2e-05,-1e-05,0.0,-1e-05,1
964,1049,-2e-05,-4e-05,-1e-05,-1e-05,-2e-05,-1e-05,0.0,-1e-05,1
965,1050,-2e-05,-4e-05,-1e-05,-1e-05,-2e-05,-1e-05,0.0,-1e-05,1
966,1051,-2e-05,-4e-05,-1e-05,-1e-05,-2e-05,-1e-05,0.0,-1e-05,1
967,1052,-2e-05,-4e-05,-1e-05,-1e-05,-2e-05,-1e-05,0.0,-1e-05,1
968,1053,-2e-05,-4e-05,-1e-05,-1e-05,-2e-05,-1e-05,0.0,-1e-05,1
969,1054,-2e-05,-4e-05,-1e-05,-1e-05,-2e-05,-1e-05,0.0,-1e-05,1
970,1055,-2e-05,-4e-05,-1e-05,-1e-05,-2e-05,-1e-05,0.0,-1e-05,1
971,1056,-2e-05,-4e-05,-1e-05,-1e-05,-2e-05,-1e-05,0.0,-1e-05,1
972,1057,-2e-05,-4e-05,-1e-05,-1e-05,-2e-05,-1e-05,0.0,-1e-05,1
973,1058,-2e-05,-2e-05,-1e-05,1e-05,0.0,-2e-05,-1e-05,-2e-05,1
974,1059,-2e-05,-2e-05,-1e-05,1e-05,0.0,-2e-05,-1e-05,-2e-05,1
975,1060,-2e-05,-2e-05,-1e-05,1e-05,0.0,-2e-05,-1e-05,-2e-05,1
976,1061,-2e-05,-2e-05,-1e-05,1e-05,0.0,-2e-05,-1e-05,-2e-05,1
977,1062,-2e-05,-2e-05,-1e-05,1e-05,0.0,-2e-05,-1e-05,-2e-05,1
978,1063,-2e-05,-2e-05,-1e-05,1e-05,0.0,-2e-05,-1e-05,-2e-05,1
979,1064,-2e-05,-2e-05,-1e-05,1e-05,0.0,-2e-05,-1e-05,-2e-05,1
980,1065,-2e-05,-2e-05,-1e-05,1e-05,0.0,-2e-05,-1e-05,-2e-05,1
981,1066,-2e-05,-2e-05,-1e-05,1e-05,0.0,-2e-05,-1e-05,-2e-05,1
982,1067,-1e-05,-2e-05,2e-05,2e-05,0.0,-2e-05,0.0,-1e-05,1
983,1068,-1e-05,-2e-05,2e-05,2e-05,0.0,-2e-05,0.0,-1e-05,1
984,1069,-1e-05,-2e-05,2e-05,2e-05,0.0,-2e-05,0.0,-1e-05,1
985,1070,-1e-05,-2e-05,2e-05,2e-05,0.0,-2e-05,0.0,-1e-05,1
986,1071,-1e-05,-2e-05,2e-05,2e-05,0.0,-2e-05,0.0,-1e-05,1
987,1072,-1e-05,-2e-05,2e-05,2e-05,0.0,-2e-05,0.0,-1e-05,1
988,1073,-1e-05,-2e-05,2e-05,2e-05,0.0,-2e-05,0.0,-1e-05,1
989,1074,-1e-05,-2e-05,2e-05,2e-05,0.0,-2e-05,0.0,-1e-05,1
990,1075,-1e-05,-2e-05,2e-05,2e-05,0.0,-2e-05,0.0,-1e-05,1
991,1076,-1e-05,-2e-05,2e-05,2e-05,0.0,-2e-05,0.0,-1e-05,1
992,1077,-1e-05,-2e-05,2e-05,2e-05,0.0,-2e-05,0.0,-1e-05,1
993,1078,-1e-05,-2e-05,2e-05,2e-05,0.0,-2e-05,0.0,-1e-05,1
994,1079,-1e-05,-2e-05,2e-05,2e-05,0.0,-2e-05,0.0,-1e-05,1
995,1080,-1e-05,-2e-05,2e-05,2e-05,0.0,-2e-05,0.0,-1e-05,1
996,1081,-1e-05,-2e-05,2e-05,2e-05,0.0,-2e-05,0.0,-1e-05,1
997,1082,-1e-05,-2e-05,-4e-05,-5e-05,-1e-05,0.0,-1e-05,0.0,1
998,1083,-1e-05,0.0,-1e-05,0.0,-1e-05,-1e-05,-2e-05,-1e-05,1
999,1084,-1e-05,0.0,-1e-05,0.0,-1e-05,-1e-05,-2e-05,-1e-05,1
1000,1085,-1e-05,0.0,-1e-05,0.0,-1e-05,-1e-05,-2e-05,-1e-05,1
1001,1087,-1e-05,0.0,-1e-05,0.0,-1e-05,-1e-05,-2e-05,-1e-05,1
1002,1089,-1e-05,0.0,-1e-05,0.0,-1e-05,-1e-05,-2e-05,-1e-05,1
1003,1091,-1e-05,0.0,-1e-05,0.0,-1e-05,-1e-05,-2e-05,-1e-05,1
1004,1092,-1e-05,0.0,-1e-05,0.0,-1e-05,-1e-05,-2e-05,-1e-05,1
1005,1093,-1e-05,0.0,-1e-05,0.0,-1e-05,-1e-05,-2e-05,-1e-05,1
1006,1094,-1e-05,0.0,-1e-05,0.0,-1e-05,-1e-05,-2e-05,-1e-05,1
1007,1095,-1e-05,0.0,-1e-05,0.0,-1e-05,-1e-05,-2e-05,-1e-05,1
1008,1096,-1e-05,0.0,-1e-05,0.0,-1e-05,-1e-05,-2e-05,-1e-05,1
1009,1097,-1e-05,0.0,-1e-05,0.0,-1e-05,-1e-05,-2e-05,-1e-05,1
1010,1098,-1e-05,0.0,-1e-05,0.0,-1e-05,-1e-05,-2e-05,-1e-05,1
1011,1099,-1e-05,0.0,-1e-05,0.0,-1e-05,-1e-05,-2e-05,-1e-05,1
1012,1100,-1e-05,0.0,-1e-05,0.0,-1e-05,-1e-05,-2e-05,-1e-05,1
1013,1101,-1e-05,0.0,-1e-05,0.0,-1e-05,-1e-05,-2e-05,-1e-05,1
1014,1102,-1e-05,0.0,-1e-05,0.0,-1e-05,-1e-05,-2e-05,-1e-05,1
1015,1103,-1e-05,0.0,-1e-05,0.0,-1e-05,-1e-05,-2e-05,-1e-05,1
1016,1104,-2e-05,-2e-05,-2.9999999999999997e-05,-5.9999999999999995e-05,-2e-05,-1e-05,-1e-05,-2.9999999999999997e-05,1
1017,1105,-2e-05,-2e-05,-2.9999999999999997e-05,-5.9999999999999995e-05,-2e-05,-1e-05,-1e-05,-2.9999999999999997e-05,1
1018,1106,-1e-05,2e-05,0.0,-2e-05,-2e-05,0.0,1e-05,0.0,1
1019,1107,-1e-05,2e-05,0.0,-2e-05,-2e-05,0.0,1e-05,0.0,1
1020,1108,-1e-05,2e-05,0.0,-2e-05,-2e-05,0.0,1e-05,0.0,1
1021,1109,-1e-05,2e-05,0.0,-2e-05,-2e-05,0.0,1e-05,0.0,1
1022,1110,-1e-05,2e-05,0.0,-2e-05,-2e-05,0.0,1e-05,0.0,1
1023,1111,-1e-05,2e-05,0.0,-2e-05,-2e-05,0.0,1e-05,0.0,1
1024,1112,-1e-05,2e-05,0.0,-2e-05,-2e-05,0.0,1e-05,0.0,1
1025,1113,-1e-05,2e-05,0.0,-2e-05,-2e-05,0.0,1e-05,0.0,1
1026,1114,-1e-05,2e-05,0.0,-2e-05,-2e-05,0.0,1e-05,0.0,1
1027,1115,-1e-05,2e-05,0.0,-2e-05,-2e-05,0.0,1e-05,0.0,1
1028,1116,-1e-05,2e-05,0.0,-2e-05,-2e-05,0.0,1e-05,0.0,1
1029,1117,-1e-05,2e-05,0.0,-2e-05,-2e-05,0.0,1e-05,0.0,1
1030,1118,-1e-05,0.0,-2e-05,-2.9999999999999997e-05,-1e-05,-1e-05,-1e-05,-1e-05,1
1031,1119,-1e-05,0.0,-2e-05,-2.9999999999999997e-05,-1e-05,-1e-05,-1e-05,-1e-05,1
1032,1120,-1e-05,0.0,-2e-05,-2.9999999999999997e-05,-1e-05,-1e-05,-1e-05,-1e-05,1
1033,1121,-1e-05,0.0,-2e-05,-2.9999999999999997e-05,-1e-05,-1e-05,-1e-05,-1e-05,1
1034,1122,-1e-05,0.0,-2e-05,-2.9999999999999997e-05,-1e-05,-1e-05,-1e-05,-1e-05,1
1035,1123,-1e-05,0.0,-2e-05,-2.9999999999999997e-05,-1e-05,-1e-05,-1e-05,-1e-05,1
1036,1124,-1e-05,0.0,-2e-05,-2.9999999999999997e-05,-1e-05,-1e-05,-1e-05,-1e-05,1
1037,1125,-1e-05,0.0,-2e-05,-2.9999999999999997e-05,-1e-05,-1e-05,-1e-05,-1e-05,1
1038,1126,0.0,1e-05,5.9999999999999995e-05,2e-05,1e-05,-1e-05,-2.9999999999999997e-05,-1e-05,1
1039,1127,-2.9999999999999997e-05,-8e-05,-8e-05,-7e-05,-2e-05,-2.9999999999999997e-05,-1e-05,-1e-05,1
1040,1128,-2.9999999999999997e-05,-8e-05,-8e-05,-7e-05,-2e-05,-2.9999999999999997e-05,-1e-05,-1e-05,1
1041,1129,-2.9999999999999997e-05,-8e-05,-8e-05,-7e-05,-2e-05,-2.9999999999999997e-05,-1e-05,-1e-05,1
1042,1130,-2.9999999999999997e-05,-8e-05,-8e-05,-7e-05,-2e-05,-2.9999999999999997e-05,-1e-05,-1e-05,1
1043,1131,-2.9999999999999997e-05,-8e-05,-8e-05,-7e-05,-2e-05,-2.9999999999999997e-05,-1e-05,-1e-05,1
1044,1132,-2.9999999999999997e-05,-8e-05,-8e-05,-7e-05,-2e-05,-2.9999999999999997e-05,-1e-05,-1e-05,1
1045,1133,-2.9999999999999997e-05,-8e-05,-8e-05,-7e-05,-2e-05,-2.9999999999999997e-05,-1e-05,-1e-05,1
1046,1134,-2.9999999999999997e-05,-8e-05,-8e-05,-7e-05,-2e-05,-2.9999999999999997e-05,-1e-05,-1e-05,1
1047,1135,-2.9999999999999997e-05,-8e-05,-8e-05,-7e-05,-2e-05,-2.9999999999999997e-05,-1e-05,-1e-05,1
1048,1136,-2.9999999999999997e-05,-8e-05,-8e-05,-7e-05,-2e-05,-2.9999999999999997e-05,-1e-05,-1e-05,1
1049,1138,-2.9999999999999997e-05,-8e-05,-8e-05,-7e-05,-2e-05,-2.9999999999999997e-05,-1e-05,-1e-05,1
1050,1139,-2.9999999999999997e-05,-8e-05,-8e-05,-7e-05,-2e-05,-2.9999999999999997e-05,-1e-05,-1e-05,1
1051,1140,-2.9999999999999997e-05,-8e-05,-8e-05,-7e-05,-2e-05,-2.9999999999999997e-05,-1e-05,-1e-05,1
1052,1141,-2.9999999999999997e-05,-8e-05,-8e-05,-7e-05,-2e-05,-2.9999999999999997e-05,-1e-05,-1e-05,1
1053,1142,-1e-05,-1e-05,-1e-05,2e-05,-1e-05,-1e-05,0.0,-1e-05,1
1054,1143,-1e-05,-1e-05,-1e-05,2e-05,-1e-05,-1e-05,0.0,-1e-05,1
1055,1144,0.0,2e-05,2.9999999999999997e-05,2.9999999999999997e-05,0.0,0.0,-1e-05,-1e-05,1
1056,1147,0.0,2e-05,2.9999999999999997e-05,2.9999999999999997e-05,0.0,0.0,-1e-05,-1e-05,1
1057,1148,0.0,2e-05,2.9999999999999997e-05,2.9999999999999997e-05,0.0,0.0,-1e-05,-1e-05,1
1058,1149,0.0,2e-05,2.9999999999999997e-05,2.9999999999999997e-05,0.0,0.0,-1e-05,-1e-05,1
1059,1150,0.0,2e-05,2.9999999999999997e-05,2.9999999999999997e-05,0.0,0.0,-1e-05,-1e-05,1
1060,1151,0.0,2e-05,2.9999999999999997e-05,2.9999999999999997e-05,0.0,0.0,-1e-05,-1e-05,1
1061,1152,0.0,2e-05,2.9999999999999997e-05,2.9999999999999997e-05,0.0,0.0,-1e-05,-1e-05,1
1062,1153,0.0,2e-05,2.9999999999999997e-05,2.9999999999999997e-05,0.0,0.0,-1e-05,-1e-05,1
1063,1154,0.0,2e-05,2.9999999999999997e-05,2.9999999999999997e-05,0.0,0.0,-1e-05,-1e-05,1
1064,1155,0.0,2e-05,2.9999999999999997e-05,2.9999999999999997e-05,0.0,0.0,-1e-05,-1e-05,1
1065,1156,0.0,2e-05,2.9999999999999997e-05,2.9999999999999997e-05,0.0,0.0,-1e-05,-1e-05,1
1066,1157,0.0,2e-05,2.9999999999999997e-05,2.9999999999999997e-05,0.0,0.0,-1e-05,-1e-05,1
1067,1158,0.0,2e-05,2.9999999999999997e-05,2.9999999999999997e-05,0.0,0.0,-1e-05,-1e-05,1
1068,1159,0.0,2e-05,2.9999999999999997e-05,2.9999999999999997e-05,0.0,0.0,-1e-05,-1e-05,1
1069,1160,0.0,2e-05,2.9999999999999997e-05,2.9999999999999997e-05,0.0,0.0,-1e-05,-1e-05,1
1070,1161,0.0,2e-05,2.9999999999999997e-05,2.9999999999999997e-05,0.0,0.0,-1e-05,-1e-05,1
1071,1162,0.0,2e-05,2.9999999999999997e-05,2.9999999999999997e-05,0.0,0.0,-1e-05,-1e-05,1
1072,1163,0.0,2e-05,2.9999999999999997e-05,2.9999999999999997e-05,0.0,0.0,-1e-05,-1e-05,1
1073,1164,-2e-05,-2e-05,-5e-05,-2e-05,-2.9999999999999997e-05,-2e-05,0.0,-1e-05,1
1074,1165,-2e-05,-2e-05,-5e-05,-2e-05,-2.9999999999999997e-05,-2e-05,0.0,-1e-05,1
1075,1166,0.0,0.0,2e-05,2e-05,1e-05,0.0,-1e-05,-1e-05,1
1076,1167,0.0,0.0,2e-05,2e-05,1e-05,0.0,-1e-05,-1e-05,1
1077,1168,0.0,0.0,2e-05,2e-05,1e-05,0.0,-1e-05,-1e-05,1
1078,1169,0.0,0.0,2e-05,2e-05,1e-05,0.0,-1e-05,-1e-05,1
1079,1170,0.0,0.0,2e-05,2e-05,1e-05,0.0,-1e-05,-1e-05,1
1080,1171,0.0,0.0,2e-05,2e-05,1e-05,0.0,-1e-05,-1e-05,1
1081,1172,0.0,0.0,2e-05,2e-05,1e-05,0.0,-1e-05,-1e-05,1
1082,1173,0.0,0.0,2e-05,2e-05,1e-05,0.0,-1e-05,-1e-05,1
1083,1174,0.0,0.0,2e-05,2e-05,1e-05,0.0,-1e-05,-1e-05,1
1084,1175,0.0,0.0,2e-05,2e-05,1e-05,0.0,-1e-05,-1e-05,1
1085,1176,0.0,0.0,2e-05,2e-05,1e-05,0.0,-1e-05,-1e-05,1
1086,1177,0.0,0.0,2e-05,2e-05,1e-05,0.0,-1e-05,-1e-05,1
1087,1178,0.0,0.0,2e-05,2e-05,1e-05,0.0,-1e-05,-1e-05,1
1088,1179,0.0,0.0,2e-05,2e-05,1e-05,0.0,-1e-05,-1e-05,1
1089,1180,0.0,0.0,2e-05,2e-05,1e-05,0.0,-1e-05,-1e-05,1
1090,1181,0.0,0.0,2e-05,2e-05,1e-05,0.0,-1e-05,-1e-05,1
1091,1182,0.0,0.0,2e-05,2e-05,1e-05,0.0,-1e-05,-1e-05,1
1092,1183,0.0,0.0,2e-05,2e-05,1e-05,0.0,-1e-05,-1e-05,1
1093,1184,0.0,0.0,2e-05,2e-05,1e-05,0.0,-1e-05,-1e-05,1
1094,1185,0.0,0.0,2e-05,2e-05,1e-05,0.0,-1e-05,-1e-05,1
1095,1186,0.0,0.0,2e-05,2e-05,1e-05,0.0,-1e-05,-1e-05,1
1096,1188,0.0,1e-05,1e-05,2e-05,0.0,0.0,0.0,-2e-05,1
1097,1189,0.0,1e-05,1e-05,2e-05,0.0,0.0,0.0,-2e-05,1
1098,1190,0.0,1e-05,1e-05,2e-05,0.0,0.0,0.0,-2e-05,1
1099,1191,0.0,1e-05,1e-05,2e-05,0.0,0.0,0.0,-2e-05,1
1100,1192,0.0,1e-05,1e-05,2e-05,0.0,0.0,0.0,-2e-05,1
1101,1193,0.0,1e-05,1e-05,2e-05,0.0,0.0,0.0,-2e-05,1
1102,1194,0.0,1e-05,1e-05,2e-05,0.0,0.0,0.0,-2e-05,1
1103,1195,0.0,1e-05,1e-05,2e-05,0.0,0.0,0.0,-2e-05,1
1104,1196,0.0,1e-05,1e-05,2e-05,0.0,0.0,0.0,-2e-05,1
1105,1197,0.0,1e-05,1e-05,2e-05,0.0,0.0,0.0,-2e-05,1
1106,1198,0.0,1e-05,1e-05,2e-05,0.0,0.0,0.0,-2e-05,1
1107,1199,0.0,1e-05,1e-05,2e-05,0.0,0.0,0.0,-2e-05,1
1108,1200,0.0,1e-05,1e-05,2e-05,0.0,0.0,0.0,-2e-05,1
1109,1201,0.0,1e-05,1e-05,2e-05,0.0,0.0,0.0,-2e-05,1
1110,1202,-2e-05,-2.9999999999999997e-05,-4e-05,-2e-05,-2e-05,-1e-05,0.0,-2e-05,1
1111,1203,-1e-05,-2e-05,-4e-05,-2.9999999999999997e-05,0.0,-1e-05,-1e-05,0.0,1
1112,1204,-1e-05,-2e-05,-4e-05,-2.9999999999999997e-05,0.0,-1e-05,-1e-05,0.0,1
1113,1205,-1e-05,-2e-05,-4e-05,-2.9999999999999997e-05,0.0,-1e-05,-1e-05,0.0,1
1114,1206,-1e-05,-2e-05,-4e-05,-2.9999999999999997e-05,0.0,-1e-05,-1e-05,0.0,1
1115,1207,-1e-05,-2e-05,-4e-05,-2.9999999999999997e-05,0.0,-1e-05,-1e-05,0.0,1
1116,1208,-1e-05,-2e-05,-4e-05,-2.9999999999999997e-05,0.0,-1e-05,-1e-05,0.0,1
1117,1209,-1e-05,-2e-05,-4e-05,-2.9999999999999997e-05,0.0,-1e-05,-1e-05,0.0,1
1118,1210,-1e-05,-2e-05,-4e-05,-2.9999999999999997e-05,0.0,-1e-05,-1e-05,0.0,1
1119,1211,-1e-05,-2e-05,-4e-05,-2.9999999999999997e-05,0.0,-1e-05,-1e-05,0.0,1
1120,1212,-1e-05,-2e-05,-4e-05,-2.9999999999999997e-05,0.0,-1e-05,-1e-05,0.0,1
1121,1213,-1e-05,-2e-05,-4e-05,-2.9999999999999997e-05,0.0,-1e-05,-1e-05,0.0,1
1122,1214,-1e-05,-2e-05,-4e-05,-2.9999999999999997e-05,0.0,-1e-05,-1e-05,0.0,1
1123,1215,-1e-05,-2e-05,-4e-05,-2.9999999999999997e-05,0.0,-1e-05,-1e-05,0.0,1
1124,1216,-1e-05,-2e-05,-4e-05,-2.9999999999999997e-05,0.0,-1e-05,-1e-05,0.0,1
1125,1217,-1e-05,-2e-05,-4e-05,-2.9999999999999997e-05,0.0,-1e-05,-1e-05,0.0,1
1126,1218,-1e-05,-2e-05,-4e-05,-2.9999999999999997e-05,0.0,-1e-05,-1e-05,0.0,1
1127,1219,-1e-05,-2e-05,-4e-05,-2.9999999999999997e-05,0.0,-1e-05,-1e-05,0.0,1
1128,1220,-1e-05,-2e-05,-4e-05,-2.9999999999999997e-05,0.0,-1e-05,-1e-05,0.0,1
1129,1221,-1e-05,-2e-05,-4e-05,-2.9999999999999997e-05,0.0,-1e-05,-1e-05,0.0,1
1130,1222,-1e-05,-2e-05,-4e-05,-2.9999999999999997e-05,0.0,-1e-05,-1e-05,0.0,1
1131,1223,-1e-05,-2e-05,-4e-05,-2.9999999999999997e-05,0.0,-1e-05,-1e-05,0.0,1
1132,1224,1e-05,0.0,2e-05,-1e-05,-1e-05,-4e-05,0.0,-1e-05,1
1133,1225,1e-05,0.0,2e-05,-1e-05,-1e-05,-4e-05,0.0,-1e-05,1
1134,1226,-2e-05,-2.9999999999999997e-05,-2e-05,-2.9999999999999997e-05,-2e-05,-1e-05,-2e-05,-2e-05,1
1135,1227,-2e-05,-2.9999999999999997e-05,-2e-05,-2.9999999999999997e-05,-2e-05,-1e-05,-2e-05,-2e-05,1
1136,1228,-2e-05,-2.9999999999999997e-05,-2e-05,-2.9999999999999997e-05,-2e-05,-1e-05,-2e-05,-2e-05,1
1137,1229,-2e-05,-2.9999999999999997e-05,-2e-05,-2.9999999999999997e-05,-2e-05,-1e-05,-2e-05,-2e-05,1
1138,1230,-2e-05,-2.9999999999999997e-05,-2e-05,-2.9999999999999997e-05,-2e-05,-1e-05,-2e-05,-2e-05,1
1139,1231,-2e-05,-2.9999999999999997e-05,-2e-05,-2.9999999999999997e-05,-2e-05,-1e-05,-2e-05,-2e-05,1
1140,1232,-2e-05,-2.9999999999999997e-05,-2e-05,-2.9999999999999997e-05,-2e-05,-1e-05,-2e-05,-2e-05,1
1141,1233,-2e-05,-2.9999999999999997e-05,-2e-05,-2.9999999999999997e-05,-2e-05,-1e-05,-2e-05,-2e-05,1
1142,1234,-2e-05,-2.9999999999999997e-05,-2e-05,-2.9999999999999997e-05,-2e-05,-1e-05,-2e-05,-2e-05,1
1143,1235,-2e-05,-2.9999999999999997e-05,-2e-05,-2.9999999999999997e-05,-2e-05,-1e-05,-2e-05,-2e-05,1
1144,1236,-2e-05,-2.9999999999999997e-05,-2e-05,-2.9999999999999997e-05,-2e-05,-1e-05,-2e-05,-2e-05,1
1145,1238,-2e-05,-2.9999999999999997e-05,-2e-05,-2.9999999999999997e-05,-2e-05,-1e-05,-2e-05,-2e-05,1
1146,1239,-2e-05,-2.9999999999999997e-05,-2e-05,-2.9999999999999997e-05,-2e-05,-1e-05,-2e-05,-2e-05,1
1147,1240,-2e-05,-2.9999999999999997e-05,-2e-05,-2.9999999999999997e-05,-2e-05,-1e-05,-2e-05,-2e-05,1
1148,1241,-2e-05,-2.9999999999999997e-05,-2e-05,-2.9999999999999997e-05,-2e-05,-1e-05,-2e-05,-2e-05,1
1149,1242,-2e-05,-2.9999999999999997e-05,-2e-05,-2.9999999999999997e-05,-2e-05,-1e-05,-2e-05,-2e-05,1
1150,1243,-2e-05,-2.9999999999999997e-05,-2e-05,-2.9999999999999997e-05,-2e-05,-1e-05,-2e-05,-2e-05,1
1151,1244,-2e-05,-2.9999999999999997e-05,-2e-05,-2.9999999999999997e-05,-2e-05,-1e-05,-2e-05,-2e-05,1
1152,1245,-2e-05,-2.9999999999999997e-05,-2e-05,-2.9999999999999997e-05,-2e-05,-1e-05,-2e-05,-2e-05,1
1153,1246,-2e-05,-2.9999999999999997e-05,-2e-05,-2.9999999999999997e-05,-2e-05,-1e-05,-2e-05,-2e-05,1
1154,1247,0.0,0.0,0.0,1e-05,1e-05,-1e-05,-2e-05,0.0,1
1155,1248,-1e-05,1e-05,-2e-05,-1e-05,-2e-05,-1e-05,-1e-05,0.0,1
1156,1249,-1e-05,1e-05,-2e-05,-1e-05,-2e-05,-1e-05,-1e-05,0.0,1
1157,1250,-1e-05,1e-05,-2e-05,-1e-05,-2e-05,-1e-05,-1e-05,0.0,1
1158,1251,-1e-05,1e-05,-2e-05,-1e-05,-2e-05,-1e-05,-1e-05,0.0,1
1159,1252,-1e-05,1e-05,-2e-05,-1e-05,-2e-05,-1e-05,-1e-05,0.0,1
1160,1253,-1e-05,1e-05,-2e-05,-1e-05,-2e-05,-1e-05,-1e-05,0.0,1
1161,1254,-1e-05,1e-05,-2e-05,-1e-05,-2e-05,-1e-05,-1e-05,0.0,1
1162,1255,-1e-05,1e-05,-2e-05,-1e-05,-2e-05,-1e-05,-1e-05,0.0,1
1163,1256,-1e-05,1e-05,-2e-05,-1e-05,-2e-05,-1e-05,-1e-05,0.0,1
1164,1257,-1e-05,1e-05,-2e-05,-1e-05,-2e-05,-1e-05,-1e-05,0.0,1
1165,1258,-1e-05,1e-05,-2e-05,-1e-05,-2e-05,-1e-05,-1e-05,0.0,1
1166,1259,-1e-05,1e-05,-2e-05,-1e-05,-2e-05,-1e-05,-1e-05,0.0,1
1167,1260,-1e-05,1e-05,-2e-05,-1e-05,-2e-05,-1e-05,-1e-05,0.0,1
1168,1261,-1e-05,1e-05,-2e-05,-1e-05,-2e-05,-1e-05,-1e-05,0.0,1
1169,1262,-1e-05,-2e-05,1e-05,2e-05,-1e-05,0.0,-2e-05,0.0,1
1170,1263,-1e-05,-1e-05,-1e-05,0.0,-1e-05,-2e-05,-2e-05,-1e-05,1
1171,1264,-1e-05,-1e-05,-1e-05,0.0,-1e-05,-2e-05,-2e-05,-1e-05,1
1172,1265,-1e-05,-1e-05,-1e-05,0.0,-1e-05,-2e-05,-2e-05,-1e-05,1
1173,1266,-1e-05,-1e-05,-1e-05,0.0,-1e-05,-2e-05,-2e-05,-1e-05,1
1174,1267,-1e-05,-1e-05,-1e-05,0.0,-1e-05,-2e-05,-2e-05,-1e-05,1
1175,1268,-1e-05,-1e-05,-1e-05,0.0,-1e-05,-2e-05,-2e-05,-1e-05,1
1176,1269,-1e-05,-1e-05,-1e-05,0.0,-1e-05,-2e-05,-2e-05,-1e-05,1
1177,1270,-1e-05,-1e-05,-1e-05,0.0,-1e-05,-2e-05,-2e-05,-1e-05,1
1178,1271,-1e-05,-1e-05,-1e-05,0.0,-1e-05,-2e-05,-2e-05,-1e-05,1
1179,1272,-1e-05,-1e-05,-1e-05,0.0,-1e-05,-2e-05,-2e-05,-1e-05,1
1180,1273,-1e-05,-1e-05,-1e-05,0.0,-1e-05,-2e-05,-2e-05,-1e-05,1
1181,1274,-1e-05,-1e-05,-1e-05,0.0,-1e-05,-2e-05,-2e-05,-1e-05,1
1182,1275,-1e-05,-1e-05,-1e-05,0.0,-1e-05,-2e-05,-2e-05,-1e-05,1
1183,1276,-1e-05,-1e-05,-1e-05,0.0,-1e-05,-2e-05,-2e-05,-1e-05,1
1184,1277,-1e-05,-1e-05,-1e-05,0.0,-1e-05,-2e-05,-2e-05,-1e-05,1
1185,1278,-1e-05,-1e-05,-1e-05,0.0,-1e-05,-2e-05,-2e-05,-1e-05,1
1186,1279,-1e-05,-1e-05,-1e-05,0.0,-1e-05,-2e-05,-2e-05,-1e-05,1
1187,1280,-1e-05,-1e-05,-1e-05,0.0,-1e-05,-2e-05,-2e-05,-1e-05,1
1188,1281,-1e-05,-1e-05,-1e-05,0.0,-1e-05,-2e-05,-2e-05,-1e-05,1
1189,1282,-1e-05,-1e-05,-1e-05,0.0,-1e-05,-2e-05,-2e-05,-1e-05,1
1190,1283,-1e-05,-1e-05,-1e-05,0.0,-1e-05,-2e-05,-2e-05,-1e-05,1
1191,1284,-1e-05,-1e-05,-1e-05,-2e-05,-1e-05,1e-05,-1e-05,-1e-05,1
1192,1285,-1e-05,-1e-05,-1e-05,-2e-05,-1e-05,1e-05,-1e-05,-1e-05,1
1193,1286,0.0,-2e-05,0.0,-1e-05,-2e-05,-1e-05,-2e-05,0.0,1
1194,1288,0.0,-2e-05,0.0,-1e-05,-2e-05,-1e-05,-2e-05,0.0,1
1195,1289,0.0,-2e-05,0.0,-1e-05,-2e-05,-1e-05,-2e-05,0.0,1
1196,1290,0.0,-2e-05,0.0,-1e-05,-2e-05,-1e-05,-2e-05,0.0,1
1197,1291,0.0,-2e-05,0.0,-1e-05,-2e-05,-1e-05,-2e-05,0.0,1
1198,1292,0.0,-2e-05,0.0,-1e-05,-2e-05,-1e-05,-2e-05,0.0,1
1199,1293,0.0,-2e-05,0.0,-1e-05,-2e-05,-1e-05,-2e-05,0.0,1
1200,1294,0.0,-2e-05,0.0,-1e-05,-2e-05,-1e-05,-2e-05,0.0,1
1201,1295,0.0,-2e-05,0.0,-1e-05,-2e-05,-1e-05,-2e-05,0.0,1
1202,1296,0.0,-2e-05,0.0,-1e-05,-2e-05,-1e-05,-2e-05,0.0,1
1203,1297,0.0,-2e-05,0.0,-1e-05,-2e-05,-1e-05,-2e-05,0.0,1
1204,1298,0.0,-2e-05,0.0,-1e-05,-2e-05,-1e-05,-2e-05,0.0,1
1205,1299,0.0,-2e-05,0.0,-1e-05,-2e-05,-1e-05,-2e-05,0.0,1
1206,1300,0.0,-2e-05,0.0,-1e-05,-2e-05,-1e-05,-2e-05,0.0,1
1207,1301,0.0,-2e-05,0.0,-1e-05,-2e-05,-1e-05,-2e-05,0.0,1
1208,1302,0.0,-2e-05,0.0,-1e-05,-2e-05,-1e-05,-2e-05,0.0,1
1209,1303,0.0,-2e-05,0.0,-1e-05,-2e-05,-1e-05,-2e-05,0.0,1
1210,1304,0.0,-2e-05,0.0,-1e-05,-2e-05,-1e-05,-2e-05,0.0,1
1211,1305,0.0,-2e-05,0.0,-1e-05,-2e-05,-1e-05,-2e-05,0.0,1
1212,1306,0.0,-2e-05,0.0,-1e-05,-2e-05,-1e-05,-2e-05,0.0,1
1213,1307,-2e-05,1e-05,1e-05,2e-05,0.0,-2e-05,-1e-05,-2e-05,1
1214,1308,-1e-05,-2e-05,-5e-05,-5e-05,-2.9999999999999997e-05,-1e-05,-1e-05,-1e-05,1
1215,1309,-1e-05,-2e-05,-5e-05,-5e-05,-2.9999999999999997e-05,-1e-05,-1e-05,-1e-05,1
1216,1310,-1e-05,-2e-05,-5e-05,-5e-05,-2.9999999999999997e-05,-1e-05,-1e-05,-1e-05,1
1217,1311,-1e-05,-2e-05,-5e-05,-5e-05,-2.9999999999999997e-05,-1e-05,-1e-05,-1e-05,1
1218,1312,-1e-05,-2e-05,-5e-05,-5e-05,-2.9999999999999997e-05,-1e-05,-1e-05,-1e-05,1
1219,1313,-1e-05,-2e-05,-5e-05,-5e-05,-2.9999999999999997e-05,-1e-05,-1e-05,-1e-05,1
1220,1314,-1e-05,-2e-05,-5e-05,-5e-05,-2.9999999999999997e-05,-1e-05,-1e-05,-1e-05,1
1221,1315,-1e-05,-2e-05,-5e-05,-5e-05,-2.9999999999999997e-05,-1e-05,-1e-05,-1e-05,1
1222,1316,-1e-05,-2e-05,-5e-05,-5e-05,-2.9999999999999997e-05,-1e-05,-1e-05,-1e-05,1
1223,1317,-1e-05,-2e-05,-5e-05,-5e-05,-2.9999999999999997e-05,-1e-05,-1e-05,-1e-05,1
1224,1318,-1e-05,-2e-05,-5e-05,-5e-05,-2.9999999999999997e-05,-1e-05,-1e-05,-1e-05,1
1225,1319,-1e-05,-2e-05,-5e-05,-5e-05,-2.9999999999999997e-05,-1e-05,-1e-05,-1e-05,1
1226,1320,-1e-05,-2e-05,-5e-05,-5e-05,-2.9999999999999997e-05,-1e-05,-1e-05,-1e-05,1
1227,1321,-1e-05,-2.9999999999999997e-05,-4e-05,-2e-05,-2e-05,-1e-05,-2.9999999999999997e-05,1e-05,1
1228,1322,-1e-05,-2.9999999999999997e-05,-4e-05,-2e-05,-2e-05,-1e-05,-2.9999999999999997e-05,1e-05,1
1229,1323,-1e-05,-2.9999999999999997e-05,-4e-05,-2e-05,-2e-05,-1e-05,-2.9999999999999997e-05,1e-05,1
1230,1324,-1e-05,-2.9999999999999997e-05,-4e-05,-2e-05,-2e-05,-1e-05,-2.9999999999999997e-05,1e-05,1
1231,1325,-1e-05,-2.9999999999999997e-05,-4e-05,-2e-05,-2e-05,-1e-05,-2.9999999999999997e-05,1e-05,1
1232,1326,-1e-05,-2.9999999999999997e-05,-4e-05,-2e-05,-2e-05,-1e-05,-2.9999999999999997e-05,1e-05,1
1233,1327,-1e-05,-2.9999999999999997e-05,-4e-05,-2e-05,-2e-05,-1e-05,-2.9999999999999997e-05,1e-05,1
1234,1328,0.0,-2e-05,0.0,-2e-05,-1e-05,-2.9999999999999997e-05,-1e-05,-2e-05,1
1235,1329,0.0,-2e-05,0.0,-2e-05,-1e-05,-2.9999999999999997e-05,-1e-05,-2e-05,1
1236,1330,0.0,-2e-05,0.0,-2e-05,-1e-05,-2.9999999999999997e-05,-1e-05,-2e-05,1
1237,1331,0.0,-2e-05,0.0,-2e-05,-1e-05,-2.9999999999999997e-05,-1e-05,-2e-05,1
1238,1332,0.0,-2e-05,0.0,-2e-05,-1e-05,-2.9999999999999997e-05,-1e-05,-2e-05,1
1239,1333,0.0,-2e-05,0.0,-2e-05,-1e-05,-2.9999999999999997e-05,-1e-05,-2e-05,1
1240,1334,0.0,-2e-05,0.0,-2e-05,-1e-05,-2.9999999999999997e-05,-1e-05,-2e-05,1
1241,1335,0.0,-2e-05,0.0,-2e-05,-1e-05,-2.9999999999999997e-05,-1e-05,-2e-05,1
1242,1336,0.0,-2e-05,0.0,-2e-05,-1e-05,-2.9999999999999997e-05,-1e-05,-2e-05,1
1243,1338,0.0,-2e-05,0.0,-2e-05,-1e-05,-2.9999999999999997e-05,-1e-05,-2e-05,1
1244,1339,0.0,-2e-05,0.0,-2e-05,-1e-05,-2.9999999999999997e-05,-1e-05,-2e-05,1
1245,1340,0.0,-2e-05,0.0,-2e-05,-1e-05,-2.9999999999999997e-05,-1e-05,-2e-05,1
1246,1341,0.0,-2e-05,0.0,-2e-05,-1e-05,-2.9999999999999997e-05,-1e-05,-2e-05,1
1247,1342,0.0,-2e-05,0.0,-2e-05,-1e-05,-2.9999999999999997e-05,-1e-05,-2e-05,1
1248,1343,0.0,-2e-05,0.0,-2e-05,-1e-05,-2.9999999999999997e-05,-1e-05,-2e-05,1
1249,1344,-1e-05,1e-05,2.9999999999999997e-05,2.9999999999999997e-05,-2e-05,0.0,0.0,-1e-05,1
1250,1345,-1e-05,1e-05,2.9999999999999997e-05,2.9999999999999997e-05,-2e-05,0.0,0.0,-1e-05,1
1251,1346,-2e-05,-2e-05,-1e-05,-2.9999999999999997e-05,-1e-05,-1e-05,-2e-05,-1e-05,1
1252,1347,-2e-05,-2e-05,-1e-05,-2.9999999999999997e-05,-1e-05,-1e-05,-2e-05,-1e-05,1
1253,1348,-2e-05,-2e-05,-1e-05,-2.9999999999999997e-05,-1e-05,-1e-05,-2e-05,-1e-05,1
1254,1349,-2e-05,-2e-05,-1e-05,-2.9999999999999997e-05,-1e-05,-1e-05,-2e-05,-1e-05,1
1255,1350,-2e-05,-2e-05,-1e-05,-2.9999999999999997e-05,-1e-05,-1e-05,-2e-05,-1e-05,1
1256,1351,-2e-05,-2e-05,-1e-05,-2.9999999999999997e-05,-1e-05,-1e-05,-2e-05,-1e-05,1
1257,1352,-2e-05,-2e-05,-1e-05,-2.9999999999999997e-05,-1e-05,-1e-05,-2e-05,-1e-05,1
1258,1353,-2e-05,-2e-05,-1e-05,-2.9999999999999997e-05,-1e-05,-1e-05,-2e-05,-1e-05,1
1259,1354,-2e-05,-2e-05,-1e-05,-2.9999999999999997e-05,-1e-05,-1e-05,-2e-05,-1e-05,1
1260,1355,-2e-05,-2e-05,-1e-05,-2.9999999999999997e-05,-1e-05,-1e-05,-2e-05,-1e-05,1
1261,1356,-2e-05,-2e-05,-1e-05,-2.9999999999999997e-05,-1e-05,-1e-05,-2e-05,-1e-05,1
1262,1357,-2e-05,-2e-05,-1e-05,-2.9999999999999997e-05,-1e-05,-1e-05,-2e-05,-1e-05,1
1263,1358,-2e-05,-2e-05,-1e-05,-2.9999999999999997e-05,-1e-05,-1e-05,-2e-05,-1e-05,1
1264,1359,-2e-05,-2e-05,-1e-05,-2.9999999999999997e-05,-1e-05,-1e-05,-2e-05,-1e-05,1
1265,1360,-2e-05,-2e-05,-1e-05,-2.9999999999999997e-05,-1e-05,-1e-05,-2e-05,-1e-05,1
1266,1361,-2e-05,-2e-05,-1e-05,-2.9999999999999997e-05,-1e-05,-1e-05,-2e-05,-1e-05,1
1267,1362,-2e-05,-2e-05,-1e-05,-2.9999999999999997e-05,-1e-05,-1e-05,-2e-05,-1e-05,1
1268,1363,-2e-05,-2e-05,-1e-05,-2.9999999999999997e-05,-1e-05,-1e-05,-2e-05,-1e-05,1
1269,1364,-2e-05,-2e-05,-1e-05,-2.9999999999999997e-05,-1e-05,-1e-05,-2e-05,-1e-05,1
1270,1365,-2e-05,-2e-05,-1e-05,-2.9999999999999997e-05,-1e-05,-1e-05,-2e-05,-1e-05,1
1271,1366,-2e-05,-2e-05,-1e-05,-2.9999999999999997e-05,-1e-05,-1e-05,-2e-05,-1e-05,1
1272,1367,0.0,0.0,-1e-05,-2e-05,0.0,-1e-05,0.0,-1e-05,1
1273,1368,1e-05,0.0,1e-05,1e-05,-2e-05,1e-05,0.0,-1e-05,1
1274,1369,1e-05,0.0,1e-05,1e-05,-2e-05,1e-05,0.0,-1e-05,1
1275,1370,1e-05,0.0,1e-05,1e-05,-2e-05,1e-05,0.0,-1e-05,1
1276,1371,1e-05,0.0,1e-05,1e-05,-2e-05,1e-05,0.0,-1e-05,1
1277,1372,1e-05,0.0,1e-05,1e-05,-2e-05,1e-05,0.0,-1e-05,1
1278,1373,1e-05,0.0,1e-05,1e-05,-2e-05,1e-05,0.0,-1e-05,1
1279,1374,1e-05,0.0,1e-05,1e-05,-2e-05,1e-05,0.0,-1e-05,1
1280,1375,1e-05,0.0,1e-05,1e-05,-2e-05,1e-05,0.0,-1e-05,1
1281,1376,1e-05,0.0,1e-05,1e-05,-2e-05,1e-05,0.0,-1e-05,1
1282,1377,1e-05,0.0,1e-05,1e-05,-2e-05,1e-05,0.0,-1e-05,1
1283,1378,1e-05,0.0,1e-05,1e-05,-2e-05,1e-05,0.0,-1e-05,1
1284,1379,1e-05,0.0,1e-05,1e-05,-2e-05,1e-05,0.0,-1e-05,1
1285,1380,1e-05,0.0,1e-05,1e-05,-2e-05,1e-05,0.0,-1e-05,1
1286,1381,-2e-05,-4e-05,-7e-05,-2e-05,-1e-05,-1e-05,0.0,0.0,1
1287,1382,-2e-05,-4e-05,-7e-05,-2e-05,-1e-05,-1e-05,0.0,0.0,1
1288,1383,-2e-05,-4e-05,-7e-05,-2e-05,-1e-05,-1e-05,0.0,0.0,1
1289,1384,-2e-05,-4e-05,-7e-05,-2e-05,-1e-05,-1e-05,0.0,0.0,1
1290,1385,-2e-05,-4e-05,-7e-05,-2e-05,-1e-05,-1e-05,0.0,0.0,1
1291,1386,-2e-05,-4e-05,-7e-05,-2e-05,-1e-05,-1e-05,0.0,0.0,1
1292,1388,-2.9999999999999997e-05,-1e-05,-2e-05,-1e-05,0.0,-2e-05,0.0,-1e-05,1
1293,1390,-2.9999999999999997e-05,-1e-05,-2e-05,-1e-05,0.0,-2e-05,0.0,-1e-05,1
1294,1391,-2.9999999999999997e-05,-1e-05,-2e-05,-1e-05,0.0,-2e-05,0.0,-1e-05,1
1295,1392,-2.9999999999999997e-05,-1e-05,-2e-05,-1e-05,0.0,-2e-05,0.0,-1e-05,1
1296,1393,-2.9999999999999997e-05,-1e-05,-2e-05,-1e-05,0.0,-2e-05,0.0,-1e-05,1
1297,1394,-2.9999999999999997e-05,-1e-05,-2e-05,-1e-05,0.0,-2e-05,0.0,-1e-05,1
1298,1395,-2.9999999999999997e-05,-1e-05,-2e-05,-1e-05,0.0,-2e-05,0.0,-1e-05,1
1299,1396,-2.9999999999999997e-05,-1e-05,-2e-05,-1e-05,0.0,-2e-05,0.0,-1e-05,1
1300,1397,-2.9999999999999997e-05,-1e-05,-2e-05,-1e-05,0.0,-2e-05,0.0,-1e-05,1
1301,1398,-2.9999999999999997e-05,-1e-05,-2e-05,-1e-05,0.0,-2e-05,0.0,-1e-05,1
1302,1399,-2.9999999999999997e-05,-1e-05,-2e-05,-1e-05,0.0,-2e-05,0.0,-1e-05,1
1303,1400,-2.9999999999999997e-05,-1e-05,-2e-05,-1e-05,0.0,-2e-05,0.0,-1e-05,1
1304,1401,-2.9999999999999997e-05,-1e-05,-2e-05,-1e-05,0.0,-2e-05,0.0,-1e-05,1
1305,1402,-2.9999999999999997e-05,-1e-05,-2e-05,-1e-05,0.0,-2e-05,0.0,-1e-05,1
1306,1403,-2.9999999999999997e-05,-1e-05,-2e-05,-1e-05,0.0,-2e-05,0.0,-1e-05,1
1307,1404,0.0,0.0,0.0,-2e-05,-1e-05,-2e-05,-2e-05,-2e-05,1
1308,1405,0.0,0.0,0.0,-2e-05,-1e-05,-2e-05,-2e-05,-2e-05,1
1309,1406,-1e-05,-1e-05,-1e-05,-1e-05,-2e-05,0.0,0.0,-1e-05,1
1310,1407,-1e-05,-1e-05,-1e-05,-1e-05,-2e-05,0.0,0.0,-1e-05,1
1311,1408,-1e-05,-1e-05,-1e-05,-1e-05,-2e-05,0.0,0.0,-1e-05,1
1312,1409,-1e-05,-1e-05,-1e-05,-1e-05,-2e-05,0.0,0.0,-1e-05,1
1313,1410,-1e-05,-1e-05,-1e-05,-1e-05,-2e-05,0.0,0.0,-1e-05,1
1314,1411,-1e-05,-1e-05,-1e-05,-1e-05,-2e-05,0.0,0.0,-1e-05,1
1315,1412,-1e-05,-1e-05,-1e-05,-1e-05,-2e-05,0.0,0.0,-1e-05,1
1316,1413,-1e-05,-1e-05,-1e-05,-1e-05,-2e-05,0.0,0.0,-1e-05,1
1317,1414,-1e-05,-1e-05,-1e-05,-1e-05,-2e-05,0.0,0.0,-1e-05,1
1318,1415,-1e-05,-1e-05,-1e-05,-1e-05,-2e-05,0.0,0.0,-1e-05,1
1319,1416,-1e-05,-1e-05,-1e-05,-1e-05,-2e-05,0.0,0.0,-1e-05,1
1320,1417,-1e-05,-1e-05,-1e-05,-1e-05,-2e-05,0.0,0.0,-1e-05,1
1321,1418,-1e-05,-1e-05,-1e-05,-1e-05,-2e-05,0.0,0.0,-1e-05,1
1322,1419,-1e-05,-1e-05,-1e-05,-1e-05,-2e-05,0.0,0.0,-1e-05,1
1323,1420,-1e-05,-1e-05,-1e-05,-1e-05,-2e-05,0.0,0.0,-1e-05,1
1324,1421,-1e-05,-1e-05,-1e-05,-1e-05,-2e-05,0.0,0.0,-1e-05,1
1325,1422,-1e-05,-1e-05,-1e-05,-1e-05,-2e-05,0.0,0.0,-1e-05,1
1326,1423,-1e-05,-1e-05,-1e-05,-1e-05,-2e-05,0.0,0.0,-1e-05,1
1327,1424,-1e-05,-1e-05,-1e-05,-1e-05,-2e-05,0.0,0.0,-1e-05,1
1328,1425,-1e-05,-1e-05,-1e-05,-1e-05,-2e-05,0.0,0.0,-1e-05,1
1329,1426,-1e-05,-1e-05,-1e-05,-1e-05,-2e-05,0.0,0.0,-1e-05,1
1330,1427,-2.9999999999999997e-05,0.0,2e-05,-1e-05,-2e-05,-2e-05,0.0,-1e-05,1
1331,1428,-1e-05,0.0,0.0,-1e-05,-1e-05,-1e-05,-1e-05,0.0,1
1332,1429,-1e-05,0.0,0.0,-1e-05,-1e-05,-1e-05,-1e-05,0.0,1
1333,1430,-1e-05,0.0,0.0,-1e-05,-1e-05,-1e-05,-1e-05,0.0,1
1334,1431,-1e-05,0.0,0.0,-1e-05,-1e-05,-1e-05,-1e-05,0.0,1
1335,1432,-1e-05,0.0,0.0,-1e-05,-1e-05,-1e-05,-1e-05,0.0,1
1336,1433,-1e-05,0.0,0.0,-1e-05,-1e-05,-1e-05,-1e-05,0.0,1
1337,1434,-1e-05,0.0,0.0,-1e-05,-1e-05,-1e-05,-1e-05,0.0,1
1338,1435,-1e-05,0.0,0.0,-1e-05,-1e-05,-1e-05,-1e-05,0.0,1
1339,1436,-1e-05,0.0,0.0,-1e-05,-1e-05,-1e-05,-1e-05,0.0,1
1340,1438,-1e-05,0.0,0.0,-1e-05,-1e-05,-1e-05,-1e-05,0.0,1
1341,1439,-1e-05,0.0,0.0,-1e-05,-1e-05,-1e-05,-1e-05,0.0,1
1342,1440,-1e-05,0.0,0.0,-1e-05,-1e-05,-1e-05,-1e-05,0.0,1
1343,1441,1e-05,-2.9999999999999997e-05,-2.9999999999999997e-05,-2e-05,-1e-05,2e-05,-1e-05,-2e-05,1
1344,1442,1e-05,-2.9999999999999997e-05,-2.9999999999999997e-05,-2e-05,-1e-05,2e-05,-1e-05,-2e-05,1
1345,1443,1e-05,-2.9999999999999997e-05,-2.9999999999999997e-05,-2e-05,-1e-05,2e-05,-1e-05,-2e-05,1
1346,1444,1e-05,-2.9999999999999997e-05,-2.9999999999999997e-05,-2e-05,-1e-05,2e-05,-1e-05,-2e-05,1
1347,1445,1e-05,-2.9999999999999997e-05,-2.9999999999999997e-05,-2e-05,-1e-05,2e-05,-1e-05,-2e-05,1
1348,1446,1e-05,-2.9999999999999997e-05,-2.9999999999999997e-05,-2e-05,-1e-05,2e-05,-1e-05,-2e-05,1
1349,1447,1e-05,-2.9999999999999997e-05,-2.9999999999999997e-05,-2e-05,-1e-05,2e-05,-1e-05,-2e-05,1
1350,1448,1e-05,0.0,4e-05,4e-05,2e-05,-1e-05,-1e-05,0.0,1
1351,1449,1e-05,0.0,4e-05,4e-05,2e-05,-1e-05,-1e-05,0.0,1
1352,1450,1e-05,0.0,4e-05,4e-05,2e-05,-1e-05,-1e-05,0.0,1
1353,1451,1e-05,0.0,4e-05,4e-05,2e-05,-1e-05,-1e-05,0.0,1
1354,1452,1e-05,0.0,4e-05,4e-05,2e-05,-1e-05,-1e-05,0.0,1
1355,1453,1e-05,0.0,4e-05,4e-05,2e-05,-1e-05,-1e-05,0.0,1
1356,1454,1e-05,0.0,4e-05,4e-05,2e-05,-1e-05,-1e-05,0.0,1
1357,1455,1e-05,0.0,4e-05,4e-05,2e-05,-1e-05,-1e-05,0.0,1
1358,1456,1e-05,0.0,4e-05,4e-05,2e-05,-1e-05,-1e-05,0.0,1
1359,1457,1e-05,0.0,4e-05,4e-05,2e-05,-1e-05,-1e-05,0.0,1
1360,1458,1e-05,0.0,4e-05,4e-05,2e-05,-1e-05,-1e-05,0.0,1
1361,1459,1e-05,0.0,4e-05,4e-05,2e-05,-1e-05,-1e-05,0.0,1
1362,1460,1e-05,0.0,4e-05,4e-05,2e-05,-1e-05,-1e-05,0.0,1
1363,1461,1e-05,0.0,4e-05,4e-05,2e-05,-1e-05,-1e-05,0.0,1
1364,1462,1e-05,0.0,4e-05,4e-05,2e-05,-1e-05,-1e-05,0.0,1
1365,1463,1e-05,0.0,4e-05,4e-05,2e-05,-1e-05,-1e-05,0.0,1
1366,1464,-2e-05,-5e-05,-7e-05,-5.9999999999999995e-05,-2.9999999999999997e-05,-1e-05,-1e-05,-1e-05,1
1367,1465,-2e-05,-5e-05,-7e-05,-5.9999999999999995e-05,-2.9999999999999997e-05,-1e-05,-1e-05,-1e-05,1
1368,1466,-1e-05,0.0,-1e-05,0.0,0.0,0.0,-1e-05,-1e-05,1
1369,1467,-1e-05,0.0,-1e-05,0.0,0.0,0.0,-1e-05,-1e-05,1
1370,1468,-1e-05,0.0,-1e-05,0.0,0.0,0.0,-1e-05,-1e-05,1
1371,1469,-1e-05,0.0,-1e-05,0.0,0.0,0.0,-1e-05,-1e-05,1
1372,1470,-1e-05,0.0,-1e-05,0.0,0.0,0.0,-1e-05,-1e-05,1
1373,1471,-1e-05,0.0,-1e-05,0.0,0.0,0.0,-1e-05,-1e-05,1
1374,1472,-1e-05,0.0,-1e-05,0.0,0.0,0.0,-1e-05,-1e-05,1
1375,1473,-1e-05,0.0,-1e-05,0.0,0.0,0.0,-1e-05,-1e-05,1
1376,1474,-1e-05,0.0,-1e-05,0.0,0.0,0.0,-1e-05,-1e-05,1
1377,1475,-1e-05,0.0,-1e-05,0.0,0.0,0.0,-1e-05,-1e-05,1
1378,1476,-1e-05,0.0,-1e-05,0.0,0.0,0.0,-1e-05,-1e-05,1
1379,1477,-1e-05,0.0,-1e-05,0.0,0.0,0.0,-1e-05,-1e-05,1
1380,1478,-1e-05,0.0,-1e-05,0.0,0.0,0.0,-1e-05,-1e-05,1
1381,1479,-1e-05,0.0,-1e-05,0.0,0.0,0.0,-1e-05,-1e-05,1
1382,1480,-1e-05,0.0,-1e-05,0.0,0.0,0.0,-1e-05,-1e-05,1
1383,1481,-1e-05,0.0,-1e-05,0.0,0.0,0.0,-1e-05,-1e-05,1
1384,1482,-1e-05,0.0,-1e-05,0.0,0.0,0.0,-1e-05,-1e-05,1
1385,1483,-1e-05,0.0,-1e-05,0.0,0.0,0.0,-1e-05,-1e-05,1
1386,1484,-1e-05,0.0,-1e-05,0.0,0.0,0.0,-1e-05,-1e-05,1
1387,1485,-1e-05,0.0,-1e-05,0.0,0.0,0.0,-1e-05,-1e-05,1
1388,1486,-1e-05,0.0,-1e-05,0.0,0.0,0.0,-1e-05,-1e-05,1
1389,1488,0.0,-1e-05,0.0,0.0,0.0,-2e-05,0.0,0.0,1
1390,1490,0.0,-1e-05,0.0,0.0,0.0,-2e-05,0.0,0.0,1
1391,1491,0.0,-1e-05,0.0,0.0,0.0,-2e-05,0.0,0.0,1
1392,1492,0.0,-1e-05,0.0,0.0,0.0,-2e-05,0.0,0.0,1
1393,1493,0.0,-1e-05,0.0,0.0,0.0,-2e-05,0.0,0.0,1
1394,1494,0.0,-1e-05,0.0,0.0,0.0,-2e-05,0.0,0.0,1
1395,1495,0.0,-1e-05,0.0,0.0,0.0,-2e-05,0.0,0.0,1
1396,1496,0.0,-1e-05,0.0,0.0,0.0,-2e-05,0.0,0.0,1
1397,1497,0.0,-1e-05,0.0,0.0,0.0,-2e-05,0.0,0.0,1
1398,1498,0.0,-1e-05,0.0,0.0,0.0,-2e-05,0.0,0.0,1
1399,1499,0.0,-1e-05,0.0,0.0,0.0,-2e-05,0.0,0.0,1
1400,1500,0.0,-1e-05,0.0,0.0,0.0,-2e-05,0.0,0.0,1
1401,1501,-1e-05,-1e-05,-1e-05,2e-05,0.0,0.0,-1e-05,0.0,1
1402,1502,-1e-05,-1e-05,-1e-05,2e-05,0.0,0.0,-1e-05,0.0,1
1403,1503,-1e-05,-1e-05,-1e-05,2e-05,0.0,0.0,-1e-05,0.0,1
1404,1504,-1e-05,-1e-05,-1e-05,2e-05,0.0,0.0,-1e-05,0.0,1
1405,1505,-1e-05,-1e-05,-1e-05,2e-05,0.0,0.0,-1e-05,0.0,1
1406,1506,-1e-05,-1e-05,-1e-05,2e-05,0.0,0.0,-1e-05,0.0,1
1407,1507,-1e-05,-1e-05,-1e-05,2e-05,0.0,0.0,-1e-05,0.0,1
1408,1508,-1e-05,1e-05,1e-05,0.0,-1e-05,-1e-05,0.0,0.0,1
1409,1509,-1e-05,1e-05,1e-05,0.0,-1e-05,-1e-05,0.0,0.0,1
1410,1510,-1e-05,1e-05,1e-05,0.0,-1e-05,-1e-05,0.0,0.0,1
1411,1511,-1e-05,1e-05,1e-05,0.0,-1e-05,-1e-05,0.0,0.0,1
1412,1512,-1e-05,1e-05,1e-05,0.0,-1e-05,-1e-05,0.0,0.0,1
1413,1513,-1e-05,1e-05,1e-05,0.0,-1e-05,-1e-05,0.0,0.0,1
1414,1514,-1e-05,1e-05,1e-05,0.0,-1e-05,-1e-05,0.0,0.0,1
1415,1515,-1e-05,1e-05,1e-05,0.0,-1e-05,-1e-05,0.0,0.0,1
1416,1516,-1e-05,1e-05,1e-05,0.0,-1e-05,-1e-05,0.0,0.0,1
1417,1517,-1e-05,1e-05,1e-05,0.0,-1e-05,-1e-05,0.0,0.0,1
1418,1518,-1e-05,1e-05,1e-05,0.0,-1e-05,-1e-05,0.0,0.0,1
1419,1519,-1e-05,1e-05,1e-05,0.0,-1e-05,-1e-05,0.0,0.0,1
1420,1520,-1e-05,1e-05,1e-05,0.0,-1e-05,-1e-05,0.0,0.0,1
1421,1521,-1e-05,1e-05,1e-05,0.0,-1e-05,-1e-05,0.0,0.0,1
1422,1522,-1e-05,1e-05,1e-05,0.0,-1e-05,-1e-05,0.0,0.0,1
1423,1523,-1e-05,1e-05,1e-05,0.0,-1e-05,-1e-05,0.0,0.0,1
1424,1524,-2e-05,-2e-05,-2e-05,-2.9999999999999997e-05,0.0,-2.9999999999999997e-05,-2e-05,-1e-05,1
1425,1525,-2e-05,-2e-05,-2e-05,-2.9999999999999997e-05,0.0,-2.9999999999999997e-05,-2e-05,-1e-05,1
1426,1526,-1e-05,0.0,2.9999999999999997e-05,1e-05,-1e-05,0.0,-1e-05,-2.9999999999999997e-05,1
1427,1527,-1e-05,0.0,2.9999999999999997e-05,1e-05,-1e-05,0.0,-1e-05,-2.9999999999999997e-05,1
1428,1528,-1e-05,0.0,2.9999999999999997e-05,1e-05,-1e-05,0.0,-1e-05,-2.9999999999999997e-05,1
1429,1529,-1e-05,0.0,2.9999999999999997e-05,1e-05,-1e-05,0.0,-1e-05,-2.9999999999999997e-05,1
1430,1530,-1e-05,0.0,2.9999999999999997e-05,1e-05,-1e-05,0.0,-1e-05,-2.9999999999999997e-05,1
1431,1531,-1e-05,0.0,2.9999999999999997e-05,1e-05,-1e-05,0.0,-1e-05,-2.9999999999999997e-05,1
1432,1532,-1e-05,0.0,2.9999999999999997e-05,1e-05,-1e-05,0.0,-1e-05,-2.9999999999999997e-05,1
1433,1533,-1e-05,0.0,2.9999999999999997e-05,1e-05,-1e-05,0.0,-1e-05,-2.9999999999999997e-05,1
1434,1534,-1e-05,0.0,2.9999999999999997e-05,1e-05,-1e-05,0.0,-1e-05,-2.9999999999999997e-05,1
1435,1535,-1e-05,0.0,2.9999999999999997e-05,1e-05,-1e-05,0.0,-1e-05,-2.9999999999999997e-05,1
1436,1536,-1e-05,0.0,2.9999999999999997e-05,1e-05,-1e-05,0.0,-1e-05,-2.9999999999999997e-05,1
1437,1538,-1e-05,0.0,2.9999999999999997e-05,1e-05,-1e-05,0.0,-1e-05,-2.9999999999999997e-05,1
1438,1539,-1e-05,0.0,2.9999999999999997e-05,1e-05,-1e-05,0.0,-1e-05,-2.9999999999999997e-05,1
1439,1540,-1e-05,0.0,2.9999999999999997e-05,1e-05,-1e-05,0.0,-1e-05,-2.9999999999999997e-05,1
1440,1541,-1e-05,0.0,2.9999999999999997e-05,1e-05,-1e-05,0.0,-1e-05,-2.9999999999999997e-05,1
1441,1542,-1e-05,0.0,2.9999999999999997e-05,1e-05,-1e-05,0.0,-1e-05,-2.9999999999999997e-05,1
1442,1543,-1e-05,0.0,2.9999999999999997e-05,1e-05,-1e-05,0.0,-1e-05,-2.9999999999999997e-05,1
1443,1544,-1e-05,0.0,2.9999999999999997e-05,1e-05,-1e-05,0.0,-1e-05,-2.9999999999999997e-05,1
1444,1545,-1e-05,0.0,2.9999999999999997e-05,1e-05,-1e-05,0.0,-1e-05,-2.9999999999999997e-05,1
1445,1546,-1e-05,0.0,2.9999999999999997e-05,1e-05,-1e-05,0.0,-1e-05,-2.9999999999999997e-05,1
1446,1547,-1e-05,-2e-05,-2.9999999999999997e-05,-2.9999999999999997e-05,-1e-05,0.0,0.0,0.0,1
1447,1548,-1e-05,-2e-05,-2e-05,0.0,-2e-05,-2e-05,0.0,-2.9999999999999997e-05,1
1448,1549,-1e-05,-2e-05,-2e-05,0.0,-2e-05,-2e-05,0.0,-2.9999999999999997e-05,1
1449,1550,-1e-05,-2e-05,-2e-05,0.0,-2e-05,-2e-05,0.0,-2.9999999999999997e-05,1
1450,1551,-1e-05,-2e-05,-2e-05,0.0,-2e-05,-2e-05,0.0,-2.9999999999999997e-05,1
1451,1552,-1e-05,-2e-05,-2e-05,0.0,-2e-05,-2e-05,0.0,-2.9999999999999997e-05,1
1452,1553,-1e-05,-2e-05,-2e-05,0.0,-2e-05,-2e-05,0.0,-2.9999999999999997e-05,1
1453,1554,-1e-05,-2e-05,-2e-05,0.0,-2e-05,-2e-05,0.0,-2.9999999999999997e-05,1
1454,1555,-1e-05,-2e-05,-2e-05,0.0,-2e-05,-2e-05,0.0,-2.9999999999999997e-05,1
1455,1556,-1e-05,-2e-05,-2e-05,0.0,-2e-05,-2e-05,0.0,-2.9999999999999997e-05,1
1456,1557,-1e-05,-2e-05,-2e-05,0.0,-2e-05,-2e-05,0.0,-2.9999999999999997e-05,1
1457,1558,-1e-05,-2e-05,-2e-05,0.0,-2e-05,-2e-05,0.0,-2.9999999999999997e-05,1
1458,1559,-1e-05,-2e-05,-2e-05,0.0,-2e-05,-2e-05,0.0,-2.9999999999999997e-05,1
1459,1560,-1e-05,-2e-05,-2e-05,0.0,-2e-05,-2e-05,0.0,-2.9999999999999997e-05,1
1460,1561,-1e-05,0.0,0.0,-2e-05,-2e-05,0.0,0.0,-1e-05,1
1461,1562,-1e-05,0.0,0.0,-2e-05,-2e-05,0.0,0.0,-1e-05,1
1462,1563,-1e-05,0.0,0.0,-2e-05,-2e-05,0.0,0.0,-1e-05,1
1463,1564,-1e-05,0.0,0.0,-2e-05,-2e-05,0.0,0.0,-1e-05,1
1464,1565,-1e-05,0.0,0.0,-2e-05,-2e-05,0.0,0.0,-1e-05,1
1465,1566,-1e-05,0.0,0.0,-2e-05,-2e-05,0.0,0.0,-1e-05,1
1466,1567,-1e-05,0.0,0.0,-2e-05,-2e-05,0.0,0.0,-1e-05,1
1467,1568,0.0,-1e-05,-1e-05,-2e-05,-1e-05,0.0,-2e-05,1e-05,1
1468,1569,0.0,-1e-05,-1e-05,-2e-05,-1e-05,0.0,-2e-05,1e-05,1
1469,1570,0.0,-1e-05,-1e-05,-2e-05,-1e-05,0.0,-2e-05,1e-05,1
1470,1571,0.0,-1e-05,-1e-05,-2e-05,-1e-05,0.0,-2e-05,1e-05,1
1471,1572,0.0,-1e-05,-1e-05,-2e-05,-1e-05,0.0,-2e-05,1e-05,1
1472,1573,0.0,-1e-05,-1e-05,-2e-05,-1e-05,0.0,-2e-05,1e-05,1
1473,1574,0.0,-1e-05,-1e-05,-2e-05,-1e-05,0.0,-2e-05,1e-05,1
1474,1575,0.0,-1e-05,-1e-05,-2e-05,-1e-05,0.0,-2e-05,1e-05,1
1475,1576,0.0,-1e-05,-1e-05,-2e-05,-1e-05,0.0,-2e-05,1e-05,1
1476,1577,0.0,-1e-05,-1e-05,-2e-05,-1e-05,0.0,-2e-05,1e-05,1
1477,1578,0.0,-1e-05,-1e-05,-2e-05,-1e-05,0.0,-2e-05,1e-05,1
1478,1579,0.0,-1e-05,-1e-05,-2e-05,-1e-05,0.0,-2e-05,1e-05,1
1479,1580,0.0,-1e-05,-1e-05,-2e-05,-1e-05,0.0,-2e-05,1e-05,1
1480,1581,0.0,-1e-05,-1e-05,-2e-05,-1e-05,0.0,-2e-05,1e-05,1
1481,1582,0.0,-1e-05,-1e-05,-2e-05,-1e-05,0.0,-2e-05,1e-05,1
1482,1583,0.0,-1e-05,-1e-05,-2e-05,-1e-05,0.0,-2e-05,1e-05,1
1483,1584,0.0,1e-05,1e-05,-1e-05,-2e-05,-2e-05,0.0,1e-05,1
1484,1585,0.0,1e-05,1e-05,-1e-05,-2e-05,-2e-05,0.0,1e-05,1
1485,1586,-1e-05,-2e-05,-1e-05,-1e-05,0.0,-1e-05,-1e-05,-1e-05,1
1486,1588,-1e-05,-2e-05,-1e-05,-1e-05,0.0,-1e-05,-1e-05,-1e-05,1
1487,1589,-1e-05,-2e-05,-1e-05,-1e-05,0.0,-1e-05,-1e-05,-1e-05,1
1488,1590,-1e-05,-2e-05,-1e-05,-1e-05,0.0,-1e-05,-1e-05,-1e-05,1
1489,1591,-1e-05,-2e-05,-1e-05,-1e-05,0.0,-1e-05,-1e-05,-1e-05,1
1490,1592,-1e-05,-2e-05,-1e-05,-1e-05,0.0,-1e-05,-1e-05,-1e-05,1
1491,1593,-1e-05,-2e-05,-1e-05,-1e-05,0.0,-1e-05,-1e-05,-1e-05,1
1492,1594,-1e-05,-2e-05,-1e-05,-1e-05,0.0,-1e-05,-1e-05,-1e-05,1
1493,1595,-1e-05,-2e-05,-1e-05,-1e-05,0.0,-1e-05,-1e-05,-1e-05,1
1494,1596,-1e-05,-2e-05,-1e-05,-1e-05,0.0,-1e-05,-1e-05,-1e-05,1
1495,1597,-1e-05,-2e-05,-1e-05,-1e-05,0.0,-1e-05,-1e-05,-1e-05,1
1496,1598,-1e-05,-2e-05,-1e-05,-1e-05,0.0,-1e-05,-1e-05,-1e-05,1
1497,1599,-1e-05,-2e-05,-1e-05,-1e-05,0.0,-1e-05,-1e-05,-1e-05,1
1498,1600,-1e-05,-2e-05,-1e-05,-1e-05,0.0,-1e-05,-1e-05,-1e-05,1
1499,1601,-1e-05,-2e-05,-1e-05,-1e-05,0.0,-1e-05,-1e-05,-1e-05,1
1500,1602,-1e-05,-2e-05,-1e-05,-1e-05,0.0,-1e-05,-1e-05,-1e-05,1
1501,1603,-1e-05,-2e-05,-1e-05,-1e-05,0.0,-1e-05,-1e-05,-1e-05,1
1502,1604,-1e-05,-2e-05,-1e-05,-1e-05,0.0,-1e-05,-1e-05,-1e-05,1
1503,1605,-1e-05,-2e-05,-1e-05,-1e-05,0.0,-1e-05,-1e-05,-1e-05,1
1504,1606,-1e-05,-2e-05,-1e-05,-1e-05,0.0,-1e-05,-1e-05,-1e-05,1
1505,1607,0.0,0.0,-1e-05,-1e-05,-1e-05,-1e-05,-1e-05,-2e-05,1
1506,1608,-1e-05,1e-05,-1e-05,-1e-05,0.0,-2e-05,-1e-05,-1e-05,1
1507,1609,-1e-05,1e-05,-1e-05,-1e-05,0.0,-2e-05,-1e-05,-1e-05,1
1508,1610,-1e-05,1e-05,-1e-05,-1e-05,0.0,-2e-05,-1e-05,-1e-05,1
1509,1611,-1e-05,1e-05,-1e-05,-1e-05,0.0,-2e-05,-1e-05,-1e-05,1
1510,1612,-1e-05,1e-05,-1e-05,-1e-05,0.0,-2e-05,-1e-05,-1e-05,1
1511,1613,-1e-05,1e-05,-1e-05,-1e-05,0.0,-2e-05,-1e-05,-1e-05,1
1512,1614,-1e-05,1e-05,-1e-05,-1e-05,0.0,-2e-05,-1e-05,-1e-05,1
1513,1615,-1e-05,1e-05,-1e-05,-1e-05,0.0,-2e-05,-1e-05,-1e-05,1
1514,1616,-1e-05,1e-05,-1e-05,-1e-05,0.0,-2e-05,-1e-05,-1e-05,1
1515,1617,-1e-05,1e-05,-1e-05,-1e-05,0.0,-2e-05,-1e-05,-1e-05,1
1516,1618,-1e-05,1e-05,-1e-05,-1e-05,0.0,-2e-05,-1e-05,-1e-05,1
1517,1619,-1e-05,1e-05,-1e-05,-1e-05,0.0,-2e-05,-1e-05,-1e-05,1
1518,1620,-1e-05,1e-05,-1e-05,-1e-05,0.0,-2e-05,-1e-05,-1e-05,1
1519,1621,-2e-05,0.0,-1e-05,1e-05,0.0,0.0,-2e-05,-2.9999999999999997e-05,1
1520,1622,-2e-05,0.0,-1e-05,1e-05,0.0,0.0,-2e-05,-2.9999999999999997e-05,1
1521,1623,-2e-05,0.0,-1e-05,1e-05,0.0,0.0,-2e-05,-2.9999999999999997e-05,1
1522,1624,-2e-05,0.0,-1e-05,1e-05,0.0,0.0,-2e-05,-2.9999999999999997e-05,1
1523,1625,-2e-05,0.0,-1e-05,1e-05,0.0,0.0,-2e-05,-2.9999999999999997e-05,1
1524,1626,-2e-05,0.0,-1e-05,1e-05,0.0,0.0,-2e-05,-2.9999999999999997e-05,1
1525,1627,-2e-05,0.0,-1e-05,1e-05,0.0,0.0,-2e-05,-2.9999999999999997e-05,1
1526,1628,-2e-05,-1e-05,-4e-05,-2e-05,0.0,-1e-05,-1e-05,-2e-05,1
1527,1629,-2e-05,-1e-05,-4e-05,-2e-05,0.0,-1e-05,-1e-05,-2e-05,1
1528,1630,-2e-05,-1e-05,-4e-05,-2e-05,0.0,-1e-05,-1e-05,-2e-05,1
1529,1631,-2e-05,-1e-05,-4e-05,-2e-05,0.0,-1e-05,-1e-05,-2e-05,1
1530,1632,-2e-05,-1e-05,-4e-05,-2e-05,0.0,-1e-05,-1e-05,-2e-05,1
1531,1633,-2e-05,-1e-05,-4e-05,-2e-05,0.0,-1e-05,-1e-05,-2e-05,1
1532,1634,-2e-05,-1e-05,-4e-05,-2e-05,0.0,-1e-05,-1e-05,-2e-05,1
1533,1635,-2e-05,-1e-05,-4e-05,-2e-05,0.0,-1e-05,-1e-05,-2e-05,1
1534,1636,-2e-05,-1e-05,-4e-05,-2e-05,0.0,-1e-05,-1e-05,-2e-05,1
1535,1638,-2e-05,-1e-05,-4e-05,-2e-05,0.0,-1e-05,-1e-05,-2e-05,1
1536,1639,-2e-05,-1e-05,-4e-05,-2e-05,0.0,-1e-05,-1e-05,-2e-05,1
1537,1640,-2e-05,-1e-05,-4e-05,-2e-05,0.0,-1e-05,-1e-05,-2e-05,1
1538,1641,-2e-05,-1e-05,-4e-05,-2e-05,0.0,-1e-05,-1e-05,-2e-05,1
1539,1642,-2e-05,-1e-05,-4e-05,-2e-05,0.0,-1e-05,-1e-05,-2e-05,1
1540,1643,-2e-05,-1e-05,-4e-05,-2e-05,0.0,-1e-05,-1e-05,-2e-05,1
1541,1644,-1e-05,-2.9999999999999997e-05,-1e-05,-2.9999999999999997e-05,-1e-05,0.0,0.0,-1e-05,1
1542,1645,-1e-05,-2.9999999999999997e-05,-1e-05,-2.9999999999999997e-05,-1e-05,0.0,0.0,-1e-05,1
1543,1646,-1e-05,-1e-05,-1e-05,-1e-05,-1e-05,-1e-05,0.0,0.0,1
1544,1647,-1e-05,-1e-05,-1e-05,-1e-05,-1e-05,-1e-05,0.0,0.0,1
1545,1648,-1e-05,-1e-05,-1e-05,-1e-05,-1e-05,-1e-05,0.0,0.0,1
1546,1649,-1e-05,-1e-05,-1e-05,-1e-05,-1e-05,-1e-05,0.0,0.0,1
1547,1650,-1e-05,-1e-05,-1e-05,-1e-05,-1e-05,-1e-05,0.0,0.0,1
1548,1651,-1e-05,-1e-05,-1e-05,-1e-05,-1e-05,-1e-05,0.0,0.0,1
1549,1652,-1e-05,-1e-05,-1e-05,-1e-05,-1e-05,-1e-05,0.0,0.0,1
1550,1653,-1e-05,-1e-05,-1e-05,-1e-05,-1e-05,-1e-05,0.0,0.0,1
1551,1654,-1e-05,-1e-05,-1e-05,-1e-05,-1e-05,-1e-05,0.0,0.0,1
1552,1655,-1e-05,-1e-05,-1e-05,-1e-05,-1e-05,-1e-05,0.0,0.0,1
1553,1656,-1e-05,-1e-05,-1e-05,-1e-05,-1e-05,-1e-05,0.0,0.0,1
1554,1657,-1e-05,-1e-05,-1e-05,-1e-05,-1e-05,-1e-05,0.0,0.0,1
1555,1658,-1e-05,-1e-05,-1e-05,-1e-05,-1e-05,-1e-05,0.0,0.0,1
1556,1659,-1e-05,-1e-05,-1e-05,-1e-05,-1e-05,-1e-05,0.0,0.0,1
1557,1660,-1e-05,-1e-05,-1e-05,-1e-05,-1e-05,-1e-05,0.0,0.0,1
1558,1661,-1e-05,-1e-05,-1e-05,-1e-05,-1e-05,-1e-05,0.0,0.0,1
1559,1662,-1e-05,-1e-05,-1e-05,-1e-05,-1e-05,-1e-05,0.0,0.0,1
1560,1663,-1e-05,-1e-05,-1e-05,-1e-05,-1e-05,-1e-05,0.0,0.0,1
1561,1664,-1e-05,-1e-05,-1e-05,-1e-05,-1e-05,-1e-05,0.0,0.0,1
1562,1665,-1e-05,-1e-05,-1e-05,-1e-05,-1e-05,-1e-05,0.0,0.0,1
1563,1666,-1e-05,-1e-05,-1e-05,-1e-05,-1e-05,-1e-05,0.0,0.0,1
1564,1667,1e-05,1e-05,2e-05,2e-05,-2e-05,-2e-05,-1e-05,-1e-05,1
1565,1668,-1e-05,1e-05,-2e-05,-2e-05,-4e-05,0.0,-2e-05,0.0,1
1566,1670,-1e-05,1e-05,-2e-05,-2e-05,-4e-05,0.0,-2e-05,0.0,1
1567,1671,-1e-05,1e-05,-2e-05,-2e-05,-4e-05,0.0,-2e-05,0.0,1
1568,1672,-1e-05,1e-05,-2e-05,-2e-05,-4e-05,0.0,-2e-05,0.0,1
1569,1673,-1e-05,1e-05,-2e-05,-2e-05,-4e-05,0.0,-2e-05,0.0,1
1570,1674,-1e-05,1e-05,-2e-05,-2e-05,-4e-05,0.0,-2e-05,0.0,1
1571,1675,-1e-05,1e-05,-2e-05,-2e-05,-4e-05,0.0,-2e-05,0.0,1
1572,1676,-1e-05,1e-05,-2e-05,-2e-05,-4e-05,0.0,-2e-05,0.0,1
1573,1677,-1e-05,1e-05,-2e-05,-2e-05,-4e-05,0.0,-2e-05,0.0,1
1574,1678,-1e-05,1e-05,-2e-05,-2e-05,-4e-05,0.0,-2e-05,0.0,1
1575,1679,-1e-05,1e-05,-2e-05,-2e-05,-4e-05,0.0,-2e-05,0.0,1
1576,1680,1e-05,-1e-05,0.0,-1e-05,0.0,-1e-05,-2.9999999999999997e-05,-1e-05,1
1577,1681,1e-05,-1e-05,0.0,-1e-05,0.0,-1e-05,-2.9999999999999997e-05,-1e-05,1
1578,1682,1e-05,-1e-05,0.0,-1e-05,0.0,-1e-05,-2.9999999999999997e-05,-1e-05,1
1579,1683,1e-05,-1e-05,0.0,-1e-05,0.0,-1e-05,-2.9999999999999997e-05,-1e-05,1
1580,1684,1e-05,-1e-05,0.0,-1e-05,0.0,-1e-05,-2.9999999999999997e-05,-1e-05,1
1581,1685,1e-05,-1e-05,0.0,-1e-05,0.0,-1e-05,-2.9999999999999997e-05,-1e-05,1
1582,1686,1e-05,-1e-05,0.0,-1e-05,0.0,-1e-05,-2.9999999999999997e-05,-1e-05,1
1583,1688,1e-05,-1e-05,0.0,-1e-05,0.0,-1e-05,-2.9999999999999997e-05,-1e-05,1
1584,1689,1e-05,-1e-05,0.0,-1e-05,0.0,-1e-05,-2.9999999999999997e-05,-1e-05,1
1585,1690,1e-05,-1e-05,0.0,-1e-05,0.0,-1e-05,-2.9999999999999997e-05,-1e-05,1
1586,1691,1e-05,-1e-05,0.0,-1e-05,0.0,-1e-05,-2.9999999999999997e-05,-1e-05,1
1587,1692,1e-05,-1e-05,0.0,-1e-05,0.0,-1e-05,-2.9999999999999997e-05,-1e-05,1
1588,1693,1e-05,-1e-05,0.0,-1e-05,0.0,-1e-05,-2.9999999999999997e-05,-1e-05,1
1589,1694,1e-05,-1e-05,0.0,-1e-05,0.0,-1e-05,-2.9999999999999997e-05,-1e-05,1
1590,1695,-1e-05,-2e-05,-1e-05,0.0,0.0,-2e-05,0.0,-1e-05,1
1591,1696,-1e-05,-2e-05,-1e-05,0.0,0.0,-2e-05,0.0,-1e-05,1
1592,1697,-1e-05,-2e-05,-1e-05,0.0,0.0,-2e-05,0.0,-1e-05,1
1593,1698,-1e-05,-2e-05,-1e-05,0.0,0.0,-2e-05,0.0,-1e-05,1
1594,1699,-1e-05,-2e-05,-1e-05,0.0,0.0,-2e-05,0.0,-1e-05,1
1595,1700,-1e-05,-2e-05,-1e-05,0.0,0.0,-2e-05,0.0,-1e-05,1
1596,1701,-1e-05,-2e-05,-1e-05,0.0,0.0,-2e-05,0.0,-1e-05,1
1597,1702,-1e-05,-2e-05,-1e-05,0.0,0.0,-2e-05,0.0,-1e-05,1
1598,1703,-1e-05,-2e-05,-1e-05,0.0,0.0,-2e-05,0.0,-1e-05,1
1599,1704,-1e-05,0.0,2.9999999999999997e-05,4e-05,2e-05,-1e-05,0.0,-2e-05,1
1600,1705,-1e-05,0.0,2.9999999999999997e-05,4e-05,2e-05,-1e-05,0.0,-2e-05,1
1601,1706,-2.9999999999999997e-05,-2e-05,-2.9999999999999997e-05,-4e-05,-1e-05,-1e-05,-2.9999999999999997e-05,0.0,1
1602,1707,-2.9999999999999997e-05,-2e-05,-2.9999999999999997e-05,-4e-05,-1e-05,-1e-05,-2.9999999999999997e-05,0.0,1
1603,1708,-2.9999999999999997e-05,-2e-05,-2.9999999999999997e-05,-4e-05,-1e-05,-1e-05,-2.9999999999999997e-05,0.0,1
1604,1709,-2.9999999999999997e-05,-2e-05,-2.9999999999999997e-05,-4e-05,-1e-05,-1e-05,-2.9999999999999997e-05,0.0,1
1605,1710,-2.9999999999999997e-05,-2e-05,-2.9999999999999997e-05,-4e-05,-1e-05,-1e-05,-2.9999999999999997e-05,0.0,1
1606,1711,-2.9999999999999997e-05,-2e-05,-2.9999999999999997e-05,-4e-05,-1e-05,-1e-05,-2.9999999999999997e-05,0.0,1
1607,1712,-2.9999999999999997e-05,-2e-05,-2.9999999999999997e-05,-4e-05,-1e-05,-1e-05,-2.9999999999999997e-05,0.0,1
1608,1713,-2.9999999999999997e-05,-2e-05,-2.9999999999999997e-05,-4e-05,-1e-05,-1e-05,-2.9999999999999997e-05,0.0,1
1609,1714,-2.9999999999999997e-05,-2e-05,-2.9999999999999997e-05,-4e-05,-1e-05,-1e-05,-2.9999999999999997e-05,0.0,1
1610,1715,-2.9999999999999997e-05,-2e-05,-2.9999999999999997e-05,-4e-05,-1e-05,-1e-05,-2.9999999999999997e-05,0.0,1
1611,1716,-2.9999999999999997e-05,-2e-05,-2.9999999999999997e-05,-4e-05,-1e-05,-1e-05,-2.9999999999999997e-05,0.0,1
1612,1717,-2.9999999999999997e-05,-2e-05,-2.9999999999999997e-05,-4e-05,-1e-05,-1e-05,-2.9999999999999997e-05,0.0,1
1613,1718,-2.9999999999999997e-05,-2e-05,-2.9999999999999997e-05,-4e-05,-1e-05,-1e-05,-2.9999999999999997e-05,0.0,1
1614,1719,-2.9999999999999997e-05,-2e-05,-2.9999999999999997e-05,-4e-05,-1e-05,-1e-05,-2.9999999999999997e-05,0.0,1
1615,1720,-2.9999999999999997e-05,-2e-05,-2.9999999999999997e-05,-4e-05,-1e-05,-1e-05,-2.9999999999999997e-05,0.0,1
1616,1721,-2.9999999999999997e-05,-2e-05,-2.9999999999999997e-05,-4e-05,-1e-05,-1e-05,-2.9999999999999997e-05,0.0,1
1617,1722,-2.9999999999999997e-05,-2e-05,-2.9999999999999997e-05,-4e-05,-1e-05,-1e-05,-2.9999999999999997e-05,0.0,1
1618,1723,-2.9999999999999997e-05,-2e-05,-2.9999999999999997e-05,-4e-05,-1e-05,-1e-05,-2.9999999999999997e-05,0.0,1
1619,1724,-2.9999999999999997e-05,-2e-05,-2.9999999999999997e-05,-4e-05,-1e-05,-1e-05,-2.9999999999999997e-05,0.0,1
1620,1725,-2.9999999999999997e-05,-2e-05,-2.9999999999999997e-05,-4e-05,-1e-05,-1e-05,-2.9999999999999997e-05,0.0,1
1621,1726,-2.9999999999999997e-05,-2e-05,-2.9999999999999997e-05,-4e-05,-1e-05,-1e-05,-2.9999999999999997e-05,0.0,1
1622,1727,0.0,-1e-05,-4e-05,-2e-05,-1e-05,1e-05,0.0,-1e-05,1
1623,1728,0.0,-2e-05,0.0,-1e-05,-1e-05,1e-05,-1e-05,-1e-05,1
1624,1729,0.0,-2e-05,0.0,-1e-05,-1e-05,1e-05,-1e-05,-1e-05,1
1625,1730,0.0,-2e-05,0.0,-1e-05,-1e-05,1e-05,-1e-05,-1e-05,1
1626,1731,0.0,-2e-05,0.0,-1e-05,-1e-05,1e-05,-1e-05,-1e-05,1
1627,1732,0.0,-2e-05,0.0,-1e-05,-1e-05,1e-05,-1e-05,-1e-05,1
1628,1733,0.0,-2e-05,0.0,-1e-05,-1e-05,1e-05,-1e-05,-1e-05,1
1629,1734,0.0,-2e-05,0.0,-1e-05,-1e-05,1e-05,-1e-05,-1e-05,1
1630,1735,0.0,-2e-05,0.0,-1e-05,-1e-05,1e-05,-1e-05,-1e-05,1
1631,1736,0.0,-2e-05,0.0,-1e-05,-1e-05,1e-05,-1e-05,-1e-05,1
1632,1738,0.0,-2e-05,0.0,-1e-05,-1e-05,1e-05,-1e-05,-1e-05,1
1633,1739,0.0,-2e-05,0.0,-1e-05,-1e-05,1e-05,-1e-05,-1e-05,1
1634,1740,-2.9999999999999997e-05,-1e-05,-4e-05,-2e-05,-2e-05,-2e-05,-1e-05,-1e-05,1
1635,1741,-2.9999999999999997e-05,-1e-05,-4e-05,-2e-05,-2e-05,-2e-05,-1e-05,-1e-05,1
1636,1742,-2.9999999999999997e-05,-1e-05,-4e-05,-2e-05,-2e-05,-2e-05,-1e-05,-1e-05,1
1637,1743,-2.9999999999999997e-05,-1e-05,-4e-05,-2e-05,-2e-05,-2e-05,-1e-05,-1e-05,1
1638,1744,-2.9999999999999997e-05,-1e-05,-4e-05,-2e-05,-2e-05,-2e-05,-1e-05,-1e-05,1
1639,1745,-2.9999999999999997e-05,-1e-05,-4e-05,-2e-05,-2e-05,-2e-05,-1e-05,-1e-05,1
1640,1746,-2.9999999999999997e-05,-1e-05,-4e-05,-2e-05,-2e-05,-2e-05,-1e-05,-1e-05,1
1641,1747,-2.9999999999999997e-05,-1e-05,-4e-05,-2e-05,-2e-05,-2e-05,-1e-05,-1e-05,1
1642,1748,-2.9999999999999997e-05,-1e-05,-4e-05,-2e-05,-2e-05,-2e-05,-1e-05,-1e-05,1
1643,1749,-2e-05,-1e-05,-1e-05,0.0,-1e-05,-2e-05,-2e-05,0.0,1
1644,1750,-2e-05,-1e-05,-1e-05,0.0,-1e-05,-2e-05,-2e-05,0.0,1
1645,1751,-2e-05,-1e-05,-1e-05,0.0,-1e-05,-2e-05,-2e-05,0.0,1
1646,1752,-2e-05,-1e-05,-1e-05,0.0,-1e-05,-2e-05,-2e-05,0.0,1
1647,1753,-2e-05,-1e-05,-1e-05,0.0,-1e-05,-2e-05,-2e-05,0.0,1
1648,1754,-2e-05,-1e-05,-1e-05,0.0,-1e-05,-2e-05,-2e-05,0.0,1
1649,1755,-2e-05,-1e-05,-1e-05,0.0,-1e-05,-2e-05,-2e-05,0.0,1
1650,1756,-2e-05,-1e-05,-1e-05,0.0,-1e-05,-2e-05,-2e-05,0.0,1
1651,1757,-2e-05,-1e-05,-1e-05,0.0,-1e-05,-2e-05,-2e-05,0.0,1
1652,1758,-2e-05,-1e-05,-1e-05,0.0,-1e-05,-2e-05,-2e-05,0.0,1
1653,1759,-2e-05,-1e-05,-1e-05,0.0,-1e-05,-2e-05,-2e-05,0.0,1
1654,1760,-2e-05,-1e-05,-1e-05,0.0,-1e-05,-2e-05,-2e-05,0.0,1
1655,1761,-2e-05,-1e-05,-1e-05,0.0,-1e-05,-2e-05,-2e-05,0.0,1
1656,1762,-2e-05,-1e-05,-1e-05,0.0,-1e-05,-2e-05,-2e-05,0.0,1
1657,1763,-2e-05,-1e-05,-1e-05,0.0,-1e-05,-2e-05,-2e-05,0.0,1
1658,1764,0.0,-4e-05,-2.9999999999999997e-05,-2e-05,-1e-05,-2e-05,0.0,-1e-05,1
1659,1765,0.0,-4e-05,-2.9999999999999997e-05,-2e-05,-1e-05,-2e-05,0.0,-1e-05,1
1660,1766,-2e-05,-2.9999999999999997e-05,-1e-05,-1e-05,0.0,1e-05,1e-05,-1e-05,1
1661,1767,-2e-05,-2.9999999999999997e-05,-1e-05,-1e-05,0.0,1e-05,1e-05,-1e-05,1
1662,1768,-2e-05,-2.9999999999999997e-05,-1e-05,-1e-05,0.0,1e-05,1e-05,-1e-05,1
1663,1769,-2e-05,-2.9999999999999997e-05,-1e-05,-1e-05,0.0,1e-05,1e-05,-1e-05,1
1664,1770,-2e-05,-2.9999999999999997e-05,-1e-05,-1e-05,0.0,1e-05,1e-05,-1e-05,1
1665,1771,-2e-05,-2.9999999999999997e-05,-1e-05,-1e-05,0.0,1e-05,1e-05,-1e-05,1
1666,1772,-2e-05,-2.9999999999999997e-05,-1e-05,-1e-05,0.0,1e-05,1e-05,-1e-05,1
1667,1773,-2e-05,-2.9999999999999997e-05,-1e-05,-1e-05,0.0,1e-05,1e-05,-1e-05,1
1668,1774,-2e-05,-2.9999999999999997e-05,-1e-05,-1e-05,0.0,1e-05,1e-05,-1e-05,1
1669,1775,-2e-05,-2.9999999999999997e-05,-1e-05,-1e-05,0.0,1e-05,1e-05,-1e-05,1
1670,1776,-2e-05,-2.9999999999999997e-05,-1e-05,-1e-05,0.0,1e-05,1e-05,-1e-05,1
1671,1777,-2e-05,-2.9999999999999997e-05,-1e-05,-1e-05,0.0,1e-05,1e-05,-1e-05,1
1672,1778,-2e-05,-2.9999999999999997e-05,-1e-05,-1e-05,0.0,1e-05,1e-05,-1e-05,1
1673,1779,-2e-05,-2.9999999999999997e-05,-1e-05,-1e-05,0.0,1e-05,1e-05,-1e-05,1
1674,1780,-2e-05,-2.9999999999999997e-05,-1e-05,-1e-05,0.0,1e-05,1e-05,-1e-05,1
1675,1781,-2e-05,-2.9999999999999997e-05,-1e-05,-1e-05,0.0,1e-05,1e-05,-1e-05,1
1676,1782,-2e-05,-2.9999999999999997e-05,-1e-05,-1e-05,0.0,1e-05,1e-05,-1e-05,1
1677,1783,-2e-05,-2.9999999999999997e-05,-1e-05,-1e-05,0.0,1e-05,1e-05,-1e-05,1
1678,1784,-2e-05,-2.9999999999999997e-05,-1e-05,-1e-05,0.0,1e-05,1e-05,-1e-05,1
1679,1785,-2e-05,-2.9999999999999997e-05,-1e-05,-1e-05,0.0,1e-05,1e-05,-1e-05,1
1680,1786,-2e-05,-2.9999999999999997e-05,-1e-05,-1e-05,0.0,1e-05,1e-05,-1e-05,1
1681,1788,-2e-05,2e-05,-1e-05,-1e-05,0.0,1e-05,-2e-05,-2e-05,1
1682,1789,2e-05,1e-05,1e-05,2e-05,1e-05,-2e-05,0.0,-1e-05,1
1683,1790,2e-05,1e-05,1e-05,2e-05,1e-05,-2e-05,0.0,-1e-05,1
1684,1791,2e-05,1e-05,1e-05,2e-05,1e-05,-2e-05,0.0,-1e-05,1
1685,1792,2e-05,1e-05,1e-05,2e-05,1e-05,-2e-05,0.0,-1e-05,1
1686,1793,2e-05,1e-05,1e-05,2e-05,1e-05,-2e-05,0.0,-1e-05,1
1687,1794,2e-05,1e-05,1e-05,2e-05,1e-05,-2e-05,0.0,-1e-05,1
1688,1795,2e-05,1e-05,1e-05,2e-05,1e-05,-2e-05,0.0,-1e-05,1
1689,1796,2e-05,1e-05,1e-05,2e-05,1e-05,-2e-05,0.0,-1e-05,1
1690,1797,2e-05,1e-05,1e-05,2e-05,1e-05,-2e-05,0.0,-1e-05,1
1691,1798,2e-05,1e-05,1e-05,2e-05,1e-05,-2e-05,0.0,-1e-05,1
1692,1799,2e-05,1e-05,1e-05,2e-05,1e-05,-2e-05,0.0,-1e-05,1
1693,1800,0.0,-2.9999999999999997e-05,-2e-05,-1e-05,-2e-05,2e-05,-2.9999999999999997e-05,-1e-05,1
1694,1801,0.0,-2.9999999999999997e-05,-2e-05,-1e-05,-2e-05,2e-05,-2.9999999999999997e-05,-1e-05,1
1695,1802,0.0,-2.9999999999999997e-05,-2e-05,-1e-05,-2e-05,2e-05,-2.9999999999999997e-05,-1e-05,1
1696,1803,0.0,-2.9999999999999997e-05,-2e-05,-1e-05,-2e-05,2e-05,-2.9999999999999997e-05,-1e-05,1
1697,1804,0.0,-2.9999999999999997e-05,-2e-05,-1e-05,-2e-05,2e-05,-2.9999999999999997e-05,-1e-05,1
1698,1805,0.0,-2.9999999999999997e-05,-2e-05,-1e-05,-2e-05,2e-05,-2.9999999999999997e-05,-1e-05,1
1699,1806,0.0,-2.9999999999999997e-05,-2e-05,-1e-05,-2e-05,2e-05,-2.9999999999999997e-05,-1e-05,1
1700,1807,0.0,-2.9999999999999997e-05,-2e-05,-1e-05,-2e-05,2e-05,-2.9999999999999997e-05,-1e-05,1
1701,1808,0.0,-2.9999999999999997e-05,-2e-05,-1e-05,-2e-05,2e-05,-2.9999999999999997e-05,-1e-05,1
1702,1809,-2e-05,2e-05,-1e-05,-1e-05,1e-05,0.0,-1e-05,-2.9999999999999997e-05,1
1703,1810,-2e-05,2e-05,-1e-05,-1e-05,1e-05,0.0,-1e-05,-2.9999999999999997e-05,1
1704,1811,-2e-05,2e-05,-1e-05,-1e-05,1e-05,0.0,-1e-05,-2.9999999999999997e-05,1
1705,1812,-2e-05,2e-05,-1e-05,-1e-05,1e-05,0.0,-1e-05,-2.9999999999999997e-05,1
1706,1813,-2e-05,2e-05,-1e-05,-1e-05,1e-05,0.0,-1e-05,-2.9999999999999997e-05,1
1707,1814,-2e-05,2e-05,-1e-05,-1e-05,1e-05,0.0,-1e-05,-2.9999999999999997e-05,1
1708,1815,-2e-05,2e-05,-1e-05,-1e-05,1e-05,0.0,-1e-05,-2.9999999999999997e-05,1
1709,1816,-2e-05,2e-05,-1e-05,-1e-05,1e-05,0.0,-1e-05,-2.9999999999999997e-05,1
1710,1817,-2e-05,2e-05,-1e-05,-1e-05,1e-05,0.0,-1e-05,-2.9999999999999997e-05,1
1711,1818,-2e-05,2e-05,-1e-05,-1e-05,1e-05,0.0,-1e-05,-2.9999999999999997e-05,1
1712,1819,-2e-05,2e-05,-1e-05,-1e-05,1e-05,0.0,-1e-05,-2.9999999999999997e-05,1
1713,1820,-2e-05,2e-05,-1e-05,-1e-05,1e-05,0.0,-1e-05,-2.9999999999999997e-05,1
1714,1821,-2e-05,2e-05,-1e-05,-1e-05,1e-05,0.0,-1e-05,-2.9999999999999997e-05,1
1715,1822,-2e-05,2e-05,-1e-05,-1e-05,1e-05,0.0,-1e-05,-2.9999999999999997e-05,1
1716,1823,-2e-05,2e-05,-1e-05,-1e-05,1e-05,0.0,-1e-05,-2.9999999999999997e-05,1
1717,1824,0.0,-1e-05,1e-05,1e-05,-2e-05,-1e-05,1e-05,0.0,1
1718,1825,0.0,-1e-05,1e-05,1e-05,-2e-05,-1e-05,1e-05,0.0,1
1719,1826,-2e-05,-4e-05,-2.9999999999999997e-05,-2.9999999999999997e-05,-4e-05,-1e-05,0.0,0.0,1
1720,1827,-2e-05,-4e-05,-2.9999999999999997e-05,-2.9999999999999997e-05,-4e-05,-1e-05,0.0,0.0,1
1721,1828,-2e-05,-4e-05,-2.9999999999999997e-05,-2.9999999999999997e-05,-4e-05,-1e-05,0.0,0.0,1
1722,1829,-2e-05,-4e-05,-2.9999999999999997e-05,-2.9999999999999997e-05,-4e-05,-1e-05,0.0,0.0,1
1723,1830,-2e-05,-4e-05,-2.9999999999999997e-05,-2.9999999999999997e-05,-4e-05,-1e-05,0.0,0.0,1
1724,1831,-2e-05,-4e-05,-2.9999999999999997e-05,-2.9999999999999997e-05,-4e-05,-1e-05,0.0,0.0,1
1725,1832,-2e-05,-4e-05,-2.9999999999999997e-05,-2.9999999999999997e-05,-4e-05,-1e-05,0.0,0.0,1
1726,1833,-2e-05,-4e-05,-2.9999999999999997e-05,-2.9999999999999997e-05,-4e-05,-1e-05,0.0,0.0,1
1727,1834,-2e-05,-4e-05,-2.9999999999999997e-05,-2.9999999999999997e-05,-4e-05,-1e-05,0.0,0.0,1
1728,1835,-2e-05,-4e-05,-2.9999999999999997e-05,-2.9999999999999997e-05,-4e-05,-1e-05,0.0,0.0,1
1729,1836,-2e-05,-4e-05,-2.9999999999999997e-05,-2.9999999999999997e-05,-4e-05,-1e-05,0.0,0.0,1
1730,1838,-2e-05,-4e-05,-2.9999999999999997e-05,-2.9999999999999997e-05,-4e-05,-1e-05,0.0,0.0,1
1731,1839,-2e-05,-4e-05,-2.9999999999999997e-05,-2.9999999999999997e-05,-4e-05,-1e-05,0.0,0.0,1
1732,1840,-2e-05,-4e-05,-2.9999999999999997e-05,-2.9999999999999997e-05,-4e-05,-1e-05,0.0,0.0,1
1733,1841,-2e-05,-4e-05,-2.9999999999999997e-05,-2.9999999999999997e-05,-4e-05,-1e-05,0.0,0.0,1
1734,1842,-2e-05,-4e-05,-2.9999999999999997e-05,-2.9999999999999997e-05,-4e-05,-1e-05,0.0,0.0,1
1735,1843,-2e-05,-4e-05,-2.9999999999999997e-05,-2.9999999999999997e-05,-4e-05,-1e-05,0.0,0.0,1
1736,1844,-2e-05,-4e-05,-2.9999999999999997e-05,-2.9999999999999997e-05,-4e-05,-1e-05,0.0,0.0,1
1737,1845,-2e-05,-4e-05,-2.9999999999999997e-05,-2.9999999999999997e-05,-4e-05,-1e-05,0.0,0.0,1
1738,1846,-2e-05,-4e-05,-2.9999999999999997e-05,-2.9999999999999997e-05,-4e-05,-1e-05,0.0,0.0,1
1739,1847,-1e-05,1e-05,0.0,1e-05,0.0,-1e-05,-1e-05,0.0,1
1740,1848,0.0,-2e-05,-2e-05,0.0,-1e-05,-2e-05,-2e-05,0.0,1
1741,1849,0.0,-2e-05,-2e-05,0.0,-1e-05,-2e-05,-2e-05,0.0,1
1742,1850,0.0,-2e-05,-2e-05,0.0,-1e-05,-2e-05,-2e-05,0.0,1
1743,1851,0.0,-2e-05,-2e-05,0.0,-1e-05,-2e-05,-2e-05,0.0,1
1744,1852,0.0,-2e-05,-2e-05,0.0,-1e-05,-2e-05,-2e-05,0.0,1
1745,1853,0.0,-2e-05,-2e-05,0.0,-1e-05,-2e-05,-2e-05,0.0,1
1746,1854,0.0,-2e-05,-2e-05,0.0,-1e-05,-2e-05,-2e-05,0.0,1
1747,1855,0.0,-2e-05,-2e-05,0.0,-1e-05,-2e-05,-2e-05,0.0,1
1748,1856,0.0,-2e-05,-2e-05,0.0,-1e-05,-2e-05,-2e-05,0.0,1
1749,1857,0.0,-2e-05,-2e-05,0.0,-1e-05,-2e-05,-2e-05,0.0,1
1750,1858,0.0,-2e-05,-2e-05,0.0,-1e-05,-2e-05,-2e-05,0.0,1
1751,1859,0.0,-2e-05,-2e-05,0.0,-1e-05,-2e-05,-2e-05,0.0,1
1752,1860,0.0,1e-05,-1e-05,-2.9999999999999997e-05,0.0,0.0,0.0,-1e-05,1
1753,1861,0.0,1e-05,-1e-05,-2.9999999999999997e-05,0.0,0.0,0.0,-1e-05,1
1754,1862,0.0,1e-05,-1e-05,-2.9999999999999997e-05,0.0,0.0,0.0,-1e-05,1
1755,1863,0.0,1e-05,-1e-05,-2.9999999999999997e-05,0.0,0.0,0.0,-1e-05,1
1756,1864,0.0,1e-05,-1e-05,-2.9999999999999997e-05,0.0,0.0,0.0,-1e-05,1
1757,1865,0.0,1e-05,-1e-05,-2.9999999999999997e-05,0.0,0.0,0.0,-1e-05,1
1758,1866,0.0,1e-05,-1e-05,-2.9999999999999997e-05,0.0,0.0,0.0,-1e-05,1
1759,1867,0.0,1e-05,-1e-05,-2.9999999999999997e-05,0.0,0.0,0.0,-1e-05,1
1760,1868,0.0,1e-05,-1e-05,-2.9999999999999997e-05,0.0,0.0,0.0,-1e-05,1
1761,1869,-1e-05,0.0,0.0,0.0,-2e-05,-1e-05,0.0,-1e-05,1
1762,1870,-1e-05,0.0,0.0,0.0,-2e-05,-1e-05,0.0,-1e-05,1
1763,1871,-1e-05,0.0,0.0,0.0,-2e-05,-1e-05,0.0,-1e-05,1
1764,1872,-1e-05,0.0,0.0,0.0,-2e-05,-1e-05,0.0,-1e-05,1
1765,1873,-1e-05,0.0,0.0,0.0,-2e-05,-1e-05,0.0,-1e-05,1
1766,1874,-1e-05,0.0,0.0,0.0,-2e-05,-1e-05,0.0,-1e-05,1
1767,1875,-1e-05,0.0,0.0,0.0,-2e-05,-1e-05,0.0,-1e-05,1
1768,1876,-1e-05,0.0,0.0,0.0,-2e-05,-1e-05,0.0,-1e-05,1
1769,1877,-1e-05,0.0,0.0,0.0,-2e-05,-1e-05,0.0,-1e-05,1
1770,1878,-1e-05,0.0,0.0,0.0,-2e-05,-1e-05,0.0,-1e-05,1
1771,1879,-1e-05,0.0,0.0,0.0,-2e-05,-1e-05,0.0,-1e-05,1
1772,1880,-1e-05,0.0,0.0,0.0,-2e-05,-1e-05,0.0,-1e-05,1
1773,1881,-1e-05,0.0,0.0,0.0,-2e-05,-1e-05,0.0,-1e-05,1
1774,1882,-1e-05,0.0,0.0,0.0,-2e-05,-1e-05,0.0,-1e-05,1
1775,1883,-1e-05,0.0,0.0,0.0,-2e-05,-1e-05,0.0,-1e-05,1
1776,1884,-1e-05,0.0,0.0,0.0,-2e-05,-1e-05,0.0,-1e-05,1
1777,1885,0.0,-1e-05,-2e-05,-2e-05,-1e-05,-1e-05,0.0,-1e-05,1
1778,1886,2e-05,-2e-05,-1e-05,-2e-05,-1e-05,-1e-05,-2e-05,-1e-05,1
1779,1888,2e-05,-2e-05,-1e-05,-2e-05,-1e-05,-1e-05,-2e-05,-1e-05,1
1780,1889,2e-05,-2e-05,-1e-05,-2e-05,-1e-05,-1e-05,-2e-05,-1e-05,1
1781,1890,2e-05,-2e-05,-1e-05,-2e-05,-1e-05,-1e-05,-2e-05,-1e-05,1
1782,1891,2e-05,-2e-05,-1e-05,-2e-05,-1e-05,-1e-05,-2e-05,-1e-05,1
1783,1892,2e-05,-2e-05,-1e-05,-2e-05,-1e-05,-1e-05,-2e-05,-1e-05,1
1784,1893,2e-05,-2e-05,-1e-05,-2e-05,-1e-05,-1e-05,-2e-05,-1e-05,1
1785,1894,2e-05,-2e-05,-1e-05,-2e-05,-1e-05,-1e-05,-2e-05,-1e-05,1
1786,1895,2e-05,-2e-05,-1e-05,-2e-05,-1e-05,-1e-05,-2e-05,-1e-05,1
1787,1896,2e-05,-2e-05,-1e-05,-2e-05,-1e-05,-1e-05,-2e-05,-1e-05,1
1788,1897,2e-05,-2e-05,-1e-05,-2e-05,-1e-05,-1e-05,-2e-05,-1e-05,1
1789,1898,2e-05,-2e-05,-1e-05,-2e-05,-1e-05,-1e-05,-2e-05,-1e-05,1
1790,1899,2e-05,-2e-05,-1e-05,-2e-05,-1e-05,-1e-05,-2e-05,-1e-05,1
1791,1900,2e-05,-2e-05,-1e-05,-2e-05,-1e-05,-1e-05,-2e-05,-1e-05,1
1792,1901,2e-05,-2e-05,-1e-05,-2e-05,-1e-05,-1e-05,-2e-05,-1e-05,1
1793,1902,2e-05,-2e-05,-1e-05,-2e-05,-1e-05,-1e-05,-2e-05,-1e-05,1
1794,1903,2e-05,-2e-05,-1e-05,-2e-05,-1e-05,-1e-05,-2e-05,-1e-05,1
1795,1904,2e-05,-2e-05,-1e-05,-2e-05,-1e-05,-1e-05,-2e-05,-1e-05,1
1796,1905,2e-05,-2e-05,-1e-05,-2e-05,-1e-05,-1e-05,-2e-05,-1e-05,1
1797,1906,2e-05,-2e-05,-1e-05,-2e-05,-1e-05,-1e-05,-2e-05,-1e-05,1
1798,1907,-1e-05,1e-05,0.0,1e-05,-1e-05,-1e-05,-1e-05,0.0,1
1799,1908,-1e-05,-4e-05,-5e-05,-2e-05,-1e-05,-1e-05,-2e-05,-2e-05,1
1800,1909,-1e-05,-4e-05,-5e-05,-2e-05,-1e-05,-1e-05,-2e-05,-2e-05,1
1801,1910,-1e-05,-4e-05,-5e-05,-2e-05,-1e-05,-1e-05,-2e-05,-2e-05,1
1802,1911,-1e-05,-4e-05,-5e-05,-2e-05,-1e-05,-1e-05,-2e-05,-2e-05,1
1803,1912,-1e-05,-4e-05,-5e-05,-2e-05,-1e-05,-1e-05,-2e-05,-2e-05,1
1804,1913,-1e-05,-4e-05,-5e-05,-2e-05,-1e-05,-1e-05,-2e-05,-2e-05,1
1805,1914,-1e-05,-4e-05,-5e-05,-2e-05,-1e-05,-1e-05,-2e-05,-2e-05,1
1806,1915,-1e-05,-4e-05,-5e-05,-2e-05,-1e-05,-1e-05,-2e-05,-2e-05,1
1807,1916,-1e-05,-4e-05,-5e-05,-2e-05,-1e-05,-1e-05,-2e-05,-2e-05,1
1808,1917,-1e-05,-4e-05,-5e-05,-2e-05,-1e-05,-1e-05,-2e-05,-2e-05,1
1809,1918,-1e-05,-4e-05,-5e-05,-2e-05,-1e-05,-1e-05,-2e-05,-2e-05,1
1810,1919,-1e-05,-4e-05,-5e-05,-2e-05,-1e-05,-1e-05,-2e-05,-2e-05,1
1811,1920,0.0,-2.9999999999999997e-05,0.0,-2e-05,0.0,-2e-05,-2e-05,-1e-05,1
1812,1921,0.0,-2.9999999999999997e-05,0.0,-2e-05,0.0,-2e-05,-2e-05,-1e-05,1
1813,1922,0.0,-2.9999999999999997e-05,0.0,-2e-05,0.0,-2e-05,-2e-05,-1e-05,1
1814,1923,0.0,-2.9999999999999997e-05,0.0,-2e-05,0.0,-2e-05,-2e-05,-1e-05,1
1815,1924,0.0,-2.9999999999999997e-05,0.0,-2e-05,0.0,-2e-05,-2e-05,-1e-05,1
1816,1925,0.0,-2.9999999999999997e-05,0.0,-2e-05,0.0,-2e-05,-2e-05,-1e-05,1
1817,1926,0.0,-2.9999999999999997e-05,0.0,-2e-05,0.0,-2e-05,-2e-05,-1e-05,1
1818,1927,0.0,-2.9999999999999997e-05,0.0,-2e-05,0.0,-2e-05,-2e-05,-1e-05,1
1819,1928,0.0,-2.9999999999999997e-05,0.0,-2e-05,0.0,-2e-05,-2e-05,-1e-05,1
1820,1929,-2e-05,-1e-05,0.0,0.0,0.0,0.0,-1e-05,-2e-05,1
1821,1930,-2e-05,-1e-05,0.0,0.0,0.0,0.0,-1e-05,-2e-05,1
1822,1931,-2e-05,-1e-05,0.0,0.0,0.0,0.0,-1e-05,-2e-05,1
1823,1932,-2e-05,-1e-05,0.0,0.0,0.0,0.0,-1e-05,-2e-05,1
1824,1933,-2e-05,-1e-05,0.0,0.0,0.0,0.0,-1e-05,-2e-05,1
1825,1934,-2e-05,-1e-05,0.0,0.0,0.0,0.0,-1e-05,-2e-05,1
1826,1935,-2e-05,-1e-05,0.0,0.0,0.0,0.0,-1e-05,-2e-05,1
1827,1936,-2e-05,-1e-05,0.0,0.0,0.0,0.0,-1e-05,-2e-05,1
1828,1938,-2e-05,-1e-05,0.0,0.0,0.0,0.0,-1e-05,-2e-05,1
1829,1939,-2e-05,-1e-05,0.0,0.0,0.0,0.0,-1e-05,-2e-05,1
1830,1940,-2e-05,-1e-05,0.0,0.0,0.0,0.0,-1e-05,-2e-05,1
1831,1941,-2e-05,-1e-05,0.0,0.0,0.0,0.0,-1e-05,-2e-05,1
1832,1942,-2e-05,-1e-05,0.0,0.0,0.0,0.0,-1e-05,-2e-05,1
1833,1943,-2e-05,-1e-05,0.0,0.0,0.0,0.0,-1e-05,-2e-05,1
1834,1944,0.0,-1e-05,-2.9999999999999997e-05,-1e-05,-2e-05,-1e-05,-1e-05,-2e-05,1
1835,1945,-1e-05,-1e-05,-2e-05,0.0,-2.9999999999999997e-05,1e-05,-2e-05,-4e-05,1
1836,1946,-2e-05,-1e-05,-1e-05,-2e-05,-2e-05,-1e-05,0.0,0.0,1
1837,1947,-2e-05,-1e-05,-1e-05,-2e-05,-2e-05,-1e-05,0.0,0.0,1
1838,1948,-2e-05,-1e-05,-1e-05,-2e-05,-2e-05,-1e-05,0.0,0.0,1
1839,1949,-2e-05,-1e-05,-1e-05,-2e-05,-2e-05,-1e-05,0.0,0.0,1
1840,1950,-2e-05,-1e-05,-1e-05,-2e-05,-2e-05,-1e-05,0.0,0.0,1
1841,1951,-2e-05,-1e-05,-1e-05,-2e-05,-2e-05,-1e-05,0.0,0.0,1
1842,1952,-2e-05,-1e-05,-1e-05,-2e-05,-2e-05,-1e-05,0.0,0.0,1
1843,1953,-2e-05,-1e-05,-1e-05,-2e-05,-2e-05,-1e-05,0.0,0.0,1
1844,1954,-2e-05,-1e-05,-1e-05,-2e-05,-2e-05,-1e-05,0.0,0.0,1
1845,1955,-2e-05,-1e-05,-1e-05,-2e-05,-2e-05,-1e-05,0.0,0.0,1
1846,1956,-2e-05,-1e-05,-1e-05,-2e-05,-2e-05,-1e-05,0.0,0.0,1
1847,1957,-2e-05,-1e-05,-1e-05,-2e-05,-2e-05,-1e-05,0.0,0.0,1
1848,1958,-2e-05,-1e-05,-1e-05,-2e-05,-2e-05,-1e-05,0.0,0.0,1
1849,1959,-2e-05,-1e-05,-1e-05,-2e-05,-2e-05,-1e-05,0.0,0.0,1
1850,1960,-2e-05,-1e-05,-1e-05,-2e-05,-2e-05,-1e-05,0.0,0.0,1
1851,1961,-2e-05,-1e-05,-1e-05,-2e-05,-2e-05,-1e-05,0.0,0.0,1
1852,1962,-2e-05,-1e-05,-1e-05,-2e-05,-2e-05,-1e-05,0.0,0.0,1
1853,1963,-2e-05,-1e-05,-1e-05,-2e-05,-2e-05,-1e-05,0.0,0.0,1
1854,1964,-2e-05,-1e-05,-1e-05,-2e-05,-2e-05,-1e-05,0.0,0.0,1
1855,1965,-2e-05,-1e-05,-1e-05,-2e-05,-2e-05,-1e-05,0.0,0.0,1
1856,1966,-2e-05,-1e-05,-1e-05,-2e-05,-2e-05,-1e-05,0.0,0.0,1
1857,1967,-1e-05,-1e-05,0.0,1e-05,0.0,-2e-05,-2e-05,0.0,1
1858,1968,0.0,1e-05,0.0,2e-05,-2e-05,0.0,1e-05,-1e-05,1
1859,1969,0.0,1e-05,0.0,2e-05,-2e-05,0.0,1e-05,-1e-05,1
1860,1970,0.0,1e-05,0.0,2e-05,-2e-05,0.0,1e-05,-1e-05,1
1861,1971,0.0,1e-05,0.0,2e-05,-2e-05,0.0,1e-05,-1e-05,1
1862,1972,0.0,1e-05,0.0,2e-05,-2e-05,0.0,1e-05,-1e-05,1
1863,1973,0.0,1e-05,0.0,2e-05,-2e-05,0.0,1e-05,-1e-05,1
1864,1974,0.0,1e-05,0.0,2e-05,-2e-05,0.0,1e-05,-1e-05,1
1865,1975,0.0,1e-05,0.0,2e-05,-2e-05,0.0,1e-05,-1e-05,1
1866,1976,0.0,1e-05,0.0,2e-05,-2e-05,0.0,1e-05,-1e-05,1
1867,1977,0.0,1e-05,0.0,2e-05,-2e-05,0.0,1e-05,-1e-05,1
1868,1978,0.0,1e-05,0.0,2e-05,-2e-05,0.0,1e-05,-1e-05,1
1869,1979,0.0,1e-05,0.0,2e-05,-2e-05,0.0,1e-05,-1e-05,1
1870,1980,-2.9999999999999997e-05,-1e-05,2e-05,-2e-05,-2e-05,0.0,-2.9999999999999997e-05,-2e-05,1
1871,1981,-2.9999999999999997e-05,-1e-05,2e-05,-2e-05,-2e-05,0.0,-2.9999999999999997e-05,-2e-05,1
1872,1982,-2.9999999999999997e-05,-1e-05,2e-05,-2e-05,-2e-05,0.0,-2.9999999999999997e-05,-2e-05,1
1873,1983,-2.9999999999999997e-05,-1e-05,2e-05,-2e-05,-2e-05,0.0,-2.9999999999999997e-05,-2e-05,1
1874,1984,-2.9999999999999997e-05,-1e-05,2e-05,-2e-05,-2e-05,0.0,-2.9999999999999997e-05,-2e-05,1
1875,1985,-2.9999999999999997e-05,-1e-05,2e-05,-2e-05,-2e-05,0.0,-2.9999999999999997e-05,-2e-05,1
1876,1986,-2.9999999999999997e-05,-1e-05,2e-05,-2e-05,-2e-05,0.0,-2.9999999999999997e-05,-2e-05,1
1877,1988,-2.9999999999999997e-05,-1e-05,2e-05,-2e-05,-2e-05,0.0,-2.9999999999999997e-05,-2e-05,1
1878,1989,-2.9999999999999997e-05,-1e-05,2e-05,-2e-05,-2e-05,0.0,-2.9999999999999997e-05,-2e-05,1
1879,1990,-2.9999999999999997e-05,-1e-05,2e-05,-2e-05,-2e-05,0.0,-2.9999999999999997e-05,-2e-05,1
1880,1991,-2.9999999999999997e-05,-1e-05,2e-05,-2e-05,-2e-05,0.0,-2.9999999999999997e-05,-2e-05,1
1881,1992,-2.9999999999999997e-05,-1e-05,2e-05,-2e-05,-2e-05,0.0,-2.9999999999999997e-05,-2e-05,1
1882,1993,-2.9999999999999997e-05,-1e-05,2e-05,-2e-05,-2e-05,0.0,-2.9999999999999997e-05,-2e-05,1
1883,1994,-2.9999999999999997e-05,-1e-05,2e-05,-2e-05,-2e-05,0.0,-2.9999999999999997e-05,-2e-05,1
1884,1995,-1e-05,-2e-05,-5.9999999999999995e-05,-4e-05,-2e-05,-1e-05,-1e-05,-2.9999999999999997e-05,1
1885,1996,-1e-05,-2e-05,-5.9999999999999995e-05,-4e-05,-2e-05,-1e-05,-1e-05,-2.9999999999999997e-05,1
1886,1997,-1e-05,-2e-05,-5.9999999999999995e-05,-4e-05,-2e-05,-1e-05,-1e-05,-2.9999999999999997e-05,1
1887,1998,-1e-05,-2e-05,-5.9999999999999995e-05,-4e-05,-2e-05,-1e-05,-1e-05,-2.9999999999999997e-05,1
1888,1999,-1e-05,-2e-05,-5.9999999999999995e-05,-4e-05,-2e-05,-1e-05,-1e-05,-2.9999999999999997e-05,1
1889,2000,-1e-05,-2e-05,-5.9999999999999995e-05,-4e-05,-2e-05,-1e-05,-1e-05,-2.9999999999999997e-05,1
1890,2001,-1e-05,-2e-05,-5.9999999999999995e-05,-4e-05,-2e-05,-1e-05,-1e-05,-2.9999999999999997e-05,1
1891,2002,-1e-05,-2e-05,-5.9999999999999995e-05,-4e-05,-2e-05,-1e-05,-1e-05,-2.9999999999999997e-05,1
1892,2003,-1e-05,-2e-05,-5.9999999999999995e-05,-4e-05,-2e-05,-1e-05,-1e-05,-2.9999999999999997e-05,1
1893,2004,0.0,-2e-05,0.0,2e-05,1e-05,-1e-05,0.0,1e-05,1
1894,2005,0.0,-2e-05,0.0,2e-05,1e-05,-1e-05,0.0,1e-05,1
1895,2006,1e-05,1e-05,2.9999999999999997e-05,1e-05,1e-05,-2.9999999999999997e-05,0.0,-1e-05,1
1896,2007,1e-05,1e-05,2.9999999999999997e-05,1e-05,1e-05,-2.9999999999999997e-05,0.0,-1e-05,1
1897,2008,1e-05,1e-05,2.9999999999999997e-05,1e-05,1e-05,-2.9999999999999997e-05,0.0,-1e-05,1
1898,2009,1e-05,1e-05,2.9999999999999997e-05,1e-05,1e-05,-2.9999999999999997e-05,0.0,-1e-05,1
1899,2010,1e-05,1e-05,2.9999999999999997e-05,1e-05,1e-05,-2.9999999999999997e-05,0.0,-1e-05,1
1900,2011,1e-05,1e-05,2.9999999999999997e-05,1e-05,1e-05,-2.9999999999999997e-05,0.0,-1e-05,1
1901,2012,1e-05,1e-05,2.9999999999999997e-05,1e-05,1e-05,-2.9999999999999997e-05,0.0,-1e-05,1
1902,2013,1e-05,1e-05,2.9999999999999997e-05,1e-05,1e-05,-2.9999999999999997e-05,0.0,-1e-05,1
1903,2014,1e-05,1e-05,2.9999999999999997e-05,1e-05,1e-05,-2.9999999999999997e-05,0.0,-1e-05,1
1904,2015,1e-05,1e-05,2.9999999999999997e-05,1e-05,1e-05,-2.9999999999999997e-05,0.0,-1e-05,1
1905,2016,1e-05,1e-05,2.9999999999999997e-05,1e-05,1e-05,-2.9999999999999997e-05,0.0,-1e-05,1
1906,2017,1e-05,1e-05,2.9999999999999997e-05,1e-05,1e-05,-2.9999999999999997e-05,0.0,-1e-05,1
1907,2018,1e-05,1e-05,2.9999999999999997e-05,1e-05,1e-05,-2.9999999999999997e-05,0.0,-1e-05,1
1908,2019,1e-05,1e-05,2.9999999999999997e-05,1e-05,1e-05,-2.9999999999999997e-05,0.0,-1e-05,1
1909,2020,1e-05,1e-05,2.9999999999999997e-05,1e-05,1e-05,-2.9999999999999997e-05,0.0,-1e-05,1
1910,2021,1e-05,1e-05,2.9999999999999997e-05,1e-05,1e-05,-2.9999999999999997e-05,0.0,-1e-05,1
1911,2022,1e-05,1e-05,2.9999999999999997e-05,1e-05,1e-05,-2.9999999999999997e-05,0.0,-1e-05,1
1912,2023,1e-05,1e-05,2.9999999999999997e-05,1e-05,1e-05,-2.9999999999999997e-05,0.0,-1e-05,1
1913,2024,1e-05,1e-05,2.9999999999999997e-05,1e-05,1e-05,-2.9999999999999997e-05,0.0,-1e-05,1
1914,2025,1e-05,1e-05,2.9999999999999997e-05,1e-05,1e-05,-2.9999999999999997e-05,0.0,-1e-05,1
1915,2026,1e-05,1e-05,2.9999999999999997e-05,1e-05,1e-05,-2.9999999999999997e-05,0.0,-1e-05,1
1916,2027,-1e-05,-1e-05,-4e-05,-2.9999999999999997e-05,0.0,-1e-05,1e-05,-2e-05,1
1917,2028,-1e-05,-1e-05,-1e-05,1e-05,0.0,-1e-05,1e-05,0.0,1
1918,2029,-2e-05,-4e-05,-2e-05,-2e-05,-1e-05,-2e-05,-2.9999999999999997e-05,-1e-05,1
1919,2030,-2e-05,-4e-05,-2e-05,-2e-05,-1e-05,-2e-05,-2.9999999999999997e-05,-1e-05,1
1920,2031,-2e-05,-4e-05,-2e-05,-2e-05,-1e-05,-2e-05,-2.9999999999999997e-05,-1e-05,1
1921,2032,-2e-05,-4e-05,-2e-05,-2e-05,-1e-05,-2e-05,-2.9999999999999997e-05,-1e-05,1
1922,2033,-2e-05,-4e-05,-2e-05,-2e-05,-1e-05,-2e-05,-2.9999999999999997e-05,-1e-05,1
1923,2034,-2e-05,-4e-05,-2e-05,-2e-05,-1e-05,-2e-05,-2.9999999999999997e-05,-1e-05,1
1924,2035,-2e-05,-4e-05,-2e-05,-2e-05,-1e-05,-2e-05,-2.9999999999999997e-05,-1e-05,1
1925,2036,-2e-05,-4e-05,-2e-05,-2e-05,-1e-05,-2e-05,-2.9999999999999997e-05,-1e-05,1
1926,2038,-2e-05,-4e-05,-2e-05,-2e-05,-1e-05,-2e-05,-2.9999999999999997e-05,-1e-05,1
1927,2039,-2e-05,-4e-05,-2e-05,-2e-05,-1e-05,-2e-05,-2.9999999999999997e-05,-1e-05,1
1928,2040,-1e-05,-2e-05,0.0,-1e-05,-2e-05,-1e-05,0.0,-1e-05,1
1929,2041,-1e-05,-2e-05,0.0,-1e-05,-2e-05,-1e-05,0.0,-1e-05,1
1930,2042,-1e-05,-2e-05,0.0,-1e-05,-2e-05,-1e-05,0.0,-1e-05,1
1931,2043,-1e-05,-2e-05,0.0,-1e-05,-2e-05,-1e-05,0.0,-1e-05,1
1932,2044,-1e-05,-2e-05,0.0,-1e-05,-2e-05,-1e-05,0.0,-1e-05,1
1933,2045,-1e-05,-2e-05,0.0,-1e-05,-2e-05,-1e-05,0.0,-1e-05,1
1934,2046,-1e-05,-2e-05,0.0,-1e-05,-2e-05,-1e-05,0.0,-1e-05,1
1935,2047,-1e-05,-2e-05,0.0,-1e-05,-2e-05,-1e-05,0.0,-1e-05,1
1936,2048,-1e-05,-2e-05,0.0,-1e-05,-2e-05,-1e-05,0.0,-1e-05,1
1937,2049,-1e-05,0.0,1e-05,0.0,-2e-05,-2e-05,-2e-05,-1e-05,1
1938,2050,-1e-05,0.0,1e-05,0.0,-2e-05,-2e-05,-2e-05,-1e-05,1
1939,2051,-1e-05,0.0,1e-05,0.0,-2e-05,-2e-05,-2e-05,-1e-05,1
1940,2052,-1e-05,0.0,1e-05,0.0,-2e-05,-2e-05,-2e-05,-1e-05,1
1941,2053,-1e-05,0.0,1e-05,0.0,-2e-05,-2e-05,-2e-05,-1e-05,1
1942,2054,-1e-05,0.0,1e-05,0.0,-2e-05,-2e-05,-2e-05,-1e-05,1
1943,2055,-1e-05,0.0,1e-05,0.0,-2e-05,-2e-05,-2e-05,-1e-05,1
1944,2056,-1e-05,0.0,1e-05,0.0,-2e-05,-2e-05,-2e-05,-1e-05,1
1945,2057,-1e-05,0.0,1e-05,0.0,-2e-05,-2e-05,-2e-05,-1e-05,1
1946,2058,-1e-05,0.0,1e-05,0.0,-2e-05,-2e-05,-2e-05,-1e-05,1
1947,2059,-1e-05,0.0,1e-05,0.0,-2e-05,-2e-05,-2e-05,-1e-05,1
1948,2060,-1e-05,0.0,1e-05,0.0,-2e-05,-2e-05,-2e-05,-1e-05,1
1949,2061,-1e-05,0.0,1e-05,0.0,-2e-05,-2e-05,-2e-05,-1e-05,1
1950,2062,-1e-05,0.0,1e-05,0.0,-2e-05,-2e-05,-2e-05,-1e-05,1
1951,2063,-1e-05,0.0,1e-05,0.0,-2e-05,-2e-05,-2e-05,-1e-05,1
1952,2064,0.0,-2.9999999999999997e-05,-5.9999999999999995e-05,-4e-05,-2.9999999999999997e-05,-1e-05,0.0,0.0,1
1953,2065,0.0,-2.9999999999999997e-05,-5.9999999999999995e-05,-4e-05,-2.9999999999999997e-05,-1e-05,0.0,0.0,1
1954,2066,-1e-05,-1e-05,0.0,-2.9999999999999997e-05,0.0,-1e-05,0.0,0.0,1
1955,2067,-1e-05,-1e-05,0.0,-2.9999999999999997e-05,0.0,-1e-05,0.0,0.0,1
1956,2068,-1e-05,-1e-05,0.0,-2.9999999999999997e-05,0.0,-1e-05,0.0,0.0,1
1957,2069,-1e-05,-1e-05,0.0,-2.9999999999999997e-05,0.0,-1e-05,0.0,0.0,1
1958,2070,-1e-05,-1e-05,0.0,-2.9999999999999997e-05,0.0,-1e-05,0.0,0.0,1
1959,2071,-1e-05,-1e-05,0.0,-2.9999999999999997e-05,0.0,-1e-05,0.0,0.0,1
1960,2072,-1e-05,-1e-05,0.0,-2.9999999999999997e-05,0.0,-1e-05,0.0,0.0,1
1961,2073,-1e-05,-1e-05,0.0,-2.9999999999999997e-05,0.0,-1e-05,0.0,0.0,1
1962,2074,-1e-05,-1e-05,0.0,-2.9999999999999997e-05,0.0,-1e-05,0.0,0.0,1
1963,2075,-1e-05,-1e-05,0.0,-2.9999999999999997e-05,0.0,-1e-05,0.0,0.0,1
1964,2076,-1e-05,-1e-05,0.0,-2.9999999999999997e-05,0.0,-1e-05,0.0,0.0,1
1965,2077,-1e-05,-1e-05,0.0,-2.9999999999999997e-05,0.0,-1e-05,0.0,0.0,1
1966,2078,-1e-05,-1e-05,0.0,-2.9999999999999997e-05,0.0,-1e-05,0.0,0.0,1
1967,2079,-1e-05,-1e-05,0.0,-2.9999999999999997e-05,0.0,-1e-05,0.0,0.0,1
1968,2080,-1e-05,-1e-05,0.0,-2.9999999999999997e-05,0.0,-1e-05,0.0,0.0,1
1969,2081,-1e-05,-1e-05,0.0,-2.9999999999999997e-05,0.0,-1e-05,0.0,0.0,1
1970,2082,-1e-05,-1e-05,0.0,-2.9999999999999997e-05,0.0,-1e-05,0.0,0.0,1
1971,2083,-1e-05,-1e-05,0.0,-2.9999999999999997e-05,0.0,-1e-05,0.0,0.0,1
1972,2084,-1e-05,-1e-05,0.0,-2.9999999999999997e-05,0.0,-1e-05,0.0,0.0,1
1973,2085,-1e-05,-1e-05,0.0,-2.9999999999999997e-05,0.0,-1e-05,0.0,0.0,1
1974,2086,-1e-05,-1e-05,0.0,-2.9999999999999997e-05,0.0,-1e-05,0.0,0.0,1
1975,2088,-2e-05,-1e-05,-2.9999999999999997e-05,-2e-05,-1e-05,0.0,0.0,0.0,1
1976,2089,-2e-05,-1e-05,-2.9999999999999997e-05,-2e-05,-1e-05,0.0,0.0,0.0,1
1977,2090,-2e-05,-1e-05,-2.9999999999999997e-05,-2e-05,-1e-05,0.0,0.0,0.0,1
1978,2091,-2e-05,-1e-05,-2.9999999999999997e-05,-2e-05,-1e-05,0.0,0.0,0.0,1
1979,2092,-2e-05,-1e-05,-2.9999999999999997e-05,-2e-05,-1e-05,0.0,0.0,0.0,1
1980,2093,-2e-05,-1e-05,-2.9999999999999997e-05,-2e-05,-1e-05,0.0,0.0,0.0,1
1981,2094,-2e-05,-1e-05,-2.9999999999999997e-05,-2e-05,-1e-05,0.0,0.0,0.0,1
1982,2095,-2e-05,-1e-05,-2.9999999999999997e-05,-2e-05,-1e-05,0.0,0.0,0.0,1
1983,2096,-2e-05,-1e-05,-2.9999999999999997e-05,-2e-05,-1e-05,0.0,0.0,0.0,1
1984,2097,-2e-05,-1e-05,-2.9999999999999997e-05,-2e-05,-1e-05,0.0,0.0,0.0,1
1985,2098,-2e-05,-1e-05,-2.9999999999999997e-05,-2e-05,-1e-05,0.0,0.0,0.0,1
1986,2099,-2e-05,-1e-05,-2.9999999999999997e-05,-2e-05,-1e-05,0.0,0.0,0.0,1
1987,2100,-2e-05,-1e-05,-2.9999999999999997e-05,-2e-05,-1e-05,0.0,0.0,0.0,1
1988,2101,-2e-05,-1e-05,-2.9999999999999997e-05,-2e-05,-1e-05,0.0,0.0,0.0,1
1989,2102,-2e-05,-1e-05,-2.9999999999999997e-05,-2e-05,-1e-05,0.0,0.0,0.0,1
1990,2103,-2e-05,-1e-05,-2.9999999999999997e-05,-2e-05,-1e-05,0.0,0.0,0.0,1
1991,2104,-2e-05,-1e-05,-2.9999999999999997e-05,-2e-05,-1e-05,0.0,0.0,0.0,1
1992,2105,-2e-05,-1e-05,-2.9999999999999997e-05,-2e-05,-1e-05,0.0,0.0,0.0,1
1993,2106,-2e-05,-1e-05,-2.9999999999999997e-05,-2e-05,-1e-05,0.0,0.0,0.0,1
1994,2107,-2e-05,-1e-05,-2.9999999999999997e-05,-2e-05,-1e-05,0.0,0.0,0.0,1
1995,2108,-2e-05,-1e-05,-2.9999999999999997e-05,-2e-05,-1e-05,0.0,0.0,0.0,1
1996,2109,-2e-05,-5e-05,-2.9999999999999997e-05,-5.9999999999999995e-05,-2.9999999999999997e-05,-1e-05,0.0,0.0,1
1997,2110,-2e-05,-5e-05,-2.9999999999999997e-05,-5.9999999999999995e-05,-2.9999999999999997e-05,-1e-05,0.0,0.0,1
1998,2111,-1e-05,1e-05,1e-05,1e-05,0.0,0.0,-2e-05,0.0,1
1999,2112,-1e-05,1e-05,1e-05,1e-05,0.0,0.0,-2e-05,0.0,1
2000,2113,-1e-05,1e-05,1e-05,1e-05,0.0,0.0,-2e-05,0.0,1
2001,2114,-1e-05,1e-05,1e-05,1e-05,0.0,0.0,-2e-05,0.0,1
2002,2115,-1e-05,1e-05,1e-05,1e-05,0.0,0.0,-2e-05,0.0,1
2003,2116,-1e-05,1e-05,1e-05,1e-05,0.0,0.0,-2e-05,0.0,1
2004,2117,-1e-05,1e-05,1e-05,1e-05,0.0,0.0,-2e-05,0.0,1
2005,2118,-1e-05,1e-05,1e-05,1e-05,0.0,0.0,-2e-05,0.0,1
2006,2119,-1e-05,1e-05,1e-05,1e-05,0.0,0.0,-2e-05,0.0,1
2007,2120,-1e-05,1e-05,1e-05,1e-05,0.0,0.0,-2e-05,0.0,1
2008,2121,-1e-05,1e-05,1e-05,1e-05,0.0,0.0,-2e-05,0.0,1
2009,2122,-1e-05,1e-05,1e-05,1e-05,0.0,0.0,-2e-05,0.0,1
2010,2123,-1e-05,1e-05,1e-05,1e-05,0.0,0.0,-2e-05,0.0,1
2011,2124,-2e-05,0.0,-1e-05,1e-05,-1e-05,-1e-05,-1e-05,-2e-05,1
2012,2125,-2e-05,0.0,-1e-05,1e-05,-1e-05,-1e-05,-1e-05,-2e-05,1
2013,2126,-1e-05,-4e-05,-4e-05,-4e-05,0.0,-2e-05,0.0,-1e-05,1
2014,2127,-1e-05,-4e-05,-4e-05,-4e-05,0.0,-2e-05,0.0,-1e-05,1
2015,2128,-1e-05,-4e-05,-4e-05,-4e-05,0.0,-2e-05,0.0,-1e-05,1
2016,2129,-1e-05,-4e-05,-4e-05,-4e-05,0.0,-2e-05,0.0,-1e-05,1
2017,2130,-1e-05,-4e-05,-4e-05,-4e-05,0.0,-2e-05,0.0,-1e-05,1
2018,2131,-1e-05,-4e-05,-4e-05,-4e-05,0.0,-2e-05,0.0,-1e-05,1
2019,2132,-1e-05,-4e-05,-4e-05,-4e-05,0.0,-2e-05,0.0,-1e-05,1
2020,2133,-1e-05,-4e-05,-4e-05,-4e-05,0.0,-2e-05,0.0,-1e-05,1
2021,2134,-1e-05,-4e-05,-4e-05,-4e-05,0.0,-2e-05,0.0,-1e-05,1
2022,2135,-1e-05,-4e-05,-4e-05,-4e-05,0.0,-2e-05,0.0,-1e-05,1
2023,2136,-1e-05,-4e-05,-4e-05,-4e-05,0.0,-2e-05,0.0,-1e-05,1
2024,2138,-1e-05,-4e-05,-4e-05,-4e-05,0.0,-2e-05,0.0,-1e-05,1
2025,2139,-1e-05,-4e-05,-4e-05,-4e-05,0.0,-2e-05,0.0,-1e-05,1
2026,2140,-1e-05,-4e-05,-4e-05,-4e-05,0.0,-2e-05,0.0,-1e-05,1
2027,2141,-1e-05,-4e-05,-4e-05,-4e-05,0.0,-2e-05,0.0,-1e-05,1
2028,2142,-1e-05,-4e-05,-4e-05,-4e-05,0.0,-2e-05,0.0,-1e-05,1
2029,2143,-1e-05,-4e-05,-4e-05,-4e-05,0.0,-2e-05,0.0,-1e-05,1
2030,2144,-1e-05,-4e-05,-4e-05,-4e-05,0.0,-2e-05,0.0,-1e-05,1
2031,2145,-1e-05,-4e-05,-4e-05,-4e-05,0.0,-2e-05,0.0,-1e-05,1
2032,2146,-1e-05,-4e-05,-4e-05,-4e-05,0.0,-2e-05,0.0,-1e-05,1
2033,2147,1e-05,0.0,2e-05,1e-05,2e-05,0.0,1e-05,-2e-05,1
2034,2148,-1e-05,-1e-05,-2.9999999999999997e-05,-4e-05,-2e-05,0.0,0.0,-1e-05,1
2035,2149,-1e-05,-1e-05,-2.9999999999999997e-05,-4e-05,-2e-05,0.0,0.0,-1e-05,1
2036,2150,-1e-05,-1e-05,-2.9999999999999997e-05,-4e-05,-2e-05,0.0,0.0,-1e-05,1
2037,2151,-1e-05,-1e-05,-2.9999999999999997e-05,-4e-05,-2e-05,0.0,0.0,-1e-05,1
2038,2152,-1e-05,-1e-05,-2.9999999999999997e-05,-4e-05,-2e-05,0.0,0.0,-1e-05,1
2039,2153,-1e-05,-1e-05,-2.9999999999999997e-05,-4e-05,-2e-05,0.0,0.0,-1e-05,1
2040,2154,-1e-05,-1e-05,-2.9999999999999997e-05,-4e-05,-2e-05,0.0,0.0,-1e-05,1
2041,2155,-1e-05,-1e-05,-2.9999999999999997e-05,-4e-05,-2e-05,0.0,0.0,-1e-05,1
2042,2156,-1e-05,-1e-05,-2.9999999999999997e-05,-4e-05,-2e-05,0.0,0.0,-1e-05,1
2043,2157,-1e-05,-1e-05,-2.9999999999999997e-05,-4e-05,-2e-05,0.0,0.0,-1e-05,1
2044,2158,-1e-05,-1e-05,-2.9999999999999997e-05,-4e-05,-2e-05,0.0,0.0,-1e-05,1
2045,2159,-1e-05,-1e-05,-2.9999999999999997e-05,-4e-05,-2e-05,0.0,0.0,-1e-05,1
2046,2160,-1e-05,-1e-05,-2.9999999999999997e-05,-4e-05,-2e-05,0.0,0.0,-1e-05,1
2047,2161,-1e-05,-1e-05,-2.9999999999999997e-05,-4e-05,-2e-05,0.0,0.0,-1e-05,1
2048,2162,-1e-05,-1e-05,-2.9999999999999997e-05,-4e-05,-2e-05,0.0,0.0,-1e-05,1
2049,2163,-1e-05,-1e-05,-2.9999999999999997e-05,-4e-05,-2e-05,0.0,0.0,-1e-05,1
2050,2164,-1e-05,-1e-05,-2.9999999999999997e-05,-4e-05,-2e-05,0.0,0.0,-1e-05,1
2051,2165,-1e-05,-1e-05,-2.9999999999999997e-05,-4e-05,-2e-05,0.0,0.0,-1e-05,1
2052,2166,-1e-05,-1e-05,-2.9999999999999997e-05,-4e-05,-2e-05,0.0,0.0,-1e-05,1
2053,2167,-1e-05,-1e-05,-2.9999999999999997e-05,-4e-05,-2e-05,0.0,0.0,-1e-05,1
2054,2168,-1e-05,-1e-05,-2.9999999999999997e-05,-4e-05,-2e-05,0.0,0.0,-1e-05,1
2055,2169,-1e-05,-1e-05,1e-05,-1e-05,-1e-05,-1e-05,-2.9999999999999997e-05,0.0,1
2056,2170,-1e-05,-1e-05,1e-05,-1e-05,-1e-05,-1e-05,-2.9999999999999997e-05,0.0,1
2057,2171,1e-05,-1e-05,1e-05,2e-05,-1e-05,0.0,0.0,-1e-05,1
2058,2172,1e-05,-1e-05,1e-05,2e-05,-1e-05,0.0,0.0,-1e-05,1
2059,2173,1e-05,-1e-05,1e-05,2e-05,-1e-05,0.0,0.0,-1e-05,1
2060,2174,1e-05,-1e-05,1e-05,2e-05,-1e-05,0.0,0.0,-1e-05,1
2061,2175,1e-05,-1e-05,1e-05,2e-05,-1e-05,0.0,0.0,-1e-05,1
2062,2176,1e-05,-1e-05,1e-05,2e-05,-1e-05,0.0,0.0,-1e-05,1
2063,2177,1e-05,-1e-05,1e-05,2e-05,-1e-05,0.0,0.0,-1e-05,1
2064,2178,1e-05,-1e-05,1e-05,2e-05,-1e-05,0.0,0.0,-1e-05,1
2065,2179,1e-05,-1e-05,1e-05,2e-05,-1e-05,0.0,0.0,-1e-05,1
2066,2180,1e-05,-1e-05,1e-05,2e-05,-1e-05,0.0,0.0,-1e-05,1
2067,2181,1e-05,-1e-05,1e-05,2e-05,-1e-05,0.0,0.0,-1e-05,1
2068,2182,1e-05,-1e-05,1e-05,2e-05,-1e-05,0.0,0.0,-1e-05,1
2069,2183,1e-05,-1e-05,1e-05,2e-05,-1e-05,0.0,0.0,-1e-05,1
2070,2184,-2.9999999999999997e-05,-2.9999999999999997e-05,-2.9999999999999997e-05,-2e-05,-1e-05,-1e-05,1e-05,-1e-05,1
2071,2185,-2.9999999999999997e-05,-2.9999999999999997e-05,-2.9999999999999997e-05,-2e-05,-1e-05,-1e-05,1e-05,-1e-05,1
2072,2186,-1e-05,0.0,-1e-05,0.0,-2e-05,-2e-05,-2e-05,-2e-05,1
2073,2188,-1e-05,0.0,-1e-05,0.0,-2e-05,-2e-05,-2e-05,-2e-05,1
2074,2189,-1e-05,0.0,-1e-05,0.0,-2e-05,-2e-05,-2e-05,-2e-05,1
2075,2190,-1e-05,0.0,-1e-05,0.0,-2e-05,-2e-05,-2e-05,-2e-05,1
2076,2191,-1e-05,0.0,-1e-05,0.0,-2e-05,-2e-05,-2e-05,-2e-05,1
2077,2192,-1e-05,0.0,-1e-05,0.0,-2e-05,-2e-05,-2e-05,-2e-05,1
2078,2193,-1e-05,0.0,-1e-05,0.0,-2e-05,-2e-05,-2e-05,-2e-05,1
2079,2194,-1e-05,0.0,-1e-05,0.0,-2e-05,-2e-05,-2e-05,-2e-05,1
2080,2195,-1e-05,0.0,-1e-05,0.0,-2e-05,-2e-05,-2e-05,-2e-05,1
2081,2196,-1e-05,0.0,-1e-05,0.0,-2e-05,-2e-05,-2e-05,-2e-05,1
2082,2197,-1e-05,0.0,-1e-05,0.0,-2e-05,-2e-05,-2e-05,-2e-05,1
2083,2198,-1e-05,0.0,-1e-05,0.0,-2e-05,-2e-05,-2e-05,-2e-05,1
2084,2199,-1e-05,0.0,-1e-05,0.0,-2e-05,-2e-05,-2e-05,-2e-05,1
2085,2200,-1e-05,0.0,-1e-05,0.0,-2e-05,-2e-05,-2e-05,-2e-05,1
2086,2201,-1e-05,0.0,-1e-05,0.0,-2e-05,-2e-05,-2e-05,-2e-05,1
2087,2202,-1e-05,0.0,-1e-05,0.0,-2e-05,-2e-05,-2e-05,-2e-05,1
2088,2203,-1e-05,0.0,-1e-05,0.0,-2e-05,-2e-05,-2e-05,-2e-05,1
2089,2204,-1e-05,0.0,-1e-05,0.0,-2e-05,-2e-05,-2e-05,-2e-05,1
2090,2205,-1e-05,0.0,-1e-05,0.0,-2e-05,-2e-05,-2e-05,-2e-05,1
2091,2206,-1e-05,0.0,-1e-05,0.0,-2e-05,-2e-05,-2e-05,-2e-05,1
2092,2207,0.0,2e-05,2e-05,0.0,-2e-05,-1e-05,-2.9999999999999997e-05,1e-05,1
2093,2208,0.0,0.0,2e-05,2e-05,-1e-05,-1e-05,-2e-05,-2e-05,1
2094,2209,0.0,0.0,2e-05,2e-05,-1e-05,-1e-05,-2e-05,-2e-05,1
2095,2210,0.0,0.0,2e-05,2e-05,-1e-05,-1e-05,-2e-05,-2e-05,1
2096,2211,0.0,0.0,2e-05,2e-05,-1e-05,-1e-05,-2e-05,-2e-05,1
2097,2212,0.0,0.0,2e-05,2e-05,-1e-05,-1e-05,-2e-05,-2e-05,1
2098,2213,0.0,0.0,2e-05,2e-05,-1e-05,-1e-05,-2e-05,-2e-05,1
2099,2214,0.0,0.0,2e-05,2e-05,-1e-05,-1e-05,-2e-05,-2e-05,1
2100,2215,0.0,0.0,2e-05,2e-05,-1e-05,-1e-05,-2e-05,-2e-05,1
2101,2216,0.0,0.0,2e-05,2e-05,-1e-05,-1e-05,-2e-05,-2e-05,1
2102,2217,0.0,0.0,2e-05,2e-05,-1e-05,-1e-05,-2e-05,-2e-05,1
2103,2218,0.0,0.0,2e-05,2e-05,-1e-05,-1e-05,-2e-05,-2e-05,1
2104,2219,0.0,0.0,2e-05,2e-05,-1e-05,-1e-05,-2e-05,-2e-05,1
2105,2220,0.0,0.0,2e-05,2e-05,-1e-05,-1e-05,-2e-05,-2e-05,1
2106,2221,0.0,0.0,2e-05,2e-05,-1e-05,-1e-05,-2e-05,-2e-05,1
2107,2222,0.0,0.0,2e-05,2e-05,-1e-05,-1e-05,-2e-05,-2e-05,1
2108,2223,0.0,0.0,2e-05,2e-05,-1e-05,-1e-05,-2e-05,-2e-05,1
2109,2224,0.0,0.0,2e-05,2e-05,-1e-05,-1e-05,-2e-05,-2e-05,1
2110,2225,0.0,0.0,2e-05,2e-05,-1e-05,-1e-05,-2e-05,-2e-05,1
2111,2226,0.0,0.0,2e-05,2e-05,-1e-05,-1e-05,-2e-05,-2e-05,1
2112,2227,0.0,0.0,2e-05,2e-05,-1e-05,-1e-05,-2e-05,-2e-05,1
2113,2228,0.0,0.0,2e-05,2e-05,-1e-05,-1e-05,-2e-05,-2e-05,1
2114,2229,-1e-05,-1e-05,-5.9999999999999995e-05,-5e-05,0.0,-2e-05,-1e-05,0.0,1
2115,2230,-1e-05,-1e-05,-5.9999999999999995e-05,-5e-05,0.0,-2e-05,-1e-05,0.0,1
2116,2231,1e-05,-1e-05,-1e-05,2e-05,-1e-05,-2e-05,0.0,-1e-05,1
2117,2232,1e-05,-1e-05,-1e-05,2e-05,-1e-05,-2e-05,0.0,-1e-05,1
2118,2233,1e-05,-1e-05,-1e-05,2e-05,-1e-05,-2e-05,0.0,-1e-05,1
2119,2234,1e-05,-1e-05,-1e-05,2e-05,-1e-05,-2e-05,0.0,-1e-05,1
2120,2235,1e-05,-1e-05,-1e-05,2e-05,-1e-05,-2e-05,0.0,-1e-05,1
2121,2236,1e-05,-1e-05,-1e-05,2e-05,-1e-05,-2e-05,0.0,-1e-05,1
2122,2238,1e-05,-1e-05,-1e-05,2e-05,-1e-05,-2e-05,0.0,-1e-05,1
2123,2239,1e-05,-1e-05,-1e-05,2e-05,-1e-05,-2e-05,0.0,-1e-05,1
2124,2240,1e-05,-1e-05,-1e-05,2e-05,-1e-05,-2e-05,0.0,-1e-05,1
2125,2241,1e-05,-1e-05,-1e-05,2e-05,-1e-05,-2e-05,0.0,-1e-05,1
2126,2242,1e-05,-1e-05,-1e-05,2e-05,-1e-05,-2e-05,0.0,-1e-05,1
2127,2243,1e-05,-1e-05,-1e-05,2e-05,-1e-05,-2e-05,0.0,-1e-05,1
2128,2244,1e-05,-1e-05,0.0,1e-05,-2e-05,0.0,-2e-05,-2.9999999999999997e-05,1
2129,2245,1e-05,-1e-05,0.0,1e-05,-2e-05,0.0,-2e-05,-2.9999999999999997e-05,1
2130,2246,0.0,2e-05,0.0,0.0,-1e-05,0.0,-2e-05,-1e-05,1
2131,2247,-2e-05,-2.9999999999999997e-05,-2.9999999999999997e-05,-1e-05,-2e-05,0.0,0.0,0.0,1
2132,2248,-2e-05,-2.9999999999999997e-05,-2.9999999999999997e-05,-1e-05,-2e-05,0.0,0.0,0.0,1
2133,2249,-2e-05,-2.9999999999999997e-05,-2.9999999999999997e-05,-1e-05,-2e-05,0.0,0.0,0.0,1
2134,2250,-2e-05,-2.9999999999999997e-05,-2.9999999999999997e-05,-1e-05,-2e-05,0.0,0.0,0.0,1
2135,2251,-2e-05,-2.9999999999999997e-05,-2.9999999999999997e-05,-1e-05,-2e-05,0.0,0.0,0.0,1
2136,2252,-2e-05,-2.9999999999999997e-05,-2.9999999999999997e-05,-1e-05,-2e-05,0.0,0.0,0.0,1
2137,2253,-2e-05,-2.9999999999999997e-05,-2.9999999999999997e-05,-1e-05,-2e-05,0.0,0.0,0.0,1
2138,2254,-2e-05,-2.9999999999999997e-05,-2.9999999999999997e-05,-1e-05,-2e-05,0.0,0.0,0.0,1
2139,2255,-2e-05,-2.9999999999999997e-05,-2.9999999999999997e-05,-1e-05,-2e-05,0.0,0.0,0.0,1
2140,2256,-2e-05,-2.9999999999999997e-05,-2.9999999999999997e-05,-1e-05,-2e-05,0.0,0.0,0.0,1
2141,2257,-2e-05,-2.9999999999999997e-05,-2.9999999999999997e-05,-1e-05,-2e-05,0.0,0.0,0.0,1
2142,2258,-2e-05,-2.9999999999999997e-05,-2.9999999999999997e-05,-1e-05,-2e-05,0.0,0.0,0.0,1
2143,2259,-2e-05,-2.9999999999999997e-05,-2.9999999999999997e-05,-1e-05,-2e-05,0.0,0.0,0.0,1
2144,2260,-2e-05,-2.9999999999999997e-05,-2.9999999999999997e-05,-1e-05,-2e-05,0.0,0.0,0.0,1
2145,2261,-2e-05,-2.9999999999999997e-05,-2.9999999999999997e-05,-1e-05,-2e-05,0.0,0.0,0.0,1
2146,2262,-2e-05,-2.9999999999999997e-05,-2.9999999999999997e-05,-1e-05,-2e-05,0.0,0.0,0.0,1
2147,2263,-2e-05,-2.9999999999999997e-05,-2.9999999999999997e-05,-1e-05,-2e-05,0.0,0.0,0.0,1
2148,2264,-2e-05,-2.9999999999999997e-05,-2.9999999999999997e-05,-1e-05,-2e-05,0.0,0.0,0.0,1
2149,2265,-2e-05,-2.9999999999999997e-05,-2.9999999999999997e-05,-1e-05,-2e-05,0.0,0.0,0.0,1
2150,2266,-2e-05,-2e-05,-2e-05,-1e-05,-2e-05,0.0,-2e-05,-2.9999999999999997e-05,1
2151,2267,0.0,0.0,0.0,-1e-05,-1e-05,0.0,0.0,-1e-05,1
2152,2268,0.0,-2e-05,-2e-05,-2.9999999999999997e-05,0.0,-1e-05,-1e-05,0.0,1
2153,2269,0.0,-2e-05,-2e-05,-2.9999999999999997e-05,0.0,-1e-05,-1e-05,0.0,1
2154,2270,0.0,-2e-05,-2e-05,-2.9999999999999997e-05,0.0,-1e-05,-1e-05,0.0,1
2155,2271,0.0,-2e-05,-2e-05,-2.9999999999999997e-05,0.0,-1e-05,-1e-05,0.0,1
2156,2272,0.0,-2e-05,-2e-05,-2.9999999999999997e-05,0.0,-1e-05,-1e-05,0.0,1
2157,2273,0.0,-2e-05,-2e-05,-2.9999999999999997e-05,0.0,-1e-05,-1e-05,0.0,1
2158,2274,0.0,-2e-05,-2e-05,-2.9999999999999997e-05,0.0,-1e-05,-1e-05,0.0,1
2159,2275,0.0,-2e-05,-2e-05,-2.9999999999999997e-05,0.0,-1e-05,-1e-05,0.0,1
2160,2276,0.0,-2e-05,-2e-05,-2.9999999999999997e-05,0.0,-1e-05,-1e-05,0.0,1
2161,2277,0.0,-2e-05,-2e-05,-2.9999999999999997e-05,0.0,-1e-05,-1e-05,0.0,1
2162,2278,0.0,-2e-05,-2e-05,-2.9999999999999997e-05,0.0,-1e-05,-1e-05,0.0,1
2163,2279,0.0,-2e-05,-2e-05,-2.9999999999999997e-05,0.0,-1e-05,-1e-05,0.0,1
2164,2280,0.0,-2e-05,-2e-05,-2.9999999999999997e-05,0.0,-1e-05,-1e-05,0.0,1
2165,2281,0.0,-2e-05,-2e-05,-2.9999999999999997e-05,0.0,-1e-05,-1e-05,0.0,1
2166,2282,0.0,-2e-05,-2e-05,-2.9999999999999997e-05,0.0,-1e-05,-1e-05,0.0,1
2167,2283,0.0,-2e-05,-2e-05,-2.9999999999999997e-05,0.0,-1e-05,-1e-05,0.0,1
2168,2284,0.0,-2e-05,-2e-05,-2.9999999999999997e-05,0.0,-1e-05,-1e-05,0.0,1
2169,2285,0.0,-2e-05,-2e-05,-2.9999999999999997e-05,0.0,-1e-05,-1e-05,0.0,1
2170,2286,0.0,-2e-05,-2e-05,-2.9999999999999997e-05,0.0,-1e-05,-1e-05,0.0,1
2171,2288,0.0,-2e-05,-2e-05,-2.9999999999999997e-05,0.0,-1e-05,-1e-05,0.0,1
2172,2289,-1e-05,0.0,2e-05,1e-05,0.0,-1e-05,-1e-05,-1e-05,1
2173,2290,-1e-05,0.0,2e-05,1e-05,0.0,-1e-05,-1e-05,-1e-05,1
2174,2291,0.0,-1e-05,-1e-05,-2.9999999999999997e-05,-1e-05,0.0,-1e-05,0.0,1
2175,2292,0.0,-1e-05,-1e-05,-2.9999999999999997e-05,-1e-05,0.0,-1e-05,0.0,1
2176,2293,0.0,-1e-05,-1e-05,-2.9999999999999997e-05,-1e-05,0.0,-1e-05,0.0,1
2177,2294,0.0,-1e-05,-1e-05,-2.9999999999999997e-05,-1e-05,0.0,-1e-05,0.0,1
2178,2295,0.0,-1e-05,-1e-05,-2.9999999999999997e-05,-1e-05,0.0,-1e-05,0.0,1
2179,2296,0.0,-1e-05,-1e-05,-2.9999999999999997e-05,-1e-05,0.0,-1e-05,0.0,1
2180,2297,0.0,-1e-05,-1e-05,-2.9999999999999997e-05,-1e-05,0.0,-1e-05,0.0,1
2181,2298,0.0,-1e-05,-1e-05,-2.9999999999999997e-05,-1e-05,0.0,-1e-05,0.0,1
2182,2299,0.0,-1e-05,-1e-05,-2.9999999999999997e-05,-1e-05,0.0,-1e-05,0.0,1
2183,2300,0.0,-1e-05,-1e-05,-2.9999999999999997e-05,-1e-05,0.0,-1e-05,0.0,1
2184,2301,0.0,-1e-05,-1e-05,-2.9999999999999997e-05,-1e-05,0.0,-1e-05,0.0,1
2185,2302,0.0,-1e-05,-1e-05,-2.9999999999999997e-05,-1e-05,0.0,-1e-05,0.0,1
2186,2303,-1e-05,1e-05,0.0,1e-05,-1e-05,-1e-05,-1e-05,0.0,1
2187,2304,-1e-05,1e-05,0.0,1e-05,-1e-05,-1e-05,-1e-05,0.0,1
2188,2305,-1e-05,1e-05,0.0,1e-05,-1e-05,-1e-05,-1e-05,0.0,1
2189,2306,-1e-05,1e-05,0.0,1e-05,-1e-05,-1e-05,-1e-05,0.0,1
2190,2307,-1e-05,1e-05,0.0,1e-05,-1e-05,-1e-05,-1e-05,0.0,1
2191,2308,-1e-05,1e-05,0.0,1e-05,-1e-05,-1e-05,-1e-05,0.0,1
2192,2309,-1e-05,1e-05,0.0,1e-05,-1e-05,-1e-05,-1e-05,0.0,1
2193,2310,0.0,-2e-05,-2.9999999999999997e-05,-2.9999999999999997e-05,-2e-05,-2e-05,-4e-05,-1e-05,1
2194,2311,0.0,-2e-05,-2.9999999999999997e-05,-2.9999999999999997e-05,-2e-05,-2e-05,-4e-05,-1e-05,1
2195,2312,0.0,-2e-05,-2.9999999999999997e-05,-2.9999999999999997e-05,-2e-05,-2e-05,-4e-05,-1e-05,1
2196,2313,0.0,-2e-05,-2.9999999999999997e-05,-2.9999999999999997e-05,-2e-05,-2e-05,-4e-05,-1e-05,1
2197,2314,0.0,-2e-05,-2.9999999999999997e-05,-2.9999999999999997e-05,-2e-05,-2e-05,-4e-05,-1e-05,1
2198,2315,0.0,-2e-05,-2.9999999999999997e-05,-2.9999999999999997e-05,-2e-05,-2e-05,-4e-05,-1e-05,1
2199,2316,0.0,-2e-05,-2.9999999999999997e-05,-2.9999999999999997e-05,-2e-05,-2e-05,-4e-05,-1e-05,1
2200,2317,0.0,-2e-05,-2.9999999999999997e-05,-2.9999999999999997e-05,-2e-05,-2e-05,-4e-05,-1e-05,1
2201,2318,0.0,-2e-05,-2.9999999999999997e-05,-2.9999999999999997e-05,-2e-05,-2e-05,-4e-05,-1e-05,1
2202,2319,0.0,-2e-05,-2.9999999999999997e-05,-2.9999999999999997e-05,-2e-05,-2e-05,-4e-05,-1e-05,1
2203,2320,0.0,-2e-05,-2.9999999999999997e-05,-2.9999999999999997e-05,-2e-05,-2e-05,-4e-05,-1e-05,1
2204,2321,0.0,-2e-05,-2.9999999999999997e-05,-2.9999999999999997e-05,-2e-05,-2e-05,-4e-05,-1e-05,1
2205,2322,0.0,-2e-05,-2.9999999999999997e-05,-2.9999999999999997e-05,-2e-05,-2e-05,-4e-05,-1e-05,1
2206,2323,0.0,-2e-05,-2.9999999999999997e-05,-2.9999999999999997e-05,-2e-05,-2e-05,-4e-05,-1e-05,1
2207,2324,0.0,-2e-05,-2.9999999999999997e-05,-2.9999999999999997e-05,-2e-05,-2e-05,-4e-05,-1e-05,1
2208,2325,0.0,-2e-05,-2.9999999999999997e-05,-2.9999999999999997e-05,-2e-05,-2e-05,-4e-05,-1e-05,1
2209,2326,0.0,-2e-05,-2.9999999999999997e-05,-2.9999999999999997e-05,-2e-05,-2e-05,-4e-05,-1e-05,1
2210,2327,-2e-05,-1e-05,0.0,1e-05,0.0,0.0,-2.9999999999999997e-05,0.0,1
2211,2328,0.0,-1e-05,2e-05,1e-05,0.0,-1e-05,-1e-05,-1e-05,1
2212,2329,0.0,-1e-05,2e-05,1e-05,0.0,-1e-05,-1e-05,-1e-05,1
2213,2330,0.0,-1e-05,2e-05,1e-05,0.0,-1e-05,-1e-05,-1e-05,1
2214,2331,0.0,-1e-05,2e-05,1e-05,0.0,-1e-05,-1e-05,-1e-05,1
2215,2332,0.0,-1e-05,2e-05,1e-05,0.0,-1e-05,-1e-05,-1e-05,1
2216,2333,0.0,-1e-05,2e-05,1e-05,0.0,-1e-05,-1e-05,-1e-05,1
2217,2334,0.0,-1e-05,2e-05,1e-05,0.0,-1e-05,-1e-05,-1e-05,1
2218,2335,0.0,-1e-05,2e-05,1e-05,0.0,-1e-05,-1e-05,-1e-05,1
2219,2336,0.0,-1e-05,2e-05,1e-05,0.0,-1e-05,-1e-05,-1e-05,1
2220,2338,0.0,-1e-05,2e-05,1e-05,0.0,-1e-05,-1e-05,-1e-05,1
2221,2339,0.0,-1e-05,2e-05,1e-05,0.0,-1e-05,-1e-05,-1e-05,1
2222,2340,0.0,-1e-05,2e-05,1e-05,0.0,-1e-05,-1e-05,-1e-05,1
2223,2341,0.0,-1e-05,2e-05,1e-05,0.0,-1e-05,-1e-05,-1e-05,1
2224,2342,0.0,-1e-05,2e-05,1e-05,0.0,-1e-05,-1e-05,-1e-05,1
2225,2343,0.0,-1e-05,2e-05,1e-05,0.0,-1e-05,-1e-05,-1e-05,1
2226,2344,0.0,-1e-05,2e-05,1e-05,0.0,-1e-05,-1e-05,-1e-05,1
2227,2345,0.0,-1e-05,2e-05,1e-05,0.0,-1e-05,-1e-05,-1e-05,1
2228,2346,0.0,-1e-05,2e-05,1e-05,0.0,-1e-05,-1e-05,-1e-05,1
2229,2347,0.0,-1e-05,2e-05,1e-05,0.0,-1e-05,-1e-05,-1e-05,1
2230,2348,0.0,-1e-05,2e-05,1e-05,0.0,-1e-05,-1e-05,-1e-05,1
2231,2349,0.0,-4e-05,-7e-05,-5.9999999999999995e-05,-2e-05,-1e-05,0.0,-4e-05,1
2232,2350,0.0,-4e-05,-7e-05,-5.9999999999999995e-05,-2e-05,-1e-05,0.0,-4e-05,1
2233,2351,-1e-05,1e-05,1e-05,2e-05,1e-05,0.0,-1e-05,-1e-05,1
2234,2352,-1e-05,1e-05,1e-05,2e-05,1e-05,0.0,-1e-05,-1e-05,1
2235,2353,-1e-05,1e-05,1e-05,2e-05,1e-05,0.0,-1e-05,-1e-05,1
2236,2354,-1e-05,1e-05,1e-05,2e-05,1e-05,0.0,-1e-05,-1e-05,1
2237,2355,-1e-05,1e-05,1e-05,2e-05,1e-05,0.0,-1e-05,-1e-05,1
2238,2356,-1e-05,1e-05,1e-05,2e-05,1e-05,0.0,-1e-05,-1e-05,1
2239,2357,-1e-05,1e-05,1e-05,2e-05,1e-05,0.0,-1e-05,-1e-05,1
2240,2358,-1e-05,1e-05,1e-05,2e-05,1e-05,0.0,-1e-05,-1e-05,1
2241,2359,-1e-05,1e-05,1e-05,2e-05,1e-05,0.0,-1e-05,-1e-05,1
2242,2360,-1e-05,1e-05,1e-05,2e-05,1e-05,0.0,-1e-05,-1e-05,1
2243,2361,-1e-05,1e-05,1e-05,2e-05,1e-05,0.0,-1e-05,-1e-05,1
2244,2362,-1e-05,1e-05,1e-05,2e-05,1e-05,0.0,-1e-05,-1e-05,1
2245,2363,-1e-05,1e-05,1e-05,2e-05,1e-05,0.0,-1e-05,-1e-05,1
2246,2364,1e-05,-4e-05,-5e-05,-4e-05,0.0,-1e-05,0.0,-1e-05,1
2247,2365,1e-05,-4e-05,-5e-05,-4e-05,0.0,-1e-05,0.0,-1e-05,1
2248,2366,1e-05,-4e-05,-5e-05,-4e-05,0.0,-1e-05,0.0,-1e-05,1
2249,2367,1e-05,-4e-05,-5e-05,-4e-05,0.0,-1e-05,0.0,-1e-05,1
2250,2368,1e-05,-4e-05,-5e-05,-4e-05,0.0,-1e-05,0.0,-1e-05,1
2251,2369,1e-05,-4e-05,-5e-05,-4e-05,0.0,-1e-05,0.0,-1e-05,1
2252,2370,0.0,1e-05,1e-05,0.0,-1e-05,-2e-05,0.0,0.0,1
2253,2371,0.0,1e-05,1e-05,0.0,-1e-05,-2e-05,0.0,0.0,1
2254,2372,0.0,1e-05,1e-05,0.0,-1e-05,-2e-05,0.0,0.0,1
2255,2373,0.0,1e-05,1e-05,0.0,-1e-05,-2e-05,0.0,0.0,1
2256,2374,0.0,1e-05,1e-05,0.0,-1e-05,-2e-05,0.0,0.0,1
2257,2375,0.0,1e-05,1e-05,0.0,-1e-05,-2e-05,0.0,0.0,1
2258,2376,0.0,1e-05,1e-05,0.0,-1e-05,-2e-05,0.0,0.0,1
2259,2377,0.0,1e-05,1e-05,0.0,-1e-05,-2e-05,0.0,0.0,1
2260,2378,0.0,1e-05,1e-05,0.0,-1e-05,-2e-05,0.0,0.0,1
2261,2379,0.0,1e-05,1e-05,0.0,-1e-05,-2e-05,0.0,0.0,1
2262,2380,0.0,1e-05,1e-05,0.0,-1e-05,-2e-05,0.0,0.0,1
2263,2381,0.0,1e-05,1e-05,0.0,-1e-05,-2e-05,0.0,0.0,1
2264,2382,0.0,1e-05,1e-05,0.0,-1e-05,-2e-05,0.0,0.0,1
2265,2383,0.0,1e-05,1e-05,0.0,-1e-05,-2e-05,0.0,0.0,1
2266,2384,0.0,1e-05,1e-05,0.0,-1e-05,-2e-05,0.0,0.0,1
2267,2385,0.0,1e-05,1e-05,0.0,-1e-05,-2e-05,0.0,0.0,1
2268,2386,0.0,1e-05,1e-05,0.0,-1e-05,-2e-05,0.0,0.0,1
2269,2388,-1e-05,-1e-05,-2e-05,-2e-05,-2e-05,0.0,0.0,-2e-05,1
2270,2389,-1e-05,-1e-05,-2e-05,-2e-05,-2e-05,0.0,0.0,-2e-05,1
2271,2390,-1e-05,-1e-05,-2e-05,-2e-05,-2e-05,0.0,0.0,-2e-05,1
2272,2391,-1e-05,-1e-05,-2e-05,-2e-05,-2e-05,0.0,0.0,-2e-05,1
2273,2392,-1e-05,-1e-05,-2e-05,-2e-05,-2e-05,0.0,0.0,-2e-05,1
2274,2393,-1e-05,-1e-05,-2e-05,-2e-05,-2e-05,0.0,0.0,-2e-05,1
2275,2394,-1e-05,-1e-05,-2e-05,-2e-05,-2e-05,0.0,0.0,-2e-05,1
2276,2395,-1e-05,-1e-05,-2e-05,-2e-05,-2e-05,0.0,0.0,-2e-05,1
2277,2396,-1e-05,-1e-05,-2e-05,-2e-05,-2e-05,0.0,0.0,-2e-05,1
2278,2397,-1e-05,-1e-05,-2e-05,-2e-05,-2e-05,0.0,0.0,-2e-05,1
2279,2398,-1e-05,-1e-05,-2e-05,-2e-05,-2e-05,0.0,0.0,-2e-05,1
2280,2399,-1e-05,-1e-05,-2e-05,-2e-05,-2e-05,0.0,0.0,-2e-05,1
2281,2400,-1e-05,-1e-05,-2e-05,-2e-05,-2e-05,0.0,0.0,-2e-05,1
2282,2401,-1e-05,-1e-05,-2e-05,-2e-05,-2e-05,0.0,0.0,-2e-05,1
2283,2402,-1e-05,-1e-05,-2e-05,-2e-05,-2e-05,0.0,0.0,-2e-05,1
2284,2403,-1e-05,-1e-05,-2e-05,-2e-05,-2e-05,0.0,0.0,-2e-05,1
2285,2404,-1e-05,-1e-05,-2e-05,-2e-05,-2e-05,0.0,0.0,-2e-05,1
2286,2405,-1e-05,-1e-05,-2e-05,-2e-05,-2e-05,0.0,0.0,-2e-05,1
2287,2406,-1e-05,-1e-05,-2e-05,-2e-05,-2e-05,0.0,0.0,-2e-05,1
2288,2407,-1e-05,-1e-05,-2e-05,-2e-05,-2e-05,0.0,0.0,-2e-05,1
2289,2408,-1e-05,-1e-05,-2e-05,-2e-05,-2e-05,0.0,0.0,-2e-05,1
2290,2409,-1e-05,-2e-05,2e-05,0.0,0.0,-1e-05,0.0,2e-05,1
2291,2410,-1e-05,-2e-05,2e-05,0.0,0.0,-1e-05,0.0,2e-05,1
2292,2411,-2e-05,-2.9999999999999997e-05,-4e-05,-2.9999999999999997e-05,-2.9999999999999997e-05,-2e-05,-1e-05,-2e-05,1
2293,2412,-2e-05,-2.9999999999999997e-05,-4e-05,-2.9999999999999997e-05,-2.9999999999999997e-05,-2e-05,-1e-05,-2e-05,1
2294,2413,-2e-05,-2.9999999999999997e-05,-4e-05,-2.9999999999999997e-05,-2.9999999999999997e-05,-2e-05,-1e-05,-2e-05,1
2295,2414,-2e-05,-2.9999999999999997e-05,-4e-05,-2.9999999999999997e-05,-2.9999999999999997e-05,-2e-05,-1e-05,-2e-05,1
2296,2415,-2e-05,-2.9999999999999997e-05,-4e-05,-2.9999999999999997e-05,-2.9999999999999997e-05,-2e-05,-1e-05,-2e-05,1
2297,2416,-2e-05,-2.9999999999999997e-05,-4e-05,-2.9999999999999997e-05,-2.9999999999999997e-05,-2e-05,-1e-05,-2e-05,1
2298,2418,-2e-05,-2.9999999999999997e-05,-4e-05,-2.9999999999999997e-05,-2.9999999999999997e-05,-2e-05,-1e-05,-2e-05,1
2299,2419,-2e-05,-2.9999999999999997e-05,-4e-05,-2.9999999999999997e-05,-2.9999999999999997e-05,-2e-05,-1e-05,-2e-05,1
2300,2420,-2e-05,-2.9999999999999997e-05,-4e-05,-2.9999999999999997e-05,-2.9999999999999997e-05,-2e-05,-1e-05,-2e-05,1
2301,2421,-2e-05,-2.9999999999999997e-05,-4e-05,-2.9999999999999997e-05,-2.9999999999999997e-05,-2e-05,-1e-05,-2e-05,1
2302,2422,-2e-05,-2.9999999999999997e-05,-4e-05,-2.9999999999999997e-05,-2.9999999999999997e-05,-2e-05,-1e-05,-2e-05,1
2303,2423,-1e-05,-2e-05,-1e-05,-2e-05,-2.9999999999999997e-05,-2e-05,-2e-05,0.0,1
2304,2424,2e-05,0.0,2e-05,2e-05,-1e-05,-1e-05,0.0,-2e-05,1
2305,2425,2e-05,0.0,2e-05,2e-05,-1e-05,-1e-05,0.0,-2e-05,1
2306,2426,2e-05,0.0,2e-05,2e-05,-1e-05,-1e-05,0.0,-2e-05,1
2307,2427,2e-05,0.0,2e-05,2e-05,-1e-05,-1e-05,0.0,-2e-05,1
2308,2428,2e-05,0.0,2e-05,2e-05,-1e-05,-1e-05,0.0,-2e-05,1
2309,2429,2e-05,0.0,2e-05,2e-05,-1e-05,-1e-05,0.0,-2e-05,1
2310,2430,-2.9999999999999997e-05,-2e-05,-2.9999999999999997e-05,-2.9999999999999997e-05,0.0,1e-05,-1e-05,-1e-05,1
2311,2431,-2.9999999999999997e-05,-2e-05,-2.9999999999999997e-05,-2.9999999999999997e-05,0.0,1e-05,-1e-05,-1e-05,1
2312,2432,-2.9999999999999997e-05,-2e-05,-2.9999999999999997e-05,-2.9999999999999997e-05,0.0,1e-05,-1e-05,-1e-05,1
2313,2433,-2.9999999999999997e-05,-2e-05,-2.9999999999999997e-05,-2.9999999999999997e-05,0.0,1e-05,-1e-05,-1e-05,1
2314,2434,-2.9999999999999997e-05,-2e-05,-2.9999999999999997e-05,-2.9999999999999997e-05,0.0,1e-05,-1e-05,-1e-05,1
2315,2435,-2.9999999999999997e-05,-2e-05,-2.9999999999999997e-05,-2.9999999999999997e-05,0.0,1e-05,-1e-05,-1e-05,1
2316,2436,-2.9999999999999997e-05,-2e-05,-2.9999999999999997e-05,-2.9999999999999997e-05,0.0,1e-05,-1e-05,-1e-05,1
2317,2438,-2.9999999999999997e-05,-2e-05,-2.9999999999999997e-05,-2.9999999999999997e-05,0.0,1e-05,-1e-05,-1e-05,1
2318,2439,-2.9999999999999997e-05,-2e-05,-2.9999999999999997e-05,-2.9999999999999997e-05,0.0,1e-05,-1e-05,-1e-05,1
2319,2440,-2.9999999999999997e-05,-2e-05,-2.9999999999999997e-05,-2.9999999999999997e-05,0.0,1e-05,-1e-05,-1e-05,1
2320,2441,-2.9999999999999997e-05,-2e-05,-2.9999999999999997e-05,-2.9999999999999997e-05,0.0,1e-05,-1e-05,-1e-05,1
2321,2442,-2.9999999999999997e-05,-2e-05,-2.9999999999999997e-05,-2.9999999999999997e-05,0.0,1e-05,-1e-05,-1e-05,1
2322,2443,-2.9999999999999997e-05,-2e-05,-2.9999999999999997e-05,-2.9999999999999997e-05,0.0,1e-05,-1e-05,-1e-05,1
2323,2444,-2.9999999999999997e-05,-2e-05,-2.9999999999999997e-05,-2.9999999999999997e-05,0.0,1e-05,-1e-05,-1e-05,1
2324,2445,-2.9999999999999997e-05,-2e-05,-2.9999999999999997e-05,-2.9999999999999997e-05,0.0,1e-05,-1e-05,-1e-05,1
2325,2446,-2.9999999999999997e-05,-2e-05,-2.9999999999999997e-05,-2.9999999999999997e-05,0.0,1e-05,-1e-05,-1e-05,1
2326,2447,-2e-05,0.0,1e-05,2e-05,-1e-05,-2e-05,0.0,-1e-05,1
2327,2448,-1e-05,-1e-05,-1e-05,-2e-05,-1e-05,0.0,-2e-05,0.0,1
2328,2449,-1e-05,-1e-05,-1e-05,-2e-05,-1e-05,0.0,-2e-05,0.0,1
2329,2450,-1e-05,-1e-05,-1e-05,-2e-05,-1e-05,0.0,-2e-05,0.0,1
2330,2451,-1e-05,-1e-05,-1e-05,-2e-05,-1e-05,0.0,-2e-05,0.0,1
2331,2452,-1e-05,-1e-05,-1e-05,-2e-05,-1e-05,0.0,-2e-05,0.0,1
2332,2453,-1e-05,-1e-05,-1e-05,-2e-05,-1e-05,0.0,-2e-05,0.0,1
2333,2454,-1e-05,-1e-05,-1e-05,-2e-05,-1e-05,0.0,-2e-05,0.0,1
2334,2455,-1e-05,-1e-05,-1e-05,-2e-05,-1e-05,0.0,-2e-05,0.0,1
2335,2456,-1e-05,-1e-05,-1e-05,-2e-05,-1e-05,0.0,-2e-05,0.0,1
2336,2457,-1e-05,-1e-05,-1e-05,-2e-05,-1e-05,0.0,-2e-05,0.0,1
2337,2458,-1e-05,-1e-05,-1e-05,-2e-05,-1e-05,0.0,-2e-05,0.0,1
2338,2459,-1e-05,-1e-05,-1e-05,-2e-05,-1e-05,0.0,-2e-05,0.0,1
2339,2460,-1e-05,-1e-05,-1e-05,-2e-05,-1e-05,0.0,-2e-05,0.0,1
2340,2461,-1e-05,-1e-05,-1e-05,-2e-05,-1e-05,0.0,-2e-05,0.0,1
2341,2462,-1e-05,-1e-05,-1e-05,-2e-05,-1e-05,0.0,-2e-05,0.0,1
2342,2463,-1e-05,-1e-05,-1e-05,-2e-05,-1e-05,0.0,-2e-05,0.0,1
2343,2464,-1e-05,-1e-05,-1e-05,-2e-05,-1e-05,0.0,-2e-05,0.0,1
2344,2465,-1e-05,-1e-05,-1e-05,-2e-05,-1e-05,0.0,-2e-05,0.0,1
2345,2466,-1e-05,-1e-05,-1e-05,-2e-05,-1e-05,0.0,-2e-05,0.0,1
2346,2467,-1e-05,-1e-05,-1e-05,-2e-05,-1e-05,0.0,-2e-05,0.0,1
2347,2468,-1e-05,-1e-05,-1e-05,-2e-05,-1e-05,0.0,-2e-05,0.0,1
2348,2469,-1e-05,0.0,-2e-05,-1e-05,-1e-05,-2e-05,-2e-05,-1e-05,1
2349,2470,-1e-05,0.0,-2e-05,-1e-05,-1e-05,-2e-05,-2e-05,-1e-05,1
2350,2471,1e-05,0.0,1e-05,1e-05,0.0,-1e-05,-2e-05,-1e-05,1
2351,2472,1e-05,0.0,1e-05,1e-05,0.0,-1e-05,-2e-05,-1e-05,1
2352,2473,1e-05,0.0,1e-05,1e-05,0.0,-1e-05,-2e-05,-1e-05,1
2353,2474,1e-05,0.0,1e-05,1e-05,0.0,-1e-05,-2e-05,-1e-05,1
2354,2475,1e-05,0.0,1e-05,1e-05,0.0,-1e-05,-2e-05,-1e-05,1
2355,2476,1e-05,0.0,1e-05,1e-05,0.0,-1e-05,-2e-05,-1e-05,1
2356,2477,1e-05,0.0,1e-05,1e-05,0.0,-1e-05,-2e-05,-1e-05,1
2357,2478,1e-05,0.0,1e-05,1e-05,0.0,-1e-05,-2e-05,-1e-05,1
2358,2479,1e-05,0.0,1e-05,1e-05,0.0,-1e-05,-2e-05,-1e-05,1
2359,2480,1e-05,0.0,1e-05,1e-05,0.0,-1e-05,-2e-05,-1e-05,1
2360,2481,1e-05,0.0,1e-05,1e-05,0.0,-1e-05,-2e-05,-1e-05,1
2361,2482,1e-05,0.0,1e-05,1e-05,0.0,-1e-05,-2e-05,-1e-05,1
2362,2483,0.0,-2e-05,1e-05,2e-05,0.0,-2e-05,-1e-05,0.0,1
2363,2484,-1e-05,-1e-05,-1e-05,-1e-05,-2e-05,0.0,0.0,1e-05,1
2364,2485,-1e-05,-1e-05,-1e-05,-1e-05,-2e-05,0.0,0.0,1e-05,1
2365,2486,-1e-05,-1e-05,-1e-05,-1e-05,-2e-05,0.0,0.0,1e-05,1
2366,2488,-1e-05,-1e-05,-1e-05,-1e-05,-2e-05,0.0,0.0,1e-05,1
2367,2489,-1e-05,-1e-05,-1e-05,-1e-05,-2e-05,0.0,0.0,1e-05,1
2368,2490,-1e-05,1e-05,-1e-05,-2e-05,-2e-05,-2e-05,0.0,-1e-05,1
2369,2491,-1e-05,1e-05,-1e-05,-2e-05,-2e-05,-2e-05,0.0,-1e-05,1
2370,2492,-1e-05,1e-05,-1e-05,-2e-05,-2e-05,-2e-05,0.0,-1e-05,1
2371,2493,-1e-05,1e-05,-1e-05,-2e-05,-2e-05,-2e-05,0.0,-1e-05,1
2372,2494,-1e-05,1e-05,-1e-05,-2e-05,-2e-05,-2e-05,0.0,-1e-05,1
2373,2495,-1e-05,1e-05,-1e-05,-2e-05,-2e-05,-2e-05,0.0,-1e-05,1
2374,2496,-1e-05,1e-05,-1e-05,-2e-05,-2e-05,-2e-05,0.0,-1e-05,1
2375,2497,-1e-05,1e-05,-1e-05,-2e-05,-2e-05,-2e-05,0.0,-1e-05,1
2376,2498,-1e-05,1e-05,-1e-05,-2e-05,-2e-05,-2e-05,0.0,-1e-05,1
2377,2499,-1e-05,1e-05,-1e-05,-2e-05,-2e-05,-2e-05,0.0,-1e-05,1
2378,2500,-1e-05,1e-05,-1e-05,-2e-05,-2e-05,-2e-05,0.0,-1e-05,1
2379,2501,-1e-05,1e-05,-1e-05,-2e-05,-2e-05,-2e-05,0.0,-1e-05,1
2380,2502,-1e-05,1e-05,-1e-05,-2e-05,-2e-05,-2e-05,0.0,-1e-05,1
2381,2503,-1e-05,1e-05,-1e-05,-2e-05,-2e-05,-2e-05,0.0,-1e-05,1
2382,2504,-1e-05,1e-05,-1e-05,-2e-05,-2e-05,-2e-05,0.0,-1e-05,1
2383,2505,-1e-05,1e-05,-1e-05,-2e-05,-2e-05,-2e-05,0.0,-1e-05,1
2384,2506,-1e-05,1e-05,-1e-05,-2e-05,-2e-05,-2e-05,0.0,-1e-05,1
2385,2507,-1e-05,1e-05,1e-05,1e-05,-2e-05,0.0,0.0,-1e-05,1
2386,2508,-2e-05,-1e-05,-2.9999999999999997e-05,-2e-05,1e-05,0.0,0.0,-1e-05,1
2387,2509,-2e-05,-1e-05,-2.9999999999999997e-05,-2e-05,1e-05,0.0,0.0,-1e-05,1
2388,2510,-2e-05,-1e-05,-2.9999999999999997e-05,-2e-05,1e-05,0.0,0.0,-1e-05,1
2389,2511,-2e-05,-1e-05,-2.9999999999999997e-05,-2e-05,1e-05,0.0,0.0,-1e-05,1
2390,2512,-2e-05,-1e-05,-2.9999999999999997e-05,-2e-05,1e-05,0.0,0.0,-1e-05,1
2391,2513,-2e-05,-1e-05,-2.9999999999999997e-05,-2e-05,1e-05,0.0,0.0,-1e-05,1
2392,2514,-2e-05,-1e-05,-2.9999999999999997e-05,-2e-05,1e-05,0.0,0.0,-1e-05,1
2393,2515,-2e-05,-1e-05,-2.9999999999999997e-05,-2e-05,1e-05,0.0,0.0,-1e-05,1
2394,2516,-2e-05,-1e-05,-2.9999999999999997e-05,-2e-05,1e-05,0.0,0.0,-1e-05,1
2395,2517,-2e-05,-1e-05,-2.9999999999999997e-05,-2e-05,1e-05,0.0,0.0,-1e-05,1
2396,2518,-2e-05,-1e-05,-2.9999999999999997e-05,-2e-05,1e-05,0.0,0.0,-1e-05,1
2397,2519,-2e-05,-1e-05,-2.9999999999999997e-05,-2e-05,1e-05,0.0,0.0,-1e-05,1
2398,2520,-2e-05,-1e-05,-2.9999999999999997e-05,-2e-05,1e-05,0.0,0.0,-1e-05,1
2399,2521,-2e-05,-1e-05,-2.9999999999999997e-05,-2e-05,1e-05,0.0,0.0,-1e-05,1
2400,2522,-2e-05,-1e-05,-2.9999999999999997e-05,-2e-05,1e-05,0.0,0.0,-1e-05,1
2401,2523,-2e-05,-1e-05,-2.9999999999999997e-05,-2e-05,1e-05,0.0,0.0,-1e-05,1
2402,2524,-2e-05,-1e-05,-2.9999999999999997e-05,-2e-05,1e-05,0.0,0.0,-1e-05,1
2403,2525,-2e-05,-1e-05,-2.9999999999999997e-05,-2e-05,1e-05,0.0,0.0,-1e-05,1
2404,2526,-2e-05,-1e-05,-2.9999999999999997e-05,-2e-05,1e-05,0.0,0.0,-1e-05,1
2405,2527,-2e-05,-1e-05,-2.9999999999999997e-05,-2e-05,1e-05,0.0,0.0,-1e-05,1
2406,2528,-2e-05,-1e-05,-2.9999999999999997e-05,-2e-05,1e-05,0.0,0.0,-1e-05,1
2407,2529,-2e-05,0.0,-1e-05,-2e-05,-1e-05,0.0,-1e-05,-2e-05,1
2408,2530,-2e-05,0.0,-1e-05,-2e-05,-1e-05,0.0,-1e-05,-2e-05,1
2409,2531,1e-05,-2e-05,0.0,-1e-05,-1e-05,0.0,-1e-05,1e-05,1
2410,2532,1e-05,-2e-05,0.0,-1e-05,-1e-05,0.0,-1e-05,1e-05,1
2411,2533,1e-05,-2e-05,0.0,-1e-05,-1e-05,0.0,-1e-05,1e-05,1
2412,2534,1e-05,-2e-05,0.0,-1e-05,-1e-05,0.0,-1e-05,1e-05,1
2413,2535,1e-05,-2e-05,0.0,-1e-05,-1e-05,0.0,-1e-05,1e-05,1
2414,2536,1e-05,-2e-05,0.0,-1e-05,-1e-05,0.0,-1e-05,1e-05,1
2415,2538,1e-05,-2e-05,0.0,-1e-05,-1e-05,0.0,-1e-05,1e-05,1
2416,2539,1e-05,-2e-05,0.0,-1e-05,-1e-05,0.0,-1e-05,1e-05,1
2417,2540,1e-05,-2e-05,0.0,-1e-05,-1e-05,0.0,-1e-05,1e-05,1
2418,2541,1e-05,-2e-05,0.0,-1e-05,-1e-05,0.0,-1e-05,1e-05,1
2419,2542,1e-05,-2e-05,0.0,-1e-05,-1e-05,0.0,-1e-05,1e-05,1
2420,2543,-2e-05,-2.9999999999999997e-05,-5e-05,-2e-05,-2.9999999999999997e-05,-1e-05,0.0,-2.9999999999999997e-05,1
2421,2544,-2e-05,-2.9999999999999997e-05,-5e-05,-2e-05,-2.9999999999999997e-05,-1e-05,0.0,-2.9999999999999997e-05,1
2422,2545,-2e-05,-2.9999999999999997e-05,-5e-05,-2e-05,-2.9999999999999997e-05,-1e-05,0.0,-2.9999999999999997e-05,1
2423,2546,-2e-05,-2.9999999999999997e-05,-5e-05,-2e-05,-2.9999999999999997e-05,-1e-05,0.0,-2.9999999999999997e-05,1
2424,2547,-2e-05,-2.9999999999999997e-05,-5e-05,-2e-05,-2.9999999999999997e-05,-1e-05,0.0,-2.9999999999999997e-05,1
2425,2548,-2e-05,-2.9999999999999997e-05,-5e-05,-2e-05,-2.9999999999999997e-05,-1e-05,0.0,-2.9999999999999997e-05,1
2426,2549,-2e-05,-2.9999999999999997e-05,-5e-05,-2e-05,-2.9999999999999997e-05,-1e-05,0.0,-2.9999999999999997e-05,1
2427,2550,-2e-05,-1e-05,1e-05,2e-05,0.0,0.0,-2e-05,-1e-05,1
2428,2551,-2e-05,-1e-05,1e-05,2e-05,0.0,0.0,-2e-05,-1e-05,1
2429,2552,-2e-05,-1e-05,1e-05,2e-05,0.0,0.0,-2e-05,-1e-05,1
2430,2553,-2e-05,-1e-05,1e-05,2e-05,0.0,0.0,-2e-05,-1e-05,1
2431,2554,-2e-05,-1e-05,1e-05,2e-05,0.0,0.0,-2e-05,-1e-05,1
2432,2555,-2e-05,-1e-05,1e-05,2e-05,0.0,0.0,-2e-05,-1e-05,1
2433,2556,-2e-05,-1e-05,1e-05,2e-05,0.0,0.0,-2e-05,-1e-05,1
2434,2557,-2e-05,-1e-05,1e-05,2e-05,0.0,0.0,-2e-05,-1e-05,1
2435,2558,-2e-05,-1e-05,1e-05,2e-05,0.0,0.0,-2e-05,-1e-05,1
2436,2559,-2e-05,-1e-05,1e-05,2e-05,0.0,0.0,-2e-05,-1e-05,1
2437,2560,-2e-05,-1e-05,1e-05,2e-05,0.0,0.0,-2e-05,-1e-05,1
2438,2561,-2e-05,-1e-05,1e-05,2e-05,0.0,0.0,-2e-05,-1e-05,1
2439,2562,-2e-05,-1e-05,1e-05,2e-05,0.0,0.0,-2e-05,-1e-05,1
2440,2563,-2e-05,-1e-05,1e-05,2e-05,0.0,0.0,-2e-05,-1e-05,1
2441,2564,-2e-05,-1e-05,1e-05,2e-05,0.0,0.0,-2e-05,-1e-05,1
2442,2565,-2e-05,-1e-05,1e-05,2e-05,0.0,0.0,-2e-05,-1e-05,1
2443,2566,-2e-05,-1e-05,1e-05,2e-05,0.0,0.0,-2e-05,-1e-05,1
2444,2567,-1e-05,-1e-05,0.0,-2e-05,0.0,-2.9999999999999997e-05,-1e-05,0.0,1
2445,2568,0.0,-1e-05,0.0,-1e-05,-1e-05,-2.9999999999999997e-05,0.0,0.0,1
2446,2569,0.0,-1e-05,0.0,-1e-05,-1e-05,-2.9999999999999997e-05,0.0,0.0,1
2447,2570,0.0,-1e-05,0.0,-1e-05,-1e-05,-2.9999999999999997e-05,0.0,0.0,1
2448,2571,0.0,-1e-05,0.0,-1e-05,-1e-05,-2.9999999999999997e-05,0.0,0.0,1
2449,2572,0.0,-1e-05,0.0,-1e-05,-1e-05,-2.9999999999999997e-05,0.0,0.0,1
2450,2573,0.0,-1e-05,0.0,-1e-05,-1e-05,-2.9999999999999997e-05,0.0,0.0,1
2451,2574,0.0,-1e-05,0.0,-1e-05,-1e-05,-2.9999999999999997e-05,0.0,0.0,1
2452,2575,0.0,-1e-05,0.0,-1e-05,-1e-05,-2.9999999999999997e-05,0.0,0.0,1
2453,2576,0.0,-1e-05,0.0,-1e-05,-1e-05,-2.9999999999999997e-05,0.0,0.0,1
2454,2577,0.0,-1e-05,0.0,-1e-05,-1e-05,-2.9999999999999997e-05,0.0,0.0,1
2455,2578,0.0,-1e-05,0.0,-1e-05,-1e-05,-2.9999999999999997e-05,0.0,0.0,1
2456,2579,0.0,-1e-05,0.0,-1e-05,-1e-05,-2.9999999999999997e-05,0.0,0.0,1
2457,2580,0.0,-1e-05,0.0,-1e-05,-1e-05,-2.9999999999999997e-05,0.0,0.0,1
2458,2581,0.0,-1e-05,0.0,-1e-05,-1e-05,-2.9999999999999997e-05,0.0,0.0,1
2459,2582,0.0,-1e-05,0.0,-1e-05,-1e-05,-2.9999999999999997e-05,0.0,0.0,1
2460,2583,0.0,-1e-05,0.0,-1e-05,-1e-05,-2.9999999999999997e-05,0.0,0.0,1
2461,2584,0.0,-1e-05,0.0,-1e-05,-1e-05,-2.9999999999999997e-05,0.0,0.0,1
2462,2585,0.0,-1e-05,0.0,-1e-05,-1e-05,-2.9999999999999997e-05,0.0,0.0,1
2463,2586,0.0,-1e-05,0.0,-1e-05,-1e-05,-2.9999999999999997e-05,0.0,0.0,1
2464,2588,0.0,-1e-05,0.0,-1e-05,-1e-05,-2.9999999999999997e-05,0.0,0.0,1
2465,2589,-2e-05,-2.9999999999999997e-05,-2.9999999999999997e-05,-2e-05,-1e-05,-1e-05,-1e-05,0.0,1
2466,2590,-2e-05,-2.9999999999999997e-05,-2.9999999999999997e-05,-2e-05,-1e-05,-1e-05,-1e-05,0.0,1
2467,2591,-1e-05,0.0,-1e-05,0.0,0.0,0.0,-1e-05,-1e-05,1
2468,2592,-1e-05,0.0,-1e-05,0.0,0.0,0.0,-1e-05,-1e-05,1
2469,2593,-1e-05,0.0,-1e-05,0.0,0.0,0.0,-1e-05,-1e-05,1
2470,2594,-1e-05,0.0,-1e-05,0.0,0.0,0.0,-1e-05,-1e-05,1
2471,2595,-1e-05,0.0,-1e-05,0.0,0.0,0.0,-1e-05,-1e-05,1
2472,2596,-1e-05,0.0,-1e-05,0.0,0.0,0.0,-1e-05,-1e-05,1
2473,2597,-1e-05,0.0,-1e-05,0.0,0.0,0.0,-1e-05,-1e-05,1
2474,2598,-1e-05,0.0,-1e-05,0.0,0.0,0.0,-1e-05,-1e-05,1
2475,2599,-1e-05,0.0,-1e-05,0.0,0.0,0.0,-1e-05,-1e-05,1
2476,2600,-1e-05,0.0,-1e-05,0.0,0.0,0.0,-1e-05,-1e-05,1
2477,2601,-1e-05,0.0,-1e-05,0.0,0.0,0.0,-1e-05,-1e-05,1
2478,2602,-1e-05,0.0,-1e-05,0.0,0.0,0.0,-1e-05,-1e-05,1
2479,2603,0.0,-1e-05,-1e-05,-1e-05,-1e-05,-2e-05,-1e-05,0.0,1
2480,2605,0.0,-1e-05,-1e-05,-1e-05,-1e-05,-2e-05,-1e-05,0.0,1
2481,2606,0.0,-1e-05,-1e-05,-1e-05,-1e-05,-2e-05,-1e-05,0.0,1
2482,2607,0.0,-1e-05,-1e-05,-1e-05,-1e-05,-2e-05,-1e-05,0.0,1
2483,2608,0.0,-1e-05,-1e-05,-1e-05,-1e-05,-2e-05,-1e-05,0.0,1
2484,2609,0.0,-1e-05,-1e-05,-1e-05,-1e-05,-2e-05,-1e-05,0.0,1
2485,2610,0.0,-1e-05,-1e-05,-1e-05,-1e-05,-2e-05,-1e-05,0.0,1
2486,2611,0.0,-1e-05,-1e-05,-1e-05,-1e-05,-2e-05,-1e-05,0.0,1
2487,2612,-2e-05,-2e-05,-4e-05,-2.9999999999999997e-05,-2e-05,-1e-05,0.0,-2e-05,1
2488,2613,-2e-05,-2e-05,-4e-05,-2.9999999999999997e-05,-2e-05,-1e-05,0.0,-2e-05,1
2489,2614,-2e-05,-2e-05,-4e-05,-2.9999999999999997e-05,-2e-05,-1e-05,0.0,-2e-05,1
2490,2615,-2e-05,-2e-05,-4e-05,-2.9999999999999997e-05,-2e-05,-1e-05,0.0,-2e-05,1
2491,2616,-2e-05,-2e-05,-4e-05,-2.9999999999999997e-05,-2e-05,-1e-05,0.0,-2e-05,1
2492,2617,-2e-05,-2e-05,-4e-05,-2.9999999999999997e-05,-2e-05,-1e-05,0.0,-2e-05,1
2493,2618,-2e-05,-2e-05,-4e-05,-2.9999999999999997e-05,-2e-05,-1e-05,0.0,-2e-05,1
2494,2619,-2e-05,-2e-05,-4e-05,-2.9999999999999997e-05,-2e-05,-1e-05,0.0,-2e-05,1
2495,2620,-2e-05,-2e-05,-4e-05,-2.9999999999999997e-05,-2e-05,-1e-05,0.0,-2e-05,1
2496,2621,-2e-05,-2e-05,-4e-05,-2.9999999999999997e-05,-2e-05,-1e-05,0.0,-2e-05,1
2497,2622,-2e-05,-2e-05,-4e-05,-2.9999999999999997e-05,-2e-05,-1e-05,0.0,-2e-05,1
2498,2623,-2e-05,-2e-05,-4e-05,-2.9999999999999997e-05,-2e-05,-1e-05,0.0,-2e-05,1
2499,2624,-2e-05,-2e-05,-4e-05,-2.9999999999999997e-05,-2e-05,-1e-05,0.0,-2e-05,1
2500,2625,-2e-05,-2e-05,-4e-05,-2.9999999999999997e-05,-2e-05,-1e-05,0.0,-2e-05,1
2501,2626,-2e-05,-2e-05,-4e-05,-2.9999999999999997e-05,-2e-05,-1e-05,0.0,-2e-05,1
2502,2627,-1e-05,-1e-05,-1e-05,-1e-05,0.0,0.0,-2.9999999999999997e-05,-2.9999999999999997e-05,1
2503,2628,-2e-05,-2e-05,-5e-05,-5e-05,-2e-05,-2e-05,-1e-05,-2e-05,1
2504,2629,-2e-05,-2e-05,-5e-05,-5e-05,-2e-05,-2e-05,-1e-05,-2e-05,1
2505,2630,-2e-05,-2e-05,-5e-05,-5e-05,-2e-05,-2e-05,-1e-05,-2e-05,1
2506,2631,-2e-05,-2e-05,-5e-05,-5e-05,-2e-05,-2e-05,-1e-05,-2e-05,1
2507,2632,-2e-05,-2e-05,-5e-05,-5e-05,-2e-05,-2e-05,-1e-05,-2e-05,1
2508,2633,-2e-05,-2e-05,-5e-05,-5e-05,-2e-05,-2e-05,-1e-05,-2e-05,1
2509,2634,-2e-05,-2e-05,-5e-05,-5e-05,-2e-05,-2e-05,-1e-05,-2e-05,1
2510,2635,-2e-05,-2e-05,-5e-05,-5e-05,-2e-05,-2e-05,-1e-05,-2e-05,1
2511,2636,-2e-05,-2e-05,-5e-05,-5e-05,-2e-05,-2e-05,-1e-05,-2e-05,1
2512,2638,-2e-05,-2e-05,-5e-05,-5e-05,-2e-05,-2e-05,-1e-05,-2e-05,1
2513,2639,-2e-05,-2e-05,-5e-05,-5e-05,-2e-05,-2e-05,-1e-05,-2e-05,1
2514,2640,-2e-05,-2e-05,-5e-05,-5e-05,-2e-05,-2e-05,-1e-05,-2e-05,1
2515,2641,-2e-05,-2e-05,-5e-05,-5e-05,-2e-05,-2e-05,-1e-05,-2e-05,1
2516,2642,-2e-05,-2e-05,-5e-05,-5e-05,-2e-05,-2e-05,-1e-05,-2e-05,1
2517,2643,-2e-05,-2e-05,-5e-05,-5e-05,-2e-05,-2e-05,-1e-05,-2e-05,1
2518,2644,-2e-05,-2e-05,-5e-05,-5e-05,-2e-05,-2e-05,-1e-05,-2e-05,1
2519,2645,-2e-05,-2e-05,-5e-05,-5e-05,-2e-05,-2e-05,-1e-05,-2e-05,1
2520,2646,-2e-05,-2e-05,-5e-05,-5e-05,-2e-05,-2e-05,-1e-05,-2e-05,1
2521,2647,-2e-05,-2e-05,-5e-05,-5e-05,-2e-05,-2e-05,-1e-05,-2e-05,1
2522,2648,-2e-05,-2e-05,-5e-05,-5e-05,-2e-05,-2e-05,-1e-05,-2e-05,1
2523,2649,0.0,-1e-05,0.0,-1e-05,0.0,-1e-05,0.0,0.0,1
2524,2650,0.0,-1e-05,0.0,-1e-05,0.0,-1e-05,0.0,0.0,1
2525,2651,0.0,2e-05,1e-05,1e-05,0.0,-2e-05,-1e-05,0.0,1
2526,2652,0.0,2e-05,1e-05,1e-05,0.0,-2e-05,-1e-05,0.0,1
2527,2653,0.0,2e-05,1e-05,1e-05,0.0,-2e-05,-1e-05,0.0,1
2528,2654,0.0,2e-05,1e-05,1e-05,0.0,-2e-05,-1e-05,0.0,1
