,time,channel1,channel2,channel3,channel4,channel5,channel6,channel7,channel8,class
788,825,1e-05,-1e-05,-0.00011,-0.00011999999999999999,1e-05,0.0,-2e-05,-1e-05,1
789,826,1e-05,-1e-05,-0.00011,-0.00011999999999999999,1e-05,0.0,-2e-05,-1e-05,1
790,827,1e-05,-1e-05,-0.00011,-0.00011999999999999999,1e-05,0.0,-2e-05,-1e-05,1
791,828,1e-05,-1e-05,-0.00011,-0.00011999999999999999,1e-05,0.0,-2e-05,-1e-05,1
792,829,1e-05,-1e-05,-0.00011,-0.00011999999999999999,1e-05,0.0,-2e-05,-1e-05,1
793,830,1e-05,-1e-05,-0.00011,-0.00011999999999999999,1e-05,0.0,-2e-05,-1e-05,1
794,831,1e-05,-1e-05,-0.00011,-0.00011999999999999999,1e-05,0.0,-2e-05,-1e-05,1
795,832,1e-05,-1e-05,-0.00011,-0.00011999999999999999,1e-05,0.0,-2e-05,-1e-05,1
796,833,1e-05,-1e-05,-0.00011,-0.00011999999999999999,1e-05,0.0,-2e-05,-1e-05,1
797,834,1e-05,-1e-05,-0.00011,-0.00011999999999999999,1e-05,0.0,-2e-05,-1e-05,1
798,835,-1e-05,2.9999999999999997e-05,5e-05,2.9999999999999997e-05,1e-05,-2e-05,-1e-05,-2e-05,1
799,836,-1e-05,2.9999999999999997e-05,5e-05,2.9999999999999997e-05,1e-05,-2e-05,-1e-05,-2e-05,1
800,838,-1e-05,2.9999999999999997e-05,5e-05,2.9999999999999997e-05,1e-05,-2e-05,-1e-05,-2e-05,1
801,839,-1e-05,2.9999999999999997e-05,5e-05,2.9999999999999997e-05,1e-05,-2e-05,-1e-05,-2e-05,1
802,840,-1e-05,2.9999999999999997e-05,5e-05,2.9999999999999997e-05,1e-05,-2e-05,-1e-05,-2e-05,1
803,841,-1e-05,2.9999999999999997e-05,5e-05,2.9999999999999997e-05,1e-05,-2e-05,-1e-05,-2e-05,1
804,842,-1e-05,2.9999999999999997e-05,5e-05,2.9999999999999997e-05,1e-05,-2e-05,-1e-05,-2e-05,1
805,843,-1e-05,2.9999999999999997e-05,5e-05,2.9999999999999997e-05,1e-05,-2e-05,-1e-05,-2e-05,1
806,844,-2e-05,-2e-05,-1e-05,-5.9999999999999995e-05,-2e-05,-2.9999999999999997e-05,-1e-05,0.0,1
807,845,-2e-05,-2e-05,-1e-05,-5.9999999999999995e-05,-2e-05,-2.9999999999999997e-05,-1e-05,0.0,1
808,846,-2e-05,-2e-05,-1e-05,-5.9999999999999995e-05,-2e-05,-2.9999999999999997e-05,-1e-05,0.0,1
809,847,-2e-05,-2e-05,-1e-05,-5.9999999999999995e-05,-2e-05,-2.9999999999999997e-05,-1e-05,0.0,1
810,848,-2e-05,-2e-05,-1e-05,-5.9999999999999995e-05,-2e-05,-2.9999999999999997e-05,-1e-05,0.0,1
811,849,-2e-05,-2e-05,-1e-05,-5.9999999999999995e-05,-2e-05,-2.9999999999999997e-05,-1e-05,0.0,1
812,850,-2e-05,-2e-05,-1e-05,-5.9999999999999995e-05,-2e-05,-2.9999999999999997e-05,-1e-05,0.0,1
813,851,-2e-05,-2e-05,-1e-05,-5.9999999999999995e-05,-2e-05,-2.9999999999999997e-05,-1e-05,0.0,1
814,852,-2e-05,-2e-05,-1e-05,-5.9999999999999995e-05,-2e-05,-2.9999999999999997e-05,-1e-05,0.0,1
815,853,-2e-05,-2e-05,-1e-05,-5.9999999999999995e-05,-2e-05,-2.9999999999999997e-05,-1e-05,0.0,1
816,854,-2e-05,-2e-05,-1e-05,-5.9999999999999995e-05,-2e-05,-2.9999999999999997e-05,-1e-05,0.0,1
817,855,-2e-05,-2e-05,-1e-05,-5.9999999999999995e-05,-2e-05,-2.9999999999999997e-05,-1e-05,0.0,1
818,856,-2e-05,-2e-05,-1e-05,-5.9999999999999995e-05,-2e-05,-2.9999999999999997e-05,-1e-05,0.0,1
819,857,-2e-05,-2e-05,-1e-05,-5.9999999999999995e-05,-2e-05,-2.9999999999999997e-05,-1e-05,0.0,1
820,858,-1e-05,0.0,2e-05,-2e-05,-2e-05,0.0,-1e-05,-1e-05,1
821,859,-1e-05,0.0,2e-05,-2e-05,-2e-05,0.0,-1e-05,-1e-05,1
822,860,-1e-05,0.0,0.0,-2e-05,-4e-05,0.0,0.0,-1e-05,1
823,861,-1e-05,0.0,0.0,-2e-05,-4e-05,0.0,0.0,-1e-05,1
824,862,-1e-05,0.0,0.0,-2e-05,-4e-05,0.0,0.0,-1e-05,1
825,863,-1e-05,0.0,0.0,-2e-05,-4e-05,0.0,0.0,-1e-05,1
826,864,-1e-05,0.0,0.0,-2e-05,-4e-05,0.0,0.0,-1e-05,1
827,865,-1e-05,0.0,0.0,-2e-05,-4e-05,0.0,0.0,-1e-05,1
828,866,-1e-05,0.0,0.0,-2e-05,-4e-05,0.0,0.0,-1e-05,1
829,867,-1e-05,0.0,0.0,-2e-05,-4e-05,0.0,0.0,-1e-05,1
830,868,-1e-05,0.0,0.0,-2e-05,-4e-05,0.0,0.0,-1e-05,1
831,869,-1e-05,0.0,0.0,-2e-05,-4e-05,0.0,0.0,-1e-05,1
832,870,-1e-05,0.0,0.0,-2e-05,-4e-05,0.0,0.0,-1e-05,1
833,871,-1e-05,0.0,0.0,-2e-05,-4e-05,0.0,0.0,-1e-05,1
834,872,-1e-05,0.0,0.0,-2e-05,-4e-05,0.0,0.0,-1e-05,1
835,873,-1e-05,0.0,0.0,-2e-05,-4e-05,0.0,0.0,-1e-05,1
836,874,-1e-05,0.0,0.0,-2e-05,-4e-05,0.0,0.0,-1e-05,1
837,875,-1e-05,0.0,0.0,-2e-05,-4e-05,0.0,0.0,-1e-05,1
838,876,-1e-05,0.0,0.0,-2e-05,-4e-05,0.0,0.0,-1e-05,1
839,877,-1e-05,0.0,0.0,-2e-05,-4e-05,0.0,0.0,-1e-05,1
840,878,-1e-05,0.0,0.0,-2e-05,-4e-05,0.0,0.0,-1e-05,1
841,879,-1e-05,0.0,0.0,-2e-05,-4e-05,0.0,0.0,-1e-05,1
842,880,-1e-05,0.0,0.0,-2e-05,-4e-05,0.0,0.0,-1e-05,1
843,881,-1e-05,-2e-05,1e-05,-1e-05,0.0,-2.9999999999999997e-05,-2e-05,-1e-05,1
844,882,-1e-05,-2e-05,-2.9999999999999997e-05,-2.9999999999999997e-05,0.0,-2e-05,-2e-05,-2e-05,1
845,883,-1e-05,-2e-05,-2.9999999999999997e-05,-2.9999999999999997e-05,0.0,-2e-05,-2e-05,-2e-05,1
846,884,-1e-05,-2e-05,-2.9999999999999997e-05,-2.9999999999999997e-05,0.0,-2e-05,-2e-05,-2e-05,1
847,885,-1e-05,-2e-05,-2.9999999999999997e-05,-2.9999999999999997e-05,0.0,-2e-05,-2e-05,-2e-05,1
848,886,-1e-05,-2e-05,-2.9999999999999997e-05,-2.9999999999999997e-05,0.0,-2e-05,-2e-05,-2e-05,1
849,888,-1e-05,-2e-05,-2.9999999999999997e-05,-2.9999999999999997e-05,0.0,-2e-05,-2e-05,-2e-05,1
850,889,-1e-05,-2e-05,-2.9999999999999997e-05,-2.9999999999999997e-05,0.0,-2e-05,-2e-05,-2e-05,1
851,890,-1e-05,-2e-05,-2.9999999999999997e-05,-2.9999999999999997e-05,0.0,-2e-05,-2e-05,-2e-05,1
852,891,-1e-05,-2e-05,-2.9999999999999997e-05,-2.9999999999999997e-05,0.0,-2e-05,-2e-05,-2e-05,1
853,892,-1e-05,-2e-05,-2.9999999999999997e-05,-2.9999999999999997e-05,0.0,-2e-05,-2e-05,-2e-05,1
854,893,-1e-05,-2e-05,-2.9999999999999997e-05,-2.9999999999999997e-05,0.0,-2e-05,-2e-05,-2e-05,1
855,894,-1e-05,-2e-05,-2.9999999999999997e-05,-2.9999999999999997e-05,0.0,-2e-05,-2e-05,-2e-05,1
856,895,1e-05,2e-05,-1e-05,0.00011999999999999999,-1e-05,-1e-05,2e-05,0.0,1
857,896,1e-05,2e-05,-1e-05,0.00011999999999999999,-1e-05,-1e-05,2e-05,0.0,1
858,897,1e-05,2e-05,-1e-05,0.00011999999999999999,-1e-05,-1e-05,2e-05,0.0,1
859,898,1e-05,2e-05,-1e-05,0.00011999999999999999,-1e-05,-1e-05,2e-05,0.0,1
860,899,1e-05,2e-05,-1e-05,0.00011999999999999999,-1e-05,-1e-05,2e-05,0.0,1
861,900,1e-05,2e-05,-1e-05,0.00011999999999999999,-1e-05,-1e-05,2e-05,0.0,1
862,901,1e-05,2e-05,-1e-05,0.00011999999999999999,-1e-05,-1e-05,2e-05,0.0,1
863,902,1e-05,2e-05,-1e-05,0.00011999999999999999,-1e-05,-1e-05,2e-05,0.0,1
864,903,-2e-05,-1e-05,-4e-05,-5.9999999999999995e-05,-1e-05,0.0,0.0,-1e-05,1
865,904,-1e-05,-1e-05,-2e-05,-1e-05,-1e-05,1e-05,-1e-05,-2e-05,1
866,905,-1e-05,-1e-05,-2e-05,-1e-05,-1e-05,1e-05,-1e-05,-2e-05,1
867,906,-1e-05,-1e-05,-2e-05,-1e-05,-1e-05,1e-05,-1e-05,-2e-05,1
868,907,-1e-05,-1e-05,-2e-05,-1e-05,-1e-05,1e-05,-1e-05,-2e-05,1
869,908,-1e-05,-1e-05,-2e-05,-1e-05,-1e-05,1e-05,-1e-05,-2e-05,1
870,909,-1e-05,-1e-05,-2e-05,-1e-05,-1e-05,1e-05,-1e-05,-2e-05,1
871,910,-1e-05,-1e-05,-2e-05,-1e-05,-1e-05,1e-05,-1e-05,-2e-05,1
872,911,-1e-05,-1e-05,-2e-05,-1e-05,-1e-05,1e-05,-1e-05,-2e-05,1
873,912,-1e-05,-1e-05,-2e-05,-1e-05,-1e-05,1e-05,-1e-05,-2e-05,1
874,913,-1e-05,-1e-05,-2e-05,-1e-05,-1e-05,1e-05,-1e-05,-2e-05,1
875,914,-1e-05,-1e-05,-2e-05,-1e-05,-1e-05,1e-05,-1e-05,-2e-05,1
876,915,-1e-05,-1e-05,-2e-05,-1e-05,-1e-05,1e-05,-1e-05,-2e-05,1
877,916,-1e-05,-1e-05,-2e-05,-1e-05,-1e-05,1e-05,-1e-05,-2e-05,1
878,917,-1e-05,-1e-05,-2e-05,-1e-05,-1e-05,1e-05,-1e-05,-2e-05,1
879,918,-1e-05,0.0,5e-05,-5.9999999999999995e-05,-4e-05,0.0,-2e-05,1e-05,1
880,919,-1e-05,-5e-05,-5.9999999999999995e-05,-5.9999999999999995e-05,0.0,0.0,-2e-05,-1e-05,1
881,920,-2.9999999999999997e-05,0.0,0.0,1e-05,2e-05,-2e-05,0.0,0.0,1
882,921,-2.9999999999999997e-05,0.0,0.0,1e-05,2e-05,-2e-05,0.0,0.0,1
883,922,-2.9999999999999997e-05,0.0,0.0,1e-05,2e-05,-2e-05,0.0,0.0,1
884,923,-2.9999999999999997e-05,0.0,0.0,1e-05,2e-05,-2e-05,0.0,0.0,1
885,924,-2.9999999999999997e-05,0.0,0.0,1e-05,2e-05,-2e-05,0.0,0.0,1
886,925,-2.9999999999999997e-05,0.0,0.0,1e-05,2e-05,-2e-05,0.0,0.0,1
887,926,-2.9999999999999997e-05,0.0,0.0,1e-05,2e-05,-2e-05,0.0,0.0,1
888,927,-2.9999999999999997e-05,0.0,0.0,1e-05,2e-05,-2e-05,0.0,0.0,1
889,928,-2.9999999999999997e-05,0.0,0.0,1e-05,2e-05,-2e-05,0.0,0.0,1
890,929,-2.9999999999999997e-05,0.0,0.0,1e-05,2e-05,-2e-05,0.0,0.0,1
891,930,-2.9999999999999997e-05,0.0,0.0,1e-05,2e-05,-2e-05,0.0,0.0,1
892,931,-2.9999999999999997e-05,0.0,0.0,1e-05,2e-05,-2e-05,0.0,0.0,1
893,932,-2.9999999999999997e-05,0.0,0.0,1e-05,2e-05,-2e-05,0.0,0.0,1
894,933,-2.9999999999999997e-05,0.0,0.0,1e-05,2e-05,-2e-05,0.0,0.0,1
895,934,-2.9999999999999997e-05,0.0,0.0,1e-05,2e-05,-2e-05,0.0,0.0,1
896,935,-2.9999999999999997e-05,0.0,0.0,1e-05,2e-05,-2e-05,0.0,0.0,1
897,936,-2.9999999999999997e-05,0.0,0.0,1e-05,2e-05,-2e-05,0.0,0.0,1
898,938,-2.9999999999999997e-05,0.0,0.0,1e-05,2e-05,-2e-05,0.0,0.0,1
899,939,-2.9999999999999997e-05,0.0,0.0,1e-05,2e-05,-2e-05,0.0,0.0,1
900,940,-2.9999999999999997e-05,0.0,0.0,1e-05,2e-05,-2e-05,0.0,0.0,1
901,941,-1e-05,0.0,9e-05,-2.9999999999999997e-05,-4e-05,-1e-05,-1e-05,0.0,1
902,942,1e-05,1e-05,-2.9999999999999997e-05,-4e-05,-1e-05,1e-05,1e-05,-1e-05,1
903,943,0.0,-2.9999999999999997e-05,-4e-05,0.0,-2.9999999999999997e-05,-1e-05,-1e-05,-1e-05,1
904,944,0.0,-2.9999999999999997e-05,-4e-05,0.0,-2.9999999999999997e-05,-1e-05,-1e-05,-1e-05,1
905,945,0.0,-2.9999999999999997e-05,-4e-05,0.0,-2.9999999999999997e-05,-1e-05,-1e-05,-1e-05,1
906,946,0.0,-2.9999999999999997e-05,-4e-05,0.0,-2.9999999999999997e-05,-1e-05,-1e-05,-1e-05,1
907,947,0.0,-2.9999999999999997e-05,-4e-05,0.0,-2.9999999999999997e-05,-1e-05,-1e-05,-1e-05,1
908,948,0.0,-2.9999999999999997e-05,-4e-05,0.0,-2.9999999999999997e-05,-1e-05,-1e-05,-1e-05,1
909,949,0.0,-2.9999999999999997e-05,-4e-05,0.0,-2.9999999999999997e-05,-1e-05,-1e-05,-1e-05,1
910,950,0.0,-2.9999999999999997e-05,-4e-05,0.0,-2.9999999999999997e-05,-1e-05,-1e-05,-1e-05,1
911,951,0.0,-2.9999999999999997e-05,-4e-05,0.0,-2.9999999999999997e-05,-1e-05,-1e-05,-1e-05,1
912,952,0.0,-2.9999999999999997e-05,-4e-05,0.0,-2.9999999999999997e-05,-1e-05,-1e-05,-1e-05,1
913,953,0.0,-2.9999999999999997e-05,-4e-05,0.0,-2.9999999999999997e-05,-1e-05,-1e-05,-1e-05,1
914,954,0.0,-2.9999999999999997e-05,-4e-05,0.0,-2.9999999999999997e-05,-1e-05,-1e-05,-1e-05,1
915,955,-2e-05,2e-05,-2.9999999999999997e-05,-4e-05,1e-05,-2e-05,-1e-05,-2e-05,1
916,956,-2e-05,2e-05,-2.9999999999999997e-05,-4e-05,1e-05,-2e-05,-1e-05,-2e-05,1
917,957,-2e-05,2e-05,-2.9999999999999997e-05,-4e-05,1e-05,-2e-05,-1e-05,-2e-05,1
918,958,-2e-05,2e-05,-2.9999999999999997e-05,-4e-05,1e-05,-2e-05,-1e-05,-2e-05,1
919,959,-2e-05,2e-05,-2.9999999999999997e-05,-4e-05,1e-05,-2e-05,-1e-05,-2e-05,1
920,960,-2e-05,2e-05,-2.9999999999999997e-05,-4e-05,1e-05,-2e-05,-1e-05,-2e-05,1
921,961,-2e-05,2e-05,-2.9999999999999997e-05,-4e-05,1e-05,-2e-05,-1e-05,-2e-05,1
922,962,-2e-05,2e-05,-2.9999999999999997e-05,-4e-05,1e-05,-2e-05,-1e-05,-2e-05,1
923,963,-1e-05,1e-05,-4e-05,-2e-05,0.0,-2.9999999999999997e-05,-2e-05,1e-05,1
924,964,1e-05,-2.9999999999999997e-05,2e-05,-1e-05,-2e-05,0.0,0.0,1e-05,1
925,965,1e-05,-2.9999999999999997e-05,2e-05,-1e-05,-2e-05,0.0,0.0,1e-05,1
926,966,1e-05,-2.9999999999999997e-05,2e-05,-1e-05,-2e-05,0.0,0.0,1e-05,1
927,967,1e-05,-2.9999999999999997e-05,2e-05,-1e-05,-2e-05,0.0,0.0,1e-05,1
928,968,1e-05,-2.9999999999999997e-05,2e-05,-1e-05,-2e-05,0.0,0.0,1e-05,1
929,969,1e-05,-2.9999999999999997e-05,2e-05,-1e-05,-2e-05,0.0,0.0,1e-05,1
930,970,1e-05,-2.9999999999999997e-05,2e-05,-1e-05,-2e-05,0.0,0.0,1e-05,1
931,971,1e-05,-2.9999999999999997e-05,2e-05,-1e-05,-2e-05,0.0,0.0,1e-05,1
932,972,1e-05,-2.9999999999999997e-05,2e-05,-1e-05,-2e-05,0.0,0.0,1e-05,1
933,973,1e-05,-2.9999999999999997e-05,2e-05,-1e-05,-2e-05,0.0,0.0,1e-05,1
934,974,1e-05,-2.9999999999999997e-05,2e-05,-1e-05,-2e-05,0.0,0.0,1e-05,1
935,975,1e-05,-2.9999999999999997e-05,2e-05,-1e-05,-2e-05,0.0,0.0,1e-05,1
936,976,1e-05,-2.9999999999999997e-05,2e-05,-1e-05,-2e-05,0.0,0.0,1e-05,1
937,977,1e-05,-2.9999999999999997e-05,2e-05,-1e-05,-2e-05,0.0,0.0,1e-05,1
938,978,0.0,-2.9999999999999997e-05,-5e-05,-4e-05,-1e-05,-1e-05,0.0,-2.9999999999999997e-05,1
939,979,0.0,-2e-05,0.0,2.9999999999999997e-05,0.0,0.0,0.0,-1e-05,1
940,980,-2e-05,-1e-05,-2e-05,-2.9999999999999997e-05,-2e-05,0.0,-1e-05,-1e-05,1
941,981,-2e-05,-1e-05,-2e-05,-2.9999999999999997e-05,-2e-05,0.0,-1e-05,-1e-05,1
942,982,-2e-05,-1e-05,-2e-05,-2.9999999999999997e-05,-2e-05,0.0,-1e-05,-1e-05,1
943,983,-2e-05,-1e-05,-2e-05,-2.9999999999999997e-05,-2e-05,0.0,-1e-05,-1e-05,1
944,984,-2e-05,-1e-05,-2e-05,-2.9999999999999997e-05,-2e-05,0.0,-1e-05,-1e-05,1
945,985,-2e-05,-1e-05,-2e-05,-2.9999999999999997e-05,-2e-05,0.0,-1e-05,-1e-05,1
946,986,-2e-05,-1e-05,-2e-05,-2.9999999999999997e-05,-2e-05,0.0,-1e-05,-1e-05,1
947,988,-2e-05,-1e-05,-2e-05,-2.9999999999999997e-05,-2e-05,0.0,-1e-05,-1e-05,1
948,989,-2e-05,-1e-05,-2e-05,-2.9999999999999997e-05,-2e-05,0.0,-1e-05,-1e-05,1
949,990,-2e-05,-1e-05,-2e-05,-2.9999999999999997e-05,-2e-05,0.0,-1e-05,-1e-05,1
950,991,-2e-05,-1e-05,-2e-05,-2.9999999999999997e-05,-2e-05,0.0,-1e-05,-1e-05,1
951,992,-2e-05,-1e-05,-2e-05,-2.9999999999999997e-05,-2e-05,0.0,-1e-05,-1e-05,1
952,993,-2e-05,-1e-05,-2e-05,-2.9999999999999997e-05,-2e-05,0.0,-1e-05,-1e-05,1
953,994,-2e-05,-1e-05,-2e-05,-2.9999999999999997e-05,-2e-05,0.0,-1e-05,-1e-05,1
954,995,-2e-05,-1e-05,-2e-05,-2.9999999999999997e-05,-2e-05,0.0,-1e-05,-1e-05,1
955,996,-2e-05,-1e-05,-2e-05,-2.9999999999999997e-05,-2e-05,0.0,-1e-05,-1e-05,1
956,997,-2e-05,-1e-05,-2e-05,-2.9999999999999997e-05,-2e-05,0.0,-1e-05,-1e-05,1
957,998,-2e-05,-1e-05,-2e-05,-2.9999999999999997e-05,-2e-05,0.0,-1e-05,-1e-05,1
958,999,-2e-05,-1e-05,-2e-05,-2.9999999999999997e-05,-2e-05,0.0,-1e-05,-1e-05,1
959,1000,-2e-05,-1e-05,-2e-05,-2.9999999999999997e-05,-2e-05,0.0,-1e-05,-1e-05,1
960,1001,0.0,0.0,0.00018,-2.9999999999999997e-05,1e-05,0.0,-1e-05,-1e-05,1
961,1002,0.0,0.0,0.00018,-2.9999999999999997e-05,1e-05,0.0,-1e-05,-1e-05,1
962,1003,-2e-05,0.0,-5e-05,5e-05,0.0,-2e-05,0.0,-1e-05,1
963,1004,-2e-05,0.0,-5e-05,5e-05,0.0,-2e-05,0.0,-1e-05,1
964,1005,-2e-05,0.0,-5e-05,5e-05,0.0,-2e-05,0.0,-1e-05,1
965,1006,-2e-05,0.0,-5e-05,5e-05,0.0,-2e-05,0.0,-1e-05,1
966,1007,-2e-05,0.0,-5e-05,5e-05,0.0,-2e-05,0.0,-1e-05,1
967,1008,-2e-05,0.0,-5e-05,5e-05,0.0,-2e-05,0.0,-1e-05,1
968,1009,-2e-05,0.0,-5e-05,5e-05,0.0,-2e-05,0.0,-1e-05,1
969,1010,-2e-05,0.0,-5e-05,5e-05,0.0,-2e-05,0.0,-1e-05,1
970,1011,-2e-05,0.0,-5e-05,5e-05,0.0,-2e-05,0.0,-1e-05,1
971,1012,-2e-05,0.0,-5e-05,5e-05,0.0,-2e-05,0.0,-1e-05,1
972,1015,-2e-05,0.0,-5e-05,5e-05,0.0,-2e-05,0.0,-1e-05,1
973,1017,-2e-05,-2e-05,-2e-05,0.00011,2e-05,0.0,0.0,1e-05,1
974,1018,-2e-05,-2e-05,-2e-05,0.00011,2e-05,0.0,0.0,1e-05,1
975,1020,-2e-05,-2e-05,-2e-05,0.00011,2e-05,0.0,0.0,1e-05,1
976,1021,-2e-05,-2e-05,-2e-05,0.00011,2e-05,0.0,0.0,1e-05,1
977,1022,-2e-05,-2e-05,-2e-05,0.00011,2e-05,0.0,0.0,1e-05,1
978,1023,-2e-05,-2e-05,-2e-05,0.00011,2e-05,0.0,0.0,1e-05,1
979,1024,-1e-05,2e-05,-4e-05,-4e-05,-2.9999999999999997e-05,-1e-05,-1e-05,-2e-05,1
980,1025,-1e-05,2e-05,-4e-05,-4e-05,-2.9999999999999997e-05,-1e-05,-1e-05,-2e-05,1
981,1026,-1e-05,2e-05,-4e-05,-4e-05,-2.9999999999999997e-05,-1e-05,-1e-05,-2e-05,1
982,1027,-1e-05,2e-05,-4e-05,-4e-05,-2.9999999999999997e-05,-1e-05,-1e-05,-2e-05,1
983,1028,-1e-05,2e-05,-4e-05,-4e-05,-2.9999999999999997e-05,-1e-05,-1e-05,-2e-05,1
984,1029,-1e-05,2e-05,-4e-05,-4e-05,-2.9999999999999997e-05,-1e-05,-1e-05,-2e-05,1
985,1030,-1e-05,2e-05,-4e-05,-4e-05,-2.9999999999999997e-05,-1e-05,-1e-05,-2e-05,1
986,1031,-1e-05,2e-05,-4e-05,-4e-05,-2.9999999999999997e-05,-1e-05,-1e-05,-2e-05,1
987,1032,-1e-05,2e-05,-4e-05,-4e-05,-2.9999999999999997e-05,-1e-05,-1e-05,-2e-05,1
988,1033,-1e-05,2e-05,-4e-05,-4e-05,-2.9999999999999997e-05,-1e-05,-1e-05,-2e-05,1
989,1034,-1e-05,2e-05,-4e-05,-4e-05,-2.9999999999999997e-05,-1e-05,-1e-05,-2e-05,1
990,1035,-1e-05,2e-05,-4e-05,-4e-05,-2.9999999999999997e-05,-1e-05,-1e-05,-2e-05,1
991,1036,-1e-05,2e-05,-4e-05,-4e-05,-2.9999999999999997e-05,-1e-05,-1e-05,-2e-05,1
992,1038,-1e-05,-5e-05,2.9999999999999997e-05,-5e-05,-1e-05,0.0,0.0,0.0,1
993,1039,-1e-05,-5e-05,2.9999999999999997e-05,-5e-05,-1e-05,0.0,0.0,0.0,1
994,1040,0.0,-1e-05,-5e-05,-1e-05,0.0,-1e-05,-1e-05,-2.9999999999999997e-05,1
995,1041,0.0,-1e-05,-5e-05,-1e-05,0.0,-1e-05,-1e-05,-2.9999999999999997e-05,1
996,1042,0.0,-1e-05,-5e-05,-1e-05,0.0,-1e-05,-1e-05,-2.9999999999999997e-05,1
997,1043,0.0,-1e-05,-5e-05,-1e-05,0.0,-1e-05,-1e-05,-2.9999999999999997e-05,1
998,1044,0.0,-1e-05,-5e-05,-1e-05,0.0,-1e-05,-1e-05,-2.9999999999999997e-05,1
999,1045,0.0,-1e-05,-5e-05,-1e-05,0.0,-1e-05,-1e-05,-2.9999999999999997e-05,1
1000,1046,0.0,-1e-05,-5e-05,-1e-05,0.0,-1e-05,-1e-05,-2.9999999999999997e-05,1
1001,1047,0.0,-1e-05,-5e-05,-1e-05,0.0,-1e-05,-1e-05,-2.9999999999999997e-05,1
1002,1048,0.0,-1e-05,-5e-05,-1e-05,0.0,-1e-05,-1e-05,-2.9999999999999997e-05,1
1003,1049,0.0,-1e-05,-5e-05,-1e-05,0.0,-1e-05,-1e-05,-2.9999999999999997e-05,1
1004,1050,0.0,-1e-05,-5e-05,-1e-05,0.0,-1e-05,-1e-05,-2.9999999999999997e-05,1
1005,1051,0.0,-1e-05,-5e-05,-1e-05,0.0,-1e-05,-1e-05,-2.9999999999999997e-05,1
1006,1052,0.0,-1e-05,-5e-05,-1e-05,0.0,-1e-05,-1e-05,-2.9999999999999997e-05,1
1007,1053,0.0,-1e-05,-5e-05,-1e-05,0.0,-1e-05,-1e-05,-2.9999999999999997e-05,1
1008,1054,0.0,-1e-05,-5e-05,-1e-05,0.0,-1e-05,-1e-05,-2.9999999999999997e-05,1
1009,1055,0.0,-1e-05,-5e-05,-1e-05,0.0,-1e-05,-1e-05,-2.9999999999999997e-05,1
1010,1056,0.0,-1e-05,-5e-05,-1e-05,0.0,-1e-05,-1e-05,-2.9999999999999997e-05,1
1011,1057,0.0,-1e-05,-5e-05,-1e-05,0.0,-1e-05,-1e-05,-2.9999999999999997e-05,1
1012,1058,0.0,-1e-05,-5e-05,-1e-05,0.0,-1e-05,-1e-05,-2.9999999999999997e-05,1
1013,1059,0.0,-1e-05,-5e-05,-1e-05,0.0,-1e-05,-1e-05,-2.9999999999999997e-05,1
1014,1060,0.0,-1e-05,-5e-05,-1e-05,0.0,-1e-05,-1e-05,-2.9999999999999997e-05,1
1015,1061,0.0,1e-05,-2e-05,1e-05,-2e-05,-1e-05,-2.9999999999999997e-05,1e-05,1
1016,1062,0.0,1e-05,-2e-05,1e-05,-2e-05,-1e-05,-2.9999999999999997e-05,1e-05,1
1017,1063,-2e-05,2e-05,4e-05,-1e-05,-1e-05,-2e-05,-2e-05,-1e-05,1
1018,1064,-2e-05,2e-05,4e-05,-1e-05,-1e-05,-2e-05,-2e-05,-1e-05,1
1019,1065,-2e-05,2e-05,4e-05,-1e-05,-1e-05,-2e-05,-2e-05,-1e-05,1
1020,1066,-2e-05,2e-05,4e-05,-1e-05,-1e-05,-2e-05,-2e-05,-1e-05,1
1021,1067,-2e-05,2e-05,4e-05,-1e-05,-1e-05,-2e-05,-2e-05,-1e-05,1
1022,1068,-2e-05,2e-05,4e-05,-1e-05,-1e-05,-2e-05,-2e-05,-1e-05,1
1023,1069,-2e-05,2e-05,4e-05,-1e-05,-1e-05,-2e-05,-2e-05,-1e-05,1
1024,1070,-2e-05,2e-05,4e-05,-1e-05,-1e-05,-2e-05,-2e-05,-1e-05,1
1025,1071,-2e-05,2e-05,4e-05,-1e-05,-1e-05,-2e-05,-2e-05,-1e-05,1
1026,1072,-2e-05,2e-05,4e-05,-1e-05,-1e-05,-2e-05,-2e-05,-1e-05,1
1027,1073,-2e-05,2e-05,4e-05,-1e-05,-1e-05,-2e-05,-2e-05,-1e-05,1
1028,1074,-2e-05,2e-05,4e-05,-1e-05,-1e-05,-2e-05,-2e-05,-1e-05,1
1029,1075,-2e-05,2e-05,4e-05,-1e-05,-1e-05,-2e-05,-2e-05,-1e-05,1
1030,1076,-2e-05,2e-05,4e-05,-1e-05,-1e-05,-2e-05,-2e-05,-1e-05,1
1031,1077,-2e-05,2e-05,4e-05,-1e-05,-1e-05,-2e-05,-2e-05,-1e-05,1
1032,1078,-2e-05,2e-05,4e-05,-1e-05,-1e-05,-2e-05,-2e-05,-1e-05,1
1033,1079,-2e-05,2e-05,4e-05,-1e-05,-1e-05,-2e-05,-2e-05,-1e-05,1
1034,1080,-2e-05,2e-05,4e-05,-1e-05,-1e-05,-2e-05,-2e-05,-1e-05,1
1035,1081,-2e-05,2e-05,4e-05,-1e-05,-1e-05,-2e-05,-2e-05,-1e-05,1
1036,1082,-2e-05,2e-05,4e-05,-1e-05,-1e-05,-2e-05,-2e-05,-1e-05,1
1037,1083,-1e-05,-2e-05,-0.0001,-1e-05,-2e-05,-2.9999999999999997e-05,-2e-05,0.0,1
1038,1084,-1e-05,-2e-05,-0.0001,-1e-05,-2e-05,-2.9999999999999997e-05,-2e-05,0.0,1
1039,1085,-1e-05,-1e-05,1e-05,2e-05,-4e-05,0.0,-2e-05,0.0,1
1040,1086,-1e-05,-1e-05,1e-05,2e-05,-4e-05,0.0,-2e-05,0.0,1
1041,1088,-1e-05,-1e-05,1e-05,2e-05,-4e-05,0.0,-2e-05,0.0,1
1042,1089,-1e-05,-1e-05,1e-05,2e-05,-4e-05,0.0,-2e-05,0.0,1
1043,1090,-1e-05,-1e-05,1e-05,2e-05,-4e-05,0.0,-2e-05,0.0,1
1044,1091,-1e-05,-1e-05,1e-05,2e-05,-4e-05,0.0,-2e-05,0.0,1
1045,1092,-1e-05,-1e-05,1e-05,2e-05,-4e-05,0.0,-2e-05,0.0,1
1046,1093,-1e-05,-1e-05,1e-05,2e-05,-4e-05,0.0,-2e-05,0.0,1
1047,1094,-1e-05,-1e-05,1e-05,2e-05,-4e-05,0.0,-2e-05,0.0,1
1048,1095,-1e-05,-1e-05,1e-05,2e-05,-4e-05,0.0,-2e-05,0.0,1
1049,1096,-1e-05,-1e-05,1e-05,2e-05,-4e-05,0.0,-2e-05,0.0,1
1050,1097,-1e-05,-1e-05,1e-05,2e-05,-4e-05,0.0,-2e-05,0.0,1
1051,1098,-1e-05,-2e-05,-2.9999999999999997e-05,-5e-05,0.0,-1e-05,-1e-05,-2e-05,1
1052,1099,-1e-05,-2e-05,-2.9999999999999997e-05,-5e-05,0.0,-1e-05,-1e-05,-2e-05,1
1053,1100,-1e-05,-2.9999999999999997e-05,0.00016999999999999999,-0.00016999999999999999,-2e-05,-2e-05,-1e-05,2e-05,1
1054,1101,-1e-05,-2.9999999999999997e-05,0.00016999999999999999,-0.00016999999999999999,-2e-05,-2e-05,-1e-05,2e-05,1
1055,1102,-1e-05,-2.9999999999999997e-05,0.00016999999999999999,-0.00016999999999999999,-2e-05,-2e-05,-1e-05,2e-05,1
1056,1103,-1e-05,-2.9999999999999997e-05,0.00016999999999999999,-0.00016999999999999999,-2e-05,-2e-05,-1e-05,2e-05,1
1057,1104,-1e-05,-2.9999999999999997e-05,0.00016999999999999999,-0.00016999999999999999,-2e-05,-2e-05,-1e-05,2e-05,1
1058,1105,-1e-05,-2.9999999999999997e-05,0.00016999999999999999,-0.00016999999999999999,-2e-05,-2e-05,-1e-05,2e-05,1
1059,1106,-1e-05,-2.9999999999999997e-05,0.00016999999999999999,-0.00016999999999999999,-2e-05,-2e-05,-1e-05,2e-05,1
1060,1107,-1e-05,-2.9999999999999997e-05,0.00016999999999999999,-0.00016999999999999999,-2e-05,-2e-05,-1e-05,2e-05,1
1061,1108,-1e-05,-2.9999999999999997e-05,0.00016999999999999999,-0.00016999999999999999,-2e-05,-2e-05,-1e-05,2e-05,1
1062,1109,-1e-05,-2.9999999999999997e-05,0.00016999999999999999,-0.00016999999999999999,-2e-05,-2e-05,-1e-05,2e-05,1
1063,1110,-1e-05,-2.9999999999999997e-05,0.00016999999999999999,-0.00016999999999999999,-2e-05,-2e-05,-1e-05,2e-05,1
1064,1111,-1e-05,-2.9999999999999997e-05,0.00016999999999999999,-0.00016999999999999999,-2e-05,-2e-05,-1e-05,2e-05,1
1065,1112,-1e-05,-2.9999999999999997e-05,0.00016999999999999999,-0.00016999999999999999,-2e-05,-2e-05,-1e-05,2e-05,1
1066,1113,-1e-05,-2.9999999999999997e-05,0.00016999999999999999,-0.00016999999999999999,-2e-05,-2e-05,-1e-05,2e-05,1
1067,1114,-1e-05,-2.9999999999999997e-05,0.00016999999999999999,-0.00016999999999999999,-2e-05,-2e-05,-1e-05,2e-05,1
1068,1115,-1e-05,-2.9999999999999997e-05,0.00016999999999999999,-0.00016999999999999999,-2e-05,-2e-05,-1e-05,2e-05,1
1069,1116,-1e-05,-2.9999999999999997e-05,0.00016999999999999999,-0.00016999999999999999,-2e-05,-2e-05,-1e-05,2e-05,1
1070,1117,-1e-05,-2.9999999999999997e-05,0.00016999999999999999,-0.00016999999999999999,-2e-05,-2e-05,-1e-05,2e-05,1
1071,1118,-1e-05,-2.9999999999999997e-05,0.00016999999999999999,-0.00016999999999999999,-2e-05,-2e-05,-1e-05,2e-05,1
1072,1119,-1e-05,-2.9999999999999997e-05,0.00016999999999999999,-0.00016999999999999999,-2e-05,-2e-05,-1e-05,2e-05,1
1073,1120,-1e-05,-2.9999999999999997e-05,0.00016999999999999999,-0.00016999999999999999,-2e-05,-2e-05,-1e-05,2e-05,1
1074,1121,-1e-05,0.0,7e-05,-2.9999999999999997e-05,-5e-05,0.0,0.0,-2e-05,1
1075,1122,1e-05,0.0,5e-05,2.9999999999999997e-05,-2e-05,0.0,-1e-05,-1e-05,1
1076,1123,1e-05,0.0,5e-05,2.9999999999999997e-05,-2e-05,0.0,-1e-05,-1e-05,1
1077,1124,-1e-05,1e-05,-2.9999999999999997e-05,-2e-05,-2.9999999999999997e-05,1e-05,0.0,-1e-05,1
1078,1128,-1e-05,1e-05,-2.9999999999999997e-05,-2e-05,-2.9999999999999997e-05,1e-05,0.0,-1e-05,1
1079,1129,-1e-05,1e-05,-2.9999999999999997e-05,-2e-05,-2.9999999999999997e-05,1e-05,0.0,-1e-05,1
1080,1130,-1e-05,1e-05,-2.9999999999999997e-05,-2e-05,-2.9999999999999997e-05,1e-05,0.0,-1e-05,1
1081,1131,-1e-05,1e-05,-2.9999999999999997e-05,-2e-05,-2.9999999999999997e-05,1e-05,0.0,-1e-05,1
1082,1132,-1e-05,1e-05,-2.9999999999999997e-05,-2e-05,-2.9999999999999997e-05,1e-05,0.0,-1e-05,1
1083,1134,-1e-05,1e-05,-2.9999999999999997e-05,-2e-05,-2.9999999999999997e-05,1e-05,0.0,-1e-05,1
1084,1135,-1e-05,1e-05,-2.9999999999999997e-05,-2e-05,-2.9999999999999997e-05,1e-05,0.0,-1e-05,1
1085,1136,-1e-05,1e-05,-2.9999999999999997e-05,-2e-05,-2.9999999999999997e-05,1e-05,0.0,-1e-05,1
1086,1138,-1e-05,1e-05,-2.9999999999999997e-05,-2e-05,-2.9999999999999997e-05,1e-05,0.0,-1e-05,1
1087,1139,-1e-05,1e-05,-2.9999999999999997e-05,-2e-05,-2.9999999999999997e-05,1e-05,0.0,-1e-05,1
1088,1140,-1e-05,1e-05,-2.9999999999999997e-05,-2e-05,-2.9999999999999997e-05,1e-05,0.0,-1e-05,1
1089,1141,-1e-05,1e-05,-2.9999999999999997e-05,-2e-05,-2.9999999999999997e-05,1e-05,0.0,-1e-05,1
1090,1142,-1e-05,1e-05,-2.9999999999999997e-05,-2e-05,-2.9999999999999997e-05,1e-05,0.0,-1e-05,1
1091,1143,-2e-05,0.0,5e-05,-5e-05,-2.9999999999999997e-05,-1e-05,-1e-05,-2e-05,1
1092,1144,-2.9999999999999997e-05,-2.9999999999999997e-05,-2e-05,-2e-05,-2.9999999999999997e-05,0.0,0.0,0.0,1
1093,1145,1e-05,-2.9999999999999997e-05,-2.9999999999999997e-05,-2.9999999999999997e-05,0.0,-1e-05,0.0,0.0,1
1094,1146,1e-05,-2.9999999999999997e-05,-2.9999999999999997e-05,-2.9999999999999997e-05,0.0,-1e-05,0.0,0.0,1
1095,1147,1e-05,-2.9999999999999997e-05,-2.9999999999999997e-05,-2.9999999999999997e-05,0.0,-1e-05,0.0,0.0,1
1096,1148,1e-05,-2.9999999999999997e-05,-2.9999999999999997e-05,-2.9999999999999997e-05,0.0,-1e-05,0.0,0.0,1
1097,1149,1e-05,-2.9999999999999997e-05,-2.9999999999999997e-05,-2.9999999999999997e-05,0.0,-1e-05,0.0,0.0,1
1098,1150,1e-05,-2.9999999999999997e-05,-2.9999999999999997e-05,-2.9999999999999997e-05,0.0,-1e-05,0.0,0.0,1
1099,1151,1e-05,-2.9999999999999997e-05,-2.9999999999999997e-05,-2.9999999999999997e-05,0.0,-1e-05,0.0,0.0,1
1100,1152,1e-05,-2.9999999999999997e-05,-2.9999999999999997e-05,-2.9999999999999997e-05,0.0,-1e-05,0.0,0.0,1
1101,1153,1e-05,-2.9999999999999997e-05,-2.9999999999999997e-05,-2.9999999999999997e-05,0.0,-1e-05,0.0,0.0,1
1102,1154,1e-05,-2.9999999999999997e-05,-2.9999999999999997e-05,-2.9999999999999997e-05,0.0,-1e-05,0.0,0.0,1
1103,1155,1e-05,-2.9999999999999997e-05,-2.9999999999999997e-05,-2.9999999999999997e-05,0.0,-1e-05,0.0,0.0,1
1104,1156,1e-05,-2.9999999999999997e-05,-2.9999999999999997e-05,-2.9999999999999997e-05,0.0,-1e-05,0.0,0.0,1
1105,1157,1e-05,-2.9999999999999997e-05,-2.9999999999999997e-05,-2.9999999999999997e-05,0.0,-1e-05,0.0,0.0,1
1106,1158,-1e-05,0.0,-5.9999999999999995e-05,0.0,-1e-05,-4e-05,-1e-05,-2e-05,1
1107,1159,-1e-05,0.0,-5.9999999999999995e-05,0.0,-1e-05,-4e-05,-1e-05,-2e-05,1
1108,1160,-1e-05,0.0,-5.9999999999999995e-05,0.0,-1e-05,-4e-05,-1e-05,-2e-05,1
1109,1161,-1e-05,0.0,-5.9999999999999995e-05,0.0,-1e-05,-4e-05,-1e-05,-2e-05,1
1110,1162,-1e-05,0.0,-5.9999999999999995e-05,0.0,-1e-05,-4e-05,-1e-05,-2e-05,1
1111,1163,-1e-05,0.0,-5.9999999999999995e-05,0.0,-1e-05,-4e-05,-1e-05,-2e-05,1
1112,1164,0.0,-2e-05,1e-05,0.0,-1e-05,-1e-05,-1e-05,0.0,1
1113,1165,-2e-05,0.0,-5.9999999999999995e-05,1e-05,-2e-05,-2e-05,-1e-05,-2e-05,1
1114,1166,-2e-05,0.0,-5.9999999999999995e-05,1e-05,-2e-05,-2e-05,-1e-05,-2e-05,1
1115,1167,-2e-05,0.0,-5.9999999999999995e-05,1e-05,-2e-05,-2e-05,-1e-05,-2e-05,1
1116,1168,-2e-05,0.0,-5.9999999999999995e-05,1e-05,-2e-05,-2e-05,-1e-05,-2e-05,1
1117,1169,-2e-05,0.0,-5.9999999999999995e-05,1e-05,-2e-05,-2e-05,-1e-05,-2e-05,1
1118,1170,-2e-05,0.0,-5.9999999999999995e-05,1e-05,-2e-05,-2e-05,-1e-05,-2e-05,1
1119,1171,-2e-05,0.0,-5.9999999999999995e-05,1e-05,-2e-05,-2e-05,-1e-05,-2e-05,1
1120,1172,-2e-05,0.0,-5.9999999999999995e-05,1e-05,-2e-05,-2e-05,-1e-05,-2e-05,1
1121,1173,-2e-05,0.0,-5.9999999999999995e-05,1e-05,-2e-05,-2e-05,-1e-05,-2e-05,1
1122,1174,-2e-05,0.0,-5.9999999999999995e-05,1e-05,-2e-05,-2e-05,-1e-05,-2e-05,1
1123,1175,-2e-05,0.0,-5.9999999999999995e-05,1e-05,-2e-05,-2e-05,-1e-05,-2e-05,1
1124,1176,-2e-05,0.0,-5.9999999999999995e-05,1e-05,-2e-05,-2e-05,-1e-05,-2e-05,1
1125,1177,-2e-05,0.0,-5.9999999999999995e-05,1e-05,-2e-05,-2e-05,-1e-05,-2e-05,1
1126,1178,-2e-05,0.0,-5.9999999999999995e-05,1e-05,-2e-05,-2e-05,-1e-05,-2e-05,1
1127,1179,-2e-05,0.0,-5.9999999999999995e-05,1e-05,-2e-05,-2e-05,-1e-05,-2e-05,1
1128,1180,-2e-05,0.0,-5.9999999999999995e-05,1e-05,-2e-05,-2e-05,-1e-05,-2e-05,1
1129,1181,0.0,0.0,5e-05,-1e-05,0.0,-2e-05,-1e-05,-1e-05,1
1130,1182,-2.9999999999999997e-05,0.0,-4e-05,-1e-05,0.0,0.0,-1e-05,-2.9999999999999997e-05,1
1131,1183,-2.9999999999999997e-05,0.0,-4e-05,-1e-05,0.0,0.0,-1e-05,-2.9999999999999997e-05,1
1132,1184,-2.9999999999999997e-05,0.0,-4e-05,-1e-05,0.0,0.0,-1e-05,-2.9999999999999997e-05,1
1133,1185,-2.9999999999999997e-05,0.0,-4e-05,-1e-05,0.0,0.0,-1e-05,-2.9999999999999997e-05,1
1134,1186,-2.9999999999999997e-05,0.0,-4e-05,-1e-05,0.0,0.0,-1e-05,-2.9999999999999997e-05,1
1135,1188,-2.9999999999999997e-05,0.0,-4e-05,-1e-05,0.0,0.0,-1e-05,-2.9999999999999997e-05,1
1136,1189,-2.9999999999999997e-05,0.0,-4e-05,-1e-05,0.0,0.0,-1e-05,-2.9999999999999997e-05,1
1137,1190,-2.9999999999999997e-05,0.0,-4e-05,-1e-05,0.0,0.0,-1e-05,-2.9999999999999997e-05,1
1138,1191,-2.9999999999999997e-05,0.0,-4e-05,-1e-05,0.0,0.0,-1e-05,-2.9999999999999997e-05,1
1139,1192,-2.9999999999999997e-05,0.0,-4e-05,-1e-05,0.0,0.0,-1e-05,-2.9999999999999997e-05,1
1140,1193,-2.9999999999999997e-05,0.0,-4e-05,-1e-05,0.0,0.0,-1e-05,-2.9999999999999997e-05,1
1141,1194,-2.9999999999999997e-05,0.0,-4e-05,-1e-05,0.0,0.0,-1e-05,-2.9999999999999997e-05,1
1142,1195,-2.9999999999999997e-05,0.0,-4e-05,-1e-05,0.0,0.0,-1e-05,-2.9999999999999997e-05,1
1143,1196,-2.9999999999999997e-05,0.0,-4e-05,-1e-05,0.0,0.0,-1e-05,-2.9999999999999997e-05,1
1144,1197,-2.9999999999999997e-05,0.0,-4e-05,-1e-05,0.0,0.0,-1e-05,-2.9999999999999997e-05,1
1145,1198,-2.9999999999999997e-05,0.0,-4e-05,-1e-05,0.0,0.0,-1e-05,-2.9999999999999997e-05,1
1146,1199,-2.9999999999999997e-05,0.0,-4e-05,-1e-05,0.0,0.0,-1e-05,-2.9999999999999997e-05,1
1147,1200,-2.9999999999999997e-05,0.0,-4e-05,-1e-05,0.0,0.0,-1e-05,-2.9999999999999997e-05,1
1148,1201,-2.9999999999999997e-05,0.0,-4e-05,-1e-05,0.0,0.0,-1e-05,-2.9999999999999997e-05,1
1149,1202,-2.9999999999999997e-05,0.0,-4e-05,-1e-05,0.0,0.0,-1e-05,-2.9999999999999997e-05,1
1150,1203,-2e-05,1e-05,-0.00023999999999999998,-0.0001,-1e-05,-2.9999999999999997e-05,0.0,1e-05,1
1151,1204,-2e-05,1e-05,-0.00023999999999999998,-0.0001,-1e-05,-2.9999999999999997e-05,0.0,1e-05,1
1152,1205,0.0,-2e-05,-2.9999999999999997e-05,-2e-05,1e-05,-4e-05,-1e-05,-2e-05,1
1153,1206,0.0,-2e-05,-2.9999999999999997e-05,-2e-05,1e-05,-4e-05,-1e-05,-2e-05,1
1154,1207,0.0,-2e-05,-2.9999999999999997e-05,-2e-05,1e-05,-4e-05,-1e-05,-2e-05,1
1155,1208,0.0,-2e-05,-2.9999999999999997e-05,-2e-05,1e-05,-4e-05,-1e-05,-2e-05,1
1156,1209,0.0,-2e-05,-2.9999999999999997e-05,-2e-05,1e-05,-4e-05,-1e-05,-2e-05,1
1157,1210,0.0,-2e-05,-2.9999999999999997e-05,-2e-05,1e-05,-4e-05,-1e-05,-2e-05,1
1158,1211,0.0,-2e-05,-2.9999999999999997e-05,-2e-05,1e-05,-4e-05,-1e-05,-2e-05,1
1159,1212,0.0,-2e-05,-2.9999999999999997e-05,-2e-05,1e-05,-4e-05,-1e-05,-2e-05,1
1160,1213,0.0,-2e-05,-2.9999999999999997e-05,-2e-05,1e-05,-4e-05,-1e-05,-2e-05,1
1161,1214,0.0,-2e-05,-2.9999999999999997e-05,-2e-05,1e-05,-4e-05,-1e-05,-2e-05,1
1162,1215,0.0,-2e-05,-2.9999999999999997e-05,-2e-05,1e-05,-4e-05,-1e-05,-2e-05,1
1163,1216,0.0,-2e-05,-2.9999999999999997e-05,-2e-05,1e-05,-4e-05,-1e-05,-2e-05,1
1164,1217,0.0,-2e-05,-2.9999999999999997e-05,-2e-05,1e-05,-4e-05,-1e-05,-2e-05,1
1165,1218,0.0,-2e-05,2.9999999999999997e-05,0.0,-1e-05,2e-05,-1e-05,0.0,1
1166,1219,0.0,-2e-05,2.9999999999999997e-05,0.0,-1e-05,2e-05,-1e-05,0.0,1
1167,1220,0.0,-2e-05,2.9999999999999997e-05,0.0,-1e-05,2e-05,-1e-05,0.0,1
1168,1221,0.0,-2e-05,2.9999999999999997e-05,0.0,-1e-05,2e-05,-1e-05,0.0,1
1169,1222,0.0,-2e-05,2.9999999999999997e-05,0.0,-1e-05,2e-05,-1e-05,0.0,1
1170,1223,0.0,-2e-05,2.9999999999999997e-05,0.0,-1e-05,2e-05,-1e-05,0.0,1
1171,1224,0.0,-2.9999999999999997e-05,-4e-05,-2.9999999999999997e-05,-1e-05,-1e-05,-1e-05,-1e-05,1
1172,1225,0.0,-2.9999999999999997e-05,-4e-05,-2.9999999999999997e-05,-1e-05,-1e-05,-1e-05,-1e-05,1
1173,1226,0.0,-2.9999999999999997e-05,-4e-05,-2.9999999999999997e-05,-1e-05,-1e-05,-1e-05,-1e-05,1
1174,1227,0.0,-2.9999999999999997e-05,-4e-05,-2.9999999999999997e-05,-1e-05,-1e-05,-1e-05,-1e-05,1
1175,1228,0.0,-2.9999999999999997e-05,-4e-05,-2.9999999999999997e-05,-1e-05,-1e-05,-1e-05,-1e-05,1
1176,1229,0.0,-2.9999999999999997e-05,-4e-05,-2.9999999999999997e-05,-1e-05,-1e-05,-1e-05,-1e-05,1
1177,1230,0.0,-2.9999999999999997e-05,-4e-05,-2.9999999999999997e-05,-1e-05,-1e-05,-1e-05,-1e-05,1
1178,1231,0.0,-2.9999999999999997e-05,-4e-05,-2.9999999999999997e-05,-1e-05,-1e-05,-1e-05,-1e-05,1
1179,1232,0.0,-2.9999999999999997e-05,-4e-05,-2.9999999999999997e-05,-1e-05,-1e-05,-1e-05,-1e-05,1
1180,1233,0.0,-2.9999999999999997e-05,-4e-05,-2.9999999999999997e-05,-1e-05,-1e-05,-1e-05,-1e-05,1
1181,1234,0.0,-2.9999999999999997e-05,-4e-05,-2.9999999999999997e-05,-1e-05,-1e-05,-1e-05,-1e-05,1
1182,1235,0.0,-2.9999999999999997e-05,-4e-05,-2.9999999999999997e-05,-1e-05,-1e-05,-1e-05,-1e-05,1
1183,1236,0.0,-2.9999999999999997e-05,-4e-05,-2.9999999999999997e-05,-1e-05,-1e-05,-1e-05,-1e-05,1
1184,1238,0.0,-2.9999999999999997e-05,-4e-05,-2.9999999999999997e-05,-1e-05,-1e-05,-1e-05,-1e-05,1
1185,1239,0.0,-2.9999999999999997e-05,-4e-05,-2.9999999999999997e-05,-1e-05,-1e-05,-1e-05,-1e-05,1
1186,1240,0.0,-2.9999999999999997e-05,-4e-05,-2.9999999999999997e-05,-1e-05,-1e-05,-1e-05,-1e-05,1
1187,1241,1e-05,-2e-05,1e-05,-5e-05,1e-05,-1e-05,-1e-05,0.0,1
1188,1242,-1e-05,-2e-05,1e-05,2e-05,-2.9999999999999997e-05,-1e-05,0.0,-1e-05,1
1189,1244,-1e-05,-2e-05,1e-05,2e-05,-2.9999999999999997e-05,-1e-05,0.0,-1e-05,1
1190,1245,-1e-05,-2e-05,1e-05,2e-05,-2.9999999999999997e-05,-1e-05,0.0,-1e-05,1
1191,1246,-1e-05,-2e-05,1e-05,2e-05,-2.9999999999999997e-05,-1e-05,0.0,-1e-05,1
1192,1247,-1e-05,-2e-05,1e-05,2e-05,-2.9999999999999997e-05,-1e-05,0.0,-1e-05,1
1193,1248,-1e-05,-2e-05,1e-05,2e-05,-2.9999999999999997e-05,-1e-05,0.0,-1e-05,1
1194,1249,-1e-05,-2e-05,1e-05,2e-05,-2.9999999999999997e-05,-1e-05,0.0,-1e-05,1
1195,1250,-1e-05,-2e-05,1e-05,2e-05,-2.9999999999999997e-05,-1e-05,0.0,-1e-05,1
1196,1251,-1e-05,-2e-05,1e-05,2e-05,-2.9999999999999997e-05,-1e-05,0.0,-1e-05,1
1197,1252,-1e-05,-2e-05,1e-05,2e-05,-2.9999999999999997e-05,-1e-05,0.0,-1e-05,1
1198,1253,-1e-05,-2e-05,1e-05,2e-05,-2.9999999999999997e-05,-1e-05,0.0,-1e-05,1
1199,1254,-1e-05,-2e-05,1e-05,2e-05,-2.9999999999999997e-05,-1e-05,0.0,-1e-05,1
1200,1255,-1e-05,-2e-05,1e-05,2e-05,-2.9999999999999997e-05,-1e-05,0.0,-1e-05,1
1201,1256,-1e-05,-2e-05,1e-05,2e-05,-2.9999999999999997e-05,-1e-05,0.0,-1e-05,1
1202,1257,-1e-05,-2e-05,1e-05,2e-05,-2.9999999999999997e-05,-1e-05,0.0,-1e-05,1
1203,1258,-1e-05,-2e-05,1e-05,2e-05,-2.9999999999999997e-05,-1e-05,0.0,-1e-05,1
1204,1259,-1e-05,-2e-05,1e-05,2e-05,-2.9999999999999997e-05,-1e-05,0.0,-1e-05,1
1205,1260,-1e-05,-2e-05,1e-05,2e-05,-2.9999999999999997e-05,-1e-05,0.0,-1e-05,1
1206,1261,-1e-05,-2e-05,1e-05,2e-05,-2.9999999999999997e-05,-1e-05,0.0,-1e-05,1
1207,1262,-1e-05,-2e-05,1e-05,2e-05,-2.9999999999999997e-05,-1e-05,0.0,-1e-05,1
1208,1263,-1e-05,-2e-05,1e-05,2e-05,-2.9999999999999997e-05,-1e-05,0.0,-1e-05,1
1209,1264,0.0,-2e-05,-1e-05,-1e-05,1e-05,-2e-05,-1e-05,0.0,1
1210,1265,-1e-05,0.0,-2.9999999999999997e-05,0.0,0.0,-2e-05,-1e-05,-1e-05,1
1211,1266,-1e-05,0.0,-2.9999999999999997e-05,0.0,0.0,-2e-05,-1e-05,-1e-05,1
1212,1267,-1e-05,0.0,-2.9999999999999997e-05,0.0,0.0,-2e-05,-1e-05,-1e-05,1
1213,1268,-1e-05,0.0,-2.9999999999999997e-05,0.0,0.0,-2e-05,-1e-05,-1e-05,1
1214,1269,-1e-05,0.0,-2.9999999999999997e-05,0.0,0.0,-2e-05,-1e-05,-1e-05,1
1215,1270,-1e-05,0.0,-2.9999999999999997e-05,0.0,0.0,-2e-05,-1e-05,-1e-05,1
1216,1271,-1e-05,0.0,-2.9999999999999997e-05,0.0,0.0,-2e-05,-1e-05,-1e-05,1
1217,1272,-1e-05,0.0,-2.9999999999999997e-05,0.0,0.0,-2e-05,-1e-05,-1e-05,1
1218,1273,-1e-05,0.0,-2.9999999999999997e-05,0.0,0.0,-2e-05,-1e-05,-1e-05,1
1219,1274,-1e-05,0.0,-2.9999999999999997e-05,0.0,0.0,-2e-05,-1e-05,-1e-05,1
1220,1275,-1e-05,0.0,-2.9999999999999997e-05,0.0,0.0,-2e-05,-1e-05,-1e-05,1
1221,1276,-1e-05,0.0,-2.9999999999999997e-05,0.0,0.0,-2e-05,-1e-05,-1e-05,1
1222,1277,-1e-05,0.0,-2.9999999999999997e-05,0.0,0.0,-2e-05,-1e-05,-1e-05,1
1223,1278,-1e-05,2e-05,0.0001,-5e-05,-2.9999999999999997e-05,0.0,-1e-05,1e-05,1
1224,1279,-1e-05,2e-05,0.0001,-5e-05,-2.9999999999999997e-05,0.0,-1e-05,1e-05,1
1225,1280,-1e-05,2e-05,0.0001,-5e-05,-2.9999999999999997e-05,0.0,-1e-05,1e-05,1
1226,1281,-1e-05,2e-05,0.0001,-5e-05,-2.9999999999999997e-05,0.0,-1e-05,1e-05,1
1227,1282,-1e-05,2e-05,0.0001,-5e-05,-2.9999999999999997e-05,0.0,-1e-05,1e-05,1
1228,1283,-1e-05,2e-05,0.0001,-5e-05,-2.9999999999999997e-05,0.0,-1e-05,1e-05,1
1229,1284,-2e-05,-2e-05,0.0,2e-05,1e-05,-1e-05,1e-05,-1e-05,1
1230,1286,-2e-05,-2e-05,0.0,2e-05,1e-05,-1e-05,1e-05,-1e-05,1
1231,1287,-2e-05,-2e-05,0.0,2e-05,1e-05,-1e-05,1e-05,-1e-05,1
1232,1288,-2e-05,-2e-05,0.0,2e-05,1e-05,-1e-05,1e-05,-1e-05,1
1233,1289,-2e-05,-2e-05,0.0,2e-05,1e-05,-1e-05,1e-05,-1e-05,1
1234,1290,-2e-05,-2e-05,0.0,2e-05,1e-05,-1e-05,1e-05,-1e-05,1
1235,1291,-2e-05,-2e-05,0.0,2e-05,1e-05,-1e-05,1e-05,-1e-05,1
1236,1292,-2e-05,-2e-05,0.0,2e-05,1e-05,-1e-05,1e-05,-1e-05,1
1237,1293,-2e-05,-2e-05,0.0,2e-05,1e-05,-1e-05,1e-05,-1e-05,1
1238,1294,-2e-05,-2e-05,0.0,2e-05,1e-05,-1e-05,1e-05,-1e-05,1
1239,1295,-2e-05,-2e-05,0.0,2e-05,1e-05,-1e-05,1e-05,-1e-05,1
1240,1296,-2e-05,-2e-05,0.0,2e-05,1e-05,-1e-05,1e-05,-1e-05,1
1241,1297,-2e-05,-2e-05,0.0,2e-05,1e-05,-1e-05,1e-05,-1e-05,1
1242,1298,-2e-05,-2e-05,0.0,2e-05,1e-05,-1e-05,1e-05,-1e-05,1
1243,1299,-2e-05,-2e-05,0.0,2e-05,1e-05,-1e-05,1e-05,-1e-05,1
1244,1300,-2e-05,-2e-05,0.0,2e-05,1e-05,-1e-05,1e-05,-1e-05,1
1245,1301,-2.9999999999999997e-05,0.0,-0.00011,-5.9999999999999995e-05,1e-05,-2e-05,0.0,-2e-05,1
1246,1302,-2.9999999999999997e-05,0.0,-0.00011,-5.9999999999999995e-05,1e-05,-2e-05,0.0,-2e-05,1
1247,1303,-1e-05,0.0,4e-05,1e-05,-2e-05,1e-05,-1e-05,1e-05,1
1248,1304,-1e-05,0.0,4e-05,1e-05,-2e-05,1e-05,-1e-05,1e-05,1
1249,1305,-1e-05,0.0,4e-05,1e-05,-2e-05,1e-05,-1e-05,1e-05,1
1250,1306,-1e-05,0.0,4e-05,1e-05,-2e-05,1e-05,-1e-05,1e-05,1
1251,1307,-1e-05,0.0,4e-05,1e-05,-2e-05,1e-05,-1e-05,1e-05,1
1252,1308,-1e-05,0.0,4e-05,1e-05,-2e-05,1e-05,-1e-05,1e-05,1
1253,1309,-1e-05,0.0,4e-05,1e-05,-2e-05,1e-05,-1e-05,1e-05,1
1254,1310,-1e-05,0.0,4e-05,1e-05,-2e-05,1e-05,-1e-05,1e-05,1
1255,1311,-1e-05,0.0,4e-05,1e-05,-2e-05,1e-05,-1e-05,1e-05,1
1256,1312,-1e-05,0.0,4e-05,1e-05,-2e-05,1e-05,-1e-05,1e-05,1
1257,1313,-1e-05,0.0,4e-05,1e-05,-2e-05,1e-05,-1e-05,1e-05,1
1258,1314,-1e-05,0.0,4e-05,1e-05,-2e-05,1e-05,-1e-05,1e-05,1
1259,1315,-1e-05,0.0,4e-05,1e-05,-2e-05,1e-05,-1e-05,1e-05,1
1260,1316,-1e-05,0.0,4e-05,1e-05,-2e-05,1e-05,-1e-05,1e-05,1
1261,1317,-1e-05,0.0,4e-05,1e-05,-2e-05,1e-05,-1e-05,1e-05,1
1262,1318,-1e-05,0.0,4e-05,1e-05,-2e-05,1e-05,-1e-05,1e-05,1
1263,1319,-1e-05,0.0,4e-05,1e-05,-2e-05,1e-05,-1e-05,1e-05,1
1264,1320,-1e-05,0.0,4e-05,1e-05,-2e-05,1e-05,-1e-05,1e-05,1
1265,1321,-1e-05,0.0,4e-05,1e-05,-2e-05,1e-05,-1e-05,1e-05,1
1266,1322,-1e-05,0.0,4e-05,1e-05,-2e-05,1e-05,-1e-05,1e-05,1
1267,1323,0.0,1e-05,7e-05,-2e-05,-2e-05,-2e-05,0.0,-1e-05,1
1268,1324,0.0,1e-05,7e-05,-2e-05,-2e-05,-2e-05,0.0,-1e-05,1
1269,1325,0.0,1e-05,7e-05,-2e-05,-2e-05,-2e-05,0.0,-1e-05,1
1270,1326,0.0,1e-05,7e-05,-2e-05,-2e-05,-2e-05,0.0,-1e-05,1
1271,1327,0.0,1e-05,7e-05,-2e-05,-2e-05,-2e-05,0.0,-1e-05,1
1272,1328,0.0,1e-05,7e-05,-2e-05,-2e-05,-2e-05,0.0,-1e-05,1
1273,1329,0.0,1e-05,7e-05,-2e-05,-2e-05,-2e-05,0.0,-1e-05,1
1274,1330,-1e-05,1e-05,-9e-05,-4e-05,0.0,-2e-05,-2.9999999999999997e-05,0.0,1
1275,1331,-1e-05,1e-05,-9e-05,-4e-05,0.0,-2e-05,-2.9999999999999997e-05,0.0,1
1276,1332,-1e-05,1e-05,-9e-05,-4e-05,0.0,-2e-05,-2.9999999999999997e-05,0.0,1
1277,1333,-1e-05,1e-05,-9e-05,-4e-05,0.0,-2e-05,-2.9999999999999997e-05,0.0,1
1278,1334,-1e-05,1e-05,-9e-05,-4e-05,0.0,-2e-05,-2.9999999999999997e-05,0.0,1
1279,1335,-1e-05,1e-05,-9e-05,-4e-05,0.0,-2e-05,-2.9999999999999997e-05,0.0,1
1280,1336,-1e-05,1e-05,-9e-05,-4e-05,0.0,-2e-05,-2.9999999999999997e-05,0.0,1
1281,1339,0.0,-2.9999999999999997e-05,-2.9999999999999997e-05,5e-05,-1e-05,1e-05,-2e-05,-1e-05,1
1282,1340,0.0,-2.9999999999999997e-05,-2.9999999999999997e-05,5e-05,-1e-05,1e-05,-2e-05,-1e-05,1
1283,1341,0.0,-2.9999999999999997e-05,-2.9999999999999997e-05,5e-05,-1e-05,1e-05,-2e-05,-1e-05,1
1284,1342,0.0,-2.9999999999999997e-05,-2.9999999999999997e-05,5e-05,-1e-05,1e-05,-2e-05,-1e-05,1
1285,1343,0.0,-2.9999999999999997e-05,-2.9999999999999997e-05,5e-05,-1e-05,1e-05,-2e-05,-1e-05,1
1286,1344,0.0,-2.9999999999999997e-05,-2.9999999999999997e-05,5e-05,-1e-05,1e-05,-2e-05,-1e-05,1
1287,1345,-2e-05,-2e-05,2.9999999999999997e-05,-5e-05,-1e-05,-1e-05,0.0,-2e-05,1
1288,1346,-2e-05,-2e-05,2.9999999999999997e-05,-5e-05,-1e-05,-1e-05,0.0,-2e-05,1
1289,1347,-2e-05,-2e-05,2.9999999999999997e-05,-5e-05,-1e-05,-1e-05,0.0,-2e-05,1
1290,1348,-2e-05,-2e-05,2.9999999999999997e-05,-5e-05,-1e-05,-1e-05,0.0,-2e-05,1
1291,1349,-2e-05,-2e-05,2.9999999999999997e-05,-5e-05,-1e-05,-1e-05,0.0,-2e-05,1
1292,1350,-2e-05,-2e-05,2.9999999999999997e-05,-5e-05,-1e-05,-1e-05,0.0,-2e-05,1
1293,1351,-2e-05,-2e-05,2.9999999999999997e-05,-5e-05,-1e-05,-1e-05,0.0,-2e-05,1
1294,1352,-2e-05,-2e-05,2.9999999999999997e-05,-5e-05,-1e-05,-1e-05,0.0,-2e-05,1
1295,1353,-2e-05,-2e-05,2.9999999999999997e-05,-5e-05,-1e-05,-1e-05,0.0,-2e-05,1
1296,1354,-2e-05,-2e-05,2.9999999999999997e-05,-5e-05,-1e-05,-1e-05,0.0,-2e-05,1
1297,1355,-2e-05,-2e-05,2.9999999999999997e-05,-5e-05,-1e-05,-1e-05,0.0,-2e-05,1
1298,1356,-2e-05,-2e-05,2.9999999999999997e-05,-5e-05,-1e-05,-1e-05,0.0,-2e-05,1
1299,1357,-2e-05,-2e-05,2.9999999999999997e-05,-5e-05,-1e-05,-1e-05,0.0,-2e-05,1
1300,1358,-2e-05,-2e-05,2.9999999999999997e-05,-5e-05,-1e-05,-1e-05,0.0,-2e-05,1
1301,1359,-2e-05,-2e-05,2.9999999999999997e-05,-5e-05,-1e-05,-1e-05,0.0,-2e-05,1
1302,1360,-2e-05,-2e-05,2.9999999999999997e-05,-5e-05,-1e-05,-1e-05,0.0,-2e-05,1
1303,1361,-1e-05,1e-05,-1e-05,-2e-05,-4e-05,1e-05,-1e-05,-1e-05,1
1304,1362,0.0,1e-05,-2.9999999999999997e-05,4e-05,0.0,-2e-05,0.0,0.0,1
1305,1363,0.0,1e-05,-2.9999999999999997e-05,4e-05,0.0,-2e-05,0.0,0.0,1
1306,1364,0.0,1e-05,-2.9999999999999997e-05,4e-05,0.0,-2e-05,0.0,0.0,1
1307,1365,0.0,1e-05,-2.9999999999999997e-05,4e-05,0.0,-2e-05,0.0,0.0,1
1308,1366,0.0,1e-05,-2.9999999999999997e-05,4e-05,0.0,-2e-05,0.0,0.0,1
1309,1367,0.0,1e-05,-2.9999999999999997e-05,4e-05,0.0,-2e-05,0.0,0.0,1
1310,1368,0.0,1e-05,-2.9999999999999997e-05,4e-05,0.0,-2e-05,0.0,0.0,1
1311,1369,0.0,1e-05,-2.9999999999999997e-05,4e-05,0.0,-2e-05,0.0,0.0,1
1312,1370,0.0,1e-05,-2.9999999999999997e-05,4e-05,0.0,-2e-05,0.0,0.0,1
1313,1371,0.0,1e-05,-2.9999999999999997e-05,4e-05,0.0,-2e-05,0.0,0.0,1
1314,1372,0.0,1e-05,-2.9999999999999997e-05,4e-05,0.0,-2e-05,0.0,0.0,1
1315,1373,0.0,1e-05,-2.9999999999999997e-05,4e-05,0.0,-2e-05,0.0,0.0,1
1316,1374,0.0,1e-05,-2.9999999999999997e-05,4e-05,0.0,-2e-05,0.0,0.0,1
1317,1375,0.0,1e-05,-2.9999999999999997e-05,4e-05,0.0,-2e-05,0.0,0.0,1
1318,1376,0.0,1e-05,-2.9999999999999997e-05,4e-05,0.0,-2e-05,0.0,0.0,1
1319,1377,0.0,1e-05,-2.9999999999999997e-05,4e-05,0.0,-2e-05,0.0,0.0,1
1320,1378,0.0,1e-05,-2.9999999999999997e-05,4e-05,0.0,-2e-05,0.0,0.0,1
1321,1379,0.0,1e-05,-2.9999999999999997e-05,4e-05,0.0,-2e-05,0.0,0.0,1
1322,1380,0.0,1e-05,-2.9999999999999997e-05,4e-05,0.0,-2e-05,0.0,0.0,1
1323,1381,0.0,1e-05,-2.9999999999999997e-05,4e-05,0.0,-2e-05,0.0,0.0,1
1324,1382,0.0,1e-05,-2.9999999999999997e-05,4e-05,0.0,-2e-05,0.0,0.0,1
1325,1383,-1e-05,-1e-05,-2.9999999999999997e-05,-5.9999999999999995e-05,2e-05,-1e-05,-2e-05,-1e-05,1
1326,1384,-1e-05,-2.9999999999999997e-05,-5e-05,5.9999999999999995e-05,0.0,-2.9999999999999997e-05,1e-05,-2e-05,1
1327,1385,-1e-05,-2.9999999999999997e-05,-0.00026000000000000003,2.9999999999999997e-05,-1e-05,-1e-05,-2.9999999999999997e-05,-2e-05,1
1328,1386,-1e-05,-2.9999999999999997e-05,-0.00026000000000000003,2.9999999999999997e-05,-1e-05,-1e-05,-2.9999999999999997e-05,-2e-05,1
1329,1388,-1e-05,-2.9999999999999997e-05,-0.00026000000000000003,2.9999999999999997e-05,-1e-05,-1e-05,-2.9999999999999997e-05,-2e-05,1
1330,1390,-1e-05,-2.9999999999999997e-05,-0.00026000000000000003,2.9999999999999997e-05,-1e-05,-1e-05,-2.9999999999999997e-05,-2e-05,1
1331,1391,-1e-05,-2.9999999999999997e-05,-0.00026000000000000003,2.9999999999999997e-05,-1e-05,-1e-05,-2.9999999999999997e-05,-2e-05,1
1332,1392,-1e-05,-2.9999999999999997e-05,-0.00026000000000000003,2.9999999999999997e-05,-1e-05,-1e-05,-2.9999999999999997e-05,-2e-05,1
1333,1393,-1e-05,-2.9999999999999997e-05,-0.00026000000000000003,2.9999999999999997e-05,-1e-05,-1e-05,-2.9999999999999997e-05,-2e-05,1
1334,1394,-1e-05,-2.9999999999999997e-05,-0.00026000000000000003,2.9999999999999997e-05,-1e-05,-1e-05,-2.9999999999999997e-05,-2e-05,1
1335,1395,-1e-05,-2.9999999999999997e-05,-0.00026000000000000003,2.9999999999999997e-05,-1e-05,-1e-05,-2.9999999999999997e-05,-2e-05,1
1336,1396,-1e-05,-2.9999999999999997e-05,-0.00026000000000000003,2.9999999999999997e-05,-1e-05,-1e-05,-2.9999999999999997e-05,-2e-05,1
1337,1397,-1e-05,-2.9999999999999997e-05,-0.00026000000000000003,2.9999999999999997e-05,-1e-05,-1e-05,-2.9999999999999997e-05,-2e-05,1
1338,1398,-2e-05,0.0,2.9999999999999997e-05,1e-05,-1e-05,-1e-05,0.0,0.0,1
1339,1399,-2e-05,0.0,2.9999999999999997e-05,1e-05,-1e-05,-1e-05,0.0,0.0,1
1340,1400,-2e-05,0.0,2.9999999999999997e-05,1e-05,-1e-05,-1e-05,0.0,0.0,1
1341,1401,-2e-05,0.0,2.9999999999999997e-05,1e-05,-1e-05,-1e-05,0.0,0.0,1
1342,1402,-2e-05,0.0,2.9999999999999997e-05,1e-05,-1e-05,-1e-05,0.0,0.0,1
1343,1403,-2e-05,0.0,2.9999999999999997e-05,1e-05,-1e-05,-1e-05,0.0,0.0,1
1344,1404,-2e-05,0.0,2.9999999999999997e-05,1e-05,-1e-05,-1e-05,0.0,0.0,1
1345,1405,-2e-05,0.0,2.9999999999999997e-05,1e-05,-1e-05,-1e-05,0.0,0.0,1
1346,1406,-2e-05,0.0,2.9999999999999997e-05,1e-05,-1e-05,-1e-05,0.0,0.0,1
1347,1407,-2e-05,0.0,2.9999999999999997e-05,1e-05,-1e-05,-1e-05,0.0,0.0,1
1348,1408,-2e-05,0.0,2.9999999999999997e-05,1e-05,-1e-05,-1e-05,0.0,0.0,1
1349,1409,-2e-05,0.0,2.9999999999999997e-05,1e-05,-1e-05,-1e-05,0.0,0.0,1
1350,1410,-2e-05,0.0,2.9999999999999997e-05,1e-05,-1e-05,-1e-05,0.0,0.0,1
1351,1411,-2e-05,0.0,2.9999999999999997e-05,1e-05,-1e-05,-1e-05,0.0,0.0,1
1352,1412,1e-05,0.0,2.9999999999999997e-05,-4e-05,-2e-05,-1e-05,-1e-05,-2e-05,1
1353,1413,1e-05,0.0,2.9999999999999997e-05,-4e-05,-2e-05,-1e-05,-1e-05,-2e-05,1
1354,1414,1e-05,0.0,2.9999999999999997e-05,-4e-05,-2e-05,-1e-05,-1e-05,-2e-05,1
1355,1415,1e-05,0.0,2.9999999999999997e-05,-4e-05,-2e-05,-1e-05,-1e-05,-2e-05,1
1356,1416,1e-05,0.0,2.9999999999999997e-05,-4e-05,-2e-05,-1e-05,-1e-05,-2e-05,1
1357,1417,1e-05,0.0,2.9999999999999997e-05,-4e-05,-2e-05,-1e-05,-1e-05,-2e-05,1
1358,1418,1e-05,0.0,2.9999999999999997e-05,-4e-05,-2e-05,-1e-05,-1e-05,-2e-05,1
1359,1419,1e-05,0.0,2.9999999999999997e-05,-4e-05,-2e-05,-1e-05,-1e-05,-2e-05,1
1360,1420,1e-05,0.0,2.9999999999999997e-05,-4e-05,-2e-05,-1e-05,-1e-05,-2e-05,1
1361,1421,-2e-05,-1e-05,1e-05,2e-05,1e-05,0.0,-2e-05,-2e-05,1
1362,1422,-1e-05,-2.9999999999999997e-05,1e-05,-2e-05,-2e-05,-1e-05,-1e-05,2e-05,1
1363,1423,-1e-05,-2.9999999999999997e-05,1e-05,-2e-05,-2e-05,-1e-05,-1e-05,2e-05,1
1364,1424,-1e-05,-2.9999999999999997e-05,1e-05,-2e-05,-2e-05,-1e-05,-1e-05,2e-05,1
1365,1425,-1e-05,-2.9999999999999997e-05,1e-05,-2e-05,-2e-05,-1e-05,-1e-05,2e-05,1
1366,1426,-1e-05,-2.9999999999999997e-05,1e-05,-2e-05,-2e-05,-1e-05,-1e-05,2e-05,1
1367,1427,-1e-05,-2.9999999999999997e-05,1e-05,-2e-05,-2e-05,-1e-05,-1e-05,2e-05,1
1368,1428,-1e-05,-2.9999999999999997e-05,1e-05,-2e-05,-2e-05,-1e-05,-1e-05,2e-05,1
1369,1429,-1e-05,-2.9999999999999997e-05,1e-05,-2e-05,-2e-05,-1e-05,-1e-05,2e-05,1
1370,1430,-1e-05,-2.9999999999999997e-05,1e-05,-2e-05,-2e-05,-1e-05,-1e-05,2e-05,1
1371,1431,-1e-05,-2.9999999999999997e-05,1e-05,-2e-05,-2e-05,-1e-05,-1e-05,2e-05,1
1372,1432,-1e-05,-2.9999999999999997e-05,1e-05,-2e-05,-2e-05,-1e-05,-1e-05,2e-05,1
1373,1433,-1e-05,-2.9999999999999997e-05,1e-05,-2e-05,-2e-05,-1e-05,-1e-05,2e-05,1
1374,1434,-1e-05,-2.9999999999999997e-05,1e-05,-2e-05,-2e-05,-1e-05,-1e-05,2e-05,1
1375,1435,-1e-05,-2.9999999999999997e-05,1e-05,-2e-05,-2e-05,-1e-05,-1e-05,2e-05,1
1376,1436,-1e-05,-2.9999999999999997e-05,1e-05,-2e-05,-2e-05,-1e-05,-1e-05,2e-05,1
1377,1438,-1e-05,-2.9999999999999997e-05,1e-05,-2e-05,-2e-05,-1e-05,-1e-05,2e-05,1
1378,1439,-1e-05,-2.9999999999999997e-05,1e-05,-2e-05,-2e-05,-1e-05,-1e-05,2e-05,1
1379,1440,-1e-05,-2.9999999999999997e-05,1e-05,-2e-05,-2e-05,-1e-05,-1e-05,2e-05,1
1380,1441,-1e-05,-2.9999999999999997e-05,1e-05,-2e-05,-2e-05,-1e-05,-1e-05,2e-05,1
1381,1442,-1e-05,-2.9999999999999997e-05,1e-05,-2e-05,-2e-05,-1e-05,-1e-05,2e-05,1
1382,1443,0.0,0.0,-4e-05,1e-05,-2e-05,0.0,-1e-05,-2e-05,1
1383,1444,0.0,-1e-05,2.9999999999999997e-05,0.0,-1e-05,-2e-05,-1e-05,-1e-05,1
1384,1445,-1e-05,0.0,1e-05,-1e-05,-1e-05,0.0,-1e-05,2e-05,1
1385,1446,-1e-05,0.0,1e-05,-1e-05,-1e-05,0.0,-1e-05,2e-05,1
1386,1447,-1e-05,0.0,1e-05,-1e-05,-1e-05,0.0,-1e-05,2e-05,1
1387,1448,-1e-05,0.0,1e-05,-1e-05,-1e-05,0.0,-1e-05,2e-05,1
1388,1449,-1e-05,0.0,1e-05,-1e-05,-1e-05,0.0,-1e-05,2e-05,1
1389,1450,-1e-05,0.0,1e-05,-1e-05,-1e-05,0.0,-1e-05,2e-05,1
1390,1451,-1e-05,0.0,1e-05,-1e-05,-1e-05,0.0,-1e-05,2e-05,1
1391,1452,-1e-05,0.0,1e-05,-1e-05,-1e-05,0.0,-1e-05,2e-05,1
1392,1453,-1e-05,0.0,1e-05,-1e-05,-1e-05,0.0,-1e-05,2e-05,1
1393,1454,-1e-05,0.0,1e-05,-1e-05,-1e-05,0.0,-1e-05,2e-05,1
1394,1455,-1e-05,0.0,1e-05,-1e-05,-1e-05,0.0,-1e-05,2e-05,1
1395,1456,-1e-05,0.0,1e-05,-1e-05,-1e-05,0.0,-1e-05,2e-05,1
1396,1457,-1e-05,0.0,1e-05,-1e-05,-1e-05,0.0,-1e-05,2e-05,1
1397,1458,1e-05,0.0,0.0,-4e-05,0.0,-1e-05,-1e-05,-2e-05,1
1398,1459,1e-05,0.0,0.0,-4e-05,0.0,-1e-05,-1e-05,-2e-05,1
1399,1460,1e-05,0.0,0.0,-4e-05,0.0,-1e-05,-1e-05,-2e-05,1
1400,1461,1e-05,0.0,0.0,-4e-05,0.0,-1e-05,-1e-05,-2e-05,1
1401,1462,1e-05,0.0,0.0,-4e-05,0.0,-1e-05,-1e-05,-2e-05,1
1402,1463,1e-05,0.0,0.0,-4e-05,0.0,-1e-05,-1e-05,-2e-05,1
1403,1464,1e-05,0.0,0.0,-4e-05,0.0,-1e-05,-1e-05,-2e-05,1
1404,1465,-1e-05,-2e-05,5.9999999999999995e-05,0.0001,-2.9999999999999997e-05,-1e-05,0.0,0.0,1
1405,1466,-1e-05,-2e-05,5.9999999999999995e-05,0.0001,-2.9999999999999997e-05,-1e-05,0.0,0.0,1
1406,1467,-1e-05,-2e-05,5.9999999999999995e-05,0.0001,-2.9999999999999997e-05,-1e-05,0.0,0.0,1
1407,1468,-1e-05,-2e-05,5.9999999999999995e-05,0.0001,-2.9999999999999997e-05,-1e-05,0.0,0.0,1
1408,1469,-1e-05,-2e-05,5.9999999999999995e-05,0.0001,-2.9999999999999997e-05,-1e-05,0.0,0.0,1
1409,1470,-1e-05,-2e-05,5.9999999999999995e-05,0.0001,-2.9999999999999997e-05,-1e-05,0.0,0.0,1
1410,1471,-1e-05,-2e-05,5.9999999999999995e-05,0.0001,-2.9999999999999997e-05,-1e-05,0.0,0.0,1
1411,1472,-1e-05,-2e-05,5.9999999999999995e-05,0.0001,-2.9999999999999997e-05,-1e-05,0.0,0.0,1
1412,1473,-1e-05,-2e-05,5.9999999999999995e-05,0.0001,-2.9999999999999997e-05,-1e-05,0.0,0.0,1
1413,1474,-1e-05,-2e-05,5.9999999999999995e-05,0.0001,-2.9999999999999997e-05,-1e-05,0.0,0.0,1
1414,1475,-1e-05,-2e-05,5.9999999999999995e-05,0.0001,-2.9999999999999997e-05,-1e-05,0.0,0.0,1
1415,1476,-1e-05,-2e-05,5.9999999999999995e-05,0.0001,-2.9999999999999997e-05,-1e-05,0.0,0.0,1
1416,1477,-1e-05,-2e-05,5.9999999999999995e-05,0.0001,-2.9999999999999997e-05,-1e-05,0.0,0.0,1
1417,1478,-1e-05,-2e-05,5.9999999999999995e-05,0.0001,-2.9999999999999997e-05,-1e-05,0.0,0.0,1
1418,1479,-1e-05,-2e-05,5.9999999999999995e-05,0.0001,-2.9999999999999997e-05,-1e-05,0.0,0.0,1
1419,1480,-1e-05,-2e-05,5.9999999999999995e-05,0.0001,-2.9999999999999997e-05,-1e-05,0.0,0.0,1
1420,1481,-1e-05,-4e-05,-2e-05,-2e-05,-4e-05,0.0,-2e-05,0.0,1
1421,1482,-1e-05,-1e-05,-5.9999999999999995e-05,-7e-05,0.0,0.0,-1e-05,-4e-05,1
1422,1483,-1e-05,-1e-05,-5.9999999999999995e-05,-7e-05,0.0,0.0,-1e-05,-4e-05,1
1423,1484,-1e-05,-1e-05,-5.9999999999999995e-05,-7e-05,0.0,0.0,-1e-05,-4e-05,1
1424,1485,-1e-05,-1e-05,-5.9999999999999995e-05,-7e-05,0.0,0.0,-1e-05,-4e-05,1
1425,1486,-1e-05,-1e-05,-5.9999999999999995e-05,-7e-05,0.0,0.0,-1e-05,-4e-05,1
1426,1488,-1e-05,-1e-05,-5.9999999999999995e-05,-7e-05,0.0,0.0,-1e-05,-4e-05,1
1427,1489,-1e-05,-1e-05,-5.9999999999999995e-05,-7e-05,0.0,0.0,-1e-05,-4e-05,1
1428,1490,-1e-05,-1e-05,-5.9999999999999995e-05,-7e-05,0.0,0.0,-1e-05,-4e-05,1
1429,1491,-1e-05,-1e-05,-5.9999999999999995e-05,-7e-05,0.0,0.0,-1e-05,-4e-05,1
1430,1492,-1e-05,-1e-05,-5.9999999999999995e-05,-7e-05,0.0,0.0,-1e-05,-4e-05,1
1431,1493,-1e-05,-1e-05,-5.9999999999999995e-05,-7e-05,0.0,0.0,-1e-05,-4e-05,1
1432,1494,-1e-05,-1e-05,-5.9999999999999995e-05,-7e-05,0.0,0.0,-1e-05,-4e-05,1
1433,1495,-1e-05,-1e-05,-5.9999999999999995e-05,-7e-05,0.0,0.0,-1e-05,-4e-05,1
1434,1496,-1e-05,-1e-05,-5.9999999999999995e-05,-7e-05,0.0,0.0,-1e-05,-4e-05,1
1435,1497,-1e-05,-1e-05,-5.9999999999999995e-05,-7e-05,0.0,0.0,-1e-05,-4e-05,1
1436,1498,-1e-05,-1e-05,-5.9999999999999995e-05,-7e-05,0.0,0.0,-1e-05,-4e-05,1
1437,1499,-1e-05,-1e-05,-5.9999999999999995e-05,-7e-05,0.0,0.0,-1e-05,-4e-05,1
1438,1500,-1e-05,-1e-05,-5.9999999999999995e-05,-7e-05,0.0,0.0,-1e-05,-4e-05,1
1439,1501,-1e-05,-1e-05,-5.9999999999999995e-05,-7e-05,0.0,0.0,-1e-05,-4e-05,1
1440,1502,-1e-05,-1e-05,-5.9999999999999995e-05,-7e-05,0.0,0.0,-1e-05,-4e-05,1
1441,1503,-2e-05,-2e-05,1e-05,0.0,-2.9999999999999997e-05,0.0,-1e-05,0.0,1
1442,1504,-1e-05,-1e-05,-5e-05,1e-05,0.0,-1e-05,0.0,-2e-05,1
1443,1505,0.0,0.0,-1e-05,-2e-05,-4e-05,-1e-05,-2e-05,0.0,1
1444,1506,0.0,0.0,-1e-05,-2e-05,-4e-05,-1e-05,-2e-05,0.0,1
1445,1507,0.0,0.0,-1e-05,-2e-05,-4e-05,-1e-05,-2e-05,0.0,1
1446,1508,0.0,0.0,-1e-05,-2e-05,-4e-05,-1e-05,-2e-05,0.0,1
1447,1509,0.0,0.0,-1e-05,-2e-05,-4e-05,-1e-05,-2e-05,0.0,1
1448,1510,0.0,0.0,-1e-05,-2e-05,-4e-05,-1e-05,-2e-05,0.0,1
1449,1511,0.0,0.0,-1e-05,-2e-05,-4e-05,-1e-05,-2e-05,0.0,1
1450,1512,0.0,0.0,-1e-05,-2e-05,-4e-05,-1e-05,-2e-05,0.0,1
1451,1513,0.0,0.0,-1e-05,-2e-05,-4e-05,-1e-05,-2e-05,0.0,1
1452,1514,0.0,0.0,-1e-05,-2e-05,-4e-05,-1e-05,-2e-05,0.0,1
1453,1515,0.0,0.0,-1e-05,-2e-05,-4e-05,-1e-05,-2e-05,0.0,1
1454,1516,0.0,0.0,-1e-05,-2e-05,-4e-05,-1e-05,-2e-05,0.0,1
1455,1517,0.0,0.0,-1e-05,-2e-05,-4e-05,-1e-05,-2e-05,0.0,1
1456,1518,0.0,0.0,-1e-05,-2e-05,-4e-05,-1e-05,-2e-05,0.0,1
1457,1519,0.0,0.0,-1e-05,-2e-05,-4e-05,-1e-05,-2e-05,0.0,1
1458,1520,0.0,0.0,-1e-05,-2e-05,-4e-05,-1e-05,-2e-05,0.0,1
1459,1521,0.0,0.0,-1e-05,-2e-05,-4e-05,-1e-05,-2e-05,0.0,1
1460,1522,0.0,0.0,-1e-05,-2e-05,-4e-05,-1e-05,-2e-05,0.0,1
1461,1523,0.0,0.0,-1e-05,-2e-05,-4e-05,-1e-05,-2e-05,0.0,1
1462,1524,0.0,0.0,-1e-05,-2e-05,-4e-05,-1e-05,-2e-05,0.0,1
1463,1525,0.0,0.0,-1e-05,-2e-05,-4e-05,-1e-05,-2e-05,0.0,1
1464,1526,0.0,0.0,-7e-05,-4e-05,-2.9999999999999997e-05,-1e-05,-2e-05,1e-05,1
1465,1527,-1e-05,-1e-05,-1e-05,4e-05,-1e-05,-1e-05,-1e-05,1e-05,1
1466,1528,-2.9999999999999997e-05,-2e-05,-1e-05,-4e-05,-1e-05,-1e-05,-1e-05,-1e-05,1
1467,1529,-2.9999999999999997e-05,-2e-05,-1e-05,-4e-05,-1e-05,-1e-05,-1e-05,-1e-05,1
1468,1530,-2.9999999999999997e-05,-2e-05,-1e-05,-4e-05,-1e-05,-1e-05,-1e-05,-1e-05,1
1469,1531,-2.9999999999999997e-05,-2e-05,-1e-05,-4e-05,-1e-05,-1e-05,-1e-05,-1e-05,1
1470,1532,-2.9999999999999997e-05,-2e-05,-1e-05,-4e-05,-1e-05,-1e-05,-1e-05,-1e-05,1
1471,1533,-2.9999999999999997e-05,-2e-05,-1e-05,-4e-05,-1e-05,-1e-05,-1e-05,-1e-05,1
1472,1534,-2.9999999999999997e-05,-2e-05,-1e-05,-4e-05,-1e-05,-1e-05,-1e-05,-1e-05,1
1473,1535,-2.9999999999999997e-05,-2e-05,-1e-05,-4e-05,-1e-05,-1e-05,-1e-05,-1e-05,1
1474,1536,-2.9999999999999997e-05,-2e-05,-1e-05,-4e-05,-1e-05,-1e-05,-1e-05,-1e-05,1
1475,1538,-2.9999999999999997e-05,-2e-05,-1e-05,-4e-05,-1e-05,-1e-05,-1e-05,-1e-05,1
1476,1539,-2.9999999999999997e-05,-2e-05,-1e-05,-4e-05,-1e-05,-1e-05,-1e-05,-1e-05,1
1477,1540,-2.9999999999999997e-05,-2e-05,-1e-05,-4e-05,-1e-05,-1e-05,-1e-05,-1e-05,1
1478,1541,1e-05,-1e-05,4e-05,-2e-05,0.0,0.0,0.0,-2e-05,1
1479,1542,0.0,0.0,1e-05,-4e-05,0.0,0.0,1e-05,0.0,1
1480,1543,0.0,0.0,1e-05,-4e-05,0.0,0.0,1e-05,0.0,1
1481,1544,0.0,0.0,1e-05,-4e-05,0.0,0.0,1e-05,0.0,1
1482,1545,0.0,0.0,1e-05,-4e-05,0.0,0.0,1e-05,0.0,1
1483,1546,0.0,0.0,1e-05,-4e-05,0.0,0.0,1e-05,0.0,1
1484,1547,0.0,0.0,1e-05,-4e-05,0.0,0.0,1e-05,0.0,1
1485,1548,0.0,0.0,1e-05,-4e-05,0.0,0.0,1e-05,0.0,1
1486,1549,0.0,0.0,1e-05,-4e-05,0.0,0.0,1e-05,0.0,1
1487,1550,0.0,0.0,1e-05,-4e-05,0.0,0.0,1e-05,0.0,1
1488,1551,0.0,0.0,1e-05,-4e-05,0.0,0.0,1e-05,0.0,1
1489,1552,0.0,0.0,1e-05,-4e-05,0.0,0.0,1e-05,0.0,1
1490,1553,0.0,0.0,1e-05,-4e-05,0.0,0.0,1e-05,0.0,1
1491,1554,0.0,0.0,1e-05,-4e-05,0.0,0.0,1e-05,0.0,1
1492,1555,0.0,0.0,1e-05,-4e-05,0.0,0.0,1e-05,0.0,1
1493,1556,0.0,0.0,1e-05,-4e-05,0.0,0.0,1e-05,0.0,1
1494,1557,0.0,0.0,1e-05,-4e-05,0.0,0.0,1e-05,0.0,1
1495,1558,0.0,0.0,1e-05,-4e-05,0.0,0.0,1e-05,0.0,1
1496,1559,0.0,0.0,1e-05,-4e-05,0.0,0.0,1e-05,0.0,1
1497,1560,0.0,0.0,1e-05,-4e-05,0.0,0.0,1e-05,0.0,1
1498,1561,0.0,0.0,1e-05,-4e-05,0.0,0.0,1e-05,0.0,1
1499,1562,0.0,0.0,1e-05,-4e-05,0.0,0.0,1e-05,0.0,1
1500,1563,-1e-05,-1e-05,0.0,0.00011999999999999999,0.0,-2.9999999999999997e-05,-2e-05,1e-05,1
1501,1564,-2e-05,-2e-05,-0.00018999999999999998,-2e-05,1e-05,-2e-05,0.0,-1e-05,1
1502,1565,-1e-05,0.0,1e-05,-8e-05,-1e-05,-2e-05,-1e-05,-2e-05,1
1503,1566,-1e-05,0.0,1e-05,-8e-05,-1e-05,-2e-05,-1e-05,-2e-05,1
1504,1567,-1e-05,0.0,1e-05,-8e-05,-1e-05,-2e-05,-1e-05,-2e-05,1
1505,1568,-1e-05,0.0,1e-05,-8e-05,-1e-05,-2e-05,-1e-05,-2e-05,1
1506,1569,-1e-05,0.0,1e-05,-8e-05,-1e-05,-2e-05,-1e-05,-2e-05,1
1507,1570,-1e-05,0.0,1e-05,-8e-05,-1e-05,-2e-05,-1e-05,-2e-05,1
1508,1571,-1e-05,0.0,1e-05,-8e-05,-1e-05,-2e-05,-1e-05,-2e-05,1
1509,1572,-1e-05,0.0,1e-05,-8e-05,-1e-05,-2e-05,-1e-05,-2e-05,1
1510,1573,-1e-05,0.0,1e-05,-8e-05,-1e-05,-2e-05,-1e-05,-2e-05,1
1511,1574,-1e-05,0.0,1e-05,-8e-05,-1e-05,-2e-05,-1e-05,-2e-05,1
1512,1575,-1e-05,0.0,1e-05,-8e-05,-1e-05,-2e-05,-1e-05,-2e-05,1
1513,1576,-1e-05,0.0,1e-05,-8e-05,-1e-05,-2e-05,-1e-05,-2e-05,1
1514,1577,-1e-05,0.0,0.0,9e-05,-1e-05,-1e-05,-2e-05,-1e-05,1
1515,1578,-1e-05,0.0,0.0,9e-05,-1e-05,-1e-05,-2e-05,-1e-05,1
1516,1579,-1e-05,0.0,0.0,9e-05,-1e-05,-1e-05,-2e-05,-1e-05,1
1517,1580,-1e-05,0.0,0.0,9e-05,-1e-05,-1e-05,-2e-05,-1e-05,1
1518,1581,-1e-05,0.0,0.0,9e-05,-1e-05,-1e-05,-2e-05,-1e-05,1
1519,1582,-1e-05,0.0,0.0,9e-05,-1e-05,-1e-05,-2e-05,-1e-05,1
1520,1583,-1e-05,0.0,0.0,9e-05,-1e-05,-1e-05,-2e-05,-1e-05,1
1521,1584,-1e-05,0.0,0.0,9e-05,-1e-05,-1e-05,-2e-05,-1e-05,1
1522,1585,-1e-05,0.0,0.0,9e-05,-1e-05,-1e-05,-2e-05,-1e-05,1
1523,1586,0.0,2e-05,5.9999999999999995e-05,-1e-05,-2.9999999999999997e-05,0.0,-1e-05,-1e-05,1
1524,1588,0.0,2e-05,5.9999999999999995e-05,-1e-05,-2.9999999999999997e-05,0.0,-1e-05,-1e-05,1
1525,1589,0.0,2e-05,5.9999999999999995e-05,-1e-05,-2.9999999999999997e-05,0.0,-1e-05,-1e-05,1
1526,1590,0.0,2e-05,5.9999999999999995e-05,-1e-05,-2.9999999999999997e-05,0.0,-1e-05,-1e-05,1
1527,1591,0.0,2e-05,5.9999999999999995e-05,-1e-05,-2.9999999999999997e-05,0.0,-1e-05,-1e-05,1
1528,1592,0.0,2e-05,5.9999999999999995e-05,-1e-05,-2.9999999999999997e-05,0.0,-1e-05,-1e-05,1
1529,1593,0.0,2e-05,5.9999999999999995e-05,-1e-05,-2.9999999999999997e-05,0.0,-1e-05,-1e-05,1
1530,1594,0.0,2e-05,5.9999999999999995e-05,-1e-05,-2.9999999999999997e-05,0.0,-1e-05,-1e-05,1
1531,1595,0.0,2e-05,5.9999999999999995e-05,-1e-05,-2.9999999999999997e-05,0.0,-1e-05,-1e-05,1
1532,1596,0.0,2e-05,5.9999999999999995e-05,-1e-05,-2.9999999999999997e-05,0.0,-1e-05,-1e-05,1
1533,1597,0.0,2e-05,5.9999999999999995e-05,-1e-05,-2.9999999999999997e-05,0.0,-1e-05,-1e-05,1
1534,1598,0.0,2e-05,5.9999999999999995e-05,-1e-05,-2.9999999999999997e-05,0.0,-1e-05,-1e-05,1
1535,1599,0.0,2e-05,5.9999999999999995e-05,-1e-05,-2.9999999999999997e-05,0.0,-1e-05,-1e-05,1
1536,1600,0.0,-2e-05,1e-05,0.0,-1e-05,1e-05,0.0,0.0,1
1537,1601,0.0,-2e-05,1e-05,0.0,-1e-05,1e-05,0.0,0.0,1
1538,1602,0.0,-2e-05,1e-05,0.0,-1e-05,1e-05,0.0,0.0,1
1539,1603,0.0,-2e-05,1e-05,0.0,-1e-05,1e-05,0.0,0.0,1
1540,1604,0.0,-2e-05,1e-05,0.0,-1e-05,1e-05,0.0,0.0,1
1541,1605,0.0,-2e-05,1e-05,0.0,-1e-05,1e-05,0.0,0.0,1
1542,1606,0.0,-2e-05,1e-05,0.0,-1e-05,1e-05,0.0,0.0,1
1543,1607,0.0,-2e-05,1e-05,0.0,-1e-05,1e-05,0.0,0.0,1
1544,1608,-1e-05,-2.9999999999999997e-05,-1e-05,0.0,-1e-05,-1e-05,-1e-05,0.0,1
1545,1609,-1e-05,1e-05,7e-05,1e-05,1e-05,0.0,1e-05,-1e-05,1
1546,1610,-1e-05,1e-05,7e-05,1e-05,1e-05,0.0,1e-05,-1e-05,1
1547,1611,-1e-05,1e-05,7e-05,1e-05,1e-05,0.0,1e-05,-1e-05,1
1548,1612,-1e-05,1e-05,7e-05,1e-05,1e-05,0.0,1e-05,-1e-05,1
1549,1613,-1e-05,1e-05,7e-05,1e-05,1e-05,0.0,1e-05,-1e-05,1
1550,1614,-1e-05,1e-05,7e-05,1e-05,1e-05,0.0,1e-05,-1e-05,1
1551,1615,-1e-05,1e-05,7e-05,1e-05,1e-05,0.0,1e-05,-1e-05,1
1552,1616,-1e-05,1e-05,7e-05,1e-05,1e-05,0.0,1e-05,-1e-05,1
1553,1617,-1e-05,1e-05,7e-05,1e-05,1e-05,0.0,1e-05,-1e-05,1
1554,1618,-1e-05,1e-05,7e-05,1e-05,1e-05,0.0,1e-05,-1e-05,1
1555,1619,-1e-05,1e-05,7e-05,1e-05,1e-05,0.0,1e-05,-1e-05,1
1556,1620,-1e-05,1e-05,7e-05,1e-05,1e-05,0.0,1e-05,-1e-05,1
1557,1621,-1e-05,1e-05,7e-05,1e-05,1e-05,0.0,1e-05,-1e-05,1
1558,1622,-1e-05,1e-05,7e-05,1e-05,1e-05,0.0,1e-05,-1e-05,1
1559,1623,-2e-05,-2e-05,-0.00011999999999999999,-5e-05,-4e-05,-2.9999999999999997e-05,-1e-05,-2e-05,1
1560,1624,-2.9999999999999997e-05,-2e-05,4e-05,0.0,1e-05,-2e-05,-1e-05,-1e-05,1
1561,1625,-2e-05,-2e-05,-2e-05,1e-05,-2e-05,-1e-05,-1e-05,-1e-05,1
1562,1626,-2e-05,-2e-05,-2e-05,1e-05,-2e-05,-1e-05,-1e-05,-1e-05,1
1563,1627,-2e-05,-2e-05,-2e-05,1e-05,-2e-05,-1e-05,-1e-05,-1e-05,1
1564,1628,-2e-05,-2e-05,-2e-05,1e-05,-2e-05,-1e-05,-1e-05,-1e-05,1
1565,1629,-2e-05,-2e-05,-2e-05,1e-05,-2e-05,-1e-05,-1e-05,-1e-05,1
1566,1630,-2e-05,-2e-05,-2e-05,1e-05,-2e-05,-1e-05,-1e-05,-1e-05,1
1567,1631,-2e-05,-2e-05,-2e-05,1e-05,-2e-05,-1e-05,-1e-05,-1e-05,1
1568,1632,-2e-05,-2e-05,-2e-05,1e-05,-2e-05,-1e-05,-1e-05,-1e-05,1
1569,1633,-2e-05,-2e-05,-2e-05,1e-05,-2e-05,-1e-05,-1e-05,-1e-05,1
1570,1634,-2e-05,-2e-05,-2e-05,1e-05,-2e-05,-1e-05,-1e-05,-1e-05,1
1571,1635,-2e-05,-2e-05,-2e-05,1e-05,-2e-05,-1e-05,-1e-05,-1e-05,1
1572,1636,-2e-05,-2e-05,-2e-05,1e-05,-2e-05,-1e-05,-1e-05,-1e-05,1
1573,1638,-2e-05,-2e-05,2e-05,-5e-05,-2e-05,0.0,-1e-05,-1e-05,1
1574,1639,-2e-05,-2e-05,2e-05,-5e-05,-2e-05,0.0,-1e-05,-1e-05,1
1575,1640,-2e-05,-2e-05,2e-05,-5e-05,-2e-05,0.0,-1e-05,-1e-05,1
1576,1641,-2e-05,-2e-05,2e-05,-5e-05,-2e-05,0.0,-1e-05,-1e-05,1
1577,1642,-2e-05,-2e-05,2e-05,-5e-05,-2e-05,0.0,-1e-05,-1e-05,1
1578,1643,-2e-05,-2e-05,2e-05,-5e-05,-2e-05,0.0,-1e-05,-1e-05,1
1579,1644,-2e-05,-2e-05,2e-05,-5e-05,-2e-05,0.0,-1e-05,-1e-05,1
1580,1645,-2e-05,-2e-05,2e-05,-5e-05,-2e-05,0.0,-1e-05,-1e-05,1
1581,1646,-1e-05,-2e-05,-0.00015,-2.9999999999999997e-05,-2.9999999999999997e-05,0.0,1e-05,0.0,1
1582,1647,-1e-05,-2e-05,-0.00015,-2.9999999999999997e-05,-2.9999999999999997e-05,0.0,1e-05,0.0,1
1583,1648,-1e-05,-2e-05,-0.00015,-2.9999999999999997e-05,-2.9999999999999997e-05,0.0,1e-05,0.0,1
1584,1649,-1e-05,-2e-05,-0.00015,-2.9999999999999997e-05,-2.9999999999999997e-05,0.0,1e-05,0.0,1
1585,1650,-1e-05,-2e-05,-0.00015,-2.9999999999999997e-05,-2.9999999999999997e-05,0.0,1e-05,0.0,1
1586,1651,-1e-05,-2e-05,-0.00015,-2.9999999999999997e-05,-2.9999999999999997e-05,0.0,1e-05,0.0,1
1587,1652,-1e-05,-2e-05,-0.00015,-2.9999999999999997e-05,-2.9999999999999997e-05,0.0,1e-05,0.0,1
1588,1653,-1e-05,-2e-05,-0.00015,-2.9999999999999997e-05,-2.9999999999999997e-05,0.0,1e-05,0.0,1
1589,1654,-1e-05,-2e-05,-0.00015,-2.9999999999999997e-05,-2.9999999999999997e-05,0.0,1e-05,0.0,1
1590,1655,-1e-05,-2e-05,-0.00015,-2.9999999999999997e-05,-2.9999999999999997e-05,0.0,1e-05,0.0,1
1591,1656,-1e-05,-2e-05,-0.00015,-2.9999999999999997e-05,-2.9999999999999997e-05,0.0,1e-05,0.0,1
1592,1657,-1e-05,-2e-05,-0.00015,-2.9999999999999997e-05,-2.9999999999999997e-05,0.0,1e-05,0.0,1
1593,1658,-1e-05,-2e-05,-0.00015,-2.9999999999999997e-05,-2.9999999999999997e-05,0.0,1e-05,0.0,1
1594,1659,-1e-05,-2e-05,-0.00015,-2.9999999999999997e-05,-2.9999999999999997e-05,0.0,1e-05,0.0,1
1595,1660,-1e-05,-2e-05,-0.00015,-2.9999999999999997e-05,-2.9999999999999997e-05,0.0,1e-05,0.0,1
1596,1661,-2e-05,1e-05,7e-05,-2e-05,-2.9999999999999997e-05,-1e-05,0.0,0.0,1
1597,1662,1e-05,0.0,5.9999999999999995e-05,5e-05,2e-05,-1e-05,-2e-05,-1e-05,1
1598,1663,1e-05,0.0,5.9999999999999995e-05,5e-05,2e-05,-1e-05,-2e-05,-1e-05,1
1599,1664,1e-05,0.0,5.9999999999999995e-05,5e-05,2e-05,-1e-05,-2e-05,-1e-05,1
1600,1665,1e-05,0.0,5.9999999999999995e-05,5e-05,2e-05,-1e-05,-2e-05,-1e-05,1
1601,1666,1e-05,0.0,5.9999999999999995e-05,5e-05,2e-05,-1e-05,-2e-05,-1e-05,1
1602,1667,1e-05,0.0,5.9999999999999995e-05,5e-05,2e-05,-1e-05,-2e-05,-1e-05,1
1603,1668,1e-05,0.0,5.9999999999999995e-05,5e-05,2e-05,-1e-05,-2e-05,-1e-05,1
1604,1669,1e-05,0.0,5.9999999999999995e-05,5e-05,2e-05,-1e-05,-2e-05,-1e-05,1
1605,1670,1e-05,0.0,5.9999999999999995e-05,5e-05,2e-05,-1e-05,-2e-05,-1e-05,1
1606,1671,1e-05,0.0,5.9999999999999995e-05,5e-05,2e-05,-1e-05,-2e-05,-1e-05,1
1607,1672,1e-05,0.0,5.9999999999999995e-05,5e-05,2e-05,-1e-05,-2e-05,-1e-05,1
1608,1673,1e-05,0.0,5.9999999999999995e-05,5e-05,2e-05,-1e-05,-2e-05,-1e-05,1
1609,1674,1e-05,0.0,5.9999999999999995e-05,5e-05,2e-05,-1e-05,-2e-05,-1e-05,1
1610,1675,1e-05,0.0,5.9999999999999995e-05,5e-05,2e-05,-1e-05,-2e-05,-1e-05,1
1611,1676,1e-05,0.0,5.9999999999999995e-05,5e-05,2e-05,-1e-05,-2e-05,-1e-05,1
1612,1677,1e-05,0.0,5.9999999999999995e-05,5e-05,2e-05,-1e-05,-2e-05,-1e-05,1
1613,1678,1e-05,0.0,5.9999999999999995e-05,5e-05,2e-05,-1e-05,-2e-05,-1e-05,1
1614,1679,1e-05,0.0,5.9999999999999995e-05,5e-05,2e-05,-1e-05,-2e-05,-1e-05,1
1615,1680,1e-05,0.0,5.9999999999999995e-05,5e-05,2e-05,-1e-05,-2e-05,-1e-05,1
1616,1681,1e-05,0.0,5.9999999999999995e-05,5e-05,2e-05,-1e-05,-2e-05,-1e-05,1
1617,1682,1e-05,0.0,5.9999999999999995e-05,5e-05,2e-05,-1e-05,-2e-05,-1e-05,1
1618,1683,1e-05,0.0,5.9999999999999995e-05,5e-05,2e-05,-1e-05,-2e-05,-1e-05,1
1619,1684,1e-05,0.0,5.9999999999999995e-05,5e-05,2e-05,-1e-05,-2e-05,-1e-05,1
1620,1685,1e-05,0.0,5.9999999999999995e-05,5e-05,2e-05,-1e-05,-2e-05,-1e-05,1
1621,1686,1e-05,0.0,5.9999999999999995e-05,5e-05,2e-05,-1e-05,-2e-05,-1e-05,1
1622,1688,1e-05,0.0,5.9999999999999995e-05,5e-05,2e-05,-1e-05,-2e-05,-1e-05,1
1623,1689,1e-05,0.0,5.9999999999999995e-05,5e-05,2e-05,-1e-05,-2e-05,-1e-05,1
1624,1690,1e-05,0.0,5.9999999999999995e-05,5e-05,2e-05,-1e-05,-2e-05,-1e-05,1
1625,1691,1e-05,2e-05,-5e-05,2e-05,0.0,0.0,-1e-05,2e-05,1
1626,1692,0.0,0.0,-1e-05,-5e-05,2e-05,-2e-05,-1e-05,-2e-05,1
1627,1693,0.0,0.0,-1e-05,-5e-05,2e-05,-2e-05,-1e-05,-2e-05,1
1628,1694,0.0,0.0,-1e-05,-5e-05,2e-05,-2e-05,-1e-05,-2e-05,1
1629,1695,0.0,0.0,-1e-05,-5e-05,2e-05,-2e-05,-1e-05,-2e-05,1
1630,1696,0.0,0.0,-1e-05,-5e-05,2e-05,-2e-05,-1e-05,-2e-05,1
1631,1697,0.0,-2e-05,0.0,-2e-05,0.0,-2e-05,-2e-05,-1e-05,1
1632,1698,0.0,-2e-05,0.0,-2e-05,0.0,-2e-05,-2e-05,-1e-05,1
1633,1699,0.0,-2e-05,0.0,-2e-05,0.0,-2e-05,-2e-05,-1e-05,1
1634,1700,0.0,-2e-05,0.0,-2e-05,0.0,-2e-05,-2e-05,-1e-05,1
1635,1701,0.0,-2e-05,0.0,-2e-05,0.0,-2e-05,-2e-05,-1e-05,1
1636,1702,0.0,-2e-05,0.0,-2e-05,0.0,-2e-05,-2e-05,-1e-05,1
1637,1703,0.0,-2e-05,0.0,-2e-05,0.0,-2e-05,-2e-05,-1e-05,1
1638,1704,0.0,-2e-05,0.0,-2e-05,0.0,-2e-05,-2e-05,-1e-05,1
1639,1705,0.0,-2e-05,0.0,-2e-05,0.0,-2e-05,-2e-05,-1e-05,1
1640,1706,-2e-05,-2.9999999999999997e-05,-1e-05,1e-05,1e-05,-2e-05,-2e-05,-1e-05,1
1641,1707,-2e-05,-2.9999999999999997e-05,-1e-05,1e-05,1e-05,-2e-05,-2e-05,-1e-05,1
1642,1708,-2e-05,-2.9999999999999997e-05,-1e-05,1e-05,1e-05,-2e-05,-2e-05,-1e-05,1
1643,1709,-2e-05,-2.9999999999999997e-05,-1e-05,1e-05,1e-05,-2e-05,-2e-05,-1e-05,1
1644,1710,-2e-05,-2.9999999999999997e-05,-1e-05,1e-05,1e-05,-2e-05,-2e-05,-1e-05,1
1645,1711,-2e-05,-2.9999999999999997e-05,-1e-05,1e-05,1e-05,-2e-05,-2e-05,-1e-05,1
1646,1712,-2e-05,-2.9999999999999997e-05,-1e-05,1e-05,1e-05,-2e-05,-2e-05,-1e-05,1
1647,1713,-2e-05,-2.9999999999999997e-05,-1e-05,1e-05,1e-05,-2e-05,-2e-05,-1e-05,1
1648,1714,-2e-05,-2.9999999999999997e-05,-1e-05,1e-05,1e-05,-2e-05,-2e-05,-1e-05,1
1649,1715,-2e-05,-2.9999999999999997e-05,-1e-05,1e-05,1e-05,-2e-05,-2e-05,-1e-05,1
1650,1716,-2e-05,-2.9999999999999997e-05,-1e-05,1e-05,1e-05,-2e-05,-2e-05,-1e-05,1
1651,1717,-2e-05,-2.9999999999999997e-05,-1e-05,1e-05,1e-05,-2e-05,-2e-05,-1e-05,1
1652,1718,-2e-05,-2.9999999999999997e-05,-1e-05,1e-05,1e-05,-2e-05,-2e-05,-1e-05,1
1653,1719,-2e-05,-2.9999999999999997e-05,-1e-05,1e-05,1e-05,-2e-05,-2e-05,-1e-05,1
1654,1720,-2e-05,-2.9999999999999997e-05,-1e-05,1e-05,1e-05,-2e-05,-2e-05,-1e-05,1
1655,1721,0.0,-1e-05,5.9999999999999995e-05,2.9999999999999997e-05,0.0,1e-05,-1e-05,-1e-05,1
1656,1722,0.0,-1e-05,5.9999999999999995e-05,2.9999999999999997e-05,0.0,1e-05,-1e-05,-1e-05,1
1657,1723,-2e-05,-1e-05,-5.9999999999999995e-05,-2.9999999999999997e-05,1e-05,-4e-05,-2.9999999999999997e-05,0.0,1
1658,1724,-2e-05,-1e-05,-5.9999999999999995e-05,-2.9999999999999997e-05,1e-05,-4e-05,-2.9999999999999997e-05,0.0,1
1659,1725,-2e-05,-1e-05,-5.9999999999999995e-05,-2.9999999999999997e-05,1e-05,-4e-05,-2.9999999999999997e-05,0.0,1
1660,1726,-2e-05,-1e-05,-5.9999999999999995e-05,-2.9999999999999997e-05,1e-05,-4e-05,-2.9999999999999997e-05,0.0,1
1661,1727,-2e-05,-1e-05,-5.9999999999999995e-05,-2.9999999999999997e-05,1e-05,-4e-05,-2.9999999999999997e-05,0.0,1
1662,1728,-2e-05,-1e-05,-5.9999999999999995e-05,-2.9999999999999997e-05,1e-05,-4e-05,-2.9999999999999997e-05,0.0,1
1663,1729,-2e-05,-1e-05,-5.9999999999999995e-05,-2.9999999999999997e-05,1e-05,-4e-05,-2.9999999999999997e-05,0.0,1
1664,1730,-2e-05,-1e-05,-5.9999999999999995e-05,-2.9999999999999997e-05,1e-05,-4e-05,-2.9999999999999997e-05,0.0,1
1665,1731,-2e-05,-1e-05,-5.9999999999999995e-05,-2.9999999999999997e-05,1e-05,-4e-05,-2.9999999999999997e-05,0.0,1
1666,1732,-2e-05,-1e-05,-5.9999999999999995e-05,-2.9999999999999997e-05,1e-05,-4e-05,-2.9999999999999997e-05,0.0,1
1667,1733,-2e-05,-1e-05,-5.9999999999999995e-05,-2.9999999999999997e-05,1e-05,-4e-05,-2.9999999999999997e-05,0.0,1
1668,1734,-2e-05,-1e-05,-5.9999999999999995e-05,-2.9999999999999997e-05,1e-05,-4e-05,-2.9999999999999997e-05,0.0,1
1669,1735,-2e-05,-1e-05,-5.9999999999999995e-05,-2.9999999999999997e-05,1e-05,-4e-05,-2.9999999999999997e-05,0.0,1
1670,1736,-2e-05,-1e-05,-5.9999999999999995e-05,-2.9999999999999997e-05,1e-05,-4e-05,-2.9999999999999997e-05,0.0,1
1671,1738,-2e-05,-1e-05,-5.9999999999999995e-05,-2.9999999999999997e-05,1e-05,-4e-05,-2.9999999999999997e-05,0.0,1
1672,1739,-2e-05,-1e-05,-5.9999999999999995e-05,-2.9999999999999997e-05,1e-05,-4e-05,-2.9999999999999997e-05,0.0,1
1673,1740,-2e-05,-1e-05,-5.9999999999999995e-05,-2.9999999999999997e-05,1e-05,-4e-05,-2.9999999999999997e-05,0.0,1
1674,1741,-2e-05,-1e-05,-5.9999999999999995e-05,-2.9999999999999997e-05,1e-05,-4e-05,-2.9999999999999997e-05,0.0,1
1675,1742,-2e-05,-1e-05,-5.9999999999999995e-05,-2.9999999999999997e-05,1e-05,-4e-05,-2.9999999999999997e-05,0.0,1
1676,1743,-1e-05,0.0,2e-05,-2e-05,-2.9999999999999997e-05,1e-05,-1e-05,-2e-05,1
1677,1744,-1e-05,-2e-05,-0.00022,-2.9999999999999997e-05,-2.9999999999999997e-05,-2e-05,0.0,1e-05,1
1678,1745,-1e-05,-1e-05,1e-05,-1e-05,-2.9999999999999997e-05,0.0,-1e-05,-2e-05,1
1679,1746,-1e-05,-1e-05,1e-05,-1e-05,-2.9999999999999997e-05,0.0,-1e-05,-2e-05,1
1680,1747,-1e-05,-1e-05,1e-05,-1e-05,-2.9999999999999997e-05,0.0,-1e-05,-2e-05,1
1681,1748,-1e-05,-1e-05,1e-05,-1e-05,-2.9999999999999997e-05,0.0,-1e-05,-2e-05,1
1682,1749,-1e-05,-1e-05,1e-05,-1e-05,-2.9999999999999997e-05,0.0,-1e-05,-2e-05,1
1683,1750,-1e-05,-1e-05,1e-05,-1e-05,-2.9999999999999997e-05,0.0,-1e-05,-2e-05,1
1684,1751,-1e-05,-1e-05,1e-05,-1e-05,-2.9999999999999997e-05,0.0,-1e-05,-2e-05,1
1685,1752,-1e-05,-1e-05,1e-05,-1e-05,-2.9999999999999997e-05,0.0,-1e-05,-2e-05,1
1686,1753,-1e-05,-1e-05,1e-05,-1e-05,-2.9999999999999997e-05,0.0,-1e-05,-2e-05,1
1687,1754,-1e-05,-1e-05,1e-05,-1e-05,-2.9999999999999997e-05,0.0,-1e-05,-2e-05,1
1688,1755,-1e-05,-1e-05,1e-05,-1e-05,-2.9999999999999997e-05,0.0,-1e-05,-2e-05,1
1689,1756,-1e-05,-1e-05,1e-05,-1e-05,-2.9999999999999997e-05,0.0,-1e-05,-2e-05,1
1690,1757,-1e-05,0.0,0.0,1e-05,-2.9999999999999997e-05,-1e-05,-1e-05,-1e-05,1
1691,1758,-1e-05,0.0,0.0,1e-05,-2.9999999999999997e-05,-1e-05,-1e-05,-1e-05,1
1692,1759,-1e-05,0.0,0.0,1e-05,-2.9999999999999997e-05,-1e-05,-1e-05,-1e-05,1
1693,1760,-1e-05,0.0,0.0,1e-05,-2.9999999999999997e-05,-1e-05,-1e-05,-1e-05,1
1694,1761,-1e-05,0.0,0.0,1e-05,-2.9999999999999997e-05,-1e-05,-1e-05,-1e-05,1
1695,1762,-1e-05,0.0,0.0,1e-05,-2.9999999999999997e-05,-1e-05,-1e-05,-1e-05,1
1696,1763,-1e-05,0.0,0.0,1e-05,-2.9999999999999997e-05,-1e-05,-1e-05,-1e-05,1
1697,1764,-1e-05,0.0,0.0,1e-05,-2.9999999999999997e-05,-1e-05,-1e-05,-1e-05,1
1698,1765,-1e-05,0.0,0.0,1e-05,-2.9999999999999997e-05,-1e-05,-1e-05,-1e-05,1
1699,1766,-1e-05,1e-05,8e-05,2e-05,-1e-05,1e-05,0.0,-1e-05,1
1700,1767,-1e-05,1e-05,8e-05,2e-05,-1e-05,1e-05,0.0,-1e-05,1
1701,1768,-1e-05,1e-05,8e-05,2e-05,-1e-05,1e-05,0.0,-1e-05,1
1702,1769,-1e-05,1e-05,8e-05,2e-05,-1e-05,1e-05,0.0,-1e-05,1
1703,1770,-1e-05,1e-05,8e-05,2e-05,-1e-05,1e-05,0.0,-1e-05,1
1704,1771,-1e-05,1e-05,8e-05,2e-05,-1e-05,1e-05,0.0,-1e-05,1
1705,1772,-1e-05,1e-05,8e-05,2e-05,-1e-05,1e-05,0.0,-1e-05,1
1706,1773,-1e-05,1e-05,8e-05,2e-05,-1e-05,1e-05,0.0,-1e-05,1
1707,1774,-1e-05,1e-05,8e-05,2e-05,-1e-05,1e-05,0.0,-1e-05,1
1708,1775,-1e-05,1e-05,8e-05,2e-05,-1e-05,1e-05,0.0,-1e-05,1
1709,1776,-1e-05,1e-05,8e-05,2e-05,-1e-05,1e-05,0.0,-1e-05,1
1710,1777,-1e-05,1e-05,8e-05,2e-05,-1e-05,1e-05,0.0,-1e-05,1
1711,1778,-1e-05,1e-05,8e-05,2e-05,-1e-05,1e-05,0.0,-1e-05,1
1712,1779,-1e-05,1e-05,8e-05,2e-05,-1e-05,1e-05,0.0,-1e-05,1
1713,1780,-1e-05,1e-05,8e-05,2e-05,-1e-05,1e-05,0.0,-1e-05,1
1714,1781,-1e-05,0.0,-7e-05,-1e-05,0.0,1e-05,-1e-05,0.0,1
1715,1782,0.0,-1e-05,1e-05,8e-05,-1e-05,-2.9999999999999997e-05,0.0,-1e-05,1
1716,1783,-2e-05,-1e-05,2e-05,-4e-05,-2e-05,-2.9999999999999997e-05,0.0,-1e-05,1
1717,1784,-2e-05,-1e-05,2e-05,-4e-05,-2e-05,-2.9999999999999997e-05,0.0,-1e-05,1
1718,1785,-2e-05,-1e-05,2e-05,-4e-05,-2e-05,-2.9999999999999997e-05,0.0,-1e-05,1
1719,1786,-2e-05,-1e-05,2e-05,-4e-05,-2e-05,-2.9999999999999997e-05,0.0,-1e-05,1
1720,1788,-2e-05,-1e-05,2e-05,-4e-05,-2e-05,-2.9999999999999997e-05,0.0,-1e-05,1
1721,1789,-2e-05,-1e-05,2e-05,-4e-05,-2e-05,-2.9999999999999997e-05,0.0,-1e-05,1
1722,1790,-2e-05,-1e-05,2e-05,-4e-05,-2e-05,-2.9999999999999997e-05,0.0,-1e-05,1
1723,1791,-2e-05,-1e-05,2e-05,-4e-05,-2e-05,-2.9999999999999997e-05,0.0,-1e-05,1
1724,1792,-2e-05,-1e-05,2e-05,-4e-05,-2e-05,-2.9999999999999997e-05,0.0,-1e-05,1
1725,1793,-2e-05,-1e-05,2e-05,-4e-05,-2e-05,-2.9999999999999997e-05,0.0,-1e-05,1
1726,1794,-2e-05,-1e-05,2e-05,-4e-05,-2e-05,-2.9999999999999997e-05,0.0,-1e-05,1
1727,1795,-2e-05,-1e-05,2e-05,-4e-05,-2e-05,-2.9999999999999997e-05,0.0,-1e-05,1
1728,1796,-2e-05,-1e-05,2e-05,-4e-05,-2e-05,-2.9999999999999997e-05,0.0,-1e-05,1
1729,1797,-2e-05,-1e-05,2e-05,-4e-05,-2e-05,-2.9999999999999997e-05,0.0,-1e-05,1
1730,1798,-2e-05,-1e-05,2e-05,-4e-05,-2e-05,-2.9999999999999997e-05,0.0,-1e-05,1
1731,1799,-2e-05,-1e-05,2e-05,-4e-05,-2e-05,-2.9999999999999997e-05,0.0,-1e-05,1
1732,1800,-2e-05,-1e-05,2e-05,-4e-05,-2e-05,-2.9999999999999997e-05,0.0,-1e-05,1
1733,1801,-2e-05,-1e-05,2e-05,-4e-05,-2e-05,-2.9999999999999997e-05,0.0,-1e-05,1
1734,1802,-2e-05,-1e-05,2e-05,-4e-05,-2e-05,-2.9999999999999997e-05,0.0,-1e-05,1
1735,1803,-2e-05,-2.9999999999999997e-05,-2e-05,-4e-05,-2.9999999999999997e-05,-2.9999999999999997e-05,-1e-05,0.0,1
1736,1804,-2e-05,-1e-05,0.0,-1e-05,1e-05,-1e-05,-1e-05,-1e-05,1
1737,1805,-1e-05,0.0,7e-05,0.0,-1e-05,0.0,-1e-05,-1e-05,1
1738,1806,-1e-05,0.0,7e-05,0.0,-1e-05,0.0,-1e-05,-1e-05,1
1739,1807,-1e-05,0.0,7e-05,0.0,-1e-05,0.0,-1e-05,-1e-05,1
1740,1808,-1e-05,0.0,7e-05,0.0,-1e-05,0.0,-1e-05,-1e-05,1
1741,1809,-1e-05,0.0,7e-05,0.0,-1e-05,0.0,-1e-05,-1e-05,1
1742,1810,-1e-05,0.0,7e-05,0.0,-1e-05,0.0,-1e-05,-1e-05,1
1743,1811,-1e-05,0.0,7e-05,0.0,-1e-05,0.0,-1e-05,-1e-05,1
1744,1812,-1e-05,0.0,7e-05,0.0,-1e-05,0.0,-1e-05,-1e-05,1
1745,1813,-1e-05,0.0,7e-05,0.0,-1e-05,0.0,-1e-05,-1e-05,1
1746,1814,-1e-05,0.0,7e-05,0.0,-1e-05,0.0,-1e-05,-1e-05,1
1747,1815,-1e-05,0.0,7e-05,0.0,-1e-05,0.0,-1e-05,-1e-05,1
1748,1816,-1e-05,0.0,7e-05,0.0,-1e-05,0.0,-1e-05,-1e-05,1
1749,1817,-1e-05,-1e-05,0.00013000000000000002,1e-05,-2.9999999999999997e-05,-2.9999999999999997e-05,0.0,-2e-05,1
1750,1818,-1e-05,-1e-05,0.00013000000000000002,1e-05,-2.9999999999999997e-05,-2.9999999999999997e-05,0.0,-2e-05,1
1751,1819,-1e-05,-1e-05,0.00013000000000000002,1e-05,-2.9999999999999997e-05,-2.9999999999999997e-05,0.0,-2e-05,1
1752,1820,-1e-05,-1e-05,0.00013000000000000002,1e-05,-2.9999999999999997e-05,-2.9999999999999997e-05,0.0,-2e-05,1
1753,1821,-1e-05,-1e-05,0.00013000000000000002,1e-05,-2.9999999999999997e-05,-2.9999999999999997e-05,0.0,-2e-05,1
1754,1822,-1e-05,-1e-05,0.00013000000000000002,1e-05,-2.9999999999999997e-05,-2.9999999999999997e-05,0.0,-2e-05,1
1755,1823,-1e-05,-1e-05,0.00013000000000000002,1e-05,-2.9999999999999997e-05,-2.9999999999999997e-05,0.0,-2e-05,1
1756,1824,-1e-05,-1e-05,0.00013000000000000002,1e-05,-2.9999999999999997e-05,-2.9999999999999997e-05,0.0,-2e-05,1
1757,1825,-1e-05,0.0,-2e-05,-5.9999999999999995e-05,-1e-05,-1e-05,-1e-05,-2e-05,1
1758,1826,-1e-05,0.0,0.0,2.9999999999999997e-05,-1e-05,1e-05,-1e-05,-1e-05,1
1759,1827,-1e-05,0.0,0.0,2.9999999999999997e-05,-1e-05,1e-05,-1e-05,-1e-05,1
1760,1828,-1e-05,0.0,0.0,2.9999999999999997e-05,-1e-05,1e-05,-1e-05,-1e-05,1
1761,1829,-1e-05,0.0,0.0,2.9999999999999997e-05,-1e-05,1e-05,-1e-05,-1e-05,1
1762,1830,-1e-05,0.0,0.0,2.9999999999999997e-05,-1e-05,1e-05,-1e-05,-1e-05,1
1763,1831,-1e-05,0.0,0.0,2.9999999999999997e-05,-1e-05,1e-05,-1e-05,-1e-05,1
1764,1832,-1e-05,0.0,0.0,2.9999999999999997e-05,-1e-05,1e-05,-1e-05,-1e-05,1
1765,1833,-1e-05,0.0,0.0,2.9999999999999997e-05,-1e-05,1e-05,-1e-05,-1e-05,1
1766,1834,-1e-05,0.0,0.0,2.9999999999999997e-05,-1e-05,1e-05,-1e-05,-1e-05,1
1767,1835,-1e-05,0.0,0.0,2.9999999999999997e-05,-1e-05,1e-05,-1e-05,-1e-05,1
1768,1836,-1e-05,0.0,0.0,2.9999999999999997e-05,-1e-05,1e-05,-1e-05,-1e-05,1
1769,1838,-1e-05,0.0,0.0,2.9999999999999997e-05,-1e-05,1e-05,-1e-05,-1e-05,1
1770,1839,-1e-05,0.0,0.0,2.9999999999999997e-05,-1e-05,1e-05,-1e-05,-1e-05,1
1771,1840,-1e-05,0.0,0.0,2.9999999999999997e-05,-1e-05,1e-05,-1e-05,-1e-05,1
1772,1841,0.0,-2.9999999999999997e-05,-2.9999999999999997e-05,1e-05,0.0,-2e-05,-2e-05,-1e-05,1
1773,1842,0.0,-2.9999999999999997e-05,-2.9999999999999997e-05,1e-05,0.0,-2e-05,-2e-05,-1e-05,1
1774,1843,-1e-05,-4e-05,-0.00015,-2.9999999999999997e-05,-2.9999999999999997e-05,-2.9999999999999997e-05,-2e-05,-2e-05,1
1775,1844,-1e-05,-4e-05,-0.00015,-2.9999999999999997e-05,-2.9999999999999997e-05,-2.9999999999999997e-05,-2e-05,-2e-05,1
1776,1845,-1e-05,-4e-05,-0.00015,-2.9999999999999997e-05,-2.9999999999999997e-05,-2.9999999999999997e-05,-2e-05,-2e-05,1
1777,1846,-1e-05,-4e-05,-0.00015,-2.9999999999999997e-05,-2.9999999999999997e-05,-2.9999999999999997e-05,-2e-05,-2e-05,1
1778,1847,-1e-05,-4e-05,-0.00015,-2.9999999999999997e-05,-2.9999999999999997e-05,-2.9999999999999997e-05,-2e-05,-2e-05,1
1779,1848,-1e-05,-4e-05,-0.00015,-2.9999999999999997e-05,-2.9999999999999997e-05,-2.9999999999999997e-05,-2e-05,-2e-05,1
1780,1849,-1e-05,-4e-05,-0.00015,-2.9999999999999997e-05,-2.9999999999999997e-05,-2.9999999999999997e-05,-2e-05,-2e-05,1
1781,1850,-1e-05,-4e-05,-0.00015,-2.9999999999999997e-05,-2.9999999999999997e-05,-2.9999999999999997e-05,-2e-05,-2e-05,1
1782,1851,-1e-05,-4e-05,-0.00015,-2.9999999999999997e-05,-2.9999999999999997e-05,-2.9999999999999997e-05,-2e-05,-2e-05,1
1783,1852,-1e-05,-4e-05,-0.00015,-2.9999999999999997e-05,-2.9999999999999997e-05,-2.9999999999999997e-05,-2e-05,-2e-05,1
1784,1853,-1e-05,-4e-05,-0.00015,-2.9999999999999997e-05,-2.9999999999999997e-05,-2.9999999999999997e-05,-2e-05,-2e-05,1
1785,1854,-1e-05,-4e-05,-0.00015,-2.9999999999999997e-05,-2.9999999999999997e-05,-2.9999999999999997e-05,-2e-05,-2e-05,1
1786,1855,-1e-05,-4e-05,-0.00015,-2.9999999999999997e-05,-2.9999999999999997e-05,-2.9999999999999997e-05,-2e-05,-2e-05,1
1787,1856,-1e-05,-4e-05,-0.00015,-2.9999999999999997e-05,-2.9999999999999997e-05,-2.9999999999999997e-05,-2e-05,-2e-05,1
1788,1857,-1e-05,-4e-05,-0.00015,-2.9999999999999997e-05,-2.9999999999999997e-05,-2.9999999999999997e-05,-2e-05,-2e-05,1
1789,1858,-1e-05,-4e-05,-0.00015,-2.9999999999999997e-05,-2.9999999999999997e-05,-2.9999999999999997e-05,-2e-05,-2e-05,1
1790,1859,-1e-05,-4e-05,-0.00015,-2.9999999999999997e-05,-2.9999999999999997e-05,-2.9999999999999997e-05,-2e-05,-2e-05,1
1791,1860,-1e-05,-4e-05,-0.00015,-2.9999999999999997e-05,-2.9999999999999997e-05,-2.9999999999999997e-05,-2e-05,-2e-05,1
1792,1861,-1e-05,-4e-05,-0.00015,-2.9999999999999997e-05,-2.9999999999999997e-05,-2.9999999999999997e-05,-2e-05,-2e-05,1
1793,1862,-1e-05,-4e-05,-0.00015,-2.9999999999999997e-05,-2.9999999999999997e-05,-2.9999999999999997e-05,-2e-05,-2e-05,1
1794,1863,-1e-05,0.0,-4e-05,-2.9999999999999997e-05,0.0,-2e-05,-1e-05,0.0,1
1795,1864,-1e-05,0.0,-4e-05,-2.9999999999999997e-05,0.0,-2e-05,-1e-05,0.0,1
1796,1865,-1e-05,-1e-05,1e-05,-2e-05,0.0,1e-05,1e-05,1e-05,1
1797,1866,1e-05,2.9999999999999997e-05,-2e-05,-1e-05,0.0,0.0,-2e-05,1e-05,1
1798,1867,1e-05,2.9999999999999997e-05,-2e-05,-1e-05,0.0,0.0,-2e-05,1e-05,1
1799,1868,1e-05,2.9999999999999997e-05,-2e-05,-1e-05,0.0,0.0,-2e-05,1e-05,1
1800,1869,1e-05,2.9999999999999997e-05,-2e-05,-1e-05,0.0,0.0,-2e-05,1e-05,1
1801,1870,1e-05,2.9999999999999997e-05,-2e-05,-1e-05,0.0,0.0,-2e-05,1e-05,1
1802,1871,1e-05,2.9999999999999997e-05,-2e-05,-1e-05,0.0,0.0,-2e-05,1e-05,1
1803,1872,1e-05,2.9999999999999997e-05,-2e-05,-1e-05,0.0,0.0,-2e-05,1e-05,1
1804,1873,1e-05,2.9999999999999997e-05,-2e-05,-1e-05,0.0,0.0,-2e-05,1e-05,1
1805,1874,1e-05,2.9999999999999997e-05,-2e-05,-1e-05,0.0,0.0,-2e-05,1e-05,1
1806,1875,1e-05,2.9999999999999997e-05,-2e-05,-1e-05,0.0,0.0,-2e-05,1e-05,1
1807,1876,1e-05,2.9999999999999997e-05,-2e-05,-1e-05,0.0,0.0,-2e-05,1e-05,1
1808,1877,0.0,1e-05,5e-05,0.0,-1e-05,1e-05,1e-05,0.0,1
1809,1878,0.0,1e-05,5e-05,0.0,-1e-05,1e-05,1e-05,0.0,1
1810,1879,0.0,1e-05,5e-05,0.0,-1e-05,1e-05,1e-05,0.0,1
1811,1880,0.0,1e-05,5e-05,0.0,-1e-05,1e-05,1e-05,0.0,1
1812,1881,0.0,1e-05,5e-05,0.0,-1e-05,1e-05,1e-05,0.0,1
1813,1882,0.0,1e-05,5e-05,0.0,-1e-05,1e-05,1e-05,0.0,1
1814,1883,0.0,1e-05,5e-05,0.0,-1e-05,1e-05,1e-05,0.0,1
1815,1884,0.0,1e-05,5e-05,0.0,-1e-05,1e-05,1e-05,0.0,1
1816,1885,0.0,1e-05,5e-05,0.0,-1e-05,1e-05,1e-05,0.0,1
1817,1886,0.0,-5e-05,-0.0001,-1e-05,-2e-05,-2e-05,-1e-05,-2e-05,1
1818,1888,0.0,-5e-05,-0.0001,-1e-05,-2e-05,-2e-05,-1e-05,-2e-05,1
1819,1889,0.0,-5e-05,-0.0001,-1e-05,-2e-05,-2e-05,-1e-05,-2e-05,1
1820,1890,0.0,-5e-05,-0.0001,-1e-05,-2e-05,-2e-05,-1e-05,-2e-05,1
1821,1891,0.0,-5e-05,-0.0001,-1e-05,-2e-05,-2e-05,-1e-05,-2e-05,1
1822,1892,0.0,-5e-05,-0.0001,-1e-05,-2e-05,-2e-05,-1e-05,-2e-05,1
1823,1893,0.0,-5e-05,-0.0001,-1e-05,-2e-05,-2e-05,-1e-05,-2e-05,1
1824,1894,0.0,-5e-05,-0.0001,-1e-05,-2e-05,-2e-05,-1e-05,-2e-05,1
1825,1895,0.0,-5e-05,-0.0001,-1e-05,-2e-05,-2e-05,-1e-05,-2e-05,1
1826,1896,0.0,-5e-05,-0.0001,-1e-05,-2e-05,-2e-05,-1e-05,-2e-05,1
1827,1897,0.0,-5e-05,-0.0001,-1e-05,-2e-05,-2e-05,-1e-05,-2e-05,1
1828,1898,0.0,-5e-05,-0.0001,-1e-05,-2e-05,-2e-05,-1e-05,-2e-05,1
1829,1899,0.0,-5e-05,-0.0001,-1e-05,-2e-05,-2e-05,-1e-05,-2e-05,1
1830,1900,0.0,-5e-05,-0.0001,-1e-05,-2e-05,-2e-05,-1e-05,-2e-05,1
1831,1901,-1e-05,-1e-05,-1e-05,-1e-05,-2.9999999999999997e-05,1e-05,1e-05,-1e-05,1
1832,1902,0.0,0.0,1e-05,1e-05,-1e-05,0.0,-2e-05,-1e-05,1
1833,1903,0.0,1e-05,-1e-05,-2.9999999999999997e-05,-1e-05,0.0,-1e-05,0.0,1
1834,1904,0.0,1e-05,-1e-05,-2.9999999999999997e-05,-1e-05,0.0,-1e-05,0.0,1
1835,1905,0.0,1e-05,-1e-05,-2.9999999999999997e-05,-1e-05,0.0,-1e-05,0.0,1
1836,1906,0.0,1e-05,-1e-05,-2.9999999999999997e-05,-1e-05,0.0,-1e-05,0.0,1
1837,1907,0.0,1e-05,-1e-05,-2.9999999999999997e-05,-1e-05,0.0,-1e-05,0.0,1
1838,1908,0.0,1e-05,-1e-05,-2.9999999999999997e-05,-1e-05,0.0,-1e-05,0.0,1
1839,1909,0.0,1e-05,-1e-05,-2.9999999999999997e-05,-1e-05,0.0,-1e-05,0.0,1
1840,1910,0.0,1e-05,-1e-05,-2.9999999999999997e-05,-1e-05,0.0,-1e-05,0.0,1
1841,1911,0.0,1e-05,-1e-05,-2.9999999999999997e-05,-1e-05,0.0,-1e-05,0.0,1
1842,1912,0.0,1e-05,-1e-05,-2.9999999999999997e-05,-1e-05,0.0,-1e-05,0.0,1
1843,1913,0.0,1e-05,-1e-05,-2.9999999999999997e-05,-1e-05,0.0,-1e-05,0.0,1
1844,1914,0.0,1e-05,-1e-05,-2.9999999999999997e-05,-1e-05,0.0,-1e-05,0.0,1
1845,1915,0.0,1e-05,-1e-05,-2.9999999999999997e-05,-1e-05,0.0,-1e-05,0.0,1
1846,1916,0.0,1e-05,-1e-05,-2.9999999999999997e-05,-1e-05,0.0,-1e-05,0.0,1
1847,1917,0.0,1e-05,-1e-05,-2.9999999999999997e-05,-1e-05,0.0,-1e-05,0.0,1
1848,1918,0.0,1e-05,-1e-05,-2.9999999999999997e-05,-1e-05,0.0,-1e-05,0.0,1
1849,1919,0.0,1e-05,-1e-05,-2.9999999999999997e-05,-1e-05,0.0,-1e-05,0.0,1
1850,1920,0.0,1e-05,-1e-05,-2.9999999999999997e-05,-1e-05,0.0,-1e-05,0.0,1
1851,1921,0.0,1e-05,-1e-05,-2.9999999999999997e-05,-1e-05,0.0,-1e-05,0.0,1
1852,1922,0.0,1e-05,-1e-05,-2.9999999999999997e-05,-1e-05,0.0,-1e-05,0.0,1
1853,1923,-1e-05,-1e-05,9e-05,1e-05,-1e-05,1e-05,-1e-05,-1e-05,1
1854,1924,-1e-05,-1e-05,9e-05,1e-05,-1e-05,1e-05,-1e-05,-1e-05,1
1855,1925,-1e-05,1e-05,1e-05,-1e-05,-2.9999999999999997e-05,-1e-05,-1e-05,-1e-05,1
1856,1926,-1e-05,1e-05,1e-05,-1e-05,-2.9999999999999997e-05,-1e-05,-1e-05,-1e-05,1
1857,1927,-1e-05,1e-05,1e-05,-1e-05,-2.9999999999999997e-05,-1e-05,-1e-05,-1e-05,1
1858,1928,-1e-05,1e-05,1e-05,-1e-05,-2.9999999999999997e-05,-1e-05,-1e-05,-1e-05,1
1859,1929,-1e-05,1e-05,1e-05,-1e-05,-2.9999999999999997e-05,-1e-05,-1e-05,-1e-05,1
1860,1930,-1e-05,1e-05,1e-05,-1e-05,-2.9999999999999997e-05,-1e-05,-1e-05,-1e-05,1
1861,1931,-1e-05,1e-05,1e-05,-1e-05,-2.9999999999999997e-05,-1e-05,-1e-05,-1e-05,1
1862,1932,-1e-05,1e-05,1e-05,-1e-05,-2.9999999999999997e-05,-1e-05,-1e-05,-1e-05,1
1863,1933,-1e-05,1e-05,1e-05,-1e-05,-2.9999999999999997e-05,-1e-05,-1e-05,-1e-05,1
1864,1934,-1e-05,1e-05,1e-05,-1e-05,-2.9999999999999997e-05,-1e-05,-1e-05,-1e-05,1
1865,1935,-1e-05,1e-05,1e-05,-1e-05,-2.9999999999999997e-05,-1e-05,-1e-05,-1e-05,1
1866,1936,-1e-05,1e-05,1e-05,-1e-05,-2.9999999999999997e-05,-1e-05,-1e-05,-1e-05,1
1867,1938,1e-05,-2.9999999999999997e-05,-2.9999999999999997e-05,2.9999999999999997e-05,-4e-05,0.0,-2.9999999999999997e-05,-1e-05,1
1868,1939,1e-05,-2.9999999999999997e-05,-2.9999999999999997e-05,2.9999999999999997e-05,-4e-05,0.0,-2.9999999999999997e-05,-1e-05,1
1869,1940,1e-05,-2.9999999999999997e-05,-2.9999999999999997e-05,2.9999999999999997e-05,-4e-05,0.0,-2.9999999999999997e-05,-1e-05,1
1870,1941,1e-05,-2.9999999999999997e-05,-2.9999999999999997e-05,2.9999999999999997e-05,-4e-05,0.0,-2.9999999999999997e-05,-1e-05,1
1871,1942,1e-05,-2.9999999999999997e-05,-2.9999999999999997e-05,2.9999999999999997e-05,-4e-05,0.0,-2.9999999999999997e-05,-1e-05,1
1872,1943,1e-05,-2.9999999999999997e-05,-2.9999999999999997e-05,2.9999999999999997e-05,-4e-05,0.0,-2.9999999999999997e-05,-1e-05,1
1873,1944,1e-05,-2.9999999999999997e-05,-2.9999999999999997e-05,2.9999999999999997e-05,-4e-05,0.0,-2.9999999999999997e-05,-1e-05,1
1874,1945,1e-05,-2.9999999999999997e-05,-2.9999999999999997e-05,2.9999999999999997e-05,-4e-05,0.0,-2.9999999999999997e-05,-1e-05,1
1875,1946,-1e-05,-2.9999999999999997e-05,0.0,5.9999999999999995e-05,1e-05,1e-05,0.0,-1e-05,1
1876,1947,-1e-05,-2.9999999999999997e-05,0.0,5.9999999999999995e-05,1e-05,1e-05,0.0,-1e-05,1
1877,1948,-1e-05,-2.9999999999999997e-05,0.0,5.9999999999999995e-05,1e-05,1e-05,0.0,-1e-05,1
1878,1949,-1e-05,-2.9999999999999997e-05,0.0,5.9999999999999995e-05,1e-05,1e-05,0.0,-1e-05,1
1879,1950,-1e-05,-2.9999999999999997e-05,0.0,5.9999999999999995e-05,1e-05,1e-05,0.0,-1e-05,1
1880,1951,-1e-05,-2.9999999999999997e-05,0.0,5.9999999999999995e-05,1e-05,1e-05,0.0,-1e-05,1
1881,1952,-1e-05,-2.9999999999999997e-05,0.0,5.9999999999999995e-05,1e-05,1e-05,0.0,-1e-05,1
1882,1953,-1e-05,-2.9999999999999997e-05,0.0,5.9999999999999995e-05,1e-05,1e-05,0.0,-1e-05,1
1883,1954,-1e-05,-2.9999999999999997e-05,0.0,5.9999999999999995e-05,1e-05,1e-05,0.0,-1e-05,1
1884,1955,-1e-05,-2.9999999999999997e-05,0.0,5.9999999999999995e-05,1e-05,1e-05,0.0,-1e-05,1
1885,1956,-1e-05,-2.9999999999999997e-05,0.0,5.9999999999999995e-05,1e-05,1e-05,0.0,-1e-05,1
1886,1957,-1e-05,-2.9999999999999997e-05,0.0,5.9999999999999995e-05,1e-05,1e-05,0.0,-1e-05,1
1887,1958,-1e-05,-2.9999999999999997e-05,0.0,5.9999999999999995e-05,1e-05,1e-05,0.0,-1e-05,1
1888,1959,-1e-05,-2.9999999999999997e-05,0.0,5.9999999999999995e-05,1e-05,1e-05,0.0,-1e-05,1
1889,1960,-1e-05,1e-05,0.00013000000000000002,4e-05,2e-05,-2e-05,-2e-05,-1e-05,1
1890,1961,-1e-05,1e-05,0.00013000000000000002,4e-05,2e-05,-2e-05,-2e-05,-1e-05,1
1891,1962,-1e-05,1e-05,0.00013000000000000002,4e-05,2e-05,-2e-05,-2e-05,-1e-05,1
1892,1963,-1e-05,1e-05,0.00013000000000000002,4e-05,2e-05,-2e-05,-2e-05,-1e-05,1
1893,1964,-1e-05,1e-05,0.00013000000000000002,4e-05,2e-05,-2e-05,-2e-05,-1e-05,1
1894,1965,-1e-05,1e-05,0.00013000000000000002,4e-05,2e-05,-2e-05,-2e-05,-1e-05,1
1895,1966,-1e-05,1e-05,0.00013000000000000002,4e-05,2e-05,-2e-05,-2e-05,-1e-05,1
1896,1967,-1e-05,1e-05,0.00013000000000000002,4e-05,2e-05,-2e-05,-2e-05,-1e-05,1
1897,1968,-1e-05,-1e-05,-0.00021,-1e-05,-1e-05,-1e-05,-1e-05,-1e-05,1
1898,1969,-1e-05,-1e-05,7e-05,-4e-05,-5e-05,-2.9999999999999997e-05,0.0,-1e-05,1
1899,1970,-1e-05,-1e-05,7e-05,-4e-05,-5e-05,-2.9999999999999997e-05,0.0,-1e-05,1
1900,1971,-1e-05,-1e-05,7e-05,-4e-05,-5e-05,-2.9999999999999997e-05,0.0,-1e-05,1
1901,1972,-1e-05,-1e-05,7e-05,-4e-05,-5e-05,-2.9999999999999997e-05,0.0,-1e-05,1
1902,1973,-1e-05,-1e-05,7e-05,-4e-05,-5e-05,-2.9999999999999997e-05,0.0,-1e-05,1
1903,1974,-1e-05,-1e-05,7e-05,-4e-05,-5e-05,-2.9999999999999997e-05,0.0,-1e-05,1
1904,1975,-1e-05,-1e-05,7e-05,-4e-05,-5e-05,-2.9999999999999997e-05,0.0,-1e-05,1
1905,1976,-1e-05,-1e-05,7e-05,-4e-05,-5e-05,-2.9999999999999997e-05,0.0,-1e-05,1
1906,1977,-1e-05,-1e-05,7e-05,-4e-05,-5e-05,-2.9999999999999997e-05,0.0,-1e-05,1
1907,1978,-1e-05,-1e-05,7e-05,-4e-05,-5e-05,-2.9999999999999997e-05,0.0,-1e-05,1
1908,1979,-1e-05,-1e-05,7e-05,-4e-05,-5e-05,-2.9999999999999997e-05,0.0,-1e-05,1
1909,1980,-1e-05,-1e-05,7e-05,-4e-05,-5e-05,-2.9999999999999997e-05,0.0,-1e-05,1
1910,1981,-1e-05,-1e-05,7e-05,-4e-05,-5e-05,-2.9999999999999997e-05,0.0,-1e-05,1
1911,1982,-1e-05,-1e-05,7e-05,-4e-05,-5e-05,-2.9999999999999997e-05,0.0,-1e-05,1
1912,1983,0.0,0.0,2.9999999999999997e-05,-1e-05,2e-05,-1e-05,-2e-05,-1e-05,1
1913,1984,-2e-05,-1e-05,-5e-05,2e-05,-1e-05,-2e-05,-2.9999999999999997e-05,0.0,1
1914,1985,0.0,0.0,-4e-05,-2e-05,1e-05,-1e-05,1e-05,-1e-05,1
1915,1986,0.0,0.0,-4e-05,-2e-05,1e-05,-1e-05,1e-05,-1e-05,1
1916,1988,0.0,0.0,-4e-05,-2e-05,1e-05,-1e-05,1e-05,-1e-05,1
1917,1989,0.0,0.0,-4e-05,-2e-05,1e-05,-1e-05,1e-05,-1e-05,1
1918,1990,0.0,0.0,-4e-05,-2e-05,1e-05,-1e-05,1e-05,-1e-05,1
1919,1991,0.0,0.0,-4e-05,-2e-05,1e-05,-1e-05,1e-05,-1e-05,1
1920,1992,0.0,0.0,-4e-05,-2e-05,1e-05,-1e-05,1e-05,-1e-05,1
1921,1993,0.0,0.0,-4e-05,-2e-05,1e-05,-1e-05,1e-05,-1e-05,1
1922,1994,0.0,0.0,-4e-05,-2e-05,1e-05,-1e-05,1e-05,-1e-05,1
1923,1995,0.0,0.0,-4e-05,-2e-05,1e-05,-1e-05,1e-05,-1e-05,1
1924,1996,0.0,0.0,-4e-05,-2e-05,1e-05,-1e-05,1e-05,-1e-05,1
1925,1997,0.0,0.0,-4e-05,-2e-05,1e-05,-1e-05,1e-05,-1e-05,1
1926,1998,0.0,0.0,-4e-05,-2e-05,1e-05,-1e-05,1e-05,-1e-05,1
1927,1999,0.0,0.0,-4e-05,-2e-05,1e-05,-1e-05,1e-05,-1e-05,1
1928,2000,0.0,0.0,-4e-05,-2e-05,1e-05,-1e-05,1e-05,-1e-05,1
1929,2001,0.0,0.0,-4e-05,-2e-05,1e-05,-1e-05,1e-05,-1e-05,1
1930,2002,0.0,0.0,-4e-05,-2e-05,1e-05,-1e-05,1e-05,-1e-05,1
1931,2003,0.0,0.0,-4e-05,-2e-05,1e-05,-1e-05,1e-05,-1e-05,1
1932,2004,0.0,0.0,-4e-05,-2e-05,1e-05,-1e-05,1e-05,-1e-05,1
1933,2005,0.0,0.0,-4e-05,-2e-05,1e-05,-1e-05,1e-05,-1e-05,1
1934,2006,0.0,-2.9999999999999997e-05,-0.0001,-2e-05,-2e-05,1e-05,1e-05,0.0,1
1935,2007,0.0,-2.9999999999999997e-05,-0.0001,-2e-05,-2e-05,1e-05,1e-05,0.0,1
1936,2008,-1e-05,1e-05,-5e-05,2.9999999999999997e-05,-1e-05,-1e-05,-1e-05,0.0,1
1937,2009,-1e-05,1e-05,-5e-05,2.9999999999999997e-05,-1e-05,-1e-05,-1e-05,0.0,1
1938,2010,-1e-05,1e-05,-5e-05,2.9999999999999997e-05,-1e-05,-1e-05,-1e-05,0.0,1
1939,2011,-1e-05,1e-05,-5e-05,2.9999999999999997e-05,-1e-05,-1e-05,-1e-05,0.0,1
1940,2012,-1e-05,1e-05,-5e-05,2.9999999999999997e-05,-1e-05,-1e-05,-1e-05,0.0,1
1941,2013,-1e-05,1e-05,-5e-05,2.9999999999999997e-05,-1e-05,-1e-05,-1e-05,0.0,1
1942,2014,-1e-05,1e-05,-5e-05,2.9999999999999997e-05,-1e-05,-1e-05,-1e-05,0.0,1
1943,2015,-1e-05,1e-05,-5e-05,2.9999999999999997e-05,-1e-05,-1e-05,-1e-05,0.0,1
1944,2016,-1e-05,1e-05,-5e-05,2.9999999999999997e-05,-1e-05,-1e-05,-1e-05,0.0,1
1945,2017,-1e-05,1e-05,-5e-05,2.9999999999999997e-05,-1e-05,-1e-05,-1e-05,0.0,1
1946,2018,-1e-05,1e-05,-5e-05,2.9999999999999997e-05,-1e-05,-1e-05,-1e-05,0.0,1
1947,2019,-1e-05,1e-05,-5e-05,2.9999999999999997e-05,-1e-05,-1e-05,-1e-05,0.0,1
1948,2020,-2e-05,-2e-05,-4e-05,-1e-05,0.0,-1e-05,-1e-05,-2e-05,1
1949,2021,0.0,-1e-05,1e-05,5.9999999999999995e-05,0.0,-1e-05,1e-05,0.0,1
1950,2022,0.0,-1e-05,1e-05,5.9999999999999995e-05,0.0,-1e-05,1e-05,0.0,1
1951,2023,0.0,-1e-05,1e-05,5.9999999999999995e-05,0.0,-1e-05,1e-05,0.0,1
1952,2024,0.0,-1e-05,1e-05,5.9999999999999995e-05,0.0,-1e-05,1e-05,0.0,1
1953,2025,0.0,-1e-05,1e-05,5.9999999999999995e-05,0.0,-1e-05,1e-05,0.0,1
1954,2026,0.0,-1e-05,1e-05,5.9999999999999995e-05,0.0,-1e-05,1e-05,0.0,1
1955,2027,0.0,-1e-05,1e-05,5.9999999999999995e-05,0.0,-1e-05,1e-05,0.0,1
1956,2028,0.0,-1e-05,1e-05,5.9999999999999995e-05,0.0,-1e-05,1e-05,0.0,1
1957,2029,0.0,-1e-05,1e-05,5.9999999999999995e-05,0.0,-1e-05,1e-05,0.0,1
1958,2030,0.0,-1e-05,1e-05,5.9999999999999995e-05,0.0,-1e-05,1e-05,0.0,1
1959,2031,0.0,-1e-05,1e-05,5.9999999999999995e-05,0.0,-1e-05,1e-05,0.0,1
1960,2032,0.0,-1e-05,1e-05,5.9999999999999995e-05,0.0,-1e-05,1e-05,0.0,1
1961,2033,0.0,-1e-05,1e-05,5.9999999999999995e-05,0.0,-1e-05,1e-05,0.0,1
1962,2034,0.0,-1e-05,1e-05,5.9999999999999995e-05,0.0,-1e-05,1e-05,0.0,1
1963,2035,0.0,-1e-05,1e-05,5.9999999999999995e-05,0.0,-1e-05,1e-05,0.0,1
1964,2036,0.0,-1e-05,1e-05,5.9999999999999995e-05,0.0,-1e-05,1e-05,0.0,1
1965,2038,0.0,-1e-05,1e-05,5.9999999999999995e-05,0.0,-1e-05,1e-05,0.0,1
1966,2039,0.0,-1e-05,1e-05,5.9999999999999995e-05,0.0,-1e-05,1e-05,0.0,1
1967,2040,0.0,-1e-05,1e-05,5.9999999999999995e-05,0.0,-1e-05,1e-05,0.0,1
1968,2041,0.0,-1e-05,1e-05,5.9999999999999995e-05,0.0,-1e-05,1e-05,0.0,1
1969,2042,0.0,-1e-05,1e-05,5.9999999999999995e-05,0.0,-1e-05,1e-05,0.0,1
1970,2043,-2e-05,-1e-05,-2.9999999999999997e-05,-0.0001,-1e-05,-2.9999999999999997e-05,-2.9999999999999997e-05,-1e-05,1
1971,2044,-2.9999999999999997e-05,0.0,-0.00016,-4e-05,1e-05,0.0,-1e-05,-2e-05,1
1972,2045,-2.9999999999999997e-05,0.0,-0.00016,-4e-05,1e-05,0.0,-1e-05,-2e-05,1
1973,2046,-2.9999999999999997e-05,0.0,-0.00016,-4e-05,1e-05,0.0,-1e-05,-2e-05,1
1974,2047,-2.9999999999999997e-05,0.0,-0.00016,-4e-05,1e-05,0.0,-1e-05,-2e-05,1
1975,2048,-2.9999999999999997e-05,0.0,-0.00016,-4e-05,1e-05,0.0,-1e-05,-2e-05,1
1976,2049,-2.9999999999999997e-05,0.0,-0.00016,-4e-05,1e-05,0.0,-1e-05,-2e-05,1
1977,2050,-2.9999999999999997e-05,0.0,-0.00016,-4e-05,1e-05,0.0,-1e-05,-2e-05,1
1978,2051,-2.9999999999999997e-05,0.0,-0.00016,-4e-05,1e-05,0.0,-1e-05,-2e-05,1
1979,2052,-2.9999999999999997e-05,0.0,-0.00016,-4e-05,1e-05,0.0,-1e-05,-2e-05,1
1980,2053,-2.9999999999999997e-05,0.0,-0.00016,-4e-05,1e-05,0.0,-1e-05,-2e-05,1
1981,2054,-2.9999999999999997e-05,0.0,-0.00016,-4e-05,1e-05,0.0,-1e-05,-2e-05,1
1982,2055,-2.9999999999999997e-05,0.0,-0.00016,-4e-05,1e-05,0.0,-1e-05,-2e-05,1
1983,2056,-2.9999999999999997e-05,0.0,-0.00016,-4e-05,1e-05,0.0,-1e-05,-2e-05,1
1984,2057,-2.9999999999999997e-05,0.0,-0.00016,-4e-05,1e-05,0.0,-1e-05,-2e-05,1
1985,2058,-2.9999999999999997e-05,0.0,-0.00016,-4e-05,1e-05,0.0,-1e-05,-2e-05,1
1986,2059,-2.9999999999999997e-05,0.0,-0.00016,-4e-05,1e-05,0.0,-1e-05,-2e-05,1
1987,2060,-2.9999999999999997e-05,0.0,-0.00016,-4e-05,1e-05,0.0,-1e-05,-2e-05,1
1988,2061,-2.9999999999999997e-05,0.0,-0.00016,-4e-05,1e-05,0.0,-1e-05,-2e-05,1
1989,2062,-2.9999999999999997e-05,0.0,-0.00016,-4e-05,1e-05,0.0,-1e-05,-2e-05,1
1990,2063,-2.9999999999999997e-05,0.0,-0.00016,-4e-05,1e-05,0.0,-1e-05,-2e-05,1
1991,2064,-2.9999999999999997e-05,0.0,-0.00016,-4e-05,1e-05,0.0,-1e-05,-2e-05,1
1992,2065,0.0,-4e-05,-2.9999999999999997e-05,-4e-05,-1e-05,-2e-05,-1e-05,-2e-05,1
1993,2066,0.0,-2e-05,5.9999999999999995e-05,2e-05,0.0,0.0,0.0,-1e-05,1
1994,2067,0.0,-2e-05,5.9999999999999995e-05,2e-05,0.0,0.0,0.0,-1e-05,1
1995,2068,0.0,-2e-05,5.9999999999999995e-05,2e-05,0.0,0.0,0.0,-1e-05,1
1996,2069,0.0,-2e-05,5.9999999999999995e-05,2e-05,0.0,0.0,0.0,-1e-05,1
1997,2070,0.0,-2e-05,5.9999999999999995e-05,2e-05,0.0,0.0,0.0,-1e-05,1
1998,2071,0.0,-2e-05,5.9999999999999995e-05,2e-05,0.0,0.0,0.0,-1e-05,1
1999,2072,0.0,-2e-05,5.9999999999999995e-05,2e-05,0.0,0.0,0.0,-1e-05,1
2000,2073,0.0,-2e-05,5.9999999999999995e-05,2e-05,0.0,0.0,0.0,-1e-05,1
2001,2074,0.0,-2e-05,5.9999999999999995e-05,2e-05,0.0,0.0,0.0,-1e-05,1
2002,2075,0.0,-2e-05,5.9999999999999995e-05,2e-05,0.0,0.0,0.0,-1e-05,1
2003,2076,0.0,-2e-05,5.9999999999999995e-05,2e-05,0.0,0.0,0.0,-1e-05,1
2004,2077,0.0,-2e-05,5.9999999999999995e-05,2e-05,0.0,0.0,0.0,-1e-05,1
2005,2078,0.0,-2e-05,5.9999999999999995e-05,2e-05,0.0,0.0,0.0,-1e-05,1
2006,2079,0.0,-2e-05,-5e-05,0.0,-2.9999999999999997e-05,-1e-05,2e-05,-1e-05,1
2007,2080,-2.9999999999999997e-05,-1e-05,2e-05,2.9999999999999997e-05,0.0,0.0,0.0,-1e-05,1
2008,2081,-2.9999999999999997e-05,-1e-05,2e-05,2.9999999999999997e-05,0.0,0.0,0.0,-1e-05,1
2009,2082,-2.9999999999999997e-05,-1e-05,2e-05,2.9999999999999997e-05,0.0,0.0,0.0,-1e-05,1
2010,2083,-2.9999999999999997e-05,-1e-05,2e-05,2.9999999999999997e-05,0.0,0.0,0.0,-1e-05,1
2011,2084,-2.9999999999999997e-05,-1e-05,2e-05,2.9999999999999997e-05,0.0,0.0,0.0,-1e-05,1
2012,2085,-2.9999999999999997e-05,-1e-05,2e-05,2.9999999999999997e-05,0.0,0.0,0.0,-1e-05,1
2013,2086,-2.9999999999999997e-05,-1e-05,2e-05,2.9999999999999997e-05,0.0,0.0,0.0,-1e-05,1
2014,2088,-1e-05,-2e-05,-1e-05,-9e-05,0.0,-2e-05,-2e-05,0.0,1
2015,2089,-1e-05,-2e-05,-1e-05,-9e-05,0.0,-2e-05,-2e-05,0.0,1
2016,2090,-1e-05,-2e-05,-1e-05,-9e-05,0.0,-2e-05,-2e-05,0.0,1
2017,2091,-1e-05,-2e-05,-1e-05,-9e-05,0.0,-2e-05,-2e-05,0.0,1
2018,2092,-1e-05,-2e-05,-1e-05,-9e-05,0.0,-2e-05,-2e-05,0.0,1
2019,2093,-1e-05,-2e-05,-1e-05,-9e-05,0.0,-2e-05,-2e-05,0.0,1
2020,2094,-1e-05,-2e-05,-1e-05,-9e-05,0.0,-2e-05,-2e-05,0.0,1
2021,2095,-1e-05,-2e-05,-1e-05,-9e-05,0.0,-2e-05,-2e-05,0.0,1
2022,2096,-1e-05,-2e-05,-1e-05,-9e-05,0.0,-2e-05,-2e-05,0.0,1
2023,2097,-1e-05,-2e-05,-1e-05,-9e-05,0.0,-2e-05,-2e-05,0.0,1
2024,2098,-1e-05,-2e-05,-1e-05,-9e-05,0.0,-2e-05,-2e-05,0.0,1
2025,2099,-1e-05,-2e-05,-1e-05,-9e-05,0.0,-2e-05,-2e-05,0.0,1
2026,2100,-1e-05,-2e-05,-1e-05,-9e-05,0.0,-2e-05,-2e-05,0.0,1
2027,2101,-1e-05,-2e-05,-1e-05,-9e-05,0.0,-2e-05,-2e-05,0.0,1
2028,2102,-1e-05,-2e-05,-1e-05,-9e-05,0.0,-2e-05,-2e-05,0.0,1
2029,2103,-1e-05,-2e-05,0.0,0.0,-1e-05,-1e-05,0.0,-1e-05,1
2030,2104,-1e-05,-2e-05,0.0,0.0,-1e-05,-1e-05,0.0,-1e-05,1
2031,2105,-1e-05,-2e-05,0.0,0.0,-1e-05,-1e-05,0.0,-1e-05,1
2032,2106,-1e-05,-2e-05,0.0,0.0,-1e-05,-1e-05,0.0,-1e-05,1
2033,2107,-1e-05,-2e-05,0.0,0.0,-1e-05,-1e-05,0.0,-1e-05,1
2034,2108,-1e-05,-2e-05,0.0,0.0,-1e-05,-1e-05,0.0,-1e-05,1
2035,2109,-1e-05,-2e-05,0.0,0.0,-1e-05,-1e-05,0.0,-1e-05,1
2036,2110,-1e-05,-2e-05,0.0,0.0,-1e-05,-1e-05,0.0,-1e-05,1
2037,2111,-1e-05,-2e-05,0.0,0.0,-1e-05,-1e-05,0.0,-1e-05,1
2038,2112,-1e-05,-2e-05,0.0,0.0,-1e-05,-1e-05,0.0,-1e-05,1
2039,2113,-1e-05,-2e-05,0.0,0.0,-1e-05,-1e-05,0.0,-1e-05,1
2040,2114,-1e-05,-2e-05,0.0,0.0,-1e-05,-1e-05,0.0,-1e-05,1
2041,2115,-1e-05,-2e-05,0.0,0.0,-1e-05,-1e-05,0.0,-1e-05,1
2042,2116,-1e-05,-2e-05,0.0,0.0,-1e-05,-1e-05,0.0,-1e-05,1
2043,2117,-1e-05,-2e-05,0.0,0.0,-1e-05,-1e-05,0.0,-1e-05,1
2044,2118,-1e-05,-2e-05,0.0,0.0,-1e-05,-1e-05,0.0,-1e-05,1
2045,2119,-1e-05,-2e-05,0.0,0.0,-1e-05,-1e-05,0.0,-1e-05,1
2046,2120,-1e-05,-2e-05,0.0,0.0,-1e-05,-1e-05,0.0,-1e-05,1
2047,2121,-1e-05,-2e-05,0.0,0.0,-1e-05,-1e-05,0.0,-1e-05,1
2048,2122,-1e-05,-2e-05,0.0,0.0,-1e-05,-1e-05,0.0,-1e-05,1
2049,2123,-1e-05,-2e-05,0.0,0.0,-1e-05,-1e-05,0.0,-1e-05,1
2050,2124,-1e-05,-2e-05,0.0,0.0,-1e-05,-1e-05,0.0,-1e-05,1
2051,2125,-1e-05,1e-05,0.00016,0.0,-2e-05,0.0,-1e-05,0.0,1
2052,2126,1e-05,-1e-05,5.9999999999999995e-05,0.00011999999999999999,2e-05,-1e-05,-2e-05,-1e-05,1
2053,2127,1e-05,-1e-05,5.9999999999999995e-05,0.00011999999999999999,2e-05,-1e-05,-2e-05,-1e-05,1
2054,2128,1e-05,-1e-05,5.9999999999999995e-05,0.00011999999999999999,2e-05,-1e-05,-2e-05,-1e-05,1
2055,2129,1e-05,-1e-05,5.9999999999999995e-05,0.00011999999999999999,2e-05,-1e-05,-2e-05,-1e-05,1
2056,2130,1e-05,-1e-05,5.9999999999999995e-05,0.00011999999999999999,2e-05,-1e-05,-2e-05,-1e-05,1
2057,2131,1e-05,-1e-05,5.9999999999999995e-05,0.00011999999999999999,2e-05,-1e-05,-2e-05,-1e-05,1
2058,2132,1e-05,-1e-05,5.9999999999999995e-05,0.00011999999999999999,2e-05,-1e-05,-2e-05,-1e-05,1
2059,2133,1e-05,-1e-05,5.9999999999999995e-05,0.00011999999999999999,2e-05,-1e-05,-2e-05,-1e-05,1
2060,2134,1e-05,-1e-05,5.9999999999999995e-05,0.00011999999999999999,2e-05,-1e-05,-2e-05,-1e-05,1
2061,2135,1e-05,-1e-05,5.9999999999999995e-05,0.00011999999999999999,2e-05,-1e-05,-2e-05,-1e-05,1
2062,2136,1e-05,-1e-05,5.9999999999999995e-05,0.00011999999999999999,2e-05,-1e-05,-2e-05,-1e-05,1
2063,2138,1e-05,-1e-05,5.9999999999999995e-05,0.00011999999999999999,2e-05,-1e-05,-2e-05,-1e-05,1
2064,2139,1e-05,-1e-05,5.9999999999999995e-05,0.00011999999999999999,2e-05,-1e-05,-2e-05,-1e-05,1
2065,2140,0.0,0.0,-5.9999999999999995e-05,2e-05,-1e-05,-2e-05,-2e-05,-1e-05,1
2066,2141,-2e-05,-2e-05,-1e-05,-5.9999999999999995e-05,-2e-05,1e-05,0.0,0.0,1
2067,2142,-2e-05,-2e-05,-1e-05,-5.9999999999999995e-05,-2e-05,1e-05,0.0,0.0,1
2068,2143,-2e-05,-2e-05,-1e-05,-5.9999999999999995e-05,-2e-05,1e-05,0.0,0.0,1
2069,2144,-2e-05,-2e-05,-1e-05,-5.9999999999999995e-05,-2e-05,1e-05,0.0,0.0,1
2070,2145,-2e-05,-2e-05,-1e-05,-5.9999999999999995e-05,-2e-05,1e-05,0.0,0.0,1
2071,2146,-2e-05,-2e-05,-1e-05,-5.9999999999999995e-05,-2e-05,1e-05,0.0,0.0,1
2072,2147,-2e-05,-2e-05,-1e-05,-5.9999999999999995e-05,-2e-05,1e-05,0.0,0.0,1
2073,2148,-2e-05,-2e-05,-1e-05,-5.9999999999999995e-05,-2e-05,1e-05,0.0,0.0,1
2074,2149,-2e-05,-2e-05,-1e-05,-5.9999999999999995e-05,-2e-05,1e-05,0.0,0.0,1
2075,2150,-2e-05,-2e-05,-1e-05,-5.9999999999999995e-05,-2e-05,1e-05,0.0,0.0,1
2076,2151,-2e-05,-2e-05,-1e-05,-5.9999999999999995e-05,-2e-05,1e-05,0.0,0.0,1
2077,2152,-2e-05,-2e-05,-1e-05,-5.9999999999999995e-05,-2e-05,1e-05,0.0,0.0,1
2078,2153,-2e-05,-2e-05,-1e-05,-5.9999999999999995e-05,-2e-05,1e-05,0.0,0.0,1
2079,2154,-2e-05,-2e-05,-1e-05,-5.9999999999999995e-05,-2e-05,1e-05,0.0,0.0,1
2080,2155,-2e-05,-2e-05,-1e-05,-5.9999999999999995e-05,-2e-05,1e-05,0.0,0.0,1
2081,2156,-2e-05,-2e-05,-1e-05,-5.9999999999999995e-05,-2e-05,1e-05,0.0,0.0,1
2082,2157,-2e-05,-2e-05,-1e-05,-5.9999999999999995e-05,-2e-05,1e-05,0.0,0.0,1
2083,2158,-2e-05,-2e-05,-1e-05,-5.9999999999999995e-05,-2e-05,1e-05,0.0,0.0,1
2084,2159,-2e-05,-2e-05,-1e-05,-5.9999999999999995e-05,-2e-05,1e-05,0.0,0.0,1
2085,2160,-2e-05,-2e-05,-1e-05,-5.9999999999999995e-05,-2e-05,1e-05,0.0,0.0,1
2086,2161,-2e-05,-2e-05,-1e-05,-5.9999999999999995e-05,-2e-05,1e-05,0.0,0.0,1
2087,2162,-2e-05,-2e-05,-1e-05,-5.9999999999999995e-05,-2e-05,1e-05,0.0,0.0,1
2088,2163,0.0,-2e-05,-5.9999999999999995e-05,1e-05,-2.9999999999999997e-05,-2e-05,-1e-05,0.0,1
2089,2164,0.0,1e-05,0.0,-4e-05,-2e-05,-1e-05,-1e-05,-1e-05,1
2090,2165,0.0,1e-05,0.0,-4e-05,-2e-05,-1e-05,-1e-05,-1e-05,1
2091,2166,0.0,1e-05,0.0,-4e-05,-2e-05,-1e-05,-1e-05,-1e-05,1
2092,2167,0.0,1e-05,0.0,-4e-05,-2e-05,-1e-05,-1e-05,-1e-05,1
2093,2168,0.0,1e-05,0.0,-4e-05,-2e-05,-1e-05,-1e-05,-1e-05,1
2094,2169,0.0,1e-05,0.0,-4e-05,-2e-05,-1e-05,-1e-05,-1e-05,1
2095,2170,0.0,1e-05,0.0,-4e-05,-2e-05,-1e-05,-1e-05,-1e-05,1
2096,2171,0.0,1e-05,0.0,-4e-05,-2e-05,-1e-05,-1e-05,-1e-05,1
2097,2172,0.0,1e-05,0.0,-4e-05,-2e-05,-1e-05,-1e-05,-1e-05,1
2098,2173,0.0,1e-05,0.0,-4e-05,-2e-05,-1e-05,-1e-05,-1e-05,1
2099,2174,0.0,1e-05,0.0,-4e-05,-2e-05,-1e-05,-1e-05,-1e-05,1
2100,2175,0.0,1e-05,0.0,-4e-05,-2e-05,-1e-05,-1e-05,-1e-05,1
2101,2176,0.0,1e-05,0.0,-4e-05,-2e-05,-1e-05,-1e-05,-1e-05,1
2102,2177,0.0,1e-05,0.0,-4e-05,-2e-05,-1e-05,-1e-05,-1e-05,1
2103,2178,0.0,1e-05,0.0,-4e-05,-2e-05,-1e-05,-1e-05,-1e-05,1
2104,2179,0.0,1e-05,0.0,-4e-05,-2e-05,-1e-05,-1e-05,-1e-05,1
2105,2180,0.0,1e-05,0.0,-4e-05,-2e-05,-1e-05,-1e-05,-1e-05,1
2106,2181,0.0,1e-05,0.0,-4e-05,-2e-05,-1e-05,-1e-05,-1e-05,1
2107,2182,0.0,1e-05,0.0,-4e-05,-2e-05,-1e-05,-1e-05,-1e-05,1
2108,2183,0.0,1e-05,0.0,-4e-05,-2e-05,-1e-05,-1e-05,-1e-05,1
2109,2184,0.0,1e-05,0.0,-4e-05,-2e-05,-1e-05,-1e-05,-1e-05,1
2110,2185,0.0,-1e-05,-7e-05,1e-05,-5e-05,-2e-05,-2e-05,-1e-05,1
2111,2186,-1e-05,0.0,0.0,1e-05,-2e-05,-4e-05,-1e-05,-2.9999999999999997e-05,1
2112,2188,-1e-05,0.0,0.0,1e-05,-2e-05,-4e-05,-1e-05,-2.9999999999999997e-05,1
2113,2189,-1e-05,0.0,0.0,1e-05,-2e-05,-4e-05,-1e-05,-2.9999999999999997e-05,1
2114,2190,-1e-05,0.0,0.0,1e-05,-2e-05,-4e-05,-1e-05,-2.9999999999999997e-05,1
2115,2191,-1e-05,0.0,0.0,1e-05,-2e-05,-4e-05,-1e-05,-2.9999999999999997e-05,1
2116,2192,-1e-05,0.0,0.0,1e-05,-2e-05,-4e-05,-1e-05,-2.9999999999999997e-05,1
2117,2193,-1e-05,0.0,0.0,1e-05,-2e-05,-4e-05,-1e-05,-2.9999999999999997e-05,1
2118,2194,-1e-05,0.0,0.0,1e-05,-2e-05,-4e-05,-1e-05,-2.9999999999999997e-05,1
2119,2195,-1e-05,0.0,0.0,1e-05,-2e-05,-4e-05,-1e-05,-2.9999999999999997e-05,1
2120,2196,-1e-05,0.0,0.0,1e-05,-2e-05,-4e-05,-1e-05,-2.9999999999999997e-05,1
2121,2197,-1e-05,0.0,0.0,1e-05,-2e-05,-4e-05,-1e-05,-2.9999999999999997e-05,1
2122,2198,-1e-05,0.0,0.0,1e-05,-2e-05,-4e-05,-1e-05,-2.9999999999999997e-05,1
2123,2199,-1e-05,0.0,0.0,1e-05,-2e-05,-4e-05,-1e-05,-2.9999999999999997e-05,1
2124,2200,0.0,-2e-05,-0.00018999999999999998,-7e-05,1e-05,-4e-05,1e-05,-1e-05,1
2125,2201,-1e-05,0.0,2e-05,-5e-05,-2e-05,-1e-05,-2.9999999999999997e-05,-2e-05,1
2126,2202,-1e-05,0.0,2e-05,-5e-05,-2e-05,-1e-05,-2.9999999999999997e-05,-2e-05,1
2127,2203,-1e-05,0.0,2e-05,-5e-05,-2e-05,-1e-05,-2.9999999999999997e-05,-2e-05,1
2128,2204,-1e-05,0.0,2e-05,-5e-05,-2e-05,-1e-05,-2.9999999999999997e-05,-2e-05,1
2129,2205,-1e-05,0.0,2e-05,-5e-05,-2e-05,-1e-05,-2.9999999999999997e-05,-2e-05,1
2130,2206,-1e-05,0.0,2e-05,-5e-05,-2e-05,-1e-05,-2.9999999999999997e-05,-2e-05,1
2131,2207,-1e-05,0.0,2e-05,-5e-05,-2e-05,-1e-05,-2.9999999999999997e-05,-2e-05,1
2132,2208,-1e-05,0.0,2e-05,-5e-05,-2e-05,-1e-05,-2.9999999999999997e-05,-2e-05,1
2133,2209,-1e-05,0.0,2e-05,-5e-05,-2e-05,-1e-05,-2.9999999999999997e-05,-2e-05,1
2134,2210,-1e-05,0.0,2e-05,-5e-05,-2e-05,-1e-05,-2.9999999999999997e-05,-2e-05,1
2135,2211,-1e-05,0.0,2e-05,-5e-05,-2e-05,-1e-05,-2.9999999999999997e-05,-2e-05,1
2136,2212,-1e-05,0.0,2e-05,-5e-05,-2e-05,-1e-05,-2.9999999999999997e-05,-2e-05,1
2137,2213,-1e-05,0.0,2e-05,-5e-05,-2e-05,-1e-05,-2.9999999999999997e-05,-2e-05,1
2138,2214,-1e-05,0.0,2e-05,-5e-05,-2e-05,-1e-05,-2.9999999999999997e-05,-2e-05,1
2139,2215,-1e-05,0.0,2e-05,-5e-05,-2e-05,-1e-05,-2.9999999999999997e-05,-2e-05,1
2140,2216,-1e-05,0.0,2e-05,-5e-05,-2e-05,-1e-05,-2.9999999999999997e-05,-2e-05,1
2141,2217,-1e-05,0.0,2e-05,-5e-05,-2e-05,-1e-05,-2.9999999999999997e-05,-2e-05,1
2142,2218,-1e-05,0.0,2e-05,-5e-05,-2e-05,-1e-05,-2.9999999999999997e-05,-2e-05,1
2143,2219,-1e-05,0.0,2e-05,-5e-05,-2e-05,-1e-05,-2.9999999999999997e-05,-2e-05,1
2144,2220,-1e-05,0.0,2e-05,-5e-05,-2e-05,-1e-05,-2.9999999999999997e-05,-2e-05,1
2145,2221,-1e-05,0.0,2e-05,-5e-05,-2e-05,-1e-05,-2.9999999999999997e-05,-2e-05,1
2146,2222,-1e-05,0.0,2e-05,-5e-05,-2e-05,-1e-05,-2.9999999999999997e-05,-2e-05,1
2147,2223,-1e-05,-1e-05,-2e-05,2e-05,0.0,-2e-05,1e-05,0.0,1
2148,2224,-2e-05,-2e-05,5e-05,-4e-05,-1e-05,-1e-05,-1e-05,0.0,1
2149,2225,-2e-05,-2e-05,5e-05,-4e-05,-1e-05,-1e-05,-1e-05,0.0,1
2150,2226,-2e-05,-2e-05,5e-05,-4e-05,-1e-05,-1e-05,-1e-05,0.0,1
2151,2227,-2e-05,-2e-05,5e-05,-4e-05,-1e-05,-1e-05,-1e-05,0.0,1
2152,2228,-2e-05,-2e-05,5e-05,-4e-05,-1e-05,-1e-05,-1e-05,0.0,1
2153,2229,-2e-05,-2e-05,5e-05,-4e-05,-1e-05,-1e-05,-1e-05,0.0,1
2154,2230,-2e-05,-2e-05,5e-05,-4e-05,-1e-05,-1e-05,-1e-05,0.0,1
2155,2231,-2e-05,-2e-05,5e-05,-4e-05,-1e-05,-1e-05,-1e-05,0.0,1
2156,2232,-2e-05,-2e-05,5e-05,-4e-05,-1e-05,-1e-05,-1e-05,0.0,1
2157,2233,-2e-05,-2e-05,5e-05,-4e-05,-1e-05,-1e-05,-1e-05,0.0,1
2158,2234,-2e-05,-2e-05,5e-05,-4e-05,-1e-05,-1e-05,-1e-05,0.0,1
2159,2235,-2e-05,-2e-05,5e-05,-4e-05,-1e-05,-1e-05,-1e-05,0.0,1
2160,2236,-2e-05,-2e-05,5e-05,-4e-05,-1e-05,-1e-05,-1e-05,0.0,1
2161,2238,-2e-05,-2e-05,5e-05,-4e-05,-1e-05,-1e-05,-1e-05,0.0,1
2162,2239,-2e-05,-2e-05,5e-05,-4e-05,-1e-05,-1e-05,-1e-05,0.0,1
2163,2240,-2e-05,-2e-05,5e-05,-4e-05,-1e-05,-1e-05,-1e-05,0.0,1
2164,2241,-2e-05,-2e-05,5e-05,-4e-05,-1e-05,-1e-05,-1e-05,0.0,1
2165,2242,-2e-05,-2e-05,5e-05,-4e-05,-1e-05,-1e-05,-1e-05,0.0,1
2166,2243,-2e-05,-2e-05,5e-05,-4e-05,-1e-05,-1e-05,-1e-05,0.0,1
2167,2244,-2e-05,-2e-05,5e-05,-4e-05,-1e-05,-1e-05,-1e-05,0.0,1
2168,2245,-2e-05,-2e-05,5e-05,-4e-05,-1e-05,-1e-05,-1e-05,0.0,1
2169,2246,-2e-05,-2e-05,5e-05,-4e-05,-1e-05,-1e-05,-1e-05,0.0,1
2170,2247,-2e-05,-2e-05,5e-05,-4e-05,-1e-05,-1e-05,-1e-05,0.0,1
2171,2248,-2e-05,-2e-05,5e-05,-4e-05,-1e-05,-1e-05,-1e-05,0.0,1
2172,2249,-2e-05,-2e-05,5e-05,-4e-05,-1e-05,-1e-05,-1e-05,0.0,1
2173,2250,-2e-05,-2e-05,5e-05,-4e-05,-1e-05,-1e-05,-1e-05,0.0,1
2174,2251,-2e-05,-2e-05,5e-05,-4e-05,-1e-05,-1e-05,-1e-05,0.0,1
2175,2252,-2e-05,-2e-05,5e-05,-4e-05,-1e-05,-1e-05,-1e-05,0.0,1
2176,2253,-2e-05,-2e-05,5e-05,-4e-05,-1e-05,-1e-05,-1e-05,0.0,1
2177,2254,0.0,0.0,2e-05,-4e-05,-2e-05,-1e-05,-1e-05,-2e-05,1
2178,2255,0.0,0.0,2e-05,-4e-05,-2e-05,-1e-05,-1e-05,-2e-05,1
2179,2256,0.0,0.0,2e-05,-4e-05,-2e-05,-1e-05,-1e-05,-2e-05,1
2180,2257,0.0,0.0,2e-05,-4e-05,-2e-05,-1e-05,-1e-05,-2e-05,1
2181,2258,0.0,0.0,2e-05,-4e-05,-2e-05,-1e-05,-1e-05,-2e-05,1
2182,2259,0.0,0.0,2e-05,-4e-05,-2e-05,-1e-05,-1e-05,-2e-05,1
2183,2260,0.0,0.0,1e-05,-5.9999999999999995e-05,1e-05,-2e-05,1e-05,-2e-05,1
2184,2261,0.0,-2e-05,0.0,5e-05,-1e-05,-1e-05,-1e-05,-2e-05,1
2185,2262,0.0,-2e-05,0.0,5e-05,-1e-05,-1e-05,-1e-05,-2e-05,1
2186,2263,0.0,-2e-05,0.0,5e-05,-1e-05,-1e-05,-1e-05,-2e-05,1
2187,2264,0.0,-2e-05,0.0,5e-05,-1e-05,-1e-05,-1e-05,-2e-05,1
2188,2265,0.0,-2e-05,0.0,5e-05,-1e-05,-1e-05,-1e-05,-2e-05,1
2189,2266,0.0,-2e-05,0.0,5e-05,-1e-05,-1e-05,-1e-05,-2e-05,1
2190,2267,0.0,-2e-05,0.0,5e-05,-1e-05,-1e-05,-1e-05,-2e-05,1
2191,2268,0.0,-2e-05,0.0,5e-05,-1e-05,-1e-05,-1e-05,-2e-05,1
2192,2269,0.0,-2e-05,0.0,5e-05,-1e-05,-1e-05,-1e-05,-2e-05,1
2193,2270,0.0,-2e-05,0.0,5e-05,-1e-05,-1e-05,-1e-05,-2e-05,1
2194,2271,0.0,-2e-05,0.0,5e-05,-1e-05,-1e-05,-1e-05,-2e-05,1
2195,2272,0.0,-2e-05,0.0,5e-05,-1e-05,-1e-05,-1e-05,-2e-05,1
2196,2273,0.0,-2e-05,0.0,5e-05,-1e-05,-1e-05,-1e-05,-2e-05,1
2197,2274,0.0,-2e-05,0.0,5e-05,-1e-05,-1e-05,-1e-05,-2e-05,1
2198,2275,0.0,-2e-05,0.0,5e-05,-1e-05,-1e-05,-1e-05,-2e-05,1
2199,2276,0.0,-2e-05,0.0,5e-05,-1e-05,-1e-05,-1e-05,-2e-05,1
2200,2277,0.0,-2e-05,0.0,5e-05,-1e-05,-1e-05,-1e-05,-2e-05,1
2201,2278,0.0,-2e-05,0.0,5e-05,-1e-05,-1e-05,-1e-05,-2e-05,1
2202,2279,0.0,-2e-05,0.0,5e-05,-1e-05,-1e-05,-1e-05,-2e-05,1
2203,2280,0.0,-2e-05,0.0,5e-05,-1e-05,-1e-05,-1e-05,-2e-05,1
2204,2281,0.0,-2e-05,0.0,5e-05,-1e-05,-1e-05,-1e-05,-2e-05,1
2205,2282,0.0,-2e-05,0.0,5e-05,-1e-05,-1e-05,-1e-05,-2e-05,1
2206,2283,0.0,-2.9999999999999997e-05,-0.00013000000000000002,-2e-05,-1e-05,0.0,-1e-05,0.0,1
2207,2284,-1e-05,-1e-05,-4e-05,2.9999999999999997e-05,0.0,-2e-05,0.0,-1e-05,1
2208,2285,-1e-05,-1e-05,-4e-05,2.9999999999999997e-05,0.0,-2e-05,0.0,-1e-05,1
2209,2286,-1e-05,-1e-05,-4e-05,2.9999999999999997e-05,0.0,-2e-05,0.0,-1e-05,1
2210,2288,-1e-05,-1e-05,-4e-05,2.9999999999999997e-05,0.0,-2e-05,0.0,-1e-05,1
2211,2289,-1e-05,-1e-05,-4e-05,2.9999999999999997e-05,0.0,-2e-05,0.0,-1e-05,1
2212,2290,-1e-05,-1e-05,-4e-05,2.9999999999999997e-05,0.0,-2e-05,0.0,-1e-05,1
2213,2291,-1e-05,-1e-05,-4e-05,2.9999999999999997e-05,0.0,-2e-05,0.0,-1e-05,1
2214,2292,-1e-05,-1e-05,-4e-05,2.9999999999999997e-05,0.0,-2e-05,0.0,-1e-05,1
2215,2293,-1e-05,-1e-05,-4e-05,2.9999999999999997e-05,0.0,-2e-05,0.0,-1e-05,1
2216,2294,-1e-05,-1e-05,-4e-05,2.9999999999999997e-05,0.0,-2e-05,0.0,-1e-05,1
2217,2295,-1e-05,-1e-05,-4e-05,2.9999999999999997e-05,0.0,-2e-05,0.0,-1e-05,1
2218,2296,-1e-05,-1e-05,-4e-05,2.9999999999999997e-05,0.0,-2e-05,0.0,-1e-05,1
2219,2297,-1e-05,-1e-05,-4e-05,2.9999999999999997e-05,0.0,-2e-05,0.0,-1e-05,1
2220,2298,-1e-05,-1e-05,-4e-05,2.9999999999999997e-05,0.0,-2e-05,0.0,-1e-05,1
2221,2299,-1e-05,-1e-05,-4e-05,2.9999999999999997e-05,0.0,-2e-05,0.0,-1e-05,1
2222,2300,-1e-05,-1e-05,-4e-05,2.9999999999999997e-05,0.0,-2e-05,0.0,-1e-05,1
2223,2301,-1e-05,-1e-05,-4e-05,2.9999999999999997e-05,0.0,-2e-05,0.0,-1e-05,1
2224,2302,-1e-05,-1e-05,-4e-05,2.9999999999999997e-05,0.0,-2e-05,0.0,-1e-05,1
2225,2303,-1e-05,-1e-05,-4e-05,2.9999999999999997e-05,0.0,-2e-05,0.0,-1e-05,1
2226,2304,-1e-05,-1e-05,-4e-05,2.9999999999999997e-05,0.0,-2e-05,0.0,-1e-05,1
2227,2305,-1e-05,-1e-05,1e-05,2e-05,1e-05,-1e-05,-2e-05,-2e-05,1
2228,2306,0.0,-1e-05,0.0,-2.9999999999999997e-05,1e-05,0.0,-1e-05,2e-05,1
2229,2307,0.0,-1e-05,0.0,-2.9999999999999997e-05,1e-05,0.0,-1e-05,2e-05,1
2230,2308,0.0,-1e-05,0.0,-2.9999999999999997e-05,1e-05,0.0,-1e-05,2e-05,1
2231,2309,0.0,-1e-05,0.0,-2.9999999999999997e-05,1e-05,0.0,-1e-05,2e-05,1
2232,2310,0.0,-1e-05,0.0,-2.9999999999999997e-05,1e-05,0.0,-1e-05,2e-05,1
2233,2311,0.0,-1e-05,0.0,-2.9999999999999997e-05,1e-05,0.0,-1e-05,2e-05,1
2234,2312,0.0,-1e-05,0.0,-2.9999999999999997e-05,1e-05,0.0,-1e-05,2e-05,1
2235,2313,0.0,-1e-05,0.0,-2.9999999999999997e-05,1e-05,0.0,-1e-05,2e-05,1
2236,2314,0.0,-1e-05,0.0,-2.9999999999999997e-05,1e-05,0.0,-1e-05,2e-05,1
2237,2315,0.0,-1e-05,0.0,-2.9999999999999997e-05,1e-05,0.0,-1e-05,2e-05,1
2238,2316,0.0,-1e-05,0.0,-2.9999999999999997e-05,1e-05,0.0,-1e-05,2e-05,1
2239,2317,0.0,-1e-05,0.0,-2.9999999999999997e-05,1e-05,0.0,-1e-05,2e-05,1
2240,2318,0.0,-1e-05,0.0,-2.9999999999999997e-05,1e-05,0.0,-1e-05,2e-05,1
2241,2319,0.0,-1e-05,0.0,-2.9999999999999997e-05,1e-05,0.0,-1e-05,2e-05,1
2242,2320,-1e-05,-1e-05,0.0001,0.0,0.0,-1e-05,0.0,0.0,1
2243,2321,-1e-05,-2.9999999999999997e-05,-2e-05,-2.9999999999999997e-05,0.0,0.0,-2e-05,0.0,1
2244,2322,-1e-05,-2.9999999999999997e-05,-2e-05,-2.9999999999999997e-05,0.0,0.0,-2e-05,0.0,1
2245,2323,-1e-05,-2.9999999999999997e-05,-2e-05,-2.9999999999999997e-05,0.0,0.0,-2e-05,0.0,1
2246,2324,-1e-05,-2.9999999999999997e-05,-2e-05,-2.9999999999999997e-05,0.0,0.0,-2e-05,0.0,1
2247,2325,-1e-05,-2.9999999999999997e-05,-2e-05,-2.9999999999999997e-05,0.0,0.0,-2e-05,0.0,1
2248,2326,-1e-05,-2.9999999999999997e-05,-2e-05,-2.9999999999999997e-05,0.0,0.0,-2e-05,0.0,1
2249,2327,-1e-05,-2.9999999999999997e-05,-2e-05,-2.9999999999999997e-05,0.0,0.0,-2e-05,0.0,1
2250,2328,-1e-05,-2.9999999999999997e-05,-2e-05,-2.9999999999999997e-05,0.0,0.0,-2e-05,0.0,1
2251,2329,-1e-05,-2.9999999999999997e-05,-2e-05,-2.9999999999999997e-05,0.0,0.0,-2e-05,0.0,1
2252,2330,-1e-05,-2.9999999999999997e-05,-2e-05,-2.9999999999999997e-05,0.0,0.0,-2e-05,0.0,1
2253,2331,-1e-05,-2.9999999999999997e-05,-2e-05,-2.9999999999999997e-05,0.0,0.0,-2e-05,0.0,1
2254,2332,-1e-05,-2.9999999999999997e-05,-2e-05,-2.9999999999999997e-05,0.0,0.0,-2e-05,0.0,1
2255,2333,-1e-05,-2.9999999999999997e-05,-2e-05,-2.9999999999999997e-05,0.0,0.0,-2e-05,0.0,1
2256,2334,-1e-05,-2.9999999999999997e-05,-2e-05,-2.9999999999999997e-05,0.0,0.0,-2e-05,0.0,1
2257,2335,-1e-05,-2.9999999999999997e-05,-2e-05,-2.9999999999999997e-05,0.0,0.0,-2e-05,0.0,1
2258,2336,-1e-05,-2.9999999999999997e-05,-2e-05,-2.9999999999999997e-05,0.0,0.0,-2e-05,0.0,1
2259,2338,-1e-05,-2.9999999999999997e-05,-2e-05,-2.9999999999999997e-05,0.0,0.0,-2e-05,0.0,1
2260,2339,-1e-05,-2.9999999999999997e-05,-2e-05,-2.9999999999999997e-05,0.0,0.0,-2e-05,0.0,1
2261,2340,-1e-05,-2.9999999999999997e-05,-2e-05,-2.9999999999999997e-05,0.0,0.0,-2e-05,0.0,1
2262,2341,-1e-05,-2.9999999999999997e-05,-2e-05,-2.9999999999999997e-05,0.0,0.0,-2e-05,0.0,1
2263,2342,-1e-05,-2.9999999999999997e-05,-2e-05,-2.9999999999999997e-05,0.0,0.0,-2e-05,0.0,1
2264,2343,-1e-05,1e-05,7e-05,0.0,-1e-05,1e-05,-2.9999999999999997e-05,0.0,1
2265,2344,-1e-05,1e-05,7e-05,0.0,-1e-05,1e-05,-2.9999999999999997e-05,0.0,1
2266,2345,-1e-05,1e-05,7e-05,0.0,-1e-05,1e-05,-2.9999999999999997e-05,0.0,1
2267,2346,-1e-05,1e-05,7e-05,0.0,-1e-05,1e-05,-2.9999999999999997e-05,0.0,1
2268,2347,-1e-05,1e-05,7e-05,0.0,-1e-05,1e-05,-2.9999999999999997e-05,0.0,1
2269,2348,-1e-05,1e-05,7e-05,0.0,-1e-05,1e-05,-2.9999999999999997e-05,0.0,1
2270,2349,-1e-05,1e-05,7e-05,0.0,-1e-05,1e-05,-2.9999999999999997e-05,0.0,1
2271,2350,-1e-05,1e-05,7e-05,0.0,-1e-05,1e-05,-2.9999999999999997e-05,0.0,1
2272,2351,-1e-05,1e-05,7e-05,0.0,-1e-05,1e-05,-2.9999999999999997e-05,0.0,1
2273,2352,-1e-05,1e-05,7e-05,0.0,-1e-05,1e-05,-2.9999999999999997e-05,0.0,1
2274,2353,-1e-05,1e-05,7e-05,0.0,-1e-05,1e-05,-2.9999999999999997e-05,0.0,1
2275,2354,-1e-05,1e-05,7e-05,0.0,-1e-05,1e-05,-2.9999999999999997e-05,0.0,1
2276,2355,-1e-05,1e-05,7e-05,0.0,-1e-05,1e-05,-2.9999999999999997e-05,0.0,1
2277,2356,-1e-05,1e-05,7e-05,0.0,-1e-05,1e-05,-2.9999999999999997e-05,0.0,1
2278,2357,-1e-05,1e-05,7e-05,0.0,-1e-05,1e-05,-2.9999999999999997e-05,0.0,1
2279,2358,-1e-05,1e-05,7e-05,0.0,-1e-05,1e-05,-2.9999999999999997e-05,0.0,1
2280,2359,-1e-05,1e-05,7e-05,0.0,-1e-05,1e-05,-2.9999999999999997e-05,0.0,1
2281,2360,-1e-05,1e-05,7e-05,0.0,-1e-05,1e-05,-2.9999999999999997e-05,0.0,1
2282,2361,-1e-05,1e-05,7e-05,0.0,-1e-05,1e-05,-2.9999999999999997e-05,0.0,1
2283,2362,-1e-05,1e-05,7e-05,0.0,-1e-05,1e-05,-2.9999999999999997e-05,0.0,1
2284,2363,-1e-05,1e-05,7e-05,0.0,-1e-05,1e-05,-2.9999999999999997e-05,0.0,1
2285,2364,-1e-05,1e-05,7e-05,0.0,-1e-05,1e-05,-2.9999999999999997e-05,0.0,1
2286,2365,-2e-05,-2e-05,4e-05,2e-05,-2e-05,0.0,-1e-05,0.0,1
2287,2366,-1e-05,0.0,-5.9999999999999995e-05,-2e-05,-1e-05,-2e-05,0.0,-2.9999999999999997e-05,1
2288,2367,-1e-05,0.0,-5.9999999999999995e-05,-2e-05,-1e-05,-2e-05,0.0,-2.9999999999999997e-05,1
2289,2368,-1e-05,0.0,-5.9999999999999995e-05,-2e-05,-1e-05,-2e-05,0.0,-2.9999999999999997e-05,1
2290,2369,-1e-05,0.0,-5.9999999999999995e-05,-2e-05,-1e-05,-2e-05,0.0,-2.9999999999999997e-05,1
2291,2370,-1e-05,0.0,-5.9999999999999995e-05,-2e-05,-1e-05,-2e-05,0.0,-2.9999999999999997e-05,1
2292,2371,-1e-05,0.0,-5.9999999999999995e-05,-2e-05,-1e-05,-2e-05,0.0,-2.9999999999999997e-05,1
2293,2372,-1e-05,0.0,-5.9999999999999995e-05,-2e-05,-1e-05,-2e-05,0.0,-2.9999999999999997e-05,1
2294,2373,-1e-05,0.0,-5.9999999999999995e-05,-2e-05,-1e-05,-2e-05,0.0,-2.9999999999999997e-05,1
2295,2374,-1e-05,0.0,-5.9999999999999995e-05,-2e-05,-1e-05,-2e-05,0.0,-2.9999999999999997e-05,1
2296,2375,-1e-05,0.0,-5.9999999999999995e-05,-2e-05,-1e-05,-2e-05,0.0,-2.9999999999999997e-05,1
2297,2376,-1e-05,0.0,-5.9999999999999995e-05,-2e-05,-1e-05,-2e-05,0.0,-2.9999999999999997e-05,1
2298,2377,-1e-05,0.0,-5.9999999999999995e-05,-2e-05,-1e-05,-2e-05,0.0,-2.9999999999999997e-05,1
2299,2378,-1e-05,0.0,-5.9999999999999995e-05,-2e-05,-1e-05,-2e-05,0.0,-2.9999999999999997e-05,1
2300,2379,-1e-05,0.0,-5.9999999999999995e-05,-2e-05,-1e-05,-2e-05,0.0,-2.9999999999999997e-05,1
2301,2380,0.0,-1e-05,-5.9999999999999995e-05,-5.9999999999999995e-05,-4e-05,-2.9999999999999997e-05,0.0,0.0,1
2302,2381,-2.9999999999999997e-05,0.0,-1e-05,-2e-05,0.0,-2e-05,0.0,0.0,1
2303,2382,-2.9999999999999997e-05,0.0,-1e-05,-2e-05,0.0,-2e-05,0.0,0.0,1
2304,2383,-2.9999999999999997e-05,0.0,-1e-05,-2e-05,0.0,-2e-05,0.0,0.0,1
2305,2384,-2.9999999999999997e-05,0.0,-1e-05,-2e-05,0.0,-2e-05,0.0,0.0,1
2306,2385,-2.9999999999999997e-05,0.0,-1e-05,-2e-05,0.0,-2e-05,0.0,0.0,1
2307,2386,-2.9999999999999997e-05,0.0,-1e-05,-2e-05,0.0,-2e-05,0.0,0.0,1
2308,2388,-2.9999999999999997e-05,0.0,-1e-05,-2e-05,0.0,-2e-05,0.0,0.0,1
2309,2389,-2.9999999999999997e-05,0.0,-1e-05,-2e-05,0.0,-2e-05,0.0,0.0,1
2310,2390,-2.9999999999999997e-05,0.0,-1e-05,-2e-05,0.0,-2e-05,0.0,0.0,1
2311,2391,-2.9999999999999997e-05,0.0,-1e-05,-2e-05,0.0,-2e-05,0.0,0.0,1
2312,2392,-2.9999999999999997e-05,0.0,-1e-05,-2e-05,0.0,-2e-05,0.0,0.0,1
2313,2393,-2.9999999999999997e-05,0.0,-1e-05,-2e-05,0.0,-2e-05,0.0,0.0,1
2314,2394,-2.9999999999999997e-05,0.0,-1e-05,-2e-05,0.0,-2e-05,0.0,0.0,1
2315,2395,-2.9999999999999997e-05,0.0,-1e-05,-2e-05,0.0,-2e-05,0.0,0.0,1
2316,2396,-2.9999999999999997e-05,0.0,-1e-05,-2e-05,0.0,-2e-05,0.0,0.0,1
2317,2397,-2.9999999999999997e-05,0.0,-1e-05,-2e-05,0.0,-2e-05,0.0,0.0,1
2318,2398,-2.9999999999999997e-05,0.0,-1e-05,-2e-05,0.0,-2e-05,0.0,0.0,1
2319,2399,-2.9999999999999997e-05,0.0,-1e-05,-2e-05,0.0,-2e-05,0.0,0.0,1
2320,2400,-2.9999999999999997e-05,0.0,-1e-05,-2e-05,0.0,-2e-05,0.0,0.0,1
2321,2401,-2.9999999999999997e-05,0.0,-1e-05,-2e-05,0.0,-2e-05,0.0,0.0,1
2322,2402,-2.9999999999999997e-05,0.0,-1e-05,-2e-05,0.0,-2e-05,0.0,0.0,1
2323,2403,1e-05,0.0,-1e-05,-1e-05,0.0,-2e-05,-2e-05,-1e-05,1
2324,2405,1e-05,0.0,-1e-05,-1e-05,0.0,-2e-05,-2e-05,-1e-05,1
2325,2406,1e-05,0.0,-1e-05,-1e-05,0.0,-2e-05,-2e-05,-1e-05,1
2326,2407,1e-05,0.0,-1e-05,-1e-05,0.0,-2e-05,-2e-05,-1e-05,1
