,time,channel1,channel2,channel3,channel4,channel5,channel6,channel7,channel8,class
2755,2856,0.0,0.0,2e-05,2e-05,0.0,-1e-05,-1e-05,-2e-05,1
2756,2857,0.0,0.0,2e-05,2e-05,0.0,-1e-05,-1e-05,-2e-05,1
2757,2858,0.0,0.0,2e-05,2e-05,0.0,-1e-05,-1e-05,-2e-05,1
2758,2859,0.0,0.0,2e-05,2e-05,0.0,-1e-05,-1e-05,-2e-05,1
2759,2860,0.0,0.0,2e-05,2e-05,0.0,-1e-05,-1e-05,-2e-05,1
2760,2861,0.0,0.0,2e-05,2e-05,0.0,-1e-05,-1e-05,-2e-05,1
2761,2862,0.0,0.0,2e-05,2e-05,0.0,-1e-05,-1e-05,-2e-05,1
2762,2863,0.0,0.0,2e-05,2e-05,0.0,-1e-05,-1e-05,-2e-05,1
2763,2864,0.0,0.0,2e-05,2e-05,0.0,-1e-05,-1e-05,-2e-05,1
2764,2865,0.0,0.0,2e-05,2e-05,0.0,-1e-05,-1e-05,-2e-05,1
2765,2866,0.0,0.0,2e-05,2e-05,0.0,-1e-05,-1e-05,-2e-05,1
2766,2867,0.0,0.0,2e-05,2e-05,0.0,-1e-05,-1e-05,-2e-05,1
2767,2868,0.0,0.0,2e-05,2e-05,0.0,-1e-05,-1e-05,-2e-05,1
2768,2869,0.0,0.0,2e-05,2e-05,0.0,-1e-05,-1e-05,-2e-05,1
2769,2870,0.0,0.0,2e-05,2e-05,0.0,-1e-05,-1e-05,-2e-05,1
2770,2871,0.0,0.0,2e-05,2e-05,0.0,-1e-05,-1e-05,-2e-05,1
2771,2872,0.0,0.0,2e-05,2e-05,0.0,-1e-05,-1e-05,-2e-05,1
2772,2873,0.0,0.0,2e-05,2e-05,0.0,-1e-05,-1e-05,-2e-05,1
2773,2874,0.0,-2e-05,-2e-05,-2e-05,-2e-05,-2.9999999999999997e-05,-2.9999999999999997e-05,-2e-05,1
2774,2876,-1e-05,1e-05,-2e-05,-2e-05,1e-05,0.0,-1e-05,0.0,1
2775,2877,-1e-05,1e-05,-2e-05,-2e-05,1e-05,0.0,-1e-05,0.0,1
2776,2878,-1e-05,1e-05,-2e-05,-2e-05,1e-05,0.0,-1e-05,0.0,1
2777,2879,-1e-05,1e-05,-2e-05,-2e-05,1e-05,0.0,-1e-05,0.0,1
2778,2880,-1e-05,1e-05,-2e-05,-2e-05,1e-05,0.0,-1e-05,0.0,1
2779,2881,-1e-05,1e-05,-2e-05,-2e-05,1e-05,0.0,-1e-05,0.0,1
2780,2882,-1e-05,1e-05,-2e-05,-2e-05,1e-05,0.0,-1e-05,0.0,1
2781,2883,-1e-05,1e-05,-2e-05,-2e-05,1e-05,0.0,-1e-05,0.0,1
2782,2884,-1e-05,1e-05,-2e-05,-2e-05,1e-05,0.0,-1e-05,0.0,1
2783,2885,-1e-05,1e-05,-2e-05,-2e-05,1e-05,0.0,-1e-05,0.0,1
2784,2886,-1e-05,1e-05,-2e-05,-2e-05,1e-05,0.0,-1e-05,0.0,1
2785,2888,-1e-05,-5e-05,-8e-05,-5.9999999999999995e-05,-4e-05,0.0,1e-05,0.0,1
2786,2889,-1e-05,-5e-05,-8e-05,-5.9999999999999995e-05,-4e-05,0.0,1e-05,0.0,1
2787,2890,-1e-05,-5e-05,-8e-05,-5.9999999999999995e-05,-4e-05,0.0,1e-05,0.0,1
2788,2891,-1e-05,-5e-05,-8e-05,-5.9999999999999995e-05,-4e-05,0.0,1e-05,0.0,1
2789,2892,-1e-05,-5e-05,-8e-05,-5.9999999999999995e-05,-4e-05,0.0,1e-05,0.0,1
2790,2893,-1e-05,-5e-05,-8e-05,-5.9999999999999995e-05,-4e-05,0.0,1e-05,0.0,1
2791,2894,-1e-05,-5e-05,-8e-05,-5.9999999999999995e-05,-4e-05,0.0,1e-05,0.0,1
2792,2895,-1e-05,-5e-05,-8e-05,-5.9999999999999995e-05,-4e-05,0.0,1e-05,0.0,1
2793,2896,-1e-05,0.0,5.9999999999999995e-05,1e-05,-1e-05,0.0,0.0,-1e-05,1
2794,2897,-2e-05,-2e-05,1e-05,1e-05,1e-05,-1e-05,-2.9999999999999997e-05,0.0,1
2795,2898,-2e-05,-2e-05,1e-05,1e-05,1e-05,-1e-05,-2.9999999999999997e-05,0.0,1
2796,2899,-2e-05,-2e-05,1e-05,1e-05,1e-05,-1e-05,-2.9999999999999997e-05,0.0,1
2797,2900,-2e-05,-2e-05,1e-05,1e-05,1e-05,-1e-05,-2.9999999999999997e-05,0.0,1
2798,2901,-2e-05,-2e-05,1e-05,1e-05,1e-05,-1e-05,-2.9999999999999997e-05,0.0,1
2799,2902,-2e-05,-2e-05,1e-05,1e-05,1e-05,-1e-05,-2.9999999999999997e-05,0.0,1
2800,2903,-2e-05,-2e-05,1e-05,1e-05,1e-05,-1e-05,-2.9999999999999997e-05,0.0,1
2801,2904,-2e-05,-2e-05,1e-05,1e-05,1e-05,-1e-05,-2.9999999999999997e-05,0.0,1
2802,2905,-2e-05,-2e-05,1e-05,1e-05,1e-05,-1e-05,-2.9999999999999997e-05,0.0,1
2803,2906,-2e-05,-2e-05,1e-05,1e-05,1e-05,-1e-05,-2.9999999999999997e-05,0.0,1
2804,2907,-2e-05,-2e-05,1e-05,1e-05,1e-05,-1e-05,-2.9999999999999997e-05,0.0,1
2805,2908,-2e-05,-2e-05,1e-05,1e-05,1e-05,-1e-05,-2.9999999999999997e-05,0.0,1
2806,2909,-2e-05,-2e-05,1e-05,1e-05,1e-05,-1e-05,-2.9999999999999997e-05,0.0,1
2807,2910,-2e-05,-2e-05,1e-05,1e-05,1e-05,-1e-05,-2.9999999999999997e-05,0.0,1
2808,2911,-1e-05,0.0,-5e-05,-1e-05,-4e-05,-2e-05,0.0,0.0,1
2809,2912,-1e-05,0.0,-5e-05,-1e-05,-4e-05,-2e-05,0.0,0.0,1
2810,2913,-1e-05,0.0,2.9999999999999997e-05,-1e-05,-2e-05,-2e-05,0.0,0.0,1
2811,2914,-1e-05,0.0,2.9999999999999997e-05,-1e-05,-2e-05,-2e-05,0.0,0.0,1
2812,2915,-1e-05,0.0,2.9999999999999997e-05,-1e-05,-2e-05,-2e-05,0.0,0.0,1
2813,2916,-1e-05,0.0,2.9999999999999997e-05,-1e-05,-2e-05,-2e-05,0.0,0.0,1
2814,2917,-1e-05,0.0,2.9999999999999997e-05,-1e-05,-2e-05,-2e-05,0.0,0.0,1
2815,2918,-1e-05,0.0,2.9999999999999997e-05,-1e-05,-2e-05,-2e-05,0.0,0.0,1
2816,2919,-1e-05,0.0,2.9999999999999997e-05,-1e-05,-2e-05,-2e-05,0.0,0.0,1
2817,2920,-1e-05,0.0,2.9999999999999997e-05,-1e-05,-2e-05,-2e-05,0.0,0.0,1
2818,2921,-1e-05,0.0,2.9999999999999997e-05,-1e-05,-2e-05,-2e-05,0.0,0.0,1
2819,2922,-1e-05,0.0,2.9999999999999997e-05,-1e-05,-2e-05,-2e-05,0.0,0.0,1
2820,2923,-1e-05,0.0,2.9999999999999997e-05,-1e-05,-2e-05,-2e-05,0.0,0.0,1
2821,2924,-1e-05,0.0,2.9999999999999997e-05,-1e-05,-2e-05,-2e-05,0.0,0.0,1
2822,2925,-2e-05,0.0,-5e-05,-5e-05,-1e-05,-1e-05,-2e-05,-1e-05,1
2823,2926,-2e-05,0.0,-5e-05,-5e-05,-1e-05,-1e-05,-2e-05,-1e-05,1
2824,2927,-2e-05,0.0,-5e-05,-5e-05,-1e-05,-1e-05,-2e-05,-1e-05,1
2825,2928,-2e-05,0.0,-5e-05,-5e-05,-1e-05,-1e-05,-2e-05,-1e-05,1
2826,2929,-2e-05,0.0,-5e-05,-5e-05,-1e-05,-1e-05,-2e-05,-1e-05,1
2827,2930,-2e-05,0.0,-5e-05,-5e-05,-1e-05,-1e-05,-2e-05,-1e-05,1
2828,2931,-2e-05,0.0,-5e-05,-5e-05,-1e-05,-1e-05,-2e-05,-1e-05,1
2829,2932,-2e-05,0.0,-5e-05,-5e-05,-1e-05,-1e-05,-2e-05,-1e-05,1
2830,2933,-2e-05,0.0,-5e-05,-5e-05,-1e-05,-1e-05,-2e-05,-1e-05,1
2831,2934,-1e-05,0.0,2e-05,5e-05,-2e-05,-2e-05,-2e-05,-1e-05,1
2832,2935,-1e-05,0.0,2e-05,5e-05,-2e-05,-2e-05,-2e-05,-1e-05,1
2833,2936,-1e-05,0.0,2e-05,5e-05,-2e-05,-2e-05,-2e-05,-1e-05,1
2834,2938,-1e-05,0.0,2e-05,5e-05,-2e-05,-2e-05,-2e-05,-1e-05,1
2835,2939,-1e-05,0.0,2e-05,5e-05,-2e-05,-2e-05,-2e-05,-1e-05,1
2836,2940,-1e-05,0.0,2e-05,5e-05,-2e-05,-2e-05,-2e-05,-1e-05,1
2837,2941,-1e-05,0.0,2e-05,5e-05,-2e-05,-2e-05,-2e-05,-1e-05,1
2838,2942,-1e-05,0.0,2e-05,5e-05,-2e-05,-2e-05,-2e-05,-1e-05,1
2839,2943,-1e-05,0.0,2e-05,5e-05,-2e-05,-2e-05,-2e-05,-1e-05,1
2840,2944,-1e-05,0.0,2e-05,5e-05,-2e-05,-2e-05,-2e-05,-1e-05,1
2841,2945,-1e-05,0.0,2e-05,5e-05,-2e-05,-2e-05,-2e-05,-1e-05,1
2842,2946,-1e-05,0.0,2e-05,5e-05,-2e-05,-2e-05,-2e-05,-1e-05,1
2843,2947,0.0,1e-05,-2.9999999999999997e-05,-1e-05,2e-05,2e-05,0.0,2e-05,1
2844,2948,-1e-05,2e-05,4e-05,0.0,-1e-05,-1e-05,2e-05,-2e-05,1
2845,2949,-1e-05,2e-05,4e-05,0.0,-1e-05,-1e-05,2e-05,-2e-05,1
2846,2950,-1e-05,2e-05,4e-05,0.0,-1e-05,-1e-05,2e-05,-2e-05,1
2847,2951,-1e-05,2e-05,4e-05,0.0,-1e-05,-1e-05,2e-05,-2e-05,1
2848,2952,-1e-05,2e-05,4e-05,0.0,-1e-05,-1e-05,2e-05,-2e-05,1
2849,2953,-1e-05,2e-05,4e-05,0.0,-1e-05,-1e-05,2e-05,-2e-05,1
2850,2954,-1e-05,2e-05,4e-05,0.0,-1e-05,-1e-05,2e-05,-2e-05,1
2851,2955,-1e-05,2e-05,4e-05,0.0,-1e-05,-1e-05,2e-05,-2e-05,1
2852,2956,-1e-05,2e-05,4e-05,0.0,-1e-05,-1e-05,2e-05,-2e-05,1
2853,2957,-2.9999999999999997e-05,-5.9999999999999995e-05,-5.9999999999999995e-05,-2e-05,-2.9999999999999997e-05,-2.9999999999999997e-05,-4e-05,-2.9999999999999997e-05,1
2854,2958,-2.9999999999999997e-05,-5.9999999999999995e-05,-5.9999999999999995e-05,-2e-05,-2.9999999999999997e-05,-2.9999999999999997e-05,-4e-05,-2.9999999999999997e-05,1
2855,2959,-2.9999999999999997e-05,-5.9999999999999995e-05,-5.9999999999999995e-05,-2e-05,-2.9999999999999997e-05,-2.9999999999999997e-05,-4e-05,-2.9999999999999997e-05,1
2856,2960,-2.9999999999999997e-05,-5.9999999999999995e-05,-5.9999999999999995e-05,-2e-05,-2.9999999999999997e-05,-2.9999999999999997e-05,-4e-05,-2.9999999999999997e-05,1
2857,2961,-2.9999999999999997e-05,-5.9999999999999995e-05,-5.9999999999999995e-05,-2e-05,-2.9999999999999997e-05,-2.9999999999999997e-05,-4e-05,-2.9999999999999997e-05,1
2858,2962,-2.9999999999999997e-05,-5.9999999999999995e-05,-5.9999999999999995e-05,-2e-05,-2.9999999999999997e-05,-2.9999999999999997e-05,-4e-05,-2.9999999999999997e-05,1
2859,2963,-2.9999999999999997e-05,-5.9999999999999995e-05,-5.9999999999999995e-05,-2e-05,-2.9999999999999997e-05,-2.9999999999999997e-05,-4e-05,-2.9999999999999997e-05,1
2860,2964,-2.9999999999999997e-05,-5.9999999999999995e-05,-5.9999999999999995e-05,-2e-05,-2.9999999999999997e-05,-2.9999999999999997e-05,-4e-05,-2.9999999999999997e-05,1
2861,2965,-2.9999999999999997e-05,-5.9999999999999995e-05,-5.9999999999999995e-05,-2e-05,-2.9999999999999997e-05,-2.9999999999999997e-05,-4e-05,-2.9999999999999997e-05,1
2862,2966,-2.9999999999999997e-05,-5.9999999999999995e-05,-5.9999999999999995e-05,-2e-05,-2.9999999999999997e-05,-2.9999999999999997e-05,-4e-05,-2.9999999999999997e-05,1
2863,2967,-2.9999999999999997e-05,-5.9999999999999995e-05,-5.9999999999999995e-05,-2e-05,-2.9999999999999997e-05,-2.9999999999999997e-05,-4e-05,-2.9999999999999997e-05,1
2864,2968,-2.9999999999999997e-05,-5.9999999999999995e-05,-5.9999999999999995e-05,-2e-05,-2.9999999999999997e-05,-2.9999999999999997e-05,-4e-05,-2.9999999999999997e-05,1
2865,2969,-2.9999999999999997e-05,-5.9999999999999995e-05,-5.9999999999999995e-05,-2e-05,-2.9999999999999997e-05,-2.9999999999999997e-05,-4e-05,-2.9999999999999997e-05,1
2866,2970,-2.9999999999999997e-05,-5.9999999999999995e-05,-5.9999999999999995e-05,-2e-05,-2.9999999999999997e-05,-2.9999999999999997e-05,-4e-05,-2.9999999999999997e-05,1
2867,2971,-1e-05,0.0,-1e-05,-2e-05,-1e-05,-1e-05,-1e-05,-2e-05,1
2868,2972,-1e-05,0.0,-1e-05,-2e-05,-1e-05,-1e-05,-1e-05,-2e-05,1
2869,2973,0.0,0.0,2e-05,-1e-05,-2e-05,0.0,0.0,-1e-05,1
2870,2974,0.0,0.0,2e-05,-1e-05,-2e-05,0.0,0.0,-1e-05,1
2871,2975,0.0,0.0,2e-05,-1e-05,-2e-05,0.0,0.0,-1e-05,1
2872,2976,0.0,0.0,2e-05,-1e-05,-2e-05,0.0,0.0,-1e-05,1
2873,2977,0.0,0.0,2e-05,-1e-05,-2e-05,0.0,0.0,-1e-05,1
2874,2978,0.0,0.0,2e-05,-1e-05,-2e-05,0.0,0.0,-1e-05,1
2875,2979,0.0,0.0,2e-05,-1e-05,-2e-05,0.0,0.0,-1e-05,1
2876,2980,0.0,0.0,2e-05,-1e-05,-2e-05,0.0,0.0,-1e-05,1
2877,2981,0.0,0.0,2e-05,-1e-05,-2e-05,0.0,0.0,-1e-05,1
2878,2982,0.0,0.0,2e-05,-1e-05,-2e-05,0.0,0.0,-1e-05,1
2879,2983,0.0,0.0,2e-05,-1e-05,-2e-05,0.0,0.0,-1e-05,1
2880,2984,0.0,0.0,2e-05,-1e-05,-2e-05,0.0,0.0,-1e-05,1
2881,2985,0.0,0.0,1e-05,2.9999999999999997e-05,-2.9999999999999997e-05,0.0,-1e-05,-1e-05,1
2882,2986,0.0,0.0,1e-05,2.9999999999999997e-05,-2.9999999999999997e-05,0.0,-1e-05,-1e-05,1
2883,2988,0.0,0.0,1e-05,2.9999999999999997e-05,-2.9999999999999997e-05,0.0,-1e-05,-1e-05,1
2884,2989,0.0,0.0,1e-05,2.9999999999999997e-05,-2.9999999999999997e-05,0.0,-1e-05,-1e-05,1
2885,2990,0.0,0.0,1e-05,2.9999999999999997e-05,-2.9999999999999997e-05,0.0,-1e-05,-1e-05,1
2886,2991,0.0,0.0,1e-05,2.9999999999999997e-05,-2.9999999999999997e-05,0.0,-1e-05,-1e-05,1
2887,2992,0.0,0.0,1e-05,2.9999999999999997e-05,-2.9999999999999997e-05,0.0,-1e-05,-1e-05,1
2888,2993,0.0,0.0,1e-05,2.9999999999999997e-05,-2.9999999999999997e-05,0.0,-1e-05,-1e-05,1
2889,2994,-2e-05,-1e-05,-1e-05,0.0,0.00011,2e-05,0.0,1e-05,1
2890,2995,-2e-05,-1e-05,-1e-05,0.0,0.00011,2e-05,0.0,1e-05,1
2891,2996,-2e-05,-1e-05,-1e-05,0.0,0.00011,2e-05,0.0,1e-05,1
2892,2997,-2e-05,-1e-05,-1e-05,0.0,0.00011,2e-05,0.0,1e-05,1
2893,2998,-2e-05,-1e-05,-1e-05,0.0,0.00011,2e-05,0.0,1e-05,1
2894,2999,-2e-05,-1e-05,-1e-05,0.0,0.00011,2e-05,0.0,1e-05,1
2895,3000,-2e-05,-1e-05,-1e-05,0.0,0.00011,2e-05,0.0,1e-05,1
2896,3001,-2e-05,-1e-05,-1e-05,0.0,0.00011,2e-05,0.0,1e-05,1
2897,3002,-2e-05,-1e-05,-1e-05,0.0,0.00011,2e-05,0.0,1e-05,1
2898,3003,-2e-05,-1e-05,-1e-05,0.0,0.00011,2e-05,0.0,1e-05,1
2899,3004,-2e-05,-1e-05,-1e-05,0.0,0.00011,2e-05,0.0,1e-05,1
2900,3005,-2e-05,-1e-05,-1e-05,0.0,0.00011,2e-05,0.0,1e-05,1
2901,3006,-2e-05,-1e-05,-1e-05,0.0,0.00011,2e-05,0.0,1e-05,1
2902,3007,0.0,-1e-05,1e-05,-1e-05,-2.9999999999999997e-05,-4e-05,0.0,-2e-05,1
2903,3008,1e-05,0.0,-7e-05,-2e-05,5.9999999999999995e-05,2.9999999999999997e-05,-2e-05,-1e-05,1
2904,3009,1e-05,0.0,-7e-05,-2e-05,5.9999999999999995e-05,2.9999999999999997e-05,-2e-05,-1e-05,1
2905,3010,1e-05,0.0,-7e-05,-2e-05,5.9999999999999995e-05,2.9999999999999997e-05,-2e-05,-1e-05,1
2906,3011,1e-05,0.0,-7e-05,-2e-05,5.9999999999999995e-05,2.9999999999999997e-05,-2e-05,-1e-05,1
2907,3012,1e-05,0.0,-7e-05,-2e-05,5.9999999999999995e-05,2.9999999999999997e-05,-2e-05,-1e-05,1
2908,3013,1e-05,0.0,-7e-05,-2e-05,5.9999999999999995e-05,2.9999999999999997e-05,-2e-05,-1e-05,1
2909,3014,1e-05,0.0,-7e-05,-2e-05,5.9999999999999995e-05,2.9999999999999997e-05,-2e-05,-1e-05,1
2910,3015,1e-05,0.0,-7e-05,-2e-05,5.9999999999999995e-05,2.9999999999999997e-05,-2e-05,-1e-05,1
2911,3016,1e-05,0.0,-7e-05,-2e-05,5.9999999999999995e-05,2.9999999999999997e-05,-2e-05,-1e-05,1
2912,3017,-1e-05,-1e-05,-2e-05,0.0,-4e-05,1e-05,-1e-05,-1e-05,1
2913,3018,-1e-05,-1e-05,-2e-05,0.0,-4e-05,1e-05,-1e-05,-1e-05,1
2914,3019,-1e-05,-1e-05,-2e-05,0.0,-4e-05,1e-05,-1e-05,-1e-05,1
2915,3020,-1e-05,-1e-05,-2e-05,0.0,-4e-05,1e-05,-1e-05,-1e-05,1
2916,3021,-1e-05,-1e-05,-2e-05,0.0,-4e-05,1e-05,-1e-05,-1e-05,1
2917,3022,-1e-05,-1e-05,-2e-05,0.0,-4e-05,1e-05,-1e-05,-1e-05,1
2918,3023,-1e-05,-1e-05,-2e-05,0.0,-4e-05,1e-05,-1e-05,-1e-05,1
2919,3024,-1e-05,-1e-05,-2e-05,0.0,-4e-05,1e-05,-1e-05,-1e-05,1
2920,3025,-1e-05,-1e-05,-2e-05,0.0,-4e-05,1e-05,-1e-05,-1e-05,1
2921,3026,-1e-05,-1e-05,-2e-05,0.0,-4e-05,1e-05,-1e-05,-1e-05,1
2922,3027,-1e-05,-1e-05,-2e-05,0.0,-4e-05,1e-05,-1e-05,-1e-05,1
2923,3028,-1e-05,-1e-05,-2e-05,0.0,-4e-05,1e-05,-1e-05,-1e-05,1
2924,3029,-1e-05,-1e-05,-2e-05,0.0,-4e-05,1e-05,-1e-05,-1e-05,1
2925,3030,-1e-05,-1e-05,-2e-05,0.0,-4e-05,1e-05,-1e-05,-1e-05,1
2926,3031,-1e-05,0.0,5e-05,-2e-05,-1e-05,-2.9999999999999997e-05,-2e-05,0.0,1
2927,3032,-1e-05,0.0,5e-05,-2e-05,-1e-05,-2.9999999999999997e-05,-2e-05,0.0,1
2928,3033,0.0,-2.9999999999999997e-05,-2.9999999999999997e-05,-4e-05,-2.9999999999999997e-05,-1e-05,0.0,0.0,1
2929,3034,0.0,-2.9999999999999997e-05,-2.9999999999999997e-05,-4e-05,-2.9999999999999997e-05,-1e-05,0.0,0.0,1
2930,3035,0.0,-2.9999999999999997e-05,-2.9999999999999997e-05,-4e-05,-2.9999999999999997e-05,-1e-05,0.0,0.0,1
2931,3036,0.0,-2.9999999999999997e-05,-2.9999999999999997e-05,-4e-05,-2.9999999999999997e-05,-1e-05,0.0,0.0,1
2932,3038,0.0,-2.9999999999999997e-05,-2.9999999999999997e-05,-4e-05,-2.9999999999999997e-05,-1e-05,0.0,0.0,1
2933,3039,0.0,-2.9999999999999997e-05,-2.9999999999999997e-05,-4e-05,-2.9999999999999997e-05,-1e-05,0.0,0.0,1
2934,3040,0.0,-2.9999999999999997e-05,-2.9999999999999997e-05,-4e-05,-2.9999999999999997e-05,-1e-05,0.0,0.0,1
2935,3041,0.0,-2.9999999999999997e-05,-2.9999999999999997e-05,-4e-05,-2.9999999999999997e-05,-1e-05,0.0,0.0,1
2936,3042,0.0,-2.9999999999999997e-05,-2.9999999999999997e-05,-4e-05,-2.9999999999999997e-05,-1e-05,0.0,0.0,1
2937,3043,0.0,-2.9999999999999997e-05,-2.9999999999999997e-05,-4e-05,-2.9999999999999997e-05,-1e-05,0.0,0.0,1
2938,3044,0.0,-2.9999999999999997e-05,-2.9999999999999997e-05,-4e-05,-2.9999999999999997e-05,-1e-05,0.0,0.0,1
2939,3045,1e-05,2e-05,-2e-05,-2.9999999999999997e-05,-5e-05,-2.9999999999999997e-05,0.0,-2e-05,1
2940,3046,1e-05,2e-05,-2e-05,-2.9999999999999997e-05,-5e-05,-2.9999999999999997e-05,0.0,-2e-05,1
2941,3047,1e-05,2e-05,-2e-05,-2.9999999999999997e-05,-5e-05,-2.9999999999999997e-05,0.0,-2e-05,1
2942,3048,1e-05,2e-05,-2e-05,-2.9999999999999997e-05,-5e-05,-2.9999999999999997e-05,0.0,-2e-05,1
2943,3049,1e-05,2e-05,-2e-05,-2.9999999999999997e-05,-5e-05,-2.9999999999999997e-05,0.0,-2e-05,1
2944,3050,1e-05,2e-05,-2e-05,-2.9999999999999997e-05,-5e-05,-2.9999999999999997e-05,0.0,-2e-05,1
2945,3051,1e-05,2e-05,-2e-05,-2.9999999999999997e-05,-5e-05,-2.9999999999999997e-05,0.0,-2e-05,1
2946,3052,1e-05,2e-05,-2e-05,-2.9999999999999997e-05,-5e-05,-2.9999999999999997e-05,0.0,-2e-05,1
2947,3053,1e-05,2e-05,-2e-05,-2.9999999999999997e-05,-5e-05,-2.9999999999999997e-05,0.0,-2e-05,1
2948,3054,-2e-05,-1e-05,-5e-05,-2.9999999999999997e-05,-2.9999999999999997e-05,-2e-05,2e-05,-2e-05,1
2949,3055,-2e-05,-1e-05,-5e-05,-2.9999999999999997e-05,-2.9999999999999997e-05,-2e-05,2e-05,-2e-05,1
2950,3056,-2e-05,-1e-05,-5e-05,-2.9999999999999997e-05,-2.9999999999999997e-05,-2e-05,2e-05,-2e-05,1
2951,3057,-2e-05,-1e-05,-5e-05,-2.9999999999999997e-05,-2.9999999999999997e-05,-2e-05,2e-05,-2e-05,1
2952,3058,-2e-05,-1e-05,-5e-05,-2.9999999999999997e-05,-2.9999999999999997e-05,-2e-05,2e-05,-2e-05,1
2953,3059,-2e-05,-1e-05,-5e-05,-2.9999999999999997e-05,-2.9999999999999997e-05,-2e-05,2e-05,-2e-05,1
2954,3060,-2e-05,-1e-05,-5e-05,-2.9999999999999997e-05,-2.9999999999999997e-05,-2e-05,2e-05,-2e-05,1
2955,3061,-2e-05,-1e-05,-5e-05,-2.9999999999999997e-05,-2.9999999999999997e-05,-2e-05,2e-05,-2e-05,1
2956,3062,-2e-05,-1e-05,-5e-05,-2.9999999999999997e-05,-2.9999999999999997e-05,-2e-05,2e-05,-2e-05,1
2957,3063,-2e-05,-1e-05,-5e-05,-2.9999999999999997e-05,-2.9999999999999997e-05,-2e-05,2e-05,-2e-05,1
2958,3064,-2e-05,-1e-05,-5e-05,-2.9999999999999997e-05,-2.9999999999999997e-05,-2e-05,2e-05,-2e-05,1
2959,3065,-2e-05,-1e-05,-5e-05,-2.9999999999999997e-05,-2.9999999999999997e-05,-2e-05,2e-05,-2e-05,1
2960,3066,-2e-05,-1e-05,-5e-05,-2.9999999999999997e-05,-2.9999999999999997e-05,-2e-05,2e-05,-2e-05,1
2961,3067,-2e-05,-1e-05,-5e-05,-2.9999999999999997e-05,-2.9999999999999997e-05,-2e-05,2e-05,-2e-05,1
2962,3068,-2e-05,-5e-05,0.0,1e-05,0.0,0.0,0.0,2e-05,1
2963,3069,-2e-05,-5e-05,0.0,1e-05,0.0,0.0,0.0,2e-05,1
2964,3070,-2e-05,-5e-05,0.0,1e-05,0.0,0.0,0.0,2e-05,1
2965,3071,-2e-05,-5e-05,0.0,1e-05,0.0,0.0,0.0,2e-05,1
2966,3072,-2e-05,-5e-05,0.0,1e-05,0.0,0.0,0.0,2e-05,1
2967,3073,-2e-05,-5e-05,0.0,1e-05,0.0,0.0,0.0,2e-05,1
2968,3074,-2e-05,-5e-05,0.0,1e-05,0.0,0.0,0.0,2e-05,1
2969,3075,-2e-05,-5e-05,0.0,1e-05,0.0,0.0,0.0,2e-05,1
2970,3076,1e-05,2.9999999999999997e-05,1e-05,1e-05,2e-05,1e-05,-1e-05,0.0,1
2971,3077,0.0,0.0,0.0,-1e-05,-0.00011999999999999999,-2.9999999999999997e-05,-1e-05,-2e-05,1
2972,3078,0.0,0.0,0.0,-1e-05,-0.00011999999999999999,-2.9999999999999997e-05,-1e-05,-2e-05,1
2973,3079,0.0,0.0,0.0,-1e-05,-0.00011999999999999999,-2.9999999999999997e-05,-1e-05,-2e-05,1
2974,3080,0.0,0.0,0.0,-1e-05,-0.00011999999999999999,-2.9999999999999997e-05,-1e-05,-2e-05,1
2975,3081,0.0,0.0,0.0,-1e-05,-0.00011999999999999999,-2.9999999999999997e-05,-1e-05,-2e-05,1
2976,3082,0.0,0.0,0.0,-1e-05,-0.00011999999999999999,-2.9999999999999997e-05,-1e-05,-2e-05,1
2977,3083,0.0,0.0,0.0,-1e-05,-0.00011999999999999999,-2.9999999999999997e-05,-1e-05,-2e-05,1
2978,3084,0.0,0.0,0.0,-1e-05,-0.00011999999999999999,-2.9999999999999997e-05,-1e-05,-2e-05,1
2979,3085,0.0,0.0,0.0,-1e-05,-0.00011999999999999999,-2.9999999999999997e-05,-1e-05,-2e-05,1
2980,3086,0.0,0.0,0.0,-1e-05,-0.00011999999999999999,-2.9999999999999997e-05,-1e-05,-2e-05,1
2981,3088,0.0,0.0,0.0,-1e-05,-0.00011999999999999999,-2.9999999999999997e-05,-1e-05,-2e-05,1
2982,3089,0.0,0.0,0.0,-1e-05,-0.00011999999999999999,-2.9999999999999997e-05,-1e-05,-2e-05,1
2983,3090,0.0,0.0,0.0,-1e-05,-0.00011999999999999999,-2.9999999999999997e-05,-1e-05,-2e-05,1
2984,3091,0.0,-2.9999999999999997e-05,-5e-05,-1e-05,2.9999999999999997e-05,1e-05,-2.9999999999999997e-05,-2e-05,1
2985,3092,-2e-05,-2.9999999999999997e-05,0.0,1e-05,-1e-05,-2.9999999999999997e-05,-1e-05,-2e-05,1
2986,3093,-2e-05,-2.9999999999999997e-05,0.0,1e-05,-1e-05,-2.9999999999999997e-05,-1e-05,-2e-05,1
2987,3094,1e-05,-1e-05,-1e-05,0.0,-5e-05,-2e-05,0.0,2e-05,1
2988,3095,1e-05,-1e-05,-1e-05,0.0,-5e-05,-2e-05,0.0,2e-05,1
2989,3096,1e-05,-1e-05,-1e-05,0.0,-5e-05,-2e-05,0.0,2e-05,1
2990,3097,1e-05,-1e-05,-1e-05,0.0,-5e-05,-2e-05,0.0,2e-05,1
2991,3098,1e-05,-1e-05,-1e-05,0.0,-5e-05,-2e-05,0.0,2e-05,1
2992,3099,1e-05,-1e-05,-1e-05,0.0,-5e-05,-2e-05,0.0,2e-05,1
2993,3100,1e-05,-1e-05,-1e-05,0.0,-5e-05,-2e-05,0.0,2e-05,1
2994,3101,1e-05,-1e-05,-1e-05,0.0,-5e-05,-2e-05,0.0,2e-05,1
2995,3102,1e-05,-1e-05,-1e-05,0.0,-5e-05,-2e-05,0.0,2e-05,1
2996,3103,1e-05,-1e-05,-1e-05,0.0,-5e-05,-2e-05,0.0,2e-05,1
2997,3104,1e-05,-1e-05,-1e-05,0.0,-5e-05,-2e-05,0.0,2e-05,1
2998,3105,-2e-05,0.0,-1e-05,-2e-05,-4e-05,-2.9999999999999997e-05,0.0,0.0,1
2999,3106,1e-05,0.0,-2e-05,-2e-05,-1e-05,-1e-05,1e-05,2e-05,1
3000,3107,1e-05,0.0,-2e-05,-2e-05,-1e-05,-1e-05,1e-05,2e-05,1
3001,3108,1e-05,0.0,-2e-05,-2e-05,-1e-05,-1e-05,1e-05,2e-05,1
3002,3109,1e-05,0.0,-2e-05,-2e-05,-1e-05,-1e-05,1e-05,2e-05,1
3003,3110,1e-05,0.0,-2e-05,-2e-05,-1e-05,-1e-05,1e-05,2e-05,1
3004,3111,1e-05,0.0,-2e-05,-2e-05,-1e-05,-1e-05,1e-05,2e-05,1
3005,3112,1e-05,0.0,-2e-05,-2e-05,-1e-05,-1e-05,1e-05,2e-05,1
3006,3113,1e-05,0.0,-2e-05,-2e-05,-1e-05,-1e-05,1e-05,2e-05,1
3007,3114,-1e-05,-1e-05,-2e-05,0.0,5.9999999999999995e-05,1e-05,0.0,-1e-05,1
3008,3115,-1e-05,-1e-05,-2e-05,0.0,5.9999999999999995e-05,1e-05,0.0,-1e-05,1
3009,3116,-1e-05,-1e-05,-2e-05,0.0,5.9999999999999995e-05,1e-05,0.0,-1e-05,1
3010,3117,-1e-05,-1e-05,-2e-05,0.0,5.9999999999999995e-05,1e-05,0.0,-1e-05,1
3011,3118,-1e-05,-1e-05,-2e-05,0.0,5.9999999999999995e-05,1e-05,0.0,-1e-05,1
3012,3119,-1e-05,-1e-05,-2e-05,0.0,5.9999999999999995e-05,1e-05,0.0,-1e-05,1
3013,3120,-1e-05,-1e-05,-2e-05,0.0,5.9999999999999995e-05,1e-05,0.0,-1e-05,1
3014,3121,-1e-05,-1e-05,-2e-05,0.0,5.9999999999999995e-05,1e-05,0.0,-1e-05,1
3015,3122,-1e-05,-1e-05,-2e-05,0.0,5.9999999999999995e-05,1e-05,0.0,-1e-05,1
3016,3123,-1e-05,-1e-05,-2e-05,0.0,5.9999999999999995e-05,1e-05,0.0,-1e-05,1
3017,3124,-1e-05,-1e-05,-2e-05,0.0,5.9999999999999995e-05,1e-05,0.0,-1e-05,1
3018,3125,-1e-05,-1e-05,-2e-05,0.0,5.9999999999999995e-05,1e-05,0.0,-1e-05,1
3019,3126,-1e-05,-1e-05,-2e-05,0.0,5.9999999999999995e-05,1e-05,0.0,-1e-05,1
3020,3127,-1e-05,-1e-05,-2e-05,0.0,5.9999999999999995e-05,1e-05,0.0,-1e-05,1
3021,3128,1e-05,1e-05,2e-05,2e-05,5e-05,0.0,-2e-05,-1e-05,1
3022,3129,1e-05,1e-05,2e-05,2e-05,5e-05,0.0,-2e-05,-1e-05,1
3023,3130,1e-05,1e-05,2e-05,2e-05,5e-05,0.0,-2e-05,-1e-05,1
3024,3131,1e-05,1e-05,2e-05,2e-05,5e-05,0.0,-2e-05,-1e-05,1
3025,3132,1e-05,1e-05,2e-05,2e-05,5e-05,0.0,-2e-05,-1e-05,1
3026,3133,1e-05,1e-05,2e-05,2e-05,5e-05,0.0,-2e-05,-1e-05,1
3027,3134,1e-05,1e-05,2e-05,2e-05,5e-05,0.0,-2e-05,-1e-05,1
3028,3135,1e-05,1e-05,2e-05,2e-05,5e-05,0.0,-2e-05,-1e-05,1
3029,3136,1e-05,1e-05,2e-05,2e-05,5e-05,0.0,-2e-05,-1e-05,1
3030,3138,-2e-05,-1e-05,-2.9999999999999997e-05,-1e-05,0.0,0.0,-1e-05,0.0,1
3031,3139,-2e-05,-1e-05,-2.9999999999999997e-05,-1e-05,0.0,0.0,-1e-05,0.0,1
3032,3140,-2e-05,-1e-05,-2.9999999999999997e-05,-1e-05,0.0,0.0,-1e-05,0.0,1
3033,3141,-2e-05,-1e-05,-2.9999999999999997e-05,-1e-05,0.0,0.0,-1e-05,0.0,1
3034,3142,-2e-05,-1e-05,-2.9999999999999997e-05,-1e-05,0.0,0.0,-1e-05,0.0,1
3035,3143,-2e-05,-1e-05,-2.9999999999999997e-05,-1e-05,0.0,0.0,-1e-05,0.0,1
3036,3144,-2e-05,-1e-05,-2.9999999999999997e-05,-1e-05,0.0,0.0,-1e-05,0.0,1
3037,3145,-2e-05,-1e-05,-2.9999999999999997e-05,-1e-05,0.0,0.0,-1e-05,0.0,1
3038,3146,-2e-05,-1e-05,-2.9999999999999997e-05,-1e-05,0.0,0.0,-1e-05,0.0,1
3039,3147,-2e-05,-1e-05,-2.9999999999999997e-05,-1e-05,0.0,0.0,-1e-05,0.0,1
3040,3148,-2e-05,-1e-05,-2.9999999999999997e-05,-1e-05,0.0,0.0,-1e-05,0.0,1
3041,3149,-2e-05,-1e-05,-2.9999999999999997e-05,-1e-05,0.0,0.0,-1e-05,0.0,1
3042,3150,-2e-05,-1e-05,-2.9999999999999997e-05,-1e-05,0.0,0.0,-1e-05,0.0,1
3043,3151,-1e-05,-2e-05,-5e-05,-2e-05,-1e-05,-1e-05,-2.9999999999999997e-05,-5e-05,1
3044,3152,-1e-05,1e-05,2e-05,-1e-05,-5e-05,-2e-05,-1e-05,-1e-05,1
3045,3153,-1e-05,-2e-05,0.0,-2.9999999999999997e-05,-2e-05,-2.9999999999999997e-05,-1e-05,-2e-05,1
3046,3155,-1e-05,-2e-05,0.0,-2.9999999999999997e-05,-2e-05,-2.9999999999999997e-05,-1e-05,-2e-05,1
3047,3156,-1e-05,-2e-05,0.0,-2.9999999999999997e-05,-2e-05,-2.9999999999999997e-05,-1e-05,-2e-05,1
3048,3157,-1e-05,-2e-05,0.0,-2.9999999999999997e-05,-2e-05,-2.9999999999999997e-05,-1e-05,-2e-05,1
3049,3158,-1e-05,-2e-05,0.0,-2.9999999999999997e-05,-2e-05,-2.9999999999999997e-05,-1e-05,-2e-05,1
3050,3159,-1e-05,-2e-05,0.0,-2.9999999999999997e-05,-2e-05,-2.9999999999999997e-05,-1e-05,-2e-05,1
3051,3160,-1e-05,-2e-05,0.0,-2.9999999999999997e-05,-2e-05,-2.9999999999999997e-05,-1e-05,-2e-05,1
3052,3161,-1e-05,-2e-05,0.0,-2.9999999999999997e-05,-2e-05,-2.9999999999999997e-05,-1e-05,-2e-05,1
3053,3162,-1e-05,-2e-05,0.0,-2.9999999999999997e-05,-2e-05,-2.9999999999999997e-05,-1e-05,-2e-05,1
3054,3163,-1e-05,-2e-05,0.0,-2.9999999999999997e-05,-2e-05,-2.9999999999999997e-05,-1e-05,-2e-05,1
3055,3164,-1e-05,-2e-05,0.0,-2.9999999999999997e-05,-2e-05,-2.9999999999999997e-05,-1e-05,-2e-05,1
3056,3165,-2e-05,-2.9999999999999997e-05,1e-05,1e-05,-1e-05,0.0,-1e-05,-2e-05,1
3057,3166,-2e-05,-2.9999999999999997e-05,1e-05,1e-05,-1e-05,0.0,-1e-05,-2e-05,1
3058,3167,-2e-05,-2.9999999999999997e-05,1e-05,1e-05,-1e-05,0.0,-1e-05,-2e-05,1
3059,3168,-2e-05,-2.9999999999999997e-05,1e-05,1e-05,-1e-05,0.0,-1e-05,-2e-05,1
3060,3169,-2e-05,-2.9999999999999997e-05,1e-05,1e-05,-1e-05,0.0,-1e-05,-2e-05,1
3061,3170,-2e-05,-2.9999999999999997e-05,1e-05,1e-05,-1e-05,0.0,-1e-05,-2e-05,1
3062,3171,-2e-05,-2.9999999999999997e-05,1e-05,1e-05,-1e-05,0.0,-1e-05,-2e-05,1
3063,3172,-2e-05,-2.9999999999999997e-05,1e-05,1e-05,-1e-05,0.0,-1e-05,-2e-05,1
3064,3173,-2e-05,-2.9999999999999997e-05,1e-05,1e-05,-1e-05,0.0,-1e-05,-2e-05,1
3065,3174,-1e-05,-1e-05,2.9999999999999997e-05,0.0,1e-05,-1e-05,-2e-05,0.0,1
3066,3175,-1e-05,-1e-05,2.9999999999999997e-05,0.0,1e-05,-1e-05,-2e-05,0.0,1
3067,3176,-1e-05,-1e-05,2.9999999999999997e-05,0.0,1e-05,-1e-05,-2e-05,0.0,1
3068,3177,-1e-05,-1e-05,2.9999999999999997e-05,0.0,1e-05,-1e-05,-2e-05,0.0,1
3069,3178,-1e-05,-1e-05,2.9999999999999997e-05,0.0,1e-05,-1e-05,-2e-05,0.0,1
3070,3179,-1e-05,-1e-05,2.9999999999999997e-05,0.0,1e-05,-1e-05,-2e-05,0.0,1
3071,3180,-1e-05,-1e-05,2.9999999999999997e-05,0.0,1e-05,-1e-05,-2e-05,0.0,1
3072,3181,-1e-05,-1e-05,2.9999999999999997e-05,0.0,1e-05,-1e-05,-2e-05,0.0,1
3073,3182,-1e-05,-1e-05,2.9999999999999997e-05,0.0,1e-05,-1e-05,-2e-05,0.0,1
3074,3183,-1e-05,-1e-05,2.9999999999999997e-05,0.0,1e-05,-1e-05,-2e-05,0.0,1
3075,3184,-1e-05,-1e-05,2.9999999999999997e-05,0.0,1e-05,-1e-05,-2e-05,0.0,1
3076,3185,-1e-05,-1e-05,2.9999999999999997e-05,0.0,1e-05,-1e-05,-2e-05,0.0,1
3077,3186,-1e-05,-1e-05,2.9999999999999997e-05,0.0,1e-05,-1e-05,-2e-05,0.0,1
3078,3188,-2e-05,-2.9999999999999997e-05,-2e-05,2e-05,5e-05,2.9999999999999997e-05,0.0,-2e-05,1
3079,3189,-2e-05,-2.9999999999999997e-05,-2e-05,2e-05,5e-05,2.9999999999999997e-05,0.0,-2e-05,1
3080,3190,-2e-05,-2.9999999999999997e-05,-2e-05,2e-05,5e-05,2.9999999999999997e-05,0.0,-2e-05,1
3081,3191,-2e-05,-2.9999999999999997e-05,-2e-05,2e-05,5e-05,2.9999999999999997e-05,0.0,-2e-05,1
3082,3192,-2e-05,-2.9999999999999997e-05,-2e-05,2e-05,5e-05,2.9999999999999997e-05,0.0,-2e-05,1
3083,3193,-2e-05,-2.9999999999999997e-05,-2e-05,2e-05,5e-05,2.9999999999999997e-05,0.0,-2e-05,1
3084,3194,-2e-05,-2.9999999999999997e-05,-2e-05,2e-05,5e-05,2.9999999999999997e-05,0.0,-2e-05,1
3085,3195,-2e-05,-2.9999999999999997e-05,-2e-05,2e-05,5e-05,2.9999999999999997e-05,0.0,-2e-05,1
3086,3196,-2.9999999999999997e-05,-2e-05,-5e-05,-2.9999999999999997e-05,-7e-05,-4e-05,-2.9999999999999997e-05,-2e-05,1
3087,3197,-2e-05,2e-05,1e-05,0.0,1e-05,-1e-05,0.0,0.0,1
3088,3198,-2e-05,2e-05,1e-05,0.0,1e-05,-1e-05,0.0,0.0,1
3089,3199,-2e-05,2e-05,1e-05,0.0,1e-05,-1e-05,0.0,0.0,1
3090,3200,-2e-05,2e-05,1e-05,0.0,1e-05,-1e-05,0.0,0.0,1
3091,3201,-2e-05,2e-05,1e-05,0.0,1e-05,-1e-05,0.0,0.0,1
3092,3202,-2e-05,2e-05,1e-05,0.0,1e-05,-1e-05,0.0,0.0,1
3093,3203,-2e-05,2e-05,1e-05,0.0,1e-05,-1e-05,0.0,0.0,1
3094,3204,-2e-05,2e-05,1e-05,0.0,1e-05,-1e-05,0.0,0.0,1
3095,3205,-2e-05,2e-05,1e-05,0.0,1e-05,-1e-05,0.0,0.0,1
3096,3206,-2e-05,2e-05,1e-05,0.0,1e-05,-1e-05,0.0,0.0,1
3097,3207,-2e-05,2e-05,1e-05,0.0,1e-05,-1e-05,0.0,0.0,1
3098,3208,-2e-05,2e-05,1e-05,0.0,1e-05,-1e-05,0.0,0.0,1
3099,3209,-2e-05,2e-05,1e-05,0.0,1e-05,-1e-05,0.0,0.0,1
3100,3210,-2e-05,2e-05,1e-05,0.0,1e-05,-1e-05,0.0,0.0,1
3101,3211,1e-05,0.0,0.0,-1e-05,0.0,0.0,-1e-05,1e-05,1
3102,3212,-1e-05,0.0,-2.9999999999999997e-05,-2.9999999999999997e-05,-2.9999999999999997e-05,-2.9999999999999997e-05,-2.9999999999999997e-05,-1e-05,1
3103,3213,-2.9999999999999997e-05,-2e-05,-1e-05,1e-05,-2.9999999999999997e-05,-2.9999999999999997e-05,-1e-05,0.0,1
3104,3214,-2.9999999999999997e-05,-2e-05,-1e-05,1e-05,-2.9999999999999997e-05,-2.9999999999999997e-05,-1e-05,0.0,1
3105,3215,-2.9999999999999997e-05,-2e-05,-1e-05,1e-05,-2.9999999999999997e-05,-2.9999999999999997e-05,-1e-05,0.0,1
3106,3216,-2.9999999999999997e-05,-2e-05,-1e-05,1e-05,-2.9999999999999997e-05,-2.9999999999999997e-05,-1e-05,0.0,1
3107,3217,-2.9999999999999997e-05,-2e-05,-1e-05,1e-05,-2.9999999999999997e-05,-2.9999999999999997e-05,-1e-05,0.0,1
3108,3218,-2.9999999999999997e-05,-2e-05,-1e-05,1e-05,-2.9999999999999997e-05,-2.9999999999999997e-05,-1e-05,0.0,1
3109,3219,-2.9999999999999997e-05,-2e-05,-1e-05,1e-05,-2.9999999999999997e-05,-2.9999999999999997e-05,-1e-05,0.0,1
3110,3220,-2.9999999999999997e-05,-2e-05,-1e-05,1e-05,-2.9999999999999997e-05,-2.9999999999999997e-05,-1e-05,0.0,1
3111,3221,-2.9999999999999997e-05,-2e-05,-1e-05,1e-05,-2.9999999999999997e-05,-2.9999999999999997e-05,-1e-05,0.0,1
3112,3222,-2.9999999999999997e-05,-2e-05,-1e-05,1e-05,-2.9999999999999997e-05,-2.9999999999999997e-05,-1e-05,0.0,1
3113,3223,-2.9999999999999997e-05,-2e-05,-1e-05,1e-05,-2.9999999999999997e-05,-2.9999999999999997e-05,-1e-05,0.0,1
3114,3224,-2.9999999999999997e-05,-2e-05,-1e-05,1e-05,-2.9999999999999997e-05,-2.9999999999999997e-05,-1e-05,0.0,1
3115,3225,-1e-05,-1e-05,-2e-05,-4e-05,-2e-05,0.0,-1e-05,0.0,1
3116,3226,-1e-05,-1e-05,-2e-05,-4e-05,-2e-05,0.0,-1e-05,0.0,1
3117,3227,-1e-05,-1e-05,-2e-05,-4e-05,-2e-05,0.0,-1e-05,0.0,1
3118,3228,-1e-05,-1e-05,-2e-05,-4e-05,-2e-05,0.0,-1e-05,0.0,1
3119,3229,-1e-05,-1e-05,-2e-05,-4e-05,-2e-05,0.0,-1e-05,0.0,1
3120,3230,-1e-05,-1e-05,-2e-05,-4e-05,-2e-05,0.0,-1e-05,0.0,1
3121,3231,-1e-05,-1e-05,-2e-05,-4e-05,-2e-05,0.0,-1e-05,0.0,1
3122,3232,-1e-05,-1e-05,-2e-05,-4e-05,-2e-05,0.0,-1e-05,0.0,1
3123,3233,-1e-05,-1e-05,-2e-05,-4e-05,-2e-05,0.0,-1e-05,0.0,1
3124,3234,0.0,-1e-05,-2e-05,-2e-05,2e-05,-2e-05,0.0,-2e-05,1
3125,3235,0.0,-1e-05,-2e-05,-2e-05,2e-05,-2e-05,0.0,-2e-05,1
3126,3236,0.0,-1e-05,-2e-05,-2e-05,2e-05,-2e-05,0.0,-2e-05,1
3127,3238,0.0,-1e-05,-2e-05,-2e-05,2e-05,-2e-05,0.0,-2e-05,1
3128,3239,0.0,-1e-05,-2e-05,-2e-05,2e-05,-2e-05,0.0,-2e-05,1
3129,3240,0.0,-1e-05,-2e-05,-2e-05,2e-05,-2e-05,0.0,-2e-05,1
3130,3241,0.0,-1e-05,-2e-05,-2e-05,2e-05,-2e-05,0.0,-2e-05,1
3131,3242,0.0,-1e-05,-2e-05,-2e-05,2e-05,-2e-05,0.0,-2e-05,1
3132,3243,0.0,-1e-05,-2e-05,-2e-05,2e-05,-2e-05,0.0,-2e-05,1
3133,3244,0.0,-1e-05,-2e-05,-2e-05,2e-05,-2e-05,0.0,-2e-05,1
3134,3245,0.0,-1e-05,-2e-05,-2e-05,2e-05,-2e-05,0.0,-2e-05,1
3135,3246,0.0,-1e-05,-2e-05,-2e-05,2e-05,-2e-05,0.0,-2e-05,1
3136,3247,0.0,0.0,0.0,1e-05,-2e-05,-1e-05,-2.9999999999999997e-05,-2e-05,1
3137,3248,-2.9999999999999997e-05,-4e-05,-2.9999999999999997e-05,0.0,-5.9999999999999995e-05,-2.9999999999999997e-05,1e-05,-2e-05,1
3138,3249,-2.9999999999999997e-05,-4e-05,-2.9999999999999997e-05,0.0,-5.9999999999999995e-05,-2.9999999999999997e-05,1e-05,-2e-05,1
3139,3250,-2.9999999999999997e-05,-4e-05,-2.9999999999999997e-05,0.0,-5.9999999999999995e-05,-2.9999999999999997e-05,1e-05,-2e-05,1
3140,3251,-2.9999999999999997e-05,-4e-05,-2.9999999999999997e-05,0.0,-5.9999999999999995e-05,-2.9999999999999997e-05,1e-05,-2e-05,1
3141,3252,-2.9999999999999997e-05,-4e-05,-2.9999999999999997e-05,0.0,-5.9999999999999995e-05,-2.9999999999999997e-05,1e-05,-2e-05,1
3142,3253,-2.9999999999999997e-05,-4e-05,-2.9999999999999997e-05,0.0,-5.9999999999999995e-05,-2.9999999999999997e-05,1e-05,-2e-05,1
3143,3254,-2.9999999999999997e-05,-4e-05,-2.9999999999999997e-05,0.0,-5.9999999999999995e-05,-2.9999999999999997e-05,1e-05,-2e-05,1
3144,3255,-2.9999999999999997e-05,-4e-05,-2.9999999999999997e-05,0.0,-5.9999999999999995e-05,-2.9999999999999997e-05,1e-05,-2e-05,1
3145,3256,0.0,-2e-05,-7e-05,-2.9999999999999997e-05,2e-05,-5e-05,1e-05,0.0,1
3146,3257,-1e-05,-2.9999999999999997e-05,2.9999999999999997e-05,-1e-05,-5e-05,-2e-05,-2e-05,-1e-05,1
3147,3258,-1e-05,-2.9999999999999997e-05,2.9999999999999997e-05,-1e-05,-5e-05,-2e-05,-2e-05,-1e-05,1
3148,3259,-1e-05,-2.9999999999999997e-05,2.9999999999999997e-05,-1e-05,-5e-05,-2e-05,-2e-05,-1e-05,1
3149,3260,-1e-05,-2.9999999999999997e-05,2.9999999999999997e-05,-1e-05,-5e-05,-2e-05,-2e-05,-1e-05,1
3150,3261,-1e-05,-2.9999999999999997e-05,2.9999999999999997e-05,-1e-05,-5e-05,-2e-05,-2e-05,-1e-05,1
3151,3262,-1e-05,-2.9999999999999997e-05,2.9999999999999997e-05,-1e-05,-5e-05,-2e-05,-2e-05,-1e-05,1
3152,3263,-1e-05,-2.9999999999999997e-05,2.9999999999999997e-05,-1e-05,-5e-05,-2e-05,-2e-05,-1e-05,1
3153,3264,-1e-05,-2.9999999999999997e-05,2.9999999999999997e-05,-1e-05,-5e-05,-2e-05,-2e-05,-1e-05,1
3154,3265,-1e-05,-2.9999999999999997e-05,2.9999999999999997e-05,-1e-05,-5e-05,-2e-05,-2e-05,-1e-05,1
3155,3266,-1e-05,-2.9999999999999997e-05,2.9999999999999997e-05,-1e-05,-5e-05,-2e-05,-2e-05,-1e-05,1
3156,3267,-1e-05,-2.9999999999999997e-05,2.9999999999999997e-05,-1e-05,-5e-05,-2e-05,-2e-05,-1e-05,1
3157,3268,-1e-05,-2.9999999999999997e-05,2.9999999999999997e-05,-1e-05,-5e-05,-2e-05,-2e-05,-1e-05,1
3158,3269,-1e-05,-2.9999999999999997e-05,2.9999999999999997e-05,-1e-05,-5e-05,-2e-05,-2e-05,-1e-05,1
3159,3270,-1e-05,-2.9999999999999997e-05,2.9999999999999997e-05,-1e-05,-5e-05,-2e-05,-2e-05,-1e-05,1
3160,3271,-1e-05,2e-05,1e-05,-2.9999999999999997e-05,-2e-05,0.0,-4e-05,-1e-05,1
3161,3272,-1e-05,2e-05,1e-05,-2.9999999999999997e-05,-2e-05,0.0,-4e-05,-1e-05,1
3162,3273,-2e-05,-5e-05,-5e-05,-5e-05,-1e-05,1e-05,0.0,1e-05,1
3163,3274,-2e-05,-5e-05,-5e-05,-5e-05,-1e-05,1e-05,0.0,1e-05,1
3164,3275,-2e-05,-5e-05,-5e-05,-5e-05,-1e-05,1e-05,0.0,1e-05,1
3165,3276,-2e-05,-5e-05,-5e-05,-5e-05,-1e-05,1e-05,0.0,1e-05,1
3166,3277,-2e-05,-5e-05,-5e-05,-5e-05,-1e-05,1e-05,0.0,1e-05,1
3167,3278,-2e-05,-5e-05,-5e-05,-5e-05,-1e-05,1e-05,0.0,1e-05,1
3168,3279,-2e-05,-5e-05,-5e-05,-5e-05,-1e-05,1e-05,0.0,1e-05,1
3169,3280,-2e-05,-5e-05,-5e-05,-5e-05,-1e-05,1e-05,0.0,1e-05,1
3170,3281,-2e-05,-5e-05,-5e-05,-5e-05,-1e-05,1e-05,0.0,1e-05,1
3171,3282,-2e-05,-5e-05,-5e-05,-5e-05,-1e-05,1e-05,0.0,1e-05,1
3172,3283,-2e-05,-5e-05,-5e-05,-5e-05,-1e-05,1e-05,0.0,1e-05,1
3173,3284,-2e-05,-5e-05,-5e-05,-5e-05,-1e-05,1e-05,0.0,1e-05,1
3174,3285,-2e-05,-2e-05,-2e-05,-2.9999999999999997e-05,-2e-05,-2e-05,-2e-05,0.0,1
3175,3286,-2e-05,-2e-05,-2e-05,-2.9999999999999997e-05,-2e-05,-2e-05,-2e-05,0.0,1
3176,3288,-2e-05,-2e-05,-2e-05,-2.9999999999999997e-05,-2e-05,-2e-05,-2e-05,0.0,1
3177,3289,-2e-05,-2e-05,-2e-05,-2.9999999999999997e-05,-2e-05,-2e-05,-2e-05,0.0,1
3178,3290,-2e-05,-2e-05,-2e-05,-2.9999999999999997e-05,-2e-05,-2e-05,-2e-05,0.0,1
3179,3291,-2e-05,-2e-05,-2e-05,-2.9999999999999997e-05,-2e-05,-2e-05,-2e-05,0.0,1
3180,3292,-2e-05,-2e-05,-2e-05,-2.9999999999999997e-05,-2e-05,-2e-05,-2e-05,0.0,1
3181,3293,-2e-05,-2e-05,-2e-05,-2.9999999999999997e-05,-2e-05,-2e-05,-2e-05,0.0,1
3182,3294,0.0,2.9999999999999997e-05,0.0,-2.9999999999999997e-05,2.9999999999999997e-05,2e-05,0.0,-2e-05,1
3183,3296,0.0,2.9999999999999997e-05,0.0,-2.9999999999999997e-05,2.9999999999999997e-05,2e-05,0.0,-2e-05,1
3184,3297,0.0,2.9999999999999997e-05,0.0,-2.9999999999999997e-05,2.9999999999999997e-05,2e-05,0.0,-2e-05,1
3185,3298,0.0,2.9999999999999997e-05,0.0,-2.9999999999999997e-05,2.9999999999999997e-05,2e-05,0.0,-2e-05,1
3186,3299,0.0,2.9999999999999997e-05,0.0,-2.9999999999999997e-05,2.9999999999999997e-05,2e-05,0.0,-2e-05,1
3187,3300,0.0,2.9999999999999997e-05,0.0,-2.9999999999999997e-05,2.9999999999999997e-05,2e-05,0.0,-2e-05,1
3188,3301,0.0,2.9999999999999997e-05,0.0,-2.9999999999999997e-05,2.9999999999999997e-05,2e-05,0.0,-2e-05,1
3189,3302,0.0,2.9999999999999997e-05,0.0,-2.9999999999999997e-05,2.9999999999999997e-05,2e-05,0.0,-2e-05,1
3190,3303,0.0,2.9999999999999997e-05,0.0,-2.9999999999999997e-05,2.9999999999999997e-05,2e-05,0.0,-2e-05,1
3191,3304,0.0,2.9999999999999997e-05,0.0,-2.9999999999999997e-05,2.9999999999999997e-05,2e-05,0.0,-2e-05,1
3192,3305,0.0,2.9999999999999997e-05,0.0,-2.9999999999999997e-05,2.9999999999999997e-05,2e-05,0.0,-2e-05,1
3193,3306,0.0,2.9999999999999997e-05,0.0,-2.9999999999999997e-05,2.9999999999999997e-05,2e-05,0.0,-2e-05,1
3194,3307,0.0,2.9999999999999997e-05,0.0,-2.9999999999999997e-05,2.9999999999999997e-05,2e-05,0.0,-2e-05,1
3195,3308,0.0,-1e-05,0.0,-1e-05,-1e-05,-1e-05,0.0,-1e-05,1
3196,3309,0.0,-1e-05,0.0,-1e-05,-1e-05,-1e-05,0.0,-1e-05,1
3197,3310,0.0,-1e-05,0.0,-1e-05,-1e-05,-1e-05,0.0,-1e-05,1
3198,3311,0.0,-1e-05,0.0,-1e-05,-1e-05,-1e-05,0.0,-1e-05,1
3199,3312,0.0,-1e-05,0.0,-1e-05,-1e-05,-1e-05,0.0,-1e-05,1
3200,3313,0.0,-1e-05,0.0,-1e-05,-1e-05,-1e-05,0.0,-1e-05,1
3201,3314,0.0,-1e-05,0.0,-1e-05,-1e-05,-1e-05,0.0,-1e-05,1
3202,3315,0.0,-1e-05,0.0,-1e-05,-1e-05,-1e-05,0.0,-1e-05,1
3203,3316,0.0,-1e-05,0.0,-1e-05,-1e-05,-1e-05,0.0,-1e-05,1
3204,3317,-1e-05,-2e-05,-1e-05,0.0,-4e-05,-2e-05,-2e-05,-2e-05,1
3205,3318,-1e-05,-2e-05,-1e-05,0.0,-4e-05,-2e-05,-2e-05,-2e-05,1
3206,3319,-1e-05,-2e-05,-1e-05,0.0,-4e-05,-2e-05,-2e-05,-2e-05,1
3207,3320,-1e-05,-2e-05,-1e-05,0.0,-4e-05,-2e-05,-2e-05,-2e-05,1
3208,3321,-1e-05,-2e-05,-1e-05,0.0,-4e-05,-2e-05,-2e-05,-2e-05,1
3209,3322,-1e-05,-2e-05,-1e-05,0.0,-4e-05,-2e-05,-2e-05,-2e-05,1
3210,3323,-1e-05,-2e-05,-1e-05,0.0,-4e-05,-2e-05,-2e-05,-2e-05,1
3211,3324,-1e-05,-2e-05,-1e-05,0.0,-4e-05,-2e-05,-2e-05,-2e-05,1
3212,3325,-1e-05,-2e-05,-1e-05,0.0,-4e-05,-2e-05,-2e-05,-2e-05,1
3213,3326,-1e-05,-2e-05,-1e-05,0.0,-4e-05,-2e-05,-2e-05,-2e-05,1
3214,3327,-1e-05,-2e-05,-1e-05,0.0,-4e-05,-2e-05,-2e-05,-2e-05,1
3215,3328,-1e-05,-2e-05,-1e-05,0.0,-4e-05,-2e-05,-2e-05,-2e-05,1
3216,3329,-1e-05,-2e-05,-1e-05,0.0,-4e-05,-2e-05,-2e-05,-2e-05,1
3217,3330,-1e-05,-2e-05,-1e-05,0.0,-4e-05,-2e-05,-2e-05,-2e-05,1
3218,3331,-1e-05,-2e-05,-1e-05,0.0,-4e-05,-2e-05,-2e-05,-2e-05,1
3219,3332,-1e-05,0.0,-2e-05,-4e-05,-1e-05,-2.9999999999999997e-05,-4e-05,0.0,1
3220,3333,-1e-05,-2.9999999999999997e-05,7e-05,5e-05,2.9999999999999997e-05,4e-05,2.9999999999999997e-05,-2e-05,1
3221,3334,-1e-05,0.0,-2.9999999999999997e-05,-2.9999999999999997e-05,-2.9999999999999997e-05,-2e-05,-1e-05,-2e-05,1
3222,3335,-1e-05,0.0,-2.9999999999999997e-05,-2.9999999999999997e-05,-2.9999999999999997e-05,-2e-05,-1e-05,-2e-05,1
3223,3336,-1e-05,0.0,-2.9999999999999997e-05,-2.9999999999999997e-05,-2.9999999999999997e-05,-2e-05,-1e-05,-2e-05,1
3224,3338,-1e-05,0.0,-2.9999999999999997e-05,-2.9999999999999997e-05,-2.9999999999999997e-05,-2e-05,-1e-05,-2e-05,1
3225,3339,-1e-05,0.0,-2.9999999999999997e-05,-2.9999999999999997e-05,-2.9999999999999997e-05,-2e-05,-1e-05,-2e-05,1
3226,3340,-1e-05,0.0,-2.9999999999999997e-05,-2.9999999999999997e-05,-2.9999999999999997e-05,-2e-05,-1e-05,-2e-05,1
3227,3341,-1e-05,0.0,-2.9999999999999997e-05,-2.9999999999999997e-05,-2.9999999999999997e-05,-2e-05,-1e-05,-2e-05,1
3228,3342,-1e-05,0.0,-2.9999999999999997e-05,-2.9999999999999997e-05,-2.9999999999999997e-05,-2e-05,-1e-05,-2e-05,1
3229,3343,-1e-05,0.0,-2.9999999999999997e-05,-2.9999999999999997e-05,-2.9999999999999997e-05,-2e-05,-1e-05,-2e-05,1
3230,3344,-1e-05,0.0,-2.9999999999999997e-05,-2.9999999999999997e-05,-2.9999999999999997e-05,-2e-05,-1e-05,-2e-05,1
3231,3345,-1e-05,0.0,-4e-05,0.0,-2.9999999999999997e-05,-2.9999999999999997e-05,1e-05,-2.9999999999999997e-05,1
3232,3346,-1e-05,0.0,-4e-05,0.0,-2.9999999999999997e-05,-2.9999999999999997e-05,1e-05,-2.9999999999999997e-05,1
3233,3347,-1e-05,0.0,-4e-05,0.0,-2.9999999999999997e-05,-2.9999999999999997e-05,1e-05,-2.9999999999999997e-05,1
3234,3348,-1e-05,0.0,-4e-05,0.0,-2.9999999999999997e-05,-2.9999999999999997e-05,1e-05,-2.9999999999999997e-05,1
3235,3349,-1e-05,0.0,-4e-05,0.0,-2.9999999999999997e-05,-2.9999999999999997e-05,1e-05,-2.9999999999999997e-05,1
3236,3350,-1e-05,0.0,-4e-05,0.0,-2.9999999999999997e-05,-2.9999999999999997e-05,1e-05,-2.9999999999999997e-05,1
3237,3351,-1e-05,0.0,-4e-05,0.0,-2.9999999999999997e-05,-2.9999999999999997e-05,1e-05,-2.9999999999999997e-05,1
3238,3352,-1e-05,0.0,-4e-05,0.0,-2.9999999999999997e-05,-2.9999999999999997e-05,1e-05,-2.9999999999999997e-05,1
3239,3353,-1e-05,0.0,-4e-05,0.0,-2.9999999999999997e-05,-2.9999999999999997e-05,1e-05,-2.9999999999999997e-05,1
3240,3354,0.0,1e-05,0.0,2.9999999999999997e-05,-2.9999999999999997e-05,-1e-05,-1e-05,-2e-05,1
3241,3355,0.0,1e-05,0.0,2.9999999999999997e-05,-2.9999999999999997e-05,-1e-05,-1e-05,-2e-05,1
3242,3356,0.0,1e-05,0.0,2.9999999999999997e-05,-2.9999999999999997e-05,-1e-05,-1e-05,-2e-05,1
3243,3357,0.0,1e-05,0.0,2.9999999999999997e-05,-2.9999999999999997e-05,-1e-05,-1e-05,-2e-05,1
3244,3358,0.0,1e-05,0.0,2.9999999999999997e-05,-2.9999999999999997e-05,-1e-05,-1e-05,-2e-05,1
3245,3359,0.0,1e-05,0.0,2.9999999999999997e-05,-2.9999999999999997e-05,-1e-05,-1e-05,-2e-05,1
3246,3360,0.0,1e-05,0.0,2.9999999999999997e-05,-2.9999999999999997e-05,-1e-05,-1e-05,-2e-05,1
3247,3361,0.0,1e-05,0.0,2.9999999999999997e-05,-2.9999999999999997e-05,-1e-05,-1e-05,-2e-05,1
3248,3362,0.0,1e-05,0.0,2.9999999999999997e-05,-2.9999999999999997e-05,-1e-05,-1e-05,-2e-05,1
3249,3363,0.0,1e-05,0.0,2.9999999999999997e-05,-2.9999999999999997e-05,-1e-05,-1e-05,-2e-05,1
3250,3364,0.0,1e-05,0.0,2.9999999999999997e-05,-2.9999999999999997e-05,-1e-05,-1e-05,-2e-05,1
3251,3365,0.0,1e-05,0.0,2.9999999999999997e-05,-2.9999999999999997e-05,-1e-05,-1e-05,-2e-05,1
3252,3366,0.0,1e-05,0.0,2.9999999999999997e-05,-2.9999999999999997e-05,-1e-05,-1e-05,-2e-05,1
3253,3367,0.0,1e-05,0.0,2.9999999999999997e-05,-2.9999999999999997e-05,-1e-05,-1e-05,-2e-05,1
3254,3368,0.0,-4e-05,-2.9999999999999997e-05,-2e-05,1e-05,0.0,-1e-05,1e-05,1
3255,3369,0.0,-4e-05,-2.9999999999999997e-05,-2e-05,1e-05,0.0,-1e-05,1e-05,1
3256,3370,0.0,-4e-05,-2.9999999999999997e-05,-2e-05,1e-05,0.0,-1e-05,1e-05,1
3257,3371,0.0,-4e-05,-2.9999999999999997e-05,-2e-05,1e-05,0.0,-1e-05,1e-05,1
3258,3372,0.0,-4e-05,-2.9999999999999997e-05,-2e-05,1e-05,0.0,-1e-05,1e-05,1
3259,3373,0.0,-4e-05,-2.9999999999999997e-05,-2e-05,1e-05,0.0,-1e-05,1e-05,1
3260,3374,0.0,-4e-05,-2.9999999999999997e-05,-2e-05,1e-05,0.0,-1e-05,1e-05,1
3261,3375,0.0,-4e-05,-2.9999999999999997e-05,-2e-05,1e-05,0.0,-1e-05,1e-05,1
3262,3376,0.0,-4e-05,-2.9999999999999997e-05,-2e-05,1e-05,0.0,-1e-05,1e-05,1
3263,3377,0.0,-4e-05,-2.9999999999999997e-05,-2e-05,1e-05,0.0,-1e-05,1e-05,1
3264,3378,0.0,-4e-05,-2.9999999999999997e-05,-2e-05,1e-05,0.0,-1e-05,1e-05,1
3265,3379,0.0,-4e-05,-2.9999999999999997e-05,-2e-05,1e-05,0.0,-1e-05,1e-05,1
3266,3380,0.0,-4e-05,-2.9999999999999997e-05,-2e-05,1e-05,0.0,-1e-05,1e-05,1
3267,3381,0.0,-4e-05,-2.9999999999999997e-05,-2e-05,1e-05,0.0,-1e-05,1e-05,1
3268,3382,0.0,-4e-05,-2.9999999999999997e-05,-2e-05,1e-05,0.0,-1e-05,1e-05,1
3269,3383,-2e-05,-1e-05,-1e-05,1e-05,2e-05,0.0,1e-05,-2e-05,1
3270,3384,-2e-05,-1e-05,-1e-05,1e-05,2e-05,0.0,1e-05,-2e-05,1
3271,3385,-2e-05,-1e-05,-1e-05,1e-05,2e-05,0.0,1e-05,-2e-05,1
3272,3386,-2e-05,-1e-05,-1e-05,1e-05,2e-05,0.0,1e-05,-2e-05,1
3273,3388,-2e-05,-1e-05,-1e-05,1e-05,2e-05,0.0,1e-05,-2e-05,1
3274,3389,-2e-05,-1e-05,-1e-05,1e-05,2e-05,0.0,1e-05,-2e-05,1
3275,3390,-2e-05,-1e-05,-1e-05,1e-05,2e-05,0.0,1e-05,-2e-05,1
3276,3391,0.0,0.0,0.0,0.0,-1e-05,-1e-05,-1e-05,-2e-05,1
3277,3392,0.0,0.0,0.0,0.0,-1e-05,-1e-05,-1e-05,-2e-05,1
3278,3393,-2e-05,-4e-05,-4e-05,-4e-05,2.9999999999999997e-05,-1e-05,-2e-05,-2e-05,1
3279,3394,-2e-05,-4e-05,-4e-05,-4e-05,2.9999999999999997e-05,-1e-05,-2e-05,-2e-05,1
3280,3395,-2e-05,-4e-05,-4e-05,-4e-05,2.9999999999999997e-05,-1e-05,-2e-05,-2e-05,1
3281,3396,-2e-05,-4e-05,-4e-05,-4e-05,2.9999999999999997e-05,-1e-05,-2e-05,-2e-05,1
3282,3397,-2e-05,-4e-05,-4e-05,-4e-05,2.9999999999999997e-05,-1e-05,-2e-05,-2e-05,1
3283,3398,-2e-05,-4e-05,-4e-05,-4e-05,2.9999999999999997e-05,-1e-05,-2e-05,-2e-05,1
3284,3399,-2e-05,-4e-05,-4e-05,-4e-05,2.9999999999999997e-05,-1e-05,-2e-05,-2e-05,1
3285,3400,-2e-05,-4e-05,-4e-05,-4e-05,2.9999999999999997e-05,-1e-05,-2e-05,-2e-05,1
3286,3401,-2e-05,-4e-05,-4e-05,-4e-05,2.9999999999999997e-05,-1e-05,-2e-05,-2e-05,1
3287,3402,-2e-05,-4e-05,-4e-05,-4e-05,2.9999999999999997e-05,-1e-05,-2e-05,-2e-05,1
3288,3403,-2e-05,-4e-05,-4e-05,-4e-05,2.9999999999999997e-05,-1e-05,-2e-05,-2e-05,1
3289,3404,-2e-05,-4e-05,-4e-05,-4e-05,2.9999999999999997e-05,-1e-05,-2e-05,-2e-05,1
3290,3405,0.0,0.0,-2e-05,-1e-05,-1e-05,-1e-05,2e-05,-2e-05,1
3291,3406,0.0,0.0,-2e-05,-1e-05,-1e-05,-1e-05,2e-05,-2e-05,1
3292,3407,0.0,0.0,-2e-05,-1e-05,-1e-05,-1e-05,2e-05,-2e-05,1
3293,3408,0.0,0.0,-2e-05,-1e-05,-1e-05,-1e-05,2e-05,-2e-05,1
3294,3409,0.0,0.0,-2e-05,-1e-05,-1e-05,-1e-05,2e-05,-2e-05,1
3295,3410,0.0,0.0,-2e-05,-1e-05,-1e-05,-1e-05,2e-05,-2e-05,1
3296,3411,0.0,0.0,-2e-05,-1e-05,-1e-05,-1e-05,2e-05,-2e-05,1
3297,3412,0.0,0.0,-2e-05,-1e-05,-1e-05,-1e-05,2e-05,-2e-05,1
3298,3413,0.0,0.0,-2e-05,-1e-05,-1e-05,-1e-05,2e-05,-2e-05,1
3299,3414,0.0,2.9999999999999997e-05,2e-05,-1e-05,-2e-05,0.0,0.0,-1e-05,1
3300,3415,0.0,2.9999999999999997e-05,2e-05,-1e-05,-2e-05,0.0,0.0,-1e-05,1
3301,3416,0.0,2.9999999999999997e-05,2e-05,-1e-05,-2e-05,0.0,0.0,-1e-05,1
3302,3417,0.0,2.9999999999999997e-05,2e-05,-1e-05,-2e-05,0.0,0.0,-1e-05,1
3303,3418,0.0,2.9999999999999997e-05,2e-05,-1e-05,-2e-05,0.0,0.0,-1e-05,1
3304,3419,0.0,2.9999999999999997e-05,2e-05,-1e-05,-2e-05,0.0,0.0,-1e-05,1
3305,3420,0.0,2.9999999999999997e-05,2e-05,-1e-05,-2e-05,0.0,0.0,-1e-05,1
3306,3421,0.0,2.9999999999999997e-05,2e-05,-1e-05,-2e-05,0.0,0.0,-1e-05,1
3307,3422,0.0,2.9999999999999997e-05,2e-05,-1e-05,-2e-05,0.0,0.0,-1e-05,1
3308,3423,0.0,2.9999999999999997e-05,2e-05,-1e-05,-2e-05,0.0,0.0,-1e-05,1
3309,3424,0.0,2.9999999999999997e-05,2e-05,-1e-05,-2e-05,0.0,0.0,-1e-05,1
3310,3425,0.0,2.9999999999999997e-05,2e-05,-1e-05,-2e-05,0.0,0.0,-1e-05,1
3311,3426,0.0,2.9999999999999997e-05,2e-05,-1e-05,-2e-05,0.0,0.0,-1e-05,1
3312,3427,0.0,2.9999999999999997e-05,2e-05,-1e-05,-2e-05,0.0,0.0,-1e-05,1
3313,3428,-1e-05,-2.9999999999999997e-05,-4e-05,-1e-05,-4e-05,0.0,0.0,0.0,1
3314,3429,-1e-05,-2.9999999999999997e-05,-4e-05,-1e-05,-4e-05,0.0,0.0,0.0,1
3315,3430,-1e-05,-2.9999999999999997e-05,-4e-05,-1e-05,-4e-05,0.0,0.0,0.0,1
3316,3431,-1e-05,-2.9999999999999997e-05,-4e-05,-1e-05,-4e-05,0.0,0.0,0.0,1
3317,3432,-1e-05,-2.9999999999999997e-05,-4e-05,-1e-05,-4e-05,0.0,0.0,0.0,1
3318,3433,-1e-05,-2.9999999999999997e-05,-4e-05,-1e-05,-4e-05,0.0,0.0,0.0,1
3319,3434,-1e-05,-2.9999999999999997e-05,-4e-05,-1e-05,-4e-05,0.0,0.0,0.0,1
3320,3435,-1e-05,-2.9999999999999997e-05,-4e-05,-1e-05,-4e-05,0.0,0.0,0.0,1
3321,3437,-2e-05,-1e-05,1e-05,2e-05,-4e-05,-4e-05,0.0,-2e-05,1
3322,3439,-2e-05,-1e-05,1e-05,2e-05,-4e-05,-4e-05,0.0,-2e-05,1
3323,3440,-2e-05,-1e-05,1e-05,2e-05,-4e-05,-4e-05,0.0,-2e-05,1
3324,3441,-2e-05,-1e-05,1e-05,2e-05,-4e-05,-4e-05,0.0,-2e-05,1
3325,3442,-2e-05,-1e-05,1e-05,2e-05,-4e-05,-4e-05,0.0,-2e-05,1
3326,3443,-2e-05,-1e-05,1e-05,2e-05,-4e-05,-4e-05,0.0,-2e-05,1
3327,3444,-2e-05,-1e-05,1e-05,2e-05,-4e-05,-4e-05,0.0,-2e-05,1
3328,3445,-2e-05,-1e-05,1e-05,2e-05,-4e-05,-4e-05,0.0,-2e-05,1
3329,3446,-2e-05,-1e-05,1e-05,2e-05,-4e-05,-4e-05,0.0,-2e-05,1
3330,3447,-2e-05,-1e-05,1e-05,2e-05,-4e-05,-4e-05,0.0,-2e-05,1
3331,3448,-2e-05,-1e-05,1e-05,2e-05,-4e-05,-4e-05,0.0,-2e-05,1
3332,3449,-2e-05,-1e-05,1e-05,2e-05,-4e-05,-4e-05,0.0,-2e-05,1
3333,3450,-2e-05,-1e-05,1e-05,2e-05,-4e-05,-4e-05,0.0,-2e-05,1
3334,3451,-1e-05,-2e-05,4e-05,2.9999999999999997e-05,-8e-05,-5e-05,-2e-05,-2e-05,1
3335,3452,-1e-05,-2e-05,4e-05,2.9999999999999997e-05,-8e-05,-5e-05,-2e-05,-2e-05,1
3336,3453,0.0,-2.9999999999999997e-05,-4e-05,-1e-05,1e-05,0.0,-1e-05,-1e-05,1
3337,3454,0.0,-2.9999999999999997e-05,-4e-05,-1e-05,1e-05,0.0,-1e-05,-1e-05,1
3338,3455,0.0,-2.9999999999999997e-05,-4e-05,-1e-05,1e-05,0.0,-1e-05,-1e-05,1
3339,3456,0.0,-2.9999999999999997e-05,-4e-05,-1e-05,1e-05,0.0,-1e-05,-1e-05,1
3340,3457,0.0,-2.9999999999999997e-05,-4e-05,-1e-05,1e-05,0.0,-1e-05,-1e-05,1
3341,3458,0.0,-2.9999999999999997e-05,-4e-05,-1e-05,1e-05,0.0,-1e-05,-1e-05,1
3342,3459,0.0,-2.9999999999999997e-05,-4e-05,-1e-05,1e-05,0.0,-1e-05,-1e-05,1
3343,3460,0.0,-2.9999999999999997e-05,-4e-05,-1e-05,1e-05,0.0,-1e-05,-1e-05,1
3344,3461,0.0,-2.9999999999999997e-05,-4e-05,-1e-05,1e-05,0.0,-1e-05,-1e-05,1
3345,3462,0.0,-2.9999999999999997e-05,-4e-05,-1e-05,1e-05,0.0,-1e-05,-1e-05,1
3346,3463,0.0,-2.9999999999999997e-05,-4e-05,-1e-05,1e-05,0.0,-1e-05,-1e-05,1
3347,3464,0.0,-2.9999999999999997e-05,-4e-05,-1e-05,1e-05,0.0,-1e-05,-1e-05,1
3348,3465,0.0,-1e-05,-2.9999999999999997e-05,-2.9999999999999997e-05,1e-05,1e-05,2e-05,-1e-05,1
3349,3466,0.0,-1e-05,-2.9999999999999997e-05,-2.9999999999999997e-05,1e-05,1e-05,2e-05,-1e-05,1
3350,3467,0.0,-1e-05,-2.9999999999999997e-05,-2.9999999999999997e-05,1e-05,1e-05,2e-05,-1e-05,1
3351,3468,0.0,-1e-05,-2.9999999999999997e-05,-2.9999999999999997e-05,1e-05,1e-05,2e-05,-1e-05,1
3352,3469,0.0,-1e-05,-2.9999999999999997e-05,-2.9999999999999997e-05,1e-05,1e-05,2e-05,-1e-05,1
3353,3470,0.0,-1e-05,-2.9999999999999997e-05,-2.9999999999999997e-05,1e-05,1e-05,2e-05,-1e-05,1
3354,3471,0.0,-1e-05,-2.9999999999999997e-05,-2.9999999999999997e-05,1e-05,1e-05,2e-05,-1e-05,1
3355,3472,0.0,-1e-05,-2.9999999999999997e-05,-2.9999999999999997e-05,1e-05,1e-05,2e-05,-1e-05,1
3356,3473,0.0,-1e-05,-2.9999999999999997e-05,-2.9999999999999997e-05,1e-05,1e-05,2e-05,-1e-05,1
3357,3474,-4e-05,-4e-05,-2.9999999999999997e-05,-2.9999999999999997e-05,0.00011999999999999999,2.9999999999999997e-05,2e-05,0.0,1
3358,3475,-4e-05,-4e-05,-2.9999999999999997e-05,-2.9999999999999997e-05,0.00011999999999999999,2.9999999999999997e-05,2e-05,0.0,1
3359,3476,-4e-05,-4e-05,-2.9999999999999997e-05,-2.9999999999999997e-05,0.00011999999999999999,2.9999999999999997e-05,2e-05,0.0,1
3360,3477,-4e-05,-4e-05,-2.9999999999999997e-05,-2.9999999999999997e-05,0.00011999999999999999,2.9999999999999997e-05,2e-05,0.0,1
3361,3478,-4e-05,-4e-05,-2.9999999999999997e-05,-2.9999999999999997e-05,0.00011999999999999999,2.9999999999999997e-05,2e-05,0.0,1
3362,3479,-4e-05,-4e-05,-2.9999999999999997e-05,-2.9999999999999997e-05,0.00011999999999999999,2.9999999999999997e-05,2e-05,0.0,1
3363,3480,-4e-05,-4e-05,-2.9999999999999997e-05,-2.9999999999999997e-05,0.00011999999999999999,2.9999999999999997e-05,2e-05,0.0,1
3364,3481,-4e-05,-4e-05,-2.9999999999999997e-05,-2.9999999999999997e-05,0.00011999999999999999,2.9999999999999997e-05,2e-05,0.0,1
3365,3482,-4e-05,-4e-05,-2.9999999999999997e-05,-2.9999999999999997e-05,0.00011999999999999999,2.9999999999999997e-05,2e-05,0.0,1
3366,3484,-4e-05,-4e-05,-2.9999999999999997e-05,-2.9999999999999997e-05,0.00011999999999999999,2.9999999999999997e-05,2e-05,0.0,1
3367,3485,-4e-05,-4e-05,-2.9999999999999997e-05,-2.9999999999999997e-05,0.00011999999999999999,2.9999999999999997e-05,2e-05,0.0,1
3368,3486,-4e-05,-4e-05,-2.9999999999999997e-05,-2.9999999999999997e-05,0.00011999999999999999,2.9999999999999997e-05,2e-05,0.0,1
3369,3489,-1e-05,1e-05,-1e-05,-2.9999999999999997e-05,0.0,2e-05,-1e-05,-1e-05,1
3370,3490,-1e-05,1e-05,-1e-05,-2.9999999999999997e-05,0.0,2e-05,-1e-05,-1e-05,1
3371,3491,-1e-05,1e-05,-1e-05,-2.9999999999999997e-05,0.0,2e-05,-1e-05,-1e-05,1
3372,3492,-1e-05,1e-05,-1e-05,-2.9999999999999997e-05,0.0,2e-05,-1e-05,-1e-05,1
3373,3493,-1e-05,1e-05,-1e-05,-2.9999999999999997e-05,0.0,2e-05,-1e-05,-1e-05,1
3374,3494,-1e-05,1e-05,-1e-05,-2.9999999999999997e-05,0.0,2e-05,-1e-05,-1e-05,1
3375,3495,-1e-05,1e-05,-1e-05,-2.9999999999999997e-05,0.0,2e-05,-1e-05,-1e-05,1
3376,3496,-1e-05,-2e-05,-2e-05,0.0,-1e-05,-2e-05,-2.9999999999999997e-05,-2.9999999999999997e-05,1
3377,3497,0.0,1e-05,-2.9999999999999997e-05,-2e-05,-2e-05,0.0,-1e-05,1e-05,1
3378,3498,0.0,1e-05,-2.9999999999999997e-05,-2e-05,-2e-05,0.0,-1e-05,1e-05,1
3379,3499,0.0,1e-05,-2.9999999999999997e-05,-2e-05,-2e-05,0.0,-1e-05,1e-05,1
3380,3500,0.0,1e-05,-2.9999999999999997e-05,-2e-05,-2e-05,0.0,-1e-05,1e-05,1
3381,3501,0.0,1e-05,-2.9999999999999997e-05,-2e-05,-2e-05,0.0,-1e-05,1e-05,1
3382,3502,0.0,1e-05,-2.9999999999999997e-05,-2e-05,-2e-05,0.0,-1e-05,1e-05,1
3383,3503,0.0,1e-05,-2.9999999999999997e-05,-2e-05,-2e-05,0.0,-1e-05,1e-05,1
3384,3504,0.0,1e-05,-2.9999999999999997e-05,-2e-05,-2e-05,0.0,-1e-05,1e-05,1
3385,3505,0.0,1e-05,-2.9999999999999997e-05,-2e-05,-2e-05,0.0,-1e-05,1e-05,1
3386,3506,0.0,1e-05,-2.9999999999999997e-05,-2e-05,-2e-05,0.0,-1e-05,1e-05,1
3387,3507,0.0,1e-05,-2.9999999999999997e-05,-2e-05,-2e-05,0.0,-1e-05,1e-05,1
3388,3508,0.0,1e-05,-2.9999999999999997e-05,-2e-05,-2e-05,0.0,-1e-05,1e-05,1
3389,3509,0.0,1e-05,-2.9999999999999997e-05,-2e-05,-2e-05,0.0,-1e-05,1e-05,1
3390,3510,0.0,1e-05,-2.9999999999999997e-05,-2e-05,-2e-05,0.0,-1e-05,1e-05,1
3391,3511,0.0,1e-05,-2.9999999999999997e-05,-2e-05,-2e-05,0.0,-1e-05,1e-05,1
3392,3512,0.0,0.0,2.9999999999999997e-05,2e-05,2e-05,-4e-05,0.0,0.0,1
3393,3513,0.0,0.0,-2e-05,-2.9999999999999997e-05,-5e-05,-2e-05,-1e-05,0.0,1
3394,3514,0.0,0.0,-2e-05,-2.9999999999999997e-05,-5e-05,-2e-05,-1e-05,0.0,1
3395,3515,0.0,0.0,-2e-05,-2.9999999999999997e-05,-5e-05,-2e-05,-1e-05,0.0,1
3396,3516,0.0,0.0,-2e-05,-2.9999999999999997e-05,-5e-05,-2e-05,-1e-05,0.0,1
3397,3517,0.0,0.0,-2e-05,-2.9999999999999997e-05,-5e-05,-2e-05,-1e-05,0.0,1
3398,3518,0.0,0.0,-2e-05,-2.9999999999999997e-05,-5e-05,-2e-05,-1e-05,0.0,1
3399,3519,0.0,0.0,-2e-05,-2.9999999999999997e-05,-5e-05,-2e-05,-1e-05,0.0,1
3400,3520,0.0,0.0,-2e-05,-2.9999999999999997e-05,-5e-05,-2e-05,-1e-05,0.0,1
3401,3521,0.0,0.0,-2e-05,-2.9999999999999997e-05,-5e-05,-2e-05,-1e-05,0.0,1
3402,3522,0.0,0.0,-2e-05,-2.9999999999999997e-05,-5e-05,-2e-05,-1e-05,0.0,1
3403,3523,0.0,0.0,-2e-05,-2.9999999999999997e-05,-5e-05,-2e-05,-1e-05,0.0,1
3404,3524,0.0,0.0,-2e-05,-2.9999999999999997e-05,-5e-05,-2e-05,-1e-05,0.0,1
3405,3525,-2e-05,-5.9999999999999995e-05,-5.9999999999999995e-05,0.0,5e-05,2.9999999999999997e-05,-2e-05,-2.9999999999999997e-05,1
3406,3526,-2e-05,-5.9999999999999995e-05,-5.9999999999999995e-05,0.0,5e-05,2.9999999999999997e-05,-2e-05,-2.9999999999999997e-05,1
3407,3527,-2e-05,-5.9999999999999995e-05,-5.9999999999999995e-05,0.0,5e-05,2.9999999999999997e-05,-2e-05,-2.9999999999999997e-05,1
3408,3528,-2e-05,-5.9999999999999995e-05,-5.9999999999999995e-05,0.0,5e-05,2.9999999999999997e-05,-2e-05,-2.9999999999999997e-05,1
3409,3529,-2e-05,-5.9999999999999995e-05,-5.9999999999999995e-05,0.0,5e-05,2.9999999999999997e-05,-2e-05,-2.9999999999999997e-05,1
3410,3530,-2e-05,-5.9999999999999995e-05,-5.9999999999999995e-05,0.0,5e-05,2.9999999999999997e-05,-2e-05,-2.9999999999999997e-05,1
3411,3531,-2e-05,-5.9999999999999995e-05,-5.9999999999999995e-05,0.0,5e-05,2.9999999999999997e-05,-2e-05,-2.9999999999999997e-05,1
3412,3532,-2e-05,-5.9999999999999995e-05,-5.9999999999999995e-05,0.0,5e-05,2.9999999999999997e-05,-2e-05,-2.9999999999999997e-05,1
3413,3533,-2e-05,-5.9999999999999995e-05,-5.9999999999999995e-05,0.0,5e-05,2.9999999999999997e-05,-2e-05,-2.9999999999999997e-05,1
3414,3534,0.0,-1e-05,-2e-05,2.9999999999999997e-05,-2e-05,-2e-05,-2e-05,-2.9999999999999997e-05,1
3415,3535,0.0,-1e-05,-2e-05,2.9999999999999997e-05,-2e-05,-2e-05,-2e-05,-2.9999999999999997e-05,1
3416,3536,0.0,-1e-05,-2e-05,2.9999999999999997e-05,-2e-05,-2e-05,-2e-05,-2.9999999999999997e-05,1
3417,3538,0.0,-1e-05,-2e-05,2.9999999999999997e-05,-2e-05,-2e-05,-2e-05,-2.9999999999999997e-05,1
3418,3539,0.0,-1e-05,-2e-05,2.9999999999999997e-05,-2e-05,-2e-05,-2e-05,-2.9999999999999997e-05,1
3419,3540,0.0,-1e-05,-2e-05,2.9999999999999997e-05,-2e-05,-2e-05,-2e-05,-2.9999999999999997e-05,1
3420,3541,0.0,-1e-05,-2e-05,2.9999999999999997e-05,-2e-05,-2e-05,-2e-05,-2.9999999999999997e-05,1
3421,3542,0.0,-1e-05,-2e-05,2.9999999999999997e-05,-2e-05,-2e-05,-2e-05,-2.9999999999999997e-05,1
3422,3543,0.0,-1e-05,-2e-05,2.9999999999999997e-05,-2e-05,-2e-05,-2e-05,-2.9999999999999997e-05,1
3423,3544,0.0,-1e-05,-2e-05,2.9999999999999997e-05,-2e-05,-2e-05,-2e-05,-2.9999999999999997e-05,1
3424,3545,0.0,-1e-05,-2e-05,2.9999999999999997e-05,-2e-05,-2e-05,-2e-05,-2.9999999999999997e-05,1
3425,3546,0.0,-1e-05,-2e-05,2.9999999999999997e-05,-2e-05,-2e-05,-2e-05,-2.9999999999999997e-05,1
3426,3547,0.0,-1e-05,-2e-05,2.9999999999999997e-05,-2e-05,-2e-05,-2e-05,-2.9999999999999997e-05,1
3427,3548,-1e-05,0.0,0.0,1e-05,-2e-05,-1e-05,-1e-05,0.0,1
3428,3549,-1e-05,0.0,0.0,1e-05,-2e-05,-1e-05,-1e-05,0.0,1
3429,3550,-1e-05,0.0,0.0,1e-05,-2e-05,-1e-05,-1e-05,0.0,1
3430,3551,-1e-05,0.0,0.0,1e-05,-2e-05,-1e-05,-1e-05,0.0,1
3431,3552,-1e-05,0.0,0.0,1e-05,-2e-05,-1e-05,-1e-05,0.0,1
3432,3553,-1e-05,0.0,0.0,1e-05,-2e-05,-1e-05,-1e-05,0.0,1
3433,3554,-1e-05,0.0,0.0,1e-05,-2e-05,-1e-05,-1e-05,0.0,1
3434,3555,-1e-05,0.0,0.0,1e-05,-2e-05,-1e-05,-1e-05,0.0,1
3435,3556,-1e-05,0.0,0.0,1e-05,-2e-05,-1e-05,-1e-05,0.0,1
3436,3557,1e-05,1e-05,0.0,1e-05,-1e-05,0.0,-1e-05,0.0,1
3437,3558,1e-05,1e-05,0.0,1e-05,-1e-05,0.0,-1e-05,0.0,1
3438,3559,1e-05,1e-05,0.0,1e-05,-1e-05,0.0,-1e-05,0.0,1
3439,3560,1e-05,1e-05,0.0,1e-05,-1e-05,0.0,-1e-05,0.0,1
3440,3561,1e-05,1e-05,0.0,1e-05,-1e-05,0.0,-1e-05,0.0,1
3441,3562,1e-05,1e-05,0.0,1e-05,-1e-05,0.0,-1e-05,0.0,1
3442,3563,1e-05,1e-05,0.0,1e-05,-1e-05,0.0,-1e-05,0.0,1
3443,3564,1e-05,1e-05,0.0,1e-05,-1e-05,0.0,-1e-05,0.0,1
3444,3565,1e-05,1e-05,0.0,1e-05,-1e-05,0.0,-1e-05,0.0,1
3445,3566,1e-05,1e-05,0.0,1e-05,-1e-05,0.0,-1e-05,0.0,1
3446,3567,1e-05,1e-05,0.0,1e-05,-1e-05,0.0,-1e-05,0.0,1
3447,3568,1e-05,1e-05,0.0,1e-05,-1e-05,0.0,-1e-05,0.0,1
3448,3569,1e-05,1e-05,0.0,1e-05,-1e-05,0.0,-1e-05,0.0,1
3449,3570,1e-05,1e-05,0.0,1e-05,-1e-05,0.0,-1e-05,0.0,1
3450,3571,-2.9999999999999997e-05,-2.9999999999999997e-05,-2.9999999999999997e-05,-2.9999999999999997e-05,-1e-05,-2.9999999999999997e-05,-2e-05,-1e-05,1
3451,3572,-2.9999999999999997e-05,-2.9999999999999997e-05,-2.9999999999999997e-05,-2.9999999999999997e-05,-1e-05,-2.9999999999999997e-05,-2e-05,-1e-05,1
3452,3573,-1e-05,1e-05,-5e-05,-2.9999999999999997e-05,1e-05,2e-05,-2.9999999999999997e-05,-1e-05,1
3453,3574,-1e-05,1e-05,-5e-05,-2.9999999999999997e-05,1e-05,2e-05,-2.9999999999999997e-05,-1e-05,1
3454,3575,-1e-05,1e-05,-5e-05,-2.9999999999999997e-05,1e-05,2e-05,-2.9999999999999997e-05,-1e-05,1
3455,3576,-1e-05,1e-05,-5e-05,-2.9999999999999997e-05,1e-05,2e-05,-2.9999999999999997e-05,-1e-05,1
3456,3577,-1e-05,1e-05,-5e-05,-2.9999999999999997e-05,1e-05,2e-05,-2.9999999999999997e-05,-1e-05,1
3457,3578,-1e-05,1e-05,-5e-05,-2.9999999999999997e-05,1e-05,2e-05,-2.9999999999999997e-05,-1e-05,1
3458,3579,-1e-05,1e-05,-5e-05,-2.9999999999999997e-05,1e-05,2e-05,-2.9999999999999997e-05,-1e-05,1
3459,3580,-1e-05,1e-05,-5e-05,-2.9999999999999997e-05,1e-05,2e-05,-2.9999999999999997e-05,-1e-05,1
3460,3581,-1e-05,1e-05,-5e-05,-2.9999999999999997e-05,1e-05,2e-05,-2.9999999999999997e-05,-1e-05,1
3461,3582,-1e-05,1e-05,-5e-05,-2.9999999999999997e-05,1e-05,2e-05,-2.9999999999999997e-05,-1e-05,1
3462,3583,-1e-05,1e-05,-5e-05,-2.9999999999999997e-05,1e-05,2e-05,-2.9999999999999997e-05,-1e-05,1
3463,3584,-1e-05,1e-05,-5e-05,-2.9999999999999997e-05,1e-05,2e-05,-2.9999999999999997e-05,-1e-05,1
3464,3585,0.0,-4e-05,-1e-05,-1e-05,1e-05,0.0,0.0,-2e-05,1
3465,3586,0.0,-4e-05,-1e-05,-1e-05,1e-05,0.0,0.0,-2e-05,1
3466,3588,0.0,-4e-05,-1e-05,-1e-05,1e-05,0.0,0.0,-2e-05,1
3467,3589,0.0,-4e-05,-1e-05,-1e-05,1e-05,0.0,0.0,-2e-05,1
3468,3590,0.0,-4e-05,-1e-05,-1e-05,1e-05,0.0,0.0,-2e-05,1
3469,3591,0.0,-4e-05,-1e-05,-1e-05,1e-05,0.0,0.0,-2e-05,1
3470,3592,0.0,-4e-05,-1e-05,-1e-05,1e-05,0.0,0.0,-2e-05,1
3471,3593,-1e-05,-1e-05,2.9999999999999997e-05,4e-05,0.0,-2e-05,1e-05,0.0,1
3472,3594,1e-05,1e-05,0.0,-2e-05,2e-05,-1e-05,1e-05,-2e-05,1
3473,3595,1e-05,1e-05,0.0,-2e-05,2e-05,-1e-05,1e-05,-2e-05,1
3474,3596,1e-05,1e-05,0.0,-2e-05,2e-05,-1e-05,1e-05,-2e-05,1
3475,3597,1e-05,1e-05,0.0,-2e-05,2e-05,-1e-05,1e-05,-2e-05,1
3476,3598,1e-05,1e-05,0.0,-2e-05,2e-05,-1e-05,1e-05,-2e-05,1
3477,3599,1e-05,1e-05,0.0,-2e-05,2e-05,-1e-05,1e-05,-2e-05,1
3478,3600,1e-05,1e-05,0.0,-2e-05,2e-05,-1e-05,1e-05,-2e-05,1
3479,3601,1e-05,1e-05,0.0,-2e-05,2e-05,-1e-05,1e-05,-2e-05,1
3480,3602,1e-05,1e-05,0.0,-2e-05,2e-05,-1e-05,1e-05,-2e-05,1
3481,3603,1e-05,1e-05,0.0,-2e-05,2e-05,-1e-05,1e-05,-2e-05,1
3482,3604,1e-05,1e-05,0.0,-2e-05,2e-05,-1e-05,1e-05,-2e-05,1
3483,3605,1e-05,1e-05,0.0,-2e-05,2e-05,-1e-05,1e-05,-2e-05,1
3484,3606,1e-05,1e-05,0.0,-2e-05,2e-05,-1e-05,1e-05,-2e-05,1
3485,3607,1e-05,1e-05,0.0,-2e-05,2e-05,-1e-05,1e-05,-2e-05,1
3486,3608,0.0,0.0,-1e-05,0.0,1e-05,1e-05,0.0,-2e-05,1
3487,3609,0.0,0.0,-1e-05,0.0,1e-05,1e-05,0.0,-2e-05,1
3488,3610,0.0,0.0,-1e-05,0.0,1e-05,1e-05,0.0,-2e-05,1
3489,3611,0.0,0.0,-1e-05,0.0,1e-05,1e-05,0.0,-2e-05,1
3490,3612,0.0,0.0,-1e-05,0.0,1e-05,1e-05,0.0,-2e-05,1
3491,3613,0.0,0.0,-1e-05,0.0,1e-05,1e-05,0.0,-2e-05,1
3492,3614,0.0,0.0,-1e-05,0.0,1e-05,1e-05,0.0,-2e-05,1
3493,3615,0.0,0.0,-1e-05,0.0,1e-05,1e-05,0.0,-2e-05,1
3494,3616,0.0,0.0,-1e-05,0.0,1e-05,1e-05,0.0,-2e-05,1
3495,3617,-1e-05,-2.9999999999999997e-05,-1e-05,-1e-05,-4e-05,-1e-05,-4e-05,-1e-05,1
3496,3618,-1e-05,-2.9999999999999997e-05,-1e-05,-1e-05,-4e-05,-1e-05,-4e-05,-1e-05,1
3497,3619,-1e-05,-2.9999999999999997e-05,-1e-05,-1e-05,-4e-05,-1e-05,-4e-05,-1e-05,1
3498,3620,-1e-05,-2.9999999999999997e-05,-1e-05,-1e-05,-4e-05,-1e-05,-4e-05,-1e-05,1
3499,3621,-1e-05,-2.9999999999999997e-05,-1e-05,-1e-05,-4e-05,-1e-05,-4e-05,-1e-05,1
3500,3622,-1e-05,-2.9999999999999997e-05,-1e-05,-1e-05,-4e-05,-1e-05,-4e-05,-1e-05,1
3501,3623,-1e-05,-2.9999999999999997e-05,-1e-05,-1e-05,-4e-05,-1e-05,-4e-05,-1e-05,1
3502,3624,-1e-05,-2.9999999999999997e-05,-1e-05,-1e-05,-4e-05,-1e-05,-4e-05,-1e-05,1
3503,3625,-1e-05,-2.9999999999999997e-05,-1e-05,-1e-05,-4e-05,-1e-05,-4e-05,-1e-05,1
3504,3626,-1e-05,-2.9999999999999997e-05,-1e-05,-1e-05,-4e-05,-1e-05,-4e-05,-1e-05,1
3505,3627,-1e-05,-2.9999999999999997e-05,-1e-05,-1e-05,-4e-05,-1e-05,-4e-05,-1e-05,1
3506,3628,-1e-05,-2.9999999999999997e-05,-1e-05,-1e-05,-4e-05,-1e-05,-4e-05,-1e-05,1
3507,3629,-1e-05,-2.9999999999999997e-05,-1e-05,-1e-05,-4e-05,-1e-05,-4e-05,-1e-05,1
3508,3630,-1e-05,-2.9999999999999997e-05,-1e-05,-1e-05,-4e-05,-1e-05,-4e-05,-1e-05,1
3509,3631,-1e-05,-2.9999999999999997e-05,-1e-05,-1e-05,-4e-05,-1e-05,-4e-05,-1e-05,1
3510,3632,-1e-05,-2.9999999999999997e-05,-1e-05,-1e-05,-4e-05,-1e-05,-4e-05,-1e-05,1
3511,3633,-1e-05,-2.9999999999999997e-05,-1e-05,-1e-05,-4e-05,-1e-05,-4e-05,-1e-05,1
3512,3634,-1e-05,-2.9999999999999997e-05,-1e-05,-1e-05,-4e-05,-1e-05,-4e-05,-1e-05,1
3513,3635,-1e-05,-2.9999999999999997e-05,-1e-05,-1e-05,-4e-05,-1e-05,-4e-05,-1e-05,1
3514,3636,-1e-05,-2.9999999999999997e-05,-1e-05,-1e-05,-4e-05,-1e-05,-4e-05,-1e-05,1
3515,3638,-1e-05,-2.9999999999999997e-05,-1e-05,-1e-05,-4e-05,-1e-05,-4e-05,-1e-05,1
3516,3639,0.0,0.0,-1e-05,1e-05,-2e-05,-2e-05,-1e-05,-1e-05,1
3517,3640,0.0,0.0,-1e-05,1e-05,-2e-05,-2e-05,-1e-05,-1e-05,1
3518,3641,0.0,0.0,-1e-05,1e-05,-2e-05,-2e-05,-1e-05,-1e-05,1
3519,3642,0.0,0.0,-1e-05,1e-05,-2e-05,-2e-05,-1e-05,-1e-05,1
3520,3643,0.0,0.0,-1e-05,1e-05,-2e-05,-2e-05,-1e-05,-1e-05,1
3521,3644,0.0,0.0,-1e-05,1e-05,-2e-05,-2e-05,-1e-05,-1e-05,1
3522,3645,0.0,0.0,-1e-05,1e-05,-2e-05,-2e-05,-1e-05,-1e-05,1
3523,3646,-2e-05,-2e-05,-1e-05,-2.9999999999999997e-05,-1e-05,0.0,0.0,2e-05,1
3524,3647,-2e-05,-2e-05,-1e-05,-2.9999999999999997e-05,-1e-05,0.0,0.0,2e-05,1
3525,3648,-2e-05,-2e-05,-1e-05,-2.9999999999999997e-05,-1e-05,0.0,0.0,2e-05,1
3526,3649,-2e-05,-2e-05,-1e-05,-2.9999999999999997e-05,-1e-05,0.0,0.0,2e-05,1
3527,3650,-2e-05,-2e-05,-1e-05,-2.9999999999999997e-05,-1e-05,0.0,0.0,2e-05,1
3528,3651,-2e-05,-2e-05,-1e-05,-2.9999999999999997e-05,-1e-05,0.0,0.0,2e-05,1
3529,3652,-2e-05,-2e-05,-1e-05,-2.9999999999999997e-05,-1e-05,0.0,0.0,2e-05,1
3530,3653,-2e-05,-2e-05,-1e-05,-2.9999999999999997e-05,-1e-05,0.0,0.0,2e-05,1
3531,3654,-2e-05,-2e-05,-1e-05,-2.9999999999999997e-05,-1e-05,0.0,0.0,2e-05,1
3532,3655,-2e-05,-2e-05,-1e-05,-2.9999999999999997e-05,-1e-05,0.0,0.0,2e-05,1
3533,3656,-2e-05,-2e-05,-1e-05,-2.9999999999999997e-05,-1e-05,0.0,0.0,2e-05,1
3534,3657,-2e-05,-2e-05,-1e-05,-2.9999999999999997e-05,-1e-05,0.0,0.0,2e-05,1
3535,3658,-2e-05,-2e-05,-1e-05,-2.9999999999999997e-05,-1e-05,0.0,0.0,2e-05,1
3536,3659,-2e-05,-2e-05,-1e-05,-2.9999999999999997e-05,-1e-05,0.0,0.0,2e-05,1
3537,3660,-2e-05,-2e-05,-1e-05,-2.9999999999999997e-05,-1e-05,0.0,0.0,2e-05,1
3538,3661,-2e-05,-2e-05,-1e-05,-2.9999999999999997e-05,-1e-05,0.0,0.0,2e-05,1
3539,3662,-1e-05,-5e-05,0.0,1e-05,1e-05,-1e-05,-2.9999999999999997e-05,-2.9999999999999997e-05,1
3540,3663,-1e-05,-5e-05,0.0,1e-05,1e-05,-1e-05,-2.9999999999999997e-05,-2.9999999999999997e-05,1
3541,3664,-1e-05,-5e-05,0.0,1e-05,1e-05,-1e-05,-2.9999999999999997e-05,-2.9999999999999997e-05,1
3542,3665,-1e-05,-5e-05,0.0,1e-05,1e-05,-1e-05,-2.9999999999999997e-05,-2.9999999999999997e-05,1
3543,3666,-1e-05,-5e-05,0.0,1e-05,1e-05,-1e-05,-2.9999999999999997e-05,-2.9999999999999997e-05,1
3544,3667,-1e-05,-5e-05,0.0,1e-05,1e-05,-1e-05,-2.9999999999999997e-05,-2.9999999999999997e-05,1
3545,3668,-1e-05,1e-05,-2e-05,-2e-05,-2e-05,-4e-05,-2e-05,-2e-05,1
3546,3669,-1e-05,1e-05,-2e-05,-2e-05,-2e-05,-4e-05,-2e-05,-2e-05,1
3547,3670,-1e-05,1e-05,-2e-05,-2e-05,-2e-05,-4e-05,-2e-05,-2e-05,1
3548,3671,-1e-05,1e-05,-2e-05,-2e-05,-2e-05,-4e-05,-2e-05,-2e-05,1
3549,3672,-1e-05,1e-05,-2e-05,-2e-05,-2e-05,-4e-05,-2e-05,-2e-05,1
3550,3673,-1e-05,1e-05,-2e-05,-2e-05,-2e-05,-4e-05,-2e-05,-2e-05,1
3551,3674,-1e-05,1e-05,-2e-05,-2e-05,-2e-05,-4e-05,-2e-05,-2e-05,1
3552,3675,-1e-05,1e-05,-2e-05,-2e-05,-2e-05,-4e-05,-2e-05,-2e-05,1
3553,3676,-1e-05,1e-05,-2e-05,-2e-05,-2e-05,-4e-05,-2e-05,-2e-05,1
3554,3677,-1e-05,1e-05,-2e-05,-2e-05,-2e-05,-4e-05,-2e-05,-2e-05,1
3555,3678,-1e-05,1e-05,-2e-05,-2e-05,-2e-05,-4e-05,-2e-05,-2e-05,1
3556,3679,-1e-05,1e-05,-2e-05,-2e-05,-2e-05,-4e-05,-2e-05,-2e-05,1
3557,3680,-1e-05,1e-05,-2e-05,-2e-05,-2e-05,-4e-05,-2e-05,-2e-05,1
3558,3681,-1e-05,1e-05,-2e-05,-2e-05,-2e-05,-4e-05,-2e-05,-2e-05,1
3559,3682,-1e-05,1e-05,-2e-05,-2e-05,-2e-05,-4e-05,-2e-05,-2e-05,1
3560,3683,-1e-05,1e-05,-2e-05,-2e-05,-2e-05,-4e-05,-2e-05,-2e-05,1
3561,3684,0.0,0.0,2e-05,-1e-05,-2e-05,-2e-05,-2e-05,1e-05,1
3562,3685,0.0,0.0,2e-05,-1e-05,-2e-05,-2e-05,-2e-05,1e-05,1
3563,3686,0.0,0.0,2e-05,-1e-05,-2e-05,-2e-05,-2e-05,1e-05,1
3564,3688,0.0,0.0,2e-05,-1e-05,-2e-05,-2e-05,-2e-05,1e-05,1
3565,3689,0.0,0.0,2e-05,-1e-05,-2e-05,-2e-05,-2e-05,1e-05,1
3566,3690,0.0,0.0,2e-05,-1e-05,-2e-05,-2e-05,-2e-05,1e-05,1
3567,3691,0.0,-1e-05,-2e-05,-2.9999999999999997e-05,-1e-05,0.0,2.9999999999999997e-05,0.0,1
3568,3692,0.0,-1e-05,-2e-05,-2.9999999999999997e-05,-1e-05,0.0,2.9999999999999997e-05,0.0,1
3569,3693,0.0,-4e-05,-2.9999999999999997e-05,0.0,-2.9999999999999997e-05,-2.9999999999999997e-05,0.0,0.0,1
3570,3694,0.0,-4e-05,-2.9999999999999997e-05,0.0,-2.9999999999999997e-05,-2.9999999999999997e-05,0.0,0.0,1
3571,3695,0.0,-4e-05,-2.9999999999999997e-05,0.0,-2.9999999999999997e-05,-2.9999999999999997e-05,0.0,0.0,1
3572,3696,0.0,-4e-05,-2.9999999999999997e-05,0.0,-2.9999999999999997e-05,-2.9999999999999997e-05,0.0,0.0,1
3573,3697,0.0,-4e-05,-2.9999999999999997e-05,0.0,-2.9999999999999997e-05,-2.9999999999999997e-05,0.0,0.0,1
3574,3698,0.0,-4e-05,-2.9999999999999997e-05,0.0,-2.9999999999999997e-05,-2.9999999999999997e-05,0.0,0.0,1
3575,3699,0.0,-4e-05,-2.9999999999999997e-05,0.0,-2.9999999999999997e-05,-2.9999999999999997e-05,0.0,0.0,1
3576,3700,0.0,-4e-05,-2.9999999999999997e-05,0.0,-2.9999999999999997e-05,-2.9999999999999997e-05,0.0,0.0,1
3577,3701,0.0,-4e-05,-2.9999999999999997e-05,0.0,-2.9999999999999997e-05,-2.9999999999999997e-05,0.0,0.0,1
3578,3702,0.0,-4e-05,-2.9999999999999997e-05,0.0,-2.9999999999999997e-05,-2.9999999999999997e-05,0.0,0.0,1
3579,3703,0.0,-4e-05,-2.9999999999999997e-05,0.0,-2.9999999999999997e-05,-2.9999999999999997e-05,0.0,0.0,1
3580,3704,0.0,-4e-05,-2.9999999999999997e-05,0.0,-2.9999999999999997e-05,-2.9999999999999997e-05,0.0,0.0,1
3581,3705,0.0,-1e-05,5e-05,5.9999999999999995e-05,9e-05,1e-05,-1e-05,-2e-05,1
3582,3706,1e-05,1e-05,-4e-05,-1e-05,-0.0001,-4e-05,-2.9999999999999997e-05,-1e-05,1
3583,3707,1e-05,1e-05,-4e-05,-1e-05,-0.0001,-4e-05,-2.9999999999999997e-05,-1e-05,1
3584,3708,1e-05,1e-05,-4e-05,-1e-05,-0.0001,-4e-05,-2.9999999999999997e-05,-1e-05,1
3585,3709,1e-05,1e-05,-4e-05,-1e-05,-0.0001,-4e-05,-2.9999999999999997e-05,-1e-05,1
3586,3710,1e-05,1e-05,-4e-05,-1e-05,-0.0001,-4e-05,-2.9999999999999997e-05,-1e-05,1
3587,3711,1e-05,1e-05,-4e-05,-1e-05,-0.0001,-4e-05,-2.9999999999999997e-05,-1e-05,1
3588,3712,1e-05,1e-05,-4e-05,-1e-05,-0.0001,-4e-05,-2.9999999999999997e-05,-1e-05,1
3589,3713,1e-05,1e-05,-4e-05,-1e-05,-0.0001,-4e-05,-2.9999999999999997e-05,-1e-05,1
3590,3714,-2.9999999999999997e-05,-2e-05,-2e-05,-2.9999999999999997e-05,0.0,-1e-05,0.0,-1e-05,1
3591,3715,-2.9999999999999997e-05,-2e-05,-2e-05,-2.9999999999999997e-05,0.0,-1e-05,0.0,-1e-05,1
3592,3716,-2.9999999999999997e-05,-2e-05,-2e-05,-2.9999999999999997e-05,0.0,-1e-05,0.0,-1e-05,1
3593,3717,-2.9999999999999997e-05,-2e-05,-2e-05,-2.9999999999999997e-05,0.0,-1e-05,0.0,-1e-05,1
3594,3718,-2.9999999999999997e-05,-2e-05,-2e-05,-2.9999999999999997e-05,0.0,-1e-05,0.0,-1e-05,1
3595,3719,-2.9999999999999997e-05,-2e-05,-2e-05,-2.9999999999999997e-05,0.0,-1e-05,0.0,-1e-05,1
3596,3720,-2.9999999999999997e-05,-2e-05,-2e-05,-2.9999999999999997e-05,0.0,-1e-05,0.0,-1e-05,1
3597,3721,-2.9999999999999997e-05,-2e-05,-2e-05,-2.9999999999999997e-05,0.0,-1e-05,0.0,-1e-05,1
3598,3722,-2.9999999999999997e-05,-2e-05,-2e-05,-2.9999999999999997e-05,0.0,-1e-05,0.0,-1e-05,1
3599,3723,-2.9999999999999997e-05,-2e-05,-2e-05,-2.9999999999999997e-05,0.0,-1e-05,0.0,-1e-05,1
3600,3724,-2.9999999999999997e-05,-2e-05,-2e-05,-2.9999999999999997e-05,0.0,-1e-05,0.0,-1e-05,1
3601,3725,-2.9999999999999997e-05,-2e-05,-2e-05,-2.9999999999999997e-05,0.0,-1e-05,0.0,-1e-05,1
3602,3726,-2.9999999999999997e-05,-2e-05,-2e-05,-2.9999999999999997e-05,0.0,-1e-05,0.0,-1e-05,1
3603,3727,-2.9999999999999997e-05,-2e-05,-2e-05,-2.9999999999999997e-05,0.0,-1e-05,0.0,-1e-05,1
3604,3728,-2e-05,-2.9999999999999997e-05,-1e-05,-1e-05,0.0,1e-05,0.0,-1e-05,1
3605,3729,-2e-05,-2.9999999999999997e-05,-1e-05,-1e-05,0.0,1e-05,0.0,-1e-05,1
3606,3730,-2e-05,-2.9999999999999997e-05,-1e-05,-1e-05,0.0,1e-05,0.0,-1e-05,1
3607,3731,-2e-05,-2.9999999999999997e-05,-1e-05,-1e-05,0.0,1e-05,0.0,-1e-05,1
3608,3732,-2e-05,-2.9999999999999997e-05,-1e-05,-1e-05,0.0,1e-05,0.0,-1e-05,1
3609,3733,-2e-05,-2.9999999999999997e-05,-1e-05,-1e-05,0.0,1e-05,0.0,-1e-05,1
3610,3734,-2e-05,-2.9999999999999997e-05,-1e-05,-1e-05,0.0,1e-05,0.0,-1e-05,1
3611,3735,-2e-05,-2.9999999999999997e-05,-1e-05,-1e-05,0.0,1e-05,0.0,-1e-05,1
3612,3736,1e-05,2e-05,4e-05,2.9999999999999997e-05,2.9999999999999997e-05,0.0,-2.9999999999999997e-05,1e-05,1
3613,3738,-2e-05,0.0,-1e-05,0.0,-7e-05,-2e-05,-2e-05,0.0,1
3614,3739,-2e-05,0.0,-1e-05,0.0,-7e-05,-2e-05,-2e-05,0.0,1
3615,3740,-2e-05,0.0,-1e-05,0.0,-7e-05,-2e-05,-2e-05,0.0,1
3616,3741,-2e-05,0.0,-1e-05,0.0,-7e-05,-2e-05,-2e-05,0.0,1
3617,3742,-2e-05,0.0,-1e-05,0.0,-7e-05,-2e-05,-2e-05,0.0,1
3618,3743,-2e-05,0.0,-1e-05,0.0,-7e-05,-2e-05,-2e-05,0.0,1
3619,3744,-2e-05,0.0,-1e-05,0.0,-7e-05,-2e-05,-2e-05,0.0,1
3620,3746,-2e-05,0.0,-1e-05,0.0,-7e-05,-2e-05,-2e-05,0.0,1
3621,3747,-2e-05,0.0,-1e-05,0.0,-7e-05,-2e-05,-2e-05,0.0,1
3622,3748,-2e-05,0.0,-1e-05,0.0,-7e-05,-2e-05,-2e-05,0.0,1
3623,3749,-2e-05,0.0,-1e-05,0.0,-7e-05,-2e-05,-2e-05,0.0,1
3624,3750,-2e-05,0.0,-1e-05,0.0,-7e-05,-2e-05,-2e-05,0.0,1
3625,3751,-2e-05,-2e-05,1e-05,-2e-05,1e-05,0.0,-4e-05,-1e-05,1
3626,3752,-2e-05,-2e-05,1e-05,-2e-05,1e-05,0.0,-4e-05,-1e-05,1
3627,3753,-2e-05,-2e-05,1e-05,-2e-05,1e-05,0.0,-4e-05,-1e-05,1
3628,3754,-2e-05,-2e-05,1e-05,-2e-05,1e-05,0.0,-4e-05,-1e-05,1
3629,3755,-2e-05,-2e-05,1e-05,-2e-05,1e-05,0.0,-4e-05,-1e-05,1
3630,3756,-2e-05,-2e-05,1e-05,-2e-05,1e-05,0.0,-4e-05,-1e-05,1
3631,3757,-2e-05,-2e-05,1e-05,-2e-05,1e-05,0.0,-4e-05,-1e-05,1
3632,3758,-2e-05,2.9999999999999997e-05,0.0,0.0,1e-05,-2e-05,1e-05,-2e-05,1
3633,3759,-2e-05,2.9999999999999997e-05,0.0,0.0,1e-05,-2e-05,1e-05,-2e-05,1
3634,3760,-2e-05,2.9999999999999997e-05,0.0,0.0,1e-05,-2e-05,1e-05,-2e-05,1
3635,3761,-2e-05,2.9999999999999997e-05,0.0,0.0,1e-05,-2e-05,1e-05,-2e-05,1
3636,3762,-2e-05,2.9999999999999997e-05,0.0,0.0,1e-05,-2e-05,1e-05,-2e-05,1
3637,3763,-2e-05,2.9999999999999997e-05,0.0,0.0,1e-05,-2e-05,1e-05,-2e-05,1
3638,3764,-2e-05,2.9999999999999997e-05,0.0,0.0,1e-05,-2e-05,1e-05,-2e-05,1
3639,3765,0.0,-2.9999999999999997e-05,0.0,2e-05,-1e-05,-1e-05,1e-05,-1e-05,1
3640,3766,0.0,-2.9999999999999997e-05,0.0,2e-05,-1e-05,-1e-05,1e-05,-1e-05,1
3641,3767,0.0,-2.9999999999999997e-05,0.0,2e-05,-1e-05,-1e-05,1e-05,-1e-05,1
3642,3768,0.0,-2.9999999999999997e-05,0.0,2e-05,-1e-05,-1e-05,1e-05,-1e-05,1
3643,3769,0.0,-2.9999999999999997e-05,0.0,2e-05,-1e-05,-1e-05,1e-05,-1e-05,1
3644,3770,0.0,-2.9999999999999997e-05,0.0,2e-05,-1e-05,-1e-05,1e-05,-1e-05,1
3645,3771,0.0,-2.9999999999999997e-05,0.0,2e-05,-1e-05,-1e-05,1e-05,-1e-05,1
3646,3772,0.0,-2.9999999999999997e-05,0.0,2e-05,-1e-05,-1e-05,1e-05,-1e-05,1
3647,3773,0.0,-2.9999999999999997e-05,0.0,2e-05,-1e-05,-1e-05,1e-05,-1e-05,1
3648,3774,-2e-05,-1e-05,2e-05,4e-05,0.0,1e-05,1e-05,-1e-05,1
3649,3775,-2e-05,-1e-05,2e-05,4e-05,0.0,1e-05,1e-05,-1e-05,1
3650,3776,-2e-05,-1e-05,2e-05,4e-05,0.0,1e-05,1e-05,-1e-05,1
3651,3777,-2e-05,-1e-05,2e-05,4e-05,0.0,1e-05,1e-05,-1e-05,1
3652,3778,-2e-05,-1e-05,2e-05,4e-05,0.0,1e-05,1e-05,-1e-05,1
3653,3779,-2e-05,-1e-05,2e-05,4e-05,0.0,1e-05,1e-05,-1e-05,1
3654,3780,-2e-05,-1e-05,2e-05,4e-05,0.0,1e-05,1e-05,-1e-05,1
3655,3781,-2e-05,-1e-05,2e-05,4e-05,0.0,1e-05,1e-05,-1e-05,1
3656,3782,-2e-05,-1e-05,2e-05,4e-05,0.0,1e-05,1e-05,-1e-05,1
3657,3783,-2e-05,-1e-05,2e-05,4e-05,0.0,1e-05,1e-05,-1e-05,1
3658,3784,-2e-05,-1e-05,2e-05,4e-05,0.0,1e-05,1e-05,-1e-05,1
3659,3785,-2e-05,-1e-05,2e-05,4e-05,0.0,1e-05,1e-05,-1e-05,1
3660,3786,-2e-05,-1e-05,2e-05,4e-05,0.0,1e-05,1e-05,-1e-05,1
3661,3788,-2e-05,0.0,-1e-05,0.0,-1e-05,-2.9999999999999997e-05,0.0,-1e-05,1
3662,3789,-2e-05,0.0,-1e-05,0.0,-1e-05,-2.9999999999999997e-05,0.0,-1e-05,1
3663,3790,-2e-05,0.0,-1e-05,0.0,-1e-05,-2.9999999999999997e-05,0.0,-1e-05,1
3664,3791,-2e-05,0.0,-1e-05,0.0,-1e-05,-2.9999999999999997e-05,0.0,-1e-05,1
3665,3792,-2e-05,0.0,-1e-05,0.0,-1e-05,-2.9999999999999997e-05,0.0,-1e-05,1
3666,3793,-2e-05,0.0,-1e-05,0.0,-1e-05,-2.9999999999999997e-05,0.0,-1e-05,1
3667,3794,-2e-05,0.0,-1e-05,0.0,-1e-05,-2.9999999999999997e-05,0.0,-1e-05,1
3668,3795,-2e-05,0.0,-1e-05,0.0,-1e-05,-2.9999999999999997e-05,0.0,-1e-05,1
3669,3796,-2e-05,0.0,-1e-05,0.0,-1e-05,-2.9999999999999997e-05,0.0,-1e-05,1
3670,3797,0.0,-2e-05,-4e-05,-2.9999999999999997e-05,-2e-05,-2.9999999999999997e-05,-4e-05,-1e-05,1
3671,3798,0.0,-2e-05,-4e-05,-2.9999999999999997e-05,-2e-05,-2.9999999999999997e-05,-4e-05,-1e-05,1
3672,3799,0.0,-2e-05,-4e-05,-2.9999999999999997e-05,-2e-05,-2.9999999999999997e-05,-4e-05,-1e-05,1
3673,3800,0.0,-2e-05,-4e-05,-2.9999999999999997e-05,-2e-05,-2.9999999999999997e-05,-4e-05,-1e-05,1
3674,3801,0.0,-2e-05,-4e-05,-2.9999999999999997e-05,-2e-05,-2.9999999999999997e-05,-4e-05,-1e-05,1
3675,3802,0.0,-2e-05,-4e-05,-2.9999999999999997e-05,-2e-05,-2.9999999999999997e-05,-4e-05,-1e-05,1
3676,3803,0.0,-2e-05,-4e-05,-2.9999999999999997e-05,-2e-05,-2.9999999999999997e-05,-4e-05,-1e-05,1
3677,3804,0.0,-2e-05,-4e-05,-2.9999999999999997e-05,-2e-05,-2.9999999999999997e-05,-4e-05,-1e-05,1
3678,3805,0.0,-2e-05,-4e-05,-2.9999999999999997e-05,-2e-05,-2.9999999999999997e-05,-4e-05,-1e-05,1
3679,3806,0.0,-2e-05,-4e-05,-2.9999999999999997e-05,-2e-05,-2.9999999999999997e-05,-4e-05,-1e-05,1
3680,3807,0.0,-2e-05,-4e-05,-2.9999999999999997e-05,-2e-05,-2.9999999999999997e-05,-4e-05,-1e-05,1
3681,3808,0.0,-2e-05,-4e-05,-2.9999999999999997e-05,-2e-05,-2.9999999999999997e-05,-4e-05,-1e-05,1
3682,3809,0.0,-2e-05,-4e-05,-2.9999999999999997e-05,-2e-05,-2.9999999999999997e-05,-4e-05,-1e-05,1
3683,3810,-1e-05,0.0,-2.9999999999999997e-05,-2e-05,1e-05,2e-05,1e-05,-1e-05,1
3684,3811,-1e-05,0.0,-2.9999999999999997e-05,-2e-05,1e-05,2e-05,1e-05,-1e-05,1
3685,3812,-1e-05,0.0,-2.9999999999999997e-05,-2e-05,1e-05,2e-05,1e-05,-1e-05,1
3686,3813,-1e-05,0.0,-2.9999999999999997e-05,-2e-05,1e-05,2e-05,1e-05,-1e-05,1
3687,3814,-1e-05,0.0,-2.9999999999999997e-05,-2e-05,1e-05,2e-05,1e-05,-1e-05,1
3688,3815,-1e-05,0.0,-2.9999999999999997e-05,-2e-05,1e-05,2e-05,1e-05,-1e-05,1
3689,3816,-1e-05,0.0,-2.9999999999999997e-05,-2e-05,1e-05,2e-05,1e-05,-1e-05,1
3690,3817,1e-05,1e-05,0.0,-1e-05,-1e-05,2e-05,0.0,-2e-05,1
3691,3818,1e-05,1e-05,0.0,-1e-05,-1e-05,2e-05,0.0,-2e-05,1
3692,3819,1e-05,1e-05,0.0,-1e-05,-1e-05,2e-05,0.0,-2e-05,1
3693,3820,1e-05,1e-05,0.0,-1e-05,-1e-05,2e-05,0.0,-2e-05,1
3694,3821,1e-05,1e-05,0.0,-1e-05,-1e-05,2e-05,0.0,-2e-05,1
3695,3822,1e-05,1e-05,0.0,-1e-05,-1e-05,2e-05,0.0,-2e-05,1
3696,3823,1e-05,1e-05,0.0,-1e-05,-1e-05,2e-05,0.0,-2e-05,1
3697,3824,1e-05,1e-05,0.0,-1e-05,-1e-05,2e-05,0.0,-2e-05,1
3698,3825,1e-05,2e-05,1e-05,-1e-05,0.0,0.0,-1e-05,-1e-05,1
3699,3826,1e-05,2e-05,1e-05,-1e-05,0.0,0.0,-1e-05,-1e-05,1
3700,3827,1e-05,2e-05,1e-05,-1e-05,0.0,0.0,-1e-05,-1e-05,1
3701,3828,1e-05,2e-05,1e-05,-1e-05,0.0,0.0,-1e-05,-1e-05,1
3702,3829,1e-05,2e-05,1e-05,-1e-05,0.0,0.0,-1e-05,-1e-05,1
3703,3830,1e-05,2e-05,1e-05,-1e-05,0.0,0.0,-1e-05,-1e-05,1
3704,3831,1e-05,2e-05,1e-05,-1e-05,0.0,0.0,-1e-05,-1e-05,1
3705,3832,1e-05,2e-05,1e-05,-1e-05,0.0,0.0,-1e-05,-1e-05,1
3706,3833,1e-05,2e-05,1e-05,-1e-05,0.0,0.0,-1e-05,-1e-05,1
3707,3834,1e-05,2e-05,1e-05,-1e-05,0.0,0.0,-1e-05,-1e-05,1
3708,3835,1e-05,2e-05,1e-05,-1e-05,0.0,0.0,-1e-05,-1e-05,1
3709,3836,1e-05,2e-05,1e-05,-1e-05,0.0,0.0,-1e-05,-1e-05,1
3710,3838,1e-05,2e-05,1e-05,-1e-05,0.0,0.0,-1e-05,-1e-05,1
3711,3839,1e-05,2e-05,1e-05,-1e-05,0.0,0.0,-1e-05,-1e-05,1
3712,3840,-2e-05,-2e-05,-1e-05,-2e-05,-1e-05,-2e-05,-1e-05,-2.9999999999999997e-05,1
3713,3841,-2e-05,-2e-05,-1e-05,-2e-05,-1e-05,-2e-05,-1e-05,-2.9999999999999997e-05,1
3714,3842,-2e-05,-2e-05,-1e-05,-2e-05,-1e-05,-2e-05,-1e-05,-2.9999999999999997e-05,1
3715,3843,-2e-05,-2e-05,-1e-05,-2e-05,-1e-05,-2e-05,-1e-05,-2.9999999999999997e-05,1
3716,3844,-2e-05,-2e-05,-1e-05,-2e-05,-1e-05,-2e-05,-1e-05,-2.9999999999999997e-05,1
3717,3845,-2e-05,-2e-05,-1e-05,-2e-05,-1e-05,-2e-05,-1e-05,-2.9999999999999997e-05,1
3718,3846,-2e-05,-2e-05,-1e-05,-2e-05,-1e-05,-2e-05,-1e-05,-2.9999999999999997e-05,1
3719,3847,-2e-05,-2e-05,-1e-05,-2e-05,-1e-05,-2e-05,-1e-05,-2.9999999999999997e-05,1
3720,3848,0.0,-1e-05,-2.9999999999999997e-05,-1e-05,-1e-05,0.0,1e-05,1e-05,1
3721,3849,0.0,-1e-05,-2.9999999999999997e-05,-1e-05,-1e-05,0.0,1e-05,1e-05,1
3722,3850,0.0,-1e-05,-2.9999999999999997e-05,-1e-05,-1e-05,0.0,1e-05,1e-05,1
3723,3851,0.0,-1e-05,-2.9999999999999997e-05,-1e-05,-1e-05,0.0,1e-05,1e-05,1
3724,3852,0.0,-1e-05,-2.9999999999999997e-05,-1e-05,-1e-05,0.0,1e-05,1e-05,1
3725,3853,0.0,-1e-05,-2.9999999999999997e-05,-1e-05,-1e-05,0.0,1e-05,1e-05,1
3726,3854,0.0,-1e-05,-2.9999999999999997e-05,-1e-05,-1e-05,0.0,1e-05,1e-05,1
3727,3855,-2.9999999999999997e-05,-5e-05,-4e-05,-1e-05,-5e-05,-2.9999999999999997e-05,-2e-05,-1e-05,1
3728,3856,-2.9999999999999997e-05,-5e-05,-4e-05,-1e-05,-5e-05,-2.9999999999999997e-05,-2e-05,-1e-05,1
3729,3857,-2.9999999999999997e-05,-5e-05,-4e-05,-1e-05,-5e-05,-2.9999999999999997e-05,-2e-05,-1e-05,1
3730,3858,-2.9999999999999997e-05,-5e-05,-4e-05,-1e-05,-5e-05,-2.9999999999999997e-05,-2e-05,-1e-05,1
3731,3859,-2.9999999999999997e-05,-5e-05,-4e-05,-1e-05,-5e-05,-2.9999999999999997e-05,-2e-05,-1e-05,1
3732,3860,-2.9999999999999997e-05,-5e-05,-4e-05,-1e-05,-5e-05,-2.9999999999999997e-05,-2e-05,-1e-05,1
3733,3861,-2.9999999999999997e-05,-5e-05,-4e-05,-1e-05,-5e-05,-2.9999999999999997e-05,-2e-05,-1e-05,1
3734,3862,-2.9999999999999997e-05,-5e-05,-4e-05,-1e-05,-5e-05,-2.9999999999999997e-05,-2e-05,-1e-05,1
3735,3863,-2.9999999999999997e-05,-5e-05,-4e-05,-1e-05,-5e-05,-2.9999999999999997e-05,-2e-05,-1e-05,1
3736,3864,-2.9999999999999997e-05,-5e-05,-4e-05,-1e-05,-5e-05,-2.9999999999999997e-05,-2e-05,-1e-05,1
3737,3865,-2.9999999999999997e-05,-5e-05,-4e-05,-1e-05,-5e-05,-2.9999999999999997e-05,-2e-05,-1e-05,1
3738,3866,-2.9999999999999997e-05,-5e-05,-4e-05,-1e-05,-5e-05,-2.9999999999999997e-05,-2e-05,-1e-05,1
3739,3867,-2.9999999999999997e-05,-5e-05,-4e-05,-1e-05,-5e-05,-2.9999999999999997e-05,-2e-05,-1e-05,1
3740,3868,-2.9999999999999997e-05,-5e-05,-4e-05,-1e-05,-5e-05,-2.9999999999999997e-05,-2e-05,-1e-05,1
3741,3869,-2.9999999999999997e-05,-5e-05,-4e-05,-1e-05,-5e-05,-2.9999999999999997e-05,-2e-05,-1e-05,1
3742,3870,-2.9999999999999997e-05,-5e-05,-4e-05,-1e-05,-5e-05,-2.9999999999999997e-05,-2e-05,-1e-05,1
3743,3871,-2e-05,-1e-05,0.0,0.0,0.0,-2.9999999999999997e-05,0.0,0.0,1
3744,3872,-2e-05,-1e-05,0.0,0.0,0.0,-2.9999999999999997e-05,0.0,0.0,1
3745,3873,-2e-05,-1e-05,0.0,0.0,0.0,-2.9999999999999997e-05,0.0,0.0,1
3746,3874,-2e-05,-1e-05,0.0,0.0,0.0,-2.9999999999999997e-05,0.0,0.0,1
3747,3875,-2e-05,-1e-05,0.0,0.0,0.0,-2.9999999999999997e-05,0.0,0.0,1
3748,3876,-2e-05,-1e-05,0.0,0.0,0.0,-2.9999999999999997e-05,0.0,0.0,1
3749,3877,2e-05,2e-05,-2e-05,1e-05,0.00016999999999999999,4e-05,-1e-05,2e-05,1
3750,3878,2e-05,2e-05,-2e-05,1e-05,0.00016999999999999999,4e-05,-1e-05,2e-05,1
3751,3879,2e-05,2e-05,-2e-05,1e-05,0.00016999999999999999,4e-05,-1e-05,2e-05,1
3752,3880,2e-05,2e-05,-2e-05,1e-05,0.00016999999999999999,4e-05,-1e-05,2e-05,1
3753,3881,2e-05,2e-05,-2e-05,1e-05,0.00016999999999999999,4e-05,-1e-05,2e-05,1
3754,3882,2e-05,2e-05,-2e-05,1e-05,0.00016999999999999999,4e-05,-1e-05,2e-05,1
3755,3883,2e-05,2e-05,-2e-05,1e-05,0.00016999999999999999,4e-05,-1e-05,2e-05,1
3756,3884,2e-05,2e-05,-2e-05,1e-05,0.00016999999999999999,4e-05,-1e-05,2e-05,1
3757,3885,2e-05,2e-05,-2e-05,1e-05,0.00016999999999999999,4e-05,-1e-05,2e-05,1
3758,3886,2e-05,2e-05,-2e-05,1e-05,0.00016999999999999999,4e-05,-1e-05,2e-05,1
3759,3888,2e-05,2e-05,-2e-05,1e-05,0.00016999999999999999,4e-05,-1e-05,2e-05,1
3760,3889,2e-05,2e-05,-2e-05,1e-05,0.00016999999999999999,4e-05,-1e-05,2e-05,1
3761,3890,2e-05,2e-05,-2e-05,1e-05,0.00016999999999999999,4e-05,-1e-05,2e-05,1
3762,3891,2e-05,2e-05,-2e-05,1e-05,0.00016999999999999999,4e-05,-1e-05,2e-05,1
3763,3892,2e-05,2e-05,-2e-05,1e-05,0.00016999999999999999,4e-05,-1e-05,2e-05,1
3764,3893,2e-05,2e-05,-2e-05,1e-05,0.00016999999999999999,4e-05,-1e-05,2e-05,1
3765,3894,2e-05,2e-05,-2e-05,1e-05,0.00016999999999999999,4e-05,-1e-05,2e-05,1
3766,3895,0.0,0.0,1e-05,1e-05,-2.9999999999999997e-05,-4e-05,-2.9999999999999997e-05,-2e-05,1
3767,3896,1e-05,-2e-05,-5.9999999999999995e-05,-2.9999999999999997e-05,2.9999999999999997e-05,5.9999999999999995e-05,2.9999999999999997e-05,1e-05,1
3768,3897,1e-05,-2e-05,-5.9999999999999995e-05,-2.9999999999999997e-05,2.9999999999999997e-05,5.9999999999999995e-05,2.9999999999999997e-05,1e-05,1
3769,3898,1e-05,-2e-05,-5.9999999999999995e-05,-2.9999999999999997e-05,2.9999999999999997e-05,5.9999999999999995e-05,2.9999999999999997e-05,1e-05,1
3770,3899,1e-05,-2e-05,-5.9999999999999995e-05,-2.9999999999999997e-05,2.9999999999999997e-05,5.9999999999999995e-05,2.9999999999999997e-05,1e-05,1
3771,3900,1e-05,-2e-05,-5.9999999999999995e-05,-2.9999999999999997e-05,2.9999999999999997e-05,5.9999999999999995e-05,2.9999999999999997e-05,1e-05,1
3772,3901,1e-05,-2e-05,-5.9999999999999995e-05,-2.9999999999999997e-05,2.9999999999999997e-05,5.9999999999999995e-05,2.9999999999999997e-05,1e-05,1
3773,3902,1e-05,-2e-05,-5.9999999999999995e-05,-2.9999999999999997e-05,2.9999999999999997e-05,5.9999999999999995e-05,2.9999999999999997e-05,1e-05,1
3774,3903,1e-05,-2e-05,-5.9999999999999995e-05,-2.9999999999999997e-05,2.9999999999999997e-05,5.9999999999999995e-05,2.9999999999999997e-05,1e-05,1
3775,3904,1e-05,-2e-05,-5.9999999999999995e-05,-2.9999999999999997e-05,2.9999999999999997e-05,5.9999999999999995e-05,2.9999999999999997e-05,1e-05,1
3776,3905,1e-05,-2e-05,-5.9999999999999995e-05,-2.9999999999999997e-05,2.9999999999999997e-05,5.9999999999999995e-05,2.9999999999999997e-05,1e-05,1
3777,3906,1e-05,-2e-05,-5.9999999999999995e-05,-2.9999999999999997e-05,2.9999999999999997e-05,5.9999999999999995e-05,2.9999999999999997e-05,1e-05,1
3778,3907,1e-05,-2e-05,-5.9999999999999995e-05,-2.9999999999999997e-05,2.9999999999999997e-05,5.9999999999999995e-05,2.9999999999999997e-05,1e-05,1
3779,3908,1e-05,-2e-05,-5.9999999999999995e-05,-2.9999999999999997e-05,2.9999999999999997e-05,5.9999999999999995e-05,2.9999999999999997e-05,1e-05,1
3780,3909,1e-05,-2e-05,-5.9999999999999995e-05,-2.9999999999999997e-05,2.9999999999999997e-05,5.9999999999999995e-05,2.9999999999999997e-05,1e-05,1
3781,3910,1e-05,-2e-05,-5.9999999999999995e-05,-2.9999999999999997e-05,2.9999999999999997e-05,5.9999999999999995e-05,2.9999999999999997e-05,1e-05,1
3782,3911,1e-05,-2e-05,-5.9999999999999995e-05,-2.9999999999999997e-05,2.9999999999999997e-05,5.9999999999999995e-05,2.9999999999999997e-05,1e-05,1
3783,3912,1e-05,-2e-05,-5.9999999999999995e-05,-2.9999999999999997e-05,2.9999999999999997e-05,5.9999999999999995e-05,2.9999999999999997e-05,1e-05,1
3784,3913,1e-05,-2e-05,-5.9999999999999995e-05,-2.9999999999999997e-05,2.9999999999999997e-05,5.9999999999999995e-05,2.9999999999999997e-05,1e-05,1
3785,3914,1e-05,-2e-05,-5.9999999999999995e-05,-2.9999999999999997e-05,2.9999999999999997e-05,5.9999999999999995e-05,2.9999999999999997e-05,1e-05,1
3786,3915,1e-05,-2e-05,-5.9999999999999995e-05,-2.9999999999999997e-05,2.9999999999999997e-05,5.9999999999999995e-05,2.9999999999999997e-05,1e-05,1
3787,3916,1e-05,-2e-05,-5.9999999999999995e-05,-2.9999999999999997e-05,2.9999999999999997e-05,5.9999999999999995e-05,2.9999999999999997e-05,1e-05,1
3788,3917,-2e-05,-1e-05,0.00013000000000000002,0.00011999999999999999,4e-05,-2e-05,-2.9999999999999997e-05,-2e-05,1
3789,3918,-2e-05,-1e-05,0.00013000000000000002,0.00011999999999999999,4e-05,-2e-05,-2.9999999999999997e-05,-2e-05,1
3790,3919,-2e-05,-1e-05,0.00013000000000000002,0.00011999999999999999,4e-05,-2e-05,-2.9999999999999997e-05,-2e-05,1
3791,3920,-2e-05,-1e-05,0.00013000000000000002,0.00011999999999999999,4e-05,-2e-05,-2.9999999999999997e-05,-2e-05,1
3792,3921,-2e-05,-1e-05,0.00013000000000000002,0.00011999999999999999,4e-05,-2e-05,-2.9999999999999997e-05,-2e-05,1
3793,3922,-2e-05,-1e-05,0.00013000000000000002,0.00011999999999999999,4e-05,-2e-05,-2.9999999999999997e-05,-2e-05,1
3794,3923,0.0,0.0,-2e-05,-2.9999999999999997e-05,-1e-05,-2.9999999999999997e-05,-1e-05,-2e-05,1
3795,3924,0.0,0.0,-2e-05,-2.9999999999999997e-05,-1e-05,-2.9999999999999997e-05,-1e-05,-2e-05,1
3796,3925,0.0,0.0,-2e-05,-2.9999999999999997e-05,-1e-05,-2.9999999999999997e-05,-1e-05,-2e-05,1
3797,3926,0.0,0.0,-2e-05,-2.9999999999999997e-05,-1e-05,-2.9999999999999997e-05,-1e-05,-2e-05,1
3798,3927,0.0,0.0,-2e-05,-2.9999999999999997e-05,-1e-05,-2.9999999999999997e-05,-1e-05,-2e-05,1
3799,3928,0.0,0.0,-2e-05,-2.9999999999999997e-05,-1e-05,-2.9999999999999997e-05,-1e-05,-2e-05,1
3800,3929,0.0,0.0,-2e-05,-2.9999999999999997e-05,-1e-05,-2.9999999999999997e-05,-1e-05,-2e-05,1
3801,3930,0.0,0.0,-2e-05,-2.9999999999999997e-05,-1e-05,-2.9999999999999997e-05,-1e-05,-2e-05,1
3802,3931,0.0,0.0,-2e-05,-2.9999999999999997e-05,-1e-05,-2.9999999999999997e-05,-1e-05,-2e-05,1
3803,3932,0.0,0.0,-2e-05,-2.9999999999999997e-05,-1e-05,-2.9999999999999997e-05,-1e-05,-2e-05,1
3804,3933,0.0,0.0,-2e-05,-2.9999999999999997e-05,-1e-05,-2.9999999999999997e-05,-1e-05,-2e-05,1
3805,3934,0.0,0.0,-2e-05,-2.9999999999999997e-05,-1e-05,-2.9999999999999997e-05,-1e-05,-2e-05,1
3806,3935,0.0,0.0,-2e-05,-2.9999999999999997e-05,-1e-05,-2.9999999999999997e-05,-1e-05,-2e-05,1
3807,3936,0.0,0.0,-2e-05,-2.9999999999999997e-05,-1e-05,-2.9999999999999997e-05,-1e-05,-2e-05,1
3808,3938,0.0,0.0,-2e-05,-2.9999999999999997e-05,-1e-05,-2.9999999999999997e-05,-1e-05,-2e-05,1
3809,3939,0.0,0.0,-2e-05,-2.9999999999999997e-05,-1e-05,-2.9999999999999997e-05,-1e-05,-2e-05,1
3810,3940,0.0,0.0,-2e-05,-2.9999999999999997e-05,-1e-05,-2.9999999999999997e-05,-1e-05,-2e-05,1
3811,3941,0.0,0.0,-2e-05,-2.9999999999999997e-05,-1e-05,-2.9999999999999997e-05,-1e-05,-2e-05,1
3812,3942,0.0,0.0,-2e-05,-2.9999999999999997e-05,-1e-05,-2.9999999999999997e-05,-1e-05,-2e-05,1
3813,3943,0.0,0.0,-2e-05,-2.9999999999999997e-05,-1e-05,-2.9999999999999997e-05,-1e-05,-2e-05,1
3814,3944,0.0,0.0,-2e-05,-2.9999999999999997e-05,-1e-05,-2.9999999999999997e-05,-1e-05,-2e-05,1
3815,3945,0.0,0.0,-2e-05,-2.9999999999999997e-05,-1e-05,-2.9999999999999997e-05,-1e-05,-2e-05,1
3816,3946,1e-05,0.0,-7e-05,-2.9999999999999997e-05,-4e-05,0.0,0.0,1e-05,1
3817,3947,-2e-05,-5e-05,-5e-05,-4e-05,-2.9999999999999997e-05,1e-05,-2e-05,-2.9999999999999997e-05,1
3818,3948,0.0,2e-05,0.0,-1e-05,-2.9999999999999997e-05,-2e-05,1e-05,0.0,1
3819,3949,0.0,2e-05,0.0,-1e-05,-2.9999999999999997e-05,-2e-05,1e-05,0.0,1
3820,3950,0.0,2e-05,0.0,-1e-05,-2.9999999999999997e-05,-2e-05,1e-05,0.0,1
3821,3951,0.0,2e-05,0.0,-1e-05,-2.9999999999999997e-05,-2e-05,1e-05,0.0,1
3822,3952,0.0,2e-05,0.0,-1e-05,-2.9999999999999997e-05,-2e-05,1e-05,0.0,1
3823,3953,0.0,2e-05,0.0,-1e-05,-2.9999999999999997e-05,-2e-05,1e-05,0.0,1
3824,3954,0.0,2e-05,0.0,-1e-05,-2.9999999999999997e-05,-2e-05,1e-05,0.0,1
3825,3955,0.0,2e-05,0.0,-1e-05,-2.9999999999999997e-05,-2e-05,1e-05,0.0,1
3826,3956,0.0,2e-05,0.0,-1e-05,-2.9999999999999997e-05,-2e-05,1e-05,0.0,1
3827,3957,0.0,2e-05,0.0,-1e-05,-2.9999999999999997e-05,-2e-05,1e-05,0.0,1
3828,3958,0.0,2e-05,0.0,-1e-05,-2.9999999999999997e-05,-2e-05,1e-05,0.0,1
3829,3959,0.0,2e-05,0.0,-1e-05,-2.9999999999999997e-05,-2e-05,1e-05,0.0,1
3830,3960,0.0,2e-05,0.0,-1e-05,-2.9999999999999997e-05,-2e-05,1e-05,0.0,1
3831,3961,0.0,2e-05,0.0,-1e-05,-2.9999999999999997e-05,-2e-05,1e-05,0.0,1
3832,3962,0.0,2e-05,0.0,-1e-05,-2.9999999999999997e-05,-2e-05,1e-05,0.0,1
3833,3963,-2.9999999999999997e-05,-4e-05,-5.9999999999999995e-05,-5.9999999999999995e-05,-9e-05,-5e-05,-2.9999999999999997e-05,-2e-05,1
3834,3964,0.0,-1e-05,0.0,-2e-05,-2.9999999999999997e-05,0.0,-1e-05,1e-05,1
3835,3965,0.0,-1e-05,0.0,-2e-05,-2.9999999999999997e-05,0.0,-1e-05,1e-05,1
3836,3966,0.0,-1e-05,0.0,-2e-05,-2.9999999999999997e-05,0.0,-1e-05,1e-05,1
3837,3967,0.0,-1e-05,0.0,-2e-05,-2.9999999999999997e-05,0.0,-1e-05,1e-05,1
3838,3968,1e-05,1e-05,-1e-05,-1e-05,5e-05,0.0,0.0,2e-05,1
3839,3969,1e-05,1e-05,-1e-05,-1e-05,5e-05,0.0,0.0,2e-05,1
3840,3970,1e-05,1e-05,-1e-05,-1e-05,5e-05,0.0,0.0,2e-05,1
3841,3971,1e-05,1e-05,-1e-05,-1e-05,5e-05,0.0,0.0,2e-05,1
3842,3972,1e-05,1e-05,-1e-05,-1e-05,5e-05,0.0,0.0,2e-05,1
3843,3973,1e-05,1e-05,-1e-05,-1e-05,5e-05,0.0,0.0,2e-05,1
3844,3974,1e-05,1e-05,-1e-05,-1e-05,5e-05,0.0,0.0,2e-05,1
3845,3975,1e-05,1e-05,-1e-05,-1e-05,5e-05,0.0,0.0,2e-05,1
3846,3976,1e-05,1e-05,-1e-05,-1e-05,5e-05,0.0,0.0,2e-05,1
3847,3977,1e-05,1e-05,-1e-05,-1e-05,5e-05,0.0,0.0,2e-05,1
3848,3978,1e-05,1e-05,-1e-05,-1e-05,5e-05,0.0,0.0,2e-05,1
3849,3979,1e-05,1e-05,-1e-05,-1e-05,5e-05,0.0,0.0,2e-05,1
3850,3980,1e-05,1e-05,-1e-05,-1e-05,5e-05,0.0,0.0,2e-05,1
3851,3981,1e-05,1e-05,-1e-05,-1e-05,5e-05,0.0,0.0,2e-05,1
3852,3982,1e-05,1e-05,-1e-05,-1e-05,5e-05,0.0,0.0,2e-05,1
3853,3983,-1e-05,-1e-05,0.0,1e-05,-2.9999999999999997e-05,-2.9999999999999997e-05,-2.9999999999999997e-05,0.0,1
3854,3984,-1e-05,-1e-05,0.0,1e-05,-2.9999999999999997e-05,-2.9999999999999997e-05,-2.9999999999999997e-05,0.0,1
3855,3985,-1e-05,-1e-05,0.0,1e-05,-2.9999999999999997e-05,-2.9999999999999997e-05,-2.9999999999999997e-05,0.0,1
3856,3986,-1e-05,-1e-05,0.0,1e-05,-2.9999999999999997e-05,-2.9999999999999997e-05,-2.9999999999999997e-05,0.0,1
3857,3988,-1e-05,-1e-05,0.0,1e-05,-2.9999999999999997e-05,-2.9999999999999997e-05,-2.9999999999999997e-05,0.0,1
3858,3989,-1e-05,-1e-05,0.0,1e-05,-2.9999999999999997e-05,-2.9999999999999997e-05,-2.9999999999999997e-05,0.0,1
3859,3990,-1e-05,-1e-05,0.0,1e-05,-2.9999999999999997e-05,-2.9999999999999997e-05,-2.9999999999999997e-05,0.0,1
3860,3991,0.0,0.0,-4e-05,-2e-05,-4e-05,0.0,-2e-05,-1e-05,1
3861,3992,0.0,0.0,-4e-05,-2e-05,-4e-05,0.0,-2e-05,-1e-05,1
3862,3993,0.0,0.0,-4e-05,-2e-05,-4e-05,0.0,-2e-05,-1e-05,1
3863,3994,0.0,0.0,-4e-05,-2e-05,-4e-05,0.0,-2e-05,-1e-05,1
3864,3995,0.0,0.0,-4e-05,-2e-05,-4e-05,0.0,-2e-05,-1e-05,1
3865,3996,0.0,0.0,-4e-05,-2e-05,-4e-05,0.0,-2e-05,-1e-05,1
3866,3997,0.0,0.0,-4e-05,-2e-05,-4e-05,0.0,-2e-05,-1e-05,1
3867,3998,-1e-05,1e-05,0.0001,5.9999999999999995e-05,-1e-05,0.0,-1e-05,-4e-05,1
3868,3999,-1e-05,1e-05,0.0001,5.9999999999999995e-05,-1e-05,0.0,-1e-05,-4e-05,1
3869,4000,-1e-05,1e-05,0.0001,5.9999999999999995e-05,-1e-05,0.0,-1e-05,-4e-05,1
3870,4001,-1e-05,1e-05,0.0001,5.9999999999999995e-05,-1e-05,0.0,-1e-05,-4e-05,1
3871,4002,-1e-05,1e-05,0.0001,5.9999999999999995e-05,-1e-05,0.0,-1e-05,-4e-05,1
3872,4003,-1e-05,1e-05,0.0001,5.9999999999999995e-05,-1e-05,0.0,-1e-05,-4e-05,1
3873,4004,-1e-05,1e-05,0.0001,5.9999999999999995e-05,-1e-05,0.0,-1e-05,-4e-05,1
3874,4005,-1e-05,1e-05,0.0001,5.9999999999999995e-05,-1e-05,0.0,-1e-05,-4e-05,1
3875,4006,-1e-05,1e-05,0.0001,5.9999999999999995e-05,-1e-05,0.0,-1e-05,-4e-05,1
3876,4007,-1e-05,1e-05,0.0001,5.9999999999999995e-05,-1e-05,0.0,-1e-05,-4e-05,1
3877,4008,-1e-05,1e-05,0.0001,5.9999999999999995e-05,-1e-05,0.0,-1e-05,-4e-05,1
3878,4009,-1e-05,1e-05,0.0001,5.9999999999999995e-05,-1e-05,0.0,-1e-05,-4e-05,1
3879,4010,-1e-05,1e-05,0.0001,5.9999999999999995e-05,-1e-05,0.0,-1e-05,-4e-05,1
3880,4011,-1e-05,1e-05,0.0001,5.9999999999999995e-05,-1e-05,0.0,-1e-05,-4e-05,1
3881,4012,-1e-05,1e-05,0.0001,5.9999999999999995e-05,-1e-05,0.0,-1e-05,-4e-05,1
3882,4013,-1e-05,1e-05,0.0001,5.9999999999999995e-05,-1e-05,0.0,-1e-05,-4e-05,1
3883,4014,-2e-05,-2e-05,-2e-05,-2.9999999999999997e-05,2e-05,-1e-05,0.0,0.0,1
3884,4015,-1e-05,0.0,-1e-05,0.0,-2e-05,-1e-05,-1e-05,0.0,1
3885,4016,0.0,-2e-05,-1e-05,0.0,-4e-05,-2.9999999999999997e-05,-2e-05,-1e-05,1
3886,4017,0.0,-2e-05,-1e-05,0.0,-4e-05,-2.9999999999999997e-05,-2e-05,-1e-05,1
3887,4018,0.0,-2e-05,-1e-05,0.0,-4e-05,-2.9999999999999997e-05,-2e-05,-1e-05,1
3888,4019,0.0,-2e-05,-1e-05,0.0,-4e-05,-2.9999999999999997e-05,-2e-05,-1e-05,1
3889,4020,0.0,-2e-05,-1e-05,0.0,-4e-05,-2.9999999999999997e-05,-2e-05,-1e-05,1
3890,4021,0.0,-2e-05,-1e-05,0.0,-4e-05,-2.9999999999999997e-05,-2e-05,-1e-05,1
3891,4022,0.0,-2e-05,-1e-05,0.0,-4e-05,-2.9999999999999997e-05,-2e-05,-1e-05,1
3892,4023,0.0,-2e-05,-1e-05,0.0,-4e-05,-2.9999999999999997e-05,-2e-05,-1e-05,1
3893,4024,0.0,-2e-05,-1e-05,0.0,-4e-05,-2.9999999999999997e-05,-2e-05,-1e-05,1
3894,4025,0.0,-2e-05,-1e-05,0.0,-4e-05,-2.9999999999999997e-05,-2e-05,-1e-05,1
3895,4026,0.0,-2e-05,-1e-05,0.0,-4e-05,-2.9999999999999997e-05,-2e-05,-1e-05,1
3896,4027,0.0,-2e-05,-1e-05,0.0,-4e-05,-2.9999999999999997e-05,-2e-05,-1e-05,1
3897,4028,0.0,-1e-05,1e-05,-2e-05,-2.9999999999999997e-05,0.0,1e-05,0.0,1
3898,4029,0.0,-1e-05,1e-05,-2e-05,-2.9999999999999997e-05,0.0,1e-05,0.0,1
3899,4030,0.0,-1e-05,1e-05,-2e-05,-2.9999999999999997e-05,0.0,1e-05,0.0,1
3900,4031,0.0,-1e-05,1e-05,-2e-05,-2.9999999999999997e-05,0.0,1e-05,0.0,1
3901,4032,0.0,-1e-05,1e-05,-2e-05,-2.9999999999999997e-05,0.0,1e-05,0.0,1
3902,4033,0.0,-1e-05,1e-05,-2e-05,-2.9999999999999997e-05,0.0,1e-05,0.0,1
3903,4034,0.0,-1e-05,1e-05,-2e-05,-2.9999999999999997e-05,0.0,1e-05,0.0,1
3904,4035,-2.9999999999999997e-05,-1e-05,-4e-05,-1e-05,5.9999999999999995e-05,-1e-05,-2e-05,-1e-05,1
3905,4036,-2.9999999999999997e-05,-1e-05,-4e-05,-1e-05,5.9999999999999995e-05,-1e-05,-2e-05,-1e-05,1
3906,4038,-2.9999999999999997e-05,-1e-05,-4e-05,-1e-05,5.9999999999999995e-05,-1e-05,-2e-05,-1e-05,1
3907,4039,-2.9999999999999997e-05,-1e-05,-4e-05,-1e-05,5.9999999999999995e-05,-1e-05,-2e-05,-1e-05,1
3908,4040,-2.9999999999999997e-05,-1e-05,-4e-05,-1e-05,5.9999999999999995e-05,-1e-05,-2e-05,-1e-05,1
3909,4041,-2.9999999999999997e-05,-1e-05,-4e-05,-1e-05,5.9999999999999995e-05,-1e-05,-2e-05,-1e-05,1
3910,4042,-2.9999999999999997e-05,-1e-05,-4e-05,-1e-05,5.9999999999999995e-05,-1e-05,-2e-05,-1e-05,1
3911,4043,-2.9999999999999997e-05,-1e-05,-4e-05,-1e-05,5.9999999999999995e-05,-1e-05,-2e-05,-1e-05,1
3912,4044,-2.9999999999999997e-05,-1e-05,-4e-05,-1e-05,5.9999999999999995e-05,-1e-05,-2e-05,-1e-05,1
3913,4045,-2.9999999999999997e-05,-1e-05,-4e-05,-1e-05,5.9999999999999995e-05,-1e-05,-2e-05,-1e-05,1
3914,4046,-2.9999999999999997e-05,-1e-05,-4e-05,-1e-05,5.9999999999999995e-05,-1e-05,-2e-05,-1e-05,1
3915,4047,-2.9999999999999997e-05,-1e-05,-4e-05,-1e-05,5.9999999999999995e-05,-1e-05,-2e-05,-1e-05,1
3916,4048,-2.9999999999999997e-05,-1e-05,-4e-05,-1e-05,5.9999999999999995e-05,-1e-05,-2e-05,-1e-05,1
3917,4049,-2.9999999999999997e-05,-1e-05,-4e-05,-1e-05,5.9999999999999995e-05,-1e-05,-2e-05,-1e-05,1
3918,4050,-2.9999999999999997e-05,-1e-05,-4e-05,-1e-05,5.9999999999999995e-05,-1e-05,-2e-05,-1e-05,1
3919,4051,-2e-05,1e-05,-2.9999999999999997e-05,0.0,2e-05,1e-05,0.0,0.0,1
3920,4052,-2e-05,1e-05,-2.9999999999999997e-05,0.0,2e-05,1e-05,0.0,0.0,1
3921,4053,-2e-05,1e-05,-2.9999999999999997e-05,0.0,2e-05,1e-05,0.0,0.0,1
3922,4054,-2e-05,1e-05,-2.9999999999999997e-05,0.0,2e-05,1e-05,0.0,0.0,1
3923,4055,-2e-05,1e-05,-2.9999999999999997e-05,0.0,2e-05,1e-05,0.0,0.0,1
3924,4056,-2e-05,1e-05,-2.9999999999999997e-05,0.0,2e-05,1e-05,0.0,0.0,1
3925,4057,-1e-05,-2e-05,-1e-05,-2e-05,-5e-05,-2e-05,0.0,-1e-05,1
3926,4058,0.0,-1e-05,-2.9999999999999997e-05,-5e-05,-2.9999999999999997e-05,1e-05,-2e-05,-1e-05,1
3927,4059,0.0,-1e-05,-2.9999999999999997e-05,-5e-05,-2.9999999999999997e-05,1e-05,-2e-05,-1e-05,1
3928,4060,0.0,-1e-05,-2.9999999999999997e-05,-5e-05,-2.9999999999999997e-05,1e-05,-2e-05,-1e-05,1
3929,4061,0.0,-1e-05,-2.9999999999999997e-05,-5e-05,-2.9999999999999997e-05,1e-05,-2e-05,-1e-05,1
3930,4062,0.0,-1e-05,-2.9999999999999997e-05,-5e-05,-2.9999999999999997e-05,1e-05,-2e-05,-1e-05,1
3931,4063,0.0,-1e-05,-2.9999999999999997e-05,-5e-05,-2.9999999999999997e-05,1e-05,-2e-05,-1e-05,1
3932,4064,0.0,-1e-05,-2.9999999999999997e-05,-5e-05,-2.9999999999999997e-05,1e-05,-2e-05,-1e-05,1
3933,4065,0.0,-1e-05,-2.9999999999999997e-05,-5e-05,-2.9999999999999997e-05,1e-05,-2e-05,-1e-05,1
3934,4066,0.0,-1e-05,-2.9999999999999997e-05,-5e-05,-2.9999999999999997e-05,1e-05,-2e-05,-1e-05,1
3935,4067,0.0,-1e-05,-2.9999999999999997e-05,-5e-05,-2.9999999999999997e-05,1e-05,-2e-05,-1e-05,1
3936,4068,0.0,-1e-05,-2.9999999999999997e-05,-5e-05,-2.9999999999999997e-05,1e-05,-2e-05,-1e-05,1
3937,4069,0.0,-1e-05,-2.9999999999999997e-05,-5e-05,-2.9999999999999997e-05,1e-05,-2e-05,-1e-05,1
3938,4070,0.0,-1e-05,-2.9999999999999997e-05,-5e-05,-2.9999999999999997e-05,1e-05,-2e-05,-1e-05,1
3939,4071,0.0,-1e-05,-2.9999999999999997e-05,-5e-05,-2.9999999999999997e-05,1e-05,-2e-05,-1e-05,1
3940,4072,0.0,-1e-05,-2.9999999999999997e-05,-5e-05,-2.9999999999999997e-05,1e-05,-2e-05,-1e-05,1
3941,4073,-2.9999999999999997e-05,1e-05,5e-05,4e-05,5e-05,0.0,-2e-05,1e-05,1
3942,4074,-2.9999999999999997e-05,1e-05,5e-05,4e-05,5e-05,0.0,-2e-05,1e-05,1
3943,4075,-2.9999999999999997e-05,1e-05,5e-05,4e-05,5e-05,0.0,-2e-05,1e-05,1
3944,4076,-2.9999999999999997e-05,1e-05,5e-05,4e-05,5e-05,0.0,-2e-05,1e-05,1
3945,4077,-2.9999999999999997e-05,1e-05,5e-05,4e-05,5e-05,0.0,-2e-05,1e-05,1
3946,4078,-2.9999999999999997e-05,1e-05,5e-05,4e-05,5e-05,0.0,-2e-05,1e-05,1
3947,4079,-2.9999999999999997e-05,1e-05,5e-05,4e-05,5e-05,0.0,-2e-05,1e-05,1
3948,4080,-2.9999999999999997e-05,1e-05,5e-05,4e-05,5e-05,0.0,-2e-05,1e-05,1
3949,4081,0.0,0.0,-1e-05,0.0,-1e-05,-2e-05,-2.9999999999999997e-05,-1e-05,1
3950,4082,-2e-05,-2e-05,-2e-05,-1e-05,-2e-05,-1e-05,0.0,2e-05,1
3951,4083,-2e-05,-2e-05,-2e-05,-1e-05,-2e-05,-1e-05,0.0,2e-05,1
3952,4084,-2e-05,-2e-05,-2e-05,-1e-05,-2e-05,-1e-05,0.0,2e-05,1
3953,4085,-2e-05,-2e-05,-2e-05,-1e-05,-2e-05,-1e-05,0.0,2e-05,1
3954,4086,-2e-05,-2e-05,-2e-05,-1e-05,-2e-05,-1e-05,0.0,2e-05,1
3955,4088,0.0,-1e-05,-2e-05,0.0,-7e-05,-2.9999999999999997e-05,0.0,-2.9999999999999997e-05,1
3956,4089,0.0,-1e-05,-2e-05,0.0,-7e-05,-2.9999999999999997e-05,0.0,-2.9999999999999997e-05,1
3957,4090,0.0,-1e-05,-2e-05,0.0,-7e-05,-2.9999999999999997e-05,0.0,-2.9999999999999997e-05,1
3958,4091,0.0,-1e-05,-2e-05,0.0,-7e-05,-2.9999999999999997e-05,0.0,-2.9999999999999997e-05,1
3959,4092,0.0,-1e-05,-2e-05,0.0,-7e-05,-2.9999999999999997e-05,0.0,-2.9999999999999997e-05,1
3960,4093,0.0,-1e-05,-2e-05,0.0,-7e-05,-2.9999999999999997e-05,0.0,-2.9999999999999997e-05,1
3961,4094,0.0,-1e-05,-2e-05,0.0,-7e-05,-2.9999999999999997e-05,0.0,-2.9999999999999997e-05,1
3962,4095,-1e-05,-2.9999999999999997e-05,-1e-05,-1e-05,1e-05,-2.9999999999999997e-05,-2e-05,-2e-05,1
3963,4096,-1e-05,-2.9999999999999997e-05,-1e-05,-1e-05,1e-05,-2.9999999999999997e-05,-2e-05,-2e-05,1
3964,4097,-1e-05,-2.9999999999999997e-05,-1e-05,-1e-05,1e-05,-2.9999999999999997e-05,-2e-05,-2e-05,1
3965,4098,-1e-05,-2.9999999999999997e-05,-1e-05,-1e-05,1e-05,-2.9999999999999997e-05,-2e-05,-2e-05,1
3966,4099,-1e-05,-2.9999999999999997e-05,-1e-05,-1e-05,1e-05,-2.9999999999999997e-05,-2e-05,-2e-05,1
3967,4100,-1e-05,-2.9999999999999997e-05,-1e-05,-1e-05,1e-05,-2.9999999999999997e-05,-2e-05,-2e-05,1
3968,4101,-1e-05,-2.9999999999999997e-05,-1e-05,-1e-05,1e-05,-2.9999999999999997e-05,-2e-05,-2e-05,1
3969,4102,-1e-05,-2.9999999999999997e-05,-1e-05,-1e-05,1e-05,-2.9999999999999997e-05,-2e-05,-2e-05,1
3970,4103,-1e-05,-2.9999999999999997e-05,-1e-05,-1e-05,1e-05,-2.9999999999999997e-05,-2e-05,-2e-05,1
3971,4104,-1e-05,-2.9999999999999997e-05,-1e-05,-1e-05,1e-05,-2.9999999999999997e-05,-2e-05,-2e-05,1
3972,4105,-1e-05,-2.9999999999999997e-05,-1e-05,-1e-05,1e-05,-2.9999999999999997e-05,-2e-05,-2e-05,1
3973,4106,-1e-05,-2.9999999999999997e-05,-1e-05,-1e-05,1e-05,-2.9999999999999997e-05,-2e-05,-2e-05,1
3974,4107,-1e-05,-2.9999999999999997e-05,-1e-05,-1e-05,1e-05,-2.9999999999999997e-05,-2e-05,-2e-05,1
3975,4108,-1e-05,-2.9999999999999997e-05,-1e-05,-1e-05,1e-05,-2.9999999999999997e-05,-2e-05,-2e-05,1
3976,4109,-1e-05,-2.9999999999999997e-05,-1e-05,-1e-05,1e-05,-2.9999999999999997e-05,-2e-05,-2e-05,1
3977,4110,-1e-05,-2.9999999999999997e-05,-1e-05,-1e-05,1e-05,-2.9999999999999997e-05,-2e-05,-2e-05,1
3978,4111,1e-05,-2e-05,-2e-05,-2.9999999999999997e-05,0.0,-1e-05,-4e-05,-2.9999999999999997e-05,1
3979,4112,1e-05,-2e-05,-2e-05,-2.9999999999999997e-05,0.0,-1e-05,-4e-05,-2.9999999999999997e-05,1
3980,4113,1e-05,-2e-05,-2e-05,-2.9999999999999997e-05,0.0,-1e-05,-4e-05,-2.9999999999999997e-05,1
3981,4114,1e-05,-2e-05,-2e-05,-2.9999999999999997e-05,0.0,-1e-05,-4e-05,-2.9999999999999997e-05,1
3982,4115,1e-05,-2e-05,-2e-05,-2.9999999999999997e-05,0.0,-1e-05,-4e-05,-2.9999999999999997e-05,1
3983,4116,1e-05,-2e-05,-2e-05,-2.9999999999999997e-05,0.0,-1e-05,-4e-05,-2.9999999999999997e-05,1
3984,4117,1e-05,-2e-05,-2e-05,-2.9999999999999997e-05,0.0,-1e-05,-4e-05,-2.9999999999999997e-05,1
3985,4118,1e-05,1e-05,0.0,0.0,-4e-05,-2e-05,-4e-05,-2.9999999999999997e-05,1
3986,4119,1e-05,1e-05,0.0,0.0,-4e-05,-2e-05,-4e-05,-2.9999999999999997e-05,1
3987,4120,1e-05,1e-05,0.0,0.0,-4e-05,-2e-05,-4e-05,-2.9999999999999997e-05,1
3988,4121,1e-05,1e-05,0.0,0.0,-4e-05,-2e-05,-4e-05,-2.9999999999999997e-05,1
3989,4122,1e-05,1e-05,0.0,0.0,-4e-05,-2e-05,-4e-05,-2.9999999999999997e-05,1
3990,4123,1e-05,1e-05,0.0,0.0,-4e-05,-2e-05,-4e-05,-2.9999999999999997e-05,1
3991,4124,1e-05,1e-05,0.0,0.0,-4e-05,-2e-05,-4e-05,-2.9999999999999997e-05,1
3992,4125,1e-05,1e-05,0.0,0.0,-4e-05,-2e-05,-4e-05,-2.9999999999999997e-05,1
3993,4126,1e-05,1e-05,0.0,0.0,-4e-05,-2e-05,-4e-05,-2.9999999999999997e-05,1
3994,4127,1e-05,1e-05,0.0,0.0,-4e-05,-2e-05,-4e-05,-2.9999999999999997e-05,1
3995,4128,1e-05,1e-05,0.0,0.0,-4e-05,-2e-05,-4e-05,-2.9999999999999997e-05,1
3996,4129,1e-05,1e-05,0.0,0.0,-4e-05,-2e-05,-4e-05,-2.9999999999999997e-05,1
3997,4130,1e-05,1e-05,0.0,0.0,-4e-05,-2e-05,-4e-05,-2.9999999999999997e-05,1
3998,4131,1e-05,1e-05,0.0,0.0,-4e-05,-2e-05,-4e-05,-2.9999999999999997e-05,1
3999,4132,1e-05,1e-05,0.0,0.0,-4e-05,-2e-05,-4e-05,-2.9999999999999997e-05,1
4000,4133,1e-05,1e-05,0.0,0.0,-4e-05,-2e-05,-4e-05,-2.9999999999999997e-05,1
4001,4134,-1e-05,-2.9999999999999997e-05,-1e-05,1e-05,2e-05,-1e-05,-1e-05,0.0,1
4002,4135,-2.9999999999999997e-05,-4e-05,-4e-05,-2e-05,0.0,0.0,-1e-05,0.0,1
4003,4136,-2.9999999999999997e-05,1e-05,-2e-05,-2e-05,-4e-05,-2.9999999999999997e-05,-1e-05,1e-05,1
4004,4139,-2.9999999999999997e-05,1e-05,-2e-05,-2e-05,-4e-05,-2.9999999999999997e-05,-1e-05,1e-05,1
4005,4140,-2.9999999999999997e-05,1e-05,-2e-05,-2e-05,-4e-05,-2.9999999999999997e-05,-1e-05,1e-05,1
4006,4141,-2.9999999999999997e-05,1e-05,-2e-05,-2e-05,-4e-05,-2.9999999999999997e-05,-1e-05,1e-05,1
4007,4142,-2.9999999999999997e-05,1e-05,-2e-05,-2e-05,-4e-05,-2.9999999999999997e-05,-1e-05,1e-05,1
4008,4143,-2.9999999999999997e-05,1e-05,-2e-05,-2e-05,-4e-05,-2.9999999999999997e-05,-1e-05,1e-05,1
4009,4144,-2.9999999999999997e-05,1e-05,-2e-05,-2e-05,-4e-05,-2.9999999999999997e-05,-1e-05,1e-05,1
4010,4145,-2.9999999999999997e-05,1e-05,-2e-05,-2e-05,-4e-05,-2.9999999999999997e-05,-1e-05,1e-05,1
4011,4146,-2.9999999999999997e-05,1e-05,-2e-05,-2e-05,-4e-05,-2.9999999999999997e-05,-1e-05,1e-05,1
4012,4147,-2.9999999999999997e-05,1e-05,-2e-05,-2e-05,-4e-05,-2.9999999999999997e-05,-1e-05,1e-05,1
4013,4148,-2.9999999999999997e-05,1e-05,-2e-05,-2e-05,-4e-05,-2.9999999999999997e-05,-1e-05,1e-05,1
4014,4149,-2e-05,1e-05,2e-05,2e-05,1e-05,2e-05,1e-05,-1e-05,1
4015,4150,-2e-05,1e-05,2e-05,2e-05,1e-05,2e-05,1e-05,-1e-05,1
4016,4151,-2e-05,1e-05,2e-05,2e-05,1e-05,2e-05,1e-05,-1e-05,1
4017,4152,-2e-05,1e-05,2e-05,2e-05,1e-05,2e-05,1e-05,-1e-05,1
4018,4153,-2e-05,1e-05,2e-05,2e-05,1e-05,2e-05,1e-05,-1e-05,1
4019,4154,-2e-05,1e-05,2e-05,2e-05,1e-05,2e-05,1e-05,-1e-05,1
4020,4155,0.0,-1e-05,-1e-05,2.9999999999999997e-05,-1e-05,0.0,-1e-05,-1e-05,1
4021,4156,0.0,-1e-05,-1e-05,2.9999999999999997e-05,-1e-05,0.0,-1e-05,-1e-05,1
4022,4157,0.0,-1e-05,-1e-05,2.9999999999999997e-05,-1e-05,0.0,-1e-05,-1e-05,1
4023,4158,0.0,-1e-05,-1e-05,2.9999999999999997e-05,-1e-05,0.0,-1e-05,-1e-05,1
4024,4159,0.0,-1e-05,-1e-05,2.9999999999999997e-05,-1e-05,0.0,-1e-05,-1e-05,1
4025,4160,0.0,-1e-05,-1e-05,2.9999999999999997e-05,-1e-05,0.0,-1e-05,-1e-05,1
4026,4161,0.0,-1e-05,-1e-05,2.9999999999999997e-05,-1e-05,0.0,-1e-05,-1e-05,1
4027,4162,0.0,-1e-05,-1e-05,2.9999999999999997e-05,-1e-05,0.0,-1e-05,-1e-05,1
4028,4163,0.0,-1e-05,-1e-05,2.9999999999999997e-05,-1e-05,0.0,-1e-05,-1e-05,1
4029,4164,0.0,-1e-05,-1e-05,2.9999999999999997e-05,-1e-05,0.0,-1e-05,-1e-05,1
4030,4165,0.0,-1e-05,-1e-05,2.9999999999999997e-05,-1e-05,0.0,-1e-05,-1e-05,1
4031,4166,0.0,-1e-05,-1e-05,2.9999999999999997e-05,-1e-05,0.0,-1e-05,-1e-05,1
4032,4167,0.0,-1e-05,-1e-05,2.9999999999999997e-05,-1e-05,0.0,-1e-05,-1e-05,1
4033,4168,0.0,-1e-05,-1e-05,2.9999999999999997e-05,-1e-05,0.0,-1e-05,-1e-05,1
4034,4169,0.0,-1e-05,-1e-05,2.9999999999999997e-05,-1e-05,0.0,-1e-05,-1e-05,1
4035,4170,0.0,-1e-05,-1e-05,2.9999999999999997e-05,-1e-05,0.0,-1e-05,-1e-05,1
4036,4171,-5e-05,-5.9999999999999995e-05,-8e-05,-8e-05,-1e-05,-2e-05,-1e-05,-2e-05,1
4037,4172,-5e-05,-5.9999999999999995e-05,-8e-05,-8e-05,-1e-05,-2e-05,-1e-05,-2e-05,1
4038,4173,-5e-05,-5.9999999999999995e-05,-8e-05,-8e-05,-1e-05,-2e-05,-1e-05,-2e-05,1
4039,4174,-5e-05,-5.9999999999999995e-05,-8e-05,-8e-05,-1e-05,-2e-05,-1e-05,-2e-05,1
4040,4175,-5e-05,-5.9999999999999995e-05,-8e-05,-8e-05,-1e-05,-2e-05,-1e-05,-2e-05,1
4041,4176,-5e-05,-5.9999999999999995e-05,-8e-05,-8e-05,-1e-05,-2e-05,-1e-05,-2e-05,1
4042,4177,0.0,2e-05,7e-05,7e-05,5.9999999999999995e-05,2e-05,-1e-05,0.0,1
4043,4178,0.0,1e-05,-2e-05,-1e-05,-5.9999999999999995e-05,0.0,-2e-05,-1e-05,1
4044,4179,0.0,1e-05,-2e-05,-1e-05,-5.9999999999999995e-05,0.0,-2e-05,-1e-05,1
4045,4180,0.0,1e-05,-2e-05,-1e-05,-5.9999999999999995e-05,0.0,-2e-05,-1e-05,1
4046,4181,0.0,1e-05,-2e-05,-1e-05,-5.9999999999999995e-05,0.0,-2e-05,-1e-05,1
4047,4182,0.0,1e-05,-2e-05,-1e-05,-5.9999999999999995e-05,0.0,-2e-05,-1e-05,1
4048,4183,0.0,1e-05,-2e-05,-1e-05,-5.9999999999999995e-05,0.0,-2e-05,-1e-05,1
4049,4184,0.0,1e-05,-2e-05,-1e-05,-5.9999999999999995e-05,0.0,-2e-05,-1e-05,1
4050,4185,0.0,1e-05,-2e-05,-1e-05,-5.9999999999999995e-05,0.0,-2e-05,-1e-05,1
4051,4186,0.0,1e-05,-2e-05,-1e-05,-5.9999999999999995e-05,0.0,-2e-05,-1e-05,1
4052,4188,0.0,1e-05,-2e-05,-1e-05,-5.9999999999999995e-05,0.0,-2e-05,-1e-05,1
4053,4189,0.0,1e-05,-2e-05,-1e-05,-5.9999999999999995e-05,0.0,-2e-05,-1e-05,1
4054,4190,0.0,1e-05,-2e-05,-1e-05,-5.9999999999999995e-05,0.0,-2e-05,-1e-05,1
4055,4191,0.0,1e-05,-2e-05,-1e-05,-5.9999999999999995e-05,0.0,-2e-05,-1e-05,1
4056,4192,0.0,1e-05,-2e-05,-1e-05,-5.9999999999999995e-05,0.0,-2e-05,-1e-05,1
4057,4193,0.0,1e-05,-2e-05,-1e-05,-5.9999999999999995e-05,0.0,-2e-05,-1e-05,1
4058,4194,0.0,1e-05,-2e-05,-1e-05,-5.9999999999999995e-05,0.0,-2e-05,-1e-05,1
4059,4195,2e-05,1e-05,-2.9999999999999997e-05,-2e-05,-4e-05,-1e-05,-2e-05,1e-05,1
4060,4196,0.0,-1e-05,-2.9999999999999997e-05,-2e-05,-4e-05,-1e-05,0.0,-1e-05,1
4061,4197,0.0,-1e-05,-2.9999999999999997e-05,-2e-05,-4e-05,-1e-05,0.0,-1e-05,1
4062,4198,0.0,-1e-05,-2.9999999999999997e-05,-2e-05,-4e-05,-1e-05,0.0,-1e-05,1
4063,4199,0.0,-1e-05,-2.9999999999999997e-05,-2e-05,-4e-05,-1e-05,0.0,-1e-05,1
4064,4200,0.0,-1e-05,-2.9999999999999997e-05,-2e-05,-4e-05,-1e-05,0.0,-1e-05,1
4065,4201,0.0,-1e-05,-2.9999999999999997e-05,-2e-05,-4e-05,-1e-05,0.0,-1e-05,1
4066,4202,0.0,-1e-05,-2.9999999999999997e-05,-2e-05,-4e-05,-1e-05,0.0,-1e-05,1
4067,4203,0.0,-1e-05,-2.9999999999999997e-05,-2e-05,-4e-05,-1e-05,0.0,-1e-05,1
4068,4204,0.0,-1e-05,-2.9999999999999997e-05,-2e-05,-4e-05,-1e-05,0.0,-1e-05,1
4069,4205,0.0,-1e-05,-2.9999999999999997e-05,-2e-05,-4e-05,-1e-05,0.0,-1e-05,1
4070,4206,0.0,-1e-05,-2.9999999999999997e-05,-2e-05,-4e-05,-1e-05,0.0,-1e-05,1
4071,4207,0.0,-1e-05,-2.9999999999999997e-05,-2e-05,-4e-05,-1e-05,0.0,-1e-05,1
4072,4208,0.0,-1e-05,-2.9999999999999997e-05,-2e-05,-4e-05,-1e-05,0.0,-1e-05,1
4073,4209,0.0,-1e-05,-2.9999999999999997e-05,-2e-05,-4e-05,-1e-05,0.0,-1e-05,1
4074,4210,0.0,-1e-05,-2.9999999999999997e-05,-2e-05,-4e-05,-1e-05,0.0,-1e-05,1
4075,4211,0.0,-1e-05,-2.9999999999999997e-05,-2e-05,-4e-05,-1e-05,0.0,-1e-05,1
4076,4212,0.0,-1e-05,-2.9999999999999997e-05,-2e-05,-4e-05,-1e-05,0.0,-1e-05,1
4077,4213,0.0,-1e-05,-2.9999999999999997e-05,-2e-05,-4e-05,-1e-05,0.0,-1e-05,1
4078,4214,0.0,-1e-05,-2.9999999999999997e-05,-2e-05,-4e-05,-1e-05,0.0,-1e-05,1
4079,4215,0.0,-1e-05,-2.9999999999999997e-05,-2e-05,-4e-05,-1e-05,0.0,-1e-05,1
4080,4216,0.0,-1e-05,-2.9999999999999997e-05,-2e-05,-4e-05,-1e-05,0.0,-1e-05,1
4081,4217,0.0,-2e-05,-4e-05,-1e-05,-1e-05,-2e-05,-1e-05,-1e-05,1
4082,4218,0.0,-2e-05,-4e-05,-1e-05,-1e-05,-2e-05,-1e-05,-1e-05,1
4083,4219,-1e-05,-1e-05,0.0,0.0,2.9999999999999997e-05,-2e-05,1e-05,0.0,1
4084,4220,-1e-05,-1e-05,0.0,0.0,2.9999999999999997e-05,-2e-05,1e-05,0.0,1
4085,4221,-1e-05,-1e-05,0.0,0.0,2.9999999999999997e-05,-2e-05,1e-05,0.0,1
4086,4222,-1e-05,-1e-05,0.0,0.0,2.9999999999999997e-05,-2e-05,1e-05,0.0,1
4087,4223,-1e-05,-1e-05,0.0,0.0,2.9999999999999997e-05,-2e-05,1e-05,0.0,1
4088,4224,-1e-05,-1e-05,0.0,0.0,2.9999999999999997e-05,-2e-05,1e-05,0.0,1
4089,4225,-1e-05,-1e-05,0.0,0.0,2.9999999999999997e-05,-2e-05,1e-05,0.0,1
4090,4226,-1e-05,-1e-05,0.0,0.0,2.9999999999999997e-05,-2e-05,1e-05,0.0,1
4091,4227,-1e-05,-1e-05,0.0,0.0,2.9999999999999997e-05,-2e-05,1e-05,0.0,1
4092,4228,-1e-05,-1e-05,0.0,0.0,2.9999999999999997e-05,-2e-05,1e-05,0.0,1
4093,4229,-1e-05,-1e-05,0.0,0.0,2.9999999999999997e-05,-2e-05,1e-05,0.0,1
4094,4230,-1e-05,-1e-05,0.0,0.0,2.9999999999999997e-05,-2e-05,1e-05,0.0,1
4095,4231,-1e-05,-1e-05,0.0,0.0,2.9999999999999997e-05,-2e-05,1e-05,0.0,1
4096,4233,-1e-05,-1e-05,0.0,0.0,2.9999999999999997e-05,-2e-05,1e-05,0.0,1
4097,4234,-1e-05,-1e-05,0.0,0.0,2.9999999999999997e-05,-2e-05,1e-05,0.0,1
4098,4235,-1e-05,-1e-05,0.0,0.0,2.9999999999999997e-05,-2e-05,1e-05,0.0,1
4099,4236,-1e-05,-1e-05,0.0,0.0,2.9999999999999997e-05,-2e-05,1e-05,0.0,1
4100,4238,-1e-05,-1e-05,0.0,0.0,2.9999999999999997e-05,-2e-05,1e-05,0.0,1
4101,4239,-1e-05,-1e-05,0.0,0.0,2.9999999999999997e-05,-2e-05,1e-05,0.0,1
4102,4240,-1e-05,-1e-05,0.0,0.0,2.9999999999999997e-05,-2e-05,1e-05,0.0,1
4103,4241,-1e-05,-1e-05,0.0,0.0,2.9999999999999997e-05,-2e-05,1e-05,0.0,1
4104,4242,-1e-05,-1e-05,0.0,0.0,2.9999999999999997e-05,-2e-05,1e-05,0.0,1
4105,4243,-1e-05,-1e-05,0.0,0.0,2.9999999999999997e-05,-2e-05,1e-05,0.0,1
4106,4244,-1e-05,-1e-05,0.0,0.0,2.9999999999999997e-05,-2e-05,1e-05,0.0,1
4107,4245,-1e-05,-1e-05,0.0,0.0,2.9999999999999997e-05,-2e-05,1e-05,0.0,1
4108,4246,-1e-05,-1e-05,0.0,0.0,2.9999999999999997e-05,-2e-05,1e-05,0.0,1
4109,4247,-2e-05,-2.9999999999999997e-05,-2.9999999999999997e-05,-1e-05,-2.9999999999999997e-05,-2e-05,-2e-05,-2.9999999999999997e-05,1
4110,4248,-2e-05,-2e-05,-2e-05,-2e-05,-1e-05,0.0,-1e-05,-1e-05,1
4111,4249,-2e-05,-2e-05,-2e-05,-2e-05,-1e-05,0.0,-1e-05,-1e-05,1
4112,4250,-2e-05,-2e-05,-2e-05,-2e-05,-1e-05,0.0,-1e-05,-1e-05,1
4113,4251,-2e-05,-2e-05,-2e-05,-2e-05,-1e-05,0.0,-1e-05,-1e-05,1
4114,4252,-2e-05,-2e-05,-2e-05,-2e-05,-1e-05,0.0,-1e-05,-1e-05,1
4115,4253,-2e-05,-2e-05,-2e-05,-2e-05,-1e-05,0.0,-1e-05,-1e-05,1
4116,4254,-2e-05,-2e-05,-2e-05,-2e-05,-1e-05,0.0,-1e-05,-1e-05,1
4117,4255,-2e-05,-2e-05,-2e-05,-2e-05,-1e-05,0.0,-1e-05,-1e-05,1
4118,4256,-2e-05,-2e-05,-2e-05,-2e-05,-1e-05,0.0,-1e-05,-1e-05,1
4119,4257,-2e-05,-2e-05,-2e-05,-2e-05,-1e-05,0.0,-1e-05,-1e-05,1
4120,4258,-2e-05,-2e-05,-2e-05,-2e-05,-1e-05,0.0,-1e-05,-1e-05,1
4121,4259,-2e-05,-2e-05,-2e-05,-2e-05,-1e-05,0.0,-1e-05,-1e-05,1
4122,4260,-2e-05,-2e-05,-2e-05,-2e-05,-1e-05,0.0,-1e-05,-1e-05,1
4123,4261,1e-05,-1e-05,-2.9999999999999997e-05,0.0,-2e-05,-2e-05,0.0,-2.9999999999999997e-05,1
4124,4262,1e-05,-1e-05,-2.9999999999999997e-05,0.0,-2e-05,-2e-05,0.0,-2.9999999999999997e-05,1
4125,4263,1e-05,1e-05,1e-05,-1e-05,-1e-05,2e-05,-1e-05,-2.9999999999999997e-05,1
4126,4264,1e-05,1e-05,1e-05,-1e-05,-1e-05,2e-05,-1e-05,-2.9999999999999997e-05,1
4127,4265,1e-05,1e-05,1e-05,-1e-05,-1e-05,2e-05,-1e-05,-2.9999999999999997e-05,1
4128,4266,1e-05,1e-05,1e-05,-1e-05,-1e-05,2e-05,-1e-05,-2.9999999999999997e-05,1
4129,4267,1e-05,1e-05,1e-05,-1e-05,-1e-05,2e-05,-1e-05,-2.9999999999999997e-05,1
4130,4268,2e-05,2e-05,1e-05,0.0,-1e-05,0.0,0.0,0.0,1
4131,4269,2e-05,2e-05,1e-05,0.0,-1e-05,0.0,0.0,0.0,1
4132,4270,2e-05,2e-05,1e-05,0.0,-1e-05,0.0,0.0,0.0,1
4133,4271,2e-05,2e-05,1e-05,0.0,-1e-05,0.0,0.0,0.0,1
4134,4272,2e-05,2e-05,1e-05,0.0,-1e-05,0.0,0.0,0.0,1
4135,4273,2e-05,2e-05,1e-05,0.0,-1e-05,0.0,0.0,0.0,1
4136,4274,2e-05,2e-05,1e-05,0.0,-1e-05,0.0,0.0,0.0,1
4137,4275,-1e-05,-2e-05,-2.9999999999999997e-05,-1e-05,-1e-05,-2e-05,-4e-05,0.0,1
4138,4276,-1e-05,-2e-05,-2.9999999999999997e-05,-1e-05,-1e-05,-2e-05,-4e-05,0.0,1
4139,4277,-1e-05,-2e-05,-2.9999999999999997e-05,-1e-05,-1e-05,-2e-05,-4e-05,0.0,1
4140,4278,-1e-05,-2e-05,-2.9999999999999997e-05,-1e-05,-1e-05,-2e-05,-4e-05,0.0,1
4141,4279,-1e-05,-2e-05,-2.9999999999999997e-05,-1e-05,-1e-05,-2e-05,-4e-05,0.0,1
4142,4280,-1e-05,-2e-05,-2.9999999999999997e-05,-1e-05,-1e-05,-2e-05,-4e-05,0.0,1
4143,4281,-1e-05,-2e-05,-2.9999999999999997e-05,-1e-05,-1e-05,-2e-05,-4e-05,0.0,1
4144,4282,-1e-05,-2e-05,-2.9999999999999997e-05,-1e-05,-1e-05,-2e-05,-4e-05,0.0,1
4145,4283,-1e-05,-2e-05,-2.9999999999999997e-05,-1e-05,-1e-05,-2e-05,-4e-05,0.0,1
4146,4284,-1e-05,-2e-05,-2.9999999999999997e-05,-1e-05,-1e-05,-2e-05,-4e-05,0.0,1
4147,4285,-1e-05,-2e-05,-2.9999999999999997e-05,-1e-05,-1e-05,-2e-05,-4e-05,0.0,1
4148,4286,-1e-05,-2e-05,-2.9999999999999997e-05,-1e-05,-1e-05,-2e-05,-4e-05,0.0,1
4149,4288,-1e-05,-2e-05,-2.9999999999999997e-05,-1e-05,-1e-05,-2e-05,-4e-05,0.0,1
4150,4289,-1e-05,-2e-05,-2.9999999999999997e-05,-1e-05,-1e-05,-2e-05,-4e-05,0.0,1
4151,4290,-1e-05,-2e-05,-2.9999999999999997e-05,-1e-05,-1e-05,-2e-05,-4e-05,0.0,1
4152,4291,-2e-05,-1e-05,-2e-05,-2.9999999999999997e-05,-2e-05,-1e-05,0.0,-1e-05,1
4153,4292,-2e-05,-1e-05,-2e-05,-2.9999999999999997e-05,-2e-05,-1e-05,0.0,-1e-05,1
4154,4293,-2e-05,-1e-05,-2e-05,-2.9999999999999997e-05,-2e-05,-1e-05,0.0,-1e-05,1
4155,4294,-2e-05,-1e-05,-2e-05,-2.9999999999999997e-05,-2e-05,-1e-05,0.0,-1e-05,1
4156,4295,-2e-05,-1e-05,-2e-05,-2.9999999999999997e-05,-2e-05,-1e-05,0.0,-1e-05,1
4157,4296,-2e-05,-1e-05,-2e-05,-2.9999999999999997e-05,-2e-05,-1e-05,0.0,-1e-05,1
4158,4297,-2e-05,-1e-05,-2e-05,-2.9999999999999997e-05,-2e-05,-1e-05,0.0,-1e-05,1
4159,4298,1e-05,1e-05,-4e-05,-4e-05,-1e-05,0.0,2e-05,-1e-05,1
4160,4299,1e-05,1e-05,-4e-05,-4e-05,-1e-05,0.0,2e-05,-1e-05,1
4161,4300,1e-05,1e-05,-4e-05,-4e-05,-1e-05,0.0,2e-05,-1e-05,1
4162,4301,1e-05,1e-05,-4e-05,-4e-05,-1e-05,0.0,2e-05,-1e-05,1
4163,4302,1e-05,1e-05,-4e-05,-4e-05,-1e-05,0.0,2e-05,-1e-05,1
4164,4303,1e-05,1e-05,-4e-05,-4e-05,-1e-05,0.0,2e-05,-1e-05,1
4165,4304,1e-05,1e-05,-4e-05,-4e-05,-1e-05,0.0,2e-05,-1e-05,1
4166,4305,1e-05,1e-05,-4e-05,-4e-05,-1e-05,0.0,2e-05,-1e-05,1
4167,4306,1e-05,1e-05,-4e-05,-4e-05,-1e-05,0.0,2e-05,-1e-05,1
4168,4307,1e-05,1e-05,-4e-05,-4e-05,-1e-05,0.0,2e-05,-1e-05,1
4169,4308,1e-05,1e-05,-4e-05,-4e-05,-1e-05,0.0,2e-05,-1e-05,1
4170,4309,1e-05,1e-05,-4e-05,-4e-05,-1e-05,0.0,2e-05,-1e-05,1
4171,4310,1e-05,1e-05,-4e-05,-4e-05,-1e-05,0.0,2e-05,-1e-05,1
4172,4311,1e-05,1e-05,-4e-05,-4e-05,-1e-05,0.0,2e-05,-1e-05,1
4173,4312,1e-05,1e-05,-4e-05,-4e-05,-1e-05,0.0,2e-05,-1e-05,1
4174,4313,1e-05,1e-05,-4e-05,-4e-05,-1e-05,0.0,2e-05,-1e-05,1
4175,4314,-4e-05,-8e-05,-9e-05,0.0,0.0001,2.9999999999999997e-05,-1e-05,-2.9999999999999997e-05,1
4176,4315,-1e-05,1e-05,1e-05,-1e-05,-1e-05,-2e-05,0.0,-2.9999999999999997e-05,1
4177,4316,-1e-05,1e-05,1e-05,-1e-05,-1e-05,-2e-05,0.0,-2.9999999999999997e-05,1
4178,4317,-1e-05,1e-05,1e-05,-1e-05,-1e-05,-2e-05,0.0,-2.9999999999999997e-05,1
4179,4318,-1e-05,1e-05,1e-05,-1e-05,-1e-05,-2e-05,0.0,-2.9999999999999997e-05,1
4180,4319,-1e-05,1e-05,1e-05,-1e-05,-1e-05,-2e-05,0.0,-2.9999999999999997e-05,1
4181,4320,-1e-05,1e-05,1e-05,-1e-05,-1e-05,-2e-05,0.0,-2.9999999999999997e-05,1
4182,4321,-1e-05,1e-05,1e-05,-1e-05,-1e-05,-2e-05,0.0,-2.9999999999999997e-05,1
4183,4322,-1e-05,1e-05,1e-05,-1e-05,-1e-05,-2e-05,0.0,-2.9999999999999997e-05,1
4184,4323,-1e-05,1e-05,1e-05,-1e-05,-1e-05,-2e-05,0.0,-2.9999999999999997e-05,1
4185,4324,-1e-05,1e-05,1e-05,-1e-05,-1e-05,-2e-05,0.0,-2.9999999999999997e-05,1
4186,4325,-1e-05,1e-05,1e-05,-1e-05,-1e-05,-2e-05,0.0,-2.9999999999999997e-05,1
4187,4326,-1e-05,1e-05,1e-05,-1e-05,-1e-05,-2e-05,0.0,-2.9999999999999997e-05,1
4188,4327,-1e-05,1e-05,1e-05,-1e-05,-1e-05,-2e-05,0.0,-2.9999999999999997e-05,1
4189,4328,0.0,-1e-05,-1e-05,-2.9999999999999997e-05,0.0,1e-05,-2e-05,0.0,1
4190,4329,0.0,-1e-05,-1e-05,-2.9999999999999997e-05,0.0,1e-05,-2e-05,0.0,1
4191,4330,0.0,-1e-05,-1e-05,-2.9999999999999997e-05,0.0,1e-05,-2e-05,0.0,1
4192,4331,0.0,-1e-05,-1e-05,-2.9999999999999997e-05,0.0,1e-05,-2e-05,0.0,1
4193,4332,0.0,-1e-05,-1e-05,-2.9999999999999997e-05,0.0,1e-05,-2e-05,0.0,1
4194,4333,0.0,-1e-05,-1e-05,-2.9999999999999997e-05,0.0,1e-05,-2e-05,0.0,1
4195,4334,0.0,-1e-05,-1e-05,-2.9999999999999997e-05,0.0,1e-05,-2e-05,0.0,1
4196,4335,-1e-05,1e-05,-1e-05,0.0,-4e-05,-4e-05,-1e-05,-2.9999999999999997e-05,1
4197,4336,-1e-05,1e-05,-1e-05,0.0,-4e-05,-4e-05,-1e-05,-2.9999999999999997e-05,1
4198,4338,-1e-05,1e-05,-1e-05,0.0,-4e-05,-4e-05,-1e-05,-2.9999999999999997e-05,1
4199,4339,-1e-05,1e-05,-1e-05,0.0,-4e-05,-4e-05,-1e-05,-2.9999999999999997e-05,1
4200,4340,-1e-05,1e-05,-1e-05,0.0,-4e-05,-4e-05,-1e-05,-2.9999999999999997e-05,1
4201,4341,-1e-05,1e-05,-1e-05,0.0,-4e-05,-4e-05,-1e-05,-2.9999999999999997e-05,1
4202,4342,-1e-05,1e-05,-1e-05,0.0,-4e-05,-4e-05,-1e-05,-2.9999999999999997e-05,1
4203,4343,-1e-05,1e-05,-1e-05,0.0,-4e-05,-4e-05,-1e-05,-2.9999999999999997e-05,1
4204,4344,-1e-05,1e-05,-1e-05,0.0,-4e-05,-4e-05,-1e-05,-2.9999999999999997e-05,1
4205,4345,-1e-05,1e-05,-1e-05,0.0,-4e-05,-4e-05,-1e-05,-2.9999999999999997e-05,1
4206,4346,-1e-05,1e-05,-1e-05,0.0,-4e-05,-4e-05,-1e-05,-2.9999999999999997e-05,1
4207,4347,-1e-05,1e-05,-1e-05,0.0,-4e-05,-4e-05,-1e-05,-2.9999999999999997e-05,1
4208,4348,-1e-05,1e-05,-1e-05,0.0,-4e-05,-4e-05,-1e-05,-2.9999999999999997e-05,1
4209,4349,-1e-05,1e-05,-1e-05,0.0,-4e-05,-4e-05,-1e-05,-2.9999999999999997e-05,1
4210,4350,-1e-05,1e-05,-1e-05,0.0,-4e-05,-4e-05,-1e-05,-2.9999999999999997e-05,1
4211,4351,-4e-05,-5e-05,-2.9999999999999997e-05,-1e-05,-2e-05,-2.9999999999999997e-05,-2.9999999999999997e-05,-2e-05,1
4212,4352,-4e-05,-5e-05,-2.9999999999999997e-05,-1e-05,-2e-05,-2.9999999999999997e-05,-2.9999999999999997e-05,-2e-05,1
4213,4353,-4e-05,-5e-05,-2.9999999999999997e-05,-1e-05,-2e-05,-2.9999999999999997e-05,-2.9999999999999997e-05,-2e-05,1
4214,4354,-4e-05,-5e-05,-2.9999999999999997e-05,-1e-05,-2e-05,-2.9999999999999997e-05,-2.9999999999999997e-05,-2e-05,1
4215,4355,-4e-05,-5e-05,-2.9999999999999997e-05,-1e-05,-2e-05,-2.9999999999999997e-05,-2.9999999999999997e-05,-2e-05,1
4216,4356,-4e-05,-5e-05,-2.9999999999999997e-05,-1e-05,-2e-05,-2.9999999999999997e-05,-2.9999999999999997e-05,-2e-05,1
4217,4357,2.9999999999999997e-05,4e-05,4e-05,2e-05,-2.9999999999999997e-05,-2.9999999999999997e-05,-1e-05,-2e-05,1
4218,4358,-2e-05,-2e-05,-2.9999999999999997e-05,-1e-05,0.0,0.0,0.0,-1e-05,1
4219,4359,-2e-05,-2e-05,-2.9999999999999997e-05,-1e-05,0.0,0.0,0.0,-1e-05,1
