,time,channel1,channel2,channel3,channel4,channel5,channel6,channel7,channel8,class
2947,3095,-1e-05,-1e-05,-2e-05,-2e-05,-2.9999999999999997e-05,-1e-05,-1e-05,-1e-05,1
2948,3096,-1e-05,-1e-05,-2e-05,-2e-05,-2.9999999999999997e-05,-1e-05,-1e-05,-1e-05,1
2949,3097,-1e-05,-1e-05,-2e-05,-2e-05,-2.9999999999999997e-05,-1e-05,-1e-05,-1e-05,1
2950,3098,-1e-05,-1e-05,-2e-05,-2e-05,-2.9999999999999997e-05,-1e-05,-1e-05,-1e-05,1
2951,3099,-1e-05,-1e-05,-2e-05,-2e-05,-2.9999999999999997e-05,-1e-05,-1e-05,-1e-05,1
2952,3100,-1e-05,-1e-05,-2e-05,-2e-05,-2.9999999999999997e-05,-1e-05,-1e-05,-1e-05,1
2953,3101,-1e-05,-1e-05,-2e-05,-2e-05,-2.9999999999999997e-05,-1e-05,-1e-05,-1e-05,1
2954,3102,-1e-05,-1e-05,-2e-05,-2e-05,-2.9999999999999997e-05,-1e-05,-1e-05,-1e-05,1
2955,3103,-1e-05,-1e-05,-2e-05,-2e-05,-2.9999999999999997e-05,-1e-05,-1e-05,-1e-05,1
2956,3104,-1e-05,-1e-05,-2e-05,-2e-05,-2.9999999999999997e-05,-1e-05,-1e-05,-1e-05,1
2957,3105,-1e-05,-1e-05,-2e-05,-2e-05,-2.9999999999999997e-05,-1e-05,-1e-05,-1e-05,1
2958,3106,-1e-05,-1e-05,-2e-05,-2e-05,-2.9999999999999997e-05,-1e-05,-1e-05,-1e-05,1
2959,3107,1e-05,-1e-05,-1e-05,-2.9999999999999997e-05,-5.9999999999999995e-05,-4e-05,0.0,0.0,1
2960,3108,0.0,-1e-05,-1e-05,0.0,-2e-05,-1e-05,-2e-05,1e-05,1
2961,3109,-1e-05,0.0,-2e-05,-2e-05,-2e-05,-4e-05,0.0,-1e-05,1
2962,3110,-1e-05,0.0,-2e-05,-2e-05,-2e-05,-4e-05,0.0,-1e-05,1
2963,3111,-1e-05,0.0,-2e-05,-2e-05,-2e-05,-4e-05,0.0,-1e-05,1
2964,3112,-1e-05,0.0,-2e-05,-2e-05,-2e-05,-4e-05,0.0,-1e-05,1
2965,3113,-1e-05,0.0,-2e-05,-2e-05,-2e-05,-4e-05,0.0,-1e-05,1
2966,3114,-1e-05,0.0,-2e-05,-2e-05,-2e-05,-4e-05,0.0,-1e-05,1
2967,3115,-1e-05,0.0,-2e-05,-2e-05,-2e-05,-4e-05,0.0,-1e-05,1
2968,3116,-1e-05,0.0,-2e-05,-2e-05,-2e-05,-4e-05,0.0,-1e-05,1
2969,3117,-1e-05,0.0,-2e-05,-2e-05,-2e-05,-4e-05,0.0,-1e-05,1
2970,3118,-1e-05,0.0,-2e-05,-2e-05,-2e-05,-4e-05,0.0,-1e-05,1
2971,3119,-1e-05,0.0,-2e-05,-2e-05,-2e-05,-4e-05,0.0,-1e-05,1
2972,3120,-1e-05,0.0,-2e-05,-2e-05,-2e-05,-4e-05,0.0,-1e-05,1
2973,3121,-2e-05,-1e-05,-1e-05,-1e-05,2e-05,2e-05,0.0,-2e-05,1
2974,3122,-2e-05,-1e-05,-1e-05,-1e-05,2e-05,2e-05,0.0,-2e-05,1
2975,3123,-2e-05,-1e-05,-1e-05,-1e-05,2e-05,2e-05,0.0,-2e-05,1
2976,3124,-2e-05,-1e-05,-1e-05,-1e-05,2e-05,2e-05,0.0,-2e-05,1
2977,3125,-2e-05,-1e-05,-1e-05,-1e-05,2e-05,2e-05,0.0,-2e-05,1
2978,3126,-2e-05,-1e-05,-1e-05,-1e-05,2e-05,2e-05,0.0,-2e-05,1
2979,3127,-2e-05,-1e-05,-1e-05,-1e-05,2e-05,2e-05,0.0,-2e-05,1
2980,3128,-2e-05,-1e-05,-1e-05,-1e-05,2e-05,2e-05,0.0,-2e-05,1
2981,3129,-2e-05,-1e-05,-1e-05,-1e-05,2e-05,2e-05,0.0,-2e-05,1
2982,3130,0.0,0.0,0.0,-2e-05,-2e-05,-1e-05,-2.9999999999999997e-05,-1e-05,1
2983,3131,0.0,0.0,0.0,-2e-05,-2e-05,-1e-05,-2.9999999999999997e-05,-1e-05,1
2984,3132,0.0,0.0,0.0,-2e-05,-2e-05,-1e-05,-2.9999999999999997e-05,-1e-05,1
2985,3133,0.0,0.0,0.0,-2e-05,-2e-05,-1e-05,-2.9999999999999997e-05,-1e-05,1
2986,3134,0.0,0.0,0.0,-2e-05,-2e-05,-1e-05,-2.9999999999999997e-05,-1e-05,1
2987,3135,0.0,0.0,0.0,-2e-05,-2e-05,-1e-05,-2.9999999999999997e-05,-1e-05,1
2988,3136,0.0,0.0,0.0,-2e-05,-2e-05,-1e-05,-2.9999999999999997e-05,-1e-05,1
2989,3138,0.0,0.0,0.0,-2e-05,-2e-05,-1e-05,-2.9999999999999997e-05,-1e-05,1
2990,3139,0.0,0.0,0.0,-2e-05,-2e-05,-1e-05,-2.9999999999999997e-05,-1e-05,1
2991,3140,0.0,0.0,0.0,-2e-05,-2e-05,-1e-05,-2.9999999999999997e-05,-1e-05,1
2992,3141,0.0,0.0,0.0,-2e-05,-2e-05,-1e-05,-2.9999999999999997e-05,-1e-05,1
2993,3142,0.0,0.0,0.0,-2e-05,-2e-05,-1e-05,-2.9999999999999997e-05,-1e-05,1
2994,3143,0.0,0.0,0.0,-2e-05,-2e-05,-1e-05,-2.9999999999999997e-05,-1e-05,1
2995,3144,0.0,0.0,0.0,-2e-05,-2e-05,-1e-05,-2.9999999999999997e-05,-1e-05,1
2996,3145,-2e-05,-2e-05,-4e-05,-4e-05,-5e-05,-4e-05,-5e-05,-1e-05,1
2997,3146,-2e-05,-2e-05,-4e-05,-4e-05,-5e-05,-4e-05,-5e-05,-1e-05,1
2998,3147,-2e-05,-1e-05,-2e-05,1e-05,2.9999999999999997e-05,2.9999999999999997e-05,1e-05,-1e-05,1
2999,3148,-2e-05,-1e-05,-2e-05,1e-05,2.9999999999999997e-05,2.9999999999999997e-05,1e-05,-1e-05,1
3000,3149,-2e-05,-1e-05,-2e-05,1e-05,2.9999999999999997e-05,2.9999999999999997e-05,1e-05,-1e-05,1
3001,3150,-2e-05,-1e-05,-2e-05,1e-05,2.9999999999999997e-05,2.9999999999999997e-05,1e-05,-1e-05,1
3002,3151,-2e-05,-1e-05,-2e-05,1e-05,2.9999999999999997e-05,2.9999999999999997e-05,1e-05,-1e-05,1
3003,3152,-2e-05,-1e-05,-2e-05,1e-05,2.9999999999999997e-05,2.9999999999999997e-05,1e-05,-1e-05,1
3004,3153,-2e-05,-1e-05,-2e-05,1e-05,2.9999999999999997e-05,2.9999999999999997e-05,1e-05,-1e-05,1
3005,3154,-2e-05,-1e-05,-2e-05,1e-05,2.9999999999999997e-05,2.9999999999999997e-05,1e-05,-1e-05,1
3006,3155,-2e-05,-1e-05,-2e-05,1e-05,2.9999999999999997e-05,2.9999999999999997e-05,1e-05,-1e-05,1
3007,3156,-2e-05,-1e-05,-2e-05,1e-05,2.9999999999999997e-05,2.9999999999999997e-05,1e-05,-1e-05,1
3008,3157,-2e-05,-1e-05,-2e-05,1e-05,2.9999999999999997e-05,2.9999999999999997e-05,1e-05,-1e-05,1
3009,3158,-2e-05,-1e-05,-2e-05,1e-05,2.9999999999999997e-05,2.9999999999999997e-05,1e-05,-1e-05,1
3010,3159,-2e-05,-1e-05,-2e-05,1e-05,2.9999999999999997e-05,2.9999999999999997e-05,1e-05,-1e-05,1
3011,3160,-2e-05,-1e-05,-2e-05,1e-05,2.9999999999999997e-05,2.9999999999999997e-05,1e-05,-1e-05,1
3012,3161,-2e-05,-1e-05,-2e-05,1e-05,2.9999999999999997e-05,2.9999999999999997e-05,1e-05,-1e-05,1
3013,3162,-2e-05,-1e-05,-2e-05,1e-05,2.9999999999999997e-05,2.9999999999999997e-05,1e-05,-1e-05,1
3014,3163,-2e-05,-1e-05,-2e-05,1e-05,2.9999999999999997e-05,2.9999999999999997e-05,1e-05,-1e-05,1
3015,3164,-2e-05,-1e-05,-2e-05,1e-05,2.9999999999999997e-05,2.9999999999999997e-05,1e-05,-1e-05,1
3016,3165,-2e-05,-1e-05,-2e-05,1e-05,2.9999999999999997e-05,2.9999999999999997e-05,1e-05,-1e-05,1
3017,3166,-2e-05,-1e-05,-2e-05,1e-05,2.9999999999999997e-05,2.9999999999999997e-05,1e-05,-1e-05,1
3018,3167,-2e-05,-1e-05,-2e-05,1e-05,2.9999999999999997e-05,2.9999999999999997e-05,1e-05,-1e-05,1
3019,3168,0.0,-2e-05,-2.9999999999999997e-05,-2e-05,-2e-05,-4e-05,0.0,0.0,1
3020,3169,-2e-05,1e-05,0.0,1e-05,2e-05,2e-05,-1e-05,0.0,1
3021,3170,-2e-05,1e-05,0.0,1e-05,2e-05,2e-05,-1e-05,0.0,1
3022,3171,-2e-05,1e-05,0.0,1e-05,2e-05,2e-05,-1e-05,0.0,1
3023,3172,-2e-05,1e-05,0.0,1e-05,2e-05,2e-05,-1e-05,0.0,1
3024,3173,-2e-05,1e-05,0.0,1e-05,2e-05,2e-05,-1e-05,0.0,1
3025,3174,-2e-05,1e-05,0.0,1e-05,2e-05,2e-05,-1e-05,0.0,1
3026,3175,-2e-05,1e-05,0.0,1e-05,2e-05,2e-05,-1e-05,0.0,1
3027,3176,-2e-05,1e-05,0.0,1e-05,2e-05,2e-05,-1e-05,0.0,1
3028,3177,-2e-05,1e-05,0.0,1e-05,2e-05,2e-05,-1e-05,0.0,1
3029,3178,-2e-05,1e-05,0.0,1e-05,2e-05,2e-05,-1e-05,0.0,1
3030,3179,-2e-05,1e-05,0.0,1e-05,2e-05,2e-05,-1e-05,0.0,1
3031,3180,-2e-05,1e-05,0.0,1e-05,2e-05,2e-05,-1e-05,0.0,1
3032,3181,-2e-05,1e-05,0.0,1e-05,2e-05,2e-05,-1e-05,0.0,1
3033,3182,-2e-05,1e-05,0.0,1e-05,2e-05,2e-05,-1e-05,0.0,1
3034,3183,-2e-05,1e-05,0.0,1e-05,2e-05,2e-05,-1e-05,0.0,1
3035,3184,-2e-05,1e-05,0.0,1e-05,2e-05,2e-05,-1e-05,0.0,1
3036,3185,-2e-05,1e-05,0.0,1e-05,2e-05,2e-05,-1e-05,0.0,1
3037,3186,-2e-05,1e-05,0.0,1e-05,2e-05,2e-05,-1e-05,0.0,1
3038,3188,-2e-05,1e-05,0.0,1e-05,2e-05,2e-05,-1e-05,0.0,1
3039,3189,-2e-05,1e-05,0.0,1e-05,2e-05,2e-05,-1e-05,0.0,1
3040,3190,-1e-05,0.0,0.0,0.0,0.0,1e-05,0.0,1e-05,1
3041,3191,-1e-05,0.0,0.0,0.0,0.0,1e-05,0.0,1e-05,1
3042,3192,2e-05,-2e-05,-2e-05,-1e-05,-2e-05,0.0,0.0,0.0,1
3043,3193,2e-05,-2e-05,-2e-05,-1e-05,-2e-05,0.0,0.0,0.0,1
3044,3194,2e-05,-2e-05,-2e-05,-1e-05,-2e-05,0.0,0.0,0.0,1
3045,3195,2e-05,-2e-05,-2e-05,-1e-05,-2e-05,0.0,0.0,0.0,1
3046,3196,2e-05,-2e-05,-2e-05,-1e-05,-2e-05,0.0,0.0,0.0,1
3047,3197,2e-05,-2e-05,-2e-05,-1e-05,-2e-05,0.0,0.0,0.0,1
3048,3198,2e-05,-2e-05,-2e-05,-1e-05,-2e-05,0.0,0.0,0.0,1
3049,3199,2e-05,-2e-05,-2e-05,-1e-05,-2e-05,0.0,0.0,0.0,1
3050,3200,2e-05,-2e-05,-2e-05,-1e-05,-2e-05,0.0,0.0,0.0,1
3051,3201,2e-05,-2e-05,-2e-05,-1e-05,-2e-05,0.0,0.0,0.0,1
3052,3202,2e-05,-2e-05,-2e-05,-1e-05,-2e-05,0.0,0.0,0.0,1
3053,3203,2e-05,-2e-05,-2e-05,-1e-05,-2e-05,0.0,0.0,0.0,1
3054,3204,2e-05,-2e-05,-2e-05,-1e-05,-2e-05,0.0,0.0,0.0,1
3055,3205,1e-05,0.0,-2e-05,0.0,0.0,0.0,-1e-05,0.0,1
3056,3206,1e-05,0.0,-2e-05,0.0,0.0,0.0,-1e-05,0.0,1
3057,3207,-2e-05,-1e-05,-2e-05,-1e-05,-2e-05,-2e-05,-2.9999999999999997e-05,-2e-05,1
3058,3208,-2e-05,-1e-05,-2e-05,-1e-05,-2e-05,-2e-05,-2.9999999999999997e-05,-2e-05,1
3059,3209,-2e-05,-1e-05,-2e-05,-1e-05,-2e-05,-2e-05,-2.9999999999999997e-05,-2e-05,1
3060,3210,-2e-05,-1e-05,-2e-05,-1e-05,-2e-05,-2e-05,-2.9999999999999997e-05,-2e-05,1
3061,3211,-2e-05,-1e-05,-2e-05,-1e-05,-2e-05,-2e-05,-2.9999999999999997e-05,-2e-05,1
3062,3212,-2e-05,-1e-05,-2e-05,-1e-05,-2e-05,-2e-05,-2.9999999999999997e-05,-2e-05,1
3063,3213,-2e-05,-1e-05,-2e-05,-1e-05,-2e-05,-2e-05,-2.9999999999999997e-05,-2e-05,1
3064,3214,-2e-05,-1e-05,-2e-05,-1e-05,-2e-05,-2e-05,-2.9999999999999997e-05,-2e-05,1
3065,3215,-2e-05,-1e-05,-2e-05,-1e-05,-2e-05,-2e-05,-2.9999999999999997e-05,-2e-05,1
3066,3216,-2e-05,-1e-05,-2e-05,-1e-05,-2e-05,-2e-05,-2.9999999999999997e-05,-2e-05,1
3067,3217,-2e-05,-1e-05,-2e-05,-1e-05,-2e-05,-2e-05,-2.9999999999999997e-05,-2e-05,1
3068,3218,-2e-05,-1e-05,-2e-05,-1e-05,-2e-05,-2e-05,-2.9999999999999997e-05,-2e-05,1
3069,3219,-2e-05,-1e-05,-2e-05,-1e-05,-2e-05,-2e-05,-2.9999999999999997e-05,-2e-05,1
3070,3220,-2e-05,-1e-05,-2e-05,-1e-05,-2e-05,-2e-05,-2.9999999999999997e-05,-2e-05,1
3071,3221,-2e-05,-1e-05,-2e-05,-1e-05,-2e-05,-2e-05,-2.9999999999999997e-05,-2e-05,1
3072,3222,-2e-05,-1e-05,-2e-05,-1e-05,-2e-05,-2e-05,-2.9999999999999997e-05,-2e-05,1
3073,3223,-2e-05,-1e-05,-2e-05,-1e-05,-2e-05,-2e-05,-2.9999999999999997e-05,-2e-05,1
3074,3224,-2e-05,-1e-05,-2e-05,-1e-05,-2e-05,-2e-05,-2.9999999999999997e-05,-2e-05,1
3075,3225,-2e-05,-1e-05,-2e-05,-1e-05,-2e-05,-2e-05,-2.9999999999999997e-05,-2e-05,1
3076,3226,-2e-05,-1e-05,-2e-05,-1e-05,-2e-05,-2e-05,-2.9999999999999997e-05,-2e-05,1
3077,3227,-2e-05,-1e-05,-2e-05,-1e-05,-2e-05,-2e-05,-2.9999999999999997e-05,-2e-05,1
3078,3228,-2.9999999999999997e-05,-1e-05,-1e-05,-1e-05,0.0,1e-05,1e-05,-2e-05,1
3079,3229,-2e-05,0.0,0.0,-2e-05,0.0,-1e-05,-1e-05,0.0,1
3080,3230,-2e-05,0.0,0.0,-2e-05,0.0,-1e-05,-1e-05,0.0,1
3081,3231,-2e-05,0.0,0.0,-2e-05,0.0,-1e-05,-1e-05,0.0,1
3082,3232,-2e-05,0.0,0.0,-2e-05,0.0,-1e-05,-1e-05,0.0,1
3083,3233,-2e-05,0.0,0.0,-2e-05,0.0,-1e-05,-1e-05,0.0,1
3084,3234,-2e-05,0.0,0.0,-2e-05,0.0,-1e-05,-1e-05,0.0,1
3085,3235,-2e-05,0.0,0.0,-2e-05,0.0,-1e-05,-1e-05,0.0,1
3086,3236,-2e-05,0.0,0.0,-2e-05,0.0,-1e-05,-1e-05,0.0,1
3087,3238,-2e-05,0.0,0.0,-2e-05,0.0,-1e-05,-1e-05,0.0,1
3088,3239,-2e-05,0.0,0.0,-2e-05,0.0,-1e-05,-1e-05,0.0,1
3089,3240,-2e-05,0.0,0.0,-2e-05,0.0,-1e-05,-1e-05,0.0,1
3090,3241,0.0,-2.9999999999999997e-05,1e-05,0.0,1e-05,2e-05,0.0,0.0,1
3091,3242,0.0,-2.9999999999999997e-05,1e-05,0.0,1e-05,2e-05,0.0,0.0,1
3092,3243,0.0,-2.9999999999999997e-05,1e-05,0.0,1e-05,2e-05,0.0,0.0,1
3093,3244,0.0,-2.9999999999999997e-05,1e-05,0.0,1e-05,2e-05,0.0,0.0,1
3094,3245,0.0,-2.9999999999999997e-05,1e-05,0.0,1e-05,2e-05,0.0,0.0,1
3095,3246,0.0,-2.9999999999999997e-05,1e-05,0.0,1e-05,2e-05,0.0,0.0,1
3096,3247,0.0,-2.9999999999999997e-05,1e-05,0.0,1e-05,2e-05,0.0,0.0,1
3097,3248,0.0,-2.9999999999999997e-05,1e-05,0.0,1e-05,2e-05,0.0,0.0,1
3098,3249,0.0,-2.9999999999999997e-05,1e-05,0.0,1e-05,2e-05,0.0,0.0,1
3099,3250,0.0,0.0,-1e-05,-1e-05,-2.9999999999999997e-05,-2.9999999999999997e-05,-2e-05,-2e-05,1
3100,3251,0.0,0.0,-1e-05,-1e-05,-2.9999999999999997e-05,-2.9999999999999997e-05,-2e-05,-2e-05,1
3101,3252,0.0,0.0,-1e-05,-1e-05,-2.9999999999999997e-05,-2.9999999999999997e-05,-2e-05,-2e-05,1
3102,3253,0.0,0.0,-1e-05,-1e-05,-2.9999999999999997e-05,-2.9999999999999997e-05,-2e-05,-2e-05,1
3103,3254,0.0,0.0,-1e-05,-1e-05,-2.9999999999999997e-05,-2.9999999999999997e-05,-2e-05,-2e-05,1
3104,3255,0.0,0.0,-1e-05,-1e-05,-2.9999999999999997e-05,-2.9999999999999997e-05,-2e-05,-2e-05,1
3105,3256,0.0,0.0,-1e-05,-1e-05,-2.9999999999999997e-05,-2.9999999999999997e-05,-2e-05,-2e-05,1
3106,3257,0.0,0.0,-1e-05,-1e-05,-2.9999999999999997e-05,-2.9999999999999997e-05,-2e-05,-2e-05,1
3107,3258,0.0,0.0,-1e-05,-1e-05,-2.9999999999999997e-05,-2.9999999999999997e-05,-2e-05,-2e-05,1
3108,3259,0.0,0.0,-1e-05,-1e-05,-2.9999999999999997e-05,-2.9999999999999997e-05,-2e-05,-2e-05,1
3109,3260,0.0,0.0,-1e-05,-1e-05,-2.9999999999999997e-05,-2.9999999999999997e-05,-2e-05,-2e-05,1
3110,3261,0.0,0.0,-1e-05,-1e-05,-2.9999999999999997e-05,-2.9999999999999997e-05,-2e-05,-2e-05,1
3111,3262,0.0,0.0,-1e-05,-1e-05,-2.9999999999999997e-05,-2.9999999999999997e-05,-2e-05,-2e-05,1
3112,3263,0.0,0.0,-1e-05,-1e-05,-2.9999999999999997e-05,-2.9999999999999997e-05,-2e-05,-2e-05,1
3113,3264,0.0,0.0,-1e-05,-1e-05,-2.9999999999999997e-05,-2.9999999999999997e-05,-2e-05,-2e-05,1
3114,3265,0.0,0.0,-1e-05,-1e-05,-2.9999999999999997e-05,-2.9999999999999997e-05,-2e-05,-2e-05,1
3115,3266,0.0,-2e-05,0.0,-2e-05,-1e-05,2e-05,-1e-05,-1e-05,1
3116,3267,0.0,-2e-05,0.0,-2e-05,-1e-05,2e-05,-1e-05,-1e-05,1
3117,3268,0.0,-2e-05,0.0,-2e-05,-1e-05,2e-05,-1e-05,-1e-05,1
3118,3269,0.0,-2e-05,0.0,-2e-05,-1e-05,2e-05,-1e-05,-1e-05,1
3119,3270,0.0,-2e-05,0.0,-2e-05,-1e-05,2e-05,-1e-05,-1e-05,1
3120,3271,-1e-05,-2e-05,-2e-05,0.0,-2.9999999999999997e-05,-2.9999999999999997e-05,-2.9999999999999997e-05,1e-05,1
3121,3272,-1e-05,-2e-05,-2e-05,0.0,-2.9999999999999997e-05,-2.9999999999999997e-05,-2.9999999999999997e-05,1e-05,1
3122,3273,-1e-05,-2e-05,-2e-05,0.0,-2.9999999999999997e-05,-2.9999999999999997e-05,-2.9999999999999997e-05,1e-05,1
3123,3274,-1e-05,-2e-05,-2e-05,0.0,-2.9999999999999997e-05,-2.9999999999999997e-05,-2.9999999999999997e-05,1e-05,1
3124,3275,-1e-05,-2e-05,-2e-05,0.0,-2.9999999999999997e-05,-2.9999999999999997e-05,-2.9999999999999997e-05,1e-05,1
3125,3276,-1e-05,-2e-05,-2e-05,0.0,-2.9999999999999997e-05,-2.9999999999999997e-05,-2.9999999999999997e-05,1e-05,1
3126,3277,-1e-05,-2e-05,-2e-05,0.0,-2.9999999999999997e-05,-2.9999999999999997e-05,-2.9999999999999997e-05,1e-05,1
3127,3278,-1e-05,-2e-05,-2e-05,0.0,-2.9999999999999997e-05,-2.9999999999999997e-05,-2.9999999999999997e-05,1e-05,1
3128,3279,-1e-05,-2e-05,-2e-05,0.0,-2.9999999999999997e-05,-2.9999999999999997e-05,-2.9999999999999997e-05,1e-05,1
3129,3280,-1e-05,-2e-05,-2e-05,0.0,-2.9999999999999997e-05,-2.9999999999999997e-05,-2.9999999999999997e-05,1e-05,1
3130,3281,-1e-05,-2e-05,-2e-05,0.0,-2.9999999999999997e-05,-2.9999999999999997e-05,-2.9999999999999997e-05,1e-05,1
3131,3282,-1e-05,-2e-05,-2e-05,0.0,-2.9999999999999997e-05,-2.9999999999999997e-05,-2.9999999999999997e-05,1e-05,1
3132,3283,-1e-05,-2e-05,-2e-05,0.0,-2.9999999999999997e-05,-2.9999999999999997e-05,-2.9999999999999997e-05,1e-05,1
3133,3284,-1e-05,-2e-05,-2e-05,0.0,-2.9999999999999997e-05,-2.9999999999999997e-05,-2.9999999999999997e-05,1e-05,1
3134,3285,-1e-05,-2e-05,-2e-05,0.0,-2.9999999999999997e-05,-2.9999999999999997e-05,-2.9999999999999997e-05,1e-05,1
3135,3286,-1e-05,-2e-05,-2e-05,0.0,-2.9999999999999997e-05,-2.9999999999999997e-05,-2.9999999999999997e-05,1e-05,1
3136,3288,-1e-05,-2e-05,-2e-05,0.0,-2.9999999999999997e-05,-2.9999999999999997e-05,-2.9999999999999997e-05,1e-05,1
3137,3289,-1e-05,-2e-05,-2e-05,0.0,-2.9999999999999997e-05,-2.9999999999999997e-05,-2.9999999999999997e-05,1e-05,1
3138,3290,-1e-05,-2e-05,-2e-05,0.0,-2.9999999999999997e-05,-2.9999999999999997e-05,-2.9999999999999997e-05,1e-05,1
3139,3291,-1e-05,-2e-05,-2e-05,0.0,-2.9999999999999997e-05,-2.9999999999999997e-05,-2.9999999999999997e-05,1e-05,1
3140,3292,-1e-05,-2e-05,-2e-05,0.0,-2.9999999999999997e-05,-2.9999999999999997e-05,-2.9999999999999997e-05,1e-05,1
3141,3293,-1e-05,-2e-05,-2e-05,0.0,-2.9999999999999997e-05,-2.9999999999999997e-05,-2.9999999999999997e-05,1e-05,1
3142,3294,-1e-05,-2e-05,-2e-05,0.0,-2.9999999999999997e-05,-2.9999999999999997e-05,-2.9999999999999997e-05,1e-05,1
3143,3295,0.0,0.0,-1e-05,-1e-05,-4e-05,-5e-05,-1e-05,1e-05,1
3144,3296,0.0,0.0,-1e-05,-1e-05,-4e-05,-5e-05,-1e-05,1e-05,1
3145,3297,0.0,0.0,-1e-05,-1e-05,-4e-05,-5e-05,-1e-05,1e-05,1
3146,3298,-2.9999999999999997e-05,0.0,1e-05,0.0,2e-05,1e-05,1e-05,-1e-05,1
3147,3299,-2.9999999999999997e-05,0.0,1e-05,0.0,2e-05,1e-05,1e-05,-1e-05,1
3148,3300,-2.9999999999999997e-05,0.0,1e-05,0.0,2e-05,1e-05,1e-05,-1e-05,1
3149,3301,-2.9999999999999997e-05,-1e-05,-2e-05,-1e-05,-2e-05,-2e-05,-2e-05,-2.9999999999999997e-05,1
3150,3302,-2.9999999999999997e-05,-1e-05,-2e-05,-1e-05,-2e-05,-2e-05,-2e-05,-2.9999999999999997e-05,1
3151,3303,-2.9999999999999997e-05,-1e-05,-2e-05,-1e-05,-2e-05,-2e-05,-2e-05,-2.9999999999999997e-05,1
3152,3304,-2.9999999999999997e-05,-1e-05,-2e-05,-1e-05,-2e-05,-2e-05,-2e-05,-2.9999999999999997e-05,1
3153,3305,-2.9999999999999997e-05,-1e-05,-2e-05,-1e-05,-2e-05,-2e-05,-2e-05,-2.9999999999999997e-05,1
3154,3306,-2.9999999999999997e-05,-1e-05,-2e-05,-1e-05,-2e-05,-2e-05,-2e-05,-2.9999999999999997e-05,1
3155,3307,-2.9999999999999997e-05,-1e-05,-2e-05,-1e-05,-2e-05,-2e-05,-2e-05,-2.9999999999999997e-05,1
3156,3308,-2.9999999999999997e-05,-1e-05,-2e-05,-1e-05,-2e-05,-2e-05,-2e-05,-2.9999999999999997e-05,1
3157,3309,-2.9999999999999997e-05,-1e-05,-2e-05,-1e-05,-2e-05,-2e-05,-2e-05,-2.9999999999999997e-05,1
3158,3310,-1e-05,-2e-05,-2.9999999999999997e-05,-2e-05,-1e-05,0.0,-1e-05,-2e-05,1
3159,3311,-1e-05,-2e-05,-2.9999999999999997e-05,-2e-05,-1e-05,0.0,-1e-05,-2e-05,1
3160,3312,-1e-05,-2e-05,-2.9999999999999997e-05,-2e-05,-1e-05,0.0,-1e-05,-2e-05,1
3161,3313,-1e-05,-2e-05,-2.9999999999999997e-05,-2e-05,-1e-05,0.0,-1e-05,-2e-05,1
3162,3314,-1e-05,-2e-05,-2.9999999999999997e-05,-2e-05,-1e-05,0.0,-1e-05,-2e-05,1
3163,3315,-1e-05,-2e-05,-2.9999999999999997e-05,-2e-05,-1e-05,0.0,-1e-05,-2e-05,1
3164,3316,-1e-05,-2e-05,-2.9999999999999997e-05,-2e-05,-1e-05,0.0,-1e-05,-2e-05,1
3165,3317,-1e-05,-2e-05,-2.9999999999999997e-05,-2e-05,-1e-05,0.0,-1e-05,-2e-05,1
3166,3318,-1e-05,-2e-05,-2.9999999999999997e-05,-2e-05,-1e-05,0.0,-1e-05,-2e-05,1
3167,3319,-1e-05,-2e-05,-2.9999999999999997e-05,-2e-05,-1e-05,0.0,-1e-05,-2e-05,1
3168,3320,-1e-05,-2e-05,-2.9999999999999997e-05,-2e-05,-1e-05,0.0,-1e-05,-2e-05,1
3169,3321,-1e-05,-2e-05,-2.9999999999999997e-05,-2e-05,-1e-05,0.0,-1e-05,-2e-05,1
3170,3322,-1e-05,-2e-05,-2.9999999999999997e-05,-2e-05,-1e-05,0.0,-1e-05,-2e-05,1
3171,3323,-1e-05,-2e-05,-2.9999999999999997e-05,-2e-05,-1e-05,0.0,-1e-05,-2e-05,1
3172,3324,-1e-05,-2e-05,-2.9999999999999997e-05,-2e-05,-1e-05,0.0,-1e-05,-2e-05,1
3173,3325,-1e-05,0.0,1e-05,2e-05,1e-05,-2e-05,-1e-05,0.0,1
3174,3326,-1e-05,0.0,1e-05,2e-05,1e-05,-2e-05,-1e-05,0.0,1
3175,3327,0.0,-2e-05,-1e-05,-2e-05,-4e-05,-2e-05,0.0,-2e-05,1
3176,3328,0.0,-2e-05,-1e-05,-2e-05,-4e-05,-2e-05,0.0,-2e-05,1
3177,3329,0.0,-2e-05,-1e-05,-2e-05,-4e-05,-2e-05,0.0,-2e-05,1
3178,3330,0.0,-2e-05,-1e-05,-2e-05,-4e-05,-2e-05,0.0,-2e-05,1
3179,3331,0.0,-2e-05,-1e-05,-2e-05,-4e-05,-2e-05,0.0,-2e-05,1
3180,3332,0.0,-2e-05,-1e-05,-2e-05,-4e-05,-2e-05,0.0,-2e-05,1
3181,3333,0.0,-2e-05,-1e-05,-2e-05,-4e-05,-2e-05,0.0,-2e-05,1
3182,3334,0.0,-2e-05,-1e-05,-2e-05,-4e-05,-2e-05,0.0,-2e-05,1
3183,3335,0.0,-2e-05,-1e-05,-2e-05,-4e-05,-2e-05,0.0,-2e-05,1
3184,3336,0.0,-2e-05,-1e-05,-2e-05,-4e-05,-2e-05,0.0,-2e-05,1
3185,3338,0.0,-2e-05,-1e-05,-2e-05,-4e-05,-2e-05,0.0,-2e-05,1
3186,3339,0.0,-2e-05,-1e-05,-2e-05,-4e-05,-2e-05,0.0,-2e-05,1
3187,3340,0.0,-2e-05,-1e-05,-2e-05,-4e-05,-2e-05,0.0,-2e-05,1
3188,3341,0.0,-2e-05,-1e-05,-2e-05,-4e-05,-2e-05,0.0,-2e-05,1
3189,3342,0.0,-2e-05,-1e-05,-2e-05,-4e-05,-2e-05,0.0,-2e-05,1
3190,3343,0.0,-2e-05,-1e-05,-2e-05,-4e-05,-2e-05,0.0,-2e-05,1
3191,3344,0.0,-2e-05,-1e-05,-2e-05,-4e-05,-2e-05,0.0,-2e-05,1
3192,3345,0.0,-2e-05,-1e-05,-2e-05,-4e-05,-2e-05,0.0,-2e-05,1
3193,3346,0.0,-2e-05,-1e-05,-2e-05,-4e-05,-2e-05,0.0,-2e-05,1
3194,3347,0.0,-2e-05,-1e-05,-2e-05,-4e-05,-2e-05,0.0,-2e-05,1
3195,3348,0.0,1e-05,-1e-05,2e-05,1e-05,2e-05,1e-05,0.0,1
3196,3349,0.0,-2.9999999999999997e-05,-1e-05,-1e-05,-2.9999999999999997e-05,-2e-05,-2.9999999999999997e-05,-1e-05,1
3197,3350,0.0,-2.9999999999999997e-05,-1e-05,-1e-05,-2.9999999999999997e-05,-2e-05,-2.9999999999999997e-05,-1e-05,1
3198,3351,0.0,-2.9999999999999997e-05,-1e-05,-1e-05,-2.9999999999999997e-05,-2e-05,-2.9999999999999997e-05,-1e-05,1
3199,3352,0.0,-2.9999999999999997e-05,-1e-05,-1e-05,-2.9999999999999997e-05,-2e-05,-2.9999999999999997e-05,-1e-05,1
3200,3353,0.0,-2.9999999999999997e-05,-1e-05,-1e-05,-2.9999999999999997e-05,-2e-05,-2.9999999999999997e-05,-1e-05,1
3201,3354,0.0,-2.9999999999999997e-05,-1e-05,-1e-05,-2.9999999999999997e-05,-2e-05,-2.9999999999999997e-05,-1e-05,1
3202,3355,0.0,-2.9999999999999997e-05,-1e-05,-1e-05,-2.9999999999999997e-05,-2e-05,-2.9999999999999997e-05,-1e-05,1
3203,3356,0.0,-2.9999999999999997e-05,-1e-05,-1e-05,-2.9999999999999997e-05,-2e-05,-2.9999999999999997e-05,-1e-05,1
3204,3357,0.0,-2.9999999999999997e-05,-1e-05,-1e-05,-2.9999999999999997e-05,-2e-05,-2.9999999999999997e-05,-1e-05,1
3205,3358,0.0,-2.9999999999999997e-05,-1e-05,-1e-05,-2.9999999999999997e-05,-2e-05,-2.9999999999999997e-05,-1e-05,1
3206,3359,0.0,-2.9999999999999997e-05,-1e-05,-1e-05,-2.9999999999999997e-05,-2e-05,-2.9999999999999997e-05,-1e-05,1
3207,3360,0.0,-2.9999999999999997e-05,-1e-05,-1e-05,-2.9999999999999997e-05,-2e-05,-2.9999999999999997e-05,-1e-05,1
3208,3361,0.0,-2.9999999999999997e-05,-1e-05,-1e-05,-2.9999999999999997e-05,-2e-05,-2.9999999999999997e-05,-1e-05,1
3209,3362,0.0,-2.9999999999999997e-05,-1e-05,-1e-05,-2.9999999999999997e-05,-2e-05,-2.9999999999999997e-05,-1e-05,1
3210,3363,0.0,-2.9999999999999997e-05,-1e-05,-1e-05,-2.9999999999999997e-05,-2e-05,-2.9999999999999997e-05,-1e-05,1
3211,3364,0.0,-2.9999999999999997e-05,-1e-05,-1e-05,-2.9999999999999997e-05,-2e-05,-2.9999999999999997e-05,-1e-05,1
3212,3365,0.0,-2.9999999999999997e-05,-1e-05,-1e-05,-2.9999999999999997e-05,-2e-05,-2.9999999999999997e-05,-1e-05,1
3213,3366,0.0,-2.9999999999999997e-05,-1e-05,-1e-05,-2.9999999999999997e-05,-2e-05,-2.9999999999999997e-05,-1e-05,1
3214,3367,0.0,-2.9999999999999997e-05,-1e-05,-1e-05,-2.9999999999999997e-05,-2e-05,-2.9999999999999997e-05,-1e-05,1
3215,3368,0.0,-2.9999999999999997e-05,-1e-05,-1e-05,-2.9999999999999997e-05,-2e-05,-2.9999999999999997e-05,-1e-05,1
3216,3369,0.0,-2.9999999999999997e-05,-1e-05,-1e-05,-2.9999999999999997e-05,-2e-05,-2.9999999999999997e-05,-1e-05,1
3217,3370,-1e-05,-2e-05,-2e-05,-1e-05,-2e-05,-2.9999999999999997e-05,-1e-05,-1e-05,1
3218,3371,-1e-05,-2e-05,-2e-05,-1e-05,-2e-05,-2.9999999999999997e-05,-1e-05,-1e-05,1
3219,3372,0.0,0.0,-1e-05,2e-05,5e-05,2e-05,0.0,0.0,1
3220,3373,0.0,0.0,-1e-05,2e-05,5e-05,2e-05,0.0,0.0,1
3221,3374,0.0,0.0,-1e-05,2e-05,5e-05,2e-05,0.0,0.0,1
3222,3375,0.0,0.0,-1e-05,2e-05,5e-05,2e-05,0.0,0.0,1
3223,3376,0.0,0.0,-1e-05,2e-05,5e-05,2e-05,0.0,0.0,1
3224,3377,0.0,0.0,-1e-05,2e-05,5e-05,2e-05,0.0,0.0,1
3225,3378,0.0,0.0,-1e-05,2e-05,5e-05,2e-05,0.0,0.0,1
3226,3379,0.0,0.0,-1e-05,2e-05,5e-05,2e-05,0.0,0.0,1
3227,3380,0.0,0.0,-1e-05,2e-05,5e-05,2e-05,0.0,0.0,1
3228,3381,0.0,0.0,-1e-05,2e-05,5e-05,2e-05,0.0,0.0,1
3229,3382,0.0,0.0,-1e-05,2e-05,5e-05,2e-05,0.0,0.0,1
3230,3383,0.0,0.0,-1e-05,2e-05,5e-05,2e-05,0.0,0.0,1
3231,3384,0.0,0.0,-1e-05,2e-05,5e-05,2e-05,0.0,0.0,1
3232,3385,-2e-05,-2e-05,-2e-05,-2e-05,-1e-05,-2e-05,-1e-05,-2e-05,1
3233,3386,-2e-05,-2e-05,-2e-05,-2e-05,-1e-05,-2e-05,-1e-05,-2e-05,1
3234,3388,-2e-05,-2e-05,-1e-05,-1e-05,-1e-05,-2.9999999999999997e-05,-2e-05,-1e-05,1
3235,3389,-2e-05,-2e-05,-1e-05,-1e-05,-1e-05,-2.9999999999999997e-05,-2e-05,-1e-05,1
3236,3390,-2e-05,-2e-05,-1e-05,-1e-05,-1e-05,-2.9999999999999997e-05,-2e-05,-1e-05,1
3237,3391,-2e-05,-2e-05,-1e-05,-1e-05,-1e-05,-2.9999999999999997e-05,-2e-05,-1e-05,1
3238,3392,-2e-05,-2e-05,-1e-05,-1e-05,-1e-05,-2.9999999999999997e-05,-2e-05,-1e-05,1
3239,3393,-2e-05,-2e-05,-1e-05,-1e-05,-1e-05,-2.9999999999999997e-05,-2e-05,-1e-05,1
3240,3394,-2e-05,-2e-05,-1e-05,-1e-05,-1e-05,-2.9999999999999997e-05,-2e-05,-1e-05,1
3241,3395,-2e-05,-2e-05,-1e-05,-1e-05,-1e-05,-2.9999999999999997e-05,-2e-05,-1e-05,1
3242,3396,-2e-05,-2e-05,-1e-05,-1e-05,-1e-05,-2.9999999999999997e-05,-2e-05,-1e-05,1
3243,3397,-2e-05,-2e-05,-1e-05,-1e-05,-1e-05,-2.9999999999999997e-05,-2e-05,-1e-05,1
3244,3398,-2e-05,-2e-05,-1e-05,-1e-05,-1e-05,-2.9999999999999997e-05,-2e-05,-1e-05,1
3245,3399,-2e-05,-2e-05,-1e-05,-1e-05,-1e-05,-2.9999999999999997e-05,-2e-05,-1e-05,1
3246,3400,-2e-05,-2e-05,-1e-05,-1e-05,-1e-05,-2.9999999999999997e-05,-2e-05,-1e-05,1
3247,3401,-2e-05,-2e-05,-1e-05,-1e-05,-1e-05,-2.9999999999999997e-05,-2e-05,-1e-05,1
3248,3402,-2e-05,-2e-05,-1e-05,-1e-05,-1e-05,-2.9999999999999997e-05,-2e-05,-1e-05,1
3249,3403,-2e-05,-2e-05,-1e-05,-1e-05,-1e-05,-2.9999999999999997e-05,-2e-05,-1e-05,1
3250,3404,-2e-05,-2e-05,-1e-05,-1e-05,-1e-05,-2.9999999999999997e-05,-2e-05,-1e-05,1
3251,3405,-2e-05,-2e-05,-1e-05,-1e-05,-1e-05,-2.9999999999999997e-05,-2e-05,-1e-05,1
3252,3406,-2e-05,-2e-05,-1e-05,-1e-05,-1e-05,-2.9999999999999997e-05,-2e-05,-1e-05,1
3253,3407,-2e-05,-2e-05,-1e-05,-1e-05,-1e-05,-2.9999999999999997e-05,-2e-05,-1e-05,1
3254,3408,-1e-05,-2e-05,-2e-05,-2e-05,-2.9999999999999997e-05,-2.9999999999999997e-05,-1e-05,-1e-05,1
3255,3409,-1e-05,-1e-05,0.0,-2.9999999999999997e-05,-1e-05,1e-05,1e-05,0.0,1
3256,3410,-1e-05,-1e-05,0.0,-2.9999999999999997e-05,-1e-05,1e-05,1e-05,0.0,1
3257,3411,-1e-05,-1e-05,0.0,-2.9999999999999997e-05,-1e-05,1e-05,1e-05,0.0,1
3258,3412,-1e-05,-1e-05,0.0,-2.9999999999999997e-05,-1e-05,1e-05,1e-05,0.0,1
3259,3413,-1e-05,-1e-05,0.0,-2.9999999999999997e-05,-1e-05,1e-05,1e-05,0.0,1
3260,3414,-1e-05,-1e-05,0.0,-2.9999999999999997e-05,-1e-05,1e-05,1e-05,0.0,1
3261,3415,-1e-05,-1e-05,0.0,-2.9999999999999997e-05,-1e-05,1e-05,1e-05,0.0,1
3262,3416,-1e-05,-1e-05,0.0,-2.9999999999999997e-05,-1e-05,1e-05,1e-05,0.0,1
3263,3417,-1e-05,-1e-05,0.0,-2.9999999999999997e-05,-1e-05,1e-05,1e-05,0.0,1
3264,3418,-1e-05,-1e-05,0.0,-2.9999999999999997e-05,-1e-05,1e-05,1e-05,0.0,1
3265,3419,-1e-05,-1e-05,0.0,-2.9999999999999997e-05,-1e-05,1e-05,1e-05,0.0,1
3266,3420,-1e-05,-1e-05,0.0,-2.9999999999999997e-05,-1e-05,1e-05,1e-05,0.0,1
3267,3421,-1e-05,-1e-05,0.0,-2.9999999999999997e-05,-1e-05,1e-05,1e-05,0.0,1
3268,3422,-1e-05,-1e-05,0.0,-2.9999999999999997e-05,-1e-05,1e-05,1e-05,0.0,1
3269,3423,-1e-05,-1e-05,0.0,-2.9999999999999997e-05,-1e-05,1e-05,1e-05,0.0,1
3270,3424,-1e-05,-1e-05,0.0,-2.9999999999999997e-05,-1e-05,1e-05,1e-05,0.0,1
3271,3425,-1e-05,-1e-05,0.0,-2.9999999999999997e-05,-1e-05,1e-05,1e-05,0.0,1
3272,3426,-1e-05,-1e-05,0.0,-2.9999999999999997e-05,-1e-05,1e-05,1e-05,0.0,1
3273,3427,-1e-05,-1e-05,0.0,-2.9999999999999997e-05,-1e-05,1e-05,1e-05,0.0,1
3274,3428,-1e-05,-1e-05,0.0,-2.9999999999999997e-05,-1e-05,1e-05,1e-05,0.0,1
3275,3429,-1e-05,-1e-05,0.0,-2.9999999999999997e-05,-1e-05,1e-05,1e-05,0.0,1
3276,3430,-1e-05,0.0,0.0,-1e-05,-2e-05,-1e-05,-2.9999999999999997e-05,-2e-05,1
3277,3431,-1e-05,0.0,0.0,-1e-05,-2e-05,-1e-05,-2.9999999999999997e-05,-2e-05,1
3278,3432,-2e-05,0.0,-2e-05,0.0,-1e-05,2.9999999999999997e-05,0.0,0.0,1
3279,3433,-2e-05,0.0,-2e-05,0.0,-1e-05,2.9999999999999997e-05,0.0,0.0,1
3280,3434,-2e-05,0.0,-2e-05,0.0,-1e-05,2.9999999999999997e-05,0.0,0.0,1
3281,3435,-2e-05,0.0,-2e-05,0.0,-1e-05,2.9999999999999997e-05,0.0,0.0,1
3282,3436,-2e-05,0.0,-2e-05,0.0,-1e-05,2.9999999999999997e-05,0.0,0.0,1
3283,3438,-2e-05,0.0,-2e-05,0.0,-1e-05,2.9999999999999997e-05,0.0,0.0,1
3284,3439,-2e-05,0.0,-2e-05,0.0,-1e-05,2.9999999999999997e-05,0.0,0.0,1
3285,3440,-2e-05,0.0,-2e-05,0.0,-1e-05,2.9999999999999997e-05,0.0,0.0,1
3286,3441,-2e-05,0.0,-2e-05,0.0,-1e-05,2.9999999999999997e-05,0.0,0.0,1
3287,3442,-2e-05,0.0,-2e-05,0.0,-1e-05,2.9999999999999997e-05,0.0,0.0,1
3288,3443,-2e-05,0.0,-2e-05,0.0,-1e-05,2.9999999999999997e-05,0.0,0.0,1
3289,3444,-2e-05,0.0,-2e-05,0.0,-1e-05,2.9999999999999997e-05,0.0,0.0,1
3290,3445,0.0,-2.9999999999999997e-05,-1e-05,-1e-05,-1e-05,0.0,0.0,-1e-05,1
3291,3446,0.0,-2.9999999999999997e-05,-1e-05,-1e-05,-1e-05,0.0,0.0,-1e-05,1
3292,3447,-1e-05,-2e-05,0.0,-1e-05,0.0,-2e-05,-1e-05,-2e-05,1
3293,3448,-1e-05,-2e-05,0.0,-1e-05,0.0,-2e-05,-1e-05,-2e-05,1
3294,3449,-1e-05,-2e-05,0.0,-1e-05,0.0,-2e-05,-1e-05,-2e-05,1
3295,3450,-1e-05,-2e-05,0.0,-1e-05,0.0,-2e-05,-1e-05,-2e-05,1
3296,3451,-1e-05,-2e-05,0.0,-1e-05,0.0,-2e-05,-1e-05,-2e-05,1
3297,3452,-1e-05,-2e-05,0.0,-1e-05,0.0,-2e-05,-1e-05,-2e-05,1
3298,3453,-1e-05,-2e-05,0.0,-1e-05,0.0,-2e-05,-1e-05,-2e-05,1
3299,3454,-1e-05,-2e-05,0.0,-1e-05,0.0,-2e-05,-1e-05,-2e-05,1
3300,3455,-1e-05,-2e-05,0.0,-1e-05,0.0,-2e-05,-1e-05,-2e-05,1
3301,3456,-1e-05,-2e-05,0.0,-1e-05,0.0,-2e-05,-1e-05,-2e-05,1
3302,3457,-1e-05,-2e-05,0.0,-1e-05,0.0,-2e-05,-1e-05,-2e-05,1
3303,3458,-1e-05,-2e-05,0.0,-1e-05,0.0,-2e-05,-1e-05,-2e-05,1
3304,3459,-1e-05,-2e-05,0.0,-1e-05,0.0,-2e-05,-1e-05,-2e-05,1
3305,3460,-1e-05,-2e-05,0.0,-1e-05,0.0,-2e-05,-1e-05,-2e-05,1
3306,3461,-1e-05,-2e-05,0.0,-1e-05,0.0,-2e-05,-1e-05,-2e-05,1
3307,3462,-1e-05,-2e-05,0.0,-1e-05,0.0,-2e-05,-1e-05,-2e-05,1
3308,3463,-1e-05,-2e-05,0.0,-1e-05,0.0,-2e-05,-1e-05,-2e-05,1
3309,3464,-1e-05,-2e-05,0.0,-1e-05,0.0,-2e-05,-1e-05,-2e-05,1
3310,3465,-1e-05,-2e-05,0.0,-1e-05,0.0,-2e-05,-1e-05,-2e-05,1
3311,3466,-1e-05,-2e-05,0.0,-1e-05,0.0,-2e-05,-1e-05,-2e-05,1
3312,3467,-1e-05,-2e-05,0.0,-1e-05,0.0,-2e-05,-1e-05,-2e-05,1
3313,3468,-2e-05,-2.9999999999999997e-05,-2.9999999999999997e-05,-4e-05,-1e-05,-2.9999999999999997e-05,-1e-05,-2e-05,1
3314,3469,-2e-05,-2.9999999999999997e-05,-2.9999999999999997e-05,-4e-05,-1e-05,-2.9999999999999997e-05,-1e-05,-2e-05,1
3315,3470,-1e-05,-1e-05,-2e-05,-1e-05,-1e-05,-2e-05,2e-05,0.0,1
3316,3471,-1e-05,-1e-05,-2e-05,-1e-05,-1e-05,-2e-05,2e-05,0.0,1
3317,3472,-1e-05,-1e-05,-2e-05,-1e-05,-1e-05,-2e-05,2e-05,0.0,1
3318,3473,-1e-05,-1e-05,-2e-05,-1e-05,-1e-05,-2e-05,2e-05,0.0,1
3319,3474,-1e-05,-1e-05,-2e-05,-1e-05,-1e-05,-2e-05,2e-05,0.0,1
3320,3475,-1e-05,-1e-05,-2e-05,-1e-05,-1e-05,-2e-05,2e-05,0.0,1
3321,3476,-1e-05,-1e-05,-2e-05,-1e-05,-1e-05,-2e-05,2e-05,0.0,1
3322,3477,-1e-05,-1e-05,-2e-05,-1e-05,-1e-05,-2e-05,2e-05,0.0,1
3323,3478,-1e-05,-1e-05,-2e-05,-1e-05,-1e-05,-2e-05,2e-05,0.0,1
3324,3479,-1e-05,-1e-05,-2e-05,-1e-05,-1e-05,-2e-05,2e-05,0.0,1
3325,3480,-1e-05,-1e-05,-2e-05,-1e-05,-1e-05,-2e-05,2e-05,0.0,1
3326,3481,-1e-05,-1e-05,-2e-05,-1e-05,-1e-05,-2e-05,2e-05,0.0,1
3327,3482,-1e-05,-1e-05,-2e-05,-1e-05,-1e-05,-2e-05,2e-05,0.0,1
3328,3483,-1e-05,-1e-05,-2e-05,-1e-05,-1e-05,-2e-05,2e-05,0.0,1
3329,3484,-1e-05,-1e-05,-2e-05,-1e-05,-1e-05,-2e-05,2e-05,0.0,1
3330,3485,-1e-05,-1e-05,-2e-05,-1e-05,-1e-05,-2e-05,2e-05,0.0,1
3331,3486,-1e-05,-1e-05,-2e-05,-1e-05,-1e-05,-2e-05,2e-05,0.0,1
3332,3488,-1e-05,-1e-05,-2e-05,-1e-05,-1e-05,-2e-05,2e-05,0.0,1
3333,3489,-1e-05,-1e-05,-2e-05,-1e-05,-1e-05,-2e-05,2e-05,0.0,1
3334,3490,0.0,-1e-05,0.0,0.0,-1e-05,0.0,-1e-05,0.0,1
3335,3491,0.0,-1e-05,0.0,0.0,-1e-05,0.0,-1e-05,0.0,1
3336,3492,-1e-05,0.0,-1e-05,-1e-05,0.0,0.0,-2e-05,-2.9999999999999997e-05,1
3337,3493,-1e-05,0.0,-1e-05,-1e-05,0.0,0.0,-2e-05,-2.9999999999999997e-05,1
3338,3494,-1e-05,0.0,-1e-05,-1e-05,0.0,0.0,-2e-05,-2.9999999999999997e-05,1
3339,3495,-1e-05,0.0,-1e-05,-1e-05,0.0,0.0,-2e-05,-2.9999999999999997e-05,1
3340,3496,-1e-05,0.0,-1e-05,-1e-05,0.0,0.0,-2e-05,-2.9999999999999997e-05,1
3341,3497,-1e-05,0.0,-1e-05,-1e-05,0.0,0.0,-2e-05,-2.9999999999999997e-05,1
3342,3498,-1e-05,0.0,-1e-05,-1e-05,0.0,0.0,-2e-05,-2.9999999999999997e-05,1
3343,3499,-1e-05,0.0,-1e-05,-1e-05,0.0,0.0,-2e-05,-2.9999999999999997e-05,1
3344,3500,-1e-05,0.0,-1e-05,-1e-05,0.0,0.0,-2e-05,-2.9999999999999997e-05,1
3345,3501,-1e-05,0.0,-1e-05,-1e-05,0.0,0.0,-2e-05,-2.9999999999999997e-05,1
3346,3502,-1e-05,0.0,-1e-05,-1e-05,0.0,0.0,-2e-05,-2.9999999999999997e-05,1
3347,3503,-1e-05,0.0,-1e-05,-1e-05,0.0,0.0,-2e-05,-2.9999999999999997e-05,1
3348,3504,-2.9999999999999997e-05,-1e-05,-1e-05,-1e-05,-2.9999999999999997e-05,-2.9999999999999997e-05,0.0,-1e-05,1
3349,3505,-2.9999999999999997e-05,-1e-05,-1e-05,-1e-05,-2.9999999999999997e-05,-2.9999999999999997e-05,0.0,-1e-05,1
3350,3506,-2.9999999999999997e-05,-1e-05,-1e-05,-1e-05,-2.9999999999999997e-05,-2.9999999999999997e-05,0.0,-1e-05,1
3351,3507,-2.9999999999999997e-05,-1e-05,-1e-05,-1e-05,-2.9999999999999997e-05,-2.9999999999999997e-05,0.0,-1e-05,1
3352,3508,-2.9999999999999997e-05,-1e-05,-1e-05,-1e-05,-2.9999999999999997e-05,-2.9999999999999997e-05,0.0,-1e-05,1
3353,3509,-2.9999999999999997e-05,-1e-05,-1e-05,-1e-05,-2.9999999999999997e-05,-2.9999999999999997e-05,0.0,-1e-05,1
3354,3510,-2.9999999999999997e-05,-1e-05,-1e-05,-1e-05,-2.9999999999999997e-05,-2.9999999999999997e-05,0.0,-1e-05,1
3355,3511,-1e-05,0.0,-2e-05,-2e-05,-4e-05,-2.9999999999999997e-05,-2e-05,-1e-05,1
3356,3512,-1e-05,0.0,-2e-05,-2e-05,-4e-05,-2.9999999999999997e-05,-2e-05,-1e-05,1
3357,3513,-1e-05,0.0,-2e-05,-2e-05,-4e-05,-2.9999999999999997e-05,-2e-05,-1e-05,1
3358,3514,-1e-05,0.0,-2e-05,-2e-05,-4e-05,-2.9999999999999997e-05,-2e-05,-1e-05,1
3359,3515,-1e-05,0.0,-2e-05,-2e-05,-4e-05,-2.9999999999999997e-05,-2e-05,-1e-05,1
3360,3516,-1e-05,0.0,-2e-05,-2e-05,-4e-05,-2.9999999999999997e-05,-2e-05,-1e-05,1
3361,3517,-1e-05,0.0,-2e-05,-2e-05,-4e-05,-2.9999999999999997e-05,-2e-05,-1e-05,1
3362,3518,-1e-05,0.0,-2e-05,-2e-05,-4e-05,-2.9999999999999997e-05,-2e-05,-1e-05,1
3363,3519,-1e-05,0.0,-2e-05,-2e-05,-4e-05,-2.9999999999999997e-05,-2e-05,-1e-05,1
3364,3520,-1e-05,0.0,-2e-05,-2e-05,-4e-05,-2.9999999999999997e-05,-2e-05,-1e-05,1
3365,3521,-1e-05,0.0,-2e-05,-2e-05,-4e-05,-2.9999999999999997e-05,-2e-05,-1e-05,1
3366,3522,-1e-05,0.0,-2e-05,-2e-05,-4e-05,-2.9999999999999997e-05,-2e-05,-1e-05,1
3367,3523,-1e-05,0.0,-2e-05,-2e-05,-4e-05,-2.9999999999999997e-05,-2e-05,-1e-05,1
3368,3524,-1e-05,0.0,-2e-05,-2e-05,-4e-05,-2.9999999999999997e-05,-2e-05,-1e-05,1
3369,3525,-1e-05,0.0,-2e-05,-2e-05,-4e-05,-2.9999999999999997e-05,-2e-05,-1e-05,1
3370,3526,-1e-05,0.0,-2e-05,-2e-05,-4e-05,-2.9999999999999997e-05,-2e-05,-1e-05,1
3371,3527,-1e-05,0.0,-2e-05,-2e-05,-4e-05,-2.9999999999999997e-05,-2e-05,-1e-05,1
3372,3528,-2e-05,-2e-05,0.0,2.9999999999999997e-05,2e-05,1e-05,0.0,-1e-05,1
3373,3529,-2e-05,-2e-05,0.0,-1e-05,1e-05,0.0,-1e-05,2e-05,1
3374,3530,-2e-05,-2e-05,0.0,-1e-05,1e-05,0.0,-1e-05,2e-05,1
3375,3531,-2e-05,-2e-05,0.0,-1e-05,1e-05,0.0,-1e-05,2e-05,1
3376,3532,-2e-05,-2e-05,0.0,-1e-05,1e-05,0.0,-1e-05,2e-05,1
3377,3533,-2e-05,-2e-05,0.0,-1e-05,1e-05,0.0,-1e-05,2e-05,1
3378,3534,-2e-05,-2e-05,0.0,-1e-05,1e-05,0.0,-1e-05,2e-05,1
3379,3535,-2e-05,-2e-05,0.0,-1e-05,1e-05,0.0,-1e-05,2e-05,1
3380,3536,-2e-05,-2e-05,0.0,-1e-05,1e-05,0.0,-1e-05,2e-05,1
3381,3538,-2e-05,-2e-05,0.0,-1e-05,1e-05,0.0,-1e-05,2e-05,1
3382,3539,-2e-05,-2e-05,0.0,-1e-05,1e-05,0.0,-1e-05,2e-05,1
3383,3540,-2e-05,-2e-05,0.0,-1e-05,1e-05,0.0,-1e-05,2e-05,1
3384,3541,-2e-05,-2e-05,0.0,-1e-05,1e-05,0.0,-1e-05,2e-05,1
3385,3542,-2e-05,-2e-05,0.0,-1e-05,1e-05,0.0,-1e-05,2e-05,1
3386,3543,-2e-05,-2e-05,0.0,-1e-05,1e-05,0.0,-1e-05,2e-05,1
3387,3544,-2e-05,-2e-05,0.0,-1e-05,1e-05,0.0,-1e-05,2e-05,1
3388,3545,-2e-05,-2e-05,0.0,-1e-05,1e-05,0.0,-1e-05,2e-05,1
3389,3546,-2e-05,-2e-05,0.0,-1e-05,1e-05,0.0,-1e-05,2e-05,1
3390,3547,-2e-05,-2e-05,0.0,-1e-05,1e-05,0.0,-1e-05,2e-05,1
3391,3548,-2e-05,-2e-05,0.0,-1e-05,1e-05,0.0,-1e-05,2e-05,1
3392,3549,-2e-05,-2e-05,0.0,-1e-05,1e-05,0.0,-1e-05,2e-05,1
3393,3550,-2e-05,-1e-05,-2e-05,-1e-05,-2.9999999999999997e-05,-2e-05,-2.9999999999999997e-05,0.0,1
3394,3551,-2e-05,-1e-05,-2e-05,-1e-05,-2.9999999999999997e-05,-2e-05,-2.9999999999999997e-05,0.0,1
3395,3552,-1e-05,1e-05,-2e-05,-1e-05,-1e-05,-2e-05,-1e-05,0.0,1
3396,3553,-1e-05,1e-05,-2e-05,-1e-05,-1e-05,-2e-05,-1e-05,0.0,1
3397,3554,-1e-05,1e-05,-2e-05,-1e-05,-1e-05,-2e-05,-1e-05,0.0,1
3398,3555,-1e-05,1e-05,-2e-05,-1e-05,-1e-05,-2e-05,-1e-05,0.0,1
3399,3556,-1e-05,1e-05,-2e-05,-1e-05,-1e-05,-2e-05,-1e-05,0.0,1
3400,3557,-1e-05,1e-05,-2e-05,-1e-05,-1e-05,-2e-05,-1e-05,0.0,1
3401,3558,-1e-05,1e-05,-2e-05,-1e-05,-1e-05,-2e-05,-1e-05,0.0,1
3402,3559,-1e-05,1e-05,-2e-05,-1e-05,-1e-05,-2e-05,-1e-05,0.0,1
3403,3560,-1e-05,1e-05,-2e-05,-1e-05,-1e-05,-2e-05,-1e-05,0.0,1
3404,3561,-1e-05,1e-05,-2e-05,-1e-05,-1e-05,-2e-05,-1e-05,0.0,1
3405,3562,-1e-05,1e-05,-2e-05,-1e-05,-1e-05,-2e-05,-1e-05,0.0,1
3406,3563,-1e-05,1e-05,-2e-05,-1e-05,-1e-05,-2e-05,-1e-05,0.0,1
3407,3564,-1e-05,1e-05,-2e-05,-1e-05,-1e-05,-2e-05,-1e-05,0.0,1
3408,3565,-1e-05,1e-05,-2e-05,-1e-05,-1e-05,-2e-05,-1e-05,0.0,1
3409,3566,-1e-05,1e-05,-2e-05,-1e-05,-1e-05,-2e-05,-1e-05,0.0,1
3410,3567,-1e-05,1e-05,-2e-05,-1e-05,-1e-05,-2e-05,-1e-05,0.0,1
3411,3568,-1e-05,1e-05,-2e-05,-1e-05,-1e-05,-2e-05,-1e-05,0.0,1
3412,3569,-1e-05,1e-05,-2e-05,-1e-05,-1e-05,-2e-05,-1e-05,0.0,1
3413,3570,-1e-05,1e-05,-2e-05,-1e-05,-1e-05,-2e-05,-1e-05,0.0,1
3414,3571,-1e-05,1e-05,-2e-05,-1e-05,-1e-05,-2e-05,-1e-05,0.0,1
3415,3572,-1e-05,1e-05,-2e-05,-1e-05,-1e-05,-2e-05,-1e-05,0.0,1
3416,3573,-2e-05,0.0,-2e-05,0.0,-2e-05,1e-05,1e-05,0.0,1
3417,3574,-2e-05,0.0,-1e-05,1e-05,0.0,-1e-05,-1e-05,-1e-05,1
3418,3575,-2e-05,0.0,-1e-05,1e-05,0.0,-1e-05,-1e-05,-1e-05,1
3419,3576,-2e-05,0.0,-1e-05,1e-05,0.0,-1e-05,-1e-05,-1e-05,1
3420,3577,-2e-05,0.0,-1e-05,1e-05,0.0,-1e-05,-1e-05,-1e-05,1
3421,3578,-2e-05,0.0,-1e-05,1e-05,0.0,-1e-05,-1e-05,-1e-05,1
3422,3579,-2e-05,0.0,-1e-05,1e-05,0.0,-1e-05,-1e-05,-1e-05,1
3423,3580,-2e-05,0.0,-1e-05,1e-05,0.0,-1e-05,-1e-05,-1e-05,1
3424,3581,-2e-05,0.0,-1e-05,1e-05,0.0,-1e-05,-1e-05,-1e-05,1
3425,3582,-2e-05,0.0,-1e-05,1e-05,0.0,-1e-05,-1e-05,-1e-05,1
3426,3583,-2e-05,0.0,-1e-05,1e-05,0.0,-1e-05,-1e-05,-1e-05,1
3427,3584,-2e-05,0.0,-1e-05,1e-05,0.0,-1e-05,-1e-05,-1e-05,1
3428,3585,-2e-05,0.0,-1e-05,1e-05,0.0,-1e-05,-1e-05,-1e-05,1
3429,3586,-2e-05,0.0,-1e-05,1e-05,0.0,-1e-05,-1e-05,-1e-05,1
3430,3588,-2.9999999999999997e-05,-2.9999999999999997e-05,-2e-05,-2.9999999999999997e-05,0.0,-1e-05,-2e-05,-1e-05,1
3431,3589,1e-05,-1e-05,-2e-05,0.0,-1e-05,-1e-05,0.0,-2.9999999999999997e-05,1
3432,3590,1e-05,-1e-05,-2e-05,0.0,-1e-05,-1e-05,0.0,-2.9999999999999997e-05,1
3433,3591,1e-05,-1e-05,-2e-05,0.0,-1e-05,-1e-05,0.0,-2.9999999999999997e-05,1
3434,3592,1e-05,-1e-05,-2e-05,0.0,-1e-05,-1e-05,0.0,-2.9999999999999997e-05,1
3435,3593,1e-05,-1e-05,-2e-05,0.0,-1e-05,-1e-05,0.0,-2.9999999999999997e-05,1
3436,3594,1e-05,-1e-05,-2e-05,0.0,-1e-05,-1e-05,0.0,-2.9999999999999997e-05,1
3437,3595,1e-05,-1e-05,-2e-05,0.0,-1e-05,-1e-05,0.0,-2.9999999999999997e-05,1
3438,3596,1e-05,-1e-05,-2e-05,0.0,-1e-05,-1e-05,0.0,-2.9999999999999997e-05,1
3439,3597,1e-05,-1e-05,-2e-05,0.0,-1e-05,-1e-05,0.0,-2.9999999999999997e-05,1
3440,3598,1e-05,-1e-05,-2e-05,0.0,-1e-05,-1e-05,0.0,-2.9999999999999997e-05,1
3441,3599,1e-05,-1e-05,-2e-05,0.0,-1e-05,-1e-05,0.0,-2.9999999999999997e-05,1
3442,3600,1e-05,-1e-05,-2e-05,0.0,-1e-05,-1e-05,0.0,-2.9999999999999997e-05,1
3443,3601,1e-05,-1e-05,-2e-05,0.0,-1e-05,-1e-05,0.0,-2.9999999999999997e-05,1
3444,3602,1e-05,-1e-05,-2e-05,0.0,-1e-05,-1e-05,0.0,-2.9999999999999997e-05,1
3445,3603,1e-05,-1e-05,-2e-05,0.0,-1e-05,-1e-05,0.0,-2.9999999999999997e-05,1
3446,3604,1e-05,-1e-05,-2e-05,0.0,-1e-05,-1e-05,0.0,-2.9999999999999997e-05,1
3447,3605,1e-05,-1e-05,-2e-05,0.0,-1e-05,-1e-05,0.0,-2.9999999999999997e-05,1
3448,3606,1e-05,-1e-05,-2e-05,0.0,-1e-05,-1e-05,0.0,-2.9999999999999997e-05,1
3449,3607,1e-05,-1e-05,-2e-05,0.0,-1e-05,-1e-05,0.0,-2.9999999999999997e-05,1
3450,3608,1e-05,-1e-05,-2e-05,0.0,-1e-05,-1e-05,0.0,-2.9999999999999997e-05,1
3451,3609,1e-05,-1e-05,-2e-05,0.0,-1e-05,-1e-05,0.0,-2.9999999999999997e-05,1
3452,3610,0.0,-2e-05,-2e-05,-1e-05,-1e-05,-1e-05,-1e-05,0.0,1
3453,3611,0.0,-2e-05,-2e-05,-1e-05,-1e-05,-1e-05,-1e-05,0.0,1
3454,3612,0.0,0.0,-1e-05,-5e-05,-4e-05,-4e-05,-2e-05,-1e-05,1
3455,3613,0.0,0.0,-1e-05,-5e-05,-4e-05,-4e-05,-2e-05,-1e-05,1
3456,3614,0.0,0.0,-1e-05,-5e-05,-4e-05,-4e-05,-2e-05,-1e-05,1
3457,3615,0.0,0.0,-1e-05,-5e-05,-4e-05,-4e-05,-2e-05,-1e-05,1
3458,3616,0.0,0.0,-1e-05,-5e-05,-4e-05,-4e-05,-2e-05,-1e-05,1
3459,3617,0.0,0.0,-1e-05,-5e-05,-4e-05,-4e-05,-2e-05,-1e-05,1
3460,3618,0.0,0.0,-1e-05,-5e-05,-4e-05,-4e-05,-2e-05,-1e-05,1
3461,3619,0.0,0.0,-1e-05,-5e-05,-4e-05,-4e-05,-2e-05,-1e-05,1
3462,3620,0.0,0.0,-1e-05,-5e-05,-4e-05,-4e-05,-2e-05,-1e-05,1
3463,3621,0.0,0.0,-1e-05,-5e-05,-4e-05,-4e-05,-2e-05,-1e-05,1
3464,3622,0.0,0.0,-1e-05,-5e-05,-4e-05,-4e-05,-2e-05,-1e-05,1
3465,3623,0.0,0.0,-1e-05,-5e-05,-4e-05,-4e-05,-2e-05,-1e-05,1
3466,3624,0.0,0.0,-1e-05,-5e-05,-4e-05,-4e-05,-2e-05,-1e-05,1
3467,3625,0.0,0.0,-1e-05,-5e-05,-4e-05,-4e-05,-2e-05,-1e-05,1
3468,3626,0.0,0.0,-1e-05,-5e-05,-4e-05,-4e-05,-2e-05,-1e-05,1
3469,3627,0.0,0.0,-1e-05,-5e-05,-4e-05,-4e-05,-2e-05,-1e-05,1
3470,3628,0.0,0.0,-1e-05,-5e-05,-4e-05,-4e-05,-2e-05,-1e-05,1
3471,3629,0.0,0.0,-1e-05,-5e-05,-4e-05,-4e-05,-2e-05,-1e-05,1
3472,3630,0.0,0.0,-1e-05,-5e-05,-4e-05,-4e-05,-2e-05,-1e-05,1
3473,3631,0.0,0.0,-1e-05,-5e-05,-4e-05,-4e-05,-2e-05,-1e-05,1
3474,3632,0.0,0.0,-1e-05,-5e-05,-4e-05,-4e-05,-2e-05,-1e-05,1
3475,3633,0.0,0.0,-1e-05,-1e-05,0.0,-1e-05,1e-05,-1e-05,1
3476,3634,0.0,2e-05,0.0,2e-05,0.0,2e-05,0.0,-2e-05,1
3477,3635,0.0,2e-05,0.0,2e-05,0.0,2e-05,0.0,-2e-05,1
3478,3636,0.0,2e-05,0.0,2e-05,0.0,2e-05,0.0,-2e-05,1
3479,3639,0.0,2e-05,0.0,2e-05,0.0,2e-05,0.0,-2e-05,1
3480,3640,0.0,2e-05,0.0,2e-05,0.0,2e-05,0.0,-2e-05,1
3481,3641,0.0,2e-05,0.0,2e-05,0.0,2e-05,0.0,-2e-05,1
3482,3642,0.0,2e-05,0.0,2e-05,0.0,2e-05,0.0,-2e-05,1
3483,3643,0.0,2e-05,0.0,2e-05,0.0,2e-05,0.0,-2e-05,1
3484,3644,0.0,2e-05,0.0,2e-05,0.0,2e-05,0.0,-2e-05,1
3485,3645,0.0,2e-05,0.0,2e-05,0.0,2e-05,0.0,-2e-05,1
3486,3646,0.0,2e-05,0.0,2e-05,0.0,2e-05,0.0,-2e-05,1
3487,3647,0.0,2e-05,0.0,2e-05,0.0,2e-05,0.0,-2e-05,1
3488,3648,0.0,2e-05,0.0,2e-05,0.0,2e-05,0.0,-2e-05,1
3489,3649,0.0,2e-05,0.0,2e-05,0.0,2e-05,0.0,-2e-05,1
3490,3650,-2e-05,-1e-05,0.0,1e-05,0.0,2e-05,1e-05,-2e-05,1
3491,3651,-2e-05,-1e-05,0.0,1e-05,0.0,2e-05,1e-05,-2e-05,1
3492,3652,-2e-05,-1e-05,0.0,1e-05,0.0,2e-05,1e-05,-2e-05,1
3493,3653,-2e-05,-1e-05,0.0,1e-05,0.0,2e-05,1e-05,-2e-05,1
3494,3654,-2e-05,-1e-05,0.0,1e-05,0.0,2e-05,1e-05,-2e-05,1
3495,3655,-2e-05,-1e-05,0.0,1e-05,0.0,2e-05,1e-05,-2e-05,1
3496,3656,-2e-05,-1e-05,0.0,1e-05,0.0,2e-05,1e-05,-2e-05,1
3497,3657,-2e-05,-1e-05,0.0,1e-05,0.0,2e-05,1e-05,-2e-05,1
3498,3658,-2e-05,-1e-05,0.0,1e-05,0.0,2e-05,1e-05,-2e-05,1
3499,3659,-2e-05,-1e-05,0.0,1e-05,0.0,2e-05,1e-05,-2e-05,1
3500,3660,-2e-05,-1e-05,0.0,1e-05,0.0,2e-05,1e-05,-2e-05,1
3501,3661,-2e-05,-1e-05,0.0,1e-05,0.0,2e-05,1e-05,-2e-05,1
3502,3662,-2e-05,-1e-05,0.0,1e-05,0.0,2e-05,1e-05,-2e-05,1
3503,3663,-2e-05,-1e-05,0.0,1e-05,0.0,2e-05,1e-05,-2e-05,1
3504,3664,-2e-05,-1e-05,0.0,1e-05,0.0,2e-05,1e-05,-2e-05,1
3505,3665,-2e-05,-1e-05,0.0,1e-05,0.0,2e-05,1e-05,-2e-05,1
3506,3666,-2e-05,-1e-05,0.0,1e-05,0.0,2e-05,1e-05,-2e-05,1
3507,3667,-2e-05,-1e-05,0.0,1e-05,0.0,2e-05,1e-05,-2e-05,1
3508,3668,-2e-05,-1e-05,0.0,1e-05,0.0,2e-05,1e-05,-2e-05,1
3509,3669,-2e-05,-1e-05,0.0,1e-05,0.0,2e-05,1e-05,-2e-05,1
3510,3670,-2e-05,-1e-05,0.0,1e-05,0.0,2e-05,1e-05,-2e-05,1
3511,3671,-1e-05,-2e-05,0.0,0.0,-1e-05,-1e-05,1e-05,-2.9999999999999997e-05,1
3512,3672,-1e-05,-2e-05,0.0,0.0,-1e-05,-1e-05,1e-05,-2.9999999999999997e-05,1
3513,3673,0.0,-1e-05,0.0,-2.9999999999999997e-05,-2.9999999999999997e-05,-2e-05,-2e-05,0.0,1
3514,3674,0.0,-1e-05,0.0,-2.9999999999999997e-05,-2.9999999999999997e-05,-2e-05,-2e-05,0.0,1
3515,3675,0.0,-1e-05,0.0,-2.9999999999999997e-05,-2.9999999999999997e-05,-2e-05,-2e-05,0.0,1
3516,3676,0.0,-1e-05,0.0,-2.9999999999999997e-05,-2.9999999999999997e-05,-2e-05,-2e-05,0.0,1
3517,3677,0.0,-1e-05,0.0,-2.9999999999999997e-05,-2.9999999999999997e-05,-2e-05,-2e-05,0.0,1
3518,3678,0.0,-1e-05,0.0,-2.9999999999999997e-05,-2.9999999999999997e-05,-2e-05,-2e-05,0.0,1
3519,3679,0.0,-1e-05,0.0,-2.9999999999999997e-05,-2.9999999999999997e-05,-2e-05,-2e-05,0.0,1
3520,3680,0.0,-1e-05,0.0,-2.9999999999999997e-05,-2.9999999999999997e-05,-2e-05,-2e-05,0.0,1
3521,3681,0.0,-1e-05,0.0,-2.9999999999999997e-05,-2.9999999999999997e-05,-2e-05,-2e-05,0.0,1
3522,3682,0.0,-1e-05,0.0,-2.9999999999999997e-05,-2.9999999999999997e-05,-2e-05,-2e-05,0.0,1
3523,3683,0.0,-1e-05,0.0,-2.9999999999999997e-05,-2.9999999999999997e-05,-2e-05,-2e-05,0.0,1
3524,3684,-2e-05,-2e-05,-2e-05,-2e-05,-2e-05,-2e-05,-1e-05,-2e-05,1
3525,3685,1e-05,1e-05,-1e-05,0.0,1e-05,-1e-05,1e-05,-1e-05,1
3526,3687,1e-05,1e-05,-1e-05,0.0,1e-05,-1e-05,1e-05,-1e-05,1
3527,3689,1e-05,1e-05,-1e-05,0.0,1e-05,-1e-05,1e-05,-1e-05,1
3528,3690,1e-05,1e-05,-1e-05,0.0,1e-05,-1e-05,1e-05,-1e-05,1
3529,3691,0.0,-2.9999999999999997e-05,0.0,0.0,-1e-05,-2e-05,-2e-05,-1e-05,1
3530,3692,0.0,-2.9999999999999997e-05,0.0,0.0,-1e-05,-2e-05,-2e-05,-1e-05,1
3531,3693,0.0,-2.9999999999999997e-05,0.0,0.0,-1e-05,-2e-05,-2e-05,-1e-05,1
3532,3694,0.0,-2.9999999999999997e-05,0.0,0.0,-1e-05,-2e-05,-2e-05,-1e-05,1
3533,3695,0.0,-2.9999999999999997e-05,0.0,0.0,-1e-05,-2e-05,-2e-05,-1e-05,1
3534,3696,0.0,-2.9999999999999997e-05,0.0,0.0,-1e-05,-2e-05,-2e-05,-1e-05,1
3535,3697,0.0,-2.9999999999999997e-05,0.0,0.0,-1e-05,-2e-05,-2e-05,-1e-05,1
3536,3698,0.0,-2.9999999999999997e-05,0.0,0.0,-1e-05,-2e-05,-2e-05,-1e-05,1
3537,3699,0.0,-2.9999999999999997e-05,0.0,0.0,-1e-05,-2e-05,-2e-05,-1e-05,1
3538,3700,0.0,-2.9999999999999997e-05,0.0,0.0,-1e-05,-2e-05,-2e-05,-1e-05,1
3539,3701,0.0,-2.9999999999999997e-05,0.0,0.0,-1e-05,-2e-05,-2e-05,-1e-05,1
3540,3702,0.0,-2.9999999999999997e-05,0.0,0.0,-1e-05,-2e-05,-2e-05,-1e-05,1
3541,3703,0.0,-2.9999999999999997e-05,0.0,0.0,-1e-05,-2e-05,-2e-05,-1e-05,1
3542,3704,0.0,-2.9999999999999997e-05,0.0,0.0,-1e-05,-2e-05,-2e-05,-1e-05,1
3543,3705,0.0,-2.9999999999999997e-05,0.0,0.0,-1e-05,-2e-05,-2e-05,-1e-05,1
3544,3706,0.0,-2.9999999999999997e-05,0.0,0.0,-1e-05,-2e-05,-2e-05,-1e-05,1
3545,3707,0.0,-2.9999999999999997e-05,0.0,0.0,-1e-05,-2e-05,-2e-05,-1e-05,1
3546,3708,-1e-05,-1e-05,-1e-05,0.0,-1e-05,-2.9999999999999997e-05,-2e-05,1e-05,1
3547,3709,-1e-05,-1e-05,-2e-05,-2.9999999999999997e-05,-4e-05,-2.9999999999999997e-05,-2e-05,0.0,1
3548,3710,-1e-05,-1e-05,-2e-05,-2.9999999999999997e-05,-4e-05,-2.9999999999999997e-05,-2e-05,0.0,1
3549,3711,-1e-05,-1e-05,-2e-05,-2.9999999999999997e-05,-4e-05,-2.9999999999999997e-05,-2e-05,0.0,1
3550,3712,-1e-05,-1e-05,-2e-05,-2.9999999999999997e-05,-4e-05,-2.9999999999999997e-05,-2e-05,0.0,1
3551,3713,-1e-05,-1e-05,-2e-05,-2.9999999999999997e-05,-4e-05,-2.9999999999999997e-05,-2e-05,0.0,1
3552,3714,-1e-05,-1e-05,-2e-05,-2.9999999999999997e-05,-4e-05,-2.9999999999999997e-05,-2e-05,0.0,1
3553,3715,-1e-05,-1e-05,-2e-05,-2.9999999999999997e-05,-4e-05,-2.9999999999999997e-05,-2e-05,0.0,1
3554,3716,-1e-05,-1e-05,-2e-05,-2.9999999999999997e-05,-4e-05,-2.9999999999999997e-05,-2e-05,0.0,1
3555,3717,-1e-05,-1e-05,-2e-05,-2.9999999999999997e-05,-4e-05,-2.9999999999999997e-05,-2e-05,0.0,1
3556,3718,-1e-05,-1e-05,-2e-05,-2.9999999999999997e-05,-4e-05,-2.9999999999999997e-05,-2e-05,0.0,1
3557,3719,-1e-05,-1e-05,-2e-05,-2.9999999999999997e-05,-4e-05,-2.9999999999999997e-05,-2e-05,0.0,1
3558,3720,-1e-05,-1e-05,-2e-05,-2.9999999999999997e-05,-4e-05,-2.9999999999999997e-05,-2e-05,0.0,1
3559,3721,-1e-05,-1e-05,-2e-05,-2.9999999999999997e-05,-4e-05,-2.9999999999999997e-05,-2e-05,0.0,1
3560,3722,-1e-05,-1e-05,-2e-05,-2.9999999999999997e-05,-4e-05,-2.9999999999999997e-05,-2e-05,0.0,1
3561,3723,-1e-05,-1e-05,-2e-05,-2.9999999999999997e-05,-4e-05,-2.9999999999999997e-05,-2e-05,0.0,1
3562,3724,-1e-05,-1e-05,-2e-05,-2.9999999999999997e-05,-4e-05,-2.9999999999999997e-05,-2e-05,0.0,1
3563,3725,-1e-05,-1e-05,-2e-05,-2.9999999999999997e-05,-4e-05,-2.9999999999999997e-05,-2e-05,0.0,1
3564,3726,-1e-05,-1e-05,-2e-05,-2.9999999999999997e-05,-4e-05,-2.9999999999999997e-05,-2e-05,0.0,1
3565,3727,-1e-05,-1e-05,-2e-05,-2.9999999999999997e-05,-4e-05,-2.9999999999999997e-05,-2e-05,0.0,1
3566,3728,-1e-05,-1e-05,-2e-05,-2.9999999999999997e-05,-4e-05,-2.9999999999999997e-05,-2e-05,0.0,1
3567,3729,-1e-05,-1e-05,-2e-05,-2.9999999999999997e-05,-4e-05,-2.9999999999999997e-05,-2e-05,0.0,1
3568,3730,0.0,-1e-05,1e-05,2.9999999999999997e-05,2.9999999999999997e-05,2e-05,0.0,-1e-05,1
3569,3731,0.0,-1e-05,1e-05,2.9999999999999997e-05,2.9999999999999997e-05,2e-05,0.0,-1e-05,1
3570,3732,-1e-05,-2e-05,-2.9999999999999997e-05,-1e-05,-1e-05,-2e-05,0.0,0.0,1
3571,3733,-1e-05,-2e-05,-2.9999999999999997e-05,-1e-05,-1e-05,-2e-05,0.0,0.0,1
3572,3734,-1e-05,-2e-05,-2.9999999999999997e-05,-1e-05,-1e-05,-2e-05,0.0,0.0,1
3573,3735,-1e-05,-2e-05,-2.9999999999999997e-05,-1e-05,-1e-05,-2e-05,0.0,0.0,1
3574,3736,-1e-05,-2e-05,-2.9999999999999997e-05,-1e-05,-1e-05,-2e-05,0.0,0.0,1
3575,3738,-1e-05,-2e-05,-2.9999999999999997e-05,-1e-05,-1e-05,-2e-05,0.0,0.0,1
3576,3739,-1e-05,-2e-05,-2.9999999999999997e-05,-1e-05,-1e-05,-2e-05,0.0,0.0,1
3577,3740,-1e-05,-2e-05,-2.9999999999999997e-05,-1e-05,-1e-05,-2e-05,0.0,0.0,1
3578,3741,-1e-05,-2e-05,-2.9999999999999997e-05,-1e-05,-1e-05,-2e-05,0.0,0.0,1
3579,3742,-1e-05,-2e-05,-2.9999999999999997e-05,-1e-05,-1e-05,-2e-05,0.0,0.0,1
3580,3743,-1e-05,-2e-05,-2.9999999999999997e-05,-1e-05,-1e-05,-2e-05,0.0,0.0,1
3581,3744,-1e-05,-2e-05,-2.9999999999999997e-05,-1e-05,-1e-05,-2e-05,0.0,0.0,1
3582,3745,-1e-05,0.0,-1e-05,-1e-05,1e-05,1e-05,-1e-05,-1e-05,1
3583,3746,-1e-05,0.0,-1e-05,-1e-05,1e-05,1e-05,-1e-05,-1e-05,1
3584,3747,-1e-05,0.0,-1e-05,-1e-05,1e-05,1e-05,-1e-05,-1e-05,1
3585,3748,-1e-05,0.0,-1e-05,-1e-05,1e-05,1e-05,-1e-05,-1e-05,1
3586,3749,-1e-05,0.0,-1e-05,-1e-05,1e-05,1e-05,-1e-05,-1e-05,1
3587,3750,-1e-05,0.0,-1e-05,-1e-05,1e-05,1e-05,-1e-05,-1e-05,1
3588,3751,-1e-05,0.0,-1e-05,-1e-05,1e-05,1e-05,-1e-05,-1e-05,1
3589,3752,-1e-05,0.0,-1e-05,-1e-05,1e-05,1e-05,-1e-05,-1e-05,1
3590,3753,-1e-05,0.0,-1e-05,-1e-05,1e-05,1e-05,-1e-05,-1e-05,1
3591,3754,-1e-05,0.0,-1e-05,-1e-05,1e-05,1e-05,-1e-05,-1e-05,1
3592,3755,-1e-05,0.0,-1e-05,-1e-05,1e-05,1e-05,-1e-05,-1e-05,1
3593,3756,-1e-05,0.0,-1e-05,-1e-05,1e-05,1e-05,-1e-05,-1e-05,1
3594,3757,-1e-05,0.0,-1e-05,-1e-05,1e-05,1e-05,-1e-05,-1e-05,1
3595,3758,-1e-05,0.0,-1e-05,-1e-05,1e-05,1e-05,-1e-05,-1e-05,1
3596,3759,-1e-05,0.0,0.0,1e-05,-2e-05,-2e-05,0.0,0.0,1
3597,3760,-1e-05,0.0,0.0,1e-05,-2e-05,-2e-05,0.0,0.0,1
3598,3761,-1e-05,0.0,0.0,1e-05,-2e-05,-2e-05,0.0,0.0,1
3599,3762,-1e-05,0.0,0.0,1e-05,-2e-05,-2e-05,0.0,0.0,1
3600,3763,-1e-05,0.0,0.0,1e-05,-2e-05,-2e-05,0.0,0.0,1
3601,3764,-1e-05,0.0,0.0,1e-05,-2e-05,-2e-05,0.0,0.0,1
3602,3765,-1e-05,0.0,0.0,1e-05,-2e-05,-2e-05,0.0,0.0,1
3603,3766,-1e-05,0.0,0.0,1e-05,-2e-05,-2e-05,0.0,0.0,1
3604,3767,-1e-05,0.0,0.0,1e-05,-2e-05,-2e-05,0.0,0.0,1
3605,3768,-1e-05,0.0,0.0,1e-05,-2e-05,-2e-05,0.0,0.0,1
3606,3769,-1e-05,0.0,0.0,1e-05,-2e-05,-2e-05,0.0,0.0,1
3607,3770,-1e-05,0.0,0.0,1e-05,-2e-05,-2e-05,0.0,0.0,1
3608,3771,-1e-05,0.0,0.0,1e-05,-2e-05,-2e-05,0.0,0.0,1
3609,3772,-1e-05,0.0,0.0,1e-05,-2e-05,-2e-05,0.0,0.0,1
3610,3773,-1e-05,0.0,0.0,1e-05,-2e-05,-2e-05,0.0,0.0,1
3611,3774,-1e-05,0.0,0.0,1e-05,-2e-05,-2e-05,0.0,0.0,1
3612,3775,-2e-05,-2e-05,-1e-05,0.0,2e-05,2e-05,-1e-05,-1e-05,1
3613,3776,-2e-05,-2e-05,-1e-05,0.0,2e-05,2e-05,-1e-05,-1e-05,1
3614,3777,0.0,0.0,-1e-05,-2e-05,-1e-05,-1e-05,-1e-05,-1e-05,1
3615,3778,0.0,0.0,-1e-05,-2e-05,-1e-05,-1e-05,-1e-05,-1e-05,1
3616,3779,0.0,0.0,-1e-05,-2e-05,-1e-05,-1e-05,-1e-05,-1e-05,1
3617,3780,0.0,0.0,-1e-05,-2e-05,-1e-05,-1e-05,-1e-05,-1e-05,1
3618,3781,0.0,0.0,-1e-05,-2e-05,-1e-05,-1e-05,-1e-05,-1e-05,1
3619,3782,0.0,0.0,-1e-05,-2e-05,-1e-05,-1e-05,-1e-05,-1e-05,1
3620,3783,0.0,0.0,-1e-05,-2e-05,-1e-05,-1e-05,-1e-05,-1e-05,1
3621,3784,0.0,0.0,-1e-05,-2e-05,-1e-05,-1e-05,-1e-05,-1e-05,1
3622,3785,0.0,0.0,-1e-05,-2e-05,-1e-05,-1e-05,-1e-05,-1e-05,1
3623,3786,0.0,0.0,-1e-05,-2e-05,-1e-05,-1e-05,-1e-05,-1e-05,1
3624,3788,0.0,0.0,-1e-05,-2e-05,-1e-05,-1e-05,-1e-05,-1e-05,1
3625,3789,0.0,0.0,-1e-05,-2e-05,-1e-05,-1e-05,-1e-05,-1e-05,1
3626,3790,0.0,0.0,-1e-05,-2e-05,-1e-05,-1e-05,-1e-05,-1e-05,1
3627,3791,0.0,0.0,-1e-05,-2e-05,-1e-05,-1e-05,-1e-05,-1e-05,1
3628,3792,0.0,0.0,-1e-05,-2e-05,-1e-05,-1e-05,-1e-05,-1e-05,1
3629,3793,0.0,0.0,-1e-05,-2e-05,-1e-05,-1e-05,-1e-05,-1e-05,1
3630,3794,0.0,0.0,-1e-05,-2e-05,-1e-05,-1e-05,-1e-05,-1e-05,1
3631,3795,0.0,0.0,-1e-05,-2e-05,-1e-05,-1e-05,-1e-05,-1e-05,1
3632,3796,0.0,0.0,-1e-05,-2e-05,-1e-05,-1e-05,-1e-05,-1e-05,1
3633,3797,0.0,0.0,-1e-05,-2e-05,-1e-05,-1e-05,-1e-05,-1e-05,1
3634,3798,0.0,0.0,-1e-05,-2e-05,-1e-05,-1e-05,-1e-05,-1e-05,1
3635,3799,0.0,0.0,-1e-05,-2e-05,-1e-05,-1e-05,-1e-05,-1e-05,1
3636,3800,0.0,0.0,-1e-05,-2e-05,-1e-05,-1e-05,-1e-05,-1e-05,1
3637,3801,0.0,0.0,-1e-05,-2e-05,-1e-05,-1e-05,-1e-05,-1e-05,1
3638,3802,0.0,0.0,-1e-05,-2e-05,-1e-05,-1e-05,-1e-05,-1e-05,1
3639,3803,0.0,0.0,-1e-05,-2e-05,-1e-05,-1e-05,-1e-05,-1e-05,1
3640,3804,0.0,0.0,-1e-05,-2e-05,-1e-05,-1e-05,-1e-05,-1e-05,1
3641,3805,0.0,0.0,-1e-05,-2e-05,-1e-05,-1e-05,-1e-05,-1e-05,1
3642,3806,-1e-05,-1e-05,1e-05,0.0,0.0,-1e-05,-1e-05,0.0,1
3643,3807,-1e-05,-1e-05,-1e-05,-2e-05,-1e-05,0.0,0.0,0.0,1
3644,3808,-2e-05,-2e-05,-2e-05,-1e-05,0.0,0.0,-1e-05,-1e-05,1
3645,3809,-2e-05,-2e-05,-2e-05,-1e-05,0.0,0.0,-1e-05,-1e-05,1
3646,3810,-2e-05,-2e-05,-2e-05,-1e-05,0.0,0.0,-1e-05,-1e-05,1
3647,3811,-2e-05,-2e-05,-2e-05,-1e-05,0.0,0.0,-1e-05,-1e-05,1
3648,3812,-2e-05,-2e-05,-2e-05,-1e-05,0.0,0.0,-1e-05,-1e-05,1
3649,3813,0.0,0.0,0.0,1e-05,2.9999999999999997e-05,-1e-05,0.0,0.0,1
3650,3814,0.0,0.0,0.0,1e-05,2.9999999999999997e-05,-1e-05,0.0,0.0,1
3651,3815,0.0,0.0,0.0,1e-05,2.9999999999999997e-05,-1e-05,0.0,0.0,1
3652,3816,0.0,0.0,0.0,1e-05,2.9999999999999997e-05,-1e-05,0.0,0.0,1
3653,3817,0.0,0.0,0.0,1e-05,2.9999999999999997e-05,-1e-05,0.0,0.0,1
3654,3818,0.0,0.0,0.0,1e-05,2.9999999999999997e-05,-1e-05,0.0,0.0,1
3655,3819,0.0,0.0,0.0,1e-05,2.9999999999999997e-05,-1e-05,0.0,0.0,1
3656,3820,0.0,0.0,0.0,1e-05,2.9999999999999997e-05,-1e-05,0.0,0.0,1
3657,3821,0.0,0.0,0.0,1e-05,2.9999999999999997e-05,-1e-05,0.0,0.0,1
3658,3822,0.0,0.0,0.0,1e-05,2.9999999999999997e-05,-1e-05,0.0,0.0,1
3659,3823,0.0,0.0,0.0,1e-05,2.9999999999999997e-05,-1e-05,0.0,0.0,1
3660,3824,0.0,0.0,0.0,1e-05,2.9999999999999997e-05,-1e-05,0.0,0.0,1
3661,3825,0.0,0.0,0.0,1e-05,2.9999999999999997e-05,-1e-05,0.0,0.0,1
3662,3826,0.0,0.0,0.0,1e-05,2.9999999999999997e-05,-1e-05,0.0,0.0,1
3663,3827,0.0,0.0,0.0,1e-05,2.9999999999999997e-05,-1e-05,0.0,0.0,1
3664,3828,0.0,-2.9999999999999997e-05,-4e-05,-2e-05,-2.9999999999999997e-05,-2e-05,-2e-05,-2e-05,1
3665,3829,-2e-05,-2e-05,-1e-05,-2.9999999999999997e-05,-2e-05,-2e-05,-1e-05,-2e-05,1
3666,3830,-2e-05,-2e-05,-1e-05,-2.9999999999999997e-05,-2e-05,-2e-05,-1e-05,-2e-05,1
3667,3831,-2e-05,-2e-05,-1e-05,-2.9999999999999997e-05,-2e-05,-2e-05,-1e-05,-2e-05,1
3668,3832,-2e-05,-2e-05,-1e-05,-2.9999999999999997e-05,-2e-05,-2e-05,-1e-05,-2e-05,1
3669,3833,-2e-05,-2e-05,-1e-05,-2.9999999999999997e-05,-2e-05,-2e-05,-1e-05,-2e-05,1
3670,3834,-2e-05,-2e-05,-1e-05,-2.9999999999999997e-05,-2e-05,-2e-05,-1e-05,-2e-05,1
3671,3835,-2e-05,-2e-05,-1e-05,-2.9999999999999997e-05,-2e-05,-2e-05,-1e-05,-2e-05,1
3672,3836,-2e-05,-2e-05,-1e-05,-2.9999999999999997e-05,-2e-05,-2e-05,-1e-05,-2e-05,1
3673,3838,-2e-05,-2e-05,-1e-05,-2.9999999999999997e-05,-2e-05,-2e-05,-1e-05,-2e-05,1
3674,3839,-2e-05,-2e-05,-1e-05,-2.9999999999999997e-05,-2e-05,-2e-05,-1e-05,-2e-05,1
3675,3840,-2e-05,-2e-05,-1e-05,-2.9999999999999997e-05,-2e-05,-2e-05,-1e-05,-2e-05,1
3676,3841,-2e-05,-2e-05,-1e-05,-2.9999999999999997e-05,-2e-05,-2e-05,-1e-05,-2e-05,1
3677,3842,-2e-05,-2e-05,-1e-05,-2.9999999999999997e-05,-2e-05,-2e-05,-1e-05,-2e-05,1
3678,3843,-2e-05,-2e-05,-1e-05,-2.9999999999999997e-05,-2e-05,-2e-05,-1e-05,-2e-05,1
3679,3844,-2e-05,-2e-05,-1e-05,-2.9999999999999997e-05,-2e-05,-2e-05,-1e-05,-2e-05,1
3680,3845,-2e-05,-2e-05,-1e-05,-2.9999999999999997e-05,-2e-05,-2e-05,-1e-05,-2e-05,1
3681,3846,-2e-05,-2e-05,-1e-05,-2.9999999999999997e-05,-2e-05,-2e-05,-1e-05,-2e-05,1
3682,3847,-2e-05,-2e-05,-1e-05,-2.9999999999999997e-05,-2e-05,-2e-05,-1e-05,-2e-05,1
3683,3848,-2e-05,-2e-05,-1e-05,-2.9999999999999997e-05,-2e-05,-2e-05,-1e-05,-2e-05,1
3684,3849,-2e-05,-2e-05,-1e-05,-2.9999999999999997e-05,-2e-05,-2e-05,-1e-05,-2e-05,1
3685,3850,-2e-05,-2e-05,-1e-05,-2.9999999999999997e-05,-2e-05,-2e-05,-1e-05,-2e-05,1
3686,3851,0.0,1e-05,-1e-05,-1e-05,-2e-05,-2.9999999999999997e-05,-2.9999999999999997e-05,-2e-05,1
3687,3852,0.0,0.0,-2e-05,-1e-05,1e-05,0.0,-2.9999999999999997e-05,-1e-05,1
3688,3853,0.0,0.0,-2e-05,-1e-05,1e-05,0.0,-2.9999999999999997e-05,-1e-05,1
3689,3854,0.0,0.0,-2e-05,-1e-05,1e-05,0.0,-2.9999999999999997e-05,-1e-05,1
3690,3855,0.0,0.0,-2e-05,-1e-05,1e-05,0.0,-2.9999999999999997e-05,-1e-05,1
3691,3856,0.0,0.0,-2e-05,-1e-05,1e-05,0.0,-2.9999999999999997e-05,-1e-05,1
3692,3857,0.0,0.0,-2e-05,-1e-05,1e-05,0.0,-2.9999999999999997e-05,-1e-05,1
3693,3858,0.0,0.0,-2e-05,-1e-05,1e-05,0.0,-2.9999999999999997e-05,-1e-05,1
3694,3859,0.0,0.0,-2e-05,-1e-05,1e-05,0.0,-2.9999999999999997e-05,-1e-05,1
3695,3860,0.0,0.0,-2e-05,-1e-05,1e-05,0.0,-2.9999999999999997e-05,-1e-05,1
3696,3861,0.0,0.0,-2e-05,-1e-05,1e-05,0.0,-2.9999999999999997e-05,-1e-05,1
3697,3862,0.0,0.0,-2e-05,-1e-05,1e-05,0.0,-2.9999999999999997e-05,-1e-05,1
3698,3863,0.0,0.0,-2e-05,-1e-05,1e-05,0.0,-2.9999999999999997e-05,-1e-05,1
3699,3864,-1e-05,0.0,-2e-05,-2e-05,-1e-05,-1e-05,1e-05,1e-05,1
3700,3865,-1e-05,0.0,-2e-05,-2e-05,-1e-05,-1e-05,1e-05,1e-05,1
3701,3866,-1e-05,0.0,-2e-05,-2e-05,-1e-05,-1e-05,1e-05,1e-05,1
3702,3867,-1e-05,0.0,-2e-05,-2e-05,-1e-05,-1e-05,1e-05,1e-05,1
3703,3868,-1e-05,0.0,-2e-05,-2e-05,-1e-05,-1e-05,1e-05,1e-05,1
3704,3869,-1e-05,0.0,-2e-05,-2e-05,-1e-05,-1e-05,1e-05,1e-05,1
3705,3870,-1e-05,0.0,-2e-05,-2e-05,-1e-05,-1e-05,1e-05,1e-05,1
3706,3871,-1e-05,0.0,-2e-05,-2e-05,-1e-05,-1e-05,1e-05,1e-05,1
3707,3872,-1e-05,0.0,-2e-05,-2e-05,-1e-05,-1e-05,1e-05,1e-05,1
3708,3873,0.0,-1e-05,0.0,-2e-05,-1e-05,0.0,-2e-05,0.0,1
3709,3874,0.0,-1e-05,0.0,-2e-05,-1e-05,0.0,-2e-05,0.0,1
3710,3875,0.0,-1e-05,0.0,-2e-05,-1e-05,0.0,-2e-05,0.0,1
3711,3876,0.0,-1e-05,0.0,-2e-05,-1e-05,0.0,-2e-05,0.0,1
3712,3877,0.0,-1e-05,0.0,-2e-05,-1e-05,0.0,-2e-05,0.0,1
3713,3878,0.0,-1e-05,0.0,-2e-05,-1e-05,0.0,-2e-05,0.0,1
3714,3879,0.0,-1e-05,0.0,-2e-05,-1e-05,0.0,-2e-05,0.0,1
3715,3880,0.0,-1e-05,0.0,-2e-05,-1e-05,0.0,-2e-05,0.0,1
3716,3881,0.0,-1e-05,0.0,-2e-05,-1e-05,0.0,-2e-05,0.0,1
3717,3882,0.0,-1e-05,0.0,-2e-05,-1e-05,0.0,-2e-05,0.0,1
3718,3883,0.0,-1e-05,0.0,-2e-05,-1e-05,0.0,-2e-05,0.0,1
3719,3884,0.0,-1e-05,0.0,-2e-05,-1e-05,0.0,-2e-05,0.0,1
3720,3885,0.0,-1e-05,0.0,-2e-05,-1e-05,0.0,-2e-05,0.0,1
3721,3886,0.0,-1e-05,0.0,-2e-05,-1e-05,0.0,-2e-05,0.0,1
3722,3888,-2e-05,-1e-05,1e-05,0.0,-2.9999999999999997e-05,1e-05,-1e-05,-2e-05,1
3723,3889,-2e-05,-1e-05,1e-05,0.0,-2.9999999999999997e-05,1e-05,-1e-05,-2e-05,1
3724,3890,-2.9999999999999997e-05,1e-05,-2e-05,0.0,-2e-05,-1e-05,-2e-05,-1e-05,1
3725,3891,-2.9999999999999997e-05,1e-05,-2e-05,0.0,-2e-05,-1e-05,-2e-05,-1e-05,1
3726,3892,-2.9999999999999997e-05,1e-05,-2e-05,0.0,-2e-05,-1e-05,-2e-05,-1e-05,1
3727,3893,-2.9999999999999997e-05,1e-05,-2e-05,0.0,-2e-05,-1e-05,-2e-05,-1e-05,1
3728,3894,-2.9999999999999997e-05,1e-05,-2e-05,0.0,-2e-05,-1e-05,-2e-05,-1e-05,1
3729,3895,-2.9999999999999997e-05,1e-05,-2e-05,0.0,-2e-05,-1e-05,-2e-05,-1e-05,1
3730,3896,-2.9999999999999997e-05,1e-05,-2e-05,0.0,-2e-05,-1e-05,-2e-05,-1e-05,1
3731,3897,-2.9999999999999997e-05,1e-05,-2e-05,0.0,-2e-05,-1e-05,-2e-05,-1e-05,1
3732,3898,-2.9999999999999997e-05,1e-05,-2e-05,0.0,-2e-05,-1e-05,-2e-05,-1e-05,1
3733,3899,-2.9999999999999997e-05,1e-05,-2e-05,0.0,-2e-05,-1e-05,-2e-05,-1e-05,1
3734,3900,-2.9999999999999997e-05,1e-05,-2e-05,0.0,-2e-05,-1e-05,-2e-05,-1e-05,1
3735,3901,-2.9999999999999997e-05,1e-05,-2e-05,0.0,-2e-05,-1e-05,-2e-05,-1e-05,1
3736,3902,-2.9999999999999997e-05,1e-05,-2e-05,0.0,-2e-05,-1e-05,-2e-05,-1e-05,1
3737,3903,-2.9999999999999997e-05,1e-05,-2e-05,0.0,-2e-05,-1e-05,-2e-05,-1e-05,1
3738,3905,-2.9999999999999997e-05,1e-05,-2e-05,0.0,-2e-05,-1e-05,-2e-05,-1e-05,1
3739,3906,-2.9999999999999997e-05,1e-05,-2e-05,0.0,-2e-05,-1e-05,-2e-05,-1e-05,1
3740,3907,-2.9999999999999997e-05,1e-05,-2e-05,0.0,-2e-05,-1e-05,-2e-05,-1e-05,1
3741,3908,-2.9999999999999997e-05,1e-05,-2e-05,0.0,-2e-05,-1e-05,-2e-05,-1e-05,1
3742,3909,-2.9999999999999997e-05,1e-05,-2e-05,0.0,-2e-05,-1e-05,-2e-05,-1e-05,1
3743,3910,-1e-05,-1e-05,-2e-05,-1e-05,-2e-05,-2e-05,1e-05,-2.9999999999999997e-05,1
3744,3911,-1e-05,-1e-05,-2e-05,-1e-05,-2e-05,-2e-05,1e-05,-2.9999999999999997e-05,1
3745,3912,-2e-05,0.0,0.0,0.0,0.0,0.0,0.0,-2.9999999999999997e-05,1
3746,3913,-2e-05,0.0,0.0,0.0,0.0,0.0,0.0,-2.9999999999999997e-05,1
3747,3914,-2e-05,0.0,0.0,0.0,0.0,0.0,0.0,-2.9999999999999997e-05,1
3748,3915,-2e-05,0.0,0.0,0.0,0.0,0.0,0.0,-2.9999999999999997e-05,1
3749,3916,-2e-05,0.0,0.0,0.0,0.0,0.0,0.0,-2.9999999999999997e-05,1
3750,3917,-2e-05,0.0,0.0,0.0,0.0,0.0,0.0,-2.9999999999999997e-05,1
3751,3918,-2e-05,0.0,0.0,0.0,0.0,0.0,0.0,-2.9999999999999997e-05,1
3752,3919,-2e-05,0.0,0.0,0.0,0.0,0.0,0.0,-2.9999999999999997e-05,1
3753,3920,-2e-05,0.0,0.0,0.0,0.0,0.0,0.0,-2.9999999999999997e-05,1
3754,3921,-2e-05,0.0,0.0,0.0,0.0,0.0,0.0,-2.9999999999999997e-05,1
3755,3922,-2e-05,0.0,0.0,0.0,0.0,0.0,0.0,-2.9999999999999997e-05,1
3756,3923,-2e-05,0.0,0.0,0.0,0.0,0.0,0.0,-2.9999999999999997e-05,1
3757,3924,0.0,-2e-05,0.0,-2e-05,-1e-05,-2e-05,-1e-05,-1e-05,1
3758,3925,0.0,-2e-05,0.0,-2e-05,-1e-05,-2e-05,-1e-05,-1e-05,1
3759,3926,0.0,-2e-05,0.0,-2e-05,-1e-05,-2e-05,-1e-05,-1e-05,1
3760,3927,0.0,-2e-05,0.0,-2e-05,-1e-05,-2e-05,-1e-05,-1e-05,1
3761,3928,0.0,-2e-05,0.0,-2e-05,-1e-05,-2e-05,-1e-05,-1e-05,1
3762,3929,0.0,-2e-05,0.0,-2e-05,-1e-05,-2e-05,-1e-05,-1e-05,1
3763,3930,0.0,-2e-05,0.0,-2e-05,-1e-05,-2e-05,-1e-05,-1e-05,1
3764,3931,0.0,-2e-05,0.0,-2e-05,-1e-05,-2e-05,-1e-05,-1e-05,1
3765,3932,0.0,-2e-05,0.0,-2e-05,-1e-05,-2e-05,-1e-05,-1e-05,1
3766,3933,-2.9999999999999997e-05,0.0,-2e-05,2e-05,1e-05,4e-05,1e-05,1e-05,1
3767,3934,-2.9999999999999997e-05,0.0,-2e-05,2e-05,1e-05,4e-05,1e-05,1e-05,1
3768,3935,-2.9999999999999997e-05,0.0,-2e-05,2e-05,1e-05,4e-05,1e-05,1e-05,1
3769,3936,-2.9999999999999997e-05,0.0,-2e-05,2e-05,1e-05,4e-05,1e-05,1e-05,1
3770,3938,-2.9999999999999997e-05,0.0,-2e-05,2e-05,1e-05,4e-05,1e-05,1e-05,1
3771,3939,-2.9999999999999997e-05,0.0,-2e-05,2e-05,1e-05,4e-05,1e-05,1e-05,1
3772,3940,-2.9999999999999997e-05,0.0,-2e-05,2e-05,1e-05,4e-05,1e-05,1e-05,1
3773,3941,-2.9999999999999997e-05,0.0,-2e-05,2e-05,1e-05,4e-05,1e-05,1e-05,1
3774,3942,-2.9999999999999997e-05,0.0,-2e-05,2e-05,1e-05,4e-05,1e-05,1e-05,1
3775,3943,-2.9999999999999997e-05,0.0,-2e-05,2e-05,1e-05,4e-05,1e-05,1e-05,1
3776,3944,-2.9999999999999997e-05,0.0,-2e-05,2e-05,1e-05,4e-05,1e-05,1e-05,1
3777,3945,-2.9999999999999997e-05,0.0,-2e-05,2e-05,1e-05,4e-05,1e-05,1e-05,1
3778,3946,-2.9999999999999997e-05,0.0,-2e-05,2e-05,1e-05,4e-05,1e-05,1e-05,1
3779,3947,-2.9999999999999997e-05,0.0,-2e-05,2e-05,1e-05,4e-05,1e-05,1e-05,1
3780,3948,-2.9999999999999997e-05,0.0,-2e-05,2e-05,1e-05,4e-05,1e-05,1e-05,1
3781,3949,-2.9999999999999997e-05,0.0,-2e-05,2e-05,1e-05,4e-05,1e-05,1e-05,1
3782,3950,-2.9999999999999997e-05,0.0,-2e-05,2e-05,1e-05,4e-05,1e-05,1e-05,1
3783,3951,-2.9999999999999997e-05,0.0,-2e-05,2e-05,1e-05,4e-05,1e-05,1e-05,1
3784,3952,-2.9999999999999997e-05,0.0,-2e-05,2e-05,1e-05,4e-05,1e-05,1e-05,1
3785,3953,-2.9999999999999997e-05,0.0,-2e-05,2e-05,1e-05,4e-05,1e-05,1e-05,1
3786,3954,-2.9999999999999997e-05,0.0,-2e-05,2e-05,1e-05,4e-05,1e-05,1e-05,1
3787,3955,0.0,0.0,-1e-05,1e-05,0.0,0.0,0.0,-2e-05,1
3788,3956,0.0,0.0,-1e-05,1e-05,0.0,0.0,0.0,-2e-05,1
3789,3957,0.0,0.0,-2.9999999999999997e-05,-2e-05,-4e-05,-5e-05,0.0,0.0,1
3790,3958,0.0,0.0,-2.9999999999999997e-05,-2e-05,-4e-05,-5e-05,0.0,0.0,1
3791,3959,0.0,0.0,-2.9999999999999997e-05,-2e-05,-4e-05,-5e-05,0.0,0.0,1
3792,3960,0.0,0.0,-2.9999999999999997e-05,-2e-05,-4e-05,-5e-05,0.0,0.0,1
3793,3961,0.0,0.0,-2.9999999999999997e-05,-2e-05,-4e-05,-5e-05,0.0,0.0,1
3794,3962,0.0,0.0,-2.9999999999999997e-05,-2e-05,-4e-05,-5e-05,0.0,0.0,1
3795,3963,0.0,0.0,-2.9999999999999997e-05,-2e-05,-4e-05,-5e-05,0.0,0.0,1
3796,3964,0.0,0.0,-2.9999999999999997e-05,-2e-05,-4e-05,-5e-05,0.0,0.0,1
3797,3965,0.0,0.0,-2.9999999999999997e-05,-2e-05,-4e-05,-5e-05,0.0,0.0,1
3798,3966,0.0,0.0,-2.9999999999999997e-05,-2e-05,-4e-05,-5e-05,0.0,0.0,1
3799,3967,0.0,0.0,-2.9999999999999997e-05,-2e-05,-4e-05,-5e-05,0.0,0.0,1
3800,3968,0.0,0.0,-2.9999999999999997e-05,-2e-05,-4e-05,-5e-05,0.0,0.0,1
3801,3969,0.0,0.0,-2.9999999999999997e-05,-2e-05,-4e-05,-5e-05,0.0,0.0,1
3802,3970,0.0,1e-05,1e-05,1e-05,1e-05,2e-05,-1e-05,0.0,1
3803,3971,0.0,1e-05,1e-05,1e-05,1e-05,2e-05,-1e-05,0.0,1
3804,3972,0.0,-2e-05,0.0,-1e-05,-1e-05,-5e-05,-1e-05,-1e-05,1
3805,3973,0.0,-2e-05,0.0,-1e-05,-1e-05,-5e-05,-1e-05,-1e-05,1
3806,3974,0.0,-2e-05,0.0,-1e-05,-1e-05,-5e-05,-1e-05,-1e-05,1
3807,3975,0.0,-2e-05,0.0,-1e-05,-1e-05,-5e-05,-1e-05,-1e-05,1
3808,3976,0.0,-2e-05,0.0,-1e-05,-1e-05,-5e-05,-1e-05,-1e-05,1
3809,3977,0.0,-2e-05,0.0,-1e-05,-1e-05,-5e-05,-1e-05,-1e-05,1
3810,3978,0.0,-2e-05,0.0,-1e-05,-1e-05,-5e-05,-1e-05,-1e-05,1
3811,3979,0.0,-2e-05,0.0,-1e-05,-1e-05,-5e-05,-1e-05,-1e-05,1
3812,3980,0.0,-2e-05,0.0,-1e-05,-1e-05,-5e-05,-1e-05,-1e-05,1
3813,3981,0.0,-2e-05,0.0,-1e-05,-1e-05,-5e-05,-1e-05,-1e-05,1
3814,3982,0.0,-2e-05,0.0,-1e-05,-1e-05,-5e-05,-1e-05,-1e-05,1
3815,3983,0.0,-2e-05,0.0,-1e-05,-1e-05,-5e-05,-1e-05,-1e-05,1
3816,3984,-1e-05,-2e-05,-2e-05,-2.9999999999999997e-05,-1e-05,-1e-05,0.0,0.0,1
3817,3985,-1e-05,-2e-05,-2e-05,-2.9999999999999997e-05,-1e-05,-1e-05,0.0,0.0,1
3818,3986,-1e-05,-2e-05,-2e-05,-2.9999999999999997e-05,-1e-05,-1e-05,0.0,0.0,1
3819,3988,-1e-05,-2e-05,-2e-05,-2.9999999999999997e-05,-1e-05,-1e-05,0.0,0.0,1
3820,3989,-1e-05,-2e-05,-2e-05,-2.9999999999999997e-05,-1e-05,-1e-05,0.0,0.0,1
3821,3990,-1e-05,-2e-05,-2e-05,-2.9999999999999997e-05,-1e-05,-1e-05,0.0,0.0,1
3822,3991,-1e-05,-2e-05,-2e-05,-2.9999999999999997e-05,-1e-05,-1e-05,0.0,0.0,1
3823,3992,-1e-05,-2e-05,-2e-05,-2.9999999999999997e-05,-1e-05,-1e-05,0.0,0.0,1
3824,3993,-1e-05,-2e-05,-2e-05,-2.9999999999999997e-05,-1e-05,-1e-05,0.0,0.0,1
3825,3994,-1e-05,-2e-05,-2e-05,-2.9999999999999997e-05,-1e-05,-1e-05,0.0,0.0,1
3826,3995,-1e-05,-2e-05,-2e-05,-2.9999999999999997e-05,-1e-05,-1e-05,0.0,0.0,1
3827,3996,-1e-05,-2e-05,-2e-05,-2.9999999999999997e-05,-1e-05,-1e-05,0.0,0.0,1
3828,3998,-1e-05,-2e-05,-2e-05,-2.9999999999999997e-05,-1e-05,-1e-05,0.0,0.0,1
3829,3999,-1e-05,-2e-05,-2e-05,-2.9999999999999997e-05,-1e-05,-1e-05,0.0,0.0,1
3830,4000,0.0,-2e-05,-1e-05,-2e-05,-2e-05,-1e-05,0.0,-2e-05,1
3831,4001,0.0,-2e-05,-1e-05,-2e-05,-2e-05,-1e-05,0.0,-2e-05,1
3832,4002,0.0,-2e-05,-1e-05,-2e-05,-2e-05,-1e-05,0.0,-2e-05,1
3833,4003,0.0,-2e-05,-1e-05,-2e-05,-2e-05,-1e-05,0.0,-2e-05,1
3834,4004,0.0,-2e-05,-1e-05,-2e-05,-2e-05,-1e-05,0.0,-2e-05,1
3835,4005,0.0,-2e-05,-1e-05,-2e-05,-2e-05,-1e-05,0.0,-2e-05,1
3836,4006,0.0,-2e-05,-1e-05,-2e-05,-2e-05,-1e-05,0.0,-2e-05,1
3837,4007,0.0,-2e-05,-1e-05,-2e-05,-2e-05,-1e-05,0.0,-2e-05,1
3838,4008,0.0,-2e-05,-2.9999999999999997e-05,-2.9999999999999997e-05,-5e-05,-2e-05,-2e-05,0.0,1
3839,4009,-2.9999999999999997e-05,-2e-05,-1e-05,1e-05,1e-05,-1e-05,0.0,0.0,1
3840,4010,-2.9999999999999997e-05,-2e-05,-1e-05,1e-05,1e-05,-1e-05,0.0,0.0,1
3841,4011,-2.9999999999999997e-05,-2e-05,-1e-05,1e-05,1e-05,-1e-05,0.0,0.0,1
3842,4012,-2.9999999999999997e-05,-2e-05,-1e-05,1e-05,1e-05,-1e-05,0.0,0.0,1
3843,4013,-2.9999999999999997e-05,-2e-05,-1e-05,1e-05,1e-05,-1e-05,0.0,0.0,1
3844,4014,-2.9999999999999997e-05,-2e-05,-1e-05,1e-05,1e-05,-1e-05,0.0,0.0,1
3845,4015,-2.9999999999999997e-05,-2e-05,-1e-05,1e-05,1e-05,-1e-05,0.0,0.0,1
3846,4016,-2.9999999999999997e-05,-2e-05,-1e-05,1e-05,1e-05,-1e-05,0.0,0.0,1
3847,4017,-2.9999999999999997e-05,-2e-05,-1e-05,1e-05,1e-05,-1e-05,0.0,0.0,1
3848,4018,-2.9999999999999997e-05,-2e-05,-1e-05,1e-05,1e-05,-1e-05,0.0,0.0,1
3849,4019,-2.9999999999999997e-05,-2e-05,-1e-05,1e-05,1e-05,-1e-05,0.0,0.0,1
3850,4020,-2.9999999999999997e-05,-2e-05,-1e-05,1e-05,1e-05,-1e-05,0.0,0.0,1
3851,4021,-2.9999999999999997e-05,-2e-05,-1e-05,1e-05,1e-05,-1e-05,0.0,0.0,1
3852,4022,-2.9999999999999997e-05,-2e-05,-1e-05,1e-05,1e-05,-1e-05,0.0,0.0,1
3853,4023,-2.9999999999999997e-05,-2e-05,-1e-05,1e-05,1e-05,-1e-05,0.0,0.0,1
3854,4024,-2.9999999999999997e-05,-2e-05,-1e-05,1e-05,1e-05,-1e-05,0.0,0.0,1
3855,4025,-2.9999999999999997e-05,-2e-05,-1e-05,1e-05,1e-05,-1e-05,0.0,0.0,1
3856,4026,-2.9999999999999997e-05,-2e-05,-1e-05,1e-05,1e-05,-1e-05,0.0,0.0,1
3857,4027,-2.9999999999999997e-05,-2e-05,-1e-05,1e-05,1e-05,-1e-05,0.0,0.0,1
3858,4028,-2.9999999999999997e-05,-2e-05,-1e-05,1e-05,1e-05,-1e-05,0.0,0.0,1
3859,4029,-2.9999999999999997e-05,-2e-05,-1e-05,1e-05,1e-05,-1e-05,0.0,0.0,1
3860,4030,-2e-05,-2e-05,0.0,-1e-05,1e-05,1e-05,2e-05,0.0,1
3861,4031,-1e-05,-2e-05,1e-05,-2e-05,-2.9999999999999997e-05,-1e-05,-1e-05,-2e-05,1
3862,4032,0.0,-4e-05,0.0,-2e-05,-1e-05,0.0,-1e-05,0.0,1
3863,4033,0.0,-4e-05,0.0,-2e-05,-1e-05,0.0,-1e-05,0.0,1
3864,4034,0.0,-4e-05,0.0,-2e-05,-1e-05,0.0,-1e-05,0.0,1
3865,4035,0.0,-4e-05,0.0,-2e-05,-1e-05,0.0,-1e-05,0.0,1
3866,4036,0.0,-4e-05,0.0,-2e-05,-1e-05,0.0,-1e-05,0.0,1
3867,4038,0.0,-4e-05,0.0,-2e-05,-1e-05,0.0,-1e-05,0.0,1
3868,4039,0.0,-4e-05,0.0,-2e-05,-1e-05,0.0,-1e-05,0.0,1
3869,4040,0.0,-4e-05,0.0,-2e-05,-1e-05,0.0,-1e-05,0.0,1
3870,4041,0.0,-4e-05,0.0,-2e-05,-1e-05,0.0,-1e-05,0.0,1
3871,4042,0.0,-4e-05,0.0,-2e-05,-1e-05,0.0,-1e-05,0.0,1
3872,4043,0.0,-4e-05,0.0,-2e-05,-1e-05,0.0,-1e-05,0.0,1
3873,4044,0.0,-4e-05,0.0,-2e-05,-1e-05,0.0,-1e-05,0.0,1
3874,4045,0.0,-4e-05,0.0,-2e-05,-1e-05,0.0,-1e-05,0.0,1
3875,4046,0.0,-4e-05,0.0,-2e-05,-1e-05,0.0,-1e-05,0.0,1
3876,4047,0.0,-4e-05,0.0,-2e-05,-1e-05,0.0,-1e-05,0.0,1
3877,4048,0.0,-4e-05,0.0,-2e-05,-1e-05,0.0,-1e-05,0.0,1
3878,4049,0.0,-4e-05,0.0,-2e-05,-1e-05,0.0,-1e-05,0.0,1
3879,4050,0.0,-4e-05,0.0,-2e-05,-1e-05,0.0,-1e-05,0.0,1
3880,4051,0.0,-4e-05,0.0,-2e-05,-1e-05,0.0,-1e-05,0.0,1
3881,4052,0.0,-4e-05,0.0,-2e-05,-1e-05,0.0,-1e-05,0.0,1
3882,4053,-2.9999999999999997e-05,0.0,0.0,-1e-05,0.0,-1e-05,-4e-05,1e-05,1
3883,4054,-1e-05,-2e-05,-1e-05,-4e-05,-4e-05,-2.9999999999999997e-05,-4e-05,0.0,1
3884,4055,-1e-05,-2e-05,-1e-05,-4e-05,-4e-05,-2.9999999999999997e-05,-4e-05,0.0,1
3885,4056,-1e-05,-2e-05,-1e-05,-4e-05,-4e-05,-2.9999999999999997e-05,-4e-05,0.0,1
3886,4057,-1e-05,-2e-05,-1e-05,-4e-05,-4e-05,-2.9999999999999997e-05,-4e-05,0.0,1
3887,4058,-1e-05,-2e-05,-1e-05,-4e-05,-4e-05,-2.9999999999999997e-05,-4e-05,0.0,1
3888,4059,-1e-05,-2e-05,-1e-05,-4e-05,-4e-05,-2.9999999999999997e-05,-4e-05,0.0,1
3889,4060,-1e-05,-2e-05,-1e-05,-4e-05,-4e-05,-2.9999999999999997e-05,-4e-05,0.0,1
3890,4061,-1e-05,-2e-05,-1e-05,-4e-05,-4e-05,-2.9999999999999997e-05,-4e-05,0.0,1
3891,4062,-1e-05,-2e-05,-1e-05,-4e-05,-4e-05,-2.9999999999999997e-05,-4e-05,0.0,1
3892,4063,-1e-05,-2e-05,-1e-05,-4e-05,-4e-05,-2.9999999999999997e-05,-4e-05,0.0,1
3893,4064,-1e-05,-2e-05,-1e-05,-4e-05,-4e-05,-2.9999999999999997e-05,-4e-05,0.0,1
3894,4065,-1e-05,-2e-05,-1e-05,-4e-05,-4e-05,-2.9999999999999997e-05,-4e-05,0.0,1
3895,4066,-1e-05,-2e-05,-1e-05,-4e-05,-4e-05,-2.9999999999999997e-05,-4e-05,0.0,1
3896,4067,-1e-05,-2e-05,-1e-05,-4e-05,-4e-05,-2.9999999999999997e-05,-4e-05,0.0,1
3897,4068,-2.9999999999999997e-05,-2e-05,-2e-05,-1e-05,0.0,0.0,0.0,-1e-05,1
3898,4069,-2e-05,-1e-05,-2.9999999999999997e-05,0.0,-2.9999999999999997e-05,-2e-05,0.0,-1e-05,1
3899,4070,-2e-05,-1e-05,-2.9999999999999997e-05,0.0,-2.9999999999999997e-05,-2e-05,0.0,-1e-05,1
3900,4071,-2e-05,-1e-05,-2.9999999999999997e-05,0.0,-2.9999999999999997e-05,-2e-05,0.0,-1e-05,1
3901,4072,-2e-05,-1e-05,-2.9999999999999997e-05,0.0,-2.9999999999999997e-05,-2e-05,0.0,-1e-05,1
3902,4073,-2e-05,-1e-05,-2.9999999999999997e-05,0.0,-2.9999999999999997e-05,-2e-05,0.0,-1e-05,1
3903,4074,-2e-05,-1e-05,-2.9999999999999997e-05,0.0,-2.9999999999999997e-05,-2e-05,0.0,-1e-05,1
3904,4075,-2e-05,-1e-05,-2.9999999999999997e-05,0.0,-2.9999999999999997e-05,-2e-05,0.0,-1e-05,1
3905,4076,-2e-05,-1e-05,-2.9999999999999997e-05,0.0,-2.9999999999999997e-05,-2e-05,0.0,-1e-05,1
3906,4077,-2e-05,-1e-05,-2.9999999999999997e-05,0.0,-2.9999999999999997e-05,-2e-05,0.0,-1e-05,1
3907,4078,-2e-05,-1e-05,-2.9999999999999997e-05,0.0,-2.9999999999999997e-05,-2e-05,0.0,-1e-05,1
3908,4079,-2e-05,-1e-05,-2.9999999999999997e-05,0.0,-2.9999999999999997e-05,-2e-05,0.0,-1e-05,1
3909,4080,-2e-05,-1e-05,-2.9999999999999997e-05,0.0,-2.9999999999999997e-05,-2e-05,0.0,-1e-05,1
3910,4081,-2e-05,-1e-05,-2.9999999999999997e-05,0.0,-2.9999999999999997e-05,-2e-05,0.0,-1e-05,1
3911,4082,-2e-05,-1e-05,-2.9999999999999997e-05,0.0,-2.9999999999999997e-05,-2e-05,0.0,-1e-05,1
3912,4083,-2e-05,-1e-05,-2.9999999999999997e-05,0.0,-2.9999999999999997e-05,-2e-05,0.0,-1e-05,1
3913,4084,-2e-05,-1e-05,-2.9999999999999997e-05,0.0,-2.9999999999999997e-05,-2e-05,0.0,-1e-05,1
3914,4085,-2e-05,-1e-05,-2.9999999999999997e-05,0.0,-2.9999999999999997e-05,-2e-05,0.0,-1e-05,1
3915,4086,-2e-05,-1e-05,-2.9999999999999997e-05,0.0,-2.9999999999999997e-05,-2e-05,0.0,-1e-05,1
3916,4088,-2e-05,-1e-05,-2.9999999999999997e-05,0.0,-2.9999999999999997e-05,-2e-05,0.0,-1e-05,1
3917,4089,-2e-05,-1e-05,-2.9999999999999997e-05,0.0,-2.9999999999999997e-05,-2e-05,0.0,-1e-05,1
3918,4090,-1e-05,-1e-05,-1e-05,1e-05,1e-05,-1e-05,-1e-05,-1e-05,1
3919,4091,-1e-05,-1e-05,-1e-05,1e-05,1e-05,-1e-05,-1e-05,-1e-05,1
3920,4092,-1e-05,-1e-05,-1e-05,-1e-05,1e-05,4e-05,2e-05,-1e-05,1
3921,4093,-1e-05,-1e-05,-1e-05,-1e-05,1e-05,4e-05,2e-05,-1e-05,1
3922,4094,-1e-05,-1e-05,-1e-05,-1e-05,1e-05,4e-05,2e-05,-1e-05,1
3923,4095,-1e-05,-1e-05,-1e-05,-1e-05,1e-05,4e-05,2e-05,-1e-05,1
3924,4096,-1e-05,-1e-05,-1e-05,-1e-05,1e-05,4e-05,2e-05,-1e-05,1
3925,4097,-1e-05,-1e-05,-1e-05,-1e-05,1e-05,4e-05,2e-05,-1e-05,1
3926,4098,-1e-05,-1e-05,-1e-05,-1e-05,1e-05,4e-05,2e-05,-1e-05,1
3927,4099,-1e-05,-1e-05,-1e-05,-1e-05,1e-05,4e-05,2e-05,-1e-05,1
3928,4100,-1e-05,-1e-05,-1e-05,-1e-05,1e-05,4e-05,2e-05,-1e-05,1
3929,4101,-1e-05,-1e-05,-1e-05,-1e-05,1e-05,4e-05,2e-05,-1e-05,1
3930,4102,-1e-05,-1e-05,-1e-05,-1e-05,1e-05,4e-05,2e-05,-1e-05,1
3931,4103,-1e-05,-1e-05,-1e-05,-1e-05,1e-05,4e-05,2e-05,-1e-05,1
3932,4104,1e-05,-1e-05,0.0,1e-05,2e-05,2.9999999999999997e-05,1e-05,-2e-05,1
3933,4105,1e-05,-1e-05,0.0,1e-05,2e-05,2.9999999999999997e-05,1e-05,-2e-05,1
3934,4106,1e-05,-1e-05,0.0,1e-05,2e-05,2.9999999999999997e-05,1e-05,-2e-05,1
3935,4107,1e-05,-1e-05,0.0,1e-05,2e-05,2.9999999999999997e-05,1e-05,-2e-05,1
3936,4108,1e-05,-1e-05,0.0,1e-05,2e-05,2.9999999999999997e-05,1e-05,-2e-05,1
3937,4109,1e-05,-1e-05,0.0,1e-05,2e-05,2.9999999999999997e-05,1e-05,-2e-05,1
3938,4110,1e-05,-1e-05,0.0,1e-05,2e-05,2.9999999999999997e-05,1e-05,-2e-05,1
3939,4111,1e-05,-1e-05,0.0,1e-05,2e-05,2.9999999999999997e-05,1e-05,-2e-05,1
3940,4112,1e-05,-1e-05,0.0,1e-05,2e-05,2.9999999999999997e-05,1e-05,-2e-05,1
3941,4113,0.0,0.0,-1e-05,-2e-05,-4e-05,-2e-05,-1e-05,-1e-05,1
3942,4114,0.0,0.0,-1e-05,-2e-05,-4e-05,-2e-05,-1e-05,-1e-05,1
3943,4115,0.0,0.0,-1e-05,-2e-05,-4e-05,-2e-05,-1e-05,-1e-05,1
3944,4116,0.0,0.0,-1e-05,-2e-05,-4e-05,-2e-05,-1e-05,-1e-05,1
3945,4117,0.0,0.0,-1e-05,-2e-05,-4e-05,-2e-05,-1e-05,-1e-05,1
3946,4118,0.0,0.0,-1e-05,-2e-05,-4e-05,-2e-05,-1e-05,-1e-05,1
3947,4119,0.0,0.0,-1e-05,-2e-05,-4e-05,-2e-05,-1e-05,-1e-05,1
3948,4120,0.0,0.0,-1e-05,-2e-05,-4e-05,-2e-05,-1e-05,-1e-05,1
3949,4121,0.0,0.0,-1e-05,-2e-05,-4e-05,-2e-05,-1e-05,-1e-05,1
3950,4122,0.0,0.0,-1e-05,-2e-05,-4e-05,-2e-05,-1e-05,-1e-05,1
3951,4123,0.0,0.0,-1e-05,-2e-05,-4e-05,-2e-05,-1e-05,-1e-05,1
3952,4124,0.0,0.0,-1e-05,-2e-05,-4e-05,-2e-05,-1e-05,-1e-05,1
3953,4125,0.0,0.0,-1e-05,-2e-05,-4e-05,-2e-05,-1e-05,-1e-05,1
3954,4126,0.0,0.0,-1e-05,-2e-05,-4e-05,-2e-05,-1e-05,-1e-05,1
3955,4127,0.0,0.0,-1e-05,-2e-05,-4e-05,-2e-05,-1e-05,-1e-05,1
3956,4128,-2e-05,0.0,0.0,-2e-05,-1e-05,-2e-05,-1e-05,0.0,1
3957,4129,1e-05,-2e-05,-1e-05,0.0,-2e-05,-1e-05,0.0,-1e-05,1
3958,4130,1e-05,-2e-05,-1e-05,0.0,-2e-05,-1e-05,0.0,-1e-05,1
3959,4131,1e-05,-2e-05,-1e-05,0.0,-2e-05,-1e-05,0.0,-1e-05,1
3960,4132,1e-05,-2e-05,-1e-05,0.0,-2e-05,-1e-05,0.0,-1e-05,1
3961,4133,1e-05,-2e-05,-1e-05,0.0,-2e-05,-1e-05,0.0,-1e-05,1
3962,4134,1e-05,-2e-05,-1e-05,0.0,-2e-05,-1e-05,0.0,-1e-05,1
3963,4135,1e-05,-2e-05,-1e-05,0.0,-2e-05,-1e-05,0.0,-1e-05,1
3964,4136,1e-05,-2e-05,-1e-05,0.0,-2e-05,-1e-05,0.0,-1e-05,1
3965,4138,1e-05,-2e-05,-1e-05,0.0,-2e-05,-1e-05,0.0,-1e-05,1
3966,4139,1e-05,-2e-05,-1e-05,0.0,-2e-05,-1e-05,0.0,-1e-05,1
3967,4140,1e-05,-2e-05,-1e-05,0.0,-2e-05,-1e-05,0.0,-1e-05,1
3968,4141,1e-05,-2e-05,-1e-05,0.0,-2e-05,-1e-05,0.0,-1e-05,1
3969,4142,1e-05,-2e-05,-1e-05,0.0,-2e-05,-1e-05,0.0,-1e-05,1
3970,4143,1e-05,-2e-05,-1e-05,0.0,-2e-05,-1e-05,0.0,-1e-05,1
3971,4144,1e-05,-2e-05,-1e-05,0.0,-2e-05,-1e-05,0.0,-1e-05,1
3972,4145,1e-05,-2e-05,-1e-05,0.0,-2e-05,-1e-05,0.0,-1e-05,1
3973,4146,1e-05,-2e-05,-1e-05,0.0,-2e-05,-1e-05,0.0,-1e-05,1
3974,4147,1e-05,-2e-05,-1e-05,0.0,-2e-05,-1e-05,0.0,-1e-05,1
3975,4148,1e-05,-2e-05,-1e-05,0.0,-2e-05,-1e-05,0.0,-1e-05,1
3976,4149,1e-05,-2e-05,-1e-05,0.0,-2e-05,-1e-05,0.0,-1e-05,1
3977,4150,-2e-05,-1e-05,1e-05,-1e-05,1e-05,1e-05,-1e-05,-1e-05,1
3978,4151,-2e-05,-1e-05,1e-05,-1e-05,1e-05,1e-05,-1e-05,-1e-05,1
3979,4152,-1e-05,1e-05,-1e-05,-1e-05,1e-05,0.0,0.0,-1e-05,1
3980,4153,-1e-05,1e-05,-1e-05,-1e-05,1e-05,0.0,0.0,-1e-05,1
3981,4154,-1e-05,1e-05,-1e-05,-1e-05,1e-05,0.0,0.0,-1e-05,1
3982,4155,-1e-05,1e-05,-1e-05,-1e-05,1e-05,0.0,0.0,-1e-05,1
3983,4156,-1e-05,1e-05,-1e-05,-1e-05,1e-05,0.0,0.0,-1e-05,1
3984,4157,-1e-05,1e-05,-1e-05,-1e-05,1e-05,0.0,0.0,-1e-05,1
3985,4158,-1e-05,1e-05,-1e-05,-1e-05,1e-05,0.0,0.0,-1e-05,1
3986,4159,-1e-05,1e-05,-1e-05,-1e-05,1e-05,0.0,0.0,-1e-05,1
3987,4160,-1e-05,1e-05,-1e-05,-1e-05,1e-05,0.0,0.0,-1e-05,1
3988,4161,-1e-05,1e-05,-1e-05,-1e-05,1e-05,0.0,0.0,-1e-05,1
3989,4162,-1e-05,1e-05,-1e-05,-1e-05,1e-05,0.0,0.0,-1e-05,1
3990,4163,-1e-05,1e-05,-1e-05,-1e-05,1e-05,0.0,0.0,-1e-05,1
3991,4164,0.0,-2.9999999999999997e-05,-2e-05,-2e-05,-5e-05,-5e-05,-4e-05,-1e-05,1
3992,4165,0.0,-2.9999999999999997e-05,-2e-05,-2e-05,-5e-05,-5e-05,-4e-05,-1e-05,1
3993,4166,0.0,-2.9999999999999997e-05,-2e-05,-2e-05,-5e-05,-5e-05,-4e-05,-1e-05,1
3994,4167,0.0,-2.9999999999999997e-05,-2e-05,-2e-05,-5e-05,-5e-05,-4e-05,-1e-05,1
3995,4168,0.0,-2.9999999999999997e-05,-2e-05,-2e-05,-5e-05,-5e-05,-4e-05,-1e-05,1
3996,4169,0.0,-2.9999999999999997e-05,-2e-05,-2e-05,-5e-05,-5e-05,-4e-05,-1e-05,1
3997,4170,0.0,-2.9999999999999997e-05,-2e-05,-2e-05,-5e-05,-5e-05,-4e-05,-1e-05,1
3998,4171,0.0,-2.9999999999999997e-05,-2e-05,-2e-05,-5e-05,-5e-05,-4e-05,-1e-05,1
3999,4172,0.0,-2.9999999999999997e-05,-2e-05,-2e-05,-5e-05,-5e-05,-4e-05,-1e-05,1
4000,4173,-1e-05,-1e-05,-1e-05,-2e-05,-2e-05,-2e-05,-2.9999999999999997e-05,-1e-05,1
4001,4174,-1e-05,-1e-05,-1e-05,-2e-05,-2e-05,-2e-05,-2.9999999999999997e-05,-1e-05,1
4002,4175,-1e-05,-1e-05,-1e-05,-2e-05,-2e-05,-2e-05,-2.9999999999999997e-05,-1e-05,1
4003,4176,-1e-05,-1e-05,-1e-05,-2e-05,-2e-05,-2e-05,-2.9999999999999997e-05,-1e-05,1
4004,4177,-1e-05,-1e-05,-1e-05,-2e-05,-2e-05,-2e-05,-2.9999999999999997e-05,-1e-05,1
4005,4178,-1e-05,-1e-05,-1e-05,-2e-05,-2e-05,-2e-05,-2.9999999999999997e-05,-1e-05,1
4006,4179,-1e-05,-1e-05,-1e-05,-2e-05,-2e-05,-2e-05,-2.9999999999999997e-05,-1e-05,1
4007,4180,-1e-05,-1e-05,-1e-05,-2e-05,-2e-05,-2e-05,-2.9999999999999997e-05,-1e-05,1
4008,4181,-1e-05,-1e-05,-1e-05,-2e-05,-2e-05,-2e-05,-2.9999999999999997e-05,-1e-05,1
4009,4182,-1e-05,-1e-05,-1e-05,-2e-05,-2e-05,-2e-05,-2.9999999999999997e-05,-1e-05,1
4010,4183,-1e-05,-1e-05,-1e-05,-2e-05,-2e-05,-2e-05,-2.9999999999999997e-05,-1e-05,1
4011,4184,-1e-05,-1e-05,-1e-05,-2e-05,-2e-05,-2e-05,-2.9999999999999997e-05,-1e-05,1
4012,4185,-1e-05,-1e-05,-1e-05,-2e-05,-2e-05,-2e-05,-2.9999999999999997e-05,-1e-05,1
4013,4187,-1e-05,-1e-05,-1e-05,-2e-05,-2e-05,-2e-05,-2.9999999999999997e-05,-1e-05,1
4014,4190,-1e-05,-1e-05,0.0,1e-05,1e-05,0.0,-1e-05,1e-05,1
4015,4191,-1e-05,-1e-05,0.0,1e-05,1e-05,0.0,-1e-05,1e-05,1
4016,4192,-1e-05,-1e-05,0.0,1e-05,1e-05,0.0,-1e-05,1e-05,1
4017,4193,-1e-05,-1e-05,0.0,1e-05,1e-05,0.0,-1e-05,1e-05,1
4018,4194,-1e-05,-1e-05,0.0,1e-05,1e-05,0.0,-1e-05,1e-05,1
4019,4195,-1e-05,-1e-05,0.0,1e-05,1e-05,0.0,-1e-05,1e-05,1
4020,4196,-1e-05,-1e-05,0.0,1e-05,1e-05,0.0,-1e-05,1e-05,1
4021,4197,-1e-05,-1e-05,0.0,1e-05,1e-05,0.0,-1e-05,1e-05,1
4022,4198,-1e-05,-1e-05,0.0,1e-05,1e-05,0.0,-1e-05,1e-05,1
4023,4199,-1e-05,-1e-05,0.0,1e-05,1e-05,0.0,-1e-05,1e-05,1
4024,4200,-1e-05,-1e-05,0.0,1e-05,1e-05,0.0,-1e-05,1e-05,1
4025,4201,-1e-05,-1e-05,0.0,1e-05,1e-05,0.0,-1e-05,1e-05,1
4026,4202,-1e-05,-1e-05,0.0,1e-05,1e-05,0.0,-1e-05,1e-05,1
4027,4203,-1e-05,-1e-05,0.0,1e-05,1e-05,0.0,-1e-05,1e-05,1
4028,4204,-1e-05,-1e-05,0.0,1e-05,1e-05,0.0,-1e-05,1e-05,1
4029,4205,-1e-05,-1e-05,0.0,1e-05,1e-05,0.0,-1e-05,1e-05,1
4030,4206,-1e-05,-1e-05,0.0,1e-05,1e-05,0.0,-1e-05,1e-05,1
4031,4207,-1e-05,-1e-05,0.0,1e-05,1e-05,0.0,-1e-05,1e-05,1
4032,4208,-1e-05,-1e-05,0.0,1e-05,1e-05,0.0,-1e-05,1e-05,1
4033,4209,-1e-05,-1e-05,0.0,1e-05,1e-05,0.0,-1e-05,1e-05,1
4034,4210,2e-05,-2.9999999999999997e-05,-2.9999999999999997e-05,-1e-05,-2e-05,-2.9999999999999997e-05,2e-05,1e-05,1
4035,4211,2e-05,-2.9999999999999997e-05,-2.9999999999999997e-05,-1e-05,-2e-05,-2.9999999999999997e-05,2e-05,1e-05,1
4036,4212,-2e-05,0.0,-2e-05,-1e-05,-1e-05,-1e-05,-1e-05,-2.9999999999999997e-05,1
4037,4213,-2e-05,0.0,-2e-05,-1e-05,-1e-05,-1e-05,-1e-05,-2.9999999999999997e-05,1
4038,4214,-2e-05,0.0,-2e-05,-1e-05,-1e-05,-1e-05,-1e-05,-2.9999999999999997e-05,1
4039,4215,-2e-05,0.0,-2e-05,-1e-05,-1e-05,-1e-05,-1e-05,-2.9999999999999997e-05,1
4040,4216,-2e-05,0.0,-2e-05,-1e-05,-1e-05,-1e-05,-1e-05,-2.9999999999999997e-05,1
4041,4217,-2e-05,0.0,-2e-05,-1e-05,-1e-05,-1e-05,-1e-05,-2.9999999999999997e-05,1
4042,4218,-2e-05,0.0,-2e-05,-1e-05,-1e-05,-1e-05,-1e-05,-2.9999999999999997e-05,1
4043,4219,-2e-05,0.0,-2e-05,-1e-05,-1e-05,-1e-05,-1e-05,-2.9999999999999997e-05,1
4044,4220,-2e-05,0.0,-2e-05,-1e-05,-1e-05,-1e-05,-1e-05,-2.9999999999999997e-05,1
4045,4221,-2e-05,0.0,-2e-05,-1e-05,-1e-05,-1e-05,-1e-05,-2.9999999999999997e-05,1
4046,4222,-2e-05,0.0,-2e-05,-1e-05,-1e-05,-1e-05,-1e-05,-2.9999999999999997e-05,1
4047,4223,-2e-05,0.0,-2e-05,-1e-05,-1e-05,-1e-05,-1e-05,-2.9999999999999997e-05,1
4048,4224,1e-05,0.0,0.0,2e-05,4e-05,4e-05,2e-05,-1e-05,1
4049,4225,1e-05,0.0,0.0,2e-05,4e-05,4e-05,2e-05,-1e-05,1
4050,4226,1e-05,0.0,0.0,2e-05,4e-05,4e-05,2e-05,-1e-05,1
4051,4227,1e-05,0.0,0.0,2e-05,4e-05,4e-05,2e-05,-1e-05,1
4052,4228,1e-05,0.0,0.0,2e-05,4e-05,4e-05,2e-05,-1e-05,1
4053,4229,1e-05,0.0,0.0,2e-05,4e-05,4e-05,2e-05,-1e-05,1
4054,4230,1e-05,0.0,0.0,2e-05,4e-05,4e-05,2e-05,-1e-05,1
4055,4231,1e-05,0.0,0.0,2e-05,4e-05,4e-05,2e-05,-1e-05,1
4056,4232,1e-05,0.0,0.0,2e-05,4e-05,4e-05,2e-05,-1e-05,1
4057,4233,0.0,-2e-05,-2e-05,-2.9999999999999997e-05,-2e-05,-2.9999999999999997e-05,-2e-05,-1e-05,1
4058,4234,0.0,-2e-05,-2e-05,-2.9999999999999997e-05,-2e-05,-2.9999999999999997e-05,-2e-05,-1e-05,1
4059,4235,0.0,-2e-05,-2e-05,-2.9999999999999997e-05,-2e-05,-2.9999999999999997e-05,-2e-05,-1e-05,1
4060,4236,0.0,-2e-05,-2e-05,-2.9999999999999997e-05,-2e-05,-2.9999999999999997e-05,-2e-05,-1e-05,1
4061,4238,0.0,-2e-05,-2e-05,-2.9999999999999997e-05,-2e-05,-2.9999999999999997e-05,-2e-05,-1e-05,1
4062,4239,0.0,-2e-05,-2e-05,-2.9999999999999997e-05,-2e-05,-2.9999999999999997e-05,-2e-05,-1e-05,1
4063,4240,0.0,-2e-05,-2e-05,-2.9999999999999997e-05,-2e-05,-2.9999999999999997e-05,-2e-05,-1e-05,1
4064,4241,0.0,-2e-05,-2e-05,-2.9999999999999997e-05,-2e-05,-2.9999999999999997e-05,-2e-05,-1e-05,1
4065,4242,0.0,-2e-05,-2e-05,-2.9999999999999997e-05,-2e-05,-2.9999999999999997e-05,-2e-05,-1e-05,1
4066,4243,0.0,-2e-05,-2e-05,-2.9999999999999997e-05,-2e-05,-2.9999999999999997e-05,-2e-05,-1e-05,1
4067,4244,0.0,-2e-05,-2e-05,-2.9999999999999997e-05,-2e-05,-2.9999999999999997e-05,-2e-05,-1e-05,1
4068,4245,0.0,-2e-05,-2e-05,-2.9999999999999997e-05,-2e-05,-2.9999999999999997e-05,-2e-05,-1e-05,1
4069,4246,0.0,-2e-05,-2e-05,-2.9999999999999997e-05,-2e-05,-2.9999999999999997e-05,-2e-05,-1e-05,1
4070,4247,0.0,-2e-05,-2e-05,-2.9999999999999997e-05,-2e-05,-2.9999999999999997e-05,-2e-05,-1e-05,1
4071,4248,0.0,-2e-05,-2e-05,-2.9999999999999997e-05,-2e-05,-2.9999999999999997e-05,-2e-05,-1e-05,1
4072,4249,0.0,-2e-05,-2e-05,-2.9999999999999997e-05,-2e-05,-2.9999999999999997e-05,-2e-05,-1e-05,1
4073,4250,0.0,-2e-05,-2e-05,-2.9999999999999997e-05,-2e-05,-2.9999999999999997e-05,-2e-05,-1e-05,1
4074,4251,0.0,-2e-05,-2e-05,-2.9999999999999997e-05,-2e-05,-2.9999999999999997e-05,-2e-05,-1e-05,1
4075,4252,0.0,-2e-05,-2e-05,-2.9999999999999997e-05,-2e-05,-2.9999999999999997e-05,-2e-05,-1e-05,1
4076,4253,0.0,-2e-05,-2e-05,-2.9999999999999997e-05,-2e-05,-2.9999999999999997e-05,-2e-05,-1e-05,1
4077,4254,0.0,-2e-05,-2e-05,-2.9999999999999997e-05,-2e-05,-2.9999999999999997e-05,-2e-05,-1e-05,1
4078,4255,-2e-05,-1e-05,-1e-05,-1e-05,-2.9999999999999997e-05,-1e-05,-1e-05,0.0,1
4079,4256,-2e-05,-1e-05,-1e-05,-1e-05,-2.9999999999999997e-05,-1e-05,-1e-05,0.0,1
4080,4257,-1e-05,-2e-05,-2.9999999999999997e-05,-1e-05,-2.9999999999999997e-05,-1e-05,-2.9999999999999997e-05,2.9999999999999997e-05,1
4081,4258,-1e-05,-2e-05,-2.9999999999999997e-05,-1e-05,-2.9999999999999997e-05,-1e-05,-2.9999999999999997e-05,2.9999999999999997e-05,1
4082,4259,-1e-05,-2e-05,-2.9999999999999997e-05,-1e-05,-2.9999999999999997e-05,-1e-05,-2.9999999999999997e-05,2.9999999999999997e-05,1
4083,4260,-1e-05,-2e-05,-2.9999999999999997e-05,-1e-05,-2.9999999999999997e-05,-1e-05,-2.9999999999999997e-05,2.9999999999999997e-05,1
4084,4261,-1e-05,-2e-05,-2.9999999999999997e-05,-1e-05,-2.9999999999999997e-05,-1e-05,-2.9999999999999997e-05,2.9999999999999997e-05,1
4085,4262,-1e-05,-2e-05,-2.9999999999999997e-05,-1e-05,-2.9999999999999997e-05,-1e-05,-2.9999999999999997e-05,2.9999999999999997e-05,1
4086,4263,-1e-05,-2e-05,-2.9999999999999997e-05,-1e-05,-2.9999999999999997e-05,-1e-05,-2.9999999999999997e-05,2.9999999999999997e-05,1
4087,4264,-1e-05,-2e-05,-2.9999999999999997e-05,-1e-05,-2.9999999999999997e-05,-1e-05,-2.9999999999999997e-05,2.9999999999999997e-05,1
4088,4265,-1e-05,-2e-05,-2.9999999999999997e-05,-1e-05,-2.9999999999999997e-05,-1e-05,-2.9999999999999997e-05,2.9999999999999997e-05,1
4089,4266,-1e-05,-2e-05,-2.9999999999999997e-05,-1e-05,-2.9999999999999997e-05,-1e-05,-2.9999999999999997e-05,2.9999999999999997e-05,1
4090,4267,-1e-05,-2e-05,-2.9999999999999997e-05,-1e-05,-2.9999999999999997e-05,-1e-05,-2.9999999999999997e-05,2.9999999999999997e-05,1
4091,4268,-1e-05,-2e-05,-2.9999999999999997e-05,-1e-05,-2.9999999999999997e-05,-1e-05,-2.9999999999999997e-05,2.9999999999999997e-05,1
4092,4269,-1e-05,-2e-05,-2.9999999999999997e-05,-1e-05,-2.9999999999999997e-05,-1e-05,-2.9999999999999997e-05,2.9999999999999997e-05,1
4093,4270,0.0,-1e-05,-2e-05,-1e-05,-1e-05,0.0,0.0,-5e-05,1
4094,4271,0.0,-1e-05,-2e-05,-1e-05,-1e-05,0.0,0.0,-5e-05,1
4095,4272,0.0,1e-05,0.0,-1e-05,-1e-05,-1e-05,-1e-05,-1e-05,1
4096,4273,0.0,1e-05,0.0,-1e-05,-1e-05,-1e-05,-1e-05,-1e-05,1
4097,4274,0.0,1e-05,0.0,-1e-05,-1e-05,-1e-05,-1e-05,-1e-05,1
4098,4275,0.0,1e-05,0.0,-1e-05,-1e-05,-1e-05,-1e-05,-1e-05,1
4099,4276,0.0,1e-05,0.0,-1e-05,-1e-05,-1e-05,-1e-05,-1e-05,1
4100,4277,0.0,1e-05,0.0,-1e-05,-1e-05,-1e-05,-1e-05,-1e-05,1
4101,4278,0.0,1e-05,0.0,-1e-05,-1e-05,-1e-05,-1e-05,-1e-05,1
4102,4279,0.0,1e-05,0.0,-1e-05,-1e-05,-1e-05,-1e-05,-1e-05,1
4103,4280,0.0,1e-05,0.0,-1e-05,-1e-05,-1e-05,-1e-05,-1e-05,1
4104,4281,0.0,1e-05,0.0,-1e-05,-1e-05,-1e-05,-1e-05,-1e-05,1
4105,4282,0.0,1e-05,0.0,-1e-05,-1e-05,-1e-05,-1e-05,-1e-05,1
4106,4283,0.0,1e-05,0.0,-1e-05,-1e-05,-1e-05,-1e-05,-1e-05,1
4107,4284,-2.9999999999999997e-05,0.0,-1e-05,-2e-05,-2e-05,-1e-05,-1e-05,-1e-05,1
4108,4285,-2.9999999999999997e-05,0.0,-1e-05,-2e-05,-2e-05,-1e-05,-1e-05,-1e-05,1
4109,4286,-2.9999999999999997e-05,0.0,-1e-05,-2e-05,-2e-05,-1e-05,-1e-05,-1e-05,1
4110,4288,-2.9999999999999997e-05,0.0,-1e-05,-2e-05,-2e-05,-1e-05,-1e-05,-1e-05,1
4111,4289,-2.9999999999999997e-05,0.0,-1e-05,-2e-05,-2e-05,-1e-05,-1e-05,-1e-05,1
4112,4290,-2.9999999999999997e-05,0.0,-1e-05,-2e-05,-2e-05,-1e-05,-1e-05,-1e-05,1
4113,4291,-2.9999999999999997e-05,0.0,-1e-05,-2e-05,-2e-05,-1e-05,-1e-05,-1e-05,1
4114,4292,-2.9999999999999997e-05,0.0,-1e-05,-2e-05,-2e-05,-1e-05,-1e-05,-1e-05,1
4115,4293,0.0,0.0,-1e-05,0.0,1e-05,-2e-05,0.0,-2e-05,1
4116,4294,0.0,0.0,-1e-05,0.0,1e-05,-2e-05,0.0,-2e-05,1
4117,4295,0.0,0.0,-1e-05,0.0,1e-05,-2e-05,0.0,-2e-05,1
4118,4296,0.0,0.0,-1e-05,0.0,1e-05,-2e-05,0.0,-2e-05,1
4119,4297,0.0,0.0,-1e-05,0.0,1e-05,-2e-05,0.0,-2e-05,1
4120,4298,0.0,0.0,-1e-05,0.0,1e-05,-2e-05,0.0,-2e-05,1
4121,4299,0.0,0.0,-1e-05,0.0,1e-05,-2e-05,0.0,-2e-05,1
4122,4300,0.0,0.0,-1e-05,0.0,1e-05,-2e-05,0.0,-2e-05,1
4123,4301,0.0,0.0,-1e-05,0.0,1e-05,-2e-05,0.0,-2e-05,1
4124,4302,0.0,0.0,-1e-05,0.0,1e-05,-2e-05,0.0,-2e-05,1
4125,4303,0.0,0.0,-1e-05,0.0,1e-05,-2e-05,0.0,-2e-05,1
4126,4304,0.0,0.0,-1e-05,0.0,1e-05,-2e-05,0.0,-2e-05,1
4127,4305,0.0,0.0,-1e-05,0.0,1e-05,-2e-05,0.0,-2e-05,1
4128,4306,0.0,0.0,-1e-05,0.0,1e-05,-2e-05,0.0,-2e-05,1
4129,4307,0.0,0.0,-1e-05,0.0,1e-05,-2e-05,0.0,-2e-05,1
4130,4308,-1e-05,-1e-05,-1e-05,1e-05,-2e-05,0.0,-1e-05,0.0,1
4131,4309,0.0,-4e-05,-2.9999999999999997e-05,-2e-05,-2.9999999999999997e-05,-2e-05,-2.9999999999999997e-05,-1e-05,1
4132,4310,0.0,-4e-05,-2.9999999999999997e-05,-2e-05,-2.9999999999999997e-05,-2e-05,-2.9999999999999997e-05,-1e-05,1
4133,4311,0.0,-4e-05,-2.9999999999999997e-05,-2e-05,-2.9999999999999997e-05,-2e-05,-2.9999999999999997e-05,-1e-05,1
4134,4312,0.0,-4e-05,-2.9999999999999997e-05,-2e-05,-2.9999999999999997e-05,-2e-05,-2.9999999999999997e-05,-1e-05,1
4135,4313,0.0,-4e-05,-2.9999999999999997e-05,-2e-05,-2.9999999999999997e-05,-2e-05,-2.9999999999999997e-05,-1e-05,1
4136,4314,0.0,-4e-05,-2.9999999999999997e-05,-2e-05,-2.9999999999999997e-05,-2e-05,-2.9999999999999997e-05,-1e-05,1
4137,4315,0.0,-4e-05,-2.9999999999999997e-05,-2e-05,-2.9999999999999997e-05,-2e-05,-2.9999999999999997e-05,-1e-05,1
4138,4316,0.0,-4e-05,-2.9999999999999997e-05,-2e-05,-2.9999999999999997e-05,-2e-05,-2.9999999999999997e-05,-1e-05,1
4139,4317,0.0,-4e-05,-2.9999999999999997e-05,-2e-05,-2.9999999999999997e-05,-2e-05,-2.9999999999999997e-05,-1e-05,1
4140,4318,0.0,-4e-05,-2.9999999999999997e-05,-2e-05,-2.9999999999999997e-05,-2e-05,-2.9999999999999997e-05,-1e-05,1
4141,4319,0.0,-4e-05,-2.9999999999999997e-05,-2e-05,-2.9999999999999997e-05,-2e-05,-2.9999999999999997e-05,-1e-05,1
4142,4320,0.0,-4e-05,-2.9999999999999997e-05,-2e-05,-2.9999999999999997e-05,-2e-05,-2.9999999999999997e-05,-1e-05,1
4143,4321,0.0,-4e-05,-2.9999999999999997e-05,-2e-05,-2.9999999999999997e-05,-2e-05,-2.9999999999999997e-05,-1e-05,1
4144,4322,0.0,-4e-05,-2.9999999999999997e-05,-2e-05,-2.9999999999999997e-05,-2e-05,-2.9999999999999997e-05,-1e-05,1
4145,4323,0.0,-4e-05,-2.9999999999999997e-05,-2e-05,-2.9999999999999997e-05,-2e-05,-2.9999999999999997e-05,-1e-05,1
4146,4324,0.0,-4e-05,-2.9999999999999997e-05,-2e-05,-2.9999999999999997e-05,-2e-05,-2.9999999999999997e-05,-1e-05,1
4147,4325,0.0,-4e-05,-2.9999999999999997e-05,-2e-05,-2.9999999999999997e-05,-2e-05,-2.9999999999999997e-05,-1e-05,1
4148,4326,0.0,-4e-05,-2.9999999999999997e-05,-2e-05,-2.9999999999999997e-05,-2e-05,-2.9999999999999997e-05,-1e-05,1
4149,4327,0.0,-4e-05,-2.9999999999999997e-05,-2e-05,-2.9999999999999997e-05,-2e-05,-2.9999999999999997e-05,-1e-05,1
4150,4328,0.0,-4e-05,-2.9999999999999997e-05,-2e-05,-2.9999999999999997e-05,-2e-05,-2.9999999999999997e-05,-1e-05,1
4151,4329,0.0,-4e-05,-2.9999999999999997e-05,-2e-05,-2.9999999999999997e-05,-2e-05,-2.9999999999999997e-05,-1e-05,1
4152,4330,0.0,-2e-05,-2e-05,0.0,2e-05,0.0,1e-05,2e-05,1
4153,4331,0.0,-2e-05,-2e-05,0.0,2e-05,0.0,1e-05,2e-05,1
4154,4332,0.0,-1e-05,-1e-05,-4e-05,-4e-05,-2.9999999999999997e-05,1e-05,0.0,1
4155,4333,0.0,-1e-05,-1e-05,-4e-05,-4e-05,-2.9999999999999997e-05,1e-05,0.0,1
4156,4334,0.0,-1e-05,-1e-05,-4e-05,-4e-05,-2.9999999999999997e-05,1e-05,0.0,1
4157,4335,0.0,-1e-05,-1e-05,-4e-05,-4e-05,-2.9999999999999997e-05,1e-05,0.0,1
4158,4336,0.0,-1e-05,-1e-05,-4e-05,-4e-05,-2.9999999999999997e-05,1e-05,0.0,1
4159,4338,0.0,-1e-05,-1e-05,-4e-05,-4e-05,-2.9999999999999997e-05,1e-05,0.0,1
4160,4339,0.0,-1e-05,-1e-05,-4e-05,-4e-05,-2.9999999999999997e-05,1e-05,0.0,1
4161,4340,0.0,-1e-05,-1e-05,-4e-05,-4e-05,-2.9999999999999997e-05,1e-05,0.0,1
4162,4341,0.0,-1e-05,-1e-05,-4e-05,-4e-05,-2.9999999999999997e-05,1e-05,0.0,1
4163,4342,0.0,-1e-05,-1e-05,-4e-05,-4e-05,-2.9999999999999997e-05,1e-05,0.0,1
4164,4343,0.0,-1e-05,-1e-05,-4e-05,-4e-05,-2.9999999999999997e-05,1e-05,0.0,1
4165,4344,0.0,-1e-05,-1e-05,-4e-05,-4e-05,-2.9999999999999997e-05,1e-05,0.0,1
4166,4345,0.0,-1e-05,-1e-05,-4e-05,-4e-05,-2.9999999999999997e-05,1e-05,0.0,1
4167,4346,0.0,-1e-05,-1e-05,-4e-05,-4e-05,-2.9999999999999997e-05,1e-05,0.0,1
4168,4347,0.0,-1e-05,-1e-05,-4e-05,-4e-05,-2.9999999999999997e-05,1e-05,0.0,1
4169,4348,0.0,-1e-05,-1e-05,-4e-05,-4e-05,-2.9999999999999997e-05,1e-05,0.0,1
4170,4349,0.0,-1e-05,-1e-05,-4e-05,-4e-05,-2.9999999999999997e-05,1e-05,0.0,1
4171,4350,0.0,-1e-05,-1e-05,-4e-05,-4e-05,-2.9999999999999997e-05,1e-05,0.0,1
4172,4351,0.0,-1e-05,-1e-05,-4e-05,-4e-05,-2.9999999999999997e-05,1e-05,0.0,1
4173,4352,0.0,-1e-05,-1e-05,-4e-05,-4e-05,-2.9999999999999997e-05,1e-05,0.0,1
4174,4353,0.0,-1e-05,-1e-05,-4e-05,-4e-05,-2.9999999999999997e-05,1e-05,0.0,1
4175,4354,-2e-05,-1e-05,0.0,0.0,2e-05,2e-05,-1e-05,-1e-05,1
4176,4355,0.0,-1e-05,1e-05,-2.9999999999999997e-05,-1e-05,1e-05,-2e-05,-2e-05,1
4177,4356,0.0,-1e-05,1e-05,-2.9999999999999997e-05,-1e-05,1e-05,-2e-05,-2e-05,1
4178,4357,0.0,-1e-05,1e-05,-2.9999999999999997e-05,-1e-05,1e-05,-2e-05,-2e-05,1
4179,4358,0.0,-1e-05,1e-05,-2.9999999999999997e-05,-1e-05,1e-05,-2e-05,-2e-05,1
4180,4359,0.0,-1e-05,1e-05,-2.9999999999999997e-05,-1e-05,1e-05,-2e-05,-2e-05,1
4181,4360,0.0,-1e-05,1e-05,-2.9999999999999997e-05,-1e-05,1e-05,-2e-05,-2e-05,1
4182,4361,0.0,-1e-05,1e-05,-2.9999999999999997e-05,-1e-05,1e-05,-2e-05,-2e-05,1
4183,4362,0.0,-1e-05,1e-05,-2.9999999999999997e-05,-1e-05,1e-05,-2e-05,-2e-05,1
4184,4363,0.0,-1e-05,1e-05,-2.9999999999999997e-05,-1e-05,1e-05,-2e-05,-2e-05,1
4185,4364,0.0,-1e-05,1e-05,-2.9999999999999997e-05,-1e-05,1e-05,-2e-05,-2e-05,1
4186,4365,0.0,-1e-05,1e-05,-2.9999999999999997e-05,-1e-05,1e-05,-2e-05,-2e-05,1
4187,4366,0.0,-1e-05,1e-05,-2.9999999999999997e-05,-1e-05,1e-05,-2e-05,-2e-05,1
4188,4367,0.0,-1e-05,1e-05,-2.9999999999999997e-05,-1e-05,1e-05,-2e-05,-2e-05,1
4189,4368,-2e-05,-1e-05,-2e-05,-5e-05,-5e-05,-4e-05,-2.9999999999999997e-05,0.0,1
4190,4369,-2e-05,-1e-05,-2e-05,-5e-05,-5e-05,-4e-05,-2.9999999999999997e-05,0.0,1
4191,4370,-1e-05,-1e-05,0.0,1e-05,1e-05,0.0,1e-05,-2e-05,1
4192,4372,-1e-05,-1e-05,0.0,1e-05,1e-05,0.0,1e-05,-2e-05,1
4193,4373,-1e-05,-1e-05,0.0,1e-05,1e-05,0.0,1e-05,-2e-05,1
4194,4374,-1e-05,-1e-05,0.0,1e-05,1e-05,0.0,1e-05,-2e-05,1
4195,4375,-1e-05,-1e-05,0.0,1e-05,1e-05,0.0,1e-05,-2e-05,1
4196,4376,-1e-05,-1e-05,0.0,1e-05,1e-05,0.0,1e-05,-2e-05,1
4197,4377,-1e-05,-1e-05,0.0,1e-05,1e-05,0.0,1e-05,-2e-05,1
4198,4378,-1e-05,-1e-05,0.0,1e-05,1e-05,0.0,1e-05,-2e-05,1
4199,4379,-1e-05,-1e-05,0.0,1e-05,1e-05,0.0,1e-05,-2e-05,1
4200,4380,-1e-05,-1e-05,0.0,1e-05,1e-05,0.0,1e-05,-2e-05,1
4201,4381,-1e-05,-1e-05,0.0,1e-05,1e-05,0.0,1e-05,-2e-05,1
4202,4382,-1e-05,-1e-05,0.0,1e-05,1e-05,0.0,1e-05,-2e-05,1
4203,4383,-1e-05,-1e-05,0.0,1e-05,1e-05,0.0,1e-05,-2e-05,1
4204,4384,-1e-05,-1e-05,0.0,1e-05,1e-05,0.0,1e-05,-2e-05,1
4205,4385,-1e-05,-1e-05,0.0,1e-05,1e-05,0.0,1e-05,-2e-05,1
4206,4386,-1e-05,-1e-05,0.0,1e-05,1e-05,0.0,1e-05,-2e-05,1
4207,4388,-1e-05,-1e-05,0.0,1e-05,1e-05,0.0,1e-05,-2e-05,1
4208,4389,-1e-05,-1e-05,0.0,1e-05,1e-05,0.0,1e-05,-2e-05,1
4209,4390,0.0,0.0,-1e-05,-1e-05,-4e-05,-4e-05,-2e-05,0.0,1
4210,4391,0.0,0.0,-1e-05,-1e-05,-4e-05,-4e-05,-2e-05,0.0,1
4211,4392,-2e-05,1e-05,-1e-05,-1e-05,-2.9999999999999997e-05,-1e-05,-2e-05,-2e-05,1
4212,4393,-2e-05,1e-05,-1e-05,-1e-05,-2.9999999999999997e-05,-1e-05,-2e-05,-2e-05,1
4213,4394,-2e-05,1e-05,-1e-05,-1e-05,-2.9999999999999997e-05,-1e-05,-2e-05,-2e-05,1
4214,4395,-2e-05,1e-05,-1e-05,-1e-05,-2.9999999999999997e-05,-1e-05,-2e-05,-2e-05,1
4215,4396,-2e-05,1e-05,-1e-05,-1e-05,-2.9999999999999997e-05,-1e-05,-2e-05,-2e-05,1
4216,4397,-2e-05,1e-05,-1e-05,-1e-05,-2.9999999999999997e-05,-1e-05,-2e-05,-2e-05,1
4217,4398,-2e-05,1e-05,-1e-05,-1e-05,-2.9999999999999997e-05,-1e-05,-2e-05,-2e-05,1
4218,4399,-2e-05,1e-05,-1e-05,-1e-05,-2.9999999999999997e-05,-1e-05,-2e-05,-2e-05,1
4219,4400,-2e-05,1e-05,-1e-05,-1e-05,-2.9999999999999997e-05,-1e-05,-2e-05,-2e-05,1
4220,4401,-2e-05,1e-05,-1e-05,-1e-05,-2.9999999999999997e-05,-1e-05,-2e-05,-2e-05,1
4221,4402,-2e-05,1e-05,-1e-05,-1e-05,-2.9999999999999997e-05,-1e-05,-2e-05,-2e-05,1
4222,4403,-2e-05,1e-05,-1e-05,-1e-05,-2.9999999999999997e-05,-1e-05,-2e-05,-2e-05,1
4223,4404,-2e-05,1e-05,-1e-05,-1e-05,-2.9999999999999997e-05,-1e-05,-2e-05,-2e-05,1
4224,4405,-2e-05,1e-05,-1e-05,-1e-05,-2.9999999999999997e-05,-1e-05,-2e-05,-2e-05,1
4225,4406,-2e-05,1e-05,-1e-05,-1e-05,-2.9999999999999997e-05,-1e-05,-2e-05,-2e-05,1
4226,4407,-2e-05,1e-05,-1e-05,-1e-05,-2.9999999999999997e-05,-1e-05,-2e-05,-2e-05,1
4227,4408,-2e-05,1e-05,-1e-05,-1e-05,-2.9999999999999997e-05,-1e-05,-2e-05,-2e-05,1
4228,4409,-2e-05,1e-05,-1e-05,-1e-05,-2.9999999999999997e-05,-1e-05,-2e-05,-2e-05,1
4229,4410,-2e-05,1e-05,-1e-05,-1e-05,-2.9999999999999997e-05,-1e-05,-2e-05,-2e-05,1
4230,4411,-2e-05,1e-05,-1e-05,-1e-05,-2.9999999999999997e-05,-1e-05,-2e-05,-2e-05,1
4231,4412,0.0,-1e-05,-1e-05,1e-05,2.9999999999999997e-05,2e-05,2.9999999999999997e-05,-1e-05,1
4232,4413,1e-05,0.0,0.0,0.0,0.0,-2e-05,-1e-05,-4e-05,1
4233,4414,0.0,0.0,-1e-05,-1e-05,-1e-05,0.0,-2e-05,-1e-05,1
4234,4415,0.0,0.0,-1e-05,-1e-05,-1e-05,0.0,-2e-05,-1e-05,1
4235,4416,0.0,0.0,-1e-05,-1e-05,-1e-05,0.0,-2e-05,-1e-05,1
4236,4417,0.0,0.0,-1e-05,-1e-05,-1e-05,0.0,-2e-05,-1e-05,1
4237,4419,0.0,0.0,-1e-05,-1e-05,-1e-05,0.0,-2e-05,-1e-05,1
4238,4420,0.0,0.0,-1e-05,-1e-05,-1e-05,0.0,-2e-05,-1e-05,1
4239,4421,0.0,0.0,-1e-05,-1e-05,-1e-05,0.0,-2e-05,-1e-05,1
4240,4422,0.0,0.0,-1e-05,-1e-05,-1e-05,0.0,-2e-05,-1e-05,1
4241,4423,0.0,0.0,-1e-05,-1e-05,-1e-05,0.0,-2e-05,-1e-05,1
4242,4424,0.0,0.0,-1e-05,-1e-05,-1e-05,0.0,-2e-05,-1e-05,1
4243,4425,0.0,0.0,-1e-05,-1e-05,-1e-05,0.0,-2e-05,-1e-05,1
4244,4426,0.0,0.0,-1e-05,-1e-05,-1e-05,0.0,-2e-05,-1e-05,1
4245,4427,0.0,0.0,-1e-05,-1e-05,-1e-05,0.0,-2e-05,-1e-05,1
4246,4428,0.0,0.0,-1e-05,-1e-05,-1e-05,0.0,-2e-05,-1e-05,1
4247,4429,0.0,0.0,-1e-05,-1e-05,-1e-05,0.0,-2e-05,-1e-05,1
4248,4430,0.0,0.0,-1e-05,-1e-05,-1e-05,0.0,-2e-05,-1e-05,1
4249,4431,0.0,0.0,-1e-05,-1e-05,-1e-05,0.0,-2e-05,-1e-05,1
4250,4432,0.0,0.0,-1e-05,-1e-05,-1e-05,0.0,-2e-05,-1e-05,1
4251,4433,0.0,0.0,-1e-05,-1e-05,-1e-05,0.0,-2e-05,-1e-05,1
4252,4434,0.0,0.0,-1e-05,-1e-05,-1e-05,0.0,-2e-05,-1e-05,1
4253,4435,-1e-05,-1e-05,-1e-05,-2.9999999999999997e-05,-2.9999999999999997e-05,-2.9999999999999997e-05,0.0,-2e-05,1
4254,4436,-1e-05,-2e-05,-2e-05,-2e-05,-1e-05,1e-05,-1e-05,-1e-05,1
4255,4438,0.0,-2.9999999999999997e-05,-2.9999999999999997e-05,0.0,-1e-05,-2e-05,-1e-05,-2e-05,1
4256,4439,0.0,-2.9999999999999997e-05,-2.9999999999999997e-05,0.0,-1e-05,-2e-05,-1e-05,-2e-05,1
4257,4440,0.0,-2.9999999999999997e-05,-2.9999999999999997e-05,0.0,-1e-05,-2e-05,-1e-05,-2e-05,1
4258,4441,0.0,-2.9999999999999997e-05,-2.9999999999999997e-05,0.0,-1e-05,-2e-05,-1e-05,-2e-05,1
4259,4442,0.0,-2.9999999999999997e-05,-2.9999999999999997e-05,0.0,-1e-05,-2e-05,-1e-05,-2e-05,1
4260,4443,0.0,-2.9999999999999997e-05,-2.9999999999999997e-05,0.0,-1e-05,-2e-05,-1e-05,-2e-05,1
4261,4444,0.0,-2.9999999999999997e-05,-2.9999999999999997e-05,0.0,-1e-05,-2e-05,-1e-05,-2e-05,1
4262,4445,0.0,-2.9999999999999997e-05,-2.9999999999999997e-05,0.0,-1e-05,-2e-05,-1e-05,-2e-05,1
4263,4446,0.0,-2.9999999999999997e-05,-2.9999999999999997e-05,0.0,-1e-05,-2e-05,-1e-05,-2e-05,1
4264,4447,0.0,-2.9999999999999997e-05,-2.9999999999999997e-05,0.0,-1e-05,-2e-05,-1e-05,-2e-05,1
4265,4448,0.0,-2.9999999999999997e-05,-2.9999999999999997e-05,0.0,-1e-05,-2e-05,-1e-05,-2e-05,1
4266,4449,0.0,-2.9999999999999997e-05,-2.9999999999999997e-05,0.0,-1e-05,-2e-05,-1e-05,-2e-05,1
4267,4450,0.0,-2.9999999999999997e-05,-2.9999999999999997e-05,0.0,-1e-05,-2e-05,-1e-05,-2e-05,1
4268,4451,0.0,-2.9999999999999997e-05,-2.9999999999999997e-05,0.0,-1e-05,-2e-05,-1e-05,-2e-05,1
4269,4452,0.0,-2.9999999999999997e-05,-2.9999999999999997e-05,0.0,-1e-05,-2e-05,-1e-05,-2e-05,1
4270,4453,0.0,-2.9999999999999997e-05,-2.9999999999999997e-05,0.0,-1e-05,-2e-05,-1e-05,-2e-05,1
4271,4454,0.0,-2.9999999999999997e-05,-2.9999999999999997e-05,0.0,-1e-05,-2e-05,-1e-05,-2e-05,1
4272,4455,0.0,-2.9999999999999997e-05,-2.9999999999999997e-05,0.0,-1e-05,-2e-05,-1e-05,-2e-05,1
4273,4456,0.0,-2.9999999999999997e-05,-2.9999999999999997e-05,0.0,-1e-05,-2e-05,-1e-05,-2e-05,1
4274,4457,-2e-05,0.0,-2e-05,1e-05,0.0,-2.9999999999999997e-05,-2.9999999999999997e-05,-2e-05,1
4275,4458,-1e-05,1e-05,1e-05,-4e-05,-2.9999999999999997e-05,0.0,-2e-05,-1e-05,1
4276,4459,-2e-05,-2e-05,-2e-05,-2e-05,-2.9999999999999997e-05,-1e-05,-2e-05,1e-05,1
4277,4460,-2e-05,-2e-05,-2e-05,-2e-05,-2.9999999999999997e-05,-1e-05,-2e-05,1e-05,1
4278,4461,-2e-05,-2e-05,-2e-05,-2e-05,-2.9999999999999997e-05,-1e-05,-2e-05,1e-05,1
4279,4462,-2e-05,-2e-05,-2e-05,-2e-05,-2.9999999999999997e-05,-1e-05,-2e-05,1e-05,1
4280,4463,-2e-05,-2e-05,-2e-05,-2e-05,-2.9999999999999997e-05,-1e-05,-2e-05,1e-05,1
4281,4464,-2e-05,-2e-05,-2e-05,-2e-05,-2.9999999999999997e-05,-1e-05,-2e-05,1e-05,1
4282,4466,-2e-05,-2e-05,-2e-05,-2e-05,-2.9999999999999997e-05,-1e-05,-2e-05,1e-05,1
4283,4467,-2e-05,-2e-05,-2e-05,-2e-05,-2.9999999999999997e-05,-1e-05,-2e-05,1e-05,1
4284,4468,-2e-05,-2e-05,-2e-05,-2e-05,-2.9999999999999997e-05,-1e-05,-2e-05,1e-05,1
4285,4469,-2e-05,-2e-05,-2e-05,-2e-05,-2.9999999999999997e-05,-1e-05,-2e-05,1e-05,1
4286,4470,-2e-05,-2e-05,-2e-05,-2e-05,-2.9999999999999997e-05,-1e-05,-2e-05,1e-05,1
4287,4471,-2e-05,-2e-05,-2e-05,-2e-05,-2.9999999999999997e-05,-1e-05,-2e-05,1e-05,1
4288,4472,-2e-05,-2e-05,-2e-05,-2e-05,-2.9999999999999997e-05,-1e-05,-2e-05,1e-05,1
4289,4473,-2e-05,-2e-05,-2e-05,-2e-05,-2.9999999999999997e-05,-1e-05,-2e-05,1e-05,1
4290,4474,-2e-05,-2e-05,-2e-05,-2e-05,-2.9999999999999997e-05,-1e-05,-2e-05,1e-05,1
4291,4475,-2e-05,-2e-05,-2e-05,-2e-05,-2.9999999999999997e-05,-1e-05,-2e-05,1e-05,1
4292,4476,-2e-05,-2e-05,-2e-05,-2e-05,-2.9999999999999997e-05,-1e-05,-2e-05,1e-05,1
4293,4477,-2e-05,-2e-05,-2e-05,-2e-05,-2.9999999999999997e-05,-1e-05,-2e-05,1e-05,1
4294,4478,-2e-05,-2e-05,-2e-05,-2e-05,-2.9999999999999997e-05,-1e-05,-2e-05,1e-05,1
4295,4479,-2e-05,-2e-05,-2e-05,-2e-05,-2.9999999999999997e-05,-1e-05,-2e-05,1e-05,1
4296,4480,-1e-05,-1e-05,-1e-05,1e-05,2e-05,-1e-05,1e-05,-1e-05,1
4297,4481,-1e-05,-1e-05,-1e-05,1e-05,2e-05,-1e-05,1e-05,-1e-05,1
4298,4482,-1e-05,-1e-05,1e-05,0.0,-1e-05,-1e-05,1e-05,-2e-05,1
4299,4483,-1e-05,-1e-05,1e-05,0.0,-1e-05,-1e-05,1e-05,-2e-05,1
4300,4484,-1e-05,-1e-05,1e-05,0.0,-1e-05,-1e-05,1e-05,-2e-05,1
4301,4485,-1e-05,-1e-05,1e-05,0.0,-1e-05,-1e-05,1e-05,-2e-05,1
4302,4486,-1e-05,-1e-05,1e-05,0.0,-1e-05,-1e-05,1e-05,-2e-05,1
4303,4488,-1e-05,-1e-05,-2.9999999999999997e-05,-1e-05,2e-05,0.0,-1e-05,-1e-05,1
4304,4490,-1e-05,-1e-05,-2.9999999999999997e-05,-1e-05,2e-05,0.0,-1e-05,-1e-05,1
4305,4491,-1e-05,-1e-05,-2.9999999999999997e-05,-1e-05,2e-05,0.0,-1e-05,-1e-05,1
4306,4492,-1e-05,-1e-05,-2.9999999999999997e-05,-1e-05,2e-05,0.0,-1e-05,-1e-05,1
4307,4493,-1e-05,-1e-05,-2.9999999999999997e-05,-1e-05,2e-05,0.0,-1e-05,-1e-05,1
4308,4494,-1e-05,-2e-05,0.0,-2e-05,-2.9999999999999997e-05,-4e-05,-2.9999999999999997e-05,-2e-05,1
4309,4495,-1e-05,-2e-05,0.0,-2e-05,-2.9999999999999997e-05,-4e-05,-2.9999999999999997e-05,-2e-05,1
4310,4496,-1e-05,-2e-05,0.0,-2e-05,-2.9999999999999997e-05,-4e-05,-2.9999999999999997e-05,-2e-05,1
4311,4497,-1e-05,-2e-05,0.0,-2e-05,-2.9999999999999997e-05,-4e-05,-2.9999999999999997e-05,-2e-05,1
4312,4498,-1e-05,-2e-05,0.0,-2e-05,-2.9999999999999997e-05,-4e-05,-2.9999999999999997e-05,-2e-05,1
4313,4499,-1e-05,-2e-05,0.0,-2e-05,-2.9999999999999997e-05,-4e-05,-2.9999999999999997e-05,-2e-05,1
4314,4500,-1e-05,-2e-05,0.0,-2e-05,-2.9999999999999997e-05,-4e-05,-2.9999999999999997e-05,-2e-05,1
4315,4501,-1e-05,-2e-05,0.0,-2e-05,-2.9999999999999997e-05,-4e-05,-2.9999999999999997e-05,-2e-05,1
4316,4502,-1e-05,-2e-05,0.0,-2e-05,-2.9999999999999997e-05,-4e-05,-2.9999999999999997e-05,-2e-05,1
4317,4503,-1e-05,-2e-05,0.0,-2e-05,-2.9999999999999997e-05,-4e-05,-2.9999999999999997e-05,-2e-05,1
4318,4504,-1e-05,-2e-05,0.0,-2e-05,-2.9999999999999997e-05,-4e-05,-2.9999999999999997e-05,-2e-05,1
4319,4505,-1e-05,-2e-05,0.0,-2e-05,-2.9999999999999997e-05,-4e-05,-2.9999999999999997e-05,-2e-05,1
4320,4506,-1e-05,-2e-05,0.0,-2e-05,-2.9999999999999997e-05,-4e-05,-2.9999999999999997e-05,-2e-05,1
4321,4507,-1e-05,-2e-05,0.0,-2e-05,-2.9999999999999997e-05,-4e-05,-2.9999999999999997e-05,-2e-05,1
4322,4508,-1e-05,-2e-05,0.0,-2e-05,-2.9999999999999997e-05,-4e-05,-2.9999999999999997e-05,-2e-05,1
4323,4509,-1e-05,-2e-05,0.0,-2e-05,-2.9999999999999997e-05,-4e-05,-2.9999999999999997e-05,-2e-05,1
4324,4510,-2e-05,-1e-05,-1e-05,1e-05,0.0,1e-05,1e-05,1e-05,1
4325,4511,-2e-05,-1e-05,-1e-05,1e-05,0.0,1e-05,1e-05,1e-05,1
4326,4512,-2.9999999999999997e-05,-1e-05,-2e-05,-1e-05,-2.9999999999999997e-05,-2e-05,-1e-05,-2e-05,1
4327,4513,-2.9999999999999997e-05,-1e-05,-2e-05,-1e-05,-2.9999999999999997e-05,-2e-05,-1e-05,-2e-05,1
4328,4514,-2.9999999999999997e-05,-1e-05,-2e-05,-1e-05,-2.9999999999999997e-05,-2e-05,-1e-05,-2e-05,1
4329,4515,-2.9999999999999997e-05,-1e-05,-2e-05,-1e-05,-2.9999999999999997e-05,-2e-05,-1e-05,-2e-05,1
4330,4516,-2.9999999999999997e-05,-1e-05,-2e-05,-1e-05,-2.9999999999999997e-05,-2e-05,-1e-05,-2e-05,1
4331,4517,-2.9999999999999997e-05,-1e-05,-2e-05,-1e-05,-2.9999999999999997e-05,-2e-05,-1e-05,-2e-05,1
4332,4518,-2.9999999999999997e-05,-1e-05,-2e-05,-1e-05,-2.9999999999999997e-05,-2e-05,-1e-05,-2e-05,1
4333,4519,-2.9999999999999997e-05,-1e-05,-2e-05,-1e-05,-2.9999999999999997e-05,-2e-05,-1e-05,-2e-05,1
4334,4520,-2.9999999999999997e-05,-1e-05,-2e-05,-1e-05,-2.9999999999999997e-05,-2e-05,-1e-05,-2e-05,1
4335,4521,-2.9999999999999997e-05,-1e-05,-2e-05,-1e-05,-2.9999999999999997e-05,-2e-05,-1e-05,-2e-05,1
4336,4522,-2.9999999999999997e-05,-1e-05,-2e-05,-1e-05,-2.9999999999999997e-05,-2e-05,-1e-05,-2e-05,1
4337,4523,-2.9999999999999997e-05,-1e-05,-2e-05,-1e-05,-2.9999999999999997e-05,-2e-05,-1e-05,-2e-05,1
4338,4524,-2.9999999999999997e-05,-1e-05,-2e-05,-1e-05,-2.9999999999999997e-05,-2e-05,-1e-05,-2e-05,1
4339,4525,-2.9999999999999997e-05,-1e-05,-2e-05,-1e-05,-2.9999999999999997e-05,-2e-05,-1e-05,-2e-05,1
4340,4526,-2.9999999999999997e-05,-1e-05,-2e-05,-1e-05,-2.9999999999999997e-05,-2e-05,-1e-05,-2e-05,1
4341,4527,-2.9999999999999997e-05,-1e-05,-2e-05,-1e-05,-2.9999999999999997e-05,-2e-05,-1e-05,-2e-05,1
4342,4528,-2.9999999999999997e-05,-1e-05,-2e-05,-1e-05,-2.9999999999999997e-05,-2e-05,-1e-05,-2e-05,1
4343,4529,-2.9999999999999997e-05,-1e-05,-2e-05,-1e-05,-2.9999999999999997e-05,-2e-05,-1e-05,-2e-05,1
4344,4530,-2.9999999999999997e-05,-1e-05,-2e-05,-1e-05,-2.9999999999999997e-05,-2e-05,-1e-05,-2e-05,1
4345,4531,-2.9999999999999997e-05,-1e-05,-2e-05,-1e-05,-2.9999999999999997e-05,-2e-05,-1e-05,-2e-05,1
4346,4532,-2.9999999999999997e-05,-1e-05,-2e-05,-1e-05,-2.9999999999999997e-05,-2e-05,-1e-05,-2e-05,1
4347,4533,0.0,-2.9999999999999997e-05,-2e-05,-1e-05,-2e-05,-2e-05,-1e-05,0.0,1
4348,4534,0.0,-2.9999999999999997e-05,-2e-05,-1e-05,-2e-05,-2e-05,-1e-05,0.0,1
4349,4535,-2e-05,0.0,0.0,-1e-05,1e-05,0.0,1e-05,-1e-05,1
4350,4536,-2e-05,0.0,0.0,-1e-05,1e-05,0.0,1e-05,-1e-05,1
4351,4538,-2e-05,0.0,0.0,-1e-05,1e-05,0.0,1e-05,-1e-05,1
4352,4539,-2e-05,0.0,0.0,-1e-05,1e-05,0.0,1e-05,-1e-05,1
4353,4540,-2e-05,0.0,0.0,-1e-05,1e-05,0.0,1e-05,-1e-05,1
4354,4541,-2e-05,0.0,0.0,-1e-05,1e-05,0.0,1e-05,-1e-05,1
4355,4542,-2e-05,0.0,0.0,-1e-05,1e-05,0.0,1e-05,-1e-05,1
4356,4543,-2e-05,0.0,0.0,-1e-05,1e-05,0.0,1e-05,-1e-05,1
4357,4544,-2e-05,0.0,0.0,-1e-05,1e-05,0.0,1e-05,-1e-05,1
4358,4545,-2e-05,0.0,0.0,-1e-05,1e-05,0.0,1e-05,-1e-05,1
4359,4546,-2e-05,0.0,0.0,-1e-05,1e-05,0.0,1e-05,-1e-05,1
4360,4547,0.0,-1e-05,0.0,-2e-05,-2e-05,-2e-05,-2e-05,-2.9999999999999997e-05,1
4361,4548,0.0,-1e-05,0.0,-2e-05,-2e-05,-2e-05,-2e-05,-2.9999999999999997e-05,1
4362,4549,0.0,-1e-05,0.0,-2e-05,-2e-05,-2e-05,-2e-05,-2.9999999999999997e-05,1
4363,4550,0.0,-1e-05,0.0,-2e-05,-2e-05,-2e-05,-2e-05,-2.9999999999999997e-05,1
4364,4551,0.0,-1e-05,0.0,-2e-05,-2e-05,-2e-05,-2e-05,-2.9999999999999997e-05,1
4365,4552,0.0,-1e-05,0.0,-2e-05,-2e-05,-2e-05,-2e-05,-2.9999999999999997e-05,1
4366,4553,0.0,-1e-05,0.0,-2e-05,-2e-05,-2e-05,-2e-05,-2.9999999999999997e-05,1
4367,4554,-1e-05,0.0,-2e-05,-2.9999999999999997e-05,-1e-05,-2e-05,-1e-05,1e-05,1
4368,4555,-1e-05,0.0,-2e-05,-2.9999999999999997e-05,-1e-05,-2e-05,-1e-05,1e-05,1
4369,4556,-1e-05,0.0,-2e-05,-2.9999999999999997e-05,-1e-05,-2e-05,-1e-05,1e-05,1
4370,4557,-1e-05,0.0,-2e-05,-2.9999999999999997e-05,-1e-05,-2e-05,-1e-05,1e-05,1
4371,4558,-1e-05,0.0,-2e-05,-2.9999999999999997e-05,-1e-05,-2e-05,-1e-05,1e-05,1
4372,4559,-1e-05,0.0,-2e-05,-2.9999999999999997e-05,-1e-05,-2e-05,-1e-05,1e-05,1
4373,4560,-1e-05,0.0,-2e-05,-2.9999999999999997e-05,-1e-05,-2e-05,-1e-05,1e-05,1
4374,4561,-1e-05,0.0,-2e-05,-2.9999999999999997e-05,-1e-05,-2e-05,-1e-05,1e-05,1
4375,4562,-1e-05,0.0,-2e-05,-2.9999999999999997e-05,-1e-05,-2e-05,-1e-05,1e-05,1
4376,4563,-1e-05,0.0,-2e-05,-2.9999999999999997e-05,-1e-05,-2e-05,-1e-05,1e-05,1
4377,4564,-1e-05,0.0,-2e-05,-2.9999999999999997e-05,-1e-05,-2e-05,-1e-05,1e-05,1
4378,4565,-1e-05,0.0,-2e-05,-2.9999999999999997e-05,-1e-05,-2e-05,-1e-05,1e-05,1
4379,4566,-1e-05,0.0,-2e-05,-2.9999999999999997e-05,-1e-05,-2e-05,-1e-05,1e-05,1
4380,4567,-1e-05,0.0,-2e-05,-2.9999999999999997e-05,-1e-05,-2e-05,-1e-05,1e-05,1
4381,4568,-1e-05,0.0,-2e-05,-2.9999999999999997e-05,-1e-05,-2e-05,-1e-05,1e-05,1
4382,4569,-1e-05,0.0,-2e-05,-2.9999999999999997e-05,-1e-05,-2e-05,-1e-05,1e-05,1
4383,4570,-2e-05,-1e-05,-2e-05,2.9999999999999997e-05,1e-05,0.0,-2.9999999999999997e-05,0.0,1
4384,4571,-2e-05,-1e-05,-2e-05,2.9999999999999997e-05,1e-05,0.0,-2.9999999999999997e-05,0.0,1
4385,4572,-2e-05,-1e-05,-2e-05,2.9999999999999997e-05,1e-05,0.0,-2.9999999999999997e-05,0.0,1
4386,4573,-2e-05,-1e-05,-2e-05,2.9999999999999997e-05,1e-05,0.0,-2.9999999999999997e-05,0.0,1
4387,4574,-2e-05,-1e-05,-2e-05,2.9999999999999997e-05,1e-05,0.0,-2.9999999999999997e-05,0.0,1
4388,4575,-2e-05,-1e-05,-2e-05,2.9999999999999997e-05,1e-05,0.0,-2.9999999999999997e-05,0.0,1
4389,4576,-2e-05,-1e-05,-2e-05,2.9999999999999997e-05,1e-05,0.0,-2.9999999999999997e-05,0.0,1
4390,4577,-2e-05,-1e-05,-2e-05,2.9999999999999997e-05,1e-05,0.0,-2.9999999999999997e-05,0.0,1
4391,4578,-2e-05,-1e-05,-2e-05,2.9999999999999997e-05,1e-05,0.0,-2.9999999999999997e-05,0.0,1
4392,4579,-2e-05,-1e-05,-2e-05,2.9999999999999997e-05,1e-05,0.0,-2.9999999999999997e-05,0.0,1
4393,4580,-2e-05,-1e-05,-2e-05,2.9999999999999997e-05,1e-05,0.0,-2.9999999999999997e-05,0.0,1
4394,4581,-2e-05,-1e-05,-2e-05,2.9999999999999997e-05,1e-05,0.0,-2.9999999999999997e-05,0.0,1
4395,4582,-2e-05,-1e-05,-2e-05,2.9999999999999997e-05,1e-05,0.0,-2.9999999999999997e-05,0.0,1
4396,4583,-2e-05,-1e-05,-2e-05,2.9999999999999997e-05,1e-05,0.0,-2.9999999999999997e-05,0.0,1
4397,4584,-2e-05,-1e-05,-2e-05,-1e-05,-2e-05,-2e-05,-2e-05,-1e-05,1
4398,4585,-2e-05,-1e-05,-2e-05,-1e-05,-2e-05,-2e-05,-2e-05,-1e-05,1
4399,4586,-2e-05,-1e-05,-2e-05,-1e-05,-2e-05,-2e-05,-2e-05,-1e-05,1
4400,4588,-2e-05,-1e-05,-2e-05,-1e-05,-2e-05,-2e-05,-2e-05,-1e-05,1
4401,4589,-2e-05,-1e-05,-2e-05,-1e-05,-2e-05,-2e-05,-2e-05,-1e-05,1
4402,4590,-2e-05,-1e-05,-2e-05,-1e-05,-2e-05,-2e-05,-2e-05,-1e-05,1
4403,4591,-2e-05,-1e-05,-2e-05,-1e-05,-2e-05,-2e-05,-2e-05,-1e-05,1
4404,4592,-2e-05,-1e-05,-2e-05,-1e-05,-2e-05,-2e-05,-2e-05,-1e-05,1
4405,4593,-1e-05,0.0,-1e-05,-1e-05,-2.9999999999999997e-05,-2.9999999999999997e-05,0.0,-1e-05,1
4406,4594,0.0,-1e-05,-2e-05,-1e-05,-1e-05,-2e-05,0.0,-1e-05,1
4407,4595,0.0,-1e-05,-2e-05,-1e-05,-1e-05,-2e-05,0.0,-1e-05,1
4408,4596,0.0,-1e-05,-2e-05,-1e-05,-1e-05,-2e-05,0.0,-1e-05,1
4409,4597,0.0,-1e-05,-2e-05,-1e-05,-1e-05,-2e-05,0.0,-1e-05,1
4410,4598,0.0,-1e-05,-2e-05,-1e-05,-1e-05,-2e-05,0.0,-1e-05,1
4411,4599,0.0,-1e-05,-2e-05,-1e-05,-1e-05,-2e-05,0.0,-1e-05,1
4412,4600,0.0,-1e-05,-2e-05,-1e-05,-1e-05,-2e-05,0.0,-1e-05,1
4413,4601,0.0,-1e-05,-2e-05,-1e-05,-1e-05,-2e-05,0.0,-1e-05,1
4414,4602,0.0,-1e-05,-2e-05,-1e-05,-1e-05,-2e-05,0.0,-1e-05,1
4415,4603,0.0,-1e-05,-2e-05,-1e-05,-1e-05,-2e-05,0.0,-1e-05,1
4416,4604,0.0,-1e-05,-2e-05,-1e-05,-1e-05,-2e-05,0.0,-1e-05,1
4417,4605,0.0,-1e-05,-2e-05,-1e-05,-1e-05,-2e-05,0.0,-1e-05,1
4418,4606,0.0,-1e-05,-2e-05,-1e-05,-1e-05,-2e-05,0.0,-1e-05,1
4419,4607,-1e-05,1e-05,0.0,2e-05,-1e-05,1e-05,1e-05,1e-05,1
4420,4608,-1e-05,1e-05,0.0,2e-05,-1e-05,1e-05,1e-05,1e-05,1
4421,4609,-1e-05,1e-05,0.0,2e-05,-1e-05,1e-05,1e-05,1e-05,1
4422,4610,-1e-05,1e-05,0.0,2e-05,-1e-05,1e-05,1e-05,1e-05,1
4423,4611,-1e-05,1e-05,0.0,2e-05,-1e-05,1e-05,1e-05,1e-05,1
4424,4612,-1e-05,1e-05,0.0,2e-05,-1e-05,1e-05,1e-05,1e-05,1
4425,4613,-1e-05,1e-05,0.0,2e-05,-1e-05,1e-05,1e-05,1e-05,1
4426,4614,-1e-05,1e-05,0.0,2e-05,-1e-05,1e-05,1e-05,1e-05,1
4427,4615,-1e-05,1e-05,0.0,2e-05,-1e-05,1e-05,1e-05,1e-05,1
4428,4616,-1e-05,1e-05,0.0,2e-05,-1e-05,1e-05,1e-05,1e-05,1
4429,4617,-1e-05,1e-05,0.0,2e-05,-1e-05,1e-05,1e-05,1e-05,1
4430,4618,-1e-05,1e-05,0.0,2e-05,-1e-05,1e-05,1e-05,1e-05,1
4431,4619,-1e-05,1e-05,0.0,2e-05,-1e-05,1e-05,1e-05,1e-05,1
4432,4620,-1e-05,1e-05,0.0,2e-05,-1e-05,1e-05,1e-05,1e-05,1
4433,4621,0.0,0.0,-2e-05,-2e-05,-2.9999999999999997e-05,-2e-05,0.0,1e-05,1
4434,4622,0.0,0.0,-2e-05,-2e-05,-2.9999999999999997e-05,-2e-05,0.0,1e-05,1
4435,4623,0.0,0.0,-2e-05,-2e-05,-2.9999999999999997e-05,-2e-05,0.0,1e-05,1
4436,4624,0.0,0.0,-2e-05,-2e-05,-2.9999999999999997e-05,-2e-05,0.0,1e-05,1
4437,4625,0.0,0.0,-2e-05,-2e-05,-2.9999999999999997e-05,-2e-05,0.0,1e-05,1
4438,4626,0.0,0.0,-2e-05,-2e-05,-2.9999999999999997e-05,-2e-05,0.0,1e-05,1
4439,4627,0.0,0.0,-2e-05,-2e-05,-2.9999999999999997e-05,-2e-05,0.0,1e-05,1
4440,4628,0.0,0.0,-2e-05,-2e-05,-2.9999999999999997e-05,-2e-05,0.0,1e-05,1
4441,4629,0.0,0.0,-2e-05,-2e-05,-2.9999999999999997e-05,-2e-05,0.0,1e-05,1
4442,4630,-1e-05,-1e-05,0.0,-2e-05,0.0,2e-05,0.0,0.0,1
4443,4631,-1e-05,-1e-05,0.0,-2e-05,0.0,2e-05,0.0,0.0,1
4444,4632,0.0,1e-05,-1e-05,-2e-05,-2e-05,-2e-05,-2e-05,0.0,1
4445,4633,0.0,1e-05,-1e-05,-2e-05,-2e-05,-2e-05,-2e-05,0.0,1
4446,4634,0.0,1e-05,-1e-05,-2e-05,-2e-05,-2e-05,-2e-05,0.0,1
4447,4635,0.0,1e-05,-1e-05,-2e-05,-2e-05,-2e-05,-2e-05,0.0,1
4448,4637,0.0,1e-05,-1e-05,-2e-05,-2e-05,-2e-05,-2e-05,0.0,1
4449,4639,0.0,1e-05,-1e-05,-2e-05,-2e-05,-2e-05,-2e-05,0.0,1
4450,4640,0.0,1e-05,-1e-05,-2e-05,-2e-05,-2e-05,-2e-05,0.0,1
4451,4641,0.0,1e-05,-1e-05,-2e-05,-2e-05,-2e-05,-2e-05,0.0,1
4452,4642,0.0,1e-05,-1e-05,-2e-05,-2e-05,-2e-05,-2e-05,0.0,1
4453,4643,0.0,1e-05,-1e-05,-2e-05,-2e-05,-2e-05,-2e-05,0.0,1
4454,4644,0.0,1e-05,-1e-05,-2e-05,-2e-05,-2e-05,-2e-05,0.0,1
4455,4645,0.0,1e-05,-1e-05,-2e-05,-2e-05,-2e-05,-2e-05,0.0,1
4456,4646,0.0,1e-05,-1e-05,-2e-05,-2e-05,-2e-05,-2e-05,0.0,1
4457,4647,0.0,1e-05,-1e-05,-2e-05,-2e-05,-2e-05,-2e-05,0.0,1
4458,4648,0.0,1e-05,-1e-05,-2e-05,-2e-05,-2e-05,-2e-05,0.0,1
4459,4649,0.0,1e-05,-1e-05,-2e-05,-2e-05,-2e-05,-2e-05,0.0,1
4460,4650,0.0,1e-05,-1e-05,-2e-05,-2e-05,-2e-05,-2e-05,0.0,1
4461,4651,0.0,1e-05,-1e-05,-2e-05,-2e-05,-2e-05,-2e-05,0.0,1
4462,4652,0.0,1e-05,-1e-05,-2e-05,-2e-05,-2e-05,-2e-05,0.0,1
4463,4654,0.0,1e-05,-1e-05,-2e-05,-2e-05,-2e-05,-2e-05,0.0,1
4464,4655,0.0,1e-05,-1e-05,-2e-05,-2e-05,-2e-05,-2e-05,0.0,1
4465,4656,0.0,1e-05,-1e-05,-2e-05,-2e-05,-2e-05,-2e-05,0.0,1
4466,4657,0.0,1e-05,-1e-05,-2e-05,-2e-05,-2e-05,-2e-05,0.0,1
4467,4658,0.0,1e-05,-1e-05,-2e-05,-2e-05,-2e-05,-2e-05,0.0,1
4468,4659,0.0,1e-05,-1e-05,-2e-05,-2e-05,-2e-05,-2e-05,0.0,1
4469,4660,0.0,-2e-05,-1e-05,0.0,-2e-05,-1e-05,-1e-05,-1e-05,1
4470,4661,0.0,-2e-05,-1e-05,0.0,-2e-05,-1e-05,-1e-05,-1e-05,1
4471,4662,-2e-05,-2e-05,0.0,1e-05,2.9999999999999997e-05,2.9999999999999997e-05,-1e-05,0.0,1
4472,4663,-2e-05,-2e-05,0.0,1e-05,2.9999999999999997e-05,2.9999999999999997e-05,-1e-05,0.0,1
4473,4664,-2e-05,-2e-05,0.0,1e-05,2.9999999999999997e-05,2.9999999999999997e-05,-1e-05,0.0,1
4474,4665,-2e-05,-2e-05,0.0,1e-05,2.9999999999999997e-05,2.9999999999999997e-05,-1e-05,0.0,1
4475,4666,-2e-05,-2e-05,0.0,1e-05,2.9999999999999997e-05,2.9999999999999997e-05,-1e-05,0.0,1
4476,4667,-2.9999999999999997e-05,-2.9999999999999997e-05,1e-05,-4e-05,-4e-05,-2e-05,-2e-05,-2e-05,1
4477,4668,-2.9999999999999997e-05,-2.9999999999999997e-05,1e-05,-4e-05,-4e-05,-2e-05,-2e-05,-2e-05,1
4478,4669,-2.9999999999999997e-05,-2.9999999999999997e-05,1e-05,-4e-05,-4e-05,-2e-05,-2e-05,-2e-05,1
4479,4670,-2.9999999999999997e-05,-2.9999999999999997e-05,1e-05,-4e-05,-4e-05,-2e-05,-2e-05,-2e-05,1
4480,4671,-2.9999999999999997e-05,-2.9999999999999997e-05,1e-05,-4e-05,-4e-05,-2e-05,-2e-05,-2e-05,1
4481,4672,-2.9999999999999997e-05,-2.9999999999999997e-05,1e-05,-4e-05,-4e-05,-2e-05,-2e-05,-2e-05,1
4482,4673,-2.9999999999999997e-05,-2.9999999999999997e-05,1e-05,-4e-05,-4e-05,-2e-05,-2e-05,-2e-05,1
4483,4674,-2.9999999999999997e-05,-2.9999999999999997e-05,1e-05,-4e-05,-4e-05,-2e-05,-2e-05,-2e-05,1
4484,4675,-2.9999999999999997e-05,-2.9999999999999997e-05,1e-05,-4e-05,-4e-05,-2e-05,-2e-05,-2e-05,1
4485,4676,-2.9999999999999997e-05,-2.9999999999999997e-05,1e-05,-4e-05,-4e-05,-2e-05,-2e-05,-2e-05,1
4486,4677,-2.9999999999999997e-05,-2.9999999999999997e-05,1e-05,-4e-05,-4e-05,-2e-05,-2e-05,-2e-05,1
4487,4678,-2.9999999999999997e-05,-2.9999999999999997e-05,1e-05,-4e-05,-4e-05,-2e-05,-2e-05,-2e-05,1
4488,4679,-2.9999999999999997e-05,-2.9999999999999997e-05,1e-05,-4e-05,-4e-05,-2e-05,-2e-05,-2e-05,1
4489,4680,-2.9999999999999997e-05,-2.9999999999999997e-05,1e-05,-4e-05,-4e-05,-2e-05,-2e-05,-2e-05,1
4490,4681,0.0,0.0,0.0,1e-05,1e-05,0.0,2.9999999999999997e-05,-1e-05,1
4491,4682,0.0,0.0,0.0,1e-05,1e-05,0.0,2.9999999999999997e-05,-1e-05,1
4492,4683,0.0,0.0,0.0,1e-05,1e-05,0.0,2.9999999999999997e-05,-1e-05,1
4493,4684,0.0,0.0,0.0,1e-05,1e-05,0.0,2.9999999999999997e-05,-1e-05,1
4494,4685,0.0,0.0,0.0,1e-05,1e-05,0.0,2.9999999999999997e-05,-1e-05,1
4495,4687,0.0,0.0,0.0,1e-05,1e-05,0.0,2.9999999999999997e-05,-1e-05,1
4496,4689,0.0,0.0,0.0,1e-05,1e-05,0.0,2.9999999999999997e-05,-1e-05,1
4497,4690,0.0,-1e-05,-1e-05,-4e-05,-2.9999999999999997e-05,-4e-05,0.0,1e-05,1
4498,4691,0.0,-1e-05,-1e-05,-4e-05,-2.9999999999999997e-05,-4e-05,0.0,1e-05,1
4499,4692,0.0,-1e-05,-1e-05,1e-05,2e-05,2.9999999999999997e-05,0.0,-1e-05,1
4500,4693,0.0,-1e-05,-1e-05,1e-05,2e-05,2.9999999999999997e-05,0.0,-1e-05,1
4501,4694,0.0,-1e-05,-1e-05,1e-05,2e-05,2.9999999999999997e-05,0.0,-1e-05,1
4502,4695,0.0,-1e-05,-1e-05,1e-05,2e-05,2.9999999999999997e-05,0.0,-1e-05,1
4503,4696,0.0,-1e-05,-1e-05,1e-05,2e-05,2.9999999999999997e-05,0.0,-1e-05,1
4504,4697,0.0,-1e-05,-1e-05,1e-05,2e-05,2.9999999999999997e-05,0.0,-1e-05,1
4505,4698,0.0,-1e-05,-1e-05,1e-05,2e-05,2.9999999999999997e-05,0.0,-1e-05,1
4506,4699,0.0,-1e-05,-1e-05,1e-05,2e-05,2.9999999999999997e-05,0.0,-1e-05,1
4507,4700,0.0,-1e-05,-1e-05,1e-05,2e-05,2.9999999999999997e-05,0.0,-1e-05,1
4508,4701,0.0,-1e-05,-1e-05,1e-05,2e-05,2.9999999999999997e-05,0.0,-1e-05,1
4509,4702,0.0,-1e-05,-1e-05,1e-05,2e-05,2.9999999999999997e-05,0.0,-1e-05,1
4510,4703,0.0,-1e-05,-1e-05,1e-05,2e-05,2.9999999999999997e-05,0.0,-1e-05,1
4511,4704,0.0,-1e-05,-1e-05,1e-05,2e-05,2.9999999999999997e-05,0.0,-1e-05,1
4512,4705,0.0,-1e-05,-1e-05,1e-05,2e-05,2.9999999999999997e-05,0.0,-1e-05,1
4513,4706,0.0,-1e-05,-1e-05,1e-05,2e-05,2.9999999999999997e-05,0.0,-1e-05,1
4514,4707,0.0,-1e-05,-1e-05,1e-05,2e-05,2.9999999999999997e-05,0.0,-1e-05,1
4515,4708,0.0,-1e-05,-1e-05,1e-05,2e-05,2.9999999999999997e-05,0.0,-1e-05,1
4516,4709,0.0,-1e-05,-1e-05,1e-05,2e-05,2.9999999999999997e-05,0.0,-1e-05,1
4517,4710,0.0,-1e-05,-1e-05,1e-05,2e-05,2.9999999999999997e-05,0.0,-1e-05,1
4518,4711,0.0,-1e-05,-1e-05,1e-05,2e-05,2.9999999999999997e-05,0.0,-1e-05,1
4519,4712,0.0,-1e-05,-1e-05,1e-05,2e-05,2.9999999999999997e-05,0.0,-1e-05,1
4520,4713,-1e-05,1e-05,-2.9999999999999997e-05,0.0,0.0,-1e-05,0.0,0.0,1
4521,4714,-1e-05,-1e-05,-1e-05,0.0,0.0,-1e-05,-2.9999999999999997e-05,-1e-05,1
4522,4715,-1e-05,-1e-05,-1e-05,0.0,0.0,-1e-05,-2.9999999999999997e-05,-1e-05,1
4523,4716,-1e-05,-1e-05,-1e-05,0.0,0.0,-1e-05,-2.9999999999999997e-05,-1e-05,1
4524,4717,-1e-05,-1e-05,-1e-05,0.0,0.0,-1e-05,-2.9999999999999997e-05,-1e-05,1
4525,4718,-1e-05,-1e-05,-1e-05,0.0,0.0,-1e-05,-2.9999999999999997e-05,-1e-05,1
4526,4719,-1e-05,-1e-05,-1e-05,0.0,0.0,-1e-05,-2.9999999999999997e-05,-1e-05,1
4527,4720,-1e-05,-1e-05,-1e-05,0.0,0.0,-1e-05,-2.9999999999999997e-05,-1e-05,1
