,time,channel1,channel2,channel3,channel4,channel5,channel6,channel7,channel8,class
653,688,2e-05,0.0,-2.9999999999999997e-05,-7e-05,2.9999999999999997e-05,2e-05,4e-05,-2e-05,1
654,689,2e-05,0.0,-2.9999999999999997e-05,-7e-05,2.9999999999999997e-05,2e-05,4e-05,-2e-05,1
655,690,2e-05,0.0,-2.9999999999999997e-05,-7e-05,2.9999999999999997e-05,2e-05,4e-05,-2e-05,1
656,691,2e-05,0.0,-2.9999999999999997e-05,-7e-05,2.9999999999999997e-05,2e-05,4e-05,-2e-05,1
657,692,2e-05,0.0,-2.9999999999999997e-05,-7e-05,2.9999999999999997e-05,2e-05,4e-05,-2e-05,1
658,693,2e-05,0.0,-2.9999999999999997e-05,-7e-05,2.9999999999999997e-05,2e-05,4e-05,-2e-05,1
659,694,2e-05,0.0,-2.9999999999999997e-05,-7e-05,2.9999999999999997e-05,2e-05,4e-05,-2e-05,1
660,695,2e-05,0.0,-2.9999999999999997e-05,-7e-05,2.9999999999999997e-05,2e-05,4e-05,-2e-05,1
661,696,2e-05,0.0,-2.9999999999999997e-05,-7e-05,2.9999999999999997e-05,2e-05,4e-05,-2e-05,1
662,697,2e-05,0.0,-2.9999999999999997e-05,-7e-05,2.9999999999999997e-05,2e-05,4e-05,-2e-05,1
663,698,2e-05,0.0,-2.9999999999999997e-05,-7e-05,2.9999999999999997e-05,2e-05,4e-05,-2e-05,1
664,699,2e-05,0.0,-2.9999999999999997e-05,-7e-05,2.9999999999999997e-05,2e-05,4e-05,-2e-05,1
665,700,-1e-05,0.0,0.0,2.9999999999999997e-05,2e-05,0.0,1e-05,1e-05,1
666,701,-1e-05,0.0,0.0,2.9999999999999997e-05,2e-05,0.0,1e-05,1e-05,1
667,702,-1e-05,0.0,0.0,2.9999999999999997e-05,2e-05,0.0,1e-05,1e-05,1
668,703,-1e-05,0.0,0.0,2.9999999999999997e-05,2e-05,0.0,1e-05,1e-05,1
669,704,-1e-05,0.0,0.0,2.9999999999999997e-05,2e-05,0.0,1e-05,1e-05,1
670,705,-1e-05,0.0,0.0,2.9999999999999997e-05,2e-05,0.0,1e-05,1e-05,1
671,706,-1e-05,0.0,0.0,2.9999999999999997e-05,2e-05,0.0,1e-05,1e-05,1
672,707,-1e-05,-2.9999999999999997e-05,-5e-05,-7e-05,-5.9999999999999995e-05,-5e-05,-2e-05,-1e-05,1
673,708,-1e-05,-2.9999999999999997e-05,-5e-05,-7e-05,-5.9999999999999995e-05,-5e-05,-2e-05,-1e-05,1
674,709,-1e-05,-2.9999999999999997e-05,-5e-05,-7e-05,-5.9999999999999995e-05,-5e-05,-2e-05,-1e-05,1
675,710,-1e-05,-2.9999999999999997e-05,-5e-05,-7e-05,-5.9999999999999995e-05,-5e-05,-2e-05,-1e-05,1
676,711,-1e-05,-2.9999999999999997e-05,-5e-05,-7e-05,-5.9999999999999995e-05,-5e-05,-2e-05,-1e-05,1
677,712,-1e-05,-2.9999999999999997e-05,-5e-05,-7e-05,-5.9999999999999995e-05,-5e-05,-2e-05,-1e-05,1
678,713,-1e-05,-2.9999999999999997e-05,-5e-05,-7e-05,-5.9999999999999995e-05,-5e-05,-2e-05,-1e-05,1
679,714,-1e-05,-2.9999999999999997e-05,-5e-05,-7e-05,-5.9999999999999995e-05,-5e-05,-2e-05,-1e-05,1
680,715,-1e-05,-2.9999999999999997e-05,-5e-05,-7e-05,-5.9999999999999995e-05,-5e-05,-2e-05,-1e-05,1
681,716,-1e-05,-2.9999999999999997e-05,-5e-05,-7e-05,-5.9999999999999995e-05,-5e-05,-2e-05,-1e-05,1
682,717,-1e-05,-2.9999999999999997e-05,-5e-05,-7e-05,-5.9999999999999995e-05,-5e-05,-2e-05,-1e-05,1
683,718,-1e-05,-2.9999999999999997e-05,-5e-05,-7e-05,-5.9999999999999995e-05,-5e-05,-2e-05,-1e-05,1
684,719,-1e-05,-2.9999999999999997e-05,-5e-05,-7e-05,-5.9999999999999995e-05,-5e-05,-2e-05,-1e-05,1
685,720,-1e-05,-2.9999999999999997e-05,-5e-05,-7e-05,-5.9999999999999995e-05,-5e-05,-2e-05,-1e-05,1
686,721,-1e-05,-2.9999999999999997e-05,-5e-05,-7e-05,-5.9999999999999995e-05,-5e-05,-2e-05,-1e-05,1
687,722,-1e-05,-2.9999999999999997e-05,-5e-05,-7e-05,-5.9999999999999995e-05,-5e-05,-2e-05,-1e-05,1
688,723,4e-05,-2.9999999999999997e-05,2e-05,2.9999999999999997e-05,2.9999999999999997e-05,4e-05,-4e-05,-2e-05,1
689,724,4e-05,-2.9999999999999997e-05,2e-05,2.9999999999999997e-05,2.9999999999999997e-05,4e-05,-4e-05,-2e-05,1
690,725,-1e-05,0.0,-2e-05,-2e-05,2.9999999999999997e-05,-2.9999999999999997e-05,-1e-05,-1e-05,1
691,726,-1e-05,0.0,-2e-05,-2e-05,2.9999999999999997e-05,-2.9999999999999997e-05,-1e-05,-1e-05,1
692,727,-1e-05,0.0,-2e-05,-2e-05,2.9999999999999997e-05,-2.9999999999999997e-05,-1e-05,-1e-05,1
693,728,-1e-05,0.0,-2e-05,-2e-05,2.9999999999999997e-05,-2.9999999999999997e-05,-1e-05,-1e-05,1
694,729,-1e-05,0.0,-2e-05,-2e-05,2.9999999999999997e-05,-2.9999999999999997e-05,-1e-05,-1e-05,1
695,730,-1e-05,0.0,-2e-05,-2e-05,2.9999999999999997e-05,-2.9999999999999997e-05,-1e-05,-1e-05,1
696,731,-1e-05,0.0,-2e-05,-2e-05,2.9999999999999997e-05,-2.9999999999999997e-05,-1e-05,-1e-05,1
697,732,-1e-05,0.0,-2e-05,-2e-05,2.9999999999999997e-05,-2.9999999999999997e-05,-1e-05,-1e-05,1
698,733,-1e-05,0.0,-2e-05,-2e-05,2.9999999999999997e-05,-2.9999999999999997e-05,-1e-05,-1e-05,1
699,734,-1e-05,0.0,-2e-05,-2e-05,2.9999999999999997e-05,-2.9999999999999997e-05,-1e-05,-1e-05,1
700,735,-1e-05,0.0,-2e-05,-2e-05,2.9999999999999997e-05,-2.9999999999999997e-05,-1e-05,-1e-05,1
701,736,-1e-05,0.0,-2e-05,-2e-05,2.9999999999999997e-05,-2.9999999999999997e-05,-1e-05,-1e-05,1
702,738,-1e-05,0.0,-2e-05,-2e-05,2.9999999999999997e-05,-2.9999999999999997e-05,-1e-05,-1e-05,1
703,739,-1e-05,0.0,-2e-05,-2e-05,2.9999999999999997e-05,-2.9999999999999997e-05,-1e-05,-1e-05,1
704,740,-1e-05,0.0,-2e-05,-2e-05,2.9999999999999997e-05,-2.9999999999999997e-05,-1e-05,-1e-05,1
705,741,-1e-05,0.0,-2e-05,-2e-05,2.9999999999999997e-05,-2.9999999999999997e-05,-1e-05,-1e-05,1
706,742,-1e-05,0.0,-2e-05,-2e-05,2.9999999999999997e-05,-2.9999999999999997e-05,-1e-05,-1e-05,1
707,743,-1e-05,0.0,-2e-05,-2e-05,2.9999999999999997e-05,-2.9999999999999997e-05,-1e-05,-1e-05,1
708,744,-1e-05,0.0,-2e-05,-2e-05,2.9999999999999997e-05,-2.9999999999999997e-05,-1e-05,-1e-05,1
709,745,-1e-05,0.0,-2e-05,-2e-05,2.9999999999999997e-05,-2.9999999999999997e-05,-1e-05,-1e-05,1
710,746,-2e-05,0.0,-2.9999999999999997e-05,-2e-05,-5.9999999999999995e-05,-5e-05,-1e-05,0.0,1
711,747,2e-05,5e-05,0.0,2e-05,-1e-05,-2.9999999999999997e-05,0.0,-2.9999999999999997e-05,1
712,748,2e-05,5e-05,0.0,2e-05,-1e-05,-2.9999999999999997e-05,0.0,-2.9999999999999997e-05,1
713,749,2e-05,5e-05,0.0,2e-05,-1e-05,-2.9999999999999997e-05,0.0,-2.9999999999999997e-05,1
714,750,2e-05,5e-05,0.0,2e-05,-1e-05,-2.9999999999999997e-05,0.0,-2.9999999999999997e-05,1
715,751,2e-05,5e-05,0.0,2e-05,-1e-05,-2.9999999999999997e-05,0.0,-2.9999999999999997e-05,1
716,752,2e-05,5e-05,0.0,2e-05,-1e-05,-2.9999999999999997e-05,0.0,-2.9999999999999997e-05,1
717,753,2e-05,5e-05,0.0,2e-05,-1e-05,-2.9999999999999997e-05,0.0,-2.9999999999999997e-05,1
718,754,2e-05,5e-05,0.0,2e-05,-1e-05,-2.9999999999999997e-05,0.0,-2.9999999999999997e-05,1
719,755,2e-05,5e-05,0.0,2e-05,-1e-05,-2.9999999999999997e-05,0.0,-2.9999999999999997e-05,1
720,756,2e-05,5e-05,0.0,2e-05,-1e-05,-2.9999999999999997e-05,0.0,-2.9999999999999997e-05,1
721,757,2e-05,5e-05,0.0,2e-05,-1e-05,-2.9999999999999997e-05,0.0,-2.9999999999999997e-05,1
722,758,2e-05,5e-05,0.0,2e-05,-1e-05,-2.9999999999999997e-05,0.0,-2.9999999999999997e-05,1
723,759,2e-05,5e-05,0.0,2e-05,-1e-05,-2.9999999999999997e-05,0.0,-2.9999999999999997e-05,1
724,760,-2e-05,4e-05,-1e-05,0.0,2e-05,-1e-05,-2.9999999999999997e-05,0.0,1
725,761,-2e-05,4e-05,-1e-05,0.0,2e-05,-1e-05,-2.9999999999999997e-05,0.0,1
726,762,-2e-05,4e-05,-1e-05,0.0,2e-05,-1e-05,-2.9999999999999997e-05,0.0,1
727,763,-2e-05,4e-05,-1e-05,0.0,2e-05,-1e-05,-2.9999999999999997e-05,0.0,1
728,764,-2e-05,4e-05,-1e-05,0.0,2e-05,-1e-05,-2.9999999999999997e-05,0.0,1
729,765,-2e-05,4e-05,-1e-05,0.0,2e-05,-1e-05,-2.9999999999999997e-05,0.0,1
730,766,-2e-05,4e-05,-1e-05,0.0,2e-05,-1e-05,-2.9999999999999997e-05,0.0,1
731,767,-4e-05,-2e-05,1e-05,-5e-05,-2e-05,2.9999999999999997e-05,2e-05,-1e-05,1
732,768,-4e-05,-2e-05,1e-05,-5e-05,-2e-05,2.9999999999999997e-05,2e-05,-1e-05,1
733,769,-4e-05,-2e-05,1e-05,-5e-05,-2e-05,2.9999999999999997e-05,2e-05,-1e-05,1
734,770,-4e-05,-2e-05,1e-05,-5e-05,-2e-05,2.9999999999999997e-05,2e-05,-1e-05,1
735,771,-4e-05,-2e-05,1e-05,-5e-05,-2e-05,2.9999999999999997e-05,2e-05,-1e-05,1
736,772,-4e-05,-2e-05,1e-05,-5e-05,-2e-05,2.9999999999999997e-05,2e-05,-1e-05,1
737,773,-4e-05,-2e-05,1e-05,-5e-05,-2e-05,2.9999999999999997e-05,2e-05,-1e-05,1
738,774,-4e-05,-2e-05,1e-05,-5e-05,-2e-05,2.9999999999999997e-05,2e-05,-1e-05,1
739,775,-4e-05,-2e-05,1e-05,-5e-05,-2e-05,2.9999999999999997e-05,2e-05,-1e-05,1
740,776,-4e-05,-2e-05,1e-05,-5e-05,-2e-05,2.9999999999999997e-05,2e-05,-1e-05,1
741,777,-4e-05,-2e-05,1e-05,-5e-05,-2e-05,2.9999999999999997e-05,2e-05,-1e-05,1
742,778,-4e-05,-2e-05,1e-05,-5e-05,-2e-05,2.9999999999999997e-05,2e-05,-1e-05,1
743,779,-4e-05,-2e-05,1e-05,-5e-05,-2e-05,2.9999999999999997e-05,2e-05,-1e-05,1
744,780,-4e-05,-2e-05,1e-05,-5e-05,-2e-05,2.9999999999999997e-05,2e-05,-1e-05,1
745,781,-4e-05,-2e-05,1e-05,-5e-05,-2e-05,2.9999999999999997e-05,2e-05,-1e-05,1
746,782,-4e-05,-2e-05,1e-05,-5e-05,-2e-05,2.9999999999999997e-05,2e-05,-1e-05,1
747,783,-2.9999999999999997e-05,-5e-05,1e-05,7e-05,2e-05,2e-05,-2e-05,-2e-05,1
748,784,-2.9999999999999997e-05,-5e-05,1e-05,7e-05,2e-05,2e-05,-2e-05,-2e-05,1
749,785,0.0,-2e-05,0.0,-1e-05,1e-05,-4e-05,-2e-05,-2.9999999999999997e-05,1
750,786,0.0,-2e-05,0.0,-1e-05,1e-05,-4e-05,-2e-05,-2.9999999999999997e-05,1
751,788,0.0,-2e-05,0.0,-1e-05,1e-05,-4e-05,-2e-05,-2.9999999999999997e-05,1
752,789,0.0,-2e-05,0.0,-1e-05,1e-05,-4e-05,-2e-05,-2.9999999999999997e-05,1
753,790,0.0,-2e-05,0.0,-1e-05,1e-05,-4e-05,-2e-05,-2.9999999999999997e-05,1
754,791,0.0,-2e-05,0.0,-1e-05,1e-05,-4e-05,-2e-05,-2.9999999999999997e-05,1
755,792,0.0,-2e-05,0.0,-1e-05,1e-05,-4e-05,-2e-05,-2.9999999999999997e-05,1
756,793,0.0,-2e-05,0.0,-1e-05,1e-05,-4e-05,-2e-05,-2.9999999999999997e-05,1
757,794,0.0,-2e-05,0.0,-1e-05,1e-05,-4e-05,-2e-05,-2.9999999999999997e-05,1
758,795,0.0,-2e-05,0.0,-1e-05,1e-05,-4e-05,-2e-05,-2.9999999999999997e-05,1
759,796,0.0,-2e-05,0.0,-1e-05,1e-05,-4e-05,-2e-05,-2.9999999999999997e-05,1
760,797,0.0,-2e-05,0.0,-1e-05,1e-05,-4e-05,-2e-05,-2.9999999999999997e-05,1
761,798,0.0,-2e-05,0.0,-1e-05,1e-05,-4e-05,-2e-05,-2.9999999999999997e-05,1
762,799,0.0,-2e-05,0.0,-1e-05,1e-05,-4e-05,-2e-05,-2.9999999999999997e-05,1
763,800,0.0,-2e-05,0.0,-1e-05,1e-05,-4e-05,-2e-05,-2.9999999999999997e-05,1
764,801,0.0,-2e-05,0.0,-1e-05,1e-05,-4e-05,-2e-05,-2.9999999999999997e-05,1
765,802,0.0,-2e-05,0.0,-1e-05,1e-05,-4e-05,-2e-05,-2.9999999999999997e-05,1
766,803,0.0,-2e-05,0.0,-1e-05,1e-05,-4e-05,-2e-05,-2.9999999999999997e-05,1
767,804,0.0,-2e-05,0.0,-1e-05,1e-05,-4e-05,-2e-05,-2.9999999999999997e-05,1
768,805,0.0,-2e-05,0.0,-1e-05,1e-05,-4e-05,-2e-05,-2.9999999999999997e-05,1
769,806,0.0,-2e-05,0.0,-1e-05,1e-05,-4e-05,-2e-05,-2.9999999999999997e-05,1
770,807,0.0,-2e-05,0.0,-1e-05,1e-05,-4e-05,-2e-05,-2.9999999999999997e-05,1
771,808,0.0,-2e-05,0.0,-1e-05,1e-05,-4e-05,-2e-05,-2.9999999999999997e-05,1
772,809,0.0,-2e-05,0.0,-1e-05,1e-05,-4e-05,-2e-05,-2.9999999999999997e-05,1
773,810,0.0,-2e-05,0.0,-1e-05,1e-05,-4e-05,-2e-05,-2.9999999999999997e-05,1
774,811,0.0,-2e-05,0.0,-1e-05,1e-05,-4e-05,-2e-05,-2.9999999999999997e-05,1
775,812,0.0,-2e-05,0.0,-1e-05,1e-05,-4e-05,-2e-05,-2.9999999999999997e-05,1
776,813,-1e-05,1e-05,-2e-05,-2e-05,-8e-05,-1e-05,-2e-05,-1e-05,1
777,814,-1e-05,1e-05,-2e-05,-2e-05,-8e-05,-1e-05,-2e-05,-1e-05,1
778,815,1e-05,-4e-05,-2e-05,1e-05,1e-05,0.0,-1e-05,2.9999999999999997e-05,1
779,816,1e-05,-4e-05,-2e-05,1e-05,1e-05,0.0,-1e-05,2.9999999999999997e-05,1
780,817,1e-05,-4e-05,-2e-05,1e-05,1e-05,0.0,-1e-05,2.9999999999999997e-05,1
781,818,1e-05,-4e-05,-2e-05,1e-05,1e-05,0.0,-1e-05,2.9999999999999997e-05,1
782,819,1e-05,0.0,-2.9999999999999997e-05,0.0,1e-05,-1e-05,-2e-05,0.0,1
783,820,-2.9999999999999997e-05,1e-05,-2.9999999999999997e-05,0.0,0.0,-2.9999999999999997e-05,-2.9999999999999997e-05,1e-05,1
784,821,-2.9999999999999997e-05,1e-05,-2.9999999999999997e-05,0.0,0.0,-2.9999999999999997e-05,-2.9999999999999997e-05,1e-05,1
785,822,-2.9999999999999997e-05,1e-05,-2.9999999999999997e-05,0.0,0.0,-2.9999999999999997e-05,-2.9999999999999997e-05,1e-05,1
786,823,-2.9999999999999997e-05,1e-05,-2.9999999999999997e-05,0.0,0.0,-2.9999999999999997e-05,-2.9999999999999997e-05,1e-05,1
787,824,-2.9999999999999997e-05,1e-05,-2.9999999999999997e-05,0.0,0.0,-2.9999999999999997e-05,-2.9999999999999997e-05,1e-05,1
788,825,-2.9999999999999997e-05,1e-05,-2.9999999999999997e-05,0.0,0.0,-2.9999999999999997e-05,-2.9999999999999997e-05,1e-05,1
789,826,-2.9999999999999997e-05,1e-05,-2.9999999999999997e-05,0.0,0.0,-2.9999999999999997e-05,-2.9999999999999997e-05,1e-05,1
790,827,-2.9999999999999997e-05,1e-05,-2.9999999999999997e-05,0.0,0.0,-2.9999999999999997e-05,-2.9999999999999997e-05,1e-05,1
791,828,-2.9999999999999997e-05,2e-05,0.0,1e-05,-2e-05,0.0,-2e-05,1e-05,1
792,830,-2.9999999999999997e-05,2e-05,0.0,1e-05,-2e-05,0.0,-2e-05,1e-05,1
793,831,-2.9999999999999997e-05,2e-05,0.0,1e-05,-2e-05,0.0,-2e-05,1e-05,1
794,832,-2.9999999999999997e-05,2e-05,0.0,1e-05,-2e-05,0.0,-2e-05,1e-05,1
795,833,-2.9999999999999997e-05,2e-05,0.0,1e-05,-2e-05,0.0,-2e-05,1e-05,1
796,834,-2.9999999999999997e-05,2e-05,0.0,1e-05,-2e-05,0.0,-2e-05,1e-05,1
797,835,-2.9999999999999997e-05,2e-05,0.0,1e-05,-2e-05,0.0,-2e-05,1e-05,1
798,836,-2.9999999999999997e-05,2e-05,0.0,1e-05,-2e-05,0.0,-2e-05,1e-05,1
799,838,-2.9999999999999997e-05,2e-05,0.0,1e-05,-2e-05,0.0,-2e-05,1e-05,1
800,839,-2.9999999999999997e-05,2e-05,0.0,1e-05,-2e-05,0.0,-2e-05,1e-05,1
801,840,-2.9999999999999997e-05,2e-05,0.0,1e-05,-2e-05,0.0,-2e-05,1e-05,1
802,841,-2.9999999999999997e-05,2e-05,0.0,1e-05,-2e-05,0.0,-2e-05,1e-05,1
803,842,-2.9999999999999997e-05,2e-05,0.0,1e-05,-2e-05,0.0,-2e-05,1e-05,1
804,843,1e-05,-2.9999999999999997e-05,-2e-05,-5e-05,-4e-05,-7e-05,-2e-05,-2.9999999999999997e-05,1
805,844,1e-05,-2.9999999999999997e-05,-2e-05,-5e-05,-4e-05,-7e-05,-2e-05,-2.9999999999999997e-05,1
806,845,-2.9999999999999997e-05,-2.9999999999999997e-05,1e-05,4e-05,2e-05,-2e-05,4e-05,-1e-05,1
807,846,-2.9999999999999997e-05,-2.9999999999999997e-05,1e-05,4e-05,2e-05,-2e-05,4e-05,-1e-05,1
808,847,-2.9999999999999997e-05,-2.9999999999999997e-05,1e-05,4e-05,2e-05,-2e-05,4e-05,-1e-05,1
809,848,-2.9999999999999997e-05,-2.9999999999999997e-05,1e-05,4e-05,2e-05,-2e-05,4e-05,-1e-05,1
810,849,-2.9999999999999997e-05,-2.9999999999999997e-05,1e-05,4e-05,2e-05,-2e-05,4e-05,-1e-05,1
811,850,-2.9999999999999997e-05,-2.9999999999999997e-05,1e-05,4e-05,2e-05,-2e-05,4e-05,-1e-05,1
812,851,-2.9999999999999997e-05,-2.9999999999999997e-05,1e-05,4e-05,2e-05,-2e-05,4e-05,-1e-05,1
813,852,-2.9999999999999997e-05,-2.9999999999999997e-05,1e-05,4e-05,2e-05,-2e-05,4e-05,-1e-05,1
814,853,-2.9999999999999997e-05,-2.9999999999999997e-05,1e-05,4e-05,2e-05,-2e-05,4e-05,-1e-05,1
815,854,-2.9999999999999997e-05,-2.9999999999999997e-05,1e-05,4e-05,2e-05,-2e-05,4e-05,-1e-05,1
816,855,-2.9999999999999997e-05,-2.9999999999999997e-05,1e-05,4e-05,2e-05,-2e-05,4e-05,-1e-05,1
817,856,-2.9999999999999997e-05,-2.9999999999999997e-05,1e-05,4e-05,2e-05,-2e-05,4e-05,-1e-05,1
818,857,-2.9999999999999997e-05,-2.9999999999999997e-05,1e-05,4e-05,2e-05,-2e-05,4e-05,-1e-05,1
819,858,-2.9999999999999997e-05,-2.9999999999999997e-05,1e-05,4e-05,2e-05,-2e-05,4e-05,-1e-05,1
820,859,-2.9999999999999997e-05,-2.9999999999999997e-05,1e-05,4e-05,2e-05,-2e-05,4e-05,-1e-05,1
821,860,-2.9999999999999997e-05,-2.9999999999999997e-05,1e-05,4e-05,2e-05,-2e-05,4e-05,-1e-05,1
822,861,-2.9999999999999997e-05,-2.9999999999999997e-05,1e-05,4e-05,2e-05,-2e-05,4e-05,-1e-05,1
823,862,-2.9999999999999997e-05,-2.9999999999999997e-05,1e-05,4e-05,2e-05,-2e-05,4e-05,-1e-05,1
824,863,-2.9999999999999997e-05,-2.9999999999999997e-05,1e-05,4e-05,2e-05,-2e-05,4e-05,-1e-05,1
825,864,-2.9999999999999997e-05,-2.9999999999999997e-05,1e-05,4e-05,2e-05,-2e-05,4e-05,-1e-05,1
826,865,-2.9999999999999997e-05,-2.9999999999999997e-05,1e-05,4e-05,2e-05,-2e-05,4e-05,-1e-05,1
827,866,4e-05,0.0,-1e-05,-9e-05,-8e-05,-1e-05,-1e-05,-2.9999999999999997e-05,1
828,867,-1e-05,2e-05,-1e-05,-2.9999999999999997e-05,0.0,0.0,0.0,-1e-05,1
829,868,-5e-05,5.9999999999999995e-05,2e-05,1e-05,5.9999999999999995e-05,2.9999999999999997e-05,-4e-05,-2e-05,1
830,869,-5e-05,5.9999999999999995e-05,2e-05,1e-05,5.9999999999999995e-05,2.9999999999999997e-05,-4e-05,-2e-05,1
831,870,-5e-05,5.9999999999999995e-05,2e-05,1e-05,5.9999999999999995e-05,2.9999999999999997e-05,-4e-05,-2e-05,1
832,871,-5e-05,5.9999999999999995e-05,2e-05,1e-05,5.9999999999999995e-05,2.9999999999999997e-05,-4e-05,-2e-05,1
833,872,-5e-05,5.9999999999999995e-05,2e-05,1e-05,5.9999999999999995e-05,2.9999999999999997e-05,-4e-05,-2e-05,1
834,873,-5e-05,5.9999999999999995e-05,2e-05,1e-05,5.9999999999999995e-05,2.9999999999999997e-05,-4e-05,-2e-05,1
835,874,-5e-05,5.9999999999999995e-05,2e-05,1e-05,5.9999999999999995e-05,2.9999999999999997e-05,-4e-05,-2e-05,1
836,875,-5e-05,5.9999999999999995e-05,2e-05,1e-05,5.9999999999999995e-05,2.9999999999999997e-05,-4e-05,-2e-05,1
837,876,-5e-05,5.9999999999999995e-05,2e-05,1e-05,5.9999999999999995e-05,2.9999999999999997e-05,-4e-05,-2e-05,1
838,877,-5e-05,5.9999999999999995e-05,2e-05,1e-05,5.9999999999999995e-05,2.9999999999999997e-05,-4e-05,-2e-05,1
839,878,-5e-05,5.9999999999999995e-05,2e-05,1e-05,5.9999999999999995e-05,2.9999999999999997e-05,-4e-05,-2e-05,1
840,879,1e-05,-1e-05,-5e-05,-2e-05,-1e-05,-2.9999999999999997e-05,1e-05,-5.9999999999999995e-05,1
841,880,1e-05,-1e-05,-5e-05,-2e-05,-1e-05,-2.9999999999999997e-05,1e-05,-5.9999999999999995e-05,1
842,881,1e-05,-1e-05,-5e-05,-2e-05,-1e-05,-2.9999999999999997e-05,1e-05,-5.9999999999999995e-05,1
843,882,1e-05,-1e-05,-5e-05,-2e-05,-1e-05,-2.9999999999999997e-05,1e-05,-5.9999999999999995e-05,1
844,883,1e-05,-1e-05,-5e-05,-2e-05,-1e-05,-2.9999999999999997e-05,1e-05,-5.9999999999999995e-05,1
845,884,1e-05,-1e-05,-5e-05,-2e-05,-1e-05,-2.9999999999999997e-05,1e-05,-5.9999999999999995e-05,1
846,885,1e-05,-1e-05,-5e-05,-2e-05,-1e-05,-2.9999999999999997e-05,1e-05,-5.9999999999999995e-05,1
847,886,1e-05,-1e-05,-5e-05,-2e-05,-1e-05,-2.9999999999999997e-05,1e-05,-5.9999999999999995e-05,1
848,889,1e-05,-5.9999999999999995e-05,-2.9999999999999997e-05,2e-05,-2.9999999999999997e-05,2e-05,-1e-05,1e-05,1
849,890,1e-05,-5.9999999999999995e-05,-2.9999999999999997e-05,2e-05,-2.9999999999999997e-05,2e-05,-1e-05,1e-05,1
850,891,1e-05,-5.9999999999999995e-05,-2.9999999999999997e-05,2e-05,-2.9999999999999997e-05,2e-05,-1e-05,1e-05,1
851,892,1e-05,-5.9999999999999995e-05,-2.9999999999999997e-05,2e-05,-2.9999999999999997e-05,2e-05,-1e-05,1e-05,1
852,893,1e-05,-5.9999999999999995e-05,-2.9999999999999997e-05,2e-05,-2.9999999999999997e-05,2e-05,-1e-05,1e-05,1
853,894,1e-05,-5.9999999999999995e-05,-2.9999999999999997e-05,2e-05,-2.9999999999999997e-05,2e-05,-1e-05,1e-05,1
854,895,1e-05,-5.9999999999999995e-05,-2.9999999999999997e-05,2e-05,-2.9999999999999997e-05,2e-05,-1e-05,1e-05,1
855,896,1e-05,-5.9999999999999995e-05,-2.9999999999999997e-05,2e-05,-2.9999999999999997e-05,2e-05,-1e-05,1e-05,1
856,897,1e-05,-5.9999999999999995e-05,-2.9999999999999997e-05,2e-05,-2.9999999999999997e-05,2e-05,-1e-05,1e-05,1
857,898,1e-05,-5.9999999999999995e-05,-2.9999999999999997e-05,2e-05,-2.9999999999999997e-05,2e-05,-1e-05,1e-05,1
858,899,1e-05,-5.9999999999999995e-05,-2.9999999999999997e-05,2e-05,-2.9999999999999997e-05,2e-05,-1e-05,1e-05,1
859,900,1e-05,-5.9999999999999995e-05,-2.9999999999999997e-05,2e-05,-2.9999999999999997e-05,2e-05,-1e-05,1e-05,1
860,901,1e-05,-5.9999999999999995e-05,-2.9999999999999997e-05,2e-05,-2.9999999999999997e-05,2e-05,-1e-05,1e-05,1
861,902,1e-05,-5.9999999999999995e-05,-2.9999999999999997e-05,2e-05,-2.9999999999999997e-05,2e-05,-1e-05,1e-05,1
862,903,1e-05,-2.9999999999999997e-05,-2.9999999999999997e-05,1e-05,1e-05,-2e-05,-1e-05,2.9999999999999997e-05,1
863,904,-1e-05,-2e-05,0.0,0.0,0.0,0.0,-4e-05,1e-05,1
864,905,-2e-05,1e-05,2e-05,1e-05,-1e-05,-5e-05,-2e-05,-5e-05,1
865,906,-2e-05,1e-05,2e-05,1e-05,-1e-05,-5e-05,-2e-05,-5e-05,1
866,907,-2e-05,1e-05,2e-05,1e-05,-1e-05,-5e-05,-2e-05,-5e-05,1
867,908,-2e-05,1e-05,2e-05,1e-05,-1e-05,-5e-05,-2e-05,-5e-05,1
868,909,-2e-05,1e-05,2e-05,1e-05,-1e-05,-5e-05,-2e-05,-5e-05,1
869,910,-2e-05,1e-05,2e-05,1e-05,-1e-05,-5e-05,-2e-05,-5e-05,1
870,911,-2e-05,1e-05,2e-05,1e-05,-1e-05,-5e-05,-2e-05,-5e-05,1
871,912,-2e-05,1e-05,2e-05,1e-05,-1e-05,-5e-05,-2e-05,-5e-05,1
872,913,-2e-05,1e-05,2e-05,1e-05,-1e-05,-5e-05,-2e-05,-5e-05,1
873,914,-2e-05,1e-05,2e-05,1e-05,-1e-05,-5e-05,-2e-05,-5e-05,1
874,915,-2e-05,1e-05,2e-05,1e-05,-1e-05,-5e-05,-2e-05,-5e-05,1
875,916,-2e-05,1e-05,2e-05,1e-05,-1e-05,-5e-05,-2e-05,-5e-05,1
876,917,-2e-05,1e-05,2e-05,1e-05,-1e-05,-5e-05,-2e-05,-5e-05,1
877,918,-2e-05,1e-05,2e-05,1e-05,-1e-05,-5e-05,-2e-05,-5e-05,1
878,919,-2e-05,1e-05,2e-05,1e-05,-1e-05,-5e-05,-2e-05,-5e-05,1
879,920,-2e-05,1e-05,2e-05,1e-05,-1e-05,-5e-05,-2e-05,-5e-05,1
880,921,-2e-05,1e-05,2e-05,1e-05,-1e-05,-5e-05,-2e-05,-5e-05,1
881,922,-2e-05,1e-05,2e-05,1e-05,-1e-05,-5e-05,-2e-05,-5e-05,1
882,923,-2e-05,1e-05,2e-05,1e-05,-1e-05,-5e-05,-2e-05,-5e-05,1
883,924,-2e-05,1e-05,2e-05,1e-05,-1e-05,-5e-05,-2e-05,-5e-05,1
884,925,-2e-05,1e-05,2e-05,1e-05,-1e-05,-5e-05,-2e-05,-5e-05,1
885,926,-8e-05,0.0,1e-05,1e-05,-2.9999999999999997e-05,4e-05,2e-05,-2.9999999999999997e-05,1
886,927,1e-05,-2e-05,-2e-05,-5.9999999999999995e-05,-2.9999999999999997e-05,0.0,-1e-05,-4e-05,1
887,928,1e-05,-2e-05,-2e-05,-5.9999999999999995e-05,-2.9999999999999997e-05,0.0,-1e-05,-4e-05,1
888,929,1e-05,-2e-05,-2e-05,-5.9999999999999995e-05,-2.9999999999999997e-05,0.0,-1e-05,-4e-05,1
889,930,1e-05,-2e-05,-2e-05,-5.9999999999999995e-05,-2.9999999999999997e-05,0.0,-1e-05,-4e-05,1
890,931,1e-05,-2e-05,-2e-05,-5.9999999999999995e-05,-2.9999999999999997e-05,0.0,-1e-05,-4e-05,1
891,932,1e-05,-2e-05,-2e-05,-5.9999999999999995e-05,-2.9999999999999997e-05,0.0,-1e-05,-4e-05,1
892,933,1e-05,-2e-05,-2e-05,-5.9999999999999995e-05,-2.9999999999999997e-05,0.0,-1e-05,-4e-05,1
893,934,1e-05,-2e-05,-2e-05,-5.9999999999999995e-05,-2.9999999999999997e-05,0.0,-1e-05,-4e-05,1
894,935,1e-05,-2e-05,-2e-05,-5.9999999999999995e-05,-2.9999999999999997e-05,0.0,-1e-05,-4e-05,1
895,936,1e-05,-2e-05,-2e-05,-5.9999999999999995e-05,-2.9999999999999997e-05,0.0,-1e-05,-4e-05,1
896,938,1e-05,-2e-05,-2e-05,-5.9999999999999995e-05,-2.9999999999999997e-05,0.0,-1e-05,-4e-05,1
897,939,8e-05,2e-05,4e-05,2e-05,4e-05,-2.9999999999999997e-05,-2e-05,2.9999999999999997e-05,1
898,940,8e-05,2e-05,4e-05,2e-05,4e-05,-2.9999999999999997e-05,-2e-05,2.9999999999999997e-05,1
899,941,8e-05,2e-05,4e-05,2e-05,4e-05,-2.9999999999999997e-05,-2e-05,2.9999999999999997e-05,1
900,942,8e-05,2e-05,4e-05,2e-05,4e-05,-2.9999999999999997e-05,-2e-05,2.9999999999999997e-05,1
901,943,8e-05,2e-05,4e-05,2e-05,4e-05,-2.9999999999999997e-05,-2e-05,2.9999999999999997e-05,1
902,944,8e-05,2e-05,4e-05,2e-05,4e-05,-2.9999999999999997e-05,-2e-05,2.9999999999999997e-05,1
903,945,8e-05,2e-05,4e-05,2e-05,4e-05,-2.9999999999999997e-05,-2e-05,2.9999999999999997e-05,1
904,946,8e-05,2e-05,4e-05,2e-05,4e-05,-2.9999999999999997e-05,-2e-05,2.9999999999999997e-05,1
905,947,8e-05,2e-05,4e-05,2e-05,4e-05,-2.9999999999999997e-05,-2e-05,2.9999999999999997e-05,1
906,948,-1e-05,-1e-05,2e-05,1e-05,0.0,1e-05,-2e-05,0.0,1
907,949,-1e-05,-1e-05,2e-05,1e-05,0.0,1e-05,-2e-05,0.0,1
908,950,-1e-05,-1e-05,2e-05,1e-05,0.0,1e-05,-2e-05,0.0,1
909,951,-1e-05,-1e-05,2e-05,1e-05,0.0,1e-05,-2e-05,0.0,1
910,952,-1e-05,-1e-05,2e-05,1e-05,0.0,1e-05,-2e-05,0.0,1
911,953,-1e-05,-1e-05,2e-05,1e-05,0.0,1e-05,-2e-05,0.0,1
912,954,-1e-05,-1e-05,2e-05,1e-05,0.0,1e-05,-2e-05,0.0,1
913,955,-1e-05,-1e-05,2e-05,1e-05,0.0,1e-05,-2e-05,0.0,1
914,956,-1e-05,-1e-05,2e-05,1e-05,0.0,1e-05,-2e-05,0.0,1
915,957,-1e-05,-1e-05,2e-05,1e-05,0.0,1e-05,-2e-05,0.0,1
916,958,-1e-05,-1e-05,2e-05,1e-05,0.0,1e-05,-2e-05,0.0,1
917,959,-1e-05,-1e-05,2e-05,1e-05,0.0,1e-05,-2e-05,0.0,1
918,960,-1e-05,-1e-05,2e-05,1e-05,0.0,1e-05,-2e-05,0.0,1
919,961,-1e-05,-1e-05,2e-05,1e-05,0.0,1e-05,-2e-05,0.0,1
920,962,-1e-05,-1e-05,2e-05,1e-05,0.0,1e-05,-2e-05,0.0,1
921,963,-7e-05,-2e-05,-5e-05,2e-05,2e-05,2.9999999999999997e-05,0.0,1e-05,1
922,964,-7e-05,-2e-05,-5e-05,2e-05,2e-05,2.9999999999999997e-05,0.0,1e-05,1
923,965,-2e-05,1e-05,1e-05,-2.9999999999999997e-05,-2.9999999999999997e-05,1e-05,2e-05,-4e-05,1
924,966,-2e-05,1e-05,1e-05,-2.9999999999999997e-05,-2.9999999999999997e-05,1e-05,2e-05,-4e-05,1
925,967,-2e-05,1e-05,1e-05,-2.9999999999999997e-05,-2.9999999999999997e-05,1e-05,2e-05,-4e-05,1
926,968,-2e-05,1e-05,1e-05,-2.9999999999999997e-05,-2.9999999999999997e-05,1e-05,2e-05,-4e-05,1
927,969,-2e-05,1e-05,1e-05,-2.9999999999999997e-05,-2.9999999999999997e-05,1e-05,2e-05,-4e-05,1
928,970,-2e-05,1e-05,1e-05,-2.9999999999999997e-05,-2.9999999999999997e-05,1e-05,2e-05,-4e-05,1
929,971,-2e-05,1e-05,1e-05,-2.9999999999999997e-05,-2.9999999999999997e-05,1e-05,2e-05,-4e-05,1
930,972,-2e-05,1e-05,1e-05,-2.9999999999999997e-05,-2.9999999999999997e-05,1e-05,2e-05,-4e-05,1
931,973,-2e-05,1e-05,1e-05,-2.9999999999999997e-05,-2.9999999999999997e-05,1e-05,2e-05,-4e-05,1
932,974,-2e-05,1e-05,1e-05,-2.9999999999999997e-05,-2.9999999999999997e-05,1e-05,2e-05,-4e-05,1
933,975,-2e-05,1e-05,1e-05,-2.9999999999999997e-05,-2.9999999999999997e-05,1e-05,2e-05,-4e-05,1
934,976,-2e-05,1e-05,1e-05,-2.9999999999999997e-05,-2.9999999999999997e-05,1e-05,2e-05,-4e-05,1
935,977,-2e-05,1e-05,1e-05,-2.9999999999999997e-05,-2.9999999999999997e-05,1e-05,2e-05,-4e-05,1
936,978,-2e-05,1e-05,1e-05,-2.9999999999999997e-05,-2.9999999999999997e-05,1e-05,2e-05,-4e-05,1
937,979,-2e-05,1e-05,1e-05,-2.9999999999999997e-05,-2.9999999999999997e-05,1e-05,2e-05,-4e-05,1
938,980,-2e-05,1e-05,1e-05,-2.9999999999999997e-05,-2.9999999999999997e-05,1e-05,2e-05,-4e-05,1
939,981,-2e-05,1e-05,1e-05,-2.9999999999999997e-05,-2.9999999999999997e-05,1e-05,2e-05,-4e-05,1
940,982,-2e-05,1e-05,1e-05,-2.9999999999999997e-05,-2.9999999999999997e-05,1e-05,2e-05,-4e-05,1
941,983,-2e-05,1e-05,1e-05,-2.9999999999999997e-05,-2.9999999999999997e-05,1e-05,2e-05,-4e-05,1
942,984,-2e-05,1e-05,1e-05,-2.9999999999999997e-05,-2.9999999999999997e-05,1e-05,2e-05,-4e-05,1
943,985,-2e-05,1e-05,1e-05,-2.9999999999999997e-05,-2.9999999999999997e-05,1e-05,2e-05,-4e-05,1
944,986,-5e-05,-2e-05,5e-05,-1e-05,-5e-05,1e-05,-2e-05,-2e-05,1
945,988,0.0,-2.9999999999999997e-05,-2e-05,0.0,-2e-05,-4e-05,-4e-05,2e-05,1
946,990,0.0,-2.9999999999999997e-05,-2e-05,0.0,-2e-05,-4e-05,-4e-05,2e-05,1
947,991,0.0,-2.9999999999999997e-05,-2e-05,0.0,-2e-05,-4e-05,-4e-05,2e-05,1
948,992,0.0,-2.9999999999999997e-05,-2e-05,0.0,-2e-05,-4e-05,-4e-05,2e-05,1
949,993,0.0,-2.9999999999999997e-05,-2e-05,0.0,-2e-05,-4e-05,-4e-05,2e-05,1
950,994,0.0,-2.9999999999999997e-05,-2e-05,0.0,-2e-05,-4e-05,-4e-05,2e-05,1
951,995,0.0,-2.9999999999999997e-05,-2e-05,0.0,-2e-05,-4e-05,-4e-05,2e-05,1
952,996,0.0,-2.9999999999999997e-05,-2e-05,0.0,-2e-05,-4e-05,-4e-05,2e-05,1
953,997,0.0,-2.9999999999999997e-05,-2e-05,0.0,-2e-05,-4e-05,-4e-05,2e-05,1
954,998,0.0,-2.9999999999999997e-05,-2e-05,0.0,-2e-05,-4e-05,-4e-05,2e-05,1
955,999,-2e-05,-2e-05,0.0,2e-05,4e-05,-5e-05,-1e-05,2.9999999999999997e-05,1
956,1000,-2e-05,-2e-05,0.0,2e-05,4e-05,-5e-05,-1e-05,2.9999999999999997e-05,1
957,1001,-2e-05,-2e-05,0.0,2e-05,4e-05,-5e-05,-1e-05,2.9999999999999997e-05,1
958,1002,-2e-05,-2e-05,0.0,2e-05,4e-05,-5e-05,-1e-05,2.9999999999999997e-05,1
959,1003,-2e-05,-2e-05,0.0,2e-05,4e-05,-5e-05,-1e-05,2.9999999999999997e-05,1
960,1004,-2e-05,-2e-05,0.0,2e-05,4e-05,-5e-05,-1e-05,2.9999999999999997e-05,1
961,1006,-2e-05,-2e-05,0.0,2e-05,4e-05,-5e-05,-1e-05,2.9999999999999997e-05,1
962,1007,-2e-05,-2e-05,0.0,2e-05,4e-05,-5e-05,-1e-05,2.9999999999999997e-05,1
963,1011,-2e-05,-2e-05,0.0,2e-05,4e-05,-5e-05,-1e-05,2.9999999999999997e-05,1
964,1018,-2e-05,-2e-05,0.0,2e-05,4e-05,-5e-05,-1e-05,2.9999999999999997e-05,1
965,1020,-2e-05,-2e-05,0.0,2e-05,4e-05,-5e-05,-1e-05,2.9999999999999997e-05,1
966,1024,-2e-05,-2e-05,0.0,2e-05,4e-05,-5e-05,-1e-05,2.9999999999999997e-05,1
967,1026,-2e-05,-2e-05,0.0,2e-05,4e-05,-5e-05,-1e-05,2.9999999999999997e-05,1
968,1027,-2e-05,-2e-05,0.0,2e-05,4e-05,-5e-05,-1e-05,2.9999999999999997e-05,1
969,1028,2e-05,1e-05,-1e-05,2e-05,4e-05,2e-05,-2e-05,-5e-05,1
970,1029,-4e-05,0.0,-4e-05,0.0,-4e-05,2e-05,2e-05,-2e-05,1
971,1030,-4e-05,0.0,-4e-05,0.0,-4e-05,2e-05,2e-05,-2e-05,1
972,1031,-4e-05,0.0,-4e-05,0.0,-4e-05,2e-05,2e-05,-2e-05,1
973,1032,-4e-05,0.0,-4e-05,0.0,-4e-05,2e-05,2e-05,-2e-05,1
974,1033,-4e-05,0.0,-4e-05,0.0,-4e-05,2e-05,2e-05,-2e-05,1
975,1034,-4e-05,0.0,-4e-05,0.0,-4e-05,2e-05,2e-05,-2e-05,1
976,1035,-4e-05,0.0,-4e-05,0.0,-4e-05,2e-05,2e-05,-2e-05,1
977,1036,-4e-05,0.0,-4e-05,0.0,-4e-05,2e-05,2e-05,-2e-05,1
978,1039,-4e-05,0.0,-4e-05,0.0,-4e-05,2e-05,2e-05,-2e-05,1
979,1040,-4e-05,0.0,-4e-05,0.0,-4e-05,2e-05,2e-05,-2e-05,1
980,1041,-4e-05,0.0,-4e-05,0.0,-4e-05,2e-05,2e-05,-2e-05,1
981,1042,-4e-05,0.0,-4e-05,0.0,-4e-05,2e-05,2e-05,-2e-05,1
982,1043,-4e-05,0.0,-4e-05,0.0,-4e-05,2e-05,2e-05,-2e-05,1
983,1044,-4e-05,0.0,-4e-05,0.0,-4e-05,2e-05,2e-05,-2e-05,1
984,1045,-4e-05,0.0,-4e-05,0.0,-4e-05,2e-05,2e-05,-2e-05,1
985,1046,-1e-05,0.0,-4e-05,-9e-05,2.9999999999999997e-05,0.0,0.0,-1e-05,1
986,1047,-2e-05,-1e-05,0.0,2e-05,1e-05,-2.9999999999999997e-05,-2e-05,-2.9999999999999997e-05,1
987,1048,-2e-05,-1e-05,0.0,2e-05,1e-05,-2.9999999999999997e-05,-2e-05,-2.9999999999999997e-05,1
988,1049,-2e-05,-1e-05,0.0,2e-05,1e-05,-2.9999999999999997e-05,-2e-05,-2.9999999999999997e-05,1
989,1050,-2e-05,-1e-05,0.0,2e-05,1e-05,-2.9999999999999997e-05,-2e-05,-2.9999999999999997e-05,1
990,1051,-2e-05,-1e-05,0.0,2e-05,1e-05,-2.9999999999999997e-05,-2e-05,-2.9999999999999997e-05,1
991,1052,-2e-05,-1e-05,0.0,2e-05,1e-05,-2.9999999999999997e-05,-2e-05,-2.9999999999999997e-05,1
992,1053,-2e-05,-1e-05,0.0,2e-05,1e-05,-2.9999999999999997e-05,-2e-05,-2.9999999999999997e-05,1
993,1054,-2e-05,-1e-05,0.0,2e-05,1e-05,-2.9999999999999997e-05,-2e-05,-2.9999999999999997e-05,1
994,1055,-2e-05,-1e-05,0.0,2e-05,1e-05,-2.9999999999999997e-05,-2e-05,-2.9999999999999997e-05,1
995,1056,-2e-05,-1e-05,0.0,2e-05,1e-05,-2.9999999999999997e-05,-2e-05,-2.9999999999999997e-05,1
996,1057,-2e-05,-1e-05,0.0,2e-05,1e-05,-2.9999999999999997e-05,-2e-05,-2.9999999999999997e-05,1
997,1058,-2e-05,-1e-05,0.0,2e-05,1e-05,-2.9999999999999997e-05,-2e-05,-2.9999999999999997e-05,1
998,1059,-2e-05,-1e-05,0.0,2e-05,1e-05,-2.9999999999999997e-05,-2e-05,-2.9999999999999997e-05,1
999,1060,0.0,-2e-05,-2e-05,0.0,1e-05,0.0,2.9999999999999997e-05,-1e-05,1
1000,1061,0.0,-2e-05,-2e-05,0.0,1e-05,0.0,2.9999999999999997e-05,-1e-05,1
1001,1062,0.0,-2e-05,-2e-05,0.0,1e-05,0.0,2.9999999999999997e-05,-1e-05,1
1002,1063,0.0,-2e-05,-2e-05,0.0,1e-05,0.0,2.9999999999999997e-05,-1e-05,1
1003,1064,0.0,-2e-05,-2e-05,0.0,1e-05,0.0,2.9999999999999997e-05,-1e-05,1
1004,1065,0.0,-2e-05,-2e-05,0.0,1e-05,0.0,2.9999999999999997e-05,-1e-05,1
1005,1066,0.0,-2e-05,-2e-05,0.0,1e-05,0.0,2.9999999999999997e-05,-1e-05,1
1006,1067,0.0,-2e-05,-2e-05,0.0,1e-05,0.0,2.9999999999999997e-05,-1e-05,1
1007,1068,2e-05,2e-05,1e-05,-1e-05,-5.9999999999999995e-05,-4e-05,2e-05,0.0,1
1008,1069,2e-05,2e-05,1e-05,-1e-05,-5.9999999999999995e-05,-4e-05,2e-05,0.0,1
1009,1070,2e-05,2e-05,1e-05,-1e-05,-5.9999999999999995e-05,-4e-05,2e-05,0.0,1
1010,1071,2e-05,2e-05,1e-05,-1e-05,-5.9999999999999995e-05,-4e-05,2e-05,0.0,1
1011,1072,2e-05,2e-05,1e-05,-1e-05,-5.9999999999999995e-05,-4e-05,2e-05,0.0,1
1012,1073,2e-05,2e-05,1e-05,-1e-05,-5.9999999999999995e-05,-4e-05,2e-05,0.0,1
1013,1074,2e-05,2e-05,1e-05,-1e-05,-5.9999999999999995e-05,-4e-05,2e-05,0.0,1
1014,1075,2e-05,2e-05,1e-05,-1e-05,-5.9999999999999995e-05,-4e-05,2e-05,0.0,1
1015,1076,2e-05,2e-05,1e-05,-1e-05,-5.9999999999999995e-05,-4e-05,2e-05,0.0,1
1016,1077,2e-05,2e-05,1e-05,-1e-05,-5.9999999999999995e-05,-4e-05,2e-05,0.0,1
1017,1078,2e-05,2e-05,1e-05,-1e-05,-5.9999999999999995e-05,-4e-05,2e-05,0.0,1
1018,1079,2e-05,2e-05,1e-05,-1e-05,-5.9999999999999995e-05,-4e-05,2e-05,0.0,1
1019,1080,2e-05,2e-05,1e-05,-1e-05,-5.9999999999999995e-05,-4e-05,2e-05,0.0,1
1020,1081,2e-05,2e-05,1e-05,-1e-05,-5.9999999999999995e-05,-4e-05,2e-05,0.0,1
1021,1082,2e-05,2e-05,1e-05,-1e-05,-5.9999999999999995e-05,-4e-05,2e-05,0.0,1
1022,1083,2e-05,2e-05,1e-05,-1e-05,-5.9999999999999995e-05,-4e-05,2e-05,0.0,1
1023,1084,2e-05,2e-05,1e-05,-1e-05,-5.9999999999999995e-05,-4e-05,2e-05,0.0,1
1024,1085,2e-05,2e-05,1e-05,-1e-05,-5.9999999999999995e-05,-4e-05,2e-05,0.0,1
1025,1086,2e-05,2e-05,1e-05,-1e-05,-5.9999999999999995e-05,-4e-05,2e-05,0.0,1
1026,1089,2e-05,2e-05,1e-05,-1e-05,-5.9999999999999995e-05,-4e-05,2e-05,0.0,1
1027,1090,2e-05,2e-05,1e-05,-1e-05,-5.9999999999999995e-05,-4e-05,2e-05,0.0,1
1028,1091,1e-05,-5e-05,-2e-05,0.0,-1e-05,-2e-05,-1e-05,1e-05,1
1029,1092,-1e-05,-5.9999999999999995e-05,-2e-05,-2e-05,2e-05,1e-05,0.0,1e-05,1
1030,1093,-1e-05,-5.9999999999999995e-05,-2e-05,-2e-05,2e-05,1e-05,0.0,1e-05,1
1031,1094,-1e-05,-5.9999999999999995e-05,-2e-05,-2e-05,2e-05,1e-05,0.0,1e-05,1
1032,1095,-1e-05,-5.9999999999999995e-05,-2e-05,-2e-05,2e-05,1e-05,0.0,1e-05,1
1033,1096,-1e-05,-5.9999999999999995e-05,-2e-05,-2e-05,2e-05,1e-05,0.0,1e-05,1
1034,1097,-1e-05,-5.9999999999999995e-05,-2e-05,-2e-05,2e-05,1e-05,0.0,1e-05,1
1035,1098,-1e-05,-5.9999999999999995e-05,-2e-05,-2e-05,2e-05,1e-05,0.0,1e-05,1
1036,1099,-1e-05,-5.9999999999999995e-05,-2e-05,-2e-05,2e-05,1e-05,0.0,1e-05,1
1037,1100,-1e-05,-5.9999999999999995e-05,-2e-05,-2e-05,2e-05,1e-05,0.0,1e-05,1
1038,1101,-1e-05,-5.9999999999999995e-05,-2e-05,-2e-05,2e-05,1e-05,0.0,1e-05,1
1039,1102,-1e-05,-5.9999999999999995e-05,-2e-05,-2e-05,2e-05,1e-05,0.0,1e-05,1
1040,1103,-1e-05,-5.9999999999999995e-05,-2e-05,-2e-05,2e-05,1e-05,0.0,1e-05,1
1041,1104,-1e-05,-5.9999999999999995e-05,-2e-05,-2e-05,2e-05,1e-05,0.0,1e-05,1
1042,1105,-1e-05,-5.9999999999999995e-05,-2e-05,-2e-05,2e-05,1e-05,0.0,1e-05,1
1043,1106,-2e-05,4e-05,0.0,2e-05,0.0,2e-05,0.0,-2e-05,1
1044,1107,-2.9999999999999997e-05,4e-05,4e-05,0.0,-4e-05,-2.9999999999999997e-05,-2.9999999999999997e-05,-1e-05,1
1045,1108,-2.9999999999999997e-05,4e-05,4e-05,0.0,-4e-05,-2.9999999999999997e-05,-2.9999999999999997e-05,-1e-05,1
1046,1109,-2.9999999999999997e-05,4e-05,4e-05,0.0,-4e-05,-2.9999999999999997e-05,-2.9999999999999997e-05,-1e-05,1
1047,1110,-2.9999999999999997e-05,4e-05,4e-05,0.0,-4e-05,-2.9999999999999997e-05,-2.9999999999999997e-05,-1e-05,1
1048,1111,-2.9999999999999997e-05,4e-05,4e-05,0.0,-4e-05,-2.9999999999999997e-05,-2.9999999999999997e-05,-1e-05,1
1049,1112,-2.9999999999999997e-05,4e-05,4e-05,0.0,-4e-05,-2.9999999999999997e-05,-2.9999999999999997e-05,-1e-05,1
1050,1113,-2.9999999999999997e-05,4e-05,4e-05,0.0,-4e-05,-2.9999999999999997e-05,-2.9999999999999997e-05,-1e-05,1
1051,1114,-2.9999999999999997e-05,4e-05,4e-05,0.0,-4e-05,-2.9999999999999997e-05,-2.9999999999999997e-05,-1e-05,1
1052,1115,-2.9999999999999997e-05,4e-05,4e-05,0.0,-4e-05,-2.9999999999999997e-05,-2.9999999999999997e-05,-1e-05,1
1053,1116,-2.9999999999999997e-05,4e-05,4e-05,0.0,-4e-05,-2.9999999999999997e-05,-2.9999999999999997e-05,-1e-05,1
1054,1117,-2.9999999999999997e-05,4e-05,4e-05,0.0,-4e-05,-2.9999999999999997e-05,-2.9999999999999997e-05,-1e-05,1
1055,1118,-2.9999999999999997e-05,4e-05,4e-05,0.0,-4e-05,-2.9999999999999997e-05,-2.9999999999999997e-05,-1e-05,1
1056,1119,-2.9999999999999997e-05,4e-05,4e-05,0.0,-4e-05,-2.9999999999999997e-05,-2.9999999999999997e-05,-1e-05,1
1057,1120,-1e-05,-4e-05,-2e-05,-2e-05,1e-05,-1e-05,1e-05,-2.9999999999999997e-05,1
1058,1121,-1e-05,-4e-05,-2e-05,-2e-05,1e-05,-1e-05,1e-05,-2.9999999999999997e-05,1
1059,1122,-1e-05,-4e-05,-2e-05,-2e-05,1e-05,-1e-05,1e-05,-2.9999999999999997e-05,1
1060,1123,-1e-05,-4e-05,-2e-05,-2e-05,1e-05,-1e-05,1e-05,-2.9999999999999997e-05,1
1061,1124,-1e-05,-4e-05,-2e-05,-2e-05,1e-05,-1e-05,1e-05,-2.9999999999999997e-05,1
1062,1125,-1e-05,-4e-05,-2e-05,-2e-05,1e-05,-1e-05,1e-05,-2.9999999999999997e-05,1
1063,1126,-1e-05,-4e-05,-2e-05,-2e-05,1e-05,-1e-05,1e-05,-2.9999999999999997e-05,1
1064,1127,-1e-05,-4e-05,-2e-05,-2e-05,1e-05,-1e-05,1e-05,-2.9999999999999997e-05,1
1065,1128,2e-05,-4e-05,-8e-05,-0.00011,2e-05,2e-05,2e-05,2e-05,1
1066,1130,2e-05,-4e-05,-8e-05,-0.00011,2e-05,2e-05,2e-05,2e-05,1
1067,1131,2e-05,-4e-05,-8e-05,-0.00011,2e-05,2e-05,2e-05,2e-05,1
1068,1132,2e-05,-4e-05,-8e-05,-0.00011,2e-05,2e-05,2e-05,2e-05,1
1069,1135,2e-05,-4e-05,-8e-05,-0.00011,2e-05,2e-05,2e-05,2e-05,1
1070,1136,2e-05,-4e-05,-8e-05,-0.00011,2e-05,2e-05,2e-05,2e-05,1
1071,1138,2e-05,-4e-05,-8e-05,-0.00011,2e-05,2e-05,2e-05,2e-05,1
1072,1139,2e-05,-4e-05,-8e-05,-0.00011,2e-05,2e-05,2e-05,2e-05,1
1073,1140,2e-05,-4e-05,-8e-05,-0.00011,2e-05,2e-05,2e-05,2e-05,1
1074,1141,2e-05,-4e-05,-8e-05,-0.00011,2e-05,2e-05,2e-05,2e-05,1
1075,1142,2e-05,-4e-05,-8e-05,-0.00011,2e-05,2e-05,2e-05,2e-05,1
1076,1143,-2.9999999999999997e-05,-2e-05,-4e-05,-1e-05,-2.9999999999999997e-05,-5.9999999999999995e-05,0.0,-1e-05,1
1077,1144,-2.9999999999999997e-05,-2e-05,-4e-05,-1e-05,-2.9999999999999997e-05,-5.9999999999999995e-05,0.0,-1e-05,1
1078,1145,-2e-05,-2e-05,-1e-05,-2.9999999999999997e-05,-4e-05,0.0,-2.9999999999999997e-05,-4e-05,1
1079,1146,-2e-05,-2e-05,-1e-05,-2.9999999999999997e-05,-4e-05,0.0,-2.9999999999999997e-05,-4e-05,1
1080,1147,-2e-05,-2e-05,-1e-05,-2.9999999999999997e-05,-4e-05,0.0,-2.9999999999999997e-05,-4e-05,1
1081,1148,-2e-05,-2e-05,-1e-05,-2.9999999999999997e-05,-4e-05,0.0,-2.9999999999999997e-05,-4e-05,1
1082,1149,-2e-05,-2e-05,-1e-05,-2.9999999999999997e-05,-4e-05,0.0,-2.9999999999999997e-05,-4e-05,1
1083,1150,-2e-05,-2e-05,-1e-05,-2.9999999999999997e-05,-4e-05,0.0,-2.9999999999999997e-05,-4e-05,1
1084,1151,-2e-05,-2e-05,-1e-05,-2.9999999999999997e-05,-4e-05,0.0,-2.9999999999999997e-05,-4e-05,1
1085,1152,-2e-05,-2e-05,-1e-05,-2.9999999999999997e-05,-4e-05,0.0,-2.9999999999999997e-05,-4e-05,1
1086,1153,-2e-05,-2e-05,-1e-05,-2.9999999999999997e-05,-4e-05,0.0,-2.9999999999999997e-05,-4e-05,1
1087,1154,-2e-05,-2e-05,-1e-05,-2.9999999999999997e-05,-4e-05,0.0,-2.9999999999999997e-05,-4e-05,1
1088,1155,-2e-05,-2e-05,-1e-05,-2.9999999999999997e-05,-4e-05,0.0,-2.9999999999999997e-05,-4e-05,1
1089,1156,-2e-05,-2e-05,-1e-05,-2.9999999999999997e-05,-4e-05,0.0,-2.9999999999999997e-05,-4e-05,1
1090,1157,-2e-05,-2e-05,-1e-05,-2.9999999999999997e-05,-4e-05,0.0,-2.9999999999999997e-05,-4e-05,1
1091,1158,-2e-05,-2e-05,-1e-05,-2.9999999999999997e-05,-4e-05,0.0,-2.9999999999999997e-05,-4e-05,1
1092,1159,-2e-05,-2e-05,-1e-05,-2.9999999999999997e-05,-4e-05,0.0,-2.9999999999999997e-05,-4e-05,1
1093,1160,-2e-05,-2e-05,-1e-05,-2.9999999999999997e-05,-4e-05,0.0,-2.9999999999999997e-05,-4e-05,1
1094,1161,-2e-05,-2e-05,-1e-05,-2.9999999999999997e-05,-4e-05,0.0,-2.9999999999999997e-05,-4e-05,1
1095,1162,-2e-05,-2e-05,-1e-05,-2.9999999999999997e-05,-4e-05,0.0,-2.9999999999999997e-05,-4e-05,1
1096,1163,-2e-05,-2e-05,-1e-05,-2.9999999999999997e-05,-4e-05,0.0,-2.9999999999999997e-05,-4e-05,1
1097,1164,-2e-05,-2e-05,-1e-05,-2.9999999999999997e-05,-4e-05,0.0,-2.9999999999999997e-05,-4e-05,1
1098,1165,-2e-05,-2e-05,-1e-05,-2.9999999999999997e-05,-4e-05,0.0,-2.9999999999999997e-05,-4e-05,1
1099,1166,0.0,2.9999999999999997e-05,5.9999999999999995e-05,-1e-05,-2.9999999999999997e-05,2e-05,-2e-05,-1e-05,1
1100,1167,1e-05,2e-05,2.9999999999999997e-05,-1e-05,2.9999999999999997e-05,-4e-05,0.0,5.9999999999999995e-05,1
1101,1168,1e-05,2e-05,2.9999999999999997e-05,-1e-05,2.9999999999999997e-05,-4e-05,0.0,5.9999999999999995e-05,1
1102,1169,1e-05,2e-05,2.9999999999999997e-05,-1e-05,2.9999999999999997e-05,-4e-05,0.0,5.9999999999999995e-05,1
1103,1170,1e-05,2e-05,2.9999999999999997e-05,-1e-05,2.9999999999999997e-05,-4e-05,0.0,5.9999999999999995e-05,1
1104,1171,1e-05,2e-05,2.9999999999999997e-05,-1e-05,2.9999999999999997e-05,-4e-05,0.0,5.9999999999999995e-05,1
1105,1172,1e-05,2e-05,2.9999999999999997e-05,-1e-05,2.9999999999999997e-05,-4e-05,0.0,5.9999999999999995e-05,1
1106,1173,1e-05,2e-05,2.9999999999999997e-05,-1e-05,2.9999999999999997e-05,-4e-05,0.0,5.9999999999999995e-05,1
1107,1174,1e-05,2e-05,2.9999999999999997e-05,-1e-05,2.9999999999999997e-05,-4e-05,0.0,5.9999999999999995e-05,1
1108,1175,1e-05,2e-05,2.9999999999999997e-05,-1e-05,2.9999999999999997e-05,-4e-05,0.0,5.9999999999999995e-05,1
1109,1176,1e-05,2e-05,2.9999999999999997e-05,-1e-05,2.9999999999999997e-05,-4e-05,0.0,5.9999999999999995e-05,1
1110,1177,1e-05,2e-05,2.9999999999999997e-05,-1e-05,2.9999999999999997e-05,-4e-05,0.0,5.9999999999999995e-05,1
1111,1178,1e-05,2e-05,2.9999999999999997e-05,-1e-05,2.9999999999999997e-05,-4e-05,0.0,5.9999999999999995e-05,1
1112,1179,-2.9999999999999997e-05,-5e-05,-2e-05,0.0,-2.9999999999999997e-05,-2.9999999999999997e-05,-5e-05,-2e-05,1
1113,1180,-2.9999999999999997e-05,-5e-05,-2e-05,0.0,-2.9999999999999997e-05,-2.9999999999999997e-05,-5e-05,-2e-05,1
1114,1181,-2.9999999999999997e-05,-5e-05,-2e-05,0.0,-2.9999999999999997e-05,-2.9999999999999997e-05,-5e-05,-2e-05,1
1115,1182,-2.9999999999999997e-05,-5e-05,-2e-05,0.0,-2.9999999999999997e-05,-2.9999999999999997e-05,-5e-05,-2e-05,1
1116,1183,-2.9999999999999997e-05,-5e-05,-2e-05,0.0,-2.9999999999999997e-05,-2.9999999999999997e-05,-5e-05,-2e-05,1
1117,1184,-2.9999999999999997e-05,-5e-05,-2e-05,0.0,-2.9999999999999997e-05,-2.9999999999999997e-05,-5e-05,-2e-05,1
1118,1185,-2.9999999999999997e-05,-5e-05,-2e-05,0.0,-2.9999999999999997e-05,-2.9999999999999997e-05,-5e-05,-2e-05,1
1119,1186,-2.9999999999999997e-05,-5e-05,-2e-05,0.0,-2.9999999999999997e-05,-2.9999999999999997e-05,-5e-05,-2e-05,1
1120,1188,0.0,-5e-05,2e-05,9e-05,4e-05,1e-05,-2e-05,-2.9999999999999997e-05,1
1121,1189,0.0,-5e-05,2e-05,9e-05,4e-05,1e-05,-2e-05,-2.9999999999999997e-05,1
1122,1190,0.0,-5e-05,2e-05,9e-05,4e-05,1e-05,-2e-05,-2.9999999999999997e-05,1
1123,1191,0.0,-5e-05,2e-05,9e-05,4e-05,1e-05,-2e-05,-2.9999999999999997e-05,1
1124,1192,0.0,-5e-05,2e-05,9e-05,4e-05,1e-05,-2e-05,-2.9999999999999997e-05,1
1125,1193,0.0,-5e-05,2e-05,9e-05,4e-05,1e-05,-2e-05,-2.9999999999999997e-05,1
1126,1194,0.0,-5e-05,2e-05,9e-05,4e-05,1e-05,-2e-05,-2.9999999999999997e-05,1
1127,1195,0.0,-5e-05,2e-05,9e-05,4e-05,1e-05,-2e-05,-2.9999999999999997e-05,1
1128,1196,0.0,-5e-05,2e-05,9e-05,4e-05,1e-05,-2e-05,-2.9999999999999997e-05,1
1129,1197,0.0,-5e-05,2e-05,9e-05,4e-05,1e-05,-2e-05,-2.9999999999999997e-05,1
1130,1198,0.0,-5e-05,2e-05,9e-05,4e-05,1e-05,-2e-05,-2.9999999999999997e-05,1
1131,1199,0.0,-5e-05,2e-05,9e-05,4e-05,1e-05,-2e-05,-2.9999999999999997e-05,1
1132,1200,0.0,-5e-05,2e-05,9e-05,4e-05,1e-05,-2e-05,-2.9999999999999997e-05,1
1133,1201,0.0,-5e-05,2e-05,9e-05,4e-05,1e-05,-2e-05,-2.9999999999999997e-05,1
1134,1202,0.0,-5e-05,2e-05,9e-05,4e-05,1e-05,-2e-05,-2.9999999999999997e-05,1
1135,1203,2e-05,1e-05,-8e-05,-2.9999999999999997e-05,-4e-05,-2e-05,-4e-05,2e-05,1
1136,1204,2e-05,1e-05,-8e-05,-2.9999999999999997e-05,-4e-05,-2e-05,-4e-05,2e-05,1
1137,1205,-1e-05,-2.9999999999999997e-05,-2.9999999999999997e-05,-1e-05,0.0,0.0,-1e-05,-1e-05,1
1138,1206,-1e-05,-2.9999999999999997e-05,-2.9999999999999997e-05,-1e-05,0.0,0.0,-1e-05,-1e-05,1
1139,1207,-1e-05,-2.9999999999999997e-05,-2.9999999999999997e-05,-1e-05,0.0,0.0,-1e-05,-1e-05,1
1140,1208,-1e-05,-2.9999999999999997e-05,-2.9999999999999997e-05,-1e-05,0.0,0.0,-1e-05,-1e-05,1
1141,1209,-1e-05,-2.9999999999999997e-05,-2.9999999999999997e-05,-1e-05,0.0,0.0,-1e-05,-1e-05,1
1142,1210,-1e-05,-2.9999999999999997e-05,-2.9999999999999997e-05,-1e-05,0.0,0.0,-1e-05,-1e-05,1
1143,1211,-1e-05,-2.9999999999999997e-05,-2.9999999999999997e-05,-1e-05,0.0,0.0,-1e-05,-1e-05,1
1144,1212,-1e-05,-2.9999999999999997e-05,-2.9999999999999997e-05,-1e-05,0.0,0.0,-1e-05,-1e-05,1
1145,1213,-1e-05,-2.9999999999999997e-05,-2.9999999999999997e-05,-1e-05,0.0,0.0,-1e-05,-1e-05,1
1146,1214,-1e-05,-2.9999999999999997e-05,-2.9999999999999997e-05,-1e-05,0.0,0.0,-1e-05,-1e-05,1
1147,1215,-1e-05,-2.9999999999999997e-05,-2.9999999999999997e-05,-1e-05,0.0,0.0,-1e-05,-1e-05,1
1148,1216,-1e-05,-2.9999999999999997e-05,-2.9999999999999997e-05,-1e-05,0.0,0.0,-1e-05,-1e-05,1
1149,1217,-1e-05,-2.9999999999999997e-05,-2.9999999999999997e-05,-1e-05,0.0,0.0,-1e-05,-1e-05,1
1150,1218,-1e-05,-2.9999999999999997e-05,-2.9999999999999997e-05,-1e-05,0.0,0.0,-1e-05,-1e-05,1
1151,1219,-1e-05,-2.9999999999999997e-05,-2.9999999999999997e-05,-1e-05,0.0,0.0,-1e-05,-1e-05,1
1152,1220,-1e-05,-2.9999999999999997e-05,-2.9999999999999997e-05,-1e-05,0.0,0.0,-1e-05,-1e-05,1
1153,1221,-1e-05,-2.9999999999999997e-05,-2.9999999999999997e-05,-1e-05,0.0,0.0,-1e-05,-1e-05,1
1154,1222,-1e-05,-2.9999999999999997e-05,-2.9999999999999997e-05,-1e-05,0.0,0.0,-1e-05,-1e-05,1
1155,1223,-1e-05,-2.9999999999999997e-05,-2.9999999999999997e-05,-1e-05,0.0,0.0,-1e-05,-1e-05,1
1156,1224,-1e-05,-2.9999999999999997e-05,-2.9999999999999997e-05,-1e-05,0.0,0.0,-1e-05,-1e-05,1
1157,1225,-1e-05,-2.9999999999999997e-05,-2.9999999999999997e-05,-1e-05,0.0,0.0,-1e-05,-1e-05,1
1158,1226,-4e-05,-4e-05,2.9999999999999997e-05,-9e-05,-4e-05,1e-05,-2e-05,-4e-05,1
1159,1227,0.0,0.0,-2e-05,-1e-05,-5e-05,-4e-05,-2e-05,0.0,1
1160,1228,0.0,0.0,-2e-05,-1e-05,-5e-05,-4e-05,-2e-05,0.0,1
1161,1229,0.0,0.0,-2e-05,-1e-05,-5e-05,-4e-05,-2e-05,0.0,1
1162,1230,0.0,0.0,-2e-05,-1e-05,-5e-05,-4e-05,-2e-05,0.0,1
1163,1231,0.0,0.0,-2e-05,-1e-05,-5e-05,-4e-05,-2e-05,0.0,1
1164,1232,0.0,0.0,-2e-05,-1e-05,-5e-05,-4e-05,-2e-05,0.0,1
1165,1233,0.0,0.0,-2e-05,-1e-05,-5e-05,-4e-05,-2e-05,0.0,1
1166,1234,0.0,0.0,-2e-05,-1e-05,-5e-05,-4e-05,-2e-05,0.0,1
1167,1235,0.0,0.0,-2e-05,-1e-05,-5e-05,-4e-05,-2e-05,0.0,1
1168,1236,0.0,0.0,-2e-05,-1e-05,-5e-05,-4e-05,-2e-05,0.0,1
1169,1238,0.0,0.0,-2e-05,-1e-05,-5e-05,-4e-05,-2e-05,0.0,1
1170,1239,0.0,0.0,-2e-05,-1e-05,-5e-05,-4e-05,-2e-05,0.0,1
1171,1240,0.0,0.0,-2e-05,-1e-05,-5e-05,-4e-05,-2e-05,0.0,1
1172,1241,0.0,0.0,-2e-05,-1e-05,-5e-05,-4e-05,-2e-05,0.0,1
1173,1242,0.0,0.0,-2e-05,-1e-05,-5e-05,-4e-05,-2e-05,0.0,1
1174,1243,0.0,0.0,-2e-05,-1e-05,-5e-05,-4e-05,-2e-05,0.0,1
1175,1244,0.0,0.0,-2e-05,-1e-05,-5e-05,-4e-05,-2e-05,0.0,1
1176,1245,0.0,0.0,-2e-05,-1e-05,-5e-05,-4e-05,-2e-05,0.0,1
1177,1246,0.0,0.0,-2e-05,-1e-05,-5e-05,-4e-05,-2e-05,0.0,1
1178,1247,0.0,0.0,-2e-05,-1e-05,-5e-05,-4e-05,-2e-05,0.0,1
1179,1248,2e-05,2e-05,-2e-05,4e-05,2e-05,0.0,2.9999999999999997e-05,1e-05,1
1180,1249,2e-05,2e-05,-2e-05,4e-05,2e-05,0.0,2.9999999999999997e-05,1e-05,1
1181,1250,-2.9999999999999997e-05,-2e-05,-2e-05,-2e-05,-1e-05,0.0,0.0,2.9999999999999997e-05,1
1182,1251,-2.9999999999999997e-05,-2e-05,-2e-05,-2e-05,-1e-05,0.0,0.0,2.9999999999999997e-05,1
1183,1252,-2.9999999999999997e-05,-2e-05,-2e-05,-2e-05,-1e-05,0.0,0.0,2.9999999999999997e-05,1
1184,1253,-2.9999999999999997e-05,-2e-05,-2e-05,-2e-05,-1e-05,0.0,0.0,2.9999999999999997e-05,1
1185,1254,-2.9999999999999997e-05,-2e-05,-2e-05,-2e-05,-1e-05,0.0,0.0,2.9999999999999997e-05,1
1186,1255,-2.9999999999999997e-05,-2e-05,-2e-05,-2e-05,-1e-05,0.0,0.0,2.9999999999999997e-05,1
1187,1256,-2.9999999999999997e-05,-2e-05,-2e-05,-2e-05,-1e-05,0.0,0.0,2.9999999999999997e-05,1
1188,1257,-2.9999999999999997e-05,-2e-05,-2e-05,-2e-05,-1e-05,0.0,0.0,2.9999999999999997e-05,1
1189,1258,-2.9999999999999997e-05,-2e-05,-2e-05,-2e-05,-1e-05,0.0,0.0,2.9999999999999997e-05,1
1190,1259,-2.9999999999999997e-05,-2e-05,-2e-05,-2e-05,-1e-05,0.0,0.0,2.9999999999999997e-05,1
1191,1260,-2.9999999999999997e-05,-2e-05,-2e-05,-2e-05,-1e-05,0.0,0.0,2.9999999999999997e-05,1
1192,1261,-2.9999999999999997e-05,-2e-05,-2e-05,-2e-05,-1e-05,0.0,0.0,2.9999999999999997e-05,1
1193,1262,-2.9999999999999997e-05,2.9999999999999997e-05,-1e-05,5e-05,2.9999999999999997e-05,-2.9999999999999997e-05,-2e-05,2e-05,1
1194,1263,0.0,0.0,-2e-05,2e-05,1e-05,-2.9999999999999997e-05,0.0,0.0,1
1195,1265,0.0,0.0,-2e-05,2e-05,1e-05,-2.9999999999999997e-05,0.0,0.0,1
1196,1266,0.0,0.0,-2e-05,2e-05,1e-05,-2.9999999999999997e-05,0.0,0.0,1
1197,1267,0.0,0.0,-2e-05,2e-05,1e-05,-2.9999999999999997e-05,0.0,0.0,1
1198,1268,0.0,0.0,-2e-05,2e-05,1e-05,-2.9999999999999997e-05,0.0,0.0,1
1199,1269,0.0,2e-05,-1e-05,0.0,-1e-05,-1e-05,1e-05,1e-05,1
1200,1271,0.0,2e-05,-1e-05,0.0,-1e-05,-1e-05,1e-05,1e-05,1
1201,1272,0.0,2e-05,-1e-05,0.0,-1e-05,-1e-05,1e-05,1e-05,1
1202,1273,0.0,2e-05,-1e-05,0.0,-1e-05,-1e-05,1e-05,1e-05,1
1203,1274,0.0,2e-05,-1e-05,0.0,-1e-05,-1e-05,1e-05,1e-05,1
1204,1275,0.0,2e-05,-1e-05,0.0,-1e-05,-1e-05,1e-05,1e-05,1
1205,1276,0.0,2e-05,-1e-05,0.0,-1e-05,-1e-05,1e-05,1e-05,1
1206,1277,0.0,2e-05,-1e-05,0.0,-1e-05,-1e-05,1e-05,1e-05,1
1207,1278,0.0,2e-05,-1e-05,0.0,-1e-05,-1e-05,1e-05,1e-05,1
1208,1279,0.0,2e-05,-1e-05,0.0,-1e-05,-1e-05,1e-05,1e-05,1
1209,1280,0.0,2e-05,-1e-05,0.0,-1e-05,-1e-05,1e-05,1e-05,1
1210,1281,0.0,2e-05,-1e-05,0.0,-1e-05,-1e-05,1e-05,1e-05,1
1211,1282,0.0,2e-05,-1e-05,0.0,-1e-05,-1e-05,1e-05,1e-05,1
1212,1283,0.0,2e-05,-1e-05,0.0,-1e-05,-1e-05,1e-05,1e-05,1
1213,1284,0.0,2e-05,-1e-05,0.0,-1e-05,-1e-05,1e-05,1e-05,1
1214,1285,1e-05,0.0,-2e-05,-2e-05,-2.9999999999999997e-05,-1e-05,0.0,-2e-05,1
1215,1286,-2e-05,-1e-05,2e-05,0.0,-1e-05,2e-05,0.0,-2.9999999999999997e-05,1
1216,1289,-5.9999999999999995e-05,-2e-05,1e-05,-7e-05,-4e-05,-1e-05,-2e-05,-4e-05,1
1217,1290,-5.9999999999999995e-05,-2e-05,1e-05,-7e-05,-4e-05,-1e-05,-2e-05,-4e-05,1
1218,1291,-5.9999999999999995e-05,-2e-05,1e-05,-7e-05,-4e-05,-1e-05,-2e-05,-4e-05,1
1219,1292,-5.9999999999999995e-05,-2e-05,1e-05,-7e-05,-4e-05,-1e-05,-2e-05,-4e-05,1
1220,1293,-5.9999999999999995e-05,-2e-05,1e-05,-7e-05,-4e-05,-1e-05,-2e-05,-4e-05,1
1221,1294,-5.9999999999999995e-05,-2e-05,1e-05,-7e-05,-4e-05,-1e-05,-2e-05,-4e-05,1
1222,1295,-5.9999999999999995e-05,-2e-05,1e-05,-7e-05,-4e-05,-1e-05,-2e-05,-4e-05,1
1223,1296,-5.9999999999999995e-05,-2e-05,1e-05,-7e-05,-4e-05,-1e-05,-2e-05,-4e-05,1
1224,1297,-5.9999999999999995e-05,-2e-05,1e-05,-7e-05,-4e-05,-1e-05,-2e-05,-4e-05,1
1225,1298,-5.9999999999999995e-05,-2e-05,1e-05,-7e-05,-4e-05,-1e-05,-2e-05,-4e-05,1
1226,1299,-5.9999999999999995e-05,-2e-05,1e-05,-7e-05,-4e-05,-1e-05,-2e-05,-4e-05,1
1227,1300,-5.9999999999999995e-05,-2e-05,1e-05,-7e-05,-4e-05,-1e-05,-2e-05,-4e-05,1
1228,1301,-5.9999999999999995e-05,-2e-05,1e-05,-7e-05,-4e-05,-1e-05,-2e-05,-4e-05,1
1229,1302,-5.9999999999999995e-05,-2e-05,1e-05,-7e-05,-4e-05,-1e-05,-2e-05,-4e-05,1
1230,1303,-5.9999999999999995e-05,-2e-05,1e-05,-7e-05,-4e-05,-1e-05,-2e-05,-4e-05,1
1231,1304,-5.9999999999999995e-05,-2e-05,1e-05,-7e-05,-4e-05,-1e-05,-2e-05,-4e-05,1
1232,1305,-5.9999999999999995e-05,-2e-05,1e-05,-7e-05,-4e-05,-1e-05,-2e-05,-4e-05,1
1233,1306,-5.9999999999999995e-05,-2e-05,1e-05,-7e-05,-4e-05,-1e-05,-2e-05,-4e-05,1
1234,1307,-5.9999999999999995e-05,-2e-05,1e-05,-7e-05,-4e-05,-1e-05,-2e-05,-4e-05,1
1235,1308,1e-05,-4e-05,-2.9999999999999997e-05,-1e-05,-4e-05,2e-05,-2.9999999999999997e-05,4e-05,1
1236,1309,1e-05,-4e-05,-2.9999999999999997e-05,-1e-05,-4e-05,2e-05,-2.9999999999999997e-05,4e-05,1
1237,1310,1e-05,-1e-05,0.0,-1e-05,-2e-05,-5e-05,0.0,-7e-05,1
1238,1311,1e-05,-1e-05,0.0,-1e-05,-2e-05,-5e-05,0.0,-7e-05,1
1239,1312,1e-05,-1e-05,0.0,-1e-05,-2e-05,-5e-05,0.0,-7e-05,1
1240,1313,1e-05,-1e-05,0.0,-1e-05,-2e-05,-5e-05,0.0,-7e-05,1
1241,1314,1e-05,-1e-05,0.0,-1e-05,-2e-05,-5e-05,0.0,-7e-05,1
1242,1315,1e-05,-1e-05,0.0,-1e-05,-2e-05,-5e-05,0.0,-7e-05,1
1243,1316,1e-05,-1e-05,0.0,-1e-05,-2e-05,-5e-05,0.0,-7e-05,1
1244,1317,1e-05,-1e-05,0.0,-1e-05,-2e-05,-5e-05,0.0,-7e-05,1
1245,1318,1e-05,-1e-05,0.0,-1e-05,-2e-05,-5e-05,0.0,-7e-05,1
1246,1319,1e-05,-1e-05,0.0,-1e-05,-2e-05,-5e-05,0.0,-7e-05,1
1247,1320,1e-05,-1e-05,0.0,-1e-05,-2e-05,-5e-05,0.0,-7e-05,1
1248,1321,1e-05,-1e-05,0.0,-1e-05,-2e-05,-5e-05,0.0,-7e-05,1
1249,1322,1e-05,-1e-05,0.0,-1e-05,-2e-05,-5e-05,0.0,-7e-05,1
1250,1323,1e-05,-1e-05,0.0,-1e-05,-2e-05,-5e-05,0.0,-7e-05,1
1251,1324,2e-05,4e-05,2e-05,-2.9999999999999997e-05,0.0,-2e-05,-2e-05,-2e-05,1
1252,1325,1e-05,-1e-05,-8e-05,-2e-05,-4e-05,-4e-05,-2.9999999999999997e-05,1e-05,1
1253,1326,1e-05,-1e-05,-8e-05,-2e-05,-4e-05,-4e-05,-2.9999999999999997e-05,1e-05,1
1254,1327,1e-05,-1e-05,-8e-05,-2e-05,-4e-05,-4e-05,-2.9999999999999997e-05,1e-05,1
1255,1328,1e-05,-1e-05,-8e-05,-2e-05,-4e-05,-4e-05,-2.9999999999999997e-05,1e-05,1
1256,1329,1e-05,-1e-05,-8e-05,-2e-05,-4e-05,-4e-05,-2.9999999999999997e-05,1e-05,1
1257,1330,1e-05,-1e-05,-8e-05,-2e-05,-4e-05,-4e-05,-2.9999999999999997e-05,1e-05,1
1258,1331,1e-05,-1e-05,-8e-05,-2e-05,-4e-05,-4e-05,-2.9999999999999997e-05,1e-05,1
1259,1332,1e-05,-1e-05,-8e-05,-2e-05,-4e-05,-4e-05,-2.9999999999999997e-05,1e-05,1
1260,1333,1e-05,-1e-05,-8e-05,-2e-05,-4e-05,-4e-05,-2.9999999999999997e-05,1e-05,1
1261,1334,1e-05,-1e-05,-8e-05,-2e-05,-4e-05,-4e-05,-2.9999999999999997e-05,1e-05,1
1262,1335,1e-05,-1e-05,-8e-05,-2e-05,-4e-05,-4e-05,-2.9999999999999997e-05,1e-05,1
1263,1336,1e-05,-1e-05,-8e-05,-2e-05,-4e-05,-4e-05,-2.9999999999999997e-05,1e-05,1
1264,1338,1e-05,-1e-05,-8e-05,-2e-05,-4e-05,-4e-05,-2.9999999999999997e-05,1e-05,1
1265,1339,1e-05,-1e-05,-8e-05,-2e-05,-4e-05,-4e-05,-2.9999999999999997e-05,1e-05,1
1266,1340,1e-05,-1e-05,-8e-05,-2e-05,-4e-05,-4e-05,-2.9999999999999997e-05,1e-05,1
1267,1341,1e-05,-1e-05,-8e-05,-2e-05,-4e-05,-4e-05,-2.9999999999999997e-05,1e-05,1
1268,1342,1e-05,-1e-05,-8e-05,-2e-05,-4e-05,-4e-05,-2.9999999999999997e-05,1e-05,1
1269,1343,1e-05,-1e-05,-8e-05,-2e-05,-4e-05,-4e-05,-2.9999999999999997e-05,1e-05,1
1270,1344,1e-05,-1e-05,-8e-05,-2e-05,-4e-05,-4e-05,-2.9999999999999997e-05,1e-05,1
1271,1345,1e-05,-1e-05,-8e-05,-2e-05,-4e-05,-4e-05,-2.9999999999999997e-05,1e-05,1
1272,1346,-1e-05,-4e-05,-5e-05,-2.9999999999999997e-05,0.0,-5.9999999999999995e-05,2.9999999999999997e-05,-2e-05,1
1273,1347,-2e-05,-5e-05,2.9999999999999997e-05,2.9999999999999997e-05,2.9999999999999997e-05,2.9999999999999997e-05,-2e-05,-2e-05,1
1274,1348,-2e-05,-5e-05,2.9999999999999997e-05,2.9999999999999997e-05,2.9999999999999997e-05,2.9999999999999997e-05,-2e-05,-2e-05,1
1275,1349,-2e-05,-5e-05,2.9999999999999997e-05,2.9999999999999997e-05,2.9999999999999997e-05,2.9999999999999997e-05,-2e-05,-2e-05,1
1276,1350,-2e-05,-5e-05,2.9999999999999997e-05,2.9999999999999997e-05,2.9999999999999997e-05,2.9999999999999997e-05,-2e-05,-2e-05,1
1277,1351,-2e-05,-5e-05,2.9999999999999997e-05,2.9999999999999997e-05,2.9999999999999997e-05,2.9999999999999997e-05,-2e-05,-2e-05,1
1278,1352,-2e-05,-5e-05,2.9999999999999997e-05,2.9999999999999997e-05,2.9999999999999997e-05,2.9999999999999997e-05,-2e-05,-2e-05,1
1279,1353,-2e-05,-5e-05,2.9999999999999997e-05,2.9999999999999997e-05,2.9999999999999997e-05,2.9999999999999997e-05,-2e-05,-2e-05,1
1280,1354,-2e-05,-5e-05,2.9999999999999997e-05,2.9999999999999997e-05,2.9999999999999997e-05,2.9999999999999997e-05,-2e-05,-2e-05,1
1281,1355,-2e-05,-5e-05,2.9999999999999997e-05,2.9999999999999997e-05,2.9999999999999997e-05,2.9999999999999997e-05,-2e-05,-2e-05,1
1282,1356,-2e-05,-5e-05,2.9999999999999997e-05,2.9999999999999997e-05,2.9999999999999997e-05,2.9999999999999997e-05,-2e-05,-2e-05,1
1283,1357,-2e-05,-5e-05,2.9999999999999997e-05,2.9999999999999997e-05,2.9999999999999997e-05,2.9999999999999997e-05,-2e-05,-2e-05,1
1284,1358,-2e-05,-5e-05,2.9999999999999997e-05,2.9999999999999997e-05,2.9999999999999997e-05,2.9999999999999997e-05,-2e-05,-2e-05,1
1285,1359,-2e-05,-5e-05,2.9999999999999997e-05,2.9999999999999997e-05,2.9999999999999997e-05,2.9999999999999997e-05,-2e-05,-2e-05,1
1286,1360,-2e-05,-5e-05,2.9999999999999997e-05,2.9999999999999997e-05,2.9999999999999997e-05,2.9999999999999997e-05,-2e-05,-2e-05,1
1287,1361,-2e-05,-5e-05,2.9999999999999997e-05,2.9999999999999997e-05,2.9999999999999997e-05,2.9999999999999997e-05,-2e-05,-2e-05,1
1288,1362,-2e-05,-5e-05,2.9999999999999997e-05,2.9999999999999997e-05,2.9999999999999997e-05,2.9999999999999997e-05,-2e-05,-2e-05,1
1289,1363,-2e-05,-5e-05,2.9999999999999997e-05,2.9999999999999997e-05,2.9999999999999997e-05,2.9999999999999997e-05,-2e-05,-2e-05,1
1290,1364,-2e-05,-5e-05,2.9999999999999997e-05,2.9999999999999997e-05,2.9999999999999997e-05,2.9999999999999997e-05,-2e-05,-2e-05,1
1291,1365,-2e-05,-5e-05,2.9999999999999997e-05,2.9999999999999997e-05,2.9999999999999997e-05,2.9999999999999997e-05,-2e-05,-2e-05,1
1292,1366,-2e-05,-5e-05,2.9999999999999997e-05,2.9999999999999997e-05,2.9999999999999997e-05,2.9999999999999997e-05,-2e-05,-2e-05,1
1293,1367,-2e-05,-5e-05,2.9999999999999997e-05,2.9999999999999997e-05,2.9999999999999997e-05,2.9999999999999997e-05,-2e-05,-2e-05,1
1294,1368,-2e-05,-5e-05,2.9999999999999997e-05,2.9999999999999997e-05,2.9999999999999997e-05,2.9999999999999997e-05,-2e-05,-2e-05,1
1295,1369,-4e-05,1e-05,2e-05,0.0,-2e-05,2e-05,0.0,-2.9999999999999997e-05,1
1296,1370,2e-05,2.9999999999999997e-05,-4e-05,5.9999999999999995e-05,0.0,-1e-05,-5e-05,2e-05,1
1297,1371,2e-05,2.9999999999999997e-05,-4e-05,5.9999999999999995e-05,0.0,-1e-05,-5e-05,2e-05,1
1298,1372,2e-05,2.9999999999999997e-05,-4e-05,5.9999999999999995e-05,0.0,-1e-05,-5e-05,2e-05,1
1299,1373,2e-05,2.9999999999999997e-05,-4e-05,5.9999999999999995e-05,0.0,-1e-05,-5e-05,2e-05,1
1300,1374,2e-05,2.9999999999999997e-05,-4e-05,5.9999999999999995e-05,0.0,-1e-05,-5e-05,2e-05,1
1301,1375,2e-05,2.9999999999999997e-05,-4e-05,5.9999999999999995e-05,0.0,-1e-05,-5e-05,2e-05,1
1302,1376,2e-05,2.9999999999999997e-05,-4e-05,5.9999999999999995e-05,0.0,-1e-05,-5e-05,2e-05,1
1303,1377,2e-05,2.9999999999999997e-05,-4e-05,5.9999999999999995e-05,0.0,-1e-05,-5e-05,2e-05,1
1304,1378,2e-05,2.9999999999999997e-05,-4e-05,5.9999999999999995e-05,0.0,-1e-05,-5e-05,2e-05,1
1305,1379,2e-05,2.9999999999999997e-05,-4e-05,5.9999999999999995e-05,0.0,-1e-05,-5e-05,2e-05,1
1306,1380,2e-05,2.9999999999999997e-05,-4e-05,5.9999999999999995e-05,0.0,-1e-05,-5e-05,2e-05,1
1307,1381,2e-05,2.9999999999999997e-05,-4e-05,5.9999999999999995e-05,0.0,-1e-05,-5e-05,2e-05,1
1308,1382,2e-05,2.9999999999999997e-05,-4e-05,5.9999999999999995e-05,0.0,-1e-05,-5e-05,2e-05,1
1309,1383,0.0,2e-05,-1e-05,-1e-05,-4e-05,0.0,2.9999999999999997e-05,-1e-05,1
1310,1384,0.0,2e-05,-1e-05,-1e-05,-4e-05,0.0,2.9999999999999997e-05,-1e-05,1
1311,1385,-1e-05,-2.9999999999999997e-05,-2e-05,-4e-05,-1e-05,-5e-05,2e-05,-2e-05,1
1312,1386,-1e-05,-2.9999999999999997e-05,-2e-05,-4e-05,-1e-05,-5e-05,2e-05,-2e-05,1
1313,1388,-1e-05,-2.9999999999999997e-05,-2e-05,-4e-05,-1e-05,-5e-05,2e-05,-2e-05,1
1314,1389,-1e-05,-2.9999999999999997e-05,-2e-05,-4e-05,-1e-05,-5e-05,2e-05,-2e-05,1
1315,1390,-1e-05,-2.9999999999999997e-05,-2e-05,-4e-05,-1e-05,-5e-05,2e-05,-2e-05,1
1316,1391,-1e-05,-2.9999999999999997e-05,-2e-05,-4e-05,-1e-05,-5e-05,2e-05,-2e-05,1
1317,1392,-1e-05,-2.9999999999999997e-05,-2e-05,-4e-05,-1e-05,-5e-05,2e-05,-2e-05,1
1318,1393,-1e-05,-2.9999999999999997e-05,-2e-05,-4e-05,-1e-05,-5e-05,2e-05,-2e-05,1
1319,1394,-1e-05,-2.9999999999999997e-05,-2e-05,-4e-05,-1e-05,-5e-05,2e-05,-2e-05,1
1320,1395,-1e-05,-2.9999999999999997e-05,-2e-05,-4e-05,-1e-05,-5e-05,2e-05,-2e-05,1
1321,1396,-1e-05,-2.9999999999999997e-05,-2e-05,-4e-05,-1e-05,-5e-05,2e-05,-2e-05,1
1322,1397,-1e-05,-2.9999999999999997e-05,-2e-05,-4e-05,-1e-05,-5e-05,2e-05,-2e-05,1
1323,1398,-1e-05,-2.9999999999999997e-05,-2e-05,-4e-05,-1e-05,-5e-05,2e-05,-2e-05,1
1324,1399,-1e-05,-2.9999999999999997e-05,-2e-05,-4e-05,-1e-05,-5e-05,2e-05,-2e-05,1
1325,1400,-1e-05,-2.9999999999999997e-05,-2e-05,-4e-05,-1e-05,-5e-05,2e-05,-2e-05,1
1326,1401,-1e-05,-2.9999999999999997e-05,-2e-05,-4e-05,-1e-05,-5e-05,2e-05,-2e-05,1
1327,1402,-1e-05,-2.9999999999999997e-05,-2e-05,-4e-05,-1e-05,-5e-05,2e-05,-2e-05,1
1328,1403,-1e-05,-2.9999999999999997e-05,-2e-05,-4e-05,-1e-05,-5e-05,2e-05,-2e-05,1
1329,1404,-1e-05,-2.9999999999999997e-05,-2e-05,-4e-05,-1e-05,-5e-05,2e-05,-2e-05,1
1330,1405,-1e-05,-2.9999999999999997e-05,-2e-05,-4e-05,-1e-05,-5e-05,2e-05,-2e-05,1
1331,1406,0.0,-2.9999999999999997e-05,0.0,0.0,4e-05,1e-05,-2.9999999999999997e-05,-2e-05,1
1332,1407,-2.9999999999999997e-05,1e-05,-2e-05,-5.9999999999999995e-05,-5e-05,-1e-05,-2e-05,-1e-05,1
1333,1408,-2.9999999999999997e-05,1e-05,-2e-05,-5.9999999999999995e-05,-5e-05,-1e-05,-2e-05,-1e-05,1
1334,1409,-2.9999999999999997e-05,1e-05,-2e-05,-5.9999999999999995e-05,-5e-05,-1e-05,-2e-05,-1e-05,1
1335,1410,-2.9999999999999997e-05,1e-05,-2e-05,-5.9999999999999995e-05,-5e-05,-1e-05,-2e-05,-1e-05,1
1336,1411,-2.9999999999999997e-05,1e-05,-2e-05,-5.9999999999999995e-05,-5e-05,-1e-05,-2e-05,-1e-05,1
1337,1412,-2.9999999999999997e-05,1e-05,-2e-05,-5.9999999999999995e-05,-5e-05,-1e-05,-2e-05,-1e-05,1
1338,1413,-2.9999999999999997e-05,1e-05,-2e-05,-5.9999999999999995e-05,-5e-05,-1e-05,-2e-05,-1e-05,1
1339,1414,-2.9999999999999997e-05,1e-05,-2e-05,-5.9999999999999995e-05,-5e-05,-1e-05,-2e-05,-1e-05,1
1340,1415,-2.9999999999999997e-05,1e-05,-2e-05,-5.9999999999999995e-05,-5e-05,-1e-05,-2e-05,-1e-05,1
1341,1416,-2.9999999999999997e-05,1e-05,-2e-05,-5.9999999999999995e-05,-5e-05,-1e-05,-2e-05,-1e-05,1
1342,1417,-2.9999999999999997e-05,1e-05,-2e-05,-5.9999999999999995e-05,-5e-05,-1e-05,-2e-05,-1e-05,1
1343,1418,-2.9999999999999997e-05,1e-05,-2e-05,-5.9999999999999995e-05,-5e-05,-1e-05,-2e-05,-1e-05,1
1344,1419,-2.9999999999999997e-05,1e-05,-2e-05,-5.9999999999999995e-05,-5e-05,-1e-05,-2e-05,-1e-05,1
1345,1420,-2.9999999999999997e-05,1e-05,-2e-05,-5.9999999999999995e-05,-5e-05,-1e-05,-2e-05,-1e-05,1
1346,1421,-2.9999999999999997e-05,1e-05,-2e-05,-5.9999999999999995e-05,-5e-05,-1e-05,-2e-05,-1e-05,1
1347,1422,-2.9999999999999997e-05,1e-05,-2e-05,-5.9999999999999995e-05,-5e-05,-1e-05,-2e-05,-1e-05,1
1348,1423,-2.9999999999999997e-05,1e-05,-2e-05,-5.9999999999999995e-05,-5e-05,-1e-05,-2e-05,-1e-05,1
1349,1424,-2.9999999999999997e-05,1e-05,-2e-05,-5.9999999999999995e-05,-5e-05,-1e-05,-2e-05,-1e-05,1
1350,1425,-2.9999999999999997e-05,1e-05,-2e-05,-5.9999999999999995e-05,-5e-05,-1e-05,-2e-05,-1e-05,1
1351,1426,-2.9999999999999997e-05,1e-05,-2e-05,-5.9999999999999995e-05,-5e-05,-1e-05,-2e-05,-1e-05,1
1352,1427,-2.9999999999999997e-05,1e-05,-2e-05,-5.9999999999999995e-05,-5e-05,-1e-05,-2e-05,-1e-05,1
1353,1428,-2e-05,0.0,-2e-05,-1e-05,-4e-05,-1e-05,-2.9999999999999997e-05,2e-05,1
1354,1429,-2e-05,0.0,-2e-05,-1e-05,-4e-05,-1e-05,-2.9999999999999997e-05,2e-05,1
1355,1430,-2e-05,-2.9999999999999997e-05,-1e-05,0.0,2.9999999999999997e-05,0.0,2e-05,0.0,1
1356,1431,-2e-05,-2.9999999999999997e-05,-1e-05,0.0,2.9999999999999997e-05,0.0,2e-05,0.0,1
1357,1432,-2e-05,-2.9999999999999997e-05,-1e-05,0.0,2.9999999999999997e-05,0.0,2e-05,0.0,1
1358,1433,-2e-05,-2.9999999999999997e-05,-1e-05,0.0,2.9999999999999997e-05,0.0,2e-05,0.0,1
1359,1434,-2e-05,-2.9999999999999997e-05,-1e-05,0.0,2.9999999999999997e-05,0.0,2e-05,0.0,1
1360,1435,-2e-05,-2.9999999999999997e-05,-1e-05,0.0,2.9999999999999997e-05,0.0,2e-05,0.0,1
1361,1436,-2e-05,-2.9999999999999997e-05,-1e-05,0.0,2.9999999999999997e-05,0.0,2e-05,0.0,1
1362,1438,-2e-05,-2.9999999999999997e-05,-1e-05,0.0,2.9999999999999997e-05,0.0,2e-05,0.0,1
1363,1439,-2e-05,-2.9999999999999997e-05,-1e-05,0.0,2.9999999999999997e-05,0.0,2e-05,0.0,1
1364,1440,-2e-05,-2.9999999999999997e-05,-1e-05,0.0,2.9999999999999997e-05,0.0,2e-05,0.0,1
1365,1441,-2e-05,-2.9999999999999997e-05,-1e-05,0.0,2.9999999999999997e-05,0.0,2e-05,0.0,1
1366,1442,1e-05,-5e-05,-2.9999999999999997e-05,-7e-05,-2.9999999999999997e-05,-2e-05,2.9999999999999997e-05,-5e-05,1
1367,1443,0.0,-1e-05,-1e-05,1e-05,2.9999999999999997e-05,2e-05,-1e-05,-5e-05,1
1368,1444,0.0,-1e-05,-1e-05,1e-05,2.9999999999999997e-05,2e-05,-1e-05,-5e-05,1
1369,1445,0.0,-1e-05,-1e-05,1e-05,2.9999999999999997e-05,2e-05,-1e-05,-5e-05,1
1370,1446,0.0,-1e-05,-1e-05,1e-05,2.9999999999999997e-05,2e-05,-1e-05,-5e-05,1
1371,1447,0.0,-1e-05,-1e-05,1e-05,2.9999999999999997e-05,2e-05,-1e-05,-5e-05,1
1372,1448,0.0,-1e-05,-1e-05,1e-05,2.9999999999999997e-05,2e-05,-1e-05,-5e-05,1
1373,1449,1e-05,1e-05,-1e-05,0.0,-2e-05,-2.9999999999999997e-05,-2.9999999999999997e-05,0.0,1
1374,1450,1e-05,1e-05,-1e-05,0.0,-2e-05,-2.9999999999999997e-05,-2.9999999999999997e-05,0.0,1
1375,1451,1e-05,1e-05,-1e-05,0.0,-2e-05,-2.9999999999999997e-05,-2.9999999999999997e-05,0.0,1
1376,1452,1e-05,1e-05,-1e-05,0.0,-2e-05,-2.9999999999999997e-05,-2.9999999999999997e-05,0.0,1
1377,1453,1e-05,1e-05,-1e-05,0.0,-2e-05,-2.9999999999999997e-05,-2.9999999999999997e-05,0.0,1
1378,1454,1e-05,1e-05,-1e-05,0.0,-2e-05,-2.9999999999999997e-05,-2.9999999999999997e-05,0.0,1
1379,1455,1e-05,1e-05,-1e-05,0.0,-2e-05,-2.9999999999999997e-05,-2.9999999999999997e-05,0.0,1
1380,1456,1e-05,1e-05,-1e-05,0.0,-2e-05,-2.9999999999999997e-05,-2.9999999999999997e-05,0.0,1
1381,1457,1e-05,1e-05,-1e-05,0.0,-2e-05,-2.9999999999999997e-05,-2.9999999999999997e-05,0.0,1
1382,1458,1e-05,1e-05,-1e-05,0.0,-2e-05,-2.9999999999999997e-05,-2.9999999999999997e-05,0.0,1
1383,1459,1e-05,1e-05,-1e-05,0.0,-2e-05,-2.9999999999999997e-05,-2.9999999999999997e-05,0.0,1
1384,1460,1e-05,1e-05,-1e-05,0.0,-2e-05,-2.9999999999999997e-05,-2.9999999999999997e-05,0.0,1
1385,1461,1e-05,1e-05,-1e-05,0.0,-2e-05,-2.9999999999999997e-05,-2.9999999999999997e-05,0.0,1
1386,1462,1e-05,1e-05,-1e-05,0.0,-2e-05,-2.9999999999999997e-05,-2.9999999999999997e-05,0.0,1
1387,1463,1e-05,1e-05,-1e-05,0.0,-2e-05,-2.9999999999999997e-05,-2.9999999999999997e-05,0.0,1
1388,1464,1e-05,1e-05,-1e-05,0.0,-2e-05,-2.9999999999999997e-05,-2.9999999999999997e-05,0.0,1
1389,1465,1e-05,1e-05,-1e-05,0.0,-2e-05,-2.9999999999999997e-05,-2.9999999999999997e-05,0.0,1
1390,1466,-5e-05,-7e-05,-5.9999999999999995e-05,-2e-05,-5e-05,1e-05,-2.9999999999999997e-05,0.0,1
1391,1467,0.0,-1e-05,2e-05,0.0,0.0,-2e-05,0.0,-2.9999999999999997e-05,1
1392,1468,0.0,-1e-05,2e-05,0.0,0.0,-2e-05,0.0,-2.9999999999999997e-05,1
1393,1469,0.0,-1e-05,2e-05,0.0,0.0,-2e-05,0.0,-2.9999999999999997e-05,1
1394,1470,0.0,-1e-05,2e-05,0.0,0.0,-2e-05,0.0,-2.9999999999999997e-05,1
1395,1471,0.0,-1e-05,2e-05,0.0,0.0,-2e-05,0.0,-2.9999999999999997e-05,1
1396,1472,0.0,-1e-05,2e-05,0.0,0.0,-2e-05,0.0,-2.9999999999999997e-05,1
1397,1473,0.0,-1e-05,2e-05,0.0,0.0,-2e-05,0.0,-2.9999999999999997e-05,1
1398,1474,0.0,-1e-05,2e-05,0.0,0.0,-2e-05,0.0,-2.9999999999999997e-05,1
1399,1475,0.0,-1e-05,2e-05,0.0,0.0,-2e-05,0.0,-2.9999999999999997e-05,1
1400,1476,0.0,-1e-05,2e-05,0.0,0.0,-2e-05,0.0,-2.9999999999999997e-05,1
1401,1477,0.0,-1e-05,2e-05,0.0,0.0,-2e-05,0.0,-2.9999999999999997e-05,1
1402,1478,0.0,-1e-05,2e-05,0.0,0.0,-2e-05,0.0,-2.9999999999999997e-05,1
1403,1479,0.0,-1e-05,2e-05,0.0,0.0,-2e-05,0.0,-2.9999999999999997e-05,1
1404,1480,0.0,-1e-05,2e-05,0.0,0.0,-2e-05,0.0,-2.9999999999999997e-05,1
1405,1481,0.0,-1e-05,2e-05,0.0,0.0,-2e-05,0.0,-2.9999999999999997e-05,1
1406,1482,0.0,-1e-05,2e-05,0.0,0.0,-2e-05,0.0,-2.9999999999999997e-05,1
1407,1483,0.0,-1e-05,2e-05,0.0,0.0,-2e-05,0.0,-2.9999999999999997e-05,1
1408,1484,0.0,-1e-05,2e-05,0.0,0.0,-2e-05,0.0,-2.9999999999999997e-05,1
1409,1485,0.0,-1e-05,2e-05,0.0,0.0,-2e-05,0.0,-2.9999999999999997e-05,1
1410,1486,0.0,-1e-05,2e-05,0.0,0.0,-2e-05,0.0,-2.9999999999999997e-05,1
1411,1488,0.0,-1e-05,2e-05,0.0,0.0,-2e-05,0.0,-2.9999999999999997e-05,1
1412,1489,1e-05,2e-05,2.9999999999999997e-05,-2e-05,1e-05,-2.9999999999999997e-05,0.0,2.9999999999999997e-05,1
1413,1490,-2.9999999999999997e-05,-1e-05,-5e-05,-5e-05,-2e-05,2e-05,-1e-05,-4e-05,1
1414,1491,-2.9999999999999997e-05,-1e-05,-5e-05,-5e-05,-2e-05,2e-05,-1e-05,-4e-05,1
1415,1492,-2.9999999999999997e-05,-1e-05,-5e-05,-5e-05,-2e-05,2e-05,-1e-05,-4e-05,1
1416,1493,-2.9999999999999997e-05,-1e-05,-5e-05,-5e-05,-2e-05,2e-05,-1e-05,-4e-05,1
1417,1494,-2.9999999999999997e-05,-1e-05,-5e-05,-5e-05,-2e-05,2e-05,-1e-05,-4e-05,1
1418,1495,-2.9999999999999997e-05,-1e-05,-5e-05,-5e-05,-2e-05,2e-05,-1e-05,-4e-05,1
1419,1496,-2.9999999999999997e-05,-1e-05,-5e-05,-5e-05,-2e-05,2e-05,-1e-05,-4e-05,1
1420,1497,-2.9999999999999997e-05,-1e-05,-5e-05,-5e-05,-2e-05,2e-05,-1e-05,-4e-05,1
1421,1498,-2.9999999999999997e-05,-1e-05,-5e-05,-5e-05,-2e-05,2e-05,-1e-05,-4e-05,1
1422,1499,-2.9999999999999997e-05,-1e-05,-5e-05,-5e-05,-2e-05,2e-05,-1e-05,-4e-05,1
1423,1500,-2.9999999999999997e-05,-1e-05,-5e-05,-5e-05,-2e-05,2e-05,-1e-05,-4e-05,1
1424,1501,-2.9999999999999997e-05,-1e-05,-5e-05,-5e-05,-2e-05,2e-05,-1e-05,-4e-05,1
1425,1502,-2.9999999999999997e-05,-1e-05,-5e-05,-5e-05,-2e-05,2e-05,-1e-05,-4e-05,1
1426,1503,-2e-05,2e-05,-4e-05,1e-05,1e-05,4e-05,2e-05,-1e-05,1
1427,1504,-2e-05,2e-05,-4e-05,1e-05,1e-05,4e-05,2e-05,-1e-05,1
1428,1505,-2e-05,2e-05,-4e-05,1e-05,1e-05,4e-05,2e-05,-1e-05,1
1429,1506,-2e-05,2e-05,-4e-05,1e-05,1e-05,4e-05,2e-05,-1e-05,1
1430,1507,-2e-05,2e-05,-4e-05,1e-05,1e-05,4e-05,2e-05,-1e-05,1
1431,1508,-2e-05,2e-05,-4e-05,1e-05,1e-05,4e-05,2e-05,-1e-05,1
1432,1509,-2e-05,1e-05,2.9999999999999997e-05,0.0,-1e-05,2e-05,-2e-05,1e-05,1
1433,1510,-2e-05,1e-05,2.9999999999999997e-05,0.0,-1e-05,2e-05,-2e-05,1e-05,1
1434,1511,-2e-05,1e-05,2.9999999999999997e-05,0.0,-1e-05,2e-05,-2e-05,1e-05,1
1435,1512,-2e-05,1e-05,2.9999999999999997e-05,0.0,-1e-05,2e-05,-2e-05,1e-05,1
1436,1513,-2e-05,1e-05,2.9999999999999997e-05,0.0,-1e-05,2e-05,-2e-05,1e-05,1
1437,1514,-2e-05,1e-05,2.9999999999999997e-05,0.0,-1e-05,2e-05,-2e-05,1e-05,1
1438,1515,-2e-05,1e-05,2.9999999999999997e-05,0.0,-1e-05,2e-05,-2e-05,1e-05,1
1439,1516,-2e-05,1e-05,2.9999999999999997e-05,0.0,-1e-05,2e-05,-2e-05,1e-05,1
1440,1517,-2e-05,1e-05,2.9999999999999997e-05,0.0,-1e-05,2e-05,-2e-05,1e-05,1
1441,1518,-2e-05,1e-05,2.9999999999999997e-05,0.0,-1e-05,2e-05,-2e-05,1e-05,1
1442,1519,-2e-05,1e-05,2.9999999999999997e-05,0.0,-1e-05,2e-05,-2e-05,1e-05,1
1443,1520,-2e-05,1e-05,2.9999999999999997e-05,0.0,-1e-05,2e-05,-2e-05,1e-05,1
1444,1521,-2e-05,1e-05,2.9999999999999997e-05,0.0,-1e-05,2e-05,-2e-05,1e-05,1
1445,1522,-2e-05,1e-05,2.9999999999999997e-05,0.0,-1e-05,2e-05,-2e-05,1e-05,1
1446,1523,-2e-05,1e-05,2.9999999999999997e-05,0.0,-1e-05,2e-05,-2e-05,1e-05,1
1447,1524,-2e-05,1e-05,2.9999999999999997e-05,0.0,-1e-05,2e-05,-2e-05,1e-05,1
1448,1525,-2e-05,1e-05,2.9999999999999997e-05,0.0,-1e-05,2e-05,-2e-05,1e-05,1
1449,1526,-1e-05,-1e-05,5e-05,-2e-05,-5.9999999999999995e-05,-4e-05,0.0,-1e-05,1
1450,1527,-1e-05,0.0,-5e-05,1e-05,-2e-05,-2e-05,-2.9999999999999997e-05,1e-05,1
1451,1528,-1e-05,0.0,-5e-05,1e-05,-2e-05,-2e-05,-2.9999999999999997e-05,1e-05,1
1452,1529,-1e-05,0.0,-5e-05,1e-05,-2e-05,-2e-05,-2.9999999999999997e-05,1e-05,1
1453,1530,-1e-05,0.0,-5e-05,1e-05,-2e-05,-2e-05,-2.9999999999999997e-05,1e-05,1
1454,1531,-1e-05,0.0,-5e-05,1e-05,-2e-05,-2e-05,-2.9999999999999997e-05,1e-05,1
1455,1532,-1e-05,0.0,-5e-05,1e-05,-2e-05,-2e-05,-2.9999999999999997e-05,1e-05,1
1456,1533,-1e-05,0.0,-5e-05,1e-05,-2e-05,-2e-05,-2.9999999999999997e-05,1e-05,1
1457,1534,-1e-05,0.0,-5e-05,1e-05,-2e-05,-2e-05,-2.9999999999999997e-05,1e-05,1
1458,1535,-1e-05,0.0,-5e-05,1e-05,-2e-05,-2e-05,-2.9999999999999997e-05,1e-05,1
1459,1536,-1e-05,0.0,-5e-05,1e-05,-2e-05,-2e-05,-2.9999999999999997e-05,1e-05,1
1460,1538,-1e-05,0.0,-5e-05,1e-05,-2e-05,-2e-05,-2.9999999999999997e-05,1e-05,1
1461,1539,-1e-05,0.0,-5e-05,1e-05,-2e-05,-2e-05,-2.9999999999999997e-05,1e-05,1
1462,1540,-1e-05,0.0,-5e-05,1e-05,-2e-05,-2e-05,-2.9999999999999997e-05,1e-05,1
1463,1541,-1e-05,0.0,-5e-05,1e-05,-2e-05,-2e-05,-2.9999999999999997e-05,1e-05,1
1464,1542,-1e-05,0.0,-5e-05,1e-05,-2e-05,-2e-05,-2.9999999999999997e-05,1e-05,1
1465,1543,-1e-05,0.0,-5e-05,1e-05,-2e-05,-2e-05,-2.9999999999999997e-05,1e-05,1
1466,1544,-1e-05,0.0,-5e-05,1e-05,-2e-05,-2e-05,-2.9999999999999997e-05,1e-05,1
1467,1545,-1e-05,0.0,-5e-05,1e-05,-2e-05,-2e-05,-2.9999999999999997e-05,1e-05,1
1468,1546,-1e-05,0.0,-5e-05,1e-05,-2e-05,-2e-05,-2.9999999999999997e-05,1e-05,1
1469,1547,-1e-05,0.0,-5e-05,1e-05,-2e-05,-2e-05,-2.9999999999999997e-05,1e-05,1
1470,1548,-4e-05,-7e-05,-2.9999999999999997e-05,2e-05,-2e-05,-2.9999999999999997e-05,-2e-05,-5e-05,1
1471,1549,-4e-05,-7e-05,-2.9999999999999997e-05,2e-05,-2e-05,-2.9999999999999997e-05,-2e-05,-5e-05,1
1472,1550,-2.9999999999999997e-05,-2.9999999999999997e-05,2e-05,2e-05,-2e-05,-2e-05,2e-05,1e-05,1
1473,1551,-2.9999999999999997e-05,-2.9999999999999997e-05,2e-05,2e-05,-2e-05,-2e-05,2e-05,1e-05,1
1474,1552,-2.9999999999999997e-05,-2.9999999999999997e-05,2e-05,2e-05,-2e-05,-2e-05,2e-05,1e-05,1
1475,1553,-2.9999999999999997e-05,-2.9999999999999997e-05,2e-05,2e-05,-2e-05,-2e-05,2e-05,1e-05,1
1476,1554,-2.9999999999999997e-05,-2.9999999999999997e-05,2e-05,2e-05,-2e-05,-2e-05,2e-05,1e-05,1
1477,1555,-2.9999999999999997e-05,-2.9999999999999997e-05,2e-05,2e-05,-2e-05,-2e-05,2e-05,1e-05,1
1478,1556,-2.9999999999999997e-05,-2.9999999999999997e-05,2e-05,2e-05,-2e-05,-2e-05,2e-05,1e-05,1
1479,1557,-2.9999999999999997e-05,-2.9999999999999997e-05,2e-05,2e-05,-2e-05,-2e-05,2e-05,1e-05,1
1480,1558,-2.9999999999999997e-05,-2.9999999999999997e-05,2e-05,2e-05,-2e-05,-2e-05,2e-05,1e-05,1
1481,1559,-2.9999999999999997e-05,-2.9999999999999997e-05,2e-05,2e-05,-2e-05,-2e-05,2e-05,1e-05,1
1482,1560,-2.9999999999999997e-05,-2.9999999999999997e-05,2e-05,2e-05,-2e-05,-2e-05,2e-05,1e-05,1
1483,1561,-2.9999999999999997e-05,-2.9999999999999997e-05,2e-05,2e-05,-2e-05,-2e-05,2e-05,1e-05,1
1484,1562,-1e-05,0.0,2e-05,-2.9999999999999997e-05,-2.9999999999999997e-05,-1e-05,-2.9999999999999997e-05,0.0,1
1485,1563,2e-05,-2e-05,2.9999999999999997e-05,1e-05,2.9999999999999997e-05,-1e-05,-1e-05,2e-05,1
1486,1564,2e-05,-2e-05,2.9999999999999997e-05,1e-05,2.9999999999999997e-05,-1e-05,-1e-05,2e-05,1
1487,1565,2e-05,-2e-05,2.9999999999999997e-05,1e-05,2.9999999999999997e-05,-1e-05,-1e-05,2e-05,1
1488,1566,2e-05,-2e-05,2.9999999999999997e-05,1e-05,2.9999999999999997e-05,-1e-05,-1e-05,2e-05,1
1489,1567,2e-05,-2e-05,2.9999999999999997e-05,1e-05,2.9999999999999997e-05,-1e-05,-1e-05,2e-05,1
1490,1568,2e-05,-2e-05,2.9999999999999997e-05,1e-05,2.9999999999999997e-05,-1e-05,-1e-05,2e-05,1
1491,1569,2e-05,-2e-05,2.9999999999999997e-05,1e-05,2.9999999999999997e-05,-1e-05,-1e-05,2e-05,1
1492,1570,2e-05,-1e-05,-4e-05,-5e-05,-2.9999999999999997e-05,-2.9999999999999997e-05,2e-05,1e-05,1
1493,1571,2e-05,-1e-05,-4e-05,-5e-05,-2.9999999999999997e-05,-2.9999999999999997e-05,2e-05,1e-05,1
1494,1572,2e-05,-1e-05,-4e-05,-5e-05,-2.9999999999999997e-05,-2.9999999999999997e-05,2e-05,1e-05,1
1495,1573,2e-05,-1e-05,-4e-05,-5e-05,-2.9999999999999997e-05,-2.9999999999999997e-05,2e-05,1e-05,1
1496,1574,2e-05,-1e-05,-4e-05,-5e-05,-2.9999999999999997e-05,-2.9999999999999997e-05,2e-05,1e-05,1
1497,1575,2e-05,-1e-05,-4e-05,-5e-05,-2.9999999999999997e-05,-2.9999999999999997e-05,2e-05,1e-05,1
1498,1576,2e-05,-1e-05,-4e-05,-5e-05,-2.9999999999999997e-05,-2.9999999999999997e-05,2e-05,1e-05,1
1499,1577,2e-05,-1e-05,-4e-05,-5e-05,-2.9999999999999997e-05,-2.9999999999999997e-05,2e-05,1e-05,1
1500,1578,2e-05,-1e-05,-4e-05,-5e-05,-2.9999999999999997e-05,-2.9999999999999997e-05,2e-05,1e-05,1
1501,1579,2e-05,-1e-05,-4e-05,-5e-05,-2.9999999999999997e-05,-2.9999999999999997e-05,2e-05,1e-05,1
1502,1580,2e-05,-1e-05,-4e-05,-5e-05,-2.9999999999999997e-05,-2.9999999999999997e-05,2e-05,1e-05,1
1503,1581,2e-05,-1e-05,-4e-05,-5e-05,-2.9999999999999997e-05,-2.9999999999999997e-05,2e-05,1e-05,1
1504,1582,2e-05,-1e-05,-4e-05,-5e-05,-2.9999999999999997e-05,-2.9999999999999997e-05,2e-05,1e-05,1
1505,1583,2e-05,-1e-05,-4e-05,-5e-05,-2.9999999999999997e-05,-2.9999999999999997e-05,2e-05,1e-05,1
1506,1584,2e-05,-1e-05,-4e-05,-5e-05,-2.9999999999999997e-05,-2.9999999999999997e-05,2e-05,1e-05,1
1507,1585,2e-05,-1e-05,-4e-05,-5e-05,-2.9999999999999997e-05,-2.9999999999999997e-05,2e-05,1e-05,1
1508,1587,1e-05,-1e-05,-2e-05,1e-05,-2e-05,-1e-05,-7e-05,-5e-05,1
1509,1589,1e-05,-1e-05,-2e-05,1e-05,-2e-05,-1e-05,-7e-05,-5e-05,1
1510,1590,1e-05,-1e-05,-2e-05,1e-05,-2e-05,-1e-05,-7e-05,-5e-05,1
1511,1591,1e-05,-1e-05,-2e-05,1e-05,-2e-05,-1e-05,-7e-05,-5e-05,1
1512,1592,1e-05,-1e-05,-2e-05,1e-05,-2e-05,-1e-05,-7e-05,-5e-05,1
1513,1593,1e-05,-1e-05,-2e-05,1e-05,-2e-05,-1e-05,-7e-05,-5e-05,1
1514,1594,1e-05,-1e-05,-2e-05,1e-05,-2e-05,-1e-05,-7e-05,-5e-05,1
1515,1595,1e-05,-1e-05,-2e-05,1e-05,-2e-05,-1e-05,-7e-05,-5e-05,1
1516,1596,1e-05,-1e-05,-2e-05,1e-05,-2e-05,-1e-05,-7e-05,-5e-05,1
1517,1597,1e-05,-1e-05,-2e-05,1e-05,-2e-05,-1e-05,-7e-05,-5e-05,1
1518,1598,1e-05,-1e-05,-2e-05,1e-05,-2e-05,-1e-05,-7e-05,-5e-05,1
1519,1599,1e-05,-1e-05,-2e-05,1e-05,-2e-05,-1e-05,-7e-05,-5e-05,1
1520,1600,1e-05,-1e-05,-2e-05,1e-05,-2e-05,-1e-05,-7e-05,-5e-05,1
1521,1601,1e-05,-1e-05,-2e-05,1e-05,-2e-05,-1e-05,-7e-05,-5e-05,1
1522,1602,1e-05,-1e-05,-2e-05,1e-05,-2e-05,-1e-05,-7e-05,-5e-05,1
1523,1603,1e-05,-1e-05,-2e-05,1e-05,-2e-05,-1e-05,-7e-05,-5e-05,1
1524,1604,1e-05,-1e-05,-2e-05,1e-05,-2e-05,-1e-05,-7e-05,-5e-05,1
1525,1605,1e-05,-1e-05,-2e-05,1e-05,-2e-05,-1e-05,-7e-05,-5e-05,1
1526,1606,1e-05,-1e-05,-2e-05,1e-05,-2e-05,-1e-05,-7e-05,-5e-05,1
1527,1607,1e-05,-1e-05,-2e-05,1e-05,-2e-05,-1e-05,-7e-05,-5e-05,1
1528,1608,1e-05,-1e-05,-2e-05,1e-05,-2e-05,-1e-05,-7e-05,-5e-05,1
1529,1609,1e-05,-1e-05,-2e-05,1e-05,-2e-05,-1e-05,-7e-05,-5e-05,1
1530,1610,1e-05,-1e-05,-2e-05,1e-05,-2e-05,-1e-05,-7e-05,-5e-05,1
1531,1611,1e-05,-1e-05,-2e-05,1e-05,-2e-05,-1e-05,-7e-05,-5e-05,1
1532,1612,1e-05,-1e-05,-2e-05,1e-05,-2e-05,-1e-05,-7e-05,-5e-05,1
1533,1613,1e-05,-1e-05,-2e-05,1e-05,-2e-05,-1e-05,-7e-05,-5e-05,1
1534,1614,1e-05,-1e-05,-2e-05,1e-05,-2e-05,-1e-05,-7e-05,-5e-05,1
1535,1615,1e-05,-1e-05,-2e-05,1e-05,-2e-05,-1e-05,-7e-05,-5e-05,1
1536,1616,-4e-05,-5.9999999999999995e-05,-2e-05,-2e-05,-2.9999999999999997e-05,1e-05,0.0,-1e-05,1
1537,1617,-1e-05,-1e-05,5e-05,-2e-05,-2.9999999999999997e-05,2e-05,2e-05,5e-05,1
1538,1618,-1e-05,-1e-05,5e-05,-2e-05,-2.9999999999999997e-05,2e-05,2e-05,5e-05,1
1539,1619,-1e-05,-1e-05,5e-05,-2e-05,-2.9999999999999997e-05,2e-05,2e-05,5e-05,1
1540,1620,-1e-05,-1e-05,5e-05,-2e-05,-2.9999999999999997e-05,2e-05,2e-05,5e-05,1
1541,1621,-1e-05,-1e-05,5e-05,-2e-05,-2.9999999999999997e-05,2e-05,2e-05,5e-05,1
1542,1622,1e-05,2.9999999999999997e-05,2e-05,2e-05,5e-05,0.0,0.0,-1e-05,1
1543,1623,1e-05,2.9999999999999997e-05,2e-05,2e-05,5e-05,0.0,0.0,-1e-05,1
1544,1624,1e-05,2.9999999999999997e-05,2e-05,2e-05,5e-05,0.0,0.0,-1e-05,1
1545,1625,1e-05,2.9999999999999997e-05,2e-05,2e-05,5e-05,0.0,0.0,-1e-05,1
1546,1626,1e-05,2.9999999999999997e-05,2e-05,2e-05,5e-05,0.0,0.0,-1e-05,1
1547,1627,1e-05,2.9999999999999997e-05,2e-05,2e-05,5e-05,0.0,0.0,-1e-05,1
1548,1628,1e-05,2.9999999999999997e-05,2e-05,2e-05,5e-05,0.0,0.0,-1e-05,1
1549,1629,1e-05,2.9999999999999997e-05,2e-05,2e-05,5e-05,0.0,0.0,-1e-05,1
1550,1630,1e-05,2.9999999999999997e-05,2e-05,2e-05,5e-05,0.0,0.0,-1e-05,1
1551,1631,-2e-05,2.9999999999999997e-05,-2.9999999999999997e-05,0.0,1e-05,0.0,-2e-05,-2e-05,1
1552,1632,-2e-05,2.9999999999999997e-05,-2.9999999999999997e-05,0.0,1e-05,0.0,-2e-05,-2e-05,1
1553,1633,-2e-05,2.9999999999999997e-05,-2.9999999999999997e-05,0.0,1e-05,0.0,-2e-05,-2e-05,1
1554,1634,-2e-05,2.9999999999999997e-05,-2.9999999999999997e-05,0.0,1e-05,0.0,-2e-05,-2e-05,1
1555,1635,-2e-05,2.9999999999999997e-05,-2.9999999999999997e-05,0.0,1e-05,0.0,-2e-05,-2e-05,1
1556,1637,-2e-05,2.9999999999999997e-05,-2.9999999999999997e-05,0.0,1e-05,0.0,-2e-05,-2e-05,1
1557,1639,-2e-05,2.9999999999999997e-05,-2.9999999999999997e-05,0.0,1e-05,0.0,-2e-05,-2e-05,1
1558,1640,-2e-05,2.9999999999999997e-05,-2.9999999999999997e-05,0.0,1e-05,0.0,-2e-05,-2e-05,1
1559,1641,-2e-05,2.9999999999999997e-05,-2.9999999999999997e-05,0.0,1e-05,0.0,-2e-05,-2e-05,1
1560,1642,-2e-05,2.9999999999999997e-05,-2.9999999999999997e-05,0.0,1e-05,0.0,-2e-05,-2e-05,1
1561,1643,-2e-05,2.9999999999999997e-05,-2.9999999999999997e-05,0.0,1e-05,0.0,-2e-05,-2e-05,1
1562,1644,-2e-05,2.9999999999999997e-05,-2.9999999999999997e-05,0.0,1e-05,0.0,-2e-05,-2e-05,1
1563,1645,-2e-05,2.9999999999999997e-05,-2.9999999999999997e-05,0.0,1e-05,0.0,-2e-05,-2e-05,1
1564,1646,-2.9999999999999997e-05,0.0,-4e-05,-2.9999999999999997e-05,1e-05,-2.9999999999999997e-05,-2e-05,-2.9999999999999997e-05,1
1565,1647,-2.9999999999999997e-05,0.0,-4e-05,-2.9999999999999997e-05,1e-05,-2.9999999999999997e-05,-2e-05,-2.9999999999999997e-05,1
1566,1648,0.0,-2.9999999999999997e-05,0.0,-5e-05,-2e-05,1e-05,-1e-05,1e-05,1
1567,1649,0.0,-2.9999999999999997e-05,0.0,-5e-05,-2e-05,1e-05,-1e-05,1e-05,1
1568,1650,0.0,-2.9999999999999997e-05,0.0,-5e-05,-2e-05,1e-05,-1e-05,1e-05,1
1569,1651,0.0,-2.9999999999999997e-05,0.0,-5e-05,-2e-05,1e-05,-1e-05,1e-05,1
1570,1652,0.0,-2.9999999999999997e-05,0.0,-5e-05,-2e-05,1e-05,-1e-05,1e-05,1
1571,1653,0.0,-2.9999999999999997e-05,0.0,-5e-05,-2e-05,1e-05,-1e-05,1e-05,1
1572,1654,0.0,-2.9999999999999997e-05,0.0,-5e-05,-2e-05,1e-05,-1e-05,1e-05,1
1573,1655,0.0,-2.9999999999999997e-05,0.0,-5e-05,-2e-05,1e-05,-1e-05,1e-05,1
1574,1656,0.0,-2.9999999999999997e-05,0.0,-5e-05,-2e-05,1e-05,-1e-05,1e-05,1
1575,1657,0.0,-2.9999999999999997e-05,0.0,-5e-05,-2e-05,1e-05,-1e-05,1e-05,1
1576,1658,0.0,-2.9999999999999997e-05,0.0,-5e-05,-2e-05,1e-05,-1e-05,1e-05,1
1577,1659,0.0,-2.9999999999999997e-05,0.0,-5e-05,-2e-05,1e-05,-1e-05,1e-05,1
1578,1660,0.0,-2.9999999999999997e-05,0.0,-5e-05,-2e-05,1e-05,-1e-05,1e-05,1
1579,1661,0.0,-2.9999999999999997e-05,0.0,-5e-05,-2e-05,1e-05,-1e-05,1e-05,1
1580,1662,0.0,-2.9999999999999997e-05,0.0,-5e-05,-2e-05,1e-05,-1e-05,1e-05,1
1581,1663,0.0,-2.9999999999999997e-05,0.0,-5e-05,-2e-05,1e-05,-1e-05,1e-05,1
1582,1664,0.0,-2.9999999999999997e-05,0.0,-5e-05,-2e-05,1e-05,-1e-05,1e-05,1
1583,1665,0.0,-2.9999999999999997e-05,0.0,-5e-05,-2e-05,1e-05,-1e-05,1e-05,1
1584,1666,0.0,-2.9999999999999997e-05,0.0,-5e-05,-2e-05,1e-05,-1e-05,1e-05,1
1585,1667,0.0,-2.9999999999999997e-05,0.0,-5e-05,-2e-05,1e-05,-1e-05,1e-05,1
1586,1668,0.0,-2.9999999999999997e-05,0.0,-5e-05,-2e-05,1e-05,-1e-05,1e-05,1
1587,1669,0.0,-2.9999999999999997e-05,0.0,-5e-05,-2e-05,1e-05,-1e-05,1e-05,1
1588,1670,0.0,-2.9999999999999997e-05,0.0,-5e-05,-2e-05,1e-05,-1e-05,1e-05,1
1589,1671,0.0,-2.9999999999999997e-05,0.0,-5e-05,-2e-05,1e-05,-1e-05,1e-05,1
1590,1672,0.0,-2.9999999999999997e-05,0.0,-5e-05,-2e-05,1e-05,-1e-05,1e-05,1
1591,1673,0.0,-2.9999999999999997e-05,0.0,-5e-05,-2e-05,1e-05,-1e-05,1e-05,1
1592,1674,0.0,-2.9999999999999997e-05,0.0,-5e-05,-2e-05,1e-05,-1e-05,1e-05,1
1593,1675,0.0,-2.9999999999999997e-05,0.0,-5e-05,-2e-05,1e-05,-1e-05,1e-05,1
1594,1676,2e-05,-2e-05,0.0,1e-05,0.0,1e-05,0.0,2e-05,1
1595,1677,-5.9999999999999995e-05,-2.9999999999999997e-05,-2.9999999999999997e-05,-2e-05,-4e-05,-1e-05,-2.9999999999999997e-05,-2e-05,1
1596,1678,-5.9999999999999995e-05,-2.9999999999999997e-05,-2.9999999999999997e-05,-2e-05,-4e-05,-1e-05,-2.9999999999999997e-05,-2e-05,1
1597,1679,-5.9999999999999995e-05,-2.9999999999999997e-05,-2.9999999999999997e-05,-2e-05,-4e-05,-1e-05,-2.9999999999999997e-05,-2e-05,1
1598,1680,-5.9999999999999995e-05,-2.9999999999999997e-05,-2.9999999999999997e-05,-2e-05,-4e-05,-1e-05,-2.9999999999999997e-05,-2e-05,1
1599,1681,-5.9999999999999995e-05,-2.9999999999999997e-05,-2.9999999999999997e-05,-2e-05,-4e-05,-1e-05,-2.9999999999999997e-05,-2e-05,1
1600,1682,0.0,-1e-05,-4e-05,-1e-05,2.9999999999999997e-05,1e-05,-1e-05,-4e-05,1
1601,1683,0.0,-1e-05,-4e-05,-1e-05,2.9999999999999997e-05,1e-05,-1e-05,-4e-05,1
1602,1684,0.0,-1e-05,-4e-05,-1e-05,2.9999999999999997e-05,1e-05,-1e-05,-4e-05,1
1603,1685,0.0,-1e-05,-4e-05,-1e-05,2.9999999999999997e-05,1e-05,-1e-05,-4e-05,1
1604,1687,0.0,-1e-05,-4e-05,-1e-05,2.9999999999999997e-05,1e-05,-1e-05,-4e-05,1
1605,1689,2e-05,0.0,0.0,-2e-05,2e-05,-4e-05,-2e-05,-2.9999999999999997e-05,1
1606,1690,2e-05,0.0,0.0,-2e-05,2e-05,-4e-05,-2e-05,-2.9999999999999997e-05,1
1607,1691,2e-05,0.0,0.0,-2e-05,2e-05,-4e-05,-2e-05,-2.9999999999999997e-05,1
1608,1692,2e-05,0.0,0.0,-2e-05,2e-05,-4e-05,-2e-05,-2.9999999999999997e-05,1
1609,1693,2e-05,0.0,0.0,-2e-05,2e-05,-4e-05,-2e-05,-2.9999999999999997e-05,1
1610,1694,2e-05,0.0,0.0,-2e-05,2e-05,-4e-05,-2e-05,-2.9999999999999997e-05,1
1611,1695,2e-05,0.0,0.0,-2e-05,2e-05,-4e-05,-2e-05,-2.9999999999999997e-05,1
1612,1696,2e-05,0.0,0.0,-2e-05,2e-05,-4e-05,-2e-05,-2.9999999999999997e-05,1
1613,1697,2e-05,0.0,0.0,-2e-05,2e-05,-4e-05,-2e-05,-2.9999999999999997e-05,1
1614,1698,2e-05,0.0,0.0,-2e-05,2e-05,-4e-05,-2e-05,-2.9999999999999997e-05,1
1615,1699,2e-05,0.0,0.0,-2e-05,2e-05,-4e-05,-2e-05,-2.9999999999999997e-05,1
1616,1700,2e-05,0.0,0.0,-2e-05,2e-05,-4e-05,-2e-05,-2.9999999999999997e-05,1
1617,1701,2e-05,0.0,0.0,-2e-05,2e-05,-4e-05,-2e-05,-2.9999999999999997e-05,1
1618,1702,2e-05,0.0,0.0,-2e-05,2e-05,-4e-05,-2e-05,-2.9999999999999997e-05,1
1619,1703,2e-05,0.0,0.0,-2e-05,2e-05,-4e-05,-2e-05,-2.9999999999999997e-05,1
1620,1704,2e-05,0.0,0.0,-2e-05,2e-05,-4e-05,-2e-05,-2.9999999999999997e-05,1
1621,1705,2e-05,0.0,0.0,-2e-05,2e-05,-4e-05,-2e-05,-2.9999999999999997e-05,1
1622,1706,2e-05,0.0,0.0,-2e-05,2e-05,-4e-05,-2e-05,-2.9999999999999997e-05,1
1623,1707,2e-05,0.0,0.0,-2e-05,2e-05,-4e-05,-2e-05,-2.9999999999999997e-05,1
1624,1708,2e-05,0.0,0.0,-2e-05,2e-05,-4e-05,-2e-05,-2.9999999999999997e-05,1
1625,1709,2e-05,0.0,0.0,-2e-05,2e-05,-4e-05,-2e-05,-2.9999999999999997e-05,1
1626,1710,2e-05,0.0,0.0,-2e-05,2e-05,-4e-05,-2e-05,-2.9999999999999997e-05,1
1627,1711,2e-05,0.0,0.0,-2e-05,2e-05,-4e-05,-2e-05,-2.9999999999999997e-05,1
1628,1712,2e-05,0.0,0.0,-2e-05,2e-05,-4e-05,-2e-05,-2.9999999999999997e-05,1
1629,1713,0.0,1e-05,-2.9999999999999997e-05,-9e-05,-1e-05,-1e-05,-4e-05,2.9999999999999997e-05,1
1630,1714,0.0,1e-05,-2.9999999999999997e-05,-9e-05,-1e-05,-1e-05,-4e-05,2.9999999999999997e-05,1
1631,1715,-1e-05,-2.9999999999999997e-05,-1e-05,1e-05,-2e-05,0.0,-1e-05,-2e-05,1
1632,1716,-1e-05,-2.9999999999999997e-05,-1e-05,1e-05,-2e-05,0.0,-1e-05,-2e-05,1
1633,1717,-1e-05,-2.9999999999999997e-05,-1e-05,1e-05,-2e-05,0.0,-1e-05,-2e-05,1
1634,1718,-1e-05,-2.9999999999999997e-05,-1e-05,1e-05,-2e-05,0.0,-1e-05,-2e-05,1
1635,1719,-1e-05,-2.9999999999999997e-05,-1e-05,1e-05,-2e-05,0.0,-1e-05,-2e-05,1
1636,1720,-1e-05,-2.9999999999999997e-05,-1e-05,1e-05,-2e-05,0.0,-1e-05,-2e-05,1
1637,1721,-1e-05,-2.9999999999999997e-05,-1e-05,1e-05,-2e-05,0.0,-1e-05,-2e-05,1
1638,1722,-1e-05,-2.9999999999999997e-05,-1e-05,1e-05,-2e-05,0.0,-1e-05,-2e-05,1
1639,1723,-1e-05,-2.9999999999999997e-05,-1e-05,1e-05,-2e-05,0.0,-1e-05,-2e-05,1
1640,1724,-1e-05,-2.9999999999999997e-05,-1e-05,1e-05,-2e-05,0.0,-1e-05,-2e-05,1
1641,1725,-1e-05,-2.9999999999999997e-05,-1e-05,1e-05,-2e-05,0.0,-1e-05,-2e-05,1
1642,1726,-1e-05,-2.9999999999999997e-05,-1e-05,1e-05,-2e-05,0.0,-1e-05,-2e-05,1
1643,1727,-1e-05,-2.9999999999999997e-05,-1e-05,1e-05,-2e-05,0.0,-1e-05,-2e-05,1
1644,1728,1e-05,-2e-05,1e-05,-2e-05,-1e-05,-1e-05,2.9999999999999997e-05,-2e-05,1
1645,1729,1e-05,-2e-05,1e-05,-2e-05,-1e-05,-1e-05,2.9999999999999997e-05,-2e-05,1
1646,1730,-2.9999999999999997e-05,1e-05,0.0,1e-05,-1e-05,2e-05,2e-05,0.0,1
1647,1731,-2.9999999999999997e-05,1e-05,0.0,1e-05,-1e-05,2e-05,2e-05,0.0,1
1648,1732,-2.9999999999999997e-05,1e-05,0.0,1e-05,-1e-05,2e-05,2e-05,0.0,1
1649,1733,-2.9999999999999997e-05,1e-05,0.0,1e-05,-1e-05,2e-05,2e-05,0.0,1
1650,1734,-2.9999999999999997e-05,1e-05,0.0,1e-05,-1e-05,2e-05,2e-05,0.0,1
1651,1735,-2.9999999999999997e-05,1e-05,0.0,1e-05,-1e-05,2e-05,2e-05,0.0,1
1652,1736,-2.9999999999999997e-05,1e-05,0.0,1e-05,-1e-05,2e-05,2e-05,0.0,1
1653,1738,-2.9999999999999997e-05,1e-05,0.0,1e-05,-1e-05,2e-05,2e-05,0.0,1
1654,1739,-2.9999999999999997e-05,1e-05,0.0,1e-05,-1e-05,2e-05,2e-05,0.0,1
1655,1740,-2.9999999999999997e-05,1e-05,0.0,1e-05,-1e-05,2e-05,2e-05,0.0,1
1656,1741,-2.9999999999999997e-05,1e-05,0.0,1e-05,-1e-05,2e-05,2e-05,0.0,1
1657,1742,-2e-05,-1e-05,-2e-05,1e-05,-5e-05,1e-05,0.0,2.9999999999999997e-05,1
1658,1743,-2e-05,-1e-05,-2e-05,1e-05,-5e-05,1e-05,0.0,2.9999999999999997e-05,1
1659,1744,-2e-05,-1e-05,-2e-05,1e-05,-5e-05,1e-05,0.0,2.9999999999999997e-05,1
1660,1745,-2e-05,-1e-05,-2e-05,1e-05,-5e-05,1e-05,0.0,2.9999999999999997e-05,1
1661,1746,-2e-05,-1e-05,-2e-05,1e-05,-5e-05,1e-05,0.0,2.9999999999999997e-05,1
1662,1747,-2e-05,-1e-05,-2e-05,1e-05,-5e-05,1e-05,0.0,2.9999999999999997e-05,1
1663,1748,-2e-05,-1e-05,-2e-05,1e-05,-5e-05,1e-05,0.0,2.9999999999999997e-05,1
1664,1749,-2e-05,-1e-05,-2e-05,1e-05,-5e-05,1e-05,0.0,2.9999999999999997e-05,1
1665,1750,-2e-05,-1e-05,-2e-05,1e-05,-5e-05,1e-05,0.0,2.9999999999999997e-05,1
1666,1751,-1e-05,-1e-05,-1e-05,-1e-05,2e-05,-2.9999999999999997e-05,-1e-05,-2e-05,1
1667,1752,-1e-05,-1e-05,-1e-05,-1e-05,2e-05,-2.9999999999999997e-05,-1e-05,-2e-05,1
1668,1753,-1e-05,-1e-05,-1e-05,-1e-05,2e-05,-2.9999999999999997e-05,-1e-05,-2e-05,1
1669,1754,-1e-05,-1e-05,-1e-05,-1e-05,2e-05,-2.9999999999999997e-05,-1e-05,-2e-05,1
1670,1755,-1e-05,-1e-05,-1e-05,-1e-05,2e-05,-2.9999999999999997e-05,-1e-05,-2e-05,1
1671,1756,-1e-05,-1e-05,-1e-05,-1e-05,2e-05,-2.9999999999999997e-05,-1e-05,-2e-05,1
1672,1757,-1e-05,-1e-05,-1e-05,-1e-05,2e-05,-2.9999999999999997e-05,-1e-05,-2e-05,1
1673,1758,-1e-05,-1e-05,-1e-05,-1e-05,2e-05,-2.9999999999999997e-05,-1e-05,-2e-05,1
1674,1759,-1e-05,-1e-05,-1e-05,-1e-05,2e-05,-2.9999999999999997e-05,-1e-05,-2e-05,1
1675,1760,-1e-05,-1e-05,-1e-05,-1e-05,2e-05,-2.9999999999999997e-05,-1e-05,-2e-05,1
1676,1761,-1e-05,-1e-05,-1e-05,-1e-05,2e-05,-2.9999999999999997e-05,-1e-05,-2e-05,1
1677,1762,-1e-05,-1e-05,-1e-05,-1e-05,2e-05,-2.9999999999999997e-05,-1e-05,-2e-05,1
1678,1763,-1e-05,-1e-05,-1e-05,-1e-05,2e-05,-2.9999999999999997e-05,-1e-05,-2e-05,1
1679,1764,-1e-05,-1e-05,-1e-05,-1e-05,2e-05,-2.9999999999999997e-05,-1e-05,-2e-05,1
1680,1765,-1e-05,-1e-05,-1e-05,-1e-05,2e-05,-2.9999999999999997e-05,-1e-05,-2e-05,1
1681,1766,-1e-05,-1e-05,-1e-05,-1e-05,2e-05,-2.9999999999999997e-05,-1e-05,-2e-05,1
1682,1767,-1e-05,-5.9999999999999995e-05,-2e-05,2.9999999999999997e-05,2.9999999999999997e-05,-5.9999999999999995e-05,-1e-05,0.0,1
1683,1768,-1e-05,-5.9999999999999995e-05,-2e-05,2.9999999999999997e-05,2.9999999999999997e-05,-5.9999999999999995e-05,-1e-05,0.0,1
1684,1769,-1e-05,1e-05,1e-05,4e-05,-1e-05,4e-05,-2.9999999999999997e-05,-1e-05,1
1685,1770,-1e-05,1e-05,1e-05,4e-05,-1e-05,4e-05,-2.9999999999999997e-05,-1e-05,1
1686,1771,-1e-05,1e-05,1e-05,4e-05,-1e-05,4e-05,-2.9999999999999997e-05,-1e-05,1
1687,1772,-1e-05,1e-05,1e-05,4e-05,-1e-05,4e-05,-2.9999999999999997e-05,-1e-05,1
1688,1773,-1e-05,1e-05,1e-05,4e-05,-1e-05,4e-05,-2.9999999999999997e-05,-1e-05,1
1689,1774,-1e-05,1e-05,1e-05,4e-05,-1e-05,4e-05,-2.9999999999999997e-05,-1e-05,1
1690,1775,-1e-05,1e-05,1e-05,4e-05,-1e-05,4e-05,-2.9999999999999997e-05,-1e-05,1
1691,1776,-1e-05,1e-05,1e-05,4e-05,-1e-05,4e-05,-2.9999999999999997e-05,-1e-05,1
1692,1777,-1e-05,1e-05,1e-05,4e-05,-1e-05,4e-05,-2.9999999999999997e-05,-1e-05,1
1693,1778,-1e-05,1e-05,1e-05,4e-05,-1e-05,4e-05,-2.9999999999999997e-05,-1e-05,1
1694,1779,-1e-05,1e-05,1e-05,4e-05,-1e-05,4e-05,-2.9999999999999997e-05,-1e-05,1
1695,1780,-1e-05,1e-05,1e-05,4e-05,-1e-05,4e-05,-2.9999999999999997e-05,-1e-05,1
1696,1781,-1e-05,1e-05,1e-05,4e-05,-1e-05,4e-05,-2.9999999999999997e-05,-1e-05,1
1697,1782,-1e-05,1e-05,1e-05,4e-05,-1e-05,4e-05,-2.9999999999999997e-05,-1e-05,1
1698,1783,-1e-05,1e-05,1e-05,4e-05,-1e-05,4e-05,-2.9999999999999997e-05,-1e-05,1
1699,1784,-1e-05,1e-05,1e-05,4e-05,-1e-05,4e-05,-2.9999999999999997e-05,-1e-05,1
1700,1785,-1e-05,1e-05,1e-05,4e-05,-1e-05,4e-05,-2.9999999999999997e-05,-1e-05,1
1701,1786,-1e-05,1e-05,1e-05,4e-05,-1e-05,4e-05,-2.9999999999999997e-05,-1e-05,1
1702,1789,0.0,2e-05,-2e-05,-4e-05,-2.9999999999999997e-05,0.0,-4e-05,0.0,1
1703,1790,-1e-05,-2e-05,-2e-05,-2e-05,1e-05,-2e-05,0.0,-2e-05,1
1704,1791,-1e-05,-2e-05,-2e-05,-2e-05,1e-05,-2e-05,0.0,-2e-05,1
1705,1792,-1e-05,-2e-05,-2e-05,-2e-05,1e-05,-2e-05,0.0,-2e-05,1
1706,1793,-1e-05,-2e-05,-2e-05,-2e-05,1e-05,-2e-05,0.0,-2e-05,1
1707,1794,-1e-05,-2e-05,-2e-05,-2e-05,1e-05,-2e-05,0.0,-2e-05,1
1708,1795,-1e-05,-2e-05,-2e-05,-2e-05,1e-05,-2e-05,0.0,-2e-05,1
1709,1796,-1e-05,-2e-05,-2e-05,-2e-05,1e-05,-2e-05,0.0,-2e-05,1
1710,1797,-1e-05,-2e-05,-2e-05,-2e-05,1e-05,-2e-05,0.0,-2e-05,1
1711,1798,-1e-05,-2e-05,-2e-05,-2e-05,1e-05,-2e-05,0.0,-2e-05,1
1712,1799,-1e-05,-2e-05,-2e-05,-2e-05,1e-05,-2e-05,0.0,-2e-05,1
1713,1800,-1e-05,-2e-05,-2e-05,-2e-05,1e-05,-2e-05,0.0,-2e-05,1
1714,1801,-1e-05,-2e-05,-2e-05,-2e-05,1e-05,-2e-05,0.0,-2e-05,1
1715,1802,1e-05,-2e-05,-1e-05,2e-05,-1e-05,-5e-05,1e-05,-4e-05,1
1716,1803,1e-05,-2e-05,-1e-05,2e-05,-1e-05,-5e-05,1e-05,-4e-05,1
1717,1804,1e-05,-2e-05,-1e-05,2e-05,-1e-05,-5e-05,1e-05,-4e-05,1
1718,1805,1e-05,-2e-05,-1e-05,2e-05,-1e-05,-5e-05,1e-05,-4e-05,1
1719,1806,1e-05,-2e-05,-1e-05,2e-05,-1e-05,-5e-05,1e-05,-4e-05,1
1720,1807,1e-05,-2e-05,-1e-05,2e-05,-1e-05,-5e-05,1e-05,-4e-05,1
1721,1808,1e-05,-2e-05,-1e-05,2e-05,-1e-05,-5e-05,1e-05,-4e-05,1
1722,1809,1e-05,-2e-05,-1e-05,2e-05,-1e-05,-5e-05,1e-05,-4e-05,1
1723,1810,1e-05,-2e-05,-1e-05,2e-05,-1e-05,-5e-05,1e-05,-4e-05,1
1724,1811,1e-05,-1e-05,-1e-05,-5.9999999999999995e-05,-2.9999999999999997e-05,-1e-05,-2e-05,1e-05,1
1725,1812,1e-05,-1e-05,-1e-05,-5.9999999999999995e-05,-2.9999999999999997e-05,-1e-05,-2e-05,1e-05,1
1726,1813,1e-05,-1e-05,-1e-05,-5.9999999999999995e-05,-2.9999999999999997e-05,-1e-05,-2e-05,1e-05,1
1727,1814,1e-05,-1e-05,-1e-05,-5.9999999999999995e-05,-2.9999999999999997e-05,-1e-05,-2e-05,1e-05,1
1728,1815,1e-05,-1e-05,-1e-05,-5.9999999999999995e-05,-2.9999999999999997e-05,-1e-05,-2e-05,1e-05,1
1729,1816,1e-05,-1e-05,-1e-05,-5.9999999999999995e-05,-2.9999999999999997e-05,-1e-05,-2e-05,1e-05,1
1730,1817,1e-05,-1e-05,-1e-05,-5.9999999999999995e-05,-2.9999999999999997e-05,-1e-05,-2e-05,1e-05,1
1731,1818,1e-05,-1e-05,-1e-05,-5.9999999999999995e-05,-2.9999999999999997e-05,-1e-05,-2e-05,1e-05,1
1732,1819,1e-05,-1e-05,-1e-05,-5.9999999999999995e-05,-2.9999999999999997e-05,-1e-05,-2e-05,1e-05,1
1733,1820,1e-05,-1e-05,-1e-05,-5.9999999999999995e-05,-2.9999999999999997e-05,-1e-05,-2e-05,1e-05,1
1734,1821,1e-05,-1e-05,-1e-05,-5.9999999999999995e-05,-2.9999999999999997e-05,-1e-05,-2e-05,1e-05,1
1735,1822,1e-05,-1e-05,-1e-05,-5.9999999999999995e-05,-2.9999999999999997e-05,-1e-05,-2e-05,1e-05,1
1736,1823,1e-05,-1e-05,-1e-05,-5.9999999999999995e-05,-2.9999999999999997e-05,-1e-05,-2e-05,1e-05,1
1737,1824,1e-05,-1e-05,-1e-05,-5.9999999999999995e-05,-2.9999999999999997e-05,-1e-05,-2e-05,1e-05,1
1738,1825,-1e-05,-2e-05,0.0,-4e-05,-1e-05,0.0,2e-05,-5e-05,1
1739,1826,-1e-05,-2e-05,0.0,-4e-05,-1e-05,0.0,2e-05,-5e-05,1
1740,1827,-1e-05,-2e-05,0.0,-4e-05,-1e-05,0.0,2e-05,-5e-05,1
1741,1828,-1e-05,-2e-05,0.0,-4e-05,-1e-05,0.0,2e-05,-5e-05,1
1742,1829,-1e-05,-2e-05,0.0,-4e-05,-1e-05,0.0,2e-05,-5e-05,1
1743,1830,-1e-05,-2e-05,0.0,-4e-05,-1e-05,0.0,2e-05,-5e-05,1
1744,1831,-1e-05,-2e-05,0.0,-4e-05,-1e-05,0.0,2e-05,-5e-05,1
1745,1832,-1e-05,-2e-05,0.0,-4e-05,-1e-05,0.0,2e-05,-5e-05,1
1746,1833,-1e-05,-1e-05,0.0,-1e-05,-1e-05,-5.9999999999999995e-05,-1e-05,-4e-05,1
1747,1834,-1e-05,-1e-05,0.0,-1e-05,-1e-05,-5.9999999999999995e-05,-1e-05,-4e-05,1
1748,1835,-1e-05,-1e-05,0.0,-1e-05,-1e-05,-5.9999999999999995e-05,-1e-05,-4e-05,1
1749,1836,-1e-05,-1e-05,0.0,-1e-05,-1e-05,-5.9999999999999995e-05,-1e-05,-4e-05,1
1750,1838,-1e-05,-1e-05,0.0,-1e-05,-1e-05,-5.9999999999999995e-05,-1e-05,-4e-05,1
1751,1839,-1e-05,-1e-05,0.0,-1e-05,-1e-05,-5.9999999999999995e-05,-1e-05,-4e-05,1
1752,1840,-1e-05,-1e-05,0.0,-1e-05,-1e-05,-5.9999999999999995e-05,-1e-05,-4e-05,1
1753,1841,-1e-05,-1e-05,0.0,-1e-05,-1e-05,-5.9999999999999995e-05,-1e-05,-4e-05,1
1754,1842,-1e-05,-1e-05,0.0,-1e-05,-1e-05,-5.9999999999999995e-05,-1e-05,-4e-05,1
1755,1843,-1e-05,-1e-05,0.0,-1e-05,-1e-05,-5.9999999999999995e-05,-1e-05,-4e-05,1
1756,1844,-1e-05,-1e-05,0.0,-1e-05,-1e-05,-5.9999999999999995e-05,-1e-05,-4e-05,1
1757,1845,-1e-05,-1e-05,0.0,-1e-05,-1e-05,-5.9999999999999995e-05,-1e-05,-4e-05,1
1758,1846,-1e-05,-1e-05,0.0,-1e-05,-1e-05,-5.9999999999999995e-05,-1e-05,-4e-05,1
1759,1847,-1e-05,-1e-05,0.0,-1e-05,-1e-05,-5.9999999999999995e-05,-1e-05,-4e-05,1
1760,1848,-2.9999999999999997e-05,2.9999999999999997e-05,1e-05,-1e-05,1e-05,1e-05,-2e-05,-1e-05,1
1761,1849,-2.9999999999999997e-05,2.9999999999999997e-05,1e-05,-1e-05,1e-05,1e-05,-2e-05,-1e-05,1
1762,1850,-1e-05,1e-05,-1e-05,2e-05,-2.9999999999999997e-05,0.0,1e-05,1e-05,1
1763,1851,-1e-05,1e-05,-1e-05,2e-05,-2.9999999999999997e-05,0.0,1e-05,1e-05,1
1764,1852,-1e-05,1e-05,-1e-05,2e-05,-2.9999999999999997e-05,0.0,1e-05,1e-05,1
1765,1853,-1e-05,1e-05,-1e-05,2e-05,-2.9999999999999997e-05,0.0,1e-05,1e-05,1
1766,1854,-1e-05,1e-05,-1e-05,2e-05,-2.9999999999999997e-05,0.0,1e-05,1e-05,1
1767,1855,-1e-05,1e-05,-1e-05,2e-05,-2.9999999999999997e-05,0.0,1e-05,1e-05,1
1768,1856,-1e-05,1e-05,-1e-05,2e-05,-2.9999999999999997e-05,0.0,1e-05,1e-05,1
1769,1857,-1e-05,1e-05,-1e-05,2e-05,-2.9999999999999997e-05,0.0,1e-05,1e-05,1
1770,1858,-1e-05,1e-05,-1e-05,2e-05,-2.9999999999999997e-05,0.0,1e-05,1e-05,1
1771,1859,-1e-05,1e-05,-1e-05,2e-05,-2.9999999999999997e-05,0.0,1e-05,1e-05,1
1772,1860,-1e-05,1e-05,-1e-05,2e-05,-2.9999999999999997e-05,0.0,1e-05,1e-05,1
1773,1861,-1e-05,1e-05,-1e-05,2e-05,-2.9999999999999997e-05,0.0,1e-05,1e-05,1
1774,1862,1e-05,-2e-05,-1e-05,0.0,-5e-05,-5.9999999999999995e-05,-1e-05,2e-05,1
1775,1863,1e-05,-2e-05,-1e-05,0.0,-5e-05,-5.9999999999999995e-05,-1e-05,2e-05,1
1776,1864,1e-05,-2e-05,-1e-05,0.0,-5e-05,-5.9999999999999995e-05,-1e-05,2e-05,1
1777,1865,1e-05,-2e-05,-1e-05,0.0,-5e-05,-5.9999999999999995e-05,-1e-05,2e-05,1
1778,1866,1e-05,-2e-05,-1e-05,0.0,-5e-05,-5.9999999999999995e-05,-1e-05,2e-05,1
1779,1867,1e-05,-2e-05,-1e-05,0.0,-5e-05,-5.9999999999999995e-05,-1e-05,2e-05,1
1780,1868,1e-05,-2e-05,-1e-05,0.0,-5e-05,-5.9999999999999995e-05,-1e-05,2e-05,1
1781,1869,1e-05,-2e-05,-1e-05,0.0,-5e-05,-5.9999999999999995e-05,-1e-05,2e-05,1
1782,1870,1e-05,-2e-05,-1e-05,0.0,-5e-05,-5.9999999999999995e-05,-1e-05,2e-05,1
1783,1871,0.0,-4e-05,-4e-05,-2.9999999999999997e-05,0.0,-1e-05,2e-05,2.9999999999999997e-05,1
1784,1872,0.0,-4e-05,-4e-05,-2.9999999999999997e-05,0.0,-1e-05,2e-05,2.9999999999999997e-05,1
1785,1873,0.0,-4e-05,-4e-05,-2.9999999999999997e-05,0.0,-1e-05,2e-05,2.9999999999999997e-05,1
1786,1874,0.0,-4e-05,-4e-05,-2.9999999999999997e-05,0.0,-1e-05,2e-05,2.9999999999999997e-05,1
1787,1875,0.0,-4e-05,-4e-05,-2.9999999999999997e-05,0.0,-1e-05,2e-05,2.9999999999999997e-05,1
1788,1876,0.0,-4e-05,-4e-05,-2.9999999999999997e-05,0.0,-1e-05,2e-05,2.9999999999999997e-05,1
1789,1877,0.0,-4e-05,-4e-05,-2.9999999999999997e-05,0.0,-1e-05,2e-05,2.9999999999999997e-05,1
1790,1878,0.0,-4e-05,-4e-05,-2.9999999999999997e-05,0.0,-1e-05,2e-05,2.9999999999999997e-05,1
1791,1879,0.0,-4e-05,-4e-05,-2.9999999999999997e-05,0.0,-1e-05,2e-05,2.9999999999999997e-05,1
1792,1880,0.0,-4e-05,-4e-05,-2.9999999999999997e-05,0.0,-1e-05,2e-05,2.9999999999999997e-05,1
1793,1881,0.0,-4e-05,-4e-05,-2.9999999999999997e-05,0.0,-1e-05,2e-05,2.9999999999999997e-05,1
1794,1882,0.0,-4e-05,-4e-05,-2.9999999999999997e-05,0.0,-1e-05,2e-05,2.9999999999999997e-05,1
1795,1883,0.0,-4e-05,-4e-05,-2.9999999999999997e-05,0.0,-1e-05,2e-05,2.9999999999999997e-05,1
1796,1884,0.0,-4e-05,-4e-05,-2.9999999999999997e-05,0.0,-1e-05,2e-05,2.9999999999999997e-05,1
1797,1885,0.0,-4e-05,-4e-05,-2.9999999999999997e-05,0.0,-1e-05,2e-05,2.9999999999999997e-05,1
1798,1886,-1e-05,2e-05,-2.9999999999999997e-05,2e-05,1e-05,2.9999999999999997e-05,-4e-05,-4e-05,1
1799,1888,-1e-05,2e-05,2e-05,1e-05,2e-05,1e-05,-1e-05,-1e-05,1
1800,1889,-1e-05,2e-05,2e-05,1e-05,2e-05,1e-05,-1e-05,-1e-05,1
1801,1890,-1e-05,2e-05,2e-05,1e-05,2e-05,1e-05,-1e-05,-1e-05,1
1802,1891,-1e-05,2e-05,2e-05,1e-05,2e-05,1e-05,-1e-05,-1e-05,1
1803,1892,-1e-05,2e-05,2e-05,1e-05,2e-05,1e-05,-1e-05,-1e-05,1
1804,1893,-1e-05,2e-05,2e-05,1e-05,2e-05,1e-05,-1e-05,-1e-05,1
1805,1894,-1e-05,2e-05,2e-05,1e-05,2e-05,1e-05,-1e-05,-1e-05,1
1806,1895,-1e-05,2e-05,2e-05,1e-05,2e-05,1e-05,-1e-05,-1e-05,1
1807,1896,-1e-05,2e-05,2e-05,1e-05,2e-05,1e-05,-1e-05,-1e-05,1
1808,1897,-1e-05,2e-05,2e-05,1e-05,2e-05,1e-05,-1e-05,-1e-05,1
1809,1898,-1e-05,2e-05,2e-05,1e-05,2e-05,1e-05,-1e-05,-1e-05,1
1810,1899,-1e-05,2e-05,2e-05,1e-05,2e-05,1e-05,-1e-05,-1e-05,1
1811,1900,-1e-05,2e-05,2e-05,1e-05,2e-05,1e-05,-1e-05,-1e-05,1
1812,1901,-1e-05,2e-05,2e-05,1e-05,2e-05,1e-05,-1e-05,-1e-05,1
1813,1902,-1e-05,2e-05,2e-05,1e-05,2e-05,1e-05,-1e-05,-1e-05,1
1814,1903,-1e-05,2e-05,2e-05,1e-05,2e-05,1e-05,-1e-05,-1e-05,1
1815,1904,-1e-05,2e-05,2e-05,1e-05,2e-05,1e-05,-1e-05,-1e-05,1
1816,1905,-1e-05,2e-05,2e-05,1e-05,2e-05,1e-05,-1e-05,-1e-05,1
1817,1906,-1e-05,2e-05,2e-05,1e-05,2e-05,1e-05,-1e-05,-1e-05,1
1818,1907,-1e-05,2e-05,2e-05,1e-05,2e-05,1e-05,-1e-05,-1e-05,1
1819,1908,1e-05,-2.9999999999999997e-05,1e-05,-2.9999999999999997e-05,-1e-05,-2e-05,-1e-05,1e-05,1
1820,1909,1e-05,-2.9999999999999997e-05,1e-05,-2.9999999999999997e-05,-1e-05,-2e-05,-1e-05,1e-05,1
1821,1910,-2.9999999999999997e-05,-2.9999999999999997e-05,2e-05,-1e-05,-5.9999999999999995e-05,-1e-05,-1e-05,-4e-05,1
1822,1911,-2.9999999999999997e-05,-2.9999999999999997e-05,2e-05,-1e-05,-5.9999999999999995e-05,-1e-05,-1e-05,-4e-05,1
1823,1912,-2.9999999999999997e-05,-2.9999999999999997e-05,2e-05,-1e-05,-5.9999999999999995e-05,-1e-05,-1e-05,-4e-05,1
1824,1913,-2.9999999999999997e-05,-2.9999999999999997e-05,2e-05,-1e-05,-5.9999999999999995e-05,-1e-05,-1e-05,-4e-05,1
1825,1914,-2.9999999999999997e-05,-2.9999999999999997e-05,2e-05,-1e-05,-5.9999999999999995e-05,-1e-05,-1e-05,-4e-05,1
1826,1915,-2.9999999999999997e-05,-2.9999999999999997e-05,2e-05,-1e-05,-5.9999999999999995e-05,-1e-05,-1e-05,-4e-05,1
1827,1916,-2.9999999999999997e-05,-2.9999999999999997e-05,2e-05,-1e-05,-5.9999999999999995e-05,-1e-05,-1e-05,-4e-05,1
1828,1917,-2.9999999999999997e-05,-2.9999999999999997e-05,2e-05,-1e-05,-5.9999999999999995e-05,-1e-05,-1e-05,-4e-05,1
1829,1918,-2.9999999999999997e-05,-2.9999999999999997e-05,2e-05,-1e-05,-5.9999999999999995e-05,-1e-05,-1e-05,-4e-05,1
1830,1919,-2.9999999999999997e-05,-2.9999999999999997e-05,2e-05,-1e-05,-5.9999999999999995e-05,-1e-05,-1e-05,-4e-05,1
1831,1920,-2.9999999999999997e-05,-2.9999999999999997e-05,2e-05,-1e-05,-5.9999999999999995e-05,-1e-05,-1e-05,-4e-05,1
1832,1921,-2.9999999999999997e-05,-2.9999999999999997e-05,2e-05,-1e-05,-5.9999999999999995e-05,-1e-05,-1e-05,-4e-05,1
1833,1922,-2e-05,0.0,-4e-05,-2e-05,-5e-05,-5.9999999999999995e-05,-1e-05,-2e-05,1
1834,1923,-2e-05,0.0,-4e-05,-2e-05,-5e-05,-5.9999999999999995e-05,-1e-05,-2e-05,1
1835,1924,-2e-05,0.0,-4e-05,-2e-05,-5e-05,-5.9999999999999995e-05,-1e-05,-2e-05,1
1836,1925,-2e-05,0.0,-4e-05,-2e-05,-5e-05,-5.9999999999999995e-05,-1e-05,-2e-05,1
1837,1926,-2e-05,0.0,-4e-05,-2e-05,-5e-05,-5.9999999999999995e-05,-1e-05,-2e-05,1
1838,1927,-2e-05,0.0,-4e-05,-2e-05,-5e-05,-5.9999999999999995e-05,-1e-05,-2e-05,1
1839,1928,-2e-05,0.0,-4e-05,-2e-05,-5e-05,-5.9999999999999995e-05,-1e-05,-2e-05,1
1840,1929,-2e-05,0.0,-4e-05,-2e-05,-5e-05,-5.9999999999999995e-05,-1e-05,-2e-05,1
1841,1930,-2e-05,0.0,-4e-05,-2e-05,-5e-05,-5.9999999999999995e-05,-1e-05,-2e-05,1
1842,1931,-2e-05,1e-05,-2e-05,1e-05,2.9999999999999997e-05,-2.9999999999999997e-05,-1e-05,-2e-05,1
1843,1932,-2e-05,1e-05,-2e-05,1e-05,2.9999999999999997e-05,-2.9999999999999997e-05,-1e-05,-2e-05,1
1844,1933,-2e-05,1e-05,-2e-05,1e-05,2.9999999999999997e-05,-2.9999999999999997e-05,-1e-05,-2e-05,1
1845,1934,-2e-05,1e-05,-2e-05,1e-05,2.9999999999999997e-05,-2.9999999999999997e-05,-1e-05,-2e-05,1
1846,1935,-2e-05,1e-05,-2e-05,1e-05,2.9999999999999997e-05,-2.9999999999999997e-05,-1e-05,-2e-05,1
1847,1936,-2e-05,1e-05,-2e-05,1e-05,2.9999999999999997e-05,-2.9999999999999997e-05,-1e-05,-2e-05,1
1848,1938,-2e-05,1e-05,-2e-05,1e-05,2.9999999999999997e-05,-2.9999999999999997e-05,-1e-05,-2e-05,1
1849,1939,-2e-05,1e-05,-2e-05,1e-05,2.9999999999999997e-05,-2.9999999999999997e-05,-1e-05,-2e-05,1
1850,1940,-2e-05,1e-05,-2e-05,1e-05,2.9999999999999997e-05,-2.9999999999999997e-05,-1e-05,-2e-05,1
1851,1941,-2e-05,1e-05,-2e-05,1e-05,2.9999999999999997e-05,-2.9999999999999997e-05,-1e-05,-2e-05,1
1852,1942,-2e-05,1e-05,-2e-05,1e-05,2.9999999999999997e-05,-2.9999999999999997e-05,-1e-05,-2e-05,1
1853,1943,-2e-05,1e-05,-2e-05,1e-05,2.9999999999999997e-05,-2.9999999999999997e-05,-1e-05,-2e-05,1
1854,1944,-2e-05,1e-05,-2e-05,1e-05,2.9999999999999997e-05,-2.9999999999999997e-05,-1e-05,-2e-05,1
1855,1945,-2e-05,1e-05,-2e-05,1e-05,2.9999999999999997e-05,-2.9999999999999997e-05,-1e-05,-2e-05,1
1856,1946,-2e-05,1e-05,-2e-05,1e-05,2.9999999999999997e-05,-2.9999999999999997e-05,-1e-05,-2e-05,1
1857,1947,-2e-05,1e-05,-2e-05,1e-05,2.9999999999999997e-05,-2.9999999999999997e-05,-1e-05,-2e-05,1
1858,1948,-2e-05,1e-05,-2e-05,1e-05,2.9999999999999997e-05,-2.9999999999999997e-05,-1e-05,-2e-05,1
1859,1949,-2e-05,1e-05,-2e-05,1e-05,2.9999999999999997e-05,-2.9999999999999997e-05,-1e-05,-2e-05,1
1860,1950,-2e-05,1e-05,-2e-05,1e-05,2.9999999999999997e-05,-2.9999999999999997e-05,-1e-05,-2e-05,1
1861,1951,-2e-05,1e-05,-2e-05,1e-05,2.9999999999999997e-05,-2.9999999999999997e-05,-1e-05,-2e-05,1
1862,1952,-2e-05,1e-05,-2e-05,1e-05,2.9999999999999997e-05,-2.9999999999999997e-05,-1e-05,-2e-05,1
1863,1953,-1e-05,-2e-05,-2.9999999999999997e-05,-1e-05,-2e-05,0.0,-2e-05,2.9999999999999997e-05,1
1864,1954,-1e-05,-2e-05,-2.9999999999999997e-05,-1e-05,-2e-05,0.0,-2e-05,2.9999999999999997e-05,1
1865,1955,-1e-05,-1e-05,-1e-05,-2.9999999999999997e-05,-1e-05,0.0,-1e-05,2e-05,1
1866,1956,-1e-05,-1e-05,-1e-05,-2.9999999999999997e-05,-1e-05,0.0,-1e-05,2e-05,1
1867,1957,-1e-05,-1e-05,-1e-05,-2.9999999999999997e-05,-1e-05,0.0,-1e-05,2e-05,1
1868,1958,-1e-05,-1e-05,-1e-05,-2.9999999999999997e-05,-1e-05,0.0,-1e-05,2e-05,1
1869,1959,-1e-05,-1e-05,-1e-05,-2.9999999999999997e-05,-1e-05,0.0,-1e-05,2e-05,1
1870,1960,-1e-05,-1e-05,-1e-05,-2.9999999999999997e-05,-1e-05,0.0,-1e-05,2e-05,1
1871,1961,-1e-05,-1e-05,-1e-05,-2.9999999999999997e-05,-1e-05,0.0,-1e-05,2e-05,1
1872,1962,-1e-05,-1e-05,-1e-05,-2.9999999999999997e-05,-1e-05,0.0,-1e-05,2e-05,1
1873,1963,-1e-05,-1e-05,-1e-05,-2.9999999999999997e-05,-1e-05,0.0,-1e-05,2e-05,1
1874,1964,-1e-05,-1e-05,-1e-05,-2.9999999999999997e-05,-1e-05,0.0,-1e-05,2e-05,1
1875,1965,-1e-05,-1e-05,-1e-05,-2.9999999999999997e-05,-1e-05,0.0,-1e-05,2e-05,1
1876,1966,-1e-05,-1e-05,-1e-05,-2.9999999999999997e-05,-1e-05,0.0,-1e-05,2e-05,1
1877,1967,-1e-05,-1e-05,-1e-05,-2.9999999999999997e-05,-1e-05,0.0,-1e-05,2e-05,1
1878,1968,0.0,-1e-05,-2e-05,-2e-05,5e-05,2e-05,2e-05,1e-05,1
1879,1969,0.0,-1e-05,-2e-05,-2e-05,5e-05,2e-05,2e-05,1e-05,1
1880,1970,2e-05,2e-05,0.0,-2.9999999999999997e-05,2e-05,-2.9999999999999997e-05,-1e-05,0.0,1
1881,1971,2e-05,2e-05,0.0,-2.9999999999999997e-05,2e-05,-2.9999999999999997e-05,-1e-05,0.0,1
1882,1972,2e-05,2e-05,0.0,-2.9999999999999997e-05,2e-05,-2.9999999999999997e-05,-1e-05,0.0,1
1883,1973,2e-05,2e-05,0.0,-2.9999999999999997e-05,2e-05,-2.9999999999999997e-05,-1e-05,0.0,1
1884,1974,2e-05,2e-05,0.0,-2.9999999999999997e-05,2e-05,-2.9999999999999997e-05,-1e-05,0.0,1
1885,1975,2e-05,2e-05,0.0,-2.9999999999999997e-05,2e-05,-2.9999999999999997e-05,-1e-05,0.0,1
1886,1976,2e-05,2e-05,0.0,-2.9999999999999997e-05,2e-05,-2.9999999999999997e-05,-1e-05,0.0,1
1887,1977,2e-05,2e-05,0.0,-2.9999999999999997e-05,2e-05,-2.9999999999999997e-05,-1e-05,0.0,1
1888,1978,2e-05,2e-05,0.0,-2.9999999999999997e-05,2e-05,-2.9999999999999997e-05,-1e-05,0.0,1
1889,1979,2e-05,2e-05,0.0,-2.9999999999999997e-05,2e-05,-2.9999999999999997e-05,-1e-05,0.0,1
1890,1980,2e-05,2e-05,0.0,-2.9999999999999997e-05,2e-05,-2.9999999999999997e-05,-1e-05,0.0,1
1891,1981,2e-05,2e-05,0.0,-2.9999999999999997e-05,2e-05,-2.9999999999999997e-05,-1e-05,0.0,1
1892,1982,-2.9999999999999997e-05,2e-05,5e-05,2.9999999999999997e-05,-5e-05,0.0,-2e-05,-2e-05,1
1893,1983,-2.9999999999999997e-05,2e-05,5e-05,2.9999999999999997e-05,-5e-05,0.0,-2e-05,-2e-05,1
1894,1984,-2.9999999999999997e-05,2e-05,5e-05,2.9999999999999997e-05,-5e-05,0.0,-2e-05,-2e-05,1
1895,1985,-2.9999999999999997e-05,2e-05,5e-05,2.9999999999999997e-05,-5e-05,0.0,-2e-05,-2e-05,1
1896,1986,-2.9999999999999997e-05,2e-05,5e-05,2.9999999999999997e-05,-5e-05,0.0,-2e-05,-2e-05,1
1897,1988,-2.9999999999999997e-05,2e-05,5e-05,2.9999999999999997e-05,-5e-05,0.0,-2e-05,-2e-05,1
1898,1989,-2.9999999999999997e-05,2e-05,5e-05,2.9999999999999997e-05,-5e-05,0.0,-2e-05,-2e-05,1
1899,1990,-2.9999999999999997e-05,2e-05,5e-05,2.9999999999999997e-05,-5e-05,0.0,-2e-05,-2e-05,1
1900,1991,0.0,-2.9999999999999997e-05,0.0,-1e-05,-8e-05,0.0,-1e-05,-2.9999999999999997e-05,1
1901,1992,0.0,-2.9999999999999997e-05,0.0,-1e-05,-8e-05,0.0,-1e-05,-2.9999999999999997e-05,1
1902,1993,0.0,-2.9999999999999997e-05,0.0,-1e-05,-8e-05,0.0,-1e-05,-2.9999999999999997e-05,1
1903,1994,0.0,-2.9999999999999997e-05,0.0,-1e-05,-8e-05,0.0,-1e-05,-2.9999999999999997e-05,1
1904,1995,0.0,-2.9999999999999997e-05,0.0,-1e-05,-8e-05,0.0,-1e-05,-2.9999999999999997e-05,1
1905,1996,0.0,-2.9999999999999997e-05,0.0,-1e-05,-8e-05,0.0,-1e-05,-2.9999999999999997e-05,1
1906,1997,0.0,-2.9999999999999997e-05,0.0,-1e-05,-8e-05,0.0,-1e-05,-2.9999999999999997e-05,1
1907,1998,0.0,-2.9999999999999997e-05,0.0,-1e-05,-8e-05,0.0,-1e-05,-2.9999999999999997e-05,1
1908,1999,0.0,-2.9999999999999997e-05,0.0,-1e-05,-8e-05,0.0,-1e-05,-2.9999999999999997e-05,1
1909,2000,0.0,-2.9999999999999997e-05,0.0,-1e-05,-8e-05,0.0,-1e-05,-2.9999999999999997e-05,1
1910,2001,0.0,-2.9999999999999997e-05,0.0,-1e-05,-8e-05,0.0,-1e-05,-2.9999999999999997e-05,1
1911,2002,0.0,-2.9999999999999997e-05,0.0,-1e-05,-8e-05,0.0,-1e-05,-2.9999999999999997e-05,1
1912,2003,0.0,-2.9999999999999997e-05,0.0,-1e-05,-8e-05,0.0,-1e-05,-2.9999999999999997e-05,1
1913,2004,0.0,-2.9999999999999997e-05,0.0,-1e-05,-8e-05,0.0,-1e-05,-2.9999999999999997e-05,1
1914,2005,0.0,-2.9999999999999997e-05,0.0,-1e-05,-8e-05,0.0,-1e-05,-2.9999999999999997e-05,1
1915,2006,-1e-05,-4e-05,-1e-05,-4e-05,-5.9999999999999995e-05,0.0,-4e-05,-2.9999999999999997e-05,1
1916,2007,-2.9999999999999997e-05,-2.9999999999999997e-05,-2.9999999999999997e-05,0.0,0.0,-2.9999999999999997e-05,-1e-05,-1e-05,1
1917,2008,-2.9999999999999997e-05,-2.9999999999999997e-05,-2.9999999999999997e-05,0.0,0.0,-2.9999999999999997e-05,-1e-05,-1e-05,1
1918,2009,-2.9999999999999997e-05,-2.9999999999999997e-05,-2.9999999999999997e-05,0.0,0.0,-2.9999999999999997e-05,-1e-05,-1e-05,1
1919,2010,-2.9999999999999997e-05,-2.9999999999999997e-05,-2.9999999999999997e-05,0.0,0.0,-2.9999999999999997e-05,-1e-05,-1e-05,1
1920,2011,-2.9999999999999997e-05,-2.9999999999999997e-05,-2.9999999999999997e-05,0.0,0.0,-2.9999999999999997e-05,-1e-05,-1e-05,1
1921,2012,-2.9999999999999997e-05,-2.9999999999999997e-05,-2.9999999999999997e-05,0.0,0.0,-2.9999999999999997e-05,-1e-05,-1e-05,1
1922,2013,-2.9999999999999997e-05,-2.9999999999999997e-05,-2.9999999999999997e-05,0.0,0.0,-2.9999999999999997e-05,-1e-05,-1e-05,1
1923,2014,-2.9999999999999997e-05,-2.9999999999999997e-05,-2.9999999999999997e-05,0.0,0.0,-2.9999999999999997e-05,-1e-05,-1e-05,1
1924,2015,-2.9999999999999997e-05,-2.9999999999999997e-05,-2.9999999999999997e-05,0.0,0.0,-2.9999999999999997e-05,-1e-05,-1e-05,1
1925,2016,-2.9999999999999997e-05,-2.9999999999999997e-05,-2.9999999999999997e-05,0.0,0.0,-2.9999999999999997e-05,-1e-05,-1e-05,1
1926,2017,-2.9999999999999997e-05,-2.9999999999999997e-05,-2.9999999999999997e-05,0.0,0.0,-2.9999999999999997e-05,-1e-05,-1e-05,1
1927,2018,-2.9999999999999997e-05,-2.9999999999999997e-05,-2.9999999999999997e-05,0.0,0.0,-2.9999999999999997e-05,-1e-05,-1e-05,1
1928,2019,-2.9999999999999997e-05,-2.9999999999999997e-05,-2.9999999999999997e-05,0.0,0.0,-2.9999999999999997e-05,-1e-05,-1e-05,1
1929,2020,-2.9999999999999997e-05,-2.9999999999999997e-05,-2.9999999999999997e-05,0.0,0.0,-2.9999999999999997e-05,-1e-05,-1e-05,1
1930,2021,-2.9999999999999997e-05,-2.9999999999999997e-05,-2.9999999999999997e-05,0.0,0.0,-2.9999999999999997e-05,-1e-05,-1e-05,1
1931,2022,-2.9999999999999997e-05,-2.9999999999999997e-05,-2.9999999999999997e-05,0.0,0.0,-2.9999999999999997e-05,-1e-05,-1e-05,1
1932,2023,-2.9999999999999997e-05,-2.9999999999999997e-05,-2.9999999999999997e-05,0.0,0.0,-2.9999999999999997e-05,-1e-05,-1e-05,1
1933,2024,-2.9999999999999997e-05,-2.9999999999999997e-05,-2.9999999999999997e-05,0.0,0.0,-2.9999999999999997e-05,-1e-05,-1e-05,1
1934,2025,-2.9999999999999997e-05,-2.9999999999999997e-05,-2.9999999999999997e-05,0.0,0.0,-2.9999999999999997e-05,-1e-05,-1e-05,1
1935,2026,-2.9999999999999997e-05,-2.9999999999999997e-05,-2.9999999999999997e-05,0.0,0.0,-2.9999999999999997e-05,-1e-05,-1e-05,1
1936,2027,-2.9999999999999997e-05,-2.9999999999999997e-05,-2.9999999999999997e-05,0.0,0.0,-2.9999999999999997e-05,-1e-05,-1e-05,1
1937,2028,0.0,2e-05,-2.9999999999999997e-05,-1e-05,5e-05,-4e-05,-2e-05,1e-05,1
1938,2029,0.0,2e-05,-2.9999999999999997e-05,-1e-05,5e-05,-4e-05,-2e-05,1e-05,1
1939,2030,0.0,2e-05,-1e-05,1e-05,2.9999999999999997e-05,-2.9999999999999997e-05,0.0,-2.9999999999999997e-05,1
1940,2031,0.0,2e-05,-1e-05,1e-05,2.9999999999999997e-05,-2.9999999999999997e-05,0.0,-2.9999999999999997e-05,1
1941,2032,0.0,2e-05,-1e-05,1e-05,2.9999999999999997e-05,-2.9999999999999997e-05,0.0,-2.9999999999999997e-05,1
1942,2033,0.0,2e-05,-1e-05,1e-05,2.9999999999999997e-05,-2.9999999999999997e-05,0.0,-2.9999999999999997e-05,1
1943,2035,0.0,2e-05,-1e-05,1e-05,2.9999999999999997e-05,-2.9999999999999997e-05,0.0,-2.9999999999999997e-05,1
1944,2036,0.0,2e-05,-1e-05,1e-05,2.9999999999999997e-05,-2.9999999999999997e-05,0.0,-2.9999999999999997e-05,1
1945,2038,0.0,2e-05,-1e-05,1e-05,2.9999999999999997e-05,-2.9999999999999997e-05,0.0,-2.9999999999999997e-05,1
1946,2039,0.0,2e-05,-1e-05,1e-05,2.9999999999999997e-05,-2.9999999999999997e-05,0.0,-2.9999999999999997e-05,1
1947,2040,0.0,2e-05,-1e-05,1e-05,2.9999999999999997e-05,-2.9999999999999997e-05,0.0,-2.9999999999999997e-05,1
1948,2041,0.0,2e-05,-1e-05,1e-05,2.9999999999999997e-05,-2.9999999999999997e-05,0.0,-2.9999999999999997e-05,1
1949,2042,0.0,-2e-05,1e-05,-1e-05,-2.9999999999999997e-05,-2e-05,1e-05,-2e-05,1
1950,2043,0.0,-2e-05,1e-05,-1e-05,-2.9999999999999997e-05,-2e-05,1e-05,-2e-05,1
1951,2044,0.0,-2e-05,1e-05,-1e-05,-2.9999999999999997e-05,-2e-05,1e-05,-2e-05,1
1952,2045,0.0,-2e-05,1e-05,-1e-05,-2.9999999999999997e-05,-2e-05,1e-05,-2e-05,1
1953,2046,0.0,-2e-05,1e-05,-1e-05,-2.9999999999999997e-05,-2e-05,1e-05,-2e-05,1
1954,2047,0.0,-2e-05,1e-05,-1e-05,-2.9999999999999997e-05,-2e-05,1e-05,-2e-05,1
1955,2048,0.0,-2e-05,1e-05,-1e-05,-2.9999999999999997e-05,-2e-05,1e-05,-2e-05,1
1956,2049,0.0,-2e-05,1e-05,-1e-05,-2.9999999999999997e-05,-2e-05,1e-05,-2e-05,1
1957,2050,0.0,-2e-05,1e-05,-1e-05,-2.9999999999999997e-05,-2e-05,1e-05,-2e-05,1
1958,2051,1e-05,-7e-05,2e-05,1e-05,-2e-05,2e-05,0.0,-2.9999999999999997e-05,1
1959,2052,1e-05,-7e-05,2e-05,1e-05,-2e-05,2e-05,0.0,-2.9999999999999997e-05,1
1960,2053,1e-05,-7e-05,2e-05,1e-05,-2e-05,2e-05,0.0,-2.9999999999999997e-05,1
1961,2054,1e-05,-7e-05,2e-05,1e-05,-2e-05,2e-05,0.0,-2.9999999999999997e-05,1
1962,2055,1e-05,-7e-05,2e-05,1e-05,-2e-05,2e-05,0.0,-2.9999999999999997e-05,1
1963,2056,1e-05,-7e-05,2e-05,1e-05,-2e-05,2e-05,0.0,-2.9999999999999997e-05,1
1964,2057,1e-05,-7e-05,2e-05,1e-05,-2e-05,2e-05,0.0,-2.9999999999999997e-05,1
1965,2058,1e-05,-7e-05,2e-05,1e-05,-2e-05,2e-05,0.0,-2.9999999999999997e-05,1
1966,2059,1e-05,-7e-05,2e-05,1e-05,-2e-05,2e-05,0.0,-2.9999999999999997e-05,1
1967,2060,1e-05,-7e-05,2e-05,1e-05,-2e-05,2e-05,0.0,-2.9999999999999997e-05,1
1968,2061,1e-05,-7e-05,2e-05,1e-05,-2e-05,2e-05,0.0,-2.9999999999999997e-05,1
1969,2062,1e-05,-7e-05,2e-05,1e-05,-2e-05,2e-05,0.0,-2.9999999999999997e-05,1
1970,2063,1e-05,-7e-05,2e-05,1e-05,-2e-05,2e-05,0.0,-2.9999999999999997e-05,1
1971,2064,1e-05,-7e-05,2e-05,1e-05,-2e-05,2e-05,0.0,-2.9999999999999997e-05,1
1972,2065,1e-05,-7e-05,2e-05,1e-05,-2e-05,2e-05,0.0,-2.9999999999999997e-05,1
1973,2066,-1e-05,-2.9999999999999997e-05,-2e-05,-2e-05,-2e-05,4e-05,2e-05,1e-05,1
1974,2067,0.0,1e-05,-1e-05,1e-05,-1e-05,-1e-05,-4e-05,1e-05,1
1975,2068,0.0,1e-05,-1e-05,1e-05,-1e-05,-1e-05,-4e-05,1e-05,1
1976,2069,0.0,1e-05,-1e-05,1e-05,-1e-05,-1e-05,-4e-05,1e-05,1
1977,2070,0.0,1e-05,-1e-05,1e-05,-1e-05,-1e-05,-4e-05,1e-05,1
1978,2071,0.0,1e-05,-1e-05,1e-05,-1e-05,-1e-05,-4e-05,1e-05,1
1979,2072,0.0,1e-05,-1e-05,1e-05,-1e-05,-1e-05,-4e-05,1e-05,1
1980,2073,0.0,1e-05,-1e-05,1e-05,-1e-05,-1e-05,-4e-05,1e-05,1
1981,2074,0.0,1e-05,-1e-05,1e-05,-1e-05,-1e-05,-4e-05,1e-05,1
1982,2075,0.0,1e-05,-1e-05,1e-05,-1e-05,-1e-05,-4e-05,1e-05,1
1983,2076,0.0,1e-05,-1e-05,1e-05,-1e-05,-1e-05,-4e-05,1e-05,1
1984,2077,0.0,1e-05,-1e-05,1e-05,-1e-05,-1e-05,-4e-05,1e-05,1
1985,2078,0.0,1e-05,-1e-05,1e-05,-1e-05,-1e-05,-4e-05,1e-05,1
1986,2079,0.0,1e-05,-1e-05,1e-05,-1e-05,-1e-05,-4e-05,1e-05,1
1987,2080,0.0,1e-05,-1e-05,1e-05,-1e-05,-1e-05,-4e-05,1e-05,1
1988,2081,0.0,1e-05,-1e-05,1e-05,-1e-05,-1e-05,-4e-05,1e-05,1
1989,2082,0.0,1e-05,-1e-05,1e-05,-1e-05,-1e-05,-4e-05,1e-05,1
1990,2083,0.0,1e-05,-1e-05,1e-05,-1e-05,-1e-05,-4e-05,1e-05,1
1991,2084,0.0,1e-05,-1e-05,1e-05,-1e-05,-1e-05,-4e-05,1e-05,1
1992,2085,0.0,1e-05,-1e-05,1e-05,-1e-05,-1e-05,-4e-05,1e-05,1
1993,2086,0.0,1e-05,-1e-05,1e-05,-1e-05,-1e-05,-4e-05,1e-05,1
1994,2089,-2.9999999999999997e-05,1e-05,4e-05,1e-05,2e-05,-2.9999999999999997e-05,-1e-05,-1e-05,1
1995,2090,-5e-05,-1e-05,-5e-05,-9e-05,-4e-05,0.0,-1e-05,0.0,1
1996,2091,-5e-05,-1e-05,-5e-05,-9e-05,-4e-05,0.0,-1e-05,0.0,1
1997,2092,-5e-05,-1e-05,-5e-05,-9e-05,-4e-05,0.0,-1e-05,0.0,1
1998,2093,-5e-05,-1e-05,-5e-05,-9e-05,-4e-05,0.0,-1e-05,0.0,1
1999,2094,-5e-05,-1e-05,-5e-05,-9e-05,-4e-05,0.0,-1e-05,0.0,1
2000,2095,-5e-05,-1e-05,-5e-05,-9e-05,-4e-05,0.0,-1e-05,0.0,1
2001,2096,-5e-05,-1e-05,-5e-05,-9e-05,-4e-05,0.0,-1e-05,0.0,1
2002,2097,-5e-05,-1e-05,-5e-05,-9e-05,-4e-05,0.0,-1e-05,0.0,1
2003,2098,-5e-05,-1e-05,-5e-05,-9e-05,-4e-05,0.0,-1e-05,0.0,1
2004,2099,-5e-05,-1e-05,-5e-05,-9e-05,-4e-05,0.0,-1e-05,0.0,1
2005,2100,-5e-05,-1e-05,-5e-05,-9e-05,-4e-05,0.0,-1e-05,0.0,1
2006,2101,-5e-05,-1e-05,-5e-05,-9e-05,-4e-05,0.0,-1e-05,0.0,1
2007,2102,1e-05,0.0,-4e-05,-4e-05,-5.9999999999999995e-05,2e-05,-2e-05,-2.9999999999999997e-05,1
2008,2103,1e-05,0.0,-4e-05,-4e-05,-5.9999999999999995e-05,2e-05,-2e-05,-2.9999999999999997e-05,1
2009,2104,1e-05,0.0,-4e-05,-4e-05,-5.9999999999999995e-05,2e-05,-2e-05,-2.9999999999999997e-05,1
2010,2105,1e-05,0.0,-4e-05,-4e-05,-5.9999999999999995e-05,2e-05,-2e-05,-2.9999999999999997e-05,1
2011,2106,1e-05,0.0,-4e-05,-4e-05,-5.9999999999999995e-05,2e-05,-2e-05,-2.9999999999999997e-05,1
2012,2107,1e-05,0.0,-4e-05,-4e-05,-5.9999999999999995e-05,2e-05,-2e-05,-2.9999999999999997e-05,1
2013,2108,1e-05,0.0,-4e-05,-4e-05,-5.9999999999999995e-05,2e-05,-2e-05,-2.9999999999999997e-05,1
2014,2109,1e-05,0.0,-4e-05,-4e-05,-5.9999999999999995e-05,2e-05,-2e-05,-2.9999999999999997e-05,1
2015,2110,1e-05,0.0,-4e-05,-4e-05,-5.9999999999999995e-05,2e-05,-2e-05,-2.9999999999999997e-05,1
2016,2111,-1e-05,-2e-05,-1e-05,1e-05,-1e-05,-1e-05,-4e-05,-1e-05,1
2017,2112,-1e-05,-2e-05,-1e-05,1e-05,-1e-05,-1e-05,-4e-05,-1e-05,1
2018,2113,-1e-05,-2e-05,-1e-05,1e-05,-1e-05,-1e-05,-4e-05,-1e-05,1
2019,2114,-1e-05,-2e-05,-1e-05,1e-05,-1e-05,-1e-05,-4e-05,-1e-05,1
2020,2115,-1e-05,-2e-05,-1e-05,1e-05,-1e-05,-1e-05,-4e-05,-1e-05,1
2021,2116,-1e-05,-2e-05,-1e-05,1e-05,-1e-05,-1e-05,-4e-05,-1e-05,1
2022,2117,-1e-05,-2e-05,-1e-05,1e-05,-1e-05,-1e-05,-4e-05,-1e-05,1
2023,2118,-1e-05,-2e-05,-1e-05,1e-05,-1e-05,-1e-05,-4e-05,-1e-05,1
2024,2119,-1e-05,-2e-05,-1e-05,1e-05,-1e-05,-1e-05,-4e-05,-1e-05,1
2025,2120,-1e-05,-2e-05,-1e-05,1e-05,-1e-05,-1e-05,-4e-05,-1e-05,1
2026,2121,-1e-05,-2e-05,-1e-05,1e-05,-1e-05,-1e-05,-4e-05,-1e-05,1
2027,2122,-1e-05,-2e-05,-1e-05,1e-05,-1e-05,-1e-05,-4e-05,-1e-05,1
2028,2123,-1e-05,-2e-05,-1e-05,1e-05,-1e-05,-1e-05,-4e-05,-1e-05,1
2029,2124,-1e-05,-2e-05,-1e-05,1e-05,-1e-05,-1e-05,-4e-05,-1e-05,1
2030,2125,-1e-05,-2e-05,-1e-05,1e-05,-1e-05,-1e-05,-4e-05,-1e-05,1
2031,2126,-2e-05,-1e-05,-1e-05,2e-05,-2.9999999999999997e-05,0.0,-2e-05,1e-05,1
2032,2127,-2e-05,-1e-05,-1e-05,2e-05,-2.9999999999999997e-05,0.0,-2e-05,1e-05,1
2033,2128,0.0,-1e-05,1e-05,1e-05,-1e-05,0.0,1e-05,1e-05,1
2034,2129,0.0,-1e-05,1e-05,1e-05,-1e-05,0.0,1e-05,1e-05,1
2035,2130,0.0,-1e-05,1e-05,1e-05,-1e-05,0.0,1e-05,1e-05,1
2036,2131,0.0,-1e-05,1e-05,1e-05,-1e-05,0.0,1e-05,1e-05,1
2037,2132,0.0,-1e-05,1e-05,1e-05,-1e-05,0.0,1e-05,1e-05,1
2038,2133,0.0,-1e-05,1e-05,1e-05,-1e-05,0.0,1e-05,1e-05,1
2039,2134,0.0,-1e-05,1e-05,1e-05,-1e-05,0.0,1e-05,1e-05,1
2040,2135,0.0,-1e-05,1e-05,1e-05,-1e-05,0.0,1e-05,1e-05,1
2041,2136,0.0,-1e-05,1e-05,1e-05,-1e-05,0.0,1e-05,1e-05,1
2042,2139,0.0,-1e-05,1e-05,1e-05,-1e-05,0.0,1e-05,1e-05,1
2043,2140,0.0,-1e-05,1e-05,1e-05,-1e-05,0.0,1e-05,1e-05,1
2044,2141,0.0,-1e-05,1e-05,1e-05,-1e-05,0.0,1e-05,1e-05,1
2045,2142,0.0,-1e-05,1e-05,1e-05,-1e-05,0.0,1e-05,1e-05,1
2046,2143,0.0,-1e-05,1e-05,1e-05,-1e-05,0.0,1e-05,1e-05,1
2047,2144,0.0,-1e-05,1e-05,1e-05,-1e-05,0.0,1e-05,1e-05,1
2048,2145,0.0,-1e-05,1e-05,1e-05,-1e-05,0.0,1e-05,1e-05,1
2049,2146,0.0,-1e-05,1e-05,1e-05,-1e-05,0.0,1e-05,1e-05,1
2050,2147,0.0,-1e-05,1e-05,1e-05,-1e-05,0.0,1e-05,1e-05,1
2051,2148,-1e-05,-2e-05,2e-05,0.0,-2e-05,0.0,-1e-05,-4e-05,1
2052,2149,-1e-05,-2e-05,2e-05,0.0,-2e-05,0.0,-1e-05,-4e-05,1
2053,2150,-2.9999999999999997e-05,-2e-05,-4e-05,-2e-05,0.0,-1e-05,-2e-05,-2e-05,1
2054,2151,-2.9999999999999997e-05,-2e-05,-4e-05,-2e-05,0.0,-1e-05,-2e-05,-2e-05,1
2055,2152,-2.9999999999999997e-05,-2e-05,-4e-05,-2e-05,0.0,-1e-05,-2e-05,-2e-05,1
2056,2153,-2.9999999999999997e-05,-2e-05,-4e-05,-2e-05,0.0,-1e-05,-2e-05,-2e-05,1
2057,2154,-2.9999999999999997e-05,-2e-05,-4e-05,-2e-05,0.0,-1e-05,-2e-05,-2e-05,1
