,time,channel1,channel2,channel3,channel4,channel5,channel6,channel7,channel8,class
0,1,-2e-05,-2e-05,-9e-05,-9e-05,-5.9999999999999995e-05,-1e-05,-1e-05,-2.9999999999999997e-05,1
1,6,-2e-05,-2e-05,-9e-05,-9e-05,-5.9999999999999995e-05,-1e-05,-1e-05,-2.9999999999999997e-05,1
2,7,-2e-05,-2e-05,-9e-05,-9e-05,-5.9999999999999995e-05,-1e-05,-1e-05,-2.9999999999999997e-05,1
3,8,0.0,-2e-05,-2e-05,4e-05,8e-05,0.0,0.0,-2e-05,1
4,9,0.0,-2e-05,-2e-05,4e-05,8e-05,0.0,0.0,-2e-05,1
5,10,0.0,2e-05,4e-05,4e-05,0.00014,-2e-05,-2e-05,0.0,1
6,11,0.0,2e-05,4e-05,4e-05,0.00014,-2e-05,-2e-05,0.0,1
7,12,0.0,2e-05,4e-05,4e-05,0.00014,-2e-05,-2e-05,0.0,1
8,13,0.0,2e-05,4e-05,4e-05,0.00014,-2e-05,-2e-05,0.0,1
9,14,0.0,2e-05,4e-05,4e-05,0.00014,-2e-05,-2e-05,0.0,1
10,15,0.0,2e-05,4e-05,4e-05,0.00014,-2e-05,-2e-05,0.0,1
11,16,0.0,2e-05,4e-05,4e-05,0.00014,-2e-05,-2e-05,0.0,1
12,18,0.0,2e-05,4e-05,4e-05,0.00014,-2e-05,-2e-05,0.0,1
13,19,0.0,2e-05,4e-05,4e-05,0.00014,-2e-05,-2e-05,0.0,1
14,20,0.0,2e-05,4e-05,4e-05,0.00014,-2e-05,-2e-05,0.0,1
15,21,0.0,2e-05,4e-05,4e-05,0.00014,-2e-05,-2e-05,0.0,1
16,22,0.0,2e-05,4e-05,4e-05,0.00014,-2e-05,-2e-05,0.0,1
17,23,0.0,2e-05,4e-05,4e-05,0.00014,-2e-05,-2e-05,0.0,1
18,24,0.0,2e-05,4e-05,4e-05,0.00014,-2e-05,-2e-05,0.0,1
19,25,0.0,2e-05,4e-05,4e-05,0.00014,-2e-05,-2e-05,0.0,1
20,26,0.0,2e-05,4e-05,4e-05,0.00014,-2e-05,-2e-05,0.0,1
21,27,0.0,2e-05,4e-05,4e-05,0.00014,-2e-05,-2e-05,0.0,1
22,28,0.0,2e-05,4e-05,4e-05,0.00014,-2e-05,-2e-05,0.0,1
23,29,0.0,2e-05,4e-05,4e-05,0.00014,-2e-05,-2e-05,0.0,1
24,30,0.0,2e-05,4e-05,4e-05,0.00014,-2e-05,-2e-05,0.0,1
25,31,-1e-05,-1e-05,-2e-05,-0.00011999999999999999,-0.00014,0.0,-2.9999999999999997e-05,0.0,1
26,33,-1e-05,-1e-05,1e-05,5e-05,2.9999999999999997e-05,1e-05,0.0,0.0,1
27,34,-1e-05,-1e-05,1e-05,5e-05,2.9999999999999997e-05,1e-05,0.0,0.0,1
28,35,-1e-05,-1e-05,1e-05,5e-05,2.9999999999999997e-05,1e-05,0.0,0.0,1
29,44,-1e-05,-1e-05,1e-05,5e-05,2.9999999999999997e-05,1e-05,0.0,0.0,1
30,45,-1e-05,-1e-05,1e-05,5e-05,2.9999999999999997e-05,1e-05,0.0,0.0,1
31,46,1e-05,0.0,2e-05,-4e-05,-5e-05,-2e-05,-1e-05,-1e-05,1
32,47,1e-05,0.0,2e-05,-4e-05,-5e-05,-2e-05,-1e-05,-1e-05,1
33,48,1e-05,0.0,2e-05,-4e-05,-5e-05,-2e-05,-1e-05,-1e-05,1
34,49,1e-05,0.0,2e-05,-4e-05,-5e-05,-2e-05,-1e-05,-1e-05,1
35,50,1e-05,0.0,2e-05,-4e-05,-5e-05,-2e-05,-1e-05,-1e-05,1
36,51,1e-05,0.0,2e-05,-4e-05,-5e-05,-2e-05,-1e-05,-1e-05,1
37,52,-2.9999999999999997e-05,-5.9999999999999995e-05,-5e-05,-8e-05,0.0,-2e-05,-2.9999999999999997e-05,1e-05,1
38,53,-2.9999999999999997e-05,-5.9999999999999995e-05,-5e-05,-8e-05,0.0,-2e-05,-2.9999999999999997e-05,1e-05,1
39,54,-2.9999999999999997e-05,-5.9999999999999995e-05,-5e-05,-8e-05,0.0,-2e-05,-2.9999999999999997e-05,1e-05,1
40,55,-2.9999999999999997e-05,-5.9999999999999995e-05,-5e-05,-8e-05,0.0,-2e-05,-2.9999999999999997e-05,1e-05,1
41,56,-2.9999999999999997e-05,-5.9999999999999995e-05,-5e-05,-8e-05,0.0,-2e-05,-2.9999999999999997e-05,1e-05,1
42,57,-2.9999999999999997e-05,-5.9999999999999995e-05,-5e-05,-8e-05,0.0,-2e-05,-2.9999999999999997e-05,1e-05,1
43,58,-2.9999999999999997e-05,-5.9999999999999995e-05,-5e-05,-8e-05,0.0,-2e-05,-2.9999999999999997e-05,1e-05,1
44,59,-2.9999999999999997e-05,-5.9999999999999995e-05,-5e-05,-8e-05,0.0,-2e-05,-2.9999999999999997e-05,1e-05,1
45,60,-2.9999999999999997e-05,-5.9999999999999995e-05,-5e-05,-8e-05,0.0,-2e-05,-2.9999999999999997e-05,1e-05,1
46,61,-2.9999999999999997e-05,-5.9999999999999995e-05,-5e-05,-8e-05,0.0,-2e-05,-2.9999999999999997e-05,1e-05,1
47,62,-2.9999999999999997e-05,-5.9999999999999995e-05,-5e-05,-8e-05,0.0,-2e-05,-2.9999999999999997e-05,1e-05,1
48,63,-2.9999999999999997e-05,-5.9999999999999995e-05,-5e-05,-8e-05,0.0,-2e-05,-2.9999999999999997e-05,1e-05,1
49,64,-2.9999999999999997e-05,-5.9999999999999995e-05,-5e-05,-8e-05,0.0,-2e-05,-2.9999999999999997e-05,1e-05,1
50,65,-2.9999999999999997e-05,-5.9999999999999995e-05,-5e-05,-8e-05,0.0,-2e-05,-2.9999999999999997e-05,1e-05,1
51,66,-2.9999999999999997e-05,-5.9999999999999995e-05,-5e-05,-8e-05,0.0,-2e-05,-2.9999999999999997e-05,1e-05,1
52,67,-2.9999999999999997e-05,-5.9999999999999995e-05,-5e-05,-8e-05,0.0,-2e-05,-2.9999999999999997e-05,1e-05,1
53,68,-2.9999999999999997e-05,1e-05,2.9999999999999997e-05,-5.9999999999999995e-05,0.00014,-1e-05,1e-05,-5.9999999999999995e-05,1
54,69,-2.9999999999999997e-05,1e-05,2.9999999999999997e-05,-5.9999999999999995e-05,0.00014,-1e-05,1e-05,-5.9999999999999995e-05,1
55,70,0.0,-1e-05,-2e-05,-5.9999999999999995e-05,-4e-05,0.0,-2e-05,-2e-05,1
56,71,0.0,-1e-05,-2e-05,-5.9999999999999995e-05,-4e-05,0.0,-2e-05,-2e-05,1
57,72,0.0,-1e-05,-2e-05,-5.9999999999999995e-05,-4e-05,0.0,-2e-05,-2e-05,1
58,73,0.0,-1e-05,-2e-05,-5.9999999999999995e-05,-4e-05,0.0,-2e-05,-2e-05,1
59,74,0.0,-1e-05,-2e-05,-5.9999999999999995e-05,-4e-05,0.0,-2e-05,-2e-05,1
60,75,0.0,-1e-05,-2e-05,-5.9999999999999995e-05,-4e-05,0.0,-2e-05,-2e-05,1
61,76,0.0,-1e-05,-2e-05,-5.9999999999999995e-05,-4e-05,0.0,-2e-05,-2e-05,1
62,77,0.0,-1e-05,-2e-05,-5.9999999999999995e-05,-4e-05,0.0,-2e-05,-2e-05,1
63,78,0.0,-1e-05,-2e-05,-5.9999999999999995e-05,-4e-05,0.0,-2e-05,-2e-05,1
64,79,0.0,-1e-05,-2e-05,-5.9999999999999995e-05,-4e-05,0.0,-2e-05,-2e-05,1
65,80,0.0,-1e-05,-2e-05,-5.9999999999999995e-05,-4e-05,0.0,-2e-05,-2e-05,1
66,81,0.0,-1e-05,-2e-05,-5.9999999999999995e-05,-4e-05,0.0,-2e-05,-2e-05,1
67,82,0.0,-1e-05,-2e-05,-5.9999999999999995e-05,-4e-05,0.0,-2e-05,-2e-05,1
68,83,0.0,-1e-05,-2e-05,-5.9999999999999995e-05,-4e-05,0.0,-2e-05,-2e-05,1
69,84,0.0,-1e-05,-2e-05,-5.9999999999999995e-05,-4e-05,0.0,-2e-05,-2e-05,1
70,85,0.0,-1e-05,-2e-05,-5.9999999999999995e-05,-4e-05,0.0,-2e-05,-2e-05,1
71,86,0.0,-1e-05,-2e-05,-5.9999999999999995e-05,-4e-05,0.0,-2e-05,-2e-05,1
72,89,0.0,-1e-05,-2e-05,-5.9999999999999995e-05,-4e-05,0.0,-2e-05,-2e-05,1
73,90,0.0,-1e-05,-2e-05,-5.9999999999999995e-05,-4e-05,0.0,-2e-05,-2e-05,1
74,91,0.0,1e-05,2.9999999999999997e-05,5.9999999999999995e-05,0.0001,-1e-05,0.0,0.0,1
75,92,-2e-05,0.0,-2.9999999999999997e-05,-0.00013000000000000002,-0.00016,-1e-05,-2.9999999999999997e-05,-1e-05,1
76,93,-1e-05,-4e-05,-7e-05,-8e-05,-0.00015,-1e-05,1e-05,-2.9999999999999997e-05,1
77,94,-1e-05,-4e-05,-7e-05,-8e-05,-0.00015,-1e-05,1e-05,-2.9999999999999997e-05,1
78,95,-1e-05,-4e-05,-7e-05,-8e-05,-0.00015,-1e-05,1e-05,-2.9999999999999997e-05,1
79,96,-1e-05,-4e-05,-7e-05,-8e-05,-0.00015,-1e-05,1e-05,-2.9999999999999997e-05,1
80,97,-1e-05,-4e-05,-7e-05,-8e-05,-0.00015,-1e-05,1e-05,-2.9999999999999997e-05,1
81,98,-1e-05,-4e-05,-7e-05,-8e-05,-0.00015,-1e-05,1e-05,-2.9999999999999997e-05,1
82,99,-1e-05,-4e-05,-7e-05,-8e-05,-0.00015,-1e-05,1e-05,-2.9999999999999997e-05,1
83,100,-1e-05,-4e-05,-7e-05,-8e-05,-0.00015,-1e-05,1e-05,-2.9999999999999997e-05,1
84,101,-1e-05,-4e-05,-7e-05,-8e-05,-0.00015,-1e-05,1e-05,-2.9999999999999997e-05,1
85,102,-1e-05,-4e-05,-7e-05,-8e-05,-0.00015,-1e-05,1e-05,-2.9999999999999997e-05,1
86,103,-1e-05,-4e-05,-7e-05,-8e-05,-0.00015,-1e-05,1e-05,-2.9999999999999997e-05,1
87,104,-1e-05,-4e-05,-7e-05,-8e-05,-0.00015,-1e-05,1e-05,-2.9999999999999997e-05,1
88,105,-1e-05,0.0,-2e-05,-4e-05,-7e-05,-2e-05,-2.9999999999999997e-05,0.0,1
89,106,-1e-05,0.0,-2e-05,-4e-05,-7e-05,-2e-05,-2.9999999999999997e-05,0.0,1
90,107,-1e-05,0.0,-2e-05,-4e-05,-7e-05,-2e-05,-2.9999999999999997e-05,0.0,1
91,108,-1e-05,0.0,-2e-05,-4e-05,-7e-05,-2e-05,-2.9999999999999997e-05,0.0,1
92,109,-1e-05,0.0,-2e-05,-4e-05,-7e-05,-2e-05,-2.9999999999999997e-05,0.0,1
93,110,-1e-05,0.0,-2e-05,-4e-05,-7e-05,-2e-05,-2.9999999999999997e-05,0.0,1
94,111,-1e-05,0.0,-2e-05,-4e-05,-7e-05,-2e-05,-2.9999999999999997e-05,0.0,1
95,112,-1e-05,0.0,-2e-05,-4e-05,-7e-05,-2e-05,-2.9999999999999997e-05,0.0,1
96,113,0.0,-1e-05,-1e-05,-5e-05,-0.00011999999999999999,0.0,-1e-05,-1e-05,1
97,114,0.0,-1e-05,-1e-05,-5e-05,-0.00011999999999999999,0.0,-1e-05,-1e-05,1
98,115,0.0,-1e-05,-1e-05,-5e-05,-0.00011999999999999999,0.0,-1e-05,-1e-05,1
99,116,0.0,-1e-05,-1e-05,-5e-05,-0.00011999999999999999,0.0,-1e-05,-1e-05,1
100,117,0.0,-1e-05,-1e-05,-5e-05,-0.00011999999999999999,0.0,-1e-05,-1e-05,1
101,118,0.0,-1e-05,-1e-05,-5e-05,-0.00011999999999999999,0.0,-1e-05,-1e-05,1
102,119,0.0,-1e-05,-1e-05,-5e-05,-0.00011999999999999999,0.0,-1e-05,-1e-05,1
103,120,0.0,-1e-05,-1e-05,-5e-05,-0.00011999999999999999,0.0,-1e-05,-1e-05,1
104,121,0.0,-1e-05,-1e-05,-5e-05,-0.00011999999999999999,0.0,-1e-05,-1e-05,1
105,122,0.0,-1e-05,-1e-05,-5e-05,-0.00011999999999999999,0.0,-1e-05,-1e-05,1
106,123,0.0,-1e-05,-1e-05,-5e-05,-0.00011999999999999999,0.0,-1e-05,-1e-05,1
107,124,0.0,-1e-05,-1e-05,-5e-05,-0.00011999999999999999,0.0,-1e-05,-1e-05,1
108,125,0.0,-1e-05,-1e-05,-5e-05,-0.00011999999999999999,0.0,-1e-05,-1e-05,1
109,126,0.0,-1e-05,-1e-05,-5e-05,-0.00011999999999999999,0.0,-1e-05,-1e-05,1
110,127,0.0,-1e-05,-1e-05,-5e-05,-0.00011999999999999999,0.0,-1e-05,-1e-05,1
111,128,0.0,-2.9999999999999997e-05,-8e-05,-0.0001,-4e-05,-1e-05,-1e-05,1e-05,1
112,129,0.0,-2.9999999999999997e-05,-8e-05,-0.0001,-4e-05,-1e-05,-1e-05,1e-05,1
113,130,1e-05,1e-05,2e-05,-1e-05,-4e-05,0.0,-1e-05,-1e-05,1
114,131,1e-05,1e-05,2e-05,-1e-05,-4e-05,0.0,-1e-05,-1e-05,1
115,132,1e-05,1e-05,2e-05,-1e-05,-4e-05,0.0,-1e-05,-1e-05,1
116,133,1e-05,1e-05,2e-05,-1e-05,-4e-05,0.0,-1e-05,-1e-05,1
117,134,1e-05,1e-05,2e-05,-1e-05,-4e-05,0.0,-1e-05,-1e-05,1
118,135,1e-05,1e-05,2e-05,-1e-05,-4e-05,0.0,-1e-05,-1e-05,1
119,136,1e-05,1e-05,2e-05,-1e-05,-4e-05,0.0,-1e-05,-1e-05,1
120,139,1e-05,1e-05,2e-05,-1e-05,-4e-05,0.0,-1e-05,-1e-05,1
121,140,1e-05,1e-05,2e-05,-1e-05,-4e-05,0.0,-1e-05,-1e-05,1
122,141,1e-05,1e-05,2e-05,-1e-05,-4e-05,0.0,-1e-05,-1e-05,1
123,142,1e-05,1e-05,2e-05,-1e-05,-4e-05,0.0,-1e-05,-1e-05,1
124,143,1e-05,1e-05,2e-05,-1e-05,-4e-05,0.0,-1e-05,-1e-05,1
125,144,1e-05,1e-05,2e-05,-1e-05,-4e-05,0.0,-1e-05,-1e-05,1
126,145,1e-05,1e-05,2e-05,-1e-05,-4e-05,0.0,-1e-05,-1e-05,1
127,146,1e-05,1e-05,2e-05,-1e-05,-4e-05,0.0,-1e-05,-1e-05,1
128,147,1e-05,1e-05,2e-05,-1e-05,-4e-05,0.0,-1e-05,-1e-05,1
129,148,1e-05,1e-05,2e-05,-1e-05,-4e-05,0.0,-1e-05,-1e-05,1
130,149,1e-05,1e-05,2e-05,-1e-05,-4e-05,0.0,-1e-05,-1e-05,1
131,150,1e-05,1e-05,2e-05,-1e-05,-4e-05,0.0,-1e-05,-1e-05,1
132,151,1e-05,1e-05,2e-05,-1e-05,-4e-05,0.0,-1e-05,-1e-05,1
133,152,1e-05,1e-05,2e-05,-1e-05,-4e-05,0.0,-1e-05,-1e-05,1
134,154,1e-05,1e-05,2e-05,-1e-05,-4e-05,0.0,-1e-05,-1e-05,1
135,155,1e-05,1e-05,2e-05,-1e-05,-4e-05,0.0,-1e-05,-1e-05,1
136,156,1e-05,1e-05,2e-05,-1e-05,-4e-05,0.0,-1e-05,-1e-05,1
137,157,1e-05,1e-05,2e-05,-1e-05,-4e-05,0.0,-1e-05,-1e-05,1
138,158,-1e-05,0.0,2e-05,-7e-05,-8e-05,-2.9999999999999997e-05,0.0,-2e-05,1
139,159,1e-05,-5e-05,-0.0001,9e-05,0.00011999999999999999,0.0,-2e-05,-1e-05,1
140,160,-1e-05,-2e-05,2e-05,0.00016,1e-05,-1e-05,0.0,-2e-05,1
141,161,-1e-05,-2e-05,2e-05,0.00016,1e-05,-1e-05,0.0,-2e-05,1
142,162,-1e-05,-2e-05,2e-05,0.00016,1e-05,-1e-05,0.0,-2e-05,1
143,163,-1e-05,-2e-05,2e-05,0.00016,1e-05,-1e-05,0.0,-2e-05,1
144,164,-1e-05,-2e-05,2e-05,0.00016,1e-05,-1e-05,0.0,-2e-05,1
145,165,-2e-05,-2e-05,-5e-05,-7e-05,1e-05,-1e-05,0.0,-1e-05,1
146,166,-2e-05,-1e-05,1e-05,-2.9999999999999997e-05,-0.0002,-2e-05,-2e-05,-2e-05,1
147,167,-2e-05,-1e-05,1e-05,-2.9999999999999997e-05,-0.0002,-2e-05,-2e-05,-2e-05,1
148,168,-2e-05,-1e-05,1e-05,-2.9999999999999997e-05,-0.0002,-2e-05,-2e-05,-2e-05,1
149,169,-2e-05,-1e-05,1e-05,-2.9999999999999997e-05,-0.0002,-2e-05,-2e-05,-2e-05,1
150,170,-2e-05,-1e-05,1e-05,-2.9999999999999997e-05,-0.0002,-2e-05,-2e-05,-2e-05,1
151,171,-2e-05,-1e-05,1e-05,-2.9999999999999997e-05,-0.0002,-2e-05,-2e-05,-2e-05,1
152,172,-2e-05,-4e-05,-2.9999999999999997e-05,-5.9999999999999995e-05,0.0,-2e-05,-1e-05,-2e-05,1
153,173,1e-05,1e-05,4e-05,2.9999999999999997e-05,-2.9999999999999997e-05,-2e-05,-1e-05,0.0,1
154,174,1e-05,1e-05,4e-05,2.9999999999999997e-05,-2.9999999999999997e-05,-2e-05,-1e-05,0.0,1
155,175,1e-05,1e-05,4e-05,2.9999999999999997e-05,-2.9999999999999997e-05,-2e-05,-1e-05,0.0,1
156,176,1e-05,1e-05,4e-05,2.9999999999999997e-05,-2.9999999999999997e-05,-2e-05,-1e-05,0.0,1
157,177,1e-05,1e-05,4e-05,2.9999999999999997e-05,-2.9999999999999997e-05,-2e-05,-1e-05,0.0,1
158,178,1e-05,1e-05,4e-05,2.9999999999999997e-05,-2.9999999999999997e-05,-2e-05,-1e-05,0.0,1
159,179,1e-05,1e-05,4e-05,2.9999999999999997e-05,-2.9999999999999997e-05,-2e-05,-1e-05,0.0,1
160,180,1e-05,1e-05,4e-05,2.9999999999999997e-05,-2.9999999999999997e-05,-2e-05,-1e-05,0.0,1
161,181,1e-05,1e-05,4e-05,2.9999999999999997e-05,-2.9999999999999997e-05,-2e-05,-1e-05,0.0,1
162,182,1e-05,1e-05,4e-05,2.9999999999999997e-05,-2.9999999999999997e-05,-2e-05,-1e-05,0.0,1
163,183,1e-05,1e-05,4e-05,2.9999999999999997e-05,-2.9999999999999997e-05,-2e-05,-1e-05,0.0,1
164,184,1e-05,1e-05,4e-05,2.9999999999999997e-05,-2.9999999999999997e-05,-2e-05,-1e-05,0.0,1
165,185,1e-05,1e-05,4e-05,2.9999999999999997e-05,-2.9999999999999997e-05,-2e-05,-1e-05,0.0,1
166,186,1e-05,1e-05,4e-05,2.9999999999999997e-05,-2.9999999999999997e-05,-2e-05,-1e-05,0.0,1
167,189,-1e-05,-2e-05,-1e-05,2.9999999999999997e-05,0.00022999999999999998,1e-05,0.0,-1e-05,1
168,190,-5.9999999999999995e-05,0.0,-2e-05,-5e-05,-0.0001,-1e-05,0.0,-2.9999999999999997e-05,1
169,191,-1e-05,0.0,-1e-05,-1e-05,0.00013000000000000002,-2e-05,-1e-05,1e-05,1
170,192,-1e-05,0.0,-1e-05,-1e-05,0.00013000000000000002,-2e-05,-1e-05,1e-05,1
171,193,-1e-05,0.0,-1e-05,-1e-05,0.00013000000000000002,-2e-05,-1e-05,1e-05,1
172,194,-1e-05,0.0,-1e-05,-1e-05,0.00013000000000000002,-2e-05,-1e-05,1e-05,1
173,195,-1e-05,0.0,-1e-05,-1e-05,0.00013000000000000002,-2e-05,-1e-05,1e-05,1
174,196,-1e-05,0.0,-1e-05,-1e-05,0.00013000000000000002,-2e-05,-1e-05,1e-05,1
175,197,-1e-05,0.0,-1e-05,-1e-05,0.00013000000000000002,-2e-05,-1e-05,1e-05,1
176,198,-1e-05,0.0,-1e-05,-1e-05,0.00013000000000000002,-2e-05,-1e-05,1e-05,1
177,199,-1e-05,0.0,-1e-05,-1e-05,0.00013000000000000002,-2e-05,-1e-05,1e-05,1
178,200,-1e-05,0.0,-1e-05,-1e-05,0.00013000000000000002,-2e-05,-1e-05,1e-05,1
179,201,-1e-05,0.0,-1e-05,-1e-05,0.00013000000000000002,-2e-05,-1e-05,1e-05,1
180,202,-1e-05,0.0,-1e-05,-1e-05,0.00013000000000000002,-2e-05,-1e-05,1e-05,1
181,203,-1e-05,0.0,-1e-05,-1e-05,0.00013000000000000002,-2e-05,-1e-05,1e-05,1
182,204,-1e-05,0.0,-1e-05,-1e-05,0.00013000000000000002,-2e-05,-1e-05,1e-05,1
183,205,-1e-05,0.0,-1e-05,-1e-05,0.00013000000000000002,-2e-05,-1e-05,1e-05,1
184,206,-1e-05,0.0,-1e-05,-1e-05,0.00013000000000000002,-2e-05,-1e-05,1e-05,1
185,207,-1e-05,0.0,-1e-05,-1e-05,0.00013000000000000002,-2e-05,-1e-05,1e-05,1
186,208,-1e-05,0.0,-1e-05,-1e-05,0.00013000000000000002,-2e-05,-1e-05,1e-05,1
187,209,-1e-05,0.0,-1e-05,-1e-05,0.00013000000000000002,-2e-05,-1e-05,1e-05,1
188,210,-1e-05,0.0,-1e-05,-1e-05,0.00013000000000000002,-2e-05,-1e-05,1e-05,1
189,211,0.0,-2e-05,0.0,-1e-05,1e-05,2e-05,1e-05,0.0,1
190,212,0.0,-2e-05,0.0,-1e-05,1e-05,2e-05,1e-05,0.0,1
191,213,0.0,-2e-05,0.0,-1e-05,1e-05,2e-05,1e-05,0.0,1
192,214,0.0,-2e-05,0.0,-1e-05,1e-05,2e-05,1e-05,0.0,1
193,215,0.0,-2e-05,0.0,-1e-05,1e-05,2e-05,1e-05,0.0,1
194,216,0.0,-2e-05,0.0,-1e-05,1e-05,2e-05,1e-05,0.0,1
195,217,-1e-05,-1e-05,-4e-05,-1e-05,2.9999999999999997e-05,0.0,-1e-05,-1e-05,1
196,218,-1e-05,-1e-05,-4e-05,-1e-05,2.9999999999999997e-05,0.0,-1e-05,-1e-05,1
197,219,-1e-05,-1e-05,-4e-05,-1e-05,2.9999999999999997e-05,0.0,-1e-05,-1e-05,1
198,220,-1e-05,-1e-05,-4e-05,-1e-05,2.9999999999999997e-05,0.0,-1e-05,-1e-05,1
199,221,-1e-05,-1e-05,-4e-05,-1e-05,2.9999999999999997e-05,0.0,-1e-05,-1e-05,1
200,222,-1e-05,-1e-05,-4e-05,-1e-05,2.9999999999999997e-05,0.0,-1e-05,-1e-05,1
201,223,-1e-05,-1e-05,-4e-05,-1e-05,2.9999999999999997e-05,0.0,-1e-05,-1e-05,1
202,224,-1e-05,0.0,1e-05,1e-05,0.0,-2e-05,-1e-05,2.9999999999999997e-05,1
203,225,-2e-05,-2e-05,-5.9999999999999995e-05,-5e-05,-2e-05,-2e-05,-2.9999999999999997e-05,-2e-05,1
204,226,-2e-05,-2e-05,-5.9999999999999995e-05,-5e-05,-2e-05,-2e-05,-2.9999999999999997e-05,-2e-05,1
205,227,-2e-05,-2e-05,-5.9999999999999995e-05,-5e-05,-2e-05,-2e-05,-2.9999999999999997e-05,-2e-05,1
206,229,-2e-05,-2e-05,-5.9999999999999995e-05,-5e-05,-2e-05,-2e-05,-2.9999999999999997e-05,-2e-05,1
207,230,-2e-05,-2e-05,-5.9999999999999995e-05,-5e-05,-2e-05,-2e-05,-2.9999999999999997e-05,-2e-05,1
208,231,-2e-05,-2e-05,-5.9999999999999995e-05,-5e-05,-2e-05,-2e-05,-2.9999999999999997e-05,-2e-05,1
209,232,-2e-05,-2e-05,-5.9999999999999995e-05,-5e-05,-2e-05,-2e-05,-2.9999999999999997e-05,-2e-05,1
210,233,-2e-05,-2e-05,-5e-05,-5.9999999999999995e-05,8e-05,1e-05,1e-05,-2.9999999999999997e-05,1
211,234,-2e-05,-2e-05,-5e-05,-5.9999999999999995e-05,8e-05,1e-05,1e-05,-2.9999999999999997e-05,1
212,235,-2e-05,-2e-05,-5e-05,-5.9999999999999995e-05,8e-05,1e-05,1e-05,-2.9999999999999997e-05,1
213,237,-2e-05,-2e-05,-5e-05,-5.9999999999999995e-05,8e-05,1e-05,1e-05,-2.9999999999999997e-05,1
214,240,-2e-05,-2e-05,-5e-05,-5.9999999999999995e-05,8e-05,1e-05,1e-05,-2.9999999999999997e-05,1
215,241,-2e-05,-2e-05,-5e-05,-5.9999999999999995e-05,8e-05,1e-05,1e-05,-2.9999999999999997e-05,1
216,242,-2e-05,-2e-05,-5e-05,-5.9999999999999995e-05,8e-05,1e-05,1e-05,-2.9999999999999997e-05,1
217,243,-2e-05,-2e-05,-5e-05,-5.9999999999999995e-05,8e-05,1e-05,1e-05,-2.9999999999999997e-05,1
218,244,-2e-05,-2e-05,-5e-05,-5.9999999999999995e-05,8e-05,1e-05,1e-05,-2.9999999999999997e-05,1
219,245,-2e-05,-2e-05,-5e-05,-5.9999999999999995e-05,8e-05,1e-05,1e-05,-2.9999999999999997e-05,1
220,246,-2e-05,-2e-05,-5e-05,-5.9999999999999995e-05,8e-05,1e-05,1e-05,-2.9999999999999997e-05,1
221,247,-2e-05,-2e-05,-5e-05,-5.9999999999999995e-05,8e-05,1e-05,1e-05,-2.9999999999999997e-05,1
222,248,-2e-05,-2e-05,-5e-05,-5.9999999999999995e-05,8e-05,1e-05,1e-05,-2.9999999999999997e-05,1
223,249,2e-05,1e-05,0.0,0.0,4e-05,0.0,0.0,-1e-05,1
224,250,0.0,-2.9999999999999997e-05,-4e-05,-5e-05,0.0001,-2.9999999999999997e-05,0.0,-2e-05,1
225,251,0.0,-2.9999999999999997e-05,-4e-05,-5e-05,0.0001,-2.9999999999999997e-05,0.0,-2e-05,1
226,252,0.0,-2.9999999999999997e-05,-4e-05,-5e-05,0.0001,-2.9999999999999997e-05,0.0,-2e-05,1
227,255,0.0,-2.9999999999999997e-05,-4e-05,-5e-05,0.0001,-2.9999999999999997e-05,0.0,-2e-05,1
228,256,0.0,-2.9999999999999997e-05,-4e-05,-5e-05,0.0001,-2.9999999999999997e-05,0.0,-2e-05,1
229,257,0.0,-2.9999999999999997e-05,-4e-05,-5e-05,0.0001,-2.9999999999999997e-05,0.0,-2e-05,1
230,258,0.0,-2.9999999999999997e-05,-4e-05,-5e-05,0.0001,-2.9999999999999997e-05,0.0,-2e-05,1
231,259,0.0,-2.9999999999999997e-05,-4e-05,-5e-05,0.0001,-2.9999999999999997e-05,0.0,-2e-05,1
232,261,0.0,-2.9999999999999997e-05,-4e-05,-5e-05,0.0001,-2.9999999999999997e-05,0.0,-2e-05,1
233,262,0.0,-2.9999999999999997e-05,-4e-05,-5e-05,0.0001,-2.9999999999999997e-05,0.0,-2e-05,1
234,263,0.0,-2.9999999999999997e-05,-4e-05,-5e-05,0.0001,-2.9999999999999997e-05,0.0,-2e-05,1
235,264,0.0,-2.9999999999999997e-05,-4e-05,-5e-05,0.0001,-2.9999999999999997e-05,0.0,-2e-05,1
236,265,0.0,-2.9999999999999997e-05,-4e-05,-5e-05,0.0001,-2.9999999999999997e-05,0.0,-2e-05,1
237,266,0.0,-2.9999999999999997e-05,-4e-05,-5e-05,0.0001,-2.9999999999999997e-05,0.0,-2e-05,1
238,267,0.0,-2.9999999999999997e-05,-4e-05,-5e-05,0.0001,-2.9999999999999997e-05,0.0,-2e-05,1
239,268,0.0,-2.9999999999999997e-05,-4e-05,-5e-05,0.0001,-2.9999999999999997e-05,0.0,-2e-05,1
240,269,0.0,-2.9999999999999997e-05,-4e-05,-5e-05,0.0001,-2.9999999999999997e-05,0.0,-2e-05,1
241,270,0.0,-2.9999999999999997e-05,-4e-05,-5e-05,0.0001,-2.9999999999999997e-05,0.0,-2e-05,1
242,271,0.0,-2.9999999999999997e-05,-4e-05,-5e-05,0.0001,-2.9999999999999997e-05,0.0,-2e-05,1
243,272,0.0,-2.9999999999999997e-05,-4e-05,-5e-05,0.0001,-2.9999999999999997e-05,0.0,-2e-05,1
244,273,0.0,-2.9999999999999997e-05,-4e-05,-5e-05,0.0001,-2.9999999999999997e-05,0.0,-2e-05,1
245,274,0.0,-2.9999999999999997e-05,-4e-05,-5e-05,0.0001,-2.9999999999999997e-05,0.0,-2e-05,1
246,275,0.0,-2.9999999999999997e-05,-4e-05,-5e-05,0.0001,-2.9999999999999997e-05,0.0,-2e-05,1
247,276,0.0,-2.9999999999999997e-05,-4e-05,-5e-05,0.0001,-2.9999999999999997e-05,0.0,-2e-05,1
248,277,0.0,-2.9999999999999997e-05,-4e-05,-5e-05,0.0001,-2.9999999999999997e-05,0.0,-2e-05,1
249,278,-1e-05,-2.9999999999999997e-05,-4e-05,-7e-05,-7e-05,-1e-05,0.0,-2e-05,1
250,279,-4e-05,-1e-05,1e-05,5e-05,-5e-05,0.0,-1e-05,-1e-05,1
251,280,-2e-05,0.0,5e-05,5e-05,8e-05,-1e-05,-2.9999999999999997e-05,-1e-05,1
252,281,-2e-05,0.0,5e-05,5e-05,8e-05,-1e-05,-2.9999999999999997e-05,-1e-05,1
253,282,-2e-05,0.0,5e-05,5e-05,8e-05,-1e-05,-2.9999999999999997e-05,-1e-05,1
254,283,-2e-05,0.0,5e-05,5e-05,8e-05,-1e-05,-2.9999999999999997e-05,-1e-05,1
255,285,0.0,-1e-05,-1e-05,5e-05,0.00018,-2e-05,-1e-05,-2.9999999999999997e-05,1
256,290,0.0,-1e-05,-1e-05,5e-05,0.00018,-2e-05,-1e-05,-2.9999999999999997e-05,1
257,291,0.0,-1e-05,-1e-05,5e-05,0.00018,-2e-05,-1e-05,-2.9999999999999997e-05,1
258,293,0.0,-4e-05,-8e-05,-0.0001,-0.00025,-2e-05,-1e-05,-1e-05,1
259,295,0.0,1e-05,2.9999999999999997e-05,1e-05,5e-05,2e-05,-1e-05,-1e-05,1
260,296,0.0,1e-05,2.9999999999999997e-05,1e-05,5e-05,2e-05,-1e-05,-1e-05,1
261,297,0.0,1e-05,2.9999999999999997e-05,1e-05,5e-05,2e-05,-1e-05,-1e-05,1
262,298,0.0,1e-05,2.9999999999999997e-05,1e-05,5e-05,2e-05,-1e-05,-1e-05,1
263,299,0.0,1e-05,2.9999999999999997e-05,1e-05,5e-05,2e-05,-1e-05,-1e-05,1
264,300,0.0,1e-05,2.9999999999999997e-05,1e-05,5e-05,2e-05,-1e-05,-1e-05,1
265,301,0.0,1e-05,2.9999999999999997e-05,1e-05,5e-05,2e-05,-1e-05,-1e-05,1
266,302,0.0,1e-05,2.9999999999999997e-05,1e-05,5e-05,2e-05,-1e-05,-1e-05,1
267,303,0.0,1e-05,2.9999999999999997e-05,1e-05,5e-05,2e-05,-1e-05,-1e-05,1
268,304,0.0,1e-05,2.9999999999999997e-05,1e-05,5e-05,2e-05,-1e-05,-1e-05,1
269,305,0.0,1e-05,2.9999999999999997e-05,1e-05,5e-05,2e-05,-1e-05,-1e-05,1
270,306,0.0,1e-05,2.9999999999999997e-05,1e-05,5e-05,2e-05,-1e-05,-1e-05,1
271,307,0.0,1e-05,2.9999999999999997e-05,1e-05,5e-05,2e-05,-1e-05,-1e-05,1
272,308,-1e-05,-1e-05,-2.9999999999999997e-05,0.0,-5.9999999999999995e-05,-2e-05,0.0,-1e-05,1
273,309,0.0,-2e-05,-2e-05,-2e-05,7e-05,2e-05,-2e-05,-1e-05,1
274,310,-1e-05,-1e-05,-5.9999999999999995e-05,-2.9999999999999997e-05,-2e-05,1e-05,-1e-05,-1e-05,1
275,311,-1e-05,-1e-05,-5.9999999999999995e-05,-2.9999999999999997e-05,-2e-05,1e-05,-1e-05,-1e-05,1
276,312,-1e-05,-1e-05,-5.9999999999999995e-05,-2.9999999999999997e-05,-2e-05,1e-05,-1e-05,-1e-05,1
277,313,-1e-05,-1e-05,-5.9999999999999995e-05,-2.9999999999999997e-05,-2e-05,1e-05,-1e-05,-1e-05,1
278,314,-1e-05,-1e-05,-5.9999999999999995e-05,-2.9999999999999997e-05,-2e-05,1e-05,-1e-05,-1e-05,1
279,315,-1e-05,-1e-05,-5.9999999999999995e-05,-2.9999999999999997e-05,-2e-05,1e-05,-1e-05,-1e-05,1
280,316,-1e-05,-1e-05,-5.9999999999999995e-05,-2.9999999999999997e-05,-2e-05,1e-05,-1e-05,-1e-05,1
281,317,-1e-05,-1e-05,-5.9999999999999995e-05,-2.9999999999999997e-05,-2e-05,1e-05,-1e-05,-1e-05,1
282,319,-1e-05,-1e-05,-5.9999999999999995e-05,-2.9999999999999997e-05,-2e-05,1e-05,-1e-05,-1e-05,1
283,320,-1e-05,-1e-05,-5.9999999999999995e-05,-2.9999999999999997e-05,-2e-05,1e-05,-1e-05,-1e-05,1
284,321,-1e-05,-1e-05,-5.9999999999999995e-05,-2.9999999999999997e-05,-2e-05,1e-05,-1e-05,-1e-05,1
285,322,-1e-05,-1e-05,-5.9999999999999995e-05,-2.9999999999999997e-05,-2e-05,1e-05,-1e-05,-1e-05,1
286,323,-1e-05,-1e-05,-5.9999999999999995e-05,-2.9999999999999997e-05,-2e-05,1e-05,-1e-05,-1e-05,1
287,324,-1e-05,-1e-05,-5.9999999999999995e-05,-2.9999999999999997e-05,-2e-05,1e-05,-1e-05,-1e-05,1
288,325,-1e-05,-1e-05,-5.9999999999999995e-05,-2.9999999999999997e-05,-2e-05,1e-05,-1e-05,-1e-05,1
289,326,-1e-05,-1e-05,-5.9999999999999995e-05,-2.9999999999999997e-05,-2e-05,1e-05,-1e-05,-1e-05,1
290,327,-1e-05,-1e-05,-5.9999999999999995e-05,-2.9999999999999997e-05,-2e-05,1e-05,-1e-05,-1e-05,1
291,328,-1e-05,-1e-05,-5.9999999999999995e-05,-2.9999999999999997e-05,-2e-05,1e-05,-1e-05,-1e-05,1
292,329,-1e-05,-1e-05,-5.9999999999999995e-05,-2.9999999999999997e-05,-2e-05,1e-05,-1e-05,-1e-05,1
293,330,-1e-05,-1e-05,-5.9999999999999995e-05,-2.9999999999999997e-05,-2e-05,1e-05,-1e-05,-1e-05,1
294,331,-1e-05,-1e-05,-5.9999999999999995e-05,-2.9999999999999997e-05,-2e-05,1e-05,-1e-05,-1e-05,1
295,332,-4e-05,-2.9999999999999997e-05,-0.00011,1e-05,-4e-05,0.0,-1e-05,-2e-05,1
296,333,-2e-05,-1e-05,4e-05,-4e-05,-0.00021,-4e-05,-2e-05,-1e-05,1
297,335,-2e-05,-1e-05,4e-05,-4e-05,-0.00021,-4e-05,-2e-05,-1e-05,1
298,336,-2e-05,-1e-05,4e-05,-4e-05,-0.00021,-4e-05,-2e-05,-1e-05,1
299,340,-2e-05,-1e-05,4e-05,-4e-05,-0.00021,-4e-05,-2e-05,-1e-05,1
300,342,-2e-05,-1e-05,4e-05,-4e-05,-0.00021,-4e-05,-2e-05,-1e-05,1
301,343,-2e-05,-1e-05,4e-05,-4e-05,-0.00021,-4e-05,-2e-05,-1e-05,1
302,344,0.0,1e-05,0.0,5e-05,0.00011,2e-05,-1e-05,0.0,1
303,345,-1e-05,1e-05,-2.9999999999999997e-05,-0.00015,-0.00022,-5e-05,0.0,0.0,1
304,346,-1e-05,1e-05,-2.9999999999999997e-05,-0.00015,-0.00022,-5e-05,0.0,0.0,1
305,347,-1e-05,1e-05,-2.9999999999999997e-05,-0.00015,-0.00022,-5e-05,0.0,0.0,1
306,348,-1e-05,1e-05,-2.9999999999999997e-05,-0.00015,-0.00022,-5e-05,0.0,0.0,1
307,350,-1e-05,1e-05,-2.9999999999999997e-05,-0.00015,-0.00022,-5e-05,0.0,0.0,1
308,351,-1e-05,1e-05,-2.9999999999999997e-05,-0.00015,-0.00022,-5e-05,0.0,0.0,1
309,352,-1e-05,1e-05,-2.9999999999999997e-05,-0.00015,-0.00022,-5e-05,0.0,0.0,1
310,353,-1e-05,0.0,-5.9999999999999995e-05,-0.00011,-2.9999999999999997e-05,-2e-05,-1e-05,-1e-05,1
311,354,0.0,-1e-05,4e-05,0.00021,0.00016,2e-05,1e-05,-1e-05,1
312,355,0.0,-1e-05,4e-05,0.00021,0.00016,2e-05,1e-05,-1e-05,1
313,356,0.0,-1e-05,4e-05,0.00021,0.00016,2e-05,1e-05,-1e-05,1
314,357,0.0,-1e-05,4e-05,0.00021,0.00016,2e-05,1e-05,-1e-05,1
315,358,0.0,-1e-05,4e-05,0.00021,0.00016,2e-05,1e-05,-1e-05,1
316,359,0.0,-1e-05,4e-05,0.00021,0.00016,2e-05,1e-05,-1e-05,1
317,360,0.0,-1e-05,4e-05,0.00021,0.00016,2e-05,1e-05,-1e-05,1
318,361,0.0,-1e-05,4e-05,0.00021,0.00016,2e-05,1e-05,-1e-05,1
319,362,0.0,-1e-05,4e-05,0.00021,0.00016,2e-05,1e-05,-1e-05,1
320,363,0.0,-1e-05,4e-05,0.00021,0.00016,2e-05,1e-05,-1e-05,1
321,364,0.0,-1e-05,4e-05,0.00021,0.00016,2e-05,1e-05,-1e-05,1
322,365,0.0,-1e-05,4e-05,0.00021,0.00016,2e-05,1e-05,-1e-05,1
323,366,0.0,-1e-05,4e-05,0.00021,0.00016,2e-05,1e-05,-1e-05,1
324,367,0.0,-1e-05,4e-05,0.00021,0.00016,2e-05,1e-05,-1e-05,1
325,368,-1e-05,1e-05,5e-05,1e-05,5e-05,-1e-05,0.0,-2e-05,1
326,369,-1e-05,1e-05,5e-05,1e-05,5e-05,-1e-05,0.0,-2e-05,1
327,370,1e-05,0.0,-2e-05,-1e-05,8e-05,-1e-05,0.0,0.0,1
328,371,1e-05,0.0,-2e-05,-1e-05,8e-05,-1e-05,0.0,0.0,1
329,372,1e-05,0.0,-2e-05,-1e-05,8e-05,-1e-05,0.0,0.0,1
330,373,1e-05,0.0,-2e-05,-1e-05,8e-05,-1e-05,0.0,0.0,1
331,374,1e-05,0.0,-2e-05,-1e-05,8e-05,-1e-05,0.0,0.0,1
332,375,1e-05,0.0,-2e-05,-1e-05,8e-05,-1e-05,0.0,0.0,1
333,376,1e-05,0.0,-2e-05,-1e-05,8e-05,-1e-05,0.0,0.0,1
334,377,1e-05,0.0,-2e-05,-1e-05,8e-05,-1e-05,0.0,0.0,1
335,378,1e-05,0.0,-2e-05,-1e-05,8e-05,-1e-05,0.0,0.0,1
336,379,1e-05,0.0,-2e-05,-1e-05,8e-05,-1e-05,0.0,0.0,1
337,380,1e-05,0.0,-2e-05,-1e-05,8e-05,-1e-05,0.0,0.0,1
338,381,1e-05,0.0,-2e-05,-1e-05,8e-05,-1e-05,0.0,0.0,1
339,382,1e-05,0.0,-2e-05,-1e-05,8e-05,-1e-05,0.0,0.0,1
340,383,1e-05,0.0,-2e-05,-1e-05,8e-05,-1e-05,0.0,0.0,1
341,384,1e-05,0.0,-2e-05,-1e-05,8e-05,-1e-05,0.0,0.0,1
342,385,1e-05,0.0,-2e-05,-1e-05,8e-05,-1e-05,0.0,0.0,1
343,386,1e-05,0.0,-2e-05,-1e-05,8e-05,-1e-05,0.0,0.0,1
344,389,1e-05,0.0,-2e-05,-1e-05,8e-05,-1e-05,0.0,0.0,1
345,390,1e-05,0.0,-2e-05,-1e-05,8e-05,-1e-05,0.0,0.0,1
346,391,-1e-05,0.0,-1e-05,-4e-05,-1e-05,0.0,0.0,0.0,1
347,392,-2e-05,-1e-05,-5.9999999999999995e-05,2e-05,0.0001,2e-05,-1e-05,-1e-05,1
348,393,-2e-05,-1e-05,-5.9999999999999995e-05,2e-05,0.0001,2e-05,-1e-05,-1e-05,1
349,394,-2e-05,-1e-05,-5.9999999999999995e-05,2e-05,0.0001,2e-05,-1e-05,-1e-05,1
350,395,-2e-05,-1e-05,-5.9999999999999995e-05,2e-05,0.0001,2e-05,-1e-05,-1e-05,1
351,396,-2e-05,-1e-05,-5.9999999999999995e-05,2e-05,0.0001,2e-05,-1e-05,-1e-05,1
352,397,-2e-05,-1e-05,-5.9999999999999995e-05,2e-05,0.0001,2e-05,-1e-05,-1e-05,1
353,398,-2e-05,-1e-05,-5.9999999999999995e-05,2e-05,0.0001,2e-05,-1e-05,-1e-05,1
354,399,-2e-05,-1e-05,-5.9999999999999995e-05,2e-05,0.0001,2e-05,-1e-05,-1e-05,1
355,400,-2e-05,-1e-05,-5.9999999999999995e-05,2e-05,0.0001,2e-05,-1e-05,-1e-05,1
356,401,-2e-05,-1e-05,-5.9999999999999995e-05,2e-05,0.0001,2e-05,-1e-05,-1e-05,1
357,402,-2e-05,-1e-05,-5.9999999999999995e-05,2e-05,0.0001,2e-05,-1e-05,-1e-05,1
358,405,-1e-05,-2.9999999999999997e-05,-2e-05,-5.9999999999999995e-05,-7e-05,-2e-05,-2e-05,-2e-05,1
359,406,-1e-05,-2.9999999999999997e-05,-2e-05,-5.9999999999999995e-05,-7e-05,-2e-05,-2e-05,-2e-05,1
360,407,-1e-05,-2.9999999999999997e-05,-2e-05,-5.9999999999999995e-05,-7e-05,-2e-05,-2e-05,-2e-05,1
361,408,-1e-05,-2.9999999999999997e-05,-2e-05,-5.9999999999999995e-05,-7e-05,-2e-05,-2e-05,-2e-05,1
362,409,-1e-05,-2.9999999999999997e-05,-2e-05,-5.9999999999999995e-05,-7e-05,-2e-05,-2e-05,-2e-05,1
363,410,-1e-05,-2.9999999999999997e-05,-2e-05,-5.9999999999999995e-05,-7e-05,-2e-05,-2e-05,-2e-05,1
364,411,-1e-05,-2.9999999999999997e-05,-2e-05,-5.9999999999999995e-05,-7e-05,-2e-05,-2e-05,-2e-05,1
365,412,-1e-05,-2.9999999999999997e-05,-2e-05,-5.9999999999999995e-05,-7e-05,-2e-05,-2e-05,-2e-05,1
366,413,2e-05,1e-05,1e-05,-7e-05,-1e-05,2e-05,0.0,1e-05,1
367,414,2e-05,1e-05,1e-05,-7e-05,-1e-05,2e-05,0.0,1e-05,1
368,415,2e-05,1e-05,1e-05,-7e-05,-1e-05,2e-05,0.0,1e-05,1
369,416,2e-05,1e-05,1e-05,-7e-05,-1e-05,2e-05,0.0,1e-05,1
370,417,2e-05,1e-05,1e-05,-7e-05,-1e-05,2e-05,0.0,1e-05,1
371,418,2e-05,1e-05,1e-05,-7e-05,-1e-05,2e-05,0.0,1e-05,1
372,419,2e-05,1e-05,1e-05,-7e-05,-1e-05,2e-05,0.0,1e-05,1
373,420,2e-05,1e-05,1e-05,-7e-05,-1e-05,2e-05,0.0,1e-05,1
374,421,2e-05,1e-05,1e-05,-7e-05,-1e-05,2e-05,0.0,1e-05,1
375,422,2e-05,1e-05,1e-05,-7e-05,-1e-05,2e-05,0.0,1e-05,1
376,423,2e-05,1e-05,1e-05,-7e-05,-1e-05,2e-05,0.0,1e-05,1
377,424,2e-05,1e-05,1e-05,-7e-05,-1e-05,2e-05,0.0,1e-05,1
378,425,2e-05,1e-05,1e-05,-7e-05,-1e-05,2e-05,0.0,1e-05,1
379,426,2e-05,1e-05,1e-05,-7e-05,-1e-05,2e-05,0.0,1e-05,1
380,427,2e-05,1e-05,1e-05,-7e-05,-1e-05,2e-05,0.0,1e-05,1
381,428,1e-05,-1e-05,0.0,-5e-05,-2.9999999999999997e-05,0.0,-1e-05,-1e-05,1
382,429,1e-05,-1e-05,0.0,-5e-05,-2.9999999999999997e-05,0.0,-1e-05,-1e-05,1
383,430,-1e-05,-1e-05,-2e-05,-0.00011,-0.00013000000000000002,-2e-05,-1e-05,-1e-05,1
384,431,-1e-05,-1e-05,-2e-05,-0.00011,-0.00013000000000000002,-2e-05,-1e-05,-1e-05,1
385,432,-1e-05,-1e-05,-2e-05,-0.00011,-0.00013000000000000002,-2e-05,-1e-05,-1e-05,1
386,433,-1e-05,-1e-05,-2e-05,-0.00011,-0.00013000000000000002,-2e-05,-1e-05,-1e-05,1
387,434,-1e-05,-1e-05,-2e-05,-0.00011,-0.00013000000000000002,-2e-05,-1e-05,-1e-05,1
388,435,-1e-05,-1e-05,-2e-05,-0.00011,-0.00013000000000000002,-2e-05,-1e-05,-1e-05,1
389,437,-1e-05,-1e-05,-2e-05,-0.00011,-0.00013000000000000002,-2e-05,-1e-05,-1e-05,1
390,440,-1e-05,-1e-05,-2e-05,-0.00011,-0.00013000000000000002,-2e-05,-1e-05,-1e-05,1
391,441,-1e-05,-1e-05,-2e-05,-0.00011,-0.00013000000000000002,-2e-05,-1e-05,-1e-05,1
392,442,-1e-05,-1e-05,-2e-05,-0.00011,-0.00013000000000000002,-2e-05,-1e-05,-1e-05,1
393,443,-1e-05,-1e-05,-2e-05,-0.00011,-0.00013000000000000002,-2e-05,-1e-05,-1e-05,1
394,444,-1e-05,-1e-05,-2e-05,-0.00011,-0.00013000000000000002,-2e-05,-1e-05,-1e-05,1
395,445,-1e-05,-1e-05,-2e-05,-0.00011,-0.00013000000000000002,-2e-05,-1e-05,-1e-05,1
396,446,-1e-05,-1e-05,-2e-05,-0.00011,-0.00013000000000000002,-2e-05,-1e-05,-1e-05,1
397,447,-1e-05,-1e-05,-2e-05,-0.00011,-0.00013000000000000002,-2e-05,-1e-05,-1e-05,1
398,448,-1e-05,-1e-05,-2e-05,-0.00011,-0.00013000000000000002,-2e-05,-1e-05,-1e-05,1
399,449,-1e-05,-1e-05,-2e-05,-0.00011,-0.00013000000000000002,-2e-05,-1e-05,-1e-05,1
400,450,-1e-05,-1e-05,-2e-05,-0.00011,-0.00013000000000000002,-2e-05,-1e-05,-1e-05,1
401,451,-1e-05,-1e-05,-2.9999999999999997e-05,-4e-05,-5e-05,-2e-05,0.0,0.0,1
402,452,-2e-05,-2.9999999999999997e-05,-5e-05,-5e-05,1e-05,-2e-05,0.0,-2e-05,1
403,453,-2e-05,-2.9999999999999997e-05,-5e-05,-5e-05,1e-05,-2e-05,0.0,-2e-05,1
404,454,-2e-05,-2.9999999999999997e-05,-5e-05,-5e-05,1e-05,-2e-05,0.0,-2e-05,1
405,455,-2e-05,-2.9999999999999997e-05,-5e-05,-5e-05,1e-05,-2e-05,0.0,-2e-05,1
406,456,-2e-05,-2.9999999999999997e-05,-5e-05,-5e-05,1e-05,-2e-05,0.0,-2e-05,1
407,457,-2e-05,-2.9999999999999997e-05,-5e-05,-5e-05,1e-05,-2e-05,0.0,-2e-05,1
408,458,-2e-05,-2.9999999999999997e-05,-5e-05,-5e-05,1e-05,-2e-05,0.0,-2e-05,1
409,459,-2e-05,-2.9999999999999997e-05,-5e-05,-5e-05,1e-05,-2e-05,0.0,-2e-05,1
410,460,-2e-05,-2.9999999999999997e-05,-5e-05,-5e-05,1e-05,-2e-05,0.0,-2e-05,1
411,461,-2e-05,-2.9999999999999997e-05,-5e-05,-5e-05,1e-05,-2e-05,0.0,-2e-05,1
412,462,-2e-05,-2.9999999999999997e-05,-5e-05,-5e-05,1e-05,-2e-05,0.0,-2e-05,1
413,463,-2e-05,-2.9999999999999997e-05,-5e-05,-5e-05,1e-05,-2e-05,0.0,-2e-05,1
414,464,-2e-05,-1e-05,-1e-05,2.9999999999999997e-05,0.00018999999999999998,0.0,-1e-05,-2.9999999999999997e-05,1
415,465,1e-05,-1e-05,1e-05,2e-05,-4e-05,-2e-05,-1e-05,-2e-05,1
416,466,1e-05,-1e-05,1e-05,2e-05,-4e-05,-2e-05,-1e-05,-2e-05,1
417,467,1e-05,-1e-05,1e-05,2e-05,-4e-05,-2e-05,-1e-05,-2e-05,1
418,468,1e-05,-1e-05,1e-05,2e-05,-4e-05,-2e-05,-1e-05,-2e-05,1
419,469,1e-05,-1e-05,1e-05,2e-05,-4e-05,-2e-05,-1e-05,-2e-05,1
420,470,1e-05,-1e-05,1e-05,2e-05,-4e-05,-2e-05,-1e-05,-2e-05,1
421,471,1e-05,-1e-05,1e-05,2e-05,-4e-05,-2e-05,-1e-05,-2e-05,1
422,472,1e-05,-1e-05,1e-05,2e-05,-4e-05,-2e-05,-1e-05,-2e-05,1
423,473,-1e-05,1e-05,-2e-05,-7e-05,-0.0001,-1e-05,0.0,0.0,1
424,474,-2e-05,-2e-05,0.0,2e-05,1e-05,-2.9999999999999997e-05,-2e-05,-1e-05,1
425,475,-2e-05,-2e-05,0.0,2e-05,1e-05,-2.9999999999999997e-05,-2e-05,-1e-05,1
426,476,-2e-05,-2e-05,0.0,2e-05,1e-05,-2.9999999999999997e-05,-2e-05,-1e-05,1
427,477,-2e-05,-2e-05,0.0,2e-05,1e-05,-2.9999999999999997e-05,-2e-05,-1e-05,1
428,478,-2e-05,-2e-05,0.0,2e-05,1e-05,-2.9999999999999997e-05,-2e-05,-1e-05,1
429,479,-2e-05,-2e-05,0.0,2e-05,1e-05,-2.9999999999999997e-05,-2e-05,-1e-05,1
430,480,-2e-05,-2e-05,0.0,2e-05,1e-05,-2.9999999999999997e-05,-2e-05,-1e-05,1
431,481,-2e-05,-2e-05,0.0,2e-05,1e-05,-2.9999999999999997e-05,-2e-05,-1e-05,1
432,482,-2e-05,-2e-05,0.0,2e-05,1e-05,-2.9999999999999997e-05,-2e-05,-1e-05,1
433,483,-2e-05,-2e-05,0.0,2e-05,1e-05,-2.9999999999999997e-05,-2e-05,-1e-05,1
434,484,-2e-05,-2e-05,0.0,2e-05,1e-05,-2.9999999999999997e-05,-2e-05,-1e-05,1
435,485,-2e-05,-2e-05,0.0,2e-05,1e-05,-2.9999999999999997e-05,-2e-05,-1e-05,1
436,486,-2e-05,-2e-05,0.0,2e-05,1e-05,-2.9999999999999997e-05,-2e-05,-1e-05,1
437,489,-2e-05,-2e-05,0.0,2e-05,1e-05,-2.9999999999999997e-05,-2e-05,-1e-05,1
438,490,-2.9999999999999997e-05,-5.9999999999999995e-05,-0.00014,5e-05,0.0002,1e-05,0.0,1e-05,1
439,491,1e-05,0.0,2e-05,2.9999999999999997e-05,0.0,-2e-05,-2e-05,-2e-05,1
440,492,1e-05,0.0,2e-05,2.9999999999999997e-05,0.0,-2e-05,-2e-05,-2e-05,1
441,493,1e-05,0.0,2e-05,2.9999999999999997e-05,0.0,-2e-05,-2e-05,-2e-05,1
442,494,1e-05,0.0,2e-05,2.9999999999999997e-05,0.0,-2e-05,-2e-05,-2e-05,1
443,495,1e-05,0.0,2e-05,2.9999999999999997e-05,0.0,-2e-05,-2e-05,-2e-05,1
444,496,1e-05,0.0,2e-05,2.9999999999999997e-05,0.0,-2e-05,-2e-05,-2e-05,1
445,497,1e-05,0.0,2e-05,2.9999999999999997e-05,0.0,-2e-05,-2e-05,-2e-05,1
446,498,1e-05,0.0,2e-05,2.9999999999999997e-05,0.0,-2e-05,-2e-05,-2e-05,1
447,499,1e-05,0.0,2e-05,2.9999999999999997e-05,0.0,-2e-05,-2e-05,-2e-05,1
448,500,1e-05,0.0,2e-05,2.9999999999999997e-05,0.0,-2e-05,-2e-05,-2e-05,1
449,501,1e-05,0.0,2e-05,2.9999999999999997e-05,0.0,-2e-05,-2e-05,-2e-05,1
450,502,1e-05,0.0,2e-05,2.9999999999999997e-05,0.0,-2e-05,-2e-05,-2e-05,1
451,504,1e-05,0.0,2e-05,2.9999999999999997e-05,0.0,-2e-05,-2e-05,-2e-05,1
452,505,1e-05,0.0,2e-05,2.9999999999999997e-05,0.0,-2e-05,-2e-05,-2e-05,1
453,506,1e-05,0.0,2e-05,2.9999999999999997e-05,0.0,-2e-05,-2e-05,-2e-05,1
454,507,1e-05,0.0,2e-05,2.9999999999999997e-05,0.0,-2e-05,-2e-05,-2e-05,1
455,508,1e-05,0.0,2e-05,2.9999999999999997e-05,0.0,-2e-05,-2e-05,-2e-05,1
456,509,1e-05,0.0,2e-05,2.9999999999999997e-05,0.0,-2e-05,-2e-05,-2e-05,1
457,510,1e-05,0.0,2e-05,2.9999999999999997e-05,0.0,-2e-05,-2e-05,-2e-05,1
458,511,-1e-05,2e-05,5e-05,8e-05,-5.9999999999999995e-05,0.0,0.0,-1e-05,1
459,512,-1e-05,-2.9999999999999997e-05,-1e-05,-5e-05,-5.9999999999999995e-05,-2.9999999999999997e-05,-1e-05,1e-05,1
460,513,-1e-05,-2.9999999999999997e-05,-1e-05,-5e-05,-5.9999999999999995e-05,-2.9999999999999997e-05,-1e-05,1e-05,1
461,514,-1e-05,-2.9999999999999997e-05,-1e-05,-5e-05,-5.9999999999999995e-05,-2.9999999999999997e-05,-1e-05,1e-05,1
462,515,-1e-05,-2.9999999999999997e-05,-1e-05,-5e-05,-5.9999999999999995e-05,-2.9999999999999997e-05,-1e-05,1e-05,1
463,516,-1e-05,-2.9999999999999997e-05,-1e-05,-5e-05,-5.9999999999999995e-05,-2.9999999999999997e-05,-1e-05,1e-05,1
464,517,-1e-05,-2.9999999999999997e-05,-1e-05,-5e-05,-5.9999999999999995e-05,-2.9999999999999997e-05,-1e-05,1e-05,1
465,519,-1e-05,-2.9999999999999997e-05,-1e-05,-5e-05,-5.9999999999999995e-05,-2.9999999999999997e-05,-1e-05,1e-05,1
466,520,-1e-05,-2.9999999999999997e-05,-1e-05,-5e-05,-5.9999999999999995e-05,-2.9999999999999997e-05,-1e-05,1e-05,1
467,521,-1e-05,-2.9999999999999997e-05,-1e-05,-5e-05,-5.9999999999999995e-05,-2.9999999999999997e-05,-1e-05,1e-05,1
468,522,-1e-05,-2.9999999999999997e-05,-1e-05,-5e-05,-5.9999999999999995e-05,-2.9999999999999997e-05,-1e-05,1e-05,1
469,523,-1e-05,-2.9999999999999997e-05,-1e-05,-5e-05,-5.9999999999999995e-05,-2.9999999999999997e-05,-1e-05,1e-05,1
470,524,-1e-05,-2e-05,2e-05,8e-05,5e-05,0.0,-2.9999999999999997e-05,0.0,1
471,525,-2e-05,-2.9999999999999997e-05,-4e-05,-2.9999999999999997e-05,-2.9999999999999997e-05,0.0,-2.9999999999999997e-05,-2e-05,1
472,526,-2e-05,-2.9999999999999997e-05,-4e-05,-2.9999999999999997e-05,-2.9999999999999997e-05,0.0,-2.9999999999999997e-05,-2e-05,1
473,527,-2e-05,-2.9999999999999997e-05,-4e-05,-2.9999999999999997e-05,-2.9999999999999997e-05,0.0,-2.9999999999999997e-05,-2e-05,1
474,528,-2e-05,-2.9999999999999997e-05,-4e-05,-2.9999999999999997e-05,-2.9999999999999997e-05,0.0,-2.9999999999999997e-05,-2e-05,1
475,529,-2e-05,-2.9999999999999997e-05,-4e-05,-2.9999999999999997e-05,-2.9999999999999997e-05,0.0,-2.9999999999999997e-05,-2e-05,1
476,530,-2e-05,-2.9999999999999997e-05,-4e-05,-2.9999999999999997e-05,-2.9999999999999997e-05,0.0,-2.9999999999999997e-05,-2e-05,1
477,531,-2e-05,-2.9999999999999997e-05,-4e-05,-2.9999999999999997e-05,-2.9999999999999997e-05,0.0,-2.9999999999999997e-05,-2e-05,1
478,534,0.0,-1e-05,2.9999999999999997e-05,5.9999999999999995e-05,-2.9999999999999997e-05,-1e-05,0.0,-2e-05,1
479,535,0.0,-1e-05,2.9999999999999997e-05,5.9999999999999995e-05,-2.9999999999999997e-05,-1e-05,0.0,-2e-05,1
480,536,0.0,-1e-05,2.9999999999999997e-05,5.9999999999999995e-05,-2.9999999999999997e-05,-1e-05,0.0,-2e-05,1
481,539,0.0,-1e-05,2.9999999999999997e-05,5.9999999999999995e-05,-2.9999999999999997e-05,-1e-05,0.0,-2e-05,1
482,540,0.0,-1e-05,2.9999999999999997e-05,5.9999999999999995e-05,-2.9999999999999997e-05,-1e-05,0.0,-2e-05,1
483,541,0.0,-1e-05,2.9999999999999997e-05,5.9999999999999995e-05,-2.9999999999999997e-05,-1e-05,0.0,-2e-05,1
484,542,0.0,-1e-05,2.9999999999999997e-05,5.9999999999999995e-05,-2.9999999999999997e-05,-1e-05,0.0,-2e-05,1
485,543,0.0,-1e-05,2.9999999999999997e-05,5.9999999999999995e-05,-2.9999999999999997e-05,-1e-05,0.0,-2e-05,1
486,544,0.0,-1e-05,2.9999999999999997e-05,5.9999999999999995e-05,-2.9999999999999997e-05,-1e-05,0.0,-2e-05,1
487,545,0.0,-1e-05,2.9999999999999997e-05,5.9999999999999995e-05,-2.9999999999999997e-05,-1e-05,0.0,-2e-05,1
488,546,0.0,-1e-05,2.9999999999999997e-05,5.9999999999999995e-05,-2.9999999999999997e-05,-1e-05,0.0,-2e-05,1
489,547,0.0,-1e-05,2.9999999999999997e-05,5.9999999999999995e-05,-2.9999999999999997e-05,-1e-05,0.0,-2e-05,1
490,548,0.0,-1e-05,2.9999999999999997e-05,5.9999999999999995e-05,-2.9999999999999997e-05,-1e-05,0.0,-2e-05,1
491,549,-2e-05,2e-05,7e-05,5.9999999999999995e-05,8e-05,0.0,-2e-05,-1e-05,1
492,550,-2e-05,2e-05,7e-05,5.9999999999999995e-05,8e-05,0.0,-2e-05,-1e-05,1
493,551,-2e-05,2e-05,7e-05,5.9999999999999995e-05,8e-05,0.0,-2e-05,-1e-05,1
494,552,-2e-05,2e-05,7e-05,5.9999999999999995e-05,8e-05,0.0,-2e-05,-1e-05,1
495,553,-2e-05,2e-05,7e-05,5.9999999999999995e-05,8e-05,0.0,-2e-05,-1e-05,1
496,554,-1e-05,-4e-05,-2.9999999999999997e-05,-1e-05,-4e-05,1e-05,-1e-05,-2e-05,1
497,555,-2e-05,-2e-05,-5e-05,-9e-05,-7e-05,-2.9999999999999997e-05,-2e-05,-2e-05,1
498,556,-2e-05,-2e-05,-5e-05,-9e-05,-7e-05,-2.9999999999999997e-05,-2e-05,-2e-05,1
499,557,-2e-05,-2e-05,-5e-05,-9e-05,-7e-05,-2.9999999999999997e-05,-2e-05,-2e-05,1
500,558,-2e-05,-2e-05,-5e-05,-9e-05,-7e-05,-2.9999999999999997e-05,-2e-05,-2e-05,1
501,559,-2e-05,-2e-05,-5e-05,-9e-05,-7e-05,-2.9999999999999997e-05,-2e-05,-2e-05,1
502,560,-2e-05,-2e-05,-5e-05,-9e-05,-7e-05,-2.9999999999999997e-05,-2e-05,-2e-05,1
503,561,-2e-05,-2e-05,-5e-05,-9e-05,-7e-05,-2.9999999999999997e-05,-2e-05,-2e-05,1
504,562,-2e-05,-2e-05,-5e-05,-9e-05,-7e-05,-2.9999999999999997e-05,-2e-05,-2e-05,1
505,563,-2e-05,-2e-05,-5e-05,-9e-05,-7e-05,-2.9999999999999997e-05,-2e-05,-2e-05,1
506,564,-2e-05,-2e-05,-5e-05,-9e-05,-7e-05,-2.9999999999999997e-05,-2e-05,-2e-05,1
507,565,-2e-05,-2e-05,-5e-05,-9e-05,-7e-05,-2.9999999999999997e-05,-2e-05,-2e-05,1
508,566,-2e-05,-2e-05,-5e-05,-9e-05,-7e-05,-2.9999999999999997e-05,-2e-05,-2e-05,1
509,567,-2e-05,-2e-05,-5e-05,-9e-05,-7e-05,-2.9999999999999997e-05,-2e-05,-2e-05,1
510,568,-2e-05,-2e-05,-5e-05,-9e-05,-7e-05,-2.9999999999999997e-05,-2e-05,-2e-05,1
511,569,-2e-05,-2e-05,-5e-05,-9e-05,-7e-05,-2.9999999999999997e-05,-2e-05,-2e-05,1
512,570,-2e-05,-2e-05,-5e-05,-9e-05,-7e-05,-2.9999999999999997e-05,-2e-05,-2e-05,1
513,571,-1e-05,-2e-05,4e-05,8e-05,-8e-05,-4e-05,0.0,-1e-05,1
514,572,-1e-05,0.0,2e-05,2e-05,-2.9999999999999997e-05,-1e-05,-1e-05,0.0,1
515,573,-1e-05,0.0,2e-05,2e-05,-2.9999999999999997e-05,-1e-05,-1e-05,0.0,1
516,574,-1e-05,0.0,2e-05,2e-05,-2.9999999999999997e-05,-1e-05,-1e-05,0.0,1
517,575,-1e-05,0.0,2e-05,2e-05,-2.9999999999999997e-05,-1e-05,-1e-05,0.0,1
518,576,-1e-05,0.0,2e-05,2e-05,-2.9999999999999997e-05,-1e-05,-1e-05,0.0,1
519,577,-1e-05,0.0,2e-05,2e-05,-2.9999999999999997e-05,-1e-05,-1e-05,0.0,1
520,578,-1e-05,0.0,2e-05,2e-05,-2.9999999999999997e-05,-1e-05,-1e-05,0.0,1
521,579,-1e-05,0.0,2e-05,2e-05,-2.9999999999999997e-05,-1e-05,-1e-05,0.0,1
522,580,-1e-05,0.0,2e-05,2e-05,-2.9999999999999997e-05,-1e-05,-1e-05,0.0,1
523,581,-1e-05,0.0,2e-05,2e-05,-2.9999999999999997e-05,-1e-05,-1e-05,0.0,1
524,582,-1e-05,0.0,2e-05,2e-05,-2.9999999999999997e-05,-1e-05,-1e-05,0.0,1
525,583,-1e-05,0.0,2e-05,2e-05,-2.9999999999999997e-05,-1e-05,-1e-05,0.0,1
526,584,-1e-05,-1e-05,-2.9999999999999997e-05,-5.9999999999999995e-05,5.9999999999999995e-05,2e-05,0.0,0.0,1
527,585,0.0,2.9999999999999997e-05,4e-05,-5e-05,-4e-05,-1e-05,-1e-05,0.0,1
528,586,0.0,2.9999999999999997e-05,4e-05,-5e-05,-4e-05,-1e-05,-1e-05,0.0,1
529,589,0.0,2.9999999999999997e-05,4e-05,-5e-05,-4e-05,-1e-05,-1e-05,0.0,1
530,590,0.0,2.9999999999999997e-05,4e-05,-5e-05,-4e-05,-1e-05,-1e-05,0.0,1
531,591,0.0,2.9999999999999997e-05,4e-05,-5e-05,-4e-05,-1e-05,-1e-05,0.0,1
532,592,0.0,2.9999999999999997e-05,4e-05,-5e-05,-4e-05,-1e-05,-1e-05,0.0,1
533,593,0.0,0.0,2.9999999999999997e-05,4e-05,-2e-05,-2.9999999999999997e-05,-2e-05,-1e-05,1
534,594,-1e-05,0.0,1e-05,-4e-05,-2e-05,0.0,0.0,-2e-05,1
535,595,-1e-05,0.0,1e-05,-4e-05,-2e-05,0.0,0.0,-2e-05,1
536,596,-1e-05,0.0,1e-05,-4e-05,-2e-05,0.0,0.0,-2e-05,1
537,597,-1e-05,0.0,1e-05,-4e-05,-2e-05,0.0,0.0,-2e-05,1
538,598,-1e-05,0.0,1e-05,-4e-05,-2e-05,0.0,0.0,-2e-05,1
539,599,-1e-05,0.0,1e-05,-4e-05,-2e-05,0.0,0.0,-2e-05,1
540,600,-1e-05,0.0,1e-05,-4e-05,-2e-05,0.0,0.0,-2e-05,1
541,601,-1e-05,0.0,1e-05,-4e-05,-2e-05,0.0,0.0,-2e-05,1
542,602,-1e-05,0.0,1e-05,-4e-05,-2e-05,0.0,0.0,-2e-05,1
543,603,-1e-05,0.0,1e-05,-4e-05,-2e-05,0.0,0.0,-2e-05,1
544,604,-1e-05,0.0,1e-05,-4e-05,-2e-05,0.0,0.0,-2e-05,1
545,605,-1e-05,0.0,1e-05,-4e-05,-2e-05,0.0,0.0,-2e-05,1
546,606,-1e-05,0.0,1e-05,-4e-05,-2e-05,0.0,0.0,-2e-05,1
547,607,-1e-05,0.0,1e-05,-4e-05,-2e-05,0.0,0.0,-2e-05,1
548,608,1e-05,-2e-05,1e-05,2.9999999999999997e-05,0.00018,-1e-05,1e-05,0.0,1
549,609,2e-05,-1e-05,1e-05,2e-05,-0.00011,-2e-05,-1e-05,0.0,1
550,610,-5e-05,1e-05,2e-05,5.9999999999999995e-05,5e-05,0.0,-1e-05,-2e-05,1
551,611,-5e-05,1e-05,2e-05,5.9999999999999995e-05,5e-05,0.0,-1e-05,-2e-05,1
552,612,-5e-05,1e-05,2e-05,5.9999999999999995e-05,5e-05,0.0,-1e-05,-2e-05,1
553,613,-5e-05,1e-05,2e-05,5.9999999999999995e-05,5e-05,0.0,-1e-05,-2e-05,1
554,614,-5e-05,1e-05,2e-05,5.9999999999999995e-05,5e-05,0.0,-1e-05,-2e-05,1
555,615,-5e-05,1e-05,2e-05,5.9999999999999995e-05,5e-05,0.0,-1e-05,-2e-05,1
556,616,-5e-05,1e-05,2e-05,5.9999999999999995e-05,5e-05,0.0,-1e-05,-2e-05,1
557,617,-5e-05,1e-05,2e-05,5.9999999999999995e-05,5e-05,0.0,-1e-05,-2e-05,1
558,618,-5e-05,1e-05,2e-05,5.9999999999999995e-05,5e-05,0.0,-1e-05,-2e-05,1
559,619,-5e-05,1e-05,2e-05,5.9999999999999995e-05,5e-05,0.0,-1e-05,-2e-05,1
560,620,-5e-05,1e-05,2e-05,5.9999999999999995e-05,5e-05,0.0,-1e-05,-2e-05,1
561,621,-5e-05,1e-05,2e-05,5.9999999999999995e-05,5e-05,0.0,-1e-05,-2e-05,1
562,622,-5e-05,1e-05,2e-05,5.9999999999999995e-05,5e-05,0.0,-1e-05,-2e-05,1
563,623,-5e-05,1e-05,2e-05,5.9999999999999995e-05,5e-05,0.0,-1e-05,-2e-05,1
564,624,-5e-05,1e-05,2e-05,5.9999999999999995e-05,5e-05,0.0,-1e-05,-2e-05,1
565,625,-5e-05,1e-05,2e-05,5.9999999999999995e-05,5e-05,0.0,-1e-05,-2e-05,1
566,626,-5e-05,1e-05,2e-05,5.9999999999999995e-05,5e-05,0.0,-1e-05,-2e-05,1
567,627,-5e-05,1e-05,2e-05,5.9999999999999995e-05,5e-05,0.0,-1e-05,-2e-05,1
568,628,-5e-05,1e-05,2e-05,5.9999999999999995e-05,5e-05,0.0,-1e-05,-2e-05,1
569,629,-5e-05,1e-05,2e-05,5.9999999999999995e-05,5e-05,0.0,-1e-05,-2e-05,1
570,630,-5e-05,1e-05,2e-05,5.9999999999999995e-05,5e-05,0.0,-1e-05,-2e-05,1
571,631,0.0,-2e-05,-4e-05,-0.00015,-0.00022999999999999998,0.0,0.0,-1e-05,1
572,632,1e-05,-2e-05,1e-05,2.9999999999999997e-05,2.9999999999999997e-05,-2.9999999999999997e-05,0.0,1e-05,1
573,633,1e-05,-2e-05,1e-05,2.9999999999999997e-05,2.9999999999999997e-05,-2.9999999999999997e-05,0.0,1e-05,1
574,634,1e-05,-2e-05,1e-05,2.9999999999999997e-05,2.9999999999999997e-05,-2.9999999999999997e-05,0.0,1e-05,1
575,635,1e-05,-2e-05,1e-05,2.9999999999999997e-05,2.9999999999999997e-05,-2.9999999999999997e-05,0.0,1e-05,1
576,637,1e-05,-2e-05,1e-05,2.9999999999999997e-05,2.9999999999999997e-05,-2.9999999999999997e-05,0.0,1e-05,1
577,640,1e-05,-2e-05,1e-05,2.9999999999999997e-05,2.9999999999999997e-05,-2.9999999999999997e-05,0.0,1e-05,1
578,641,1e-05,-2e-05,1e-05,2.9999999999999997e-05,2.9999999999999997e-05,-2.9999999999999997e-05,0.0,1e-05,1
579,642,1e-05,-2e-05,1e-05,2.9999999999999997e-05,2.9999999999999997e-05,-2.9999999999999997e-05,0.0,1e-05,1
580,643,1e-05,-2e-05,1e-05,2.9999999999999997e-05,2.9999999999999997e-05,-2.9999999999999997e-05,0.0,1e-05,1
581,644,-2e-05,-4e-05,-2.9999999999999997e-05,-2.9999999999999997e-05,-7e-05,-1e-05,-1e-05,-2e-05,1
582,645,-2e-05,-4e-05,-2.9999999999999997e-05,-2.9999999999999997e-05,-7e-05,-1e-05,-1e-05,-2e-05,1
583,646,-2e-05,-4e-05,-2.9999999999999997e-05,-2.9999999999999997e-05,-7e-05,-1e-05,-1e-05,-2e-05,1
584,647,-2e-05,-4e-05,-2.9999999999999997e-05,-2.9999999999999997e-05,-7e-05,-1e-05,-1e-05,-2e-05,1
585,648,-2e-05,-4e-05,-2.9999999999999997e-05,-2.9999999999999997e-05,-7e-05,-1e-05,-1e-05,-2e-05,1
586,649,-2e-05,-4e-05,-2.9999999999999997e-05,-2.9999999999999997e-05,-7e-05,-1e-05,-1e-05,-2e-05,1
587,650,-2e-05,-4e-05,-2.9999999999999997e-05,-2.9999999999999997e-05,-7e-05,-1e-05,-1e-05,-2e-05,1
588,651,-2e-05,-4e-05,-2.9999999999999997e-05,-2.9999999999999997e-05,-7e-05,-1e-05,-1e-05,-2e-05,1
589,652,-2e-05,-4e-05,-2.9999999999999997e-05,-2.9999999999999997e-05,-7e-05,-1e-05,-1e-05,-2e-05,1
590,653,-2e-05,-2e-05,-2.9999999999999997e-05,-1e-05,8e-05,0.0,-1e-05,-2e-05,1
591,654,-2e-05,-2e-05,-2.9999999999999997e-05,-1e-05,8e-05,0.0,-1e-05,-2e-05,1
592,655,-2e-05,-2e-05,-2.9999999999999997e-05,-1e-05,8e-05,0.0,-1e-05,-2e-05,1
593,656,-2e-05,-2e-05,-2.9999999999999997e-05,-1e-05,8e-05,0.0,-1e-05,-2e-05,1
594,657,-2e-05,-2e-05,-2.9999999999999997e-05,-1e-05,8e-05,0.0,-1e-05,-2e-05,1
595,658,-2e-05,-2e-05,-2.9999999999999997e-05,-1e-05,8e-05,0.0,-1e-05,-2e-05,1
596,659,-2e-05,-2e-05,-2.9999999999999997e-05,-1e-05,8e-05,0.0,-1e-05,-2e-05,1
597,660,-2e-05,-2e-05,-2.9999999999999997e-05,-1e-05,8e-05,0.0,-1e-05,-2e-05,1
598,661,-2e-05,-2e-05,-2.9999999999999997e-05,-1e-05,8e-05,0.0,-1e-05,-2e-05,1
599,662,-2e-05,-2e-05,-2.9999999999999997e-05,-1e-05,8e-05,0.0,-1e-05,-2e-05,1
600,663,-2e-05,-2e-05,-2.9999999999999997e-05,-1e-05,8e-05,0.0,-1e-05,-2e-05,1
601,664,-2e-05,-2e-05,-2.9999999999999997e-05,-1e-05,8e-05,0.0,-1e-05,-2e-05,1
602,665,-2e-05,-2e-05,-2.9999999999999997e-05,-1e-05,8e-05,0.0,-1e-05,-2e-05,1
603,666,-2e-05,-2e-05,-2.9999999999999997e-05,-1e-05,8e-05,0.0,-1e-05,-2e-05,1
604,667,-2e-05,-2e-05,-2.9999999999999997e-05,-1e-05,8e-05,0.0,-1e-05,-2e-05,1
605,668,1e-05,2e-05,-2e-05,-4e-05,-4e-05,1e-05,0.0,-2e-05,1
606,669,1e-05,2e-05,-2e-05,-4e-05,-4e-05,1e-05,0.0,-2e-05,1
607,670,0.0,-1e-05,0.0,2e-05,-0.00013000000000000002,-1e-05,-2e-05,1e-05,1
608,671,0.0,-1e-05,0.0,2e-05,-0.00013000000000000002,-1e-05,-2e-05,1e-05,1
609,672,0.0,-1e-05,0.0,2e-05,-0.00013000000000000002,-1e-05,-2e-05,1e-05,1
610,673,0.0,-1e-05,0.0,2e-05,-0.00013000000000000002,-1e-05,-2e-05,1e-05,1
611,674,0.0,-1e-05,0.0,2e-05,-0.00013000000000000002,-1e-05,-2e-05,1e-05,1
612,675,0.0,-1e-05,0.0,2e-05,-0.00013000000000000002,-1e-05,-2e-05,1e-05,1
613,676,0.0,-1e-05,0.0,2e-05,-0.00013000000000000002,-1e-05,-2e-05,1e-05,1
614,677,0.0,-1e-05,0.0,2e-05,-0.00013000000000000002,-1e-05,-2e-05,1e-05,1
615,678,0.0,-1e-05,0.0,2e-05,-0.00013000000000000002,-1e-05,-2e-05,1e-05,1
616,679,0.0,-1e-05,0.0,2e-05,-0.00013000000000000002,-1e-05,-2e-05,1e-05,1
617,680,0.0,-1e-05,0.0,2e-05,-0.00013000000000000002,-1e-05,-2e-05,1e-05,1
618,681,0.0,-1e-05,0.0,2e-05,-0.00013000000000000002,-1e-05,-2e-05,1e-05,1
619,682,0.0,-1e-05,0.0,2e-05,-0.00013000000000000002,-1e-05,-2e-05,1e-05,1
620,683,0.0,-1e-05,0.0,2e-05,-0.00013000000000000002,-1e-05,-2e-05,1e-05,1
621,684,0.0,-1e-05,0.0,2e-05,-0.00013000000000000002,-1e-05,-2e-05,1e-05,1
622,685,0.0,-1e-05,0.0,2e-05,-0.00013000000000000002,-1e-05,-2e-05,1e-05,1
623,686,0.0,-1e-05,0.0,2e-05,-0.00013000000000000002,-1e-05,-2e-05,1e-05,1
624,690,0.0,-1e-05,0.0,2e-05,-0.00013000000000000002,-1e-05,-2e-05,1e-05,1
625,691,0.0,-2e-05,1e-05,5e-05,5.9999999999999995e-05,1e-05,-2e-05,0.0,1
626,692,1e-05,-2e-05,-1e-05,-0.00011,-7e-05,-1e-05,0.0,-1e-05,1
627,693,-1e-05,-2.9999999999999997e-05,-7e-05,-5e-05,-0.00011999999999999999,-2e-05,-1e-05,-2e-05,1
628,694,-1e-05,-2.9999999999999997e-05,-7e-05,-5e-05,-0.00011999999999999999,-2e-05,-1e-05,-2e-05,1
629,695,-1e-05,-2.9999999999999997e-05,-7e-05,-5e-05,-0.00011999999999999999,-2e-05,-1e-05,-2e-05,1
630,696,-1e-05,-2.9999999999999997e-05,-7e-05,-5e-05,-0.00011999999999999999,-2e-05,-1e-05,-2e-05,1
631,697,-1e-05,-2.9999999999999997e-05,-7e-05,-5e-05,-0.00011999999999999999,-2e-05,-1e-05,-2e-05,1
632,698,-1e-05,-2.9999999999999997e-05,-7e-05,-5e-05,-0.00011999999999999999,-2e-05,-1e-05,-2e-05,1
633,699,-1e-05,-2.9999999999999997e-05,-7e-05,-5e-05,-0.00011999999999999999,-2e-05,-1e-05,-2e-05,1
634,700,-1e-05,-2.9999999999999997e-05,-7e-05,-5e-05,-0.00011999999999999999,-2e-05,-1e-05,-2e-05,1
635,701,-1e-05,-2.9999999999999997e-05,-7e-05,-5e-05,-0.00011999999999999999,-2e-05,-1e-05,-2e-05,1
636,702,-1e-05,-2.9999999999999997e-05,-7e-05,-5e-05,-0.00011999999999999999,-2e-05,-1e-05,-2e-05,1
637,703,-1e-05,-2.9999999999999997e-05,-7e-05,-5e-05,-0.00011999999999999999,-2e-05,-1e-05,-2e-05,1
638,704,-1e-05,-2.9999999999999997e-05,-7e-05,-5e-05,-0.00011999999999999999,-2e-05,-1e-05,-2e-05,1
639,705,-1e-05,-2.9999999999999997e-05,-7e-05,-5e-05,-0.00011999999999999999,-2e-05,-1e-05,-2e-05,1
640,706,-1e-05,-2.9999999999999997e-05,-7e-05,-5e-05,-0.00011999999999999999,-2e-05,-1e-05,-2e-05,1
641,707,-1e-05,-2.9999999999999997e-05,-7e-05,-5e-05,-0.00011999999999999999,-2e-05,-1e-05,-2e-05,1
642,708,-1e-05,-2.9999999999999997e-05,-7e-05,-5e-05,-0.00011999999999999999,-2e-05,-1e-05,-2e-05,1
643,709,-1e-05,-2.9999999999999997e-05,-7e-05,-5e-05,-0.00011999999999999999,-2e-05,-1e-05,-2e-05,1
644,710,-1e-05,-2.9999999999999997e-05,-7e-05,-5e-05,-0.00011999999999999999,-2e-05,-1e-05,-2e-05,1
645,711,-1e-05,-2.9999999999999997e-05,-7e-05,-5e-05,-0.00011999999999999999,-2e-05,-1e-05,-2e-05,1
646,712,-1e-05,-2.9999999999999997e-05,-7e-05,-5e-05,-0.00011999999999999999,-2e-05,-1e-05,-2e-05,1
647,713,-2e-05,1e-05,1e-05,0.00013000000000000002,0.0001,1e-05,0.0,0.0,1
648,714,0.0,-1e-05,-1e-05,-4e-05,-7e-05,-1e-05,0.0,0.0,1
649,715,0.0,2e-05,5e-05,-2e-05,-2e-05,-1e-05,-2e-05,-2e-05,1
650,716,0.0,2e-05,5e-05,-2e-05,-2e-05,-1e-05,-2e-05,-2e-05,1
651,717,0.0,2e-05,5e-05,-2e-05,-2e-05,-1e-05,-2e-05,-2e-05,1
652,718,0.0,2e-05,5e-05,-2e-05,-2e-05,-1e-05,-2e-05,-2e-05,1
653,719,0.0,2e-05,5e-05,-2e-05,-2e-05,-1e-05,-2e-05,-2e-05,1
654,720,0.0,2e-05,5e-05,-2e-05,-2e-05,-1e-05,-2e-05,-2e-05,1
655,721,0.0,2e-05,5e-05,-2e-05,-2e-05,-1e-05,-2e-05,-2e-05,1
656,722,0.0,2e-05,5e-05,-2e-05,-2e-05,-1e-05,-2e-05,-2e-05,1
657,723,0.0,2e-05,5e-05,-2e-05,-2e-05,-1e-05,-2e-05,-2e-05,1
658,724,0.0,2e-05,5e-05,-2e-05,-2e-05,-1e-05,-2e-05,-2e-05,1
659,725,0.0,2e-05,5e-05,-2e-05,-2e-05,-1e-05,-2e-05,-2e-05,1
660,726,0.0,2e-05,5e-05,-2e-05,-2e-05,-1e-05,-2e-05,-2e-05,1
661,727,0.0,2e-05,5e-05,-2e-05,-2e-05,-1e-05,-2e-05,-2e-05,1
662,728,-2.9999999999999997e-05,-1e-05,-5e-05,-2e-05,2e-05,0.0,-2e-05,-1e-05,1
663,729,-2.9999999999999997e-05,-1e-05,-5e-05,-2e-05,2e-05,0.0,-2e-05,-1e-05,1
664,730,0.0,-2e-05,0.0,-0.00014,-0.00029,-1e-05,-1e-05,1e-05,1
665,731,0.0,-2e-05,0.0,-0.00014,-0.00029,-1e-05,-1e-05,1e-05,1
666,732,0.0,-2e-05,0.0,-0.00014,-0.00029,-1e-05,-1e-05,1e-05,1
667,733,0.0,-2e-05,0.0,-0.00014,-0.00029,-1e-05,-1e-05,1e-05,1
668,734,0.0,-2e-05,0.0,-0.00014,-0.00029,-1e-05,-1e-05,1e-05,1
669,735,0.0,-2e-05,0.0,-0.00014,-0.00029,-1e-05,-1e-05,1e-05,1
670,736,0.0,-2e-05,0.0,-0.00014,-0.00029,-1e-05,-1e-05,1e-05,1
671,739,0.0,-2e-05,0.0,-0.00014,-0.00029,-1e-05,-1e-05,1e-05,1
672,740,0.0,-2e-05,0.0,-0.00014,-0.00029,-1e-05,-1e-05,1e-05,1
673,741,0.0,-2e-05,0.0,-0.00014,-0.00029,-1e-05,-1e-05,1e-05,1
674,742,0.0,-2e-05,0.0,-0.00014,-0.00029,-1e-05,-1e-05,1e-05,1
675,743,0.0,-2e-05,0.0,-0.00014,-0.00029,-1e-05,-1e-05,1e-05,1
676,744,0.0,-2e-05,0.0,-0.00014,-0.00029,-1e-05,-1e-05,1e-05,1
677,745,0.0,-2e-05,0.0,-0.00014,-0.00029,-1e-05,-1e-05,1e-05,1
678,746,0.0,-2e-05,0.0,-0.00014,-0.00029,-1e-05,-1e-05,1e-05,1
679,747,0.0,-2e-05,0.0,-0.00014,-0.00029,-1e-05,-1e-05,1e-05,1
680,748,0.0,-2e-05,0.0,-0.00014,-0.00029,-1e-05,-1e-05,1e-05,1
681,749,0.0,-2e-05,0.0,-0.00014,-0.00029,-1e-05,-1e-05,1e-05,1
682,750,0.0,-2e-05,0.0,-0.00014,-0.00029,-1e-05,-1e-05,1e-05,1
683,751,-1e-05,-1e-05,-2e-05,0.0,0.0001,-2e-05,-1e-05,-1e-05,1
684,752,-1e-05,-1e-05,2e-05,-2e-05,1e-05,2e-05,0.0,-1e-05,1
685,753,-1e-05,-1e-05,2e-05,-2e-05,1e-05,2e-05,0.0,-1e-05,1
686,754,-1e-05,-1e-05,2e-05,-2e-05,1e-05,2e-05,0.0,-1e-05,1
687,755,-1e-05,-1e-05,2e-05,-2e-05,1e-05,2e-05,0.0,-1e-05,1
688,756,-1e-05,-1e-05,2e-05,-2e-05,1e-05,2e-05,0.0,-1e-05,1
689,757,-1e-05,-1e-05,2e-05,-2e-05,1e-05,2e-05,0.0,-1e-05,1
690,758,-1e-05,-1e-05,2e-05,-2e-05,1e-05,2e-05,0.0,-1e-05,1
691,759,-1e-05,-1e-05,2e-05,-2e-05,1e-05,2e-05,0.0,-1e-05,1
692,760,-1e-05,-1e-05,2e-05,-2e-05,1e-05,2e-05,0.0,-1e-05,1
693,761,-1e-05,-1e-05,2e-05,-2e-05,1e-05,2e-05,0.0,-1e-05,1
694,762,-1e-05,-1e-05,2e-05,-2e-05,1e-05,2e-05,0.0,-1e-05,1
695,763,-1e-05,-1e-05,2e-05,-2e-05,1e-05,2e-05,0.0,-1e-05,1
696,764,-1e-05,-1e-05,2e-05,-2e-05,1e-05,2e-05,0.0,-1e-05,1
697,765,-1e-05,-1e-05,2e-05,-2e-05,1e-05,2e-05,0.0,-1e-05,1
698,766,-1e-05,-1e-05,2e-05,-2e-05,1e-05,2e-05,0.0,-1e-05,1
699,767,-1e-05,-1e-05,2e-05,-2e-05,1e-05,2e-05,0.0,-1e-05,1
700,768,-1e-05,-1e-05,2e-05,-2e-05,1e-05,2e-05,0.0,-1e-05,1
701,769,-1e-05,-1e-05,2e-05,-2e-05,1e-05,2e-05,0.0,-1e-05,1
702,770,-1e-05,-1e-05,2e-05,-2e-05,1e-05,2e-05,0.0,-1e-05,1
703,771,-1e-05,-1e-05,2e-05,-2e-05,1e-05,2e-05,0.0,-1e-05,1
704,772,-1e-05,-1e-05,2e-05,-2e-05,1e-05,2e-05,0.0,-1e-05,1
705,773,0.0,0.0,1e-05,-7e-05,-0.00016999999999999999,-2e-05,-1e-05,-2e-05,1
706,774,0.0,0.0,1e-05,-7e-05,-0.00016999999999999999,-2e-05,-1e-05,-2e-05,1
707,775,-2.9999999999999997e-05,-2.9999999999999997e-05,0.0,0.00018999999999999998,0.0,0.0,-2e-05,-1e-05,1
708,776,-2.9999999999999997e-05,-2.9999999999999997e-05,0.0,0.00018999999999999998,0.0,0.0,-2e-05,-1e-05,1
709,777,-2.9999999999999997e-05,-2.9999999999999997e-05,0.0,0.00018999999999999998,0.0,0.0,-2e-05,-1e-05,1
710,778,-2.9999999999999997e-05,-2.9999999999999997e-05,0.0,0.00018999999999999998,0.0,0.0,-2e-05,-1e-05,1
711,779,-2.9999999999999997e-05,-2.9999999999999997e-05,0.0,0.00018999999999999998,0.0,0.0,-2e-05,-1e-05,1
712,780,-2.9999999999999997e-05,-2.9999999999999997e-05,0.0,0.00018999999999999998,0.0,0.0,-2e-05,-1e-05,1
713,781,-2.9999999999999997e-05,-2.9999999999999997e-05,0.0,0.00018999999999999998,0.0,0.0,-2e-05,-1e-05,1
714,782,-2.9999999999999997e-05,-2.9999999999999997e-05,0.0,0.00018999999999999998,0.0,0.0,-2e-05,-1e-05,1
715,783,-2.9999999999999997e-05,-2.9999999999999997e-05,0.0,0.00018999999999999998,0.0,0.0,-2e-05,-1e-05,1
716,784,-2.9999999999999997e-05,-2.9999999999999997e-05,0.0,0.00018999999999999998,0.0,0.0,-2e-05,-1e-05,1
717,785,-2.9999999999999997e-05,-2.9999999999999997e-05,0.0,0.00018999999999999998,0.0,0.0,-2e-05,-1e-05,1
718,786,-2.9999999999999997e-05,-2.9999999999999997e-05,0.0,0.00018999999999999998,0.0,0.0,-2e-05,-1e-05,1
719,789,-5e-05,1e-05,2e-05,0.00011999999999999999,2.9999999999999997e-05,0.0,-1e-05,-2.9999999999999997e-05,1
720,790,-5e-05,1e-05,2e-05,0.00011999999999999999,2.9999999999999997e-05,0.0,-1e-05,-2.9999999999999997e-05,1
721,791,-1e-05,2e-05,-2.9999999999999997e-05,-4e-05,5e-05,-1e-05,0.0,-2e-05,1
722,792,-1e-05,2e-05,-2.9999999999999997e-05,-4e-05,5e-05,-1e-05,0.0,-2e-05,1
723,793,-1e-05,2e-05,-2.9999999999999997e-05,-4e-05,5e-05,-1e-05,0.0,-2e-05,1
724,794,-1e-05,2e-05,-2.9999999999999997e-05,-4e-05,5e-05,-1e-05,0.0,-2e-05,1
725,795,-1e-05,2e-05,-2.9999999999999997e-05,-4e-05,5e-05,-1e-05,0.0,-2e-05,1
726,796,-1e-05,2e-05,-2.9999999999999997e-05,-4e-05,5e-05,-1e-05,0.0,-2e-05,1
727,797,-1e-05,2e-05,-2.9999999999999997e-05,-4e-05,5e-05,-1e-05,0.0,-2e-05,1
728,798,-1e-05,2e-05,-2.9999999999999997e-05,-4e-05,5e-05,-1e-05,0.0,-2e-05,1
729,799,-1e-05,2e-05,-2.9999999999999997e-05,-4e-05,5e-05,-1e-05,0.0,-2e-05,1
730,800,-1e-05,2e-05,-2.9999999999999997e-05,-4e-05,5e-05,-1e-05,0.0,-2e-05,1
731,801,-1e-05,2e-05,-2.9999999999999997e-05,-4e-05,5e-05,-1e-05,0.0,-2e-05,1
732,802,-1e-05,2e-05,-2.9999999999999997e-05,-4e-05,5e-05,-1e-05,0.0,-2e-05,1
733,803,-1e-05,2e-05,-2.9999999999999997e-05,-4e-05,5e-05,-1e-05,0.0,-2e-05,1
734,804,-1e-05,2e-05,-2.9999999999999997e-05,-4e-05,5e-05,-1e-05,0.0,-2e-05,1
735,805,-1e-05,2e-05,-2.9999999999999997e-05,-4e-05,5e-05,-1e-05,0.0,-2e-05,1
736,806,-1e-05,2e-05,-2.9999999999999997e-05,-4e-05,5e-05,-1e-05,0.0,-2e-05,1
737,807,-1e-05,2e-05,-2.9999999999999997e-05,-4e-05,5e-05,-1e-05,0.0,-2e-05,1
738,808,-1e-05,2e-05,-2.9999999999999997e-05,-4e-05,5e-05,-1e-05,0.0,-2e-05,1
739,809,-1e-05,2e-05,-2.9999999999999997e-05,-4e-05,5e-05,-1e-05,0.0,-2e-05,1
740,810,-1e-05,2e-05,-2.9999999999999997e-05,-4e-05,5e-05,-1e-05,0.0,-2e-05,1
741,811,1e-05,-2.9999999999999997e-05,-5e-05,-2.9999999999999997e-05,-2.9999999999999997e-05,-1e-05,0.0,-1e-05,1
742,812,0.0,-1e-05,-7e-05,-5e-05,-4e-05,-2e-05,-1e-05,0.0,1
743,814,0.0,-1e-05,-7e-05,-5e-05,-4e-05,-2e-05,-1e-05,0.0,1
744,815,0.0,-1e-05,-7e-05,-5e-05,-4e-05,-2e-05,-1e-05,0.0,1
745,816,0.0,-1e-05,-7e-05,-5e-05,-4e-05,-2e-05,-1e-05,0.0,1
746,817,0.0,-1e-05,-7e-05,-5e-05,-4e-05,-2e-05,-1e-05,0.0,1
747,818,0.0,-1e-05,-7e-05,-5e-05,-4e-05,-2e-05,-1e-05,0.0,1
748,819,0.0,-1e-05,-7e-05,-5e-05,-4e-05,-2e-05,-1e-05,0.0,1
749,820,0.0,-1e-05,-7e-05,-5e-05,-4e-05,-2e-05,-1e-05,0.0,1
750,821,0.0,-1e-05,-7e-05,-5e-05,-4e-05,-2e-05,-1e-05,0.0,1
751,822,0.0,-1e-05,-7e-05,-5e-05,-4e-05,-2e-05,-1e-05,0.0,1
752,823,0.0,-1e-05,-7e-05,-5e-05,-4e-05,-2e-05,-1e-05,0.0,1
753,824,0.0,-1e-05,-7e-05,-5e-05,-4e-05,-2e-05,-1e-05,0.0,1
754,825,0.0,-1e-05,-7e-05,-5e-05,-4e-05,-2e-05,-1e-05,0.0,1
755,826,0.0,-1e-05,-7e-05,-5e-05,-4e-05,-2e-05,-1e-05,0.0,1
756,827,0.0,-1e-05,-7e-05,-5e-05,-4e-05,-2e-05,-1e-05,0.0,1
757,828,0.0,-1e-05,-7e-05,-5e-05,-4e-05,-2e-05,-1e-05,0.0,1
758,829,0.0,-1e-05,-7e-05,-5e-05,-4e-05,-2e-05,-1e-05,0.0,1
759,830,0.0,-1e-05,-7e-05,-5e-05,-4e-05,-2e-05,-1e-05,0.0,1
760,831,0.0,-1e-05,-7e-05,-5e-05,-4e-05,-2e-05,-1e-05,0.0,1
761,832,0.0,-1e-05,-7e-05,-5e-05,-4e-05,-2e-05,-1e-05,0.0,1
762,833,1e-05,0.0,-2e-05,-0.0001,-8e-05,0.0,-1e-05,-1e-05,1
763,834,1e-05,0.0,-2e-05,-0.0001,-8e-05,0.0,-1e-05,-1e-05,1
764,835,0.0,0.0,1e-05,9e-05,7e-05,-2e-05,-2e-05,-2e-05,1
765,837,0.0,0.0,1e-05,9e-05,7e-05,-2e-05,-2e-05,-2e-05,1
766,840,0.0,0.0,1e-05,9e-05,7e-05,-2e-05,-2e-05,-2e-05,1
767,841,0.0,0.0,1e-05,9e-05,7e-05,-2e-05,-2e-05,-2e-05,1
768,842,0.0,0.0,1e-05,9e-05,7e-05,-2e-05,-2e-05,-2e-05,1
769,843,0.0,0.0,1e-05,9e-05,7e-05,-2e-05,-2e-05,-2e-05,1
770,844,0.0,0.0,1e-05,9e-05,7e-05,-2e-05,-2e-05,-2e-05,1
771,845,0.0,0.0,1e-05,9e-05,7e-05,-2e-05,-2e-05,-2e-05,1
772,846,0.0,0.0,1e-05,9e-05,7e-05,-2e-05,-2e-05,-2e-05,1
773,847,0.0,0.0,1e-05,9e-05,7e-05,-2e-05,-2e-05,-2e-05,1
774,848,-1e-05,-1e-05,-4e-05,-9e-05,-0.00015,-2e-05,-2e-05,0.0,1
775,849,-1e-05,-1e-05,-4e-05,-9e-05,-0.00015,-2e-05,-2e-05,0.0,1
776,850,-2e-05,-1e-05,-7e-05,-0.00018999999999999998,-2.9999999999999997e-05,-1e-05,-1e-05,-2e-05,1
777,851,-2e-05,-1e-05,-7e-05,-0.00018999999999999998,-2.9999999999999997e-05,-1e-05,-1e-05,-2e-05,1
778,852,-2e-05,-1e-05,-7e-05,-0.00018999999999999998,-2.9999999999999997e-05,-1e-05,-1e-05,-2e-05,1
779,853,-2e-05,-1e-05,-7e-05,-0.00018999999999999998,-2.9999999999999997e-05,-1e-05,-1e-05,-2e-05,1
780,854,-2e-05,-1e-05,-7e-05,-0.00018999999999999998,-2.9999999999999997e-05,-1e-05,-1e-05,-2e-05,1
781,855,-2e-05,-1e-05,-7e-05,-0.00018999999999999998,-2.9999999999999997e-05,-1e-05,-1e-05,-2e-05,1
782,856,-2e-05,-1e-05,-7e-05,-0.00018999999999999998,-2.9999999999999997e-05,-1e-05,-1e-05,-2e-05,1
783,857,-2e-05,-1e-05,-7e-05,-0.00018999999999999998,-2.9999999999999997e-05,-1e-05,-1e-05,-2e-05,1
784,858,-2e-05,-1e-05,-7e-05,-0.00018999999999999998,-2.9999999999999997e-05,-1e-05,-1e-05,-2e-05,1
785,859,-2e-05,-1e-05,-7e-05,-0.00018999999999999998,-2.9999999999999997e-05,-1e-05,-1e-05,-2e-05,1
786,860,-2e-05,-1e-05,-7e-05,-0.00018999999999999998,-2.9999999999999997e-05,-1e-05,-1e-05,-2e-05,1
787,861,-2e-05,-1e-05,-7e-05,-0.00018999999999999998,-2.9999999999999997e-05,-1e-05,-1e-05,-2e-05,1
788,862,-2e-05,-1e-05,-7e-05,-0.00018999999999999998,-2.9999999999999997e-05,-1e-05,-1e-05,-2e-05,1
789,863,-2e-05,-1e-05,-7e-05,-0.00018999999999999998,-2.9999999999999997e-05,-1e-05,-1e-05,-2e-05,1
790,864,-2e-05,-1e-05,-7e-05,-0.00018999999999999998,-2.9999999999999997e-05,-1e-05,-1e-05,-2e-05,1
791,865,-2e-05,-1e-05,-7e-05,-0.00018999999999999998,-2.9999999999999997e-05,-1e-05,-1e-05,-2e-05,1
792,866,-2e-05,-1e-05,-7e-05,-0.00018999999999999998,-2.9999999999999997e-05,-1e-05,-1e-05,-2e-05,1
793,867,-2e-05,-1e-05,-7e-05,-0.00018999999999999998,-2.9999999999999997e-05,-1e-05,-1e-05,-2e-05,1
794,868,-2e-05,-1e-05,-7e-05,-0.00018999999999999998,-2.9999999999999997e-05,-1e-05,-1e-05,-2e-05,1
795,869,-2e-05,-1e-05,-7e-05,-0.00018999999999999998,-2.9999999999999997e-05,-1e-05,-1e-05,-2e-05,1
796,870,-2e-05,-1e-05,-7e-05,-0.00018999999999999998,-2.9999999999999997e-05,-1e-05,-1e-05,-2e-05,1
797,871,-1e-05,0.0,2.9999999999999997e-05,0.0,1e-05,-2.9999999999999997e-05,-2e-05,0.0,1
798,872,-1e-05,1e-05,0.0,-0.0001,-0.00023999999999999998,0.0,0.0,-1e-05,1
799,873,-2.9999999999999997e-05,-2e-05,-4e-05,2e-05,1e-05,-1e-05,-2e-05,-2e-05,1
800,874,-2.9999999999999997e-05,-2e-05,-4e-05,2e-05,1e-05,-1e-05,-2e-05,-2e-05,1
801,875,-2.9999999999999997e-05,-2e-05,-4e-05,2e-05,1e-05,-1e-05,-2e-05,-2e-05,1
802,876,-2.9999999999999997e-05,-2e-05,-4e-05,2e-05,1e-05,-1e-05,-2e-05,-2e-05,1
803,877,-2.9999999999999997e-05,-2e-05,-4e-05,2e-05,1e-05,-1e-05,-2e-05,-2e-05,1
804,878,-2.9999999999999997e-05,-2e-05,-4e-05,2e-05,1e-05,-1e-05,-2e-05,-2e-05,1
805,879,-2.9999999999999997e-05,-2e-05,-4e-05,2e-05,1e-05,-1e-05,-2e-05,-2e-05,1
806,880,-2.9999999999999997e-05,-2e-05,-4e-05,2e-05,1e-05,-1e-05,-2e-05,-2e-05,1
807,881,-2.9999999999999997e-05,-2e-05,-4e-05,2e-05,1e-05,-1e-05,-2e-05,-2e-05,1
808,882,-2.9999999999999997e-05,-2e-05,-4e-05,2e-05,1e-05,-1e-05,-2e-05,-2e-05,1
809,883,-2.9999999999999997e-05,-2e-05,-4e-05,2e-05,1e-05,-1e-05,-2e-05,-2e-05,1
810,884,-2.9999999999999997e-05,-2e-05,-4e-05,2e-05,1e-05,-1e-05,-2e-05,-2e-05,1
811,885,-2.9999999999999997e-05,-2e-05,-4e-05,2e-05,1e-05,-1e-05,-2e-05,-2e-05,1
812,886,-2.9999999999999997e-05,-2e-05,-4e-05,2e-05,1e-05,-1e-05,-2e-05,-2e-05,1
813,889,-2.9999999999999997e-05,-2e-05,-4e-05,2e-05,1e-05,-1e-05,-2e-05,-2e-05,1
814,890,-2.9999999999999997e-05,-2e-05,-4e-05,2e-05,1e-05,-1e-05,-2e-05,-2e-05,1
815,891,-2.9999999999999997e-05,-2e-05,-4e-05,2e-05,1e-05,-1e-05,-2e-05,-2e-05,1
816,892,-2.9999999999999997e-05,-2e-05,-4e-05,2e-05,1e-05,-1e-05,-2e-05,-2e-05,1
817,893,-1e-05,-2e-05,1e-05,-5.9999999999999995e-05,-0.0001,-2e-05,0.0,-1e-05,1
818,894,-1e-05,-2e-05,1e-05,-5.9999999999999995e-05,-0.0001,-2e-05,0.0,-1e-05,1
819,895,-1e-05,-2.9999999999999997e-05,-2e-05,2.9999999999999997e-05,8e-05,1e-05,1e-05,-1e-05,1
820,896,-1e-05,-2.9999999999999997e-05,-2e-05,2.9999999999999997e-05,8e-05,1e-05,1e-05,-1e-05,1
821,897,-1e-05,-2.9999999999999997e-05,-2e-05,2.9999999999999997e-05,8e-05,1e-05,1e-05,-1e-05,1
822,898,-1e-05,-2.9999999999999997e-05,-2e-05,2.9999999999999997e-05,8e-05,1e-05,1e-05,-1e-05,1
823,899,-1e-05,-2.9999999999999997e-05,-2e-05,2.9999999999999997e-05,8e-05,1e-05,1e-05,-1e-05,1
824,900,-1e-05,-2.9999999999999997e-05,-2e-05,2.9999999999999997e-05,8e-05,1e-05,1e-05,-1e-05,1
825,901,-1e-05,-2.9999999999999997e-05,-2e-05,2.9999999999999997e-05,8e-05,1e-05,1e-05,-1e-05,1
826,902,-1e-05,-2.9999999999999997e-05,-2e-05,2.9999999999999997e-05,8e-05,1e-05,1e-05,-1e-05,1
827,903,-1e-05,-2.9999999999999997e-05,-2e-05,2.9999999999999997e-05,8e-05,1e-05,1e-05,-1e-05,1
828,904,-1e-05,-2.9999999999999997e-05,-2e-05,2.9999999999999997e-05,8e-05,1e-05,1e-05,-1e-05,1
829,905,-1e-05,-2.9999999999999997e-05,-2e-05,2.9999999999999997e-05,8e-05,1e-05,1e-05,-1e-05,1
830,906,-1e-05,-2.9999999999999997e-05,-2e-05,2.9999999999999997e-05,8e-05,1e-05,1e-05,-1e-05,1
831,907,-1e-05,-2.9999999999999997e-05,-2e-05,2.9999999999999997e-05,8e-05,1e-05,1e-05,-1e-05,1
832,908,0.0,-1e-05,2e-05,2.9999999999999997e-05,-2.9999999999999997e-05,-2e-05,-2.9999999999999997e-05,-1e-05,1
833,909,0.0,-1e-05,2e-05,2.9999999999999997e-05,-2.9999999999999997e-05,-2e-05,-2.9999999999999997e-05,-1e-05,1
834,910,0.0,-1e-05,2e-05,2.9999999999999997e-05,-2.9999999999999997e-05,-2e-05,-2.9999999999999997e-05,-1e-05,1
835,911,0.0,-1e-05,2e-05,2.9999999999999997e-05,-2.9999999999999997e-05,-2e-05,-2.9999999999999997e-05,-1e-05,1
836,912,0.0,-1e-05,2e-05,2.9999999999999997e-05,-2.9999999999999997e-05,-2e-05,-2.9999999999999997e-05,-1e-05,1
837,913,0.0,-1e-05,2e-05,2.9999999999999997e-05,-2.9999999999999997e-05,-2e-05,-2.9999999999999997e-05,-1e-05,1
838,914,-2e-05,1e-05,-1e-05,2e-05,7e-05,-1e-05,-2e-05,-2e-05,1
839,915,0.0,-2e-05,2e-05,-4e-05,-5e-05,2e-05,0.0,0.0,1
840,916,0.0,-2e-05,2e-05,-4e-05,-5e-05,2e-05,0.0,0.0,1
841,917,0.0,-2e-05,2e-05,-4e-05,-5e-05,2e-05,0.0,0.0,1
842,918,0.0,-2e-05,2e-05,-4e-05,-5e-05,2e-05,0.0,0.0,1
843,919,0.0,-2e-05,2e-05,-4e-05,-5e-05,2e-05,0.0,0.0,1
844,920,0.0,-2e-05,2e-05,-4e-05,-5e-05,2e-05,0.0,0.0,1
845,921,0.0,-2e-05,2e-05,-4e-05,-5e-05,2e-05,0.0,0.0,1
846,922,0.0,-2e-05,2e-05,-4e-05,-5e-05,2e-05,0.0,0.0,1
847,923,0.0,-2e-05,2e-05,-4e-05,-5e-05,2e-05,0.0,0.0,1
848,924,0.0,-2e-05,2e-05,-4e-05,-5e-05,2e-05,0.0,0.0,1
849,925,0.0,-2e-05,2e-05,-4e-05,-5e-05,2e-05,0.0,0.0,1
850,926,0.0,-2e-05,2e-05,-4e-05,-5e-05,2e-05,0.0,0.0,1
851,927,0.0,-2e-05,2e-05,-4e-05,-5e-05,2e-05,0.0,0.0,1
852,928,0.0,-2e-05,2e-05,-4e-05,-5e-05,2e-05,0.0,0.0,1
853,929,0.0,-2e-05,2e-05,-4e-05,-5e-05,2e-05,0.0,0.0,1
854,930,0.0,-2e-05,2e-05,-4e-05,-5e-05,2e-05,0.0,0.0,1
855,931,1e-05,2e-05,2.9999999999999997e-05,0.0001,0.00011999999999999999,1e-05,0.0,1e-05,1
856,932,0.0,1e-05,4e-05,0.0,2e-05,-2.9999999999999997e-05,-2e-05,1e-05,1
857,933,0.0,1e-05,4e-05,0.0,2e-05,-2.9999999999999997e-05,-2e-05,1e-05,1
858,934,0.0,1e-05,4e-05,0.0,2e-05,-2.9999999999999997e-05,-2e-05,1e-05,1
859,935,0.0,1e-05,4e-05,0.0,2e-05,-2.9999999999999997e-05,-2e-05,1e-05,1
860,936,0.0,1e-05,4e-05,0.0,2e-05,-2.9999999999999997e-05,-2e-05,1e-05,1
861,939,0.0,1e-05,4e-05,0.0,2e-05,-2.9999999999999997e-05,-2e-05,1e-05,1
862,940,0.0,1e-05,4e-05,0.0,2e-05,-2.9999999999999997e-05,-2e-05,1e-05,1
863,942,0.0,1e-05,4e-05,0.0,2e-05,-2.9999999999999997e-05,-2e-05,1e-05,1
864,943,0.0,1e-05,4e-05,0.0,2e-05,-2.9999999999999997e-05,-2e-05,1e-05,1
865,944,0.0,1e-05,4e-05,0.0,2e-05,-2.9999999999999997e-05,-2e-05,1e-05,1
866,945,0.0,1e-05,4e-05,0.0,2e-05,-2.9999999999999997e-05,-2e-05,1e-05,1
867,946,0.0,1e-05,4e-05,0.0,2e-05,-2.9999999999999997e-05,-2e-05,1e-05,1
868,947,0.0,1e-05,4e-05,0.0,2e-05,-2.9999999999999997e-05,-2e-05,1e-05,1
869,948,0.0,1e-05,4e-05,0.0,2e-05,-2.9999999999999997e-05,-2e-05,1e-05,1
870,949,0.0,1e-05,4e-05,0.0,2e-05,-2.9999999999999997e-05,-2e-05,1e-05,1
871,950,0.0,1e-05,4e-05,0.0,2e-05,-2.9999999999999997e-05,-2e-05,1e-05,1
872,951,0.0,1e-05,4e-05,0.0,2e-05,-2.9999999999999997e-05,-2e-05,1e-05,1
873,952,0.0,1e-05,4e-05,0.0,2e-05,-2.9999999999999997e-05,-2e-05,1e-05,1
874,953,-2e-05,-2e-05,-2e-05,-0.0001,-0.00025,0.0,-1e-05,0.0,1
875,954,-1e-05,0.0,-1e-05,1e-05,-4e-05,1e-05,0.0,0.0,1
876,955,-1e-05,0.0,-2.9999999999999997e-05,-5.9999999999999995e-05,-9e-05,-1e-05,-1e-05,1e-05,1
877,956,-1e-05,0.0,-2.9999999999999997e-05,-5.9999999999999995e-05,-9e-05,-1e-05,-1e-05,1e-05,1
878,957,-1e-05,0.0,-2.9999999999999997e-05,-5.9999999999999995e-05,-9e-05,-1e-05,-1e-05,1e-05,1
879,958,-1e-05,0.0,-2.9999999999999997e-05,-5.9999999999999995e-05,-9e-05,-1e-05,-1e-05,1e-05,1
880,959,-1e-05,0.0,-2.9999999999999997e-05,-5.9999999999999995e-05,-9e-05,-1e-05,-1e-05,1e-05,1
881,960,-1e-05,0.0,-2.9999999999999997e-05,-5.9999999999999995e-05,-9e-05,-1e-05,-1e-05,1e-05,1
882,961,-1e-05,0.0,-2.9999999999999997e-05,-5.9999999999999995e-05,-9e-05,-1e-05,-1e-05,1e-05,1
883,962,-1e-05,0.0,-2.9999999999999997e-05,-5.9999999999999995e-05,-9e-05,-1e-05,-1e-05,1e-05,1
884,963,-1e-05,0.0,-2.9999999999999997e-05,-5.9999999999999995e-05,-9e-05,-1e-05,-1e-05,1e-05,1
885,964,-1e-05,0.0,-2.9999999999999997e-05,-5.9999999999999995e-05,-9e-05,-1e-05,-1e-05,1e-05,1
886,965,-1e-05,0.0,-2.9999999999999997e-05,-5.9999999999999995e-05,-9e-05,-1e-05,-1e-05,1e-05,1
887,966,-1e-05,0.0,-2.9999999999999997e-05,-5.9999999999999995e-05,-9e-05,-1e-05,-1e-05,1e-05,1
888,967,-1e-05,0.0,-2.9999999999999997e-05,-5.9999999999999995e-05,-9e-05,-1e-05,-1e-05,1e-05,1
889,968,-2e-05,-2e-05,-8e-05,-2.9999999999999997e-05,-5e-05,-2e-05,-2.9999999999999997e-05,-1e-05,1
890,969,-2e-05,-2e-05,-8e-05,-2.9999999999999997e-05,-5e-05,-2e-05,-2.9999999999999997e-05,-1e-05,1
891,970,-2e-05,-2e-05,-8e-05,-2.9999999999999997e-05,-5e-05,-2e-05,-2.9999999999999997e-05,-1e-05,1
892,971,-2e-05,-2e-05,-8e-05,-2.9999999999999997e-05,-5e-05,-2e-05,-2.9999999999999997e-05,-1e-05,1
893,972,-2e-05,-2e-05,-8e-05,-2.9999999999999997e-05,-5e-05,-2e-05,-2.9999999999999997e-05,-1e-05,1
894,973,-2e-05,-2e-05,-8e-05,-2.9999999999999997e-05,-5e-05,-2e-05,-2.9999999999999997e-05,-1e-05,1
895,974,-1e-05,2e-05,5e-05,5e-05,0.00011999999999999999,0.0,1e-05,-2e-05,1
896,975,-1e-05,2e-05,5e-05,5e-05,0.00011999999999999999,0.0,1e-05,-2e-05,1
897,976,-1e-05,2e-05,5e-05,5e-05,0.00011999999999999999,0.0,1e-05,-2e-05,1
898,977,-1e-05,2e-05,5e-05,5e-05,0.00011999999999999999,0.0,1e-05,-2e-05,1
899,978,-1e-05,2e-05,5e-05,5e-05,0.00011999999999999999,0.0,1e-05,-2e-05,1
900,979,-1e-05,2e-05,5e-05,5e-05,0.00011999999999999999,0.0,1e-05,-2e-05,1
901,980,-1e-05,2e-05,5e-05,5e-05,0.00011999999999999999,0.0,1e-05,-2e-05,1
902,981,-1e-05,2e-05,5e-05,5e-05,0.00011999999999999999,0.0,1e-05,-2e-05,1
903,982,-1e-05,2e-05,5e-05,5e-05,0.00011999999999999999,0.0,1e-05,-2e-05,1
904,983,-1e-05,2e-05,5e-05,5e-05,0.00011999999999999999,0.0,1e-05,-2e-05,1
905,984,-1e-05,2e-05,5e-05,5e-05,0.00011999999999999999,0.0,1e-05,-2e-05,1
906,985,-1e-05,2e-05,5e-05,5e-05,0.00011999999999999999,0.0,1e-05,-2e-05,1
907,986,-1e-05,2e-05,5e-05,5e-05,0.00011999999999999999,0.0,1e-05,-2e-05,1
908,989,-1e-05,2e-05,5e-05,5e-05,0.00011999999999999999,0.0,1e-05,-2e-05,1
909,990,-1e-05,2e-05,5e-05,5e-05,0.00011999999999999999,0.0,1e-05,-2e-05,1
910,991,-1e-05,-4e-05,-2e-05,-0.0001,-0.00016,-2e-05,-1e-05,1e-05,1
911,992,-2e-05,1e-05,2e-05,-5e-05,-7e-05,-2e-05,-1e-05,0.0,1
912,993,-2e-05,1e-05,2e-05,-5e-05,-7e-05,-2e-05,-1e-05,0.0,1
913,994,-2e-05,1e-05,2e-05,-5e-05,-7e-05,-2e-05,-1e-05,0.0,1
914,995,-2e-05,1e-05,2e-05,-5e-05,-7e-05,-2e-05,-1e-05,0.0,1
915,996,-2e-05,1e-05,2e-05,-5e-05,-7e-05,-2e-05,-1e-05,0.0,1
916,997,-2e-05,1e-05,2e-05,-5e-05,-7e-05,-2e-05,-1e-05,0.0,1
917,998,-2e-05,1e-05,2e-05,-5e-05,-7e-05,-2e-05,-1e-05,0.0,1
918,999,-2e-05,1e-05,2e-05,-5e-05,-7e-05,-2e-05,-1e-05,0.0,1
919,1000,-2e-05,1e-05,2e-05,-5e-05,-7e-05,-2e-05,-1e-05,0.0,1
920,1001,-2e-05,1e-05,2e-05,-5e-05,-7e-05,-2e-05,-1e-05,0.0,1
921,1002,-2e-05,1e-05,2e-05,-5e-05,-7e-05,-2e-05,-1e-05,0.0,1
922,1003,-2e-05,1e-05,2e-05,-5e-05,-7e-05,-2e-05,-1e-05,0.0,1
923,1004,-2e-05,1e-05,2e-05,-5e-05,-7e-05,-2e-05,-1e-05,0.0,1
924,1005,-2e-05,1e-05,2e-05,-5e-05,-7e-05,-2e-05,-1e-05,0.0,1
925,1006,-2e-05,1e-05,2e-05,-5e-05,-7e-05,-2e-05,-1e-05,0.0,1
926,1007,-2e-05,1e-05,2e-05,-5e-05,-7e-05,-2e-05,-1e-05,0.0,1
927,1008,-2e-05,1e-05,2e-05,-5e-05,-7e-05,-2e-05,-1e-05,0.0,1
928,1010,-2e-05,1e-05,2e-05,-5e-05,-7e-05,-2e-05,-1e-05,0.0,1
929,1012,-2e-05,1e-05,2e-05,-5e-05,-7e-05,-2e-05,-1e-05,0.0,1
930,1016,-2e-05,1e-05,2e-05,-5e-05,-7e-05,-2e-05,-1e-05,0.0,1
931,1021,-2e-05,1e-05,2e-05,-5e-05,-7e-05,-2e-05,-1e-05,0.0,1
932,1022,-1e-05,-2e-05,-2e-05,-5.9999999999999995e-05,-1e-05,-2.9999999999999997e-05,0.0,-2e-05,1
933,1023,-2e-05,-4e-05,-1e-05,0.0,-1e-05,-1e-05,-2.9999999999999997e-05,-2.9999999999999997e-05,1
934,1024,-2e-05,-2.9999999999999997e-05,0.0,9e-05,-0.00022,1e-05,-1e-05,-1e-05,1
935,1025,-2e-05,-2.9999999999999997e-05,0.0,9e-05,-0.00022,1e-05,-1e-05,-1e-05,1
936,1026,-2e-05,-2.9999999999999997e-05,0.0,9e-05,-0.00022,1e-05,-1e-05,-1e-05,1
937,1029,-2e-05,-2.9999999999999997e-05,0.0,9e-05,-0.00022,1e-05,-1e-05,-1e-05,1
938,1030,1e-05,0.0,-1e-05,-1e-05,0.0001,1e-05,1e-05,0.0,1
939,1031,0.0,0.0,8e-05,5.9999999999999995e-05,2e-05,0.0,0.0,0.0,1
940,1032,0.0,0.0,8e-05,5.9999999999999995e-05,2e-05,0.0,0.0,0.0,1
941,1033,0.0,0.0,8e-05,5.9999999999999995e-05,2e-05,0.0,0.0,0.0,1
942,1034,-1e-05,-1e-05,-8e-05,-0.00013000000000000002,-8e-05,-2.9999999999999997e-05,-2.9999999999999997e-05,-2e-05,1
943,1035,-1e-05,-2e-05,2.9999999999999997e-05,2.9999999999999997e-05,9e-05,2e-05,0.0,-2e-05,1
944,1036,-1e-05,-2e-05,2.9999999999999997e-05,2.9999999999999997e-05,9e-05,2e-05,0.0,-2e-05,1
945,1038,-1e-05,-2e-05,2.9999999999999997e-05,2.9999999999999997e-05,9e-05,2e-05,0.0,-2e-05,1
946,1039,-1e-05,-2e-05,2.9999999999999997e-05,2.9999999999999997e-05,9e-05,2e-05,0.0,-2e-05,1
947,1040,-1e-05,-2e-05,2.9999999999999997e-05,2.9999999999999997e-05,9e-05,2e-05,0.0,-2e-05,1
948,1041,-1e-05,-2e-05,2.9999999999999997e-05,2.9999999999999997e-05,9e-05,2e-05,0.0,-2e-05,1
949,1042,-1e-05,-2e-05,2.9999999999999997e-05,2.9999999999999997e-05,9e-05,2e-05,0.0,-2e-05,1
950,1043,-1e-05,-2e-05,2.9999999999999997e-05,2.9999999999999997e-05,9e-05,2e-05,0.0,-2e-05,1
951,1044,-1e-05,-2e-05,2.9999999999999997e-05,2.9999999999999997e-05,9e-05,2e-05,0.0,-2e-05,1
952,1045,-1e-05,-2e-05,2.9999999999999997e-05,2.9999999999999997e-05,9e-05,2e-05,0.0,-2e-05,1
953,1046,-1e-05,-2e-05,2.9999999999999997e-05,2.9999999999999997e-05,9e-05,2e-05,0.0,-2e-05,1
954,1047,-1e-05,-2e-05,2.9999999999999997e-05,2.9999999999999997e-05,9e-05,2e-05,0.0,-2e-05,1
955,1048,-1e-05,-2e-05,2.9999999999999997e-05,2.9999999999999997e-05,9e-05,2e-05,0.0,-2e-05,1
956,1049,-1e-05,-2e-05,2.9999999999999997e-05,2.9999999999999997e-05,9e-05,2e-05,0.0,-2e-05,1
957,1050,-1e-05,-2e-05,2.9999999999999997e-05,2.9999999999999997e-05,9e-05,2e-05,0.0,-2e-05,1
958,1051,0.0,-1e-05,2.9999999999999997e-05,0.0,1e-05,0.0,-1e-05,-1e-05,1
959,1052,1e-05,-2e-05,-2.9999999999999997e-05,-1e-05,1e-05,-2e-05,0.0,0.0,1
960,1053,1e-05,-2e-05,-2.9999999999999997e-05,-1e-05,1e-05,-2e-05,0.0,0.0,1
961,1054,1e-05,-2e-05,-2.9999999999999997e-05,-1e-05,1e-05,-2e-05,0.0,0.0,1
962,1055,1e-05,-2e-05,-2.9999999999999997e-05,-1e-05,1e-05,-2e-05,0.0,0.0,1
963,1056,1e-05,-2e-05,-2.9999999999999997e-05,-1e-05,1e-05,-2e-05,0.0,0.0,1
964,1057,1e-05,-2e-05,-2.9999999999999997e-05,-1e-05,1e-05,-2e-05,0.0,0.0,1
965,1058,1e-05,-2e-05,-2.9999999999999997e-05,-1e-05,1e-05,-2e-05,0.0,0.0,1
966,1059,1e-05,-2e-05,-2.9999999999999997e-05,-1e-05,1e-05,-2e-05,0.0,0.0,1
967,1060,1e-05,-2e-05,-2.9999999999999997e-05,-1e-05,1e-05,-2e-05,0.0,0.0,1
968,1061,1e-05,-2e-05,-2.9999999999999997e-05,-1e-05,1e-05,-2e-05,0.0,0.0,1
969,1062,1e-05,-2e-05,-2.9999999999999997e-05,-1e-05,1e-05,-2e-05,0.0,0.0,1
970,1063,1e-05,-2e-05,-2.9999999999999997e-05,-1e-05,1e-05,-2e-05,0.0,0.0,1
971,1064,1e-05,-2e-05,-2.9999999999999997e-05,-1e-05,1e-05,-2e-05,0.0,0.0,1
972,1065,1e-05,-2e-05,-2.9999999999999997e-05,-1e-05,1e-05,-2e-05,0.0,0.0,1
973,1066,1e-05,-2e-05,-2.9999999999999997e-05,-1e-05,1e-05,-2e-05,0.0,0.0,1
974,1067,1e-05,-2e-05,-2.9999999999999997e-05,-1e-05,1e-05,-2e-05,0.0,0.0,1
975,1068,1e-05,-2e-05,-2.9999999999999997e-05,-1e-05,1e-05,-2e-05,0.0,0.0,1
976,1069,1e-05,-2e-05,-2.9999999999999997e-05,-1e-05,1e-05,-2e-05,0.0,0.0,1
977,1070,1e-05,-2e-05,-2.9999999999999997e-05,-1e-05,1e-05,-2e-05,0.0,0.0,1
978,1071,1e-05,-2e-05,-2.9999999999999997e-05,-1e-05,1e-05,-2e-05,0.0,0.0,1
979,1072,1e-05,-2e-05,-2.9999999999999997e-05,-1e-05,1e-05,-2e-05,0.0,0.0,1
980,1073,1e-05,-2e-05,-2.9999999999999997e-05,-1e-05,1e-05,-2e-05,0.0,0.0,1
981,1074,1e-05,-2e-05,-2.9999999999999997e-05,-1e-05,1e-05,-2e-05,0.0,0.0,1
982,1075,1e-05,-2e-05,-2.9999999999999997e-05,-1e-05,1e-05,-2e-05,0.0,0.0,1
983,1076,1e-05,-2e-05,-2.9999999999999997e-05,-1e-05,1e-05,-2e-05,0.0,0.0,1
984,1077,1e-05,-2e-05,-2.9999999999999997e-05,-1e-05,1e-05,-2e-05,0.0,0.0,1
985,1078,1e-05,-2e-05,-2.9999999999999997e-05,-1e-05,1e-05,-2e-05,0.0,0.0,1
986,1079,1e-05,-2e-05,-2.9999999999999997e-05,-1e-05,1e-05,-2e-05,0.0,0.0,1
987,1080,1e-05,-2e-05,-2.9999999999999997e-05,-1e-05,1e-05,-2e-05,0.0,0.0,1
988,1081,-2e-05,0.0,-4e-05,-2.9999999999999997e-05,2e-05,-2e-05,-1e-05,-2e-05,1
989,1082,-1e-05,1e-05,2.9999999999999997e-05,-7e-05,-0.00021,-2.9999999999999997e-05,-2e-05,-1e-05,1
990,1083,-1e-05,1e-05,2.9999999999999997e-05,-7e-05,-0.00021,-2.9999999999999997e-05,-2e-05,-1e-05,1
991,1084,-1e-05,1e-05,2.9999999999999997e-05,-7e-05,-0.00021,-2.9999999999999997e-05,-2e-05,-1e-05,1
992,1085,-1e-05,1e-05,2.9999999999999997e-05,-7e-05,-0.00021,-2.9999999999999997e-05,-2e-05,-1e-05,1
993,1086,-1e-05,1e-05,2.9999999999999997e-05,-7e-05,-0.00021,-2.9999999999999997e-05,-2e-05,-1e-05,1
994,1088,1e-05,0.0,-2.9999999999999997e-05,5.9999999999999995e-05,1e-05,-1e-05,-2e-05,0.0,1
995,1089,1e-05,0.0,-2.9999999999999997e-05,5.9999999999999995e-05,1e-05,-1e-05,-2e-05,0.0,1
996,1090,1e-05,0.0,-2.9999999999999997e-05,5.9999999999999995e-05,1e-05,-1e-05,-2e-05,0.0,1
997,1091,1e-05,0.0,-2.9999999999999997e-05,5.9999999999999995e-05,1e-05,-1e-05,-2e-05,0.0,1
998,1092,1e-05,0.0,-2.9999999999999997e-05,5.9999999999999995e-05,1e-05,-1e-05,-2e-05,0.0,1
999,1093,1e-05,0.0,-2.9999999999999997e-05,5.9999999999999995e-05,1e-05,-1e-05,-2e-05,0.0,1
1000,1094,0.0,-2.9999999999999997e-05,-9e-05,-0.00016,-5e-05,-2.9999999999999997e-05,-2e-05,0.0,1
1001,1095,0.0,-2.9999999999999997e-05,-9e-05,-0.00016,-5e-05,-2.9999999999999997e-05,-2e-05,0.0,1
1002,1096,0.0,-2.9999999999999997e-05,-9e-05,-0.00016,-5e-05,-2.9999999999999997e-05,-2e-05,0.0,1
1003,1097,0.0,-2.9999999999999997e-05,-9e-05,-0.00016,-5e-05,-2.9999999999999997e-05,-2e-05,0.0,1
1004,1098,0.0,-2.9999999999999997e-05,-9e-05,-0.00016,-5e-05,-2.9999999999999997e-05,-2e-05,0.0,1
1005,1099,0.0,-2.9999999999999997e-05,-9e-05,-0.00016,-5e-05,-2.9999999999999997e-05,-2e-05,0.0,1
1006,1100,0.0,-2.9999999999999997e-05,-9e-05,-0.00016,-5e-05,-2.9999999999999997e-05,-2e-05,0.0,1
1007,1101,0.0,-2.9999999999999997e-05,-9e-05,-0.00016,-5e-05,-2.9999999999999997e-05,-2e-05,0.0,1
1008,1102,0.0,-2.9999999999999997e-05,-9e-05,-0.00016,-5e-05,-2.9999999999999997e-05,-2e-05,0.0,1
1009,1103,0.0,-2.9999999999999997e-05,-9e-05,-0.00016,-5e-05,-2.9999999999999997e-05,-2e-05,0.0,1
1010,1104,0.0,-2.9999999999999997e-05,-9e-05,-0.00016,-5e-05,-2.9999999999999997e-05,-2e-05,0.0,1
1011,1105,0.0,-2.9999999999999997e-05,-9e-05,-0.00016,-5e-05,-2.9999999999999997e-05,-2e-05,0.0,1
1012,1106,0.0,-2.9999999999999997e-05,-9e-05,-0.00016,-5e-05,-2.9999999999999997e-05,-2e-05,0.0,1
1013,1107,0.0,-2.9999999999999997e-05,-9e-05,-0.00016,-5e-05,-2.9999999999999997e-05,-2e-05,0.0,1
1014,1108,0.0,-2.9999999999999997e-05,-9e-05,-0.00016,-5e-05,-2.9999999999999997e-05,-2e-05,0.0,1
1015,1109,0.0,-2.9999999999999997e-05,-9e-05,-0.00016,-5e-05,-2.9999999999999997e-05,-2e-05,0.0,1
1016,1110,0.0,-2.9999999999999997e-05,-9e-05,-0.00016,-5e-05,-2.9999999999999997e-05,-2e-05,0.0,1
1017,1111,-2e-05,-2e-05,-4e-05,2e-05,-0.00013000000000000002,0.0,0.0,-2e-05,1
1018,1112,-2e-05,0.0,-1e-05,0.0001,0.00029,0.0,-1e-05,0.0,1
1019,1113,-2e-05,0.0,-1e-05,0.0001,0.00029,0.0,-1e-05,0.0,1
1020,1114,-2e-05,0.0,-1e-05,0.0001,0.00029,0.0,-1e-05,0.0,1
1021,1115,-2e-05,0.0,-1e-05,0.0001,0.00029,0.0,-1e-05,0.0,1
1022,1116,-2e-05,0.0,-1e-05,0.0001,0.00029,0.0,-1e-05,0.0,1
1023,1117,-2e-05,0.0,-1e-05,0.0001,0.00029,0.0,-1e-05,0.0,1
1024,1118,-2e-05,0.0,-1e-05,0.0001,0.00029,0.0,-1e-05,0.0,1
1025,1119,-2e-05,0.0,-1e-05,0.0001,0.00029,0.0,-1e-05,0.0,1
1026,1120,-2e-05,0.0,-1e-05,0.0001,0.00029,0.0,-1e-05,0.0,1
1027,1121,-2e-05,0.0,-1e-05,0.0001,0.00029,0.0,-1e-05,0.0,1
1028,1122,-2e-05,0.0,-1e-05,0.0001,0.00029,0.0,-1e-05,0.0,1
1029,1123,-2e-05,0.0,-1e-05,0.0001,0.00029,0.0,-1e-05,0.0,1
1030,1124,-2e-05,0.0,-1e-05,0.0001,0.00029,0.0,-1e-05,0.0,1
1031,1125,-2e-05,0.0,-1e-05,0.0001,0.00029,0.0,-1e-05,0.0,1
1032,1126,-2e-05,0.0,-1e-05,0.0001,0.00029,0.0,-1e-05,0.0,1
1033,1127,-2e-05,0.0,-1e-05,0.0001,0.00029,0.0,-1e-05,0.0,1
1034,1128,-2e-05,0.0,-1e-05,0.0001,0.00029,0.0,-1e-05,0.0,1
1035,1129,-2e-05,0.0,-1e-05,0.0001,0.00029,0.0,-1e-05,0.0,1
1036,1130,-2e-05,0.0,-1e-05,0.0001,0.00029,0.0,-1e-05,0.0,1
1037,1131,-2e-05,0.0,-1e-05,0.0001,0.00029,0.0,-1e-05,0.0,1
1038,1132,-2e-05,0.0,-1e-05,0.0001,0.00029,0.0,-1e-05,0.0,1
1039,1133,-2e-05,-2e-05,1e-05,-4e-05,5.9999999999999995e-05,-1e-05,0.0,-1e-05,1
1040,1134,-2e-05,-2e-05,1e-05,-4e-05,5.9999999999999995e-05,-1e-05,0.0,-1e-05,1
1041,1135,-2e-05,-2.9999999999999997e-05,-8e-05,-0.00011,-9e-05,-4e-05,-1e-05,-1e-05,1
1042,1136,-2e-05,-2.9999999999999997e-05,-8e-05,-0.00011,-9e-05,-4e-05,-1e-05,-1e-05,1
1043,1139,-2e-05,-2.9999999999999997e-05,-8e-05,-0.00011,-9e-05,-4e-05,-1e-05,-1e-05,1
1044,1143,-2e-05,-2.9999999999999997e-05,-8e-05,-0.00011,-9e-05,-4e-05,-1e-05,-1e-05,1
1045,1144,-2e-05,-2.9999999999999997e-05,-8e-05,-0.00011,-9e-05,-4e-05,-1e-05,-1e-05,1
1046,1145,-2e-05,-2.9999999999999997e-05,-8e-05,-0.00011,-9e-05,-4e-05,-1e-05,-1e-05,1
1047,1146,-2e-05,-2.9999999999999997e-05,-8e-05,-0.00011,-9e-05,-4e-05,-1e-05,-1e-05,1
1048,1147,-2e-05,-2.9999999999999997e-05,-8e-05,-0.00011,-9e-05,-4e-05,-1e-05,-1e-05,1
1049,1148,-2e-05,-2.9999999999999997e-05,-8e-05,-0.00011,-9e-05,-4e-05,-1e-05,-1e-05,1
1050,1149,0.0,0.0,-1e-05,2e-05,0.0,-2e-05,0.0,0.0,1
1051,1150,0.0,0.0,-1e-05,2e-05,0.0,-2e-05,0.0,0.0,1
1052,1152,0.0,0.0,-1e-05,2e-05,0.0,-2e-05,0.0,0.0,1
1053,1153,0.0,0.0,-1e-05,2e-05,0.0,-2e-05,0.0,0.0,1
1054,1154,0.0,2e-05,2e-05,0.00016,0.0001,-1e-05,-1e-05,-1e-05,1
1055,1155,0.0,2e-05,2e-05,0.00016,0.0001,-1e-05,-1e-05,-1e-05,1
1056,1156,0.0,2e-05,2e-05,0.00016,0.0001,-1e-05,-1e-05,-1e-05,1
1057,1157,0.0,2e-05,2e-05,0.00016,0.0001,-1e-05,-1e-05,-1e-05,1
1058,1158,0.0,2e-05,2e-05,0.00016,0.0001,-1e-05,-1e-05,-1e-05,1
1059,1159,0.0,2e-05,2e-05,0.00016,0.0001,-1e-05,-1e-05,-1e-05,1
1060,1160,0.0,2e-05,2e-05,0.00016,0.0001,-1e-05,-1e-05,-1e-05,1
1061,1161,0.0,2e-05,2e-05,0.00016,0.0001,-1e-05,-1e-05,-1e-05,1
1062,1162,0.0,2e-05,2e-05,0.00016,0.0001,-1e-05,-1e-05,-1e-05,1
1063,1163,0.0,2e-05,2e-05,0.00016,0.0001,-1e-05,-1e-05,-1e-05,1
1064,1164,0.0,2e-05,2e-05,0.00016,0.0001,-1e-05,-1e-05,-1e-05,1
1065,1165,0.0,2e-05,2e-05,0.00016,0.0001,-1e-05,-1e-05,-1e-05,1
1066,1166,0.0,2e-05,2e-05,0.00016,0.0001,-1e-05,-1e-05,-1e-05,1
1067,1167,0.0,2e-05,2e-05,0.00016,0.0001,-1e-05,-1e-05,-1e-05,1
1068,1168,0.0,2e-05,2e-05,0.00016,0.0001,-1e-05,-1e-05,-1e-05,1
1069,1169,0.0,2e-05,2e-05,0.00016,0.0001,-1e-05,-1e-05,-1e-05,1
1070,1170,0.0,2e-05,2e-05,0.00016,0.0001,-1e-05,-1e-05,-1e-05,1
1071,1171,-1e-05,-2.9999999999999997e-05,-2.9999999999999997e-05,-2e-05,0.00013000000000000002,-2e-05,0.0,-1e-05,1
1072,1172,-1e-05,0.0,0.0,0.0,0.0,-2e-05,0.0,-1e-05,1
1073,1173,-1e-05,0.0,0.0,0.0,0.0,-2e-05,0.0,-1e-05,1
1074,1174,-1e-05,0.0,0.0,0.0,0.0,-2e-05,0.0,-1e-05,1
1075,1175,-1e-05,0.0,0.0,0.0,0.0,-2e-05,0.0,-1e-05,1
1076,1176,-1e-05,0.0,0.0,0.0,0.0,-2e-05,0.0,-1e-05,1
1077,1177,-1e-05,0.0,0.0,0.0,0.0,-2e-05,0.0,-1e-05,1
1078,1178,-1e-05,0.0,0.0,0.0,0.0,-2e-05,0.0,-1e-05,1
1079,1179,-1e-05,0.0,0.0,0.0,0.0,-2e-05,0.0,-1e-05,1
1080,1180,-1e-05,0.0,0.0,0.0,0.0,-2e-05,0.0,-1e-05,1
1081,1181,-1e-05,0.0,0.0,0.0,0.0,-2e-05,0.0,-1e-05,1
1082,1182,-1e-05,0.0,0.0,0.0,0.0,-2e-05,0.0,-1e-05,1
1083,1183,-1e-05,0.0,0.0,0.0,0.0,-2e-05,0.0,-1e-05,1
1084,1184,-1e-05,0.0,0.0,0.0,0.0,-2e-05,0.0,-1e-05,1
1085,1185,-1e-05,0.0,0.0,0.0,0.0,-2e-05,0.0,-1e-05,1
1086,1186,-1e-05,0.0,0.0,0.0,0.0,-2e-05,0.0,-1e-05,1
1087,1189,-1e-05,0.0,0.0,0.0,0.0,-2e-05,0.0,-1e-05,1
1088,1190,-1e-05,0.0,0.0,0.0,0.0,-2e-05,0.0,-1e-05,1
1089,1191,-1e-05,0.0,0.0,0.0,0.0,-2e-05,0.0,-1e-05,1
1090,1192,-1e-05,0.0,0.0,0.0,0.0,-2e-05,0.0,-1e-05,1
1091,1193,1e-05,2e-05,4e-05,7e-05,-4e-05,-1e-05,-1e-05,1e-05,1
1092,1194,0.0,1e-05,1e-05,-0.00011999999999999999,-0.00016999999999999999,0.0,-2e-05,-1e-05,1
1093,1195,1e-05,-1e-05,0.0,-2.9999999999999997e-05,-5e-05,0.0,-1e-05,-2e-05,1
1094,1196,1e-05,-1e-05,0.0,-2.9999999999999997e-05,-5e-05,0.0,-1e-05,-2e-05,1
1095,1197,1e-05,-1e-05,0.0,-2.9999999999999997e-05,-5e-05,0.0,-1e-05,-2e-05,1
1096,1198,1e-05,-1e-05,0.0,-2.9999999999999997e-05,-5e-05,0.0,-1e-05,-2e-05,1
1097,1199,1e-05,-1e-05,0.0,-2.9999999999999997e-05,-5e-05,0.0,-1e-05,-2e-05,1
1098,1200,1e-05,-1e-05,0.0,-2.9999999999999997e-05,-5e-05,0.0,-1e-05,-2e-05,1
1099,1201,1e-05,-1e-05,0.0,-2.9999999999999997e-05,-5e-05,0.0,-1e-05,-2e-05,1
1100,1202,1e-05,-1e-05,0.0,-2.9999999999999997e-05,-5e-05,0.0,-1e-05,-2e-05,1
1101,1203,1e-05,-1e-05,0.0,-2.9999999999999997e-05,-5e-05,0.0,-1e-05,-2e-05,1
1102,1204,1e-05,-1e-05,0.0,-2.9999999999999997e-05,-5e-05,0.0,-1e-05,-2e-05,1
1103,1205,1e-05,-1e-05,0.0,-2.9999999999999997e-05,-5e-05,0.0,-1e-05,-2e-05,1
1104,1206,1e-05,-1e-05,0.0,-2.9999999999999997e-05,-5e-05,0.0,-1e-05,-2e-05,1
1105,1207,1e-05,-1e-05,0.0,-2.9999999999999997e-05,-5e-05,0.0,-1e-05,-2e-05,1
1106,1208,1e-05,-1e-05,0.0,-2.9999999999999997e-05,-5e-05,0.0,-1e-05,-2e-05,1
1107,1209,1e-05,-1e-05,0.0,-2.9999999999999997e-05,-5e-05,0.0,-1e-05,-2e-05,1
1108,1210,1e-05,-1e-05,0.0,-2.9999999999999997e-05,-5e-05,0.0,-1e-05,-2e-05,1
1109,1211,1e-05,-1e-05,0.0,-2.9999999999999997e-05,-5e-05,0.0,-1e-05,-2e-05,1
1110,1212,1e-05,-1e-05,0.0,-2.9999999999999997e-05,-5e-05,0.0,-1e-05,-2e-05,1
1111,1213,1e-05,-1e-05,0.0,-2.9999999999999997e-05,-5e-05,0.0,-1e-05,-2e-05,1
1112,1214,1e-05,-1e-05,0.0,-2.9999999999999997e-05,-5e-05,0.0,-1e-05,-2e-05,1
1113,1215,1e-05,-1e-05,0.0,-2.9999999999999997e-05,-5e-05,0.0,-1e-05,-2e-05,1
1114,1216,0.0,-2e-05,0.0,1e-05,-0.0001,-1e-05,-2e-05,-2e-05,1
1115,1217,-1e-05,0.0,0.0,5e-05,0.00018,2e-05,0.0,-2e-05,1
1116,1218,-1e-05,0.0,0.0,5e-05,0.00018,2e-05,0.0,-2e-05,1
1117,1219,-1e-05,0.0,0.0,5e-05,0.00018,2e-05,0.0,-2e-05,1
1118,1220,-1e-05,0.0,0.0,5e-05,0.00018,2e-05,0.0,-2e-05,1
1119,1221,-1e-05,0.0,0.0,5e-05,0.00018,2e-05,0.0,-2e-05,1
1120,1222,-1e-05,0.0,0.0,5e-05,0.00018,2e-05,0.0,-2e-05,1
1121,1223,-1e-05,0.0,0.0,5e-05,0.00018,2e-05,0.0,-2e-05,1
1122,1224,-1e-05,0.0,0.0,5e-05,0.00018,2e-05,0.0,-2e-05,1
1123,1225,-1e-05,0.0,0.0,5e-05,0.00018,2e-05,0.0,-2e-05,1
1124,1226,-1e-05,0.0,0.0,5e-05,0.00018,2e-05,0.0,-2e-05,1
1125,1227,-1e-05,0.0,0.0,5e-05,0.00018,2e-05,0.0,-2e-05,1
1126,1228,-1e-05,0.0,0.0,5e-05,0.00018,2e-05,0.0,-2e-05,1
1127,1229,-1e-05,0.0,0.0,5e-05,0.00018,2e-05,0.0,-2e-05,1
1128,1230,-1e-05,0.0,-2.9999999999999997e-05,-5.9999999999999995e-05,-7e-05,-2e-05,0.0,0.0,1
1129,1231,-1e-05,-2e-05,-5.9999999999999995e-05,-0.0001,-0.00016,0.0,0.0,-2e-05,1
1130,1232,-1e-05,-2e-05,-5.9999999999999995e-05,-0.0001,-0.00016,0.0,0.0,-2e-05,1
1131,1233,-1e-05,-2e-05,-5.9999999999999995e-05,-0.0001,-0.00016,0.0,0.0,-2e-05,1
1132,1234,-1e-05,-2e-05,-5.9999999999999995e-05,-0.0001,-0.00016,0.0,0.0,-2e-05,1
1133,1235,-1e-05,-2e-05,-5.9999999999999995e-05,-0.0001,-0.00016,0.0,0.0,-2e-05,1
1134,1236,-1e-05,-2e-05,-5.9999999999999995e-05,-0.0001,-0.00016,0.0,0.0,-2e-05,1
1135,1238,-1e-05,-2e-05,-5.9999999999999995e-05,-0.0001,-0.00016,0.0,0.0,-2e-05,1
1136,1239,-1e-05,-2e-05,-5.9999999999999995e-05,-0.0001,-0.00016,0.0,0.0,-2e-05,1
1137,1240,-1e-05,-2e-05,-5.9999999999999995e-05,-0.0001,-0.00016,0.0,0.0,-2e-05,1
1138,1241,-1e-05,-2e-05,-5.9999999999999995e-05,-0.0001,-0.00016,0.0,0.0,-2e-05,1
1139,1242,-1e-05,-2e-05,-5.9999999999999995e-05,-0.0001,-0.00016,0.0,0.0,-2e-05,1
1140,1243,-1e-05,-2e-05,-5.9999999999999995e-05,-0.0001,-0.00016,0.0,0.0,-2e-05,1
1141,1244,-1e-05,-2e-05,-5.9999999999999995e-05,-0.0001,-0.00016,0.0,0.0,-2e-05,1
1142,1245,-1e-05,-2e-05,-5.9999999999999995e-05,-0.0001,-0.00016,0.0,0.0,-2e-05,1
1143,1246,-1e-05,-2e-05,-5.9999999999999995e-05,-0.0001,-0.00016,0.0,0.0,-2e-05,1
1144,1247,-1e-05,-2e-05,-5.9999999999999995e-05,-0.0001,-0.00016,0.0,0.0,-2e-05,1
1145,1248,-1e-05,-2e-05,-5.9999999999999995e-05,-0.0001,-0.00016,0.0,0.0,-2e-05,1
1146,1249,-1e-05,-2e-05,-5.9999999999999995e-05,-0.0001,-0.00016,0.0,0.0,-2e-05,1
1147,1250,-1e-05,-2e-05,-5.9999999999999995e-05,-0.0001,-0.00016,0.0,0.0,-2e-05,1
1148,1251,-1e-05,-2e-05,-5.9999999999999995e-05,-0.0001,-0.00016,0.0,0.0,-2e-05,1
1149,1252,-1e-05,-2e-05,-5.9999999999999995e-05,-0.0001,-0.00016,0.0,0.0,-2e-05,1
1150,1254,-1e-05,1e-05,1e-05,-5e-05,-0.00022,-2e-05,-2.9999999999999997e-05,-1e-05,1
1151,1255,-1e-05,1e-05,1e-05,-5e-05,-0.00022,-2e-05,-2.9999999999999997e-05,-1e-05,1
1152,1256,-1e-05,1e-05,1e-05,-5e-05,-0.00022,-2e-05,-2.9999999999999997e-05,-1e-05,1
1153,1257,-1e-05,1e-05,1e-05,-5e-05,-0.00022,-2e-05,-2.9999999999999997e-05,-1e-05,1
1154,1258,-1e-05,1e-05,1e-05,-5e-05,-0.00022,-2e-05,-2.9999999999999997e-05,-1e-05,1
1155,1259,-1e-05,1e-05,1e-05,-5e-05,-0.00022,-2e-05,-2.9999999999999997e-05,-1e-05,1
1156,1260,-1e-05,1e-05,1e-05,-5e-05,-0.00022,-2e-05,-2.9999999999999997e-05,-1e-05,1
1157,1261,-1e-05,1e-05,1e-05,-5e-05,-0.00022,-2e-05,-2.9999999999999997e-05,-1e-05,1
1158,1262,-1e-05,1e-05,1e-05,-5e-05,-0.00022,-2e-05,-2.9999999999999997e-05,-1e-05,1
1159,1263,-1e-05,1e-05,1e-05,-5e-05,-0.00022,-2e-05,-2.9999999999999997e-05,-1e-05,1
1160,1264,-1e-05,1e-05,1e-05,-5e-05,-0.00022,-2e-05,-2.9999999999999997e-05,-1e-05,1
1161,1265,-1e-05,1e-05,1e-05,-5e-05,-0.00022,-2e-05,-2.9999999999999997e-05,-1e-05,1
1162,1266,-1e-05,1e-05,1e-05,-5e-05,-0.00022,-2e-05,-2.9999999999999997e-05,-1e-05,1
1163,1267,-2e-05,-2e-05,-2.9999999999999997e-05,2.9999999999999997e-05,0.0,1e-05,-1e-05,-2e-05,1
1164,1268,-2e-05,-2e-05,-2.9999999999999997e-05,2.9999999999999997e-05,0.0,1e-05,-1e-05,-2e-05,1
1165,1269,-2e-05,-2e-05,-2.9999999999999997e-05,2.9999999999999997e-05,0.0,1e-05,-1e-05,-2e-05,1
1166,1270,-2e-05,-2e-05,-2.9999999999999997e-05,2.9999999999999997e-05,0.0,1e-05,-1e-05,-2e-05,1
1167,1271,-2e-05,-2e-05,-2.9999999999999997e-05,2.9999999999999997e-05,0.0,1e-05,-1e-05,-2e-05,1
1168,1272,-2e-05,-2e-05,-2.9999999999999997e-05,2.9999999999999997e-05,0.0,1e-05,-1e-05,-2e-05,1
1169,1273,-2e-05,-2e-05,-2.9999999999999997e-05,2.9999999999999997e-05,0.0,1e-05,-1e-05,-2e-05,1
1170,1274,-2e-05,-2e-05,-2.9999999999999997e-05,2.9999999999999997e-05,0.0,1e-05,-1e-05,-2e-05,1
1171,1275,-1e-05,0.0,-5.9999999999999995e-05,-0.0001,-9e-05,-2e-05,-2e-05,-1e-05,1
1172,1276,-1e-05,-2.9999999999999997e-05,1e-05,7e-05,0.0001,-2e-05,-1e-05,-1e-05,1
1173,1279,-1e-05,-2.9999999999999997e-05,1e-05,7e-05,0.0001,-2e-05,-1e-05,-1e-05,1
1174,1280,-1e-05,-2.9999999999999997e-05,1e-05,7e-05,0.0001,-2e-05,-1e-05,-1e-05,1
1175,1281,-1e-05,-2.9999999999999997e-05,1e-05,7e-05,0.0001,-2e-05,-1e-05,-1e-05,1
1176,1282,-1e-05,-2.9999999999999997e-05,1e-05,7e-05,0.0001,-2e-05,-1e-05,-1e-05,1
1177,1283,-1e-05,-2.9999999999999997e-05,1e-05,7e-05,0.0001,-2e-05,-1e-05,-1e-05,1
1178,1284,-1e-05,-2.9999999999999997e-05,1e-05,7e-05,0.0001,-2e-05,-1e-05,-1e-05,1
1179,1285,-1e-05,-2.9999999999999997e-05,1e-05,7e-05,0.0001,-2e-05,-1e-05,-1e-05,1
1180,1286,-1e-05,-2.9999999999999997e-05,1e-05,7e-05,0.0001,-2e-05,-1e-05,-1e-05,1
1181,1289,-1e-05,-2.9999999999999997e-05,1e-05,7e-05,0.0001,-2e-05,-1e-05,-1e-05,1
1182,1290,-1e-05,-2e-05,-4e-05,8e-05,-0.00011,-1e-05,0.0,-2e-05,1
1183,1291,-1e-05,-2e-05,-4e-05,8e-05,-0.00011,-1e-05,0.0,-2e-05,1
1184,1292,-1e-05,-2e-05,-4e-05,8e-05,-0.00011,-1e-05,0.0,-2e-05,1
1185,1293,-1e-05,-2e-05,-4e-05,8e-05,-0.00011,-1e-05,0.0,-2e-05,1
1186,1294,-1e-05,-2e-05,-4e-05,8e-05,-0.00011,-1e-05,0.0,-2e-05,1
1187,1295,-1e-05,-2e-05,-4e-05,8e-05,-0.00011,-1e-05,0.0,-2e-05,1
1188,1296,-1e-05,-2e-05,-4e-05,8e-05,-0.00011,-1e-05,0.0,-2e-05,1
1189,1297,0.0,2.9999999999999997e-05,2.9999999999999997e-05,0.0,1e-05,0.0,0.0,0.0,1
1190,1298,-2.9999999999999997e-05,-5.9999999999999995e-05,-0.00013000000000000002,-5e-05,-2e-05,2e-05,0.0,0.0,1
1191,1299,-2.9999999999999997e-05,-5.9999999999999995e-05,-0.00013000000000000002,-5e-05,-2e-05,2e-05,0.0,0.0,1
1192,1300,-2.9999999999999997e-05,-5.9999999999999995e-05,-0.00013000000000000002,-5e-05,-2e-05,2e-05,0.0,0.0,1
1193,1301,-2.9999999999999997e-05,-5.9999999999999995e-05,-0.00013000000000000002,-5e-05,-2e-05,2e-05,0.0,0.0,1
1194,1302,-2.9999999999999997e-05,-5.9999999999999995e-05,-0.00013000000000000002,-5e-05,-2e-05,2e-05,0.0,0.0,1
1195,1303,-2.9999999999999997e-05,-5.9999999999999995e-05,-0.00013000000000000002,-5e-05,-2e-05,2e-05,0.0,0.0,1
1196,1304,-2.9999999999999997e-05,-5.9999999999999995e-05,-0.00013000000000000002,-5e-05,-2e-05,2e-05,0.0,0.0,1
1197,1305,-2.9999999999999997e-05,-5.9999999999999995e-05,-0.00013000000000000002,-5e-05,-2e-05,2e-05,0.0,0.0,1
1198,1306,-2.9999999999999997e-05,-5.9999999999999995e-05,-0.00013000000000000002,-5e-05,-2e-05,2e-05,0.0,0.0,1
1199,1307,-2.9999999999999997e-05,-5.9999999999999995e-05,-0.00013000000000000002,-5e-05,-2e-05,2e-05,0.0,0.0,1
1200,1308,-2.9999999999999997e-05,-5.9999999999999995e-05,-0.00013000000000000002,-5e-05,-2e-05,2e-05,0.0,0.0,1
1201,1309,-2.9999999999999997e-05,-5.9999999999999995e-05,-0.00013000000000000002,-5e-05,-2e-05,2e-05,0.0,0.0,1
1202,1310,-2.9999999999999997e-05,-5.9999999999999995e-05,-0.00013000000000000002,-5e-05,-2e-05,2e-05,0.0,0.0,1
1203,1311,-2.9999999999999997e-05,-5.9999999999999995e-05,-0.00013000000000000002,-5e-05,-2e-05,2e-05,0.0,0.0,1
1204,1312,-2.9999999999999997e-05,-5.9999999999999995e-05,-0.00013000000000000002,-5e-05,-2e-05,2e-05,0.0,0.0,1
1205,1313,-1e-05,1e-05,2.9999999999999997e-05,0.0,2.9999999999999997e-05,-1e-05,-1e-05,0.0,1
1206,1314,-1e-05,1e-05,2.9999999999999997e-05,0.0,2.9999999999999997e-05,-1e-05,-1e-05,0.0,1
1207,1315,-1e-05,1e-05,2.9999999999999997e-05,0.0,2.9999999999999997e-05,-1e-05,-1e-05,0.0,1
1208,1316,-1e-05,1e-05,2.9999999999999997e-05,0.0,2.9999999999999997e-05,-1e-05,-1e-05,0.0,1
1209,1317,-1e-05,1e-05,2.9999999999999997e-05,0.0,2.9999999999999997e-05,-1e-05,-1e-05,0.0,1
1210,1318,-1e-05,1e-05,2.9999999999999997e-05,0.0,2.9999999999999997e-05,-1e-05,-1e-05,0.0,1
1211,1319,-1e-05,1e-05,2.9999999999999997e-05,0.0,2.9999999999999997e-05,-1e-05,-1e-05,0.0,1
1212,1320,-1e-05,1e-05,2.9999999999999997e-05,0.0,2.9999999999999997e-05,-1e-05,-1e-05,0.0,1
1213,1321,-1e-05,1e-05,2.9999999999999997e-05,0.0,2.9999999999999997e-05,-1e-05,-1e-05,0.0,1
1214,1322,-1e-05,1e-05,2.9999999999999997e-05,0.0,2.9999999999999997e-05,-1e-05,-1e-05,0.0,1
1215,1323,-1e-05,1e-05,2.9999999999999997e-05,0.0,2.9999999999999997e-05,-1e-05,-1e-05,0.0,1
1216,1324,-1e-05,1e-05,2.9999999999999997e-05,0.0,2.9999999999999997e-05,-1e-05,-1e-05,0.0,1
1217,1325,-1e-05,1e-05,2.9999999999999997e-05,0.0,2.9999999999999997e-05,-1e-05,-1e-05,0.0,1
1218,1326,-1e-05,1e-05,2.9999999999999997e-05,0.0,2.9999999999999997e-05,-1e-05,-1e-05,0.0,1
1219,1327,1e-05,-1e-05,1e-05,-2.9999999999999997e-05,9e-05,-1e-05,1e-05,-2e-05,1
1220,1328,1e-05,-1e-05,1e-05,-2.9999999999999997e-05,9e-05,-1e-05,1e-05,-2e-05,1
1221,1329,1e-05,-1e-05,1e-05,-2.9999999999999997e-05,9e-05,-1e-05,1e-05,-2e-05,1
1222,1330,1e-05,-1e-05,1e-05,-2.9999999999999997e-05,9e-05,-1e-05,1e-05,-2e-05,1
1223,1331,1e-05,-1e-05,1e-05,-2.9999999999999997e-05,9e-05,-1e-05,1e-05,-2e-05,1
1224,1332,1e-05,-1e-05,1e-05,-2.9999999999999997e-05,9e-05,-1e-05,1e-05,-2e-05,1
1225,1333,1e-05,-1e-05,1e-05,-2.9999999999999997e-05,9e-05,-1e-05,1e-05,-2e-05,1
1226,1334,1e-05,-1e-05,1e-05,-2.9999999999999997e-05,9e-05,-1e-05,1e-05,-2e-05,1
1227,1335,-2e-05,-2.9999999999999997e-05,1e-05,2.9999999999999997e-05,0.00016,-2e-05,-2e-05,-2e-05,1
1228,1336,-2e-05,-2.9999999999999997e-05,1e-05,2.9999999999999997e-05,0.00016,-2e-05,-2e-05,-2e-05,1
1229,1338,-2e-05,-2.9999999999999997e-05,1e-05,2.9999999999999997e-05,0.00016,-2e-05,-2e-05,-2e-05,1
1230,1340,-2e-05,-2.9999999999999997e-05,1e-05,2.9999999999999997e-05,0.00016,-2e-05,-2e-05,-2e-05,1
1231,1341,-2e-05,-2.9999999999999997e-05,1e-05,2.9999999999999997e-05,0.00016,-2e-05,-2e-05,-2e-05,1
1232,1342,-2e-05,-2.9999999999999997e-05,1e-05,2.9999999999999997e-05,0.00016,-2e-05,-2e-05,-2e-05,1
1233,1343,-2e-05,-2.9999999999999997e-05,1e-05,2.9999999999999997e-05,0.00016,-2e-05,-2e-05,-2e-05,1
1234,1344,-2e-05,-2.9999999999999997e-05,1e-05,2.9999999999999997e-05,0.00016,-2e-05,-2e-05,-2e-05,1
1235,1345,-2e-05,-2.9999999999999997e-05,1e-05,2.9999999999999997e-05,0.00016,-2e-05,-2e-05,-2e-05,1
1236,1346,-2e-05,-2.9999999999999997e-05,1e-05,2.9999999999999997e-05,0.00016,-2e-05,-2e-05,-2e-05,1
1237,1347,-2e-05,-2.9999999999999997e-05,1e-05,2.9999999999999997e-05,0.00016,-2e-05,-2e-05,-2e-05,1
1238,1348,-2e-05,-2.9999999999999997e-05,1e-05,2.9999999999999997e-05,0.00016,-2e-05,-2e-05,-2e-05,1
1239,1349,-2e-05,-2.9999999999999997e-05,1e-05,2.9999999999999997e-05,0.00016,-2e-05,-2e-05,-2e-05,1
1240,1350,-2e-05,-1e-05,1e-05,-5e-05,-0.00011999999999999999,-1e-05,-2e-05,-1e-05,1
1241,1351,-2e-05,-1e-05,1e-05,-5e-05,-0.00011999999999999999,-1e-05,-2e-05,-1e-05,1
1242,1352,-2e-05,-1e-05,1e-05,-5e-05,-0.00011999999999999999,-1e-05,-2e-05,-1e-05,1
1243,1353,-2e-05,-1e-05,1e-05,-5e-05,-0.00011999999999999999,-1e-05,-2e-05,-1e-05,1
1244,1354,-2e-05,-1e-05,1e-05,-5e-05,-0.00011999999999999999,-1e-05,-2e-05,-1e-05,1
1245,1355,-2e-05,-1e-05,1e-05,-5e-05,-0.00011999999999999999,-1e-05,-2e-05,-1e-05,1
1246,1356,-2e-05,-1e-05,1e-05,-5e-05,-0.00011999999999999999,-1e-05,-2e-05,-1e-05,1
1247,1357,-1e-05,1e-05,2e-05,5e-05,2.9999999999999997e-05,-2.9999999999999997e-05,-1e-05,-1e-05,1
1248,1358,0.0,2e-05,-1e-05,-7e-05,-1e-05,0.0,-1e-05,-1e-05,1
1249,1359,0.0,2e-05,-1e-05,-7e-05,-1e-05,0.0,-1e-05,-1e-05,1
1250,1360,0.0,2e-05,-1e-05,-7e-05,-1e-05,0.0,-1e-05,-1e-05,1
1251,1361,0.0,2e-05,-1e-05,-7e-05,-1e-05,0.0,-1e-05,-1e-05,1
1252,1362,0.0,2e-05,-1e-05,-7e-05,-1e-05,0.0,-1e-05,-1e-05,1
1253,1363,0.0,2e-05,-1e-05,-7e-05,-1e-05,0.0,-1e-05,-1e-05,1
1254,1364,0.0,2e-05,-1e-05,-7e-05,-1e-05,0.0,-1e-05,-1e-05,1
1255,1365,0.0,2e-05,-1e-05,-7e-05,-1e-05,0.0,-1e-05,-1e-05,1
1256,1366,0.0,2e-05,-1e-05,-7e-05,-1e-05,0.0,-1e-05,-1e-05,1
1257,1367,0.0,2e-05,-1e-05,-7e-05,-1e-05,0.0,-1e-05,-1e-05,1
1258,1368,0.0,2e-05,-1e-05,-7e-05,-1e-05,0.0,-1e-05,-1e-05,1
1259,1369,0.0,2e-05,-1e-05,-7e-05,-1e-05,0.0,-1e-05,-1e-05,1
1260,1370,0.0,2e-05,-1e-05,-7e-05,-1e-05,0.0,-1e-05,-1e-05,1
1261,1371,0.0,2e-05,-1e-05,-7e-05,-1e-05,0.0,-1e-05,-1e-05,1
1262,1372,-2e-05,-1e-05,-2e-05,-2.9999999999999997e-05,-5.9999999999999995e-05,0.0,0.0,-1e-05,1
1263,1373,-1e-05,4e-05,4e-05,-2e-05,5e-05,-1e-05,-1e-05,0.0,1
1264,1374,-1e-05,4e-05,4e-05,-2e-05,5e-05,-1e-05,-1e-05,0.0,1
1265,1375,-1e-05,4e-05,4e-05,-2e-05,5e-05,-1e-05,-1e-05,0.0,1
1266,1376,-1e-05,4e-05,4e-05,-2e-05,5e-05,-1e-05,-1e-05,0.0,1
1267,1377,-1e-05,4e-05,4e-05,-2e-05,5e-05,-1e-05,-1e-05,0.0,1
1268,1378,-1e-05,4e-05,4e-05,-2e-05,5e-05,-1e-05,-1e-05,0.0,1
1269,1379,-1e-05,4e-05,4e-05,-2e-05,5e-05,-1e-05,-1e-05,0.0,1
1270,1380,-1e-05,4e-05,4e-05,-2e-05,5e-05,-1e-05,-1e-05,0.0,1
1271,1381,-1e-05,4e-05,4e-05,-2e-05,5e-05,-1e-05,-1e-05,0.0,1
1272,1382,-1e-05,4e-05,4e-05,-2e-05,5e-05,-1e-05,-1e-05,0.0,1
1273,1383,-1e-05,4e-05,4e-05,-2e-05,5e-05,-1e-05,-1e-05,0.0,1
1274,1384,-1e-05,4e-05,4e-05,-2e-05,5e-05,-1e-05,-1e-05,0.0,1
1275,1385,-1e-05,4e-05,4e-05,-2e-05,5e-05,-1e-05,-1e-05,0.0,1
1276,1386,-1e-05,4e-05,4e-05,-2e-05,5e-05,-1e-05,-1e-05,0.0,1
1277,1389,-1e-05,4e-05,4e-05,-2e-05,5e-05,-1e-05,-1e-05,0.0,1
1278,1390,-1e-05,4e-05,4e-05,-2e-05,5e-05,-1e-05,-1e-05,0.0,1
1279,1391,-1e-05,4e-05,4e-05,-2e-05,5e-05,-1e-05,-1e-05,0.0,1
1280,1392,-1e-05,4e-05,4e-05,-2e-05,5e-05,-1e-05,-1e-05,0.0,1
1281,1393,-1e-05,4e-05,4e-05,-2e-05,5e-05,-1e-05,-1e-05,0.0,1
1282,1394,-1e-05,4e-05,4e-05,-2e-05,5e-05,-1e-05,-1e-05,0.0,1
1283,1395,-1e-05,4e-05,4e-05,-2e-05,5e-05,-1e-05,-1e-05,0.0,1
1284,1396,0.0,0.0,-1e-05,-2.9999999999999997e-05,-0.00014,-1e-05,1e-05,-2e-05,1
1285,1397,0.0,0.0,-1e-05,-2.9999999999999997e-05,-0.00014,-1e-05,1e-05,-2e-05,1
1286,1398,0.0,0.0,-1e-05,-2.9999999999999997e-05,-0.00014,-1e-05,1e-05,-2e-05,1
1287,1399,0.0,0.0,-1e-05,-2.9999999999999997e-05,-0.00014,-1e-05,1e-05,-2e-05,1
1288,1400,0.0,0.0,-1e-05,-2.9999999999999997e-05,-0.00014,-1e-05,1e-05,-2e-05,1
1289,1401,0.0,0.0,-1e-05,-2.9999999999999997e-05,-0.00014,-1e-05,1e-05,-2e-05,1
1290,1402,0.0,0.0,-1e-05,-2.9999999999999997e-05,-0.00014,-1e-05,1e-05,-2e-05,1
1291,1404,0.0,0.0,-1e-05,-2.9999999999999997e-05,-0.00014,-1e-05,1e-05,-2e-05,1
1292,1405,0.0,0.0,-1e-05,-2.9999999999999997e-05,-0.00014,-1e-05,1e-05,-2e-05,1
1293,1406,0.0,0.0,-1e-05,-2.9999999999999997e-05,-0.00014,-1e-05,1e-05,-2e-05,1
1294,1407,0.0,0.0,-1e-05,-2.9999999999999997e-05,-0.00014,-1e-05,1e-05,-2e-05,1
1295,1408,0.0,0.0,-1e-05,-2.9999999999999997e-05,-0.00014,-1e-05,1e-05,-2e-05,1
1296,1409,0.0,0.0,-1e-05,-2.9999999999999997e-05,-0.00014,-1e-05,1e-05,-2e-05,1
1297,1410,0.0,0.0,-1e-05,-2.9999999999999997e-05,-0.00014,-1e-05,1e-05,-2e-05,1
1298,1411,0.0,0.0,-1e-05,-2.9999999999999997e-05,-0.00014,-1e-05,1e-05,-2e-05,1
1299,1412,0.0,0.0,-1e-05,-2.9999999999999997e-05,-0.00014,-1e-05,1e-05,-2e-05,1
1300,1413,0.0,0.0,-1e-05,-2.9999999999999997e-05,-0.00014,-1e-05,1e-05,-2e-05,1
1301,1414,0.0,0.0,-1e-05,-2.9999999999999997e-05,-0.00014,-1e-05,1e-05,-2e-05,1
1302,1415,0.0,0.0,-1e-05,-2.9999999999999997e-05,-0.00014,-1e-05,1e-05,-2e-05,1
1303,1416,0.0,0.0,-1e-05,-2.9999999999999997e-05,-0.00014,-1e-05,1e-05,-2e-05,1
1304,1417,0.0,0.0,-1e-05,-2.9999999999999997e-05,-0.00014,-1e-05,1e-05,-2e-05,1
1305,1418,0.0,0.0,0.0,-0.0001,-5.9999999999999995e-05,-2e-05,-2e-05,-1e-05,1
1306,1419,-2e-05,-2.9999999999999997e-05,0.0,-2e-05,-5.9999999999999995e-05,0.0,0.0,-2e-05,1
1307,1420,-2e-05,-2.9999999999999997e-05,0.0,-2e-05,-5.9999999999999995e-05,0.0,0.0,-2e-05,1
1308,1421,-2e-05,-2.9999999999999997e-05,0.0,-2e-05,-5.9999999999999995e-05,0.0,0.0,-2e-05,1
1309,1422,-2e-05,-2.9999999999999997e-05,0.0,-2e-05,-5.9999999999999995e-05,0.0,0.0,-2e-05,1
1310,1423,-2e-05,-2.9999999999999997e-05,0.0,-2e-05,-5.9999999999999995e-05,0.0,0.0,-2e-05,1
1311,1424,-2e-05,-2.9999999999999997e-05,0.0,-2e-05,-5.9999999999999995e-05,0.0,0.0,-2e-05,1
1312,1425,-2e-05,-2.9999999999999997e-05,0.0,-2e-05,-5.9999999999999995e-05,0.0,0.0,-2e-05,1
1313,1426,-2e-05,-2.9999999999999997e-05,0.0,-2e-05,-5.9999999999999995e-05,0.0,0.0,-2e-05,1
1314,1427,-2e-05,-2.9999999999999997e-05,0.0,-2e-05,-5.9999999999999995e-05,0.0,0.0,-2e-05,1
1315,1428,-2e-05,-2.9999999999999997e-05,0.0,-2e-05,-5.9999999999999995e-05,0.0,0.0,-2e-05,1
1316,1429,-2e-05,-2.9999999999999997e-05,0.0,-2e-05,-5.9999999999999995e-05,0.0,0.0,-2e-05,1
1317,1430,-2e-05,-2.9999999999999997e-05,0.0,-2e-05,-5.9999999999999995e-05,0.0,0.0,-2e-05,1
1318,1431,-2e-05,-2.9999999999999997e-05,0.0,-2e-05,-5.9999999999999995e-05,0.0,0.0,-2e-05,1
1319,1432,-2e-05,-2.9999999999999997e-05,0.0,-2e-05,-5.9999999999999995e-05,0.0,0.0,-2e-05,1
1320,1433,-2e-05,-2e-05,-1e-05,0.0,0.00021,1e-05,-2e-05,0.0,1
1321,1435,-2e-05,-2e-05,-1e-05,0.0,0.00021,1e-05,-2e-05,0.0,1
1322,1436,-2e-05,-2e-05,-1e-05,0.0,0.00021,1e-05,-2e-05,0.0,1
1323,1438,-2e-05,-2e-05,-1e-05,0.0,0.00021,1e-05,-2e-05,0.0,1
1324,1440,-2e-05,-2e-05,-1e-05,0.0,0.00021,1e-05,-2e-05,0.0,1
1325,1441,-2e-05,-2e-05,-1e-05,0.0,0.00021,1e-05,-2e-05,0.0,1
1326,1442,-2e-05,-2e-05,-1e-05,0.0,0.00021,1e-05,-2e-05,0.0,1
1327,1443,-2e-05,-2e-05,-1e-05,0.0,0.00021,1e-05,-2e-05,0.0,1
1328,1444,-2e-05,-2e-05,-1e-05,0.0,0.00021,1e-05,-2e-05,0.0,1
1329,1445,-2e-05,-2e-05,-1e-05,0.0,0.00021,1e-05,-2e-05,0.0,1
1330,1446,-2e-05,-2e-05,-1e-05,0.0,0.00021,1e-05,-2e-05,0.0,1
1331,1447,-2e-05,-2e-05,-1e-05,0.0,0.00021,1e-05,-2e-05,0.0,1
1332,1448,-2e-05,-5.9999999999999995e-05,-0.0001,-4e-05,5e-05,-2.9999999999999997e-05,-2e-05,-2e-05,1
1333,1449,-2e-05,-5.9999999999999995e-05,-0.0001,-4e-05,5e-05,-2.9999999999999997e-05,-2e-05,-2e-05,1
1334,1450,-2e-05,-5.9999999999999995e-05,-0.0001,-4e-05,5e-05,-2.9999999999999997e-05,-2e-05,-2e-05,1
1335,1451,-2e-05,-5.9999999999999995e-05,-0.0001,-4e-05,5e-05,-2.9999999999999997e-05,-2e-05,-2e-05,1
1336,1452,-2e-05,-5.9999999999999995e-05,-0.0001,-4e-05,5e-05,-2.9999999999999997e-05,-2e-05,-2e-05,1
1337,1453,-2e-05,-5.9999999999999995e-05,-0.0001,-4e-05,5e-05,-2.9999999999999997e-05,-2e-05,-2e-05,1
1338,1454,-2e-05,-5.9999999999999995e-05,-0.0001,-4e-05,5e-05,-2.9999999999999997e-05,-2e-05,-2e-05,1
1339,1455,-1e-05,-4e-05,-5e-05,-4e-05,-0.00018,-4e-05,0.0,-1e-05,1
1340,1456,-1e-05,-4e-05,-5e-05,-4e-05,-0.00018,-4e-05,0.0,-1e-05,1
1341,1457,-1e-05,-4e-05,-5e-05,-4e-05,-0.00018,-4e-05,0.0,-1e-05,1
1342,1458,-1e-05,-4e-05,-5e-05,-4e-05,-0.00018,-4e-05,0.0,-1e-05,1
1343,1459,-1e-05,-4e-05,-5e-05,-4e-05,-0.00018,-4e-05,0.0,-1e-05,1
1344,1460,-1e-05,-4e-05,-5e-05,-4e-05,-0.00018,-4e-05,0.0,-1e-05,1
1345,1461,-1e-05,-4e-05,-5e-05,-4e-05,-0.00018,-4e-05,0.0,-1e-05,1
1346,1462,-1e-05,-4e-05,-5e-05,-4e-05,-0.00018,-4e-05,0.0,-1e-05,1
1347,1463,-1e-05,-4e-05,-5e-05,-4e-05,-0.00018,-4e-05,0.0,-1e-05,1
1348,1464,-1e-05,-4e-05,-5e-05,-4e-05,-0.00018,-4e-05,0.0,-1e-05,1
1349,1465,-1e-05,-4e-05,-5e-05,-4e-05,-0.00018,-4e-05,0.0,-1e-05,1
1350,1466,-1e-05,-4e-05,-5e-05,-4e-05,-0.00018,-4e-05,0.0,-1e-05,1
1351,1467,-1e-05,-4e-05,-5e-05,-4e-05,-0.00018,-4e-05,0.0,-1e-05,1
1352,1468,-1e-05,-4e-05,-5e-05,-4e-05,-0.00018,-4e-05,0.0,-1e-05,1
1353,1469,-1e-05,-4e-05,-5e-05,-4e-05,-0.00018,-4e-05,0.0,-1e-05,1
1354,1470,0.0,4e-05,4e-05,0.0,0.0001,-1e-05,-2.9999999999999997e-05,-1e-05,1
1355,1471,1e-05,-2e-05,2e-05,0.0,-5e-05,-1e-05,-2e-05,-1e-05,1
1356,1472,1e-05,-2e-05,2e-05,0.0,-5e-05,-1e-05,-2e-05,-1e-05,1
1357,1473,1e-05,-2e-05,2e-05,0.0,-5e-05,-1e-05,-2e-05,-1e-05,1
1358,1474,1e-05,-2e-05,2e-05,0.0,-5e-05,-1e-05,-2e-05,-1e-05,1
1359,1475,1e-05,-2e-05,2e-05,0.0,-5e-05,-1e-05,-2e-05,-1e-05,1
1360,1476,1e-05,-2e-05,2e-05,0.0,-5e-05,-1e-05,-2e-05,-1e-05,1
1361,1477,1e-05,-2e-05,2e-05,0.0,-5e-05,-1e-05,-2e-05,-1e-05,1
1362,1478,1e-05,-2e-05,2e-05,0.0,-5e-05,-1e-05,-2e-05,-1e-05,1
1363,1479,1e-05,-2e-05,2e-05,0.0,-5e-05,-1e-05,-2e-05,-1e-05,1
1364,1481,1e-05,-2e-05,2e-05,0.0,-5e-05,-1e-05,-2e-05,-1e-05,1
1365,1482,1e-05,-2e-05,2e-05,0.0,-5e-05,-1e-05,-2e-05,-1e-05,1
1366,1483,1e-05,-2e-05,2e-05,0.0,-5e-05,-1e-05,-2e-05,-1e-05,1
1367,1484,1e-05,-2e-05,2e-05,0.0,-5e-05,-1e-05,-2e-05,-1e-05,1
1368,1485,1e-05,-2e-05,2e-05,0.0,-5e-05,-1e-05,-2e-05,-1e-05,1
1369,1486,1e-05,-2e-05,2e-05,0.0,-5e-05,-1e-05,-2e-05,-1e-05,1
1370,1488,1e-05,-2e-05,2e-05,0.0,-5e-05,-1e-05,-2e-05,-1e-05,1
1371,1489,1e-05,-2e-05,2e-05,0.0,-5e-05,-1e-05,-2e-05,-1e-05,1
1372,1490,1e-05,-2e-05,2e-05,0.0,-5e-05,-1e-05,-2e-05,-1e-05,1
1373,1491,1e-05,-2e-05,2e-05,0.0,-5e-05,-1e-05,-2e-05,-1e-05,1
1374,1492,1e-05,-2e-05,2e-05,0.0,-5e-05,-1e-05,-2e-05,-1e-05,1
1375,1493,1e-05,-2e-05,2e-05,0.0,-5e-05,-1e-05,-2e-05,-1e-05,1
1376,1494,1e-05,0.0,2.9999999999999997e-05,9e-05,0.00014,2e-05,-1e-05,-1e-05,1
1377,1495,1e-05,0.0,2.9999999999999997e-05,9e-05,0.00014,2e-05,-1e-05,-1e-05,1
1378,1496,1e-05,0.0,2.9999999999999997e-05,9e-05,0.00014,2e-05,-1e-05,-1e-05,1
1379,1497,1e-05,0.0,2.9999999999999997e-05,9e-05,0.00014,2e-05,-1e-05,-1e-05,1
1380,1498,1e-05,0.0,2.9999999999999997e-05,9e-05,0.00014,2e-05,-1e-05,-1e-05,1
1381,1499,1e-05,0.0,2.9999999999999997e-05,9e-05,0.00014,2e-05,-1e-05,-1e-05,1
1382,1500,1e-05,0.0,2.9999999999999997e-05,9e-05,0.00014,2e-05,-1e-05,-1e-05,1
1383,1501,1e-05,0.0,2.9999999999999997e-05,9e-05,0.00014,2e-05,-1e-05,-1e-05,1
1384,1502,1e-05,0.0,2.9999999999999997e-05,9e-05,0.00014,2e-05,-1e-05,-1e-05,1
1385,1503,1e-05,0.0,2.9999999999999997e-05,9e-05,0.00014,2e-05,-1e-05,-1e-05,1
1386,1504,1e-05,0.0,2.9999999999999997e-05,9e-05,0.00014,2e-05,-1e-05,-1e-05,1
1387,1505,1e-05,0.0,2.9999999999999997e-05,9e-05,0.00014,2e-05,-1e-05,-1e-05,1
1388,1506,1e-05,0.0,2.9999999999999997e-05,9e-05,0.00014,2e-05,-1e-05,-1e-05,1
1389,1507,-1e-05,1e-05,7e-05,0.00014,8e-05,0.0,0.0,0.0,1
1390,1508,-1e-05,1e-05,7e-05,0.00014,8e-05,0.0,0.0,0.0,1
1391,1509,-1e-05,1e-05,7e-05,0.00014,8e-05,0.0,0.0,0.0,1
1392,1510,-1e-05,1e-05,7e-05,0.00014,8e-05,0.0,0.0,0.0,1
1393,1511,-1e-05,1e-05,7e-05,0.00014,8e-05,0.0,0.0,0.0,1
1394,1512,-1e-05,1e-05,7e-05,0.00014,8e-05,0.0,0.0,0.0,1
1395,1513,-1e-05,1e-05,7e-05,0.00014,8e-05,0.0,0.0,0.0,1
1396,1514,-1e-05,1e-05,7e-05,0.00014,8e-05,0.0,0.0,0.0,1
1397,1515,-1e-05,-1e-05,-2e-05,-2.9999999999999997e-05,-0.0001,-1e-05,1e-05,-1e-05,1
1398,1516,-1e-05,-1e-05,-2e-05,-2.9999999999999997e-05,-0.0001,-1e-05,1e-05,-1e-05,1
1399,1517,-1e-05,-1e-05,-2e-05,-2.9999999999999997e-05,-0.0001,-1e-05,1e-05,-1e-05,1
1400,1518,-1e-05,-1e-05,-2e-05,-2.9999999999999997e-05,-0.0001,-1e-05,1e-05,-1e-05,1
1401,1519,-1e-05,-1e-05,-2e-05,-2.9999999999999997e-05,-0.0001,-1e-05,1e-05,-1e-05,1
1402,1520,-1e-05,-1e-05,-2e-05,-2.9999999999999997e-05,-0.0001,-1e-05,1e-05,-1e-05,1
1403,1521,-1e-05,-1e-05,-2e-05,-2.9999999999999997e-05,-0.0001,-1e-05,1e-05,-1e-05,1
1404,1522,-1e-05,-1e-05,-2e-05,-2.9999999999999997e-05,-0.0001,-1e-05,1e-05,-1e-05,1
1405,1523,-1e-05,-1e-05,-2e-05,-2.9999999999999997e-05,-0.0001,-1e-05,1e-05,-1e-05,1
1406,1524,-1e-05,-1e-05,-2e-05,-2.9999999999999997e-05,-0.0001,-1e-05,1e-05,-1e-05,1
1407,1526,-1e-05,-1e-05,-2e-05,-2.9999999999999997e-05,-0.0001,-1e-05,1e-05,-1e-05,1
1408,1527,-1e-05,-1e-05,-2e-05,-2.9999999999999997e-05,-0.0001,-1e-05,1e-05,-1e-05,1
1409,1528,-1e-05,-1e-05,-2e-05,-2.9999999999999997e-05,-0.0001,-1e-05,1e-05,-1e-05,1
1410,1529,-1e-05,-1e-05,-2e-05,-2.9999999999999997e-05,-0.0001,-1e-05,1e-05,-1e-05,1
1411,1530,-2.9999999999999997e-05,-4e-05,-5.9999999999999995e-05,-0.00011999999999999999,-8e-05,0.0,0.0,0.0,1
1412,1531,-1e-05,-2e-05,-2.9999999999999997e-05,-5e-05,-9e-05,-2.9999999999999997e-05,-2.9999999999999997e-05,-1e-05,1
1413,1532,-1e-05,-2e-05,-2.9999999999999997e-05,-5e-05,-9e-05,-2.9999999999999997e-05,-2.9999999999999997e-05,-1e-05,1
1414,1533,-1e-05,-2e-05,-2.9999999999999997e-05,-5e-05,-9e-05,-2.9999999999999997e-05,-2.9999999999999997e-05,-1e-05,1
1415,1534,-1e-05,-2e-05,-2.9999999999999997e-05,-5e-05,-9e-05,-2.9999999999999997e-05,-2.9999999999999997e-05,-1e-05,1
1416,1535,-1e-05,-2e-05,-2.9999999999999997e-05,-5e-05,-9e-05,-2.9999999999999997e-05,-2.9999999999999997e-05,-1e-05,1
1417,1536,-1e-05,-2e-05,-2.9999999999999997e-05,-5e-05,-9e-05,-2.9999999999999997e-05,-2.9999999999999997e-05,-1e-05,1
1418,1538,-1e-05,-2e-05,-2.9999999999999997e-05,-5e-05,-9e-05,-2.9999999999999997e-05,-2.9999999999999997e-05,-1e-05,1
1419,1539,-1e-05,-2e-05,-2.9999999999999997e-05,-5e-05,-9e-05,-2.9999999999999997e-05,-2.9999999999999997e-05,-1e-05,1
1420,1540,-1e-05,-2e-05,-2.9999999999999997e-05,-5e-05,-9e-05,-2.9999999999999997e-05,-2.9999999999999997e-05,-1e-05,1
1421,1541,-1e-05,-2e-05,-2.9999999999999997e-05,-5e-05,-9e-05,-2.9999999999999997e-05,-2.9999999999999997e-05,-1e-05,1
1422,1542,-1e-05,-2e-05,-2.9999999999999997e-05,-5e-05,-9e-05,-2.9999999999999997e-05,-2.9999999999999997e-05,-1e-05,1
1423,1543,-1e-05,-2e-05,-2.9999999999999997e-05,-5e-05,-9e-05,-2.9999999999999997e-05,-2.9999999999999997e-05,-1e-05,1
1424,1544,-1e-05,-2e-05,-2.9999999999999997e-05,-5e-05,-9e-05,-2.9999999999999997e-05,-2.9999999999999997e-05,-1e-05,1
1425,1545,-1e-05,-2e-05,-2.9999999999999997e-05,-5e-05,-9e-05,-2.9999999999999997e-05,-2.9999999999999997e-05,-1e-05,1
1426,1546,-1e-05,-2e-05,-2.9999999999999997e-05,-5e-05,-9e-05,-2.9999999999999997e-05,-2.9999999999999997e-05,-1e-05,1
1427,1547,-1e-05,-2e-05,-2.9999999999999997e-05,-5e-05,-9e-05,-2.9999999999999997e-05,-2.9999999999999997e-05,-1e-05,1
1428,1548,-1e-05,-2e-05,-2.9999999999999997e-05,-5e-05,-9e-05,-2.9999999999999997e-05,-2.9999999999999997e-05,-1e-05,1
1429,1549,-1e-05,-2e-05,-2.9999999999999997e-05,-5e-05,-9e-05,-2.9999999999999997e-05,-2.9999999999999997e-05,-1e-05,1
1430,1550,-1e-05,-2e-05,-2.9999999999999997e-05,-5e-05,-9e-05,-2.9999999999999997e-05,-2.9999999999999997e-05,-1e-05,1
1431,1551,-1e-05,-2e-05,-2.9999999999999997e-05,-5e-05,-9e-05,-2.9999999999999997e-05,-2.9999999999999997e-05,-1e-05,1
1432,1552,-1e-05,-2e-05,-2.9999999999999997e-05,-5e-05,-9e-05,-2.9999999999999997e-05,-2.9999999999999997e-05,-1e-05,1
1433,1553,-2e-05,0.0,-5.9999999999999995e-05,-8e-05,-9e-05,-2.9999999999999997e-05,-1e-05,-1e-05,1
1434,1554,-2e-05,0.0,-5.9999999999999995e-05,-8e-05,-9e-05,-2.9999999999999997e-05,-1e-05,-1e-05,1
1435,1555,-2e-05,0.0,-5.9999999999999995e-05,-8e-05,-9e-05,-2.9999999999999997e-05,-1e-05,-1e-05,1
1436,1556,-2e-05,0.0,-5.9999999999999995e-05,-8e-05,-9e-05,-2.9999999999999997e-05,-1e-05,-1e-05,1
1437,1557,-2e-05,0.0,-5.9999999999999995e-05,-8e-05,-9e-05,-2.9999999999999997e-05,-1e-05,-1e-05,1
1438,1558,-2e-05,0.0,-5.9999999999999995e-05,-8e-05,-9e-05,-2.9999999999999997e-05,-1e-05,-1e-05,1
1439,1559,-2e-05,0.0,-5.9999999999999995e-05,-8e-05,-9e-05,-2.9999999999999997e-05,-1e-05,-1e-05,1
1440,1560,-2e-05,0.0,-5.9999999999999995e-05,-8e-05,-9e-05,-2.9999999999999997e-05,-1e-05,-1e-05,1
1441,1561,-2e-05,0.0,-5.9999999999999995e-05,-8e-05,-9e-05,-2.9999999999999997e-05,-1e-05,-1e-05,1
1442,1562,-2e-05,0.0,-5.9999999999999995e-05,-8e-05,-9e-05,-2.9999999999999997e-05,-1e-05,-1e-05,1
1443,1563,-2e-05,0.0,-5.9999999999999995e-05,-8e-05,-9e-05,-2.9999999999999997e-05,-1e-05,-1e-05,1
1444,1564,-2e-05,0.0,-5.9999999999999995e-05,-8e-05,-9e-05,-2.9999999999999997e-05,-1e-05,-1e-05,1
1445,1565,-2e-05,0.0,-5.9999999999999995e-05,-8e-05,-9e-05,-2.9999999999999997e-05,-1e-05,-1e-05,1
1446,1566,-2e-05,0.0,-5.9999999999999995e-05,-8e-05,-9e-05,-2.9999999999999997e-05,-1e-05,-1e-05,1
1447,1567,1e-05,-2e-05,0.0,2.9999999999999997e-05,0.00015,1e-05,-1e-05,-1e-05,1
1448,1568,1e-05,-2e-05,0.0,2.9999999999999997e-05,0.00015,1e-05,-1e-05,-1e-05,1
1449,1569,1e-05,-2e-05,0.0,2.9999999999999997e-05,0.00015,1e-05,-1e-05,-1e-05,1
1450,1570,1e-05,-2e-05,0.0,2.9999999999999997e-05,0.00015,1e-05,-1e-05,-1e-05,1
1451,1571,1e-05,-2e-05,0.0,2.9999999999999997e-05,0.00015,1e-05,-1e-05,-1e-05,1
1452,1572,1e-05,-2e-05,0.0,2.9999999999999997e-05,0.00015,1e-05,-1e-05,-1e-05,1
1453,1573,1e-05,-2e-05,0.0,2.9999999999999997e-05,0.00015,1e-05,-1e-05,-1e-05,1
1454,1575,0.0,2e-05,5.9999999999999995e-05,0.0,0.00015,0.0,-1e-05,-2e-05,1
1455,1576,0.0,2e-05,5.9999999999999995e-05,0.0,0.00015,0.0,-1e-05,-2e-05,1
1456,1577,0.0,2e-05,5.9999999999999995e-05,0.0,0.00015,0.0,-1e-05,-2e-05,1
1457,1578,0.0,2e-05,5.9999999999999995e-05,0.0,0.00015,0.0,-1e-05,-2e-05,1
1458,1579,0.0,2e-05,5.9999999999999995e-05,0.0,0.00015,0.0,-1e-05,-2e-05,1
1459,1580,0.0,2e-05,5.9999999999999995e-05,0.0,0.00015,0.0,-1e-05,-2e-05,1
1460,1581,0.0,2e-05,5.9999999999999995e-05,0.0,0.00015,0.0,-1e-05,-2e-05,1
1461,1582,0.0,2e-05,5.9999999999999995e-05,0.0,0.00015,0.0,-1e-05,-2e-05,1
1462,1583,0.0,2e-05,5.9999999999999995e-05,0.0,0.00015,0.0,-1e-05,-2e-05,1
1463,1584,0.0,2e-05,5.9999999999999995e-05,0.0,0.00015,0.0,-1e-05,-2e-05,1
1464,1585,0.0,2e-05,5.9999999999999995e-05,0.0,0.00015,0.0,-1e-05,-2e-05,1
1465,1586,0.0,2e-05,5.9999999999999995e-05,0.0,0.00015,0.0,-1e-05,-2e-05,1
1466,1588,0.0,2e-05,5.9999999999999995e-05,0.0,0.00015,0.0,-1e-05,-2e-05,1
1467,1589,0.0,2e-05,5.9999999999999995e-05,0.0,0.00015,0.0,-1e-05,-2e-05,1
1468,1590,-2.9999999999999997e-05,-4e-05,-8e-05,-8e-05,-0.0001,0.0,0.0,0.0,1
1469,1591,0.0,-2e-05,-7e-05,-4e-05,-2.9999999999999997e-05,-2.9999999999999997e-05,-1e-05,0.0,1
1470,1592,0.0,-2e-05,-7e-05,-4e-05,-2.9999999999999997e-05,-2.9999999999999997e-05,-1e-05,0.0,1
1471,1593,0.0,-2e-05,-7e-05,-4e-05,-2.9999999999999997e-05,-2.9999999999999997e-05,-1e-05,0.0,1
1472,1594,0.0,-2e-05,-7e-05,-4e-05,-2.9999999999999997e-05,-2.9999999999999997e-05,-1e-05,0.0,1
1473,1595,0.0,-2e-05,-7e-05,-4e-05,-2.9999999999999997e-05,-2.9999999999999997e-05,-1e-05,0.0,1
1474,1596,0.0,-2e-05,-7e-05,-4e-05,-2.9999999999999997e-05,-2.9999999999999997e-05,-1e-05,0.0,1
1475,1597,0.0,-2e-05,-7e-05,-4e-05,-2.9999999999999997e-05,-2.9999999999999997e-05,-1e-05,0.0,1
1476,1598,0.0,-2e-05,-7e-05,-4e-05,-2.9999999999999997e-05,-2.9999999999999997e-05,-1e-05,0.0,1
1477,1599,0.0,-2e-05,-7e-05,-4e-05,-2.9999999999999997e-05,-2.9999999999999997e-05,-1e-05,0.0,1
1478,1600,0.0,-2e-05,-7e-05,-4e-05,-2.9999999999999997e-05,-2.9999999999999997e-05,-1e-05,0.0,1
1479,1601,0.0,-2e-05,-7e-05,-4e-05,-2.9999999999999997e-05,-2.9999999999999997e-05,-1e-05,0.0,1
1480,1602,0.0,-2e-05,-7e-05,-4e-05,-2.9999999999999997e-05,-2.9999999999999997e-05,-1e-05,0.0,1
1481,1603,0.0,-2e-05,-7e-05,-4e-05,-2.9999999999999997e-05,-2.9999999999999997e-05,-1e-05,0.0,1
1482,1604,0.0,-2e-05,-7e-05,-4e-05,-2.9999999999999997e-05,-2.9999999999999997e-05,-1e-05,0.0,1
1483,1605,0.0,-2e-05,-7e-05,-4e-05,-2.9999999999999997e-05,-2.9999999999999997e-05,-1e-05,0.0,1
1484,1606,0.0,-2e-05,-7e-05,-4e-05,-2.9999999999999997e-05,-2.9999999999999997e-05,-1e-05,0.0,1
1485,1607,0.0,-2e-05,-7e-05,-4e-05,-2.9999999999999997e-05,-2.9999999999999997e-05,-1e-05,0.0,1
1486,1608,0.0,-2e-05,-7e-05,-4e-05,-2.9999999999999997e-05,-2.9999999999999997e-05,-1e-05,0.0,1
1487,1609,0.0,-2e-05,-7e-05,-4e-05,-2.9999999999999997e-05,-2.9999999999999997e-05,-1e-05,0.0,1
1488,1610,0.0,-2e-05,-7e-05,-4e-05,-2.9999999999999997e-05,-2.9999999999999997e-05,-1e-05,0.0,1
1489,1611,0.0,-2e-05,-7e-05,-4e-05,-2.9999999999999997e-05,-2.9999999999999997e-05,-1e-05,0.0,1
1490,1612,0.0,2e-05,5.9999999999999995e-05,2e-05,-0.00014,-2.9999999999999997e-05,-1e-05,1e-05,1
1491,1613,-2e-05,-4e-05,-5e-05,0.0,-5e-05,-1e-05,-1e-05,-2.9999999999999997e-05,1
1492,1614,-2e-05,-4e-05,-5e-05,0.0,-5e-05,-1e-05,-1e-05,-2.9999999999999997e-05,1
1493,1615,-2e-05,-4e-05,-5e-05,0.0,-5e-05,-1e-05,-1e-05,-2.9999999999999997e-05,1
1494,1616,-2e-05,-4e-05,-5e-05,0.0,-5e-05,-1e-05,-1e-05,-2.9999999999999997e-05,1
1495,1617,-2e-05,-4e-05,-5e-05,0.0,-5e-05,-1e-05,-1e-05,-2.9999999999999997e-05,1
1496,1618,-2e-05,-4e-05,-5e-05,0.0,-5e-05,-1e-05,-1e-05,-2.9999999999999997e-05,1
1497,1619,-2e-05,-4e-05,-5e-05,0.0,-5e-05,-1e-05,-1e-05,-2.9999999999999997e-05,1
1498,1620,-2e-05,-4e-05,-5e-05,0.0,-5e-05,-1e-05,-1e-05,-2.9999999999999997e-05,1
1499,1621,-2e-05,-4e-05,-5e-05,0.0,-5e-05,-1e-05,-1e-05,-2.9999999999999997e-05,1
1500,1622,-2e-05,-4e-05,-5e-05,0.0,-5e-05,-1e-05,-1e-05,-2.9999999999999997e-05,1
1501,1623,-2e-05,-4e-05,-5e-05,0.0,-5e-05,-1e-05,-1e-05,-2.9999999999999997e-05,1
1502,1624,-2e-05,-4e-05,-5e-05,0.0,-5e-05,-1e-05,-1e-05,-2.9999999999999997e-05,1
1503,1625,-2e-05,-4e-05,-5e-05,0.0,-5e-05,-1e-05,-1e-05,-2.9999999999999997e-05,1
1504,1626,-2e-05,-4e-05,-5e-05,0.0,-5e-05,-1e-05,-1e-05,-2.9999999999999997e-05,1
