,time,channel1,channel2,channel3,channel4,channel5,channel6,channel7,channel8,class
880,936,-1e-05,-1e-05,-2.9999999999999997e-05,-5e-05,-2e-05,-1e-05,1e-05,0.0,1
881,937,-1e-05,-1e-05,-2.9999999999999997e-05,-5e-05,-2e-05,-1e-05,1e-05,0.0,1
882,938,-1e-05,-1e-05,-2.9999999999999997e-05,-5e-05,-2e-05,-1e-05,1e-05,0.0,1
883,939,-1e-05,-1e-05,-2.9999999999999997e-05,-5e-05,-2e-05,-1e-05,1e-05,0.0,1
884,940,-1e-05,-1e-05,-2.9999999999999997e-05,-5e-05,-2e-05,-1e-05,1e-05,0.0,1
885,941,-1e-05,-1e-05,-2.9999999999999997e-05,-5e-05,-2e-05,-1e-05,1e-05,0.0,1
886,942,-1e-05,-1e-05,-2.9999999999999997e-05,-5e-05,-2e-05,-1e-05,1e-05,0.0,1
887,943,-1e-05,-1e-05,-2.9999999999999997e-05,-5e-05,-2e-05,-1e-05,1e-05,0.0,1
888,944,-1e-05,-1e-05,-2.9999999999999997e-05,-5e-05,-2e-05,-1e-05,1e-05,0.0,1
889,945,-1e-05,-1e-05,-2.9999999999999997e-05,-5e-05,-2e-05,-1e-05,1e-05,0.0,1
890,946,-1e-05,-1e-05,-2.9999999999999997e-05,-5e-05,-2e-05,-1e-05,1e-05,0.0,1
891,947,-1e-05,0.0,0.0,-1e-05,0.0,-1e-05,-1e-05,0.0,1
892,948,-1e-05,0.0,0.0,-1e-05,0.0,-1e-05,-1e-05,0.0,1
893,949,-1e-05,-1e-05,0.0,-4e-05,-2e-05,-1e-05,-1e-05,-2e-05,1
894,950,-1e-05,-1e-05,0.0,-4e-05,-2e-05,-1e-05,-1e-05,-2e-05,1
895,951,-1e-05,-1e-05,0.0,-4e-05,-2e-05,-1e-05,-1e-05,-2e-05,1
896,952,-1e-05,-1e-05,0.0,-4e-05,-2e-05,-1e-05,-1e-05,-2e-05,1
897,953,-1e-05,-1e-05,0.0,-4e-05,-2e-05,-1e-05,-1e-05,-2e-05,1
898,954,-1e-05,-1e-05,0.0,-4e-05,-2e-05,-1e-05,-1e-05,-2e-05,1
899,955,-1e-05,-1e-05,0.0,-4e-05,-2e-05,-1e-05,-1e-05,-2e-05,1
900,956,-1e-05,-1e-05,0.0,-4e-05,-2e-05,-1e-05,-1e-05,-2e-05,1
901,957,-1e-05,-1e-05,0.0,-4e-05,-2e-05,-1e-05,-1e-05,-2e-05,1
902,958,-1e-05,-1e-05,0.0,-4e-05,-2e-05,-1e-05,-1e-05,-2e-05,1
903,959,-1e-05,-1e-05,0.0,-4e-05,-2e-05,-1e-05,-1e-05,-2e-05,1
904,960,-1e-05,-1e-05,0.0,-4e-05,-2e-05,-1e-05,-1e-05,-2e-05,1
905,961,-1e-05,-1e-05,0.0,-4e-05,-2e-05,-1e-05,-1e-05,-2e-05,1
906,962,-1e-05,-1e-05,0.0,-4e-05,-2e-05,-1e-05,-1e-05,-2e-05,1
907,963,-1e-05,-1e-05,0.0,-4e-05,-2e-05,-1e-05,-1e-05,-2e-05,1
908,964,-1e-05,-1e-05,0.0,-4e-05,-2e-05,-1e-05,-1e-05,-2e-05,1
909,965,-1e-05,-1e-05,0.0,-4e-05,-2e-05,-1e-05,-1e-05,-2e-05,1
910,966,-1e-05,-1e-05,0.0,-4e-05,-2e-05,-1e-05,-1e-05,-2e-05,1
911,967,-1e-05,-1e-05,0.0,-4e-05,-2e-05,-1e-05,-1e-05,-2e-05,1
912,968,-1e-05,-1e-05,0.0,-4e-05,-2e-05,-1e-05,-1e-05,-2e-05,1
913,969,-1e-05,-1e-05,0.0,-4e-05,-2e-05,-1e-05,-1e-05,-2e-05,1
914,970,0.0,-1e-05,-2e-05,-4e-05,-2.9999999999999997e-05,-2e-05,-2e-05,-1e-05,1
915,971,-2e-05,-1e-05,0.0,0.0,0.0,0.0,0.0,-1e-05,1
916,972,-1e-05,-2e-05,1e-05,0.00011999999999999999,2.9999999999999997e-05,-2e-05,-2.9999999999999997e-05,-1e-05,1
917,973,-1e-05,-2e-05,1e-05,0.00011999999999999999,2.9999999999999997e-05,-2e-05,-2.9999999999999997e-05,-1e-05,1
918,974,-1e-05,-2e-05,1e-05,0.00011999999999999999,2.9999999999999997e-05,-2e-05,-2.9999999999999997e-05,-1e-05,1
919,975,-1e-05,-2e-05,1e-05,0.00011999999999999999,2.9999999999999997e-05,-2e-05,-2.9999999999999997e-05,-1e-05,1
920,976,-1e-05,-2e-05,1e-05,0.00011999999999999999,2.9999999999999997e-05,-2e-05,-2.9999999999999997e-05,-1e-05,1
921,978,-1e-05,-2e-05,1e-05,0.00011999999999999999,2.9999999999999997e-05,-2e-05,-2.9999999999999997e-05,-1e-05,1
922,979,-1e-05,-2e-05,1e-05,0.00011999999999999999,2.9999999999999997e-05,-2e-05,-2.9999999999999997e-05,-1e-05,1
923,980,-1e-05,-2e-05,1e-05,0.00011999999999999999,2.9999999999999997e-05,-2e-05,-2.9999999999999997e-05,-1e-05,1
924,981,-1e-05,-2e-05,1e-05,0.00011999999999999999,2.9999999999999997e-05,-2e-05,-2.9999999999999997e-05,-1e-05,1
925,982,-1e-05,-2e-05,1e-05,0.00011999999999999999,2.9999999999999997e-05,-2e-05,-2.9999999999999997e-05,-1e-05,1
926,983,-1e-05,-2e-05,1e-05,0.00011999999999999999,2.9999999999999997e-05,-2e-05,-2.9999999999999997e-05,-1e-05,1
927,984,-1e-05,-2e-05,1e-05,0.00011999999999999999,2.9999999999999997e-05,-2e-05,-2.9999999999999997e-05,-1e-05,1
928,985,-1e-05,-2e-05,1e-05,0.00011999999999999999,2.9999999999999997e-05,-2e-05,-2.9999999999999997e-05,-1e-05,1
929,986,-1e-05,-2e-05,1e-05,0.00011999999999999999,2.9999999999999997e-05,-2e-05,-2.9999999999999997e-05,-1e-05,1
930,988,-1e-05,-2e-05,1e-05,0.00011999999999999999,2.9999999999999997e-05,-2e-05,-2.9999999999999997e-05,-1e-05,1
931,989,-1e-05,-2e-05,1e-05,0.00011999999999999999,2.9999999999999997e-05,-2e-05,-2.9999999999999997e-05,-1e-05,1
932,990,-1e-05,-2e-05,1e-05,0.00011999999999999999,2.9999999999999997e-05,-2e-05,-2.9999999999999997e-05,-1e-05,1
933,991,-1e-05,-2e-05,1e-05,0.00011999999999999999,2.9999999999999997e-05,-2e-05,-2.9999999999999997e-05,-1e-05,1
934,992,0.0,-1e-05,-2e-05,-1e-05,-2e-05,-2.9999999999999997e-05,0.0,-1e-05,1
935,993,0.0,-1e-05,-2e-05,-1e-05,-2e-05,-2.9999999999999997e-05,0.0,-1e-05,1
936,994,0.0,-1e-05,-2e-05,-7e-05,-2e-05,-2e-05,1e-05,-1e-05,1
937,995,0.0,-1e-05,-2e-05,-7e-05,-2e-05,-2e-05,1e-05,-1e-05,1
938,996,0.0,-1e-05,-2e-05,-7e-05,-2e-05,-2e-05,1e-05,-1e-05,1
939,997,0.0,-1e-05,-2e-05,-7e-05,-2e-05,-2e-05,1e-05,-1e-05,1
940,998,0.0,-1e-05,-2e-05,-7e-05,-2e-05,-2e-05,1e-05,-1e-05,1
941,999,0.0,-1e-05,-2e-05,-7e-05,-2e-05,-2e-05,1e-05,-1e-05,1
942,1000,0.0,-1e-05,-2e-05,-7e-05,-2e-05,-2e-05,1e-05,-1e-05,1
943,1001,0.0,-1e-05,-2e-05,-7e-05,-2e-05,-2e-05,1e-05,-1e-05,1
944,1002,0.0,-1e-05,-2e-05,-7e-05,-2e-05,-2e-05,1e-05,-1e-05,1
945,1003,0.0,-1e-05,-2e-05,-7e-05,-2e-05,-2e-05,1e-05,-1e-05,1
946,1004,0.0,-1e-05,-2e-05,-7e-05,-2e-05,-2e-05,1e-05,-1e-05,1
947,1005,0.0,-1e-05,-2e-05,-7e-05,-2e-05,-2e-05,1e-05,-1e-05,1
948,1006,0.0,-1e-05,-2e-05,-7e-05,-2e-05,-2e-05,1e-05,-1e-05,1
949,1009,0.0,-1e-05,-2e-05,-7e-05,-2e-05,-2e-05,1e-05,-1e-05,1
950,1010,0.0,1e-05,2e-05,2e-05,2e-05,-1e-05,-1e-05,0.0,1
951,1011,0.0,1e-05,2e-05,2e-05,2e-05,-1e-05,-1e-05,0.0,1
952,1012,0.0,1e-05,2e-05,2e-05,2e-05,-1e-05,-1e-05,0.0,1
953,1013,0.0,1e-05,2e-05,2e-05,2e-05,-1e-05,-1e-05,0.0,1
954,1015,0.0,1e-05,2e-05,2e-05,2e-05,-1e-05,-1e-05,0.0,1
955,1017,0.0,1e-05,2e-05,2e-05,2e-05,-1e-05,-1e-05,0.0,1
956,1019,0.0,1e-05,2e-05,2e-05,2e-05,-1e-05,-1e-05,0.0,1
957,1020,0.0,1e-05,2e-05,2e-05,2e-05,-1e-05,-1e-05,0.0,1
958,1021,0.0,1e-05,2e-05,2e-05,2e-05,-1e-05,-1e-05,0.0,1
959,1022,-1e-05,-2e-05,-1e-05,-1e-05,0.0,-1e-05,-1e-05,0.0,1
960,1024,-1e-05,-2e-05,-1e-05,-1e-05,0.0,-1e-05,-1e-05,0.0,1
961,1025,-1e-05,-2e-05,-1e-05,-1e-05,0.0,-1e-05,-1e-05,0.0,1
962,1026,-1e-05,-2e-05,-1e-05,-1e-05,0.0,-1e-05,-1e-05,0.0,1
963,1027,-1e-05,-2e-05,-1e-05,-1e-05,0.0,-1e-05,-1e-05,0.0,1
964,1028,-1e-05,-2e-05,-1e-05,-1e-05,0.0,-1e-05,-1e-05,0.0,1
965,1029,-1e-05,-2e-05,-1e-05,-1e-05,0.0,-1e-05,-1e-05,0.0,1
966,1030,-1e-05,-2e-05,-1e-05,-1e-05,0.0,-1e-05,-1e-05,0.0,1
967,1032,-1e-05,-2e-05,-1e-05,-1e-05,0.0,-1e-05,-1e-05,0.0,1
968,1033,-2e-05,0.0,-2.9999999999999997e-05,-2.9999999999999997e-05,-2e-05,-0.00018,-1e-05,-2e-05,1
969,1035,-2e-05,0.0,-2.9999999999999997e-05,-2.9999999999999997e-05,-2e-05,-0.00018,-1e-05,-2e-05,1
970,1036,-2e-05,0.0,-2.9999999999999997e-05,-2.9999999999999997e-05,-2e-05,-0.00018,-1e-05,-2e-05,1
971,1038,-2e-05,0.0,-2.9999999999999997e-05,-2.9999999999999997e-05,-2e-05,-0.00018,-1e-05,-2e-05,1
972,1039,-2e-05,0.0,-2.9999999999999997e-05,-2.9999999999999997e-05,-2e-05,-0.00018,-1e-05,-2e-05,1
973,1040,-2e-05,0.0,-2.9999999999999997e-05,-2.9999999999999997e-05,-2e-05,-0.00018,-1e-05,-2e-05,1
974,1041,-2e-05,0.0,-2.9999999999999997e-05,-2.9999999999999997e-05,-2e-05,-0.00018,-1e-05,-2e-05,1
975,1042,-2e-05,0.0,-2.9999999999999997e-05,-2.9999999999999997e-05,-2e-05,-0.00018,-1e-05,-2e-05,1
976,1043,-2e-05,0.0,-2.9999999999999997e-05,-2.9999999999999997e-05,-2e-05,-0.00018,-1e-05,-2e-05,1
977,1044,-2e-05,0.0,-2.9999999999999997e-05,-2.9999999999999997e-05,-2e-05,-0.00018,-1e-05,-2e-05,1
978,1045,-2e-05,0.0,-2.9999999999999997e-05,-2.9999999999999997e-05,-2e-05,-0.00018,-1e-05,-2e-05,1
979,1046,-2e-05,0.0,-2.9999999999999997e-05,-2.9999999999999997e-05,-2e-05,-0.00018,-1e-05,-2e-05,1
980,1047,-2e-05,0.0,-2.9999999999999997e-05,-2.9999999999999997e-05,-2e-05,-0.00018,-1e-05,-2e-05,1
981,1048,-2e-05,0.0,-2.9999999999999997e-05,-2.9999999999999997e-05,-2e-05,-0.00018,-1e-05,-2e-05,1
982,1049,-2e-05,0.0,-2.9999999999999997e-05,-2.9999999999999997e-05,-2e-05,-0.00018,-1e-05,-2e-05,1
983,1050,-2e-05,0.0,-2.9999999999999997e-05,-2.9999999999999997e-05,-2e-05,-0.00018,-1e-05,-2e-05,1
984,1051,-2e-05,0.0,-2.9999999999999997e-05,-2.9999999999999997e-05,-2e-05,-0.00018,-1e-05,-2e-05,1
985,1052,-2e-05,0.0,-2.9999999999999997e-05,-2.9999999999999997e-05,-2e-05,-0.00018,-1e-05,-2e-05,1
986,1053,-2e-05,-1e-05,1e-05,1e-05,-1e-05,-1e-05,-1e-05,-1e-05,1
987,1054,0.0,-1e-05,-2e-05,-2.9999999999999997e-05,-2.9999999999999997e-05,2.9999999999999997e-05,-1e-05,-2e-05,1
988,1055,0.0,-1e-05,-2e-05,-2.9999999999999997e-05,-2.9999999999999997e-05,2.9999999999999997e-05,-1e-05,-2e-05,1
989,1056,0.0,-1e-05,-2e-05,-2.9999999999999997e-05,-2.9999999999999997e-05,2.9999999999999997e-05,-1e-05,-2e-05,1
990,1057,0.0,-1e-05,-2e-05,-2.9999999999999997e-05,-2.9999999999999997e-05,2.9999999999999997e-05,-1e-05,-2e-05,1
991,1058,0.0,-1e-05,-2e-05,-2.9999999999999997e-05,-2.9999999999999997e-05,2.9999999999999997e-05,-1e-05,-2e-05,1
992,1059,0.0,-1e-05,-2e-05,-2.9999999999999997e-05,-2.9999999999999997e-05,2.9999999999999997e-05,-1e-05,-2e-05,1
993,1060,0.0,-1e-05,-2e-05,-2.9999999999999997e-05,-2.9999999999999997e-05,2.9999999999999997e-05,-1e-05,-2e-05,1
994,1061,0.0,-1e-05,-2e-05,-2.9999999999999997e-05,-2.9999999999999997e-05,2.9999999999999997e-05,-1e-05,-2e-05,1
995,1062,0.0,-1e-05,-2e-05,-2.9999999999999997e-05,-2.9999999999999997e-05,2.9999999999999997e-05,-1e-05,-2e-05,1
996,1063,0.0,-1e-05,-2e-05,-2.9999999999999997e-05,-2.9999999999999997e-05,2.9999999999999997e-05,-1e-05,-2e-05,1
997,1064,0.0,-1e-05,-2e-05,-2.9999999999999997e-05,-2.9999999999999997e-05,2.9999999999999997e-05,-1e-05,-2e-05,1
998,1065,0.0,-1e-05,-2e-05,-2.9999999999999997e-05,-2.9999999999999997e-05,2.9999999999999997e-05,-1e-05,-2e-05,1
999,1066,-1e-05,1e-05,-2e-05,-9e-05,-1e-05,-5e-05,0.0,-2e-05,1
1000,1067,-1e-05,1e-05,-2e-05,-9e-05,-1e-05,-5e-05,0.0,-2e-05,1
1001,1068,-1e-05,1e-05,-2e-05,-9e-05,-1e-05,-5e-05,0.0,-2e-05,1
1002,1069,-1e-05,1e-05,-2e-05,-9e-05,-1e-05,-5e-05,0.0,-2e-05,1
1003,1070,-1e-05,1e-05,-2e-05,-9e-05,-1e-05,-5e-05,0.0,-2e-05,1
1004,1071,-1e-05,1e-05,-2e-05,-9e-05,-1e-05,-5e-05,0.0,-2e-05,1
1005,1072,-1e-05,1e-05,-2e-05,-9e-05,-1e-05,-5e-05,0.0,-2e-05,1
1006,1073,-1e-05,1e-05,1e-05,0.0,-1e-05,2e-05,0.0,0.0,1
1007,1074,-1e-05,1e-05,1e-05,0.0,-1e-05,2e-05,0.0,0.0,1
1008,1075,-1e-05,1e-05,1e-05,0.0,-1e-05,2e-05,0.0,0.0,1
1009,1076,-1e-05,1e-05,1e-05,0.0,-1e-05,2e-05,0.0,0.0,1
1010,1077,-1e-05,1e-05,1e-05,0.0,-1e-05,2e-05,0.0,0.0,1
1011,1078,-1e-05,1e-05,1e-05,0.0,-1e-05,2e-05,0.0,0.0,1
1012,1079,-1e-05,1e-05,1e-05,0.0,-1e-05,2e-05,0.0,0.0,1
1013,1080,-1e-05,1e-05,1e-05,0.0,-1e-05,2e-05,0.0,0.0,1
1014,1081,-1e-05,1e-05,1e-05,0.0,-1e-05,2e-05,0.0,0.0,1
1015,1082,-1e-05,1e-05,1e-05,0.0,-1e-05,2e-05,0.0,0.0,1
1016,1083,-1e-05,1e-05,1e-05,0.0,-1e-05,2e-05,0.0,0.0,1
1017,1084,-1e-05,1e-05,1e-05,0.0,-1e-05,2e-05,0.0,0.0,1
1018,1085,-1e-05,1e-05,1e-05,0.0,-1e-05,2e-05,0.0,0.0,1
1019,1086,-1e-05,1e-05,1e-05,0.0,-1e-05,2e-05,0.0,0.0,1
1020,1089,-1e-05,1e-05,1e-05,0.0,-1e-05,2e-05,0.0,0.0,1
1021,1090,-2.9999999999999997e-05,-2.9999999999999997e-05,-1e-05,-1e-05,-1e-05,4e-05,0.0,-1e-05,1
1022,1091,0.0,-1e-05,-1e-05,-2.9999999999999997e-05,-1e-05,2.9999999999999997e-05,-1e-05,0.0,1
1023,1092,0.0,-1e-05,-1e-05,-2.9999999999999997e-05,-1e-05,2.9999999999999997e-05,-1e-05,0.0,1
1024,1093,0.0,-1e-05,-1e-05,-2.9999999999999997e-05,-1e-05,2.9999999999999997e-05,-1e-05,0.0,1
1025,1094,0.0,-1e-05,-1e-05,-2.9999999999999997e-05,-1e-05,2.9999999999999997e-05,-1e-05,0.0,1
1026,1095,0.0,-1e-05,-1e-05,-2.9999999999999997e-05,-1e-05,2.9999999999999997e-05,-1e-05,0.0,1
1027,1096,0.0,-1e-05,-1e-05,-2.9999999999999997e-05,-1e-05,2.9999999999999997e-05,-1e-05,0.0,1
1028,1097,0.0,-1e-05,-1e-05,-2.9999999999999997e-05,-1e-05,2.9999999999999997e-05,-1e-05,0.0,1
1029,1098,0.0,-1e-05,-1e-05,-2.9999999999999997e-05,-1e-05,2.9999999999999997e-05,-1e-05,0.0,1
1030,1099,0.0,-1e-05,-1e-05,-2.9999999999999997e-05,-1e-05,2.9999999999999997e-05,-1e-05,0.0,1
1031,1100,0.0,-1e-05,-1e-05,-2.9999999999999997e-05,-1e-05,2.9999999999999997e-05,-1e-05,0.0,1
1032,1101,0.0,-1e-05,-1e-05,-2.9999999999999997e-05,-1e-05,2.9999999999999997e-05,-1e-05,0.0,1
1033,1102,0.0,-1e-05,-1e-05,-2.9999999999999997e-05,-1e-05,2.9999999999999997e-05,-1e-05,0.0,1
1034,1103,0.0,-1e-05,-1e-05,-2.9999999999999997e-05,-1e-05,2.9999999999999997e-05,-1e-05,0.0,1
1035,1104,0.0,-1e-05,-1e-05,-2.9999999999999997e-05,-1e-05,2.9999999999999997e-05,-1e-05,0.0,1
1036,1105,0.0,-1e-05,-1e-05,-2.9999999999999997e-05,-1e-05,2.9999999999999997e-05,-1e-05,0.0,1
1037,1106,0.0,-1e-05,-1e-05,-2.9999999999999997e-05,-1e-05,2.9999999999999997e-05,-1e-05,0.0,1
1038,1107,0.0,-1e-05,-1e-05,-2.9999999999999997e-05,-1e-05,2.9999999999999997e-05,-1e-05,0.0,1
1039,1108,0.0,-1e-05,-1e-05,-2.9999999999999997e-05,-1e-05,2.9999999999999997e-05,-1e-05,0.0,1
1040,1109,0.0,-1e-05,-1e-05,-2.9999999999999997e-05,-1e-05,2.9999999999999997e-05,-1e-05,0.0,1
1041,1110,0.0,-1e-05,-1e-05,-2.9999999999999997e-05,-1e-05,2.9999999999999997e-05,-1e-05,0.0,1
1042,1111,0.0,-1e-05,-1e-05,-2.9999999999999997e-05,-1e-05,2.9999999999999997e-05,-1e-05,0.0,1
1043,1112,0.0,-2e-05,0.0,-1e-05,-1e-05,-2.9999999999999997e-05,-2e-05,0.0,1
1044,1113,0.0,-2e-05,0.0,-1e-05,-1e-05,-2.9999999999999997e-05,-2e-05,0.0,1
1045,1114,0.0,-2e-05,-2e-05,-2e-05,-2e-05,-2e-05,0.0,1e-05,1
1046,1115,0.0,-2e-05,-2e-05,-2e-05,-2e-05,-2e-05,0.0,1e-05,1
1047,1116,0.0,-2e-05,-2e-05,-2e-05,-2e-05,-2e-05,0.0,1e-05,1
1048,1118,0.0,-2e-05,-2e-05,-2e-05,-2e-05,-2e-05,0.0,1e-05,1
1049,1119,0.0,-2e-05,-2e-05,-2e-05,-2e-05,-2e-05,0.0,1e-05,1
1050,1121,0.0,-2e-05,-2e-05,-2e-05,-2e-05,-2e-05,0.0,1e-05,1
1051,1122,0.0,-2e-05,-2e-05,-2e-05,-2e-05,-2e-05,0.0,1e-05,1
1052,1123,0.0,-2e-05,-2e-05,-2e-05,-2e-05,-2e-05,0.0,1e-05,1
1053,1124,0.0,-2e-05,-2e-05,-2e-05,-2e-05,-2e-05,0.0,1e-05,1
1054,1125,0.0,-2e-05,-2e-05,-2e-05,-2e-05,-2e-05,0.0,1e-05,1
1055,1126,0.0,-2e-05,-2e-05,-2e-05,-2e-05,-2e-05,0.0,1e-05,1
1056,1127,-2.9999999999999997e-05,-2e-05,-1e-05,0.0,-2e-05,0.0,0.0,0.0,1
1057,1128,-2.9999999999999997e-05,-2e-05,-1e-05,0.0,-2e-05,0.0,0.0,0.0,1
1058,1129,-2.9999999999999997e-05,-2e-05,-1e-05,0.0,-2e-05,0.0,0.0,0.0,1
1059,1130,-2.9999999999999997e-05,-2e-05,-1e-05,0.0,-2e-05,0.0,0.0,0.0,1
1060,1131,-2.9999999999999997e-05,-2e-05,-1e-05,0.0,-2e-05,0.0,0.0,0.0,1
1061,1132,-2.9999999999999997e-05,-2e-05,-1e-05,0.0,-2e-05,0.0,0.0,0.0,1
1062,1133,1e-05,-1e-05,-1e-05,-2e-05,-1e-05,0.0,-2e-05,-1e-05,1
1063,1134,0.0,0.0,1e-05,0.0,-1e-05,1e-05,-1e-05,-1e-05,1
1064,1135,0.0,0.0,1e-05,0.0,-1e-05,1e-05,-1e-05,-1e-05,1
1065,1138,0.0,0.0,1e-05,0.0,-1e-05,1e-05,-1e-05,-1e-05,1
1066,1141,0.0,0.0,1e-05,0.0,-1e-05,1e-05,-1e-05,-1e-05,1
1067,1142,0.0,0.0,1e-05,0.0,-1e-05,1e-05,-1e-05,-1e-05,1
1068,1143,0.0,0.0,1e-05,0.0,-1e-05,1e-05,-1e-05,-1e-05,1
1069,1144,0.0,0.0,1e-05,0.0,-1e-05,1e-05,-1e-05,-1e-05,1
1070,1145,0.0,0.0,1e-05,0.0,-1e-05,1e-05,-1e-05,-1e-05,1
1071,1146,0.0,0.0,1e-05,0.0,-1e-05,1e-05,-1e-05,-1e-05,1
1072,1147,0.0,0.0,1e-05,0.0,-1e-05,1e-05,-1e-05,-1e-05,1
1073,1149,0.0,0.0,1e-05,0.0,-1e-05,1e-05,-1e-05,-1e-05,1
1074,1150,0.0,0.0,1e-05,0.0,-1e-05,1e-05,-1e-05,-1e-05,1
1075,1151,0.0,1e-05,-2e-05,1e-05,-2.9999999999999997e-05,0.0,-2e-05,-2.9999999999999997e-05,1
1076,1152,-1e-05,-2e-05,-4e-05,-5.9999999999999995e-05,-2e-05,2e-05,-1e-05,-2e-05,1
1077,1153,-1e-05,-2e-05,-4e-05,-5.9999999999999995e-05,-2e-05,2e-05,-1e-05,-2e-05,1
1078,1154,-1e-05,-2e-05,-4e-05,-5.9999999999999995e-05,-2e-05,2e-05,-1e-05,-2e-05,1
1079,1155,-1e-05,-2e-05,-4e-05,-5.9999999999999995e-05,-2e-05,2e-05,-1e-05,-2e-05,1
1080,1156,-1e-05,-2e-05,-4e-05,-5.9999999999999995e-05,-2e-05,2e-05,-1e-05,-2e-05,1
1081,1157,-1e-05,-2e-05,-4e-05,-5.9999999999999995e-05,-2e-05,2e-05,-1e-05,-2e-05,1
1082,1158,-1e-05,-2e-05,-4e-05,-5.9999999999999995e-05,-2e-05,2e-05,-1e-05,-2e-05,1
1083,1159,-1e-05,-2e-05,-4e-05,-5.9999999999999995e-05,-2e-05,2e-05,-1e-05,-2e-05,1
1084,1160,-1e-05,-2e-05,-4e-05,-5.9999999999999995e-05,-2e-05,2e-05,-1e-05,-2e-05,1
1085,1161,-1e-05,-2e-05,-4e-05,-5.9999999999999995e-05,-2e-05,2e-05,-1e-05,-2e-05,1
1086,1162,-1e-05,-2e-05,-4e-05,-5.9999999999999995e-05,-2e-05,2e-05,-1e-05,-2e-05,1
1087,1163,-1e-05,-2e-05,-4e-05,-5.9999999999999995e-05,-2e-05,2e-05,-1e-05,-2e-05,1
1088,1164,-1e-05,-2e-05,-4e-05,-5.9999999999999995e-05,-2e-05,2e-05,-1e-05,-2e-05,1
1089,1165,-1e-05,-2e-05,-4e-05,-5.9999999999999995e-05,-2e-05,2e-05,-1e-05,-2e-05,1
1090,1166,-1e-05,-2e-05,-4e-05,-5.9999999999999995e-05,-2e-05,2e-05,-1e-05,-2e-05,1
1091,1167,-1e-05,-2e-05,-4e-05,-5.9999999999999995e-05,-2e-05,2e-05,-1e-05,-2e-05,1
1092,1168,-1e-05,-2e-05,-4e-05,-5.9999999999999995e-05,-2e-05,2e-05,-1e-05,-2e-05,1
1093,1169,-1e-05,-2e-05,-4e-05,-5.9999999999999995e-05,-2e-05,2e-05,-1e-05,-2e-05,1
1094,1170,-1e-05,-2e-05,-4e-05,-5.9999999999999995e-05,-2e-05,2e-05,-1e-05,-2e-05,1
1095,1171,-1e-05,-2e-05,-4e-05,-5.9999999999999995e-05,-2e-05,2e-05,-1e-05,-2e-05,1
1096,1172,-1e-05,0.0,0.0,7e-05,2e-05,2.9999999999999997e-05,0.0,-1e-05,1
1097,1173,-1e-05,0.0,0.0,7e-05,2e-05,2.9999999999999997e-05,0.0,-1e-05,1
1098,1174,-1e-05,-1e-05,-2e-05,0.0,0.0,0.0,-1e-05,0.0,1
1099,1175,-1e-05,-1e-05,-2e-05,0.0,0.0,0.0,-1e-05,0.0,1
1100,1176,-1e-05,-1e-05,-2e-05,0.0,0.0,0.0,-1e-05,0.0,1
1101,1177,-1e-05,-1e-05,-2e-05,0.0,0.0,0.0,-1e-05,0.0,1
1102,1178,-1e-05,-1e-05,-2e-05,0.0,0.0,0.0,-1e-05,0.0,1
1103,1179,-1e-05,-1e-05,-2e-05,0.0,0.0,0.0,-1e-05,0.0,1
1104,1180,-1e-05,-1e-05,-2e-05,0.0,0.0,0.0,-1e-05,0.0,1
1105,1181,-1e-05,-1e-05,-2e-05,0.0,0.0,0.0,-1e-05,0.0,1
1106,1182,-1e-05,-1e-05,-2e-05,0.0,0.0,0.0,-1e-05,0.0,1
1107,1183,-1e-05,-1e-05,-2e-05,0.0,0.0,0.0,-1e-05,0.0,1
1108,1184,-1e-05,-1e-05,-2e-05,0.0,0.0,0.0,-1e-05,0.0,1
1109,1185,-1e-05,-1e-05,-2e-05,0.0,0.0,0.0,-1e-05,0.0,1
1110,1186,-1e-05,-1e-05,-2e-05,0.0,0.0,0.0,-1e-05,0.0,1
1111,1188,0.0,-1e-05,-2.9999999999999997e-05,-1e-05,-2e-05,-2e-05,-1e-05,0.0,1
1112,1189,0.0,-1e-05,-2.9999999999999997e-05,-1e-05,-2e-05,-2e-05,-1e-05,0.0,1
1113,1190,0.0,-1e-05,-2.9999999999999997e-05,-1e-05,-2e-05,-2e-05,-1e-05,0.0,1
1114,1191,0.0,-1e-05,-2.9999999999999997e-05,-1e-05,-2e-05,-2e-05,-1e-05,0.0,1
1115,1192,0.0,-1e-05,-2.9999999999999997e-05,-1e-05,-2e-05,-2e-05,-1e-05,0.0,1
1116,1193,-1e-05,-2e-05,-2e-05,-4e-05,-2e-05,0.0,-1e-05,-2.9999999999999997e-05,1
1117,1194,-1e-05,-2e-05,-2e-05,-4e-05,-2e-05,0.0,-1e-05,-2.9999999999999997e-05,1
1118,1195,-1e-05,-2e-05,-2e-05,-4e-05,-2e-05,0.0,-1e-05,-2.9999999999999997e-05,1
1119,1196,-1e-05,-2e-05,-2e-05,-4e-05,-2e-05,0.0,-1e-05,-2.9999999999999997e-05,1
1120,1197,-1e-05,-2e-05,-2e-05,-4e-05,-2e-05,0.0,-1e-05,-2.9999999999999997e-05,1
1121,1198,-1e-05,-2e-05,-2e-05,-4e-05,-2e-05,0.0,-1e-05,-2.9999999999999997e-05,1
1122,1199,-1e-05,-2e-05,-2e-05,-4e-05,-2e-05,0.0,-1e-05,-2.9999999999999997e-05,1
1123,1200,-1e-05,-2e-05,-2e-05,-4e-05,-2e-05,0.0,-1e-05,-2.9999999999999997e-05,1
1124,1201,-1e-05,-2e-05,-2e-05,-4e-05,-2e-05,0.0,-1e-05,-2.9999999999999997e-05,1
1125,1202,-1e-05,-2e-05,-2e-05,-4e-05,-2e-05,0.0,-1e-05,-2.9999999999999997e-05,1
1126,1203,-1e-05,-2e-05,-2e-05,-4e-05,-2e-05,0.0,-1e-05,-2.9999999999999997e-05,1
1127,1204,-1e-05,-2e-05,-2e-05,-4e-05,-2e-05,0.0,-1e-05,-2.9999999999999997e-05,1
1128,1205,-1e-05,-2e-05,-2e-05,-4e-05,-2e-05,0.0,-1e-05,-2.9999999999999997e-05,1
1129,1206,-1e-05,-2e-05,-2e-05,-4e-05,-2e-05,0.0,-1e-05,-2.9999999999999997e-05,1
1130,1207,-1e-05,-2e-05,-2e-05,-4e-05,-2e-05,0.0,-1e-05,-2.9999999999999997e-05,1
1131,1208,-1e-05,-2e-05,-2e-05,-4e-05,-2e-05,0.0,-1e-05,-2.9999999999999997e-05,1
1132,1209,-1e-05,-2e-05,-2e-05,-4e-05,-2e-05,0.0,-1e-05,-2.9999999999999997e-05,1
1133,1210,0.0,-2e-05,0.0,-4e-05,-2e-05,-1e-05,-1e-05,-1e-05,1
1134,1211,-2e-05,-1e-05,-1e-05,2e-05,0.0,0.0,-1e-05,-2e-05,1
1135,1212,-2e-05,-1e-05,-1e-05,2e-05,0.0,0.0,-1e-05,-2e-05,1
1136,1213,-2e-05,-1e-05,-1e-05,2e-05,0.0,0.0,-1e-05,-2e-05,1
1137,1214,-2e-05,-1e-05,-1e-05,2e-05,0.0,0.0,-1e-05,-2e-05,1
1138,1215,-2e-05,-1e-05,-1e-05,2e-05,0.0,0.0,-1e-05,-2e-05,1
1139,1216,-2e-05,-1e-05,-1e-05,2e-05,0.0,0.0,-1e-05,-2e-05,1
1140,1217,-2e-05,-1e-05,-1e-05,2e-05,0.0,0.0,-1e-05,-2e-05,1
1141,1218,-2e-05,-1e-05,-1e-05,2e-05,0.0,0.0,-1e-05,-2e-05,1
1142,1219,-2e-05,-1e-05,-1e-05,2e-05,0.0,0.0,-1e-05,-2e-05,1
1143,1220,-2e-05,-1e-05,-1e-05,2e-05,0.0,0.0,-1e-05,-2e-05,1
1144,1221,-2e-05,-1e-05,-1e-05,2e-05,0.0,0.0,-1e-05,-2e-05,1
1145,1222,-2e-05,-1e-05,-1e-05,2e-05,0.0,0.0,-1e-05,-2e-05,1
1146,1223,-2e-05,-1e-05,-1e-05,2e-05,0.0,0.0,-1e-05,-2e-05,1
1147,1224,-2e-05,-1e-05,-1e-05,2e-05,0.0,0.0,-1e-05,-2e-05,1
1148,1225,-2e-05,-1e-05,-1e-05,2e-05,0.0,0.0,-1e-05,-2e-05,1
1149,1226,-2e-05,-1e-05,-1e-05,2e-05,0.0,0.0,-1e-05,-2e-05,1
1150,1227,-2e-05,-1e-05,-1e-05,2e-05,0.0,0.0,-1e-05,-2e-05,1
1151,1228,-2e-05,-1e-05,-1e-05,2e-05,0.0,0.0,-1e-05,-2e-05,1
1152,1229,-2e-05,-1e-05,-1e-05,2e-05,0.0,0.0,-1e-05,-2e-05,1
1153,1230,-2e-05,-1e-05,-1e-05,2e-05,0.0,0.0,-1e-05,-2e-05,1
1154,1231,-2e-05,-1e-05,-1e-05,2e-05,0.0,0.0,-1e-05,-2e-05,1
1155,1232,1e-05,-2e-05,2e-05,1e-05,0.0,-2.9999999999999997e-05,-2e-05,-1e-05,1
1156,1233,1e-05,-2e-05,2e-05,1e-05,0.0,-2.9999999999999997e-05,-2e-05,-1e-05,1
1157,1234,-1e-05,-1e-05,0.0,0.0,-2e-05,0.0,-2.9999999999999997e-05,-1e-05,1
1158,1235,-1e-05,-1e-05,0.0,0.0,-2e-05,0.0,-2.9999999999999997e-05,-1e-05,1
1159,1236,-1e-05,-1e-05,0.0,0.0,-2e-05,0.0,-2.9999999999999997e-05,-1e-05,1
1160,1238,-1e-05,-1e-05,0.0,0.0,-2e-05,0.0,-2.9999999999999997e-05,-1e-05,1
1161,1239,-1e-05,-1e-05,0.0,0.0,-2e-05,0.0,-2.9999999999999997e-05,-1e-05,1
1162,1240,-1e-05,-1e-05,0.0,0.0,-2e-05,0.0,-2.9999999999999997e-05,-1e-05,1
1163,1241,-1e-05,-1e-05,0.0,0.0,-2e-05,0.0,-2.9999999999999997e-05,-1e-05,1
1164,1242,-1e-05,-1e-05,0.0,0.0,-2e-05,0.0,-2.9999999999999997e-05,-1e-05,1
1165,1243,-1e-05,-1e-05,0.0,0.0,-2e-05,0.0,-2.9999999999999997e-05,-1e-05,1
1166,1244,-1e-05,-1e-05,0.0,0.0,-2e-05,0.0,-2.9999999999999997e-05,-1e-05,1
1167,1245,-1e-05,-1e-05,0.0,0.0,-2e-05,0.0,-2.9999999999999997e-05,-1e-05,1
1168,1246,-2e-05,-1e-05,0.0,-2e-05,-2e-05,2.9999999999999997e-05,-1e-05,0.0,1
1169,1247,-2e-05,-1e-05,0.0,-2e-05,-2e-05,2.9999999999999997e-05,-1e-05,0.0,1
1170,1248,-2e-05,-1e-05,0.0,-2e-05,-2e-05,2.9999999999999997e-05,-1e-05,0.0,1
1171,1249,-2e-05,-1e-05,0.0,-2e-05,-2e-05,2.9999999999999997e-05,-1e-05,0.0,1
1172,1250,-2e-05,-1e-05,0.0,-2e-05,-2e-05,2.9999999999999997e-05,-1e-05,0.0,1
1173,1251,-2e-05,-1e-05,0.0,-2e-05,-2e-05,2.9999999999999997e-05,-1e-05,0.0,1
1174,1252,-2e-05,-1e-05,0.0,-2e-05,-2e-05,2.9999999999999997e-05,-1e-05,0.0,1
1175,1253,0.0,-1e-05,-1e-05,0.0,0.0,-2e-05,0.0,0.0,1
1176,1254,0.0,-1e-05,-1e-05,0.0,0.0,-2e-05,0.0,0.0,1
1177,1255,0.0,-1e-05,-1e-05,0.0,0.0,-2e-05,0.0,0.0,1
1178,1256,0.0,-1e-05,-1e-05,0.0,0.0,-2e-05,0.0,0.0,1
1179,1257,0.0,-1e-05,-1e-05,0.0,0.0,-2e-05,0.0,0.0,1
1180,1258,0.0,-1e-05,-1e-05,0.0,0.0,-2e-05,0.0,0.0,1
1181,1259,0.0,-1e-05,-1e-05,0.0,0.0,-2e-05,0.0,0.0,1
1182,1260,0.0,-1e-05,-1e-05,0.0,0.0,-2e-05,0.0,0.0,1
1183,1261,0.0,-1e-05,-1e-05,0.0,0.0,-2e-05,0.0,0.0,1
1184,1262,0.0,-1e-05,-1e-05,0.0,0.0,-2e-05,0.0,0.0,1
1185,1263,0.0,-1e-05,-1e-05,0.0,0.0,-2e-05,0.0,0.0,1
1186,1264,0.0,-1e-05,-1e-05,0.0,0.0,-2e-05,0.0,0.0,1
1187,1265,0.0,-1e-05,-1e-05,0.0,0.0,-2e-05,0.0,0.0,1
1188,1266,0.0,-1e-05,-1e-05,0.0,0.0,-2e-05,0.0,0.0,1
1189,1267,0.0,-1e-05,-1e-05,0.0,0.0,-2e-05,0.0,0.0,1
1190,1268,0.0,-1e-05,-1e-05,0.0,0.0,-2e-05,0.0,0.0,1
1191,1269,0.0,-1e-05,-1e-05,0.0,0.0,-2e-05,0.0,0.0,1
1192,1270,0.0,-1e-05,-1e-05,0.0,0.0,-2e-05,0.0,0.0,1
1193,1271,0.0,-1e-05,-1e-05,0.0,0.0,-2e-05,0.0,0.0,1
1194,1272,0.0,-1e-05,-1e-05,0.0,0.0,-2e-05,0.0,0.0,1
1195,1273,0.0,-1e-05,-1e-05,0.0,0.0,-2e-05,0.0,0.0,1
1196,1274,0.0,-1e-05,-1e-05,0.0,0.0,-2e-05,0.0,0.0,1
1197,1275,0.0,-1e-05,-1e-05,0.0,0.0,-2e-05,0.0,0.0,1
1198,1276,0.0,-1e-05,-1e-05,0.0,0.0,-2e-05,0.0,0.0,1
1199,1277,-1e-05,-1e-05,-2e-05,-4e-05,-1e-05,-1e-05,0.0,-1e-05,1
1200,1278,-1e-05,-1e-05,-2e-05,-4e-05,-1e-05,-1e-05,0.0,-1e-05,1
1201,1279,0.0,0.0,2e-05,0.0001,2.9999999999999997e-05,-2e-05,-2e-05,0.0,1
1202,1280,0.0,0.0,2e-05,0.0001,2.9999999999999997e-05,-2e-05,-2e-05,0.0,1
1203,1281,0.0,0.0,2e-05,0.0001,2.9999999999999997e-05,-2e-05,-2e-05,0.0,1
1204,1282,0.0,0.0,2e-05,0.0001,2.9999999999999997e-05,-2e-05,-2e-05,0.0,1
1205,1283,0.0,0.0,2e-05,0.0001,2.9999999999999997e-05,-2e-05,-2e-05,0.0,1
1206,1284,0.0,0.0,2e-05,0.0001,2.9999999999999997e-05,-2e-05,-2e-05,0.0,1
1207,1285,0.0,0.0,2e-05,0.0001,2.9999999999999997e-05,-2e-05,-2e-05,0.0,1
1208,1286,0.0,0.0,2e-05,0.0001,2.9999999999999997e-05,-2e-05,-2e-05,0.0,1
1209,1288,0.0,0.0,2e-05,0.0001,2.9999999999999997e-05,-2e-05,-2e-05,0.0,1
1210,1289,0.0,0.0,2e-05,0.0001,2.9999999999999997e-05,-2e-05,-2e-05,0.0,1
1211,1290,0.0,0.0,2e-05,0.0001,2.9999999999999997e-05,-2e-05,-2e-05,0.0,1
1212,1291,0.0,0.0,2e-05,0.0001,2.9999999999999997e-05,-2e-05,-2e-05,0.0,1
1213,1292,0.0,-1e-05,-1e-05,2e-05,-1e-05,0.0,-1e-05,-1e-05,1
1214,1293,0.0,-1e-05,-1e-05,2e-05,-1e-05,0.0,-1e-05,-1e-05,1
1215,1294,-1e-05,-2e-05,-1e-05,-8e-05,-2.9999999999999997e-05,-2.9999999999999997e-05,-2e-05,0.0,1
1216,1295,-1e-05,-2e-05,-1e-05,-8e-05,-2.9999999999999997e-05,-2.9999999999999997e-05,-2e-05,0.0,1
1217,1296,-1e-05,-2e-05,-1e-05,-8e-05,-2.9999999999999997e-05,-2.9999999999999997e-05,-2e-05,0.0,1
1218,1297,-1e-05,-2e-05,-1e-05,-8e-05,-2.9999999999999997e-05,-2.9999999999999997e-05,-2e-05,0.0,1
1219,1298,-1e-05,-2e-05,-1e-05,-8e-05,-2.9999999999999997e-05,-2.9999999999999997e-05,-2e-05,0.0,1
1220,1299,-1e-05,-2e-05,-1e-05,-8e-05,-2.9999999999999997e-05,-2.9999999999999997e-05,-2e-05,0.0,1
1221,1300,-1e-05,-2e-05,-1e-05,-8e-05,-2.9999999999999997e-05,-2.9999999999999997e-05,-2e-05,0.0,1
1222,1301,-1e-05,-2e-05,-1e-05,-8e-05,-2.9999999999999997e-05,-2.9999999999999997e-05,-2e-05,0.0,1
1223,1302,-1e-05,-2e-05,-1e-05,-8e-05,-2.9999999999999997e-05,-2.9999999999999997e-05,-2e-05,0.0,1
1224,1303,-1e-05,-2e-05,-1e-05,-8e-05,-2.9999999999999997e-05,-2.9999999999999997e-05,-2e-05,0.0,1
1225,1304,-1e-05,-2e-05,-1e-05,-8e-05,-2.9999999999999997e-05,-2.9999999999999997e-05,-2e-05,0.0,1
1226,1305,-1e-05,-2e-05,-1e-05,-8e-05,-2.9999999999999997e-05,-2.9999999999999997e-05,-2e-05,0.0,1
1227,1306,-1e-05,-1e-05,-1e-05,0.0,1e-05,-2e-05,-1e-05,-1e-05,1
1228,1307,-1e-05,-1e-05,-1e-05,0.0,1e-05,-2e-05,-1e-05,-1e-05,1
1229,1308,-1e-05,-1e-05,-1e-05,0.0,1e-05,-2e-05,-1e-05,-1e-05,1
1230,1309,-1e-05,-1e-05,-1e-05,0.0,1e-05,-2e-05,-1e-05,-1e-05,1
1231,1310,-1e-05,-1e-05,-1e-05,0.0,1e-05,-2e-05,-1e-05,-1e-05,1
1232,1311,-1e-05,-1e-05,-1e-05,0.0,1e-05,-2e-05,-1e-05,-1e-05,1
1233,1312,-1e-05,-1e-05,-1e-05,0.0,1e-05,-2e-05,-1e-05,-1e-05,1
1234,1313,1e-05,-2.9999999999999997e-05,-2.9999999999999997e-05,-5.9999999999999995e-05,-2.9999999999999997e-05,-1e-05,-2e-05,0.0,1
1235,1314,1e-05,-2.9999999999999997e-05,-2.9999999999999997e-05,-5.9999999999999995e-05,-2.9999999999999997e-05,-1e-05,-2e-05,0.0,1
1236,1315,1e-05,-2.9999999999999997e-05,-2.9999999999999997e-05,-5.9999999999999995e-05,-2.9999999999999997e-05,-1e-05,-2e-05,0.0,1
1237,1316,1e-05,-2.9999999999999997e-05,-2.9999999999999997e-05,-5.9999999999999995e-05,-2.9999999999999997e-05,-1e-05,-2e-05,0.0,1
1238,1317,1e-05,-2.9999999999999997e-05,-2.9999999999999997e-05,-5.9999999999999995e-05,-2.9999999999999997e-05,-1e-05,-2e-05,0.0,1
1239,1318,1e-05,-2.9999999999999997e-05,-2.9999999999999997e-05,-5.9999999999999995e-05,-2.9999999999999997e-05,-1e-05,-2e-05,0.0,1
1240,1319,1e-05,-2.9999999999999997e-05,-2.9999999999999997e-05,-5.9999999999999995e-05,-2.9999999999999997e-05,-1e-05,-2e-05,0.0,1
1241,1320,1e-05,-2.9999999999999997e-05,-2.9999999999999997e-05,-5.9999999999999995e-05,-2.9999999999999997e-05,-1e-05,-2e-05,0.0,1
1242,1321,1e-05,-2.9999999999999997e-05,-2.9999999999999997e-05,-5.9999999999999995e-05,-2.9999999999999997e-05,-1e-05,-2e-05,0.0,1
1243,1322,1e-05,-2.9999999999999997e-05,-2.9999999999999997e-05,-5.9999999999999995e-05,-2.9999999999999997e-05,-1e-05,-2e-05,0.0,1
1244,1323,1e-05,-2.9999999999999997e-05,-2.9999999999999997e-05,-5.9999999999999995e-05,-2.9999999999999997e-05,-1e-05,-2e-05,0.0,1
1245,1324,1e-05,-2.9999999999999997e-05,-2.9999999999999997e-05,-5.9999999999999995e-05,-2.9999999999999997e-05,-1e-05,-2e-05,0.0,1
1246,1325,1e-05,-2.9999999999999997e-05,-2.9999999999999997e-05,-5.9999999999999995e-05,-2.9999999999999997e-05,-1e-05,-2e-05,0.0,1
1247,1326,1e-05,-2.9999999999999997e-05,-2.9999999999999997e-05,-5.9999999999999995e-05,-2.9999999999999997e-05,-1e-05,-2e-05,0.0,1
1248,1327,1e-05,-2.9999999999999997e-05,-2.9999999999999997e-05,-5.9999999999999995e-05,-2.9999999999999997e-05,-1e-05,-2e-05,0.0,1
1249,1328,1e-05,-2.9999999999999997e-05,-2.9999999999999997e-05,-5.9999999999999995e-05,-2.9999999999999997e-05,-1e-05,-2e-05,0.0,1
1250,1329,1e-05,-2.9999999999999997e-05,-2.9999999999999997e-05,-5.9999999999999995e-05,-2.9999999999999997e-05,-1e-05,-2e-05,0.0,1
1251,1330,-1e-05,-2e-05,-1e-05,1e-05,-2e-05,-2e-05,0.0,-2e-05,1
1252,1331,-2e-05,-1e-05,-1e-05,1e-05,-2e-05,-1e-05,0.0,-1e-05,1
1253,1333,-2e-05,-1e-05,-1e-05,1e-05,-2e-05,-1e-05,0.0,-1e-05,1
1254,1334,-2e-05,-1e-05,-1e-05,1e-05,-2e-05,-1e-05,0.0,-1e-05,1
1255,1335,-2e-05,-1e-05,-1e-05,1e-05,-2e-05,-1e-05,0.0,-1e-05,1
1256,1336,-2e-05,-1e-05,-1e-05,1e-05,-2e-05,-1e-05,0.0,-1e-05,1
1257,1338,-2e-05,-1e-05,-1e-05,1e-05,-2e-05,-1e-05,0.0,-1e-05,1
1258,1339,-2e-05,-1e-05,-1e-05,1e-05,-2e-05,-1e-05,0.0,-1e-05,1
1259,1340,-2e-05,-1e-05,-1e-05,1e-05,-2e-05,-1e-05,0.0,-1e-05,1
1260,1341,-2e-05,-1e-05,-1e-05,1e-05,-2e-05,-1e-05,0.0,-1e-05,1
1261,1342,-2e-05,-1e-05,-1e-05,1e-05,-2e-05,-1e-05,0.0,-1e-05,1
1262,1343,-2e-05,-1e-05,-1e-05,1e-05,-2e-05,-1e-05,0.0,-1e-05,1
1263,1344,-2e-05,-1e-05,-1e-05,1e-05,-2e-05,-1e-05,0.0,-1e-05,1
1264,1345,-2e-05,-1e-05,-1e-05,1e-05,-2e-05,-1e-05,0.0,-1e-05,1
1265,1346,-2e-05,-1e-05,-1e-05,1e-05,-2e-05,-1e-05,0.0,-1e-05,1
1266,1347,-2e-05,-1e-05,-1e-05,1e-05,-2e-05,-1e-05,0.0,-1e-05,1
1267,1348,-2e-05,-1e-05,-1e-05,1e-05,-2e-05,-1e-05,0.0,-1e-05,1
1268,1349,-2e-05,-1e-05,-1e-05,1e-05,-2e-05,-1e-05,0.0,-1e-05,1
1269,1350,-2e-05,-1e-05,-1e-05,1e-05,-2e-05,-1e-05,0.0,-1e-05,1
1270,1351,-2e-05,-1e-05,-1e-05,1e-05,-2e-05,-1e-05,0.0,-1e-05,1
1271,1352,0.0,-1e-05,-1e-05,0.0,1e-05,0.0,0.0,-1e-05,1
1272,1353,0.0,-1e-05,-1e-05,0.0,1e-05,0.0,0.0,-1e-05,1
1273,1354,0.0,-2e-05,0.0,-1e-05,-2e-05,1e-05,-1e-05,-2e-05,1
1274,1355,0.0,-2e-05,0.0,-1e-05,-2e-05,1e-05,-1e-05,-2e-05,1
1275,1356,0.0,-2e-05,0.0,-1e-05,-2e-05,1e-05,-1e-05,-2e-05,1
1276,1357,0.0,-2e-05,0.0,-1e-05,-2e-05,1e-05,-1e-05,-2e-05,1
1277,1358,0.0,-2e-05,0.0,-1e-05,-2e-05,1e-05,-1e-05,-2e-05,1
1278,1359,0.0,-2e-05,0.0,-1e-05,-2e-05,1e-05,-1e-05,-2e-05,1
1279,1360,0.0,-2e-05,0.0,-1e-05,-2e-05,1e-05,-1e-05,-2e-05,1
1280,1361,0.0,-2e-05,0.0,-1e-05,-2e-05,1e-05,-1e-05,-2e-05,1
1281,1362,0.0,-2e-05,0.0,-1e-05,-2e-05,1e-05,-1e-05,-2e-05,1
1282,1363,0.0,-2e-05,0.0,-1e-05,-2e-05,1e-05,-1e-05,-2e-05,1
1283,1364,0.0,-2e-05,0.0,-1e-05,-2e-05,1e-05,-1e-05,-2e-05,1
1284,1365,0.0,-2e-05,0.0,-1e-05,-2e-05,1e-05,-1e-05,-2e-05,1
1285,1366,0.0,-2e-05,-2.9999999999999997e-05,-2e-05,-1e-05,-0.00011,-4e-05,-2e-05,1
1286,1367,0.0,-2e-05,-2.9999999999999997e-05,-2e-05,-1e-05,-0.00011,-4e-05,-2e-05,1
1287,1368,0.0,-2e-05,-2.9999999999999997e-05,-2e-05,-1e-05,-0.00011,-4e-05,-2e-05,1
1288,1369,0.0,-2e-05,-2.9999999999999997e-05,-2e-05,-1e-05,-0.00011,-4e-05,-2e-05,1
1289,1370,0.0,-2e-05,-2.9999999999999997e-05,-2e-05,-1e-05,-0.00011,-4e-05,-2e-05,1
1290,1371,0.0,-2e-05,-2.9999999999999997e-05,-2e-05,-1e-05,-0.00011,-4e-05,-2e-05,1
1291,1372,0.0,-2e-05,-2.9999999999999997e-05,-2e-05,-1e-05,-0.00011,-4e-05,-2e-05,1
1292,1373,0.0,-2e-05,-2.9999999999999997e-05,-2e-05,-1e-05,-0.00011,-4e-05,-2e-05,1
1293,1374,0.0,-2e-05,-2.9999999999999997e-05,-2e-05,-1e-05,-0.00011,-4e-05,-2e-05,1
1294,1375,-2e-05,1e-05,2e-05,0.00011999999999999999,2e-05,2e-05,0.0,-1e-05,1
1295,1376,-2e-05,1e-05,2e-05,0.00011999999999999999,2e-05,2e-05,0.0,-1e-05,1
1296,1377,-2e-05,1e-05,2e-05,0.00011999999999999999,2e-05,2e-05,0.0,-1e-05,1
1297,1378,-2e-05,1e-05,2e-05,0.00011999999999999999,2e-05,2e-05,0.0,-1e-05,1
1298,1379,-2e-05,1e-05,2e-05,0.00011999999999999999,2e-05,2e-05,0.0,-1e-05,1
1299,1380,-2e-05,1e-05,2e-05,0.00011999999999999999,2e-05,2e-05,0.0,-1e-05,1
1300,1381,-2e-05,1e-05,2e-05,0.00011999999999999999,2e-05,2e-05,0.0,-1e-05,1
1301,1382,-2e-05,1e-05,2e-05,0.00011999999999999999,2e-05,2e-05,0.0,-1e-05,1
1302,1383,-2e-05,1e-05,2e-05,0.00011999999999999999,2e-05,2e-05,0.0,-1e-05,1
1303,1384,-2e-05,1e-05,2e-05,0.00011999999999999999,2e-05,2e-05,0.0,-1e-05,1
1304,1385,-2e-05,1e-05,2e-05,0.00011999999999999999,2e-05,2e-05,0.0,-1e-05,1
1305,1386,-2e-05,1e-05,2e-05,0.00011999999999999999,2e-05,2e-05,0.0,-1e-05,1
1306,1388,-2e-05,1e-05,2e-05,0.00011999999999999999,2e-05,2e-05,0.0,-1e-05,1
1307,1389,-2e-05,1e-05,2e-05,0.00011999999999999999,2e-05,2e-05,0.0,-1e-05,1
1308,1390,-1e-05,0.0,-2.9999999999999997e-05,-2.9999999999999997e-05,-2e-05,1e-05,0.0,-1e-05,1
1309,1391,2e-05,-1e-05,-2e-05,-8e-05,-2.9999999999999997e-05,0.0,0.0,-1e-05,1
1310,1392,2e-05,-1e-05,-2e-05,-8e-05,-2.9999999999999997e-05,0.0,0.0,-1e-05,1
1311,1393,2e-05,-1e-05,-2e-05,-8e-05,-2.9999999999999997e-05,0.0,0.0,-1e-05,1
1312,1394,2e-05,-1e-05,-2e-05,-8e-05,-2.9999999999999997e-05,0.0,0.0,-1e-05,1
1313,1395,2e-05,-1e-05,-2e-05,-8e-05,-2.9999999999999997e-05,0.0,0.0,-1e-05,1
1314,1396,2e-05,-1e-05,-2e-05,-8e-05,-2.9999999999999997e-05,0.0,0.0,-1e-05,1
1315,1397,2e-05,-1e-05,-2e-05,-8e-05,-2.9999999999999997e-05,0.0,0.0,-1e-05,1
1316,1398,2e-05,-1e-05,-2e-05,-8e-05,-2.9999999999999997e-05,0.0,0.0,-1e-05,1
1317,1399,2e-05,-1e-05,-2e-05,-8e-05,-2.9999999999999997e-05,0.0,0.0,-1e-05,1
1318,1400,2e-05,-1e-05,-2e-05,-8e-05,-2.9999999999999997e-05,0.0,0.0,-1e-05,1
1319,1401,2e-05,-1e-05,-2e-05,-8e-05,-2.9999999999999997e-05,0.0,0.0,-1e-05,1
1320,1402,2e-05,-1e-05,-2e-05,-8e-05,-2.9999999999999997e-05,0.0,0.0,-1e-05,1
1321,1403,2e-05,-1e-05,-2e-05,-8e-05,-2.9999999999999997e-05,0.0,0.0,-1e-05,1
1322,1404,2e-05,-1e-05,-2e-05,-8e-05,-2.9999999999999997e-05,0.0,0.0,-1e-05,1
1323,1405,2e-05,-1e-05,-2e-05,-8e-05,-2.9999999999999997e-05,0.0,0.0,-1e-05,1
1324,1406,2e-05,-1e-05,-2e-05,-8e-05,-2.9999999999999997e-05,0.0,0.0,-1e-05,1
1325,1407,2e-05,-1e-05,-2e-05,-8e-05,-2.9999999999999997e-05,0.0,0.0,-1e-05,1
1326,1408,2e-05,-1e-05,-2e-05,-8e-05,-2.9999999999999997e-05,0.0,0.0,-1e-05,1
1327,1409,2e-05,-1e-05,-2e-05,-8e-05,-2.9999999999999997e-05,0.0,0.0,-1e-05,1
1328,1410,2e-05,-1e-05,-2e-05,-8e-05,-2.9999999999999997e-05,0.0,0.0,-1e-05,1
1329,1411,2e-05,-1e-05,-2e-05,-8e-05,-2.9999999999999997e-05,0.0,0.0,-1e-05,1
1330,1412,-1e-05,0.0,-1e-05,-2.9999999999999997e-05,-2.9999999999999997e-05,1e-05,0.0,0.0,1
1331,1413,-1e-05,0.0,-1e-05,-2.9999999999999997e-05,-2.9999999999999997e-05,1e-05,0.0,0.0,1
1332,1414,-1e-05,0.0,0.0,0.0,0.0,-1e-05,1e-05,-2e-05,1
1333,1415,-1e-05,0.0,0.0,0.0,0.0,-1e-05,1e-05,-2e-05,1
1334,1416,-1e-05,0.0,0.0,0.0,0.0,-1e-05,1e-05,-2e-05,1
1335,1417,-1e-05,0.0,0.0,0.0,0.0,-1e-05,1e-05,-2e-05,1
1336,1418,-1e-05,0.0,0.0,0.0,0.0,-1e-05,1e-05,-2e-05,1
1337,1419,-1e-05,0.0,0.0,0.0,0.0,-1e-05,1e-05,-2e-05,1
1338,1420,-1e-05,0.0,0.0,0.0,0.0,-1e-05,1e-05,-2e-05,1
1339,1421,-1e-05,0.0,0.0,0.0,0.0,-1e-05,1e-05,-2e-05,1
1340,1422,-1e-05,0.0,0.0,0.0,0.0,-1e-05,1e-05,-2e-05,1
1341,1423,-1e-05,0.0,0.0,0.0,0.0,-1e-05,1e-05,-2e-05,1
1342,1424,-1e-05,0.0,0.0,0.0,0.0,-1e-05,1e-05,-2e-05,1
1343,1425,-1e-05,0.0,0.0,0.0,0.0,-1e-05,1e-05,-2e-05,1
1344,1426,0.0,-1e-05,1e-05,-2.9999999999999997e-05,-1e-05,-1e-05,-1e-05,-1e-05,1
1345,1427,0.0,-1e-05,1e-05,-2.9999999999999997e-05,-1e-05,-1e-05,-1e-05,-1e-05,1
1346,1428,0.0,-1e-05,1e-05,-2.9999999999999997e-05,-1e-05,-1e-05,-1e-05,-1e-05,1
1347,1429,0.0,-1e-05,1e-05,-2.9999999999999997e-05,-1e-05,-1e-05,-1e-05,-1e-05,1
1348,1430,0.0,-1e-05,1e-05,-2.9999999999999997e-05,-1e-05,-1e-05,-1e-05,-1e-05,1
1349,1431,0.0,-1e-05,1e-05,-2.9999999999999997e-05,-1e-05,-1e-05,-1e-05,-1e-05,1
1350,1432,0.0,-1e-05,1e-05,-2.9999999999999997e-05,-1e-05,-1e-05,-1e-05,-1e-05,1
1351,1433,0.0,-1e-05,1e-05,-2.9999999999999997e-05,-1e-05,-1e-05,-1e-05,-1e-05,1
1352,1434,0.0,-1e-05,1e-05,-2.9999999999999997e-05,-1e-05,-1e-05,-1e-05,-1e-05,1
1353,1435,-1e-05,-1e-05,-1e-05,-2e-05,-1e-05,0.0,0.0,-1e-05,1
1354,1436,-1e-05,-1e-05,-1e-05,-2e-05,-1e-05,0.0,0.0,-1e-05,1
1355,1438,-1e-05,-1e-05,-1e-05,-2e-05,-1e-05,0.0,0.0,-1e-05,1
1356,1439,-1e-05,-1e-05,-1e-05,-2e-05,-1e-05,0.0,0.0,-1e-05,1
1357,1440,-1e-05,-1e-05,-1e-05,-2e-05,-1e-05,0.0,0.0,-1e-05,1
1358,1441,-1e-05,-1e-05,-1e-05,-2e-05,-1e-05,0.0,0.0,-1e-05,1
1359,1442,-1e-05,-1e-05,-1e-05,-2e-05,-1e-05,0.0,0.0,-1e-05,1
1360,1443,-1e-05,-1e-05,-1e-05,-2e-05,-1e-05,0.0,0.0,-1e-05,1
1361,1444,-1e-05,-1e-05,-1e-05,-2e-05,-1e-05,0.0,0.0,-1e-05,1
1362,1445,-1e-05,-1e-05,-1e-05,-2e-05,-1e-05,0.0,0.0,-1e-05,1
1363,1446,-1e-05,-1e-05,-1e-05,-2e-05,-1e-05,0.0,0.0,-1e-05,1
1364,1447,-1e-05,-1e-05,-1e-05,-2e-05,-1e-05,0.0,0.0,-1e-05,1
1365,1448,-1e-05,-1e-05,-1e-05,-2e-05,-1e-05,0.0,0.0,-1e-05,1
1366,1449,-1e-05,-1e-05,-1e-05,-2e-05,-1e-05,0.0,0.0,-1e-05,1
1367,1450,-2e-05,0.0,0.0,0.0,-2e-05,-1e-05,-2e-05,-2.9999999999999997e-05,1
1368,1451,-1e-05,0.0,-2.9999999999999997e-05,-1e-05,-1e-05,-2.9999999999999997e-05,-1e-05,-1e-05,1
1369,1452,-1e-05,0.0,-2.9999999999999997e-05,-1e-05,-1e-05,-2.9999999999999997e-05,-1e-05,-1e-05,1
1370,1453,-1e-05,0.0,-2.9999999999999997e-05,-1e-05,-1e-05,-2.9999999999999997e-05,-1e-05,-1e-05,1
1371,1454,-1e-05,0.0,-2.9999999999999997e-05,-1e-05,-1e-05,-2.9999999999999997e-05,-1e-05,-1e-05,1
1372,1455,-1e-05,0.0,-2.9999999999999997e-05,-1e-05,-1e-05,-2.9999999999999997e-05,-1e-05,-1e-05,1
1373,1456,-1e-05,0.0,-2.9999999999999997e-05,-1e-05,-1e-05,-2.9999999999999997e-05,-1e-05,-1e-05,1
1374,1457,-1e-05,0.0,-2.9999999999999997e-05,-1e-05,-1e-05,-2.9999999999999997e-05,-1e-05,-1e-05,1
1375,1458,-1e-05,0.0,-2.9999999999999997e-05,-1e-05,-1e-05,-2.9999999999999997e-05,-1e-05,-1e-05,1
1376,1459,-1e-05,0.0,-2.9999999999999997e-05,-1e-05,-1e-05,-2.9999999999999997e-05,-1e-05,-1e-05,1
1377,1460,-1e-05,0.0,-2.9999999999999997e-05,-1e-05,-1e-05,-2.9999999999999997e-05,-1e-05,-1e-05,1
1378,1461,-1e-05,0.0,-2.9999999999999997e-05,-1e-05,-1e-05,-2.9999999999999997e-05,-1e-05,-1e-05,1
1379,1462,-1e-05,0.0,-2.9999999999999997e-05,-1e-05,-1e-05,-2.9999999999999997e-05,-1e-05,-1e-05,1
1380,1463,-1e-05,0.0,-2.9999999999999997e-05,-1e-05,-1e-05,-2.9999999999999997e-05,-1e-05,-1e-05,1
1381,1464,-1e-05,0.0,-2.9999999999999997e-05,-1e-05,-1e-05,-2.9999999999999997e-05,-1e-05,-1e-05,1
1382,1465,-1e-05,0.0,-2.9999999999999997e-05,-1e-05,-1e-05,-2.9999999999999997e-05,-1e-05,-1e-05,1
1383,1466,-1e-05,0.0,-2.9999999999999997e-05,-1e-05,-1e-05,-2.9999999999999997e-05,-1e-05,-1e-05,1
1384,1467,-1e-05,0.0,-2.9999999999999997e-05,-1e-05,-1e-05,-2.9999999999999997e-05,-1e-05,-1e-05,1
1385,1468,-1e-05,0.0,-2.9999999999999997e-05,-1e-05,-1e-05,-2.9999999999999997e-05,-1e-05,-1e-05,1
1386,1469,-1e-05,0.0,-2.9999999999999997e-05,-1e-05,-1e-05,-2.9999999999999997e-05,-1e-05,-1e-05,1
1387,1470,-1e-05,0.0,-2.9999999999999997e-05,-1e-05,-1e-05,-2.9999999999999997e-05,-1e-05,-1e-05,1
1388,1471,-1e-05,0.0,-2.9999999999999997e-05,-1e-05,-1e-05,-2.9999999999999997e-05,-1e-05,-1e-05,1
1389,1472,-1e-05,-2e-05,0.0,0.0,-1e-05,1e-05,0.0,-1e-05,1
1390,1473,-1e-05,-2e-05,0.0,0.0,-1e-05,1e-05,0.0,-1e-05,1
1391,1474,-2e-05,-2e-05,-2e-05,-2.9999999999999997e-05,-1e-05,-2e-05,-2e-05,-2e-05,1
1392,1475,-2e-05,-2e-05,-2e-05,-2.9999999999999997e-05,-1e-05,-2e-05,-2e-05,-2e-05,1
1393,1476,-2e-05,-2e-05,-2e-05,-2.9999999999999997e-05,-1e-05,-2e-05,-2e-05,-2e-05,1
1394,1477,-2e-05,-2e-05,-2e-05,-2.9999999999999997e-05,-1e-05,-2e-05,-2e-05,-2e-05,1
1395,1478,-2e-05,-2e-05,-2e-05,-2.9999999999999997e-05,-1e-05,-2e-05,-2e-05,-2e-05,1
1396,1479,-2e-05,-2e-05,-2e-05,-2.9999999999999997e-05,-1e-05,-2e-05,-2e-05,-2e-05,1
1397,1480,-2e-05,-2e-05,-2e-05,-2.9999999999999997e-05,-1e-05,-2e-05,-2e-05,-2e-05,1
1398,1481,-2e-05,-2e-05,-2e-05,-2.9999999999999997e-05,-1e-05,-2e-05,-2e-05,-2e-05,1
1399,1482,-2e-05,-2e-05,-2e-05,-2.9999999999999997e-05,-1e-05,-2e-05,-2e-05,-2e-05,1
1400,1483,-2e-05,-2e-05,-2e-05,-2.9999999999999997e-05,-1e-05,-2e-05,-2e-05,-2e-05,1
1401,1484,-2e-05,-2e-05,-2e-05,-2.9999999999999997e-05,-1e-05,-2e-05,-2e-05,-2e-05,1
1402,1485,-2e-05,-2e-05,-2e-05,-2.9999999999999997e-05,-1e-05,-2e-05,-2e-05,-2e-05,1
1403,1486,0.0,0.0,-2.9999999999999997e-05,-2.9999999999999997e-05,1e-05,-2.9999999999999997e-05,-2e-05,1e-05,1
1404,1488,0.0,0.0,-2.9999999999999997e-05,-2.9999999999999997e-05,1e-05,-2.9999999999999997e-05,-2e-05,1e-05,1
1405,1489,0.0,0.0,-2.9999999999999997e-05,-2.9999999999999997e-05,1e-05,-2.9999999999999997e-05,-2e-05,1e-05,1
1406,1490,0.0,0.0,-2.9999999999999997e-05,-2.9999999999999997e-05,1e-05,-2.9999999999999997e-05,-2e-05,1e-05,1
1407,1491,0.0,0.0,-2.9999999999999997e-05,-2.9999999999999997e-05,1e-05,-2.9999999999999997e-05,-2e-05,1e-05,1
1408,1492,0.0,0.0,-2.9999999999999997e-05,-2.9999999999999997e-05,1e-05,-2.9999999999999997e-05,-2e-05,1e-05,1
1409,1493,0.0,0.0,-2.9999999999999997e-05,-2.9999999999999997e-05,1e-05,-2.9999999999999997e-05,-2e-05,1e-05,1
1410,1494,0.0,0.0,-2.9999999999999997e-05,-2.9999999999999997e-05,1e-05,-2.9999999999999997e-05,-2e-05,1e-05,1
1411,1495,0.0,-1e-05,1e-05,0.00014,2e-05,0.0,0.0,-1e-05,1
1412,1496,0.0,-1e-05,1e-05,0.00014,2e-05,0.0,0.0,-1e-05,1
1413,1497,0.0,-1e-05,1e-05,0.00014,2e-05,0.0,0.0,-1e-05,1
1414,1498,0.0,-1e-05,1e-05,0.00014,2e-05,0.0,0.0,-1e-05,1
1415,1499,0.0,-1e-05,1e-05,0.00014,2e-05,0.0,0.0,-1e-05,1
1416,1500,0.0,-1e-05,1e-05,0.00014,2e-05,0.0,0.0,-1e-05,1
1417,1501,0.0,-1e-05,1e-05,0.00014,2e-05,0.0,0.0,-1e-05,1
1418,1502,0.0,-1e-05,1e-05,0.00014,2e-05,0.0,0.0,-1e-05,1
1419,1503,0.0,-1e-05,1e-05,0.00014,2e-05,0.0,0.0,-1e-05,1
1420,1504,0.0,-1e-05,1e-05,0.00014,2e-05,0.0,0.0,-1e-05,1
1421,1505,0.0,-1e-05,1e-05,0.00014,2e-05,0.0,0.0,-1e-05,1
1422,1506,0.0,-1e-05,1e-05,0.00014,2e-05,0.0,0.0,-1e-05,1
1423,1507,0.0,-1e-05,1e-05,0.00014,2e-05,0.0,0.0,-1e-05,1
1424,1508,0.0,-1e-05,1e-05,0.00014,2e-05,0.0,0.0,-1e-05,1
1425,1509,0.0,-1e-05,1e-05,0.00014,2e-05,0.0,0.0,-1e-05,1
1426,1510,-1e-05,1e-05,0.0,0.0,-1e-05,-1e-05,-4e-05,-1e-05,1
1427,1511,-2e-05,-2e-05,-4e-05,-7e-05,-2.9999999999999997e-05,0.0,-1e-05,0.0,1
1428,1512,-2e-05,-2e-05,-4e-05,-7e-05,-2.9999999999999997e-05,0.0,-1e-05,0.0,1
1429,1513,-2e-05,-2e-05,-4e-05,-7e-05,-2.9999999999999997e-05,0.0,-1e-05,0.0,1
1430,1514,-2e-05,-2e-05,-4e-05,-7e-05,-2.9999999999999997e-05,0.0,-1e-05,0.0,1
1431,1515,-2e-05,-2e-05,-4e-05,-7e-05,-2.9999999999999997e-05,0.0,-1e-05,0.0,1
1432,1516,-2e-05,-2e-05,-4e-05,-7e-05,-2.9999999999999997e-05,0.0,-1e-05,0.0,1
1433,1517,-2e-05,-2e-05,-4e-05,-7e-05,-2.9999999999999997e-05,0.0,-1e-05,0.0,1
1434,1518,-2e-05,-2e-05,-4e-05,-7e-05,-2.9999999999999997e-05,0.0,-1e-05,0.0,1
1435,1519,-2e-05,-2e-05,-4e-05,-7e-05,-2.9999999999999997e-05,0.0,-1e-05,0.0,1
1436,1520,-2e-05,-2e-05,-4e-05,-7e-05,-2.9999999999999997e-05,0.0,-1e-05,0.0,1
1437,1521,-2e-05,-2e-05,-4e-05,-7e-05,-2.9999999999999997e-05,0.0,-1e-05,0.0,1
1438,1522,-2e-05,-2e-05,-4e-05,-7e-05,-2.9999999999999997e-05,0.0,-1e-05,0.0,1
1439,1523,-2e-05,-2e-05,-4e-05,-7e-05,-2.9999999999999997e-05,0.0,-1e-05,0.0,1
1440,1524,-2e-05,-2e-05,-4e-05,-7e-05,-2.9999999999999997e-05,0.0,-1e-05,0.0,1
1441,1525,-2e-05,-2e-05,-4e-05,-7e-05,-2.9999999999999997e-05,0.0,-1e-05,0.0,1
1442,1526,-2e-05,-2e-05,-4e-05,-7e-05,-2.9999999999999997e-05,0.0,-1e-05,0.0,1
1443,1527,-2e-05,-2e-05,-4e-05,-7e-05,-2.9999999999999997e-05,0.0,-1e-05,0.0,1
1444,1528,-2e-05,-2e-05,-4e-05,-7e-05,-2.9999999999999997e-05,0.0,-1e-05,0.0,1
1445,1529,-2e-05,-2e-05,-4e-05,-7e-05,-2.9999999999999997e-05,0.0,-1e-05,0.0,1
1446,1530,-2e-05,-2e-05,-4e-05,-7e-05,-2.9999999999999997e-05,0.0,-1e-05,0.0,1
1447,1531,-2e-05,-2e-05,-4e-05,-7e-05,-2.9999999999999997e-05,0.0,-1e-05,0.0,1
1448,1532,0.0,-2e-05,-2e-05,1e-05,0.0,0.0,0.0,-1e-05,1
1449,1533,0.0,-2e-05,-2e-05,1e-05,0.0,0.0,0.0,-1e-05,1
1450,1534,-2.9999999999999997e-05,-1e-05,0.0,-2e-05,-1e-05,-1e-05,-2e-05,-2e-05,1
1451,1535,-2.9999999999999997e-05,-1e-05,0.0,-2e-05,-1e-05,-1e-05,-2e-05,-2e-05,1
1452,1536,-2.9999999999999997e-05,-1e-05,0.0,-2e-05,-1e-05,-1e-05,-2e-05,-2e-05,1
1453,1538,-2.9999999999999997e-05,-1e-05,0.0,-2e-05,-1e-05,-1e-05,-2e-05,-2e-05,1
1454,1539,-2.9999999999999997e-05,-1e-05,0.0,-2e-05,-1e-05,-1e-05,-2e-05,-2e-05,1
1455,1540,-2.9999999999999997e-05,-1e-05,0.0,-2e-05,-1e-05,-1e-05,-2e-05,-2e-05,1
1456,1541,-2.9999999999999997e-05,-1e-05,0.0,-2e-05,-1e-05,-1e-05,-2e-05,-2e-05,1
1457,1542,-2.9999999999999997e-05,-1e-05,0.0,-2e-05,-1e-05,-1e-05,-2e-05,-2e-05,1
1458,1543,-2.9999999999999997e-05,-1e-05,0.0,-2e-05,-1e-05,-1e-05,-2e-05,-2e-05,1
1459,1544,-2.9999999999999997e-05,-1e-05,0.0,-2e-05,-1e-05,-1e-05,-2e-05,-2e-05,1
1460,1545,-2.9999999999999997e-05,-1e-05,0.0,-2e-05,-1e-05,-1e-05,-2e-05,-2e-05,1
1461,1546,-1e-05,-2e-05,-1e-05,-1e-05,-1e-05,0.0,-2e-05,0.0,1
1462,1547,-1e-05,-2e-05,-1e-05,-1e-05,-1e-05,0.0,-2e-05,0.0,1
1463,1548,-1e-05,-2e-05,-1e-05,-1e-05,-1e-05,0.0,-2e-05,0.0,1
1464,1549,-1e-05,-2e-05,-1e-05,-1e-05,-1e-05,0.0,-2e-05,0.0,1
1465,1550,-1e-05,-2e-05,-1e-05,-1e-05,-1e-05,0.0,-2e-05,0.0,1
1466,1551,-1e-05,-2e-05,-1e-05,-1e-05,-1e-05,0.0,-2e-05,0.0,1
1467,1552,-1e-05,-2e-05,-1e-05,-1e-05,-1e-05,0.0,-2e-05,0.0,1
1468,1553,-1e-05,-2e-05,-1e-05,-1e-05,-1e-05,0.0,-2e-05,0.0,1
1469,1554,-1e-05,-2e-05,-1e-05,-1e-05,-1e-05,0.0,-2e-05,0.0,1
1470,1555,-1e-05,0.0,-2e-05,-5e-05,1e-05,-2e-05,-1e-05,-1e-05,1
1471,1556,-1e-05,0.0,-2e-05,-5e-05,1e-05,-2e-05,-1e-05,-1e-05,1
1472,1558,-1e-05,0.0,-2e-05,-5e-05,1e-05,-2e-05,-1e-05,-1e-05,1
1473,1559,-1e-05,0.0,-2e-05,-5e-05,1e-05,-2e-05,-1e-05,-1e-05,1
1474,1560,-1e-05,0.0,-2e-05,-5e-05,1e-05,-2e-05,-1e-05,-1e-05,1
1475,1561,-1e-05,0.0,-2e-05,-5e-05,1e-05,-2e-05,-1e-05,-1e-05,1
1476,1562,-1e-05,0.0,-2e-05,-5e-05,1e-05,-2e-05,-1e-05,-1e-05,1
1477,1563,-1e-05,0.0,-2e-05,-5e-05,1e-05,-2e-05,-1e-05,-1e-05,1
1478,1564,-1e-05,0.0,-2e-05,-5e-05,1e-05,-2e-05,-1e-05,-1e-05,1
1479,1565,-1e-05,0.0,-2e-05,-5e-05,1e-05,-2e-05,-1e-05,-1e-05,1
1480,1566,-1e-05,0.0,-2e-05,-5e-05,1e-05,-2e-05,-1e-05,-1e-05,1
1481,1567,-1e-05,0.0,-2e-05,-5e-05,1e-05,-2e-05,-1e-05,-1e-05,1
1482,1568,-1e-05,0.0,-2e-05,-5e-05,1e-05,-2e-05,-1e-05,-1e-05,1
1483,1569,-1e-05,0.0,-2e-05,-5e-05,1e-05,-2e-05,-1e-05,-1e-05,1
1484,1570,-2e-05,-2e-05,-1e-05,1e-05,0.0,-1e-05,0.0,-1e-05,1
1485,1571,1e-05,0.0,-2e-05,2.9999999999999997e-05,-1e-05,-2e-05,-2.9999999999999997e-05,-1e-05,1
1486,1572,0.0,1e-05,0.0,-5e-05,-2e-05,1e-05,0.0,-2e-05,1
1487,1573,0.0,1e-05,0.0,-5e-05,-2e-05,1e-05,0.0,-2e-05,1
1488,1574,0.0,1e-05,0.0,-5e-05,-2e-05,1e-05,0.0,-2e-05,1
1489,1575,0.0,1e-05,0.0,-5e-05,-2e-05,1e-05,0.0,-2e-05,1
1490,1576,0.0,1e-05,0.0,-5e-05,-2e-05,1e-05,0.0,-2e-05,1
1491,1577,0.0,1e-05,0.0,-5e-05,-2e-05,1e-05,0.0,-2e-05,1
1492,1578,0.0,1e-05,0.0,-5e-05,-2e-05,1e-05,0.0,-2e-05,1
1493,1579,0.0,1e-05,0.0,-5e-05,-2e-05,1e-05,0.0,-2e-05,1
1494,1580,0.0,1e-05,0.0,-5e-05,-2e-05,1e-05,0.0,-2e-05,1
1495,1581,0.0,1e-05,0.0,-5e-05,-2e-05,1e-05,0.0,-2e-05,1
1496,1582,0.0,1e-05,0.0,-5e-05,-2e-05,1e-05,0.0,-2e-05,1
1497,1583,0.0,1e-05,0.0,-5e-05,-2e-05,1e-05,0.0,-2e-05,1
1498,1584,0.0,1e-05,0.0,-5e-05,-2e-05,1e-05,0.0,-2e-05,1
1499,1585,0.0,1e-05,0.0,-5e-05,-2e-05,1e-05,0.0,-2e-05,1
1500,1586,0.0,1e-05,0.0,-5e-05,-2e-05,1e-05,0.0,-2e-05,1
1501,1588,0.0,1e-05,0.0,-5e-05,-2e-05,1e-05,0.0,-2e-05,1
1502,1589,0.0,1e-05,0.0,-5e-05,-2e-05,1e-05,0.0,-2e-05,1
1503,1590,0.0,1e-05,0.0,-5e-05,-2e-05,1e-05,0.0,-2e-05,1
1504,1591,0.0,1e-05,0.0,-5e-05,-2e-05,1e-05,0.0,-2e-05,1
1505,1592,-1e-05,-1e-05,-2.9999999999999997e-05,-1e-05,-1e-05,-1e-05,1e-05,1e-05,1
1506,1593,-1e-05,-1e-05,-2.9999999999999997e-05,-1e-05,-1e-05,-1e-05,1e-05,1e-05,1
1507,1594,-1e-05,0.0,-2e-05,-2e-05,0.0,-2e-05,-1e-05,0.0,1
1508,1595,-1e-05,0.0,-2e-05,-2e-05,0.0,-2e-05,-1e-05,0.0,1
1509,1596,-1e-05,0.0,-2e-05,-2e-05,0.0,-2e-05,-1e-05,0.0,1
1510,1597,-1e-05,0.0,-2e-05,-2e-05,0.0,-2e-05,-1e-05,0.0,1
1511,1598,-1e-05,0.0,-2e-05,-2e-05,0.0,-2e-05,-1e-05,0.0,1
1512,1599,-1e-05,0.0,-2e-05,-2e-05,0.0,-2e-05,-1e-05,0.0,1
1513,1600,-1e-05,0.0,-2e-05,-2e-05,0.0,-2e-05,-1e-05,0.0,1
1514,1601,-1e-05,0.0,-2e-05,-2e-05,0.0,-2e-05,-1e-05,0.0,1
1515,1602,-1e-05,0.0,-2e-05,-2e-05,0.0,-2e-05,-1e-05,0.0,1
1516,1603,-1e-05,0.0,-2e-05,-2e-05,0.0,-2e-05,-1e-05,0.0,1
1517,1604,-1e-05,0.0,-2e-05,-2e-05,0.0,-2e-05,-1e-05,0.0,1
1518,1605,-1e-05,0.0,-2e-05,-2e-05,0.0,-2e-05,-1e-05,0.0,1
1519,1606,-2e-05,-1e-05,0.0,1e-05,-1e-05,-2e-05,0.0,0.0,1
1520,1607,-2e-05,-1e-05,0.0,1e-05,-1e-05,-2e-05,0.0,0.0,1
1521,1608,-2e-05,-1e-05,0.0,1e-05,-1e-05,-2e-05,0.0,0.0,1
1522,1609,-2e-05,-1e-05,0.0,1e-05,-1e-05,-2e-05,0.0,0.0,1
1523,1610,-2e-05,-1e-05,0.0,1e-05,-1e-05,-2e-05,0.0,0.0,1
1524,1611,-2e-05,-1e-05,0.0,1e-05,-1e-05,-2e-05,0.0,0.0,1
1525,1612,-2e-05,-1e-05,0.0,1e-05,-1e-05,-2e-05,0.0,0.0,1
1526,1613,-2e-05,-1e-05,0.0,1e-05,-1e-05,-2e-05,0.0,0.0,1
1527,1614,-2e-05,-1e-05,0.0,1e-05,-1e-05,-2e-05,0.0,0.0,1
1528,1615,-1e-05,-1e-05,0.0,-2.9999999999999997e-05,-2.9999999999999997e-05,-2e-05,-2e-05,0.0,1
1529,1616,-1e-05,-1e-05,0.0,-2.9999999999999997e-05,-2.9999999999999997e-05,-2e-05,-2e-05,0.0,1
1530,1617,-1e-05,-1e-05,0.0,-2.9999999999999997e-05,-2.9999999999999997e-05,-2e-05,-2e-05,0.0,1
1531,1618,-1e-05,-1e-05,0.0,-2.9999999999999997e-05,-2.9999999999999997e-05,-2e-05,-2e-05,0.0,1
1532,1619,-1e-05,-1e-05,0.0,-2.9999999999999997e-05,-2.9999999999999997e-05,-2e-05,-2e-05,0.0,1
1533,1620,-1e-05,-1e-05,0.0,-2.9999999999999997e-05,-2.9999999999999997e-05,-2e-05,-2e-05,0.0,1
1534,1621,-1e-05,-1e-05,0.0,-2.9999999999999997e-05,-2.9999999999999997e-05,-2e-05,-2e-05,0.0,1
1535,1622,-1e-05,-1e-05,0.0,-2.9999999999999997e-05,-2.9999999999999997e-05,-2e-05,-2e-05,0.0,1
1536,1623,-1e-05,-1e-05,0.0,-2.9999999999999997e-05,-2.9999999999999997e-05,-2e-05,-2e-05,0.0,1
1537,1624,-1e-05,-1e-05,0.0,-2.9999999999999997e-05,-2.9999999999999997e-05,-2e-05,-2e-05,0.0,1
1538,1625,-1e-05,-1e-05,0.0,-2.9999999999999997e-05,-2.9999999999999997e-05,-2e-05,-2e-05,0.0,1
1539,1626,-1e-05,-1e-05,0.0,-2.9999999999999997e-05,-2.9999999999999997e-05,-2e-05,-2e-05,0.0,1
1540,1627,-1e-05,-1e-05,0.0,-2.9999999999999997e-05,-2.9999999999999997e-05,-2e-05,-2e-05,0.0,1
1541,1628,-1e-05,-1e-05,0.0,-2.9999999999999997e-05,-2.9999999999999997e-05,-2e-05,-2e-05,0.0,1
1542,1629,-1e-05,-1e-05,0.0,-2.9999999999999997e-05,-2.9999999999999997e-05,-2e-05,-2e-05,0.0,1
1543,1630,-1e-05,-2e-05,-4e-05,-0.00011,-1e-05,2e-05,-2e-05,-1e-05,1
1544,1631,-1e-05,-2e-05,-4e-05,-0.00011,-1e-05,2e-05,-2e-05,-1e-05,1
1545,1632,-1e-05,-2e-05,-1e-05,5e-05,2e-05,-2e-05,1e-05,-1e-05,1
1546,1633,-1e-05,-2e-05,-1e-05,5e-05,2e-05,-2e-05,1e-05,-1e-05,1
1547,1634,-1e-05,-2e-05,-1e-05,5e-05,2e-05,-2e-05,1e-05,-1e-05,1
1548,1635,-1e-05,-2e-05,-1e-05,5e-05,2e-05,-2e-05,1e-05,-1e-05,1
1549,1636,-1e-05,-2e-05,-1e-05,5e-05,2e-05,-2e-05,1e-05,-1e-05,1
1550,1638,-1e-05,-2e-05,-1e-05,5e-05,2e-05,-2e-05,1e-05,-1e-05,1
1551,1639,-1e-05,-2e-05,-1e-05,5e-05,2e-05,-2e-05,1e-05,-1e-05,1
1552,1640,-1e-05,-2e-05,-1e-05,5e-05,2e-05,-2e-05,1e-05,-1e-05,1
1553,1641,-1e-05,-2e-05,-1e-05,5e-05,2e-05,-2e-05,1e-05,-1e-05,1
1554,1642,-1e-05,-2e-05,-1e-05,5e-05,2e-05,-2e-05,1e-05,-1e-05,1
1555,1643,-1e-05,-2e-05,-1e-05,5e-05,2e-05,-2e-05,1e-05,-1e-05,1
1556,1644,-1e-05,-2e-05,-1e-05,5e-05,2e-05,-2e-05,1e-05,-1e-05,1
1557,1645,-1e-05,-2e-05,-1e-05,5e-05,2e-05,-2e-05,1e-05,-1e-05,1
1558,1646,-1e-05,-2e-05,-1e-05,5e-05,2e-05,-2e-05,1e-05,-1e-05,1
1559,1647,-1e-05,-2e-05,-1e-05,5e-05,2e-05,-2e-05,1e-05,-1e-05,1
1560,1648,-1e-05,-2e-05,-1e-05,5e-05,2e-05,-2e-05,1e-05,-1e-05,1
1561,1649,-1e-05,-2e-05,-1e-05,5e-05,2e-05,-2e-05,1e-05,-1e-05,1
1562,1650,-1e-05,-2e-05,-1e-05,5e-05,2e-05,-2e-05,1e-05,-1e-05,1
1563,1651,-1e-05,-2e-05,-1e-05,5e-05,2e-05,-2e-05,1e-05,-1e-05,1
1564,1652,-1e-05,0.0,1e-05,-2e-05,-1e-05,-1e-05,0.0,-1e-05,1
1565,1653,-1e-05,0.0,1e-05,-2e-05,-1e-05,-1e-05,0.0,-1e-05,1
1566,1654,1e-05,-2e-05,-1e-05,-2.9999999999999997e-05,-1e-05,-2.9999999999999997e-05,-2.9999999999999997e-05,0.0,1
1567,1655,1e-05,-2e-05,-1e-05,-2.9999999999999997e-05,-1e-05,-2.9999999999999997e-05,-2.9999999999999997e-05,0.0,1
1568,1656,1e-05,-2e-05,-1e-05,-2.9999999999999997e-05,-1e-05,-2.9999999999999997e-05,-2.9999999999999997e-05,0.0,1
1569,1657,1e-05,-2e-05,-1e-05,-2.9999999999999997e-05,-1e-05,-2.9999999999999997e-05,-2.9999999999999997e-05,0.0,1
1570,1658,1e-05,-2e-05,-1e-05,-2.9999999999999997e-05,-1e-05,-2.9999999999999997e-05,-2.9999999999999997e-05,0.0,1
1571,1659,1e-05,-2e-05,-1e-05,-2.9999999999999997e-05,-1e-05,-2.9999999999999997e-05,-2.9999999999999997e-05,0.0,1
1572,1660,1e-05,-2e-05,-1e-05,-2.9999999999999997e-05,-1e-05,-2.9999999999999997e-05,-2.9999999999999997e-05,0.0,1
1573,1661,1e-05,-2e-05,-1e-05,-2.9999999999999997e-05,-1e-05,-2.9999999999999997e-05,-2.9999999999999997e-05,0.0,1
1574,1662,1e-05,-2e-05,-1e-05,-2.9999999999999997e-05,-1e-05,-2.9999999999999997e-05,-2.9999999999999997e-05,0.0,1
1575,1663,1e-05,-2e-05,-1e-05,-2.9999999999999997e-05,-1e-05,-2.9999999999999997e-05,-2.9999999999999997e-05,0.0,1
1576,1664,1e-05,-2e-05,-1e-05,-2.9999999999999997e-05,-1e-05,-2.9999999999999997e-05,-2.9999999999999997e-05,0.0,1
1577,1665,1e-05,-2e-05,-1e-05,-2.9999999999999997e-05,-1e-05,-2.9999999999999997e-05,-2.9999999999999997e-05,0.0,1
1578,1666,1e-05,-2e-05,-2e-05,-1e-05,-2e-05,0.0,0.0,-1e-05,1
1579,1667,1e-05,-2e-05,-2e-05,-1e-05,-2e-05,0.0,0.0,-1e-05,1
1580,1668,1e-05,-2e-05,-2e-05,-1e-05,-2e-05,0.0,0.0,-1e-05,1
1581,1669,1e-05,-2e-05,-2e-05,-1e-05,-2e-05,0.0,0.0,-1e-05,1
1582,1670,1e-05,-2e-05,-2e-05,-1e-05,-2e-05,0.0,0.0,-1e-05,1
1583,1671,1e-05,-2e-05,-2e-05,-1e-05,-2e-05,0.0,0.0,-1e-05,1
1584,1672,1e-05,-2e-05,-2e-05,-1e-05,-2e-05,0.0,0.0,-1e-05,1
1585,1673,1e-05,-2e-05,-2e-05,-1e-05,-2e-05,0.0,0.0,-1e-05,1
1586,1674,1e-05,-2e-05,-2e-05,-1e-05,-2e-05,0.0,0.0,-1e-05,1
1587,1675,-2e-05,-1e-05,-2e-05,-2e-05,-2e-05,0.0,-2e-05,-1e-05,1
1588,1676,-2e-05,-1e-05,-2e-05,-2e-05,-2e-05,0.0,-2e-05,-1e-05,1
1589,1677,-2e-05,-1e-05,-2e-05,-2e-05,-2e-05,0.0,-2e-05,-1e-05,1
1590,1678,-2e-05,-1e-05,-2e-05,-2e-05,-2e-05,0.0,-2e-05,-1e-05,1
1591,1679,-2e-05,-1e-05,-2e-05,-2e-05,-2e-05,0.0,-2e-05,-1e-05,1
1592,1680,-2e-05,-1e-05,-2e-05,-2e-05,-2e-05,0.0,-2e-05,-1e-05,1
1593,1681,-2e-05,-1e-05,-2e-05,-2e-05,-2e-05,0.0,-2e-05,-1e-05,1
1594,1682,-2e-05,-1e-05,-2e-05,-2e-05,-2e-05,0.0,-2e-05,-1e-05,1
1595,1683,-2e-05,-1e-05,-2e-05,-2e-05,-2e-05,0.0,-2e-05,-1e-05,1
1596,1684,-2e-05,-1e-05,-2e-05,-2e-05,-2e-05,0.0,-2e-05,-1e-05,1
1597,1685,-2e-05,-1e-05,-2e-05,-2e-05,-2e-05,0.0,-2e-05,-1e-05,1
1598,1686,-2e-05,-1e-05,-2e-05,-2e-05,-2e-05,0.0,-2e-05,-1e-05,1
1599,1688,-2e-05,-1e-05,-2e-05,-2e-05,-2e-05,0.0,-2e-05,-1e-05,1
1600,1689,-2e-05,-1e-05,-2e-05,-2e-05,-2e-05,0.0,-2e-05,-1e-05,1
1601,1690,0.0,0.0,2e-05,1e-05,-2e-05,-1e-05,-2e-05,-2e-05,1
1602,1691,-1e-05,-1e-05,-2.9999999999999997e-05,-1e-05,-2.9999999999999997e-05,-2e-05,0.0,0.0,1
1603,1692,-1e-05,-1e-05,-2.9999999999999997e-05,-1e-05,-2.9999999999999997e-05,-2e-05,0.0,0.0,1
1604,1693,-1e-05,-1e-05,-2.9999999999999997e-05,-1e-05,-2.9999999999999997e-05,-2e-05,0.0,0.0,1
1605,1694,-1e-05,-1e-05,-2.9999999999999997e-05,-1e-05,-2.9999999999999997e-05,-2e-05,0.0,0.0,1
1606,1695,-1e-05,-1e-05,-2.9999999999999997e-05,-1e-05,-2.9999999999999997e-05,-2e-05,0.0,0.0,1
1607,1696,-1e-05,-1e-05,-2.9999999999999997e-05,-1e-05,-2.9999999999999997e-05,-2e-05,0.0,0.0,1
1608,1697,-1e-05,-1e-05,-2.9999999999999997e-05,-1e-05,-2.9999999999999997e-05,-2e-05,0.0,0.0,1
1609,1698,-1e-05,-1e-05,-2.9999999999999997e-05,-1e-05,-2.9999999999999997e-05,-2e-05,0.0,0.0,1
1610,1699,-1e-05,-1e-05,-2.9999999999999997e-05,-1e-05,-2.9999999999999997e-05,-2e-05,0.0,0.0,1
1611,1700,-1e-05,-1e-05,-2.9999999999999997e-05,-1e-05,-2.9999999999999997e-05,-2e-05,0.0,0.0,1
1612,1701,-1e-05,-1e-05,-2.9999999999999997e-05,-1e-05,-2.9999999999999997e-05,-2e-05,0.0,0.0,1
1613,1702,-1e-05,-1e-05,-2.9999999999999997e-05,-1e-05,-2.9999999999999997e-05,-2e-05,0.0,0.0,1
1614,1703,-1e-05,-1e-05,-2.9999999999999997e-05,-1e-05,-2.9999999999999997e-05,-2e-05,0.0,0.0,1
1615,1704,-1e-05,-1e-05,-2.9999999999999997e-05,-1e-05,-2.9999999999999997e-05,-2e-05,0.0,0.0,1
1616,1705,-1e-05,-1e-05,-2.9999999999999997e-05,-1e-05,-2.9999999999999997e-05,-2e-05,0.0,0.0,1
1617,1706,-1e-05,-1e-05,-2.9999999999999997e-05,-1e-05,-2.9999999999999997e-05,-2e-05,0.0,0.0,1
1618,1707,-1e-05,-1e-05,-2.9999999999999997e-05,-1e-05,-2.9999999999999997e-05,-2e-05,0.0,0.0,1
1619,1708,-1e-05,-1e-05,-2.9999999999999997e-05,-1e-05,-2.9999999999999997e-05,-2e-05,0.0,0.0,1
1620,1709,-1e-05,-1e-05,-2.9999999999999997e-05,-1e-05,-2.9999999999999997e-05,-2e-05,0.0,0.0,1
1621,1710,-1e-05,-1e-05,-2.9999999999999997e-05,-1e-05,-2.9999999999999997e-05,-2e-05,0.0,0.0,1
1622,1711,-1e-05,-1e-05,-2.9999999999999997e-05,-1e-05,-2.9999999999999997e-05,-2e-05,0.0,0.0,1
1623,1712,-1e-05,-2e-05,-1e-05,1e-05,0.0,-1e-05,-1e-05,0.0,1
1624,1713,-1e-05,-2e-05,-1e-05,1e-05,0.0,-1e-05,-1e-05,0.0,1
1625,1714,-1e-05,-1e-05,-2.9999999999999997e-05,-0.00011,-4e-05,0.0,-1e-05,-1e-05,1
1626,1715,-1e-05,-1e-05,-2.9999999999999997e-05,-0.00011,-4e-05,0.0,-1e-05,-1e-05,1
1627,1716,-1e-05,-1e-05,-2.9999999999999997e-05,-0.00011,-4e-05,0.0,-1e-05,-1e-05,1
1628,1717,-1e-05,-1e-05,-2.9999999999999997e-05,-0.00011,-4e-05,0.0,-1e-05,-1e-05,1
1629,1718,-1e-05,-1e-05,-2.9999999999999997e-05,-0.00011,-4e-05,0.0,-1e-05,-1e-05,1
1630,1719,-1e-05,-1e-05,-2.9999999999999997e-05,-0.00011,-4e-05,0.0,-1e-05,-1e-05,1
1631,1720,-1e-05,-1e-05,-2.9999999999999997e-05,-0.00011,-4e-05,0.0,-1e-05,-1e-05,1
1632,1721,-1e-05,-1e-05,-2.9999999999999997e-05,-0.00011,-4e-05,0.0,-1e-05,-1e-05,1
1633,1722,-1e-05,-1e-05,-2.9999999999999997e-05,-0.00011,-4e-05,0.0,-1e-05,-1e-05,1
1634,1723,-1e-05,-1e-05,-2.9999999999999997e-05,-0.00011,-4e-05,0.0,-1e-05,-1e-05,1
1635,1724,-1e-05,-1e-05,-2.9999999999999997e-05,-0.00011,-4e-05,0.0,-1e-05,-1e-05,1
1636,1725,-1e-05,-1e-05,-2.9999999999999997e-05,-0.00011,-4e-05,0.0,-1e-05,-1e-05,1
1637,1726,-1e-05,-1e-05,0.0,2e-05,1e-05,1e-05,-1e-05,-2e-05,1
1638,1727,-1e-05,-1e-05,0.0,2e-05,1e-05,1e-05,-1e-05,-2e-05,1
1639,1728,-1e-05,-1e-05,0.0,2e-05,1e-05,1e-05,-1e-05,-2e-05,1
1640,1729,-1e-05,-1e-05,0.0,2e-05,1e-05,1e-05,-1e-05,-2e-05,1
1641,1730,-1e-05,-1e-05,0.0,2e-05,1e-05,1e-05,-1e-05,-2e-05,1
1642,1731,-1e-05,-1e-05,0.0,2e-05,1e-05,1e-05,-1e-05,-2e-05,1
1643,1732,-1e-05,-1e-05,0.0,2e-05,1e-05,1e-05,-1e-05,-2e-05,1
1644,1733,-1e-05,-1e-05,0.0,2e-05,1e-05,1e-05,-1e-05,-2e-05,1
1645,1734,-1e-05,-1e-05,0.0,2e-05,1e-05,1e-05,-1e-05,-2e-05,1
1646,1735,-1e-05,-1e-05,-1e-05,-2e-05,0.0,0.0,-2e-05,1e-05,1
1647,1736,-1e-05,-1e-05,-1e-05,-2e-05,0.0,0.0,-2e-05,1e-05,1
1648,1738,-1e-05,-1e-05,-1e-05,-2e-05,0.0,0.0,-2e-05,1e-05,1
1649,1739,-1e-05,-1e-05,-1e-05,-2e-05,0.0,0.0,-2e-05,1e-05,1
1650,1740,-1e-05,-1e-05,-1e-05,-2e-05,0.0,0.0,-2e-05,1e-05,1
1651,1741,-1e-05,-1e-05,-1e-05,-2e-05,0.0,0.0,-2e-05,1e-05,1
1652,1742,-1e-05,-1e-05,-1e-05,-2e-05,0.0,0.0,-2e-05,1e-05,1
1653,1743,-1e-05,-1e-05,-1e-05,-2e-05,0.0,0.0,-2e-05,1e-05,1
1654,1744,-1e-05,-1e-05,-1e-05,-2e-05,0.0,0.0,-2e-05,1e-05,1
1655,1745,-1e-05,-1e-05,-1e-05,-2e-05,0.0,0.0,-2e-05,1e-05,1
1656,1746,-1e-05,-1e-05,-1e-05,-2e-05,0.0,0.0,-2e-05,1e-05,1
1657,1747,-1e-05,-1e-05,-1e-05,-2e-05,0.0,0.0,-2e-05,1e-05,1
1658,1748,-1e-05,-1e-05,-1e-05,-2e-05,0.0,0.0,-2e-05,1e-05,1
1659,1749,-1e-05,-1e-05,-1e-05,-2e-05,0.0,0.0,-2e-05,1e-05,1
1660,1750,-1e-05,-2e-05,-1e-05,2e-05,0.0,-1e-05,0.0,-1e-05,1
1661,1751,-1e-05,-1e-05,-2e-05,-2e-05,-2e-05,0.0,-1e-05,-1e-05,1
1662,1752,-1e-05,-1e-05,-2e-05,-2e-05,-2e-05,0.0,-1e-05,-1e-05,1
1663,1753,-1e-05,-1e-05,-2e-05,-2e-05,-2e-05,0.0,-1e-05,-1e-05,1
1664,1754,-1e-05,-1e-05,-2e-05,-2e-05,-2e-05,0.0,-1e-05,-1e-05,1
1665,1755,-1e-05,-1e-05,-2e-05,-2e-05,-2e-05,0.0,-1e-05,-1e-05,1
1666,1756,-1e-05,-1e-05,-2e-05,-2e-05,-2e-05,0.0,-1e-05,-1e-05,1
1667,1757,-1e-05,-1e-05,-2e-05,-2e-05,-2e-05,0.0,-1e-05,-1e-05,1
1668,1758,-1e-05,-1e-05,-2e-05,-2e-05,-2e-05,0.0,-1e-05,-1e-05,1
1669,1759,-1e-05,-1e-05,-2e-05,-2e-05,-2e-05,0.0,-1e-05,-1e-05,1
1670,1760,-1e-05,-1e-05,-2e-05,-2e-05,-2e-05,0.0,-1e-05,-1e-05,1
1671,1761,-1e-05,-1e-05,-2e-05,-2e-05,-2e-05,0.0,-1e-05,-1e-05,1
1672,1762,-1e-05,-1e-05,-2e-05,-2e-05,-2e-05,0.0,-1e-05,-1e-05,1
1673,1763,-1e-05,-1e-05,-2e-05,-2e-05,-2e-05,0.0,-1e-05,-1e-05,1
1674,1764,-1e-05,-1e-05,-2e-05,-2e-05,-2e-05,0.0,-1e-05,-1e-05,1
1675,1765,-1e-05,-1e-05,-2e-05,-2e-05,-2e-05,0.0,-1e-05,-1e-05,1
1676,1766,-1e-05,-1e-05,-2e-05,-2e-05,-2e-05,0.0,-1e-05,-1e-05,1
1677,1767,-1e-05,-1e-05,-2e-05,-2e-05,-2e-05,0.0,-1e-05,-1e-05,1
1678,1768,-1e-05,-1e-05,-2e-05,-2e-05,-2e-05,0.0,-1e-05,-1e-05,1
1679,1769,-1e-05,-1e-05,-2e-05,-2e-05,-2e-05,0.0,-1e-05,-1e-05,1
1680,1770,-1e-05,-1e-05,-2e-05,-2e-05,-2e-05,0.0,-1e-05,-1e-05,1
1681,1771,-1e-05,-1e-05,-2e-05,-2e-05,-2e-05,0.0,-1e-05,-1e-05,1
1682,1772,-1e-05,0.0,1e-05,2e-05,0.0,2e-05,0.0,1e-05,1
1683,1773,-1e-05,0.0,1e-05,2e-05,0.0,2e-05,0.0,1e-05,1
1684,1774,0.0,-2e-05,-1e-05,2e-05,-2e-05,-2e-05,1e-05,-1e-05,1
1685,1775,0.0,-2e-05,-1e-05,2e-05,-2e-05,-2e-05,1e-05,-1e-05,1
1686,1776,0.0,-2e-05,-1e-05,2e-05,-2e-05,-2e-05,1e-05,-1e-05,1
1687,1777,0.0,-2e-05,-1e-05,2e-05,-2e-05,-2e-05,1e-05,-1e-05,1
1688,1778,0.0,-2e-05,-1e-05,2e-05,-2e-05,-2e-05,1e-05,-1e-05,1
1689,1779,0.0,-2e-05,-1e-05,2e-05,-2e-05,-2e-05,1e-05,-1e-05,1
1690,1780,0.0,-2e-05,-1e-05,2e-05,-2e-05,-2e-05,1e-05,-1e-05,1
1691,1781,0.0,-2e-05,-1e-05,2e-05,-2e-05,-2e-05,1e-05,-1e-05,1
1692,1782,0.0,-2e-05,-1e-05,2e-05,-2e-05,-2e-05,1e-05,-1e-05,1
1693,1783,0.0,-2e-05,-1e-05,2e-05,-2e-05,-2e-05,1e-05,-1e-05,1
1694,1784,0.0,-2e-05,-1e-05,2e-05,-2e-05,-2e-05,1e-05,-1e-05,1
1695,1785,0.0,-2e-05,-1e-05,2e-05,-2e-05,-2e-05,1e-05,-1e-05,1
1696,1786,-1e-05,-1e-05,-1e-05,0.0,2e-05,1e-05,0.0,1e-05,1
1697,1788,-1e-05,-1e-05,-1e-05,0.0,2e-05,1e-05,0.0,1e-05,1
1698,1789,-1e-05,-1e-05,-1e-05,0.0,2e-05,1e-05,0.0,1e-05,1
1699,1790,-1e-05,-1e-05,-1e-05,0.0,2e-05,1e-05,0.0,1e-05,1
1700,1791,-1e-05,-1e-05,-1e-05,0.0,2e-05,1e-05,0.0,1e-05,1
1701,1792,-1e-05,-1e-05,-1e-05,0.0,2e-05,1e-05,0.0,1e-05,1
1702,1793,-1e-05,-1e-05,-1e-05,0.0,2e-05,1e-05,0.0,1e-05,1
1703,1794,-1e-05,-1e-05,-1e-05,0.0,2e-05,1e-05,0.0,1e-05,1
1704,1795,-1e-05,0.0,1e-05,0.0,-1e-05,-2e-05,-2e-05,-2.9999999999999997e-05,1
1705,1796,-1e-05,0.0,1e-05,0.0,-1e-05,-2e-05,-2e-05,-2.9999999999999997e-05,1
1706,1797,-1e-05,0.0,1e-05,0.0,-1e-05,-2e-05,-2e-05,-2.9999999999999997e-05,1
1707,1798,-1e-05,0.0,1e-05,0.0,-1e-05,-2e-05,-2e-05,-2.9999999999999997e-05,1
1708,1799,-1e-05,0.0,1e-05,0.0,-1e-05,-2e-05,-2e-05,-2.9999999999999997e-05,1
1709,1800,-1e-05,0.0,1e-05,0.0,-1e-05,-2e-05,-2e-05,-2.9999999999999997e-05,1
1710,1801,-1e-05,0.0,1e-05,0.0,-1e-05,-2e-05,-2e-05,-2.9999999999999997e-05,1
1711,1802,-1e-05,0.0,1e-05,0.0,-1e-05,-2e-05,-2e-05,-2.9999999999999997e-05,1
1712,1803,-1e-05,0.0,1e-05,0.0,-1e-05,-2e-05,-2e-05,-2.9999999999999997e-05,1
1713,1804,-1e-05,0.0,1e-05,0.0,-1e-05,-2e-05,-2e-05,-2.9999999999999997e-05,1
1714,1805,-1e-05,0.0,1e-05,0.0,-1e-05,-2e-05,-2e-05,-2.9999999999999997e-05,1
1715,1806,-1e-05,0.0,1e-05,0.0,-1e-05,-2e-05,-2e-05,-2.9999999999999997e-05,1
1716,1807,-1e-05,0.0,1e-05,0.0,-1e-05,-2e-05,-2e-05,-2.9999999999999997e-05,1
1717,1808,-1e-05,0.0,1e-05,0.0,-1e-05,-2e-05,-2e-05,-2.9999999999999997e-05,1
1718,1809,-1e-05,0.0,1e-05,0.0,-1e-05,-2e-05,-2e-05,-2.9999999999999997e-05,1
1719,1810,-1e-05,-1e-05,-1e-05,-2.9999999999999997e-05,-2e-05,1e-05,-1e-05,-1e-05,1
1720,1811,-1e-05,-1e-05,1e-05,-5.9999999999999995e-05,1e-05,2e-05,-2e-05,0.0,1
1721,1812,-1e-05,-1e-05,1e-05,-5.9999999999999995e-05,1e-05,2e-05,-2e-05,0.0,1
1722,1813,-1e-05,-1e-05,1e-05,-5.9999999999999995e-05,1e-05,2e-05,-2e-05,0.0,1
1723,1814,-1e-05,-1e-05,1e-05,-5.9999999999999995e-05,1e-05,2e-05,-2e-05,0.0,1
1724,1815,-1e-05,-1e-05,1e-05,-5.9999999999999995e-05,1e-05,2e-05,-2e-05,0.0,1
1725,1816,-1e-05,-1e-05,1e-05,-5.9999999999999995e-05,1e-05,2e-05,-2e-05,0.0,1
1726,1817,-1e-05,-1e-05,1e-05,-5.9999999999999995e-05,1e-05,2e-05,-2e-05,0.0,1
1727,1818,-1e-05,-1e-05,1e-05,-5.9999999999999995e-05,1e-05,2e-05,-2e-05,0.0,1
1728,1819,-1e-05,-1e-05,1e-05,-5.9999999999999995e-05,1e-05,2e-05,-2e-05,0.0,1
1729,1820,-1e-05,-1e-05,1e-05,-5.9999999999999995e-05,1e-05,2e-05,-2e-05,0.0,1
1730,1821,-1e-05,-1e-05,1e-05,-5.9999999999999995e-05,1e-05,2e-05,-2e-05,0.0,1
1731,1822,-1e-05,-1e-05,1e-05,-5.9999999999999995e-05,1e-05,2e-05,-2e-05,0.0,1
1732,1823,-1e-05,-1e-05,1e-05,-5.9999999999999995e-05,1e-05,2e-05,-2e-05,0.0,1
1733,1824,-1e-05,-1e-05,1e-05,-5.9999999999999995e-05,1e-05,2e-05,-2e-05,0.0,1
1734,1825,-1e-05,-1e-05,1e-05,-5.9999999999999995e-05,1e-05,2e-05,-2e-05,0.0,1
1735,1826,-1e-05,-1e-05,1e-05,-5.9999999999999995e-05,1e-05,2e-05,-2e-05,0.0,1
1736,1827,-1e-05,-1e-05,1e-05,-5.9999999999999995e-05,1e-05,2e-05,-2e-05,0.0,1
1737,1828,-1e-05,-1e-05,1e-05,-5.9999999999999995e-05,1e-05,2e-05,-2e-05,0.0,1
1738,1829,-1e-05,-1e-05,1e-05,-5.9999999999999995e-05,1e-05,2e-05,-2e-05,0.0,1
1739,1830,-1e-05,-1e-05,1e-05,-5.9999999999999995e-05,1e-05,2e-05,-2e-05,0.0,1
1740,1831,-1e-05,-1e-05,1e-05,-5.9999999999999995e-05,1e-05,2e-05,-2e-05,0.0,1
1741,1832,-1e-05,-2e-05,-1e-05,-4e-05,-1e-05,-2e-05,0.0,-1e-05,1
1742,1833,-1e-05,-2e-05,-1e-05,-4e-05,-1e-05,-2e-05,0.0,-1e-05,1
1743,1834,0.0,-2e-05,-2e-05,-4e-05,-2e-05,-2e-05,0.0,0.0,1
1744,1835,0.0,-2e-05,-2e-05,-4e-05,-2e-05,-2e-05,0.0,0.0,1
1745,1836,0.0,-2e-05,-2e-05,-4e-05,-2e-05,-2e-05,0.0,0.0,1
1746,1838,0.0,-2e-05,-2e-05,-4e-05,-2e-05,-2e-05,0.0,0.0,1
1747,1839,0.0,-2e-05,-2e-05,-4e-05,-2e-05,-2e-05,0.0,0.0,1
1748,1840,0.0,-2e-05,-2e-05,-4e-05,-2e-05,-2e-05,0.0,0.0,1
1749,1841,0.0,-2e-05,-2e-05,-4e-05,-2e-05,-2e-05,0.0,0.0,1
1750,1842,0.0,-2e-05,-2e-05,-4e-05,-2e-05,-2e-05,0.0,0.0,1
1751,1843,0.0,-2e-05,-2e-05,-4e-05,-2e-05,-2e-05,0.0,0.0,1
1752,1844,0.0,-2e-05,-2e-05,-4e-05,-2e-05,-2e-05,0.0,0.0,1
1753,1845,0.0,-2e-05,-2e-05,-4e-05,-2e-05,-2e-05,0.0,0.0,1
1754,1846,0.0,-2e-05,-2e-05,-4e-05,-2e-05,-2e-05,0.0,0.0,1
1755,1847,0.0,-2e-05,-2e-05,-4e-05,-2e-05,-2e-05,0.0,0.0,1
1756,1848,0.0,-2e-05,-2e-05,-4e-05,-2e-05,-2e-05,0.0,0.0,1
1757,1849,0.0,-2e-05,-2e-05,-4e-05,-2e-05,-2e-05,0.0,0.0,1
1758,1850,0.0,-2e-05,-2e-05,-4e-05,-2e-05,-2e-05,0.0,0.0,1
1759,1851,0.0,-2e-05,-2e-05,-4e-05,-2e-05,-2e-05,0.0,0.0,1
1760,1852,0.0,-2e-05,-2e-05,-4e-05,-2e-05,-2e-05,0.0,0.0,1
1761,1853,0.0,-2e-05,-2e-05,-4e-05,-2e-05,-2e-05,0.0,0.0,1
1762,1854,0.0,-2e-05,-2e-05,-4e-05,-2e-05,-2e-05,0.0,0.0,1
1763,1855,-1e-05,0.0,-1e-05,0.0,-2e-05,-2e-05,-1e-05,0.0,1
1764,1856,0.0,-1e-05,0.0,0.0,-1e-05,-1e-05,-1e-05,0.0,1
1765,1857,0.0,-1e-05,0.0,0.0,-1e-05,-1e-05,-1e-05,0.0,1
1766,1858,0.0,-1e-05,0.0,0.0,-1e-05,-1e-05,-1e-05,0.0,1
1767,1859,0.0,-1e-05,0.0,0.0,-1e-05,-1e-05,-1e-05,0.0,1
1768,1860,0.0,-1e-05,0.0,0.0,-1e-05,-1e-05,-1e-05,0.0,1
1769,1861,0.0,-1e-05,0.0,0.0,-1e-05,-1e-05,-1e-05,0.0,1
1770,1862,0.0,-1e-05,0.0,0.0,-1e-05,-1e-05,-1e-05,0.0,1
1771,1863,0.0,-1e-05,0.0,0.0,-1e-05,-1e-05,-1e-05,0.0,1
1772,1864,0.0,-1e-05,0.0,0.0,-1e-05,-1e-05,-1e-05,0.0,1
1773,1865,0.0,-1e-05,0.0,0.0,-1e-05,-1e-05,-1e-05,0.0,1
1774,1866,0.0,-1e-05,0.0,0.0,-1e-05,-1e-05,-1e-05,0.0,1
1775,1867,0.0,-1e-05,0.0,0.0,-1e-05,-1e-05,-1e-05,0.0,1
1776,1868,0.0,-1e-05,0.0,0.0,-1e-05,-1e-05,-1e-05,0.0,1
1777,1869,0.0,-1e-05,0.0,0.0,-1e-05,-1e-05,-1e-05,0.0,1
1778,1870,-2e-05,-2.9999999999999997e-05,-2e-05,-1e-05,-2e-05,-2.9999999999999997e-05,0.0,-2e-05,1
1779,1871,-1e-05,0.0,0.0,4e-05,0.0,-1e-05,1e-05,1e-05,1
1780,1872,-1e-05,0.0,0.0,4e-05,0.0,-1e-05,1e-05,1e-05,1
1781,1873,-1e-05,0.0,0.0,4e-05,0.0,-1e-05,1e-05,1e-05,1
1782,1874,-1e-05,0.0,0.0,4e-05,0.0,-1e-05,1e-05,1e-05,1
1783,1875,-1e-05,0.0,0.0,4e-05,0.0,-1e-05,1e-05,1e-05,1
1784,1876,-1e-05,0.0,0.0,4e-05,0.0,-1e-05,1e-05,1e-05,1
1785,1877,-1e-05,0.0,0.0,4e-05,0.0,-1e-05,1e-05,1e-05,1
1786,1878,-1e-05,0.0,0.0,4e-05,0.0,-1e-05,1e-05,1e-05,1
1787,1879,-1e-05,0.0,0.0,4e-05,0.0,-1e-05,1e-05,1e-05,1
1788,1880,-1e-05,0.0,0.0,4e-05,0.0,-1e-05,1e-05,1e-05,1
1789,1881,-1e-05,0.0,0.0,4e-05,0.0,-1e-05,1e-05,1e-05,1
1790,1882,-1e-05,0.0,0.0,4e-05,0.0,-1e-05,1e-05,1e-05,1
1791,1883,-1e-05,0.0,0.0,4e-05,0.0,-1e-05,1e-05,1e-05,1
1792,1884,-1e-05,0.0,0.0,4e-05,0.0,-1e-05,1e-05,1e-05,1
1793,1885,-1e-05,0.0,0.0,4e-05,0.0,-1e-05,1e-05,1e-05,1
1794,1886,-1e-05,0.0,0.0,4e-05,0.0,-1e-05,1e-05,1e-05,1
1795,1888,-1e-05,0.0,0.0,4e-05,0.0,-1e-05,1e-05,1e-05,1
1796,1889,-1e-05,0.0,0.0,4e-05,0.0,-1e-05,1e-05,1e-05,1
1797,1890,-1e-05,0.0,0.0,4e-05,0.0,-1e-05,1e-05,1e-05,1
1798,1891,-1e-05,0.0,0.0,4e-05,0.0,-1e-05,1e-05,1e-05,1
1799,1892,0.0,-2e-05,-2e-05,0.0,-1e-05,-1e-05,-1e-05,-1e-05,1
1800,1893,0.0,-2e-05,-2e-05,0.0,-1e-05,-1e-05,-1e-05,-1e-05,1
1801,1894,-2e-05,0.0,-2.9999999999999997e-05,-1e-05,-1e-05,1e-05,1e-05,-1e-05,1
1802,1895,-2e-05,0.0,-2.9999999999999997e-05,-1e-05,-1e-05,1e-05,1e-05,-1e-05,1
1803,1896,-2e-05,0.0,-2.9999999999999997e-05,-1e-05,-1e-05,1e-05,1e-05,-1e-05,1
1804,1897,-2e-05,0.0,-2.9999999999999997e-05,-1e-05,-1e-05,1e-05,1e-05,-1e-05,1
1805,1898,-2e-05,0.0,-2.9999999999999997e-05,-1e-05,-1e-05,1e-05,1e-05,-1e-05,1
1806,1899,-2e-05,0.0,-2.9999999999999997e-05,-1e-05,-1e-05,1e-05,1e-05,-1e-05,1
1807,1900,-2e-05,0.0,-2.9999999999999997e-05,-1e-05,-1e-05,1e-05,1e-05,-1e-05,1
1808,1901,-2e-05,0.0,-2.9999999999999997e-05,-1e-05,-1e-05,1e-05,1e-05,-1e-05,1
1809,1902,-2e-05,0.0,-2.9999999999999997e-05,-1e-05,-1e-05,1e-05,1e-05,-1e-05,1
1810,1903,-2e-05,0.0,-2.9999999999999997e-05,-1e-05,-1e-05,1e-05,1e-05,-1e-05,1
1811,1904,-2e-05,0.0,-2.9999999999999997e-05,-1e-05,-1e-05,1e-05,1e-05,-1e-05,1
1812,1905,-2e-05,0.0,-2.9999999999999997e-05,-1e-05,-1e-05,1e-05,1e-05,-1e-05,1
1813,1906,-2e-05,0.0,-2.9999999999999997e-05,-1e-05,-1e-05,1e-05,1e-05,-1e-05,1
1814,1907,-2e-05,0.0,-2.9999999999999997e-05,-1e-05,-1e-05,1e-05,1e-05,-1e-05,1
1815,1908,-2e-05,0.0,-2.9999999999999997e-05,-1e-05,-1e-05,1e-05,1e-05,-1e-05,1
1816,1909,-2e-05,0.0,-2.9999999999999997e-05,-1e-05,-1e-05,1e-05,1e-05,-1e-05,1
1817,1910,-2e-05,0.0,-2.9999999999999997e-05,-1e-05,-1e-05,1e-05,1e-05,-1e-05,1
1818,1911,-2e-05,0.0,-2.9999999999999997e-05,-1e-05,-1e-05,1e-05,1e-05,-1e-05,1
1819,1912,-2e-05,0.0,-2.9999999999999997e-05,-1e-05,-1e-05,1e-05,1e-05,-1e-05,1
1820,1913,-2e-05,0.0,-2.9999999999999997e-05,-1e-05,-1e-05,1e-05,1e-05,-1e-05,1
1821,1914,-2e-05,0.0,-2.9999999999999997e-05,-1e-05,-1e-05,1e-05,1e-05,-1e-05,1
1822,1915,0.0,-1e-05,-1e-05,-9e-05,-2e-05,-4e-05,-1e-05,-1e-05,1
1823,1916,-1e-05,0.0,1e-05,0.0,-1e-05,-2e-05,-2e-05,-2.9999999999999997e-05,1
1824,1917,-1e-05,0.0,1e-05,0.0,-1e-05,-2e-05,-2e-05,-2.9999999999999997e-05,1
1825,1918,-1e-05,0.0,1e-05,0.0,-1e-05,-2e-05,-2e-05,-2.9999999999999997e-05,1
1826,1919,-1e-05,0.0,1e-05,0.0,-1e-05,-2e-05,-2e-05,-2.9999999999999997e-05,1
1827,1920,-1e-05,0.0,1e-05,0.0,-1e-05,-2e-05,-2e-05,-2.9999999999999997e-05,1
1828,1921,-1e-05,0.0,1e-05,0.0,-1e-05,-2e-05,-2e-05,-2.9999999999999997e-05,1
1829,1922,-1e-05,0.0,1e-05,0.0,-1e-05,-2e-05,-2e-05,-2.9999999999999997e-05,1
1830,1923,-1e-05,0.0,1e-05,0.0,-1e-05,-2e-05,-2e-05,-2.9999999999999997e-05,1
1831,1924,-1e-05,0.0,1e-05,0.0,-1e-05,-2e-05,-2e-05,-2.9999999999999997e-05,1
1832,1925,-1e-05,0.0,1e-05,0.0,-1e-05,-2e-05,-2e-05,-2.9999999999999997e-05,1
1833,1926,-1e-05,0.0,1e-05,0.0,-1e-05,-2e-05,-2e-05,-2.9999999999999997e-05,1
1834,1927,-1e-05,0.0,1e-05,0.0,-1e-05,-2e-05,-2e-05,-2.9999999999999997e-05,1
1835,1928,-1e-05,0.0,1e-05,0.0,-1e-05,-2e-05,-2e-05,-2.9999999999999997e-05,1
1836,1929,-1e-05,0.0,1e-05,0.0,-1e-05,-2e-05,-2e-05,-2.9999999999999997e-05,1
1837,1930,1e-05,-1e-05,-2e-05,1e-05,0.0,2e-05,0.0,-1e-05,1
1838,1931,0.0,-2e-05,0.0,0.0,-2e-05,0.0,0.0,-1e-05,1
1839,1932,0.0,-2e-05,0.0,0.0,-2e-05,0.0,0.0,-1e-05,1
1840,1933,0.0,-2e-05,0.0,0.0,-2e-05,0.0,0.0,-1e-05,1
1841,1934,0.0,-2e-05,0.0,0.0,-2e-05,0.0,0.0,-1e-05,1
1842,1935,0.0,-2e-05,0.0,0.0,-2e-05,0.0,0.0,-1e-05,1
1843,1936,0.0,-2e-05,0.0,0.0,-2e-05,0.0,0.0,-1e-05,1
1844,1938,0.0,-2e-05,0.0,0.0,-2e-05,0.0,0.0,-1e-05,1
1845,1939,0.0,-2e-05,0.0,0.0,-2e-05,0.0,0.0,-1e-05,1
1846,1940,0.0,-2e-05,0.0,0.0,-2e-05,0.0,0.0,-1e-05,1
1847,1941,0.0,-2e-05,0.0,0.0,-2e-05,0.0,0.0,-1e-05,1
1848,1942,0.0,-2e-05,0.0,0.0,-2e-05,0.0,0.0,-1e-05,1
1849,1943,0.0,-2e-05,0.0,0.0,-2e-05,0.0,0.0,-1e-05,1
1850,1944,0.0,-2e-05,0.0,0.0,-2e-05,0.0,0.0,-1e-05,1
1851,1945,0.0,-2e-05,0.0,0.0,-2e-05,0.0,0.0,-1e-05,1
1852,1946,0.0,-2e-05,0.0,0.0,-2e-05,0.0,0.0,-1e-05,1
1853,1947,0.0,-2e-05,0.0,0.0,-2e-05,0.0,0.0,-1e-05,1
1854,1948,0.0,-2e-05,0.0,0.0,-2e-05,0.0,0.0,-1e-05,1
1855,1949,0.0,-2e-05,0.0,0.0,-2e-05,0.0,0.0,-1e-05,1
1856,1950,0.0,-2e-05,0.0,0.0,-2e-05,0.0,0.0,-1e-05,1
1857,1951,0.0,-2e-05,0.0,0.0,-2e-05,0.0,0.0,-1e-05,1
1858,1952,-1e-05,-1e-05,-2e-05,-4e-05,0.0,-2.9999999999999997e-05,-1e-05,1e-05,1
1859,1953,-1e-05,-1e-05,-2e-05,-4e-05,0.0,-2.9999999999999997e-05,-1e-05,1e-05,1
1860,1954,-1e-05,-2e-05,-1e-05,1e-05,-1e-05,-1e-05,-1e-05,-1e-05,1
1861,1955,-1e-05,-2e-05,-1e-05,1e-05,-1e-05,-1e-05,-1e-05,-1e-05,1
1862,1956,-1e-05,-2e-05,-1e-05,1e-05,-1e-05,-1e-05,-1e-05,-1e-05,1
1863,1957,-1e-05,-2e-05,-1e-05,1e-05,-1e-05,-1e-05,-1e-05,-1e-05,1
1864,1958,-1e-05,-2e-05,-1e-05,1e-05,-1e-05,-1e-05,-1e-05,-1e-05,1
1865,1959,-1e-05,-2e-05,-1e-05,1e-05,-1e-05,-1e-05,-1e-05,-1e-05,1
1866,1960,-1e-05,-2e-05,-1e-05,1e-05,-1e-05,-1e-05,-1e-05,-1e-05,1
1867,1961,-1e-05,-2e-05,-1e-05,1e-05,-1e-05,-1e-05,-1e-05,-1e-05,1
1868,1962,-1e-05,-2e-05,-1e-05,1e-05,-1e-05,-1e-05,-1e-05,-1e-05,1
1869,1963,-1e-05,-2e-05,-1e-05,1e-05,-1e-05,-1e-05,-1e-05,-1e-05,1
1870,1964,-1e-05,-2e-05,-1e-05,1e-05,-1e-05,-1e-05,-1e-05,-1e-05,1
1871,1965,-1e-05,-2e-05,-1e-05,1e-05,-1e-05,-1e-05,-1e-05,-1e-05,1
1872,1966,-1e-05,-2e-05,-1e-05,1e-05,-1e-05,-1e-05,-1e-05,-1e-05,1
1873,1967,-1e-05,-2e-05,-1e-05,1e-05,-1e-05,-1e-05,-1e-05,-1e-05,1
1874,1968,-1e-05,-2e-05,-1e-05,1e-05,-1e-05,-1e-05,-1e-05,-1e-05,1
1875,1969,-1e-05,-2e-05,-1e-05,1e-05,-1e-05,-1e-05,-1e-05,-1e-05,1
1876,1970,-1e-05,-2e-05,-1e-05,1e-05,-1e-05,-1e-05,-1e-05,-1e-05,1
1877,1971,-1e-05,-2e-05,-1e-05,1e-05,-1e-05,-1e-05,-1e-05,-1e-05,1
1878,1972,-1e-05,-2e-05,-1e-05,1e-05,-1e-05,-1e-05,-1e-05,-1e-05,1
1879,1973,-1e-05,-2e-05,-1e-05,1e-05,-1e-05,-1e-05,-1e-05,-1e-05,1
1880,1974,-1e-05,-2e-05,-1e-05,1e-05,-1e-05,-1e-05,-1e-05,-1e-05,1
1881,1975,-1e-05,-1e-05,-1e-05,2e-05,-1e-05,0.0,-2e-05,0.0,1
1882,1976,0.0,-1e-05,-1e-05,1e-05,1e-05,0.0,-2.9999999999999997e-05,-1e-05,1
1883,1977,0.0,-1e-05,-1e-05,1e-05,1e-05,0.0,-2.9999999999999997e-05,-1e-05,1
1884,1978,0.0,-1e-05,-1e-05,1e-05,1e-05,0.0,-2.9999999999999997e-05,-1e-05,1
1885,1979,0.0,-1e-05,-1e-05,1e-05,1e-05,0.0,-2.9999999999999997e-05,-1e-05,1
1886,1980,0.0,-1e-05,-1e-05,1e-05,1e-05,0.0,-2.9999999999999997e-05,-1e-05,1
1887,1981,0.0,-1e-05,-1e-05,1e-05,1e-05,0.0,-2.9999999999999997e-05,-1e-05,1
1888,1982,0.0,-1e-05,-1e-05,1e-05,1e-05,0.0,-2.9999999999999997e-05,-1e-05,1
1889,1983,0.0,-1e-05,-1e-05,1e-05,1e-05,0.0,-2.9999999999999997e-05,-1e-05,1
1890,1984,0.0,-1e-05,-1e-05,1e-05,1e-05,0.0,-2.9999999999999997e-05,-1e-05,1
1891,1985,0.0,-1e-05,-1e-05,1e-05,1e-05,0.0,-2.9999999999999997e-05,-1e-05,1
1892,1986,0.0,-1e-05,-1e-05,1e-05,1e-05,0.0,-2.9999999999999997e-05,-1e-05,1
1893,1988,0.0,-1e-05,-1e-05,1e-05,1e-05,0.0,-2.9999999999999997e-05,-1e-05,1
1894,1989,0.0,-1e-05,-1e-05,1e-05,1e-05,0.0,-2.9999999999999997e-05,-1e-05,1
1895,1990,0.0,-1e-05,-1e-05,1e-05,1e-05,0.0,-2.9999999999999997e-05,-1e-05,1
1896,1991,0.0,-1e-05,-1e-05,1e-05,1e-05,0.0,-2.9999999999999997e-05,-1e-05,1
1897,1992,0.0,-1e-05,-1e-05,1e-05,1e-05,0.0,-2.9999999999999997e-05,-1e-05,1
1898,1993,0.0,-1e-05,-1e-05,1e-05,1e-05,0.0,-2.9999999999999997e-05,-1e-05,1
1899,1994,0.0,-1e-05,-1e-05,1e-05,1e-05,0.0,-2.9999999999999997e-05,-1e-05,1
1900,1995,0.0,-1e-05,-1e-05,1e-05,1e-05,0.0,-2.9999999999999997e-05,-1e-05,1
1901,1996,0.0,-1e-05,-1e-05,1e-05,1e-05,0.0,-2.9999999999999997e-05,-1e-05,1
1902,1997,-2e-05,-1e-05,-2e-05,0.0,-2e-05,-1e-05,-1e-05,0.0,1
1903,1998,-2e-05,-1e-05,-2e-05,0.0,-2e-05,-1e-05,-1e-05,0.0,1
1904,1999,-2e-05,0.0,0.0,0.0,-1e-05,-2e-05,0.0,-1e-05,1
1905,2000,-2e-05,0.0,0.0,0.0,-1e-05,-2e-05,0.0,-1e-05,1
1906,2001,-2e-05,0.0,0.0,0.0,-1e-05,-2e-05,0.0,-1e-05,1
1907,2002,-2e-05,0.0,0.0,0.0,-1e-05,-2e-05,0.0,-1e-05,1
1908,2003,-2e-05,0.0,0.0,0.0,-1e-05,-2e-05,0.0,-1e-05,1
1909,2004,-2e-05,0.0,0.0,0.0,-1e-05,-2e-05,0.0,-1e-05,1
1910,2005,-2e-05,0.0,0.0,0.0,-1e-05,-2e-05,0.0,-1e-05,1
1911,2006,-2e-05,0.0,0.0,0.0,-1e-05,-2e-05,0.0,-1e-05,1
1912,2007,-2e-05,0.0,0.0,0.0,-1e-05,-2e-05,0.0,-1e-05,1
1913,2008,-2e-05,0.0,0.0,0.0,-1e-05,-2e-05,0.0,-1e-05,1
1914,2009,-2e-05,0.0,0.0,0.0,-1e-05,-2e-05,0.0,-1e-05,1
1915,2010,-2e-05,0.0,0.0,0.0,-1e-05,-2e-05,0.0,-1e-05,1
1916,2011,-2e-05,0.0,0.0,0.0,-1e-05,-2e-05,0.0,-1e-05,1
1917,2012,-2e-05,0.0,-1e-05,0.0,-2e-05,-1e-05,-1e-05,-2e-05,1
1918,2013,-2e-05,0.0,-1e-05,0.0,-2e-05,-1e-05,-1e-05,-2e-05,1
1919,2014,-1e-05,-1e-05,-1e-05,-4e-05,0.0,0.0,0.0,1e-05,1
1920,2015,-1e-05,-1e-05,-1e-05,-4e-05,0.0,0.0,0.0,1e-05,1
1921,2016,-1e-05,-1e-05,-1e-05,-4e-05,0.0,0.0,0.0,1e-05,1
1922,2017,-1e-05,-1e-05,-1e-05,-4e-05,0.0,0.0,0.0,1e-05,1
1923,2018,-1e-05,-1e-05,-1e-05,-4e-05,0.0,0.0,0.0,1e-05,1
1924,2019,-1e-05,-1e-05,-1e-05,-4e-05,0.0,0.0,0.0,1e-05,1
1925,2020,-1e-05,-1e-05,-1e-05,-4e-05,0.0,0.0,0.0,1e-05,1
1926,2021,-1e-05,-1e-05,-1e-05,-4e-05,0.0,0.0,0.0,1e-05,1
1927,2022,-1e-05,-1e-05,-1e-05,-4e-05,0.0,0.0,0.0,1e-05,1
1928,2023,-1e-05,-1e-05,-1e-05,-4e-05,0.0,0.0,0.0,1e-05,1
1929,2024,-1e-05,-1e-05,-1e-05,-4e-05,0.0,0.0,0.0,1e-05,1
1930,2025,-1e-05,-1e-05,-1e-05,-4e-05,0.0,0.0,0.0,1e-05,1
1931,2026,-1e-05,-1e-05,-1e-05,-4e-05,0.0,0.0,0.0,1e-05,1
1932,2027,-1e-05,-1e-05,-1e-05,-4e-05,0.0,0.0,0.0,1e-05,1
1933,2028,-1e-05,-1e-05,-1e-05,-4e-05,0.0,0.0,0.0,1e-05,1
1934,2029,-1e-05,-1e-05,-1e-05,-4e-05,0.0,0.0,0.0,1e-05,1
1935,2030,-1e-05,-1e-05,-1e-05,-4e-05,0.0,0.0,0.0,1e-05,1
1936,2031,-1e-05,-1e-05,-1e-05,-4e-05,0.0,0.0,0.0,1e-05,1
1937,2032,-1e-05,-1e-05,-1e-05,-4e-05,0.0,0.0,0.0,1e-05,1
1938,2033,-1e-05,-1e-05,-1e-05,-4e-05,0.0,0.0,0.0,1e-05,1
1939,2034,-1e-05,-1e-05,-1e-05,-4e-05,0.0,0.0,0.0,1e-05,1
1940,2035,-1e-05,2e-05,1e-05,-1e-05,0.0,0.0,-1e-05,-1e-05,1
1941,2036,-1e-05,-2.9999999999999997e-05,-1e-05,-4e-05,-4e-05,-1e-05,-2.9999999999999997e-05,-1e-05,1
1942,2038,-1e-05,-2.9999999999999997e-05,-1e-05,-4e-05,-4e-05,-1e-05,-2.9999999999999997e-05,-1e-05,1
1943,2039,-1e-05,-2.9999999999999997e-05,-1e-05,-4e-05,-4e-05,-1e-05,-2.9999999999999997e-05,-1e-05,1
1944,2040,-1e-05,-2.9999999999999997e-05,-1e-05,-4e-05,-4e-05,-1e-05,-2.9999999999999997e-05,-1e-05,1
1945,2042,-1e-05,-2.9999999999999997e-05,-1e-05,-4e-05,-4e-05,-1e-05,-2.9999999999999997e-05,-1e-05,1
1946,2043,-1e-05,-2.9999999999999997e-05,-1e-05,-4e-05,-4e-05,-1e-05,-2.9999999999999997e-05,-1e-05,1
1947,2044,-1e-05,-2.9999999999999997e-05,-1e-05,-4e-05,-4e-05,-1e-05,-2.9999999999999997e-05,-1e-05,1
1948,2045,-1e-05,-2.9999999999999997e-05,-1e-05,-4e-05,-4e-05,-1e-05,-2.9999999999999997e-05,-1e-05,1
1949,2046,-1e-05,-2.9999999999999997e-05,-1e-05,-4e-05,-4e-05,-1e-05,-2.9999999999999997e-05,-1e-05,1
1950,2047,-1e-05,-2.9999999999999997e-05,-1e-05,-4e-05,-4e-05,-1e-05,-2.9999999999999997e-05,-1e-05,1
1951,2049,-1e-05,-2.9999999999999997e-05,-1e-05,-4e-05,-4e-05,-1e-05,-2.9999999999999997e-05,-1e-05,1
1952,2050,-1e-05,-2.9999999999999997e-05,-1e-05,-4e-05,-4e-05,-1e-05,-2.9999999999999997e-05,-1e-05,1
1953,2052,-1e-05,-2.9999999999999997e-05,-1e-05,-4e-05,-4e-05,-1e-05,-2.9999999999999997e-05,-1e-05,1
1954,2053,0.0,-1e-05,-1e-05,-1e-05,-1e-05,1e-05,-1e-05,-2e-05,1
1955,2054,0.0,-1e-05,-1e-05,-1e-05,-1e-05,1e-05,-1e-05,-2e-05,1
1956,2055,0.0,-1e-05,-1e-05,-1e-05,-1e-05,1e-05,-1e-05,-2e-05,1
1957,2056,-1e-05,-1e-05,-2.9999999999999997e-05,0.0,-1e-05,-1e-05,1e-05,0.0,1
1958,2057,-1e-05,-1e-05,-2.9999999999999997e-05,0.0,-1e-05,-1e-05,1e-05,0.0,1
1959,2058,-1e-05,-1e-05,-2.9999999999999997e-05,0.0,-1e-05,-1e-05,1e-05,0.0,1
1960,2059,-1e-05,-1e-05,-2.9999999999999997e-05,0.0,-1e-05,-1e-05,1e-05,0.0,1
1961,2060,-1e-05,-1e-05,-2.9999999999999997e-05,0.0,-1e-05,-1e-05,1e-05,0.0,1
1962,2061,-1e-05,-1e-05,-2.9999999999999997e-05,0.0,-1e-05,-1e-05,1e-05,0.0,1
1963,2062,-1e-05,-1e-05,-2.9999999999999997e-05,0.0,-1e-05,-1e-05,1e-05,0.0,1
1964,2063,-1e-05,-1e-05,-2.9999999999999997e-05,0.0,-1e-05,-1e-05,1e-05,0.0,1
1965,2064,-1e-05,-1e-05,-2.9999999999999997e-05,0.0,-1e-05,-1e-05,1e-05,0.0,1
1966,2065,-1e-05,-1e-05,-2.9999999999999997e-05,0.0,-1e-05,-1e-05,1e-05,0.0,1
1967,2066,-1e-05,-1e-05,-2.9999999999999997e-05,0.0,-1e-05,-1e-05,1e-05,0.0,1
1968,2067,-1e-05,-1e-05,-2.9999999999999997e-05,0.0,-1e-05,-1e-05,1e-05,0.0,1
1969,2068,-1e-05,-1e-05,-2.9999999999999997e-05,0.0,-1e-05,-1e-05,1e-05,0.0,1
1970,2069,-1e-05,-1e-05,-2.9999999999999997e-05,0.0,-1e-05,-1e-05,1e-05,0.0,1
1971,2070,-1e-05,-1e-05,-2.9999999999999997e-05,0.0,-1e-05,-1e-05,1e-05,0.0,1
1972,2071,-1e-05,-1e-05,-2.9999999999999997e-05,0.0,-1e-05,-1e-05,1e-05,0.0,1
1973,2072,0.0,-1e-05,0.0,2e-05,0.0,-1e-05,-2e-05,0.0,1
1974,2073,0.0,-1e-05,0.0,2e-05,0.0,-1e-05,-2e-05,0.0,1
1975,2074,-1e-05,-1e-05,0.0,-2e-05,-2e-05,-1e-05,-1e-05,-1e-05,1
1976,2075,-1e-05,-1e-05,0.0,-2e-05,-2e-05,-1e-05,-1e-05,-1e-05,1
1977,2076,-1e-05,-1e-05,0.0,-2e-05,-2e-05,-1e-05,-1e-05,-1e-05,1
1978,2077,-1e-05,-1e-05,0.0,-2e-05,-2e-05,-1e-05,-1e-05,-1e-05,1
1979,2078,-1e-05,-1e-05,0.0,-2e-05,-2e-05,-1e-05,-1e-05,-1e-05,1
1980,2079,-1e-05,-1e-05,0.0,-2e-05,-2e-05,-1e-05,-1e-05,-1e-05,1
1981,2080,-1e-05,-1e-05,0.0,-2e-05,-2e-05,-1e-05,-1e-05,-1e-05,1
1982,2081,-1e-05,-1e-05,0.0,-2e-05,-2e-05,-1e-05,-1e-05,-1e-05,1
1983,2082,-1e-05,-1e-05,0.0,-2e-05,-2e-05,-1e-05,-1e-05,-1e-05,1
1984,2083,-1e-05,-1e-05,0.0,-2e-05,-2e-05,-1e-05,-1e-05,-1e-05,1
1985,2084,-1e-05,-1e-05,0.0,-2e-05,-2e-05,-1e-05,-1e-05,-1e-05,1
1986,2085,-1e-05,-1e-05,0.0,-2e-05,-2e-05,-1e-05,-1e-05,-1e-05,1
1987,2087,-1e-05,-1e-05,0.0,-2e-05,-2e-05,-1e-05,-1e-05,-1e-05,1
1988,2090,-1e-05,-1e-05,0.0,-2e-05,-2e-05,-1e-05,-1e-05,-1e-05,1
1989,2091,-1e-05,-1e-05,0.0,-2e-05,-2e-05,-1e-05,-1e-05,-1e-05,1
1990,2092,-1e-05,-1e-05,0.0,-2e-05,-2e-05,-1e-05,-1e-05,-1e-05,1
1991,2093,-1e-05,-1e-05,0.0,-2e-05,-2e-05,-1e-05,-1e-05,-1e-05,1
1992,2094,-1e-05,-1e-05,0.0,-2e-05,-2e-05,-1e-05,-1e-05,-1e-05,1
1993,2095,-2e-05,-2e-05,-1e-05,-1e-05,0.0,-2e-05,-1e-05,0.0,1
1994,2096,-2e-05,-2e-05,-2e-05,1e-05,-1e-05,-2.9999999999999997e-05,-1e-05,-2e-05,1
1995,2097,-2e-05,-2e-05,-2e-05,1e-05,-1e-05,-2.9999999999999997e-05,-1e-05,-2e-05,1
1996,2098,-2e-05,-2e-05,-2e-05,1e-05,-1e-05,-2.9999999999999997e-05,-1e-05,-2e-05,1
1997,2099,-2e-05,-2e-05,-2e-05,1e-05,-1e-05,-2.9999999999999997e-05,-1e-05,-2e-05,1
1998,2100,-2e-05,-2e-05,-2e-05,1e-05,-1e-05,-2.9999999999999997e-05,-1e-05,-2e-05,1
1999,2101,-2e-05,-2e-05,-2e-05,1e-05,-1e-05,-2.9999999999999997e-05,-1e-05,-2e-05,1
2000,2102,-2e-05,-2e-05,-2e-05,1e-05,-1e-05,-2.9999999999999997e-05,-1e-05,-2e-05,1
2001,2103,-2e-05,-2e-05,-2e-05,1e-05,-1e-05,-2.9999999999999997e-05,-1e-05,-2e-05,1
2002,2104,-2e-05,-2e-05,-2e-05,1e-05,-1e-05,-2.9999999999999997e-05,-1e-05,-2e-05,1
2003,2105,-2e-05,-2e-05,-2e-05,1e-05,-1e-05,-2.9999999999999997e-05,-1e-05,-2e-05,1
2004,2106,-2e-05,-2e-05,-2e-05,1e-05,-1e-05,-2.9999999999999997e-05,-1e-05,-2e-05,1
2005,2107,-2e-05,-2e-05,-2e-05,1e-05,-1e-05,-2.9999999999999997e-05,-1e-05,-2e-05,1
2006,2108,-2e-05,-2e-05,-2e-05,1e-05,-1e-05,-2.9999999999999997e-05,-1e-05,-2e-05,1
2007,2109,-1e-05,-2e-05,-1e-05,-2e-05,-1e-05,-2.9999999999999997e-05,-1e-05,-1e-05,1
2008,2110,-1e-05,-2e-05,-1e-05,-2e-05,-1e-05,-2.9999999999999997e-05,-1e-05,-1e-05,1
2009,2111,-1e-05,-2e-05,-1e-05,-2e-05,-1e-05,-2.9999999999999997e-05,-1e-05,-1e-05,1
2010,2112,-1e-05,-2e-05,-1e-05,-2e-05,-1e-05,-2.9999999999999997e-05,-1e-05,-1e-05,1
2011,2113,-1e-05,-2e-05,-1e-05,-2e-05,-1e-05,-2.9999999999999997e-05,-1e-05,-1e-05,1
2012,2114,-1e-05,-2e-05,-1e-05,-2e-05,-1e-05,-2.9999999999999997e-05,-1e-05,-1e-05,1
2013,2115,-1e-05,-2e-05,-1e-05,-2e-05,-1e-05,-2.9999999999999997e-05,-1e-05,-1e-05,1
2014,2116,-1e-05,0.0,-2e-05,2e-05,0.0,0.0,-1e-05,0.0,1
2015,2117,-1e-05,0.0,-2e-05,2e-05,0.0,0.0,-1e-05,0.0,1
2016,2118,-1e-05,0.0,-2e-05,2e-05,0.0,0.0,-1e-05,0.0,1
2017,2119,-1e-05,0.0,-2e-05,2e-05,0.0,0.0,-1e-05,0.0,1
2018,2120,-1e-05,0.0,-2e-05,2e-05,0.0,0.0,-1e-05,0.0,1
2019,2121,-1e-05,0.0,-2e-05,2e-05,0.0,0.0,-1e-05,0.0,1
2020,2122,-1e-05,0.0,-2e-05,2e-05,0.0,0.0,-1e-05,0.0,1
2021,2123,-1e-05,0.0,-2e-05,2e-05,0.0,0.0,-1e-05,0.0,1
2022,2124,-1e-05,0.0,-2e-05,2e-05,0.0,0.0,-1e-05,0.0,1
2023,2125,-1e-05,0.0,-2e-05,2e-05,0.0,0.0,-1e-05,0.0,1
2024,2126,-1e-05,0.0,-2e-05,2e-05,0.0,0.0,-1e-05,0.0,1
2025,2127,-1e-05,0.0,-2e-05,2e-05,0.0,0.0,-1e-05,0.0,1
2026,2128,-1e-05,0.0,-2e-05,2e-05,0.0,0.0,-1e-05,0.0,1
2027,2129,-1e-05,0.0,-2e-05,2e-05,0.0,0.0,-1e-05,0.0,1
2028,2130,-1e-05,0.0,-2e-05,2e-05,0.0,0.0,-1e-05,0.0,1
2029,2131,-1e-05,0.0,-2e-05,2e-05,0.0,0.0,-1e-05,0.0,1
2030,2132,-1e-05,-2e-05,-1e-05,-1e-05,-2.9999999999999997e-05,0.0,1e-05,-2e-05,1
2031,2133,-1e-05,-2e-05,-1e-05,-1e-05,-2.9999999999999997e-05,0.0,1e-05,-2e-05,1
2032,2134,-1e-05,-2e-05,-1e-05,-5e-05,-2e-05,0.0,-1e-05,-1e-05,1
2033,2135,-1e-05,-2e-05,-1e-05,-5e-05,-2e-05,0.0,-1e-05,-1e-05,1
2034,2136,-1e-05,-2e-05,-1e-05,-5e-05,-2e-05,0.0,-1e-05,-1e-05,1
2035,2138,-1e-05,-2e-05,-1e-05,-5e-05,-2e-05,0.0,-1e-05,-1e-05,1
2036,2139,-1e-05,-2e-05,-1e-05,-5e-05,-2e-05,0.0,-1e-05,-1e-05,1
2037,2140,-1e-05,-2e-05,-1e-05,-5e-05,-2e-05,0.0,-1e-05,-1e-05,1
2038,2141,-1e-05,-2e-05,-1e-05,-5e-05,-2e-05,0.0,-1e-05,-1e-05,1
2039,2142,-1e-05,-2e-05,-1e-05,-5e-05,-2e-05,0.0,-1e-05,-1e-05,1
2040,2143,-1e-05,-2e-05,-1e-05,-5e-05,-2e-05,0.0,-1e-05,-1e-05,1
2041,2144,-1e-05,-2e-05,-1e-05,-5e-05,-2e-05,0.0,-1e-05,-1e-05,1
2042,2145,-1e-05,-2e-05,-1e-05,-5e-05,-2e-05,0.0,-1e-05,-1e-05,1
2043,2146,-1e-05,-2e-05,-1e-05,-5e-05,-2e-05,0.0,-1e-05,-1e-05,1
2044,2147,-1e-05,-2e-05,-1e-05,-5e-05,-2e-05,0.0,-1e-05,-1e-05,1
2045,2148,-1e-05,-2e-05,-1e-05,-5e-05,-2e-05,0.0,-1e-05,-1e-05,1
2046,2149,-1e-05,-2e-05,-1e-05,-5e-05,-2e-05,0.0,-1e-05,-1e-05,1
2047,2150,-1e-05,-2e-05,-1e-05,-5e-05,-2e-05,0.0,-1e-05,-1e-05,1
2048,2151,-1e-05,-2e-05,-1e-05,-5e-05,-2e-05,0.0,-1e-05,-1e-05,1
2049,2152,-1e-05,-2e-05,-1e-05,-5e-05,-2e-05,0.0,-1e-05,-1e-05,1
2050,2153,-1e-05,-2e-05,-1e-05,-5e-05,-2e-05,0.0,-1e-05,-1e-05,1
2051,2154,-1e-05,-2e-05,-1e-05,-5e-05,-2e-05,0.0,-1e-05,-1e-05,1
2052,2155,-1e-05,-2e-05,-2.9999999999999997e-05,1e-05,1e-05,-2.9999999999999997e-05,-1e-05,-2e-05,1
2053,2156,-1e-05,0.0,-1e-05,0.0,0.0,-1e-05,-1e-05,-1e-05,1
2054,2157,-1e-05,0.0,-1e-05,0.0,0.0,-1e-05,-1e-05,-1e-05,1
2055,2158,-1e-05,0.0,-1e-05,0.0,0.0,-1e-05,-1e-05,-1e-05,1
2056,2159,-1e-05,0.0,-1e-05,0.0,0.0,-1e-05,-1e-05,-1e-05,1
2057,2160,-1e-05,0.0,-1e-05,0.0,0.0,-1e-05,-1e-05,-1e-05,1
2058,2161,-1e-05,0.0,-1e-05,0.0,0.0,-1e-05,-1e-05,-1e-05,1
2059,2162,-1e-05,0.0,-1e-05,0.0,0.0,-1e-05,-1e-05,-1e-05,1
2060,2163,-1e-05,0.0,-1e-05,0.0,0.0,-1e-05,-1e-05,-1e-05,1
2061,2164,-1e-05,0.0,-1e-05,0.0,0.0,-1e-05,-1e-05,-1e-05,1
2062,2165,-1e-05,0.0,-1e-05,0.0,0.0,-1e-05,-1e-05,-1e-05,1
2063,2166,-1e-05,0.0,-1e-05,0.0,0.0,-1e-05,-1e-05,-1e-05,1
2064,2167,-1e-05,0.0,-1e-05,0.0,0.0,-1e-05,-1e-05,-1e-05,1
2065,2168,1e-05,2e-05,0.0,-2e-05,-2.9999999999999997e-05,0.0,0.0,-2e-05,1
2066,2169,1e-05,2e-05,0.0,-2e-05,-2.9999999999999997e-05,0.0,0.0,-2e-05,1
2067,2170,1e-05,2e-05,0.0,-2e-05,-2.9999999999999997e-05,0.0,0.0,-2e-05,1
2068,2171,1e-05,2e-05,0.0,-2e-05,-2.9999999999999997e-05,0.0,0.0,-2e-05,1
2069,2172,1e-05,2e-05,0.0,-2e-05,-2.9999999999999997e-05,0.0,0.0,-2e-05,1
2070,2173,1e-05,2e-05,0.0,-2e-05,-2.9999999999999997e-05,0.0,0.0,-2e-05,1
2071,2174,1e-05,2e-05,0.0,-2e-05,-2.9999999999999997e-05,0.0,0.0,-2e-05,1
2072,2175,1e-05,2e-05,0.0,-2e-05,-2.9999999999999997e-05,0.0,0.0,-2e-05,1
2073,2176,1e-05,2e-05,0.0,-2e-05,-2.9999999999999997e-05,0.0,0.0,-2e-05,1
2074,2177,0.0,-2.9999999999999997e-05,-2e-05,-1e-05,0.0,-1e-05,-1e-05,0.0,1
2075,2178,0.0,-2.9999999999999997e-05,-2e-05,-1e-05,0.0,-1e-05,-1e-05,0.0,1
2076,2179,0.0,-2.9999999999999997e-05,-2e-05,-1e-05,0.0,-1e-05,-1e-05,0.0,1
2077,2180,0.0,-2.9999999999999997e-05,-2e-05,-1e-05,0.0,-1e-05,-1e-05,0.0,1
2078,2181,0.0,-2.9999999999999997e-05,-2e-05,-1e-05,0.0,-1e-05,-1e-05,0.0,1
2079,2182,0.0,-2.9999999999999997e-05,-2e-05,-1e-05,0.0,-1e-05,-1e-05,0.0,1
2080,2183,0.0,-2.9999999999999997e-05,-2e-05,-1e-05,0.0,-1e-05,-1e-05,0.0,1
2081,2184,0.0,-2.9999999999999997e-05,-2e-05,-1e-05,0.0,-1e-05,-1e-05,0.0,1
2082,2185,0.0,-2.9999999999999997e-05,-2e-05,-1e-05,0.0,-1e-05,-1e-05,0.0,1
2083,2186,0.0,-2.9999999999999997e-05,-2e-05,-1e-05,0.0,-1e-05,-1e-05,0.0,1
2084,2188,0.0,-2.9999999999999997e-05,-2e-05,-1e-05,0.0,-1e-05,-1e-05,0.0,1
2085,2189,0.0,-2.9999999999999997e-05,-2e-05,-1e-05,0.0,-1e-05,-1e-05,0.0,1
2086,2190,0.0,-2.9999999999999997e-05,-2e-05,-1e-05,0.0,-1e-05,-1e-05,0.0,1
2087,2192,-1e-05,-1e-05,-1e-05,0.0,1e-05,1e-05,0.0,0.0,1
2088,2193,-1e-05,-1e-05,-1e-05,0.0,1e-05,1e-05,0.0,0.0,1
2089,2194,0.0,-1e-05,0.0,1e-05,0.0,0.0,-1e-05,-2e-05,1
2090,2195,0.0,-1e-05,0.0,1e-05,0.0,0.0,-1e-05,-2e-05,1
2091,2196,0.0,-1e-05,0.0,1e-05,0.0,0.0,-1e-05,-2e-05,1
2092,2197,0.0,-1e-05,0.0,1e-05,0.0,0.0,-1e-05,-2e-05,1
2093,2198,0.0,-1e-05,0.0,1e-05,0.0,0.0,-1e-05,-2e-05,1
2094,2199,0.0,-1e-05,0.0,1e-05,0.0,0.0,-1e-05,-2e-05,1
2095,2200,0.0,-1e-05,0.0,1e-05,0.0,0.0,-1e-05,-2e-05,1
2096,2201,0.0,-1e-05,0.0,1e-05,0.0,0.0,-1e-05,-2e-05,1
2097,2202,0.0,-1e-05,0.0,1e-05,0.0,0.0,-1e-05,-2e-05,1
2098,2203,0.0,-1e-05,0.0,1e-05,0.0,0.0,-1e-05,-2e-05,1
2099,2204,0.0,-1e-05,0.0,1e-05,0.0,0.0,-1e-05,-2e-05,1
2100,2205,0.0,-1e-05,0.0,1e-05,0.0,0.0,-1e-05,-2e-05,1
2101,2206,0.0,-1e-05,0.0,1e-05,0.0,0.0,-1e-05,-2e-05,1
2102,2207,0.0,-1e-05,0.0,1e-05,0.0,0.0,-1e-05,-2e-05,1
2103,2208,0.0,-1e-05,0.0,1e-05,0.0,0.0,-1e-05,-2e-05,1
2104,2209,0.0,-1e-05,0.0,1e-05,0.0,0.0,-1e-05,-2e-05,1
2105,2210,0.0,-1e-05,0.0,1e-05,0.0,0.0,-1e-05,-2e-05,1
2106,2211,0.0,-1e-05,0.0,1e-05,0.0,0.0,-1e-05,-2e-05,1
2107,2212,0.0,-1e-05,0.0,1e-05,0.0,0.0,-1e-05,-2e-05,1
2108,2213,0.0,-1e-05,0.0,1e-05,0.0,0.0,-1e-05,-2e-05,1
2109,2214,0.0,-1e-05,0.0,1e-05,0.0,0.0,-1e-05,-2e-05,1
2110,2215,-2e-05,-2e-05,1e-05,1e-05,-4e-05,1e-05,0.0,-1e-05,1
2111,2216,-2e-05,-1e-05,-1e-05,-2e-05,0.0,-1e-05,-2e-05,-2e-05,1
2112,2217,-2e-05,-1e-05,-1e-05,-2e-05,0.0,-1e-05,-2e-05,-2e-05,1
2113,2218,-2e-05,-1e-05,-1e-05,-2e-05,0.0,-1e-05,-2e-05,-2e-05,1
2114,2219,-2e-05,-1e-05,-1e-05,-2e-05,0.0,-1e-05,-2e-05,-2e-05,1
2115,2220,-2e-05,-1e-05,-1e-05,-2e-05,0.0,-1e-05,-2e-05,-2e-05,1
2116,2221,-2e-05,-1e-05,-1e-05,-2e-05,0.0,-1e-05,-2e-05,-2e-05,1
2117,2222,-2e-05,-1e-05,-1e-05,-2e-05,0.0,-1e-05,-2e-05,-2e-05,1
2118,2223,-2e-05,-1e-05,-1e-05,-2e-05,0.0,-1e-05,-2e-05,-2e-05,1
2119,2224,-2e-05,-1e-05,-1e-05,-2e-05,0.0,-1e-05,-2e-05,-2e-05,1
2120,2225,-2e-05,-1e-05,-1e-05,-2e-05,0.0,-1e-05,-2e-05,-2e-05,1
2121,2226,-2e-05,-1e-05,-1e-05,-2e-05,0.0,-1e-05,-2e-05,-2e-05,1
2122,2227,-2e-05,-1e-05,-1e-05,-2e-05,0.0,-1e-05,-2e-05,-2e-05,1
2123,2228,-2e-05,-1e-05,-1e-05,-2e-05,0.0,-1e-05,-2e-05,-2e-05,1
2124,2229,-1e-05,0.0,-2e-05,-5.9999999999999995e-05,-1e-05,-1e-05,-1e-05,0.0,1
2125,2230,-1e-05,0.0,-2e-05,-5.9999999999999995e-05,-1e-05,-1e-05,-1e-05,0.0,1
2126,2231,-1e-05,0.0,-2e-05,-5.9999999999999995e-05,-1e-05,-1e-05,-1e-05,0.0,1
2127,2232,-1e-05,0.0,-2e-05,-5.9999999999999995e-05,-1e-05,-1e-05,-1e-05,0.0,1
2128,2233,-1e-05,0.0,-2e-05,-5.9999999999999995e-05,-1e-05,-1e-05,-1e-05,0.0,1
2129,2234,-1e-05,0.0,-2e-05,-5.9999999999999995e-05,-1e-05,-1e-05,-1e-05,0.0,1
2130,2235,-1e-05,0.0,-2e-05,-5.9999999999999995e-05,-1e-05,-1e-05,-1e-05,0.0,1
2131,2236,-1e-05,-2e-05,0.0,1e-05,0.0,-2e-05,-2e-05,0.0,1
2132,2238,-1e-05,-2e-05,0.0,1e-05,0.0,-2e-05,-2e-05,0.0,1
2133,2239,-1e-05,-2e-05,0.0,1e-05,0.0,-2e-05,-2e-05,0.0,1
2134,2240,-1e-05,-2e-05,0.0,1e-05,0.0,-2e-05,-2e-05,0.0,1
2135,2241,-1e-05,-2e-05,0.0,1e-05,0.0,-2e-05,-2e-05,0.0,1
2136,2242,-1e-05,-2e-05,0.0,1e-05,0.0,-2e-05,-2e-05,0.0,1
2137,2243,-1e-05,-2e-05,0.0,1e-05,0.0,-2e-05,-2e-05,0.0,1
2138,2244,-1e-05,-2e-05,0.0,1e-05,0.0,-2e-05,-2e-05,0.0,1
2139,2245,-1e-05,-2e-05,0.0,1e-05,0.0,-2e-05,-2e-05,0.0,1
2140,2246,-1e-05,-2e-05,0.0,1e-05,0.0,-2e-05,-2e-05,0.0,1
2141,2247,-1e-05,-2e-05,0.0,1e-05,0.0,-2e-05,-2e-05,0.0,1
2142,2248,-1e-05,-2e-05,0.0,1e-05,0.0,-2e-05,-2e-05,0.0,1
2143,2249,-1e-05,-2e-05,0.0,1e-05,0.0,-2e-05,-2e-05,0.0,1
2144,2250,-1e-05,-2e-05,0.0,1e-05,0.0,-2e-05,-2e-05,0.0,1
2145,2251,-1e-05,-2e-05,0.0,1e-05,0.0,-2e-05,-2e-05,0.0,1
2146,2252,-1e-05,0.0,-1e-05,1e-05,-1e-05,0.0,-2.9999999999999997e-05,-2e-05,1
2147,2253,-1e-05,0.0,-1e-05,1e-05,-1e-05,0.0,-2.9999999999999997e-05,-2e-05,1
2148,2254,-2e-05,-2e-05,-2e-05,1e-05,-1e-05,0.0,-2e-05,0.0,1
2149,2255,-2e-05,-2e-05,-2e-05,1e-05,-1e-05,0.0,-2e-05,0.0,1
2150,2256,-2e-05,-2e-05,-2e-05,1e-05,-1e-05,0.0,-2e-05,0.0,1
2151,2257,-2e-05,-2e-05,-2e-05,1e-05,-1e-05,0.0,-2e-05,0.0,1
2152,2258,-2e-05,-2e-05,-2e-05,1e-05,-1e-05,0.0,-2e-05,0.0,1
2153,2259,-2e-05,-2e-05,-2e-05,1e-05,-1e-05,0.0,-2e-05,0.0,1
2154,2260,-2e-05,-2e-05,-2e-05,1e-05,-1e-05,0.0,-2e-05,0.0,1
2155,2261,-2e-05,-2e-05,-2e-05,1e-05,-1e-05,0.0,-2e-05,0.0,1
2156,2262,-2e-05,-2e-05,-2e-05,1e-05,-1e-05,0.0,-2e-05,0.0,1
2157,2263,-2e-05,-2e-05,-2e-05,1e-05,-1e-05,0.0,-2e-05,0.0,1
2158,2264,-2e-05,-2e-05,-2e-05,1e-05,-1e-05,0.0,-2e-05,0.0,1
2159,2265,-2e-05,-2e-05,-2e-05,1e-05,-1e-05,0.0,-2e-05,0.0,1
2160,2266,-2e-05,-2e-05,-2e-05,1e-05,-1e-05,0.0,-2e-05,0.0,1
2161,2267,-2e-05,-2e-05,-2e-05,1e-05,-1e-05,0.0,-2e-05,0.0,1
2162,2268,-2e-05,-2e-05,-2e-05,1e-05,-1e-05,0.0,-2e-05,0.0,1
2163,2269,-2e-05,-2e-05,-2e-05,1e-05,-1e-05,0.0,-2e-05,0.0,1
2164,2270,-2e-05,-2e-05,-2e-05,1e-05,-1e-05,0.0,-2e-05,0.0,1
2165,2271,-2e-05,-2e-05,-2e-05,1e-05,-1e-05,0.0,-2e-05,0.0,1
2166,2272,-2e-05,-2e-05,-2e-05,1e-05,-1e-05,0.0,-2e-05,0.0,1
2167,2273,-2e-05,-2e-05,-2e-05,1e-05,-1e-05,0.0,-2e-05,0.0,1
2168,2274,-2e-05,-2e-05,-2e-05,1e-05,-1e-05,0.0,-2e-05,0.0,1
2169,2275,0.0,-4e-05,-1e-05,1e-05,0.0,0.0,-2e-05,1e-05,1
2170,2276,-1e-05,0.0,-1e-05,-1e-05,-1e-05,-1e-05,-1e-05,-2.9999999999999997e-05,1
2171,2277,-1e-05,0.0,-1e-05,-1e-05,-1e-05,-1e-05,-1e-05,-2.9999999999999997e-05,1
2172,2278,-1e-05,0.0,-1e-05,-1e-05,-1e-05,-1e-05,-1e-05,-2.9999999999999997e-05,1
2173,2279,-1e-05,0.0,-1e-05,-1e-05,-1e-05,-1e-05,-1e-05,-2.9999999999999997e-05,1
2174,2280,-1e-05,0.0,-1e-05,-1e-05,-1e-05,-1e-05,-1e-05,-2.9999999999999997e-05,1
2175,2281,-1e-05,0.0,-1e-05,-1e-05,-1e-05,-1e-05,-1e-05,-2.9999999999999997e-05,1
2176,2282,-1e-05,0.0,-1e-05,-1e-05,-1e-05,-1e-05,-1e-05,-2.9999999999999997e-05,1
2177,2283,-1e-05,0.0,-1e-05,-1e-05,-1e-05,-1e-05,-1e-05,-2.9999999999999997e-05,1
2178,2284,-1e-05,0.0,-1e-05,-1e-05,-1e-05,-1e-05,-1e-05,-2.9999999999999997e-05,1
2179,2285,-1e-05,0.0,-1e-05,-1e-05,-1e-05,-1e-05,-1e-05,-2.9999999999999997e-05,1
2180,2286,-1e-05,0.0,-1e-05,-1e-05,-1e-05,-1e-05,-1e-05,-2.9999999999999997e-05,1
2181,2288,-1e-05,0.0,-1e-05,-1e-05,-1e-05,-1e-05,-1e-05,-2.9999999999999997e-05,1
2182,2289,-1e-05,-1e-05,-2e-05,-1e-05,-4e-05,-2.9999999999999997e-05,-1e-05,-1e-05,1
2183,2290,-1e-05,-1e-05,-2e-05,-1e-05,-4e-05,-2.9999999999999997e-05,-1e-05,-1e-05,1
2184,2291,-1e-05,-1e-05,-2e-05,-1e-05,-4e-05,-2.9999999999999997e-05,-1e-05,-1e-05,1
2185,2292,-1e-05,-1e-05,-2e-05,-1e-05,-4e-05,-2.9999999999999997e-05,-1e-05,-1e-05,1
2186,2293,-1e-05,-1e-05,-2e-05,-1e-05,-4e-05,-2.9999999999999997e-05,-1e-05,-1e-05,1
2187,2294,-1e-05,-1e-05,-2e-05,-1e-05,-4e-05,-2.9999999999999997e-05,-1e-05,-1e-05,1
2188,2295,-1e-05,-1e-05,-2e-05,-1e-05,-4e-05,-2.9999999999999997e-05,-1e-05,-1e-05,1
2189,2296,-1e-05,-1e-05,0.0,-2e-05,-1e-05,-1e-05,0.0,-1e-05,1
2190,2297,-1e-05,-1e-05,0.0,-2e-05,-1e-05,-1e-05,0.0,-1e-05,1
2191,2298,-1e-05,-1e-05,0.0,-2e-05,-1e-05,-1e-05,0.0,-1e-05,1
2192,2299,-1e-05,-1e-05,0.0,-2e-05,-1e-05,-1e-05,0.0,-1e-05,1
2193,2300,-1e-05,-1e-05,0.0,-2e-05,-1e-05,-1e-05,0.0,-1e-05,1
2194,2301,-1e-05,-1e-05,0.0,-2e-05,-1e-05,-1e-05,0.0,-1e-05,1
2195,2302,-1e-05,-1e-05,0.0,-2e-05,-1e-05,-1e-05,0.0,-1e-05,1
2196,2303,-1e-05,-1e-05,0.0,-2e-05,-1e-05,-1e-05,0.0,-1e-05,1
2197,2304,-1e-05,-1e-05,0.0,-2e-05,-1e-05,-1e-05,0.0,-1e-05,1
2198,2305,-1e-05,-1e-05,0.0,-2e-05,-1e-05,-1e-05,0.0,-1e-05,1
2199,2306,-1e-05,-1e-05,0.0,-2e-05,-1e-05,-1e-05,0.0,-1e-05,1
2200,2307,-1e-05,-1e-05,0.0,-2e-05,-1e-05,-1e-05,0.0,-1e-05,1
2201,2308,-1e-05,-1e-05,0.0,-2e-05,-1e-05,-1e-05,0.0,-1e-05,1
2202,2309,-1e-05,-1e-05,0.0,-2e-05,-1e-05,-1e-05,0.0,-1e-05,1
2203,2310,-1e-05,-1e-05,0.0,-2e-05,-1e-05,-1e-05,0.0,-1e-05,1
2204,2311,-1e-05,-1e-05,0.0,-2e-05,-1e-05,-1e-05,0.0,-1e-05,1
2205,2312,-1e-05,-2e-05,0.0,-2.9999999999999997e-05,0.0,-1e-05,-2.9999999999999997e-05,-1e-05,1
2206,2313,-1e-05,-2e-05,0.0,-2.9999999999999997e-05,0.0,-1e-05,-2.9999999999999997e-05,-1e-05,1
2207,2314,-1e-05,-2e-05,-2e-05,-5.9999999999999995e-05,-2e-05,-1e-05,1e-05,-1e-05,1
2208,2315,-1e-05,-2e-05,-2e-05,-5.9999999999999995e-05,-2e-05,-1e-05,1e-05,-1e-05,1
2209,2316,-1e-05,-2e-05,-2e-05,-5.9999999999999995e-05,-2e-05,-1e-05,1e-05,-1e-05,1
2210,2317,-1e-05,-2e-05,-2e-05,-5.9999999999999995e-05,-2e-05,-1e-05,1e-05,-1e-05,1
2211,2318,-1e-05,-2e-05,-2e-05,-5.9999999999999995e-05,-2e-05,-1e-05,1e-05,-1e-05,1
2212,2319,-1e-05,-2e-05,-2e-05,-5.9999999999999995e-05,-2e-05,-1e-05,1e-05,-1e-05,1
2213,2320,-1e-05,-2e-05,-2e-05,-5.9999999999999995e-05,-2e-05,-1e-05,1e-05,-1e-05,1
2214,2321,-1e-05,-2e-05,-2e-05,-5.9999999999999995e-05,-2e-05,-1e-05,1e-05,-1e-05,1
2215,2322,-1e-05,-2e-05,-2e-05,-5.9999999999999995e-05,-2e-05,-1e-05,1e-05,-1e-05,1
2216,2323,-1e-05,-2e-05,-2e-05,-5.9999999999999995e-05,-2e-05,-1e-05,1e-05,-1e-05,1
2217,2324,-1e-05,-2e-05,-2e-05,-5.9999999999999995e-05,-2e-05,-1e-05,1e-05,-1e-05,1
2218,2325,-1e-05,-2e-05,-2e-05,-5.9999999999999995e-05,-2e-05,-1e-05,1e-05,-1e-05,1
2219,2326,-1e-05,-2e-05,-2e-05,-5.9999999999999995e-05,-2e-05,-1e-05,1e-05,-1e-05,1
2220,2327,-1e-05,-2e-05,-2e-05,-5.9999999999999995e-05,-2e-05,-1e-05,1e-05,-1e-05,1
2221,2328,-1e-05,-2e-05,-2e-05,-5.9999999999999995e-05,-2e-05,-1e-05,1e-05,-1e-05,1
2222,2329,-1e-05,-2e-05,-2e-05,-5.9999999999999995e-05,-2e-05,-1e-05,1e-05,-1e-05,1
2223,2330,-1e-05,-2e-05,-2e-05,-5.9999999999999995e-05,-2e-05,-1e-05,1e-05,-1e-05,1
2224,2331,-1e-05,-2e-05,-2e-05,-5.9999999999999995e-05,-2e-05,-1e-05,1e-05,-1e-05,1
2225,2332,-1e-05,-2e-05,-2e-05,-5.9999999999999995e-05,-2e-05,-1e-05,1e-05,-1e-05,1
2226,2333,-1e-05,-2e-05,-2e-05,-5.9999999999999995e-05,-2e-05,-1e-05,1e-05,-1e-05,1
2227,2334,-1e-05,-2e-05,-2e-05,-5.9999999999999995e-05,-2e-05,-1e-05,1e-05,-1e-05,1
2228,2335,-2e-05,0.0,-1e-05,-1e-05,-1e-05,-1e-05,1e-05,-1e-05,1
2229,2337,0.0,-1e-05,-1e-05,0.0,1e-05,0.0,0.0,-1e-05,1
2230,2339,0.0,-1e-05,-1e-05,0.0,1e-05,0.0,0.0,-1e-05,1
2231,2340,0.0,-1e-05,-1e-05,0.0,1e-05,0.0,0.0,-1e-05,1
2232,2341,0.0,-1e-05,-1e-05,0.0,1e-05,0.0,0.0,-1e-05,1
2233,2342,0.0,-1e-05,-1e-05,0.0,1e-05,0.0,0.0,-1e-05,1
2234,2343,0.0,-1e-05,-1e-05,0.0,1e-05,0.0,0.0,-1e-05,1
2235,2344,0.0,-1e-05,-1e-05,0.0,1e-05,0.0,0.0,-1e-05,1
2236,2345,0.0,-1e-05,-1e-05,0.0,1e-05,0.0,0.0,-1e-05,1
2237,2346,0.0,-1e-05,-1e-05,0.0,1e-05,0.0,0.0,-1e-05,1
2238,2347,0.0,-1e-05,-1e-05,0.0,1e-05,0.0,0.0,-1e-05,1
2239,2348,-1e-05,-2e-05,-2.9999999999999997e-05,0.0,1e-05,-2e-05,-2e-05,-2e-05,1
2240,2349,-1e-05,-2e-05,-2.9999999999999997e-05,0.0,1e-05,-2e-05,-2e-05,-2e-05,1
2241,2350,-1e-05,-2e-05,-2.9999999999999997e-05,0.0,1e-05,-2e-05,-2e-05,-2e-05,1
2242,2351,-1e-05,-2e-05,-2.9999999999999997e-05,0.0,1e-05,-2e-05,-2e-05,-2e-05,1
2243,2352,-1e-05,-2e-05,-2.9999999999999997e-05,0.0,1e-05,-2e-05,-2e-05,-2e-05,1
2244,2353,-1e-05,-2e-05,-2.9999999999999997e-05,0.0,1e-05,-2e-05,-2e-05,-2e-05,1
2245,2354,-1e-05,-2e-05,-2.9999999999999997e-05,0.0,1e-05,-2e-05,-2e-05,-2e-05,1
2246,2355,-1e-05,-2e-05,-2.9999999999999997e-05,0.0,1e-05,-2e-05,-2e-05,-2e-05,1
2247,2356,-1e-05,-2e-05,-2.9999999999999997e-05,0.0,1e-05,-2e-05,-2e-05,-2e-05,1
2248,2357,-1e-05,-2e-05,-2.9999999999999997e-05,0.0,1e-05,-2e-05,-2e-05,-2e-05,1
2249,2358,-2e-05,-1e-05,-1e-05,2.9999999999999997e-05,-1e-05,-1e-05,-1e-05,0.0,1
2250,2359,-2e-05,-1e-05,-1e-05,2.9999999999999997e-05,-1e-05,-1e-05,-1e-05,0.0,1
2251,2360,-2e-05,-1e-05,-1e-05,2.9999999999999997e-05,-1e-05,-1e-05,-1e-05,0.0,1
2252,2361,-2e-05,-1e-05,-1e-05,2.9999999999999997e-05,-1e-05,-1e-05,-1e-05,0.0,1
2253,2362,-2e-05,-1e-05,-1e-05,2.9999999999999997e-05,-1e-05,-1e-05,-1e-05,0.0,1
2254,2363,-2e-05,-1e-05,-1e-05,2.9999999999999997e-05,-1e-05,-1e-05,-1e-05,0.0,1
2255,2364,-2e-05,-1e-05,-1e-05,2.9999999999999997e-05,-1e-05,-1e-05,-1e-05,0.0,1
2256,2365,-2e-05,-1e-05,-1e-05,2.9999999999999997e-05,-1e-05,-1e-05,-1e-05,0.0,1
2257,2366,-2e-05,-1e-05,-1e-05,2.9999999999999997e-05,-1e-05,-1e-05,-1e-05,0.0,1
2258,2367,-2e-05,-1e-05,-1e-05,2.9999999999999997e-05,-1e-05,-1e-05,-1e-05,0.0,1
2259,2368,-2e-05,-1e-05,-1e-05,2.9999999999999997e-05,-1e-05,-1e-05,-1e-05,0.0,1
2260,2369,-2e-05,-1e-05,-1e-05,2.9999999999999997e-05,-1e-05,-1e-05,-1e-05,0.0,1
2261,2370,-2e-05,-1e-05,-1e-05,2.9999999999999997e-05,-1e-05,-1e-05,-1e-05,0.0,1
2262,2371,0.0,0.0,-1e-05,-1e-05,-1e-05,0.0,-1e-05,0.0,1
2263,2372,-2e-05,-2e-05,-2e-05,1e-05,-1e-05,0.0,0.0,-1e-05,1
2264,2373,-2e-05,-2e-05,-2e-05,1e-05,-1e-05,0.0,0.0,-1e-05,1
2265,2374,-2e-05,-2e-05,-2e-05,1e-05,-1e-05,0.0,0.0,-1e-05,1
2266,2375,-2e-05,-2e-05,-2e-05,1e-05,-1e-05,0.0,0.0,-1e-05,1
2267,2376,-2e-05,-2e-05,-2e-05,1e-05,-1e-05,0.0,0.0,-1e-05,1
2268,2377,-2e-05,-2e-05,-2e-05,1e-05,-1e-05,0.0,0.0,-1e-05,1
2269,2378,-2e-05,-2e-05,-2e-05,1e-05,-1e-05,0.0,0.0,-1e-05,1
2270,2379,-2e-05,-2e-05,-2e-05,1e-05,-1e-05,0.0,0.0,-1e-05,1
2271,2380,-2e-05,-2e-05,-2e-05,1e-05,-1e-05,0.0,0.0,-1e-05,1
2272,2381,-2e-05,-2e-05,-2e-05,1e-05,-1e-05,0.0,0.0,-1e-05,1
2273,2382,-2e-05,-2e-05,-2e-05,1e-05,-1e-05,0.0,0.0,-1e-05,1
2274,2383,-2e-05,-2e-05,-2e-05,1e-05,-1e-05,0.0,0.0,-1e-05,1
2275,2384,-2e-05,-2e-05,-2e-05,1e-05,-1e-05,0.0,0.0,-1e-05,1
2276,2385,-2e-05,-2e-05,-2e-05,1e-05,-1e-05,0.0,0.0,-1e-05,1
2277,2386,-2e-05,-2e-05,-2e-05,1e-05,-1e-05,0.0,0.0,-1e-05,1
2278,2389,-2e-05,-2e-05,-2e-05,1e-05,-1e-05,0.0,0.0,-1e-05,1
2279,2390,-2e-05,-2e-05,-2e-05,1e-05,-1e-05,0.0,0.0,-1e-05,1
2280,2391,-2e-05,-2e-05,-2e-05,1e-05,-1e-05,0.0,0.0,-1e-05,1
2281,2392,-2e-05,-2e-05,-2e-05,1e-05,-1e-05,0.0,0.0,-1e-05,1
2282,2393,-2e-05,-2e-05,-2e-05,1e-05,-1e-05,0.0,0.0,-1e-05,1
2283,2394,-1e-05,0.0,-1e-05,1e-05,-1e-05,2e-05,-1e-05,-1e-05,1
2284,2395,-1e-05,-2e-05,-1e-05,-5e-05,-2.9999999999999997e-05,0.0,0.0,-1e-05,1
2285,2396,-1e-05,-2e-05,-1e-05,-5e-05,-2.9999999999999997e-05,0.0,0.0,-1e-05,1
2286,2397,-1e-05,-2e-05,-1e-05,-5e-05,-2.9999999999999997e-05,0.0,0.0,-1e-05,1
2287,2398,-1e-05,-2e-05,-1e-05,-5e-05,-2.9999999999999997e-05,0.0,0.0,-1e-05,1
2288,2399,-1e-05,-2e-05,-1e-05,-5e-05,-2.9999999999999997e-05,0.0,0.0,-1e-05,1
2289,2400,-1e-05,-2e-05,-1e-05,-5e-05,-2.9999999999999997e-05,0.0,0.0,-1e-05,1
2290,2401,-1e-05,-2e-05,-1e-05,-5e-05,-2.9999999999999997e-05,0.0,0.0,-1e-05,1
2291,2402,-1e-05,-2e-05,-1e-05,-5e-05,-2.9999999999999997e-05,0.0,0.0,-1e-05,1
2292,2403,-1e-05,-2e-05,-1e-05,-5e-05,-2.9999999999999997e-05,0.0,0.0,-1e-05,1
2293,2404,-1e-05,-2e-05,-1e-05,-5e-05,-2.9999999999999997e-05,0.0,0.0,-1e-05,1
2294,2405,-1e-05,-2e-05,-1e-05,-5e-05,-2.9999999999999997e-05,0.0,0.0,-1e-05,1
2295,2406,-1e-05,-2e-05,-1e-05,-5e-05,-2.9999999999999997e-05,0.0,0.0,-1e-05,1
2296,2407,-1e-05,-2e-05,-1e-05,-5e-05,-2.9999999999999997e-05,0.0,0.0,-1e-05,1
2297,2408,-1e-05,-2e-05,-1e-05,-5e-05,-2.9999999999999997e-05,0.0,0.0,-1e-05,1
2298,2409,-1e-05,-2e-05,-1e-05,-5e-05,-2.9999999999999997e-05,0.0,0.0,-1e-05,1
2299,2410,-1e-05,-2e-05,-1e-05,-5e-05,-2.9999999999999997e-05,0.0,0.0,-1e-05,1
2300,2411,-1e-05,-2e-05,-1e-05,-5e-05,-2.9999999999999997e-05,0.0,0.0,-1e-05,1
2301,2412,-1e-05,-2e-05,-1e-05,-5e-05,-2.9999999999999997e-05,0.0,0.0,-1e-05,1
2302,2413,-1e-05,-2e-05,-1e-05,-5e-05,-2.9999999999999997e-05,0.0,0.0,-1e-05,1
2303,2414,-1e-05,-2e-05,-1e-05,-5e-05,-2.9999999999999997e-05,0.0,0.0,-1e-05,1
2304,2415,-1e-05,-2e-05,-1e-05,-5e-05,-2.9999999999999997e-05,0.0,0.0,-1e-05,1
2305,2416,-1e-05,-2e-05,-1e-05,-5e-05,-2.9999999999999997e-05,0.0,0.0,-1e-05,1
2306,2417,-2e-05,-1e-05,0.0,0.0,0.0,-0.00014,-2.9999999999999997e-05,-1e-05,1
2307,2418,-1e-05,-1e-05,-2e-05,-2e-05,-2e-05,-1e-05,-1e-05,-1e-05,1
2308,2419,-1e-05,-1e-05,-2e-05,-2e-05,-2e-05,-1e-05,-1e-05,-1e-05,1
2309,2420,-1e-05,-1e-05,-2e-05,-2e-05,-2e-05,-1e-05,-1e-05,-1e-05,1
2310,2421,-1e-05,-1e-05,-2e-05,-2e-05,-2e-05,-1e-05,-1e-05,-1e-05,1
2311,2422,-1e-05,-1e-05,-2e-05,-2e-05,-2e-05,-1e-05,-1e-05,-1e-05,1
2312,2423,-1e-05,-1e-05,-2e-05,-2e-05,-2e-05,-1e-05,-1e-05,-1e-05,1
2313,2424,-1e-05,-1e-05,-2e-05,-2e-05,-2e-05,-1e-05,-1e-05,-1e-05,1
2314,2425,-1e-05,-1e-05,-2e-05,-2e-05,-2e-05,-1e-05,-1e-05,-1e-05,1
2315,2426,-1e-05,-1e-05,-2e-05,-2e-05,-2e-05,-1e-05,-1e-05,-1e-05,1
2316,2428,-1e-05,-1e-05,-2e-05,-2e-05,-2e-05,-1e-05,-1e-05,-1e-05,1
2317,2429,-1e-05,-1e-05,-2e-05,-2e-05,-2e-05,-1e-05,-1e-05,-1e-05,1
2318,2430,-1e-05,-1e-05,-2e-05,-2e-05,-2e-05,-1e-05,-1e-05,-1e-05,1
2319,2431,0.0,-1e-05,-2e-05,0.0,-2e-05,-4e-05,0.0,-1e-05,1
2320,2432,-2e-05,0.0,-1e-05,0.0,-1e-05,-2e-05,-2.9999999999999997e-05,-1e-05,1
2321,2433,-2e-05,0.0,-1e-05,0.0,-1e-05,-2e-05,-2.9999999999999997e-05,-1e-05,1
2322,2434,-2e-05,0.0,-1e-05,0.0,-1e-05,-2e-05,-2.9999999999999997e-05,-1e-05,1
2323,2435,-2e-05,0.0,-1e-05,0.0,-1e-05,-2e-05,-2.9999999999999997e-05,-1e-05,1
2324,2436,-2e-05,0.0,-1e-05,0.0,-1e-05,-2e-05,-2.9999999999999997e-05,-1e-05,1
2325,2439,-2e-05,0.0,-1e-05,0.0,-1e-05,-2e-05,-2.9999999999999997e-05,-1e-05,1
2326,2440,-2e-05,0.0,-1e-05,0.0,-1e-05,-2e-05,-2.9999999999999997e-05,-1e-05,1
2327,2441,-2e-05,0.0,-1e-05,0.0,-1e-05,-2e-05,-2.9999999999999997e-05,-1e-05,1
2328,2442,-2e-05,0.0,-1e-05,0.0,-1e-05,-2e-05,-2.9999999999999997e-05,-1e-05,1
2329,2443,-2e-05,0.0,-1e-05,0.0,-1e-05,-2e-05,-2.9999999999999997e-05,-1e-05,1
2330,2444,-2e-05,0.0,-1e-05,0.0,-1e-05,-2e-05,-2.9999999999999997e-05,-1e-05,1
2331,2445,-2e-05,0.0,-1e-05,0.0,-1e-05,-2e-05,-2.9999999999999997e-05,-1e-05,1
2332,2446,-2e-05,0.0,-1e-05,0.0,-1e-05,-2e-05,-2.9999999999999997e-05,-1e-05,1
2333,2447,-2e-05,0.0,-1e-05,0.0,-1e-05,-2e-05,-2.9999999999999997e-05,-1e-05,1
2334,2448,-2e-05,0.0,-1e-05,0.0,-1e-05,-2e-05,-2.9999999999999997e-05,-1e-05,1
2335,2449,-2e-05,0.0,-1e-05,0.0,-1e-05,-2e-05,-2.9999999999999997e-05,-1e-05,1
2336,2450,-2e-05,0.0,-1e-05,0.0,-1e-05,-2e-05,-2.9999999999999997e-05,-1e-05,1
2337,2451,-2e-05,0.0,-1e-05,0.0,-1e-05,-2e-05,-2.9999999999999997e-05,-1e-05,1
2338,2452,-2e-05,0.0,-1e-05,0.0,-1e-05,-2e-05,-2.9999999999999997e-05,-1e-05,1
2339,2453,-2e-05,0.0,-1e-05,0.0,-1e-05,-2e-05,-2.9999999999999997e-05,-1e-05,1
2340,2454,0.0,0.0,-1e-05,-1e-05,-1e-05,2e-05,0.0,0.0,1
2341,2455,0.0,-1e-05,-2e-05,0.0,0.0,0.0,-1e-05,-1e-05,1
2342,2456,0.0,-1e-05,-2e-05,0.0,0.0,0.0,-1e-05,-1e-05,1
2343,2457,0.0,-1e-05,-2e-05,0.0,0.0,0.0,-1e-05,-1e-05,1
2344,2458,0.0,-1e-05,-2e-05,0.0,0.0,0.0,-1e-05,-1e-05,1
2345,2459,0.0,-1e-05,-2e-05,0.0,0.0,0.0,-1e-05,-1e-05,1
2346,2460,0.0,-1e-05,-2e-05,0.0,0.0,0.0,-1e-05,-1e-05,1
2347,2461,0.0,-1e-05,-2e-05,0.0,0.0,0.0,-1e-05,-1e-05,1
2348,2462,0.0,-1e-05,-2e-05,0.0,0.0,0.0,-1e-05,-1e-05,1
2349,2463,0.0,-1e-05,-2e-05,0.0,0.0,0.0,-1e-05,-1e-05,1
2350,2464,0.0,-1e-05,-2e-05,0.0,0.0,0.0,-1e-05,-1e-05,1
2351,2465,0.0,-1e-05,-2e-05,0.0,0.0,0.0,-1e-05,-1e-05,1
2352,2466,0.0,-1e-05,-2e-05,0.0,0.0,0.0,-1e-05,-1e-05,1
2353,2467,0.0,-1e-05,-2e-05,0.0,0.0,0.0,-1e-05,-1e-05,1
2354,2468,0.0,-1e-05,-2e-05,0.0,0.0,0.0,-1e-05,-1e-05,1
2355,2469,0.0,-1e-05,-2e-05,0.0,0.0,0.0,-1e-05,-1e-05,1
2356,2470,0.0,-1e-05,-2e-05,0.0,0.0,0.0,-1e-05,-1e-05,1
2357,2471,0.0,-1e-05,-2e-05,0.0,0.0,0.0,-1e-05,-1e-05,1
2358,2472,0.0,-1e-05,-2e-05,0.0,0.0,0.0,-1e-05,-1e-05,1
2359,2473,0.0,-1e-05,-2e-05,0.0,0.0,0.0,-1e-05,-1e-05,1
2360,2474,0.0,-1e-05,-2e-05,0.0,0.0,0.0,-1e-05,-1e-05,1
2361,2475,0.0,-1e-05,-2e-05,0.0,0.0,0.0,-1e-05,-1e-05,1
2362,2476,0.0,-1e-05,-2e-05,0.0,0.0,0.0,-1e-05,-1e-05,1
2363,2477,-2e-05,-4e-05,-1e-05,0.0,-2.9999999999999997e-05,0.0,0.0,-1e-05,1
2364,2478,1e-05,-1e-05,0.0,-2.9999999999999997e-05,-2e-05,0.0,-2e-05,-1e-05,1
2365,2479,1e-05,-1e-05,0.0,-2.9999999999999997e-05,-2e-05,0.0,-2e-05,-1e-05,1
2366,2480,1e-05,-1e-05,0.0,-2.9999999999999997e-05,-2e-05,0.0,-2e-05,-1e-05,1
2367,2481,1e-05,-1e-05,0.0,-2.9999999999999997e-05,-2e-05,0.0,-2e-05,-1e-05,1
2368,2482,1e-05,-1e-05,0.0,-2.9999999999999997e-05,-2e-05,0.0,-2e-05,-1e-05,1
2369,2483,1e-05,-1e-05,0.0,-2.9999999999999997e-05,-2e-05,0.0,-2e-05,-1e-05,1
2370,2484,1e-05,-1e-05,0.0,-2.9999999999999997e-05,-2e-05,0.0,-2e-05,-1e-05,1
2371,2485,1e-05,-1e-05,0.0,-2.9999999999999997e-05,-2e-05,0.0,-2e-05,-1e-05,1
2372,2486,1e-05,-1e-05,0.0,-2.9999999999999997e-05,-2e-05,0.0,-2e-05,-1e-05,1
2373,2488,1e-05,-1e-05,0.0,-2.9999999999999997e-05,-2e-05,0.0,-2e-05,-1e-05,1
2374,2489,1e-05,-1e-05,0.0,-2.9999999999999997e-05,-2e-05,0.0,-2e-05,-1e-05,1
2375,2490,1e-05,-1e-05,0.0,-2.9999999999999997e-05,-2e-05,0.0,-2e-05,-1e-05,1
2376,2491,0.0,-2e-05,-2.9999999999999997e-05,2e-05,0.0,1e-05,0.0,-1e-05,1
2377,2492,-2e-05,1e-05,0.0,-2e-05,-1e-05,-1e-05,-1e-05,1e-05,1
2378,2493,-2e-05,1e-05,0.0,-2e-05,-1e-05,-1e-05,-1e-05,1e-05,1
2379,2494,-2e-05,1e-05,0.0,-2e-05,-1e-05,-1e-05,-1e-05,1e-05,1
2380,2495,-2e-05,1e-05,0.0,-2e-05,-1e-05,-1e-05,-1e-05,1e-05,1
2381,2496,-2e-05,1e-05,0.0,-2e-05,-1e-05,-1e-05,-1e-05,1e-05,1
2382,2497,-2e-05,1e-05,0.0,-2e-05,-1e-05,-1e-05,-1e-05,1e-05,1
2383,2498,-2e-05,1e-05,0.0,-2e-05,-1e-05,-1e-05,-1e-05,1e-05,1
2384,2499,-2e-05,1e-05,0.0,-2e-05,-1e-05,-1e-05,-1e-05,1e-05,1
2385,2500,-2e-05,1e-05,0.0,-2e-05,-1e-05,-1e-05,-1e-05,1e-05,1
2386,2501,-2e-05,1e-05,0.0,-2e-05,-1e-05,-1e-05,-1e-05,1e-05,1
2387,2502,-2e-05,1e-05,0.0,-2e-05,-1e-05,-1e-05,-1e-05,1e-05,1
2388,2503,-2e-05,1e-05,0.0,-2e-05,-1e-05,-1e-05,-1e-05,1e-05,1
2389,2504,-2e-05,1e-05,0.0,-2e-05,-1e-05,-1e-05,-1e-05,1e-05,1
2390,2505,-2e-05,1e-05,0.0,-2e-05,-1e-05,-1e-05,-1e-05,1e-05,1
2391,2506,-2e-05,1e-05,0.0,-2e-05,-1e-05,-1e-05,-1e-05,1e-05,1
2392,2507,-2e-05,1e-05,0.0,-2e-05,-1e-05,-1e-05,-1e-05,1e-05,1
2393,2508,-2e-05,1e-05,0.0,-2e-05,-1e-05,-1e-05,-1e-05,1e-05,1
2394,2509,-2e-05,1e-05,0.0,-2e-05,-1e-05,-1e-05,-1e-05,1e-05,1
2395,2510,-2e-05,1e-05,0.0,-2e-05,-1e-05,-1e-05,-1e-05,1e-05,1
2396,2511,-2e-05,1e-05,0.0,-2e-05,-1e-05,-1e-05,-1e-05,1e-05,1
2397,2512,-2e-05,1e-05,0.0,-2e-05,-1e-05,-1e-05,-1e-05,1e-05,1
2398,2513,-2e-05,1e-05,0.0,-2e-05,-1e-05,-1e-05,-1e-05,1e-05,1
2399,2514,1e-05,0.0,-2e-05,-8e-05,-2.9999999999999997e-05,0.0,-2e-05,0.0,1
2400,2515,-2e-05,-1e-05,1e-05,2e-05,1e-05,-1e-05,-2e-05,0.0,1
2401,2516,-2e-05,-1e-05,1e-05,2e-05,1e-05,-1e-05,-2e-05,0.0,1
2402,2517,-2e-05,-1e-05,1e-05,2e-05,1e-05,-1e-05,-2e-05,0.0,1
2403,2518,-2e-05,-1e-05,1e-05,2e-05,1e-05,-1e-05,-2e-05,0.0,1
2404,2519,-2e-05,-1e-05,1e-05,2e-05,1e-05,-1e-05,-2e-05,0.0,1
2405,2520,-2e-05,-1e-05,1e-05,2e-05,1e-05,-1e-05,-2e-05,0.0,1
2406,2521,-2e-05,-1e-05,1e-05,2e-05,1e-05,-1e-05,-2e-05,0.0,1
2407,2522,-2e-05,-1e-05,1e-05,2e-05,1e-05,-1e-05,-2e-05,0.0,1
2408,2523,-2e-05,-1e-05,1e-05,2e-05,1e-05,-1e-05,-2e-05,0.0,1
2409,2524,-2e-05,-1e-05,1e-05,2e-05,1e-05,-1e-05,-2e-05,0.0,1
2410,2525,-2e-05,-1e-05,1e-05,2e-05,1e-05,-1e-05,-2e-05,0.0,1
2411,2526,-2e-05,-1e-05,1e-05,2e-05,1e-05,-1e-05,-2e-05,0.0,1
2412,2527,-2e-05,-1e-05,1e-05,2e-05,1e-05,-1e-05,-2e-05,0.0,1
2413,2528,-1e-05,-1e-05,-2e-05,-2e-05,0.0,-1e-05,-1e-05,-1e-05,1
2414,2529,-1e-05,-1e-05,-2e-05,-2e-05,0.0,-1e-05,-1e-05,-1e-05,1
2415,2530,-1e-05,-1e-05,-2e-05,-2e-05,0.0,-1e-05,-1e-05,-1e-05,1
2416,2531,-1e-05,-1e-05,-2e-05,-2e-05,0.0,-1e-05,-1e-05,-1e-05,1
2417,2532,-1e-05,-1e-05,-2e-05,-2e-05,0.0,-1e-05,-1e-05,-1e-05,1
2418,2533,-1e-05,-1e-05,-2e-05,-2e-05,0.0,-1e-05,-1e-05,-1e-05,1
2419,2534,-1e-05,-1e-05,-2e-05,-2e-05,0.0,-1e-05,-1e-05,-1e-05,1
2420,2535,-1e-05,-1e-05,-2e-05,-2e-05,0.0,-1e-05,-1e-05,-1e-05,1
2421,2536,0.0,-1e-05,-2e-05,-9e-05,-2.9999999999999997e-05,1e-05,-2e-05,1e-05,1
2422,2538,-1e-05,1e-05,-1e-05,2.9999999999999997e-05,-1e-05,-1e-05,1e-05,0.0,1
2423,2539,-1e-05,1e-05,-1e-05,2.9999999999999997e-05,-1e-05,-1e-05,1e-05,0.0,1
2424,2540,-1e-05,1e-05,-1e-05,2.9999999999999997e-05,-1e-05,-1e-05,1e-05,0.0,1
2425,2541,-1e-05,1e-05,-1e-05,2.9999999999999997e-05,-1e-05,-1e-05,1e-05,0.0,1
2426,2542,-1e-05,1e-05,-1e-05,2.9999999999999997e-05,-1e-05,-1e-05,1e-05,0.0,1
2427,2543,-1e-05,1e-05,-1e-05,2.9999999999999997e-05,-1e-05,-1e-05,1e-05,0.0,1
2428,2544,-1e-05,1e-05,-1e-05,2.9999999999999997e-05,-1e-05,-1e-05,1e-05,0.0,1
2429,2545,-1e-05,1e-05,-1e-05,2.9999999999999997e-05,-1e-05,-1e-05,1e-05,0.0,1
2430,2546,-1e-05,1e-05,-1e-05,2.9999999999999997e-05,-1e-05,-1e-05,1e-05,0.0,1
2431,2547,-1e-05,1e-05,-1e-05,2.9999999999999997e-05,-1e-05,-1e-05,1e-05,0.0,1
2432,2548,-1e-05,1e-05,-1e-05,2.9999999999999997e-05,-1e-05,-1e-05,1e-05,0.0,1
2433,2549,-1e-05,1e-05,-1e-05,2.9999999999999997e-05,-1e-05,-1e-05,1e-05,0.0,1
2434,2550,-1e-05,1e-05,-1e-05,2.9999999999999997e-05,-1e-05,-1e-05,1e-05,0.0,1
2435,2551,-1e-05,1e-05,-1e-05,2.9999999999999997e-05,-1e-05,-1e-05,1e-05,0.0,1
2436,2552,-1e-05,-1e-05,-2e-05,2.9999999999999997e-05,-1e-05,-7e-05,-2e-05,-1e-05,1
2437,2553,-1e-05,-1e-05,-2e-05,2.9999999999999997e-05,-1e-05,-7e-05,-2e-05,-1e-05,1
2438,2554,-1e-05,-1e-05,-2e-05,2.9999999999999997e-05,-1e-05,-7e-05,-2e-05,-1e-05,1
2439,2555,-1e-05,-1e-05,-2e-05,2.9999999999999997e-05,-1e-05,-7e-05,-2e-05,-1e-05,1
2440,2556,-1e-05,-1e-05,-2e-05,2.9999999999999997e-05,-1e-05,-7e-05,-2e-05,-1e-05,1
2441,2557,-1e-05,-1e-05,-2e-05,2.9999999999999997e-05,-1e-05,-7e-05,-2e-05,-1e-05,1
2442,2558,-1e-05,-1e-05,-2e-05,2.9999999999999997e-05,-1e-05,-7e-05,-2e-05,-1e-05,1
2443,2559,-1e-05,-1e-05,-2e-05,2.9999999999999997e-05,-1e-05,-7e-05,-2e-05,-1e-05,1
2444,2560,-1e-05,-1e-05,-2e-05,2.9999999999999997e-05,-1e-05,-7e-05,-2e-05,-1e-05,1
2445,2561,-1e-05,-1e-05,-2e-05,2.9999999999999997e-05,-1e-05,-7e-05,-2e-05,-1e-05,1
2446,2562,-1e-05,-1e-05,-2e-05,2.9999999999999997e-05,-1e-05,-7e-05,-2e-05,-1e-05,1
2447,2563,-1e-05,-1e-05,-2e-05,2.9999999999999997e-05,-1e-05,-7e-05,-2e-05,-1e-05,1
2448,2564,-1e-05,-1e-05,-2e-05,2.9999999999999997e-05,-1e-05,-7e-05,-2e-05,-1e-05,1
2449,2565,-1e-05,-1e-05,-2e-05,2.9999999999999997e-05,-1e-05,-7e-05,-2e-05,-1e-05,1
2450,2566,-1e-05,-1e-05,-2e-05,2.9999999999999997e-05,-1e-05,-7e-05,-2e-05,-1e-05,1
2451,2567,-1e-05,-1e-05,-2e-05,2.9999999999999997e-05,-1e-05,-7e-05,-2e-05,-1e-05,1
2452,2568,-1e-05,-1e-05,-2e-05,2.9999999999999997e-05,-1e-05,-7e-05,-2e-05,-1e-05,1
2453,2569,-1e-05,-1e-05,-2e-05,2.9999999999999997e-05,-1e-05,-7e-05,-2e-05,-1e-05,1
2454,2570,-1e-05,-1e-05,-2e-05,2.9999999999999997e-05,-1e-05,-7e-05,-2e-05,-1e-05,1
2455,2571,-1e-05,-1e-05,-2e-05,2.9999999999999997e-05,-1e-05,-7e-05,-2e-05,-1e-05,1
2456,2572,-1e-05,-1e-05,-2e-05,2.9999999999999997e-05,-1e-05,-7e-05,-2e-05,-1e-05,1
2457,2573,-1e-05,-1e-05,-2e-05,2.9999999999999997e-05,-1e-05,-7e-05,-2e-05,-1e-05,1
2458,2574,-2e-05,-1e-05,-1e-05,1e-05,-2e-05,-0.00011,-2e-05,-1e-05,1
2459,2575,-1e-05,-1e-05,0.0,-4e-05,-2e-05,1e-05,-2e-05,-2e-05,1
2460,2576,-1e-05,-1e-05,0.0,-4e-05,-2e-05,1e-05,-2e-05,-2e-05,1
2461,2577,-1e-05,-1e-05,0.0,-4e-05,-2e-05,1e-05,-2e-05,-2e-05,1
2462,2578,-1e-05,-1e-05,0.0,-4e-05,-2e-05,1e-05,-2e-05,-2e-05,1
2463,2579,-1e-05,-1e-05,0.0,-4e-05,-2e-05,1e-05,-2e-05,-2e-05,1
2464,2580,-1e-05,-1e-05,0.0,-4e-05,-2e-05,1e-05,-2e-05,-2e-05,1
2465,2581,-1e-05,-1e-05,0.0,-4e-05,-2e-05,1e-05,-2e-05,-2e-05,1
2466,2582,-1e-05,-1e-05,0.0,-4e-05,-2e-05,1e-05,-2e-05,-2e-05,1
2467,2583,-1e-05,-1e-05,0.0,-4e-05,-2e-05,1e-05,-2e-05,-2e-05,1
2468,2584,-1e-05,-1e-05,0.0,-4e-05,-2e-05,1e-05,-2e-05,-2e-05,1
2469,2585,-1e-05,-1e-05,0.0,-4e-05,-2e-05,1e-05,-2e-05,-2e-05,1
2470,2586,-1e-05,-1e-05,0.0,-4e-05,-2e-05,1e-05,-2e-05,-2e-05,1
2471,2588,-1e-05,0.0,-1e-05,2.9999999999999997e-05,-1e-05,1e-05,-1e-05,-2e-05,1
2472,2589,-1e-05,0.0,-1e-05,2.9999999999999997e-05,-1e-05,1e-05,-1e-05,-2e-05,1
2473,2590,-1e-05,0.0,-1e-05,2.9999999999999997e-05,-1e-05,1e-05,-1e-05,-2e-05,1
2474,2591,-1e-05,0.0,-1e-05,2.9999999999999997e-05,-1e-05,1e-05,-1e-05,-2e-05,1
2475,2592,-1e-05,0.0,-1e-05,2.9999999999999997e-05,-1e-05,1e-05,-1e-05,-2e-05,1
2476,2593,-1e-05,0.0,-1e-05,2.9999999999999997e-05,-1e-05,1e-05,-1e-05,-2e-05,1
2477,2594,-1e-05,0.0,-1e-05,2.9999999999999997e-05,-1e-05,1e-05,-1e-05,-2e-05,1
2478,2595,-1e-05,0.0,-1e-05,2.9999999999999997e-05,-1e-05,1e-05,-1e-05,-2e-05,1
2479,2596,-1e-05,1e-05,-1e-05,-2.9999999999999997e-05,-2e-05,-5e-05,-1e-05,-2e-05,1
2480,2597,-1e-05,0.0,0.0,1e-05,-1e-05,0.0,-1e-05,-1e-05,1
2481,2598,-1e-05,0.0,0.0,1e-05,-1e-05,0.0,-1e-05,-1e-05,1
2482,2599,-1e-05,0.0,0.0,1e-05,-1e-05,0.0,-1e-05,-1e-05,1
2483,2600,-1e-05,0.0,0.0,1e-05,-1e-05,0.0,-1e-05,-1e-05,1
2484,2601,-1e-05,0.0,0.0,1e-05,-1e-05,0.0,-1e-05,-1e-05,1
2485,2602,-1e-05,0.0,0.0,1e-05,-1e-05,0.0,-1e-05,-1e-05,1
2486,2603,-1e-05,0.0,0.0,1e-05,-1e-05,0.0,-1e-05,-1e-05,1
2487,2604,-1e-05,0.0,0.0,1e-05,-1e-05,0.0,-1e-05,-1e-05,1
2488,2605,-1e-05,0.0,0.0,1e-05,-1e-05,0.0,-1e-05,-1e-05,1
2489,2606,-1e-05,0.0,0.0,1e-05,-1e-05,0.0,-1e-05,-1e-05,1
2490,2607,-1e-05,0.0,0.0,1e-05,-1e-05,0.0,-1e-05,-1e-05,1
2491,2608,-1e-05,0.0,0.0,1e-05,-1e-05,0.0,-1e-05,-1e-05,1
2492,2609,-1e-05,0.0,0.0,1e-05,-1e-05,0.0,-1e-05,-1e-05,1
2493,2610,-1e-05,0.0,0.0,1e-05,-1e-05,0.0,-1e-05,-1e-05,1
2494,2611,-1e-05,-1e-05,-2.9999999999999997e-05,-4e-05,-1e-05,0.0,0.0,-2e-05,1
2495,2612,1e-05,-1e-05,-1e-05,0.0,2e-05,1e-05,0.0,0.0,1
2496,2613,1e-05,-1e-05,-1e-05,0.0,2e-05,1e-05,0.0,0.0,1
2497,2614,1e-05,-1e-05,-1e-05,0.0,2e-05,1e-05,0.0,0.0,1
2498,2615,1e-05,-1e-05,-1e-05,0.0,2e-05,1e-05,0.0,0.0,1
2499,2616,1e-05,-1e-05,-1e-05,0.0,2e-05,1e-05,0.0,0.0,1
2500,2617,1e-05,-1e-05,-1e-05,0.0,2e-05,1e-05,0.0,0.0,1
2501,2618,1e-05,-1e-05,-1e-05,0.0,2e-05,1e-05,0.0,0.0,1
2502,2619,1e-05,-1e-05,-1e-05,0.0,2e-05,1e-05,0.0,0.0,1
2503,2620,1e-05,-1e-05,-1e-05,0.0,2e-05,1e-05,0.0,0.0,1
2504,2621,1e-05,-1e-05,-1e-05,0.0,2e-05,1e-05,0.0,0.0,1
2505,2622,1e-05,-1e-05,-1e-05,0.0,2e-05,1e-05,0.0,0.0,1
2506,2623,1e-05,-1e-05,-1e-05,0.0,2e-05,1e-05,0.0,0.0,1
2507,2624,1e-05,-1e-05,-1e-05,0.0,2e-05,1e-05,0.0,0.0,1
2508,2625,1e-05,-1e-05,-1e-05,0.0,2e-05,1e-05,0.0,0.0,1
2509,2626,1e-05,-1e-05,-1e-05,0.0,2e-05,1e-05,0.0,0.0,1
2510,2627,1e-05,-1e-05,-1e-05,0.0,2e-05,1e-05,0.0,0.0,1
2511,2628,1e-05,-1e-05,-1e-05,0.0,2e-05,1e-05,0.0,0.0,1
2512,2629,1e-05,-1e-05,-1e-05,0.0,2e-05,1e-05,0.0,0.0,1
2513,2630,1e-05,-1e-05,-1e-05,0.0,2e-05,1e-05,0.0,0.0,1
2514,2631,1e-05,-1e-05,-1e-05,0.0,2e-05,1e-05,0.0,0.0,1
2515,2632,1e-05,-1e-05,-1e-05,0.0,2e-05,1e-05,0.0,0.0,1
2516,2633,1e-05,-1e-05,-1e-05,0.0,2e-05,1e-05,0.0,0.0,1
2517,2634,-2e-05,-1e-05,0.0,-2.9999999999999997e-05,-2.9999999999999997e-05,2e-05,0.0,-1e-05,1
2518,2635,-1e-05,-2e-05,-1e-05,-1e-05,-2e-05,-2e-05,0.0,0.0,1
2519,2636,-1e-05,-2e-05,-1e-05,-1e-05,-2e-05,-2e-05,0.0,0.0,1
2520,2638,-1e-05,-2e-05,-1e-05,-1e-05,-2e-05,-2e-05,0.0,0.0,1
2521,2639,-1e-05,-2e-05,-1e-05,-1e-05,-2e-05,-2e-05,0.0,0.0,1
2522,2640,-1e-05,-2e-05,-1e-05,-1e-05,-2e-05,-2e-05,0.0,0.0,1
2523,2641,-1e-05,-2e-05,-1e-05,-1e-05,-2e-05,-2e-05,0.0,0.0,1
2524,2642,-1e-05,-2e-05,-1e-05,-1e-05,-2e-05,-2e-05,0.0,0.0,1
2525,2643,-1e-05,-2e-05,-1e-05,-1e-05,-2e-05,-2e-05,0.0,0.0,1
2526,2644,-1e-05,-2e-05,-1e-05,-1e-05,-2e-05,-2e-05,0.0,0.0,1
2527,2645,-1e-05,-2e-05,-1e-05,-1e-05,-2e-05,-2e-05,0.0,0.0,1
2528,2646,-1e-05,-2e-05,-1e-05,-1e-05,-2e-05,-2e-05,0.0,0.0,1
2529,2647,-1e-05,-2e-05,-1e-05,-1e-05,-2e-05,-2e-05,0.0,0.0,1
2530,2648,-1e-05,-2.9999999999999997e-05,-1e-05,0.0,-2e-05,0.0,0.0,-1e-05,1
2531,2649,-1e-05,-2.9999999999999997e-05,-1e-05,0.0,-2e-05,0.0,0.0,-1e-05,1
2532,2650,-1e-05,-2.9999999999999997e-05,-1e-05,0.0,-2e-05,0.0,0.0,-1e-05,1
2533,2651,-1e-05,-2.9999999999999997e-05,-1e-05,0.0,-2e-05,0.0,0.0,-1e-05,1
2534,2652,-1e-05,-2.9999999999999997e-05,-1e-05,0.0,-2e-05,0.0,0.0,-1e-05,1
2535,2653,-1e-05,-2.9999999999999997e-05,-1e-05,0.0,-2e-05,0.0,0.0,-1e-05,1
2536,2654,-1e-05,-2.9999999999999997e-05,-1e-05,0.0,-2e-05,0.0,0.0,-1e-05,1
2537,2655,-1e-05,-2.9999999999999997e-05,-1e-05,0.0,-2e-05,0.0,0.0,-1e-05,1
2538,2656,-1e-05,-2.9999999999999997e-05,1e-05,1e-05,0.0,2e-05,-2e-05,0.0,1
2539,2657,-1e-05,-2.9999999999999997e-05,1e-05,1e-05,0.0,2e-05,-2e-05,0.0,1
2540,2658,-1e-05,-2.9999999999999997e-05,1e-05,1e-05,0.0,2e-05,-2e-05,0.0,1
2541,2659,-1e-05,-2.9999999999999997e-05,1e-05,1e-05,0.0,2e-05,-2e-05,0.0,1
2542,2660,-1e-05,-2.9999999999999997e-05,1e-05,1e-05,0.0,2e-05,-2e-05,0.0,1
2543,2661,-1e-05,-2.9999999999999997e-05,1e-05,1e-05,0.0,2e-05,-2e-05,0.0,1
