,time,channel1,channel2,channel3,channel4,channel5,channel6,channel7,channel8,class
11600,12166,-2e-05,4e-05,4e-05,2.9999999999999997e-05,5.9999999999999995e-05,7e-05,-1e-05,-0.00021,3
11601,12167,0.0001,7e-05,2e-05,-1e-05,0.0,-5e-05,2e-05,0.00011999999999999999,3
11602,12169,0.0001,7e-05,2e-05,-1e-05,0.0,-5e-05,2e-05,0.00011999999999999999,3
11603,12170,0.0001,7e-05,2e-05,-1e-05,0.0,-5e-05,2e-05,0.00011999999999999999,3
11604,12171,0.0001,7e-05,2e-05,-1e-05,0.0,-5e-05,2e-05,0.00011999999999999999,3
11605,12172,0.0001,7e-05,2e-05,-1e-05,0.0,-5e-05,2e-05,0.00011999999999999999,3
11606,12173,0.0001,7e-05,2e-05,-1e-05,0.0,-5e-05,2e-05,0.00011999999999999999,3
11607,12174,0.0001,7e-05,2e-05,-1e-05,0.0,-5e-05,2e-05,0.00011999999999999999,3
11608,12175,0.0001,7e-05,2e-05,-1e-05,0.0,-5e-05,2e-05,0.00011999999999999999,3
11609,12176,0.0001,7e-05,2e-05,-1e-05,0.0,-5e-05,2e-05,0.00011999999999999999,3
11610,12177,0.0001,7e-05,2e-05,-1e-05,0.0,-5e-05,2e-05,0.00011999999999999999,3
11611,12178,0.0001,7e-05,2e-05,-1e-05,0.0,-5e-05,2e-05,0.00011999999999999999,3
11612,12179,0.0001,7e-05,2e-05,-1e-05,0.0,-5e-05,2e-05,0.00011999999999999999,3
11613,12180,0.0001,7e-05,2e-05,-1e-05,0.0,-5e-05,2e-05,0.00011999999999999999,3
11614,12181,0.0001,7e-05,2e-05,-1e-05,0.0,-5e-05,2e-05,0.00011999999999999999,3
11615,12182,0.0001,7e-05,2e-05,-1e-05,0.0,-5e-05,2e-05,0.00011999999999999999,3
11616,12183,0.0001,7e-05,2e-05,-1e-05,0.0,-5e-05,2e-05,0.00011999999999999999,3
11617,12184,0.0001,7e-05,2e-05,-1e-05,0.0,-5e-05,2e-05,0.00011999999999999999,3
11618,12185,0.0001,7e-05,2e-05,-1e-05,0.0,-5e-05,2e-05,0.00011999999999999999,3
11619,12186,0.0001,7e-05,2e-05,-1e-05,0.0,-5e-05,2e-05,0.00011999999999999999,3
11620,12189,2e-05,2.9999999999999997e-05,0.0,-2.9999999999999997e-05,-5.9999999999999995e-05,-2.9999999999999997e-05,-2e-05,2e-05,3
11621,12190,-1e-05,-5e-05,2.9999999999999997e-05,2e-05,2e-05,1e-05,-5e-05,0.00049,3
11622,12191,-1e-05,-5e-05,2.9999999999999997e-05,2e-05,2e-05,1e-05,-5e-05,0.00049,3
11623,12192,-1e-05,-5e-05,2.9999999999999997e-05,2e-05,2e-05,1e-05,-5e-05,0.00049,3
11624,12193,-1e-05,-5e-05,2.9999999999999997e-05,2e-05,2e-05,1e-05,-5e-05,0.00049,3
11625,12194,-1e-05,-5e-05,2.9999999999999997e-05,2e-05,2e-05,1e-05,-5e-05,0.00049,3
11626,12195,-1e-05,-5e-05,2.9999999999999997e-05,2e-05,2e-05,1e-05,-5e-05,0.00049,3
11627,12196,-1e-05,-5e-05,2.9999999999999997e-05,2e-05,2e-05,1e-05,-5e-05,0.00049,3
11628,12197,-1e-05,-5e-05,2.9999999999999997e-05,2e-05,2e-05,1e-05,-5e-05,0.00049,3
11629,12198,-1e-05,-5e-05,2.9999999999999997e-05,2e-05,2e-05,1e-05,-5e-05,0.00049,3
11630,12199,-1e-05,-5e-05,2.9999999999999997e-05,2e-05,2e-05,1e-05,-5e-05,0.00049,3
11631,12200,-1e-05,-5e-05,2.9999999999999997e-05,2e-05,2e-05,1e-05,-5e-05,0.00049,3
11632,12201,-1e-05,-5e-05,2.9999999999999997e-05,2e-05,2e-05,1e-05,-5e-05,0.00049,3
11633,12202,-1e-05,-5e-05,2.9999999999999997e-05,2e-05,2e-05,1e-05,-5e-05,0.00049,3
11634,12203,-2e-05,-1e-05,-8e-05,-7e-05,-8e-05,-7e-05,-5.9999999999999995e-05,-0.00016,3
11635,12204,-2e-05,-1e-05,-8e-05,-7e-05,-8e-05,-7e-05,-5.9999999999999995e-05,-0.00016,3
11636,12205,-9e-05,-4e-05,-4e-05,-2e-05,-2e-05,-5.9999999999999995e-05,-0.00011,-2.9999999999999997e-05,3
11637,12206,-9e-05,-4e-05,-4e-05,-2e-05,-2e-05,-5.9999999999999995e-05,-0.00011,-2.9999999999999997e-05,3
11638,12207,-9e-05,-4e-05,-4e-05,-2e-05,-2e-05,-5.9999999999999995e-05,-0.00011,-2.9999999999999997e-05,3
11639,12208,-9e-05,-4e-05,-4e-05,-2e-05,-2e-05,-5.9999999999999995e-05,-0.00011,-2.9999999999999997e-05,3
11640,12209,-9e-05,-4e-05,-4e-05,-2e-05,-2e-05,-5.9999999999999995e-05,-0.00011,-2.9999999999999997e-05,3
11641,12210,-9e-05,-4e-05,-4e-05,-2e-05,-2e-05,-5.9999999999999995e-05,-0.00011,-2.9999999999999997e-05,3
11642,12211,-9e-05,-4e-05,-4e-05,-2e-05,-2e-05,-5.9999999999999995e-05,-0.00011,-2.9999999999999997e-05,3
11643,12212,-9e-05,-4e-05,-4e-05,-2e-05,-2e-05,-5.9999999999999995e-05,-0.00011,-2.9999999999999997e-05,3
11644,12213,-9e-05,-4e-05,-4e-05,-2e-05,-2e-05,-5.9999999999999995e-05,-0.00011,-2.9999999999999997e-05,3
11645,12214,-9e-05,-4e-05,-4e-05,-2e-05,-2e-05,-5.9999999999999995e-05,-0.00011,-2.9999999999999997e-05,3
11646,12215,-9e-05,-4e-05,-4e-05,-2e-05,-2e-05,-5.9999999999999995e-05,-0.00011,-2.9999999999999997e-05,3
11647,12216,-9e-05,-4e-05,-4e-05,-2e-05,-2e-05,-5.9999999999999995e-05,-0.00011,-2.9999999999999997e-05,3
11648,12217,-9e-05,-4e-05,-4e-05,-2e-05,-2e-05,-5.9999999999999995e-05,-0.00011,-2.9999999999999997e-05,3
11649,12218,-9e-05,-4e-05,-4e-05,-2e-05,-2e-05,-5.9999999999999995e-05,-0.00011,-2.9999999999999997e-05,3
11650,12219,-9e-05,-4e-05,-4e-05,-2e-05,-2e-05,-5.9999999999999995e-05,-0.00011,-2.9999999999999997e-05,3
11651,12220,-9e-05,-4e-05,-4e-05,-2e-05,-2e-05,-5.9999999999999995e-05,-0.00011,-2.9999999999999997e-05,3
11652,12221,-9e-05,-4e-05,-4e-05,-2e-05,-2e-05,-5.9999999999999995e-05,-0.00011,-2.9999999999999997e-05,3
11653,12222,-9e-05,-4e-05,-4e-05,-2e-05,-2e-05,-5.9999999999999995e-05,-0.00011,-2.9999999999999997e-05,3
11654,12223,-9e-05,-4e-05,-4e-05,-2e-05,-2e-05,-5.9999999999999995e-05,-0.00011,-2.9999999999999997e-05,3
11655,12224,-9e-05,-4e-05,-4e-05,-2e-05,-2e-05,-5.9999999999999995e-05,-0.00011,-2.9999999999999997e-05,3
11656,12225,-9e-05,-4e-05,-4e-05,-2e-05,-2e-05,-5.9999999999999995e-05,-0.00011,-2.9999999999999997e-05,3
11657,12226,-2.9999999999999997e-05,-4e-05,2e-05,-1e-05,2e-05,-2.9999999999999997e-05,-2.9999999999999997e-05,0.00014,3
11658,12227,-2.9999999999999997e-05,-4e-05,2e-05,-1e-05,2e-05,-2.9999999999999997e-05,-2.9999999999999997e-05,0.00014,3
11659,12228,1e-05,1e-05,2.9999999999999997e-05,-2.9999999999999997e-05,-2.9999999999999997e-05,-7e-05,-0.0001,0.0004,3
11660,12229,1e-05,1e-05,2.9999999999999997e-05,-2.9999999999999997e-05,-2.9999999999999997e-05,-7e-05,-0.0001,0.0004,3
11661,12230,1e-05,1e-05,2.9999999999999997e-05,-2.9999999999999997e-05,-2.9999999999999997e-05,-7e-05,-0.0001,0.0004,3
11662,12231,1e-05,1e-05,2.9999999999999997e-05,-2.9999999999999997e-05,-2.9999999999999997e-05,-7e-05,-0.0001,0.0004,3
11663,12232,1e-05,1e-05,2.9999999999999997e-05,-2.9999999999999997e-05,-2.9999999999999997e-05,-7e-05,-0.0001,0.0004,3
11664,12233,1e-05,1e-05,2.9999999999999997e-05,-2.9999999999999997e-05,-2.9999999999999997e-05,-7e-05,-0.0001,0.0004,3
11665,12234,1e-05,1e-05,2.9999999999999997e-05,-2.9999999999999997e-05,-2.9999999999999997e-05,-7e-05,-0.0001,0.0004,3
11666,12235,1e-05,1e-05,2.9999999999999997e-05,-2.9999999999999997e-05,-2.9999999999999997e-05,-7e-05,-0.0001,0.0004,3
11667,12236,1e-05,1e-05,2.9999999999999997e-05,-2.9999999999999997e-05,-2.9999999999999997e-05,-7e-05,-0.0001,0.0004,3
11668,12238,1e-05,1e-05,2.9999999999999997e-05,-2.9999999999999997e-05,-2.9999999999999997e-05,-7e-05,-0.0001,0.0004,3
11669,12240,1e-05,1e-05,2.9999999999999997e-05,-2.9999999999999997e-05,-2.9999999999999997e-05,-7e-05,-0.0001,0.0004,3
11670,12241,1e-05,1e-05,2.9999999999999997e-05,-2.9999999999999997e-05,-2.9999999999999997e-05,-7e-05,-0.0001,0.0004,3
11671,12242,1e-05,1e-05,2.9999999999999997e-05,-2.9999999999999997e-05,-2.9999999999999997e-05,-7e-05,-0.0001,0.0004,3
11672,12243,1e-05,1e-05,2.9999999999999997e-05,-2.9999999999999997e-05,-2.9999999999999997e-05,-7e-05,-0.0001,0.0004,3
11673,12244,1e-05,1e-05,2.9999999999999997e-05,-2.9999999999999997e-05,-2.9999999999999997e-05,-7e-05,-0.0001,0.0004,3
11674,12245,1e-05,1e-05,2.9999999999999997e-05,-2.9999999999999997e-05,-2.9999999999999997e-05,-7e-05,-0.0001,0.0004,3
11675,12246,1e-05,1e-05,2.9999999999999997e-05,-2.9999999999999997e-05,-2.9999999999999997e-05,-7e-05,-0.0001,0.0004,3
11676,12247,1e-05,1e-05,2.9999999999999997e-05,-2.9999999999999997e-05,-2.9999999999999997e-05,-7e-05,-0.0001,0.0004,3
11677,12248,4e-05,2.9999999999999997e-05,2.9999999999999997e-05,-1e-05,-5e-05,-2e-05,-0.00015,-0.00026000000000000003,3
11678,12249,4e-05,2.9999999999999997e-05,2.9999999999999997e-05,-1e-05,-5e-05,-2e-05,-0.00015,-0.00026000000000000003,3
11679,12250,1e-05,-5e-05,2e-05,2e-05,1e-05,5.9999999999999995e-05,5.9999999999999995e-05,-0.00018999999999999998,3
11680,12252,1e-05,-5e-05,2e-05,2e-05,1e-05,5.9999999999999995e-05,5.9999999999999995e-05,-0.00018999999999999998,3
11681,12253,1e-05,-5e-05,2e-05,2e-05,1e-05,5.9999999999999995e-05,5.9999999999999995e-05,-0.00018999999999999998,3
11682,12254,1e-05,-5e-05,2e-05,2e-05,1e-05,5.9999999999999995e-05,5.9999999999999995e-05,-0.00018999999999999998,3
11683,12255,1e-05,-5e-05,2e-05,2e-05,1e-05,5.9999999999999995e-05,5.9999999999999995e-05,-0.00018999999999999998,3
11684,12256,1e-05,-5e-05,2e-05,2e-05,1e-05,5.9999999999999995e-05,5.9999999999999995e-05,-0.00018999999999999998,3
11685,12257,1e-05,-5e-05,2e-05,2e-05,1e-05,5.9999999999999995e-05,5.9999999999999995e-05,-0.00018999999999999998,3
11686,12258,1e-05,-5e-05,2e-05,2e-05,1e-05,5.9999999999999995e-05,5.9999999999999995e-05,-0.00018999999999999998,3
11687,12259,1e-05,-5e-05,2e-05,2e-05,1e-05,5.9999999999999995e-05,5.9999999999999995e-05,-0.00018999999999999998,3
11688,12260,1e-05,-5e-05,2e-05,2e-05,1e-05,5.9999999999999995e-05,5.9999999999999995e-05,-0.00018999999999999998,3
11689,12261,1e-05,-5e-05,2e-05,2e-05,1e-05,5.9999999999999995e-05,5.9999999999999995e-05,-0.00018999999999999998,3
11690,12262,1e-05,-5e-05,2e-05,2e-05,1e-05,5.9999999999999995e-05,5.9999999999999995e-05,-0.00018999999999999998,3
11691,12263,-0.0001,2e-05,5e-05,1e-05,-1e-05,-5.9999999999999995e-05,-0.0003,-0.00045999999999999996,3
11692,12264,-0.0001,2e-05,5e-05,1e-05,-1e-05,-5.9999999999999995e-05,-0.0003,-0.00045999999999999996,3
11693,12265,-5.9999999999999995e-05,-5.9999999999999995e-05,-5e-05,-4e-05,2e-05,-2.9999999999999997e-05,2e-05,-0.00015,3
11694,12266,-5.9999999999999995e-05,-5.9999999999999995e-05,-5e-05,-4e-05,2e-05,-2.9999999999999997e-05,2e-05,-0.00015,3
11695,12267,-5.9999999999999995e-05,-5.9999999999999995e-05,-5e-05,-4e-05,2e-05,-2.9999999999999997e-05,2e-05,-0.00015,3
11696,12268,-5.9999999999999995e-05,-5.9999999999999995e-05,-5e-05,-4e-05,2e-05,-2.9999999999999997e-05,2e-05,-0.00015,3
11697,12269,-5.9999999999999995e-05,-5.9999999999999995e-05,-5e-05,-4e-05,2e-05,-2.9999999999999997e-05,2e-05,-0.00015,3
11698,12270,-5.9999999999999995e-05,-5.9999999999999995e-05,-5e-05,-4e-05,2e-05,-2.9999999999999997e-05,2e-05,-0.00015,3
11699,12271,-5.9999999999999995e-05,-5.9999999999999995e-05,-5e-05,-4e-05,2e-05,-2.9999999999999997e-05,2e-05,-0.00015,3
11700,12272,-5.9999999999999995e-05,-5.9999999999999995e-05,-5e-05,-4e-05,2e-05,-2.9999999999999997e-05,2e-05,-0.00015,3
11701,12273,-5.9999999999999995e-05,-5.9999999999999995e-05,-5e-05,-4e-05,2e-05,-2.9999999999999997e-05,2e-05,-0.00015,3
11702,12274,-5.9999999999999995e-05,-5.9999999999999995e-05,-5e-05,-4e-05,2e-05,-2.9999999999999997e-05,2e-05,-0.00015,3
11703,12275,-5.9999999999999995e-05,-5.9999999999999995e-05,-5e-05,-4e-05,2e-05,-2.9999999999999997e-05,2e-05,-0.00015,3
11704,12276,-5.9999999999999995e-05,-5.9999999999999995e-05,-5e-05,-4e-05,2e-05,-2.9999999999999997e-05,2e-05,-0.00015,3
11705,12277,-5.9999999999999995e-05,-5.9999999999999995e-05,-5e-05,-4e-05,2e-05,-2.9999999999999997e-05,2e-05,-0.00015,3
11706,12278,-5.9999999999999995e-05,-5.9999999999999995e-05,-5e-05,-4e-05,2e-05,-2.9999999999999997e-05,2e-05,-0.00015,3
11707,12279,-5.9999999999999995e-05,-5.9999999999999995e-05,-5e-05,-4e-05,2e-05,-2.9999999999999997e-05,2e-05,-0.00015,3
11708,12280,-5.9999999999999995e-05,-5.9999999999999995e-05,-5e-05,-4e-05,2e-05,-2.9999999999999997e-05,2e-05,-0.00015,3
11709,12281,-5.9999999999999995e-05,-5.9999999999999995e-05,-5e-05,-4e-05,2e-05,-2.9999999999999997e-05,2e-05,-0.00015,3
11710,12282,-5.9999999999999995e-05,-5.9999999999999995e-05,-5e-05,-4e-05,2e-05,-2.9999999999999997e-05,2e-05,-0.00015,3
11711,12283,-5.9999999999999995e-05,-5.9999999999999995e-05,-5e-05,-4e-05,2e-05,-2.9999999999999997e-05,2e-05,-0.00015,3
11712,12284,-5.9999999999999995e-05,-5.9999999999999995e-05,-5e-05,-4e-05,2e-05,-2.9999999999999997e-05,2e-05,-0.00015,3
11713,12285,-5.9999999999999995e-05,-5.9999999999999995e-05,-5e-05,-4e-05,2e-05,-2.9999999999999997e-05,2e-05,-0.00015,3
11714,12286,-7e-05,-5e-05,-2.9999999999999997e-05,-2e-05,-5e-05,-2e-05,7e-05,0.00011999999999999999,3
11715,12289,1e-05,2.9999999999999997e-05,5.9999999999999995e-05,7e-05,5e-05,0.0001,5e-05,-8e-05,3
11716,12290,1e-05,2.9999999999999997e-05,5.9999999999999995e-05,7e-05,5e-05,0.0001,5e-05,-8e-05,3
11717,12291,1e-05,2.9999999999999997e-05,5.9999999999999995e-05,7e-05,5e-05,0.0001,5e-05,-8e-05,3
11718,12292,1e-05,2.9999999999999997e-05,5.9999999999999995e-05,7e-05,5e-05,0.0001,5e-05,-8e-05,3
11719,12293,1e-05,2.9999999999999997e-05,5.9999999999999995e-05,7e-05,5e-05,0.0001,5e-05,-8e-05,3
11720,12294,1e-05,2.9999999999999997e-05,5.9999999999999995e-05,7e-05,5e-05,0.0001,5e-05,-8e-05,3
11721,12295,1e-05,2.9999999999999997e-05,5.9999999999999995e-05,7e-05,5e-05,0.0001,5e-05,-8e-05,3
11722,12296,1e-05,2.9999999999999997e-05,5.9999999999999995e-05,7e-05,5e-05,0.0001,5e-05,-8e-05,3
11723,12297,1e-05,2.9999999999999997e-05,5.9999999999999995e-05,7e-05,5e-05,0.0001,5e-05,-8e-05,3
11724,12298,1e-05,2.9999999999999997e-05,5.9999999999999995e-05,7e-05,5e-05,0.0001,5e-05,-8e-05,3
11725,12299,1e-05,2.9999999999999997e-05,5.9999999999999995e-05,7e-05,5e-05,0.0001,5e-05,-8e-05,3
11726,12300,1e-05,2.9999999999999997e-05,5.9999999999999995e-05,7e-05,5e-05,0.0001,5e-05,-8e-05,3
11727,12301,1e-05,2.9999999999999997e-05,5.9999999999999995e-05,7e-05,5e-05,0.0001,5e-05,-8e-05,3
11728,12302,1e-05,2.9999999999999997e-05,5.9999999999999995e-05,7e-05,5e-05,0.0001,5e-05,-8e-05,3
11729,12303,1e-05,2.9999999999999997e-05,5.9999999999999995e-05,7e-05,5e-05,0.0001,5e-05,-8e-05,3
11730,12304,1e-05,2.9999999999999997e-05,5.9999999999999995e-05,7e-05,5e-05,0.0001,5e-05,-8e-05,3
11731,12305,1e-05,2.9999999999999997e-05,5.9999999999999995e-05,7e-05,5e-05,0.0001,5e-05,-8e-05,3
11732,12306,1e-05,2.9999999999999997e-05,5.9999999999999995e-05,7e-05,5e-05,0.0001,5e-05,-8e-05,3
11733,12307,1e-05,2.9999999999999997e-05,5.9999999999999995e-05,7e-05,5e-05,0.0001,5e-05,-8e-05,3
11734,12308,-2e-05,-1e-05,1e-05,0.0,7e-05,-1e-05,2e-05,-4e-05,3
11735,12309,-2e-05,-1e-05,1e-05,0.0,7e-05,-1e-05,2e-05,-4e-05,3
11736,12310,0.00015,2e-05,-4e-05,-5e-05,-9e-05,0.0,-1e-05,-2e-05,3
11737,12311,0.00015,2e-05,-4e-05,-5e-05,-9e-05,0.0,-1e-05,-2e-05,3
11738,12312,0.00015,2e-05,-4e-05,-5e-05,-9e-05,0.0,-1e-05,-2e-05,3
11739,12313,0.00015,2e-05,-4e-05,-5e-05,-9e-05,0.0,-1e-05,-2e-05,3
11740,12314,0.00015,2e-05,-4e-05,-5e-05,-9e-05,0.0,-1e-05,-2e-05,3
11741,12315,0.00015,2e-05,-4e-05,-5e-05,-9e-05,0.0,-1e-05,-2e-05,3
11742,12316,0.00015,2e-05,-4e-05,-5e-05,-9e-05,0.0,-1e-05,-2e-05,3
11743,12317,0.00015,2e-05,-4e-05,-5e-05,-9e-05,0.0,-1e-05,-2e-05,3
11744,12318,0.00015,2e-05,-4e-05,-5e-05,-9e-05,0.0,-1e-05,-2e-05,3
11745,12319,0.00015,2e-05,-4e-05,-5e-05,-9e-05,0.0,-1e-05,-2e-05,3
11746,12320,0.00015,2e-05,-4e-05,-5e-05,-9e-05,0.0,-1e-05,-2e-05,3
11747,12321,0.00015,2e-05,-4e-05,-5e-05,-9e-05,0.0,-1e-05,-2e-05,3
11748,12322,0.00015,2e-05,-4e-05,-5e-05,-9e-05,0.0,-1e-05,-2e-05,3
11749,12323,-7e-05,-0.00011,2e-05,-1e-05,0.0,-1e-05,0.00011999999999999999,0.00015,3
11750,12324,-7e-05,-0.00011,2e-05,-1e-05,0.0,-1e-05,0.00011999999999999999,0.00015,3
11751,12325,-7e-05,-0.00011,2e-05,-1e-05,0.0,-1e-05,0.00011999999999999999,0.00015,3
11752,12326,-7e-05,-0.00011,2e-05,-1e-05,0.0,-1e-05,0.00011999999999999999,0.00015,3
11753,12327,-7e-05,-0.00011,2e-05,-1e-05,0.0,-1e-05,0.00011999999999999999,0.00015,3
11754,12328,-7e-05,-0.00011,2e-05,-1e-05,0.0,-1e-05,0.00011999999999999999,0.00015,3
11755,12329,-4e-05,0.0,-5e-05,-5e-05,5e-05,1e-05,-0.0002,-0.00016,3
11756,12330,-4e-05,0.0,-5e-05,-5e-05,5e-05,1e-05,-0.0002,-0.00016,3
11757,12331,-4e-05,0.0,-5e-05,-5e-05,5e-05,1e-05,-0.0002,-0.00016,3
11758,12332,-4e-05,0.0,-5e-05,-5e-05,5e-05,1e-05,-0.0002,-0.00016,3
11759,12333,-4e-05,0.0,-5e-05,-5e-05,5e-05,1e-05,-0.0002,-0.00016,3
11760,12334,-4e-05,0.0,-5e-05,-5e-05,5e-05,1e-05,-0.0002,-0.00016,3
11761,12335,-4e-05,0.0,-5e-05,-5e-05,5e-05,1e-05,-0.0002,-0.00016,3
11762,12336,-4e-05,0.0,-5e-05,-5e-05,5e-05,1e-05,-0.0002,-0.00016,3
11763,12338,-4e-05,0.0,-5e-05,-5e-05,5e-05,1e-05,-0.0002,-0.00016,3
11764,12339,-4e-05,0.0,-5e-05,-5e-05,5e-05,1e-05,-0.0002,-0.00016,3
11765,12340,-4e-05,0.0,-5e-05,-5e-05,5e-05,1e-05,-0.0002,-0.00016,3
11766,12341,-4e-05,0.0,-5e-05,-5e-05,5e-05,1e-05,-0.0002,-0.00016,3
11767,12342,-4e-05,0.0,-5e-05,-5e-05,5e-05,1e-05,-0.0002,-0.00016,3
11768,12343,-4e-05,0.0,-5e-05,-5e-05,5e-05,1e-05,-0.0002,-0.00016,3
11769,12344,-4e-05,0.0,-5e-05,-5e-05,5e-05,1e-05,-0.0002,-0.00016,3
11770,12345,-4e-05,0.0,-5e-05,-5e-05,5e-05,1e-05,-0.0002,-0.00016,3
11771,12346,0.0,-5e-05,-5e-05,-2e-05,2.9999999999999997e-05,2e-05,-0.0001,5e-05,3
11772,12347,0.0,-5e-05,-5e-05,-2e-05,2.9999999999999997e-05,2e-05,-0.0001,5e-05,3
11773,12348,-7e-05,1e-05,5.9999999999999995e-05,0.0,-4e-05,-2.9999999999999997e-05,-9e-05,-0.00035,3
11774,12349,-7e-05,1e-05,5.9999999999999995e-05,0.0,-4e-05,-2.9999999999999997e-05,-9e-05,-0.00035,3
11775,12350,-7e-05,1e-05,5.9999999999999995e-05,0.0,-4e-05,-2.9999999999999997e-05,-9e-05,-0.00035,3
11776,12351,-7e-05,1e-05,5.9999999999999995e-05,0.0,-4e-05,-2.9999999999999997e-05,-9e-05,-0.00035,3
11777,12352,-7e-05,1e-05,5.9999999999999995e-05,0.0,-4e-05,-2.9999999999999997e-05,-9e-05,-0.00035,3
11778,12353,-7e-05,1e-05,5.9999999999999995e-05,0.0,-4e-05,-2.9999999999999997e-05,-9e-05,-0.00035,3
11779,12354,-7e-05,1e-05,5.9999999999999995e-05,0.0,-4e-05,-2.9999999999999997e-05,-9e-05,-0.00035,3
11780,12355,-7e-05,1e-05,5.9999999999999995e-05,0.0,-4e-05,-2.9999999999999997e-05,-9e-05,-0.00035,3
11781,12356,-7e-05,1e-05,5.9999999999999995e-05,0.0,-4e-05,-2.9999999999999997e-05,-9e-05,-0.00035,3
11782,12357,-7e-05,1e-05,5.9999999999999995e-05,0.0,-4e-05,-2.9999999999999997e-05,-9e-05,-0.00035,3
11783,12358,-7e-05,1e-05,5.9999999999999995e-05,0.0,-4e-05,-2.9999999999999997e-05,-9e-05,-0.00035,3
11784,12359,-7e-05,1e-05,5.9999999999999995e-05,0.0,-4e-05,-2.9999999999999997e-05,-9e-05,-0.00035,3
11785,12360,-7e-05,1e-05,5.9999999999999995e-05,0.0,-4e-05,-2.9999999999999997e-05,-9e-05,-0.00035,3
11786,12361,-7e-05,1e-05,5.9999999999999995e-05,0.0,-4e-05,-2.9999999999999997e-05,-9e-05,-0.00035,3
11787,12362,-7e-05,1e-05,5.9999999999999995e-05,0.0,-4e-05,-2.9999999999999997e-05,-9e-05,-0.00035,3
11788,12363,-7e-05,1e-05,5.9999999999999995e-05,0.0,-4e-05,-2.9999999999999997e-05,-9e-05,-0.00035,3
11789,12364,-7e-05,1e-05,5.9999999999999995e-05,0.0,-4e-05,-2.9999999999999997e-05,-9e-05,-0.00035,3
11790,12365,-7e-05,1e-05,5.9999999999999995e-05,0.0,-4e-05,-2.9999999999999997e-05,-9e-05,-0.00035,3
11791,12366,-7e-05,1e-05,5.9999999999999995e-05,0.0,-4e-05,-2.9999999999999997e-05,-9e-05,-0.00035,3
11792,12367,-7e-05,1e-05,5.9999999999999995e-05,0.0,-4e-05,-2.9999999999999997e-05,-9e-05,-0.00035,3
11793,12368,-7e-05,1e-05,5.9999999999999995e-05,0.0,-4e-05,-2.9999999999999997e-05,-9e-05,-0.00035,3
11794,12369,0.0,2.9999999999999997e-05,4e-05,4e-05,0.00014,0.0,-0.0001,-4e-05,3
11795,12370,-0.00011999999999999999,-5.9999999999999995e-05,-2.9999999999999997e-05,2.9999999999999997e-05,0.0,2e-05,0.00028,5e-05,3
11796,12371,-0.00011999999999999999,-5.9999999999999995e-05,-2.9999999999999997e-05,2.9999999999999997e-05,0.0,2e-05,0.00028,5e-05,3
11797,12372,-0.00011999999999999999,-5.9999999999999995e-05,-2.9999999999999997e-05,2.9999999999999997e-05,0.0,2e-05,0.00028,5e-05,3
11798,12373,-0.00011999999999999999,-5.9999999999999995e-05,-2.9999999999999997e-05,2.9999999999999997e-05,0.0,2e-05,0.00028,5e-05,3
11799,12374,-0.00011999999999999999,-5.9999999999999995e-05,-2.9999999999999997e-05,2.9999999999999997e-05,0.0,2e-05,0.00028,5e-05,3
11800,12375,-0.00011999999999999999,-5.9999999999999995e-05,-2.9999999999999997e-05,2.9999999999999997e-05,0.0,2e-05,0.00028,5e-05,3
11801,12376,-0.00011999999999999999,-5.9999999999999995e-05,-2.9999999999999997e-05,2.9999999999999997e-05,0.0,2e-05,0.00028,5e-05,3
11802,12377,-0.00011999999999999999,-5.9999999999999995e-05,-2.9999999999999997e-05,2.9999999999999997e-05,0.0,2e-05,0.00028,5e-05,3
11803,12378,-0.00011999999999999999,-5.9999999999999995e-05,-2.9999999999999997e-05,2.9999999999999997e-05,0.0,2e-05,0.00028,5e-05,3
11804,12379,-0.00011999999999999999,-5.9999999999999995e-05,-2.9999999999999997e-05,2.9999999999999997e-05,0.0,2e-05,0.00028,5e-05,3
11805,12380,-0.00011999999999999999,-5.9999999999999995e-05,-2.9999999999999997e-05,2.9999999999999997e-05,0.0,2e-05,0.00028,5e-05,3
11806,12381,-0.00011999999999999999,-5.9999999999999995e-05,-2.9999999999999997e-05,2.9999999999999997e-05,0.0,2e-05,0.00028,5e-05,3
11807,12382,-0.00011999999999999999,-5.9999999999999995e-05,-2.9999999999999997e-05,2.9999999999999997e-05,0.0,2e-05,0.00028,5e-05,3
11808,12383,0.00013000000000000002,5.9999999999999995e-05,-1e-05,0.0,-2.9999999999999997e-05,1e-05,-0.00021,0.00011999999999999999,3
11809,12384,0.00013000000000000002,5.9999999999999995e-05,-1e-05,0.0,-2.9999999999999997e-05,1e-05,-0.00021,0.00011999999999999999,3
11810,12385,0.00013000000000000002,5.9999999999999995e-05,-1e-05,0.0,-2.9999999999999997e-05,1e-05,-0.00021,0.00011999999999999999,3
11811,12386,0.00013000000000000002,5.9999999999999995e-05,-1e-05,0.0,-2.9999999999999997e-05,1e-05,-0.00021,0.00011999999999999999,3
11812,12388,0.00013000000000000002,5.9999999999999995e-05,-1e-05,0.0,-2.9999999999999997e-05,1e-05,-0.00021,0.00011999999999999999,3
11813,12389,-0.00011,-7e-05,0.0,2e-05,0.0,5.9999999999999995e-05,-7e-05,-0.00013000000000000002,3
11814,12390,4e-05,2.9999999999999997e-05,0.0,-1e-05,-5e-05,-7e-05,0.00011,0.00016999999999999999,3
11815,12391,4e-05,2.9999999999999997e-05,0.0,-1e-05,-5e-05,-7e-05,0.00011,0.00016999999999999999,3
11816,12392,4e-05,2.9999999999999997e-05,0.0,-1e-05,-5e-05,-7e-05,0.00011,0.00016999999999999999,3
11817,12393,4e-05,2.9999999999999997e-05,0.0,-1e-05,-5e-05,-7e-05,0.00011,0.00016999999999999999,3
11818,12394,4e-05,2.9999999999999997e-05,0.0,-1e-05,-5e-05,-7e-05,0.00011,0.00016999999999999999,3
11819,12395,4e-05,2.9999999999999997e-05,0.0,-1e-05,-5e-05,-7e-05,0.00011,0.00016999999999999999,3
11820,12396,4e-05,2.9999999999999997e-05,0.0,-1e-05,-5e-05,-7e-05,0.00011,0.00016999999999999999,3
11821,12397,4e-05,2.9999999999999997e-05,0.0,-1e-05,-5e-05,-7e-05,0.00011,0.00016999999999999999,3
11822,12398,4e-05,2.9999999999999997e-05,0.0,-1e-05,-5e-05,-7e-05,0.00011,0.00016999999999999999,3
11823,12399,4e-05,2.9999999999999997e-05,0.0,-1e-05,-5e-05,-7e-05,0.00011,0.00016999999999999999,3
11824,12400,4e-05,2.9999999999999997e-05,0.0,-1e-05,-5e-05,-7e-05,0.00011,0.00016999999999999999,3
11825,12401,4e-05,2.9999999999999997e-05,0.0,-1e-05,-5e-05,-7e-05,0.00011,0.00016999999999999999,3
11826,12402,4e-05,2.9999999999999997e-05,0.0,-1e-05,-5e-05,-7e-05,0.00011,0.00016999999999999999,3
11827,12403,4e-05,2.9999999999999997e-05,0.0,-1e-05,-5e-05,-7e-05,0.00011,0.00016999999999999999,3
11828,12404,4e-05,2.9999999999999997e-05,0.0,-1e-05,-5e-05,-7e-05,0.00011,0.00016999999999999999,3
11829,12405,4e-05,2.9999999999999997e-05,0.0,-1e-05,-5e-05,-7e-05,0.00011,0.00016999999999999999,3
11830,12406,-2e-05,-2.9999999999999997e-05,-8e-05,-8e-05,-9e-05,2e-05,0.00011,5e-05,3
11831,12407,-5e-05,-2.9999999999999997e-05,-1e-05,-2.9999999999999997e-05,0.0,0.0,1e-05,-0.0001,3
11832,12408,-5e-05,-2.9999999999999997e-05,-1e-05,-2.9999999999999997e-05,0.0,0.0,1e-05,-0.0001,3
11833,12409,-5e-05,-2.9999999999999997e-05,-1e-05,-2.9999999999999997e-05,0.0,0.0,1e-05,-0.0001,3
11834,12410,-5e-05,-2.9999999999999997e-05,-1e-05,-2.9999999999999997e-05,0.0,0.0,1e-05,-0.0001,3
11835,12411,-5e-05,-2.9999999999999997e-05,-1e-05,-2.9999999999999997e-05,0.0,0.0,1e-05,-0.0001,3
11836,12412,-5e-05,-2.9999999999999997e-05,-1e-05,-2.9999999999999997e-05,0.0,0.0,1e-05,-0.0001,3
11837,12413,-5e-05,-2.9999999999999997e-05,-1e-05,-2.9999999999999997e-05,0.0,0.0,1e-05,-0.0001,3
11838,12414,-5e-05,-2.9999999999999997e-05,-1e-05,-2.9999999999999997e-05,0.0,0.0,1e-05,-0.0001,3
11839,12415,-5e-05,-2.9999999999999997e-05,-1e-05,-2.9999999999999997e-05,0.0,0.0,1e-05,-0.0001,3
11840,12416,-5e-05,-2.9999999999999997e-05,-1e-05,-2.9999999999999997e-05,0.0,0.0,1e-05,-0.0001,3
11841,12417,-5e-05,-2.9999999999999997e-05,-1e-05,-2.9999999999999997e-05,0.0,0.0,1e-05,-0.0001,3
11842,12418,-5e-05,-2.9999999999999997e-05,-1e-05,-2.9999999999999997e-05,0.0,0.0,1e-05,-0.0001,3
11843,12419,-5e-05,-2.9999999999999997e-05,-1e-05,-2.9999999999999997e-05,0.0,0.0,1e-05,-0.0001,3
11844,12420,-5e-05,-2.9999999999999997e-05,-1e-05,-2.9999999999999997e-05,0.0,0.0,1e-05,-0.0001,3
11845,12421,-5e-05,-2.9999999999999997e-05,-1e-05,-2.9999999999999997e-05,0.0,0.0,1e-05,-0.0001,3
11846,12422,-5e-05,-2.9999999999999997e-05,-1e-05,-2.9999999999999997e-05,0.0,0.0,1e-05,-0.0001,3
11847,12423,-5e-05,-2.9999999999999997e-05,-1e-05,-2.9999999999999997e-05,0.0,0.0,1e-05,-0.0001,3
11848,12424,-5e-05,-2.9999999999999997e-05,-1e-05,-2.9999999999999997e-05,0.0,0.0,1e-05,-0.0001,3
11849,12425,-5e-05,-2.9999999999999997e-05,-1e-05,-2.9999999999999997e-05,0.0,0.0,1e-05,-0.0001,3
11850,12426,-5e-05,-2.9999999999999997e-05,-1e-05,-2.9999999999999997e-05,0.0,0.0,1e-05,-0.0001,3
11851,12427,-5e-05,-2.9999999999999997e-05,-1e-05,-2.9999999999999997e-05,0.0,0.0,1e-05,-0.0001,3
11852,12428,1e-05,1e-05,0.0,-1e-05,-9e-05,0.0,0.00015,5.9999999999999995e-05,3
11853,12429,1e-05,1e-05,0.0,-1e-05,-9e-05,0.0,0.00015,5.9999999999999995e-05,3
11854,12430,-5e-05,-5e-05,-2e-05,-1e-05,-2e-05,-2.9999999999999997e-05,1e-05,-0.00011999999999999999,3
11855,12431,-5e-05,-5e-05,-2e-05,-1e-05,-2e-05,-2.9999999999999997e-05,1e-05,-0.00011999999999999999,3
11856,12432,-5e-05,-5e-05,-2e-05,-1e-05,-2e-05,-2.9999999999999997e-05,1e-05,-0.00011999999999999999,3
11857,12433,-5e-05,-5e-05,-2e-05,-1e-05,-2e-05,-2.9999999999999997e-05,1e-05,-0.00011999999999999999,3
11858,12434,-5e-05,-5e-05,-2e-05,-1e-05,-2e-05,-2.9999999999999997e-05,1e-05,-0.00011999999999999999,3
11859,12435,-5e-05,-5e-05,-2e-05,-1e-05,-2e-05,-2.9999999999999997e-05,1e-05,-0.00011999999999999999,3
11860,12436,-5e-05,-5e-05,-2e-05,-1e-05,-2e-05,-2.9999999999999997e-05,1e-05,-0.00011999999999999999,3
11861,12438,-5e-05,-5e-05,-2e-05,-1e-05,-2e-05,-2.9999999999999997e-05,1e-05,-0.00011999999999999999,3
11862,12439,-5e-05,-5e-05,-2e-05,-1e-05,-2e-05,-2.9999999999999997e-05,1e-05,-0.00011999999999999999,3
11863,12440,-5e-05,-5e-05,-2e-05,-1e-05,-2e-05,-2.9999999999999997e-05,1e-05,-0.00011999999999999999,3
11864,12441,-5e-05,-5e-05,-2e-05,-1e-05,-2e-05,-2.9999999999999997e-05,1e-05,-0.00011999999999999999,3
11865,12442,-5e-05,-5e-05,-2e-05,-1e-05,-2e-05,-2.9999999999999997e-05,1e-05,-0.00011999999999999999,3
11866,12443,9e-05,0.0001,9e-05,1e-05,-2.9999999999999997e-05,-2.9999999999999997e-05,0.00016999999999999999,7e-05,3
11867,12444,9e-05,0.0001,9e-05,1e-05,-2.9999999999999997e-05,-2.9999999999999997e-05,0.00016999999999999999,7e-05,3
11868,12445,9e-05,0.0001,9e-05,1e-05,-2.9999999999999997e-05,-2.9999999999999997e-05,0.00016999999999999999,7e-05,3
11869,12446,9e-05,0.0001,9e-05,1e-05,-2.9999999999999997e-05,-2.9999999999999997e-05,0.00016999999999999999,7e-05,3
11870,12447,9e-05,0.0001,9e-05,1e-05,-2.9999999999999997e-05,-2.9999999999999997e-05,0.00016999999999999999,7e-05,3
11871,12448,9e-05,0.0001,9e-05,1e-05,-2.9999999999999997e-05,-2.9999999999999997e-05,0.00016999999999999999,7e-05,3
11872,12449,5.9999999999999995e-05,-2e-05,-5.9999999999999995e-05,-2e-05,8e-05,4e-05,-5.9999999999999995e-05,0.00016,3
11873,12450,5.9999999999999995e-05,-2e-05,-5.9999999999999995e-05,-2e-05,8e-05,4e-05,-5.9999999999999995e-05,0.00016,3
11874,12451,5.9999999999999995e-05,-2e-05,-5.9999999999999995e-05,-2e-05,8e-05,4e-05,-5.9999999999999995e-05,0.00016,3
11875,12452,5.9999999999999995e-05,-2e-05,-5.9999999999999995e-05,-2e-05,8e-05,4e-05,-5.9999999999999995e-05,0.00016,3
11876,12453,5.9999999999999995e-05,-2e-05,-5.9999999999999995e-05,-2e-05,8e-05,4e-05,-5.9999999999999995e-05,0.00016,3
11877,12454,5.9999999999999995e-05,-2e-05,-5.9999999999999995e-05,-2e-05,8e-05,4e-05,-5.9999999999999995e-05,0.00016,3
11878,12455,5.9999999999999995e-05,-2e-05,-5.9999999999999995e-05,-2e-05,8e-05,4e-05,-5.9999999999999995e-05,0.00016,3
11879,12456,5.9999999999999995e-05,-2e-05,-5.9999999999999995e-05,-2e-05,8e-05,4e-05,-5.9999999999999995e-05,0.00016,3
11880,12457,5.9999999999999995e-05,-2e-05,-5.9999999999999995e-05,-2e-05,8e-05,4e-05,-5.9999999999999995e-05,0.00016,3
11881,12458,5.9999999999999995e-05,-2e-05,-5.9999999999999995e-05,-2e-05,8e-05,4e-05,-5.9999999999999995e-05,0.00016,3
11882,12459,5.9999999999999995e-05,-2e-05,-5.9999999999999995e-05,-2e-05,8e-05,4e-05,-5.9999999999999995e-05,0.00016,3
11883,12460,5.9999999999999995e-05,-2e-05,-5.9999999999999995e-05,-2e-05,8e-05,4e-05,-5.9999999999999995e-05,0.00016,3
11884,12461,5.9999999999999995e-05,-2e-05,-5.9999999999999995e-05,-2e-05,8e-05,4e-05,-5.9999999999999995e-05,0.00016,3
11885,12462,5.9999999999999995e-05,-2e-05,-5.9999999999999995e-05,-2e-05,8e-05,4e-05,-5.9999999999999995e-05,0.00016,3
11886,12463,5.9999999999999995e-05,-2e-05,-5.9999999999999995e-05,-2e-05,8e-05,4e-05,-5.9999999999999995e-05,0.00016,3
11887,12464,5.9999999999999995e-05,-2e-05,-5.9999999999999995e-05,-2e-05,8e-05,4e-05,-5.9999999999999995e-05,0.00016,3
11888,12465,5.9999999999999995e-05,-2e-05,-5.9999999999999995e-05,-2e-05,8e-05,4e-05,-5.9999999999999995e-05,0.00016,3
11889,12466,-2e-05,-4e-05,-4e-05,0.0,2.9999999999999997e-05,-5e-05,-7e-05,-0.00018999999999999998,3
11890,12467,-2e-05,-4e-05,-4e-05,0.0,2.9999999999999997e-05,-5e-05,-7e-05,-0.00018999999999999998,3
11891,12468,-2e-05,-4e-05,-4e-05,0.0,2.9999999999999997e-05,-5e-05,-7e-05,-0.00018999999999999998,3
11892,12469,1e-05,1e-05,2e-05,0.0,-2.9999999999999997e-05,2e-05,-7e-05,0.0,3
11893,12470,1e-05,1e-05,2e-05,0.0,-2.9999999999999997e-05,2e-05,-7e-05,0.0,3
11894,12471,1e-05,1e-05,2e-05,0.0,-2.9999999999999997e-05,2e-05,-7e-05,0.0,3
11895,12472,1e-05,1e-05,2e-05,0.0,-2.9999999999999997e-05,2e-05,-7e-05,0.0,3
11896,12473,1e-05,1e-05,2e-05,0.0,-2.9999999999999997e-05,2e-05,-7e-05,0.0,3
11897,12474,1e-05,1e-05,2e-05,0.0,-2.9999999999999997e-05,2e-05,-7e-05,0.0,3
11898,12475,1e-05,1e-05,2e-05,0.0,-2.9999999999999997e-05,2e-05,-7e-05,0.0,3
11899,12476,1e-05,1e-05,2e-05,0.0,-2.9999999999999997e-05,2e-05,-7e-05,0.0,3
11900,12477,1e-05,1e-05,2e-05,0.0,-2.9999999999999997e-05,2e-05,-7e-05,0.0,3
11901,12478,1e-05,1e-05,2e-05,0.0,-2.9999999999999997e-05,2e-05,-7e-05,0.0,3
11902,12479,1e-05,1e-05,2e-05,0.0,-2.9999999999999997e-05,2e-05,-7e-05,0.0,3
11903,12480,1e-05,1e-05,2e-05,0.0,-2.9999999999999997e-05,2e-05,-7e-05,0.0,3
11904,12481,1e-05,1e-05,2e-05,0.0,-2.9999999999999997e-05,2e-05,-7e-05,0.0,3
11905,12482,1e-05,1e-05,2e-05,0.0,-2.9999999999999997e-05,2e-05,-7e-05,0.0,3
11906,12483,1e-05,1e-05,2e-05,0.0,-2.9999999999999997e-05,2e-05,-7e-05,0.0,3
11907,12484,1e-05,1e-05,2e-05,0.0,-2.9999999999999997e-05,2e-05,-7e-05,0.0,3
11908,12485,1e-05,1e-05,2e-05,0.0,-2.9999999999999997e-05,2e-05,-7e-05,0.0,3
11909,12486,1e-05,1e-05,2e-05,0.0,-2.9999999999999997e-05,2e-05,-7e-05,0.0,3
11910,12489,0.0,-5e-05,-2.9999999999999997e-05,-2e-05,-5e-05,0.0,5.9999999999999995e-05,-5e-05,3
11911,12490,2.9999999999999997e-05,0.0,0.0,-1e-05,2.9999999999999997e-05,5e-05,9e-05,-5e-05,3
11912,12491,2.9999999999999997e-05,0.0,0.0,-1e-05,2.9999999999999997e-05,5e-05,9e-05,-5e-05,3
11913,12492,2.9999999999999997e-05,0.0,0.0,-1e-05,2.9999999999999997e-05,5e-05,9e-05,-5e-05,3
11914,12493,2.9999999999999997e-05,0.0,0.0,-1e-05,2.9999999999999997e-05,5e-05,9e-05,-5e-05,3
11915,12494,2.9999999999999997e-05,0.0,0.0,-1e-05,2.9999999999999997e-05,5e-05,9e-05,-5e-05,3
11916,12495,2.9999999999999997e-05,0.0,0.0,-1e-05,2.9999999999999997e-05,5e-05,9e-05,-5e-05,3
11917,12496,2.9999999999999997e-05,0.0,0.0,-1e-05,2.9999999999999997e-05,5e-05,9e-05,-5e-05,3
11918,12497,2.9999999999999997e-05,0.0,0.0,-1e-05,2.9999999999999997e-05,5e-05,9e-05,-5e-05,3
11919,12498,2.9999999999999997e-05,0.0,0.0,-1e-05,2.9999999999999997e-05,5e-05,9e-05,-5e-05,3
11920,12499,2.9999999999999997e-05,0.0,0.0,-1e-05,2.9999999999999997e-05,5e-05,9e-05,-5e-05,3
11921,12500,2.9999999999999997e-05,0.0,0.0,-1e-05,2.9999999999999997e-05,5e-05,9e-05,-5e-05,3
11922,12501,2.9999999999999997e-05,0.0,0.0,-1e-05,2.9999999999999997e-05,5e-05,9e-05,-5e-05,3
11923,12502,2.9999999999999997e-05,0.0,0.0,-1e-05,2.9999999999999997e-05,5e-05,9e-05,-5e-05,3
11924,12503,0.0001,-2e-05,-4e-05,-2.9999999999999997e-05,-1e-05,0.0,0.0,-0.0001,3
11925,12504,0.0001,-2e-05,-4e-05,-2.9999999999999997e-05,-1e-05,0.0,0.0,-0.0001,3
11926,12505,0.0001,-2e-05,-4e-05,-2.9999999999999997e-05,-1e-05,0.0,0.0,-0.0001,3
11927,12506,0.0001,-2e-05,-4e-05,-2.9999999999999997e-05,-1e-05,0.0,0.0,-0.0001,3
11928,12507,0.0001,-2e-05,-4e-05,-2.9999999999999997e-05,-1e-05,0.0,0.0,-0.0001,3
11929,12508,0.0001,-2e-05,-4e-05,-2.9999999999999997e-05,-1e-05,0.0,0.0,-0.0001,3
11930,12509,-2e-05,-5.9999999999999995e-05,-4e-05,-2e-05,-7e-05,-8e-05,0.0,-0.00011999999999999999,3
11931,12510,-2e-05,-5.9999999999999995e-05,-4e-05,-2e-05,-7e-05,-8e-05,0.0,-0.00011999999999999999,3
11932,12511,-2e-05,-5.9999999999999995e-05,-4e-05,-2e-05,-7e-05,-8e-05,0.0,-0.00011999999999999999,3
11933,12512,-2e-05,-5.9999999999999995e-05,-4e-05,-2e-05,-7e-05,-8e-05,0.0,-0.00011999999999999999,3
11934,12513,-2e-05,-5.9999999999999995e-05,-4e-05,-2e-05,-7e-05,-8e-05,0.0,-0.00011999999999999999,3
11935,12514,-2e-05,-5.9999999999999995e-05,-4e-05,-2e-05,-7e-05,-8e-05,0.0,-0.00011999999999999999,3
11936,12515,-2e-05,-5.9999999999999995e-05,-4e-05,-2e-05,-7e-05,-8e-05,0.0,-0.00011999999999999999,3
11937,12516,-2e-05,-5.9999999999999995e-05,-4e-05,-2e-05,-7e-05,-8e-05,0.0,-0.00011999999999999999,3
11938,12517,-2e-05,-5.9999999999999995e-05,-4e-05,-2e-05,-7e-05,-8e-05,0.0,-0.00011999999999999999,3
11939,12518,-2e-05,-5.9999999999999995e-05,-4e-05,-2e-05,-7e-05,-8e-05,0.0,-0.00011999999999999999,3
11940,12519,-2e-05,-5.9999999999999995e-05,-4e-05,-2e-05,-7e-05,-8e-05,0.0,-0.00011999999999999999,3
11941,12520,-2e-05,-5.9999999999999995e-05,-4e-05,-2e-05,-7e-05,-8e-05,0.0,-0.00011999999999999999,3
11942,12521,-2e-05,-5.9999999999999995e-05,-4e-05,-2e-05,-7e-05,-8e-05,0.0,-0.00011999999999999999,3
11943,12522,-2e-05,-5.9999999999999995e-05,-4e-05,-2e-05,-7e-05,-8e-05,0.0,-0.00011999999999999999,3
11944,12523,-2e-05,-5.9999999999999995e-05,-4e-05,-2e-05,-7e-05,-8e-05,0.0,-0.00011999999999999999,3
11945,12524,-2e-05,-5.9999999999999995e-05,-4e-05,-2e-05,-7e-05,-8e-05,0.0,-0.00011999999999999999,3
11946,12525,-2e-05,-5.9999999999999995e-05,-4e-05,-2e-05,-7e-05,-8e-05,0.0,-0.00011999999999999999,3
11947,12526,-1e-05,-1e-05,5.9999999999999995e-05,0.0,0.0,1e-05,-0.0001,-5.9999999999999995e-05,3
11948,12527,-4e-05,-0.00013000000000000002,-0.00011999999999999999,-5e-05,-5.9999999999999995e-05,5.9999999999999995e-05,-0.00018999999999999998,-0.00045,3
11949,12528,-4e-05,-0.00013000000000000002,-0.00011999999999999999,-5e-05,-5.9999999999999995e-05,5.9999999999999995e-05,-0.00018999999999999998,-0.00045,3
11950,12529,-4e-05,-0.00013000000000000002,-0.00011999999999999999,-5e-05,-5.9999999999999995e-05,5.9999999999999995e-05,-0.00018999999999999998,-0.00045,3
11951,12530,-4e-05,-0.00013000000000000002,-0.00011999999999999999,-5e-05,-5.9999999999999995e-05,5.9999999999999995e-05,-0.00018999999999999998,-0.00045,3
11952,12531,-4e-05,-0.00013000000000000002,-0.00011999999999999999,-5e-05,-5.9999999999999995e-05,5.9999999999999995e-05,-0.00018999999999999998,-0.00045,3
11953,12532,-4e-05,-0.00013000000000000002,-0.00011999999999999999,-5e-05,-5.9999999999999995e-05,5.9999999999999995e-05,-0.00018999999999999998,-0.00045,3
11954,12533,-4e-05,-0.00013000000000000002,-0.00011999999999999999,-5e-05,-5.9999999999999995e-05,5.9999999999999995e-05,-0.00018999999999999998,-0.00045,3
11955,12534,-4e-05,-0.00013000000000000002,-0.00011999999999999999,-5e-05,-5.9999999999999995e-05,5.9999999999999995e-05,-0.00018999999999999998,-0.00045,3
11956,12535,-4e-05,-0.00013000000000000002,-0.00011999999999999999,-5e-05,-5.9999999999999995e-05,5.9999999999999995e-05,-0.00018999999999999998,-0.00045,3
11957,12536,-4e-05,-0.00013000000000000002,-0.00011999999999999999,-5e-05,-5.9999999999999995e-05,5.9999999999999995e-05,-0.00018999999999999998,-0.00045,3
11958,12538,-4e-05,-0.00013000000000000002,-0.00011999999999999999,-5e-05,-5.9999999999999995e-05,5.9999999999999995e-05,-0.00018999999999999998,-0.00045,3
11959,12539,-4e-05,-0.00013000000000000002,-0.00011999999999999999,-5e-05,-5.9999999999999995e-05,5.9999999999999995e-05,-0.00018999999999999998,-0.00045,3
11960,12540,-4e-05,-0.00013000000000000002,-0.00011999999999999999,-5e-05,-5.9999999999999995e-05,5.9999999999999995e-05,-0.00018999999999999998,-0.00045,3
11961,12541,-4e-05,-0.00013000000000000002,-0.00011999999999999999,-5e-05,-5.9999999999999995e-05,5.9999999999999995e-05,-0.00018999999999999998,-0.00045,3
11962,12542,-4e-05,-0.00013000000000000002,-0.00011999999999999999,-5e-05,-5.9999999999999995e-05,5.9999999999999995e-05,-0.00018999999999999998,-0.00045,3
11963,12543,-4e-05,-0.00013000000000000002,-0.00011999999999999999,-5e-05,-5.9999999999999995e-05,5.9999999999999995e-05,-0.00018999999999999998,-0.00045,3
11964,12544,-4e-05,-0.00013000000000000002,-0.00011999999999999999,-5e-05,-5.9999999999999995e-05,5.9999999999999995e-05,-0.00018999999999999998,-0.00045,3
11965,12545,-4e-05,-0.00013000000000000002,-0.00011999999999999999,-5e-05,-5.9999999999999995e-05,5.9999999999999995e-05,-0.00018999999999999998,-0.00045,3
11966,12546,-4e-05,-0.00013000000000000002,-0.00011999999999999999,-5e-05,-5.9999999999999995e-05,5.9999999999999995e-05,-0.00018999999999999998,-0.00045,3
11967,12547,-4e-05,-0.00013000000000000002,-0.00011999999999999999,-5e-05,-5.9999999999999995e-05,5.9999999999999995e-05,-0.00018999999999999998,-0.00045,3
11968,12548,-4e-05,-0.00013000000000000002,-0.00011999999999999999,-5e-05,-5.9999999999999995e-05,5.9999999999999995e-05,-0.00018999999999999998,-0.00045,3
11969,12549,5e-05,9e-05,4e-05,2.9999999999999997e-05,-2e-05,9e-05,0.00022,0.00041,3
11970,12550,4e-05,1e-05,1e-05,1e-05,5.9999999999999995e-05,-0.00011999999999999999,-2.9999999999999997e-05,2e-05,3
11971,12551,4e-05,1e-05,1e-05,1e-05,5.9999999999999995e-05,-0.00011999999999999999,-2.9999999999999997e-05,2e-05,3
11972,12552,4e-05,1e-05,1e-05,1e-05,5.9999999999999995e-05,-0.00011999999999999999,-2.9999999999999997e-05,2e-05,3
11973,12553,4e-05,1e-05,1e-05,1e-05,5.9999999999999995e-05,-0.00011999999999999999,-2.9999999999999997e-05,2e-05,3
11974,12554,4e-05,1e-05,1e-05,1e-05,5.9999999999999995e-05,-0.00011999999999999999,-2.9999999999999997e-05,2e-05,3
11975,12555,4e-05,1e-05,1e-05,1e-05,5.9999999999999995e-05,-0.00011999999999999999,-2.9999999999999997e-05,2e-05,3
11976,12556,4e-05,1e-05,1e-05,1e-05,5.9999999999999995e-05,-0.00011999999999999999,-2.9999999999999997e-05,2e-05,3
11977,12557,4e-05,1e-05,1e-05,1e-05,5.9999999999999995e-05,-0.00011999999999999999,-2.9999999999999997e-05,2e-05,3
11978,12558,4e-05,1e-05,1e-05,1e-05,5.9999999999999995e-05,-0.00011999999999999999,-2.9999999999999997e-05,2e-05,3
11979,12559,4e-05,1e-05,1e-05,1e-05,5.9999999999999995e-05,-0.00011999999999999999,-2.9999999999999997e-05,2e-05,3
11980,12560,4e-05,1e-05,1e-05,1e-05,5.9999999999999995e-05,-0.00011999999999999999,-2.9999999999999997e-05,2e-05,3
11981,12561,4e-05,1e-05,1e-05,1e-05,5.9999999999999995e-05,-0.00011999999999999999,-2.9999999999999997e-05,2e-05,3
11982,12562,4e-05,1e-05,1e-05,1e-05,5.9999999999999995e-05,-0.00011999999999999999,-2.9999999999999997e-05,2e-05,3
11983,12563,-2.9999999999999997e-05,2e-05,-2.9999999999999997e-05,-2e-05,0.0,2.9999999999999997e-05,2.9999999999999997e-05,5e-05,3
11984,12564,-2.9999999999999997e-05,2e-05,-2.9999999999999997e-05,-2e-05,0.0,2.9999999999999997e-05,2.9999999999999997e-05,5e-05,3
11985,12565,-2.9999999999999997e-05,2e-05,-2.9999999999999997e-05,-2e-05,0.0,2.9999999999999997e-05,2.9999999999999997e-05,5e-05,3
11986,12566,-2.9999999999999997e-05,2e-05,-2.9999999999999997e-05,-2e-05,0.0,2.9999999999999997e-05,2.9999999999999997e-05,5e-05,3
11987,12567,-2.9999999999999997e-05,2e-05,-2.9999999999999997e-05,-2e-05,0.0,2.9999999999999997e-05,2.9999999999999997e-05,5e-05,3
11988,12568,-2.9999999999999997e-05,2e-05,-2.9999999999999997e-05,-2e-05,0.0,2.9999999999999997e-05,2.9999999999999997e-05,5e-05,3
11989,12569,-8e-05,-1e-05,-2e-05,-7e-05,-0.00018,-5e-05,-9e-05,0.00014,3
11990,12570,-4e-05,-2e-05,2.9999999999999997e-05,0.0,5.9999999999999995e-05,5.9999999999999995e-05,0.00022999999999999998,0.00021,3
11991,12571,-4e-05,-2e-05,2.9999999999999997e-05,0.0,5.9999999999999995e-05,5.9999999999999995e-05,0.00022999999999999998,0.00021,3
11992,12572,-4e-05,-2e-05,2.9999999999999997e-05,0.0,5.9999999999999995e-05,5.9999999999999995e-05,0.00022999999999999998,0.00021,3
11993,12573,-4e-05,-2e-05,2.9999999999999997e-05,0.0,5.9999999999999995e-05,5.9999999999999995e-05,0.00022999999999999998,0.00021,3
11994,12574,-4e-05,-2e-05,2.9999999999999997e-05,0.0,5.9999999999999995e-05,5.9999999999999995e-05,0.00022999999999999998,0.00021,3
11995,12575,-4e-05,-2e-05,2.9999999999999997e-05,0.0,5.9999999999999995e-05,5.9999999999999995e-05,0.00022999999999999998,0.00021,3
11996,12576,-4e-05,-2e-05,2.9999999999999997e-05,0.0,5.9999999999999995e-05,5.9999999999999995e-05,0.00022999999999999998,0.00021,3
11997,12577,-4e-05,-2e-05,2.9999999999999997e-05,0.0,5.9999999999999995e-05,5.9999999999999995e-05,0.00022999999999999998,0.00021,3
11998,12578,-4e-05,-2e-05,2.9999999999999997e-05,0.0,5.9999999999999995e-05,5.9999999999999995e-05,0.00022999999999999998,0.00021,3
11999,12579,-4e-05,-2e-05,2.9999999999999997e-05,0.0,5.9999999999999995e-05,5.9999999999999995e-05,0.00022999999999999998,0.00021,3
12000,12580,-4e-05,-2e-05,2.9999999999999997e-05,0.0,5.9999999999999995e-05,5.9999999999999995e-05,0.00022999999999999998,0.00021,3
12001,12581,-4e-05,-2e-05,2.9999999999999997e-05,0.0,5.9999999999999995e-05,5.9999999999999995e-05,0.00022999999999999998,0.00021,3
12002,12582,-4e-05,-2e-05,2.9999999999999997e-05,0.0,5.9999999999999995e-05,5.9999999999999995e-05,0.00022999999999999998,0.00021,3
12003,12583,-4e-05,-2e-05,2.9999999999999997e-05,0.0,5.9999999999999995e-05,5.9999999999999995e-05,0.00022999999999999998,0.00021,3
12004,12584,-4e-05,-2e-05,2.9999999999999997e-05,0.0,5.9999999999999995e-05,5.9999999999999995e-05,0.00022999999999999998,0.00021,3
12005,12585,-4e-05,-2e-05,2.9999999999999997e-05,0.0,5.9999999999999995e-05,5.9999999999999995e-05,0.00022999999999999998,0.00021,3
12006,12587,-5.9999999999999995e-05,-5e-05,-5.9999999999999995e-05,-5e-05,-5.9999999999999995e-05,2.9999999999999997e-05,4e-05,4e-05,3
12007,12589,5.9999999999999995e-05,2.9999999999999997e-05,0.0,-1e-05,-0.0001,-2e-05,5.9999999999999995e-05,-7e-05,3
12008,12590,5.9999999999999995e-05,2.9999999999999997e-05,0.0,-1e-05,-0.0001,-2e-05,5.9999999999999995e-05,-7e-05,3
12009,12591,5.9999999999999995e-05,2.9999999999999997e-05,0.0,-1e-05,-0.0001,-2e-05,5.9999999999999995e-05,-7e-05,3
12010,12592,5.9999999999999995e-05,2.9999999999999997e-05,0.0,-1e-05,-0.0001,-2e-05,5.9999999999999995e-05,-7e-05,3
12011,12593,5.9999999999999995e-05,2.9999999999999997e-05,0.0,-1e-05,-0.0001,-2e-05,5.9999999999999995e-05,-7e-05,3
12012,12594,5.9999999999999995e-05,2.9999999999999997e-05,0.0,-1e-05,-0.0001,-2e-05,5.9999999999999995e-05,-7e-05,3
12013,12595,5.9999999999999995e-05,2.9999999999999997e-05,0.0,-1e-05,-0.0001,-2e-05,5.9999999999999995e-05,-7e-05,3
12014,12596,5.9999999999999995e-05,2.9999999999999997e-05,0.0,-1e-05,-0.0001,-2e-05,5.9999999999999995e-05,-7e-05,3
12015,12597,5.9999999999999995e-05,2.9999999999999997e-05,0.0,-1e-05,-0.0001,-2e-05,5.9999999999999995e-05,-7e-05,3
12016,12598,5.9999999999999995e-05,2.9999999999999997e-05,0.0,-1e-05,-0.0001,-2e-05,5.9999999999999995e-05,-7e-05,3
12017,12599,5.9999999999999995e-05,2.9999999999999997e-05,0.0,-1e-05,-0.0001,-2e-05,5.9999999999999995e-05,-7e-05,3
12018,12600,5.9999999999999995e-05,2.9999999999999997e-05,0.0,-1e-05,-0.0001,-2e-05,5.9999999999999995e-05,-7e-05,3
12019,12601,5.9999999999999995e-05,2.9999999999999997e-05,0.0,-1e-05,-0.0001,-2e-05,5.9999999999999995e-05,-7e-05,3
12020,12602,5.9999999999999995e-05,2.9999999999999997e-05,0.0,-1e-05,-0.0001,-2e-05,5.9999999999999995e-05,-7e-05,3
12021,12603,5.9999999999999995e-05,2.9999999999999997e-05,0.0,-1e-05,-0.0001,-2e-05,5.9999999999999995e-05,-7e-05,3
12022,12604,5.9999999999999995e-05,2.9999999999999997e-05,0.0,-1e-05,-0.0001,-2e-05,5.9999999999999995e-05,-7e-05,3
12023,12605,5.9999999999999995e-05,2.9999999999999997e-05,0.0,-1e-05,-0.0001,-2e-05,5.9999999999999995e-05,-7e-05,3
12024,12606,5.9999999999999995e-05,2.9999999999999997e-05,0.0,-1e-05,-0.0001,-2e-05,5.9999999999999995e-05,-7e-05,3
12025,12607,5.9999999999999995e-05,2.9999999999999997e-05,0.0,-1e-05,-0.0001,-2e-05,5.9999999999999995e-05,-7e-05,3
12026,12608,2e-05,-1e-05,1e-05,-1e-05,7e-05,-9e-05,1e-05,-0.00022999999999999998,3
12027,12609,2e-05,-1e-05,1e-05,-1e-05,7e-05,-9e-05,1e-05,-0.00022999999999999998,3
12028,12610,-5.9999999999999995e-05,5.9999999999999995e-05,5e-05,5e-05,0.00014,1e-05,-5e-05,0.0002,3
12029,12611,-5.9999999999999995e-05,5.9999999999999995e-05,5e-05,5e-05,0.00014,1e-05,-5e-05,0.0002,3
12030,12612,-5.9999999999999995e-05,5.9999999999999995e-05,5e-05,5e-05,0.00014,1e-05,-5e-05,0.0002,3
12031,12613,-5.9999999999999995e-05,5.9999999999999995e-05,5e-05,5e-05,0.00014,1e-05,-5e-05,0.0002,3
12032,12614,-5.9999999999999995e-05,5.9999999999999995e-05,5e-05,5e-05,0.00014,1e-05,-5e-05,0.0002,3
12033,12615,-5.9999999999999995e-05,5.9999999999999995e-05,5e-05,5e-05,0.00014,1e-05,-5e-05,0.0002,3
12034,12616,-5.9999999999999995e-05,5.9999999999999995e-05,5e-05,5e-05,0.00014,1e-05,-5e-05,0.0002,3
12035,12617,-5.9999999999999995e-05,5.9999999999999995e-05,5e-05,5e-05,0.00014,1e-05,-5e-05,0.0002,3
12036,12618,-5.9999999999999995e-05,5.9999999999999995e-05,5e-05,5e-05,0.00014,1e-05,-5e-05,0.0002,3
12037,12619,-5.9999999999999995e-05,5.9999999999999995e-05,5e-05,5e-05,0.00014,1e-05,-5e-05,0.0002,3
12038,12620,-5.9999999999999995e-05,5.9999999999999995e-05,5e-05,5e-05,0.00014,1e-05,-5e-05,0.0002,3
12039,12621,-5.9999999999999995e-05,5.9999999999999995e-05,5e-05,5e-05,0.00014,1e-05,-5e-05,0.0002,3
12040,12622,-1e-05,-9e-05,-0.0001,-7e-05,-5e-05,-5e-05,-0.00021,0.00047000000000000004,3
12041,12623,-1e-05,-9e-05,-0.0001,-7e-05,-5e-05,-5e-05,-0.00021,0.00047000000000000004,3
12042,12624,-1e-05,-9e-05,-0.0001,-7e-05,-5e-05,-5e-05,-0.00021,0.00047000000000000004,3
12043,12625,-1e-05,-9e-05,-0.0001,-7e-05,-5e-05,-5e-05,-0.00021,0.00047000000000000004,3
12044,12626,-1e-05,-9e-05,-0.0001,-7e-05,-5e-05,-5e-05,-0.00021,0.00047000000000000004,3
12045,12627,-1e-05,-9e-05,-0.0001,-7e-05,-5e-05,-5e-05,-0.00021,0.00047000000000000004,3
12046,12628,-1e-05,-9e-05,-0.0001,-7e-05,-5e-05,-5e-05,-0.00021,0.00047000000000000004,3
12047,12629,-1e-05,-9e-05,-0.0001,-7e-05,-5e-05,-5e-05,-0.00021,0.00047000000000000004,3
12048,12630,-1e-05,-9e-05,-0.0001,-7e-05,-5e-05,-5e-05,-0.00021,0.00047000000000000004,3
12049,12631,-0.00014,-4e-05,-7e-05,-2.9999999999999997e-05,1e-05,1e-05,0.00015,-0.00011999999999999999,3
12050,12632,-0.00014,-4e-05,-7e-05,-2.9999999999999997e-05,1e-05,1e-05,0.00015,-0.00011999999999999999,3
12051,12633,-0.00014,-4e-05,-7e-05,-2.9999999999999997e-05,1e-05,1e-05,0.00015,-0.00011999999999999999,3
12052,12634,-0.00014,-4e-05,-7e-05,-2.9999999999999997e-05,1e-05,1e-05,0.00015,-0.00011999999999999999,3
12053,12635,-0.00014,-4e-05,-7e-05,-2.9999999999999997e-05,1e-05,1e-05,0.00015,-0.00011999999999999999,3
12054,12637,-0.00014,-4e-05,-7e-05,-2.9999999999999997e-05,1e-05,1e-05,0.00015,-0.00011999999999999999,3
12055,12640,-0.00014,-4e-05,-7e-05,-2.9999999999999997e-05,1e-05,1e-05,0.00015,-0.00011999999999999999,3
12056,12641,-0.00014,-4e-05,-7e-05,-2.9999999999999997e-05,1e-05,1e-05,0.00015,-0.00011999999999999999,3
12057,12642,-0.00014,-4e-05,-7e-05,-2.9999999999999997e-05,1e-05,1e-05,0.00015,-0.00011999999999999999,3
12058,12643,-0.00014,-4e-05,-7e-05,-2.9999999999999997e-05,1e-05,1e-05,0.00015,-0.00011999999999999999,3
12059,12644,-0.00014,-4e-05,-7e-05,-2.9999999999999997e-05,1e-05,1e-05,0.00015,-0.00011999999999999999,3
12060,12645,-0.00014,-4e-05,-7e-05,-2.9999999999999997e-05,1e-05,1e-05,0.00015,-0.00011999999999999999,3
12061,12646,-9e-05,-1e-05,0.0,-4e-05,-2e-05,-5.9999999999999995e-05,-5.9999999999999995e-05,-0.00037999999999999997,3
12062,12647,2e-05,-1e-05,0.0,2.9999999999999997e-05,0.00022,0.00011,-0.0004,-1e-05,3
12063,12648,2e-05,-1e-05,0.0,2.9999999999999997e-05,0.00022,0.00011,-0.0004,-1e-05,3
12064,12649,2e-05,-1e-05,0.0,2.9999999999999997e-05,0.00022,0.00011,-0.0004,-1e-05,3
12065,12650,2e-05,-1e-05,0.0,2.9999999999999997e-05,0.00022,0.00011,-0.0004,-1e-05,3
12066,12651,2e-05,-1e-05,0.0,2.9999999999999997e-05,0.00022,0.00011,-0.0004,-1e-05,3
12067,12652,2e-05,-1e-05,0.0,2.9999999999999997e-05,0.00022,0.00011,-0.0004,-1e-05,3
12068,12653,2e-05,-1e-05,0.0,2.9999999999999997e-05,0.00022,0.00011,-0.0004,-1e-05,3
12069,12654,2e-05,-1e-05,0.0,2.9999999999999997e-05,0.00022,0.00011,-0.0004,-1e-05,3
12070,12655,2e-05,-1e-05,0.0,2.9999999999999997e-05,0.00022,0.00011,-0.0004,-1e-05,3
12071,12656,2e-05,-1e-05,0.0,2.9999999999999997e-05,0.00022,0.00011,-0.0004,-1e-05,3
12072,12657,2e-05,-1e-05,0.0,2.9999999999999997e-05,0.00022,0.00011,-0.0004,-1e-05,3
12073,12658,2e-05,-1e-05,0.0,2.9999999999999997e-05,0.00022,0.00011,-0.0004,-1e-05,3
12074,12659,2e-05,-1e-05,0.0,2.9999999999999997e-05,0.00022,0.00011,-0.0004,-1e-05,3
12075,12660,2e-05,-1e-05,0.0,2.9999999999999997e-05,0.00022,0.00011,-0.0004,-1e-05,3
12076,12661,2e-05,-1e-05,0.0,2.9999999999999997e-05,0.00022,0.00011,-0.0004,-1e-05,3
12077,12662,2e-05,-1e-05,0.0,2.9999999999999997e-05,0.00022,0.00011,-0.0004,-1e-05,3
12078,12663,2e-05,-1e-05,0.0,2.9999999999999997e-05,0.00022,0.00011,-0.0004,-1e-05,3
12079,12664,2e-05,-1e-05,0.0,2.9999999999999997e-05,0.00022,0.00011,-0.0004,-1e-05,3
12080,12665,2e-05,-1e-05,0.0,2.9999999999999997e-05,0.00022,0.00011,-0.0004,-1e-05,3
12081,12666,2e-05,-1e-05,0.0,2.9999999999999997e-05,0.00022,0.00011,-0.0004,-1e-05,3
12082,12667,2e-05,-1e-05,0.0,2.9999999999999997e-05,0.00022,0.00011,-0.0004,-1e-05,3
12083,12668,-2e-05,1e-05,-1e-05,0.0,-4e-05,-2e-05,-8e-05,-8e-05,3
12084,12669,-2e-05,1e-05,-1e-05,0.0,-4e-05,-2e-05,-8e-05,-8e-05,3
12085,12670,-0.00013000000000000002,-0.0001,-4e-05,-2e-05,-4e-05,-5e-05,-5.9999999999999995e-05,-0.00021,3
12086,12671,-5e-05,2.9999999999999997e-05,4e-05,-1e-05,-7e-05,-2.9999999999999997e-05,-2.9999999999999997e-05,-2e-05,3
12087,12672,-5e-05,2.9999999999999997e-05,4e-05,-1e-05,-7e-05,-2.9999999999999997e-05,-2.9999999999999997e-05,-2e-05,3
12088,12673,-5e-05,2.9999999999999997e-05,4e-05,-1e-05,-7e-05,-2.9999999999999997e-05,-2.9999999999999997e-05,-2e-05,3
12089,12674,-5e-05,2.9999999999999997e-05,4e-05,-1e-05,-7e-05,-2.9999999999999997e-05,-2.9999999999999997e-05,-2e-05,3
12090,12675,-5e-05,2.9999999999999997e-05,4e-05,-1e-05,-7e-05,-2.9999999999999997e-05,-2.9999999999999997e-05,-2e-05,3
12091,12676,-5e-05,2.9999999999999997e-05,4e-05,-1e-05,-7e-05,-2.9999999999999997e-05,-2.9999999999999997e-05,-2e-05,3
12092,12677,-5e-05,2.9999999999999997e-05,4e-05,-1e-05,-7e-05,-2.9999999999999997e-05,-2.9999999999999997e-05,-2e-05,3
12093,12678,-5e-05,2.9999999999999997e-05,4e-05,-1e-05,-7e-05,-2.9999999999999997e-05,-2.9999999999999997e-05,-2e-05,3
12094,12679,-5e-05,2.9999999999999997e-05,4e-05,-1e-05,-7e-05,-2.9999999999999997e-05,-2.9999999999999997e-05,-2e-05,3
12095,12680,-5e-05,2.9999999999999997e-05,4e-05,-1e-05,-7e-05,-2.9999999999999997e-05,-2.9999999999999997e-05,-2e-05,3
12096,12681,-5e-05,2.9999999999999997e-05,4e-05,-1e-05,-7e-05,-2.9999999999999997e-05,-2.9999999999999997e-05,-2e-05,3
12097,12682,4e-05,-2.9999999999999997e-05,-2.9999999999999997e-05,0.0,-1e-05,1e-05,0.00018999999999999998,0.00061,3
12098,12683,4e-05,-2.9999999999999997e-05,-2.9999999999999997e-05,0.0,-1e-05,1e-05,0.00018999999999999998,0.00061,3
12099,12684,4e-05,-2.9999999999999997e-05,-2.9999999999999997e-05,0.0,-1e-05,1e-05,0.00018999999999999998,0.00061,3
12100,12685,4e-05,-2.9999999999999997e-05,-2.9999999999999997e-05,0.0,-1e-05,1e-05,0.00018999999999999998,0.00061,3
12101,12686,4e-05,-2.9999999999999997e-05,-2.9999999999999997e-05,0.0,-1e-05,1e-05,0.00018999999999999998,0.00061,3
12102,12688,4e-05,-2.9999999999999997e-05,-2.9999999999999997e-05,0.0,-1e-05,1e-05,0.00018999999999999998,0.00061,3
12103,12689,4e-05,-2.9999999999999997e-05,-2.9999999999999997e-05,0.0,-1e-05,1e-05,0.00018999999999999998,0.00061,3
12104,12690,4e-05,-2.9999999999999997e-05,-2.9999999999999997e-05,0.0,-1e-05,1e-05,0.00018999999999999998,0.00061,3
12105,12691,2e-05,-4e-05,2e-05,-2.9999999999999997e-05,-9e-05,-5e-05,0.0,9e-05,3
12106,12692,2e-05,-4e-05,2e-05,-2.9999999999999997e-05,-9e-05,-5e-05,0.0,9e-05,3
12107,12693,2e-05,-4e-05,2e-05,-2.9999999999999997e-05,-9e-05,-5e-05,0.0,9e-05,3
12108,12694,2e-05,-4e-05,2e-05,-2.9999999999999997e-05,-9e-05,-5e-05,0.0,9e-05,3
12109,12695,2e-05,-4e-05,2e-05,-2.9999999999999997e-05,-9e-05,-5e-05,0.0,9e-05,3
12110,12696,2e-05,-4e-05,2e-05,-2.9999999999999997e-05,-9e-05,-5e-05,0.0,9e-05,3
12111,12697,2e-05,-4e-05,2e-05,-2.9999999999999997e-05,-9e-05,-5e-05,0.0,9e-05,3
12112,12698,2e-05,-4e-05,2e-05,-2.9999999999999997e-05,-9e-05,-5e-05,0.0,9e-05,3
12113,12699,2e-05,-4e-05,2e-05,-2.9999999999999997e-05,-9e-05,-5e-05,0.0,9e-05,3
12114,12700,2e-05,-4e-05,2e-05,-2.9999999999999997e-05,-9e-05,-5e-05,0.0,9e-05,3
12115,12701,2e-05,-4e-05,2e-05,-2.9999999999999997e-05,-9e-05,-5e-05,0.0,9e-05,3
12116,12702,2e-05,-4e-05,2e-05,-2.9999999999999997e-05,-9e-05,-5e-05,0.0,9e-05,3
12117,12703,2e-05,-4e-05,2e-05,-2.9999999999999997e-05,-9e-05,-5e-05,0.0,9e-05,3
12118,12704,2e-05,-4e-05,2e-05,-2.9999999999999997e-05,-9e-05,-5e-05,0.0,9e-05,3
12119,12705,2e-05,-4e-05,2e-05,-2.9999999999999997e-05,-9e-05,-5e-05,0.0,9e-05,3
12120,12706,-2.9999999999999997e-05,-9e-05,-0.00013000000000000002,-2.9999999999999997e-05,0.00011,-2.9999999999999997e-05,-8e-05,-0.00013000000000000002,3
12121,12707,-2.9999999999999997e-05,-9e-05,-0.00013000000000000002,-2.9999999999999997e-05,0.00011,-2.9999999999999997e-05,-8e-05,-0.00013000000000000002,3
12122,12708,1e-05,-5e-05,-2e-05,-4e-05,-0.00011999999999999999,-5e-05,-2.9999999999999997e-05,-7e-05,3
12123,12709,1e-05,-5e-05,-2e-05,-4e-05,-0.00011999999999999999,-5e-05,-2.9999999999999997e-05,-7e-05,3
12124,12710,1e-05,-5e-05,-2e-05,-4e-05,-0.00011999999999999999,-5e-05,-2.9999999999999997e-05,-7e-05,3
12125,12711,1e-05,-5e-05,-2e-05,-4e-05,-0.00011999999999999999,-5e-05,-2.9999999999999997e-05,-7e-05,3
12126,12712,1e-05,-5e-05,-2e-05,-4e-05,-0.00011999999999999999,-5e-05,-2.9999999999999997e-05,-7e-05,3
12127,12713,1e-05,-5e-05,-2e-05,-4e-05,-0.00011999999999999999,-5e-05,-2.9999999999999997e-05,-7e-05,3
12128,12714,1e-05,-5e-05,-2e-05,-4e-05,-0.00011999999999999999,-5e-05,-2.9999999999999997e-05,-7e-05,3
12129,12715,1e-05,-5e-05,-2e-05,-4e-05,-0.00011999999999999999,-5e-05,-2.9999999999999997e-05,-7e-05,3
12130,12716,1e-05,-5e-05,-2e-05,-4e-05,-0.00011999999999999999,-5e-05,-2.9999999999999997e-05,-7e-05,3
12131,12717,1e-05,-5e-05,-2e-05,-4e-05,-0.00011999999999999999,-5e-05,-2.9999999999999997e-05,-7e-05,3
12132,12718,1e-05,-5e-05,-2e-05,-4e-05,-0.00011999999999999999,-5e-05,-2.9999999999999997e-05,-7e-05,3
12133,12719,1e-05,-5e-05,-2e-05,-4e-05,-0.00011999999999999999,-5e-05,-2.9999999999999997e-05,-7e-05,3
12134,12720,1e-05,-5e-05,-2e-05,-4e-05,-0.00011999999999999999,-5e-05,-2.9999999999999997e-05,-7e-05,3
12135,12721,1e-05,-5e-05,-2e-05,-4e-05,-0.00011999999999999999,-5e-05,-2.9999999999999997e-05,-7e-05,3
12136,12722,1e-05,-5e-05,-2e-05,-4e-05,-0.00011999999999999999,-5e-05,-2.9999999999999997e-05,-7e-05,3
12137,12723,1e-05,-5e-05,-2e-05,-4e-05,-0.00011999999999999999,-5e-05,-2.9999999999999997e-05,-7e-05,3
12138,12724,1e-05,-5e-05,-2e-05,-4e-05,-0.00011999999999999999,-5e-05,-2.9999999999999997e-05,-7e-05,3
12139,12725,1e-05,-5e-05,-2e-05,-4e-05,-0.00011999999999999999,-5e-05,-2.9999999999999997e-05,-7e-05,3
12140,12726,1e-05,-5e-05,-2e-05,-4e-05,-0.00011999999999999999,-5e-05,-2.9999999999999997e-05,-7e-05,3
12141,12727,1e-05,-5e-05,-2e-05,-4e-05,-0.00011999999999999999,-5e-05,-2.9999999999999997e-05,-7e-05,3
12142,12728,-9e-05,1e-05,-1e-05,0.0,1e-05,0.0,-4e-05,-0.0003,3
12143,12729,-9e-05,1e-05,-1e-05,0.0,1e-05,0.0,-4e-05,-0.0003,3
12144,12730,2e-05,2.9999999999999997e-05,4e-05,4e-05,9e-05,1e-05,0.00028,5.9999999999999995e-05,3
12145,12731,2e-05,2.9999999999999997e-05,4e-05,4e-05,9e-05,1e-05,0.00028,5.9999999999999995e-05,3
12146,12732,2e-05,2.9999999999999997e-05,4e-05,4e-05,9e-05,1e-05,0.00028,5.9999999999999995e-05,3
12147,12733,2e-05,2.9999999999999997e-05,4e-05,4e-05,9e-05,1e-05,0.00028,5.9999999999999995e-05,3
12148,12734,2e-05,2.9999999999999997e-05,4e-05,4e-05,9e-05,1e-05,0.00028,5.9999999999999995e-05,3
12149,12735,2e-05,2.9999999999999997e-05,4e-05,4e-05,9e-05,1e-05,0.00028,5.9999999999999995e-05,3
12150,12736,2e-05,2.9999999999999997e-05,4e-05,4e-05,9e-05,1e-05,0.00028,5.9999999999999995e-05,3
12151,12738,2e-05,2.9999999999999997e-05,4e-05,4e-05,9e-05,1e-05,0.00028,5.9999999999999995e-05,3
12152,12739,2e-05,2.9999999999999997e-05,4e-05,4e-05,9e-05,1e-05,0.00028,5.9999999999999995e-05,3
12153,12740,2e-05,2.9999999999999997e-05,4e-05,4e-05,9e-05,1e-05,0.00028,5.9999999999999995e-05,3
12154,12741,2e-05,2.9999999999999997e-05,4e-05,4e-05,9e-05,1e-05,0.00028,5.9999999999999995e-05,3
12155,12742,-1e-05,2e-05,0.0,-5e-05,-0.0001,-5.9999999999999995e-05,1e-05,0.00016,3
12156,12743,-1e-05,2e-05,0.0,-5e-05,-0.0001,-5.9999999999999995e-05,1e-05,0.00016,3
12157,12744,-1e-05,2e-05,0.0,-5e-05,-0.0001,-5.9999999999999995e-05,1e-05,0.00016,3
12158,12745,-1e-05,2e-05,0.0,-5e-05,-0.0001,-5.9999999999999995e-05,1e-05,0.00016,3
12159,12746,-1e-05,2e-05,0.0,-5e-05,-0.0001,-5.9999999999999995e-05,1e-05,0.00016,3
12160,12747,-1e-05,2e-05,0.0,-5e-05,-0.0001,-5.9999999999999995e-05,1e-05,0.00016,3
12161,12748,-1e-05,2e-05,0.0,-5e-05,-0.0001,-5.9999999999999995e-05,1e-05,0.00016,3
12162,12749,-1e-05,2e-05,0.0,-5e-05,-0.0001,-5.9999999999999995e-05,1e-05,0.00016,3
12163,12750,-1e-05,2e-05,0.0,-5e-05,-0.0001,-5.9999999999999995e-05,1e-05,0.00016,3
12164,12751,-0.0001,-4e-05,-5.9999999999999995e-05,-7e-05,-0.00013000000000000002,-8e-05,8e-05,0.00015,3
12165,12752,-0.0001,-4e-05,-5.9999999999999995e-05,-7e-05,-0.00013000000000000002,-8e-05,8e-05,0.00015,3
12166,12753,-0.0001,-4e-05,-5.9999999999999995e-05,-7e-05,-0.00013000000000000002,-8e-05,8e-05,0.00015,3
12167,12754,-0.0001,-4e-05,-5.9999999999999995e-05,-7e-05,-0.00013000000000000002,-8e-05,8e-05,0.00015,3
12168,12755,-0.0001,-4e-05,-5.9999999999999995e-05,-7e-05,-0.00013000000000000002,-8e-05,8e-05,0.00015,3
12169,12756,-0.0001,-4e-05,-5.9999999999999995e-05,-7e-05,-0.00013000000000000002,-8e-05,8e-05,0.00015,3
12170,12757,-0.0001,-4e-05,-5.9999999999999995e-05,-7e-05,-0.00013000000000000002,-8e-05,8e-05,0.00015,3
12171,12758,-0.0001,-4e-05,-5.9999999999999995e-05,-7e-05,-0.00013000000000000002,-8e-05,8e-05,0.00015,3
12172,12759,-0.0001,-4e-05,-5.9999999999999995e-05,-7e-05,-0.00013000000000000002,-8e-05,8e-05,0.00015,3
12173,12760,-0.0001,-4e-05,-5.9999999999999995e-05,-7e-05,-0.00013000000000000002,-8e-05,8e-05,0.00015,3
12174,12761,-0.0001,-4e-05,-5.9999999999999995e-05,-7e-05,-0.00013000000000000002,-8e-05,8e-05,0.00015,3
12175,12762,-0.0001,-4e-05,-5.9999999999999995e-05,-7e-05,-0.00013000000000000002,-8e-05,8e-05,0.00015,3
12176,12763,-0.0001,-4e-05,-5.9999999999999995e-05,-7e-05,-0.00013000000000000002,-8e-05,8e-05,0.00015,3
12177,12764,-0.0001,-4e-05,-5.9999999999999995e-05,-7e-05,-0.00013000000000000002,-8e-05,8e-05,0.00015,3
12178,12765,-0.0001,-4e-05,-5.9999999999999995e-05,-7e-05,-0.00013000000000000002,-8e-05,8e-05,0.00015,3
12179,12766,0.00011999999999999999,0.0,0.0,2e-05,-2.9999999999999997e-05,-4e-05,-0.00016999999999999999,0.00011999999999999999,3
12180,12767,1e-05,-2e-05,-2e-05,0.0,-1e-05,2.9999999999999997e-05,2.9999999999999997e-05,5e-05,3
12181,12768,1e-05,-2e-05,-2e-05,0.0,-1e-05,2.9999999999999997e-05,2.9999999999999997e-05,5e-05,3
12182,12769,1e-05,-2e-05,-2e-05,0.0,-1e-05,2.9999999999999997e-05,2.9999999999999997e-05,5e-05,3
12183,12770,1e-05,-2e-05,-2e-05,0.0,-1e-05,2.9999999999999997e-05,2.9999999999999997e-05,5e-05,3
12184,12771,1e-05,-2e-05,-2e-05,0.0,-1e-05,2.9999999999999997e-05,2.9999999999999997e-05,5e-05,3
12185,12772,1e-05,-2e-05,-2e-05,0.0,-1e-05,2.9999999999999997e-05,2.9999999999999997e-05,5e-05,3
12186,12773,1e-05,-2e-05,-2e-05,0.0,-1e-05,2.9999999999999997e-05,2.9999999999999997e-05,5e-05,3
12187,12774,1e-05,-2e-05,-2e-05,0.0,-1e-05,2.9999999999999997e-05,2.9999999999999997e-05,5e-05,3
12188,12775,1e-05,-2e-05,-2e-05,0.0,-1e-05,2.9999999999999997e-05,2.9999999999999997e-05,5e-05,3
12189,12776,1e-05,-2e-05,-2e-05,0.0,-1e-05,2.9999999999999997e-05,2.9999999999999997e-05,5e-05,3
12190,12777,1e-05,-2e-05,-2e-05,0.0,-1e-05,2.9999999999999997e-05,2.9999999999999997e-05,5e-05,3
12191,12778,1e-05,-2e-05,-2e-05,0.0,-1e-05,2.9999999999999997e-05,2.9999999999999997e-05,5e-05,3
12192,12779,1e-05,-2e-05,-2e-05,0.0,-1e-05,2.9999999999999997e-05,2.9999999999999997e-05,5e-05,3
12193,12780,1e-05,-2e-05,-2e-05,0.0,-1e-05,2.9999999999999997e-05,2.9999999999999997e-05,5e-05,3
12194,12781,1e-05,-2e-05,-2e-05,0.0,-1e-05,2.9999999999999997e-05,2.9999999999999997e-05,5e-05,3
12195,12782,1e-05,-2e-05,-2e-05,0.0,-1e-05,2.9999999999999997e-05,2.9999999999999997e-05,5e-05,3
12196,12783,1e-05,-2e-05,-2e-05,0.0,-1e-05,2.9999999999999997e-05,2.9999999999999997e-05,5e-05,3
12197,12784,1e-05,-2e-05,-2e-05,0.0,-1e-05,2.9999999999999997e-05,2.9999999999999997e-05,5e-05,3
12198,12785,1e-05,-2e-05,-2e-05,0.0,-1e-05,2.9999999999999997e-05,2.9999999999999997e-05,5e-05,3
12199,12786,1e-05,-2e-05,-2e-05,0.0,-1e-05,2.9999999999999997e-05,2.9999999999999997e-05,5e-05,3
12200,12789,-8e-05,0.00011,9e-05,2.9999999999999997e-05,2e-05,7e-05,2.9999999999999997e-05,-0.00021,3
12201,12790,-8e-05,0.00011,9e-05,2.9999999999999997e-05,2e-05,7e-05,2.9999999999999997e-05,-0.00021,3
12202,12791,2.9999999999999997e-05,-4e-05,-0.00011999999999999999,-4e-05,-5.9999999999999995e-05,-5e-05,9e-05,0.00016999999999999999,3
12203,12792,2.9999999999999997e-05,-4e-05,-0.00011999999999999999,-4e-05,-5.9999999999999995e-05,-5e-05,9e-05,0.00016999999999999999,3
12204,12793,2.9999999999999997e-05,-4e-05,-0.00011999999999999999,-4e-05,-5.9999999999999995e-05,-5e-05,9e-05,0.00016999999999999999,3
12205,12794,2.9999999999999997e-05,-4e-05,-0.00011999999999999999,-4e-05,-5.9999999999999995e-05,-5e-05,9e-05,0.00016999999999999999,3
12206,12795,2.9999999999999997e-05,-4e-05,-0.00011999999999999999,-4e-05,-5.9999999999999995e-05,-5e-05,9e-05,0.00016999999999999999,3
12207,12796,2.9999999999999997e-05,-4e-05,-0.00011999999999999999,-4e-05,-5.9999999999999995e-05,-5e-05,9e-05,0.00016999999999999999,3
12208,12797,2.9999999999999997e-05,-4e-05,-0.00011999999999999999,-4e-05,-5.9999999999999995e-05,-5e-05,9e-05,0.00016999999999999999,3
12209,12798,2.9999999999999997e-05,-4e-05,-0.00011999999999999999,-4e-05,-5.9999999999999995e-05,-5e-05,9e-05,0.00016999999999999999,3
12210,12799,2.9999999999999997e-05,-4e-05,-0.00011999999999999999,-4e-05,-5.9999999999999995e-05,-5e-05,9e-05,0.00016999999999999999,3
12211,12800,2.9999999999999997e-05,-4e-05,-0.00011999999999999999,-4e-05,-5.9999999999999995e-05,-5e-05,9e-05,0.00016999999999999999,3
12212,12801,2.9999999999999997e-05,-4e-05,-0.00011999999999999999,-4e-05,-5.9999999999999995e-05,-5e-05,9e-05,0.00016999999999999999,3
12213,12802,-2.9999999999999997e-05,-4e-05,-5e-05,-2e-05,0.0,-7e-05,-0.00013000000000000002,-5.9999999999999995e-05,3
12214,12803,5.9999999999999995e-05,2e-05,4e-05,-2e-05,-5.9999999999999995e-05,-2e-05,-9e-05,7e-05,3
12215,12804,5.9999999999999995e-05,2e-05,4e-05,-2e-05,-5.9999999999999995e-05,-2e-05,-9e-05,7e-05,3
12216,12805,5.9999999999999995e-05,2e-05,4e-05,-2e-05,-5.9999999999999995e-05,-2e-05,-9e-05,7e-05,3
12217,12806,5.9999999999999995e-05,2e-05,4e-05,-2e-05,-5.9999999999999995e-05,-2e-05,-9e-05,7e-05,3
12218,12807,5.9999999999999995e-05,2e-05,4e-05,-2e-05,-5.9999999999999995e-05,-2e-05,-9e-05,7e-05,3
12219,12808,5.9999999999999995e-05,2e-05,4e-05,-2e-05,-5.9999999999999995e-05,-2e-05,-9e-05,7e-05,3
12220,12809,5.9999999999999995e-05,2e-05,4e-05,-2e-05,-5.9999999999999995e-05,-2e-05,-9e-05,7e-05,3
12221,12810,5.9999999999999995e-05,2e-05,4e-05,-2e-05,-5.9999999999999995e-05,-2e-05,-9e-05,7e-05,3
12222,12811,5.9999999999999995e-05,2e-05,4e-05,-2e-05,-5.9999999999999995e-05,-2e-05,-9e-05,7e-05,3
12223,12812,5.9999999999999995e-05,2e-05,4e-05,-2e-05,-5.9999999999999995e-05,-2e-05,-9e-05,7e-05,3
12224,12813,5.9999999999999995e-05,2e-05,4e-05,-2e-05,-5.9999999999999995e-05,-2e-05,-9e-05,7e-05,3
12225,12814,5.9999999999999995e-05,2e-05,4e-05,-2e-05,-5.9999999999999995e-05,-2e-05,-9e-05,7e-05,3
12226,12815,5.9999999999999995e-05,2e-05,4e-05,-2e-05,-5.9999999999999995e-05,-2e-05,-9e-05,7e-05,3
12227,12816,5.9999999999999995e-05,2e-05,4e-05,-2e-05,-5.9999999999999995e-05,-2e-05,-9e-05,7e-05,3
12228,12817,5.9999999999999995e-05,2e-05,4e-05,-2e-05,-5.9999999999999995e-05,-2e-05,-9e-05,7e-05,3
12229,12818,5.9999999999999995e-05,2e-05,4e-05,-2e-05,-5.9999999999999995e-05,-2e-05,-9e-05,7e-05,3
12230,12819,0.0,-2.9999999999999997e-05,2e-05,1e-05,-8e-05,-2e-05,9e-05,-5e-05,3
12231,12820,0.0,-2.9999999999999997e-05,2e-05,1e-05,-8e-05,-2e-05,9e-05,-5e-05,3
12232,12821,0.0,-2.9999999999999997e-05,2e-05,1e-05,-8e-05,-2e-05,9e-05,-5e-05,3
12233,12822,0.0,-2.9999999999999997e-05,2e-05,1e-05,-8e-05,-2e-05,9e-05,-5e-05,3
12234,12823,0.0,-2.9999999999999997e-05,2e-05,1e-05,-8e-05,-2e-05,9e-05,-5e-05,3
12235,12824,0.0,-2.9999999999999997e-05,2e-05,1e-05,-8e-05,-2e-05,9e-05,-5e-05,3
12236,12825,0.0,-2.9999999999999997e-05,2e-05,1e-05,-8e-05,-2e-05,9e-05,-5e-05,3
12237,12826,-2e-05,-2e-05,-1e-05,-1e-05,-0.0001,-5.9999999999999995e-05,-9e-05,-2.9999999999999997e-05,3
12238,12827,0.0,-2e-05,-1e-05,-1e-05,4e-05,-4e-05,0.0,-2e-05,3
12239,12828,0.0,-2e-05,-1e-05,-1e-05,4e-05,-4e-05,0.0,-2e-05,3
12240,12829,0.0,-2e-05,-1e-05,-1e-05,4e-05,-4e-05,0.0,-2e-05,3
12241,12830,0.0,-2e-05,-1e-05,-1e-05,4e-05,-4e-05,0.0,-2e-05,3
12242,12831,0.0,-2e-05,-1e-05,-1e-05,4e-05,-4e-05,0.0,-2e-05,3
12243,12832,0.0,-2e-05,-1e-05,-1e-05,4e-05,-4e-05,0.0,-2e-05,3
12244,12833,0.0,-2e-05,-1e-05,-1e-05,4e-05,-4e-05,0.0,-2e-05,3
12245,12834,0.0,-2e-05,-1e-05,-1e-05,4e-05,-4e-05,0.0,-2e-05,3
12246,12835,0.0,-2e-05,-1e-05,-1e-05,4e-05,-4e-05,0.0,-2e-05,3
12247,12836,0.0,-2e-05,-1e-05,-1e-05,4e-05,-4e-05,0.0,-2e-05,3
12248,12839,0.0,-2e-05,-1e-05,-1e-05,4e-05,-4e-05,0.0,-2e-05,3
12249,12840,0.0,-2e-05,-1e-05,-1e-05,4e-05,-4e-05,0.0,-2e-05,3
12250,12841,0.0,-2e-05,-1e-05,-1e-05,4e-05,-4e-05,0.0,-2e-05,3
12251,12842,0.0,-2e-05,-1e-05,-1e-05,4e-05,-4e-05,0.0,-2e-05,3
12252,12843,0.0,-2e-05,-1e-05,-1e-05,4e-05,-4e-05,0.0,-2e-05,3
12253,12844,0.0,-2e-05,-1e-05,-1e-05,4e-05,-4e-05,0.0,-2e-05,3
12254,12845,0.0,-2e-05,-1e-05,-1e-05,4e-05,-4e-05,0.0,-2e-05,3
12255,12846,0.0,-2e-05,-1e-05,-1e-05,4e-05,-4e-05,0.0,-2e-05,3
12256,12847,0.0,-2e-05,-1e-05,-1e-05,4e-05,-4e-05,0.0,-2e-05,3
12257,12848,0.00013000000000000002,0.00013000000000000002,5e-05,5.9999999999999995e-05,0.00018,0.00018999999999999998,0.00041,0.00033999999999999997,3
12258,12849,-0.00013000000000000002,-2.9999999999999997e-05,1e-05,-1e-05,0.0,-5.9999999999999995e-05,-2.9999999999999997e-05,-0.00014,3
12259,12850,5.9999999999999995e-05,5.9999999999999995e-05,-2.9999999999999997e-05,-4e-05,-0.00011,-7e-05,-5.9999999999999995e-05,-2e-05,3
12260,12851,5.9999999999999995e-05,5.9999999999999995e-05,-2.9999999999999997e-05,-4e-05,-0.00011,-7e-05,-5.9999999999999995e-05,-2e-05,3
12261,12852,5.9999999999999995e-05,5.9999999999999995e-05,-2.9999999999999997e-05,-4e-05,-0.00011,-7e-05,-5.9999999999999995e-05,-2e-05,3
12262,12853,5.9999999999999995e-05,5.9999999999999995e-05,-2.9999999999999997e-05,-4e-05,-0.00011,-7e-05,-5.9999999999999995e-05,-2e-05,3
12263,12854,5.9999999999999995e-05,5.9999999999999995e-05,-2.9999999999999997e-05,-4e-05,-0.00011,-7e-05,-5.9999999999999995e-05,-2e-05,3
12264,12855,5.9999999999999995e-05,5.9999999999999995e-05,-2.9999999999999997e-05,-4e-05,-0.00011,-7e-05,-5.9999999999999995e-05,-2e-05,3
12265,12856,5.9999999999999995e-05,5.9999999999999995e-05,-2.9999999999999997e-05,-4e-05,-0.00011,-7e-05,-5.9999999999999995e-05,-2e-05,3
12266,12857,5.9999999999999995e-05,5.9999999999999995e-05,-2.9999999999999997e-05,-4e-05,-0.00011,-7e-05,-5.9999999999999995e-05,-2e-05,3
12267,12858,5.9999999999999995e-05,5.9999999999999995e-05,-2.9999999999999997e-05,-4e-05,-0.00011,-7e-05,-5.9999999999999995e-05,-2e-05,3
12268,12859,5.9999999999999995e-05,5.9999999999999995e-05,-2.9999999999999997e-05,-4e-05,-0.00011,-7e-05,-5.9999999999999995e-05,-2e-05,3
12269,12860,5.9999999999999995e-05,5.9999999999999995e-05,-2.9999999999999997e-05,-4e-05,-0.00011,-7e-05,-5.9999999999999995e-05,-2e-05,3
12270,12861,5.9999999999999995e-05,5.9999999999999995e-05,-2.9999999999999997e-05,-4e-05,-0.00011,-7e-05,-5.9999999999999995e-05,-2e-05,3
12271,12862,-0.00016,-0.0001,-5e-05,-5e-05,0.0,0.0,-0.00011,-0.00033,3
12272,12863,0.00011,2.9999999999999997e-05,4e-05,1e-05,-4e-05,2.9999999999999997e-05,0.00023999999999999998,0.00047999999999999996,3
12273,12864,0.00011,2.9999999999999997e-05,4e-05,1e-05,-4e-05,2.9999999999999997e-05,0.00023999999999999998,0.00047999999999999996,3
12274,12865,0.00011,2.9999999999999997e-05,4e-05,1e-05,-4e-05,2.9999999999999997e-05,0.00023999999999999998,0.00047999999999999996,3
12275,12866,0.00011,2.9999999999999997e-05,4e-05,1e-05,-4e-05,2.9999999999999997e-05,0.00023999999999999998,0.00047999999999999996,3
12276,12867,0.00011,2.9999999999999997e-05,4e-05,1e-05,-4e-05,2.9999999999999997e-05,0.00023999999999999998,0.00047999999999999996,3
12277,12868,0.00011,2.9999999999999997e-05,4e-05,1e-05,-4e-05,2.9999999999999997e-05,0.00023999999999999998,0.00047999999999999996,3
12278,12869,0.00011,2.9999999999999997e-05,4e-05,1e-05,-4e-05,2.9999999999999997e-05,0.00023999999999999998,0.00047999999999999996,3
12279,12870,0.00011,2.9999999999999997e-05,4e-05,1e-05,-4e-05,2.9999999999999997e-05,0.00023999999999999998,0.00047999999999999996,3
12280,12871,7e-05,7e-05,2.9999999999999997e-05,-1e-05,-2.9999999999999997e-05,5.9999999999999995e-05,2.9999999999999997e-05,-9e-05,3
12281,12872,7e-05,7e-05,2.9999999999999997e-05,-1e-05,-2.9999999999999997e-05,5.9999999999999995e-05,2.9999999999999997e-05,-9e-05,3
12282,12873,7e-05,7e-05,2.9999999999999997e-05,-1e-05,-2.9999999999999997e-05,5.9999999999999995e-05,2.9999999999999997e-05,-9e-05,3
12283,12874,7e-05,7e-05,2.9999999999999997e-05,-1e-05,-2.9999999999999997e-05,5.9999999999999995e-05,2.9999999999999997e-05,-9e-05,3
12284,12875,7e-05,7e-05,2.9999999999999997e-05,-1e-05,-2.9999999999999997e-05,5.9999999999999995e-05,2.9999999999999997e-05,-9e-05,3
12285,12876,7e-05,7e-05,2.9999999999999997e-05,-1e-05,-2.9999999999999997e-05,5.9999999999999995e-05,2.9999999999999997e-05,-9e-05,3
12286,12877,7e-05,7e-05,2.9999999999999997e-05,-1e-05,-2.9999999999999997e-05,5.9999999999999995e-05,2.9999999999999997e-05,-9e-05,3
12287,12878,7e-05,7e-05,2.9999999999999997e-05,-1e-05,-2.9999999999999997e-05,5.9999999999999995e-05,2.9999999999999997e-05,-9e-05,3
12288,12879,7e-05,7e-05,2.9999999999999997e-05,-1e-05,-2.9999999999999997e-05,5.9999999999999995e-05,2.9999999999999997e-05,-9e-05,3
12289,12880,7e-05,7e-05,2.9999999999999997e-05,-1e-05,-2.9999999999999997e-05,5.9999999999999995e-05,2.9999999999999997e-05,-9e-05,3
12290,12881,7e-05,7e-05,2.9999999999999997e-05,-1e-05,-2.9999999999999997e-05,5.9999999999999995e-05,2.9999999999999997e-05,-9e-05,3
12291,12882,7e-05,7e-05,2.9999999999999997e-05,-1e-05,-2.9999999999999997e-05,5.9999999999999995e-05,2.9999999999999997e-05,-9e-05,3
12292,12883,7e-05,7e-05,2.9999999999999997e-05,-1e-05,-2.9999999999999997e-05,5.9999999999999995e-05,2.9999999999999997e-05,-9e-05,3
12293,12884,7e-05,7e-05,2.9999999999999997e-05,-1e-05,-2.9999999999999997e-05,5.9999999999999995e-05,2.9999999999999997e-05,-9e-05,3
12294,12885,7e-05,7e-05,2.9999999999999997e-05,-1e-05,-2.9999999999999997e-05,5.9999999999999995e-05,2.9999999999999997e-05,-9e-05,3
12295,12886,7e-05,7e-05,2.9999999999999997e-05,-1e-05,-2.9999999999999997e-05,5.9999999999999995e-05,2.9999999999999997e-05,-9e-05,3
12296,12888,-4e-05,-1e-05,1e-05,2e-05,2e-05,1e-05,-5.9999999999999995e-05,0.00011999999999999999,3
12297,12889,-4e-05,-1e-05,1e-05,2e-05,2e-05,1e-05,-5.9999999999999995e-05,0.00011999999999999999,3
12298,12890,-4e-05,-1e-05,1e-05,2e-05,2e-05,1e-05,-5.9999999999999995e-05,0.00011999999999999999,3
12299,12891,-4e-05,-1e-05,1e-05,2e-05,2e-05,1e-05,-5.9999999999999995e-05,0.00011999999999999999,3
12300,12892,-4e-05,-1e-05,1e-05,2e-05,2e-05,1e-05,-5.9999999999999995e-05,0.00011999999999999999,3
12301,12893,-4e-05,-1e-05,1e-05,2e-05,2e-05,1e-05,-5.9999999999999995e-05,0.00011999999999999999,3
12302,12894,-4e-05,-1e-05,1e-05,2e-05,2e-05,1e-05,-5.9999999999999995e-05,0.00011999999999999999,3
12303,12895,-4e-05,-1e-05,1e-05,2e-05,2e-05,1e-05,-5.9999999999999995e-05,0.00011999999999999999,3
12304,12896,-4e-05,-1e-05,1e-05,2e-05,2e-05,1e-05,-5.9999999999999995e-05,0.00011999999999999999,3
12305,12897,-4e-05,-1e-05,1e-05,2e-05,2e-05,1e-05,-5.9999999999999995e-05,0.00011999999999999999,3
12306,12898,-4e-05,-1e-05,1e-05,2e-05,2e-05,1e-05,-5.9999999999999995e-05,0.00011999999999999999,3
12307,12899,-4e-05,-1e-05,1e-05,2e-05,2e-05,1e-05,-5.9999999999999995e-05,0.00011999999999999999,3
12308,12900,-4e-05,-1e-05,1e-05,2e-05,2e-05,1e-05,-5.9999999999999995e-05,0.00011999999999999999,3
12309,12901,-4e-05,-1e-05,1e-05,2e-05,2e-05,1e-05,-5.9999999999999995e-05,0.00011999999999999999,3
12310,12902,-4e-05,-1e-05,1e-05,2e-05,2e-05,1e-05,-5.9999999999999995e-05,0.00011999999999999999,3
12311,12903,-4e-05,-1e-05,1e-05,2e-05,2e-05,1e-05,-5.9999999999999995e-05,0.00011999999999999999,3
12312,12904,-4e-05,-1e-05,1e-05,2e-05,2e-05,1e-05,-5.9999999999999995e-05,0.00011999999999999999,3
12313,12905,-4e-05,-1e-05,1e-05,2e-05,2e-05,1e-05,-5.9999999999999995e-05,0.00011999999999999999,3
12314,12906,-4e-05,-1e-05,1e-05,2e-05,2e-05,1e-05,-5.9999999999999995e-05,0.00011999999999999999,3
12315,12907,-4e-05,-1e-05,1e-05,2e-05,2e-05,1e-05,-5.9999999999999995e-05,0.00011999999999999999,3
12316,12908,4e-05,2.9999999999999997e-05,1e-05,-2e-05,-1e-05,0.0,0.00014,0.00011,3
12317,12909,-1e-05,2e-05,1e-05,0.0,-5e-05,-2.9999999999999997e-05,7e-05,0.00016,3
12318,12910,5e-05,2.9999999999999997e-05,-2e-05,-1e-05,-7e-05,-2.9999999999999997e-05,-0.00016999999999999999,0.0007099999999999999,3
12319,12911,5e-05,2.9999999999999997e-05,-2e-05,-1e-05,-7e-05,-2.9999999999999997e-05,-0.00016999999999999999,0.0007099999999999999,3
12320,12912,5e-05,2.9999999999999997e-05,-2e-05,-1e-05,-7e-05,-2.9999999999999997e-05,-0.00016999999999999999,0.0007099999999999999,3
12321,12913,5e-05,2.9999999999999997e-05,-2e-05,-1e-05,-7e-05,-2.9999999999999997e-05,-0.00016999999999999999,0.0007099999999999999,3
12322,12914,5e-05,2.9999999999999997e-05,-2e-05,-1e-05,-7e-05,-2.9999999999999997e-05,-0.00016999999999999999,0.0007099999999999999,3
12323,12915,5e-05,2.9999999999999997e-05,-2e-05,-1e-05,-7e-05,-2.9999999999999997e-05,-0.00016999999999999999,0.0007099999999999999,3
12324,12916,5e-05,2.9999999999999997e-05,-2e-05,-1e-05,-7e-05,-2.9999999999999997e-05,-0.00016999999999999999,0.0007099999999999999,3
12325,12917,5e-05,2.9999999999999997e-05,-2e-05,-1e-05,-7e-05,-2.9999999999999997e-05,-0.00016999999999999999,0.0007099999999999999,3
12326,12918,5e-05,2.9999999999999997e-05,-2e-05,-1e-05,-7e-05,-2.9999999999999997e-05,-0.00016999999999999999,0.0007099999999999999,3
12327,12919,5e-05,2.9999999999999997e-05,-2e-05,-1e-05,-7e-05,-2.9999999999999997e-05,-0.00016999999999999999,0.0007099999999999999,3
12328,12920,5e-05,2.9999999999999997e-05,-2e-05,-1e-05,-7e-05,-2.9999999999999997e-05,-0.00016999999999999999,0.0007099999999999999,3
12329,12921,5e-05,2.9999999999999997e-05,-2e-05,-1e-05,-7e-05,-2.9999999999999997e-05,-0.00016999999999999999,0.0007099999999999999,3
12330,12922,-0.00014,-2.9999999999999997e-05,0.0,-1e-05,2e-05,-4e-05,-2e-05,-0.00032,3
12331,12923,-0.00014,-2.9999999999999997e-05,0.0,-1e-05,2e-05,-4e-05,-2e-05,-0.00032,3
12332,12924,-0.00014,-2.9999999999999997e-05,0.0,-1e-05,2e-05,-4e-05,-2e-05,-0.00032,3
12333,12925,-0.00014,-2.9999999999999997e-05,0.0,-1e-05,2e-05,-4e-05,-2e-05,-0.00032,3
12334,12926,-0.00014,-2.9999999999999997e-05,0.0,-1e-05,2e-05,-4e-05,-2e-05,-0.00032,3
12335,12927,-0.00014,-2.9999999999999997e-05,0.0,-1e-05,2e-05,-4e-05,-2e-05,-0.00032,3
12336,12928,-0.00014,-2.9999999999999997e-05,0.0,-1e-05,2e-05,-4e-05,-2e-05,-0.00032,3
12337,12929,-0.00014,-2.9999999999999997e-05,0.0,-1e-05,2e-05,-4e-05,-2e-05,-0.00032,3
12338,12930,-0.00014,-2.9999999999999997e-05,0.0,-1e-05,2e-05,-4e-05,-2e-05,-0.00032,3
12339,12931,-0.00014,-2.9999999999999997e-05,0.0,-1e-05,2e-05,-4e-05,-2e-05,-0.00032,3
12340,12932,-0.00014,-2.9999999999999997e-05,0.0,-1e-05,2e-05,-4e-05,-2e-05,-0.00032,3
12341,12933,-0.00014,-2.9999999999999997e-05,0.0,-1e-05,2e-05,-4e-05,-2e-05,-0.00032,3
12342,12934,-0.00014,-2.9999999999999997e-05,0.0,-1e-05,2e-05,-4e-05,-2e-05,-0.00032,3
12343,12935,-0.00014,-2.9999999999999997e-05,0.0,-1e-05,2e-05,-4e-05,-2e-05,-0.00032,3
12344,12936,-0.00014,-2.9999999999999997e-05,0.0,-1e-05,2e-05,-4e-05,-2e-05,-0.00032,3
12345,12940,-0.00014,-2.9999999999999997e-05,0.0,-1e-05,2e-05,-4e-05,-2e-05,-0.00032,3
12346,12941,-0.00014,-2.9999999999999997e-05,0.0,-1e-05,2e-05,-4e-05,-2e-05,-0.00032,3
12347,12942,-0.00014,-2.9999999999999997e-05,0.0,-1e-05,2e-05,-4e-05,-2e-05,-0.00032,3
12348,12943,-0.00014,-2.9999999999999997e-05,0.0,-1e-05,2e-05,-4e-05,-2e-05,-0.00032,3
12349,12944,-0.00014,-2.9999999999999997e-05,0.0,-1e-05,2e-05,-4e-05,-2e-05,-0.00032,3
12350,12945,-0.00014,-2.9999999999999997e-05,0.0,-1e-05,2e-05,-4e-05,-2e-05,-0.00032,3
12351,12946,-0.00014,-2.9999999999999997e-05,0.0,-1e-05,2e-05,-4e-05,-2e-05,-0.00032,3
12352,12947,2.9999999999999997e-05,-1e-05,2e-05,-2e-05,-2.9999999999999997e-05,2.9999999999999997e-05,2.9999999999999997e-05,-0.00016,3
12353,12948,-1e-05,-4e-05,-2.9999999999999997e-05,2e-05,5.9999999999999995e-05,-1e-05,-2e-05,7e-05,3
12354,12949,2e-05,2.9999999999999997e-05,0.0,-1e-05,-2e-05,-4e-05,5e-05,4e-05,3
12355,12950,-2.9999999999999997e-05,-5e-05,-4e-05,4e-05,7e-05,2.9999999999999997e-05,-5.9999999999999995e-05,-0.00013000000000000002,3
12356,12951,-2.9999999999999997e-05,-5e-05,-4e-05,4e-05,7e-05,2.9999999999999997e-05,-5.9999999999999995e-05,-0.00013000000000000002,3
12357,12952,-2.9999999999999997e-05,-5e-05,-4e-05,4e-05,7e-05,2.9999999999999997e-05,-5.9999999999999995e-05,-0.00013000000000000002,3
12358,12953,-2.9999999999999997e-05,-5e-05,-4e-05,4e-05,7e-05,2.9999999999999997e-05,-5.9999999999999995e-05,-0.00013000000000000002,3
12359,12954,-2.9999999999999997e-05,-5e-05,-4e-05,4e-05,7e-05,2.9999999999999997e-05,-5.9999999999999995e-05,-0.00013000000000000002,3
12360,12955,-2.9999999999999997e-05,-5e-05,-4e-05,4e-05,7e-05,2.9999999999999997e-05,-5.9999999999999995e-05,-0.00013000000000000002,3
12361,12956,-2.9999999999999997e-05,-5e-05,-4e-05,4e-05,7e-05,2.9999999999999997e-05,-5.9999999999999995e-05,-0.00013000000000000002,3
12362,12957,-2.9999999999999997e-05,-5e-05,-4e-05,4e-05,7e-05,2.9999999999999997e-05,-5.9999999999999995e-05,-0.00013000000000000002,3
12363,12958,-2.9999999999999997e-05,-5e-05,-4e-05,4e-05,7e-05,2.9999999999999997e-05,-5.9999999999999995e-05,-0.00013000000000000002,3
12364,12959,-2.9999999999999997e-05,-5e-05,-4e-05,4e-05,7e-05,2.9999999999999997e-05,-5.9999999999999995e-05,-0.00013000000000000002,3
12365,12960,-2.9999999999999997e-05,-5e-05,-4e-05,4e-05,7e-05,2.9999999999999997e-05,-5.9999999999999995e-05,-0.00013000000000000002,3
12366,12961,-2.9999999999999997e-05,-5e-05,-4e-05,4e-05,7e-05,2.9999999999999997e-05,-5.9999999999999995e-05,-0.00013000000000000002,3
12367,12962,-2.9999999999999997e-05,-5e-05,-4e-05,4e-05,7e-05,2.9999999999999997e-05,-5.9999999999999995e-05,-0.00013000000000000002,3
12368,12963,-2.9999999999999997e-05,-5e-05,-4e-05,4e-05,7e-05,2.9999999999999997e-05,-5.9999999999999995e-05,-0.00013000000000000002,3
12369,12964,-2.9999999999999997e-05,-5e-05,-4e-05,4e-05,7e-05,2.9999999999999997e-05,-5.9999999999999995e-05,-0.00013000000000000002,3
12370,12965,-2.9999999999999997e-05,-5e-05,-4e-05,4e-05,7e-05,2.9999999999999997e-05,-5.9999999999999995e-05,-0.00013000000000000002,3
12371,12966,-2.9999999999999997e-05,-5e-05,-4e-05,4e-05,7e-05,2.9999999999999997e-05,-5.9999999999999995e-05,-0.00013000000000000002,3
12372,12967,-2.9999999999999997e-05,-5e-05,-4e-05,4e-05,7e-05,2.9999999999999997e-05,-5.9999999999999995e-05,-0.00013000000000000002,3
12373,12968,-5e-05,-5.9999999999999995e-05,-1e-05,-1e-05,-7e-05,-1e-05,1e-05,-4e-05,3
12374,12969,-1e-05,2e-05,0.0,5e-05,0.00023999999999999998,4e-05,-0.0001,0.0,3
12375,12970,2e-05,-2.9999999999999997e-05,-5.9999999999999995e-05,0.0,5.9999999999999995e-05,-5e-05,-7e-05,-2e-05,3
12376,12971,2e-05,-2.9999999999999997e-05,-5.9999999999999995e-05,0.0,5.9999999999999995e-05,-5e-05,-7e-05,-2e-05,3
12377,12972,2e-05,-2.9999999999999997e-05,-5.9999999999999995e-05,0.0,5.9999999999999995e-05,-5e-05,-7e-05,-2e-05,3
12378,12973,2e-05,-2.9999999999999997e-05,-5.9999999999999995e-05,0.0,5.9999999999999995e-05,-5e-05,-7e-05,-2e-05,3
12379,12974,2e-05,-2.9999999999999997e-05,-5.9999999999999995e-05,0.0,5.9999999999999995e-05,-5e-05,-7e-05,-2e-05,3
12380,12975,2e-05,-2.9999999999999997e-05,-5.9999999999999995e-05,0.0,5.9999999999999995e-05,-5e-05,-7e-05,-2e-05,3
12381,12976,2e-05,-2.9999999999999997e-05,-5.9999999999999995e-05,0.0,5.9999999999999995e-05,-5e-05,-7e-05,-2e-05,3
12382,12977,2e-05,-2.9999999999999997e-05,-5.9999999999999995e-05,0.0,5.9999999999999995e-05,-5e-05,-7e-05,-2e-05,3
12383,12978,2e-05,-2.9999999999999997e-05,-5.9999999999999995e-05,0.0,5.9999999999999995e-05,-5e-05,-7e-05,-2e-05,3
12384,12979,2e-05,-2.9999999999999997e-05,-5.9999999999999995e-05,0.0,5.9999999999999995e-05,-5e-05,-7e-05,-2e-05,3
12385,12980,2e-05,-2.9999999999999997e-05,-5.9999999999999995e-05,0.0,5.9999999999999995e-05,-5e-05,-7e-05,-2e-05,3
12386,12981,2e-05,-2.9999999999999997e-05,-5.9999999999999995e-05,0.0,5.9999999999999995e-05,-5e-05,-7e-05,-2e-05,3
12387,12982,-0.00014,-0.0001,-0.00011,-5e-05,-0.00011,-2e-05,-2e-05,2e-05,3
12388,12983,7e-05,1e-05,0.00013000000000000002,2.9999999999999997e-05,1e-05,-1e-05,0.0,-0.00011999999999999999,3
12389,12984,7e-05,1e-05,0.00013000000000000002,2.9999999999999997e-05,1e-05,-1e-05,0.0,-0.00011999999999999999,3
12390,12985,7e-05,1e-05,0.00013000000000000002,2.9999999999999997e-05,1e-05,-1e-05,0.0,-0.00011999999999999999,3
12391,12987,7e-05,1e-05,0.00013000000000000002,2.9999999999999997e-05,1e-05,-1e-05,0.0,-0.00011999999999999999,3
12392,12989,7e-05,1e-05,0.00013000000000000002,2.9999999999999997e-05,1e-05,-1e-05,0.0,-0.00011999999999999999,3
12393,12990,7e-05,1e-05,0.00013000000000000002,2.9999999999999997e-05,1e-05,-1e-05,0.0,-0.00011999999999999999,3
12394,12991,-4e-05,5e-05,1e-05,-1e-05,0.0,5e-05,-0.00014,-7e-05,3
12395,12992,-4e-05,5e-05,1e-05,-1e-05,0.0,5e-05,-0.00014,-7e-05,3
12396,12993,-4e-05,5e-05,1e-05,-1e-05,0.0,5e-05,-0.00014,-7e-05,3
12397,12994,-4e-05,5e-05,1e-05,-1e-05,0.0,5e-05,-0.00014,-7e-05,3
12398,12995,-4e-05,5e-05,1e-05,-1e-05,0.0,5e-05,-0.00014,-7e-05,3
12399,12996,-4e-05,5e-05,1e-05,-1e-05,0.0,5e-05,-0.00014,-7e-05,3
12400,12997,-4e-05,5e-05,1e-05,-1e-05,0.0,5e-05,-0.00014,-7e-05,3
12401,12998,-4e-05,5e-05,1e-05,-1e-05,0.0,5e-05,-0.00014,-7e-05,3
12402,12999,-4e-05,5e-05,1e-05,-1e-05,0.0,5e-05,-0.00014,-7e-05,3
12403,13000,-4e-05,5e-05,1e-05,-1e-05,0.0,5e-05,-0.00014,-7e-05,3
12404,13001,-4e-05,5e-05,1e-05,-1e-05,0.0,5e-05,-0.00014,-7e-05,3
12405,13002,-4e-05,5e-05,1e-05,-1e-05,0.0,5e-05,-0.00014,-7e-05,3
12406,13003,-4e-05,5e-05,1e-05,-1e-05,0.0,5e-05,-0.00014,-7e-05,3
12407,13004,-4e-05,5e-05,1e-05,-1e-05,0.0,5e-05,-0.00014,-7e-05,3
12408,13005,-4e-05,5e-05,1e-05,-1e-05,0.0,5e-05,-0.00014,-7e-05,3
12409,13006,0.0,-5e-05,-5e-05,-1e-05,-2.9999999999999997e-05,-1e-05,-4e-05,0.0,3
12410,13007,0.0,-5e-05,-5e-05,-1e-05,-2.9999999999999997e-05,-1e-05,-4e-05,0.0,3
12411,13008,2.9999999999999997e-05,-4e-05,-2e-05,1e-05,0.0,-4e-05,2e-05,-0.00042,3
12412,13009,2.9999999999999997e-05,-4e-05,-2e-05,1e-05,0.0,-4e-05,2e-05,-0.00042,3
12413,13010,2.9999999999999997e-05,-4e-05,-2e-05,1e-05,0.0,-4e-05,2e-05,-0.00042,3
12414,13011,2.9999999999999997e-05,-4e-05,-2e-05,1e-05,0.0,-4e-05,2e-05,-0.00042,3
12415,13012,2.9999999999999997e-05,-4e-05,-2e-05,1e-05,0.0,-4e-05,2e-05,-0.00042,3
12416,13013,2.9999999999999997e-05,-4e-05,-2e-05,1e-05,0.0,-4e-05,2e-05,-0.00042,3
12417,13014,2.9999999999999997e-05,-4e-05,-2e-05,1e-05,0.0,-4e-05,2e-05,-0.00042,3
12418,13015,2.9999999999999997e-05,-4e-05,-2e-05,1e-05,0.0,-4e-05,2e-05,-0.00042,3
12419,13016,2.9999999999999997e-05,-4e-05,-2e-05,1e-05,0.0,-4e-05,2e-05,-0.00042,3
12420,13017,2.9999999999999997e-05,-4e-05,-2e-05,1e-05,0.0,-4e-05,2e-05,-0.00042,3
12421,13018,2.9999999999999997e-05,-4e-05,-2e-05,1e-05,0.0,-4e-05,2e-05,-0.00042,3
12422,13019,2.9999999999999997e-05,-4e-05,-2e-05,1e-05,0.0,-4e-05,2e-05,-0.00042,3
12423,13020,2.9999999999999997e-05,-4e-05,-2e-05,1e-05,0.0,-4e-05,2e-05,-0.00042,3
12424,13021,2.9999999999999997e-05,-4e-05,-2e-05,1e-05,0.0,-4e-05,2e-05,-0.00042,3
12425,13022,2.9999999999999997e-05,-4e-05,-2e-05,1e-05,0.0,-4e-05,2e-05,-0.00042,3
12426,13023,2.9999999999999997e-05,-4e-05,-2e-05,1e-05,0.0,-4e-05,2e-05,-0.00042,3
12427,13024,2.9999999999999997e-05,-4e-05,-2e-05,1e-05,0.0,-4e-05,2e-05,-0.00042,3
12428,13025,2.9999999999999997e-05,-4e-05,-2e-05,1e-05,0.0,-4e-05,2e-05,-0.00042,3
12429,13026,2.9999999999999997e-05,-4e-05,-2e-05,1e-05,0.0,-4e-05,2e-05,-0.00042,3
12430,13027,2.9999999999999997e-05,-4e-05,-2e-05,1e-05,0.0,-4e-05,2e-05,-0.00042,3
12431,13028,-0.00018,-4e-05,-2.9999999999999997e-05,-4e-05,1e-05,0.0001,-0.00011999999999999999,-0.00032,3
12432,13029,-0.00018,-4e-05,-2.9999999999999997e-05,-4e-05,1e-05,0.0001,-0.00011999999999999999,-0.00032,3
12433,13030,0.0,1e-05,1e-05,-2.9999999999999997e-05,-5e-05,-5e-05,4e-05,2e-05,3
12434,13031,0.0,1e-05,1e-05,-2.9999999999999997e-05,-5e-05,-5e-05,4e-05,2e-05,3
12435,13032,0.0,1e-05,1e-05,-2.9999999999999997e-05,-5e-05,-5e-05,4e-05,2e-05,3
12436,13033,0.0,1e-05,1e-05,-2.9999999999999997e-05,-5e-05,-5e-05,4e-05,2e-05,3
12437,13034,0.0,1e-05,1e-05,-2.9999999999999997e-05,-5e-05,-5e-05,4e-05,2e-05,3
12438,13035,0.0,1e-05,1e-05,-2.9999999999999997e-05,-5e-05,-5e-05,4e-05,2e-05,3
12439,13037,0.0,1e-05,1e-05,-2.9999999999999997e-05,-5e-05,-5e-05,4e-05,2e-05,3
12440,13040,0.0,1e-05,1e-05,-2.9999999999999997e-05,-5e-05,-5e-05,4e-05,2e-05,3
12441,13041,0.0,1e-05,1e-05,-2.9999999999999997e-05,-5e-05,-5e-05,4e-05,2e-05,3
12442,13042,1e-05,-2e-05,1e-05,-1e-05,-1e-05,-2.9999999999999997e-05,0.00028,0.00014,3
12443,13043,1e-05,-2e-05,1e-05,-1e-05,-1e-05,-2.9999999999999997e-05,0.00028,0.00014,3
12444,13044,1e-05,-2e-05,1e-05,-1e-05,-1e-05,-2.9999999999999997e-05,0.00028,0.00014,3
12445,13045,1e-05,-2e-05,1e-05,-1e-05,-1e-05,-2.9999999999999997e-05,0.00028,0.00014,3
12446,13046,1e-05,-2e-05,1e-05,-1e-05,-1e-05,-2.9999999999999997e-05,0.00028,0.00014,3
12447,13047,1e-05,-2e-05,1e-05,-1e-05,-1e-05,-2.9999999999999997e-05,0.00028,0.00014,3
12448,13048,1e-05,-2e-05,1e-05,-1e-05,-1e-05,-2.9999999999999997e-05,0.00028,0.00014,3
12449,13049,1e-05,-2e-05,1e-05,-1e-05,-1e-05,-2.9999999999999997e-05,0.00028,0.00014,3
12450,13050,1e-05,-2e-05,1e-05,-1e-05,-1e-05,-2.9999999999999997e-05,0.00028,0.00014,3
12451,13051,1e-05,-2e-05,1e-05,-1e-05,-1e-05,-2.9999999999999997e-05,0.00028,0.00014,3
12452,13052,1e-05,-2e-05,1e-05,-1e-05,-1e-05,-2.9999999999999997e-05,0.00028,0.00014,3
12453,13053,1e-05,-2e-05,1e-05,-1e-05,-1e-05,-2.9999999999999997e-05,0.00028,0.00014,3
12454,13054,1e-05,-2e-05,1e-05,-1e-05,-1e-05,-2.9999999999999997e-05,0.00028,0.00014,3
12455,13055,1e-05,-2e-05,1e-05,-1e-05,-1e-05,-2.9999999999999997e-05,0.00028,0.00014,3
12456,13056,1e-05,-2e-05,1e-05,-1e-05,-1e-05,-2.9999999999999997e-05,0.00028,0.00014,3
12457,13057,1e-05,-2e-05,1e-05,-1e-05,-1e-05,-2.9999999999999997e-05,0.00028,0.00014,3
12458,13058,-5e-05,-2e-05,1e-05,-2e-05,-7e-05,2e-05,1e-05,-4e-05,3
12459,13059,-5e-05,-2e-05,1e-05,-2e-05,-7e-05,2e-05,1e-05,-4e-05,3
12460,13060,-5e-05,-2e-05,1e-05,-2e-05,-7e-05,2e-05,1e-05,-4e-05,3
12461,13061,-5e-05,-2e-05,1e-05,-2e-05,-7e-05,2e-05,1e-05,-4e-05,3
12462,13062,-5e-05,-2e-05,1e-05,-2e-05,-7e-05,2e-05,1e-05,-4e-05,3
12463,13063,-5e-05,-2e-05,1e-05,-2e-05,-7e-05,2e-05,1e-05,-4e-05,3
12464,13064,-5e-05,-2e-05,1e-05,-2e-05,-7e-05,2e-05,1e-05,-4e-05,3
12465,13065,-2.9999999999999997e-05,-1e-05,-2e-05,-2.9999999999999997e-05,-1e-05,-1e-05,-5e-05,-5.9999999999999995e-05,3
12466,13066,-2.9999999999999997e-05,-1e-05,-2e-05,-2.9999999999999997e-05,-1e-05,-1e-05,-5e-05,-5.9999999999999995e-05,3
12467,13067,-2.9999999999999997e-05,-1e-05,-2e-05,-2.9999999999999997e-05,-1e-05,-1e-05,-5e-05,-5.9999999999999995e-05,3
12468,13068,-2.9999999999999997e-05,-1e-05,-2e-05,-2.9999999999999997e-05,-1e-05,-1e-05,-5e-05,-5.9999999999999995e-05,3
12469,13069,-2.9999999999999997e-05,-1e-05,-2e-05,-2.9999999999999997e-05,-1e-05,-1e-05,-5e-05,-5.9999999999999995e-05,3
12470,13070,-2.9999999999999997e-05,-1e-05,-2e-05,-2.9999999999999997e-05,-1e-05,-1e-05,-5e-05,-5.9999999999999995e-05,3
12471,13071,-2.9999999999999997e-05,-1e-05,-2e-05,-2.9999999999999997e-05,-1e-05,-1e-05,-5e-05,-5.9999999999999995e-05,3
12472,13072,-5e-05,-5.9999999999999995e-05,2e-05,2e-05,0.00011,1e-05,0.00021,-0.00011,3
12473,13073,-5e-05,-5.9999999999999995e-05,2e-05,2e-05,0.00011,1e-05,0.00021,-0.00011,3
12474,13074,-5e-05,-5.9999999999999995e-05,2e-05,2e-05,0.00011,1e-05,0.00021,-0.00011,3
12475,13075,-5e-05,-5.9999999999999995e-05,2e-05,2e-05,0.00011,1e-05,0.00021,-0.00011,3
12476,13076,-5e-05,-5.9999999999999995e-05,2e-05,2e-05,0.00011,1e-05,0.00021,-0.00011,3
12477,13077,-5e-05,-5.9999999999999995e-05,2e-05,2e-05,0.00011,1e-05,0.00021,-0.00011,3
12478,13078,-5e-05,-5.9999999999999995e-05,2e-05,2e-05,0.00011,1e-05,0.00021,-0.00011,3
12479,13079,-5e-05,-5.9999999999999995e-05,2e-05,2e-05,0.00011,1e-05,0.00021,-0.00011,3
12480,13080,-5e-05,-5.9999999999999995e-05,2e-05,2e-05,0.00011,1e-05,0.00021,-0.00011,3
12481,13081,-5e-05,-5.9999999999999995e-05,2e-05,2e-05,0.00011,1e-05,0.00021,-0.00011,3
12482,13082,-5e-05,-5.9999999999999995e-05,2e-05,2e-05,0.00011,1e-05,0.00021,-0.00011,3
12483,13083,-5e-05,-5.9999999999999995e-05,2e-05,2e-05,0.00011,1e-05,0.00021,-0.00011,3
12484,13084,-5e-05,-5.9999999999999995e-05,2e-05,2e-05,0.00011,1e-05,0.00021,-0.00011,3
12485,13085,-5e-05,-5.9999999999999995e-05,2e-05,2e-05,0.00011,1e-05,0.00021,-0.00011,3
12486,13087,-5e-05,-5.9999999999999995e-05,2e-05,2e-05,0.00011,1e-05,0.00021,-0.00011,3
12487,13089,-5e-05,-5.9999999999999995e-05,2e-05,2e-05,0.00011,1e-05,0.00021,-0.00011,3
12488,13090,-5e-05,-5.9999999999999995e-05,2e-05,2e-05,0.00011,1e-05,0.00021,-0.00011,3
12489,13091,-5e-05,-5.9999999999999995e-05,2e-05,2e-05,0.00011,1e-05,0.00021,-0.00011,3
12490,13092,-5e-05,-5.9999999999999995e-05,2e-05,2e-05,0.00011,1e-05,0.00021,-0.00011,3
12491,13093,-5e-05,-5.9999999999999995e-05,2e-05,2e-05,0.00011,1e-05,0.00021,-0.00011,3
12492,13094,-5e-05,-5.9999999999999995e-05,2e-05,2e-05,0.00011,1e-05,0.00021,-0.00011,3
12493,13095,-5e-05,-5.9999999999999995e-05,2e-05,2e-05,0.00011,1e-05,0.00021,-0.00011,3
12494,13096,-5e-05,-5.9999999999999995e-05,2e-05,2e-05,0.00011,1e-05,0.00021,-0.00011,3
12495,13097,0.0,-2e-05,-2e-05,-2e-05,-2.9999999999999997e-05,-4e-05,-7e-05,-5.9999999999999995e-05,3
12496,13098,0.0,-2e-05,-2e-05,-2e-05,-2.9999999999999997e-05,-4e-05,-7e-05,-5.9999999999999995e-05,3
12497,13099,0.0,-2e-05,-2e-05,-2e-05,-2.9999999999999997e-05,-4e-05,-7e-05,-5.9999999999999995e-05,3
12498,13100,0.0,-2e-05,-2e-05,-2e-05,-2.9999999999999997e-05,-4e-05,-7e-05,-5.9999999999999995e-05,3
12499,13101,0.0,-2e-05,-2e-05,-2e-05,-2.9999999999999997e-05,-4e-05,-7e-05,-5.9999999999999995e-05,3
12500,13102,-2.9999999999999997e-05,-1e-05,-2.9999999999999997e-05,-7e-05,-0.00014,-4e-05,-2e-05,-0.00026000000000000003,3
12501,13103,-2.9999999999999997e-05,-1e-05,-2.9999999999999997e-05,-7e-05,-0.00014,-4e-05,-2e-05,-0.00026000000000000003,3
12502,13104,-2.9999999999999997e-05,-1e-05,-2.9999999999999997e-05,-7e-05,-0.00014,-4e-05,-2e-05,-0.00026000000000000003,3
12503,13105,-2.9999999999999997e-05,-1e-05,-2.9999999999999997e-05,-7e-05,-0.00014,-4e-05,-2e-05,-0.00026000000000000003,3
12504,13106,-2.9999999999999997e-05,-1e-05,-2.9999999999999997e-05,-7e-05,-0.00014,-4e-05,-2e-05,-0.00026000000000000003,3
12505,13107,-2.9999999999999997e-05,-1e-05,-2.9999999999999997e-05,-7e-05,-0.00014,-4e-05,-2e-05,-0.00026000000000000003,3
12506,13108,-2.9999999999999997e-05,-1e-05,-2.9999999999999997e-05,-7e-05,-0.00014,-4e-05,-2e-05,-0.00026000000000000003,3
12507,13109,-2.9999999999999997e-05,-1e-05,-2.9999999999999997e-05,-7e-05,-0.00014,-4e-05,-2e-05,-0.00026000000000000003,3
12508,13110,-2.9999999999999997e-05,-1e-05,-2.9999999999999997e-05,-7e-05,-0.00014,-4e-05,-2e-05,-0.00026000000000000003,3
12509,13111,2e-05,1e-05,-5e-05,-2e-05,-9e-05,-8e-05,-0.00018999999999999998,0.00011999999999999999,3
12510,13112,9e-05,0.0,-2.9999999999999997e-05,0.0,4e-05,5.9999999999999995e-05,5.9999999999999995e-05,0.00021,3
12511,13113,9e-05,0.0,-2.9999999999999997e-05,0.0,4e-05,5.9999999999999995e-05,5.9999999999999995e-05,0.00021,3
12512,13114,9e-05,0.0,-2.9999999999999997e-05,0.0,4e-05,5.9999999999999995e-05,5.9999999999999995e-05,0.00021,3
12513,13115,9e-05,0.0,-2.9999999999999997e-05,0.0,4e-05,5.9999999999999995e-05,5.9999999999999995e-05,0.00021,3
12514,13116,9e-05,0.0,-2.9999999999999997e-05,0.0,4e-05,5.9999999999999995e-05,5.9999999999999995e-05,0.00021,3
12515,13117,9e-05,0.0,-2.9999999999999997e-05,0.0,4e-05,5.9999999999999995e-05,5.9999999999999995e-05,0.00021,3
12516,13118,9e-05,0.0,-2.9999999999999997e-05,0.0,4e-05,5.9999999999999995e-05,5.9999999999999995e-05,0.00021,3
12517,13119,9e-05,0.0,-2.9999999999999997e-05,0.0,4e-05,5.9999999999999995e-05,5.9999999999999995e-05,0.00021,3
12518,13120,9e-05,0.0,-2.9999999999999997e-05,0.0,4e-05,5.9999999999999995e-05,5.9999999999999995e-05,0.00021,3
12519,13121,9e-05,0.0,-2.9999999999999997e-05,0.0,4e-05,5.9999999999999995e-05,5.9999999999999995e-05,0.00021,3
12520,13122,9e-05,0.0,-2.9999999999999997e-05,0.0,4e-05,5.9999999999999995e-05,5.9999999999999995e-05,0.00021,3
12521,13123,9e-05,0.0,-2.9999999999999997e-05,0.0,4e-05,5.9999999999999995e-05,5.9999999999999995e-05,0.00021,3
12522,13124,9e-05,0.0,-2.9999999999999997e-05,0.0,4e-05,5.9999999999999995e-05,5.9999999999999995e-05,0.00021,3
12523,13125,9e-05,0.0,-2.9999999999999997e-05,0.0,4e-05,5.9999999999999995e-05,5.9999999999999995e-05,0.00021,3
12524,13126,-4e-05,-2e-05,-4e-05,-2.9999999999999997e-05,5e-05,-1e-05,-9e-05,-7e-05,3
12525,13127,-1e-05,-1e-05,-2.9999999999999997e-05,-4e-05,0.0,-5e-05,-0.00013000000000000002,0.00011999999999999999,3
12526,13128,-1e-05,-1e-05,-2.9999999999999997e-05,-4e-05,0.0,-5e-05,-0.00013000000000000002,0.00011999999999999999,3
12527,13129,-1e-05,-1e-05,-2.9999999999999997e-05,-4e-05,0.0,-5e-05,-0.00013000000000000002,0.00011999999999999999,3
12528,13130,-1e-05,-1e-05,-2.9999999999999997e-05,-4e-05,0.0,-5e-05,-0.00013000000000000002,0.00011999999999999999,3
12529,13131,-1e-05,-1e-05,-2.9999999999999997e-05,-4e-05,0.0,-5e-05,-0.00013000000000000002,0.00011999999999999999,3
12530,13132,-1e-05,-1e-05,-2.9999999999999997e-05,-4e-05,0.0,-5e-05,-0.00013000000000000002,0.00011999999999999999,3
12531,13133,-1e-05,-1e-05,-2.9999999999999997e-05,-4e-05,0.0,-5e-05,-0.00013000000000000002,0.00011999999999999999,3
12532,13134,-1e-05,-1e-05,-2.9999999999999997e-05,-4e-05,0.0,-5e-05,-0.00013000000000000002,0.00011999999999999999,3
12533,13135,-1e-05,-1e-05,-2.9999999999999997e-05,-4e-05,0.0,-5e-05,-0.00013000000000000002,0.00011999999999999999,3
12534,13136,-1e-05,-1e-05,-2.9999999999999997e-05,-4e-05,0.0,-5e-05,-0.00013000000000000002,0.00011999999999999999,3
12535,13138,-1e-05,-1e-05,-2.9999999999999997e-05,-4e-05,0.0,-5e-05,-0.00013000000000000002,0.00011999999999999999,3
12536,13139,-1e-05,-1e-05,-2.9999999999999997e-05,-4e-05,0.0,-5e-05,-0.00013000000000000002,0.00011999999999999999,3
12537,13140,-1e-05,-1e-05,-2.9999999999999997e-05,-4e-05,0.0,-5e-05,-0.00013000000000000002,0.00011999999999999999,3
12538,13141,-1e-05,-1e-05,-2.9999999999999997e-05,-4e-05,0.0,-5e-05,-0.00013000000000000002,0.00011999999999999999,3
12539,13142,-1e-05,-1e-05,-2.9999999999999997e-05,-4e-05,0.0,-5e-05,-0.00013000000000000002,0.00011999999999999999,3
12540,13143,-1e-05,-1e-05,-2.9999999999999997e-05,-4e-05,0.0,-5e-05,-0.00013000000000000002,0.00011999999999999999,3
12541,13144,-1e-05,-1e-05,-2.9999999999999997e-05,-4e-05,0.0,-5e-05,-0.00013000000000000002,0.00011999999999999999,3
12542,13145,-1e-05,-1e-05,-2.9999999999999997e-05,-4e-05,0.0,-5e-05,-0.00013000000000000002,0.00011999999999999999,3
12543,13146,-1e-05,-1e-05,-2.9999999999999997e-05,-4e-05,0.0,-5e-05,-0.00013000000000000002,0.00011999999999999999,3
12544,13147,-1e-05,-1e-05,-2.9999999999999997e-05,-4e-05,0.0,-5e-05,-0.00013000000000000002,0.00011999999999999999,3
12545,13148,-0.00011999999999999999,-1e-05,-5e-05,0.0,-1e-05,-2e-05,-8e-05,-0.00027,3
12546,13149,-0.00011999999999999999,-1e-05,-5e-05,0.0,-1e-05,-2e-05,-8e-05,-0.00027,3
12547,13150,-0.00016,-7e-05,-1e-05,-2e-05,-1e-05,-1e-05,-0.00013000000000000002,1e-05,3
12548,13151,-0.00016,-7e-05,-1e-05,-2e-05,-1e-05,-1e-05,-0.00013000000000000002,1e-05,3
12549,13152,-0.00016,-7e-05,-1e-05,-2e-05,-1e-05,-1e-05,-0.00013000000000000002,1e-05,3
12550,13153,-0.00016,-7e-05,-1e-05,-2e-05,-1e-05,-1e-05,-0.00013000000000000002,1e-05,3
12551,13154,-0.00016,-7e-05,-1e-05,-2e-05,-1e-05,-1e-05,-0.00013000000000000002,1e-05,3
12552,13155,-0.00016,-7e-05,-1e-05,-2e-05,-1e-05,-1e-05,-0.00013000000000000002,1e-05,3
12553,13156,-0.00016,-7e-05,-1e-05,-2e-05,-1e-05,-1e-05,-0.00013000000000000002,1e-05,3
12554,13157,-0.00016,-7e-05,-1e-05,-2e-05,-1e-05,-1e-05,-0.00013000000000000002,1e-05,3
12555,13158,-0.00016,-7e-05,-1e-05,-2e-05,-1e-05,-1e-05,-0.00013000000000000002,1e-05,3
12556,13159,-0.00016,-7e-05,-1e-05,-2e-05,-1e-05,-1e-05,-0.00013000000000000002,1e-05,3
12557,13160,-0.00016,-7e-05,-1e-05,-2e-05,-1e-05,-1e-05,-0.00013000000000000002,1e-05,3
12558,13161,-0.00016,-7e-05,-1e-05,-2e-05,-1e-05,-1e-05,-0.00013000000000000002,1e-05,3
12559,13162,-0.00016,-7e-05,-1e-05,-2e-05,-1e-05,-1e-05,-0.00013000000000000002,1e-05,3
12560,13163,-0.00016,-7e-05,-1e-05,-2e-05,-1e-05,-1e-05,-0.00013000000000000002,1e-05,3
12561,13164,-0.00016,-7e-05,-1e-05,-2e-05,-1e-05,-1e-05,-0.00013000000000000002,1e-05,3
12562,13165,-0.00016,-7e-05,-1e-05,-2e-05,-1e-05,-1e-05,-0.00013000000000000002,1e-05,3
12563,13166,-0.00016,-7e-05,-1e-05,-2e-05,-1e-05,-1e-05,-0.00013000000000000002,1e-05,3
12564,13167,-0.00016,-7e-05,-1e-05,-2e-05,-1e-05,-1e-05,-0.00013000000000000002,1e-05,3
12565,13168,-0.00016,-7e-05,-1e-05,-2e-05,-1e-05,-1e-05,-0.00013000000000000002,1e-05,3
12566,13169,-0.00016,-7e-05,-1e-05,-2e-05,-1e-05,-1e-05,-0.00013000000000000002,1e-05,3
12567,13170,-0.00016,-7e-05,-1e-05,-2e-05,-1e-05,-1e-05,-0.00013000000000000002,1e-05,3
12568,13171,-0.00016,-7e-05,-1e-05,-2e-05,-1e-05,-1e-05,-0.00013000000000000002,1e-05,3
12569,13172,-0.00016,-7e-05,-1e-05,-2e-05,-1e-05,-1e-05,-0.00013000000000000002,1e-05,3
12570,13173,-0.00016,-7e-05,-1e-05,-2e-05,-1e-05,-1e-05,-0.00013000000000000002,1e-05,3
12571,13174,-0.00016,-7e-05,-1e-05,-2e-05,-1e-05,-1e-05,-0.00013000000000000002,1e-05,3
12572,13175,-0.00016,-7e-05,-1e-05,-2e-05,-1e-05,-1e-05,-0.00013000000000000002,1e-05,3
12573,13176,-0.00016,-7e-05,-1e-05,-2e-05,-1e-05,-1e-05,-0.00013000000000000002,1e-05,3
12574,13177,-0.00016,-7e-05,-1e-05,-2e-05,-1e-05,-1e-05,-0.00013000000000000002,1e-05,3
12575,13178,2e-05,1e-05,5e-05,2.9999999999999997e-05,0.0001,-5e-05,9e-05,1e-05,3
12576,13179,2e-05,1e-05,5e-05,2.9999999999999997e-05,0.0001,-5e-05,9e-05,1e-05,3
12577,13180,0.0,-2.9999999999999997e-05,-2.9999999999999997e-05,2.9999999999999997e-05,2e-05,5.9999999999999995e-05,-4e-05,-0.0001,3
12578,13181,0.0,-2.9999999999999997e-05,-2.9999999999999997e-05,2.9999999999999997e-05,2e-05,5.9999999999999995e-05,-4e-05,-0.0001,3
12579,13182,0.0,-2.9999999999999997e-05,-2.9999999999999997e-05,2.9999999999999997e-05,2e-05,5.9999999999999995e-05,-4e-05,-0.0001,3
12580,13183,0.0,-2.9999999999999997e-05,-2.9999999999999997e-05,2.9999999999999997e-05,2e-05,5.9999999999999995e-05,-4e-05,-0.0001,3
12581,13184,0.0,-2.9999999999999997e-05,-2.9999999999999997e-05,2.9999999999999997e-05,2e-05,5.9999999999999995e-05,-4e-05,-0.0001,3
12582,13185,0.0,-2.9999999999999997e-05,-2.9999999999999997e-05,2.9999999999999997e-05,2e-05,5.9999999999999995e-05,-4e-05,-0.0001,3
12583,13186,-5.9999999999999995e-05,0.0,0.0,-1e-05,2.9999999999999997e-05,0.0,-8e-05,1e-05,3
12584,13189,-5e-05,-4e-05,-2.9999999999999997e-05,-2.9999999999999997e-05,0.0,-8e-05,-0.00022999999999999998,-9e-05,3
12585,13190,-5e-05,-4e-05,-2.9999999999999997e-05,-2.9999999999999997e-05,0.0,-8e-05,-0.00022999999999999998,-9e-05,3
12586,13191,-5e-05,-4e-05,-2.9999999999999997e-05,-2.9999999999999997e-05,0.0,-8e-05,-0.00022999999999999998,-9e-05,3
12587,13192,-5e-05,-4e-05,-2.9999999999999997e-05,-2.9999999999999997e-05,0.0,-8e-05,-0.00022999999999999998,-9e-05,3
12588,13193,-5e-05,-4e-05,-2.9999999999999997e-05,-2.9999999999999997e-05,0.0,-8e-05,-0.00022999999999999998,-9e-05,3
12589,13194,-5e-05,-4e-05,-2.9999999999999997e-05,-2.9999999999999997e-05,0.0,-8e-05,-0.00022999999999999998,-9e-05,3
12590,13195,-5e-05,-4e-05,-2.9999999999999997e-05,-2.9999999999999997e-05,0.0,-8e-05,-0.00022999999999999998,-9e-05,3
12591,13196,-5e-05,-4e-05,-2.9999999999999997e-05,-2.9999999999999997e-05,0.0,-8e-05,-0.00022999999999999998,-9e-05,3
12592,13197,-5e-05,-4e-05,-2.9999999999999997e-05,-2.9999999999999997e-05,0.0,-8e-05,-0.00022999999999999998,-9e-05,3
12593,13198,-5e-05,-4e-05,-2.9999999999999997e-05,-2.9999999999999997e-05,0.0,-8e-05,-0.00022999999999999998,-9e-05,3
12594,13199,-5e-05,-4e-05,-2.9999999999999997e-05,-2.9999999999999997e-05,0.0,-8e-05,-0.00022999999999999998,-9e-05,3
12595,13200,-5e-05,-4e-05,-2.9999999999999997e-05,-2.9999999999999997e-05,0.0,-8e-05,-0.00022999999999999998,-9e-05,3
12596,13201,-5e-05,-4e-05,-2.9999999999999997e-05,-2.9999999999999997e-05,0.0,-8e-05,-0.00022999999999999998,-9e-05,3
12597,13202,-5e-05,-4e-05,-2.9999999999999997e-05,-2.9999999999999997e-05,0.0,-8e-05,-0.00022999999999999998,-9e-05,3
12598,13203,-5e-05,-4e-05,-2.9999999999999997e-05,-2.9999999999999997e-05,0.0,-8e-05,-0.00022999999999999998,-9e-05,3
12599,13204,-5e-05,-4e-05,-2.9999999999999997e-05,-2.9999999999999997e-05,0.0,-8e-05,-0.00022999999999999998,-9e-05,3
12600,13205,-5e-05,-4e-05,-2.9999999999999997e-05,-2.9999999999999997e-05,0.0,-8e-05,-0.00022999999999999998,-9e-05,3
12601,13206,-5e-05,-4e-05,-2.9999999999999997e-05,-2.9999999999999997e-05,0.0,-8e-05,-0.00022999999999999998,-9e-05,3
12602,13207,-5e-05,-4e-05,-2.9999999999999997e-05,-2.9999999999999997e-05,0.0,-8e-05,-0.00022999999999999998,-9e-05,3
12603,13208,-5e-05,-4e-05,-2.9999999999999997e-05,-2.9999999999999997e-05,0.0,-8e-05,-0.00022999999999999998,-9e-05,3
12604,13209,-1e-05,-1e-05,-1e-05,1e-05,0.0,5.9999999999999995e-05,2e-05,-0.0002,3
12605,13210,0.00016,7e-05,-5e-05,-1e-05,-4e-05,0.0,8e-05,0.00022,3
12606,13211,0.00016,7e-05,-5e-05,-1e-05,-4e-05,0.0,8e-05,0.00022,3
12607,13212,0.00016,7e-05,-5e-05,-1e-05,-4e-05,0.0,8e-05,0.00022,3
12608,13213,0.00016,7e-05,-5e-05,-1e-05,-4e-05,0.0,8e-05,0.00022,3
12609,13214,0.00016,7e-05,-5e-05,-1e-05,-4e-05,0.0,8e-05,0.00022,3
12610,13215,0.00016,7e-05,-5e-05,-1e-05,-4e-05,0.0,8e-05,0.00022,3
12611,13216,0.00016,7e-05,-5e-05,-1e-05,-4e-05,0.0,8e-05,0.00022,3
12612,13217,0.00016,7e-05,-5e-05,-1e-05,-4e-05,0.0,8e-05,0.00022,3
12613,13218,0.00016,7e-05,-5e-05,-1e-05,-4e-05,0.0,8e-05,0.00022,3
12614,13219,0.00016,7e-05,-5e-05,-1e-05,-4e-05,0.0,8e-05,0.00022,3
12615,13220,0.00016,7e-05,-5e-05,-1e-05,-4e-05,0.0,8e-05,0.00022,3
12616,13221,0.00016,7e-05,-5e-05,-1e-05,-4e-05,0.0,8e-05,0.00022,3
12617,13222,0.00016,7e-05,-5e-05,-1e-05,-4e-05,0.0,8e-05,0.00022,3
12618,13223,0.00016,7e-05,-5e-05,-1e-05,-4e-05,0.0,8e-05,0.00022,3
12619,13224,0.00016,7e-05,-5e-05,-1e-05,-4e-05,0.0,8e-05,0.00022,3
12620,13225,0.00016,7e-05,-5e-05,-1e-05,-4e-05,0.0,8e-05,0.00022,3
12621,13226,0.00016,7e-05,-5e-05,-1e-05,-4e-05,0.0,8e-05,0.00022,3
12622,13227,0.00016,7e-05,-5e-05,-1e-05,-4e-05,0.0,8e-05,0.00022,3
12623,13228,0.00016,7e-05,-5e-05,-1e-05,-4e-05,0.0,8e-05,0.00022,3
12624,13229,0.00016,7e-05,-5e-05,-1e-05,-4e-05,0.0,8e-05,0.00022,3
12625,13230,0.00016,7e-05,-5e-05,-1e-05,-4e-05,0.0,8e-05,0.00022,3
12626,13231,0.00015,5.9999999999999995e-05,2.9999999999999997e-05,-1e-05,0.0,-7e-05,-0.00011999999999999999,0.00016999999999999999,3
12627,13232,0.0,4e-05,5e-05,0.0,2.9999999999999997e-05,2e-05,0.00031,-0.00018,3
12628,13233,0.0,4e-05,5e-05,0.0,2.9999999999999997e-05,2e-05,0.00031,-0.00018,3
12629,13234,0.0,4e-05,5e-05,0.0,2.9999999999999997e-05,2e-05,0.00031,-0.00018,3
12630,13235,0.0,4e-05,5e-05,0.0,2.9999999999999997e-05,2e-05,0.00031,-0.00018,3
12631,13236,0.0,4e-05,5e-05,0.0,2.9999999999999997e-05,2e-05,0.00031,-0.00018,3
12632,13239,0.0,4e-05,5e-05,0.0,2.9999999999999997e-05,2e-05,0.00031,-0.00018,3
12633,13240,0.0,4e-05,5e-05,0.0,2.9999999999999997e-05,2e-05,0.00031,-0.00018,3
12634,13241,0.0,4e-05,5e-05,0.0,2.9999999999999997e-05,2e-05,0.00031,-0.00018,3
12635,13242,0.0,4e-05,5e-05,0.0,2.9999999999999997e-05,2e-05,0.00031,-0.00018,3
12636,13243,0.0,4e-05,5e-05,0.0,2.9999999999999997e-05,2e-05,0.00031,-0.00018,3
12637,13244,0.0,4e-05,5e-05,0.0,2.9999999999999997e-05,2e-05,0.00031,-0.00018,3
12638,13245,1e-05,-7e-05,-5e-05,-4e-05,1e-05,7e-05,0.00014,0.00013000000000000002,3
12639,13246,1e-05,-7e-05,-5e-05,-4e-05,1e-05,7e-05,0.00014,0.00013000000000000002,3
12640,13247,1e-05,-7e-05,-5e-05,-4e-05,1e-05,7e-05,0.00014,0.00013000000000000002,3
12641,13248,1e-05,-7e-05,-5e-05,-4e-05,1e-05,7e-05,0.00014,0.00013000000000000002,3
12642,13249,1e-05,-7e-05,-5e-05,-4e-05,1e-05,7e-05,0.00014,0.00013000000000000002,3
12643,13250,1e-05,-7e-05,-5e-05,-4e-05,1e-05,7e-05,0.00014,0.00013000000000000002,3
12644,13251,1e-05,-7e-05,-5e-05,-4e-05,1e-05,7e-05,0.00014,0.00013000000000000002,3
12645,13252,2.9999999999999997e-05,1e-05,-1e-05,-4e-05,5e-05,7e-05,-2.9999999999999997e-05,5e-05,3
12646,13253,2.9999999999999997e-05,1e-05,-1e-05,-4e-05,5e-05,7e-05,-2.9999999999999997e-05,5e-05,3
12647,13254,2.9999999999999997e-05,1e-05,-1e-05,-4e-05,5e-05,7e-05,-2.9999999999999997e-05,5e-05,3
12648,13255,2.9999999999999997e-05,1e-05,-1e-05,-4e-05,5e-05,7e-05,-2.9999999999999997e-05,5e-05,3
12649,13256,2.9999999999999997e-05,1e-05,-1e-05,-4e-05,5e-05,7e-05,-2.9999999999999997e-05,5e-05,3
12650,13257,2.9999999999999997e-05,1e-05,-1e-05,-4e-05,5e-05,7e-05,-2.9999999999999997e-05,5e-05,3
12651,13258,2.9999999999999997e-05,1e-05,-1e-05,-4e-05,5e-05,7e-05,-2.9999999999999997e-05,5e-05,3
12652,13259,2.9999999999999997e-05,1e-05,-1e-05,-4e-05,5e-05,7e-05,-2.9999999999999997e-05,5e-05,3
12653,13260,2.9999999999999997e-05,1e-05,-1e-05,-4e-05,5e-05,7e-05,-2.9999999999999997e-05,5e-05,3
12654,13261,2.9999999999999997e-05,1e-05,-1e-05,-4e-05,5e-05,7e-05,-2.9999999999999997e-05,5e-05,3
12655,13262,2.9999999999999997e-05,1e-05,-1e-05,-4e-05,5e-05,7e-05,-2.9999999999999997e-05,5e-05,3
12656,13263,2.9999999999999997e-05,1e-05,-1e-05,-4e-05,5e-05,7e-05,-2.9999999999999997e-05,5e-05,3
12657,13264,2.9999999999999997e-05,1e-05,-1e-05,-4e-05,5e-05,7e-05,-2.9999999999999997e-05,5e-05,3
12658,13265,2.9999999999999997e-05,1e-05,-1e-05,-4e-05,5e-05,7e-05,-2.9999999999999997e-05,5e-05,3
12659,13266,2.9999999999999997e-05,1e-05,-1e-05,-4e-05,5e-05,7e-05,-2.9999999999999997e-05,5e-05,3
12660,13267,5e-05,1e-05,2e-05,-1e-05,2.9999999999999997e-05,-2.9999999999999997e-05,-1e-05,-7e-05,3
12661,13269,5e-05,1e-05,2e-05,-1e-05,2.9999999999999997e-05,-2.9999999999999997e-05,-1e-05,-7e-05,3
12662,13270,5e-05,1e-05,2e-05,-1e-05,2.9999999999999997e-05,-2.9999999999999997e-05,-1e-05,-7e-05,3
12663,13271,5e-05,1e-05,2e-05,-1e-05,2.9999999999999997e-05,-2.9999999999999997e-05,-1e-05,-7e-05,3
12664,13272,5e-05,1e-05,2e-05,-1e-05,2.9999999999999997e-05,-2.9999999999999997e-05,-1e-05,-7e-05,3
12665,13273,5e-05,1e-05,2e-05,-1e-05,2.9999999999999997e-05,-2.9999999999999997e-05,-1e-05,-7e-05,3
12666,13274,5e-05,1e-05,2e-05,-1e-05,2.9999999999999997e-05,-2.9999999999999997e-05,-1e-05,-7e-05,3
12667,13275,5e-05,1e-05,2e-05,-1e-05,2.9999999999999997e-05,-2.9999999999999997e-05,-1e-05,-7e-05,3
12668,13276,-0.00011999999999999999,-4e-05,0.0,2e-05,-9e-05,-5e-05,4e-05,2.9999999999999997e-05,3
12669,13277,-0.00011999999999999999,-4e-05,0.0,2e-05,-9e-05,-5e-05,4e-05,2.9999999999999997e-05,3
12670,13278,-0.00011999999999999999,-4e-05,0.0,2e-05,-9e-05,-5e-05,4e-05,2.9999999999999997e-05,3
12671,13279,-0.00011999999999999999,-4e-05,0.0,2e-05,-9e-05,-5e-05,4e-05,2.9999999999999997e-05,3
12672,13280,-0.00011999999999999999,-4e-05,0.0,2e-05,-9e-05,-5e-05,4e-05,2.9999999999999997e-05,3
12673,13281,-0.00011999999999999999,-4e-05,0.0,2e-05,-9e-05,-5e-05,4e-05,2.9999999999999997e-05,3
12674,13282,-0.00011999999999999999,-4e-05,0.0,2e-05,-9e-05,-5e-05,4e-05,2.9999999999999997e-05,3
12675,13283,-0.00011999999999999999,-4e-05,0.0,2e-05,-9e-05,-5e-05,4e-05,2.9999999999999997e-05,3
12676,13284,-0.00011999999999999999,-4e-05,0.0,2e-05,-9e-05,-5e-05,4e-05,2.9999999999999997e-05,3
12677,13285,-0.00011999999999999999,-4e-05,0.0,2e-05,-9e-05,-5e-05,4e-05,2.9999999999999997e-05,3
12678,13286,-0.00011999999999999999,-4e-05,0.0,2e-05,-9e-05,-5e-05,4e-05,2.9999999999999997e-05,3
12679,13289,-0.00011999999999999999,-4e-05,0.0,2e-05,-9e-05,-5e-05,4e-05,2.9999999999999997e-05,3
12680,13290,-0.00011999999999999999,-4e-05,0.0,2e-05,-9e-05,-5e-05,4e-05,2.9999999999999997e-05,3
12681,13291,-0.00011999999999999999,-4e-05,0.0,2e-05,-9e-05,-5e-05,4e-05,2.9999999999999997e-05,3
12682,13292,-0.00011999999999999999,-4e-05,0.0,2e-05,-9e-05,-5e-05,4e-05,2.9999999999999997e-05,3
12683,13293,-0.00011999999999999999,-4e-05,0.0,2e-05,-9e-05,-5e-05,4e-05,2.9999999999999997e-05,3
12684,13294,-0.00011999999999999999,-4e-05,0.0,2e-05,-9e-05,-5e-05,4e-05,2.9999999999999997e-05,3
12685,13295,-0.00011999999999999999,-4e-05,0.0,2e-05,-9e-05,-5e-05,4e-05,2.9999999999999997e-05,3
12686,13296,-0.00011999999999999999,-4e-05,0.0,2e-05,-9e-05,-5e-05,4e-05,2.9999999999999997e-05,3
12687,13297,-0.00011999999999999999,-4e-05,0.0,2e-05,-9e-05,-5e-05,4e-05,2.9999999999999997e-05,3
12688,13298,0.0,1e-05,-4e-05,1e-05,2e-05,-1e-05,-4e-05,-7e-05,3
12689,13299,0.0,1e-05,-4e-05,1e-05,2e-05,-1e-05,-4e-05,-7e-05,3
12690,13300,-0.00011,-4e-05,2.9999999999999997e-05,0.0,2e-05,-5.9999999999999995e-05,0.0,-5.9999999999999995e-05,3
12691,13301,-0.00011,-4e-05,2.9999999999999997e-05,0.0,2e-05,-5.9999999999999995e-05,0.0,-5.9999999999999995e-05,3
12692,13302,-0.00011,-4e-05,2.9999999999999997e-05,0.0,2e-05,-5.9999999999999995e-05,0.0,-5.9999999999999995e-05,3
12693,13303,-0.00011,-4e-05,2.9999999999999997e-05,0.0,2e-05,-5.9999999999999995e-05,0.0,-5.9999999999999995e-05,3
12694,13304,-0.00011,-4e-05,2.9999999999999997e-05,0.0,2e-05,-5.9999999999999995e-05,0.0,-5.9999999999999995e-05,3
12695,13305,4e-05,2.9999999999999997e-05,-2.9999999999999997e-05,-5.9999999999999995e-05,-0.00016999999999999999,-5e-05,-2e-05,8e-05,3
12696,13306,4e-05,2.9999999999999997e-05,-2.9999999999999997e-05,-5.9999999999999995e-05,-0.00016999999999999999,-5e-05,-2e-05,8e-05,3
12697,13307,4e-05,2.9999999999999997e-05,-2.9999999999999997e-05,-5.9999999999999995e-05,-0.00016999999999999999,-5e-05,-2e-05,8e-05,3
12698,13308,4e-05,2.9999999999999997e-05,-2.9999999999999997e-05,-5.9999999999999995e-05,-0.00016999999999999999,-5e-05,-2e-05,8e-05,3
12699,13309,4e-05,2.9999999999999997e-05,-2.9999999999999997e-05,-5.9999999999999995e-05,-0.00016999999999999999,-5e-05,-2e-05,8e-05,3
12700,13310,4e-05,2.9999999999999997e-05,-2.9999999999999997e-05,-5.9999999999999995e-05,-0.00016999999999999999,-5e-05,-2e-05,8e-05,3
12701,13311,4e-05,2.9999999999999997e-05,-2.9999999999999997e-05,-5.9999999999999995e-05,-0.00016999999999999999,-5e-05,-2e-05,8e-05,3
12702,13312,-0.00018999999999999998,-5e-05,0.0,1e-05,-5.9999999999999995e-05,-1e-05,-9e-05,-0.00011999999999999999,3
12703,13313,-0.00018999999999999998,-5e-05,0.0,1e-05,-5.9999999999999995e-05,-1e-05,-9e-05,-0.00011999999999999999,3
12704,13314,-0.00018999999999999998,-5e-05,0.0,1e-05,-5.9999999999999995e-05,-1e-05,-9e-05,-0.00011999999999999999,3
12705,13315,-0.00018999999999999998,-5e-05,0.0,1e-05,-5.9999999999999995e-05,-1e-05,-9e-05,-0.00011999999999999999,3
12706,13316,-0.00018999999999999998,-5e-05,0.0,1e-05,-5.9999999999999995e-05,-1e-05,-9e-05,-0.00011999999999999999,3
12707,13317,-0.00018999999999999998,-5e-05,0.0,1e-05,-5.9999999999999995e-05,-1e-05,-9e-05,-0.00011999999999999999,3
12708,13318,-0.00018999999999999998,-5e-05,0.0,1e-05,-5.9999999999999995e-05,-1e-05,-9e-05,-0.00011999999999999999,3
12709,13319,-0.00018999999999999998,-5e-05,0.0,1e-05,-5.9999999999999995e-05,-1e-05,-9e-05,-0.00011999999999999999,3
12710,13320,-0.00018999999999999998,-5e-05,0.0,1e-05,-5.9999999999999995e-05,-1e-05,-9e-05,-0.00011999999999999999,3
12711,13321,-0.00018999999999999998,-5e-05,0.0,1e-05,-5.9999999999999995e-05,-1e-05,-9e-05,-0.00011999999999999999,3
12712,13322,-0.00018999999999999998,-5e-05,0.0,1e-05,-5.9999999999999995e-05,-1e-05,-9e-05,-0.00011999999999999999,3
12713,13323,-0.00018999999999999998,-5e-05,0.0,1e-05,-5.9999999999999995e-05,-1e-05,-9e-05,-0.00011999999999999999,3
12714,13324,-0.00018999999999999998,-5e-05,0.0,1e-05,-5.9999999999999995e-05,-1e-05,-9e-05,-0.00011999999999999999,3
12715,13325,-0.00018999999999999998,-5e-05,0.0,1e-05,-5.9999999999999995e-05,-1e-05,-9e-05,-0.00011999999999999999,3
12716,13326,-0.00018999999999999998,-5e-05,0.0,1e-05,-5.9999999999999995e-05,-1e-05,-9e-05,-0.00011999999999999999,3
12717,13327,-0.00018999999999999998,-5e-05,0.0,1e-05,-5.9999999999999995e-05,-1e-05,-9e-05,-0.00011999999999999999,3
12718,13328,0.0,-5.9999999999999995e-05,-0.00011,-2e-05,0.0,-5e-05,-4e-05,-0.00022,3
12719,13329,0.0,-5.9999999999999995e-05,-0.00011,-2e-05,0.0,-5e-05,-4e-05,-0.00022,3
12720,13330,0.0,-5.9999999999999995e-05,-0.00011,-2e-05,0.0,-5e-05,-4e-05,-0.00022,3
12721,13331,0.0,-5.9999999999999995e-05,-0.00011,-2e-05,0.0,-5e-05,-4e-05,-0.00022,3
12722,13332,0.0,-5.9999999999999995e-05,-0.00011,-2e-05,0.0,-5e-05,-4e-05,-0.00022,3
12723,13333,0.0,-5.9999999999999995e-05,-0.00011,-2e-05,0.0,-5e-05,-4e-05,-0.00022,3
12724,13334,0.0,-5.9999999999999995e-05,-0.00011,-2e-05,0.0,-5e-05,-4e-05,-0.00022,3
12725,13335,0.0,-5.9999999999999995e-05,-0.00011,-2e-05,0.0,-5e-05,-4e-05,-0.00022,3
12726,13337,0.0,-2.9999999999999997e-05,-8e-05,-5.9999999999999995e-05,-4e-05,-2e-05,1e-05,-0.00011999999999999999,3
12727,13340,0.0,-2.9999999999999997e-05,-8e-05,-5.9999999999999995e-05,-4e-05,-2e-05,1e-05,-0.00011999999999999999,3
12728,13341,0.0,-2.9999999999999997e-05,-8e-05,-5.9999999999999995e-05,-4e-05,-2e-05,1e-05,-0.00011999999999999999,3
12729,13342,0.0,-2.9999999999999997e-05,-8e-05,-5.9999999999999995e-05,-4e-05,-2e-05,1e-05,-0.00011999999999999999,3
12730,13343,0.0,-2.9999999999999997e-05,-8e-05,-5.9999999999999995e-05,-4e-05,-2e-05,1e-05,-0.00011999999999999999,3
12731,13344,0.0,-2.9999999999999997e-05,-8e-05,-5.9999999999999995e-05,-4e-05,-2e-05,1e-05,-0.00011999999999999999,3
12732,13345,0.0,-2.9999999999999997e-05,-8e-05,-5.9999999999999995e-05,-4e-05,-2e-05,1e-05,-0.00011999999999999999,3
12733,13346,0.0,-2.9999999999999997e-05,-8e-05,-5.9999999999999995e-05,-4e-05,-2e-05,1e-05,-0.00011999999999999999,3
12734,13347,0.0,-2.9999999999999997e-05,-8e-05,-5.9999999999999995e-05,-4e-05,-2e-05,1e-05,-0.00011999999999999999,3
12735,13348,0.0,-2.9999999999999997e-05,-8e-05,-5.9999999999999995e-05,-4e-05,-2e-05,1e-05,-0.00011999999999999999,3
12736,13349,0.0,-2.9999999999999997e-05,-8e-05,-5.9999999999999995e-05,-4e-05,-2e-05,1e-05,-0.00011999999999999999,3
12737,13350,0.0,-2.9999999999999997e-05,-8e-05,-5.9999999999999995e-05,-4e-05,-2e-05,1e-05,-0.00011999999999999999,3
12738,13351,-1e-05,2e-05,5.9999999999999995e-05,1e-05,-7e-05,5e-05,-2e-05,-0.0003,3
12739,13352,5e-05,5e-05,0.0,5.9999999999999995e-05,0.00018999999999999998,2.9999999999999997e-05,0.0,4e-05,3
12740,13353,5e-05,5e-05,0.0,5.9999999999999995e-05,0.00018999999999999998,2.9999999999999997e-05,0.0,4e-05,3
12741,13354,5e-05,5e-05,0.0,5.9999999999999995e-05,0.00018999999999999998,2.9999999999999997e-05,0.0,4e-05,3
12742,13355,5e-05,5e-05,0.0,5.9999999999999995e-05,0.00018999999999999998,2.9999999999999997e-05,0.0,4e-05,3
12743,13356,5e-05,5e-05,0.0,5.9999999999999995e-05,0.00018999999999999998,2.9999999999999997e-05,0.0,4e-05,3
12744,13357,5e-05,5e-05,0.0,5.9999999999999995e-05,0.00018999999999999998,2.9999999999999997e-05,0.0,4e-05,3
12745,13358,5e-05,5e-05,0.0,5.9999999999999995e-05,0.00018999999999999998,2.9999999999999997e-05,0.0,4e-05,3
12746,13359,5e-05,5e-05,0.0,5.9999999999999995e-05,0.00018999999999999998,2.9999999999999997e-05,0.0,4e-05,3
12747,13360,5e-05,5e-05,0.0,5.9999999999999995e-05,0.00018999999999999998,2.9999999999999997e-05,0.0,4e-05,3
12748,13361,5e-05,5e-05,0.0,5.9999999999999995e-05,0.00018999999999999998,2.9999999999999997e-05,0.0,4e-05,3
12749,13362,5e-05,5e-05,0.0,5.9999999999999995e-05,0.00018999999999999998,2.9999999999999997e-05,0.0,4e-05,3
12750,13363,5e-05,5e-05,0.0,5.9999999999999995e-05,0.00018999999999999998,2.9999999999999997e-05,0.0,4e-05,3
12751,13364,5e-05,5e-05,0.0,5.9999999999999995e-05,0.00018999999999999998,2.9999999999999997e-05,0.0,4e-05,3
12752,13365,5e-05,5e-05,0.0,5.9999999999999995e-05,0.00018999999999999998,2.9999999999999997e-05,0.0,4e-05,3
12753,13366,5e-05,5e-05,0.0,5.9999999999999995e-05,0.00018999999999999998,2.9999999999999997e-05,0.0,4e-05,3
12754,13367,5e-05,5e-05,0.0,5.9999999999999995e-05,0.00018999999999999998,2.9999999999999997e-05,0.0,4e-05,3
12755,13368,5e-05,5e-05,0.0,5.9999999999999995e-05,0.00018999999999999998,2.9999999999999997e-05,0.0,4e-05,3
12756,13369,5e-05,5e-05,0.0,5.9999999999999995e-05,0.00018999999999999998,2.9999999999999997e-05,0.0,4e-05,3
12757,13370,5e-05,5e-05,0.0,5.9999999999999995e-05,0.00018999999999999998,2.9999999999999997e-05,0.0,4e-05,3
12758,13371,5e-05,5e-05,0.0,5.9999999999999995e-05,0.00018999999999999998,2.9999999999999997e-05,0.0,4e-05,3
12759,13372,5e-05,5e-05,0.0,5.9999999999999995e-05,0.00018999999999999998,2.9999999999999997e-05,0.0,4e-05,3
12760,13373,-4e-05,-4e-05,1e-05,-1e-05,5e-05,-1e-05,-5.9999999999999995e-05,-0.00011,3
12761,13374,-4e-05,-4e-05,1e-05,-1e-05,5e-05,-1e-05,-5.9999999999999995e-05,-0.00011,3
12762,13375,-4e-05,-4e-05,1e-05,-1e-05,5e-05,-1e-05,-5.9999999999999995e-05,-0.00011,3
12763,13376,-4e-05,-4e-05,1e-05,-1e-05,5e-05,-1e-05,-5.9999999999999995e-05,-0.00011,3
12764,13377,-4e-05,-4e-05,1e-05,-1e-05,5e-05,-1e-05,-5.9999999999999995e-05,-0.00011,3
12765,13378,-4e-05,-4e-05,1e-05,-1e-05,5e-05,-1e-05,-5.9999999999999995e-05,-0.00011,3
12766,13379,9e-05,4e-05,5e-05,1e-05,0.0,-2e-05,-4e-05,0.00033999999999999997,3
12767,13380,9e-05,4e-05,5e-05,1e-05,0.0,-2e-05,-4e-05,0.00033999999999999997,3
12768,13381,9e-05,4e-05,5e-05,1e-05,0.0,-2e-05,-4e-05,0.00033999999999999997,3
12769,13382,9e-05,4e-05,5e-05,1e-05,0.0,-2e-05,-4e-05,0.00033999999999999997,3
12770,13383,9e-05,4e-05,5e-05,1e-05,0.0,-2e-05,-4e-05,0.00033999999999999997,3
12771,13384,9e-05,4e-05,5e-05,1e-05,0.0,-2e-05,-4e-05,0.00033999999999999997,3
12772,13385,9e-05,4e-05,5e-05,1e-05,0.0,-2e-05,-4e-05,0.00033999999999999997,3
12773,13386,9e-05,4e-05,5e-05,1e-05,0.0,-2e-05,-4e-05,0.00033999999999999997,3
12774,13389,1e-05,-1e-05,-1e-05,-2.9999999999999997e-05,-8e-05,-2.9999999999999997e-05,-0.00011,9e-05,3
12775,13390,1e-05,-5e-05,-4e-05,-2.9999999999999997e-05,-0.00015,-1e-05,2e-05,0.00011999999999999999,3
