,time,channel1,channel2,channel3,channel4,channel5,channel6,channel7,channel8,class
9534,9854,-0.00021,-0.00066,-0.00011999999999999999,-2e-05,4e-05,9e-05,2e-05,-0.0005,3
9535,9855,-0.00021,-0.00066,-0.00011999999999999999,-2e-05,4e-05,9e-05,2e-05,-0.0005,3
9536,9856,-0.00021,-0.00066,-0.00011999999999999999,-2e-05,4e-05,9e-05,2e-05,-0.0005,3
9537,9857,-0.00021,-0.00066,-0.00011999999999999999,-2e-05,4e-05,9e-05,2e-05,-0.0005,3
9538,9858,-0.00021,-0.00066,-0.00011999999999999999,-2e-05,4e-05,9e-05,2e-05,-0.0005,3
9539,9859,-0.00021,-0.00066,-0.00011999999999999999,-2e-05,4e-05,9e-05,2e-05,-0.0005,3
9540,9860,-0.00021,-0.00066,-0.00011999999999999999,-2e-05,4e-05,9e-05,2e-05,-0.0005,3
9541,9861,-0.00021,-0.00066,-0.00011999999999999999,-2e-05,4e-05,9e-05,2e-05,-0.0005,3
9542,9862,-0.00021,-0.00066,-0.00011999999999999999,-2e-05,4e-05,9e-05,2e-05,-0.0005,3
9543,9863,-0.00021,-0.00066,-0.00011999999999999999,-2e-05,4e-05,9e-05,2e-05,-0.0005,3
9544,9864,-0.00026000000000000003,-0.0007700000000000001,-0.00014,-0.0001,-0.00037,-0.0005099999999999999,-0.00064,-0.00124,3
9545,9865,-0.00073,0.00057,0.0001,0.0,0.00011999999999999999,-0.00037999999999999997,-0.00041,0.00082,3
9546,9866,-0.00073,0.00057,0.0001,0.0,0.00011999999999999999,-0.00037999999999999997,-0.00041,0.00082,3
9547,9867,-0.00073,0.00057,0.0001,0.0,0.00011999999999999999,-0.00037999999999999997,-0.00041,0.00082,3
9548,9868,-0.00073,0.00057,0.0001,0.0,0.00011999999999999999,-0.00037999999999999997,-0.00041,0.00082,3
9549,9869,-0.00073,0.00057,0.0001,0.0,0.00011999999999999999,-0.00037999999999999997,-0.00041,0.00082,3
9550,9870,-0.00073,0.00057,0.0001,0.0,0.00011999999999999999,-0.00037999999999999997,-0.00041,0.00082,3
9551,9871,-0.00073,0.00057,0.0001,0.0,0.00011999999999999999,-0.00037999999999999997,-0.00041,0.00082,3
9552,9872,-0.00073,0.00057,0.0001,0.0,0.00011999999999999999,-0.00037999999999999997,-0.00041,0.00082,3
9553,9873,-0.00073,0.00057,0.0001,0.0,0.00011999999999999999,-0.00037999999999999997,-0.00041,0.00082,3
9554,9874,-0.00073,0.00057,0.0001,0.0,0.00011999999999999999,-0.00037999999999999997,-0.00041,0.00082,3
9555,9875,-0.00073,0.00057,0.0001,0.0,0.00011999999999999999,-0.00037999999999999997,-0.00041,0.00082,3
9556,9876,-0.00073,0.00057,0.0001,0.0,0.00011999999999999999,-0.00037999999999999997,-0.00041,0.00082,3
9557,9877,-0.00073,0.00057,0.0001,0.0,0.00011999999999999999,-0.00037999999999999997,-0.00041,0.00082,3
9558,9878,-0.00073,0.00057,0.0001,0.0,0.00011999999999999999,-0.00037999999999999997,-0.00041,0.00082,3
9559,9879,-0.00073,0.00057,0.0001,0.0,0.00011999999999999999,-0.00037999999999999997,-0.00041,0.00082,3
9560,9880,-0.00073,0.00057,0.0001,0.0,0.00011999999999999999,-0.00037999999999999997,-0.00041,0.00082,3
9561,9881,-0.00073,0.00057,0.0001,0.0,0.00011999999999999999,-0.00037999999999999997,-0.00041,0.00082,3
9562,9882,-0.00073,0.00057,0.0001,0.0,0.00011999999999999999,-0.00037999999999999997,-0.00041,0.00082,3
9563,9883,-0.00073,0.00057,0.0001,0.0,0.00011999999999999999,-0.00037999999999999997,-0.00041,0.00082,3
9564,9884,-0.00073,0.00057,0.0001,0.0,0.00011999999999999999,-0.00037999999999999997,-0.00041,0.00082,3
9565,9885,-0.00073,0.00057,0.0001,0.0,0.00011999999999999999,-0.00037999999999999997,-0.00041,0.00082,3
9566,9886,-0.00073,0.00057,0.0001,0.0,0.00011999999999999999,-0.00037999999999999997,-0.00041,0.00082,3
9567,9889,0.00036,-0.00018,0.0,1e-05,-0.00021,8e-05,-0.00032,0.00072,3
9568,9890,0.00036,-0.00018,0.0,1e-05,-0.00021,8e-05,-0.00032,0.00072,3
9569,9891,0.00036,-0.00018,0.0,1e-05,-0.00021,8e-05,-0.00032,0.00072,3
9570,9892,0.00036,-0.00018,0.0,1e-05,-0.00021,8e-05,-0.00032,0.00072,3
9571,9893,0.00036,-0.00018,0.0,1e-05,-0.00021,8e-05,-0.00032,0.00072,3
9572,9894,0.00036,-0.00018,0.0,1e-05,-0.00021,8e-05,-0.00032,0.00072,3
9573,9895,0.00036,-0.00018,0.0,1e-05,-0.00021,8e-05,-0.00032,0.00072,3
9574,9896,0.00036,-0.00018,0.0,1e-05,-0.00021,8e-05,-0.00032,0.00072,3
9575,9897,0.00036,-0.00018,0.0,1e-05,-0.00021,8e-05,-0.00032,0.00072,3
9576,9898,0.00036,-0.00018,0.0,1e-05,-0.00021,8e-05,-0.00032,0.00072,3
9577,9899,0.00036,-0.00018,0.0,1e-05,-0.00021,8e-05,-0.00032,0.00072,3
9578,9900,0.00036,-0.00018,0.0,1e-05,-0.00021,8e-05,-0.00032,0.00072,3
9579,9901,0.00036,-0.00018,0.0,1e-05,-0.00021,8e-05,-0.00032,0.00072,3
9580,9902,0.00036,-0.00018,0.0,1e-05,-0.00021,8e-05,-0.00032,0.00072,3
9581,9903,0.00036,-0.00018,0.0,1e-05,-0.00021,8e-05,-0.00032,0.00072,3
9582,9904,0.00036,-0.00018,0.0,1e-05,-0.00021,8e-05,-0.00032,0.00072,3
9583,9905,0.00036,-0.00018,0.0,1e-05,-0.00021,8e-05,-0.00032,0.00072,3
9584,9906,0.00036,-0.00018,0.0,1e-05,-0.00021,8e-05,-0.00032,0.00072,3
9585,9907,0.00036,-0.00018,0.0,1e-05,-0.00021,8e-05,-0.00032,0.00072,3
9586,9908,0.00036,-0.00018,0.0,1e-05,-0.00021,8e-05,-0.00032,0.00072,3
9587,9909,0.00107,0.0009400000000000001,0.00022999999999999998,0.00013000000000000002,0.00016,0.00015,0.00047999999999999996,0.00014,3
9588,9910,-0.00011,0.0,-0.0001,-2.9999999999999997e-05,-4e-05,-0.00013000000000000002,0.00036,0.00085,3
9589,9911,0.00088,5.9999999999999995e-05,-0.0001,-0.0001,-0.00018,-0.00018,-0.0003,0.00013000000000000002,3
9590,9912,0.00088,5.9999999999999995e-05,-0.0001,-0.0001,-0.00018,-0.00018,-0.0003,0.00013000000000000002,3
9591,9913,0.00088,5.9999999999999995e-05,-0.0001,-0.0001,-0.00018,-0.00018,-0.0003,0.00013000000000000002,3
9592,9914,0.00088,5.9999999999999995e-05,-0.0001,-0.0001,-0.00018,-0.00018,-0.0003,0.00013000000000000002,3
9593,9915,0.00088,5.9999999999999995e-05,-0.0001,-0.0001,-0.00018,-0.00018,-0.0003,0.00013000000000000002,3
9594,9916,0.00088,5.9999999999999995e-05,-0.0001,-0.0001,-0.00018,-0.00018,-0.0003,0.00013000000000000002,3
9595,9917,0.00088,5.9999999999999995e-05,-0.0001,-0.0001,-0.00018,-0.00018,-0.0003,0.00013000000000000002,3
9596,9918,0.00088,5.9999999999999995e-05,-0.0001,-0.0001,-0.00018,-0.00018,-0.0003,0.00013000000000000002,3
9597,9919,0.00088,5.9999999999999995e-05,-0.0001,-0.0001,-0.00018,-0.00018,-0.0003,0.00013000000000000002,3
9598,9920,0.00088,5.9999999999999995e-05,-0.0001,-0.0001,-0.00018,-0.00018,-0.0003,0.00013000000000000002,3
9599,9921,0.00088,5.9999999999999995e-05,-0.0001,-0.0001,-0.00018,-0.00018,-0.0003,0.00013000000000000002,3
9600,9922,0.00088,5.9999999999999995e-05,-0.0001,-0.0001,-0.00018,-0.00018,-0.0003,0.00013000000000000002,3
9601,9923,-0.00119,-0.0009699999999999999,-0.00015,-0.00015,-7e-05,-0.00035,-0.00033,0.00082,3
9602,9924,9e-05,-0.00013000000000000002,2.9999999999999997e-05,5e-05,0.00013000000000000002,0.00028,0.0007700000000000001,0.00032,3
9603,9925,9e-05,-0.00013000000000000002,2.9999999999999997e-05,5e-05,0.00013000000000000002,0.00028,0.0007700000000000001,0.00032,3
9604,9926,9e-05,-0.00013000000000000002,2.9999999999999997e-05,5e-05,0.00013000000000000002,0.00028,0.0007700000000000001,0.00032,3
9605,9927,9e-05,-0.00013000000000000002,2.9999999999999997e-05,5e-05,0.00013000000000000002,0.00028,0.0007700000000000001,0.00032,3
9606,9928,9e-05,-0.00013000000000000002,2.9999999999999997e-05,5e-05,0.00013000000000000002,0.00028,0.0007700000000000001,0.00032,3
9607,9929,9e-05,-0.00013000000000000002,2.9999999999999997e-05,5e-05,0.00013000000000000002,0.00028,0.0007700000000000001,0.00032,3
9608,9930,-0.0002,0.00059,0.00013000000000000002,2e-05,-5.9999999999999995e-05,0.00016999999999999999,0.00045999999999999996,0.0004,3
9609,9931,-0.0002,0.00059,0.00013000000000000002,2e-05,-5.9999999999999995e-05,0.00016999999999999999,0.00045999999999999996,0.0004,3
9610,9932,-0.0002,0.00059,0.00013000000000000002,2e-05,-5.9999999999999995e-05,0.00016999999999999999,0.00045999999999999996,0.0004,3
9611,9933,-0.0002,0.00059,0.00013000000000000002,2e-05,-5.9999999999999995e-05,0.00016999999999999999,0.00045999999999999996,0.0004,3
9612,9934,-0.0002,0.00059,0.00013000000000000002,2e-05,-5.9999999999999995e-05,0.00016999999999999999,0.00045999999999999996,0.0004,3
9613,9935,-0.0002,0.00059,0.00013000000000000002,2e-05,-5.9999999999999995e-05,0.00016999999999999999,0.00045999999999999996,0.0004,3
9614,9936,-0.0002,0.00059,0.00013000000000000002,2e-05,-5.9999999999999995e-05,0.00016999999999999999,0.00045999999999999996,0.0004,3
9615,9938,-0.0002,0.00059,0.00013000000000000002,2e-05,-5.9999999999999995e-05,0.00016999999999999999,0.00045999999999999996,0.0004,3
9616,9939,-0.0002,0.00059,0.00013000000000000002,2e-05,-5.9999999999999995e-05,0.00016999999999999999,0.00045999999999999996,0.0004,3
9617,9940,-0.0002,0.00059,0.00013000000000000002,2e-05,-5.9999999999999995e-05,0.00016999999999999999,0.00045999999999999996,0.0004,3
9618,9941,-0.0002,0.00059,0.00013000000000000002,2e-05,-5.9999999999999995e-05,0.00016999999999999999,0.00045999999999999996,0.0004,3
9619,9942,-0.0002,0.00059,0.00013000000000000002,2e-05,-5.9999999999999995e-05,0.00016999999999999999,0.00045999999999999996,0.0004,3
9620,9943,-0.0002,0.00059,0.00013000000000000002,2e-05,-5.9999999999999995e-05,0.00016999999999999999,0.00045999999999999996,0.0004,3
9621,9944,-0.0002,0.00059,0.00013000000000000002,2e-05,-5.9999999999999995e-05,0.00016999999999999999,0.00045999999999999996,0.0004,3
9622,9945,-0.0002,0.00059,0.00013000000000000002,2e-05,-5.9999999999999995e-05,0.00016999999999999999,0.00045999999999999996,0.0004,3
9623,9946,0.00091,-0.00128,-0.00031,-0.00013000000000000002,0.0,0.0001,0.00053,-0.00033,3
9624,9947,0.00091,-0.00128,-0.00031,-0.00013000000000000002,0.0,0.0001,0.00053,-0.00033,3
9625,9948,0.00093,0.0002,-1e-05,-4e-05,0.00023999999999999998,9e-05,0.00033999999999999997,-0.00125,3
9626,9949,0.00093,0.0002,-1e-05,-4e-05,0.00023999999999999998,9e-05,0.00033999999999999997,-0.00125,3
9627,9950,0.00093,0.0002,-1e-05,-4e-05,0.00023999999999999998,9e-05,0.00033999999999999997,-0.00125,3
9628,9951,0.00093,0.0002,-1e-05,-4e-05,0.00023999999999999998,9e-05,0.00033999999999999997,-0.00125,3
9629,9952,0.00093,0.0002,-1e-05,-4e-05,0.00023999999999999998,9e-05,0.00033999999999999997,-0.00125,3
9630,9953,0.00093,0.0002,-1e-05,-4e-05,0.00023999999999999998,9e-05,0.00033999999999999997,-0.00125,3
9631,9954,0.00093,0.0002,-1e-05,-4e-05,0.00023999999999999998,9e-05,0.00033999999999999997,-0.00125,3
9632,9955,0.00093,0.0002,-1e-05,-4e-05,0.00023999999999999998,9e-05,0.00033999999999999997,-0.00125,3
9633,9956,0.00093,0.0002,-1e-05,-4e-05,0.00023999999999999998,9e-05,0.00033999999999999997,-0.00125,3
9634,9957,0.00093,0.0002,-1e-05,-4e-05,0.00023999999999999998,9e-05,0.00033999999999999997,-0.00125,3
9635,9958,0.00093,0.0002,-1e-05,-4e-05,0.00023999999999999998,9e-05,0.00033999999999999997,-0.00125,3
9636,9959,0.00093,0.0002,-1e-05,-4e-05,0.00023999999999999998,9e-05,0.00033999999999999997,-0.00125,3
9637,9960,0.00093,0.0002,-1e-05,-4e-05,0.00023999999999999998,9e-05,0.00033999999999999997,-0.00125,3
9638,9961,0.00093,0.0002,-1e-05,-4e-05,0.00023999999999999998,9e-05,0.00033999999999999997,-0.00125,3
9639,9962,0.00093,0.0002,-1e-05,-4e-05,0.00023999999999999998,9e-05,0.00033999999999999997,-0.00125,3
9640,9963,0.00093,0.0002,-1e-05,-4e-05,0.00023999999999999998,9e-05,0.00033999999999999997,-0.00125,3
9641,9964,0.00093,0.0002,-1e-05,-4e-05,0.00023999999999999998,9e-05,0.00033999999999999997,-0.00125,3
9642,9965,0.00093,0.0002,-1e-05,-4e-05,0.00023999999999999998,9e-05,0.00033999999999999997,-0.00125,3
9643,9966,0.00093,0.0002,-1e-05,-4e-05,0.00023999999999999998,9e-05,0.00033999999999999997,-0.00125,3
9644,9967,0.00093,0.0002,-1e-05,-4e-05,0.00023999999999999998,9e-05,0.00033999999999999997,-0.00125,3
9645,9968,0.00093,0.0002,-1e-05,-4e-05,0.00023999999999999998,9e-05,0.00033999999999999997,-0.00125,3
9646,9969,0.00093,0.0002,-1e-05,-4e-05,0.00023999999999999998,9e-05,0.00033999999999999997,-0.00125,3
9647,9970,0.00093,0.0002,-1e-05,-4e-05,0.00023999999999999998,9e-05,0.00033999999999999997,-0.00125,3
9648,9971,0.00093,0.0002,-1e-05,-4e-05,0.00023999999999999998,9e-05,0.00033999999999999997,-0.00125,3
9649,9972,0.00093,0.0002,-1e-05,-4e-05,0.00023999999999999998,9e-05,0.00033999999999999997,-0.00125,3
9650,9973,0.00093,0.0002,-1e-05,-4e-05,0.00023999999999999998,9e-05,0.00033999999999999997,-0.00125,3
9651,9974,0.00093,0.0002,-1e-05,-4e-05,0.00023999999999999998,9e-05,0.00033999999999999997,-0.00125,3
9652,9975,0.00093,0.0002,-1e-05,-4e-05,0.00023999999999999998,9e-05,0.00033999999999999997,-0.00125,3
9653,9976,0.00047999999999999996,0.00053,-9e-05,-0.00016999999999999999,-0.00032,-0.0001,0.00011,-0.00045999999999999996,3
9654,9977,0.00047999999999999996,0.00053,-9e-05,-0.00016999999999999999,-0.00032,-0.0001,0.00011,-0.00045999999999999996,3
9655,9978,-0.0003,-0.00042,-0.00018,-0.00013000000000000002,-0.00029,-0.00039,-0.0003,-0.00128,3
9656,9979,-0.0003,-0.00042,-0.00018,-0.00013000000000000002,-0.00029,-0.00039,-0.0003,-0.00128,3
9657,9980,-0.0003,-0.00042,-0.00018,-0.00013000000000000002,-0.00029,-0.00039,-0.0003,-0.00128,3
9658,9981,-0.0003,-0.00042,-0.00018,-0.00013000000000000002,-0.00029,-0.00039,-0.0003,-0.00128,3
9659,9982,-0.0003,-0.00042,-0.00018,-0.00013000000000000002,-0.00029,-0.00039,-0.0003,-0.00128,3
9660,9983,-0.00082,-0.00018999999999999998,-9e-05,-0.0001,-0.00016999999999999999,-0.00044,-0.00128,-2e-05,3
9661,9984,-0.00082,-0.00018999999999999998,-9e-05,-0.0001,-0.00016999999999999999,-0.00044,-0.00128,-2e-05,3
9662,9985,-0.00082,-0.00018999999999999998,-9e-05,-0.0001,-0.00016999999999999999,-0.00044,-0.00128,-2e-05,3
9663,9986,-0.00082,-0.00018999999999999998,-9e-05,-0.0001,-0.00016999999999999999,-0.00044,-0.00128,-2e-05,3
9664,9988,-0.00082,-0.00018999999999999998,-9e-05,-0.0001,-0.00016999999999999999,-0.00044,-0.00128,-2e-05,3
9665,9989,-0.00082,-0.00018999999999999998,-9e-05,-0.0001,-0.00016999999999999999,-0.00044,-0.00128,-2e-05,3
9666,9990,0.0009599999999999999,0.00041,0.0002,0.00011999999999999999,0.00013000000000000002,0.00033999999999999997,0.0010199999999999999,0.00073,3
9667,9991,0.0009599999999999999,0.00041,0.0002,0.00011999999999999999,0.00013000000000000002,0.00033999999999999997,0.0010199999999999999,0.00073,3
9668,9992,0.0009599999999999999,0.00041,0.0002,0.00011999999999999999,0.00013000000000000002,0.00033999999999999997,0.0010199999999999999,0.00073,3
9669,9993,0.0009599999999999999,0.00041,0.0002,0.00011999999999999999,0.00013000000000000002,0.00033999999999999997,0.0010199999999999999,0.00073,3
9670,9994,0.0009599999999999999,0.00041,0.0002,0.00011999999999999999,0.00013000000000000002,0.00033999999999999997,0.0010199999999999999,0.00073,3
9671,9995,0.0009599999999999999,0.00041,0.0002,0.00011999999999999999,0.00013000000000000002,0.00033999999999999997,0.0010199999999999999,0.00073,3
9672,9996,0.0009599999999999999,0.00041,0.0002,0.00011999999999999999,0.00013000000000000002,0.00033999999999999997,0.0010199999999999999,0.00073,3
9673,9997,0.0009599999999999999,0.00041,0.0002,0.00011999999999999999,0.00013000000000000002,0.00033999999999999997,0.0010199999999999999,0.00073,3
9674,9998,0.0009599999999999999,0.00041,0.0002,0.00011999999999999999,0.00013000000000000002,0.00033999999999999997,0.0010199999999999999,0.00073,3
9675,9999,0.0009599999999999999,0.00041,0.0002,0.00011999999999999999,0.00013000000000000002,0.00033999999999999997,0.0010199999999999999,0.00073,3
9676,10000,0.0009599999999999999,0.00041,0.0002,0.00011999999999999999,0.00013000000000000002,0.00033999999999999997,0.0010199999999999999,0.00073,3
9677,10001,0.0009599999999999999,0.00041,0.0002,0.00011999999999999999,0.00013000000000000002,0.00033999999999999997,0.0010199999999999999,0.00073,3
9678,10002,0.0009599999999999999,0.00041,0.0002,0.00011999999999999999,0.00013000000000000002,0.00033999999999999997,0.0010199999999999999,0.00073,3
9679,10003,0.0009599999999999999,0.00041,0.0002,0.00011999999999999999,0.00013000000000000002,0.00033999999999999997,0.0010199999999999999,0.00073,3
9680,10004,0.0009599999999999999,0.00041,0.0002,0.00011999999999999999,0.00013000000000000002,0.00033999999999999997,0.0010199999999999999,0.00073,3
9681,10005,0.0009599999999999999,0.00041,0.0002,0.00011999999999999999,0.00013000000000000002,0.00033999999999999997,0.0010199999999999999,0.00073,3
9682,10006,-0.00047000000000000004,0.00035,-7e-05,-0.00011,-0.00018999999999999998,4e-05,0.0005099999999999999,-0.00079,3
9683,10007,-0.00047000000000000004,0.00035,-7e-05,-0.00011,-0.00018999999999999998,4e-05,0.0005099999999999999,-0.00079,3
9684,10008,0.00022999999999999998,-0.0006,7e-05,0.00018999999999999998,0.00022999999999999998,0.00067,0.0008900000000000001,-0.00053,3
9685,10009,0.00022999999999999998,-0.0006,7e-05,0.00018999999999999998,0.00022999999999999998,0.00067,0.0008900000000000001,-0.00053,3
9686,10010,0.00022999999999999998,-0.0006,7e-05,0.00018999999999999998,0.00022999999999999998,0.00067,0.0008900000000000001,-0.00053,3
9687,10011,0.00022999999999999998,-0.0006,7e-05,0.00018999999999999998,0.00022999999999999998,0.00067,0.0008900000000000001,-0.00053,3
9688,10012,0.00022999999999999998,-0.0006,7e-05,0.00018999999999999998,0.00022999999999999998,0.00067,0.0008900000000000001,-0.00053,3
9689,10013,0.00022999999999999998,-0.0006,7e-05,0.00018999999999999998,0.00022999999999999998,0.00067,0.0008900000000000001,-0.00053,3
9690,10014,0.00022999999999999998,-0.0006,7e-05,0.00018999999999999998,0.00022999999999999998,0.00067,0.0008900000000000001,-0.00053,3
9691,10015,0.00022999999999999998,-0.0006,7e-05,0.00018999999999999998,0.00022999999999999998,0.00067,0.0008900000000000001,-0.00053,3
9692,10016,0.00022999999999999998,-0.0006,7e-05,0.00018999999999999998,0.00022999999999999998,0.00067,0.0008900000000000001,-0.00053,3
9693,10017,0.00022999999999999998,-0.0006,7e-05,0.00018999999999999998,0.00022999999999999998,0.00067,0.0008900000000000001,-0.00053,3
9694,10018,0.00022999999999999998,-0.0006,7e-05,0.00018999999999999998,0.00022999999999999998,0.00067,0.0008900000000000001,-0.00053,3
9695,10019,0.00022999999999999998,-0.0006,7e-05,0.00018999999999999998,0.00022999999999999998,0.00067,0.0008900000000000001,-0.00053,3
9696,10020,0.00022999999999999998,-0.0006,7e-05,0.00018999999999999998,0.00022999999999999998,0.00067,0.0008900000000000001,-0.00053,3
9697,10021,0.00022999999999999998,-0.0006,7e-05,0.00018999999999999998,0.00022999999999999998,0.00067,0.0008900000000000001,-0.00053,3
9698,10022,0.00022999999999999998,-0.0006,7e-05,0.00018999999999999998,0.00022999999999999998,0.00067,0.0008900000000000001,-0.00053,3
9699,10023,0.00022999999999999998,-0.0006,7e-05,0.00018999999999999998,0.00022999999999999998,0.00067,0.0008900000000000001,-0.00053,3
9700,10024,0.00022999999999999998,-0.0006,7e-05,0.00018999999999999998,0.00022999999999999998,0.00067,0.0008900000000000001,-0.00053,3
9701,10025,0.00022999999999999998,-0.0006,7e-05,0.00018999999999999998,0.00022999999999999998,0.00067,0.0008900000000000001,-0.00053,3
9702,10026,0.00022999999999999998,-0.0006,7e-05,0.00018999999999999998,0.00022999999999999998,0.00067,0.0008900000000000001,-0.00053,3
9703,10027,0.00022999999999999998,-0.0006,7e-05,0.00018999999999999998,0.00022999999999999998,0.00067,0.0008900000000000001,-0.00053,3
9704,10028,0.00022999999999999998,-0.0006,7e-05,0.00018999999999999998,0.00022999999999999998,0.00067,0.0008900000000000001,-0.00053,3
9705,10029,-0.00079,-0.0001,0.0001,0.00018999999999999998,0.00054,0.00053,0.00079,-0.00036,3
9706,10030,0.00082,0.00045,5.9999999999999995e-05,8e-05,0.00053,0.00015,-0.0007700000000000001,-0.00047999999999999996,3
9707,10031,0.00082,0.00045,5.9999999999999995e-05,8e-05,0.00053,0.00015,-0.0007700000000000001,-0.00047999999999999996,3
9708,10033,0.00082,0.00045,5.9999999999999995e-05,8e-05,0.00053,0.00015,-0.0007700000000000001,-0.00047999999999999996,3
9709,10034,0.00082,0.00045,5.9999999999999995e-05,8e-05,0.00053,0.00015,-0.0007700000000000001,-0.00047999999999999996,3
9710,10035,0.00082,0.00045,5.9999999999999995e-05,8e-05,0.00053,0.00015,-0.0007700000000000001,-0.00047999999999999996,3
9711,10043,-0.00056,-0.00018999999999999998,2.9999999999999997e-05,2.9999999999999997e-05,5e-05,0.00018999999999999998,-4e-05,7e-05,3
9712,10044,-0.00056,-0.00018999999999999998,2.9999999999999997e-05,2.9999999999999997e-05,5e-05,0.00018999999999999998,-4e-05,7e-05,3
9713,10045,-0.00056,-0.00018999999999999998,2.9999999999999997e-05,2.9999999999999997e-05,5e-05,0.00018999999999999998,-4e-05,7e-05,3
9714,10046,-0.00056,-0.00018999999999999998,2.9999999999999997e-05,2.9999999999999997e-05,5e-05,0.00018999999999999998,-4e-05,7e-05,3
9715,10047,-0.00056,-0.00018999999999999998,2.9999999999999997e-05,2.9999999999999997e-05,5e-05,0.00018999999999999998,-4e-05,7e-05,3
9716,10048,-0.00056,-0.00018999999999999998,2.9999999999999997e-05,2.9999999999999997e-05,5e-05,0.00018999999999999998,-4e-05,7e-05,3
9717,10049,-0.00056,-0.00018999999999999998,2.9999999999999997e-05,2.9999999999999997e-05,5e-05,0.00018999999999999998,-4e-05,7e-05,3
9718,10050,-0.00018999999999999998,0.0006,-2e-05,-5e-05,0.00014,-0.00011,0.00033999999999999997,0.0012699999999999999,3
9719,10051,-0.00018999999999999998,0.0006,-2e-05,-5e-05,0.00014,-0.00011,0.00033999999999999997,0.0012699999999999999,3
9720,10052,-0.00018999999999999998,0.0006,-2e-05,-5e-05,0.00014,-0.00011,0.00033999999999999997,0.0012699999999999999,3
9721,10053,-0.00018999999999999998,0.0006,-2e-05,-5e-05,0.00014,-0.00011,0.00033999999999999997,0.0012699999999999999,3
9722,10054,-0.00018999999999999998,0.0006,-2e-05,-5e-05,0.00014,-0.00011,0.00033999999999999997,0.0012699999999999999,3
9723,10055,-0.00018999999999999998,0.0006,-2e-05,-5e-05,0.00014,-0.00011,0.00033999999999999997,0.0012699999999999999,3
9724,10056,-0.00018999999999999998,0.0006,-2e-05,-5e-05,0.00014,-0.00011,0.00033999999999999997,0.0012699999999999999,3
9725,10057,-0.00018999999999999998,0.0006,-2e-05,-5e-05,0.00014,-0.00011,0.00033999999999999997,0.0012699999999999999,3
9726,10058,-0.00018999999999999998,0.0006,-2e-05,-5e-05,0.00014,-0.00011,0.00033999999999999997,0.0012699999999999999,3
9727,10059,-0.00018999999999999998,0.0006,-2e-05,-5e-05,0.00014,-0.00011,0.00033999999999999997,0.0012699999999999999,3
9728,10060,-0.00018999999999999998,0.0006,-2e-05,-5e-05,0.00014,-0.00011,0.00033999999999999997,0.0012699999999999999,3
9729,10061,-0.00018999999999999998,0.0006,-2e-05,-5e-05,0.00014,-0.00011,0.00033999999999999997,0.0012699999999999999,3
9730,10062,-0.00018999999999999998,0.0006,-2e-05,-5e-05,0.00014,-0.00011,0.00033999999999999997,0.0012699999999999999,3
9731,10063,-0.00018999999999999998,0.0006,-2e-05,-5e-05,0.00014,-0.00011,0.00033999999999999997,0.0012699999999999999,3
9732,10064,-0.00018999999999999998,0.0006,-2e-05,-5e-05,0.00014,-0.00011,0.00033999999999999997,0.0012699999999999999,3
9733,10065,-0.00018999999999999998,0.0006,-2e-05,-5e-05,0.00014,-0.00011,0.00033999999999999997,0.0012699999999999999,3
9734,10066,0.0006799999999999999,-0.0005200000000000001,-0.00014,-5.9999999999999995e-05,-0.00016,-0.00018,-0.00125,5.9999999999999995e-05,3
9735,10067,0.0006799999999999999,-0.0005200000000000001,-0.00014,-5.9999999999999995e-05,-0.00016,-0.00018,-0.00125,5.9999999999999995e-05,3
9736,10068,0.00022,-0.00036,-0.00011,-8e-05,-7e-05,-0.00018999999999999998,-0.00022999999999999998,-9e-05,3
9737,10069,0.00022,-0.00036,-0.00011,-8e-05,-7e-05,-0.00018999999999999998,-0.00022999999999999998,-9e-05,3
9738,10070,0.00022,-0.00036,-0.00011,-8e-05,-7e-05,-0.00018999999999999998,-0.00022999999999999998,-9e-05,3
9739,10071,0.00022,-0.00036,-0.00011,-8e-05,-7e-05,-0.00018999999999999998,-0.00022999999999999998,-9e-05,3
9740,10072,0.00022,-0.00036,-0.00011,-8e-05,-7e-05,-0.00018999999999999998,-0.00022999999999999998,-9e-05,3
9741,10073,0.00022,-0.00036,-0.00011,-8e-05,-7e-05,-0.00018999999999999998,-0.00022999999999999998,-9e-05,3
9742,10074,0.00022,-0.00036,-0.00011,-8e-05,-7e-05,-0.00018999999999999998,-0.00022999999999999998,-9e-05,3
9743,10075,0.00022,-0.00036,-0.00011,-8e-05,-7e-05,-0.00018999999999999998,-0.00022999999999999998,-9e-05,3
9744,10076,0.00022,-0.00036,-0.00011,-8e-05,-7e-05,-0.00018999999999999998,-0.00022999999999999998,-9e-05,3
9745,10077,0.00022,-0.00036,-0.00011,-8e-05,-7e-05,-0.00018999999999999998,-0.00022999999999999998,-9e-05,3
9746,10078,0.00022,-0.00036,-0.00011,-8e-05,-7e-05,-0.00018999999999999998,-0.00022999999999999998,-9e-05,3
9747,10079,0.00022,-0.00036,-0.00011,-8e-05,-7e-05,-0.00018999999999999998,-0.00022999999999999998,-9e-05,3
9748,10080,0.00022,-0.00036,-0.00011,-8e-05,-7e-05,-0.00018999999999999998,-0.00022999999999999998,-9e-05,3
9749,10081,0.00022,-0.00036,-0.00011,-8e-05,-7e-05,-0.00018999999999999998,-0.00022999999999999998,-9e-05,3
9750,10082,0.00022,-0.00036,-0.00011,-8e-05,-7e-05,-0.00018999999999999998,-0.00022999999999999998,-9e-05,3
9751,10083,0.00022,-0.00036,-0.00011,-8e-05,-7e-05,-0.00018999999999999998,-0.00022999999999999998,-9e-05,3
9752,10084,0.00022,-0.00036,-0.00011,-8e-05,-7e-05,-0.00018999999999999998,-0.00022999999999999998,-9e-05,3
9753,10085,0.00022,-0.00036,-0.00011,-8e-05,-7e-05,-0.00018999999999999998,-0.00022999999999999998,-9e-05,3
9754,10086,0.00022,-0.00036,-0.00011,-8e-05,-7e-05,-0.00018999999999999998,-0.00022999999999999998,-9e-05,3
9755,10088,0.00022,-0.00036,-0.00011,-8e-05,-7e-05,-0.00018999999999999998,-0.00022999999999999998,-9e-05,3
9756,10089,0.0007,0.00064,0.00018999999999999998,0.0001,-0.00049,0.0002,0.00082,-0.0005200000000000001,3
9757,10090,-0.00032,0.0,0.0,-1e-05,-0.0004,-2e-05,-9e-05,0.00084,3
9758,10091,-0.00032,0.0,0.0,-1e-05,-0.0004,-2e-05,-9e-05,0.00084,3
9759,10092,-0.00032,0.0,0.0,-1e-05,-0.0004,-2e-05,-9e-05,0.00084,3
9760,10093,-0.00032,0.0,0.0,-1e-05,-0.0004,-2e-05,-9e-05,0.00084,3
9761,10094,-0.00032,0.0,0.0,-1e-05,-0.0004,-2e-05,-9e-05,0.00084,3
9762,10095,-0.00032,0.0,0.0,-1e-05,-0.0004,-2e-05,-9e-05,0.00084,3
9763,10096,-0.00032,0.0,0.0,-1e-05,-0.0004,-2e-05,-9e-05,0.00084,3
9764,10097,-0.00032,0.0,0.0,-1e-05,-0.0004,-2e-05,-9e-05,0.00084,3
9765,10098,-0.00032,0.0,0.0,-1e-05,-0.0004,-2e-05,-9e-05,0.00084,3
9766,10099,-0.00032,0.0,0.0,-1e-05,-0.0004,-2e-05,-9e-05,0.00084,3
9767,10100,-0.00032,0.0,0.0,-1e-05,-0.0004,-2e-05,-9e-05,0.00084,3
9768,10101,-0.00032,0.0,0.0,-1e-05,-0.0004,-2e-05,-9e-05,0.00084,3
9769,10102,-0.00032,0.0,0.0,-1e-05,-0.0004,-2e-05,-9e-05,0.00084,3
9770,10103,-0.0008699999999999999,0.00011999999999999999,2.9999999999999997e-05,-5.9999999999999995e-05,-1e-05,-8e-05,-0.00073,-4e-05,3
9771,10104,-0.0008699999999999999,0.00011999999999999999,2.9999999999999997e-05,-5.9999999999999995e-05,-1e-05,-8e-05,-0.00073,-4e-05,3
9772,10105,-0.0008699999999999999,0.00011999999999999999,2.9999999999999997e-05,-5.9999999999999995e-05,-1e-05,-8e-05,-0.00073,-4e-05,3
9773,10106,-0.0008699999999999999,0.00011999999999999999,2.9999999999999997e-05,-5.9999999999999995e-05,-1e-05,-8e-05,-0.00073,-4e-05,3
9774,10107,-0.0008699999999999999,0.00011999999999999999,2.9999999999999997e-05,-5.9999999999999995e-05,-1e-05,-8e-05,-0.00073,-4e-05,3
9775,10108,-0.0008699999999999999,0.00011999999999999999,2.9999999999999997e-05,-5.9999999999999995e-05,-1e-05,-8e-05,-0.00073,-4e-05,3
9776,10109,-0.0008699999999999999,0.00011999999999999999,2.9999999999999997e-05,-5.9999999999999995e-05,-1e-05,-8e-05,-0.00073,-4e-05,3
9777,10110,-0.0002,-0.00054,-0.0001,-2e-05,-0.0006,-0.00033999999999999997,-0.00045,0.00074,3
9778,10111,-0.0002,-0.00054,-0.0001,-2e-05,-0.0006,-0.00033999999999999997,-0.00045,0.00074,3
9779,10112,-0.0002,-0.00054,-0.0001,-2e-05,-0.0006,-0.00033999999999999997,-0.00045,0.00074,3
9780,10113,-0.0002,-0.00054,-0.0001,-2e-05,-0.0006,-0.00033999999999999997,-0.00045,0.00074,3
9781,10114,-0.0002,-0.00054,-0.0001,-2e-05,-0.0006,-0.00033999999999999997,-0.00045,0.00074,3
9782,10115,-0.0002,-0.00054,-0.0001,-2e-05,-0.0006,-0.00033999999999999997,-0.00045,0.00074,3
9783,10116,-0.0002,-0.00054,-0.0001,-2e-05,-0.0006,-0.00033999999999999997,-0.00045,0.00074,3
9784,10117,-0.0002,-0.00054,-0.0001,-2e-05,-0.0006,-0.00033999999999999997,-0.00045,0.00074,3
9785,10118,-0.0002,-0.00054,-0.0001,-2e-05,-0.0006,-0.00033999999999999997,-0.00045,0.00074,3
9786,10119,-0.0002,-0.00054,-0.0001,-2e-05,-0.0006,-0.00033999999999999997,-0.00045,0.00074,3
9787,10120,-0.0002,-0.00054,-0.0001,-2e-05,-0.0006,-0.00033999999999999997,-0.00045,0.00074,3
9788,10121,-0.0002,-0.00054,-0.0001,-2e-05,-0.0006,-0.00033999999999999997,-0.00045,0.00074,3
9789,10122,-0.0002,-0.00054,-0.0001,-2e-05,-0.0006,-0.00033999999999999997,-0.00045,0.00074,3
9790,10123,-0.0002,-0.00054,-0.0001,-2e-05,-0.0006,-0.00033999999999999997,-0.00045,0.00074,3
9791,10124,-0.0002,-0.00054,-0.0001,-2e-05,-0.0006,-0.00033999999999999997,-0.00045,0.00074,3
9792,10125,-0.0002,-0.00054,-0.0001,-2e-05,-0.0006,-0.00033999999999999997,-0.00045,0.00074,3
9793,10126,-0.00047000000000000004,-0.00031,-7e-05,-1e-05,0.00013000000000000002,-0.0001,5e-05,0.00059,3
9794,10127,-0.00047000000000000004,-0.00031,-7e-05,-1e-05,0.00013000000000000002,-0.0001,5e-05,0.00059,3
9795,10128,0.00053,0.00042,-1e-05,-9e-05,-0.00042,-0.0007700000000000001,-0.00093,0.00036,3
9796,10129,0.00053,0.00042,-1e-05,-9e-05,-0.00042,-0.0007700000000000001,-0.00093,0.00036,3
9797,10130,0.00053,0.00042,-1e-05,-9e-05,-0.00042,-0.0007700000000000001,-0.00093,0.00036,3
9798,10131,0.00053,0.00042,-1e-05,-9e-05,-0.00042,-0.0007700000000000001,-0.00093,0.00036,3
9799,10132,0.00053,0.00042,-1e-05,-9e-05,-0.00042,-0.0007700000000000001,-0.00093,0.00036,3
9800,10133,0.00053,0.00042,-1e-05,-9e-05,-0.00042,-0.0007700000000000001,-0.00093,0.00036,3
9801,10134,0.00053,0.00042,-1e-05,-9e-05,-0.00042,-0.0007700000000000001,-0.00093,0.00036,3
9802,10135,0.00053,0.00042,-1e-05,-9e-05,-0.00042,-0.0007700000000000001,-0.00093,0.00036,3
9803,10136,0.00053,0.00042,-1e-05,-9e-05,-0.00042,-0.0007700000000000001,-0.00093,0.00036,3
9804,10138,0.00053,0.00042,-1e-05,-9e-05,-0.00042,-0.0007700000000000001,-0.00093,0.00036,3
9805,10139,0.00053,0.00042,-1e-05,-9e-05,-0.00042,-0.0007700000000000001,-0.00093,0.00036,3
9806,10140,0.00053,0.00042,-1e-05,-9e-05,-0.00042,-0.0007700000000000001,-0.00093,0.00036,3
9807,10141,0.00053,0.00042,-1e-05,-9e-05,-0.00042,-0.0007700000000000001,-0.00093,0.00036,3
9808,10142,0.00053,0.00042,-1e-05,-9e-05,-0.00042,-0.0007700000000000001,-0.00093,0.00036,3
9809,10143,0.00053,0.00042,-1e-05,-9e-05,-0.00042,-0.0007700000000000001,-0.00093,0.00036,3
9810,10144,0.00053,0.00042,-1e-05,-9e-05,-0.00042,-0.0007700000000000001,-0.00093,0.00036,3
9811,10145,0.00053,0.00042,-1e-05,-9e-05,-0.00042,-0.0007700000000000001,-0.00093,0.00036,3
9812,10146,0.00053,0.00042,-1e-05,-9e-05,-0.00042,-0.0007700000000000001,-0.00093,0.00036,3
9813,10147,0.00053,0.00042,-1e-05,-9e-05,-0.00042,-0.0007700000000000001,-0.00093,0.00036,3
9814,10148,0.00053,0.00042,-1e-05,-9e-05,-0.00042,-0.0007700000000000001,-0.00093,0.00036,3
9815,10149,0.00079,-2e-05,-1e-05,-1e-05,7e-05,-0.00047999999999999996,-9e-05,-0.00035,3
9816,10150,0.00079,-2e-05,-1e-05,-1e-05,7e-05,-0.00047999999999999996,-9e-05,-0.00035,3
9817,10151,-0.0011099999999999999,-0.00018,8e-05,9e-05,0.0003,2.9999999999999997e-05,0.00085,-0.0008699999999999999,3
9818,10152,-0.0011099999999999999,-0.00018,8e-05,9e-05,0.0003,2.9999999999999997e-05,0.00085,-0.0008699999999999999,3
9819,10153,-0.0011099999999999999,-0.00018,8e-05,9e-05,0.0003,2.9999999999999997e-05,0.00085,-0.0008699999999999999,3
9820,10154,-0.0011099999999999999,-0.00018,8e-05,9e-05,0.0003,2.9999999999999997e-05,0.00085,-0.0008699999999999999,3
9821,10155,-0.0011099999999999999,-0.00018,8e-05,9e-05,0.0003,2.9999999999999997e-05,0.00085,-0.0008699999999999999,3
9822,10156,-0.0011099999999999999,-0.00018,8e-05,9e-05,0.0003,2.9999999999999997e-05,0.00085,-0.0008699999999999999,3
9823,10157,-0.0011099999999999999,-0.00018,8e-05,9e-05,0.0003,2.9999999999999997e-05,0.00085,-0.0008699999999999999,3
9824,10158,-0.0011099999999999999,-0.00018,8e-05,9e-05,0.0003,2.9999999999999997e-05,0.00085,-0.0008699999999999999,3
9825,10159,-0.0011099999999999999,-0.00018,8e-05,9e-05,0.0003,2.9999999999999997e-05,0.00085,-0.0008699999999999999,3
9826,10160,-0.0011099999999999999,-0.00018,8e-05,9e-05,0.0003,2.9999999999999997e-05,0.00085,-0.0008699999999999999,3
9827,10161,-0.0011099999999999999,-0.00018,8e-05,9e-05,0.0003,2.9999999999999997e-05,0.00085,-0.0008699999999999999,3
9828,10162,-0.0011099999999999999,-0.00018,8e-05,9e-05,0.0003,2.9999999999999997e-05,0.00085,-0.0008699999999999999,3
9829,10163,-0.00029,-0.00022,-5e-05,2.9999999999999997e-05,0.00028,0.00011999999999999999,0.00028,-0.00041,3
9830,10164,-0.00029,-0.00022,-5e-05,2.9999999999999997e-05,0.00028,0.00011999999999999999,0.00028,-0.00041,3
9831,10165,-0.00029,-0.00022,-5e-05,2.9999999999999997e-05,0.00028,0.00011999999999999999,0.00028,-0.00041,3
9832,10166,-0.00029,-0.00022,-5e-05,2.9999999999999997e-05,0.00028,0.00011999999999999999,0.00028,-0.00041,3
9833,10167,-0.00029,-0.00022,-5e-05,2.9999999999999997e-05,0.00028,0.00011999999999999999,0.00028,-0.00041,3
9834,10168,-0.00029,-0.00022,-5e-05,2.9999999999999997e-05,0.00028,0.00011999999999999999,0.00028,-0.00041,3
9835,10169,-0.00029,-0.00022,-5e-05,2.9999999999999997e-05,0.00028,0.00011999999999999999,0.00028,-0.00041,3
9836,10170,-0.00028,-0.00039,-5e-05,-2e-05,-0.00022,2.9999999999999997e-05,7e-05,0.0005,3
9837,10171,-0.00028,-0.00039,-5e-05,-2e-05,-0.00022,2.9999999999999997e-05,7e-05,0.0005,3
9838,10172,-0.00028,-0.00039,-5e-05,-2e-05,-0.00022,2.9999999999999997e-05,7e-05,0.0005,3
9839,10173,-0.00028,-0.00039,-5e-05,-2e-05,-0.00022,2.9999999999999997e-05,7e-05,0.0005,3
9840,10174,-0.00028,-0.00039,-5e-05,-2e-05,-0.00022,2.9999999999999997e-05,7e-05,0.0005,3
9841,10175,-0.00028,-0.00039,-5e-05,-2e-05,-0.00022,2.9999999999999997e-05,7e-05,0.0005,3
9842,10176,-0.00028,-0.00039,-5e-05,-2e-05,-0.00022,2.9999999999999997e-05,7e-05,0.0005,3
9843,10177,-0.00028,-0.00039,-5e-05,-2e-05,-0.00022,2.9999999999999997e-05,7e-05,0.0005,3
9844,10178,-0.00028,-0.00039,-5e-05,-2e-05,-0.00022,2.9999999999999997e-05,7e-05,0.0005,3
9845,10179,-0.00028,-0.00039,-5e-05,-2e-05,-0.00022,2.9999999999999997e-05,7e-05,0.0005,3
9846,10180,-0.00028,-0.00039,-5e-05,-2e-05,-0.00022,2.9999999999999997e-05,7e-05,0.0005,3
9847,10181,-0.00028,-0.00039,-5e-05,-2e-05,-0.00022,2.9999999999999997e-05,7e-05,0.0005,3
9848,10182,-0.00028,-0.00039,-5e-05,-2e-05,-0.00022,2.9999999999999997e-05,7e-05,0.0005,3
9849,10183,-0.00028,-0.00039,-5e-05,-2e-05,-0.00022,2.9999999999999997e-05,7e-05,0.0005,3
9850,10184,-0.00028,-0.00039,-5e-05,-2e-05,-0.00022,2.9999999999999997e-05,7e-05,0.0005,3
9851,10185,-0.00028,-0.00039,-5e-05,-2e-05,-0.00022,2.9999999999999997e-05,7e-05,0.0005,3
9852,10186,-0.00028,-0.00039,-5e-05,-2e-05,-0.00022,2.9999999999999997e-05,7e-05,0.0005,3
9853,10188,-0.00059,-0.00035,-2e-05,-0.00011999999999999999,-0.00032,-0.00028,0.00025,0.00018,3
9854,10189,-0.00059,-0.00035,-2e-05,-0.00011999999999999999,-0.00032,-0.00028,0.00025,0.00018,3
9855,10190,-0.00059,-0.00035,-2e-05,-0.00011999999999999999,-0.00032,-0.00028,0.00025,0.00018,3
9856,10191,-0.00059,-0.00035,-2e-05,-0.00011999999999999999,-0.00032,-0.00028,0.00025,0.00018,3
9857,10192,-0.00059,-0.00035,-2e-05,-0.00011999999999999999,-0.00032,-0.00028,0.00025,0.00018,3
9858,10193,-0.00059,-0.00035,-2e-05,-0.00011999999999999999,-0.00032,-0.00028,0.00025,0.00018,3
9859,10194,-0.00059,-0.00035,-2e-05,-0.00011999999999999999,-0.00032,-0.00028,0.00025,0.00018,3
9860,10195,-0.00059,-0.00035,-2e-05,-0.00011999999999999999,-0.00032,-0.00028,0.00025,0.00018,3
9861,10196,-0.00059,-0.00035,-2e-05,-0.00011999999999999999,-0.00032,-0.00028,0.00025,0.00018,3
9862,10197,-0.00059,-0.00035,-2e-05,-0.00011999999999999999,-0.00032,-0.00028,0.00025,0.00018,3
9863,10198,-0.00059,-0.00035,-2e-05,-0.00011999999999999999,-0.00032,-0.00028,0.00025,0.00018,3
9864,10199,-0.00059,-0.00035,-2e-05,-0.00011999999999999999,-0.00032,-0.00028,0.00025,0.00018,3
9865,10200,-0.00059,-0.00035,-2e-05,-0.00011999999999999999,-0.00032,-0.00028,0.00025,0.00018,3
9866,10201,-0.00059,-0.00035,-2e-05,-0.00011999999999999999,-0.00032,-0.00028,0.00025,0.00018,3
9867,10202,-0.00059,-0.00035,-2e-05,-0.00011999999999999999,-0.00032,-0.00028,0.00025,0.00018,3
9868,10203,-0.00059,-0.00035,-2e-05,-0.00011999999999999999,-0.00032,-0.00028,0.00025,0.00018,3
9869,10204,-0.00059,-0.00035,-2e-05,-0.00011999999999999999,-0.00032,-0.00028,0.00025,0.00018,3
9870,10205,-0.00059,-0.00035,-2e-05,-0.00011999999999999999,-0.00032,-0.00028,0.00025,0.00018,3
9871,10206,-0.00059,-0.00035,-2e-05,-0.00011999999999999999,-0.00032,-0.00028,0.00025,0.00018,3
9872,10207,-0.00059,-0.00035,-2e-05,-0.00011999999999999999,-0.00032,-0.00028,0.00025,0.00018,3
9873,10208,-0.00059,-0.00035,-2e-05,-0.00011999999999999999,-0.00032,-0.00028,0.00025,0.00018,3
9874,10209,0.00099,-0.00059,-0.00011999999999999999,-9e-05,-0.0005200000000000001,-7e-05,-2.9999999999999997e-05,0.00105,3
9875,10210,-0.00033,-0.00036,-5.9999999999999995e-05,-5e-05,-0.0001,-8e-05,0.00053,-0.00058,3
9876,10211,-0.00033,-0.00036,-5.9999999999999995e-05,-5e-05,-0.0001,-8e-05,0.00053,-0.00058,3
9877,10212,-0.00033,-0.00036,-5.9999999999999995e-05,-5e-05,-0.0001,-8e-05,0.00053,-0.00058,3
9878,10213,-0.00033,-0.00036,-5.9999999999999995e-05,-5e-05,-0.0001,-8e-05,0.00053,-0.00058,3
9879,10214,-0.00033,-0.00036,-5.9999999999999995e-05,-5e-05,-0.0001,-8e-05,0.00053,-0.00058,3
9880,10215,-0.00033,-0.00036,-5.9999999999999995e-05,-5e-05,-0.0001,-8e-05,0.00053,-0.00058,3
9881,10216,-0.00033,-0.00036,-5.9999999999999995e-05,-5e-05,-0.0001,-8e-05,0.00053,-0.00058,3
9882,10217,-0.00033,-0.00036,-5.9999999999999995e-05,-5e-05,-0.0001,-8e-05,0.00053,-0.00058,3
9883,10218,-0.00033,-0.00036,-5.9999999999999995e-05,-5e-05,-0.0001,-8e-05,0.00053,-0.00058,3
9884,10219,-0.00033,-0.00036,-5.9999999999999995e-05,-5e-05,-0.0001,-8e-05,0.00053,-0.00058,3
9885,10220,-0.00033,-0.00036,-5.9999999999999995e-05,-5e-05,-0.0001,-8e-05,0.00053,-0.00058,3
9886,10221,-0.00033,-0.00036,-5.9999999999999995e-05,-5e-05,-0.0001,-8e-05,0.00053,-0.00058,3
9887,10222,0.00061,-7e-05,-2.9999999999999997e-05,-0.0001,-0.00031,-7e-05,9e-05,-0.00041,3
9888,10223,-0.00016999999999999999,-4e-05,-5e-05,-5e-05,-0.00033,-0.00085,-0.00056,9e-05,3
9889,10224,-0.00016999999999999999,-4e-05,-5e-05,-5e-05,-0.00033,-0.00085,-0.00056,9e-05,3
9890,10225,-0.00016999999999999999,-4e-05,-5e-05,-5e-05,-0.00033,-0.00085,-0.00056,9e-05,3
9891,10226,-0.00016999999999999999,-4e-05,-5e-05,-5e-05,-0.00033,-0.00085,-0.00056,9e-05,3
9892,10227,-0.00016999999999999999,-4e-05,-5e-05,-5e-05,-0.00033,-0.00085,-0.00056,9e-05,3
9893,10228,-0.00016999999999999999,-4e-05,-5e-05,-5e-05,-0.00033,-0.00085,-0.00056,9e-05,3
9894,10229,-0.00016999999999999999,-4e-05,-5e-05,-5e-05,-0.00033,-0.00085,-0.00056,9e-05,3
9895,10230,-0.00016999999999999999,-4e-05,-5e-05,-5e-05,-0.00033,-0.00085,-0.00056,9e-05,3
9896,10231,-4e-05,-0.0005,-0.0001,-2.9999999999999997e-05,5e-05,7e-05,-0.00082,0.00032,3
9897,10232,-4e-05,-0.0005,-0.0001,-2.9999999999999997e-05,5e-05,7e-05,-0.00082,0.00032,3
9898,10233,-4e-05,-0.0005,-0.0001,-2.9999999999999997e-05,5e-05,7e-05,-0.00082,0.00032,3
9899,10234,-4e-05,-0.0005,-0.0001,-2.9999999999999997e-05,5e-05,7e-05,-0.00082,0.00032,3
9900,10235,-4e-05,-0.0005,-0.0001,-2.9999999999999997e-05,5e-05,7e-05,-0.00082,0.00032,3
9901,10236,-4e-05,-0.0005,-0.0001,-2.9999999999999997e-05,5e-05,7e-05,-0.00082,0.00032,3
9902,10238,-4e-05,-0.0005,-0.0001,-2.9999999999999997e-05,5e-05,7e-05,-0.00082,0.00032,3
9903,10240,-4e-05,-0.0005,-0.0001,-2.9999999999999997e-05,5e-05,7e-05,-0.00082,0.00032,3
9904,10241,-4e-05,-0.0005,-0.0001,-2.9999999999999997e-05,5e-05,7e-05,-0.00082,0.00032,3
9905,10242,-4e-05,-0.0005,-0.0001,-2.9999999999999997e-05,5e-05,7e-05,-0.00082,0.00032,3
9906,10243,-4e-05,-0.0005,-0.0001,-2.9999999999999997e-05,5e-05,7e-05,-0.00082,0.00032,3
9907,10244,-4e-05,-0.0005,-0.0001,-2.9999999999999997e-05,5e-05,7e-05,-0.00082,0.00032,3
9908,10245,-4e-05,-0.0005,-0.0001,-2.9999999999999997e-05,5e-05,7e-05,-0.00082,0.00032,3
9909,10246,-0.00037999999999999997,5e-05,0.0,2.9999999999999997e-05,0.00027,-0.00011,-0.00016,0.00021,3
9910,10247,-0.00037999999999999997,5e-05,0.0,2.9999999999999997e-05,0.00027,-0.00011,-0.00016,0.00021,3
9911,10248,-0.00045,0.00062,0.00013000000000000002,9e-05,0.00042,5e-05,-0.0009199999999999999,1e-05,3
9912,10249,-0.00045,0.00062,0.00013000000000000002,9e-05,0.00042,5e-05,-0.0009199999999999999,1e-05,3
9913,10250,-0.00045,0.00062,0.00013000000000000002,9e-05,0.00042,5e-05,-0.0009199999999999999,1e-05,3
9914,10251,-0.00045,0.00062,0.00013000000000000002,9e-05,0.00042,5e-05,-0.0009199999999999999,1e-05,3
9915,10252,-0.00045,0.00062,0.00013000000000000002,9e-05,0.00042,5e-05,-0.0009199999999999999,1e-05,3
9916,10253,-0.00045,0.00062,0.00013000000000000002,9e-05,0.00042,5e-05,-0.0009199999999999999,1e-05,3
9917,10254,-0.00045,0.00062,0.00013000000000000002,9e-05,0.00042,5e-05,-0.0009199999999999999,1e-05,3
9918,10255,-0.00045,0.00062,0.00013000000000000002,9e-05,0.00042,5e-05,-0.0009199999999999999,1e-05,3
9919,10256,-0.00045,0.00062,0.00013000000000000002,9e-05,0.00042,5e-05,-0.0009199999999999999,1e-05,3
9920,10257,-0.00045,0.00062,0.00013000000000000002,9e-05,0.00042,5e-05,-0.0009199999999999999,1e-05,3
9921,10258,-0.00045,0.00062,0.00013000000000000002,9e-05,0.00042,5e-05,-0.0009199999999999999,1e-05,3
9922,10259,-0.00045,0.00062,0.00013000000000000002,9e-05,0.00042,5e-05,-0.0009199999999999999,1e-05,3
9923,10260,-0.00045,0.00062,0.00013000000000000002,9e-05,0.00042,5e-05,-0.0009199999999999999,1e-05,3
9924,10261,-0.00045,0.00062,0.00013000000000000002,9e-05,0.00042,5e-05,-0.0009199999999999999,1e-05,3
9925,10262,-0.00045,0.00062,0.00013000000000000002,9e-05,0.00042,5e-05,-0.0009199999999999999,1e-05,3
9926,10263,-0.00045,0.00062,0.00013000000000000002,9e-05,0.00042,5e-05,-0.0009199999999999999,1e-05,3
9927,10264,-0.00045,0.00062,0.00013000000000000002,9e-05,0.00042,5e-05,-0.0009199999999999999,1e-05,3
9928,10265,-0.00045,0.00062,0.00013000000000000002,9e-05,0.00042,5e-05,-0.0009199999999999999,1e-05,3
9929,10266,-0.00045,0.00062,0.00013000000000000002,9e-05,0.00042,5e-05,-0.0009199999999999999,1e-05,3
9930,10267,-0.00045,0.00062,0.00013000000000000002,9e-05,0.00042,5e-05,-0.0009199999999999999,1e-05,3
9931,10268,-0.00045,0.00062,0.00013000000000000002,9e-05,0.00042,5e-05,-0.0009199999999999999,1e-05,3
9932,10269,0.0002,0.00015,0.0001,4e-05,0.00014,0.00022,0.00022999999999999998,-0.00021,3
9933,10270,0.0012699999999999999,0.0002,0.0,-1e-05,5.9999999999999995e-05,0.00027,0.00058,0.0005099999999999999,3
9934,10271,0.0012699999999999999,0.0002,0.0,-1e-05,5.9999999999999995e-05,0.00027,0.00058,0.0005099999999999999,3
9935,10272,0.0012699999999999999,0.0002,0.0,-1e-05,5.9999999999999995e-05,0.00027,0.00058,0.0005099999999999999,3
9936,10273,0.0012699999999999999,0.0002,0.0,-1e-05,5.9999999999999995e-05,0.00027,0.00058,0.0005099999999999999,3
9937,10274,0.0012699999999999999,0.0002,0.0,-1e-05,5.9999999999999995e-05,0.00027,0.00058,0.0005099999999999999,3
9938,10275,0.0012699999999999999,0.0002,0.0,-1e-05,5.9999999999999995e-05,0.00027,0.00058,0.0005099999999999999,3
9939,10276,0.0012699999999999999,0.0002,0.0,-1e-05,5.9999999999999995e-05,0.00027,0.00058,0.0005099999999999999,3
9940,10277,0.0012699999999999999,0.0002,0.0,-1e-05,5.9999999999999995e-05,0.00027,0.00058,0.0005099999999999999,3
9941,10278,0.0012699999999999999,0.0002,0.0,-1e-05,5.9999999999999995e-05,0.00027,0.00058,0.0005099999999999999,3
9942,10279,0.0012699999999999999,0.0002,0.0,-1e-05,5.9999999999999995e-05,0.00027,0.00058,0.0005099999999999999,3
9943,10280,0.0012699999999999999,0.0002,0.0,-1e-05,5.9999999999999995e-05,0.00027,0.00058,0.0005099999999999999,3
9944,10281,0.0012699999999999999,0.0002,0.0,-1e-05,5.9999999999999995e-05,0.00027,0.00058,0.0005099999999999999,3
9945,10282,-0.00025,4e-05,-1e-05,-5e-05,-0.00043,2e-05,-0.0007099999999999999,-0.00036,3
9946,10283,-0.00025,4e-05,-1e-05,-5e-05,-0.00043,2e-05,-0.0007099999999999999,-0.00036,3
9947,10284,-0.00025,4e-05,-1e-05,-5e-05,-0.00043,2e-05,-0.0007099999999999999,-0.00036,3
9948,10285,-0.00025,4e-05,-1e-05,-5e-05,-0.00043,2e-05,-0.0007099999999999999,-0.00036,3
9949,10286,-0.00025,4e-05,-1e-05,-5e-05,-0.00043,2e-05,-0.0007099999999999999,-0.00036,3
9950,10288,-0.00025,4e-05,-1e-05,-5e-05,-0.00043,2e-05,-0.0007099999999999999,-0.00036,3
9951,10289,-0.00025,4e-05,-1e-05,-5e-05,-0.00043,2e-05,-0.0007099999999999999,-0.00036,3
9952,10290,-0.00025,4e-05,-1e-05,-5e-05,-0.00043,2e-05,-0.0007099999999999999,-0.00036,3
9953,10291,-0.0008699999999999999,-0.00099,-0.0002,-0.00014,-0.00014,-2.9999999999999997e-05,0.0005200000000000001,-0.0001,3
9954,10293,-0.0008699999999999999,-0.00099,-0.0002,-0.00014,-0.00014,-2.9999999999999997e-05,0.0005200000000000001,-0.0001,3
9955,10294,-0.0008699999999999999,-0.00099,-0.0002,-0.00014,-0.00014,-2.9999999999999997e-05,0.0005200000000000001,-0.0001,3
9956,10295,-0.0008699999999999999,-0.00099,-0.0002,-0.00014,-0.00014,-2.9999999999999997e-05,0.0005200000000000001,-0.0001,3
9957,10296,-0.0008699999999999999,-0.00099,-0.0002,-0.00014,-0.00014,-2.9999999999999997e-05,0.0005200000000000001,-0.0001,3
9958,10297,-0.0008699999999999999,-0.00099,-0.0002,-0.00014,-0.00014,-2.9999999999999997e-05,0.0005200000000000001,-0.0001,3
9959,10298,-0.0008699999999999999,-0.00099,-0.0002,-0.00014,-0.00014,-2.9999999999999997e-05,0.0005200000000000001,-0.0001,3
9960,10299,-0.0008699999999999999,-0.00099,-0.0002,-0.00014,-0.00014,-2.9999999999999997e-05,0.0005200000000000001,-0.0001,3
9961,10300,-0.0008699999999999999,-0.00099,-0.0002,-0.00014,-0.00014,-2.9999999999999997e-05,0.0005200000000000001,-0.0001,3
9962,10301,-0.0008699999999999999,-0.00099,-0.0002,-0.00014,-0.00014,-2.9999999999999997e-05,0.0005200000000000001,-0.0001,3
9963,10302,-0.0008699999999999999,-0.00099,-0.0002,-0.00014,-0.00014,-2.9999999999999997e-05,0.0005200000000000001,-0.0001,3
9964,10303,-0.0008699999999999999,-0.00099,-0.0002,-0.00014,-0.00014,-2.9999999999999997e-05,0.0005200000000000001,-0.0001,3
9965,10304,-0.0008699999999999999,-0.00099,-0.0002,-0.00014,-0.00014,-2.9999999999999997e-05,0.0005200000000000001,-0.0001,3
9966,10305,-0.0008699999999999999,-0.00099,-0.0002,-0.00014,-0.00014,-2.9999999999999997e-05,0.0005200000000000001,-0.0001,3
9967,10306,-0.00047999999999999996,-0.00013000000000000002,-0.00011,-5.9999999999999995e-05,-0.00025,-9e-05,0.00067,-0.00031,3
9968,10307,-0.00047999999999999996,-0.00013000000000000002,-0.00011,-5.9999999999999995e-05,-0.00025,-9e-05,0.00067,-0.00031,3
9969,10308,-0.00018,-0.00036,-0.00011,-5e-05,-5.9999999999999995e-05,0.00045999999999999996,-0.00057,-0.0007700000000000001,3
9970,10309,-0.00018,-0.00036,-0.00011,-5e-05,-5.9999999999999995e-05,0.00045999999999999996,-0.00057,-0.0007700000000000001,3
9971,10310,-0.00018,-0.00036,-0.00011,-5e-05,-5.9999999999999995e-05,0.00045999999999999996,-0.00057,-0.0007700000000000001,3
9972,10311,-0.00018,-0.00036,-0.00011,-5e-05,-5.9999999999999995e-05,0.00045999999999999996,-0.00057,-0.0007700000000000001,3
9973,10312,-0.00018,-0.00036,-0.00011,-5e-05,-5.9999999999999995e-05,0.00045999999999999996,-0.00057,-0.0007700000000000001,3
9974,10313,-0.00018,-0.00036,-0.00011,-5e-05,-5.9999999999999995e-05,0.00045999999999999996,-0.00057,-0.0007700000000000001,3
9975,10314,-0.00018,-0.00036,-0.00011,-5e-05,-5.9999999999999995e-05,0.00045999999999999996,-0.00057,-0.0007700000000000001,3
9976,10315,-0.00018,-0.00036,-0.00011,-5e-05,-5.9999999999999995e-05,0.00045999999999999996,-0.00057,-0.0007700000000000001,3
9977,10316,-0.00018,-0.00036,-0.00011,-5e-05,-5.9999999999999995e-05,0.00045999999999999996,-0.00057,-0.0007700000000000001,3
9978,10317,-0.00018,-0.00036,-0.00011,-5e-05,-5.9999999999999995e-05,0.00045999999999999996,-0.00057,-0.0007700000000000001,3
9979,10318,-0.00018,-0.00036,-0.00011,-5e-05,-5.9999999999999995e-05,0.00045999999999999996,-0.00057,-0.0007700000000000001,3
9980,10319,-0.00018,-0.00036,-0.00011,-5e-05,-5.9999999999999995e-05,0.00045999999999999996,-0.00057,-0.0007700000000000001,3
9981,10320,-0.00018,-0.00036,-0.00011,-5e-05,-5.9999999999999995e-05,0.00045999999999999996,-0.00057,-0.0007700000000000001,3
9982,10321,-0.00018,-0.00036,-0.00011,-5e-05,-5.9999999999999995e-05,0.00045999999999999996,-0.00057,-0.0007700000000000001,3
9983,10322,-0.00018,-0.00036,-0.00011,-5e-05,-5.9999999999999995e-05,0.00045999999999999996,-0.00057,-0.0007700000000000001,3
9984,10323,-0.00018,-0.00036,-0.00011,-5e-05,-5.9999999999999995e-05,0.00045999999999999996,-0.00057,-0.0007700000000000001,3
9985,10324,-0.00018,-0.00036,-0.00011,-5e-05,-5.9999999999999995e-05,0.00045999999999999996,-0.00057,-0.0007700000000000001,3
9986,10325,-0.00018,-0.00036,-0.00011,-5e-05,-5.9999999999999995e-05,0.00045999999999999996,-0.00057,-0.0007700000000000001,3
9987,10326,-0.00018,-0.00036,-0.00011,-5e-05,-5.9999999999999995e-05,0.00045999999999999996,-0.00057,-0.0007700000000000001,3
9988,10327,-0.00018,-0.00036,-0.00011,-5e-05,-5.9999999999999995e-05,0.00045999999999999996,-0.00057,-0.0007700000000000001,3
9989,10328,-0.00018,-0.00036,-0.00011,-5e-05,-5.9999999999999995e-05,0.00045999999999999996,-0.00057,-0.0007700000000000001,3
9990,10329,-0.00093,-0.00057,-0.00016,-2e-05,-5e-05,0.0002,-0.00032,-0.00049,3
9991,10330,0.0010199999999999999,-0.00032,-0.00013000000000000002,-2.9999999999999997e-05,-2e-05,-0.0002,0.00091,-0.0003,3
9992,10331,0.0010199999999999999,-0.00032,-0.00013000000000000002,-2.9999999999999997e-05,-2e-05,-0.0002,0.00091,-0.0003,3
9993,10332,0.0010199999999999999,-0.00032,-0.00013000000000000002,-2.9999999999999997e-05,-2e-05,-0.0002,0.00091,-0.0003,3
9994,10333,0.0010199999999999999,-0.00032,-0.00013000000000000002,-2.9999999999999997e-05,-2e-05,-0.0002,0.00091,-0.0003,3
9995,10334,0.0010199999999999999,-0.00032,-0.00013000000000000002,-2.9999999999999997e-05,-2e-05,-0.0002,0.00091,-0.0003,3
9996,10335,0.0010199999999999999,-0.00032,-0.00013000000000000002,-2.9999999999999997e-05,-2e-05,-0.0002,0.00091,-0.0003,3
9997,10336,0.0010199999999999999,-0.00032,-0.00013000000000000002,-2.9999999999999997e-05,-2e-05,-0.0002,0.00091,-0.0003,3
9998,10338,0.0010199999999999999,-0.00032,-0.00013000000000000002,-2.9999999999999997e-05,-2e-05,-0.0002,0.00091,-0.0003,3
9999,10339,0.0010199999999999999,-0.00032,-0.00013000000000000002,-2.9999999999999997e-05,-2e-05,-0.0002,0.00091,-0.0003,3
10000,10340,0.0010199999999999999,-0.00032,-0.00013000000000000002,-2.9999999999999997e-05,-2e-05,-0.0002,0.00091,-0.0003,3
10001,10341,0.0010199999999999999,-0.00032,-0.00013000000000000002,-2.9999999999999997e-05,-2e-05,-0.0002,0.00091,-0.0003,3
10002,10342,0.0010199999999999999,-0.00032,-0.00013000000000000002,-2.9999999999999997e-05,-2e-05,-0.0002,0.00091,-0.0003,3
10003,10343,-5e-05,-0.00047999999999999996,-7e-05,2e-05,0.00082,0.00018,-0.00064,0.0008,3
10004,10344,-5e-05,-0.00047999999999999996,-7e-05,2e-05,0.00082,0.00018,-0.00064,0.0008,3
10005,10345,-5e-05,-0.00047999999999999996,-7e-05,2e-05,0.00082,0.00018,-0.00064,0.0008,3
10006,10346,-5e-05,-0.00047999999999999996,-7e-05,2e-05,0.00082,0.00018,-0.00064,0.0008,3
10007,10347,-5e-05,-0.00047999999999999996,-7e-05,2e-05,0.00082,0.00018,-0.00064,0.0008,3
10008,10348,-5e-05,-0.00047999999999999996,-7e-05,2e-05,0.00082,0.00018,-0.00064,0.0008,3
10009,10349,-5e-05,-0.00047999999999999996,-7e-05,2e-05,0.00082,0.00018,-0.00064,0.0008,3
10010,10350,-5e-05,-0.00047999999999999996,-7e-05,2e-05,0.00082,0.00018,-0.00064,0.0008,3
10011,10351,-0.00098,-0.00037999999999999997,-9e-05,-5.9999999999999995e-05,-0.00016999999999999999,4e-05,-0.00044,-0.00063,3
10012,10352,-0.00098,-0.00037999999999999997,-9e-05,-5.9999999999999995e-05,-0.00016999999999999999,4e-05,-0.00044,-0.00063,3
10013,10353,-0.00098,-0.00037999999999999997,-9e-05,-5.9999999999999995e-05,-0.00016999999999999999,4e-05,-0.00044,-0.00063,3
10014,10354,-0.00098,-0.00037999999999999997,-9e-05,-5.9999999999999995e-05,-0.00016999999999999999,4e-05,-0.00044,-0.00063,3
10015,10355,-0.00098,-0.00037999999999999997,-9e-05,-5.9999999999999995e-05,-0.00016999999999999999,4e-05,-0.00044,-0.00063,3
10016,10356,-0.00098,-0.00037999999999999997,-9e-05,-5.9999999999999995e-05,-0.00016999999999999999,4e-05,-0.00044,-0.00063,3
10017,10357,-0.00098,-0.00037999999999999997,-9e-05,-5.9999999999999995e-05,-0.00016999999999999999,4e-05,-0.00044,-0.00063,3
10018,10358,-0.00098,-0.00037999999999999997,-9e-05,-5.9999999999999995e-05,-0.00016999999999999999,4e-05,-0.00044,-0.00063,3
10019,10359,-0.00098,-0.00037999999999999997,-9e-05,-5.9999999999999995e-05,-0.00016999999999999999,4e-05,-0.00044,-0.00063,3
10020,10360,-0.00098,-0.00037999999999999997,-9e-05,-5.9999999999999995e-05,-0.00016999999999999999,4e-05,-0.00044,-0.00063,3
10021,10361,-0.00098,-0.00037999999999999997,-9e-05,-5.9999999999999995e-05,-0.00016999999999999999,4e-05,-0.00044,-0.00063,3
10022,10362,-0.00098,-0.00037999999999999997,-9e-05,-5.9999999999999995e-05,-0.00016999999999999999,4e-05,-0.00044,-0.00063,3
10023,10363,-0.00098,-0.00037999999999999997,-9e-05,-5.9999999999999995e-05,-0.00016999999999999999,4e-05,-0.00044,-0.00063,3
10024,10364,-0.00098,-0.00037999999999999997,-9e-05,-5.9999999999999995e-05,-0.00016999999999999999,4e-05,-0.00044,-0.00063,3
10025,10365,-0.00098,-0.00037999999999999997,-9e-05,-5.9999999999999995e-05,-0.00016999999999999999,4e-05,-0.00044,-0.00063,3
10026,10366,1e-05,5.9999999999999995e-05,0.0002,0.0001,0.0002,4e-05,-5.9999999999999995e-05,0.00095,3
10027,10367,1e-05,5.9999999999999995e-05,0.0002,0.0001,0.0002,4e-05,-5.9999999999999995e-05,0.00095,3
10028,10368,-0.00058,0.0006900000000000001,7e-05,0.0,-0.00018999999999999998,-0.00016,-0.00014,-0.00105,3
10029,10369,-0.00058,0.0006900000000000001,7e-05,0.0,-0.00018999999999999998,-0.00016,-0.00014,-0.00105,3
10030,10370,-0.00058,0.0006900000000000001,7e-05,0.0,-0.00018999999999999998,-0.00016,-0.00014,-0.00105,3
10031,10371,-0.00058,0.0006900000000000001,7e-05,0.0,-0.00018999999999999998,-0.00016,-0.00014,-0.00105,3
10032,10372,-0.00058,0.0006900000000000001,7e-05,0.0,-0.00018999999999999998,-0.00016,-0.00014,-0.00105,3
10033,10373,-0.00058,0.0006900000000000001,7e-05,0.0,-0.00018999999999999998,-0.00016,-0.00014,-0.00105,3
10034,10374,-0.00058,0.0006900000000000001,7e-05,0.0,-0.00018999999999999998,-0.00016,-0.00014,-0.00105,3
10035,10375,-0.00058,0.0006900000000000001,7e-05,0.0,-0.00018999999999999998,-0.00016,-0.00014,-0.00105,3
10036,10376,-0.00058,0.0006900000000000001,7e-05,0.0,-0.00018999999999999998,-0.00016,-0.00014,-0.00105,3
10037,10377,-0.00058,0.0006900000000000001,7e-05,0.0,-0.00018999999999999998,-0.00016,-0.00014,-0.00105,3
10038,10378,-0.00058,0.0006900000000000001,7e-05,0.0,-0.00018999999999999998,-0.00016,-0.00014,-0.00105,3
10039,10379,-0.00058,0.0006900000000000001,7e-05,0.0,-0.00018999999999999998,-0.00016,-0.00014,-0.00105,3
10040,10380,-0.00058,0.0006900000000000001,7e-05,0.0,-0.00018999999999999998,-0.00016,-0.00014,-0.00105,3
10041,10381,-0.00058,0.0006900000000000001,7e-05,0.0,-0.00018999999999999998,-0.00016,-0.00014,-0.00105,3
10042,10382,-0.00058,0.0006900000000000001,7e-05,0.0,-0.00018999999999999998,-0.00016,-0.00014,-0.00105,3
10043,10383,-0.00058,0.0006900000000000001,7e-05,0.0,-0.00018999999999999998,-0.00016,-0.00014,-0.00105,3
10044,10384,-0.00058,0.0006900000000000001,7e-05,0.0,-0.00018999999999999998,-0.00016,-0.00014,-0.00105,3
10045,10385,-0.00058,0.0006900000000000001,7e-05,0.0,-0.00018999999999999998,-0.00016,-0.00014,-0.00105,3
10046,10386,-0.00058,0.0006900000000000001,7e-05,0.0,-0.00018999999999999998,-0.00016,-0.00014,-0.00105,3
10047,10388,-0.00058,0.0006900000000000001,7e-05,0.0,-0.00018999999999999998,-0.00016,-0.00014,-0.00105,3
10048,10389,-0.0008,-0.00064,-0.00035,-0.00015,-7e-05,0.0001,-0.00015,0.00054,3
10049,10390,-0.0008,-0.00064,-0.00035,-0.00015,-7e-05,0.0001,-0.00015,0.00054,3
10050,10391,-0.0005099999999999999,-1e-05,0.0001,7e-05,0.00023999999999999998,-5.9999999999999995e-05,0.00078,-0.00047999999999999996,3
10051,10392,-0.0005099999999999999,-1e-05,0.0001,7e-05,0.00023999999999999998,-5.9999999999999995e-05,0.00078,-0.00047999999999999996,3
10052,10393,-0.0005099999999999999,-1e-05,0.0001,7e-05,0.00023999999999999998,-5.9999999999999995e-05,0.00078,-0.00047999999999999996,3
10053,10394,-0.0005099999999999999,-1e-05,0.0001,7e-05,0.00023999999999999998,-5.9999999999999995e-05,0.00078,-0.00047999999999999996,3
10054,10395,-0.0005099999999999999,-1e-05,0.0001,7e-05,0.00023999999999999998,-5.9999999999999995e-05,0.00078,-0.00047999999999999996,3
10055,10396,-0.0005099999999999999,-1e-05,0.0001,7e-05,0.00023999999999999998,-5.9999999999999995e-05,0.00078,-0.00047999999999999996,3
10056,10397,-0.0005099999999999999,-1e-05,0.0001,7e-05,0.00023999999999999998,-5.9999999999999995e-05,0.00078,-0.00047999999999999996,3
10057,10398,-0.0005099999999999999,-1e-05,0.0001,7e-05,0.00023999999999999998,-5.9999999999999995e-05,0.00078,-0.00047999999999999996,3
10058,10399,-0.0005099999999999999,-1e-05,0.0001,7e-05,0.00023999999999999998,-5.9999999999999995e-05,0.00078,-0.00047999999999999996,3
10059,10400,-0.0005099999999999999,-1e-05,0.0001,7e-05,0.00023999999999999998,-5.9999999999999995e-05,0.00078,-0.00047999999999999996,3
10060,10401,-0.0005099999999999999,-1e-05,0.0001,7e-05,0.00023999999999999998,-5.9999999999999995e-05,0.00078,-0.00047999999999999996,3
10061,10402,0.0002,1e-05,9e-05,8e-05,5e-05,-0.00031,0.0004,-0.0010199999999999999,3
10062,10403,0.0002,1e-05,9e-05,8e-05,5e-05,-0.00031,0.0004,-0.0010199999999999999,3
10063,10404,0.0002,1e-05,9e-05,8e-05,5e-05,-0.00031,0.0004,-0.0010199999999999999,3
10064,10405,0.0002,1e-05,9e-05,8e-05,5e-05,-0.00031,0.0004,-0.0010199999999999999,3
10065,10406,0.0002,1e-05,9e-05,8e-05,5e-05,-0.00031,0.0004,-0.0010199999999999999,3
10066,10407,0.0002,1e-05,9e-05,8e-05,5e-05,-0.00031,0.0004,-0.0010199999999999999,3
10067,10408,0.0002,1e-05,9e-05,8e-05,5e-05,-0.00031,0.0004,-0.0010199999999999999,3
10068,10409,0.0002,1e-05,9e-05,8e-05,5e-05,-0.00031,0.0004,-0.0010199999999999999,3
10069,10410,0.0002,1e-05,9e-05,8e-05,5e-05,-0.00031,0.0004,-0.0010199999999999999,3
10070,10411,0.00118,0.00053,5e-05,0.0001,0.00081,0.00054,0.00029,0.00057,3
10071,10412,0.00118,0.00053,5e-05,0.0001,0.00081,0.00054,0.00029,0.00057,3
10072,10413,0.00118,0.00053,5e-05,0.0001,0.00081,0.00054,0.00029,0.00057,3
10073,10414,0.00118,0.00053,5e-05,0.0001,0.00081,0.00054,0.00029,0.00057,3
10074,10415,0.00118,0.00053,5e-05,0.0001,0.00081,0.00054,0.00029,0.00057,3
10075,10416,0.00118,0.00053,5e-05,0.0001,0.00081,0.00054,0.00029,0.00057,3
10076,10417,0.00118,0.00053,5e-05,0.0001,0.00081,0.00054,0.00029,0.00057,3
10077,10418,0.00118,0.00053,5e-05,0.0001,0.00081,0.00054,0.00029,0.00057,3
10078,10419,0.00118,0.00053,5e-05,0.0001,0.00081,0.00054,0.00029,0.00057,3
10079,10420,0.00118,0.00053,5e-05,0.0001,0.00081,0.00054,0.00029,0.00057,3
10080,10421,0.00118,0.00053,5e-05,0.0001,0.00081,0.00054,0.00029,0.00057,3
10081,10422,0.00118,0.00053,5e-05,0.0001,0.00081,0.00054,0.00029,0.00057,3
10082,10423,0.00118,0.00053,5e-05,0.0001,0.00081,0.00054,0.00029,0.00057,3
10083,10424,0.00118,0.00053,5e-05,0.0001,0.00081,0.00054,0.00029,0.00057,3
10084,10425,0.00118,0.00053,5e-05,0.0001,0.00081,0.00054,0.00029,0.00057,3
10085,10426,-0.0002,0.00114,0.00025,8e-05,0.00042,-0.00011999999999999999,-0.00044,-0.00086,3
10086,10427,-0.0002,0.00114,0.00025,8e-05,0.00042,-0.00011999999999999999,-0.00044,-0.00086,3
10087,10428,-0.00049,-0.00056,-8e-05,-1e-05,-0.00053,0.0,-0.00011,0.00025,3
10088,10429,-0.00049,-0.00056,-8e-05,-1e-05,-0.00053,0.0,-0.00011,0.00025,3
10089,10430,-0.00049,-0.00056,-8e-05,-1e-05,-0.00053,0.0,-0.00011,0.00025,3
10090,10431,-0.00049,-0.00056,-8e-05,-1e-05,-0.00053,0.0,-0.00011,0.00025,3
10091,10432,-0.00049,-0.00056,-8e-05,-1e-05,-0.00053,0.0,-0.00011,0.00025,3
10092,10433,-0.00049,-0.00056,-8e-05,-1e-05,-0.00053,0.0,-0.00011,0.00025,3
10093,10434,-0.00049,-0.00056,-8e-05,-1e-05,-0.00053,0.0,-0.00011,0.00025,3
10094,10435,-0.00049,-0.00056,-8e-05,-1e-05,-0.00053,0.0,-0.00011,0.00025,3
10095,10436,-0.00049,-0.00056,-8e-05,-1e-05,-0.00053,0.0,-0.00011,0.00025,3
10096,10438,-0.00049,-0.00056,-8e-05,-1e-05,-0.00053,0.0,-0.00011,0.00025,3
10097,10439,-0.00049,-0.00056,-8e-05,-1e-05,-0.00053,0.0,-0.00011,0.00025,3
10098,10440,-0.00049,-0.00056,-8e-05,-1e-05,-0.00053,0.0,-0.00011,0.00025,3
10099,10441,-0.00049,-0.00056,-8e-05,-1e-05,-0.00053,0.0,-0.00011,0.00025,3
10100,10442,-0.00049,-0.00056,-8e-05,-1e-05,-0.00053,0.0,-0.00011,0.00025,3
10101,10443,-0.00049,-0.00056,-8e-05,-1e-05,-0.00053,0.0,-0.00011,0.00025,3
10102,10444,-0.00049,-0.00056,-8e-05,-1e-05,-0.00053,0.0,-0.00011,0.00025,3
10103,10445,-0.00049,-0.00056,-8e-05,-1e-05,-0.00053,0.0,-0.00011,0.00025,3
10104,10446,-0.00049,-0.00056,-8e-05,-1e-05,-0.00053,0.0,-0.00011,0.00025,3
10105,10447,-0.00049,-0.00056,-8e-05,-1e-05,-0.00053,0.0,-0.00011,0.00025,3
10106,10448,-0.00049,-0.00056,-8e-05,-1e-05,-0.00053,0.0,-0.00011,0.00025,3
10107,10449,0.0012699999999999999,0.00061,-1e-05,-7e-05,-0.00053,0.0002,0.00027,4e-05,3
10108,10450,0.00049,0.0008699999999999999,0.00014,7e-05,-0.00014,-4e-05,0.00022999999999999998,-7e-05,3
10109,10451,0.00049,0.0008699999999999999,0.00014,7e-05,-0.00014,-4e-05,0.00022999999999999998,-7e-05,3
10110,10452,0.00049,0.0008699999999999999,0.00014,7e-05,-0.00014,-4e-05,0.00022999999999999998,-7e-05,3
10111,10453,0.00049,0.0008699999999999999,0.00014,7e-05,-0.00014,-4e-05,0.00022999999999999998,-7e-05,3
10112,10454,0.00049,0.0008699999999999999,0.00014,7e-05,-0.00014,-4e-05,0.00022999999999999998,-7e-05,3
10113,10455,0.00049,0.0008699999999999999,0.00014,7e-05,-0.00014,-4e-05,0.00022999999999999998,-7e-05,3
10114,10456,0.00049,0.0008699999999999999,0.00014,7e-05,-0.00014,-4e-05,0.00022999999999999998,-7e-05,3
10115,10457,0.00049,0.0008699999999999999,0.00014,7e-05,-0.00014,-4e-05,0.00022999999999999998,-7e-05,3
10116,10458,0.00049,0.0008699999999999999,0.00014,7e-05,-0.00014,-4e-05,0.00022999999999999998,-7e-05,3
10117,10459,0.00049,0.0008699999999999999,0.00014,7e-05,-0.00014,-4e-05,0.00022999999999999998,-7e-05,3
10118,10460,0.00049,0.0008699999999999999,0.00014,7e-05,-0.00014,-4e-05,0.00022999999999999998,-7e-05,3
10119,10461,0.00049,0.0008699999999999999,0.00014,7e-05,-0.00014,-4e-05,0.00022999999999999998,-7e-05,3
10120,10462,0.00044,-0.00016999999999999999,-5e-05,-8e-05,-0.00025,-0.00031,7e-05,0.0004,3
10121,10463,0.00044,-0.00016999999999999999,-5e-05,-8e-05,-0.00025,-0.00031,7e-05,0.0004,3
10122,10464,0.00044,-0.00016999999999999999,-5e-05,-8e-05,-0.00025,-0.00031,7e-05,0.0004,3
10123,10465,0.00044,-0.00016999999999999999,-5e-05,-8e-05,-0.00025,-0.00031,7e-05,0.0004,3
10124,10466,0.00044,-0.00016999999999999999,-5e-05,-8e-05,-0.00025,-0.00031,7e-05,0.0004,3
10125,10467,0.00044,-0.00016999999999999999,-5e-05,-8e-05,-0.00025,-0.00031,7e-05,0.0004,3
10126,10468,0.00044,-0.00016999999999999999,-5e-05,-8e-05,-0.00025,-0.00031,7e-05,0.0004,3
10127,10469,0.00044,-0.00016999999999999999,-5e-05,-8e-05,-0.00025,-0.00031,7e-05,0.0004,3
10128,10470,0.00044,-0.00016999999999999999,-5e-05,-8e-05,-0.00025,-0.00031,7e-05,0.0004,3
10129,10471,-0.00016999999999999999,0.00018,0.0001,7e-05,0.00016,5e-05,-0.0011300000000000001,0.00084,3
10130,10472,-0.00016999999999999999,0.00018,0.0001,7e-05,0.00016,5e-05,-0.0011300000000000001,0.00084,3
10131,10473,-0.00016999999999999999,0.00018,0.0001,7e-05,0.00016,5e-05,-0.0011300000000000001,0.00084,3
10132,10474,-0.00016999999999999999,0.00018,0.0001,7e-05,0.00016,5e-05,-0.0011300000000000001,0.00084,3
10133,10475,-0.00016999999999999999,0.00018,0.0001,7e-05,0.00016,5e-05,-0.0011300000000000001,0.00084,3
10134,10476,-0.00016999999999999999,0.00018,0.0001,7e-05,0.00016,5e-05,-0.0011300000000000001,0.00084,3
10135,10477,-0.00016999999999999999,0.00018,0.0001,7e-05,0.00016,5e-05,-0.0011300000000000001,0.00084,3
10136,10478,-0.00016999999999999999,0.00018,0.0001,7e-05,0.00016,5e-05,-0.0011300000000000001,0.00084,3
10137,10479,-0.00016999999999999999,0.00018,0.0001,7e-05,0.00016,5e-05,-0.0011300000000000001,0.00084,3
10138,10480,-0.00016999999999999999,0.00018,0.0001,7e-05,0.00016,5e-05,-0.0011300000000000001,0.00084,3
10139,10481,-0.00016999999999999999,0.00018,0.0001,7e-05,0.00016,5e-05,-0.0011300000000000001,0.00084,3
10140,10482,-0.00016999999999999999,0.00018,0.0001,7e-05,0.00016,5e-05,-0.0011300000000000001,0.00084,3
10141,10483,-0.00016999999999999999,0.00018,0.0001,7e-05,0.00016,5e-05,-0.0011300000000000001,0.00084,3
10142,10484,-0.00016999999999999999,0.00018,0.0001,7e-05,0.00016,5e-05,-0.0011300000000000001,0.00084,3
10143,10485,-0.00016999999999999999,0.00018,0.0001,7e-05,0.00016,5e-05,-0.0011300000000000001,0.00084,3
10144,10486,0.00033999999999999997,-0.00032,2e-05,0.0,0.00015,0.00031,0.00021,0.00036,3
10145,10488,0.0007599999999999999,-0.00014,-9e-05,-5e-05,-1e-05,0.0005,0.00033999999999999997,0.00033999999999999997,3
10146,10489,0.0007599999999999999,-0.00014,-9e-05,-5e-05,-1e-05,0.0005,0.00033999999999999997,0.00033999999999999997,3
10147,10490,0.0007599999999999999,-0.00014,-9e-05,-5e-05,-1e-05,0.0005,0.00033999999999999997,0.00033999999999999997,3
10148,10491,0.0007599999999999999,-0.00014,-9e-05,-5e-05,-1e-05,0.0005,0.00033999999999999997,0.00033999999999999997,3
10149,10492,0.0007599999999999999,-0.00014,-9e-05,-5e-05,-1e-05,0.0005,0.00033999999999999997,0.00033999999999999997,3
10150,10493,0.0007599999999999999,-0.00014,-9e-05,-5e-05,-1e-05,0.0005,0.00033999999999999997,0.00033999999999999997,3
10151,10494,0.0007599999999999999,-0.00014,-9e-05,-5e-05,-1e-05,0.0005,0.00033999999999999997,0.00033999999999999997,3
10152,10495,0.0007599999999999999,-0.00014,-9e-05,-5e-05,-1e-05,0.0005,0.00033999999999999997,0.00033999999999999997,3
10153,10496,0.0007599999999999999,-0.00014,-9e-05,-5e-05,-1e-05,0.0005,0.00033999999999999997,0.00033999999999999997,3
10154,10497,0.0007599999999999999,-0.00014,-9e-05,-5e-05,-1e-05,0.0005,0.00033999999999999997,0.00033999999999999997,3
10155,10498,0.0007599999999999999,-0.00014,-9e-05,-5e-05,-1e-05,0.0005,0.00033999999999999997,0.00033999999999999997,3
10156,10499,0.0007599999999999999,-0.00014,-9e-05,-5e-05,-1e-05,0.0005,0.00033999999999999997,0.00033999999999999997,3
10157,10500,0.0007599999999999999,-0.00014,-9e-05,-5e-05,-1e-05,0.0005,0.00033999999999999997,0.00033999999999999997,3
10158,10501,0.0007599999999999999,-0.00014,-9e-05,-5e-05,-1e-05,0.0005,0.00033999999999999997,0.00033999999999999997,3
10159,10502,0.0007599999999999999,-0.00014,-9e-05,-5e-05,-1e-05,0.0005,0.00033999999999999997,0.00033999999999999997,3
10160,10503,0.0007599999999999999,-0.00014,-9e-05,-5e-05,-1e-05,0.0005,0.00033999999999999997,0.00033999999999999997,3
10161,10504,0.0007599999999999999,-0.00014,-9e-05,-5e-05,-1e-05,0.0005,0.00033999999999999997,0.00033999999999999997,3
10162,10505,0.0007599999999999999,-0.00014,-9e-05,-5e-05,-1e-05,0.0005,0.00033999999999999997,0.00033999999999999997,3
10163,10506,0.0007599999999999999,-0.00014,-9e-05,-5e-05,-1e-05,0.0005,0.00033999999999999997,0.00033999999999999997,3
10164,10507,0.0007599999999999999,-0.00014,-9e-05,-5e-05,-1e-05,0.0005,0.00033999999999999997,0.00033999999999999997,3
10165,10508,0.0007599999999999999,-0.00014,-9e-05,-5e-05,-1e-05,0.0005,0.00033999999999999997,0.00033999999999999997,3
10166,10509,-0.00093,-0.0007099999999999999,-0.00013000000000000002,-4e-05,0.00013000000000000002,-0.00022,0.00043,0.00011999999999999999,3
10167,10510,-9e-05,0.00028,2.9999999999999997e-05,-1e-05,-0.00028,-0.00031,0.00056,-0.00035,3
10168,10511,-9e-05,0.00028,2.9999999999999997e-05,-1e-05,-0.00028,-0.00031,0.00056,-0.00035,3
10169,10512,-9e-05,0.00028,2.9999999999999997e-05,-1e-05,-0.00028,-0.00031,0.00056,-0.00035,3
10170,10513,-9e-05,0.00028,2.9999999999999997e-05,-1e-05,-0.00028,-0.00031,0.00056,-0.00035,3
10171,10514,-9e-05,0.00028,2.9999999999999997e-05,-1e-05,-0.00028,-0.00031,0.00056,-0.00035,3
10172,10516,-9e-05,0.00028,2.9999999999999997e-05,-1e-05,-0.00028,-0.00031,0.00056,-0.00035,3
10173,10517,-9e-05,0.00028,2.9999999999999997e-05,-1e-05,-0.00028,-0.00031,0.00056,-0.00035,3
10174,10518,-9e-05,0.00028,2.9999999999999997e-05,-1e-05,-0.00028,-0.00031,0.00056,-0.00035,3
10175,10519,-9e-05,0.00028,2.9999999999999997e-05,-1e-05,-0.00028,-0.00031,0.00056,-0.00035,3
10176,10520,-9e-05,0.00028,2.9999999999999997e-05,-1e-05,-0.00028,-0.00031,0.00056,-0.00035,3
10177,10521,-9e-05,0.00028,2.9999999999999997e-05,-1e-05,-0.00028,-0.00031,0.00056,-0.00035,3
10178,10522,-9e-05,0.00028,2.9999999999999997e-05,-1e-05,-0.00028,-0.00031,0.00056,-0.00035,3
10179,10523,-9e-05,0.00028,2.9999999999999997e-05,-1e-05,-0.00028,-0.00031,0.00056,-0.00035,3
10180,10524,-9e-05,0.00028,2.9999999999999997e-05,-1e-05,-0.00028,-0.00031,0.00056,-0.00035,3
10181,10525,-9e-05,0.00028,2.9999999999999997e-05,-1e-05,-0.00028,-0.00031,0.00056,-0.00035,3
10182,10526,-9e-05,0.00028,2.9999999999999997e-05,-1e-05,-0.00028,-0.00031,0.00056,-0.00035,3
10183,10527,-9e-05,0.00028,2.9999999999999997e-05,-1e-05,-0.00028,-0.00031,0.00056,-0.00035,3
10184,10528,-9e-05,0.00028,2.9999999999999997e-05,-1e-05,-0.00028,-0.00031,0.00056,-0.00035,3
10185,10529,-9e-05,0.00028,2.9999999999999997e-05,-1e-05,-0.00028,-0.00031,0.00056,-0.00035,3
10186,10530,-9e-05,0.00028,2.9999999999999997e-05,-1e-05,-0.00028,-0.00031,0.00056,-0.00035,3
10187,10531,0.00058,-0.00033,-5e-05,-9e-05,-0.00033,0.00013000000000000002,2e-05,7e-05,3
10188,10532,0.00058,-0.00033,-5e-05,-9e-05,-0.00033,0.00013000000000000002,2e-05,7e-05,3
10189,10533,0.00033999999999999997,8e-05,7e-05,7e-05,0.00042,0.0003,0.00107,-0.0010199999999999999,3
10190,10534,0.00033999999999999997,8e-05,7e-05,7e-05,0.00042,0.0003,0.00107,-0.0010199999999999999,3
10191,10535,0.00033999999999999997,8e-05,7e-05,7e-05,0.00042,0.0003,0.00107,-0.0010199999999999999,3
10192,10536,0.00033999999999999997,8e-05,7e-05,7e-05,0.00042,0.0003,0.00107,-0.0010199999999999999,3
10193,10538,0.00033999999999999997,8e-05,7e-05,7e-05,0.00042,0.0003,0.00107,-0.0010199999999999999,3
10194,10539,0.00033999999999999997,8e-05,7e-05,7e-05,0.00042,0.0003,0.00107,-0.0010199999999999999,3
10195,10540,0.00033999999999999997,8e-05,7e-05,7e-05,0.00042,0.0003,0.00107,-0.0010199999999999999,3
10196,10541,0.00033999999999999997,8e-05,7e-05,7e-05,0.00042,0.0003,0.00107,-0.0010199999999999999,3
10197,10542,0.00033999999999999997,8e-05,7e-05,7e-05,0.00042,0.0003,0.00107,-0.0010199999999999999,3
10198,10543,0.00033999999999999997,8e-05,7e-05,7e-05,0.00042,0.0003,0.00107,-0.0010199999999999999,3
10199,10544,0.00033999999999999997,8e-05,7e-05,7e-05,0.00042,0.0003,0.00107,-0.0010199999999999999,3
10200,10545,0.00033999999999999997,8e-05,7e-05,7e-05,0.00042,0.0003,0.00107,-0.0010199999999999999,3
10201,10546,0.0009400000000000001,0.00043,0.0001,7e-05,0.00016,0.00015,-0.00029,-0.00058,3
10202,10547,0.0009400000000000001,0.00043,0.0001,7e-05,0.00016,0.00015,-0.00029,-0.00058,3
10203,10548,0.0006799999999999999,0.00016,-2.9999999999999997e-05,-7e-05,-4e-05,-0.00016999999999999999,-0.00035,-0.0006900000000000001,3
10204,10549,0.0006799999999999999,0.00016,-2.9999999999999997e-05,-7e-05,-4e-05,-0.00016999999999999999,-0.00035,-0.0006900000000000001,3
10205,10550,0.0006799999999999999,0.00016,-2.9999999999999997e-05,-7e-05,-4e-05,-0.00016999999999999999,-0.00035,-0.0006900000000000001,3
10206,10551,0.0006799999999999999,0.00016,-2.9999999999999997e-05,-7e-05,-4e-05,-0.00016999999999999999,-0.00035,-0.0006900000000000001,3
10207,10552,0.0006799999999999999,0.00016,-2.9999999999999997e-05,-7e-05,-4e-05,-0.00016999999999999999,-0.00035,-0.0006900000000000001,3
10208,10553,0.0006799999999999999,0.00016,-2.9999999999999997e-05,-7e-05,-4e-05,-0.00016999999999999999,-0.00035,-0.0006900000000000001,3
10209,10554,0.0006799999999999999,0.00016,-2.9999999999999997e-05,-7e-05,-4e-05,-0.00016999999999999999,-0.00035,-0.0006900000000000001,3
10210,10555,0.0006799999999999999,0.00016,-2.9999999999999997e-05,-7e-05,-4e-05,-0.00016999999999999999,-0.00035,-0.0006900000000000001,3
10211,10556,0.0006799999999999999,0.00016,-2.9999999999999997e-05,-7e-05,-4e-05,-0.00016999999999999999,-0.00035,-0.0006900000000000001,3
10212,10557,0.0006799999999999999,0.00016,-2.9999999999999997e-05,-7e-05,-4e-05,-0.00016999999999999999,-0.00035,-0.0006900000000000001,3
10213,10558,0.0006799999999999999,0.00016,-2.9999999999999997e-05,-7e-05,-4e-05,-0.00016999999999999999,-0.00035,-0.0006900000000000001,3
10214,10559,0.0006799999999999999,0.00016,-2.9999999999999997e-05,-7e-05,-4e-05,-0.00016999999999999999,-0.00035,-0.0006900000000000001,3
10215,10560,0.0006799999999999999,0.00016,-2.9999999999999997e-05,-7e-05,-4e-05,-0.00016999999999999999,-0.00035,-0.0006900000000000001,3
10216,10561,0.0006799999999999999,0.00016,-2.9999999999999997e-05,-7e-05,-4e-05,-0.00016999999999999999,-0.00035,-0.0006900000000000001,3
10217,10562,0.0006799999999999999,0.00016,-2.9999999999999997e-05,-7e-05,-4e-05,-0.00016999999999999999,-0.00035,-0.0006900000000000001,3
10218,10563,0.0006799999999999999,0.00016,-2.9999999999999997e-05,-7e-05,-4e-05,-0.00016999999999999999,-0.00035,-0.0006900000000000001,3
10219,10564,0.0006799999999999999,0.00016,-2.9999999999999997e-05,-7e-05,-4e-05,-0.00016999999999999999,-0.00035,-0.0006900000000000001,3
10220,10565,0.0006799999999999999,0.00016,-2.9999999999999997e-05,-7e-05,-4e-05,-0.00016999999999999999,-0.00035,-0.0006900000000000001,3
10221,10566,0.0006799999999999999,0.00016,-2.9999999999999997e-05,-7e-05,-4e-05,-0.00016999999999999999,-0.00035,-0.0006900000000000001,3
10222,10567,0.0006799999999999999,0.00016,-2.9999999999999997e-05,-7e-05,-4e-05,-0.00016999999999999999,-0.00035,-0.0006900000000000001,3
10223,10568,0.0006799999999999999,0.00016,-2.9999999999999997e-05,-7e-05,-4e-05,-0.00016999999999999999,-0.00035,-0.0006900000000000001,3
10224,10569,-0.00033,-0.00039,-0.00011999999999999999,-7e-05,-0.00042,0.00045,0.00022999999999999998,-0.00065,3
10225,10570,-0.00026000000000000003,-0.00016999999999999999,-2e-05,-2.9999999999999997e-05,0.0001,0.0001,0.00039,-0.00028,3
10226,10571,-0.00026000000000000003,-0.00016999999999999999,-2e-05,-2.9999999999999997e-05,0.0001,0.0001,0.00039,-0.00028,3
10227,10572,-0.00026000000000000003,-0.00016999999999999999,-2e-05,-2.9999999999999997e-05,0.0001,0.0001,0.00039,-0.00028,3
10228,10573,-0.00026000000000000003,-0.00016999999999999999,-2e-05,-2.9999999999999997e-05,0.0001,0.0001,0.00039,-0.00028,3
10229,10574,-0.00026000000000000003,-0.00016999999999999999,-2e-05,-2.9999999999999997e-05,0.0001,0.0001,0.00039,-0.00028,3
10230,10575,-0.00026000000000000003,-0.00016999999999999999,-2e-05,-2.9999999999999997e-05,0.0001,0.0001,0.00039,-0.00028,3
10231,10576,-0.00026000000000000003,-0.00016999999999999999,-2e-05,-2.9999999999999997e-05,0.0001,0.0001,0.00039,-0.00028,3
10232,10577,-0.00026000000000000003,-0.00016999999999999999,-2e-05,-2.9999999999999997e-05,0.0001,0.0001,0.00039,-0.00028,3
10233,10578,-0.00026000000000000003,-0.00016999999999999999,-2e-05,-2.9999999999999997e-05,0.0001,0.0001,0.00039,-0.00028,3
10234,10579,-0.00026000000000000003,-0.00016999999999999999,-2e-05,-2.9999999999999997e-05,0.0001,0.0001,0.00039,-0.00028,3
10235,10580,-0.00026000000000000003,-0.00016999999999999999,-2e-05,-2.9999999999999997e-05,0.0001,0.0001,0.00039,-0.00028,3
10236,10581,-0.00026000000000000003,-0.00016999999999999999,-2e-05,-2.9999999999999997e-05,0.0001,0.0001,0.00039,-0.00028,3
10237,10582,-0.00015,0.00058,0.00011,7e-05,4e-05,0.00054,0.00047999999999999996,1e-05,3
10238,10583,-0.00015,0.00058,0.00011,7e-05,4e-05,0.00054,0.00047999999999999996,1e-05,3
10239,10584,-0.00015,0.00058,0.00011,7e-05,4e-05,0.00054,0.00047999999999999996,1e-05,3
10240,10585,-0.00015,0.00058,0.00011,7e-05,4e-05,0.00054,0.00047999999999999996,1e-05,3
10241,10586,-0.00015,0.00058,0.00011,7e-05,4e-05,0.00054,0.00047999999999999996,1e-05,3
10242,10588,-0.00015,0.00058,0.00011,7e-05,4e-05,0.00054,0.00047999999999999996,1e-05,3
10243,10589,-0.00015,0.00058,0.00011,7e-05,4e-05,0.00054,0.00047999999999999996,1e-05,3
10244,10590,-0.00015,0.00058,0.00011,7e-05,4e-05,0.00054,0.00047999999999999996,1e-05,3
10245,10591,-0.00015,0.00058,0.00011,7e-05,4e-05,0.00054,0.00047999999999999996,1e-05,3
10246,10592,-0.00119,-0.00044,-0.00011999999999999999,-7e-05,-0.00018999999999999998,-0.0002,-0.00062,0.00053,3
10247,10593,-0.00119,-0.00044,-0.00011999999999999999,-7e-05,-0.00018999999999999998,-0.0002,-0.00062,0.00053,3
10248,10594,-0.00119,-0.00044,-0.00011999999999999999,-7e-05,-0.00018999999999999998,-0.0002,-0.00062,0.00053,3
10249,10595,-0.00119,-0.00044,-0.00011999999999999999,-7e-05,-0.00018999999999999998,-0.0002,-0.00062,0.00053,3
10250,10596,-0.00119,-0.00044,-0.00011999999999999999,-7e-05,-0.00018999999999999998,-0.0002,-0.00062,0.00053,3
10251,10597,-0.00119,-0.00044,-0.00011999999999999999,-7e-05,-0.00018999999999999998,-0.0002,-0.00062,0.00053,3
10252,10598,-0.00119,-0.00044,-0.00011999999999999999,-7e-05,-0.00018999999999999998,-0.0002,-0.00062,0.00053,3
10253,10599,-0.00119,-0.00044,-0.00011999999999999999,-7e-05,-0.00018999999999999998,-0.0002,-0.00062,0.00053,3
10254,10600,-0.00119,-0.00044,-0.00011999999999999999,-7e-05,-0.00018999999999999998,-0.0002,-0.00062,0.00053,3
10255,10601,-0.00119,-0.00044,-0.00011999999999999999,-7e-05,-0.00018999999999999998,-0.0002,-0.00062,0.00053,3
10256,10602,-0.00119,-0.00044,-0.00011999999999999999,-7e-05,-0.00018999999999999998,-0.0002,-0.00062,0.00053,3
10257,10603,-0.00119,-0.00044,-0.00011999999999999999,-7e-05,-0.00018999999999999998,-0.0002,-0.00062,0.00053,3
10258,10604,-0.00119,-0.00044,-0.00011999999999999999,-7e-05,-0.00018999999999999998,-0.0002,-0.00062,0.00053,3
10259,10605,-0.00119,-0.00044,-0.00011999999999999999,-7e-05,-0.00018999999999999998,-0.0002,-0.00062,0.00053,3
10260,10606,0.00037999999999999997,0.00031,8e-05,5e-05,5.9999999999999995e-05,2e-05,1e-05,0.00047999999999999996,3
10261,10607,0.00037999999999999997,0.00031,8e-05,5e-05,5.9999999999999995e-05,2e-05,1e-05,0.00047999999999999996,3
10262,10608,0.00037999999999999997,0.00031,8e-05,5e-05,5.9999999999999995e-05,2e-05,1e-05,0.00047999999999999996,3
10263,10609,0.0005099999999999999,0.00065,0.0,-7e-05,9e-05,-0.00031,-0.00047999999999999996,-0.00037,3
10264,10610,0.0005099999999999999,0.00065,0.0,-7e-05,9e-05,-0.00031,-0.00047999999999999996,-0.00037,3
10265,10611,0.0005099999999999999,0.00065,0.0,-7e-05,9e-05,-0.00031,-0.00047999999999999996,-0.00037,3
10266,10612,0.0005099999999999999,0.00065,0.0,-7e-05,9e-05,-0.00031,-0.00047999999999999996,-0.00037,3
10267,10613,0.0005099999999999999,0.00065,0.0,-7e-05,9e-05,-0.00031,-0.00047999999999999996,-0.00037,3
10268,10614,0.0005099999999999999,0.00065,0.0,-7e-05,9e-05,-0.00031,-0.00047999999999999996,-0.00037,3
10269,10615,0.0005099999999999999,0.00065,0.0,-7e-05,9e-05,-0.00031,-0.00047999999999999996,-0.00037,3
10270,10616,0.0005099999999999999,0.00065,0.0,-7e-05,9e-05,-0.00031,-0.00047999999999999996,-0.00037,3
10271,10617,0.0005099999999999999,0.00065,0.0,-7e-05,9e-05,-0.00031,-0.00047999999999999996,-0.00037,3
10272,10618,0.0005099999999999999,0.00065,0.0,-7e-05,9e-05,-0.00031,-0.00047999999999999996,-0.00037,3
10273,10619,0.0005099999999999999,0.00065,0.0,-7e-05,9e-05,-0.00031,-0.00047999999999999996,-0.00037,3
10274,10620,0.0005099999999999999,0.00065,0.0,-7e-05,9e-05,-0.00031,-0.00047999999999999996,-0.00037,3
10275,10621,0.0005099999999999999,0.00065,0.0,-7e-05,9e-05,-0.00031,-0.00047999999999999996,-0.00037,3
10276,10622,0.0005099999999999999,0.00065,0.0,-7e-05,9e-05,-0.00031,-0.00047999999999999996,-0.00037,3
10277,10623,0.0005099999999999999,0.00065,0.0,-7e-05,9e-05,-0.00031,-0.00047999999999999996,-0.00037,3
10278,10624,0.0005099999999999999,0.00065,0.0,-7e-05,9e-05,-0.00031,-0.00047999999999999996,-0.00037,3
10279,10625,0.0005099999999999999,0.00065,0.0,-7e-05,9e-05,-0.00031,-0.00047999999999999996,-0.00037,3
10280,10626,0.0005099999999999999,0.00065,0.0,-7e-05,9e-05,-0.00031,-0.00047999999999999996,-0.00037,3
10281,10627,0.0005099999999999999,0.00065,0.0,-7e-05,9e-05,-0.00031,-0.00047999999999999996,-0.00037,3
10282,10628,0.0005099999999999999,0.00065,0.0,-7e-05,9e-05,-0.00031,-0.00047999999999999996,-0.00037,3
10283,10629,-7e-05,-0.00018,-7e-05,-2e-05,0.0009199999999999999,-0.00023999999999999998,0.00022,-0.00054,3
10284,10630,-0.00039,9e-05,5e-05,1e-05,2e-05,-0.00011,0.00031,-0.00022999999999999998,3
10285,10631,-0.00039,9e-05,5e-05,1e-05,2e-05,-0.00011,0.00031,-0.00022999999999999998,3
10286,10632,-0.00039,9e-05,5e-05,1e-05,2e-05,-0.00011,0.00031,-0.00022999999999999998,3
10287,10633,-0.00039,9e-05,5e-05,1e-05,2e-05,-0.00011,0.00031,-0.00022999999999999998,3
10288,10634,-0.00039,9e-05,5e-05,1e-05,2e-05,-0.00011,0.00031,-0.00022999999999999998,3
10289,10635,-0.00039,9e-05,5e-05,1e-05,2e-05,-0.00011,0.00031,-0.00022999999999999998,3
10290,10636,-0.00039,9e-05,5e-05,1e-05,2e-05,-0.00011,0.00031,-0.00022999999999999998,3
10291,10638,-0.00039,9e-05,5e-05,1e-05,2e-05,-0.00011,0.00031,-0.00022999999999999998,3
10292,10639,-0.00039,9e-05,5e-05,1e-05,2e-05,-0.00011,0.00031,-0.00022999999999999998,3
10293,10640,-0.00039,9e-05,5e-05,1e-05,2e-05,-0.00011,0.00031,-0.00022999999999999998,3
10294,10641,-0.00039,9e-05,5e-05,1e-05,2e-05,-0.00011,0.00031,-0.00022999999999999998,3
10295,10642,5e-05,0.00029,2e-05,0.0,-0.00016,-0.00018999999999999998,0.00022,-0.00025,3
10296,10644,5e-05,0.00029,2e-05,0.0,-0.00016,-0.00018999999999999998,0.00022,-0.00025,3
10297,10645,5e-05,0.00029,2e-05,0.0,-0.00016,-0.00018999999999999998,0.00022,-0.00025,3
10298,10646,5e-05,0.00029,2e-05,0.0,-0.00016,-0.00018999999999999998,0.00022,-0.00025,3
10299,10647,5e-05,0.00029,2e-05,0.0,-0.00016,-0.00018999999999999998,0.00022,-0.00025,3
10300,10648,5e-05,0.00029,2e-05,0.0,-0.00016,-0.00018999999999999998,0.00022,-0.00025,3
10301,10649,5e-05,0.00029,2e-05,0.0,-0.00016,-0.00018999999999999998,0.00022,-0.00025,3
10302,10650,5e-05,0.00029,2e-05,0.0,-0.00016,-0.00018999999999999998,0.00022,-0.00025,3
10303,10651,-0.0007099999999999999,-0.00016999999999999999,2e-05,1e-05,8e-05,-2.9999999999999997e-05,-0.00018,0.00028,3
10304,10652,-0.0007099999999999999,-0.00016999999999999999,2e-05,1e-05,8e-05,-2.9999999999999997e-05,-0.00018,0.00028,3
10305,10653,-0.0007099999999999999,-0.00016999999999999999,2e-05,1e-05,8e-05,-2.9999999999999997e-05,-0.00018,0.00028,3
10306,10654,-0.0007099999999999999,-0.00016999999999999999,2e-05,1e-05,8e-05,-2.9999999999999997e-05,-0.00018,0.00028,3
10307,10655,-0.0007099999999999999,-0.00016999999999999999,2e-05,1e-05,8e-05,-2.9999999999999997e-05,-0.00018,0.00028,3
10308,10656,-0.0007099999999999999,-0.00016999999999999999,2e-05,1e-05,8e-05,-2.9999999999999997e-05,-0.00018,0.00028,3
10309,10657,-0.0007099999999999999,-0.00016999999999999999,2e-05,1e-05,8e-05,-2.9999999999999997e-05,-0.00018,0.00028,3
10310,10658,-0.0007099999999999999,-0.00016999999999999999,2e-05,1e-05,8e-05,-2.9999999999999997e-05,-0.00018,0.00028,3
10311,10659,-0.0007099999999999999,-0.00016999999999999999,2e-05,1e-05,8e-05,-2.9999999999999997e-05,-0.00018,0.00028,3
10312,10660,-0.0007099999999999999,-0.00016999999999999999,2e-05,1e-05,8e-05,-2.9999999999999997e-05,-0.00018,0.00028,3
10313,10661,-0.0007099999999999999,-0.00016999999999999999,2e-05,1e-05,8e-05,-2.9999999999999997e-05,-0.00018,0.00028,3
10314,10662,-0.0007099999999999999,-0.00016999999999999999,2e-05,1e-05,8e-05,-2.9999999999999997e-05,-0.00018,0.00028,3
10315,10663,-0.0007099999999999999,-0.00016999999999999999,2e-05,1e-05,8e-05,-2.9999999999999997e-05,-0.00018,0.00028,3
10316,10664,-0.0007099999999999999,-0.00016999999999999999,2e-05,1e-05,8e-05,-2.9999999999999997e-05,-0.00018,0.00028,3
10317,10665,-0.0001,-4e-05,-2.9999999999999997e-05,-1e-05,-9e-05,-0.0004,9e-05,0.00023999999999999998,3
10318,10666,-0.0001,-4e-05,-2.9999999999999997e-05,-1e-05,-9e-05,-0.0004,9e-05,0.00023999999999999998,3
10319,10667,-0.0001,-4e-05,-2.9999999999999997e-05,-1e-05,-9e-05,-0.0004,9e-05,0.00023999999999999998,3
10320,10668,-0.0001,-4e-05,-2.9999999999999997e-05,-1e-05,-9e-05,-0.0004,9e-05,0.00023999999999999998,3
10321,10669,-0.0001,-4e-05,-2.9999999999999997e-05,-1e-05,-9e-05,-0.0004,9e-05,0.00023999999999999998,3
10322,10670,-0.0001,-4e-05,-2.9999999999999997e-05,-1e-05,-9e-05,-0.0004,9e-05,0.00023999999999999998,3
10323,10671,-0.0001,-4e-05,-2.9999999999999997e-05,-1e-05,-9e-05,-0.0004,9e-05,0.00023999999999999998,3
10324,10672,1e-05,-0.0009400000000000001,-0.00018999999999999998,-8e-05,-0.0002,0.0,-0.00027,0.0008699999999999999,3
10325,10673,1e-05,-0.0009400000000000001,-0.00018999999999999998,-8e-05,-0.0002,0.0,-0.00027,0.0008699999999999999,3
10326,10674,1e-05,-0.0009400000000000001,-0.00018999999999999998,-8e-05,-0.0002,0.0,-0.00027,0.0008699999999999999,3
10327,10675,1e-05,-0.0009400000000000001,-0.00018999999999999998,-8e-05,-0.0002,0.0,-0.00027,0.0008699999999999999,3
10328,10676,1e-05,-0.0009400000000000001,-0.00018999999999999998,-8e-05,-0.0002,0.0,-0.00027,0.0008699999999999999,3
10329,10677,1e-05,-0.0009400000000000001,-0.00018999999999999998,-8e-05,-0.0002,0.0,-0.00027,0.0008699999999999999,3
10330,10678,1e-05,-0.0009400000000000001,-0.00018999999999999998,-8e-05,-0.0002,0.0,-0.00027,0.0008699999999999999,3
10331,10679,1e-05,-0.0009400000000000001,-0.00018999999999999998,-8e-05,-0.0002,0.0,-0.00027,0.0008699999999999999,3
10332,10680,1e-05,-0.0009400000000000001,-0.00018999999999999998,-8e-05,-0.0002,0.0,-0.00027,0.0008699999999999999,3
10333,10681,1e-05,-0.0009400000000000001,-0.00018999999999999998,-8e-05,-0.0002,0.0,-0.00027,0.0008699999999999999,3
10334,10682,1e-05,-0.0009400000000000001,-0.00018999999999999998,-8e-05,-0.0002,0.0,-0.00027,0.0008699999999999999,3
10335,10683,1e-05,-0.0009400000000000001,-0.00018999999999999998,-8e-05,-0.0002,0.0,-0.00027,0.0008699999999999999,3
10336,10684,1e-05,-0.0009400000000000001,-0.00018999999999999998,-8e-05,-0.0002,0.0,-0.00027,0.0008699999999999999,3
10337,10685,1e-05,-0.0009400000000000001,-0.00018999999999999998,-8e-05,-0.0002,0.0,-0.00027,0.0008699999999999999,3
10338,10686,1e-05,-0.0009400000000000001,-0.00018999999999999998,-8e-05,-0.0002,0.0,-0.00027,0.0008699999999999999,3
10339,10688,1e-05,-0.0009400000000000001,-0.00018999999999999998,-8e-05,-0.0002,0.0,-0.00027,0.0008699999999999999,3
10340,10689,-0.00126,0.00018,0.0,1e-05,-9e-05,-2.9999999999999997e-05,-0.00026000000000000003,-0.00078,3
10341,10690,0.00027,0.0003,0.0,-2.9999999999999997e-05,-0.00085,-0.0005099999999999999,0.0003,-0.00065,3
10342,10691,0.00027,0.0001,2.9999999999999997e-05,0.0001,0.0009199999999999999,0.00032,0.00047999999999999996,2e-05,3
10343,10692,0.00027,0.0001,2.9999999999999997e-05,0.0001,0.0009199999999999999,0.00032,0.00047999999999999996,2e-05,3
10344,10693,0.00027,0.0001,2.9999999999999997e-05,0.0001,0.0009199999999999999,0.00032,0.00047999999999999996,2e-05,3
10345,10694,0.00027,0.0001,2.9999999999999997e-05,0.0001,0.0009199999999999999,0.00032,0.00047999999999999996,2e-05,3
10346,10695,0.00027,0.0001,2.9999999999999997e-05,0.0001,0.0009199999999999999,0.00032,0.00047999999999999996,2e-05,3
10347,10696,0.00027,0.0001,2.9999999999999997e-05,0.0001,0.0009199999999999999,0.00032,0.00047999999999999996,2e-05,3
10348,10697,0.00027,0.0001,2.9999999999999997e-05,0.0001,0.0009199999999999999,0.00032,0.00047999999999999996,2e-05,3
10349,10698,0.00027,0.0001,2.9999999999999997e-05,0.0001,0.0009199999999999999,0.00032,0.00047999999999999996,2e-05,3
10350,10699,0.00027,0.0001,2.9999999999999997e-05,0.0001,0.0009199999999999999,0.00032,0.00047999999999999996,2e-05,3
10351,10700,0.00027,0.0001,2.9999999999999997e-05,0.0001,0.0009199999999999999,0.00032,0.00047999999999999996,2e-05,3
10352,10701,0.00027,0.0001,2.9999999999999997e-05,0.0001,0.0009199999999999999,0.00032,0.00047999999999999996,2e-05,3
10353,10702,0.00027,0.0001,2.9999999999999997e-05,0.0001,0.0009199999999999999,0.00032,0.00047999999999999996,2e-05,3
10354,10703,0.00027,0.0001,2.9999999999999997e-05,0.0001,0.0009199999999999999,0.00032,0.00047999999999999996,2e-05,3
10355,10704,0.00027,0.0001,2.9999999999999997e-05,0.0001,0.0009199999999999999,0.00032,0.00047999999999999996,2e-05,3
10356,10705,0.00027,0.0001,2.9999999999999997e-05,0.0001,0.0009199999999999999,0.00032,0.00047999999999999996,2e-05,3
10357,10706,0.00027,0.0001,2.9999999999999997e-05,0.0001,0.0009199999999999999,0.00032,0.00047999999999999996,2e-05,3
10358,10707,0.00027,0.0001,2.9999999999999997e-05,0.0001,0.0009199999999999999,0.00032,0.00047999999999999996,2e-05,3
10359,10708,0.00027,0.0001,2.9999999999999997e-05,0.0001,0.0009199999999999999,0.00032,0.00047999999999999996,2e-05,3
10360,10709,0.00027,0.0001,2.9999999999999997e-05,0.0001,0.0009199999999999999,0.00032,0.00047999999999999996,2e-05,3
10361,10710,0.00027,0.0001,2.9999999999999997e-05,0.0001,0.0009199999999999999,0.00032,0.00047999999999999996,2e-05,3
10362,10711,0.00082,7e-05,5.9999999999999995e-05,8e-05,0.0002,0.00022999999999999998,4e-05,0.00047999999999999996,3
10363,10712,0.00082,7e-05,5.9999999999999995e-05,8e-05,0.0002,0.00022999999999999998,4e-05,0.00047999999999999996,3
10364,10713,-0.00018,-2e-05,5e-05,2.9999999999999997e-05,-7e-05,-0.00021,-0.00035,0.00078,3
10365,10714,-0.00018,-2e-05,5e-05,2.9999999999999997e-05,-7e-05,-0.00021,-0.00035,0.00078,3
10366,10715,-0.00018,-2e-05,5e-05,2.9999999999999997e-05,-7e-05,-0.00021,-0.00035,0.00078,3
10367,10716,-0.00018,-2e-05,5e-05,2.9999999999999997e-05,-7e-05,-0.00021,-0.00035,0.00078,3
10368,10717,-0.00018,-2e-05,5e-05,2.9999999999999997e-05,-7e-05,-0.00021,-0.00035,0.00078,3
10369,10718,-0.00018,-2e-05,5e-05,2.9999999999999997e-05,-7e-05,-0.00021,-0.00035,0.00078,3
10370,10719,-0.00018,-2e-05,5e-05,2.9999999999999997e-05,-7e-05,-0.00021,-0.00035,0.00078,3
10371,10720,-0.00018,-2e-05,5e-05,2.9999999999999997e-05,-7e-05,-0.00021,-0.00035,0.00078,3
10372,10721,-0.00018,-2e-05,5e-05,2.9999999999999997e-05,-7e-05,-0.00021,-0.00035,0.00078,3
10373,10722,-0.00018,-2e-05,5e-05,2.9999999999999997e-05,-7e-05,-0.00021,-0.00035,0.00078,3
10374,10723,-0.00018,-2e-05,5e-05,2.9999999999999997e-05,-7e-05,-0.00021,-0.00035,0.00078,3
10375,10724,-0.00018,-2e-05,5e-05,2.9999999999999997e-05,-7e-05,-0.00021,-0.00035,0.00078,3
10376,10725,-0.00018,-2e-05,5e-05,2.9999999999999997e-05,-7e-05,-0.00021,-0.00035,0.00078,3
10377,10726,-0.0005099999999999999,-5.9999999999999995e-05,1e-05,2e-05,-8e-05,-9e-05,0.00055,-0.00025,3
10378,10727,-0.0005099999999999999,-5.9999999999999995e-05,1e-05,2e-05,-8e-05,-9e-05,0.00055,-0.00025,3
10379,10728,0.00029,0.00021,2e-05,-4e-05,-0.00022,-0.00026000000000000003,-0.00022999999999999998,-1e-05,3
10380,10729,0.00029,0.00021,2e-05,-4e-05,-0.00022,-0.00026000000000000003,-0.00022999999999999998,-1e-05,3
10381,10730,0.00029,0.00021,2e-05,-4e-05,-0.00022,-0.00026000000000000003,-0.00022999999999999998,-1e-05,3
10382,10731,0.00029,0.00021,2e-05,-4e-05,-0.00022,-0.00026000000000000003,-0.00022999999999999998,-1e-05,3
10383,10732,0.00029,0.00021,2e-05,-4e-05,-0.00022,-0.00026000000000000003,-0.00022999999999999998,-1e-05,3
10384,10733,0.00029,0.00021,2e-05,-4e-05,-0.00022,-0.00026000000000000003,-0.00022999999999999998,-1e-05,3
10385,10734,0.00029,0.00021,2e-05,-4e-05,-0.00022,-0.00026000000000000003,-0.00022999999999999998,-1e-05,3
10386,10735,0.00029,0.00021,2e-05,-4e-05,-0.00022,-0.00026000000000000003,-0.00022999999999999998,-1e-05,3
10387,10736,0.00029,0.00021,2e-05,-4e-05,-0.00022,-0.00026000000000000003,-0.00022999999999999998,-1e-05,3
10388,10738,0.00029,0.00021,2e-05,-4e-05,-0.00022,-0.00026000000000000003,-0.00022999999999999998,-1e-05,3
10389,10739,0.00029,0.00021,2e-05,-4e-05,-0.00022,-0.00026000000000000003,-0.00022999999999999998,-1e-05,3
10390,10740,0.00029,0.00021,2e-05,-4e-05,-0.00022,-0.00026000000000000003,-0.00022999999999999998,-1e-05,3
10391,10741,0.00029,0.00021,2e-05,-4e-05,-0.00022,-0.00026000000000000003,-0.00022999999999999998,-1e-05,3
10392,10742,0.00029,0.00021,2e-05,-4e-05,-0.00022,-0.00026000000000000003,-0.00022999999999999998,-1e-05,3
10393,10743,0.00029,0.00021,2e-05,-4e-05,-0.00022,-0.00026000000000000003,-0.00022999999999999998,-1e-05,3
10394,10744,0.00029,0.00021,2e-05,-4e-05,-0.00022,-0.00026000000000000003,-0.00022999999999999998,-1e-05,3
10395,10745,0.00029,0.00021,2e-05,-4e-05,-0.00022,-0.00026000000000000003,-0.00022999999999999998,-1e-05,3
10396,10746,0.00029,0.00021,2e-05,-4e-05,-0.00022,-0.00026000000000000003,-0.00022999999999999998,-1e-05,3
10397,10747,0.00029,0.00021,2e-05,-4e-05,-0.00022,-0.00026000000000000003,-0.00022999999999999998,-1e-05,3
10398,10748,0.00029,0.00021,2e-05,-4e-05,-0.00022,-0.00026000000000000003,-0.00022999999999999998,-1e-05,3
10399,10749,0.00091,-0.00014,4e-05,2e-05,-0.00045999999999999996,-0.0003,-0.00043,0.00055,3
10400,10750,0.00018999999999999998,7e-05,1e-05,2e-05,-7e-05,-0.00033999999999999997,-0.00053,-0.00029,3
10401,10751,0.00018999999999999998,7e-05,1e-05,2e-05,-7e-05,-0.00033999999999999997,-0.00053,-0.00029,3
10402,10752,0.00018999999999999998,7e-05,1e-05,2e-05,-7e-05,-0.00033999999999999997,-0.00053,-0.00029,3
10403,10753,0.00018999999999999998,7e-05,1e-05,2e-05,-7e-05,-0.00033999999999999997,-0.00053,-0.00029,3
10404,10754,0.00018999999999999998,7e-05,1e-05,2e-05,-7e-05,-0.00033999999999999997,-0.00053,-0.00029,3
10405,10755,0.00018999999999999998,7e-05,1e-05,2e-05,-7e-05,-0.00033999999999999997,-0.00053,-0.00029,3
10406,10756,0.00018999999999999998,7e-05,1e-05,2e-05,-7e-05,-0.00033999999999999997,-0.00053,-0.00029,3
10407,10757,0.00018999999999999998,7e-05,1e-05,2e-05,-7e-05,-0.00033999999999999997,-0.00053,-0.00029,3
10408,10758,0.00018999999999999998,7e-05,1e-05,2e-05,-7e-05,-0.00033999999999999997,-0.00053,-0.00029,3
10409,10759,0.00018999999999999998,7e-05,1e-05,2e-05,-7e-05,-0.00033999999999999997,-0.00053,-0.00029,3
10410,10760,0.00018999999999999998,7e-05,1e-05,2e-05,-7e-05,-0.00033999999999999997,-0.00053,-0.00029,3
10411,10761,0.00018999999999999998,7e-05,1e-05,2e-05,-7e-05,-0.00033999999999999997,-0.00053,-0.00029,3
10412,10762,0.00018999999999999998,7e-05,1e-05,2e-05,-7e-05,-0.00033999999999999997,-0.00053,-0.00029,3
10413,10763,0.00018999999999999998,7e-05,1e-05,2e-05,-7e-05,-0.00033999999999999997,-0.00053,-0.00029,3
10414,10764,0.00018999999999999998,7e-05,1e-05,2e-05,-7e-05,-0.00033999999999999997,-0.00053,-0.00029,3
10415,10765,0.00018999999999999998,7e-05,1e-05,2e-05,-7e-05,-0.00033999999999999997,-0.00053,-0.00029,3
10416,10766,0.00018999999999999998,7e-05,1e-05,2e-05,-7e-05,-0.00033999999999999997,-0.00053,-0.00029,3
10417,10767,0.00018999999999999998,7e-05,1e-05,2e-05,-7e-05,-0.00033999999999999997,-0.00053,-0.00029,3
10418,10768,0.00018999999999999998,7e-05,1e-05,2e-05,-7e-05,-0.00033999999999999997,-0.00053,-0.00029,3
10419,10769,0.00018999999999999998,7e-05,1e-05,2e-05,-7e-05,-0.00033999999999999997,-0.00053,-0.00029,3
10420,10770,0.00018999999999999998,7e-05,1e-05,2e-05,-7e-05,-0.00033999999999999997,-0.00053,-0.00029,3
10421,10771,0.00011999999999999999,9e-05,0.0,1e-05,0.0001,0.00023999999999999998,-0.0005099999999999999,0.00011999999999999999,3
10422,10772,0.00011999999999999999,9e-05,0.0,1e-05,0.0001,0.00023999999999999998,-0.0005099999999999999,0.00011999999999999999,3
10423,10773,0.0005200000000000001,2.9999999999999997e-05,-0.0001,-5.9999999999999995e-05,0.0,-9e-05,-0.00055,-0.0007599999999999999,3
10424,10774,0.0005200000000000001,2.9999999999999997e-05,-0.0001,-5.9999999999999995e-05,0.0,-9e-05,-0.00055,-0.0007599999999999999,3
10425,10775,0.0005200000000000001,2.9999999999999997e-05,-0.0001,-5.9999999999999995e-05,0.0,-9e-05,-0.00055,-0.0007599999999999999,3
10426,10776,0.0005200000000000001,2.9999999999999997e-05,-0.0001,-5.9999999999999995e-05,0.0,-9e-05,-0.00055,-0.0007599999999999999,3
10427,10777,0.0005200000000000001,2.9999999999999997e-05,-0.0001,-5.9999999999999995e-05,0.0,-9e-05,-0.00055,-0.0007599999999999999,3
10428,10778,0.0005200000000000001,2.9999999999999997e-05,-0.0001,-5.9999999999999995e-05,0.0,-9e-05,-0.00055,-0.0007599999999999999,3
10429,10779,0.0005200000000000001,2.9999999999999997e-05,-0.0001,-5.9999999999999995e-05,0.0,-9e-05,-0.00055,-0.0007599999999999999,3
10430,10780,0.0005200000000000001,2.9999999999999997e-05,-0.0001,-5.9999999999999995e-05,0.0,-9e-05,-0.00055,-0.0007599999999999999,3
10431,10781,0.0005200000000000001,2.9999999999999997e-05,-0.0001,-5.9999999999999995e-05,0.0,-9e-05,-0.00055,-0.0007599999999999999,3
10432,10782,0.0005200000000000001,2.9999999999999997e-05,-0.0001,-5.9999999999999995e-05,0.0,-9e-05,-0.00055,-0.0007599999999999999,3
10433,10783,0.0005200000000000001,2.9999999999999997e-05,-0.0001,-5.9999999999999995e-05,0.0,-9e-05,-0.00055,-0.0007599999999999999,3
10434,10784,0.0005200000000000001,2.9999999999999997e-05,-0.0001,-5.9999999999999995e-05,0.0,-9e-05,-0.00055,-0.0007599999999999999,3
10435,10785,0.0005200000000000001,2.9999999999999997e-05,-0.0001,-5.9999999999999995e-05,0.0,-9e-05,-0.00055,-0.0007599999999999999,3
10436,10786,-2e-05,-0.0001,-0.00016999999999999999,-0.00015,-0.00037,-0.00027,-0.00047000000000000004,-0.00015,3
10437,10789,0.00023999999999999998,-0.00013000000000000002,-7e-05,-0.0001,-0.00031,0.0001,-0.00045999999999999996,-0.0007700000000000001,3
10438,10790,0.00023999999999999998,-0.00013000000000000002,-7e-05,-0.0001,-0.00031,0.0001,-0.00045999999999999996,-0.0007700000000000001,3
10439,10791,0.00023999999999999998,-0.00013000000000000002,-7e-05,-0.0001,-0.00031,0.0001,-0.00045999999999999996,-0.0007700000000000001,3
10440,10792,0.00023999999999999998,-0.00013000000000000002,-7e-05,-0.0001,-0.00031,0.0001,-0.00045999999999999996,-0.0007700000000000001,3
10441,10793,0.00023999999999999998,-0.00013000000000000002,-7e-05,-0.0001,-0.00031,0.0001,-0.00045999999999999996,-0.0007700000000000001,3
10442,10794,0.00023999999999999998,-0.00013000000000000002,-7e-05,-0.0001,-0.00031,0.0001,-0.00045999999999999996,-0.0007700000000000001,3
10443,10795,0.00023999999999999998,-0.00013000000000000002,-7e-05,-0.0001,-0.00031,0.0001,-0.00045999999999999996,-0.0007700000000000001,3
10444,10796,0.00023999999999999998,-0.00013000000000000002,-7e-05,-0.0001,-0.00031,0.0001,-0.00045999999999999996,-0.0007700000000000001,3
10445,10797,0.00023999999999999998,-0.00013000000000000002,-7e-05,-0.0001,-0.00031,0.0001,-0.00045999999999999996,-0.0007700000000000001,3
10446,10798,0.00023999999999999998,-0.00013000000000000002,-7e-05,-0.0001,-0.00031,0.0001,-0.00045999999999999996,-0.0007700000000000001,3
10447,10799,0.00023999999999999998,-0.00013000000000000002,-7e-05,-0.0001,-0.00031,0.0001,-0.00045999999999999996,-0.0007700000000000001,3
10448,10800,0.00023999999999999998,-0.00013000000000000002,-7e-05,-0.0001,-0.00031,0.0001,-0.00045999999999999996,-0.0007700000000000001,3
10449,10801,0.00023999999999999998,-0.00013000000000000002,-7e-05,-0.0001,-0.00031,0.0001,-0.00045999999999999996,-0.0007700000000000001,3
10450,10802,0.00023999999999999998,-0.00013000000000000002,-7e-05,-0.0001,-0.00031,0.0001,-0.00045999999999999996,-0.0007700000000000001,3
10451,10803,0.00023999999999999998,-0.00013000000000000002,-7e-05,-0.0001,-0.00031,0.0001,-0.00045999999999999996,-0.0007700000000000001,3
10452,10804,0.00023999999999999998,-0.00013000000000000002,-7e-05,-0.0001,-0.00031,0.0001,-0.00045999999999999996,-0.0007700000000000001,3
10453,10805,0.00023999999999999998,-0.00013000000000000002,-7e-05,-0.0001,-0.00031,0.0001,-0.00045999999999999996,-0.0007700000000000001,3
10454,10806,0.00023999999999999998,-0.00013000000000000002,-7e-05,-0.0001,-0.00031,0.0001,-0.00045999999999999996,-0.0007700000000000001,3
10455,10807,0.00023999999999999998,-0.00013000000000000002,-7e-05,-0.0001,-0.00031,0.0001,-0.00045999999999999996,-0.0007700000000000001,3
10456,10808,0.00023999999999999998,-0.00013000000000000002,-7e-05,-0.0001,-0.00031,0.0001,-0.00045999999999999996,-0.0007700000000000001,3
10457,10809,0.00023999999999999998,-0.00013000000000000002,-7e-05,-0.0001,-0.00031,0.0001,-0.00045999999999999996,-0.0007700000000000001,3
10458,10810,5.9999999999999995e-05,0.0003,2e-05,-2.9999999999999997e-05,-4e-05,0.00018,0.00036,4e-05,3
10459,10811,-0.00032,-2e-05,-1e-05,-2e-05,-0.00011,-0.00033999999999999997,-0.00033999999999999997,5e-05,3
10460,10812,-0.00032,-2e-05,-1e-05,-2e-05,-0.00011,-0.00033999999999999997,-0.00033999999999999997,5e-05,3
10461,10813,-0.00032,-2e-05,-1e-05,-2e-05,-0.00011,-0.00033999999999999997,-0.00033999999999999997,5e-05,3
10462,10814,-0.00032,-2e-05,-1e-05,-2e-05,-0.00011,-0.00033999999999999997,-0.00033999999999999997,5e-05,3
10463,10815,-0.00032,-2e-05,-1e-05,-2e-05,-0.00011,-0.00033999999999999997,-0.00033999999999999997,5e-05,3
10464,10816,-0.00032,-2e-05,-1e-05,-2e-05,-0.00011,-0.00033999999999999997,-0.00033999999999999997,5e-05,3
10465,10817,-0.00032,-2e-05,-1e-05,-2e-05,-0.00011,-0.00033999999999999997,-0.00033999999999999997,5e-05,3
10466,10818,-0.00032,-2e-05,-1e-05,-2e-05,-0.00011,-0.00033999999999999997,-0.00033999999999999997,5e-05,3
10467,10819,-0.00032,-2e-05,-1e-05,-2e-05,-0.00011,-0.00033999999999999997,-0.00033999999999999997,5e-05,3
10468,10820,-0.00032,-2e-05,-1e-05,-2e-05,-0.00011,-0.00033999999999999997,-0.00033999999999999997,5e-05,3
10469,10821,-0.00032,-2e-05,-1e-05,-2e-05,-0.00011,-0.00033999999999999997,-0.00033999999999999997,5e-05,3
10470,10822,-0.00032,-2e-05,-1e-05,-2e-05,-0.00011,-0.00033999999999999997,-0.00033999999999999997,5e-05,3
10471,10823,-0.00032,-2e-05,-1e-05,-2e-05,-0.00011,-0.00033999999999999997,-0.00033999999999999997,5e-05,3
10472,10824,-0.00032,-2e-05,-1e-05,-2e-05,-0.00011,-0.00033999999999999997,-0.00033999999999999997,5e-05,3
10473,10825,-0.00032,-2e-05,-1e-05,-2e-05,-0.00011,-0.00033999999999999997,-0.00033999999999999997,5e-05,3
10474,10826,-0.00032,-2e-05,-1e-05,-2e-05,-0.00011,-0.00033999999999999997,-0.00033999999999999997,5e-05,3
10475,10827,-0.00032,-2e-05,-1e-05,-2e-05,-0.00011,-0.00033999999999999997,-0.00033999999999999997,5e-05,3
10476,10828,-0.00032,-2e-05,-1e-05,-2e-05,-0.00011,-0.00033999999999999997,-0.00033999999999999997,5e-05,3
10477,10829,-0.00032,-2e-05,-1e-05,-2e-05,-0.00011,-0.00033999999999999997,-0.00033999999999999997,5e-05,3
10478,10830,-0.00032,-2e-05,-1e-05,-2e-05,-0.00011,-0.00033999999999999997,-0.00033999999999999997,5e-05,3
10479,10831,0.00081,0.00063,2.9999999999999997e-05,-0.0001,-8e-05,-0.00037,-0.00074,-0.0002,3
10480,10832,0.00081,0.00063,2.9999999999999997e-05,-0.0001,-8e-05,-0.00037,-0.00074,-0.0002,3
10481,10833,-8e-05,-0.00011999999999999999,7e-05,9e-05,0.00027,0.00029,0.00014,0.00117,3
10482,10834,-8e-05,-0.00011999999999999999,7e-05,9e-05,0.00027,0.00029,0.00014,0.00117,3
10483,10835,-8e-05,-0.00011999999999999999,7e-05,9e-05,0.00027,0.00029,0.00014,0.00117,3
10484,10836,-8e-05,-0.00011999999999999999,7e-05,9e-05,0.00027,0.00029,0.00014,0.00117,3
10485,10838,-8e-05,-0.00011999999999999999,7e-05,9e-05,0.00027,0.00029,0.00014,0.00117,3
10486,10839,-8e-05,-0.00011999999999999999,7e-05,9e-05,0.00027,0.00029,0.00014,0.00117,3
10487,10840,-8e-05,-0.00011999999999999999,7e-05,9e-05,0.00027,0.00029,0.00014,0.00117,3
10488,10841,-8e-05,-0.00011999999999999999,7e-05,9e-05,0.00027,0.00029,0.00014,0.00117,3
10489,10842,-8e-05,-0.00011999999999999999,7e-05,9e-05,0.00027,0.00029,0.00014,0.00117,3
10490,10843,-8e-05,-0.00011999999999999999,7e-05,9e-05,0.00027,0.00029,0.00014,0.00117,3
10491,10844,-8e-05,-0.00011999999999999999,7e-05,9e-05,0.00027,0.00029,0.00014,0.00117,3
10492,10845,-0.00021,0.0001,2e-05,-5e-05,0.0002,0.0001,-0.00033,-0.00033999999999999997,3
10493,10846,-0.00033999999999999997,-0.0005099999999999999,-7e-05,-2.9999999999999997e-05,-0.00015,0.00013000000000000002,2.9999999999999997e-05,-7e-05,3
10494,10847,-0.00033999999999999997,-0.0005099999999999999,-7e-05,-2.9999999999999997e-05,-0.00015,0.00013000000000000002,2.9999999999999997e-05,-7e-05,3
10495,10848,-0.00033999999999999997,-0.0005099999999999999,-7e-05,-2.9999999999999997e-05,-0.00015,0.00013000000000000002,2.9999999999999997e-05,-7e-05,3
10496,10849,-0.00033999999999999997,-0.0005099999999999999,-7e-05,-2.9999999999999997e-05,-0.00015,0.00013000000000000002,2.9999999999999997e-05,-7e-05,3
10497,10850,-0.00033999999999999997,-0.0005099999999999999,-7e-05,-2.9999999999999997e-05,-0.00015,0.00013000000000000002,2.9999999999999997e-05,-7e-05,3
10498,10851,-0.00033999999999999997,-0.0005099999999999999,-7e-05,-2.9999999999999997e-05,-0.00015,0.00013000000000000002,2.9999999999999997e-05,-7e-05,3
10499,10852,7e-05,0.0005,5.9999999999999995e-05,2e-05,5.9999999999999995e-05,5e-05,-1e-05,0.0005200000000000001,3
10500,10853,7e-05,0.0005,5.9999999999999995e-05,2e-05,5.9999999999999995e-05,5e-05,-1e-05,0.0005200000000000001,3
10501,10854,7e-05,0.0005,5.9999999999999995e-05,2e-05,5.9999999999999995e-05,5e-05,-1e-05,0.0005200000000000001,3
10502,10855,7e-05,0.0005,5.9999999999999995e-05,2e-05,5.9999999999999995e-05,5e-05,-1e-05,0.0005200000000000001,3
10503,10856,7e-05,0.0005,5.9999999999999995e-05,2e-05,5.9999999999999995e-05,5e-05,-1e-05,0.0005200000000000001,3
10504,10857,7e-05,0.0005,5.9999999999999995e-05,2e-05,5.9999999999999995e-05,5e-05,-1e-05,0.0005200000000000001,3
10505,10858,7e-05,0.0005,5.9999999999999995e-05,2e-05,5.9999999999999995e-05,5e-05,-1e-05,0.0005200000000000001,3
10506,10859,7e-05,0.0005,5.9999999999999995e-05,2e-05,5.9999999999999995e-05,5e-05,-1e-05,0.0005200000000000001,3
10507,10860,7e-05,0.0005,5.9999999999999995e-05,2e-05,5.9999999999999995e-05,5e-05,-1e-05,0.0005200000000000001,3
10508,10861,7e-05,0.0005,5.9999999999999995e-05,2e-05,5.9999999999999995e-05,5e-05,-1e-05,0.0005200000000000001,3
10509,10862,7e-05,0.0005,5.9999999999999995e-05,2e-05,5.9999999999999995e-05,5e-05,-1e-05,0.0005200000000000001,3
10510,10863,7e-05,0.0005,5.9999999999999995e-05,2e-05,5.9999999999999995e-05,5e-05,-1e-05,0.0005200000000000001,3
10511,10864,7e-05,0.0005,5.9999999999999995e-05,2e-05,5.9999999999999995e-05,5e-05,-1e-05,0.0005200000000000001,3
10512,10865,7e-05,0.0005,5.9999999999999995e-05,2e-05,5.9999999999999995e-05,5e-05,-1e-05,0.0005200000000000001,3
10513,10866,7e-05,0.0005,5.9999999999999995e-05,2e-05,5.9999999999999995e-05,5e-05,-1e-05,0.0005200000000000001,3
10514,10867,7e-05,0.0005,5.9999999999999995e-05,2e-05,5.9999999999999995e-05,5e-05,-1e-05,0.0005200000000000001,3
10515,10868,7e-05,0.0005,5.9999999999999995e-05,2e-05,5.9999999999999995e-05,5e-05,-1e-05,0.0005200000000000001,3
10516,10869,-0.0005099999999999999,-0.00047999999999999996,-5.9999999999999995e-05,-2e-05,9e-05,-0.00018999999999999998,0.00047000000000000004,-9e-05,3
10517,10870,-0.00037999999999999997,-0.00016,-4e-05,2.9999999999999997e-05,0.00093,0.00026000000000000003,-0.00067,-0.0003,3
10518,10872,-0.00037999999999999997,-0.00016,-4e-05,2.9999999999999997e-05,0.00093,0.00026000000000000003,-0.00067,-0.0003,3
10519,10873,-0.00037999999999999997,-0.00016,-4e-05,2.9999999999999997e-05,0.00093,0.00026000000000000003,-0.00067,-0.0003,3
10520,10874,-0.00037999999999999997,-0.00016,-4e-05,2.9999999999999997e-05,0.00093,0.00026000000000000003,-0.00067,-0.0003,3
10521,10875,-0.00037999999999999997,-0.00016,-4e-05,2.9999999999999997e-05,0.00093,0.00026000000000000003,-0.00067,-0.0003,3
10522,10876,-0.00037999999999999997,-0.00016,-4e-05,2.9999999999999997e-05,0.00093,0.00026000000000000003,-0.00067,-0.0003,3
10523,10877,-0.00037999999999999997,-0.00016,-4e-05,2.9999999999999997e-05,0.00093,0.00026000000000000003,-0.00067,-0.0003,3
10524,10878,-0.00037999999999999997,-0.00016,-4e-05,2.9999999999999997e-05,0.00093,0.00026000000000000003,-0.00067,-0.0003,3
10525,10879,-0.00037999999999999997,-0.00016,-4e-05,2.9999999999999997e-05,0.00093,0.00026000000000000003,-0.00067,-0.0003,3
10526,10880,-0.00037999999999999997,-0.00016,-4e-05,2.9999999999999997e-05,0.00093,0.00026000000000000003,-0.00067,-0.0003,3
10527,10881,-0.00037999999999999997,-0.00016,-4e-05,2.9999999999999997e-05,0.00093,0.00026000000000000003,-0.00067,-0.0003,3
10528,10882,-0.00037999999999999997,-0.00016,-4e-05,2.9999999999999997e-05,0.00093,0.00026000000000000003,-0.00067,-0.0003,3
10529,10883,-0.00037999999999999997,-0.00016,-4e-05,2.9999999999999997e-05,0.00093,0.00026000000000000003,-0.00067,-0.0003,3
10530,10884,-0.00037999999999999997,-0.00016,-4e-05,2.9999999999999997e-05,0.00093,0.00026000000000000003,-0.00067,-0.0003,3
10531,10885,-0.00037999999999999997,-0.00016,-4e-05,2.9999999999999997e-05,0.00093,0.00026000000000000003,-0.00067,-0.0003,3
10532,10886,-0.00037999999999999997,-0.00016,-4e-05,2.9999999999999997e-05,0.00093,0.00026000000000000003,-0.00067,-0.0003,3
10533,10888,-0.00037999999999999997,-0.00016,-4e-05,2.9999999999999997e-05,0.00093,0.00026000000000000003,-0.00067,-0.0003,3
10534,10889,-0.00037999999999999997,-0.00016,-4e-05,2.9999999999999997e-05,0.00093,0.00026000000000000003,-0.00067,-0.0003,3
10535,10890,-0.00037999999999999997,-0.00016,-4e-05,2.9999999999999997e-05,0.00093,0.00026000000000000003,-0.00067,-0.0003,3
10536,10891,0.00028,2e-05,4e-05,0.0,-5.9999999999999995e-05,0.00013000000000000002,-0.00016999999999999999,-0.00075,3
10537,10892,0.00085,0.00042,5.9999999999999995e-05,0.0,-0.00013000000000000002,-0.0002,-0.00036,0.0011,3
10538,10893,0.00015,0.0005,7e-05,-5e-05,-0.00062,-0.00015,0.00115,0.00067,3
10539,10894,0.00015,0.0005,7e-05,-5e-05,-0.00062,-0.00015,0.00115,0.00067,3
10540,10895,0.00015,0.0005,7e-05,-5e-05,-0.00062,-0.00015,0.00115,0.00067,3
10541,10896,0.00015,0.0005,7e-05,-5e-05,-0.00062,-0.00015,0.00115,0.00067,3
10542,10897,0.00015,0.0005,7e-05,-5e-05,-0.00062,-0.00015,0.00115,0.00067,3
10543,10898,0.00015,0.0005,7e-05,-5e-05,-0.00062,-0.00015,0.00115,0.00067,3
10544,10899,0.00015,0.0005,7e-05,-5e-05,-0.00062,-0.00015,0.00115,0.00067,3
10545,10900,0.00015,0.0005,7e-05,-5e-05,-0.00062,-0.00015,0.00115,0.00067,3
10546,10901,0.00015,0.0005,7e-05,-5e-05,-0.00062,-0.00015,0.00115,0.00067,3
10547,10902,0.00015,0.0005,7e-05,-5e-05,-0.00062,-0.00015,0.00115,0.00067,3
10548,10903,0.00015,0.0005,7e-05,-5e-05,-0.00062,-0.00015,0.00115,0.00067,3
10549,10904,0.00015,0.0005,7e-05,-5e-05,-0.00062,-0.00015,0.00115,0.00067,3
10550,10905,-0.00066,-0.0007700000000000001,-8e-05,2.9999999999999997e-05,0.0002,-0.00015,0.00031,-0.00043,3
10551,10906,-0.00066,-0.0007700000000000001,-8e-05,2.9999999999999997e-05,0.0002,-0.00015,0.00031,-0.00043,3
10552,10907,-0.00066,-0.0007700000000000001,-8e-05,2.9999999999999997e-05,0.0002,-0.00015,0.00031,-0.00043,3
10553,10908,-0.00066,-0.0007700000000000001,-8e-05,2.9999999999999997e-05,0.0002,-0.00015,0.00031,-0.00043,3
10554,10909,-0.00066,-0.0007700000000000001,-8e-05,2.9999999999999997e-05,0.0002,-0.00015,0.00031,-0.00043,3
10555,10910,-0.00066,-0.0007700000000000001,-8e-05,2.9999999999999997e-05,0.0002,-0.00015,0.00031,-0.00043,3
10556,10911,-0.00066,-0.0007700000000000001,-8e-05,2.9999999999999997e-05,0.0002,-0.00015,0.00031,-0.00043,3
10557,10912,0.00026000000000000003,-0.00014,-2e-05,-4e-05,-0.00022,0.0002,0.0,-0.00044,3
10558,10913,0.00026000000000000003,-0.00014,-2e-05,-4e-05,-0.00022,0.0002,0.0,-0.00044,3
10559,10914,0.00026000000000000003,-0.00014,-2e-05,-4e-05,-0.00022,0.0002,0.0,-0.00044,3
10560,10915,0.00026000000000000003,-0.00014,-2e-05,-4e-05,-0.00022,0.0002,0.0,-0.00044,3
10561,10916,0.00026000000000000003,-0.00014,-2e-05,-4e-05,-0.00022,0.0002,0.0,-0.00044,3
10562,10917,0.00026000000000000003,-0.00014,-2e-05,-4e-05,-0.00022,0.0002,0.0,-0.00044,3
10563,10918,0.00026000000000000003,-0.00014,-2e-05,-4e-05,-0.00022,0.0002,0.0,-0.00044,3
10564,10919,0.00026000000000000003,-0.00014,-2e-05,-4e-05,-0.00022,0.0002,0.0,-0.00044,3
10565,10921,0.00026000000000000003,-0.00014,-2e-05,-4e-05,-0.00022,0.0002,0.0,-0.00044,3
10566,10922,0.00026000000000000003,-0.00014,-2e-05,-4e-05,-0.00022,0.0002,0.0,-0.00044,3
10567,10923,0.00026000000000000003,-0.00014,-2e-05,-4e-05,-0.00022,0.0002,0.0,-0.00044,3
10568,10924,0.00026000000000000003,-0.00014,-2e-05,-4e-05,-0.00022,0.0002,0.0,-0.00044,3
10569,10925,0.00026000000000000003,-0.00014,-2e-05,-4e-05,-0.00022,0.0002,0.0,-0.00044,3
10570,10926,0.00026000000000000003,-0.00014,-2e-05,-4e-05,-0.00022,0.0002,0.0,-0.00044,3
10571,10927,0.00026000000000000003,-0.00014,-2e-05,-4e-05,-0.00022,0.0002,0.0,-0.00044,3
10572,10928,0.00026000000000000003,-0.00014,-2e-05,-4e-05,-0.00022,0.0002,0.0,-0.00044,3
10573,10929,0.00013000000000000002,-2.9999999999999997e-05,-5.9999999999999995e-05,-2.9999999999999997e-05,-0.0001,-9e-05,-0.00011,0.00039,3
10574,10930,-0.00079,2.9999999999999997e-05,1e-05,2.9999999999999997e-05,0.00043,0.00014,0.0011,-2e-05,3
10575,10931,-0.00079,2.9999999999999997e-05,1e-05,2.9999999999999997e-05,0.00043,0.00014,0.0011,-2e-05,3
10576,10932,-0.00079,2.9999999999999997e-05,1e-05,2.9999999999999997e-05,0.00043,0.00014,0.0011,-2e-05,3
10577,10933,-0.00079,2.9999999999999997e-05,1e-05,2.9999999999999997e-05,0.00043,0.00014,0.0011,-2e-05,3
10578,10934,-0.00079,2.9999999999999997e-05,1e-05,2.9999999999999997e-05,0.00043,0.00014,0.0011,-2e-05,3
10579,10935,-0.00079,2.9999999999999997e-05,1e-05,2.9999999999999997e-05,0.00043,0.00014,0.0011,-2e-05,3
10580,10936,-0.00079,2.9999999999999997e-05,1e-05,2.9999999999999997e-05,0.00043,0.00014,0.0011,-2e-05,3
10581,10938,-0.00079,2.9999999999999997e-05,1e-05,2.9999999999999997e-05,0.00043,0.00014,0.0011,-2e-05,3
10582,10939,-0.00079,2.9999999999999997e-05,1e-05,2.9999999999999997e-05,0.00043,0.00014,0.0011,-2e-05,3
10583,10940,-0.00079,2.9999999999999997e-05,1e-05,2.9999999999999997e-05,0.00043,0.00014,0.0011,-2e-05,3
10584,10941,-0.00079,2.9999999999999997e-05,1e-05,2.9999999999999997e-05,0.00043,0.00014,0.0011,-2e-05,3
10585,10942,-0.00079,2.9999999999999997e-05,1e-05,2.9999999999999997e-05,0.00043,0.00014,0.0011,-2e-05,3
10586,10943,-0.00079,2.9999999999999997e-05,1e-05,2.9999999999999997e-05,0.00043,0.00014,0.0011,-2e-05,3
10587,10944,-0.00079,2.9999999999999997e-05,1e-05,2.9999999999999997e-05,0.00043,0.00014,0.0011,-2e-05,3
10588,10945,-0.00079,2.9999999999999997e-05,1e-05,2.9999999999999997e-05,0.00043,0.00014,0.0011,-2e-05,3
10589,10946,-0.00079,2.9999999999999997e-05,1e-05,2.9999999999999997e-05,0.00043,0.00014,0.0011,-2e-05,3
10590,10947,-0.00079,2.9999999999999997e-05,1e-05,2.9999999999999997e-05,0.00043,0.00014,0.0011,-2e-05,3
10591,10948,-0.00079,2.9999999999999997e-05,1e-05,2.9999999999999997e-05,0.00043,0.00014,0.0011,-2e-05,3
10592,10949,-0.00079,2.9999999999999997e-05,1e-05,2.9999999999999997e-05,0.00043,0.00014,0.0011,-2e-05,3
10593,10950,-0.00079,2.9999999999999997e-05,1e-05,2.9999999999999997e-05,0.00043,0.00014,0.0011,-2e-05,3
10594,10951,-0.00058,-9e-05,-2e-05,-2e-05,-0.0001,0.0003,0.00015,-0.00031,3
10595,10952,-0.00058,-9e-05,-2e-05,-2e-05,-0.0001,0.0003,0.00015,-0.00031,3
10596,10953,0.00015,5.9999999999999995e-05,2.9999999999999997e-05,-1e-05,-0.00016999999999999999,-0.00013000000000000002,-0.00063,9e-05,3
10597,10954,0.00015,5.9999999999999995e-05,2.9999999999999997e-05,-1e-05,-0.00016999999999999999,-0.00013000000000000002,-0.00063,9e-05,3
10598,10955,0.00015,5.9999999999999995e-05,2.9999999999999997e-05,-1e-05,-0.00016999999999999999,-0.00013000000000000002,-0.00063,9e-05,3
10599,10956,0.00015,5.9999999999999995e-05,2.9999999999999997e-05,-1e-05,-0.00016999999999999999,-0.00013000000000000002,-0.00063,9e-05,3
10600,10957,0.00015,5.9999999999999995e-05,2.9999999999999997e-05,-1e-05,-0.00016999999999999999,-0.00013000000000000002,-0.00063,9e-05,3
10601,10958,0.00015,5.9999999999999995e-05,2.9999999999999997e-05,-1e-05,-0.00016999999999999999,-0.00013000000000000002,-0.00063,9e-05,3
10602,10959,0.00015,5.9999999999999995e-05,2.9999999999999997e-05,-1e-05,-0.00016999999999999999,-0.00013000000000000002,-0.00063,9e-05,3
10603,10960,0.00015,5.9999999999999995e-05,2.9999999999999997e-05,-1e-05,-0.00016999999999999999,-0.00013000000000000002,-0.00063,9e-05,3
10604,10961,0.00015,5.9999999999999995e-05,2.9999999999999997e-05,-1e-05,-0.00016999999999999999,-0.00013000000000000002,-0.00063,9e-05,3
10605,10962,0.00015,5.9999999999999995e-05,2.9999999999999997e-05,-1e-05,-0.00016999999999999999,-0.00013000000000000002,-0.00063,9e-05,3
10606,10963,0.00015,5.9999999999999995e-05,2.9999999999999997e-05,-1e-05,-0.00016999999999999999,-0.00013000000000000002,-0.00063,9e-05,3
10607,10964,0.00015,5.9999999999999995e-05,2.9999999999999997e-05,-1e-05,-0.00016999999999999999,-0.00013000000000000002,-0.00063,9e-05,3
10608,10965,0.00015,5.9999999999999995e-05,2.9999999999999997e-05,-1e-05,-0.00016999999999999999,-0.00013000000000000002,-0.00063,9e-05,3
10609,10966,0.00015,5.9999999999999995e-05,2.9999999999999997e-05,-1e-05,-0.00016999999999999999,-0.00013000000000000002,-0.00063,9e-05,3
10610,10967,0.00015,5.9999999999999995e-05,2.9999999999999997e-05,-1e-05,-0.00016999999999999999,-0.00013000000000000002,-0.00063,9e-05,3
10611,10968,0.00015,5.9999999999999995e-05,2.9999999999999997e-05,-1e-05,-0.00016999999999999999,-0.00013000000000000002,-0.00063,9e-05,3
10612,10969,0.00015,5.9999999999999995e-05,2.9999999999999997e-05,-1e-05,-0.00016999999999999999,-0.00013000000000000002,-0.00063,9e-05,3
10613,10970,0.00015,5.9999999999999995e-05,2.9999999999999997e-05,-1e-05,-0.00016999999999999999,-0.00013000000000000002,-0.00063,9e-05,3
10614,10971,0.00015,5.9999999999999995e-05,2.9999999999999997e-05,-1e-05,-0.00016999999999999999,-0.00013000000000000002,-0.00063,9e-05,3
10615,10972,0.00015,5.9999999999999995e-05,2.9999999999999997e-05,-1e-05,-0.00016999999999999999,-0.00013000000000000002,-0.00063,9e-05,3
10616,10973,0.00015,5.9999999999999995e-05,2.9999999999999997e-05,-1e-05,-0.00016999999999999999,-0.00013000000000000002,-0.00063,9e-05,3
10617,10974,0.00015,5.9999999999999995e-05,2.9999999999999997e-05,-1e-05,-0.00016999999999999999,-0.00013000000000000002,-0.00063,9e-05,3
10618,10975,-0.0010199999999999999,8e-05,0.0,4e-05,0.00075,0.00037,5.9999999999999995e-05,-0.00033999999999999997,3
10619,10976,-0.0010199999999999999,8e-05,0.0,4e-05,0.00075,0.00037,5.9999999999999995e-05,-0.00033999999999999997,3
10620,10977,0.00062,-0.00011999999999999999,-1e-05,2.9999999999999997e-05,0.00037999999999999997,7e-05,-5.9999999999999995e-05,0.00022,3
10621,10978,0.00062,-0.00011999999999999999,-1e-05,2.9999999999999997e-05,0.00037999999999999997,7e-05,-5.9999999999999995e-05,0.00022,3
10622,10979,0.00062,-0.00011999999999999999,-1e-05,2.9999999999999997e-05,0.00037999999999999997,7e-05,-5.9999999999999995e-05,0.00022,3
10623,10980,0.00062,-0.00011999999999999999,-1e-05,2.9999999999999997e-05,0.00037999999999999997,7e-05,-5.9999999999999995e-05,0.00022,3
10624,10981,0.00062,-0.00011999999999999999,-1e-05,2.9999999999999997e-05,0.00037999999999999997,7e-05,-5.9999999999999995e-05,0.00022,3
10625,10982,0.00062,-0.00011999999999999999,-1e-05,2.9999999999999997e-05,0.00037999999999999997,7e-05,-5.9999999999999995e-05,0.00022,3
10626,10983,0.00062,-0.00011999999999999999,-1e-05,2.9999999999999997e-05,0.00037999999999999997,7e-05,-5.9999999999999995e-05,0.00022,3
10627,10984,0.00062,-0.00011999999999999999,-1e-05,2.9999999999999997e-05,0.00037999999999999997,7e-05,-5.9999999999999995e-05,0.00022,3
10628,10985,0.00062,-0.00011999999999999999,-1e-05,2.9999999999999997e-05,0.00037999999999999997,7e-05,-5.9999999999999995e-05,0.00022,3
10629,10986,0.00062,-0.00011999999999999999,-1e-05,2.9999999999999997e-05,0.00037999999999999997,7e-05,-5.9999999999999995e-05,0.00022,3
10630,10988,0.00062,-0.00011999999999999999,-1e-05,2.9999999999999997e-05,0.00037999999999999997,7e-05,-5.9999999999999995e-05,0.00022,3
10631,10989,0.00016,0.00044,4e-05,2e-05,1e-05,0.00018,0.00013000000000000002,0.00065,3
10632,10990,-0.00086,-0.00014,-8e-05,-9e-05,-0.00032,-9e-05,-0.00047999999999999996,-0.00117,3
10633,10992,-0.00086,-0.00014,-8e-05,-9e-05,-0.00032,-9e-05,-0.00047999999999999996,-0.00117,3
10634,10993,-0.00086,-0.00014,-8e-05,-9e-05,-0.00032,-9e-05,-0.00047999999999999996,-0.00117,3
10635,10994,-0.00086,-0.00014,-8e-05,-9e-05,-0.00032,-9e-05,-0.00047999999999999996,-0.00117,3
10636,10995,-0.00086,-0.00014,-8e-05,-9e-05,-0.00032,-9e-05,-0.00047999999999999996,-0.00117,3
10637,10996,-0.00086,-0.00014,-8e-05,-9e-05,-0.00032,-9e-05,-0.00047999999999999996,-0.00117,3
10638,10997,-0.00086,-0.00014,-8e-05,-9e-05,-0.00032,-9e-05,-0.00047999999999999996,-0.00117,3
10639,10998,-0.00086,-0.00014,-8e-05,-9e-05,-0.00032,-9e-05,-0.00047999999999999996,-0.00117,3
10640,10999,-0.00086,-0.00014,-8e-05,-9e-05,-0.00032,-9e-05,-0.00047999999999999996,-0.00117,3
10641,11000,-0.00086,-0.00014,-8e-05,-9e-05,-0.00032,-9e-05,-0.00047999999999999996,-0.00117,3
10642,11001,-0.00086,-0.00014,-8e-05,-9e-05,-0.00032,-9e-05,-0.00047999999999999996,-0.00117,3
