,time,channel1,channel2,channel3,channel4,channel5,channel6,channel7,channel8,class
12056,12446,0.00037,-5.9999999999999995e-05,0.0,-7e-05,-0.00016999999999999999,0.0002,5e-05,0.00027,3
12057,12447,0.00022999999999999998,0.00013000000000000002,-1e-05,-0.00015,-0.00033,-0.00059,-0.00025,-0.00022999999999999998,3
12058,12449,0.00022999999999999998,0.00013000000000000002,-1e-05,-0.00015,-0.00033,-0.00059,-0.00025,-0.00022999999999999998,3
12059,12450,0.00022999999999999998,0.00013000000000000002,-1e-05,-0.00015,-0.00033,-0.00059,-0.00025,-0.00022999999999999998,3
12060,12451,0.00022999999999999998,0.00013000000000000002,-1e-05,-0.00015,-0.00033,-0.00059,-0.00025,-0.00022999999999999998,3
12061,12452,0.00022999999999999998,0.00013000000000000002,-1e-05,-0.00015,-0.00033,-0.00059,-0.00025,-0.00022999999999999998,3
12062,12453,0.00022999999999999998,0.00013000000000000002,-1e-05,-0.00015,-0.00033,-0.00059,-0.00025,-0.00022999999999999998,3
12063,12454,0.00022999999999999998,0.00013000000000000002,-1e-05,-0.00015,-0.00033,-0.00059,-0.00025,-0.00022999999999999998,3
12064,12455,0.00022999999999999998,0.00013000000000000002,-1e-05,-0.00015,-0.00033,-0.00059,-0.00025,-0.00022999999999999998,3
12065,12456,0.00022999999999999998,0.00013000000000000002,-1e-05,-0.00015,-0.00033,-0.00059,-0.00025,-0.00022999999999999998,3
12066,12457,0.00022999999999999998,0.00013000000000000002,-1e-05,-0.00015,-0.00033,-0.00059,-0.00025,-0.00022999999999999998,3
12067,12458,0.00022999999999999998,0.00013000000000000002,-1e-05,-0.00015,-0.00033,-0.00059,-0.00025,-0.00022999999999999998,3
12068,12459,0.00022999999999999998,0.00013000000000000002,-1e-05,-0.00015,-0.00033,-0.00059,-0.00025,-0.00022999999999999998,3
12069,12460,0.00022999999999999998,0.00013000000000000002,-1e-05,-0.00015,-0.00033,-0.00059,-0.00025,-0.00022999999999999998,3
12070,12461,0.00022999999999999998,0.00013000000000000002,-1e-05,-0.00015,-0.00033,-0.00059,-0.00025,-0.00022999999999999998,3
12071,12462,0.00022999999999999998,0.00013000000000000002,-1e-05,-0.00015,-0.00033,-0.00059,-0.00025,-0.00022999999999999998,3
12072,12463,0.00022999999999999998,0.00013000000000000002,-1e-05,-0.00015,-0.00033,-0.00059,-0.00025,-0.00022999999999999998,3
12073,12464,0.00022999999999999998,0.00013000000000000002,-1e-05,-0.00015,-0.00033,-0.00059,-0.00025,-0.00022999999999999998,3
12074,12465,0.00022999999999999998,0.00013000000000000002,-1e-05,-0.00015,-0.00033,-0.00059,-0.00025,-0.00022999999999999998,3
12075,12466,0.00022999999999999998,0.00013000000000000002,-1e-05,-0.00015,-0.00033,-0.00059,-0.00025,-0.00022999999999999998,3
12076,12467,0.00022999999999999998,0.00013000000000000002,-1e-05,-0.00015,-0.00033,-0.00059,-0.00025,-0.00022999999999999998,3
12077,12468,-0.00039,-0.00021,-5e-05,-2e-05,-0.0002,-0.00118,-0.00021,-0.00013000000000000002,3
12078,12469,-0.00039,-0.00021,-5e-05,-2e-05,-0.0002,-0.00118,-0.00021,-0.00013000000000000002,3
12079,12470,0.00107,-4e-05,9e-05,0.00011,2e-05,0.00014,-0.00015,0.0006799999999999999,3
12080,12471,0.00107,-4e-05,9e-05,0.00011,2e-05,0.00014,-0.00015,0.0006799999999999999,3
12081,12472,0.00107,-4e-05,9e-05,0.00011,2e-05,0.00014,-0.00015,0.0006799999999999999,3
12082,12473,0.00107,-4e-05,9e-05,0.00011,2e-05,0.00014,-0.00015,0.0006799999999999999,3
12083,12474,0.00107,-4e-05,9e-05,0.00011,2e-05,0.00014,-0.00015,0.0006799999999999999,3
12084,12475,0.00107,-4e-05,9e-05,0.00011,2e-05,0.00014,-0.00015,0.0006799999999999999,3
12085,12476,0.00107,-4e-05,9e-05,0.00011,2e-05,0.00014,-0.00015,0.0006799999999999999,3
12086,12477,0.00107,-4e-05,9e-05,0.00011,2e-05,0.00014,-0.00015,0.0006799999999999999,3
12087,12478,0.00107,-4e-05,9e-05,0.00011,2e-05,0.00014,-0.00015,0.0006799999999999999,3
12088,12479,0.00107,-4e-05,9e-05,0.00011,2e-05,0.00014,-0.00015,0.0006799999999999999,3
12089,12480,0.00107,-4e-05,9e-05,0.00011,2e-05,0.00014,-0.00015,0.0006799999999999999,3
12090,12481,0.00107,-4e-05,9e-05,0.00011,2e-05,0.00014,-0.00015,0.0006799999999999999,3
12091,12482,0.00107,-4e-05,9e-05,0.00011,2e-05,0.00014,-0.00015,0.0006799999999999999,3
12092,12483,8e-05,0.00018999999999999998,-1e-05,-5.9999999999999995e-05,-0.00031,-0.00037,9e-05,2e-05,3
12093,12484,8e-05,0.00018999999999999998,-1e-05,-5.9999999999999995e-05,-0.00031,-0.00037,9e-05,2e-05,3
12094,12485,0.00063,0.00033,0.00011,0.00029,0.00116,0.0007700000000000001,0.0003,-0.0004,3
12095,12486,0.00063,0.00033,0.00011,0.00029,0.00116,0.0007700000000000001,0.0003,-0.0004,3
12096,12488,0.00063,0.00033,0.00011,0.00029,0.00116,0.0007700000000000001,0.0003,-0.0004,3
12097,12489,0.00063,0.00033,0.00011,0.00029,0.00116,0.0007700000000000001,0.0003,-0.0004,3
12098,12490,0.00063,0.00033,0.00011,0.00029,0.00116,0.0007700000000000001,0.0003,-0.0004,3
12099,12491,0.00063,0.00033,0.00011,0.00029,0.00116,0.0007700000000000001,0.0003,-0.0004,3
12100,12492,0.00063,0.00033,0.00011,0.00029,0.00116,0.0007700000000000001,0.0003,-0.0004,3
12101,12493,0.00063,0.00033,0.00011,0.00029,0.00116,0.0007700000000000001,0.0003,-0.0004,3
12102,12494,0.00063,0.00033,0.00011,0.00029,0.00116,0.0007700000000000001,0.0003,-0.0004,3
12103,12495,0.00063,0.00033,0.00011,0.00029,0.00116,0.0007700000000000001,0.0003,-0.0004,3
12104,12496,0.00063,0.00033,0.00011,0.00029,0.00116,0.0007700000000000001,0.0003,-0.0004,3
12105,12497,0.00063,0.00033,0.00011,0.00029,0.00116,0.0007700000000000001,0.0003,-0.0004,3
12106,12498,0.00063,0.00033,0.00011,0.00029,0.00116,0.0007700000000000001,0.0003,-0.0004,3
12107,12499,0.00063,0.00033,0.00011,0.00029,0.00116,0.0007700000000000001,0.0003,-0.0004,3
12108,12500,0.00063,0.00033,0.00011,0.00029,0.00116,0.0007700000000000001,0.0003,-0.0004,3
12109,12501,0.00063,0.00033,0.00011,0.00029,0.00116,0.0007700000000000001,0.0003,-0.0004,3
12110,12502,0.00063,0.00033,0.00011,0.00029,0.00116,0.0007700000000000001,0.0003,-0.0004,3
12111,12503,0.00063,0.00033,0.00011,0.00029,0.00116,0.0007700000000000001,0.0003,-0.0004,3
12112,12504,0.00063,0.00033,0.00011,0.00029,0.00116,0.0007700000000000001,0.0003,-0.0004,3
12113,12505,0.00063,0.00033,0.00011,0.00029,0.00116,0.0007700000000000001,0.0003,-0.0004,3
12114,12506,0.00049,2.9999999999999997e-05,2.9999999999999997e-05,2.9999999999999997e-05,8e-05,0.00023999999999999998,4e-05,0.0003,3
12115,12507,0.0001,0.00016999999999999999,-2e-05,-0.00022,-0.00035,-0.00018,2.9999999999999997e-05,-0.00075,3
12116,12508,0.0001,0.00016999999999999999,-2e-05,-0.00022,-0.00035,-0.00018,2.9999999999999997e-05,-0.00075,3
12117,12509,0.0001,0.00016999999999999999,-2e-05,-0.00022,-0.00035,-0.00018,2.9999999999999997e-05,-0.00075,3
12118,12510,0.0001,0.00016999999999999999,-2e-05,-0.00022,-0.00035,-0.00018,2.9999999999999997e-05,-0.00075,3
12119,12511,0.0001,0.00016999999999999999,-2e-05,-0.00022,-0.00035,-0.00018,2.9999999999999997e-05,-0.00075,3
12120,12512,0.0001,0.00016999999999999999,-2e-05,-0.00022,-0.00035,-0.00018,2.9999999999999997e-05,-0.00075,3
12121,12513,0.0001,0.00016999999999999999,-2e-05,-0.00022,-0.00035,-0.00018,2.9999999999999997e-05,-0.00075,3
12122,12514,0.0001,0.00016999999999999999,-2e-05,-0.00022,-0.00035,-0.00018,2.9999999999999997e-05,-0.00075,3
12123,12515,0.0001,0.00016999999999999999,-2e-05,-0.00022,-0.00035,-0.00018,2.9999999999999997e-05,-0.00075,3
12124,12516,0.0001,0.00016999999999999999,-2e-05,-0.00022,-0.00035,-0.00018,2.9999999999999997e-05,-0.00075,3
12125,12517,0.0001,0.00016999999999999999,-2e-05,-0.00022,-0.00035,-0.00018,2.9999999999999997e-05,-0.00075,3
12126,12518,0.0001,0.00016999999999999999,-2e-05,-0.00022,-0.00035,-0.00018,2.9999999999999997e-05,-0.00075,3
12127,12519,-2e-05,-8e-05,2e-05,5.9999999999999995e-05,0.00015,-0.00011,1e-05,0.00049,3
12128,12520,-0.0004,-7e-05,-7e-05,-0.00011,-5.9999999999999995e-05,-9e-05,0.0003,-0.00027,3
12129,12521,-0.0004,-7e-05,-7e-05,-0.00011,-5.9999999999999995e-05,-9e-05,0.0003,-0.00027,3
12130,12522,-0.0004,-7e-05,-7e-05,-0.00011,-5.9999999999999995e-05,-9e-05,0.0003,-0.00027,3
12131,12523,-0.0004,-7e-05,-7e-05,-0.00011,-5.9999999999999995e-05,-9e-05,0.0003,-0.00027,3
12132,12524,-0.0004,-7e-05,-7e-05,-0.00011,-5.9999999999999995e-05,-9e-05,0.0003,-0.00027,3
12133,12525,-0.0004,-7e-05,-7e-05,-0.00011,-5.9999999999999995e-05,-9e-05,0.0003,-0.00027,3
12134,12526,-0.0004,-7e-05,-7e-05,-0.00011,-5.9999999999999995e-05,-9e-05,0.0003,-0.00027,3
12135,12527,-0.0004,-7e-05,-7e-05,-0.00011,-5.9999999999999995e-05,-9e-05,0.0003,-0.00027,3
12136,12528,0.00011999999999999999,0.0001,5e-05,4e-05,-9e-05,0.00099,0.00044,0.00099,3
12137,12529,0.00011999999999999999,0.0001,5e-05,4e-05,-9e-05,0.00099,0.00044,0.00099,3
12138,12530,0.00011999999999999999,0.0001,5e-05,4e-05,-9e-05,0.00099,0.00044,0.00099,3
12139,12531,0.00011999999999999999,0.0001,5e-05,4e-05,-9e-05,0.00099,0.00044,0.00099,3
12140,12532,0.00011999999999999999,0.0001,5e-05,4e-05,-9e-05,0.00099,0.00044,0.00099,3
12141,12533,0.00011999999999999999,0.0001,5e-05,4e-05,-9e-05,0.00099,0.00044,0.00099,3
12142,12534,0.00011999999999999999,0.0001,5e-05,4e-05,-9e-05,0.00099,0.00044,0.00099,3
12143,12535,0.00011999999999999999,0.0001,5e-05,4e-05,-9e-05,0.00099,0.00044,0.00099,3
12144,12536,0.00011999999999999999,0.0001,5e-05,4e-05,-9e-05,0.00099,0.00044,0.00099,3
12145,12538,0.00011999999999999999,0.0001,5e-05,4e-05,-9e-05,0.00099,0.00044,0.00099,3
12146,12539,0.00011999999999999999,0.0001,5e-05,4e-05,-9e-05,0.00099,0.00044,0.00099,3
12147,12540,0.00011999999999999999,0.0001,5e-05,4e-05,-9e-05,0.00099,0.00044,0.00099,3
12148,12541,0.00011999999999999999,0.0001,5e-05,4e-05,-9e-05,0.00099,0.00044,0.00099,3
12149,12542,0.00011999999999999999,0.0001,5e-05,4e-05,-9e-05,0.00099,0.00044,0.00099,3
12150,12543,2e-05,-0.00025,-5.9999999999999995e-05,-5e-05,-0.00018,-0.0009699999999999999,-0.00023999999999999998,-0.00011,3
12151,12544,2e-05,-0.00025,-5.9999999999999995e-05,-5e-05,-0.00018,-0.0009699999999999999,-0.00023999999999999998,-0.00011,3
12152,12545,-0.00033999999999999997,-8e-05,-5.9999999999999995e-05,5e-05,4e-05,0.00062,9e-05,-0.00023999999999999998,3
12153,12546,-0.00033999999999999997,-8e-05,-5.9999999999999995e-05,5e-05,4e-05,0.00062,9e-05,-0.00023999999999999998,3
12154,12547,-0.00033999999999999997,-8e-05,-5.9999999999999995e-05,5e-05,4e-05,0.00062,9e-05,-0.00023999999999999998,3
12155,12548,-0.00033999999999999997,-8e-05,-5.9999999999999995e-05,5e-05,4e-05,0.00062,9e-05,-0.00023999999999999998,3
12156,12549,-0.00033999999999999997,-8e-05,-5.9999999999999995e-05,5e-05,4e-05,0.00062,9e-05,-0.00023999999999999998,3
12157,12550,-0.00033999999999999997,-8e-05,-5.9999999999999995e-05,5e-05,4e-05,0.00062,9e-05,-0.00023999999999999998,3
12158,12551,-0.00033999999999999997,-8e-05,-5.9999999999999995e-05,5e-05,4e-05,0.00062,9e-05,-0.00023999999999999998,3
12159,12552,-0.00033999999999999997,-8e-05,-5.9999999999999995e-05,5e-05,4e-05,0.00062,9e-05,-0.00023999999999999998,3
12160,12553,-0.00033999999999999997,-8e-05,-5.9999999999999995e-05,5e-05,4e-05,0.00062,9e-05,-0.00023999999999999998,3
12161,12554,-0.00033999999999999997,-8e-05,-5.9999999999999995e-05,5e-05,4e-05,0.00062,9e-05,-0.00023999999999999998,3
12162,12555,-0.00033999999999999997,-8e-05,-5.9999999999999995e-05,5e-05,4e-05,0.00062,9e-05,-0.00023999999999999998,3
12163,12556,-0.00033999999999999997,-8e-05,-5.9999999999999995e-05,5e-05,4e-05,0.00062,9e-05,-0.00023999999999999998,3
12164,12557,-0.00033999999999999997,-8e-05,-5.9999999999999995e-05,5e-05,4e-05,0.00062,9e-05,-0.00023999999999999998,3
12165,12558,-0.00033999999999999997,-8e-05,-5.9999999999999995e-05,5e-05,4e-05,0.00062,9e-05,-0.00023999999999999998,3
12166,12559,-0.00033999999999999997,-8e-05,-5.9999999999999995e-05,5e-05,4e-05,0.00062,9e-05,-0.00023999999999999998,3
12167,12560,-0.00033999999999999997,-8e-05,-5.9999999999999995e-05,5e-05,4e-05,0.00062,9e-05,-0.00023999999999999998,3
12168,12561,-0.00033999999999999997,-8e-05,-5.9999999999999995e-05,5e-05,4e-05,0.00062,9e-05,-0.00023999999999999998,3
12169,12562,-0.00033999999999999997,-8e-05,-5.9999999999999995e-05,5e-05,4e-05,0.00062,9e-05,-0.00023999999999999998,3
12170,12563,-0.00033999999999999997,-8e-05,-5.9999999999999995e-05,5e-05,4e-05,0.00062,9e-05,-0.00023999999999999998,3
12171,12564,-0.00033999999999999997,-8e-05,-5.9999999999999995e-05,5e-05,4e-05,0.00062,9e-05,-0.00023999999999999998,3
12172,12565,-0.00033999999999999997,-8e-05,-5.9999999999999995e-05,5e-05,4e-05,0.00062,9e-05,-0.00023999999999999998,3
12173,12566,-0.00062,5.9999999999999995e-05,5.9999999999999995e-05,2e-05,0.00013000000000000002,-0.00016999999999999999,-0.00032,-0.0005099999999999999,3
12174,12567,-0.00062,5.9999999999999995e-05,5.9999999999999995e-05,2e-05,0.00013000000000000002,-0.00016999999999999999,-0.00032,-0.0005099999999999999,3
12175,12568,-0.00073,-0.00053,-9e-05,0.0,5.9999999999999995e-05,-0.00033999999999999997,-0.00037999999999999997,-0.00018,3
12176,12569,-0.00016,0.00014,5e-05,-7e-05,-0.00059,-0.00065,-0.00013000000000000002,0.00018999999999999998,3
12177,12570,-0.00016,0.00014,5e-05,-7e-05,-0.00059,-0.00065,-0.00013000000000000002,0.00018999999999999998,3
12178,12571,-0.00016,0.00014,5e-05,-7e-05,-0.00059,-0.00065,-0.00013000000000000002,0.00018999999999999998,3
12179,12572,-0.00016,0.00014,5e-05,-7e-05,-0.00059,-0.00065,-0.00013000000000000002,0.00018999999999999998,3
12180,12573,-0.00016,0.00014,5e-05,-7e-05,-0.00059,-0.00065,-0.00013000000000000002,0.00018999999999999998,3
12181,12574,-0.00016,0.00014,5e-05,-7e-05,-0.00059,-0.00065,-0.00013000000000000002,0.00018999999999999998,3
12182,12575,-0.00016,0.00014,5e-05,-7e-05,-0.00059,-0.00065,-0.00013000000000000002,0.00018999999999999998,3
12183,12576,-0.00016,0.00014,5e-05,-7e-05,-0.00059,-0.00065,-0.00013000000000000002,0.00018999999999999998,3
12184,12577,-0.00016,0.00014,5e-05,-7e-05,-0.00059,-0.00065,-0.00013000000000000002,0.00018999999999999998,3
12185,12578,-0.00016,0.00014,5e-05,-7e-05,-0.00059,-0.00065,-0.00013000000000000002,0.00018999999999999998,3
12186,12579,2.9999999999999997e-05,0.00041,1e-05,2e-05,-0.00026000000000000003,-2e-05,0.00033999999999999997,0.00091,3
12187,12580,2.9999999999999997e-05,0.00041,1e-05,2e-05,-0.00026000000000000003,-2e-05,0.00033999999999999997,0.00091,3
12188,12581,2.9999999999999997e-05,0.00041,1e-05,2e-05,-0.00026000000000000003,-2e-05,0.00033999999999999997,0.00091,3
12189,12582,2.9999999999999997e-05,0.00041,1e-05,2e-05,-0.00026000000000000003,-2e-05,0.00033999999999999997,0.00091,3
12190,12583,2.9999999999999997e-05,0.00041,1e-05,2e-05,-0.00026000000000000003,-2e-05,0.00033999999999999997,0.00091,3
12191,12584,2.9999999999999997e-05,0.00041,1e-05,2e-05,-0.00026000000000000003,-2e-05,0.00033999999999999997,0.00091,3
12192,12585,2.9999999999999997e-05,0.00041,1e-05,2e-05,-0.00026000000000000003,-2e-05,0.00033999999999999997,0.00091,3
12193,12586,2.9999999999999997e-05,0.00041,1e-05,2e-05,-0.00026000000000000003,-2e-05,0.00033999999999999997,0.00091,3
12194,12588,2.9999999999999997e-05,0.00041,1e-05,2e-05,-0.00026000000000000003,-2e-05,0.00033999999999999997,0.00091,3
12195,12589,-0.0005099999999999999,-0.00021,1e-05,5.9999999999999995e-05,2.9999999999999997e-05,0.0,0.0,-1e-05,3
12196,12591,-0.0005099999999999999,-0.00021,1e-05,5.9999999999999995e-05,2.9999999999999997e-05,0.0,0.0,-1e-05,3
12197,12592,-0.0005099999999999999,-0.00021,1e-05,5.9999999999999995e-05,2.9999999999999997e-05,0.0,0.0,-1e-05,3
12198,12593,-0.0005099999999999999,-0.00021,1e-05,5.9999999999999995e-05,2.9999999999999997e-05,0.0,0.0,-1e-05,3
12199,12594,-0.0005099999999999999,-0.00021,1e-05,5.9999999999999995e-05,2.9999999999999997e-05,0.0,0.0,-1e-05,3
12200,12595,-0.0005099999999999999,-0.00021,1e-05,5.9999999999999995e-05,2.9999999999999997e-05,0.0,0.0,-1e-05,3
12201,12596,-0.0005099999999999999,-0.00021,1e-05,5.9999999999999995e-05,2.9999999999999997e-05,0.0,0.0,-1e-05,3
12202,12597,-0.0005099999999999999,-0.00021,1e-05,5.9999999999999995e-05,2.9999999999999997e-05,0.0,0.0,-1e-05,3
12203,12598,-0.0005099999999999999,-0.00021,1e-05,5.9999999999999995e-05,2.9999999999999997e-05,0.0,0.0,-1e-05,3
12204,12599,-0.0005099999999999999,-0.00021,1e-05,5.9999999999999995e-05,2.9999999999999997e-05,0.0,0.0,-1e-05,3
12205,12600,-0.0005099999999999999,-0.00021,1e-05,5.9999999999999995e-05,2.9999999999999997e-05,0.0,0.0,-1e-05,3
12206,12601,-0.0005099999999999999,-0.00021,1e-05,5.9999999999999995e-05,2.9999999999999997e-05,0.0,0.0,-1e-05,3
12207,12602,-0.0005099999999999999,-0.00021,1e-05,5.9999999999999995e-05,2.9999999999999997e-05,0.0,0.0,-1e-05,3
12208,12603,0.0006799999999999999,0.00061,5.9999999999999995e-05,-4e-05,5.9999999999999995e-05,0.0001,-0.00018,-0.00045,3
12209,12604,0.0006799999999999999,0.00061,5.9999999999999995e-05,-4e-05,5.9999999999999995e-05,0.0001,-0.00018,-0.00045,3
12210,12605,9e-05,-4e-05,-9e-05,-2e-05,-0.00014,-1e-05,7e-05,0.0009199999999999999,3
12211,12606,9e-05,-4e-05,-9e-05,-2e-05,-0.00014,-1e-05,7e-05,0.0009199999999999999,3
12212,12607,9e-05,-4e-05,-9e-05,-2e-05,-0.00014,-1e-05,7e-05,0.0009199999999999999,3
12213,12608,9e-05,-4e-05,-9e-05,-2e-05,-0.00014,-1e-05,7e-05,0.0009199999999999999,3
12214,12609,9e-05,-4e-05,-9e-05,-2e-05,-0.00014,-1e-05,7e-05,0.0009199999999999999,3
12215,12610,9e-05,-4e-05,-9e-05,-2e-05,-0.00014,-1e-05,7e-05,0.0009199999999999999,3
12216,12611,9e-05,-4e-05,-9e-05,-2e-05,-0.00014,-1e-05,7e-05,0.0009199999999999999,3
12217,12612,9e-05,-4e-05,-9e-05,-2e-05,-0.00014,-1e-05,7e-05,0.0009199999999999999,3
12218,12613,9e-05,-4e-05,-9e-05,-2e-05,-0.00014,-1e-05,7e-05,0.0009199999999999999,3
12219,12614,9e-05,-4e-05,-9e-05,-2e-05,-0.00014,-1e-05,7e-05,0.0009199999999999999,3
12220,12615,9e-05,-4e-05,-9e-05,-2e-05,-0.00014,-1e-05,7e-05,0.0009199999999999999,3
12221,12616,9e-05,-4e-05,-9e-05,-2e-05,-0.00014,-1e-05,7e-05,0.0009199999999999999,3
12222,12617,9e-05,-4e-05,-9e-05,-2e-05,-0.00014,-1e-05,7e-05,0.0009199999999999999,3
12223,12618,9e-05,-4e-05,-9e-05,-2e-05,-0.00014,-1e-05,7e-05,0.0009199999999999999,3
12224,12619,9e-05,-4e-05,-9e-05,-2e-05,-0.00014,-1e-05,7e-05,0.0009199999999999999,3
12225,12620,9e-05,-4e-05,-9e-05,-2e-05,-0.00014,-1e-05,7e-05,0.0009199999999999999,3
12226,12621,9e-05,-4e-05,-9e-05,-2e-05,-0.00014,-1e-05,7e-05,0.0009199999999999999,3
12227,12622,9e-05,-4e-05,-9e-05,-2e-05,-0.00014,-1e-05,7e-05,0.0009199999999999999,3
12228,12623,9e-05,-4e-05,-9e-05,-2e-05,-0.00014,-1e-05,7e-05,0.0009199999999999999,3
12229,12624,9e-05,-4e-05,-9e-05,-2e-05,-0.00014,-1e-05,7e-05,0.0009199999999999999,3
12230,12625,9e-05,-4e-05,-9e-05,-2e-05,-0.00014,-1e-05,7e-05,0.0009199999999999999,3
12231,12626,-0.00023999999999999998,-0.00032,-9e-05,-0.00015,-0.00021,-0.00042,0.0,0.00044,3
12232,12627,0.00018999999999999998,-0.00014,-9e-05,4e-05,0.00013000000000000002,-0.00031,-0.00018,-0.00053,3
12233,12628,0.00018999999999999998,-0.00014,-9e-05,4e-05,0.00013000000000000002,-0.00031,-0.00018,-0.00053,3
12234,12629,0.00018999999999999998,-0.00014,-9e-05,4e-05,0.00013000000000000002,-0.00031,-0.00018,-0.00053,3
12235,12630,0.00018999999999999998,-0.00014,-9e-05,4e-05,0.00013000000000000002,-0.00031,-0.00018,-0.00053,3
12236,12631,0.00018999999999999998,-0.00014,-9e-05,4e-05,0.00013000000000000002,-0.00031,-0.00018,-0.00053,3
12237,12632,0.00018999999999999998,-0.00014,-9e-05,4e-05,0.00013000000000000002,-0.00031,-0.00018,-0.00053,3
12238,12633,0.00018999999999999998,-0.00014,-9e-05,4e-05,0.00013000000000000002,-0.00031,-0.00018,-0.00053,3
12239,12634,0.00018999999999999998,-0.00014,-9e-05,4e-05,0.00013000000000000002,-0.00031,-0.00018,-0.00053,3
12240,12635,0.00018999999999999998,-0.00014,-9e-05,4e-05,0.00013000000000000002,-0.00031,-0.00018,-0.00053,3
12241,12636,0.00018999999999999998,-0.00014,-9e-05,4e-05,0.00013000000000000002,-0.00031,-0.00018,-0.00053,3
12242,12638,0.00018999999999999998,-0.00014,-9e-05,4e-05,0.00013000000000000002,-0.00031,-0.00018,-0.00053,3
12243,12639,0.00018999999999999998,-0.00014,-9e-05,4e-05,0.00013000000000000002,-0.00031,-0.00018,-0.00053,3
12244,12640,0.00018999999999999998,-0.00014,-9e-05,4e-05,0.00013000000000000002,-0.00031,-0.00018,-0.00053,3
12245,12641,0.00018999999999999998,-0.00014,-9e-05,4e-05,0.00013000000000000002,-0.00031,-0.00018,-0.00053,3
12246,12642,0.00018999999999999998,-0.00014,-9e-05,4e-05,0.00013000000000000002,-0.00031,-0.00018,-0.00053,3
12247,12643,0.00018999999999999998,-0.00014,-9e-05,4e-05,0.00013000000000000002,-0.00031,-0.00018,-0.00053,3
12248,12644,0.00018999999999999998,-0.00014,-9e-05,4e-05,0.00013000000000000002,-0.00031,-0.00018,-0.00053,3
12249,12645,0.00018999999999999998,-0.00014,-9e-05,4e-05,0.00013000000000000002,-0.00031,-0.00018,-0.00053,3
12250,12646,0.00018999999999999998,-0.00014,-9e-05,4e-05,0.00013000000000000002,-0.00031,-0.00018,-0.00053,3
12251,12647,0.00018999999999999998,-0.00014,-9e-05,4e-05,0.00013000000000000002,-0.00031,-0.00018,-0.00053,3
12252,12648,-8e-05,-0.0001,5e-05,-8e-05,2.9999999999999997e-05,0.00078,5e-05,0.00033,3
12253,12649,-8e-05,-0.0001,5e-05,-8e-05,2.9999999999999997e-05,0.00078,5e-05,0.00033,3
12254,12650,-0.00018999999999999998,-4e-05,-5e-05,-7e-05,-2e-05,-0.0007599999999999999,-0.0001,-0.00028,3
12255,12651,-0.00018999999999999998,-4e-05,-5e-05,-7e-05,-2e-05,-0.0007599999999999999,-0.0001,-0.00028,3
12256,12652,-0.00018999999999999998,-4e-05,-5e-05,-7e-05,-2e-05,-0.0007599999999999999,-0.0001,-0.00028,3
12257,12653,-0.00018999999999999998,-4e-05,-5e-05,-7e-05,-2e-05,-0.0007599999999999999,-0.0001,-0.00028,3
12258,12654,-0.00018999999999999998,-4e-05,-5e-05,-7e-05,-2e-05,-0.0007599999999999999,-0.0001,-0.00028,3
12259,12655,-0.00018999999999999998,-4e-05,-5e-05,-7e-05,-2e-05,-0.0007599999999999999,-0.0001,-0.00028,3
12260,12656,-0.00018999999999999998,-4e-05,-5e-05,-7e-05,-2e-05,-0.0007599999999999999,-0.0001,-0.00028,3
12261,12657,-0.00018999999999999998,-4e-05,-5e-05,-7e-05,-2e-05,-0.0007599999999999999,-0.0001,-0.00028,3
12262,12658,-0.00018999999999999998,-4e-05,-5e-05,-7e-05,-2e-05,-0.0007599999999999999,-0.0001,-0.00028,3
12263,12659,-0.00018999999999999998,-4e-05,-5e-05,-7e-05,-2e-05,-0.0007599999999999999,-0.0001,-0.00028,3
12264,12660,-0.00018999999999999998,-4e-05,-5e-05,-7e-05,-2e-05,-0.0007599999999999999,-0.0001,-0.00028,3
12265,12662,-0.00018999999999999998,-4e-05,-5e-05,-7e-05,-2e-05,-0.0007599999999999999,-0.0001,-0.00028,3
12266,12663,-0.00044,-0.00016999999999999999,0.0,0.0001,0.0002,-2.9999999999999997e-05,-0.00037999999999999997,0.00062,3
12267,12664,-0.00044,-0.00016999999999999999,0.0,0.0001,0.0002,-2.9999999999999997e-05,-0.00037999999999999997,0.00062,3
12268,12665,-0.0002,-0.00014,0.0,-2.9999999999999997e-05,0.0,-0.00018999999999999998,-0.00023999999999999998,-0.00014,3
12269,12666,-0.0002,-0.00014,0.0,-2.9999999999999997e-05,0.0,-0.00018999999999999998,-0.00023999999999999998,-0.00014,3
12270,12667,-0.0002,-0.00014,0.0,-2.9999999999999997e-05,0.0,-0.00018999999999999998,-0.00023999999999999998,-0.00014,3
12271,12668,-0.0002,-0.00014,0.0,-2.9999999999999997e-05,0.0,-0.00018999999999999998,-0.00023999999999999998,-0.00014,3
12272,12669,-0.0002,-0.00014,0.0,-2.9999999999999997e-05,0.0,-0.00018999999999999998,-0.00023999999999999998,-0.00014,3
12273,12670,-0.0002,-0.00014,0.0,-2.9999999999999997e-05,0.0,-0.00018999999999999998,-0.00023999999999999998,-0.00014,3
12274,12671,-0.0002,-0.00014,0.0,-2.9999999999999997e-05,0.0,-0.00018999999999999998,-0.00023999999999999998,-0.00014,3
12275,12672,-0.0002,-0.00014,0.0,-2.9999999999999997e-05,0.0,-0.00018999999999999998,-0.00023999999999999998,-0.00014,3
12276,12673,-0.0002,-0.00014,0.0,-2.9999999999999997e-05,0.0,-0.00018999999999999998,-0.00023999999999999998,-0.00014,3
12277,12674,-0.0002,-0.00014,0.0,-2.9999999999999997e-05,0.0,-0.00018999999999999998,-0.00023999999999999998,-0.00014,3
12278,12675,-0.0002,-0.00014,0.0,-2.9999999999999997e-05,0.0,-0.00018999999999999998,-0.00023999999999999998,-0.00014,3
12279,12676,-0.0002,-0.00014,0.0,-2.9999999999999997e-05,0.0,-0.00018999999999999998,-0.00023999999999999998,-0.00014,3
12280,12677,-0.0002,-0.00014,0.0,-2.9999999999999997e-05,0.0,-0.00018999999999999998,-0.00023999999999999998,-0.00014,3
12281,12678,-0.0002,-0.00014,0.0,-2.9999999999999997e-05,0.0,-0.00018999999999999998,-0.00023999999999999998,-0.00014,3
12282,12679,-0.0002,-0.00014,0.0,-2.9999999999999997e-05,0.0,-0.00018999999999999998,-0.00023999999999999998,-0.00014,3
12283,12680,-0.0002,-0.00014,0.0,-2.9999999999999997e-05,0.0,-0.00018999999999999998,-0.00023999999999999998,-0.00014,3
12284,12681,-0.0002,-0.00014,0.0,-2.9999999999999997e-05,0.0,-0.00018999999999999998,-0.00023999999999999998,-0.00014,3
12285,12682,-0.0002,-0.00014,0.0,-2.9999999999999997e-05,0.0,-0.00018999999999999998,-0.00023999999999999998,-0.00014,3
12286,12683,-0.0002,-0.00014,0.0,-2.9999999999999997e-05,0.0,-0.00018999999999999998,-0.00023999999999999998,-0.00014,3
12287,12684,-0.0002,-0.00014,0.0,-2.9999999999999997e-05,0.0,-0.00018999999999999998,-0.00023999999999999998,-0.00014,3
12288,12685,-0.0002,-0.00014,0.0,-2.9999999999999997e-05,0.0,-0.00018999999999999998,-0.00023999999999999998,-0.00014,3
12289,12686,-0.00037999999999999997,0.00021,2e-05,-0.0001,-0.00023999999999999998,-0.00018999999999999998,2.9999999999999997e-05,7e-05,3
12290,12688,-0.0007700000000000001,-0.00085,-0.00021,-8e-05,-7e-05,5.9999999999999995e-05,0.00044,0.00028,3
12291,12689,-0.0007700000000000001,-0.00085,-0.00021,-8e-05,-7e-05,5.9999999999999995e-05,0.00044,0.00028,3
12292,12690,-0.0007700000000000001,-0.00085,-0.00021,-8e-05,-7e-05,5.9999999999999995e-05,0.00044,0.00028,3
12293,12691,-0.0007700000000000001,-0.00085,-0.00021,-8e-05,-7e-05,5.9999999999999995e-05,0.00044,0.00028,3
12294,12692,-0.0007700000000000001,-0.00085,-0.00021,-8e-05,-7e-05,5.9999999999999995e-05,0.00044,0.00028,3
12295,12693,-0.0007700000000000001,-0.00085,-0.00021,-8e-05,-7e-05,5.9999999999999995e-05,0.00044,0.00028,3
12296,12694,-0.0007700000000000001,-0.00085,-0.00021,-8e-05,-7e-05,5.9999999999999995e-05,0.00044,0.00028,3
12297,12695,-0.0007700000000000001,-0.00085,-0.00021,-8e-05,-7e-05,5.9999999999999995e-05,0.00044,0.00028,3
12298,12696,-0.0007700000000000001,-0.00085,-0.00021,-8e-05,-7e-05,5.9999999999999995e-05,0.00044,0.00028,3
12299,12697,-0.0007700000000000001,-0.00085,-0.00021,-8e-05,-7e-05,5.9999999999999995e-05,0.00044,0.00028,3
12300,12698,-0.0007700000000000001,-0.00085,-0.00021,-8e-05,-7e-05,5.9999999999999995e-05,0.00044,0.00028,3
12301,12699,-0.0007700000000000001,-0.00085,-0.00021,-8e-05,-7e-05,5.9999999999999995e-05,0.00044,0.00028,3
12302,12700,-0.0007700000000000001,-0.00085,-0.00021,-8e-05,-7e-05,5.9999999999999995e-05,0.00044,0.00028,3
12303,12701,-0.0007700000000000001,-0.00085,-0.00021,-8e-05,-7e-05,5.9999999999999995e-05,0.00044,0.00028,3
12304,12702,-0.0007700000000000001,-0.00085,-0.00021,-8e-05,-7e-05,5.9999999999999995e-05,0.00044,0.00028,3
12305,12703,-0.0007700000000000001,-0.00085,-0.00021,-8e-05,-7e-05,5.9999999999999995e-05,0.00044,0.00028,3
12306,12704,-0.0007700000000000001,-0.00085,-0.00021,-8e-05,-7e-05,5.9999999999999995e-05,0.00044,0.00028,3
12307,12705,-0.0007700000000000001,-0.00085,-0.00021,-8e-05,-7e-05,5.9999999999999995e-05,0.00044,0.00028,3
12308,12706,-0.0007700000000000001,-0.00085,-0.00021,-8e-05,-7e-05,5.9999999999999995e-05,0.00044,0.00028,3
12309,12707,-0.0007700000000000001,-0.00085,-0.00021,-8e-05,-7e-05,5.9999999999999995e-05,0.00044,0.00028,3
12310,12708,0.00078,0.00018999999999999998,-2.9999999999999997e-05,-2.9999999999999997e-05,-8e-05,-8e-05,-4e-05,-0.00015,3
12311,12709,0.00078,0.00018999999999999998,-2.9999999999999997e-05,-2.9999999999999997e-05,-8e-05,-8e-05,-4e-05,-0.00015,3
12312,12710,-0.00058,-4e-05,-2.9999999999999997e-05,-9e-05,0.00023999999999999998,-0.00074,-0.00025,-0.00059,3
12313,12711,-0.00058,-4e-05,-2.9999999999999997e-05,-9e-05,0.00023999999999999998,-0.00074,-0.00025,-0.00059,3
12314,12712,-0.00058,-4e-05,-2.9999999999999997e-05,-9e-05,0.00023999999999999998,-0.00074,-0.00025,-0.00059,3
12315,12713,-0.00058,-4e-05,-2.9999999999999997e-05,-9e-05,0.00023999999999999998,-0.00074,-0.00025,-0.00059,3
12316,12714,-0.00058,-4e-05,-2.9999999999999997e-05,-9e-05,0.00023999999999999998,-0.00074,-0.00025,-0.00059,3
12317,12715,-0.00058,-4e-05,-2.9999999999999997e-05,-9e-05,0.00023999999999999998,-0.00074,-0.00025,-0.00059,3
12318,12716,-0.00058,-4e-05,-2.9999999999999997e-05,-9e-05,0.00023999999999999998,-0.00074,-0.00025,-0.00059,3
12319,12717,-0.00058,-4e-05,-2.9999999999999997e-05,-9e-05,0.00023999999999999998,-0.00074,-0.00025,-0.00059,3
12320,12718,-0.00058,-4e-05,-2.9999999999999997e-05,-9e-05,0.00023999999999999998,-0.00074,-0.00025,-0.00059,3
12321,12719,-0.00058,-4e-05,-2.9999999999999997e-05,-9e-05,0.00023999999999999998,-0.00074,-0.00025,-0.00059,3
12322,12720,-0.00058,-4e-05,-2.9999999999999997e-05,-9e-05,0.00023999999999999998,-0.00074,-0.00025,-0.00059,3
12323,12721,-0.00058,-4e-05,-2.9999999999999997e-05,-9e-05,0.00023999999999999998,-0.00074,-0.00025,-0.00059,3
12324,12722,-0.00058,-4e-05,-2.9999999999999997e-05,-9e-05,0.00023999999999999998,-0.00074,-0.00025,-0.00059,3
12325,12723,-9e-05,0.00011,4e-05,0.00014,-7e-05,5.9999999999999995e-05,-0.00027,0.00064,3
12326,12724,-9e-05,0.00011,4e-05,0.00014,-7e-05,5.9999999999999995e-05,-0.00027,0.00064,3
12327,12725,0.00054,0.00027,0.0001,9e-05,-2e-05,0.00059,0.00014,0.00044,3
12328,12726,0.00054,0.00027,0.0001,9e-05,-2e-05,0.00059,0.00014,0.00044,3
12329,12727,0.00054,0.00027,0.0001,9e-05,-2e-05,0.00059,0.00014,0.00044,3
12330,12728,0.00054,0.00027,0.0001,9e-05,-2e-05,0.00059,0.00014,0.00044,3
12331,12729,0.00054,0.00027,0.0001,9e-05,-2e-05,0.00059,0.00014,0.00044,3
12332,12730,0.00054,0.00027,0.0001,9e-05,-2e-05,0.00059,0.00014,0.00044,3
12333,12731,0.00054,0.00027,0.0001,9e-05,-2e-05,0.00059,0.00014,0.00044,3
12334,12732,0.00054,0.00027,0.0001,9e-05,-2e-05,0.00059,0.00014,0.00044,3
12335,12733,0.00054,0.00027,0.0001,9e-05,-2e-05,0.00059,0.00014,0.00044,3
12336,12734,0.00054,0.00027,0.0001,9e-05,-2e-05,0.00059,0.00014,0.00044,3
12337,12735,0.00054,0.00027,0.0001,9e-05,-2e-05,0.00059,0.00014,0.00044,3
12338,12737,0.00054,0.00027,0.0001,9e-05,-2e-05,0.00059,0.00014,0.00044,3
12339,12739,0.00054,0.00027,0.0001,9e-05,-2e-05,0.00059,0.00014,0.00044,3
12340,12740,0.00054,0.00027,0.0001,9e-05,-2e-05,0.00059,0.00014,0.00044,3
12341,12741,0.00054,0.00027,0.0001,9e-05,-2e-05,0.00059,0.00014,0.00044,3
12342,12742,0.00054,0.00027,0.0001,9e-05,-2e-05,0.00059,0.00014,0.00044,3
12343,12743,0.00054,0.00027,0.0001,9e-05,-2e-05,0.00059,0.00014,0.00044,3
12344,12744,0.00054,0.00027,0.0001,9e-05,-2e-05,0.00059,0.00014,0.00044,3
12345,12745,0.00054,0.00027,0.0001,9e-05,-2e-05,0.00059,0.00014,0.00044,3
12346,12746,-0.00075,-0.0005200000000000001,-7e-05,-5e-05,-0.00013000000000000002,-0.00062,0.0,-0.0006900000000000001,3
12347,12747,-0.00047999999999999996,-0.00014,-7e-05,8e-05,0.00022,-9e-05,-2.9999999999999997e-05,-0.00086,3
12348,12748,-0.00047999999999999996,-0.00014,-7e-05,8e-05,0.00022,-9e-05,-2.9999999999999997e-05,-0.00086,3
12349,12749,-0.00047999999999999996,-0.00014,-7e-05,8e-05,0.00022,-9e-05,-2.9999999999999997e-05,-0.00086,3
12350,12750,-0.00047999999999999996,-0.00014,-7e-05,8e-05,0.00022,-9e-05,-2.9999999999999997e-05,-0.00086,3
12351,12751,-0.00047999999999999996,-0.00014,-7e-05,8e-05,0.00022,-9e-05,-2.9999999999999997e-05,-0.00086,3
12352,12752,-0.00047999999999999996,-0.00014,-7e-05,8e-05,0.00022,-9e-05,-2.9999999999999997e-05,-0.00086,3
12353,12753,-0.00047999999999999996,-0.00014,-7e-05,8e-05,0.00022,-9e-05,-2.9999999999999997e-05,-0.00086,3
12354,12754,-0.00047999999999999996,-0.00014,-7e-05,8e-05,0.00022,-9e-05,-2.9999999999999997e-05,-0.00086,3
12355,12755,-0.00047999999999999996,-0.00014,-7e-05,8e-05,0.00022,-9e-05,-2.9999999999999997e-05,-0.00086,3
12356,12756,-0.00047999999999999996,-0.00014,-7e-05,8e-05,0.00022,-9e-05,-2.9999999999999997e-05,-0.00086,3
12357,12757,-0.00047999999999999996,-0.00014,-7e-05,8e-05,0.00022,-9e-05,-2.9999999999999997e-05,-0.00086,3
12358,12758,-0.00047999999999999996,-0.00014,-7e-05,8e-05,0.00022,-9e-05,-2.9999999999999997e-05,-0.00086,3
12359,12759,-0.00047999999999999996,-0.00014,-7e-05,8e-05,0.00022,-9e-05,-2.9999999999999997e-05,-0.00086,3
12360,12760,-0.00047999999999999996,-0.00014,-7e-05,8e-05,0.00022,-9e-05,-2.9999999999999997e-05,-0.00086,3
12361,12761,-0.00047999999999999996,-0.00014,-7e-05,8e-05,0.00022,-9e-05,-2.9999999999999997e-05,-0.00086,3
12362,12762,-0.00047999999999999996,-0.00014,-7e-05,8e-05,0.00022,-9e-05,-2.9999999999999997e-05,-0.00086,3
12363,12763,-0.00047999999999999996,-0.00014,-7e-05,8e-05,0.00022,-9e-05,-2.9999999999999997e-05,-0.00086,3
12364,12764,-0.00047999999999999996,-0.00014,-7e-05,8e-05,0.00022,-9e-05,-2.9999999999999997e-05,-0.00086,3
12365,12765,-0.00047999999999999996,-0.00014,-7e-05,8e-05,0.00022,-9e-05,-2.9999999999999997e-05,-0.00086,3
12366,12766,-0.00047999999999999996,-0.00014,-7e-05,8e-05,0.00022,-9e-05,-2.9999999999999997e-05,-0.00086,3
12367,12767,-0.00047999999999999996,-0.00014,-7e-05,8e-05,0.00022,-9e-05,-2.9999999999999997e-05,-0.00086,3
12368,12768,0.00016999999999999999,-2.9999999999999997e-05,7e-05,0.00013000000000000002,1e-05,-0.0005099999999999999,0.0002,-0.00045999999999999996,3
12369,12769,0.00016999999999999999,-2.9999999999999997e-05,7e-05,0.00013000000000000002,1e-05,-0.0005099999999999999,0.0002,-0.00045999999999999996,3
12370,12770,0.00049,0.00036,0.00013000000000000002,5.9999999999999995e-05,-5.9999999999999995e-05,-0.00035,-5.9999999999999995e-05,-0.0007,3
12371,12771,0.0008,-0.00016999999999999999,-5e-05,-5e-05,0.00016,0.00011999999999999999,-0.00021,-0.00085,3
12372,12772,0.0008,-0.00016999999999999999,-5e-05,-5e-05,0.00016,0.00011999999999999999,-0.00021,-0.00085,3
12373,12773,0.0008,-0.00016999999999999999,-5e-05,-5e-05,0.00016,0.00011999999999999999,-0.00021,-0.00085,3
12374,12774,0.0008,-0.00016999999999999999,-5e-05,-5e-05,0.00016,0.00011999999999999999,-0.00021,-0.00085,3
12375,12775,0.0008,-0.00016999999999999999,-5e-05,-5e-05,0.00016,0.00011999999999999999,-0.00021,-0.00085,3
12376,12776,0.0008,-0.00016999999999999999,-5e-05,-5e-05,0.00016,0.00011999999999999999,-0.00021,-0.00085,3
12377,12777,0.0008,-0.00016999999999999999,-5e-05,-5e-05,0.00016,0.00011999999999999999,-0.00021,-0.00085,3
12378,12778,0.0008,-0.00016999999999999999,-5e-05,-5e-05,0.00016,0.00011999999999999999,-0.00021,-0.00085,3
12379,12779,0.0008,-0.00016999999999999999,-5e-05,-5e-05,0.00016,0.00011999999999999999,-0.00021,-0.00085,3
12380,12780,0.0008,-0.00016999999999999999,-5e-05,-5e-05,0.00016,0.00011999999999999999,-0.00021,-0.00085,3
12381,12781,0.0008,-0.00016999999999999999,-5e-05,-5e-05,0.00016,0.00011999999999999999,-0.00021,-0.00085,3
12382,12782,0.0008,-0.00016999999999999999,-5e-05,-5e-05,0.00016,0.00011999999999999999,-0.00021,-0.00085,3
12383,12783,0.00067,0.0004,2.9999999999999997e-05,-2.9999999999999997e-05,0.00039,-2e-05,0.0001,-0.00035,3
12384,12784,0.00067,0.0004,2.9999999999999997e-05,-2.9999999999999997e-05,0.00039,-2e-05,0.0001,-0.00035,3
12385,12785,-5e-05,0.00041,4e-05,-1e-05,-0.00016999999999999999,1e-05,-0.0001,0.00013000000000000002,3
12386,12787,-5e-05,0.00041,4e-05,-1e-05,-0.00016999999999999999,1e-05,-0.0001,0.00013000000000000002,3
12387,12789,-5e-05,0.00041,4e-05,-1e-05,-0.00016999999999999999,1e-05,-0.0001,0.00013000000000000002,3
12388,12790,-5e-05,0.00041,4e-05,-1e-05,-0.00016999999999999999,1e-05,-0.0001,0.00013000000000000002,3
12389,12791,-5e-05,0.00041,4e-05,-1e-05,-0.00016999999999999999,1e-05,-0.0001,0.00013000000000000002,3
12390,12792,-5e-05,0.00041,4e-05,-1e-05,-0.00016999999999999999,1e-05,-0.0001,0.00013000000000000002,3
12391,12793,-5e-05,0.00041,4e-05,-1e-05,-0.00016999999999999999,1e-05,-0.0001,0.00013000000000000002,3
12392,12794,-5e-05,0.00041,4e-05,-1e-05,-0.00016999999999999999,1e-05,-0.0001,0.00013000000000000002,3
12393,12795,-5e-05,0.00041,4e-05,-1e-05,-0.00016999999999999999,1e-05,-0.0001,0.00013000000000000002,3
12394,12796,-5e-05,0.00041,4e-05,-1e-05,-0.00016999999999999999,1e-05,-0.0001,0.00013000000000000002,3
12395,12797,-5e-05,0.00041,4e-05,-1e-05,-0.00016999999999999999,1e-05,-0.0001,0.00013000000000000002,3
12396,12798,-5e-05,0.00041,4e-05,-1e-05,-0.00016999999999999999,1e-05,-0.0001,0.00013000000000000002,3
12397,12799,-5e-05,0.00041,4e-05,-1e-05,-0.00016999999999999999,1e-05,-0.0001,0.00013000000000000002,3
12398,12800,-5e-05,0.00041,4e-05,-1e-05,-0.00016999999999999999,1e-05,-0.0001,0.00013000000000000002,3
12399,12802,-5e-05,0.00041,4e-05,-1e-05,-0.00016999999999999999,1e-05,-0.0001,0.00013000000000000002,3
12400,12803,-5e-05,0.00041,4e-05,-1e-05,-0.00016999999999999999,1e-05,-0.0001,0.00013000000000000002,3
12401,12804,-5e-05,0.00041,4e-05,-1e-05,-0.00016999999999999999,1e-05,-0.0001,0.00013000000000000002,3
12402,12805,-5e-05,0.00041,4e-05,-1e-05,-0.00016999999999999999,1e-05,-0.0001,0.00013000000000000002,3
12403,12806,0.00031,-2e-05,2e-05,5.9999999999999995e-05,9e-05,5e-05,0.00013000000000000002,-0.0002,3
12404,12807,0.0003,0.00078,0.00013000000000000002,-1e-05,-0.00011,0.0002,5e-05,-5e-05,3
12405,12808,0.0003,0.00078,0.00013000000000000002,-1e-05,-0.00011,0.0002,5e-05,-5e-05,3
12406,12809,0.0003,0.00078,0.00013000000000000002,-1e-05,-0.00011,0.0002,5e-05,-5e-05,3
12407,12810,0.0003,0.00078,0.00013000000000000002,-1e-05,-0.00011,0.0002,5e-05,-5e-05,3
12408,12811,0.0003,0.00078,0.00013000000000000002,-1e-05,-0.00011,0.0002,5e-05,-5e-05,3
12409,12812,0.0003,0.00078,0.00013000000000000002,-1e-05,-0.00011,0.0002,5e-05,-5e-05,3
12410,12813,0.0003,0.00078,0.00013000000000000002,-1e-05,-0.00011,0.0002,5e-05,-5e-05,3
12411,12814,0.0003,0.00078,0.00013000000000000002,-1e-05,-0.00011,0.0002,5e-05,-5e-05,3
12412,12815,0.0003,0.00078,0.00013000000000000002,-1e-05,-0.00011,0.0002,5e-05,-5e-05,3
12413,12816,0.0003,0.00078,0.00013000000000000002,-1e-05,-0.00011,0.0002,5e-05,-5e-05,3
12414,12817,0.0003,0.00078,0.00013000000000000002,-1e-05,-0.00011,0.0002,5e-05,-5e-05,3
12415,12818,0.0003,0.00078,0.00013000000000000002,-1e-05,-0.00011,0.0002,5e-05,-5e-05,3
12416,12819,0.0003,0.00078,0.00013000000000000002,-1e-05,-0.00011,0.0002,5e-05,-5e-05,3
12417,12820,0.0003,0.00078,0.00013000000000000002,-1e-05,-0.00011,0.0002,5e-05,-5e-05,3
12418,12821,0.0003,0.00078,0.00013000000000000002,-1e-05,-0.00011,0.0002,5e-05,-5e-05,3
12419,12822,0.0003,0.00078,0.00013000000000000002,-1e-05,-0.00011,0.0002,5e-05,-5e-05,3
12420,12823,0.0003,0.00078,0.00013000000000000002,-1e-05,-0.00011,0.0002,5e-05,-5e-05,3
12421,12824,0.0003,0.00078,0.00013000000000000002,-1e-05,-0.00011,0.0002,5e-05,-5e-05,3
12422,12825,0.0003,0.00078,0.00013000000000000002,-1e-05,-0.00011,0.0002,5e-05,-5e-05,3
12423,12826,0.0003,0.00078,0.00013000000000000002,-1e-05,-0.00011,0.0002,5e-05,-5e-05,3
12424,12827,0.0003,0.00078,0.00013000000000000002,-1e-05,-0.00011,0.0002,5e-05,-5e-05,3
12425,12828,-0.00016999999999999999,0.00067,5e-05,-5.9999999999999995e-05,-0.00028,-0.00078,-5.9999999999999995e-05,-0.0004,3
12426,12829,-0.00016999999999999999,0.00067,5e-05,-5.9999999999999995e-05,-0.00028,-0.00078,-5.9999999999999995e-05,-0.0004,3
12427,12830,-0.00029,-0.00018999999999999998,-4e-05,8e-05,0.00011999999999999999,-0.00016999999999999999,-0.00035,0.00023999999999999998,3
12428,12831,-0.00029,-0.00018999999999999998,-4e-05,8e-05,0.00011999999999999999,-0.00016999999999999999,-0.00035,0.00023999999999999998,3
12429,12832,-0.00029,-0.00018999999999999998,-4e-05,8e-05,0.00011999999999999999,-0.00016999999999999999,-0.00035,0.00023999999999999998,3
12430,12833,-0.00029,-0.00018999999999999998,-4e-05,8e-05,0.00011999999999999999,-0.00016999999999999999,-0.00035,0.00023999999999999998,3
12431,12834,-0.00029,-0.00018999999999999998,-4e-05,8e-05,0.00011999999999999999,-0.00016999999999999999,-0.00035,0.00023999999999999998,3
12432,12835,-0.00029,-0.00018999999999999998,-4e-05,8e-05,0.00011999999999999999,-0.00016999999999999999,-0.00035,0.00023999999999999998,3
12433,12837,-0.00029,-0.00018999999999999998,-4e-05,8e-05,0.00011999999999999999,-0.00016999999999999999,-0.00035,0.00023999999999999998,3
12434,12839,-0.00029,-0.00018999999999999998,-4e-05,8e-05,0.00011999999999999999,-0.00016999999999999999,-0.00035,0.00023999999999999998,3
12435,12840,-0.00029,-0.00018999999999999998,-4e-05,8e-05,0.00011999999999999999,-0.00016999999999999999,-0.00035,0.00023999999999999998,3
12436,12841,-0.00029,-0.00018999999999999998,-4e-05,8e-05,0.00011999999999999999,-0.00016999999999999999,-0.00035,0.00023999999999999998,3
12437,12842,-0.00026000000000000003,0.00029,-2.9999999999999997e-05,-0.0001,-7e-05,-0.00025,0.00016999999999999999,0.00029,3
12438,12843,2.9999999999999997e-05,-0.00015,1e-05,0.00022999999999999998,0.00033999999999999997,0.00042,0.00031,-0.0008,3
12439,12844,2.9999999999999997e-05,-0.00015,1e-05,0.00022999999999999998,0.00033999999999999997,0.00042,0.00031,-0.0008,3
12440,12845,2.9999999999999997e-05,-0.00015,1e-05,0.00022999999999999998,0.00033999999999999997,0.00042,0.00031,-0.0008,3
12441,12846,2.9999999999999997e-05,-0.00015,1e-05,0.00022999999999999998,0.00033999999999999997,0.00042,0.00031,-0.0008,3
12442,12847,2.9999999999999997e-05,-0.00015,1e-05,0.00022999999999999998,0.00033999999999999997,0.00042,0.00031,-0.0008,3
12443,12848,2.9999999999999997e-05,-0.00015,1e-05,0.00022999999999999998,0.00033999999999999997,0.00042,0.00031,-0.0008,3
12444,12849,2.9999999999999997e-05,-0.00015,1e-05,0.00022999999999999998,0.00033999999999999997,0.00042,0.00031,-0.0008,3
12445,12850,0.00054,-0.00014,-1e-05,-0.00011,-0.00025,0.00025,-5e-05,-0.00036,3
12446,12851,0.00054,-0.00014,-1e-05,-0.00011,-0.00025,0.00025,-5e-05,-0.00036,3
12447,12852,0.00054,-0.00014,-1e-05,-0.00011,-0.00025,0.00025,-5e-05,-0.00036,3
12448,12853,0.00054,-0.00014,-1e-05,-0.00011,-0.00025,0.00025,-5e-05,-0.00036,3
12449,12854,0.00054,-0.00014,-1e-05,-0.00011,-0.00025,0.00025,-5e-05,-0.00036,3
12450,12855,0.00054,-0.00014,-1e-05,-0.00011,-0.00025,0.00025,-5e-05,-0.00036,3
12451,12856,0.00054,-0.00014,-1e-05,-0.00011,-0.00025,0.00025,-5e-05,-0.00036,3
12452,12857,0.00054,-0.00014,-1e-05,-0.00011,-0.00025,0.00025,-5e-05,-0.00036,3
12453,12858,0.00054,-0.00014,-1e-05,-0.00011,-0.00025,0.00025,-5e-05,-0.00036,3
12454,12859,0.00054,-0.00014,-1e-05,-0.00011,-0.00025,0.00025,-5e-05,-0.00036,3
12455,12860,0.00054,-0.00014,-1e-05,-0.00011,-0.00025,0.00025,-5e-05,-0.00036,3
12456,12861,0.00054,-0.00014,-1e-05,-0.00011,-0.00025,0.00025,-5e-05,-0.00036,3
12457,12862,0.00054,-0.00014,-1e-05,-0.00011,-0.00025,0.00025,-5e-05,-0.00036,3
12458,12863,0.00054,-0.00014,-1e-05,-0.00011,-0.00025,0.00025,-5e-05,-0.00036,3
12459,12864,0.00054,-0.00014,-1e-05,-0.00011,-0.00025,0.00025,-5e-05,-0.00036,3
12460,12865,0.00054,-0.00014,-1e-05,-0.00011,-0.00025,0.00025,-5e-05,-0.00036,3
12461,12866,7e-05,-0.00041,-0.0001,-0.00011,-0.00013000000000000002,-0.0005,-0.0005099999999999999,-2.9999999999999997e-05,3
12462,12867,-0.00025,-0.00014,1e-05,-1e-05,-2.9999999999999997e-05,-0.00036,-0.00016999999999999999,0.00031,3
12463,12868,-0.00025,-0.00014,1e-05,-1e-05,-2.9999999999999997e-05,-0.00036,-0.00016999999999999999,0.00031,3
12464,12870,-0.00025,-0.00014,1e-05,-1e-05,-2.9999999999999997e-05,-0.00036,-0.00016999999999999999,0.00031,3
12465,12871,-0.00025,-0.00014,1e-05,-1e-05,-2.9999999999999997e-05,-0.00036,-0.00016999999999999999,0.00031,3
12466,12872,-0.00025,-0.00014,1e-05,-1e-05,-2.9999999999999997e-05,-0.00036,-0.00016999999999999999,0.00031,3
12467,12873,-0.00025,-0.00014,1e-05,-1e-05,-2.9999999999999997e-05,-0.00036,-0.00016999999999999999,0.00031,3
12468,12874,-0.00025,-0.00014,1e-05,-1e-05,-2.9999999999999997e-05,-0.00036,-0.00016999999999999999,0.00031,3
12469,12875,-0.00025,-0.00014,1e-05,-1e-05,-2.9999999999999997e-05,-0.00036,-0.00016999999999999999,0.00031,3
12470,12877,-0.00025,-0.00014,1e-05,-1e-05,-2.9999999999999997e-05,-0.00036,-0.00016999999999999999,0.00031,3
12471,12878,-0.00025,-0.00014,1e-05,-1e-05,-2.9999999999999997e-05,-0.00036,-0.00016999999999999999,0.00031,3
12472,12879,-0.00025,-0.00014,1e-05,-1e-05,-2.9999999999999997e-05,-0.00036,-0.00016999999999999999,0.00031,3
12473,12880,-0.00025,-0.00014,1e-05,-1e-05,-2.9999999999999997e-05,-0.00036,-0.00016999999999999999,0.00031,3
12474,12881,-0.00025,-0.00014,1e-05,-1e-05,-2.9999999999999997e-05,-0.00036,-0.00016999999999999999,0.00031,3
12475,12882,-0.00025,-0.00014,1e-05,-1e-05,-2.9999999999999997e-05,-0.00036,-0.00016999999999999999,0.00031,3
12476,12883,-0.00025,-0.00014,1e-05,-1e-05,-2.9999999999999997e-05,-0.00036,-0.00016999999999999999,0.00031,3
12477,12884,-0.00025,-0.00014,1e-05,-1e-05,-2.9999999999999997e-05,-0.00036,-0.00016999999999999999,0.00031,3
12478,12885,-0.00025,-0.00014,1e-05,-1e-05,-2.9999999999999997e-05,-0.00036,-0.00016999999999999999,0.00031,3
12479,12886,-0.00025,-0.00014,1e-05,-1e-05,-2.9999999999999997e-05,-0.00036,-0.00016999999999999999,0.00031,3
12480,12889,5.9999999999999995e-05,0.00025,5.9999999999999995e-05,5e-05,-0.00011,0.0007700000000000001,-0.00011,0.0009699999999999999,3
12481,12890,0.00063,0.0005099999999999999,0.00011,0.00011999999999999999,9e-05,2.9999999999999997e-05,0.00039,0.00119,3
12482,12891,0.00063,0.0005099999999999999,0.00011,0.00011999999999999999,9e-05,2.9999999999999997e-05,0.00039,0.00119,3
12483,12892,0.00063,0.0005099999999999999,0.00011,0.00011999999999999999,9e-05,2.9999999999999997e-05,0.00039,0.00119,3
12484,12893,0.00063,0.0005099999999999999,0.00011,0.00011999999999999999,9e-05,2.9999999999999997e-05,0.00039,0.00119,3
12485,12894,0.00063,0.0005099999999999999,0.00011,0.00011999999999999999,9e-05,2.9999999999999997e-05,0.00039,0.00119,3
12486,12895,0.00063,0.0005099999999999999,0.00011,0.00011999999999999999,9e-05,2.9999999999999997e-05,0.00039,0.00119,3
12487,12896,0.00063,0.0005099999999999999,0.00011,0.00011999999999999999,9e-05,2.9999999999999997e-05,0.00039,0.00119,3
12488,12897,0.00063,0.0005099999999999999,0.00011,0.00011999999999999999,9e-05,2.9999999999999997e-05,0.00039,0.00119,3
12489,12898,0.00063,0.0005099999999999999,0.00011,0.00011999999999999999,9e-05,2.9999999999999997e-05,0.00039,0.00119,3
12490,12899,0.00063,0.0005099999999999999,0.00011,0.00011999999999999999,9e-05,2.9999999999999997e-05,0.00039,0.00119,3
12491,12900,0.00063,0.0005099999999999999,0.00011,0.00011999999999999999,9e-05,2.9999999999999997e-05,0.00039,0.00119,3
12492,12901,0.00063,0.0005099999999999999,0.00011,0.00011999999999999999,9e-05,2.9999999999999997e-05,0.00039,0.00119,3
12493,12902,0.00063,0.0005099999999999999,0.00011,0.00011999999999999999,9e-05,2.9999999999999997e-05,0.00039,0.00119,3
12494,12903,2.9999999999999997e-05,-5e-05,1e-05,8e-05,0.00022,0.0002,0.00018,0.00033999999999999997,3
12495,12904,2.9999999999999997e-05,-5e-05,1e-05,8e-05,0.00022,0.0002,0.00018,0.00033999999999999997,3
12496,12905,2.9999999999999997e-05,-5e-05,1e-05,8e-05,0.00022,0.0002,0.00018,0.00033999999999999997,3
12497,12906,2.9999999999999997e-05,-5e-05,1e-05,8e-05,0.00022,0.0002,0.00018,0.00033999999999999997,3
12498,12907,2.9999999999999997e-05,-5e-05,1e-05,8e-05,0.00022,0.0002,0.00018,0.00033999999999999997,3
12499,12908,2.9999999999999997e-05,-5e-05,1e-05,8e-05,0.00022,0.0002,0.00018,0.00033999999999999997,3
12500,12909,-0.00039,-0.0006900000000000001,-7e-05,-0.00016,-0.00037999999999999997,5e-05,-7e-05,-0.00063,3
12501,12910,-0.00039,-0.0006900000000000001,-7e-05,-0.00016,-0.00037999999999999997,5e-05,-7e-05,-0.00063,3
12502,12911,-0.00039,-0.0006900000000000001,-7e-05,-0.00016,-0.00037999999999999997,5e-05,-7e-05,-0.00063,3
12503,12912,-0.00039,-0.0006900000000000001,-7e-05,-0.00016,-0.00037999999999999997,5e-05,-7e-05,-0.00063,3
12504,12913,-0.00039,-0.0006900000000000001,-7e-05,-0.00016,-0.00037999999999999997,5e-05,-7e-05,-0.00063,3
12505,12914,-0.00039,-0.0006900000000000001,-7e-05,-0.00016,-0.00037999999999999997,5e-05,-7e-05,-0.00063,3
12506,12915,-0.00039,-0.0006900000000000001,-7e-05,-0.00016,-0.00037999999999999997,5e-05,-7e-05,-0.00063,3
12507,12916,-0.00039,-0.0006900000000000001,-7e-05,-0.00016,-0.00037999999999999997,5e-05,-7e-05,-0.00063,3
12508,12917,-0.00039,-0.0006900000000000001,-7e-05,-0.00016,-0.00037999999999999997,5e-05,-7e-05,-0.00063,3
12509,12918,-0.00039,-0.0006900000000000001,-7e-05,-0.00016,-0.00037999999999999997,5e-05,-7e-05,-0.00063,3
12510,12919,-0.00039,-0.0006900000000000001,-7e-05,-0.00016,-0.00037999999999999997,5e-05,-7e-05,-0.00063,3
12511,12920,-0.00039,-0.0006900000000000001,-7e-05,-0.00016,-0.00037999999999999997,5e-05,-7e-05,-0.00063,3
12512,12921,-0.00039,-0.0006900000000000001,-7e-05,-0.00016,-0.00037999999999999997,5e-05,-7e-05,-0.00063,3
12513,12922,-0.00039,-0.0006900000000000001,-7e-05,-0.00016,-0.00037999999999999997,5e-05,-7e-05,-0.00063,3
12514,12923,-0.00039,-0.0006900000000000001,-7e-05,-0.00016,-0.00037999999999999997,5e-05,-7e-05,-0.00063,3
12515,12924,-0.00039,-0.0006900000000000001,-7e-05,-0.00016,-0.00037999999999999997,5e-05,-7e-05,-0.00063,3
12516,12925,-0.00039,-0.0006900000000000001,-7e-05,-0.00016,-0.00037999999999999997,5e-05,-7e-05,-0.00063,3
12517,12926,-0.00014,5.9999999999999995e-05,1e-05,0.00016999999999999999,0.0001,0.00031,0.0005,-0.0005200000000000001,3
12518,12927,-0.00041,2e-05,2.9999999999999997e-05,0.0001,0.00025,0.0002,-9e-05,-0.00059,3
12519,12928,-0.00041,2e-05,2.9999999999999997e-05,0.0001,0.00025,0.0002,-9e-05,-0.00059,3
12520,12929,-0.00041,2e-05,2.9999999999999997e-05,0.0001,0.00025,0.0002,-9e-05,-0.00059,3
12521,12930,-0.00041,2e-05,2.9999999999999997e-05,0.0001,0.00025,0.0002,-9e-05,-0.00059,3
12522,12931,-0.00041,2e-05,2.9999999999999997e-05,0.0001,0.00025,0.0002,-9e-05,-0.00059,3
12523,12932,-0.00041,2e-05,2.9999999999999997e-05,0.0001,0.00025,0.0002,-9e-05,-0.00059,3
12524,12933,-0.00041,2e-05,2.9999999999999997e-05,0.0001,0.00025,0.0002,-9e-05,-0.00059,3
12525,12934,-0.00041,2e-05,2.9999999999999997e-05,0.0001,0.00025,0.0002,-9e-05,-0.00059,3
12526,12935,-0.00041,2e-05,2.9999999999999997e-05,0.0001,0.00025,0.0002,-9e-05,-0.00059,3
12527,12937,-0.00041,2e-05,2.9999999999999997e-05,0.0001,0.00025,0.0002,-9e-05,-0.00059,3
12528,12939,-0.00041,2e-05,2.9999999999999997e-05,0.0001,0.00025,0.0002,-9e-05,-0.00059,3
12529,12940,-0.00041,2e-05,2.9999999999999997e-05,0.0001,0.00025,0.0002,-9e-05,-0.00059,3
12530,12941,-0.00041,2e-05,2.9999999999999997e-05,0.0001,0.00025,0.0002,-9e-05,-0.00059,3
12531,12942,-0.00041,2e-05,2.9999999999999997e-05,0.0001,0.00025,0.0002,-9e-05,-0.00059,3
12532,12943,-0.00041,2e-05,2.9999999999999997e-05,0.0001,0.00025,0.0002,-9e-05,-0.00059,3
12533,12944,-0.00041,2e-05,2.9999999999999997e-05,0.0001,0.00025,0.0002,-9e-05,-0.00059,3
12534,12945,-0.00041,2e-05,2.9999999999999997e-05,0.0001,0.00025,0.0002,-9e-05,-0.00059,3
12535,12946,-0.00041,2e-05,2.9999999999999997e-05,0.0001,0.00025,0.0002,-9e-05,-0.00059,3
12536,12947,-0.00041,2e-05,2.9999999999999997e-05,0.0001,0.00025,0.0002,-9e-05,-0.00059,3
12537,12948,-0.00054,-0.00029,-0.00013000000000000002,-0.00033,-0.00047999999999999996,-0.0007,-0.00013000000000000002,-0.00015,3
12538,12949,-0.00054,-0.00029,-0.00013000000000000002,-0.00033,-0.00047999999999999996,-0.0007,-0.00013000000000000002,-0.00015,3
12539,12950,2.9999999999999997e-05,-0.00029,-2e-05,1e-05,0.0,0.00013000000000000002,-0.00029,0.00054,3
12540,12951,2.9999999999999997e-05,-0.00029,-2e-05,1e-05,0.0,0.00013000000000000002,-0.00029,0.00054,3
12541,12952,2.9999999999999997e-05,-0.00029,-2e-05,1e-05,0.0,0.00013000000000000002,-0.00029,0.00054,3
12542,12953,2.9999999999999997e-05,-0.00029,-2e-05,1e-05,0.0,0.00013000000000000002,-0.00029,0.00054,3
12543,12954,2.9999999999999997e-05,-0.00029,-2e-05,1e-05,0.0,0.00013000000000000002,-0.00029,0.00054,3
12544,12955,2.9999999999999997e-05,-0.00029,-2e-05,1e-05,0.0,0.00013000000000000002,-0.00029,0.00054,3
12545,12956,2.9999999999999997e-05,-0.00029,-2e-05,1e-05,0.0,0.00013000000000000002,-0.00029,0.00054,3
12546,12957,2.9999999999999997e-05,-0.00029,-2e-05,1e-05,0.0,0.00013000000000000002,-0.00029,0.00054,3
12547,12958,2.9999999999999997e-05,-0.00029,-2e-05,1e-05,0.0,0.00013000000000000002,-0.00029,0.00054,3
12548,12959,2.9999999999999997e-05,-0.00029,-2e-05,1e-05,0.0,0.00013000000000000002,-0.00029,0.00054,3
12549,12960,2.9999999999999997e-05,-0.00029,-2e-05,1e-05,0.0,0.00013000000000000002,-0.00029,0.00054,3
12550,12961,2.9999999999999997e-05,-0.00029,-2e-05,1e-05,0.0,0.00013000000000000002,-0.00029,0.00054,3
12551,12962,-0.0004,5e-05,2.9999999999999997e-05,1e-05,7e-05,0.00057,0.00023999999999999998,-0.0009599999999999999,3
12552,12963,-0.00029,-0.00031,-5e-05,0.0,-0.00011,-0.00011,-0.00014,0.00073,3
12553,12964,-0.00029,-0.00031,-5e-05,0.0,-0.00011,-0.00011,-0.00014,0.00073,3
12554,12965,-0.00029,-0.00031,-5e-05,0.0,-0.00011,-0.00011,-0.00014,0.00073,3
12555,12966,-0.00029,-0.00031,-5e-05,0.0,-0.00011,-0.00011,-0.00014,0.00073,3
12556,12967,-0.00029,-0.00031,-5e-05,0.0,-0.00011,-0.00011,-0.00014,0.00073,3
12557,12968,-0.00029,-0.00031,-5e-05,0.0,-0.00011,-0.00011,-0.00014,0.00073,3
12558,12969,-9e-05,5.9999999999999995e-05,-1e-05,-8e-05,-2.9999999999999997e-05,-0.00022999999999999998,0.00025,0.00035,3
12559,12970,-0.00033,-0.00022,-5.9999999999999995e-05,-2.9999999999999997e-05,-0.00028,-0.00032,-0.00015,0.00095,3
12560,12971,-0.00033,-0.00022,-5.9999999999999995e-05,-2.9999999999999997e-05,-0.00028,-0.00032,-0.00015,0.00095,3
12561,12972,-0.00033,-0.00022,-5.9999999999999995e-05,-2.9999999999999997e-05,-0.00028,-0.00032,-0.00015,0.00095,3
12562,12973,-0.00033,-0.00022,-5.9999999999999995e-05,-2.9999999999999997e-05,-0.00028,-0.00032,-0.00015,0.00095,3
12563,12974,-0.00033,-0.00022,-5.9999999999999995e-05,-2.9999999999999997e-05,-0.00028,-0.00032,-0.00015,0.00095,3
12564,12975,-0.00033,-0.00022,-5.9999999999999995e-05,-2.9999999999999997e-05,-0.00028,-0.00032,-0.00015,0.00095,3
12565,12976,-0.00033,-0.00022,-5.9999999999999995e-05,-2.9999999999999997e-05,-0.00028,-0.00032,-0.00015,0.00095,3
12566,12977,-0.00033,-0.00022,-5.9999999999999995e-05,-2.9999999999999997e-05,-0.00028,-0.00032,-0.00015,0.00095,3
12567,12978,-0.00033,-0.00022,-5.9999999999999995e-05,-2.9999999999999997e-05,-0.00028,-0.00032,-0.00015,0.00095,3
12568,12979,-0.00033,-0.00022,-5.9999999999999995e-05,-2.9999999999999997e-05,-0.00028,-0.00032,-0.00015,0.00095,3
12569,12980,-0.00033,-0.00022,-5.9999999999999995e-05,-2.9999999999999997e-05,-0.00028,-0.00032,-0.00015,0.00095,3
12570,12981,-0.00033,-0.00022,-5.9999999999999995e-05,-2.9999999999999997e-05,-0.00028,-0.00032,-0.00015,0.00095,3
12571,12982,-0.00033,-0.00022,-5.9999999999999995e-05,-2.9999999999999997e-05,-0.00028,-0.00032,-0.00015,0.00095,3
12572,12983,-0.00033,-0.00022,-5.9999999999999995e-05,-2.9999999999999997e-05,-0.00028,-0.00032,-0.00015,0.00095,3
12573,12984,-0.00033,-0.00022,-5.9999999999999995e-05,-2.9999999999999997e-05,-0.00028,-0.00032,-0.00015,0.00095,3
12574,12985,0.0010400000000000001,0.00045,7e-05,0.0001,0.00029,0.0006799999999999999,-5.9999999999999995e-05,-5.9999999999999995e-05,3
12575,12987,-0.00042,-0.00059,-7e-05,-0.00016,-0.00014,7e-05,0.0005,0.0004,3
12576,12989,-0.00014,0.00011,-5.9999999999999995e-05,-5.9999999999999995e-05,0.00033,0.00015,0.00037999999999999997,-0.0005,3
12577,12990,-0.00014,0.00011,-5.9999999999999995e-05,-5.9999999999999995e-05,0.00033,0.00015,0.00037999999999999997,-0.0005,3
12578,12991,-0.00014,0.00011,-5.9999999999999995e-05,-5.9999999999999995e-05,0.00033,0.00015,0.00037999999999999997,-0.0005,3
12579,12992,-0.00014,0.00011,-5.9999999999999995e-05,-5.9999999999999995e-05,0.00033,0.00015,0.00037999999999999997,-0.0005,3
12580,12993,-0.00014,0.00011,-5.9999999999999995e-05,-5.9999999999999995e-05,0.00033,0.00015,0.00037999999999999997,-0.0005,3
12581,12994,-0.00014,0.00011,-5.9999999999999995e-05,-5.9999999999999995e-05,0.00033,0.00015,0.00037999999999999997,-0.0005,3
12582,12995,-0.00014,0.00011,-5.9999999999999995e-05,-5.9999999999999995e-05,0.00033,0.00015,0.00037999999999999997,-0.0005,3
12583,12996,-0.00014,0.00011,-5.9999999999999995e-05,-5.9999999999999995e-05,0.00033,0.00015,0.00037999999999999997,-0.0005,3
12584,12997,-0.00014,0.00011,-5.9999999999999995e-05,-5.9999999999999995e-05,0.00033,0.00015,0.00037999999999999997,-0.0005,3
12585,12998,-0.00014,0.00011,-5.9999999999999995e-05,-5.9999999999999995e-05,0.00033,0.00015,0.00037999999999999997,-0.0005,3
12586,12999,-0.00014,0.00011,-5.9999999999999995e-05,-5.9999999999999995e-05,0.00033,0.00015,0.00037999999999999997,-0.0005,3
12587,13000,-0.00014,0.00011,-5.9999999999999995e-05,-5.9999999999999995e-05,0.00033,0.00015,0.00037999999999999997,-0.0005,3
12588,13001,-0.00014,0.00011,-5.9999999999999995e-05,-5.9999999999999995e-05,0.00033,0.00015,0.00037999999999999997,-0.0005,3
12589,13002,-0.00014,0.00011,-5.9999999999999995e-05,-5.9999999999999995e-05,0.00033,0.00015,0.00037999999999999997,-0.0005,3
12590,13003,-0.00014,0.00011,-5.9999999999999995e-05,-5.9999999999999995e-05,0.00033,0.00015,0.00037999999999999997,-0.0005,3
12591,13004,-0.00014,0.00011,-5.9999999999999995e-05,-5.9999999999999995e-05,0.00033,0.00015,0.00037999999999999997,-0.0005,3
12592,13005,-0.00014,0.00011,-5.9999999999999995e-05,-5.9999999999999995e-05,0.00033,0.00015,0.00037999999999999997,-0.0005,3
12593,13006,-0.00014,0.00011,-5.9999999999999995e-05,-5.9999999999999995e-05,0.00033,0.00015,0.00037999999999999997,-0.0005,3
12594,13007,-0.00014,0.00011,-5.9999999999999995e-05,-5.9999999999999995e-05,0.00033,0.00015,0.00037999999999999997,-0.0005,3
12595,13008,-0.00045,-0.00013000000000000002,-2e-05,9e-05,2e-05,0.00011,-0.00032,0.00015,3
12596,13009,-0.00045,-0.00013000000000000002,-2e-05,9e-05,2e-05,0.00011,-0.00032,0.00015,3
12597,13010,-8e-05,0.00045,2e-05,-5e-05,-0.00025,-5e-05,0.0,-8e-05,3
12598,13011,-8e-05,0.00045,2e-05,-5e-05,-0.00025,-5e-05,0.0,-8e-05,3
12599,13012,-8e-05,0.00045,2e-05,-5e-05,-0.00025,-5e-05,0.0,-8e-05,3
12600,13013,-8e-05,0.00045,2e-05,-5e-05,-0.00025,-5e-05,0.0,-8e-05,3
12601,13014,-8e-05,0.00045,2e-05,-5e-05,-0.00025,-5e-05,0.0,-8e-05,3
12602,13015,-8e-05,0.00045,2e-05,-5e-05,-0.00025,-5e-05,0.0,-8e-05,3
12603,13016,-8e-05,0.00045,2e-05,-5e-05,-0.00025,-5e-05,0.0,-8e-05,3
12604,13017,-8e-05,0.00045,2e-05,-5e-05,-0.00025,-5e-05,0.0,-8e-05,3
12605,13018,-8e-05,0.00045,2e-05,-5e-05,-0.00025,-5e-05,0.0,-8e-05,3
12606,13019,-8e-05,0.00045,2e-05,-5e-05,-0.00025,-5e-05,0.0,-8e-05,3
12607,13020,-8e-05,0.00045,2e-05,-5e-05,-0.00025,-5e-05,0.0,-8e-05,3
12608,13021,-8e-05,0.00045,2e-05,-5e-05,-0.00025,-5e-05,0.0,-8e-05,3
12609,13022,-8e-05,0.00045,2e-05,-5e-05,-0.00025,-5e-05,0.0,-8e-05,3
12610,13023,-0.00033,-9e-05,-2e-05,-2.9999999999999997e-05,2e-05,-5.9999999999999995e-05,-0.00044,0.0,3
12611,13024,-0.00033,-9e-05,-2e-05,-2.9999999999999997e-05,2e-05,-5.9999999999999995e-05,-0.00044,0.0,3
12612,13025,-0.00033,-9e-05,-2e-05,-2.9999999999999997e-05,2e-05,-5.9999999999999995e-05,-0.00044,0.0,3
12613,13026,-0.00033,-9e-05,-2e-05,-2.9999999999999997e-05,2e-05,-5.9999999999999995e-05,-0.00044,0.0,3
12614,13027,-0.00033,-9e-05,-2e-05,-2.9999999999999997e-05,2e-05,-5.9999999999999995e-05,-0.00044,0.0,3
12615,13028,-0.00033,-9e-05,-2e-05,-2.9999999999999997e-05,2e-05,-5.9999999999999995e-05,-0.00044,0.0,3
12616,13029,-0.00011999999999999999,0.00031,1e-05,-2.9999999999999997e-05,-4e-05,-0.0001,-0.00021,0.00011999999999999999,3
12617,13030,-0.00011999999999999999,0.00031,1e-05,-2.9999999999999997e-05,-4e-05,-0.0001,-0.00021,0.00011999999999999999,3
12618,13031,-0.00011999999999999999,0.00031,1e-05,-2.9999999999999997e-05,-4e-05,-0.0001,-0.00021,0.00011999999999999999,3
12619,13032,-0.00011999999999999999,0.00031,1e-05,-2.9999999999999997e-05,-4e-05,-0.0001,-0.00021,0.00011999999999999999,3
12620,13033,-0.00011999999999999999,0.00031,1e-05,-2.9999999999999997e-05,-4e-05,-0.0001,-0.00021,0.00011999999999999999,3
12621,13034,-0.00011999999999999999,0.00031,1e-05,-2.9999999999999997e-05,-4e-05,-0.0001,-0.00021,0.00011999999999999999,3
12622,13035,-0.00011999999999999999,0.00031,1e-05,-2.9999999999999997e-05,-4e-05,-0.0001,-0.00021,0.00011999999999999999,3
12623,13036,-0.00011999999999999999,0.00031,1e-05,-2.9999999999999997e-05,-4e-05,-0.0001,-0.00021,0.00011999999999999999,3
12624,13039,-0.00011999999999999999,0.00031,1e-05,-2.9999999999999997e-05,-4e-05,-0.0001,-0.00021,0.00011999999999999999,3
12625,13040,-0.00011999999999999999,0.00031,1e-05,-2.9999999999999997e-05,-4e-05,-0.0001,-0.00021,0.00011999999999999999,3
12626,13041,-0.00011999999999999999,0.00031,1e-05,-2.9999999999999997e-05,-4e-05,-0.0001,-0.00021,0.00011999999999999999,3
12627,13042,-0.00011999999999999999,0.00031,1e-05,-2.9999999999999997e-05,-4e-05,-0.0001,-0.00021,0.00011999999999999999,3
12628,13043,-0.00011999999999999999,0.00031,1e-05,-2.9999999999999997e-05,-4e-05,-0.0001,-0.00021,0.00011999999999999999,3
12629,13044,-0.00011999999999999999,0.00031,1e-05,-2.9999999999999997e-05,-4e-05,-0.0001,-0.00021,0.00011999999999999999,3
12630,13045,-0.00011999999999999999,0.00031,1e-05,-2.9999999999999997e-05,-4e-05,-0.0001,-0.00021,0.00011999999999999999,3
12631,13046,0.00026000000000000003,0.00026000000000000003,0.0,-2e-05,-5e-05,0.00023999999999999998,-0.0001,0.00023999999999999998,3
12632,13047,-9e-05,-8e-05,-1e-05,0.0,2.9999999999999997e-05,0.00011999999999999999,0.00014,0.00016999999999999999,3
12633,13048,-9e-05,-8e-05,-1e-05,0.0,2.9999999999999997e-05,0.00011999999999999999,0.00014,0.00016999999999999999,3
12634,13049,-9e-05,-8e-05,-1e-05,0.0,2.9999999999999997e-05,0.00011999999999999999,0.00014,0.00016999999999999999,3
12635,13050,-9e-05,-8e-05,-1e-05,0.0,2.9999999999999997e-05,0.00011999999999999999,0.00014,0.00016999999999999999,3
12636,13052,-9e-05,-8e-05,-1e-05,0.0,2.9999999999999997e-05,0.00011999999999999999,0.00014,0.00016999999999999999,3
12637,13053,-9e-05,-8e-05,-1e-05,0.0,2.9999999999999997e-05,0.00011999999999999999,0.00014,0.00016999999999999999,3
12638,13054,-9e-05,-8e-05,-1e-05,0.0,2.9999999999999997e-05,0.00011999999999999999,0.00014,0.00016999999999999999,3
12639,13055,-9e-05,-8e-05,-1e-05,0.0,2.9999999999999997e-05,0.00011999999999999999,0.00014,0.00016999999999999999,3
12640,13056,-9e-05,-8e-05,-1e-05,0.0,2.9999999999999997e-05,0.00011999999999999999,0.00014,0.00016999999999999999,3
12641,13057,-9e-05,-8e-05,-1e-05,0.0,2.9999999999999997e-05,0.00011999999999999999,0.00014,0.00016999999999999999,3
12642,13058,-9e-05,-8e-05,-1e-05,0.0,2.9999999999999997e-05,0.00011999999999999999,0.00014,0.00016999999999999999,3
12643,13059,-9e-05,-8e-05,-1e-05,0.0,2.9999999999999997e-05,0.00011999999999999999,0.00014,0.00016999999999999999,3
12644,13060,-9e-05,-8e-05,-1e-05,0.0,2.9999999999999997e-05,0.00011999999999999999,0.00014,0.00016999999999999999,3
12645,13061,-9e-05,-8e-05,-1e-05,0.0,2.9999999999999997e-05,0.00011999999999999999,0.00014,0.00016999999999999999,3
12646,13062,-9e-05,-8e-05,-1e-05,0.0,2.9999999999999997e-05,0.00011999999999999999,0.00014,0.00016999999999999999,3
12647,13063,-9e-05,-8e-05,-1e-05,0.0,2.9999999999999997e-05,0.00011999999999999999,0.00014,0.00016999999999999999,3
12648,13064,-9e-05,-8e-05,-1e-05,0.0,2.9999999999999997e-05,0.00011999999999999999,0.00014,0.00016999999999999999,3
12649,13065,-9e-05,-8e-05,-1e-05,0.0,2.9999999999999997e-05,0.00011999999999999999,0.00014,0.00016999999999999999,3
12650,13066,-9e-05,-8e-05,-1e-05,0.0,2.9999999999999997e-05,0.00011999999999999999,0.00014,0.00016999999999999999,3
12651,13067,-9e-05,-8e-05,-1e-05,0.0,2.9999999999999997e-05,0.00011999999999999999,0.00014,0.00016999999999999999,3
12652,13068,0.00033999999999999997,5.9999999999999995e-05,2e-05,0.00016,2.9999999999999997e-05,-0.00066,0.00053,0.00023999999999999998,3
12653,13069,0.00033999999999999997,5.9999999999999995e-05,2e-05,0.00016,2.9999999999999997e-05,-0.00066,0.00053,0.00023999999999999998,3
12654,13070,-0.00044,2.9999999999999997e-05,1e-05,-2.9999999999999997e-05,-0.00031,2.9999999999999997e-05,0.00035,-0.00035,3
12655,13071,-0.00044,2.9999999999999997e-05,1e-05,-2.9999999999999997e-05,-0.00031,2.9999999999999997e-05,0.00035,-0.00035,3
12656,13072,-0.00044,2.9999999999999997e-05,1e-05,-2.9999999999999997e-05,-0.00031,2.9999999999999997e-05,0.00035,-0.00035,3
12657,13073,-0.00044,2.9999999999999997e-05,1e-05,-2.9999999999999997e-05,-0.00031,2.9999999999999997e-05,0.00035,-0.00035,3
12658,13074,-0.00044,2.9999999999999997e-05,1e-05,-2.9999999999999997e-05,-0.00031,2.9999999999999997e-05,0.00035,-0.00035,3
12659,13075,-0.00044,2.9999999999999997e-05,1e-05,-2.9999999999999997e-05,-0.00031,2.9999999999999997e-05,0.00035,-0.00035,3
12660,13076,-0.00044,2.9999999999999997e-05,1e-05,-2.9999999999999997e-05,-0.00031,2.9999999999999997e-05,0.00035,-0.00035,3
12661,13077,-0.00044,2.9999999999999997e-05,1e-05,-2.9999999999999997e-05,-0.00031,2.9999999999999997e-05,0.00035,-0.00035,3
12662,13078,-0.00044,2.9999999999999997e-05,1e-05,-2.9999999999999997e-05,-0.00031,2.9999999999999997e-05,0.00035,-0.00035,3
12663,13079,-0.00044,2.9999999999999997e-05,1e-05,-2.9999999999999997e-05,-0.00031,2.9999999999999997e-05,0.00035,-0.00035,3
12664,13080,-0.00044,2.9999999999999997e-05,1e-05,-2.9999999999999997e-05,-0.00031,2.9999999999999997e-05,0.00035,-0.00035,3
12665,13081,-0.00044,2.9999999999999997e-05,1e-05,-2.9999999999999997e-05,-0.00031,2.9999999999999997e-05,0.00035,-0.00035,3
12666,13082,0.00064,-0.00022999999999999998,1e-05,2.9999999999999997e-05,2e-05,-0.00028,0.00013000000000000002,0.00026000000000000003,3
12667,13083,7e-05,0.00021,-9e-05,-0.00022,-0.0002,-0.00018999999999999998,-4e-05,-0.00033,3
12668,13084,7e-05,0.00021,-9e-05,-0.00022,-0.0002,-0.00018999999999999998,-4e-05,-0.00033,3
12669,13085,7e-05,0.00021,-9e-05,-0.00022,-0.0002,-0.00018999999999999998,-4e-05,-0.00033,3
12670,13086,7e-05,0.00021,-9e-05,-0.00022,-0.0002,-0.00018999999999999998,-4e-05,-0.00033,3
12671,13088,7e-05,0.00021,-9e-05,-0.00022,-0.0002,-0.00018999999999999998,-4e-05,-0.00033,3
12672,13089,0.00045,0.00073,2.9999999999999997e-05,-5.9999999999999995e-05,-0.00013000000000000002,-0.00027,-0.00031,-0.0002,3
12673,13090,-0.00016,-0.00016,-2e-05,-2e-05,7e-05,-0.00016999999999999999,-0.00028,-0.0007099999999999999,3
12674,13091,-0.00016,-0.00016,-2e-05,-2e-05,7e-05,-0.00016999999999999999,-0.00028,-0.0007099999999999999,3
12675,13092,-0.00016,-0.00016,-2e-05,-2e-05,7e-05,-0.00016999999999999999,-0.00028,-0.0007099999999999999,3
12676,13093,-0.00016,-0.00016,-2e-05,-2e-05,7e-05,-0.00016999999999999999,-0.00028,-0.0007099999999999999,3
12677,13094,-0.00016,-0.00016,-2e-05,-2e-05,7e-05,-0.00016999999999999999,-0.00028,-0.0007099999999999999,3
12678,13095,-0.00016,-0.00016,-2e-05,-2e-05,7e-05,-0.00016999999999999999,-0.00028,-0.0007099999999999999,3
12679,13096,-0.00016,-0.00016,-2e-05,-2e-05,7e-05,-0.00016999999999999999,-0.00028,-0.0007099999999999999,3
12680,13097,-0.00016,-0.00016,-2e-05,-2e-05,7e-05,-0.00016999999999999999,-0.00028,-0.0007099999999999999,3
12681,13098,-0.00016,-0.00016,-2e-05,-2e-05,7e-05,-0.00016999999999999999,-0.00028,-0.0007099999999999999,3
12682,13099,-0.00016,-0.00016,-2e-05,-2e-05,7e-05,-0.00016999999999999999,-0.00028,-0.0007099999999999999,3
12683,13100,-0.00016,-0.00016,-2e-05,-2e-05,7e-05,-0.00016999999999999999,-0.00028,-0.0007099999999999999,3
12684,13101,-0.00016,-0.00016,-2e-05,-2e-05,7e-05,-0.00016999999999999999,-0.00028,-0.0007099999999999999,3
12685,13102,-0.00016,-0.00016,-2e-05,-2e-05,7e-05,-0.00016999999999999999,-0.00028,-0.0007099999999999999,3
12686,13103,-0.00016,-0.00016,-2e-05,-2e-05,7e-05,-0.00016999999999999999,-0.00028,-0.0007099999999999999,3
12687,13104,-0.00016,-0.00016,-2e-05,-2e-05,7e-05,-0.00016999999999999999,-0.00028,-0.0007099999999999999,3
12688,13105,-0.00016,-0.00016,-2e-05,-2e-05,7e-05,-0.00016999999999999999,-0.00028,-0.0007099999999999999,3
12689,13106,-0.0005099999999999999,0.00022,5.9999999999999995e-05,9e-05,0.00026000000000000003,0.00084,-5.9999999999999995e-05,-0.0007,3
12690,13107,0.00011,-2.9999999999999997e-05,-2e-05,5e-05,-4e-05,-2.9999999999999997e-05,-9e-05,0.00039,3
12691,13108,0.00011,-2.9999999999999997e-05,-2e-05,5e-05,-4e-05,-2.9999999999999997e-05,-9e-05,0.00039,3
12692,13109,0.00011,-2.9999999999999997e-05,-2e-05,5e-05,-4e-05,-2.9999999999999997e-05,-9e-05,0.00039,3
12693,13110,0.00011,-2.9999999999999997e-05,-2e-05,5e-05,-4e-05,-2.9999999999999997e-05,-9e-05,0.00039,3
12694,13111,0.00011,-2.9999999999999997e-05,-2e-05,5e-05,-4e-05,-2.9999999999999997e-05,-9e-05,0.00039,3
12695,13112,0.00011,-2.9999999999999997e-05,-2e-05,5e-05,-4e-05,-2.9999999999999997e-05,-9e-05,0.00039,3
12696,13113,0.00011,-2.9999999999999997e-05,-2e-05,5e-05,-4e-05,-2.9999999999999997e-05,-9e-05,0.00039,3
12697,13114,0.00011,-2.9999999999999997e-05,-2e-05,5e-05,-4e-05,-2.9999999999999997e-05,-9e-05,0.00039,3
12698,13115,0.00011,-2.9999999999999997e-05,-2e-05,5e-05,-4e-05,-2.9999999999999997e-05,-9e-05,0.00039,3
12699,13116,0.00011,-2.9999999999999997e-05,-2e-05,5e-05,-4e-05,-2.9999999999999997e-05,-9e-05,0.00039,3
12700,13117,0.00011,-2.9999999999999997e-05,-2e-05,5e-05,-4e-05,-2.9999999999999997e-05,-9e-05,0.00039,3
12701,13118,0.00011,-2.9999999999999997e-05,-2e-05,5e-05,-4e-05,-2.9999999999999997e-05,-9e-05,0.00039,3
12702,13119,0.00011,-2.9999999999999997e-05,-2e-05,5e-05,-4e-05,-2.9999999999999997e-05,-9e-05,0.00039,3
12703,13120,0.00011,-2.9999999999999997e-05,-2e-05,5e-05,-4e-05,-2.9999999999999997e-05,-9e-05,0.00039,3
12704,13121,0.00011,-2.9999999999999997e-05,-2e-05,5e-05,-4e-05,-2.9999999999999997e-05,-9e-05,0.00039,3
12705,13122,0.00011,-2.9999999999999997e-05,-2e-05,5e-05,-4e-05,-2.9999999999999997e-05,-9e-05,0.00039,3
12706,13123,0.00011,-2.9999999999999997e-05,-2e-05,5e-05,-4e-05,-2.9999999999999997e-05,-9e-05,0.00039,3
12707,13124,0.00011,-2.9999999999999997e-05,-2e-05,5e-05,-4e-05,-2.9999999999999997e-05,-9e-05,0.00039,3
12708,13125,0.00011,-2.9999999999999997e-05,-2e-05,5e-05,-4e-05,-2.9999999999999997e-05,-9e-05,0.00039,3
12709,13126,0.00011,-2.9999999999999997e-05,-2e-05,5e-05,-4e-05,-2.9999999999999997e-05,-9e-05,0.00039,3
12710,13127,0.00011,-2.9999999999999997e-05,-2e-05,5e-05,-4e-05,-2.9999999999999997e-05,-9e-05,0.00039,3
12711,13128,0.00095,0.0004,5.9999999999999995e-05,7e-05,0.00035,0.00027,0.00014,-0.00054,3
12712,13129,0.00095,0.0004,5.9999999999999995e-05,7e-05,0.00035,0.00027,0.00014,-0.00054,3
12713,13130,0.00033999999999999997,0.00013000000000000002,0.0,-8e-05,-9e-05,-5.9999999999999995e-05,-4e-05,-0.00018,3
12714,13131,0.00033999999999999997,0.00013000000000000002,0.0,-8e-05,-9e-05,-5.9999999999999995e-05,-4e-05,-0.00018,3
12715,13132,0.00033999999999999997,0.00013000000000000002,0.0,-8e-05,-9e-05,-5.9999999999999995e-05,-4e-05,-0.00018,3
12716,13133,0.00033999999999999997,0.00013000000000000002,0.0,-8e-05,-9e-05,-5.9999999999999995e-05,-4e-05,-0.00018,3
12717,13134,0.00033999999999999997,0.00013000000000000002,0.0,-8e-05,-9e-05,-5.9999999999999995e-05,-4e-05,-0.00018,3
12718,13135,0.00033999999999999997,0.00013000000000000002,0.0,-8e-05,-9e-05,-5.9999999999999995e-05,-4e-05,-0.00018,3
12719,13136,0.00033999999999999997,0.00013000000000000002,0.0,-8e-05,-9e-05,-5.9999999999999995e-05,-4e-05,-0.00018,3
12720,13138,0.00033999999999999997,0.00013000000000000002,0.0,-8e-05,-9e-05,-5.9999999999999995e-05,-4e-05,-0.00018,3
12721,13139,0.00033999999999999997,0.00013000000000000002,0.0,-8e-05,-9e-05,-5.9999999999999995e-05,-4e-05,-0.00018,3
12722,13140,0.00033999999999999997,0.00013000000000000002,0.0,-8e-05,-9e-05,-5.9999999999999995e-05,-4e-05,-0.00018,3
12723,13141,0.00033999999999999997,0.00013000000000000002,0.0,-8e-05,-9e-05,-5.9999999999999995e-05,-4e-05,-0.00018,3
12724,13142,0.00021,0.00041,-2e-05,0.0,0.0,0.00015,-5.9999999999999995e-05,-2.9999999999999997e-05,3
12725,13143,0.00021,0.00041,-2e-05,0.0,0.0,0.00015,-5.9999999999999995e-05,-2.9999999999999997e-05,3
12726,13144,0.00021,0.00041,-2e-05,0.0,0.0,0.00015,-5.9999999999999995e-05,-2.9999999999999997e-05,3
12727,13145,0.00021,0.00041,-2e-05,0.0,0.0,0.00015,-5.9999999999999995e-05,-2.9999999999999997e-05,3
12728,13146,0.00021,0.00041,-2e-05,0.0,0.0,0.00015,-5.9999999999999995e-05,-2.9999999999999997e-05,3
12729,13147,0.00021,0.00041,-2e-05,0.0,0.0,0.00015,-5.9999999999999995e-05,-2.9999999999999997e-05,3
12730,13148,0.00021,0.00041,-2e-05,0.0,0.0,0.00015,-5.9999999999999995e-05,-2.9999999999999997e-05,3
12731,13149,0.00021,0.00041,-2e-05,0.0,0.0,0.00015,-5.9999999999999995e-05,-2.9999999999999997e-05,3
12732,13150,0.00021,0.00041,-2e-05,0.0,0.0,0.00015,-5.9999999999999995e-05,-2.9999999999999997e-05,3
12733,13151,0.00016,-0.00014,-5.9999999999999995e-05,-7e-05,0.00022,0.0007599999999999999,0.0002,-1e-05,3
12734,13152,0.00016,-0.00014,-5.9999999999999995e-05,-7e-05,0.00022,0.0007599999999999999,0.0002,-1e-05,3
12735,13153,0.00016,-0.00014,-5.9999999999999995e-05,-7e-05,0.00022,0.0007599999999999999,0.0002,-1e-05,3
12736,13154,0.00016,-0.00014,-5.9999999999999995e-05,-7e-05,0.00022,0.0007599999999999999,0.0002,-1e-05,3
12737,13155,0.00016,-0.00014,-5.9999999999999995e-05,-7e-05,0.00022,0.0007599999999999999,0.0002,-1e-05,3
12738,13156,0.00016,-0.00014,-5.9999999999999995e-05,-7e-05,0.00022,0.0007599999999999999,0.0002,-1e-05,3
12739,13157,0.00016,-0.00014,-5.9999999999999995e-05,-7e-05,0.00022,0.0007599999999999999,0.0002,-1e-05,3
12740,13158,0.00016,-0.00014,-5.9999999999999995e-05,-7e-05,0.00022,0.0007599999999999999,0.0002,-1e-05,3
12741,13159,0.00016,-0.00014,-5.9999999999999995e-05,-7e-05,0.00022,0.0007599999999999999,0.0002,-1e-05,3
12742,13160,0.00016,-0.00014,-5.9999999999999995e-05,-7e-05,0.00022,0.0007599999999999999,0.0002,-1e-05,3
12743,13161,0.00016,-0.00014,-5.9999999999999995e-05,-7e-05,0.00022,0.0007599999999999999,0.0002,-1e-05,3
12744,13162,0.00016,-0.00014,-5.9999999999999995e-05,-7e-05,0.00022,0.0007599999999999999,0.0002,-1e-05,3
12745,13163,0.00016,-0.00014,-5.9999999999999995e-05,-7e-05,0.00022,0.0007599999999999999,0.0002,-1e-05,3
12746,13164,0.00016,-0.00014,-5.9999999999999995e-05,-7e-05,0.00022,0.0007599999999999999,0.0002,-1e-05,3
12747,13165,0.00016,-0.00014,-5.9999999999999995e-05,-7e-05,0.00022,0.0007599999999999999,0.0002,-1e-05,3
12748,13166,0.00063,0.0007700000000000001,0.00018999999999999998,-4e-05,-0.0001,0.00047999999999999996,0.00065,0.00045,3
12749,13167,-0.00061,-0.00021,-5.9999999999999995e-05,7e-05,0.00023999999999999998,0.00037,-0.00027,8e-05,3
12750,13168,-0.00061,-0.00021,-5.9999999999999995e-05,7e-05,0.00023999999999999998,0.00037,-0.00027,8e-05,3
12751,13169,-0.00061,-0.00021,-5.9999999999999995e-05,7e-05,0.00023999999999999998,0.00037,-0.00027,8e-05,3
12752,13170,-0.00061,-0.00021,-5.9999999999999995e-05,7e-05,0.00023999999999999998,0.00037,-0.00027,8e-05,3
12753,13171,-0.00061,-0.00021,-5.9999999999999995e-05,7e-05,0.00023999999999999998,0.00037,-0.00027,8e-05,3
12754,13172,-0.00061,-0.00021,-5.9999999999999995e-05,7e-05,0.00023999999999999998,0.00037,-0.00027,8e-05,3
12755,13173,-0.00061,-0.00021,-5.9999999999999995e-05,7e-05,0.00023999999999999998,0.00037,-0.00027,8e-05,3
12756,13174,-0.00061,-0.00021,-5.9999999999999995e-05,7e-05,0.00023999999999999998,0.00037,-0.00027,8e-05,3
12757,13175,-0.00061,-0.00021,-5.9999999999999995e-05,7e-05,0.00023999999999999998,0.00037,-0.00027,8e-05,3
12758,13176,-0.00061,-0.00021,-5.9999999999999995e-05,7e-05,0.00023999999999999998,0.00037,-0.00027,8e-05,3
12759,13177,-0.00061,-0.00021,-5.9999999999999995e-05,7e-05,0.00023999999999999998,0.00037,-0.00027,8e-05,3
12760,13178,-0.00061,-0.00021,-5.9999999999999995e-05,7e-05,0.00023999999999999998,0.00037,-0.00027,8e-05,3
12761,13179,-0.00061,-0.00021,-5.9999999999999995e-05,7e-05,0.00023999999999999998,0.00037,-0.00027,8e-05,3
12762,13180,-0.00061,-0.00021,-5.9999999999999995e-05,7e-05,0.00023999999999999998,0.00037,-0.00027,8e-05,3
12763,13181,-0.00061,-0.00021,-5.9999999999999995e-05,7e-05,0.00023999999999999998,0.00037,-0.00027,8e-05,3
12764,13182,-0.00061,-0.00021,-5.9999999999999995e-05,7e-05,0.00023999999999999998,0.00037,-0.00027,8e-05,3
12765,13183,-0.00061,-0.00021,-5.9999999999999995e-05,7e-05,0.00023999999999999998,0.00037,-0.00027,8e-05,3
12766,13184,-0.00061,-0.00021,-5.9999999999999995e-05,7e-05,0.00023999999999999998,0.00037,-0.00027,8e-05,3
12767,13185,-0.00061,-0.00021,-5.9999999999999995e-05,7e-05,0.00023999999999999998,0.00037,-0.00027,8e-05,3
12768,13186,-0.00061,-0.00021,-5.9999999999999995e-05,7e-05,0.00023999999999999998,0.00037,-0.00027,8e-05,3
12769,13188,0.0,-0.00021,4e-05,8e-05,9e-05,-7e-05,-0.00021,0.0006,3
12770,13189,0.0,-0.00021,4e-05,8e-05,9e-05,-7e-05,-0.00021,0.0006,3
12771,13190,0.00047000000000000004,5.9999999999999995e-05,-1e-05,0.00016999999999999999,-0.0001,-0.00015,0.0001,-0.00033,3
12772,13191,0.00047000000000000004,5.9999999999999995e-05,-1e-05,0.00016999999999999999,-0.0001,-0.00015,0.0001,-0.00033,3
12773,13192,0.00047000000000000004,5.9999999999999995e-05,-1e-05,0.00016999999999999999,-0.0001,-0.00015,0.0001,-0.00033,3
12774,13193,0.00047000000000000004,5.9999999999999995e-05,-1e-05,0.00016999999999999999,-0.0001,-0.00015,0.0001,-0.00033,3
12775,13194,0.00047000000000000004,5.9999999999999995e-05,-1e-05,0.00016999999999999999,-0.0001,-0.00015,0.0001,-0.00033,3
12776,13195,0.00047000000000000004,5.9999999999999995e-05,-1e-05,0.00016999999999999999,-0.0001,-0.00015,0.0001,-0.00033,3
12777,13196,0.00047000000000000004,5.9999999999999995e-05,-1e-05,0.00016999999999999999,-0.0001,-0.00015,0.0001,-0.00033,3
12778,13197,0.00047000000000000004,5.9999999999999995e-05,-1e-05,0.00016999999999999999,-0.0001,-0.00015,0.0001,-0.00033,3
12779,13198,0.00047000000000000004,5.9999999999999995e-05,-1e-05,0.00016999999999999999,-0.0001,-0.00015,0.0001,-0.00033,3
12780,13199,0.00047000000000000004,5.9999999999999995e-05,-1e-05,0.00016999999999999999,-0.0001,-0.00015,0.0001,-0.00033,3
12781,13200,0.00047000000000000004,5.9999999999999995e-05,-1e-05,0.00016999999999999999,-0.0001,-0.00015,0.0001,-0.00033,3
12782,13201,0.00047000000000000004,5.9999999999999995e-05,-1e-05,0.00016999999999999999,-0.0001,-0.00015,0.0001,-0.00033,3
12783,13202,-0.00075,-0.00074,-0.0001,1e-05,0.00028,-0.00018999999999999998,-0.00079,0.00042,3
12784,13203,-0.00075,-0.00074,-0.0001,1e-05,0.00028,-0.00018999999999999998,-0.00079,0.00042,3
12785,13204,-0.00075,-0.00074,-0.0001,1e-05,0.00028,-0.00018999999999999998,-0.00079,0.00042,3
12786,13205,-0.00075,-0.00074,-0.0001,1e-05,0.00028,-0.00018999999999999998,-0.00079,0.00042,3
12787,13206,-0.00075,-0.00074,-0.0001,1e-05,0.00028,-0.00018999999999999998,-0.00079,0.00042,3
12788,13207,-0.00075,-0.00074,-0.0001,1e-05,0.00028,-0.00018999999999999998,-0.00079,0.00042,3
12789,13208,-0.00075,-0.00074,-0.0001,1e-05,0.00028,-0.00018999999999999998,-0.00079,0.00042,3
12790,13209,-0.00075,-0.00074,-0.0001,1e-05,0.00028,-0.00018999999999999998,-0.00079,0.00042,3
12791,13210,-0.00075,-0.00074,-0.0001,1e-05,0.00028,-0.00018999999999999998,-0.00079,0.00042,3
12792,13211,-0.00075,-0.00074,-0.0001,1e-05,0.00028,-0.00018999999999999998,-0.00079,0.00042,3
12793,13212,-0.00075,-0.00074,-0.0001,1e-05,0.00028,-0.00018999999999999998,-0.00079,0.00042,3
12794,13213,-0.00075,-0.00074,-0.0001,1e-05,0.00028,-0.00018999999999999998,-0.00079,0.00042,3
12795,13214,-0.00075,-0.00074,-0.0001,1e-05,0.00028,-0.00018999999999999998,-0.00079,0.00042,3
12796,13215,-0.00075,-0.00074,-0.0001,1e-05,0.00028,-0.00018999999999999998,-0.00079,0.00042,3
12797,13216,-0.00075,-0.00074,-0.0001,1e-05,0.00028,-0.00018999999999999998,-0.00079,0.00042,3
12798,13217,-0.00075,-0.00074,-0.0001,1e-05,0.00028,-0.00018999999999999998,-0.00079,0.00042,3
12799,13218,0.00032,1e-05,-2e-05,-2e-05,5.9999999999999995e-05,-0.00016999999999999999,-4e-05,-0.0001,3
12800,13219,0.00032,1e-05,-2e-05,-2e-05,5.9999999999999995e-05,-0.00016999999999999999,-4e-05,-0.0001,3
12801,13220,0.00032,1e-05,-2e-05,-2e-05,5.9999999999999995e-05,-0.00016999999999999999,-4e-05,-0.0001,3
12802,13221,0.00032,1e-05,-2e-05,-2e-05,5.9999999999999995e-05,-0.00016999999999999999,-4e-05,-0.0001,3
12803,13222,0.00032,1e-05,-2e-05,-2e-05,5.9999999999999995e-05,-0.00016999999999999999,-4e-05,-0.0001,3
12804,13223,0.00032,1e-05,-2e-05,-2e-05,5.9999999999999995e-05,-0.00016999999999999999,-4e-05,-0.0001,3
12805,13224,0.00032,1e-05,-2e-05,-2e-05,5.9999999999999995e-05,-0.00016999999999999999,-4e-05,-0.0001,3
12806,13225,0.00032,1e-05,-2e-05,-2e-05,5.9999999999999995e-05,-0.00016999999999999999,-4e-05,-0.0001,3
12807,13226,-0.00035,-0.00078,-0.00011,-0.00015,-0.00037999999999999997,-0.00058,-0.00028,-0.00073,3
12808,13227,-0.0001,8e-05,2.9999999999999997e-05,1e-05,-9e-05,-2e-05,-4e-05,-0.00056,3
12809,13228,-0.0001,8e-05,2.9999999999999997e-05,1e-05,-9e-05,-2e-05,-4e-05,-0.00056,3
12810,13229,-0.0001,8e-05,2.9999999999999997e-05,1e-05,-9e-05,-2e-05,-4e-05,-0.00056,3
12811,13230,-0.0001,8e-05,2.9999999999999997e-05,1e-05,-9e-05,-2e-05,-4e-05,-0.00056,3
12812,13231,-0.0001,8e-05,2.9999999999999997e-05,1e-05,-9e-05,-2e-05,-4e-05,-0.00056,3
12813,13232,-0.0001,8e-05,2.9999999999999997e-05,1e-05,-9e-05,-2e-05,-4e-05,-0.00056,3
12814,13233,-0.0001,8e-05,2.9999999999999997e-05,1e-05,-9e-05,-2e-05,-4e-05,-0.00056,3
12815,13234,-0.0001,8e-05,2.9999999999999997e-05,1e-05,-9e-05,-2e-05,-4e-05,-0.00056,3
12816,13235,-0.0001,8e-05,2.9999999999999997e-05,1e-05,-9e-05,-2e-05,-4e-05,-0.00056,3
12817,13236,-0.0001,8e-05,2.9999999999999997e-05,1e-05,-9e-05,-2e-05,-4e-05,-0.00056,3
12818,13239,-0.0001,8e-05,2.9999999999999997e-05,1e-05,-9e-05,-2e-05,-4e-05,-0.00056,3
12819,13240,-0.0001,8e-05,2.9999999999999997e-05,1e-05,-9e-05,-2e-05,-4e-05,-0.00056,3
12820,13241,-0.0001,8e-05,2.9999999999999997e-05,1e-05,-9e-05,-2e-05,-4e-05,-0.00056,3
12821,13242,-0.0001,8e-05,2.9999999999999997e-05,1e-05,-9e-05,-2e-05,-4e-05,-0.00056,3
12822,13243,-0.0001,8e-05,2.9999999999999997e-05,1e-05,-9e-05,-2e-05,-4e-05,-0.00056,3
12823,13244,-0.0001,8e-05,2.9999999999999997e-05,1e-05,-9e-05,-2e-05,-4e-05,-0.00056,3
12824,13245,-0.0001,8e-05,2.9999999999999997e-05,1e-05,-9e-05,-2e-05,-4e-05,-0.00056,3
12825,13246,-0.0001,8e-05,2.9999999999999997e-05,1e-05,-9e-05,-2e-05,-4e-05,-0.00056,3
12826,13247,-0.0001,8e-05,2.9999999999999997e-05,1e-05,-9e-05,-2e-05,-4e-05,-0.00056,3
12827,13248,-0.00027,-0.00016,-2e-05,-9e-05,-9e-05,0.00023999999999999998,2.9999999999999997e-05,-0.00014,3
12828,13249,-0.00027,-0.00016,-2e-05,-9e-05,-9e-05,0.00023999999999999998,2.9999999999999997e-05,-0.00014,3
12829,13250,-8e-05,-0.00011,-4e-05,-8e-05,5e-05,-0.00058,4e-05,-0.00018,3
12830,13251,-8e-05,-0.00011,-4e-05,-8e-05,5e-05,-0.00058,4e-05,-0.00018,3
12831,13252,-8e-05,-0.00011,-4e-05,-8e-05,5e-05,-0.00058,4e-05,-0.00018,3
12832,13253,-8e-05,-0.00011,-4e-05,-8e-05,5e-05,-0.00058,4e-05,-0.00018,3
12833,13254,-8e-05,-0.00011,-4e-05,-8e-05,5e-05,-0.00058,4e-05,-0.00018,3
12834,13255,-8e-05,-0.00011,-4e-05,-8e-05,5e-05,-0.00058,4e-05,-0.00018,3
12835,13256,-8e-05,-0.00011,-4e-05,-8e-05,5e-05,-0.00058,4e-05,-0.00018,3
12836,13257,-8e-05,-0.00011,-4e-05,-8e-05,5e-05,-0.00058,4e-05,-0.00018,3
12837,13258,-8e-05,-0.00011,-4e-05,-8e-05,5e-05,-0.00058,4e-05,-0.00018,3
12838,13259,-8e-05,-0.00011,-4e-05,-8e-05,5e-05,-0.00058,4e-05,-0.00018,3
12839,13260,-8e-05,-0.00011,-4e-05,-8e-05,5e-05,-0.00058,4e-05,-0.00018,3
12840,13261,-8e-05,-0.00011,-4e-05,-8e-05,5e-05,-0.00058,4e-05,-0.00018,3
12841,13262,0.00043,0.00015,-1e-05,1e-05,-9e-05,-0.0002,0.00035,0.00054,3
12842,13263,0.00043,0.00015,-1e-05,1e-05,-9e-05,-0.0002,0.00035,0.00054,3
12843,13264,0.00043,0.00015,-1e-05,1e-05,-9e-05,-0.0002,0.00035,0.00054,3
12844,13265,0.00043,0.00015,-1e-05,1e-05,-9e-05,-0.0002,0.00035,0.00054,3
12845,13266,0.00043,0.00015,-1e-05,1e-05,-9e-05,-0.0002,0.00035,0.00054,3
12846,13267,0.00043,0.00015,-1e-05,1e-05,-9e-05,-0.0002,0.00035,0.00054,3
12847,13268,0.00043,0.00015,-1e-05,1e-05,-9e-05,-0.0002,0.00035,0.00054,3
12848,13269,0.00043,0.00015,-1e-05,1e-05,-9e-05,-0.0002,0.00035,0.00054,3
12849,13270,0.00043,0.00015,-1e-05,1e-05,-9e-05,-0.0002,0.00035,0.00054,3
12850,13271,-0.0004,-0.00035,5.9999999999999995e-05,0.00029,0.00045,0.00039,-0.00018,0.0003,3
12851,13272,2e-05,0.00023999999999999998,-5.9999999999999995e-05,-0.00022,-5.9999999999999995e-05,9e-05,-0.0001,0.00025,3
12852,13273,2e-05,0.00023999999999999998,-5.9999999999999995e-05,-0.00022,-5.9999999999999995e-05,9e-05,-0.0001,0.00025,3
12853,13274,2e-05,0.00023999999999999998,-5.9999999999999995e-05,-0.00022,-5.9999999999999995e-05,9e-05,-0.0001,0.00025,3
12854,13275,2e-05,0.00023999999999999998,-5.9999999999999995e-05,-0.00022,-5.9999999999999995e-05,9e-05,-0.0001,0.00025,3
12855,13276,2e-05,0.00023999999999999998,-5.9999999999999995e-05,-0.00022,-5.9999999999999995e-05,9e-05,-0.0001,0.00025,3
12856,13277,2e-05,0.00023999999999999998,-5.9999999999999995e-05,-0.00022,-5.9999999999999995e-05,9e-05,-0.0001,0.00025,3
12857,13278,2e-05,0.00023999999999999998,-5.9999999999999995e-05,-0.00022,-5.9999999999999995e-05,9e-05,-0.0001,0.00025,3
12858,13279,2e-05,0.00023999999999999998,-5.9999999999999995e-05,-0.00022,-5.9999999999999995e-05,9e-05,-0.0001,0.00025,3
12859,13280,2e-05,0.00023999999999999998,-5.9999999999999995e-05,-0.00022,-5.9999999999999995e-05,9e-05,-0.0001,0.00025,3
12860,13281,2e-05,0.00023999999999999998,-5.9999999999999995e-05,-0.00022,-5.9999999999999995e-05,9e-05,-0.0001,0.00025,3
12861,13282,2e-05,0.00023999999999999998,-5.9999999999999995e-05,-0.00022,-5.9999999999999995e-05,9e-05,-0.0001,0.00025,3
12862,13283,2e-05,0.00023999999999999998,-5.9999999999999995e-05,-0.00022,-5.9999999999999995e-05,9e-05,-0.0001,0.00025,3
12863,13284,2e-05,0.00023999999999999998,-5.9999999999999995e-05,-0.00022,-5.9999999999999995e-05,9e-05,-0.0001,0.00025,3
12864,13285,2e-05,0.00023999999999999998,-5.9999999999999995e-05,-0.00022,-5.9999999999999995e-05,9e-05,-0.0001,0.00025,3
12865,13286,0.00026000000000000003,8e-05,2.9999999999999997e-05,5.9999999999999995e-05,0.00031,0.00086,0.00014,0.0007599999999999999,3
12866,13289,-8e-05,-2e-05,2.9999999999999997e-05,8e-05,0.0002,0.00043,-2e-05,0.00018,3
12867,13290,-8e-05,-2e-05,2.9999999999999997e-05,8e-05,0.0002,0.00043,-2e-05,0.00018,3
12868,13291,-8e-05,-2e-05,2.9999999999999997e-05,8e-05,0.0002,0.00043,-2e-05,0.00018,3
12869,13292,-8e-05,-2e-05,2.9999999999999997e-05,8e-05,0.0002,0.00043,-2e-05,0.00018,3
12870,13293,-8e-05,-2e-05,2.9999999999999997e-05,8e-05,0.0002,0.00043,-2e-05,0.00018,3
12871,13294,-8e-05,-2e-05,2.9999999999999997e-05,8e-05,0.0002,0.00043,-2e-05,0.00018,3
12872,13295,-8e-05,-2e-05,2.9999999999999997e-05,8e-05,0.0002,0.00043,-2e-05,0.00018,3
12873,13296,-8e-05,-2e-05,2.9999999999999997e-05,8e-05,0.0002,0.00043,-2e-05,0.00018,3
12874,13297,-8e-05,-2e-05,2.9999999999999997e-05,8e-05,0.0002,0.00043,-2e-05,0.00018,3
12875,13298,-8e-05,-2e-05,2.9999999999999997e-05,8e-05,0.0002,0.00043,-2e-05,0.00018,3
12876,13299,-8e-05,-2e-05,2.9999999999999997e-05,8e-05,0.0002,0.00043,-2e-05,0.00018,3
12877,13300,-8e-05,-2e-05,2.9999999999999997e-05,8e-05,0.0002,0.00043,-2e-05,0.00018,3
12878,13301,-8e-05,-2e-05,2.9999999999999997e-05,8e-05,0.0002,0.00043,-2e-05,0.00018,3
12879,13302,-8e-05,-2e-05,2.9999999999999997e-05,8e-05,0.0002,0.00043,-2e-05,0.00018,3
12880,13303,-8e-05,-2e-05,2.9999999999999997e-05,8e-05,0.0002,0.00043,-2e-05,0.00018,3
12881,13304,-8e-05,-2e-05,2.9999999999999997e-05,8e-05,0.0002,0.00043,-2e-05,0.00018,3
12882,13305,-8e-05,-2e-05,2.9999999999999997e-05,8e-05,0.0002,0.00043,-2e-05,0.00018,3
12883,13306,-8e-05,-2e-05,2.9999999999999997e-05,8e-05,0.0002,0.00043,-2e-05,0.00018,3
12884,13307,-8e-05,-2e-05,2.9999999999999997e-05,8e-05,0.0002,0.00043,-2e-05,0.00018,3
12885,13308,-0.00011999999999999999,-0.00011,-7e-05,-0.00016,-0.0007,-0.00041,-4e-05,-0.00043,3
12886,13309,-0.00011999999999999999,-0.00011,-7e-05,-0.00016,-0.0007,-0.00041,-4e-05,-0.00043,3
12887,13310,0.00016999999999999999,0.00026000000000000003,2.9999999999999997e-05,1e-05,-2.9999999999999997e-05,2e-05,0.00022999999999999998,0.00056,3
12888,13311,0.00016999999999999999,0.00026000000000000003,2.9999999999999997e-05,1e-05,-2.9999999999999997e-05,2e-05,0.00022999999999999998,0.00056,3
12889,13312,0.00016999999999999999,0.00026000000000000003,2.9999999999999997e-05,1e-05,-2.9999999999999997e-05,2e-05,0.00022999999999999998,0.00056,3
12890,13313,0.00016999999999999999,0.00026000000000000003,2.9999999999999997e-05,1e-05,-2.9999999999999997e-05,2e-05,0.00022999999999999998,0.00056,3
12891,13314,0.00016999999999999999,0.00026000000000000003,2.9999999999999997e-05,1e-05,-2.9999999999999997e-05,2e-05,0.00022999999999999998,0.00056,3
12892,13315,0.00016999999999999999,0.00026000000000000003,2.9999999999999997e-05,1e-05,-2.9999999999999997e-05,2e-05,0.00022999999999999998,0.00056,3
12893,13316,0.00016999999999999999,0.00026000000000000003,2.9999999999999997e-05,1e-05,-2.9999999999999997e-05,2e-05,0.00022999999999999998,0.00056,3
12894,13317,0.00016999999999999999,0.00026000000000000003,2.9999999999999997e-05,1e-05,-2.9999999999999997e-05,2e-05,0.00022999999999999998,0.00056,3
12895,13318,0.00016999999999999999,0.00026000000000000003,2.9999999999999997e-05,1e-05,-2.9999999999999997e-05,2e-05,0.00022999999999999998,0.00056,3
12896,13319,0.00016999999999999999,0.00026000000000000003,2.9999999999999997e-05,1e-05,-2.9999999999999997e-05,2e-05,0.00022999999999999998,0.00056,3
12897,13320,0.00016999999999999999,0.00026000000000000003,2.9999999999999997e-05,1e-05,-2.9999999999999997e-05,2e-05,0.00022999999999999998,0.00056,3
12898,13321,0.00016999999999999999,0.00026000000000000003,2.9999999999999997e-05,1e-05,-2.9999999999999997e-05,2e-05,0.00022999999999999998,0.00056,3
12899,13322,-0.0005200000000000001,-0.00011999999999999999,-2e-05,-5.9999999999999995e-05,-2e-05,-0.00025,-0.00033999999999999997,-0.00066,3
12900,13323,-0.0005200000000000001,-0.00011999999999999999,-2e-05,-5.9999999999999995e-05,-2e-05,-0.00025,-0.00033999999999999997,-0.00066,3
12901,13324,-0.0005200000000000001,-0.00011999999999999999,-2e-05,-5.9999999999999995e-05,-2e-05,-0.00025,-0.00033999999999999997,-0.00066,3
12902,13325,-0.0005200000000000001,-0.00011999999999999999,-2e-05,-5.9999999999999995e-05,-2e-05,-0.00025,-0.00033999999999999997,-0.00066,3
12903,13326,-0.0005200000000000001,-0.00011999999999999999,-2e-05,-5.9999999999999995e-05,-2e-05,-0.00025,-0.00033999999999999997,-0.00066,3
12904,13327,-0.0005200000000000001,-0.00011999999999999999,-2e-05,-5.9999999999999995e-05,-2e-05,-0.00025,-0.00033999999999999997,-0.00066,3
12905,13328,-0.0005200000000000001,-0.00011999999999999999,-2e-05,-5.9999999999999995e-05,-2e-05,-0.00025,-0.00033999999999999997,-0.00066,3
12906,13329,-0.0005200000000000001,-0.00011999999999999999,-2e-05,-5.9999999999999995e-05,-2e-05,-0.00025,-0.00033999999999999997,-0.00066,3
12907,13330,-0.0005200000000000001,-0.00011999999999999999,-2e-05,-5.9999999999999995e-05,-2e-05,-0.00025,-0.00033999999999999997,-0.00066,3
12908,13331,-7e-05,-4e-05,0.0,-9e-05,-0.00025,-2.9999999999999997e-05,-0.00011999999999999999,9e-05,3
12909,13332,-7e-05,-4e-05,0.0,-9e-05,-0.00025,-2.9999999999999997e-05,-0.00011999999999999999,9e-05,3
12910,13333,-7e-05,-4e-05,0.0,-9e-05,-0.00025,-2.9999999999999997e-05,-0.00011999999999999999,9e-05,3
12911,13334,-7e-05,-4e-05,0.0,-9e-05,-0.00025,-2.9999999999999997e-05,-0.00011999999999999999,9e-05,3
12912,13335,-7e-05,-4e-05,0.0,-9e-05,-0.00025,-2.9999999999999997e-05,-0.00011999999999999999,9e-05,3
12913,13336,-7e-05,-4e-05,0.0,-9e-05,-0.00025,-2.9999999999999997e-05,-0.00011999999999999999,9e-05,3
12914,13338,-7e-05,-4e-05,0.0,-9e-05,-0.00025,-2.9999999999999997e-05,-0.00011999999999999999,9e-05,3
12915,13339,-7e-05,-4e-05,0.0,-9e-05,-0.00025,-2.9999999999999997e-05,-0.00011999999999999999,9e-05,3
12916,13340,-7e-05,-4e-05,0.0,-9e-05,-0.00025,-2.9999999999999997e-05,-0.00011999999999999999,9e-05,3
12917,13341,-7e-05,-4e-05,0.0,-9e-05,-0.00025,-2.9999999999999997e-05,-0.00011999999999999999,9e-05,3
12918,13342,-7e-05,-4e-05,0.0,-9e-05,-0.00025,-2.9999999999999997e-05,-0.00011999999999999999,9e-05,3
12919,13343,-7e-05,-4e-05,0.0,-9e-05,-0.00025,-2.9999999999999997e-05,-0.00011999999999999999,9e-05,3
12920,13344,-7e-05,-4e-05,0.0,-9e-05,-0.00025,-2.9999999999999997e-05,-0.00011999999999999999,9e-05,3
12921,13345,-7e-05,-4e-05,0.0,-9e-05,-0.00025,-2.9999999999999997e-05,-0.00011999999999999999,9e-05,3
12922,13346,0.0003,8e-05,-4e-05,-2e-05,9e-05,-0.0008699999999999999,5.9999999999999995e-05,0.00072,3
12923,13347,-0.00026000000000000003,-7e-05,1e-05,2.9999999999999997e-05,-0.00018999999999999998,-0.00022,0.00014,-2e-05,3
12924,13349,-0.00026000000000000003,-7e-05,1e-05,2.9999999999999997e-05,-0.00018999999999999998,-0.00022,0.00014,-2e-05,3
12925,13350,-0.00026000000000000003,-7e-05,1e-05,2.9999999999999997e-05,-0.00018999999999999998,-0.00022,0.00014,-2e-05,3
12926,13351,-0.00026000000000000003,-7e-05,1e-05,2.9999999999999997e-05,-0.00018999999999999998,-0.00022,0.00014,-2e-05,3
12927,13352,-0.00026000000000000003,-7e-05,1e-05,2.9999999999999997e-05,-0.00018999999999999998,-0.00022,0.00014,-2e-05,3
12928,13353,-0.00026000000000000003,-7e-05,1e-05,2.9999999999999997e-05,-0.00018999999999999998,-0.00022,0.00014,-2e-05,3
12929,13354,-0.00026000000000000003,-7e-05,1e-05,2.9999999999999997e-05,-0.00018999999999999998,-0.00022,0.00014,-2e-05,3
12930,13355,-0.00026000000000000003,-7e-05,1e-05,2.9999999999999997e-05,-0.00018999999999999998,-0.00022,0.00014,-2e-05,3
12931,13356,-0.00026000000000000003,-7e-05,1e-05,2.9999999999999997e-05,-0.00018999999999999998,-0.00022,0.00014,-2e-05,3
12932,13357,-0.00026000000000000003,-7e-05,1e-05,2.9999999999999997e-05,-0.00018999999999999998,-0.00022,0.00014,-2e-05,3
12933,13358,-0.00026000000000000003,-7e-05,1e-05,2.9999999999999997e-05,-0.00018999999999999998,-0.00022,0.00014,-2e-05,3
12934,13359,-0.00026000000000000003,-7e-05,1e-05,2.9999999999999997e-05,-0.00018999999999999998,-0.00022,0.00014,-2e-05,3
12935,13360,-0.00026000000000000003,-7e-05,1e-05,2.9999999999999997e-05,-0.00018999999999999998,-0.00022,0.00014,-2e-05,3
12936,13361,-0.00026000000000000003,-7e-05,1e-05,2.9999999999999997e-05,-0.00018999999999999998,-0.00022,0.00014,-2e-05,3
12937,13362,-0.00026000000000000003,-7e-05,1e-05,2.9999999999999997e-05,-0.00018999999999999998,-0.00022,0.00014,-2e-05,3
12938,13363,-0.00026000000000000003,-7e-05,1e-05,2.9999999999999997e-05,-0.00018999999999999998,-0.00022,0.00014,-2e-05,3
12939,13364,-0.00026000000000000003,-7e-05,1e-05,2.9999999999999997e-05,-0.00018999999999999998,-0.00022,0.00014,-2e-05,3
12940,13365,-0.00026000000000000003,-7e-05,1e-05,2.9999999999999997e-05,-0.00018999999999999998,-0.00022,0.00014,-2e-05,3
12941,13366,-0.00026000000000000003,-7e-05,1e-05,2.9999999999999997e-05,-0.00018999999999999998,-0.00022,0.00014,-2e-05,3
12942,13367,-0.00026000000000000003,-7e-05,1e-05,2.9999999999999997e-05,-0.00018999999999999998,-0.00022,0.00014,-2e-05,3
12943,13368,-0.0002,7e-05,5.9999999999999995e-05,8e-05,4e-05,-1e-05,0.00028,0.0,3
12944,13369,-0.0002,7e-05,5.9999999999999995e-05,8e-05,4e-05,-1e-05,0.00028,0.0,3
12945,13370,0.00061,0.0001,1e-05,5e-05,0.00023999999999999998,0.00049,-2.9999999999999997e-05,5e-05,3
12946,13371,0.00061,0.0001,1e-05,5e-05,0.00023999999999999998,0.00049,-2.9999999999999997e-05,5e-05,3
12947,13372,0.00061,0.0001,1e-05,5e-05,0.00023999999999999998,0.00049,-2.9999999999999997e-05,5e-05,3
12948,13373,0.00061,0.0001,1e-05,5e-05,0.00023999999999999998,0.00049,-2.9999999999999997e-05,5e-05,3
12949,13374,0.00061,0.0001,1e-05,5e-05,0.00023999999999999998,0.00049,-2.9999999999999997e-05,5e-05,3
12950,13375,0.00061,0.0001,1e-05,5e-05,0.00023999999999999998,0.00049,-2.9999999999999997e-05,5e-05,3
12951,13376,0.00061,0.0001,1e-05,5e-05,0.00023999999999999998,0.00049,-2.9999999999999997e-05,5e-05,3
12952,13377,0.00061,0.0001,1e-05,5e-05,0.00023999999999999998,0.00049,-2.9999999999999997e-05,5e-05,3
12953,13378,0.00061,0.0001,1e-05,5e-05,0.00023999999999999998,0.00049,-2.9999999999999997e-05,5e-05,3
12954,13380,0.00061,0.0001,1e-05,5e-05,0.00023999999999999998,0.00049,-2.9999999999999997e-05,5e-05,3
12955,13381,0.00061,0.0001,1e-05,5e-05,0.00023999999999999998,0.00049,-2.9999999999999997e-05,5e-05,3
12956,13382,-0.00043,-0.00011,-9e-05,-5.9999999999999995e-05,2e-05,-0.00011,-0.00015,-0.0007700000000000001,3
12957,13383,-0.00043,-0.00011,-9e-05,-5.9999999999999995e-05,2e-05,-0.00011,-0.00015,-0.0007700000000000001,3
12958,13384,-0.00043,-0.00011,-9e-05,-5.9999999999999995e-05,2e-05,-0.00011,-0.00015,-0.0007700000000000001,3
12959,13385,-0.00043,-0.00011,-9e-05,-5.9999999999999995e-05,2e-05,-0.00011,-0.00015,-0.0007700000000000001,3
12960,13386,-0.00043,-0.00011,-9e-05,-5.9999999999999995e-05,2e-05,-0.00011,-0.00015,-0.0007700000000000001,3
12961,13389,-0.00043,-0.00011,-9e-05,-5.9999999999999995e-05,2e-05,-0.00011,-0.00015,-0.0007700000000000001,3
12962,13390,-0.00043,-0.00011,-9e-05,-5.9999999999999995e-05,2e-05,-0.00011,-0.00015,-0.0007700000000000001,3
12963,13391,0.0002,-5.9999999999999995e-05,-0.0001,-0.00016,-0.00028,-0.00066,0.00023999999999999998,-9e-05,3
12964,13392,0.0002,-5.9999999999999995e-05,-0.0001,-0.00016,-0.00028,-0.00066,0.00023999999999999998,-9e-05,3
12965,13393,0.0002,-5.9999999999999995e-05,-0.0001,-0.00016,-0.00028,-0.00066,0.00023999999999999998,-9e-05,3
12966,13394,0.0002,-5.9999999999999995e-05,-0.0001,-0.00016,-0.00028,-0.00066,0.00023999999999999998,-9e-05,3
12967,13395,0.0002,-5.9999999999999995e-05,-0.0001,-0.00016,-0.00028,-0.00066,0.00023999999999999998,-9e-05,3
12968,13396,0.0002,-5.9999999999999995e-05,-0.0001,-0.00016,-0.00028,-0.00066,0.00023999999999999998,-9e-05,3
12969,13397,0.0002,-5.9999999999999995e-05,-0.0001,-0.00016,-0.00028,-0.00066,0.00023999999999999998,-9e-05,3
12970,13398,0.0002,-5.9999999999999995e-05,-0.0001,-0.00016,-0.00028,-0.00066,0.00023999999999999998,-9e-05,3
12971,13399,0.0002,-5.9999999999999995e-05,-0.0001,-0.00016,-0.00028,-0.00066,0.00023999999999999998,-9e-05,3
12972,13400,0.0002,-5.9999999999999995e-05,-0.0001,-0.00016,-0.00028,-0.00066,0.00023999999999999998,-9e-05,3
12973,13401,0.0002,-5.9999999999999995e-05,-0.0001,-0.00016,-0.00028,-0.00066,0.00023999999999999998,-9e-05,3
12974,13402,0.0002,-5.9999999999999995e-05,-0.0001,-0.00016,-0.00028,-0.00066,0.00023999999999999998,-9e-05,3
12975,13403,0.0002,-5.9999999999999995e-05,-0.0001,-0.00016,-0.00028,-0.00066,0.00023999999999999998,-9e-05,3
12976,13404,0.0002,-5.9999999999999995e-05,-0.0001,-0.00016,-0.00028,-0.00066,0.00023999999999999998,-9e-05,3
12977,13405,0.0002,-5.9999999999999995e-05,-0.0001,-0.00016,-0.00028,-0.00066,0.00023999999999999998,-9e-05,3
12978,13406,0.00043,-2.9999999999999997e-05,4e-05,5.9999999999999995e-05,-0.00011,-0.00014,-0.00011,-0.00061,3
12979,13407,5e-05,8e-05,-2.9999999999999997e-05,-5.9999999999999995e-05,-0.00018,5.9999999999999995e-05,2e-05,0.00015,3
12980,13408,5e-05,8e-05,-2.9999999999999997e-05,-5.9999999999999995e-05,-0.00018,5.9999999999999995e-05,2e-05,0.00015,3
12981,13409,5e-05,8e-05,-2.9999999999999997e-05,-5.9999999999999995e-05,-0.00018,5.9999999999999995e-05,2e-05,0.00015,3
12982,13410,5e-05,8e-05,-2.9999999999999997e-05,-5.9999999999999995e-05,-0.00018,5.9999999999999995e-05,2e-05,0.00015,3
12983,13411,5e-05,8e-05,-2.9999999999999997e-05,-5.9999999999999995e-05,-0.00018,5.9999999999999995e-05,2e-05,0.00015,3
12984,13412,5e-05,8e-05,-2.9999999999999997e-05,-5.9999999999999995e-05,-0.00018,5.9999999999999995e-05,2e-05,0.00015,3
12985,13413,5e-05,8e-05,-2.9999999999999997e-05,-5.9999999999999995e-05,-0.00018,5.9999999999999995e-05,2e-05,0.00015,3
12986,13414,5e-05,8e-05,-2.9999999999999997e-05,-5.9999999999999995e-05,-0.00018,5.9999999999999995e-05,2e-05,0.00015,3
12987,13415,5e-05,8e-05,-2.9999999999999997e-05,-5.9999999999999995e-05,-0.00018,5.9999999999999995e-05,2e-05,0.00015,3
12988,13416,5e-05,8e-05,-2.9999999999999997e-05,-5.9999999999999995e-05,-0.00018,5.9999999999999995e-05,2e-05,0.00015,3
12989,13417,5e-05,8e-05,-2.9999999999999997e-05,-5.9999999999999995e-05,-0.00018,5.9999999999999995e-05,2e-05,0.00015,3
12990,13418,5e-05,8e-05,-2.9999999999999997e-05,-5.9999999999999995e-05,-0.00018,5.9999999999999995e-05,2e-05,0.00015,3
12991,13419,5e-05,8e-05,-2.9999999999999997e-05,-5.9999999999999995e-05,-0.00018,5.9999999999999995e-05,2e-05,0.00015,3
12992,13420,5e-05,8e-05,-2.9999999999999997e-05,-5.9999999999999995e-05,-0.00018,5.9999999999999995e-05,2e-05,0.00015,3
12993,13421,5e-05,8e-05,-2.9999999999999997e-05,-5.9999999999999995e-05,-0.00018,5.9999999999999995e-05,2e-05,0.00015,3
12994,13422,5e-05,8e-05,-2.9999999999999997e-05,-5.9999999999999995e-05,-0.00018,5.9999999999999995e-05,2e-05,0.00015,3
12995,13423,5e-05,8e-05,-2.9999999999999997e-05,-5.9999999999999995e-05,-0.00018,5.9999999999999995e-05,2e-05,0.00015,3
12996,13424,5e-05,8e-05,-2.9999999999999997e-05,-5.9999999999999995e-05,-0.00018,5.9999999999999995e-05,2e-05,0.00015,3
12997,13425,5e-05,8e-05,-2.9999999999999997e-05,-5.9999999999999995e-05,-0.00018,5.9999999999999995e-05,2e-05,0.00015,3
12998,13426,5e-05,8e-05,-2.9999999999999997e-05,-5.9999999999999995e-05,-0.00018,5.9999999999999995e-05,2e-05,0.00015,3
12999,13427,5e-05,8e-05,-2.9999999999999997e-05,-5.9999999999999995e-05,-0.00018,5.9999999999999995e-05,2e-05,0.00015,3
13000,13428,-0.00021,0.00013000000000000002,-5.9999999999999995e-05,-0.00011999999999999999,-5.9999999999999995e-05,8e-05,1e-05,-0.00016999999999999999,3
13001,13429,-0.00021,0.00013000000000000002,-5.9999999999999995e-05,-0.00011999999999999999,-5.9999999999999995e-05,8e-05,1e-05,-0.00016999999999999999,3
13002,13430,-1e-05,-1e-05,8e-05,0.00032,0.0009199999999999999,-0.00028,1e-05,-8e-05,3
13003,13431,-1e-05,-1e-05,8e-05,0.00032,0.0009199999999999999,-0.00028,1e-05,-8e-05,3
13004,13432,-1e-05,-1e-05,8e-05,0.00032,0.0009199999999999999,-0.00028,1e-05,-8e-05,3
13005,13433,-1e-05,-1e-05,8e-05,0.00032,0.0009199999999999999,-0.00028,1e-05,-8e-05,3
13006,13434,-1e-05,-1e-05,8e-05,0.00032,0.0009199999999999999,-0.00028,1e-05,-8e-05,3
13007,13435,-1e-05,-1e-05,8e-05,0.00032,0.0009199999999999999,-0.00028,1e-05,-8e-05,3
13008,13436,-1e-05,-1e-05,8e-05,0.00032,0.0009199999999999999,-0.00028,1e-05,-8e-05,3
13009,13439,-1e-05,-1e-05,8e-05,0.00032,0.0009199999999999999,-0.00028,1e-05,-8e-05,3
13010,13440,-1e-05,-1e-05,8e-05,0.00032,0.0009199999999999999,-0.00028,1e-05,-8e-05,3
13011,13441,-1e-05,-1e-05,8e-05,0.00032,0.0009199999999999999,-0.00028,1e-05,-8e-05,3
13012,13442,0.00047999999999999996,0.00029,2e-05,5.9999999999999995e-05,0.00016999999999999999,0.00014,0.0,-0.0003,3
13013,13443,0.00047999999999999996,0.00029,2e-05,5.9999999999999995e-05,0.00016999999999999999,0.00014,0.0,-0.0003,3
13014,13444,0.00047999999999999996,0.00029,2e-05,5.9999999999999995e-05,0.00016999999999999999,0.00014,0.0,-0.0003,3
13015,13445,0.00047999999999999996,0.00029,2e-05,5.9999999999999995e-05,0.00016999999999999999,0.00014,0.0,-0.0003,3
13016,13446,0.00047999999999999996,0.00029,2e-05,5.9999999999999995e-05,0.00016999999999999999,0.00014,0.0,-0.0003,3
13017,13447,0.00047999999999999996,0.00029,2e-05,5.9999999999999995e-05,0.00016999999999999999,0.00014,0.0,-0.0003,3
13018,13448,0.00047999999999999996,0.00029,2e-05,5.9999999999999995e-05,0.00016999999999999999,0.00014,0.0,-0.0003,3
13019,13449,0.00047999999999999996,0.00029,2e-05,5.9999999999999995e-05,0.00016999999999999999,0.00014,0.0,-0.0003,3
13020,13450,0.00047999999999999996,0.00029,2e-05,5.9999999999999995e-05,0.00016999999999999999,0.00014,0.0,-0.0003,3
13021,13451,-5.9999999999999995e-05,-0.00011999999999999999,-8e-05,-9e-05,-0.0002,-0.00022999999999999998,-5e-05,-0.00033,3
13022,13452,-5.9999999999999995e-05,-0.00011999999999999999,-8e-05,-9e-05,-0.0002,-0.00022999999999999998,-5e-05,-0.00033,3
13023,13453,-5.9999999999999995e-05,-0.00011999999999999999,-8e-05,-9e-05,-0.0002,-0.00022999999999999998,-5e-05,-0.00033,3
13024,13454,-5.9999999999999995e-05,-0.00011999999999999999,-8e-05,-9e-05,-0.0002,-0.00022999999999999998,-5e-05,-0.00033,3
13025,13455,-5.9999999999999995e-05,-0.00011999999999999999,-8e-05,-9e-05,-0.0002,-0.00022999999999999998,-5e-05,-0.00033,3
13026,13456,-5.9999999999999995e-05,-0.00011999999999999999,-8e-05,-9e-05,-0.0002,-0.00022999999999999998,-5e-05,-0.00033,3
13027,13457,-5.9999999999999995e-05,-0.00011999999999999999,-8e-05,-9e-05,-0.0002,-0.00022999999999999998,-5e-05,-0.00033,3
13028,13458,-5.9999999999999995e-05,-0.00011999999999999999,-8e-05,-9e-05,-0.0002,-0.00022999999999999998,-5e-05,-0.00033,3
13029,13459,-5.9999999999999995e-05,-0.00011999999999999999,-8e-05,-9e-05,-0.0002,-0.00022999999999999998,-5e-05,-0.00033,3
13030,13460,-5.9999999999999995e-05,-0.00011999999999999999,-8e-05,-9e-05,-0.0002,-0.00022999999999999998,-5e-05,-0.00033,3
13031,13461,-5.9999999999999995e-05,-0.00011999999999999999,-8e-05,-9e-05,-0.0002,-0.00022999999999999998,-5e-05,-0.00033,3
13032,13462,-5.9999999999999995e-05,-0.00011999999999999999,-8e-05,-9e-05,-0.0002,-0.00022999999999999998,-5e-05,-0.00033,3
13033,13463,-5.9999999999999995e-05,-0.00011999999999999999,-8e-05,-9e-05,-0.0002,-0.00022999999999999998,-5e-05,-0.00033,3
13034,13464,-5.9999999999999995e-05,-0.00011999999999999999,-8e-05,-9e-05,-0.0002,-0.00022999999999999998,-5e-05,-0.00033,3
13035,13465,-5.9999999999999995e-05,-0.00011999999999999999,-8e-05,-9e-05,-0.0002,-0.00022999999999999998,-5e-05,-0.00033,3
13036,13466,0.00018999999999999998,0.00025,5e-05,0.0,2.9999999999999997e-05,0.0005,2.9999999999999997e-05,0.00014,3
13037,13467,-1e-05,-8e-05,0.0,-5.9999999999999995e-05,-0.00014,0.00054,-0.00014,-8e-05,3
13038,13468,-1e-05,-8e-05,0.0,-5.9999999999999995e-05,-0.00014,0.00054,-0.00014,-8e-05,3
13039,13469,-1e-05,-8e-05,0.0,-5.9999999999999995e-05,-0.00014,0.00054,-0.00014,-8e-05,3
13040,13470,-1e-05,-8e-05,0.0,-5.9999999999999995e-05,-0.00014,0.00054,-0.00014,-8e-05,3
13041,13471,-1e-05,-8e-05,0.0,-5.9999999999999995e-05,-0.00014,0.00054,-0.00014,-8e-05,3
13042,13472,-1e-05,-8e-05,0.0,-5.9999999999999995e-05,-0.00014,0.00054,-0.00014,-8e-05,3
13043,13473,-1e-05,-8e-05,0.0,-5.9999999999999995e-05,-0.00014,0.00054,-0.00014,-8e-05,3
13044,13474,-1e-05,-8e-05,0.0,-5.9999999999999995e-05,-0.00014,0.00054,-0.00014,-8e-05,3
13045,13475,-1e-05,-8e-05,0.0,-5.9999999999999995e-05,-0.00014,0.00054,-0.00014,-8e-05,3
13046,13476,-1e-05,-8e-05,0.0,-5.9999999999999995e-05,-0.00014,0.00054,-0.00014,-8e-05,3
13047,13477,-1e-05,-8e-05,0.0,-5.9999999999999995e-05,-0.00014,0.00054,-0.00014,-8e-05,3
13048,13478,-1e-05,-8e-05,0.0,-5.9999999999999995e-05,-0.00014,0.00054,-0.00014,-8e-05,3
13049,13479,-1e-05,-8e-05,0.0,-5.9999999999999995e-05,-0.00014,0.00054,-0.00014,-8e-05,3
13050,13480,-1e-05,-8e-05,0.0,-5.9999999999999995e-05,-0.00014,0.00054,-0.00014,-8e-05,3
13051,13481,-1e-05,-8e-05,0.0,-5.9999999999999995e-05,-0.00014,0.00054,-0.00014,-8e-05,3
13052,13482,-1e-05,-8e-05,0.0,-5.9999999999999995e-05,-0.00014,0.00054,-0.00014,-8e-05,3
13053,13483,-1e-05,-8e-05,0.0,-5.9999999999999995e-05,-0.00014,0.00054,-0.00014,-8e-05,3
13054,13484,-1e-05,-8e-05,0.0,-5.9999999999999995e-05,-0.00014,0.00054,-0.00014,-8e-05,3
13055,13485,-1e-05,-8e-05,0.0,-5.9999999999999995e-05,-0.00014,0.00054,-0.00014,-8e-05,3
13056,13486,-1e-05,-8e-05,0.0,-5.9999999999999995e-05,-0.00014,0.00054,-0.00014,-8e-05,3
13057,13489,1e-05,-0.00011999999999999999,4e-05,2.9999999999999997e-05,1e-05,1e-05,0.00025,-4e-05,3
13058,13490,1e-05,-0.00011999999999999999,4e-05,2.9999999999999997e-05,1e-05,1e-05,0.00025,-4e-05,3
13059,13491,1e-05,-0.00011999999999999999,4e-05,2.9999999999999997e-05,1e-05,1e-05,0.00025,-4e-05,3
13060,13492,1e-05,-0.00011999999999999999,4e-05,2.9999999999999997e-05,1e-05,1e-05,0.00025,-4e-05,3
13061,13493,1e-05,-0.00011999999999999999,4e-05,2.9999999999999997e-05,1e-05,1e-05,0.00025,-4e-05,3
13062,13494,-0.0005,-0.00018,-0.00011,-0.00013000000000000002,4e-05,0.00016,5.9999999999999995e-05,-0.00061,3
13063,13496,-0.0005,-0.00018,-0.00011,-0.00013000000000000002,4e-05,0.00016,5.9999999999999995e-05,-0.00061,3
13064,13497,-0.0005,-0.00018,-0.00011,-0.00013000000000000002,4e-05,0.00016,5.9999999999999995e-05,-0.00061,3
13065,13498,-0.0005,-0.00018,-0.00011,-0.00013000000000000002,4e-05,0.00016,5.9999999999999995e-05,-0.00061,3
13066,13499,-0.0005,-0.00018,-0.00011,-0.00013000000000000002,4e-05,0.00016,5.9999999999999995e-05,-0.00061,3
13067,13500,-0.0005,-0.00018,-0.00011,-0.00013000000000000002,4e-05,0.00016,5.9999999999999995e-05,-0.00061,3
13068,13501,-0.0005,-0.00018,-0.00011,-0.00013000000000000002,4e-05,0.00016,5.9999999999999995e-05,-0.00061,3
13069,13502,-0.00073,-0.00057,-0.0001,-1e-05,0.00011999999999999999,5.9999999999999995e-05,1e-05,0.0,3
13070,13503,-0.00073,-0.00057,-0.0001,-1e-05,0.00011999999999999999,5.9999999999999995e-05,1e-05,0.0,3
13071,13504,-0.00073,-0.00057,-0.0001,-1e-05,0.00011999999999999999,5.9999999999999995e-05,1e-05,0.0,3
13072,13505,-0.00073,-0.00057,-0.0001,-1e-05,0.00011999999999999999,5.9999999999999995e-05,1e-05,0.0,3
13073,13506,-0.00073,-0.00057,-0.0001,-1e-05,0.00011999999999999999,5.9999999999999995e-05,1e-05,0.0,3
13074,13507,-0.00073,-0.00057,-0.0001,-1e-05,0.00011999999999999999,5.9999999999999995e-05,1e-05,0.0,3
13075,13508,-0.00073,-0.00057,-0.0001,-1e-05,0.00011999999999999999,5.9999999999999995e-05,1e-05,0.0,3
13076,13509,-0.00073,-0.00057,-0.0001,-1e-05,0.00011999999999999999,5.9999999999999995e-05,1e-05,0.0,3
13077,13510,-0.00073,-0.00057,-0.0001,-1e-05,0.00011999999999999999,5.9999999999999995e-05,1e-05,0.0,3
13078,13511,1e-05,7e-05,2e-05,0.00014,2e-05,5.9999999999999995e-05,0.00018,2e-05,3
13079,13512,1e-05,7e-05,2e-05,0.00014,2e-05,5.9999999999999995e-05,0.00018,2e-05,3
13080,13513,1e-05,7e-05,2e-05,0.00014,2e-05,5.9999999999999995e-05,0.00018,2e-05,3
13081,13514,1e-05,7e-05,2e-05,0.00014,2e-05,5.9999999999999995e-05,0.00018,2e-05,3
13082,13515,1e-05,7e-05,2e-05,0.00014,2e-05,5.9999999999999995e-05,0.00018,2e-05,3
13083,13516,1e-05,7e-05,2e-05,0.00014,2e-05,5.9999999999999995e-05,0.00018,2e-05,3
13084,13517,1e-05,7e-05,2e-05,0.00014,2e-05,5.9999999999999995e-05,0.00018,2e-05,3
13085,13518,1e-05,7e-05,2e-05,0.00014,2e-05,5.9999999999999995e-05,0.00018,2e-05,3
13086,13519,1e-05,7e-05,2e-05,0.00014,2e-05,5.9999999999999995e-05,0.00018,2e-05,3
13087,13520,1e-05,7e-05,2e-05,0.00014,2e-05,5.9999999999999995e-05,0.00018,2e-05,3
13088,13521,1e-05,7e-05,2e-05,0.00014,2e-05,5.9999999999999995e-05,0.00018,2e-05,3
13089,13522,1e-05,7e-05,2e-05,0.00014,2e-05,5.9999999999999995e-05,0.00018,2e-05,3
13090,13523,1e-05,7e-05,2e-05,0.00014,2e-05,5.9999999999999995e-05,0.00018,2e-05,3
13091,13524,1e-05,7e-05,2e-05,0.00014,2e-05,5.9999999999999995e-05,0.00018,2e-05,3
13092,13525,1e-05,7e-05,2e-05,0.00014,2e-05,5.9999999999999995e-05,0.00018,2e-05,3
13093,13526,-0.00018,-0.00011999999999999999,-4e-05,2.9999999999999997e-05,2.9999999999999997e-05,-0.00045999999999999996,9e-05,-5.9999999999999995e-05,3
13094,13527,0.0005200000000000001,2.9999999999999997e-05,-5e-05,-5.9999999999999995e-05,-0.00033999999999999997,-0.00025,-5e-05,0.0011099999999999999,3
13095,13528,0.0005200000000000001,2.9999999999999997e-05,-5e-05,-5.9999999999999995e-05,-0.00033999999999999997,-0.00025,-5e-05,0.0011099999999999999,3
13096,13529,0.0005200000000000001,2.9999999999999997e-05,-5e-05,-5.9999999999999995e-05,-0.00033999999999999997,-0.00025,-5e-05,0.0011099999999999999,3
13097,13530,0.0005200000000000001,2.9999999999999997e-05,-5e-05,-5.9999999999999995e-05,-0.00033999999999999997,-0.00025,-5e-05,0.0011099999999999999,3
13098,13531,0.0005200000000000001,2.9999999999999997e-05,-5e-05,-5.9999999999999995e-05,-0.00033999999999999997,-0.00025,-5e-05,0.0011099999999999999,3
13099,13532,0.0005200000000000001,2.9999999999999997e-05,-5e-05,-5.9999999999999995e-05,-0.00033999999999999997,-0.00025,-5e-05,0.0011099999999999999,3
13100,13533,0.0005200000000000001,2.9999999999999997e-05,-5e-05,-5.9999999999999995e-05,-0.00033999999999999997,-0.00025,-5e-05,0.0011099999999999999,3
13101,13534,0.0005200000000000001,2.9999999999999997e-05,-5e-05,-5.9999999999999995e-05,-0.00033999999999999997,-0.00025,-5e-05,0.0011099999999999999,3
13102,13535,0.0005200000000000001,2.9999999999999997e-05,-5e-05,-5.9999999999999995e-05,-0.00033999999999999997,-0.00025,-5e-05,0.0011099999999999999,3
13103,13536,0.0005200000000000001,2.9999999999999997e-05,-5e-05,-5.9999999999999995e-05,-0.00033999999999999997,-0.00025,-5e-05,0.0011099999999999999,3
13104,13539,0.0005200000000000001,2.9999999999999997e-05,-5e-05,-5.9999999999999995e-05,-0.00033999999999999997,-0.00025,-5e-05,0.0011099999999999999,3
13105,13540,0.0005200000000000001,2.9999999999999997e-05,-5e-05,-5.9999999999999995e-05,-0.00033999999999999997,-0.00025,-5e-05,0.0011099999999999999,3
13106,13541,0.0005200000000000001,2.9999999999999997e-05,-5e-05,-5.9999999999999995e-05,-0.00033999999999999997,-0.00025,-5e-05,0.0011099999999999999,3
13107,13542,0.0005200000000000001,2.9999999999999997e-05,-5e-05,-5.9999999999999995e-05,-0.00033999999999999997,-0.00025,-5e-05,0.0011099999999999999,3
13108,13543,0.0005200000000000001,2.9999999999999997e-05,-5e-05,-5.9999999999999995e-05,-0.00033999999999999997,-0.00025,-5e-05,0.0011099999999999999,3
13109,13544,0.0005200000000000001,2.9999999999999997e-05,-5e-05,-5.9999999999999995e-05,-0.00033999999999999997,-0.00025,-5e-05,0.0011099999999999999,3
13110,13545,0.0005200000000000001,2.9999999999999997e-05,-5e-05,-5.9999999999999995e-05,-0.00033999999999999997,-0.00025,-5e-05,0.0011099999999999999,3
13111,13546,0.0005200000000000001,2.9999999999999997e-05,-5e-05,-5.9999999999999995e-05,-0.00033999999999999997,-0.00025,-5e-05,0.0011099999999999999,3
13112,13547,0.0005200000000000001,2.9999999999999997e-05,-5e-05,-5.9999999999999995e-05,-0.00033999999999999997,-0.00025,-5e-05,0.0011099999999999999,3
13113,13548,-5.9999999999999995e-05,5e-05,5e-05,0.00014,2.9999999999999997e-05,-8e-05,-0.00018,0.00018,3
13114,13549,-5.9999999999999995e-05,5e-05,5e-05,0.00014,2.9999999999999997e-05,-8e-05,-0.00018,0.00018,3
13115,13550,0.00016,5e-05,2.9999999999999997e-05,-5e-05,-0.00021,-0.00066,-5e-05,-0.00015,3
13116,13551,0.00016,5e-05,2.9999999999999997e-05,-5e-05,-0.00021,-0.00066,-5e-05,-0.00015,3
13117,13552,0.00016,5e-05,2.9999999999999997e-05,-5e-05,-0.00021,-0.00066,-5e-05,-0.00015,3
13118,13553,0.00016,5e-05,2.9999999999999997e-05,-5e-05,-0.00021,-0.00066,-5e-05,-0.00015,3
13119,13554,0.00016,5e-05,2.9999999999999997e-05,-5e-05,-0.00021,-0.00066,-5e-05,-0.00015,3
13120,13555,0.00016,5e-05,2.9999999999999997e-05,-5e-05,-0.00021,-0.00066,-5e-05,-0.00015,3
13121,13556,0.00016,5e-05,2.9999999999999997e-05,-5e-05,-0.00021,-0.00066,-5e-05,-0.00015,3
13122,13557,0.00016,5e-05,2.9999999999999997e-05,-5e-05,-0.00021,-0.00066,-5e-05,-0.00015,3
13123,13558,0.00016,5e-05,2.9999999999999997e-05,-5e-05,-0.00021,-0.00066,-5e-05,-0.00015,3
13124,13559,0.00016,5e-05,2.9999999999999997e-05,-5e-05,-0.00021,-0.00066,-5e-05,-0.00015,3
13125,13560,0.00016,5e-05,2.9999999999999997e-05,-5e-05,-0.00021,-0.00066,-5e-05,-0.00015,3
13126,13561,0.00016,5e-05,2.9999999999999997e-05,-5e-05,-0.00021,-0.00066,-5e-05,-0.00015,3
13127,13562,5e-05,-2e-05,-8e-05,-0.00013000000000000002,-0.00014,-0.00028,-8e-05,2.9999999999999997e-05,3
13128,13563,5e-05,-2e-05,-8e-05,-0.00013000000000000002,-0.00014,-0.00028,-8e-05,2.9999999999999997e-05,3
13129,13564,5e-05,-2e-05,-8e-05,-0.00013000000000000002,-0.00014,-0.00028,-8e-05,2.9999999999999997e-05,3
13130,13565,5e-05,-2e-05,-8e-05,-0.00013000000000000002,-0.00014,-0.00028,-8e-05,2.9999999999999997e-05,3
13131,13566,5e-05,-2e-05,-8e-05,-0.00013000000000000002,-0.00014,-0.00028,-8e-05,2.9999999999999997e-05,3
13132,13567,5e-05,-2e-05,-8e-05,-0.00013000000000000002,-0.00014,-0.00028,-8e-05,2.9999999999999997e-05,3
13133,13568,5e-05,-2e-05,-8e-05,-0.00013000000000000002,-0.00014,-0.00028,-8e-05,2.9999999999999997e-05,3
13134,13569,5e-05,-2e-05,-8e-05,-0.00013000000000000002,-0.00014,-0.00028,-8e-05,2.9999999999999997e-05,3
13135,13570,5e-05,-2e-05,-8e-05,-0.00013000000000000002,-0.00014,-0.00028,-8e-05,2.9999999999999997e-05,3
13136,13571,5e-05,-2e-05,-8e-05,-0.00013000000000000002,-0.00014,-0.00028,-8e-05,2.9999999999999997e-05,3
13137,13572,5e-05,-2e-05,-8e-05,-0.00013000000000000002,-0.00014,-0.00028,-8e-05,2.9999999999999997e-05,3
13138,13573,5e-05,-2e-05,-8e-05,-0.00013000000000000002,-0.00014,-0.00028,-8e-05,2.9999999999999997e-05,3
13139,13574,5e-05,-2e-05,-8e-05,-0.00013000000000000002,-0.00014,-0.00028,-8e-05,2.9999999999999997e-05,3
13140,13575,5e-05,-2e-05,-8e-05,-0.00013000000000000002,-0.00014,-0.00028,-8e-05,2.9999999999999997e-05,3
13141,13576,5e-05,-2e-05,-8e-05,-0.00013000000000000002,-0.00014,-0.00028,-8e-05,2.9999999999999997e-05,3
13142,13577,-0.00045999999999999996,0.00011999999999999999,5.9999999999999995e-05,0.00013000000000000002,0.00028,0.0,-0.00029,0.00022,3
13143,13578,-0.00045999999999999996,0.00011999999999999999,5.9999999999999995e-05,0.00013000000000000002,0.00028,0.0,-0.00029,0.00022,3
13144,13579,-0.00045999999999999996,0.00011999999999999999,5.9999999999999995e-05,0.00013000000000000002,0.00028,0.0,-0.00029,0.00022,3
13145,13580,-0.00045999999999999996,0.00011999999999999999,5.9999999999999995e-05,0.00013000000000000002,0.00028,0.0,-0.00029,0.00022,3
13146,13581,-0.00045999999999999996,0.00011999999999999999,5.9999999999999995e-05,0.00013000000000000002,0.00028,0.0,-0.00029,0.00022,3
13147,13582,-0.00045999999999999996,0.00011999999999999999,5.9999999999999995e-05,0.00013000000000000002,0.00028,0.0,-0.00029,0.00022,3
13148,13583,-0.00045999999999999996,0.00011999999999999999,5.9999999999999995e-05,0.00013000000000000002,0.00028,0.0,-0.00029,0.00022,3
13149,13584,-0.00045999999999999996,0.00011999999999999999,5.9999999999999995e-05,0.00013000000000000002,0.00028,0.0,-0.00029,0.00022,3
13150,13585,8e-05,-0.00018,-4e-05,-0.00011999999999999999,-0.00031,-0.00013000000000000002,-0.00011999999999999999,-0.00063,3
13151,13586,-0.00037,5e-05,-2e-05,-0.00013000000000000002,-0.00016,-0.00013000000000000002,-8e-05,-0.00101,3
13152,13589,-0.0001,-2e-05,-1e-05,-0.0001,-0.00013000000000000002,0.00025,0.0001,-0.00023999999999999998,3
13153,13590,-0.0001,-2e-05,-1e-05,-0.0001,-0.00013000000000000002,0.00025,0.0001,-0.00023999999999999998,3
13154,13591,-0.0001,-2e-05,-1e-05,-0.0001,-0.00013000000000000002,0.00025,0.0001,-0.00023999999999999998,3
13155,13592,-0.0001,-2e-05,-1e-05,-0.0001,-0.00013000000000000002,0.00025,0.0001,-0.00023999999999999998,3
13156,13593,-0.0001,-2e-05,-1e-05,-0.0001,-0.00013000000000000002,0.00025,0.0001,-0.00023999999999999998,3
13157,13594,-0.0001,-2e-05,-1e-05,-0.0001,-0.00013000000000000002,0.00025,0.0001,-0.00023999999999999998,3
13158,13595,-0.0001,-2e-05,-1e-05,-0.0001,-0.00013000000000000002,0.00025,0.0001,-0.00023999999999999998,3
13159,13596,-0.0001,-2e-05,-1e-05,-0.0001,-0.00013000000000000002,0.00025,0.0001,-0.00023999999999999998,3
13160,13597,-0.0001,-2e-05,-1e-05,-0.0001,-0.00013000000000000002,0.00025,0.0001,-0.00023999999999999998,3
13161,13598,-0.0001,-2e-05,-1e-05,-0.0001,-0.00013000000000000002,0.00025,0.0001,-0.00023999999999999998,3
13162,13599,-0.0001,-2e-05,-1e-05,-0.0001,-0.00013000000000000002,0.00025,0.0001,-0.00023999999999999998,3
13163,13600,-0.0001,-2e-05,-1e-05,-0.0001,-0.00013000000000000002,0.00025,0.0001,-0.00023999999999999998,3
13164,13601,-0.0001,-2e-05,-1e-05,-0.0001,-0.00013000000000000002,0.00025,0.0001,-0.00023999999999999998,3
13165,13602,-0.0001,-2e-05,-1e-05,-0.0001,-0.00013000000000000002,0.00025,0.0001,-0.00023999999999999998,3
13166,13603,-0.0001,-2e-05,-1e-05,-0.0001,-0.00013000000000000002,0.00025,0.0001,-0.00023999999999999998,3
13167,13604,-0.0001,-2e-05,-1e-05,-0.0001,-0.00013000000000000002,0.00025,0.0001,-0.00023999999999999998,3
13168,13605,-0.0001,-2e-05,-1e-05,-0.0001,-0.00013000000000000002,0.00025,0.0001,-0.00023999999999999998,3
13169,13606,-0.0001,-2e-05,-1e-05,-0.0001,-0.00013000000000000002,0.00025,0.0001,-0.00023999999999999998,3
13170,13607,-0.0001,-2e-05,-1e-05,-0.0001,-0.00013000000000000002,0.00025,0.0001,-0.00023999999999999998,3
13171,13608,0.00043,5e-05,2.9999999999999997e-05,2e-05,-2.9999999999999997e-05,-0.0007,0.00013000000000000002,-0.00028,3
13172,13609,0.00043,5e-05,2.9999999999999997e-05,2e-05,-2.9999999999999997e-05,-0.0007,0.00013000000000000002,-0.00028,3
13173,13610,-0.00033,-0.00056,-0.00015,-0.00011,-0.00018999999999999998,-0.0001,-0.00015,-9e-05,3
13174,13611,-0.00033,-0.00056,-0.00015,-0.00011,-0.00018999999999999998,-0.0001,-0.00015,-9e-05,3
13175,13612,-0.00033,-0.00056,-0.00015,-0.00011,-0.00018999999999999998,-0.0001,-0.00015,-9e-05,3
13176,13613,-0.00033,-0.00056,-0.00015,-0.00011,-0.00018999999999999998,-0.0001,-0.00015,-9e-05,3
