,time,channel1,channel2,channel3,channel4,channel5,channel6,channel7,channel8,class
9798,10089,1e-05,-1e-05,1e-05,4e-05,0.00022,0.0,-2e-05,-0.00016999999999999999,3
9799,10090,1e-05,-1e-05,1e-05,4e-05,0.00022,0.0,-2e-05,-0.00016999999999999999,3
9800,10091,1e-05,-1e-05,1e-05,4e-05,0.00022,0.0,-2e-05,-0.00016999999999999999,3
9801,10092,1e-05,-1e-05,1e-05,4e-05,0.00022,0.0,-2e-05,-0.00016999999999999999,3
9802,10093,1e-05,-1e-05,1e-05,4e-05,0.00022,0.0,-2e-05,-0.00016999999999999999,3
9803,10094,1e-05,-1e-05,1e-05,4e-05,0.00022,0.0,-2e-05,-0.00016999999999999999,3
9804,10095,1e-05,-1e-05,1e-05,4e-05,0.00022,0.0,-2e-05,-0.00016999999999999999,3
9805,10096,1e-05,-1e-05,1e-05,4e-05,0.00022,0.0,-2e-05,-0.00016999999999999999,3
9806,10097,1e-05,-1e-05,1e-05,4e-05,0.00022,0.0,-2e-05,-0.00016999999999999999,3
9807,10098,1e-05,-1e-05,1e-05,4e-05,0.00022,0.0,-2e-05,-0.00016999999999999999,3
9808,10099,1e-05,-1e-05,1e-05,4e-05,0.00022,0.0,-2e-05,-0.00016999999999999999,3
9809,10100,1e-05,-1e-05,1e-05,4e-05,0.00022,0.0,-2e-05,-0.00016999999999999999,3
9810,10101,1e-05,-1e-05,1e-05,4e-05,0.00022,0.0,-2e-05,-0.00016999999999999999,3
9811,10102,1e-05,-1e-05,1e-05,4e-05,0.00022,0.0,-2e-05,-0.00016999999999999999,3
9812,10103,1e-05,-1e-05,1e-05,4e-05,0.00022,0.0,-2e-05,-0.00016999999999999999,3
9813,10104,1e-05,-1e-05,1e-05,4e-05,0.00022,0.0,-2e-05,-0.00016999999999999999,3
9814,10105,1e-05,-1e-05,1e-05,4e-05,0.00022,0.0,-2e-05,-0.00016999999999999999,3
9815,10106,1e-05,-2.9999999999999997e-05,-2.9999999999999997e-05,1e-05,0.0001,0.0,4e-05,2e-05,3
9816,10107,1e-05,-2.9999999999999997e-05,-2.9999999999999997e-05,1e-05,0.0001,0.0,4e-05,2e-05,3
9817,10108,-5e-05,-2e-05,-2e-05,-4e-05,5.9999999999999995e-05,0.0,2e-05,-0.00011,3
9818,10109,-5e-05,-2e-05,-2e-05,-4e-05,5.9999999999999995e-05,0.0,2e-05,-0.00011,3
9819,10110,-5e-05,-2e-05,-2e-05,-4e-05,5.9999999999999995e-05,0.0,2e-05,-0.00011,3
9820,10111,-5e-05,-2e-05,-2e-05,-4e-05,5.9999999999999995e-05,0.0,2e-05,-0.00011,3
9821,10112,-5e-05,-2e-05,-2e-05,-4e-05,5.9999999999999995e-05,0.0,2e-05,-0.00011,3
9822,10113,-5e-05,-2e-05,-2e-05,-4e-05,5.9999999999999995e-05,0.0,2e-05,-0.00011,3
9823,10114,-5e-05,-2e-05,-2e-05,-4e-05,5.9999999999999995e-05,0.0,2e-05,-0.00011,3
9824,10115,-5e-05,-2e-05,-2e-05,-4e-05,5.9999999999999995e-05,0.0,2e-05,-0.00011,3
9825,10116,-5e-05,-2e-05,-2e-05,-4e-05,5.9999999999999995e-05,0.0,2e-05,-0.00011,3
9826,10117,-5e-05,-2e-05,-2e-05,-4e-05,5.9999999999999995e-05,0.0,2e-05,-0.00011,3
9827,10118,-5e-05,-2e-05,-2e-05,-4e-05,5.9999999999999995e-05,0.0,2e-05,-0.00011,3
9828,10119,-5e-05,-2e-05,-2e-05,-4e-05,5.9999999999999995e-05,0.0,2e-05,-0.00011,3
9829,10120,-5e-05,-2e-05,-2e-05,-4e-05,5.9999999999999995e-05,0.0,2e-05,-0.00011,3
9830,10121,1e-05,0.0,1e-05,-5e-05,-5.9999999999999995e-05,-2.9999999999999997e-05,2e-05,-0.00011999999999999999,3
9831,10122,1e-05,0.0,1e-05,-5e-05,-5.9999999999999995e-05,-2.9999999999999997e-05,2e-05,-0.00011999999999999999,3
9832,10123,1e-05,0.0,1e-05,-5e-05,-5.9999999999999995e-05,-2.9999999999999997e-05,2e-05,-0.00011999999999999999,3
9833,10124,1e-05,0.0,1e-05,-5e-05,-5.9999999999999995e-05,-2.9999999999999997e-05,2e-05,-0.00011999999999999999,3
9834,10125,1e-05,0.0,1e-05,-5e-05,-5.9999999999999995e-05,-2.9999999999999997e-05,2e-05,-0.00011999999999999999,3
9835,10126,1e-05,0.0,1e-05,-5e-05,-5.9999999999999995e-05,-2.9999999999999997e-05,2e-05,-0.00011999999999999999,3
9836,10127,1e-05,0.0,1e-05,-5e-05,-5.9999999999999995e-05,-2.9999999999999997e-05,2e-05,-0.00011999999999999999,3
9837,10128,2.9999999999999997e-05,0.0,2e-05,2e-05,0.00018999999999999998,-5e-05,-5e-05,4e-05,3
9838,10129,2.9999999999999997e-05,0.0,2e-05,2e-05,0.00018999999999999998,-5e-05,-5e-05,4e-05,3
9839,10130,2.9999999999999997e-05,0.0,2e-05,2e-05,0.00018999999999999998,-5e-05,-5e-05,4e-05,3
9840,10131,2.9999999999999997e-05,0.0,2e-05,2e-05,0.00018999999999999998,-5e-05,-5e-05,4e-05,3
9841,10132,2.9999999999999997e-05,0.0,2e-05,2e-05,0.00018999999999999998,-5e-05,-5e-05,4e-05,3
9842,10133,2.9999999999999997e-05,0.0,2e-05,2e-05,0.00018999999999999998,-5e-05,-5e-05,4e-05,3
9843,10134,2.9999999999999997e-05,0.0,2e-05,2e-05,0.00018999999999999998,-5e-05,-5e-05,4e-05,3
9844,10135,2.9999999999999997e-05,0.0,2e-05,2e-05,0.00018999999999999998,-5e-05,-5e-05,4e-05,3
9845,10136,2.9999999999999997e-05,0.0,2e-05,2e-05,0.00018999999999999998,-5e-05,-5e-05,4e-05,3
9846,10139,2.9999999999999997e-05,0.0,2e-05,2e-05,0.00018999999999999998,-5e-05,-5e-05,4e-05,3
9847,10140,2.9999999999999997e-05,0.0,2e-05,2e-05,0.00018999999999999998,-5e-05,-5e-05,4e-05,3
9848,10141,2.9999999999999997e-05,0.0,2e-05,2e-05,0.00018999999999999998,-5e-05,-5e-05,4e-05,3
9849,10142,2.9999999999999997e-05,0.0,2e-05,2e-05,0.00018999999999999998,-5e-05,-5e-05,4e-05,3
9850,10143,5e-05,-1e-05,-2.9999999999999997e-05,-2e-05,-4e-05,5e-05,5e-05,-0.0001,3
9851,10144,1e-05,-1e-05,-2e-05,-5e-05,-0.00028,-2.9999999999999997e-05,-7e-05,-5e-05,3
9852,10145,1e-05,-1e-05,-2e-05,-5e-05,-0.00028,-2.9999999999999997e-05,-7e-05,-5e-05,3
9853,10146,1e-05,-1e-05,-2e-05,-5e-05,-0.00028,-2.9999999999999997e-05,-7e-05,-5e-05,3
9854,10147,1e-05,-1e-05,-2e-05,-5e-05,-0.00028,-2.9999999999999997e-05,-7e-05,-5e-05,3
9855,10148,1e-05,-1e-05,-2e-05,-5e-05,-0.00028,-2.9999999999999997e-05,-7e-05,-5e-05,3
9856,10149,1e-05,-1e-05,-2e-05,-5e-05,-0.00028,-2.9999999999999997e-05,-7e-05,-5e-05,3
9857,10150,1e-05,-1e-05,-2e-05,-5e-05,-0.00028,-2.9999999999999997e-05,-7e-05,-5e-05,3
9858,10151,1e-05,-1e-05,-2e-05,-5e-05,-0.00028,-2.9999999999999997e-05,-7e-05,-5e-05,3
9859,10152,1e-05,-1e-05,-2e-05,-5e-05,-0.00028,-2.9999999999999997e-05,-7e-05,-5e-05,3
9860,10153,1e-05,-1e-05,-2e-05,-5e-05,-0.00028,-2.9999999999999997e-05,-7e-05,-5e-05,3
9861,10154,1e-05,-1e-05,-2e-05,-5e-05,-0.00028,-2.9999999999999997e-05,-7e-05,-5e-05,3
9862,10155,1e-05,-1e-05,-2e-05,-5e-05,-0.00028,-2.9999999999999997e-05,-7e-05,-5e-05,3
9863,10156,1e-05,-1e-05,-2e-05,-5e-05,-0.00028,-2.9999999999999997e-05,-7e-05,-5e-05,3
9864,10157,1e-05,-1e-05,-2e-05,-5e-05,-0.00028,-2.9999999999999997e-05,-7e-05,-5e-05,3
9865,10158,1e-05,-1e-05,-2e-05,-5e-05,-0.00028,-2.9999999999999997e-05,-7e-05,-5e-05,3
9866,10159,1e-05,-1e-05,-2e-05,-5e-05,-0.00028,-2.9999999999999997e-05,-7e-05,-5e-05,3
9867,10160,1e-05,-1e-05,-2e-05,-5e-05,-0.00028,-2.9999999999999997e-05,-7e-05,-5e-05,3
9868,10161,1e-05,-1e-05,-2e-05,-5e-05,-0.00028,-2.9999999999999997e-05,-7e-05,-5e-05,3
9869,10162,1e-05,-1e-05,-2e-05,-5e-05,-0.00028,-2.9999999999999997e-05,-7e-05,-5e-05,3
9870,10163,1e-05,-1e-05,-2e-05,-5e-05,-0.00028,-2.9999999999999997e-05,-7e-05,-5e-05,3
9871,10164,1e-05,-1e-05,-2e-05,-5e-05,-0.00028,-2.9999999999999997e-05,-7e-05,-5e-05,3
9872,10165,1e-05,-1e-05,-2e-05,-5e-05,-0.00028,-2.9999999999999997e-05,-7e-05,-5e-05,3
9873,10166,1e-05,-2e-05,-2.9999999999999997e-05,-5e-05,-2.9999999999999997e-05,-4e-05,-4e-05,-0.00015,3
9874,10167,1e-05,-2e-05,-2.9999999999999997e-05,-5e-05,-2.9999999999999997e-05,-4e-05,-4e-05,-0.00015,3
9875,10168,1e-05,-2e-05,-2.9999999999999997e-05,-5e-05,-2.9999999999999997e-05,-4e-05,-4e-05,-0.00015,3
9876,10169,1e-05,-2e-05,-2.9999999999999997e-05,-5e-05,-2.9999999999999997e-05,-4e-05,-4e-05,-0.00015,3
9877,10170,1e-05,-2e-05,-2.9999999999999997e-05,-5e-05,-2.9999999999999997e-05,-4e-05,-4e-05,-0.00015,3
9878,10171,1e-05,-2e-05,-2.9999999999999997e-05,-5e-05,-2.9999999999999997e-05,-4e-05,-4e-05,-0.00015,3
9879,10172,1e-05,-2e-05,-2.9999999999999997e-05,-5e-05,-2.9999999999999997e-05,-4e-05,-4e-05,-0.00015,3
9880,10173,1e-05,-2e-05,-2.9999999999999997e-05,-5e-05,-2.9999999999999997e-05,-4e-05,-4e-05,-0.00015,3
9881,10174,1e-05,-2e-05,-2.9999999999999997e-05,-5e-05,-2.9999999999999997e-05,-4e-05,-4e-05,-0.00015,3
9882,10175,1e-05,-2e-05,-2.9999999999999997e-05,-5e-05,-2.9999999999999997e-05,-4e-05,-4e-05,-0.00015,3
9883,10176,1e-05,-2e-05,-2.9999999999999997e-05,-5e-05,-2.9999999999999997e-05,-4e-05,-4e-05,-0.00015,3
9884,10177,1e-05,-2e-05,-2.9999999999999997e-05,-5e-05,-2.9999999999999997e-05,-4e-05,-4e-05,-0.00015,3
9885,10178,1e-05,-2e-05,-2.9999999999999997e-05,-5e-05,-2.9999999999999997e-05,-4e-05,-4e-05,-0.00015,3
9886,10179,1e-05,-2e-05,-2.9999999999999997e-05,-5e-05,-2.9999999999999997e-05,-4e-05,-4e-05,-0.00015,3
9887,10180,0.0,0.0,-4e-05,-5.9999999999999995e-05,-0.00039,-0.00011,-5.9999999999999995e-05,-0.00018999999999999998,3
9888,10181,0.0,0.0,-4e-05,-5.9999999999999995e-05,-0.00039,-0.00011,-5.9999999999999995e-05,-0.00018999999999999998,3
9889,10182,0.0,0.0,-4e-05,-5.9999999999999995e-05,-0.00039,-0.00011,-5.9999999999999995e-05,-0.00018999999999999998,3
9890,10183,0.0,0.0,-4e-05,-5.9999999999999995e-05,-0.00039,-0.00011,-5.9999999999999995e-05,-0.00018999999999999998,3
9891,10184,0.0,0.0,-4e-05,-5.9999999999999995e-05,-0.00039,-0.00011,-5.9999999999999995e-05,-0.00018999999999999998,3
9892,10185,0.0,0.0,-4e-05,-5.9999999999999995e-05,-0.00039,-0.00011,-5.9999999999999995e-05,-0.00018999999999999998,3
9893,10186,0.0,0.0,-4e-05,-5.9999999999999995e-05,-0.00039,-0.00011,-5.9999999999999995e-05,-0.00018999999999999998,3
9894,10188,0.0,-1e-05,-1e-05,-2e-05,1e-05,5.9999999999999995e-05,5e-05,0.00013000000000000002,3
9895,10189,0.0,-1e-05,-1e-05,-2e-05,1e-05,5.9999999999999995e-05,5e-05,0.00013000000000000002,3
9896,10190,0.0,-1e-05,-1e-05,-2e-05,1e-05,5.9999999999999995e-05,5e-05,0.00013000000000000002,3
9897,10191,0.0,-1e-05,-1e-05,-2e-05,1e-05,5.9999999999999995e-05,5e-05,0.00013000000000000002,3
9898,10192,0.0,-1e-05,-1e-05,-2e-05,1e-05,5.9999999999999995e-05,5e-05,0.00013000000000000002,3
9899,10193,0.0,-1e-05,-1e-05,-2e-05,1e-05,5.9999999999999995e-05,5e-05,0.00013000000000000002,3
9900,10194,0.0,-1e-05,-1e-05,-2e-05,1e-05,5.9999999999999995e-05,5e-05,0.00013000000000000002,3
9901,10195,0.0,-1e-05,-1e-05,-2e-05,1e-05,5.9999999999999995e-05,5e-05,0.00013000000000000002,3
9902,10196,0.0,-1e-05,-1e-05,-2e-05,1e-05,5.9999999999999995e-05,5e-05,0.00013000000000000002,3
9903,10197,0.0,-1e-05,-1e-05,-2e-05,1e-05,5.9999999999999995e-05,5e-05,0.00013000000000000002,3
9904,10198,0.0,-1e-05,-1e-05,-2e-05,1e-05,5.9999999999999995e-05,5e-05,0.00013000000000000002,3
9905,10199,0.0,-1e-05,-1e-05,-2e-05,1e-05,5.9999999999999995e-05,5e-05,0.00013000000000000002,3
9906,10200,0.0,-1e-05,-1e-05,-2e-05,1e-05,5.9999999999999995e-05,5e-05,0.00013000000000000002,3
9907,10201,0.0,-1e-05,-1e-05,-2e-05,1e-05,5.9999999999999995e-05,5e-05,0.00013000000000000002,3
9908,10202,0.0,-1e-05,-1e-05,-2e-05,1e-05,5.9999999999999995e-05,5e-05,0.00013000000000000002,3
9909,10203,-5e-05,-2.9999999999999997e-05,1e-05,0.0,5e-05,8e-05,5.9999999999999995e-05,2e-05,3
9910,10204,-5e-05,-2.9999999999999997e-05,1e-05,0.0,5e-05,8e-05,5.9999999999999995e-05,2e-05,3
9911,10205,1e-05,-1e-05,-1e-05,1e-05,-5.9999999999999995e-05,8e-05,5e-05,4e-05,3
9912,10206,1e-05,-1e-05,-1e-05,1e-05,-5.9999999999999995e-05,8e-05,5e-05,4e-05,3
9913,10207,1e-05,-1e-05,-1e-05,1e-05,-5.9999999999999995e-05,8e-05,5e-05,4e-05,3
9914,10208,1e-05,-1e-05,-1e-05,1e-05,-5.9999999999999995e-05,8e-05,5e-05,4e-05,3
9915,10209,1e-05,-1e-05,-1e-05,1e-05,-5.9999999999999995e-05,8e-05,5e-05,4e-05,3
9916,10210,1e-05,-1e-05,-1e-05,1e-05,-5.9999999999999995e-05,8e-05,5e-05,4e-05,3
9917,10211,1e-05,-1e-05,-1e-05,1e-05,-5.9999999999999995e-05,8e-05,5e-05,4e-05,3
9918,10212,1e-05,-1e-05,-1e-05,1e-05,-5.9999999999999995e-05,8e-05,5e-05,4e-05,3
9919,10213,1e-05,-1e-05,-1e-05,1e-05,-5.9999999999999995e-05,8e-05,5e-05,4e-05,3
9920,10214,1e-05,-1e-05,-1e-05,1e-05,-5.9999999999999995e-05,8e-05,5e-05,4e-05,3
9921,10215,1e-05,-1e-05,-1e-05,1e-05,-5.9999999999999995e-05,8e-05,5e-05,4e-05,3
9922,10216,1e-05,-1e-05,-1e-05,1e-05,-5.9999999999999995e-05,8e-05,5e-05,4e-05,3
9923,10217,1e-05,-1e-05,-1e-05,1e-05,-5.9999999999999995e-05,8e-05,5e-05,4e-05,3
9924,10218,1e-05,-1e-05,-1e-05,1e-05,-5.9999999999999995e-05,8e-05,5e-05,4e-05,3
9925,10219,1e-05,-1e-05,-1e-05,1e-05,-5.9999999999999995e-05,8e-05,5e-05,4e-05,3
9926,10220,1e-05,-1e-05,-1e-05,1e-05,-5.9999999999999995e-05,8e-05,5e-05,4e-05,3
9927,10221,1e-05,-1e-05,-1e-05,1e-05,-5.9999999999999995e-05,8e-05,5e-05,4e-05,3
9928,10222,1e-05,-1e-05,-1e-05,1e-05,-5.9999999999999995e-05,8e-05,5e-05,4e-05,3
9929,10223,1e-05,-1e-05,-1e-05,1e-05,-5.9999999999999995e-05,8e-05,5e-05,4e-05,3
9930,10224,1e-05,-1e-05,-1e-05,1e-05,-5.9999999999999995e-05,8e-05,5e-05,4e-05,3
9931,10225,1e-05,-1e-05,-1e-05,1e-05,-5.9999999999999995e-05,8e-05,5e-05,4e-05,3
9932,10226,-2.9999999999999997e-05,-1e-05,-1e-05,0.0,0.0001,2e-05,-5.9999999999999995e-05,0.00036,3
9933,10227,-2.9999999999999997e-05,-1e-05,-1e-05,0.0,0.0001,2e-05,-5.9999999999999995e-05,0.00036,3
9934,10228,-2.9999999999999997e-05,-1e-05,-1e-05,0.0,0.0001,2e-05,-5.9999999999999995e-05,0.00036,3
9935,10229,-2.9999999999999997e-05,-1e-05,-1e-05,0.0,0.0001,2e-05,-5.9999999999999995e-05,0.00036,3
9936,10230,-2.9999999999999997e-05,-1e-05,-1e-05,0.0,0.0001,2e-05,-5.9999999999999995e-05,0.00036,3
9937,10231,-2.9999999999999997e-05,-1e-05,-1e-05,0.0,0.0001,2e-05,-5.9999999999999995e-05,0.00036,3
9938,10232,-2.9999999999999997e-05,-1e-05,-1e-05,0.0,0.0001,2e-05,-5.9999999999999995e-05,0.00036,3
9939,10233,-2.9999999999999997e-05,-1e-05,-1e-05,0.0,0.0001,2e-05,-5.9999999999999995e-05,0.00036,3
9940,10234,-2.9999999999999997e-05,-1e-05,-1e-05,0.0,0.0001,2e-05,-5.9999999999999995e-05,0.00036,3
9941,10235,-2.9999999999999997e-05,-1e-05,-1e-05,0.0,0.0001,2e-05,-5.9999999999999995e-05,0.00036,3
9942,10236,-2.9999999999999997e-05,-1e-05,-1e-05,0.0,0.0001,2e-05,-5.9999999999999995e-05,0.00036,3
9943,10239,-2.9999999999999997e-05,-1e-05,-1e-05,0.0,0.0001,2e-05,-5.9999999999999995e-05,0.00036,3
9944,10240,-2.9999999999999997e-05,-2e-05,-2e-05,-5e-05,-0.00025,-5e-05,-5e-05,2e-05,3
9945,10241,-2.9999999999999997e-05,-2e-05,-2e-05,-5e-05,-0.00025,-5e-05,-5e-05,2e-05,3
9946,10242,-2.9999999999999997e-05,-2e-05,-2e-05,-5e-05,-0.00025,-5e-05,-5e-05,2e-05,3
9947,10243,-2.9999999999999997e-05,-2e-05,-2e-05,-5e-05,-0.00025,-5e-05,-5e-05,2e-05,3
9948,10244,-2.9999999999999997e-05,-2e-05,-2e-05,-5e-05,-0.00025,-5e-05,-5e-05,2e-05,3
9949,10245,-2.9999999999999997e-05,-2e-05,-2e-05,-5e-05,-0.00025,-5e-05,-5e-05,2e-05,3
9950,10246,-2.9999999999999997e-05,-2e-05,-2e-05,-5e-05,-0.00025,-5e-05,-5e-05,2e-05,3
9951,10247,-2.9999999999999997e-05,-2e-05,-2e-05,-5e-05,-0.00025,-5e-05,-5e-05,2e-05,3
9952,10248,-4e-05,2e-05,1e-05,2.9999999999999997e-05,9e-05,2e-05,4e-05,0.00011,3
9953,10249,-4e-05,2e-05,1e-05,2.9999999999999997e-05,9e-05,2e-05,4e-05,0.00011,3
9954,10250,-4e-05,2e-05,1e-05,2.9999999999999997e-05,9e-05,2e-05,4e-05,0.00011,3
9955,10251,-4e-05,2e-05,1e-05,2.9999999999999997e-05,9e-05,2e-05,4e-05,0.00011,3
9956,10252,-4e-05,2e-05,1e-05,2.9999999999999997e-05,9e-05,2e-05,4e-05,0.00011,3
9957,10253,-4e-05,2e-05,1e-05,2.9999999999999997e-05,9e-05,2e-05,4e-05,0.00011,3
9958,10254,-4e-05,2e-05,1e-05,2.9999999999999997e-05,9e-05,2e-05,4e-05,0.00011,3
9959,10255,-4e-05,2e-05,1e-05,2.9999999999999997e-05,9e-05,2e-05,4e-05,0.00011,3
9960,10256,-4e-05,2e-05,1e-05,2.9999999999999997e-05,9e-05,2e-05,4e-05,0.00011,3
9961,10257,-4e-05,2e-05,1e-05,2.9999999999999997e-05,9e-05,2e-05,4e-05,0.00011,3
9962,10258,-4e-05,2e-05,1e-05,2.9999999999999997e-05,9e-05,2e-05,4e-05,0.00011,3
9963,10259,-4e-05,2e-05,1e-05,2.9999999999999997e-05,9e-05,2e-05,4e-05,0.00011,3
9964,10260,-4e-05,2e-05,1e-05,2.9999999999999997e-05,9e-05,2e-05,4e-05,0.00011,3
9965,10261,-4e-05,2e-05,1e-05,2.9999999999999997e-05,9e-05,2e-05,4e-05,0.00011,3
9966,10262,-4e-05,2e-05,1e-05,2.9999999999999997e-05,9e-05,2e-05,4e-05,0.00011,3
9967,10263,-2.9999999999999997e-05,-2.9999999999999997e-05,-4e-05,-5e-05,-2.9999999999999997e-05,-2e-05,-2e-05,5.9999999999999995e-05,3
9968,10264,-2e-05,0.0,1e-05,-4e-05,-5.9999999999999995e-05,-5e-05,-2e-05,-9e-05,3
9969,10265,-2e-05,0.0,1e-05,-4e-05,-5.9999999999999995e-05,-5e-05,-2e-05,-9e-05,3
9970,10266,-2e-05,0.0,1e-05,-4e-05,-5.9999999999999995e-05,-5e-05,-2e-05,-9e-05,3
9971,10267,-2e-05,0.0,1e-05,-4e-05,-5.9999999999999995e-05,-5e-05,-2e-05,-9e-05,3
9972,10268,-2e-05,0.0,1e-05,-4e-05,-5.9999999999999995e-05,-5e-05,-2e-05,-9e-05,3
9973,10269,-2e-05,0.0,1e-05,-4e-05,-5.9999999999999995e-05,-5e-05,-2e-05,-9e-05,3
9974,10270,-2e-05,0.0,1e-05,-4e-05,-5.9999999999999995e-05,-5e-05,-2e-05,-9e-05,3
9975,10271,-2e-05,0.0,1e-05,-4e-05,-5.9999999999999995e-05,-5e-05,-2e-05,-9e-05,3
9976,10272,-2e-05,0.0,1e-05,-4e-05,-5.9999999999999995e-05,-5e-05,-2e-05,-9e-05,3
9977,10273,-2e-05,0.0,1e-05,-4e-05,-5.9999999999999995e-05,-5e-05,-2e-05,-9e-05,3
9978,10274,-2e-05,0.0,1e-05,-4e-05,-5.9999999999999995e-05,-5e-05,-2e-05,-9e-05,3
9979,10275,-2e-05,0.0,1e-05,-4e-05,-5.9999999999999995e-05,-5e-05,-2e-05,-9e-05,3
9980,10276,-2e-05,0.0,1e-05,-4e-05,-5.9999999999999995e-05,-5e-05,-2e-05,-9e-05,3
9981,10277,-2e-05,0.0,1e-05,-4e-05,-5.9999999999999995e-05,-5e-05,-2e-05,-9e-05,3
9982,10278,-2e-05,0.0,1e-05,-4e-05,-5.9999999999999995e-05,-5e-05,-2e-05,-9e-05,3
9983,10279,-2e-05,0.0,1e-05,-4e-05,-5.9999999999999995e-05,-5e-05,-2e-05,-9e-05,3
9984,10280,-2e-05,0.0,1e-05,-4e-05,-5.9999999999999995e-05,-5e-05,-2e-05,-9e-05,3
9985,10281,-2e-05,0.0,1e-05,-4e-05,-5.9999999999999995e-05,-5e-05,-2e-05,-9e-05,3
9986,10282,-2e-05,0.0,1e-05,-4e-05,-5.9999999999999995e-05,-5e-05,-2e-05,-9e-05,3
9987,10283,-2e-05,0.0,1e-05,-4e-05,-5.9999999999999995e-05,-5e-05,-2e-05,-9e-05,3
9988,10284,-2e-05,0.0,1e-05,-4e-05,-5.9999999999999995e-05,-5e-05,-2e-05,-9e-05,3
9989,10285,-2e-05,-1e-05,-1e-05,-2.9999999999999997e-05,2.9999999999999997e-05,-2e-05,0.0,5e-05,3
9990,10286,-1e-05,-2e-05,-2e-05,2e-05,-0.00011999999999999999,-7e-05,-5.9999999999999995e-05,-0.00018999999999999998,3
9991,10289,-1e-05,-2e-05,-2e-05,2e-05,-0.00011999999999999999,-7e-05,-5.9999999999999995e-05,-0.00018999999999999998,3
9992,10290,-1e-05,-2e-05,-2e-05,2e-05,-0.00011999999999999999,-7e-05,-5.9999999999999995e-05,-0.00018999999999999998,3
9993,10291,-1e-05,-2e-05,-2e-05,2e-05,-0.00011999999999999999,-7e-05,-5.9999999999999995e-05,-0.00018999999999999998,3
9994,10292,-1e-05,-2e-05,-2e-05,2e-05,-0.00011999999999999999,-7e-05,-5.9999999999999995e-05,-0.00018999999999999998,3
9995,10293,-1e-05,-2e-05,-2e-05,2e-05,-0.00011999999999999999,-7e-05,-5.9999999999999995e-05,-0.00018999999999999998,3
9996,10294,-1e-05,-2e-05,-2e-05,2e-05,-0.00011999999999999999,-7e-05,-5.9999999999999995e-05,-0.00018999999999999998,3
9997,10295,-1e-05,-2e-05,-2e-05,2e-05,-0.00011999999999999999,-7e-05,-5.9999999999999995e-05,-0.00018999999999999998,3
9998,10296,-1e-05,-2e-05,-2e-05,2e-05,-0.00011999999999999999,-7e-05,-5.9999999999999995e-05,-0.00018999999999999998,3
9999,10297,-1e-05,-2e-05,-2e-05,2e-05,-0.00011999999999999999,-7e-05,-5.9999999999999995e-05,-0.00018999999999999998,3
10000,10298,-1e-05,-2e-05,-2e-05,2e-05,-0.00011999999999999999,-7e-05,-5.9999999999999995e-05,-0.00018999999999999998,3
10001,10299,-1e-05,-2e-05,-2e-05,2e-05,-0.00011999999999999999,-7e-05,-5.9999999999999995e-05,-0.00018999999999999998,3
10002,10300,-1e-05,-2e-05,-2e-05,2e-05,-0.00011999999999999999,-7e-05,-5.9999999999999995e-05,-0.00018999999999999998,3
10003,10301,-1e-05,-2.9999999999999997e-05,-2e-05,-2.9999999999999997e-05,-0.00015,-7e-05,-2e-05,-5e-05,3
10004,10302,-1e-05,-2.9999999999999997e-05,-2e-05,-2.9999999999999997e-05,-0.00015,-7e-05,-2e-05,-5e-05,3
10005,10303,-1e-05,-2.9999999999999997e-05,-2e-05,-2.9999999999999997e-05,-0.00015,-7e-05,-2e-05,-5e-05,3
10006,10304,-1e-05,-2.9999999999999997e-05,-2e-05,-2.9999999999999997e-05,-0.00015,-7e-05,-2e-05,-5e-05,3
10007,10305,-1e-05,-2.9999999999999997e-05,-2e-05,-2.9999999999999997e-05,-0.00015,-7e-05,-2e-05,-5e-05,3
10008,10306,-1e-05,-2.9999999999999997e-05,-2e-05,-2.9999999999999997e-05,-0.00015,-7e-05,-2e-05,-5e-05,3
10009,10307,-1e-05,-2.9999999999999997e-05,-2e-05,-2.9999999999999997e-05,-0.00015,-7e-05,-2e-05,-5e-05,3
10010,10308,-1e-05,-2.9999999999999997e-05,-2e-05,-2.9999999999999997e-05,-0.00015,-7e-05,-2e-05,-5e-05,3
10011,10309,-1e-05,-2.9999999999999997e-05,-2e-05,-2.9999999999999997e-05,-0.00015,-7e-05,-2e-05,-5e-05,3
10012,10310,-1e-05,-2.9999999999999997e-05,-2e-05,-2.9999999999999997e-05,-0.00015,-7e-05,-2e-05,-5e-05,3
10013,10311,-1e-05,-2.9999999999999997e-05,-2e-05,-2.9999999999999997e-05,-0.00015,-7e-05,-2e-05,-5e-05,3
10014,10312,-1e-05,-2.9999999999999997e-05,-2e-05,-2.9999999999999997e-05,-0.00015,-7e-05,-2e-05,-5e-05,3
10015,10313,-1e-05,-2.9999999999999997e-05,-2e-05,-2.9999999999999997e-05,-0.00015,-7e-05,-2e-05,-5e-05,3
10016,10314,-1e-05,-2.9999999999999997e-05,-2e-05,-2.9999999999999997e-05,-0.00015,-7e-05,-2e-05,-5e-05,3
10017,10315,-1e-05,-2.9999999999999997e-05,-2e-05,-2.9999999999999997e-05,-0.00015,-7e-05,-2e-05,-5e-05,3
10018,10316,-1e-05,-2.9999999999999997e-05,-2e-05,-2.9999999999999997e-05,-0.00015,-7e-05,-2e-05,-5e-05,3
10019,10317,-1e-05,-2.9999999999999997e-05,-2e-05,-2.9999999999999997e-05,-0.00015,-7e-05,-2e-05,-5e-05,3
10020,10318,-1e-05,-2.9999999999999997e-05,-2e-05,-2.9999999999999997e-05,-0.00015,-7e-05,-2e-05,-5e-05,3
10021,10319,-1e-05,-2.9999999999999997e-05,-2e-05,-2.9999999999999997e-05,-0.00015,-7e-05,-2e-05,-5e-05,3
10022,10320,-1e-05,-2.9999999999999997e-05,-2e-05,-2.9999999999999997e-05,-0.00015,-7e-05,-2e-05,-5e-05,3
10023,10321,-1e-05,-2.9999999999999997e-05,-2e-05,-2.9999999999999997e-05,-0.00015,-7e-05,-2e-05,-5e-05,3
10024,10322,-1e-05,-2.9999999999999997e-05,-2e-05,-2.9999999999999997e-05,-0.00015,-7e-05,-2e-05,-5e-05,3
10025,10323,-1e-05,-1e-05,-2e-05,-2e-05,-1e-05,0.00013000000000000002,7e-05,4e-05,3
10026,10324,2e-05,1e-05,-1e-05,5.9999999999999995e-05,0.00031,4e-05,8e-05,2.9999999999999997e-05,3
10027,10325,2e-05,1e-05,-1e-05,5.9999999999999995e-05,0.00031,4e-05,8e-05,2.9999999999999997e-05,3
10028,10326,2e-05,1e-05,-1e-05,5.9999999999999995e-05,0.00031,4e-05,8e-05,2.9999999999999997e-05,3
10029,10327,2e-05,1e-05,-1e-05,5.9999999999999995e-05,0.00031,4e-05,8e-05,2.9999999999999997e-05,3
10030,10328,2e-05,1e-05,-1e-05,5.9999999999999995e-05,0.00031,4e-05,8e-05,2.9999999999999997e-05,3
10031,10329,2e-05,1e-05,-1e-05,5.9999999999999995e-05,0.00031,4e-05,8e-05,2.9999999999999997e-05,3
10032,10330,2e-05,1e-05,-1e-05,5.9999999999999995e-05,0.00031,4e-05,8e-05,2.9999999999999997e-05,3
10033,10331,2e-05,1e-05,-1e-05,5.9999999999999995e-05,0.00031,4e-05,8e-05,2.9999999999999997e-05,3
10034,10332,2e-05,1e-05,-1e-05,5.9999999999999995e-05,0.00031,4e-05,8e-05,2.9999999999999997e-05,3
10035,10333,2e-05,1e-05,-1e-05,5.9999999999999995e-05,0.00031,4e-05,8e-05,2.9999999999999997e-05,3
10036,10334,2e-05,1e-05,-1e-05,5.9999999999999995e-05,0.00031,4e-05,8e-05,2.9999999999999997e-05,3
10037,10335,2e-05,1e-05,-1e-05,5.9999999999999995e-05,0.00031,4e-05,8e-05,2.9999999999999997e-05,3
10038,10336,2e-05,1e-05,-1e-05,5.9999999999999995e-05,0.00031,4e-05,8e-05,2.9999999999999997e-05,3
10039,10339,2e-05,1e-05,-1e-05,5.9999999999999995e-05,0.00031,4e-05,8e-05,2.9999999999999997e-05,3
10040,10340,2e-05,1e-05,-1e-05,5.9999999999999995e-05,0.00031,4e-05,8e-05,2.9999999999999997e-05,3
10041,10341,2e-05,1e-05,-1e-05,5.9999999999999995e-05,0.00031,4e-05,8e-05,2.9999999999999997e-05,3
10042,10342,2e-05,1e-05,-1e-05,5.9999999999999995e-05,0.00031,4e-05,8e-05,2.9999999999999997e-05,3
10043,10343,2e-05,1e-05,-1e-05,5.9999999999999995e-05,0.00031,4e-05,8e-05,2.9999999999999997e-05,3
10044,10344,2e-05,1e-05,-1e-05,5.9999999999999995e-05,0.00031,4e-05,8e-05,2.9999999999999997e-05,3
10045,10345,2e-05,1e-05,-1e-05,5.9999999999999995e-05,0.00031,4e-05,8e-05,2.9999999999999997e-05,3
10046,10346,2.9999999999999997e-05,-2.9999999999999997e-05,-2e-05,-5e-05,-0.00025,-0.0001,-2e-05,-5e-05,3
10047,10347,2.9999999999999997e-05,-2.9999999999999997e-05,-2e-05,-5e-05,-0.00025,-0.0001,-2e-05,-5e-05,3
10048,10348,2.9999999999999997e-05,-2.9999999999999997e-05,-2e-05,-5e-05,-0.00025,-0.0001,-2e-05,-5e-05,3
10049,10349,2.9999999999999997e-05,-2.9999999999999997e-05,-2e-05,-5e-05,-0.00025,-0.0001,-2e-05,-5e-05,3
10050,10350,2.9999999999999997e-05,-2.9999999999999997e-05,-2e-05,-5e-05,-0.00025,-0.0001,-2e-05,-5e-05,3
10051,10351,2.9999999999999997e-05,-2.9999999999999997e-05,-2e-05,-5e-05,-0.00025,-0.0001,-2e-05,-5e-05,3
10052,10352,2.9999999999999997e-05,-2.9999999999999997e-05,-2e-05,-5e-05,-0.00025,-0.0001,-2e-05,-5e-05,3
10053,10353,2.9999999999999997e-05,-2.9999999999999997e-05,-2e-05,-5e-05,-0.00025,-0.0001,-2e-05,-5e-05,3
10054,10354,2.9999999999999997e-05,-2.9999999999999997e-05,-2e-05,-5e-05,-0.00025,-0.0001,-2e-05,-5e-05,3
10055,10355,2.9999999999999997e-05,-2.9999999999999997e-05,-2e-05,-5e-05,-0.00025,-0.0001,-2e-05,-5e-05,3
10056,10356,2.9999999999999997e-05,-2.9999999999999997e-05,-2e-05,-5e-05,-0.00025,-0.0001,-2e-05,-5e-05,3
10057,10357,2.9999999999999997e-05,-2.9999999999999997e-05,-2e-05,-5e-05,-0.00025,-0.0001,-2e-05,-5e-05,3
10058,10358,2.9999999999999997e-05,-2.9999999999999997e-05,-2e-05,-5e-05,-0.00025,-0.0001,-2e-05,-5e-05,3
10059,10359,2.9999999999999997e-05,-2.9999999999999997e-05,-2e-05,-5e-05,-0.00025,-0.0001,-2e-05,-5e-05,3
10060,10360,1e-05,2e-05,0.0,4e-05,0.00018,1e-05,4e-05,-5e-05,3
10061,10361,1e-05,2e-05,0.0,4e-05,0.00018,1e-05,4e-05,-5e-05,3
10062,10362,1e-05,2e-05,0.0,4e-05,0.00018,1e-05,4e-05,-5e-05,3
10063,10363,1e-05,2e-05,0.0,4e-05,0.00018,1e-05,4e-05,-5e-05,3
10064,10364,1e-05,2e-05,0.0,4e-05,0.00018,1e-05,4e-05,-5e-05,3
10065,10365,1e-05,2e-05,0.0,4e-05,0.00018,1e-05,4e-05,-5e-05,3
10066,10366,1e-05,2e-05,0.0,4e-05,0.00018,1e-05,4e-05,-5e-05,3
10067,10367,1e-05,2e-05,0.0,4e-05,0.00018,1e-05,4e-05,-5e-05,3
10068,10368,1e-05,2e-05,0.0,4e-05,0.00018,1e-05,4e-05,-5e-05,3
10069,10369,1e-05,2e-05,0.0,4e-05,0.00018,1e-05,4e-05,-5e-05,3
10070,10370,-1e-05,2e-05,2.9999999999999997e-05,-2e-05,0.00014,-4e-05,-2.9999999999999997e-05,-7e-05,3
10071,10371,-1e-05,2e-05,2.9999999999999997e-05,-2e-05,0.00014,-4e-05,-2.9999999999999997e-05,-7e-05,3
10072,10372,0.0,0.0,2e-05,2.9999999999999997e-05,4e-05,-7e-05,-0.00016,-2e-05,3
10073,10373,0.0,-1e-05,-1e-05,-2e-05,1e-05,5.9999999999999995e-05,5e-05,0.00013000000000000002,3
10074,10374,0.0,-1e-05,-1e-05,-2e-05,1e-05,5.9999999999999995e-05,5e-05,0.00013000000000000002,3
10075,10375,0.0,-1e-05,-1e-05,-2e-05,1e-05,5.9999999999999995e-05,5e-05,0.00013000000000000002,3
10076,10376,0.0,-1e-05,-1e-05,-2e-05,1e-05,5.9999999999999995e-05,5e-05,0.00013000000000000002,3
10077,10377,-5e-05,-2.9999999999999997e-05,1e-05,0.0,5e-05,8e-05,5.9999999999999995e-05,2e-05,3
10078,10378,-5e-05,-2.9999999999999997e-05,1e-05,0.0,5e-05,8e-05,5.9999999999999995e-05,2e-05,3
10079,10379,-5e-05,-2.9999999999999997e-05,1e-05,0.0,5e-05,8e-05,5.9999999999999995e-05,2e-05,3
10080,10380,-5e-05,-2.9999999999999997e-05,1e-05,0.0,5e-05,8e-05,5.9999999999999995e-05,2e-05,3
10081,10381,-5e-05,-2.9999999999999997e-05,1e-05,0.0,5e-05,8e-05,5.9999999999999995e-05,2e-05,3
10082,10382,-5e-05,-2.9999999999999997e-05,1e-05,0.0,5e-05,8e-05,5.9999999999999995e-05,2e-05,3
10083,10383,1e-05,-1e-05,0.0,-5e-05,-0.00028,-0.00014,-7e-05,-2e-05,3
10084,10384,2.9999999999999997e-05,-2.9999999999999997e-05,-1e-05,-2e-05,-2e-05,-8e-05,-0.00011999999999999999,-2e-05,3
10085,10385,2.9999999999999997e-05,-2.9999999999999997e-05,-1e-05,-2e-05,-2e-05,-8e-05,-0.00011999999999999999,-2e-05,3
10086,10386,2.9999999999999997e-05,-2.9999999999999997e-05,-1e-05,-2e-05,-2e-05,-8e-05,-0.00011999999999999999,-2e-05,3
10087,10389,2.9999999999999997e-05,-2.9999999999999997e-05,-1e-05,-2e-05,-2e-05,-8e-05,-0.00011999999999999999,-2e-05,3
10088,10390,2.9999999999999997e-05,-2.9999999999999997e-05,-1e-05,-2e-05,-2e-05,-8e-05,-0.00011999999999999999,-2e-05,3
10089,10391,2.9999999999999997e-05,-2.9999999999999997e-05,-1e-05,-2e-05,-2e-05,-8e-05,-0.00011999999999999999,-2e-05,3
10090,10392,2.9999999999999997e-05,-2.9999999999999997e-05,-1e-05,-2e-05,-2e-05,-8e-05,-0.00011999999999999999,-2e-05,3
10091,10393,2.9999999999999997e-05,-2.9999999999999997e-05,-1e-05,-2e-05,-2e-05,-8e-05,-0.00011999999999999999,-2e-05,3
10092,10394,2.9999999999999997e-05,-2.9999999999999997e-05,-1e-05,-2e-05,-2e-05,-8e-05,-0.00011999999999999999,-2e-05,3
10093,10395,2.9999999999999997e-05,-2.9999999999999997e-05,-1e-05,-2e-05,-2e-05,-8e-05,-0.00011999999999999999,-2e-05,3
10094,10396,2.9999999999999997e-05,-2.9999999999999997e-05,-1e-05,-2e-05,-2e-05,-8e-05,-0.00011999999999999999,-2e-05,3
10095,10397,2.9999999999999997e-05,-2.9999999999999997e-05,-1e-05,-2e-05,-2e-05,-8e-05,-0.00011999999999999999,-2e-05,3
10096,10398,2.9999999999999997e-05,-2.9999999999999997e-05,-1e-05,-2e-05,-2e-05,-8e-05,-0.00011999999999999999,-2e-05,3
10097,10399,2.9999999999999997e-05,-2.9999999999999997e-05,-1e-05,-2e-05,-2e-05,-8e-05,-0.00011999999999999999,-2e-05,3
10098,10400,2.9999999999999997e-05,-2.9999999999999997e-05,-1e-05,-2e-05,-2e-05,-8e-05,-0.00011999999999999999,-2e-05,3
10099,10401,2.9999999999999997e-05,-2.9999999999999997e-05,-1e-05,-2e-05,-2e-05,-8e-05,-0.00011999999999999999,-2e-05,3
10100,10402,2.9999999999999997e-05,-2.9999999999999997e-05,-1e-05,-2e-05,-2e-05,-8e-05,-0.00011999999999999999,-2e-05,3
10101,10403,2.9999999999999997e-05,-2.9999999999999997e-05,-1e-05,-2e-05,-2e-05,-8e-05,-0.00011999999999999999,-2e-05,3
10102,10404,2.9999999999999997e-05,-2.9999999999999997e-05,-1e-05,-2e-05,-2e-05,-8e-05,-0.00011999999999999999,-2e-05,3
10103,10405,2.9999999999999997e-05,-2.9999999999999997e-05,-1e-05,-2e-05,-2e-05,-8e-05,-0.00011999999999999999,-2e-05,3
10104,10406,-2.9999999999999997e-05,-2e-05,-1e-05,-2.9999999999999997e-05,2.9999999999999997e-05,-5.9999999999999995e-05,0.0,-2e-05,3
10105,10407,-2e-05,-2e-05,-1e-05,2.9999999999999997e-05,7e-05,0.0001,5e-05,2e-05,3
10106,10408,-2e-05,-2e-05,-1e-05,2.9999999999999997e-05,7e-05,0.0001,5e-05,2e-05,3
10107,10409,-2e-05,-2e-05,-1e-05,2.9999999999999997e-05,7e-05,0.0001,5e-05,2e-05,3
10108,10410,-2e-05,-2e-05,-1e-05,2.9999999999999997e-05,7e-05,0.0001,5e-05,2e-05,3
10109,10411,-2e-05,-2e-05,-1e-05,2.9999999999999997e-05,7e-05,0.0001,5e-05,2e-05,3
10110,10412,-2e-05,-2e-05,-1e-05,2.9999999999999997e-05,7e-05,0.0001,5e-05,2e-05,3
10111,10413,-2e-05,-2e-05,-1e-05,2.9999999999999997e-05,7e-05,0.0001,5e-05,2e-05,3
10112,10414,-2e-05,-2e-05,-1e-05,2.9999999999999997e-05,7e-05,0.0001,5e-05,2e-05,3
10113,10415,-2e-05,-2e-05,-1e-05,2.9999999999999997e-05,7e-05,0.0001,5e-05,2e-05,3
10114,10416,-2e-05,-2e-05,-1e-05,2.9999999999999997e-05,7e-05,0.0001,5e-05,2e-05,3
10115,10417,-2e-05,-2e-05,-1e-05,2.9999999999999997e-05,7e-05,0.0001,5e-05,2e-05,3
10116,10418,-2e-05,-2e-05,-1e-05,2.9999999999999997e-05,7e-05,0.0001,5e-05,2e-05,3
10117,10419,-2e-05,-2e-05,-1e-05,2.9999999999999997e-05,7e-05,0.0001,5e-05,2e-05,3
10118,10420,-2e-05,-2e-05,-1e-05,2.9999999999999997e-05,7e-05,0.0001,5e-05,2e-05,3
10119,10421,-2e-05,1e-05,0.0,1e-05,2.9999999999999997e-05,-5.9999999999999995e-05,-1e-05,0.00014,3
10120,10422,0.0,0.0,-2e-05,-2.9999999999999997e-05,1e-05,-2.9999999999999997e-05,-1e-05,-5e-05,3
10121,10423,0.0,0.0,-2e-05,-2.9999999999999997e-05,1e-05,-2.9999999999999997e-05,-1e-05,-5e-05,3
10122,10424,0.0,0.0,-2e-05,-2.9999999999999997e-05,1e-05,-2.9999999999999997e-05,-1e-05,-5e-05,3
10123,10425,0.0,0.0,-2e-05,-2.9999999999999997e-05,1e-05,-2.9999999999999997e-05,-1e-05,-5e-05,3
10124,10426,0.0,0.0,-2e-05,-2.9999999999999997e-05,1e-05,-2.9999999999999997e-05,-1e-05,-5e-05,3
10125,10427,0.0,0.0,-2e-05,-2.9999999999999997e-05,1e-05,-2.9999999999999997e-05,-1e-05,-5e-05,3
10126,10428,0.0,0.0,-2e-05,-2.9999999999999997e-05,1e-05,-2.9999999999999997e-05,-1e-05,-5e-05,3
10127,10429,0.0,0.0,-2e-05,-2.9999999999999997e-05,1e-05,-2.9999999999999997e-05,-1e-05,-5e-05,3
10128,10430,0.0,0.0,-2e-05,-2.9999999999999997e-05,1e-05,-2.9999999999999997e-05,-1e-05,-5e-05,3
10129,10431,0.0,0.0,-2e-05,-2.9999999999999997e-05,1e-05,-2.9999999999999997e-05,-1e-05,-5e-05,3
10130,10432,0.0,0.0,-2e-05,-2.9999999999999997e-05,1e-05,-2.9999999999999997e-05,-1e-05,-5e-05,3
10131,10433,0.0,0.0,-2e-05,-2.9999999999999997e-05,1e-05,-2.9999999999999997e-05,-1e-05,-5e-05,3
10132,10434,0.0,0.0,-2e-05,-2.9999999999999997e-05,1e-05,-2.9999999999999997e-05,-1e-05,-5e-05,3
10133,10435,0.0,0.0,-2e-05,-2.9999999999999997e-05,1e-05,-2.9999999999999997e-05,-1e-05,-5e-05,3
10134,10436,0.0,0.0,-2e-05,-2.9999999999999997e-05,1e-05,-2.9999999999999997e-05,-1e-05,-5e-05,3
10135,10440,0.0,0.0,-2e-05,-2.9999999999999997e-05,1e-05,-2.9999999999999997e-05,-1e-05,-5e-05,3
10136,10441,0.0,0.0,-2e-05,-2.9999999999999997e-05,1e-05,-2.9999999999999997e-05,-1e-05,-5e-05,3
10137,10442,0.0,0.0,-2e-05,-2.9999999999999997e-05,1e-05,-2.9999999999999997e-05,-1e-05,-5e-05,3
10138,10443,-2e-05,-2.9999999999999997e-05,-1e-05,1e-05,0.00039,-2.9999999999999997e-05,-5e-05,-5e-05,3
10139,10444,-7e-05,-2e-05,-5e-05,-5.9999999999999995e-05,-7e-05,-2.9999999999999997e-05,-5.9999999999999995e-05,1e-05,3
10140,10445,-7e-05,-2e-05,-5e-05,-5.9999999999999995e-05,-7e-05,-2.9999999999999997e-05,-5.9999999999999995e-05,1e-05,3
10141,10446,-7e-05,-2e-05,-5e-05,-5.9999999999999995e-05,-7e-05,-2.9999999999999997e-05,-5.9999999999999995e-05,1e-05,3
10142,10447,-7e-05,-2e-05,-5e-05,-5.9999999999999995e-05,-7e-05,-2.9999999999999997e-05,-5.9999999999999995e-05,1e-05,3
10143,10448,-7e-05,-2e-05,-5e-05,-5.9999999999999995e-05,-7e-05,-2.9999999999999997e-05,-5.9999999999999995e-05,1e-05,3
10144,10449,-7e-05,-2e-05,-5e-05,-5.9999999999999995e-05,-7e-05,-2.9999999999999997e-05,-5.9999999999999995e-05,1e-05,3
10145,10450,-7e-05,-2e-05,-5e-05,-5.9999999999999995e-05,-7e-05,-2.9999999999999997e-05,-5.9999999999999995e-05,1e-05,3
10146,10451,-7e-05,-2e-05,-5e-05,-5.9999999999999995e-05,-7e-05,-2.9999999999999997e-05,-5.9999999999999995e-05,1e-05,3
10147,10452,-7e-05,-2e-05,-5e-05,-5.9999999999999995e-05,-7e-05,-2.9999999999999997e-05,-5.9999999999999995e-05,1e-05,3
10148,10453,-7e-05,-2e-05,-5e-05,-5.9999999999999995e-05,-7e-05,-2.9999999999999997e-05,-5.9999999999999995e-05,1e-05,3
10149,10454,-7e-05,-2e-05,-5e-05,-5.9999999999999995e-05,-7e-05,-2.9999999999999997e-05,-5.9999999999999995e-05,1e-05,3
10150,10455,-7e-05,-2e-05,-5e-05,-5.9999999999999995e-05,-7e-05,-2.9999999999999997e-05,-5.9999999999999995e-05,1e-05,3
10151,10456,-7e-05,-2e-05,-5e-05,-5.9999999999999995e-05,-7e-05,-2.9999999999999997e-05,-5.9999999999999995e-05,1e-05,3
10152,10457,-7e-05,-2e-05,-5e-05,-5.9999999999999995e-05,-7e-05,-2.9999999999999997e-05,-5.9999999999999995e-05,1e-05,3
10153,10458,-7e-05,-2e-05,-5e-05,-5.9999999999999995e-05,-7e-05,-2.9999999999999997e-05,-5.9999999999999995e-05,1e-05,3
10154,10459,-7e-05,-2e-05,-5e-05,-5.9999999999999995e-05,-7e-05,-2.9999999999999997e-05,-5.9999999999999995e-05,1e-05,3
10155,10460,-7e-05,-2e-05,-5e-05,-5.9999999999999995e-05,-7e-05,-2.9999999999999997e-05,-5.9999999999999995e-05,1e-05,3
10156,10461,-7e-05,-2e-05,-5e-05,-5.9999999999999995e-05,-7e-05,-2.9999999999999997e-05,-5.9999999999999995e-05,1e-05,3
10157,10462,-7e-05,-2e-05,-5e-05,-5.9999999999999995e-05,-7e-05,-2.9999999999999997e-05,-5.9999999999999995e-05,1e-05,3
10158,10463,-7e-05,-2e-05,-5e-05,-5.9999999999999995e-05,-7e-05,-2.9999999999999997e-05,-5.9999999999999995e-05,1e-05,3
10159,10464,-7e-05,-2e-05,-5e-05,-5.9999999999999995e-05,-7e-05,-2.9999999999999997e-05,-5.9999999999999995e-05,1e-05,3
10160,10465,-7e-05,-2e-05,-5e-05,-5.9999999999999995e-05,-7e-05,-2.9999999999999997e-05,-5.9999999999999995e-05,1e-05,3
10161,10466,-1e-05,-2e-05,-2e-05,0.0,4e-05,-5e-05,-7e-05,0.00011999999999999999,3
10162,10467,-1e-05,-2e-05,-2e-05,0.0,4e-05,-5e-05,-7e-05,0.00011999999999999999,3
10163,10468,-1e-05,-2e-05,-2e-05,0.0,4e-05,-5e-05,-7e-05,0.00011999999999999999,3
10164,10469,-1e-05,-2e-05,-2e-05,0.0,4e-05,-5e-05,-7e-05,0.00011999999999999999,3
10165,10470,-1e-05,-2e-05,-2e-05,0.0,4e-05,-5e-05,-7e-05,0.00011999999999999999,3
10166,10471,-1e-05,-2e-05,-2e-05,0.0,4e-05,-5e-05,-7e-05,0.00011999999999999999,3
10167,10472,-1e-05,-2e-05,-2e-05,0.0,4e-05,-5e-05,-7e-05,0.00011999999999999999,3
10168,10473,-1e-05,-2e-05,-2e-05,0.0,4e-05,-5e-05,-7e-05,0.00011999999999999999,3
10169,10474,-1e-05,-2e-05,-2e-05,0.0,4e-05,-5e-05,-7e-05,0.00011999999999999999,3
10170,10475,-1e-05,-2e-05,-2e-05,0.0,4e-05,-5e-05,-7e-05,0.00011999999999999999,3
10171,10476,-1e-05,-2e-05,-2e-05,0.0,4e-05,-5e-05,-7e-05,0.00011999999999999999,3
10172,10477,-1e-05,-2e-05,-2e-05,0.0,4e-05,-5e-05,-7e-05,0.00011999999999999999,3
10173,10478,-1e-05,-2e-05,-2e-05,0.0,4e-05,-5e-05,-7e-05,0.00011999999999999999,3
10174,10479,-1e-05,-2e-05,-2e-05,0.0,4e-05,-5e-05,-7e-05,0.00011999999999999999,3
10175,10480,8e-05,-2e-05,-2e-05,2e-05,-0.00025,0.0,-1e-05,-0.00014,3
10176,10481,8e-05,-2e-05,-2e-05,2e-05,-0.00025,0.0,-1e-05,-0.00014,3
10177,10482,8e-05,-2e-05,-2e-05,2e-05,-0.00025,0.0,-1e-05,-0.00014,3
10178,10483,8e-05,-2e-05,-2e-05,2e-05,-0.00025,0.0,-1e-05,-0.00014,3
10179,10484,8e-05,-2e-05,-2e-05,2e-05,-0.00025,0.0,-1e-05,-0.00014,3
10180,10485,8e-05,-2e-05,-2e-05,2e-05,-0.00025,0.0,-1e-05,-0.00014,3
10181,10486,8e-05,-2e-05,-2e-05,2e-05,-0.00025,0.0,-1e-05,-0.00014,3
10182,10488,8e-05,-2e-05,-2e-05,2e-05,-0.00025,0.0,-1e-05,-0.00014,3
10183,10489,-2.9999999999999997e-05,-1e-05,-2e-05,-1e-05,0.00041,5.9999999999999995e-05,2e-05,0.00018,3
10184,10490,2.9999999999999997e-05,1e-05,0.0,0.0,-2e-05,2.9999999999999997e-05,2e-05,0.0,3
10185,10491,2.9999999999999997e-05,1e-05,0.0,0.0,-2e-05,2.9999999999999997e-05,2e-05,0.0,3
10186,10492,2.9999999999999997e-05,1e-05,0.0,0.0,-2e-05,2.9999999999999997e-05,2e-05,0.0,3
10187,10493,2.9999999999999997e-05,1e-05,0.0,0.0,-2e-05,2.9999999999999997e-05,2e-05,0.0,3
10188,10494,2.9999999999999997e-05,1e-05,0.0,0.0,-2e-05,2.9999999999999997e-05,2e-05,0.0,3
10189,10495,2.9999999999999997e-05,1e-05,0.0,0.0,-2e-05,2.9999999999999997e-05,2e-05,0.0,3
10190,10496,2.9999999999999997e-05,1e-05,0.0,0.0,-2e-05,2.9999999999999997e-05,2e-05,0.0,3
10191,10497,2.9999999999999997e-05,1e-05,0.0,0.0,-2e-05,2.9999999999999997e-05,2e-05,0.0,3
10192,10498,2.9999999999999997e-05,1e-05,0.0,0.0,-2e-05,2.9999999999999997e-05,2e-05,0.0,3
10193,10499,2.9999999999999997e-05,1e-05,0.0,0.0,-2e-05,2.9999999999999997e-05,2e-05,0.0,3
10194,10500,2.9999999999999997e-05,1e-05,0.0,0.0,-2e-05,2.9999999999999997e-05,2e-05,0.0,3
10195,10501,2.9999999999999997e-05,1e-05,0.0,0.0,-2e-05,2.9999999999999997e-05,2e-05,0.0,3
10196,10502,2.9999999999999997e-05,1e-05,0.0,0.0,-2e-05,2.9999999999999997e-05,2e-05,0.0,3
10197,10503,-7e-05,-1e-05,-2e-05,-1e-05,-9e-05,-4e-05,2e-05,-2.9999999999999997e-05,3
10198,10504,-2.9999999999999997e-05,-1e-05,0.0,-1e-05,-4e-05,-4e-05,2.9999999999999997e-05,-5.9999999999999995e-05,3
10199,10505,-2.9999999999999997e-05,-1e-05,0.0,-1e-05,-4e-05,-4e-05,2.9999999999999997e-05,-5.9999999999999995e-05,3
10200,10506,-2.9999999999999997e-05,-1e-05,0.0,-1e-05,-4e-05,-4e-05,2.9999999999999997e-05,-5.9999999999999995e-05,3
10201,10507,-2.9999999999999997e-05,-1e-05,0.0,-1e-05,-4e-05,-4e-05,2.9999999999999997e-05,-5.9999999999999995e-05,3
10202,10508,-2.9999999999999997e-05,-1e-05,0.0,-1e-05,-4e-05,-4e-05,2.9999999999999997e-05,-5.9999999999999995e-05,3
10203,10509,-2.9999999999999997e-05,-1e-05,0.0,-1e-05,-4e-05,-4e-05,2.9999999999999997e-05,-5.9999999999999995e-05,3
10204,10510,-2.9999999999999997e-05,-1e-05,0.0,-1e-05,-4e-05,-4e-05,2.9999999999999997e-05,-5.9999999999999995e-05,3
10205,10511,-2.9999999999999997e-05,-1e-05,0.0,-1e-05,-4e-05,-4e-05,2.9999999999999997e-05,-5.9999999999999995e-05,3
10206,10512,-2.9999999999999997e-05,-1e-05,0.0,-1e-05,-4e-05,-4e-05,2.9999999999999997e-05,-5.9999999999999995e-05,3
10207,10513,-2.9999999999999997e-05,-1e-05,0.0,-1e-05,-4e-05,-4e-05,2.9999999999999997e-05,-5.9999999999999995e-05,3
10208,10514,-2.9999999999999997e-05,-1e-05,0.0,-1e-05,-4e-05,-4e-05,2.9999999999999997e-05,-5.9999999999999995e-05,3
10209,10515,-2.9999999999999997e-05,-1e-05,0.0,-1e-05,-4e-05,-4e-05,2.9999999999999997e-05,-5.9999999999999995e-05,3
10210,10516,-2.9999999999999997e-05,-1e-05,0.0,-1e-05,-4e-05,-4e-05,2.9999999999999997e-05,-5.9999999999999995e-05,3
10211,10517,-2.9999999999999997e-05,-1e-05,0.0,-1e-05,-4e-05,-4e-05,2.9999999999999997e-05,-5.9999999999999995e-05,3
10212,10518,-2.9999999999999997e-05,-1e-05,0.0,-1e-05,-4e-05,-4e-05,2.9999999999999997e-05,-5.9999999999999995e-05,3
10213,10519,-2.9999999999999997e-05,-1e-05,0.0,-1e-05,-4e-05,-4e-05,2.9999999999999997e-05,-5.9999999999999995e-05,3
10214,10520,-2.9999999999999997e-05,-1e-05,0.0,-1e-05,-4e-05,-4e-05,2.9999999999999997e-05,-5.9999999999999995e-05,3
10215,10521,-2.9999999999999997e-05,-1e-05,0.0,-1e-05,-4e-05,-4e-05,2.9999999999999997e-05,-5.9999999999999995e-05,3
10216,10522,-2.9999999999999997e-05,-1e-05,0.0,-1e-05,-4e-05,-4e-05,2.9999999999999997e-05,-5.9999999999999995e-05,3
10217,10523,-2.9999999999999997e-05,-1e-05,0.0,-1e-05,-4e-05,-4e-05,2.9999999999999997e-05,-5.9999999999999995e-05,3
10218,10524,-2.9999999999999997e-05,-1e-05,0.0,-1e-05,-4e-05,-4e-05,2.9999999999999997e-05,-5.9999999999999995e-05,3
10219,10525,-5e-05,-5.9999999999999995e-05,-5e-05,-4e-05,5.9999999999999995e-05,9e-05,4e-05,-1e-05,3
10220,10526,-4e-05,-1e-05,-1e-05,4e-05,7e-05,5.9999999999999995e-05,-1e-05,-5e-05,3
10221,10527,-4e-05,-1e-05,-1e-05,4e-05,7e-05,5.9999999999999995e-05,-1e-05,-5e-05,3
10222,10528,-4e-05,-1e-05,-1e-05,4e-05,7e-05,5.9999999999999995e-05,-1e-05,-5e-05,3
10223,10529,-4e-05,-1e-05,-1e-05,4e-05,7e-05,5.9999999999999995e-05,-1e-05,-5e-05,3
10224,10530,-4e-05,-1e-05,-1e-05,4e-05,7e-05,5.9999999999999995e-05,-1e-05,-5e-05,3
10225,10531,-4e-05,-1e-05,-1e-05,4e-05,7e-05,5.9999999999999995e-05,-1e-05,-5e-05,3
10226,10532,-4e-05,-1e-05,-1e-05,4e-05,7e-05,5.9999999999999995e-05,-1e-05,-5e-05,3
10227,10533,-4e-05,-1e-05,-1e-05,4e-05,7e-05,5.9999999999999995e-05,-1e-05,-5e-05,3
10228,10534,-4e-05,-1e-05,-1e-05,4e-05,7e-05,5.9999999999999995e-05,-1e-05,-5e-05,3
10229,10535,-4e-05,-1e-05,-1e-05,4e-05,7e-05,5.9999999999999995e-05,-1e-05,-5e-05,3
10230,10536,-4e-05,-1e-05,-1e-05,4e-05,7e-05,5.9999999999999995e-05,-1e-05,-5e-05,3
10231,10538,-4e-05,-1e-05,-1e-05,4e-05,7e-05,5.9999999999999995e-05,-1e-05,-5e-05,3
10232,10539,-4e-05,-1e-05,-1e-05,4e-05,7e-05,5.9999999999999995e-05,-1e-05,-5e-05,3
10233,10540,-2.9999999999999997e-05,-1e-05,-5e-05,0.0,-5e-05,1e-05,-9e-05,8e-05,3
10234,10541,-2.9999999999999997e-05,-1e-05,-5e-05,0.0,-5e-05,1e-05,-9e-05,8e-05,3
10235,10542,-2.9999999999999997e-05,-1e-05,-5e-05,0.0,-5e-05,1e-05,-9e-05,8e-05,3
10236,10543,-2.9999999999999997e-05,-1e-05,-5e-05,0.0,-5e-05,1e-05,-9e-05,8e-05,3
10237,10544,-2.9999999999999997e-05,-1e-05,-5e-05,0.0,-5e-05,1e-05,-9e-05,8e-05,3
10238,10545,-2.9999999999999997e-05,-1e-05,-5e-05,0.0,-5e-05,1e-05,-9e-05,8e-05,3
10239,10546,-2.9999999999999997e-05,-1e-05,-5e-05,0.0,-5e-05,1e-05,-9e-05,8e-05,3
10240,10547,-2.9999999999999997e-05,-1e-05,-5e-05,0.0,-5e-05,1e-05,-9e-05,8e-05,3
10241,10548,-1e-05,-2e-05,-2e-05,-5e-05,-0.00022999999999999998,-8e-05,0.0,-2e-05,3
10242,10549,-1e-05,-2e-05,-2e-05,-5e-05,-0.00022999999999999998,-8e-05,0.0,-2e-05,3
10243,10550,-1e-05,-2e-05,-2e-05,-5e-05,-0.00022999999999999998,-8e-05,0.0,-2e-05,3
10244,10551,-1e-05,-2e-05,-2e-05,-5e-05,-0.00022999999999999998,-8e-05,0.0,-2e-05,3
10245,10552,-1e-05,-2e-05,-2e-05,-5e-05,-0.00022999999999999998,-8e-05,0.0,-2e-05,3
10246,10553,-1e-05,-2e-05,-2e-05,-5e-05,-0.00022999999999999998,-8e-05,0.0,-2e-05,3
10247,10554,-1e-05,-2e-05,-2e-05,-5e-05,-0.00022999999999999998,-8e-05,0.0,-2e-05,3
10248,10555,-1e-05,-2e-05,-2e-05,-5e-05,-0.00022999999999999998,-8e-05,0.0,-2e-05,3
10249,10556,-1e-05,-2e-05,-2e-05,-5e-05,-0.00022999999999999998,-8e-05,0.0,-2e-05,3
10250,10557,-1e-05,-2e-05,-2e-05,-5e-05,-0.00022999999999999998,-8e-05,0.0,-2e-05,3
10251,10558,-1e-05,-2e-05,-2e-05,-5e-05,-0.00022999999999999998,-8e-05,0.0,-2e-05,3
10252,10559,-1e-05,-2e-05,-2e-05,-5e-05,-0.00022999999999999998,-8e-05,0.0,-2e-05,3
10253,10560,-1e-05,-2e-05,-2e-05,-5e-05,-0.00022999999999999998,-8e-05,0.0,-2e-05,3
10254,10561,-1e-05,-2e-05,-2e-05,-5e-05,-0.00022999999999999998,-8e-05,0.0,-2e-05,3
10255,10562,-1e-05,-2e-05,-2e-05,-5e-05,-0.00022999999999999998,-8e-05,0.0,-2e-05,3
10256,10563,2e-05,-1e-05,-2e-05,-5e-05,-1e-05,2e-05,5e-05,4e-05,3
10257,10564,-1e-05,-2e-05,-4e-05,0.0,0.0,7e-05,1e-05,-2e-05,3
10258,10565,-1e-05,-2e-05,-4e-05,0.0,0.0,7e-05,1e-05,-2e-05,3
10259,10566,-1e-05,-2e-05,-4e-05,0.0,0.0,7e-05,1e-05,-2e-05,3
10260,10567,-1e-05,-2e-05,-4e-05,0.0,0.0,7e-05,1e-05,-2e-05,3
10261,10568,-1e-05,-2e-05,-4e-05,0.0,0.0,7e-05,1e-05,-2e-05,3
10262,10569,-1e-05,-2e-05,-4e-05,0.0,0.0,7e-05,1e-05,-2e-05,3
10263,10570,-1e-05,-2e-05,-4e-05,0.0,0.0,7e-05,1e-05,-2e-05,3
10264,10571,-1e-05,-2e-05,-4e-05,0.0,0.0,7e-05,1e-05,-2e-05,3
10265,10572,-1e-05,-2e-05,-4e-05,0.0,0.0,7e-05,1e-05,-2e-05,3
10266,10573,-1e-05,-2e-05,-4e-05,0.0,0.0,7e-05,1e-05,-2e-05,3
10267,10574,-1e-05,-2e-05,-4e-05,0.0,0.0,7e-05,1e-05,-2e-05,3
10268,10575,-1e-05,-2e-05,-4e-05,0.0,0.0,7e-05,1e-05,-2e-05,3
10269,10576,-1e-05,-2e-05,-4e-05,0.0,0.0,7e-05,1e-05,-2e-05,3
10270,10577,-1e-05,-2e-05,-4e-05,0.0,0.0,7e-05,1e-05,-2e-05,3
10271,10578,-1e-05,-2e-05,-4e-05,0.0,0.0,7e-05,1e-05,-2e-05,3
10272,10579,-1e-05,-2e-05,-4e-05,0.0,0.0,7e-05,1e-05,-2e-05,3
10273,10580,-1e-05,-2e-05,-4e-05,0.0,0.0,7e-05,1e-05,-2e-05,3
10274,10581,-1e-05,-2e-05,-4e-05,0.0,0.0,7e-05,1e-05,-2e-05,3
10275,10582,-1e-05,-2e-05,-4e-05,0.0,0.0,7e-05,1e-05,-2e-05,3
10276,10583,-1e-05,-2e-05,-4e-05,0.0,0.0,7e-05,1e-05,-2e-05,3
10277,10584,-1e-05,-2e-05,-4e-05,0.0,0.0,7e-05,1e-05,-2e-05,3
10278,10585,2e-05,0.0,2e-05,-1e-05,2e-05,0.0,-5e-05,-4e-05,3
10279,10586,-4e-05,-2.9999999999999997e-05,-2.9999999999999997e-05,-1e-05,2.9999999999999997e-05,-2.9999999999999997e-05,-2.9999999999999997e-05,-7e-05,3
10280,10588,-2.9999999999999997e-05,0.0,2e-05,-2.9999999999999997e-05,-2e-05,-1e-05,2e-05,5e-05,3
10281,10589,-2.9999999999999997e-05,0.0,2e-05,-2.9999999999999997e-05,-2e-05,-1e-05,2e-05,5e-05,3
10282,10590,-2.9999999999999997e-05,0.0,2e-05,-2.9999999999999997e-05,-2e-05,-1e-05,2e-05,5e-05,3
10283,10591,-2.9999999999999997e-05,0.0,2e-05,-2.9999999999999997e-05,-2e-05,-1e-05,2e-05,5e-05,3
10284,10592,-2.9999999999999997e-05,0.0,2e-05,-2.9999999999999997e-05,-2e-05,-1e-05,2e-05,5e-05,3
10285,10593,-2.9999999999999997e-05,0.0,2e-05,-2.9999999999999997e-05,-2e-05,-1e-05,2e-05,5e-05,3
10286,10594,-2.9999999999999997e-05,0.0,2e-05,-2.9999999999999997e-05,-2e-05,-1e-05,2e-05,5e-05,3
10287,10595,-2.9999999999999997e-05,0.0,2e-05,-2.9999999999999997e-05,-2e-05,-1e-05,2e-05,5e-05,3
10288,10596,-2.9999999999999997e-05,0.0,2e-05,-2.9999999999999997e-05,-2e-05,-1e-05,2e-05,5e-05,3
10289,10597,-2.9999999999999997e-05,0.0,2e-05,-2.9999999999999997e-05,-2e-05,-1e-05,2e-05,5e-05,3
10290,10598,-2.9999999999999997e-05,0.0,2e-05,-2.9999999999999997e-05,-2e-05,-1e-05,2e-05,5e-05,3
10291,10599,-2.9999999999999997e-05,0.0,2e-05,-2.9999999999999997e-05,-2e-05,-1e-05,2e-05,5e-05,3
10292,10600,-8e-05,-1e-05,-2e-05,-2e-05,-1e-05,-2e-05,1e-05,-0.00016999999999999999,3
10293,10601,-8e-05,-1e-05,-2e-05,-2e-05,-1e-05,-2e-05,1e-05,-0.00016999999999999999,3
10294,10602,-8e-05,-1e-05,-2e-05,-2e-05,-1e-05,-2e-05,1e-05,-0.00016999999999999999,3
10295,10603,-8e-05,-1e-05,-2e-05,-2e-05,-1e-05,-2e-05,1e-05,-0.00016999999999999999,3
10296,10604,-8e-05,-1e-05,-2e-05,-2e-05,-1e-05,-2e-05,1e-05,-0.00016999999999999999,3
10297,10605,-8e-05,-1e-05,-2e-05,-2e-05,-1e-05,-2e-05,1e-05,-0.00016999999999999999,3
10298,10606,-8e-05,-1e-05,-2e-05,-2e-05,-1e-05,-2e-05,1e-05,-0.00016999999999999999,3
10299,10607,-8e-05,-1e-05,-2e-05,-2e-05,-1e-05,-2e-05,1e-05,-0.00016999999999999999,3
10300,10608,-1e-05,-2e-05,-2e-05,-1e-05,0.0,-2e-05,1e-05,0.0,3
10301,10609,-1e-05,-2e-05,-2e-05,-1e-05,0.0,-2e-05,1e-05,0.0,3
10302,10610,-1e-05,-2e-05,-2e-05,-1e-05,0.0,-2e-05,1e-05,0.0,3
10303,10611,-1e-05,-2e-05,-2e-05,-1e-05,0.0,-2e-05,1e-05,0.0,3
10304,10612,-1e-05,-2e-05,-2e-05,-1e-05,0.0,-2e-05,1e-05,0.0,3
10305,10613,-1e-05,-2e-05,-2e-05,-1e-05,0.0,-2e-05,1e-05,0.0,3
10306,10614,-1e-05,-2e-05,-2e-05,-1e-05,0.0,-2e-05,1e-05,0.0,3
10307,10615,-1e-05,-2e-05,-2e-05,-1e-05,0.0,-2e-05,1e-05,0.0,3
10308,10616,-1e-05,-2e-05,-2e-05,-1e-05,0.0,-2e-05,1e-05,0.0,3
10309,10617,-1e-05,-2e-05,-2e-05,-1e-05,0.0,-2e-05,1e-05,0.0,3
10310,10618,-1e-05,-2e-05,-2e-05,-1e-05,0.0,-2e-05,1e-05,0.0,3
10311,10619,-1e-05,-2e-05,-2e-05,-1e-05,0.0,-2e-05,1e-05,0.0,3
10312,10620,-1e-05,-2e-05,-2e-05,-1e-05,0.0,-2e-05,1e-05,0.0,3
10313,10621,-1e-05,-2e-05,-2e-05,-1e-05,0.0,-2e-05,1e-05,0.0,3
10314,10622,-1e-05,-2e-05,-2e-05,-1e-05,0.0,-2e-05,1e-05,0.0,3
10315,10623,-2e-05,-2e-05,1e-05,2.9999999999999997e-05,0.00014,1e-05,0.0,1e-05,3
10316,10624,-2e-05,-2e-05,-5e-05,-5.9999999999999995e-05,0.0,-5.9999999999999995e-05,-0.0001,-9e-05,3
10317,10625,-2e-05,-2e-05,-5e-05,-5.9999999999999995e-05,0.0,-5.9999999999999995e-05,-0.0001,-9e-05,3
10318,10626,-2e-05,-2e-05,-5e-05,-5.9999999999999995e-05,0.0,-5.9999999999999995e-05,-0.0001,-9e-05,3
10319,10627,-2e-05,-2e-05,-5e-05,-5.9999999999999995e-05,0.0,-5.9999999999999995e-05,-0.0001,-9e-05,3
10320,10628,-2e-05,-2e-05,-5e-05,-5.9999999999999995e-05,0.0,-5.9999999999999995e-05,-0.0001,-9e-05,3
10321,10629,-2e-05,-2e-05,-5e-05,-5.9999999999999995e-05,0.0,-5.9999999999999995e-05,-0.0001,-9e-05,3
10322,10630,-2e-05,-2e-05,-5e-05,-5.9999999999999995e-05,0.0,-5.9999999999999995e-05,-0.0001,-9e-05,3
10323,10631,-2e-05,-2e-05,-5e-05,-5.9999999999999995e-05,0.0,-5.9999999999999995e-05,-0.0001,-9e-05,3
10324,10632,-2e-05,-2e-05,-5e-05,-5.9999999999999995e-05,0.0,-5.9999999999999995e-05,-0.0001,-9e-05,3
10325,10633,-2e-05,-2e-05,-5e-05,-5.9999999999999995e-05,0.0,-5.9999999999999995e-05,-0.0001,-9e-05,3
10326,10634,-2e-05,-2e-05,-5e-05,-5.9999999999999995e-05,0.0,-5.9999999999999995e-05,-0.0001,-9e-05,3
10327,10635,-2e-05,-2e-05,-5e-05,-5.9999999999999995e-05,0.0,-5.9999999999999995e-05,-0.0001,-9e-05,3
10328,10636,-2e-05,-2e-05,-5e-05,-5.9999999999999995e-05,0.0,-5.9999999999999995e-05,-0.0001,-9e-05,3
10329,10638,-2e-05,-2e-05,-5e-05,-5.9999999999999995e-05,0.0,-5.9999999999999995e-05,-0.0001,-9e-05,3
10330,10639,-2e-05,-2e-05,-5e-05,-5.9999999999999995e-05,0.0,-5.9999999999999995e-05,-0.0001,-9e-05,3
10331,10640,-2e-05,-2e-05,-5e-05,-5.9999999999999995e-05,0.0,-5.9999999999999995e-05,-0.0001,-9e-05,3
10332,10641,-2e-05,-2e-05,-5e-05,-5.9999999999999995e-05,0.0,-5.9999999999999995e-05,-0.0001,-9e-05,3
10333,10642,-2e-05,-2e-05,-5e-05,-5.9999999999999995e-05,0.0,-5.9999999999999995e-05,-0.0001,-9e-05,3
10334,10643,-2e-05,-2e-05,-5e-05,-5.9999999999999995e-05,0.0,-5.9999999999999995e-05,-0.0001,-9e-05,3
10335,10644,-2e-05,-2e-05,-5e-05,-5.9999999999999995e-05,0.0,-5.9999999999999995e-05,-0.0001,-9e-05,3
10336,10645,-2e-05,-2e-05,-2.9999999999999997e-05,-2e-05,-0.00014,-2.9999999999999997e-05,-1e-05,0.0,3
10337,10646,2.9999999999999997e-05,0.0,0.0,0.00011999999999999999,0.00033999999999999997,0.00016999999999999999,7e-05,-2e-05,3
10338,10647,2.9999999999999997e-05,0.0,0.0,0.00011999999999999999,0.00033999999999999997,0.00016999999999999999,7e-05,-2e-05,3
10339,10648,2.9999999999999997e-05,0.0,0.0,0.00011999999999999999,0.00033999999999999997,0.00016999999999999999,7e-05,-2e-05,3
10340,10649,2.9999999999999997e-05,0.0,0.0,0.00011999999999999999,0.00033999999999999997,0.00016999999999999999,7e-05,-2e-05,3
10341,10650,2.9999999999999997e-05,0.0,0.0,0.00011999999999999999,0.00033999999999999997,0.00016999999999999999,7e-05,-2e-05,3
10342,10651,2.9999999999999997e-05,0.0,0.0,0.00011999999999999999,0.00033999999999999997,0.00016999999999999999,7e-05,-2e-05,3
10343,10652,2.9999999999999997e-05,0.0,0.0,0.00011999999999999999,0.00033999999999999997,0.00016999999999999999,7e-05,-2e-05,3
10344,10653,2.9999999999999997e-05,0.0,0.0,0.00011999999999999999,0.00033999999999999997,0.00016999999999999999,7e-05,-2e-05,3
10345,10654,2.9999999999999997e-05,0.0,0.0,0.00011999999999999999,0.00033999999999999997,0.00016999999999999999,7e-05,-2e-05,3
10346,10655,2.9999999999999997e-05,0.0,0.0,0.00011999999999999999,0.00033999999999999997,0.00016999999999999999,7e-05,-2e-05,3
10347,10656,2.9999999999999997e-05,0.0,0.0,0.00011999999999999999,0.00033999999999999997,0.00016999999999999999,7e-05,-2e-05,3
10348,10657,2.9999999999999997e-05,0.0,0.0,0.00011999999999999999,0.00033999999999999997,0.00016999999999999999,7e-05,-2e-05,3
10349,10658,2.9999999999999997e-05,0.0,0.0,0.00011999999999999999,0.00033999999999999997,0.00016999999999999999,7e-05,-2e-05,3
10350,10659,2.9999999999999997e-05,0.0,0.0,0.00011999999999999999,0.00033999999999999997,0.00016999999999999999,7e-05,-2e-05,3
10351,10660,0.0,1e-05,2.9999999999999997e-05,1e-05,-5e-05,5e-05,0.0,5.9999999999999995e-05,3
10352,10661,0.0,1e-05,2.9999999999999997e-05,1e-05,-5e-05,5e-05,0.0,5.9999999999999995e-05,3
10353,10662,0.0,1e-05,2.9999999999999997e-05,1e-05,-5e-05,5e-05,0.0,5.9999999999999995e-05,3
10354,10663,0.0,1e-05,2.9999999999999997e-05,1e-05,-5e-05,5e-05,0.0,5.9999999999999995e-05,3
10355,10664,0.0,1e-05,2.9999999999999997e-05,1e-05,-5e-05,5e-05,0.0,5.9999999999999995e-05,3
10356,10665,0.0,1e-05,2.9999999999999997e-05,1e-05,-5e-05,5e-05,0.0,5.9999999999999995e-05,3
10357,10666,0.0,1e-05,2.9999999999999997e-05,1e-05,-5e-05,5e-05,0.0,5.9999999999999995e-05,3
10358,10667,0.0,1e-05,2.9999999999999997e-05,1e-05,-5e-05,5e-05,0.0,5.9999999999999995e-05,3
10359,10668,2e-05,-1e-05,-1e-05,-2.9999999999999997e-05,-9e-05,-5.9999999999999995e-05,-7e-05,-0.00036,3
10360,10669,2e-05,-1e-05,-1e-05,-2.9999999999999997e-05,-9e-05,-5.9999999999999995e-05,-7e-05,-0.00036,3
10361,10670,2e-05,-1e-05,-1e-05,-2.9999999999999997e-05,-9e-05,-5.9999999999999995e-05,-7e-05,-0.00036,3
10362,10671,2e-05,-1e-05,-1e-05,-2.9999999999999997e-05,-9e-05,-5.9999999999999995e-05,-7e-05,-0.00036,3
10363,10672,2e-05,-1e-05,-1e-05,-2.9999999999999997e-05,-9e-05,-5.9999999999999995e-05,-7e-05,-0.00036,3
10364,10673,2e-05,-1e-05,-1e-05,-2.9999999999999997e-05,-9e-05,-5.9999999999999995e-05,-7e-05,-0.00036,3
10365,10674,2e-05,-1e-05,-1e-05,-2.9999999999999997e-05,-9e-05,-5.9999999999999995e-05,-7e-05,-0.00036,3
10366,10675,2e-05,-1e-05,-1e-05,-2.9999999999999997e-05,-9e-05,-5.9999999999999995e-05,-7e-05,-0.00036,3
10367,10676,2e-05,-1e-05,-1e-05,-2.9999999999999997e-05,-9e-05,-5.9999999999999995e-05,-7e-05,-0.00036,3
10368,10677,2e-05,-1e-05,-1e-05,-2.9999999999999997e-05,-9e-05,-5.9999999999999995e-05,-7e-05,-0.00036,3
10369,10678,2e-05,-1e-05,-1e-05,-2.9999999999999997e-05,-9e-05,-5.9999999999999995e-05,-7e-05,-0.00036,3
10370,10679,2e-05,-1e-05,-1e-05,-2.9999999999999997e-05,-9e-05,-5.9999999999999995e-05,-7e-05,-0.00036,3
10371,10680,2e-05,-1e-05,-1e-05,-2.9999999999999997e-05,-9e-05,-5.9999999999999995e-05,-7e-05,-0.00036,3
10372,10681,2e-05,-1e-05,-1e-05,-2.9999999999999997e-05,-9e-05,-5.9999999999999995e-05,-7e-05,-0.00036,3
10373,10682,2e-05,-1e-05,-1e-05,-2.9999999999999997e-05,-9e-05,-5.9999999999999995e-05,-7e-05,-0.00036,3
10374,10683,-1e-05,-1e-05,-1e-05,-2.9999999999999997e-05,-2.9999999999999997e-05,-4e-05,-2e-05,1e-05,3
10375,10684,-1e-05,-1e-05,-2.9999999999999997e-05,1e-05,-8e-05,-4e-05,2.9999999999999997e-05,5.9999999999999995e-05,3
10376,10685,-1e-05,-1e-05,-2.9999999999999997e-05,1e-05,-8e-05,-4e-05,2.9999999999999997e-05,5.9999999999999995e-05,3
10377,10686,-1e-05,-1e-05,-2.9999999999999997e-05,1e-05,-8e-05,-4e-05,2.9999999999999997e-05,5.9999999999999995e-05,3
10378,10688,-1e-05,-1e-05,-2.9999999999999997e-05,1e-05,-8e-05,-4e-05,2.9999999999999997e-05,5.9999999999999995e-05,3
10379,10689,-1e-05,-1e-05,-2.9999999999999997e-05,1e-05,-8e-05,-4e-05,2.9999999999999997e-05,5.9999999999999995e-05,3
10380,10690,-1e-05,-1e-05,-2.9999999999999997e-05,1e-05,-8e-05,-4e-05,2.9999999999999997e-05,5.9999999999999995e-05,3
10381,10691,-1e-05,-1e-05,-2.9999999999999997e-05,1e-05,-8e-05,-4e-05,2.9999999999999997e-05,5.9999999999999995e-05,3
10382,10692,-1e-05,-1e-05,-2.9999999999999997e-05,1e-05,-8e-05,-4e-05,2.9999999999999997e-05,5.9999999999999995e-05,3
10383,10693,-1e-05,-1e-05,-2.9999999999999997e-05,1e-05,-8e-05,-4e-05,2.9999999999999997e-05,5.9999999999999995e-05,3
10384,10694,-1e-05,-1e-05,-2.9999999999999997e-05,1e-05,-8e-05,-4e-05,2.9999999999999997e-05,5.9999999999999995e-05,3
10385,10695,-1e-05,-1e-05,-2.9999999999999997e-05,1e-05,-8e-05,-4e-05,2.9999999999999997e-05,5.9999999999999995e-05,3
10386,10696,-1e-05,-1e-05,-2.9999999999999997e-05,1e-05,-8e-05,-4e-05,2.9999999999999997e-05,5.9999999999999995e-05,3
10387,10697,-1e-05,-1e-05,-2.9999999999999997e-05,1e-05,-8e-05,-4e-05,2.9999999999999997e-05,5.9999999999999995e-05,3
10388,10698,-1e-05,-1e-05,-2.9999999999999997e-05,1e-05,-8e-05,-4e-05,2.9999999999999997e-05,5.9999999999999995e-05,3
10389,10699,-1e-05,-1e-05,-2.9999999999999997e-05,1e-05,-8e-05,-4e-05,2.9999999999999997e-05,5.9999999999999995e-05,3
10390,10700,-1e-05,-1e-05,-2.9999999999999997e-05,1e-05,-8e-05,-4e-05,2.9999999999999997e-05,5.9999999999999995e-05,3
10391,10701,-1e-05,-1e-05,-2.9999999999999997e-05,1e-05,-8e-05,-4e-05,2.9999999999999997e-05,5.9999999999999995e-05,3
10392,10702,-1e-05,-1e-05,-2.9999999999999997e-05,1e-05,-8e-05,-4e-05,2.9999999999999997e-05,5.9999999999999995e-05,3
10393,10703,-1e-05,-1e-05,-2.9999999999999997e-05,1e-05,-8e-05,-4e-05,2.9999999999999997e-05,5.9999999999999995e-05,3
10394,10704,-1e-05,-1e-05,-2.9999999999999997e-05,1e-05,-8e-05,-4e-05,2.9999999999999997e-05,5.9999999999999995e-05,3
10395,10705,0.0,-2.9999999999999997e-05,-2.9999999999999997e-05,0.0,7e-05,4e-05,0.0,-0.00014,3
10396,10706,2e-05,-2.9999999999999997e-05,-2e-05,-8e-05,-0.00016,0.0,0.0,0.00018,3
10397,10707,2e-05,-2.9999999999999997e-05,-2e-05,-8e-05,-0.00016,0.0,0.0,0.00018,3
10398,10708,2e-05,-2.9999999999999997e-05,-2e-05,-8e-05,-0.00016,0.0,0.0,0.00018,3
10399,10709,2e-05,-2.9999999999999997e-05,-2e-05,-8e-05,-0.00016,0.0,0.0,0.00018,3
10400,10710,2e-05,-2.9999999999999997e-05,-2e-05,-8e-05,-0.00016,0.0,0.0,0.00018,3
10401,10711,2e-05,-2.9999999999999997e-05,-2e-05,-8e-05,-0.00016,0.0,0.0,0.00018,3
10402,10712,2e-05,-2.9999999999999997e-05,-2e-05,-8e-05,-0.00016,0.0,0.0,0.00018,3
10403,10713,2e-05,-2.9999999999999997e-05,-2e-05,-8e-05,-0.00016,0.0,0.0,0.00018,3
10404,10714,2e-05,-2.9999999999999997e-05,-2e-05,-8e-05,-0.00016,0.0,0.0,0.00018,3
10405,10715,2e-05,-2.9999999999999997e-05,-2e-05,-8e-05,-0.00016,0.0,0.0,0.00018,3
10406,10716,2e-05,-2.9999999999999997e-05,-2e-05,-8e-05,-0.00016,0.0,0.0,0.00018,3
10407,10717,2e-05,-2.9999999999999997e-05,-2e-05,-8e-05,-0.00016,0.0,0.0,0.00018,3
10408,10718,2e-05,-2.9999999999999997e-05,-2e-05,-8e-05,-0.00016,0.0,0.0,0.00018,3
10409,10719,2e-05,-2.9999999999999997e-05,-2e-05,-8e-05,-0.00016,0.0,0.0,0.00018,3
10410,10720,-1e-05,-4e-05,-4e-05,-5e-05,-8e-05,-4e-05,-2e-05,5.9999999999999995e-05,3
10411,10721,-1e-05,-4e-05,-4e-05,-5e-05,-8e-05,-4e-05,-2e-05,5.9999999999999995e-05,3
10412,10722,-1e-05,-4e-05,-4e-05,-5e-05,-8e-05,-4e-05,-2e-05,5.9999999999999995e-05,3
10413,10723,-1e-05,-4e-05,-4e-05,-5e-05,-8e-05,-4e-05,-2e-05,5.9999999999999995e-05,3
10414,10724,-1e-05,-4e-05,-4e-05,-5e-05,-8e-05,-4e-05,-2e-05,5.9999999999999995e-05,3
10415,10725,-1e-05,-4e-05,-4e-05,-5e-05,-8e-05,-4e-05,-2e-05,5.9999999999999995e-05,3
10416,10726,-1e-05,-4e-05,-4e-05,-5e-05,-8e-05,-4e-05,-2e-05,5.9999999999999995e-05,3
10417,10727,-1e-05,-4e-05,-4e-05,-5e-05,-8e-05,-4e-05,-2e-05,5.9999999999999995e-05,3
10418,10728,-4e-05,2e-05,1e-05,2.9999999999999997e-05,4e-05,-2.9999999999999997e-05,0.0,-1e-05,3
10419,10729,-4e-05,2e-05,1e-05,2.9999999999999997e-05,4e-05,-2.9999999999999997e-05,0.0,-1e-05,3
10420,10730,-4e-05,2e-05,1e-05,2.9999999999999997e-05,4e-05,-2.9999999999999997e-05,0.0,-1e-05,3
10421,10731,-4e-05,2e-05,1e-05,2.9999999999999997e-05,4e-05,-2.9999999999999997e-05,0.0,-1e-05,3
10422,10732,-4e-05,2e-05,1e-05,2.9999999999999997e-05,4e-05,-2.9999999999999997e-05,0.0,-1e-05,3
10423,10733,-4e-05,2e-05,1e-05,2.9999999999999997e-05,4e-05,-2.9999999999999997e-05,0.0,-1e-05,3
10424,10734,-4e-05,2e-05,1e-05,2.9999999999999997e-05,4e-05,-2.9999999999999997e-05,0.0,-1e-05,3
10425,10735,-4e-05,2e-05,1e-05,2.9999999999999997e-05,4e-05,-2.9999999999999997e-05,0.0,-1e-05,3
10426,10736,-4e-05,2e-05,1e-05,2.9999999999999997e-05,4e-05,-2.9999999999999997e-05,0.0,-1e-05,3
10427,10738,-4e-05,2e-05,1e-05,2.9999999999999997e-05,4e-05,-2.9999999999999997e-05,0.0,-1e-05,3
10428,10739,-4e-05,2e-05,1e-05,2.9999999999999997e-05,4e-05,-2.9999999999999997e-05,0.0,-1e-05,3
10429,10740,-4e-05,2e-05,1e-05,2.9999999999999997e-05,4e-05,-2.9999999999999997e-05,0.0,-1e-05,3
10430,10741,-4e-05,2e-05,1e-05,2.9999999999999997e-05,4e-05,-2.9999999999999997e-05,0.0,-1e-05,3
10431,10742,-4e-05,2e-05,1e-05,2.9999999999999997e-05,4e-05,-2.9999999999999997e-05,0.0,-1e-05,3
10432,10743,-4e-05,2e-05,1e-05,2.9999999999999997e-05,4e-05,-2.9999999999999997e-05,0.0,-1e-05,3
10433,10744,-4e-05,2e-05,1e-05,2.9999999999999997e-05,4e-05,-2.9999999999999997e-05,0.0,-1e-05,3
10434,10745,-4e-05,2e-05,1e-05,2.9999999999999997e-05,4e-05,-2.9999999999999997e-05,0.0,-1e-05,3
10435,10746,-4e-05,2e-05,1e-05,2.9999999999999997e-05,4e-05,-2.9999999999999997e-05,0.0,-1e-05,3
10436,10747,-4e-05,2e-05,1e-05,2.9999999999999997e-05,4e-05,-2.9999999999999997e-05,0.0,-1e-05,3
10437,10748,-4e-05,2e-05,1e-05,2.9999999999999997e-05,4e-05,-2.9999999999999997e-05,0.0,-1e-05,3
10438,10749,-4e-05,2e-05,1e-05,2.9999999999999997e-05,4e-05,-2.9999999999999997e-05,0.0,-1e-05,3
10439,10750,-4e-05,2e-05,1e-05,2.9999999999999997e-05,4e-05,-2.9999999999999997e-05,0.0,-1e-05,3
10440,10751,0.0,0.0,-2.9999999999999997e-05,-1e-05,-8e-05,2e-05,2e-05,-2e-05,3
10441,10752,-1e-05,-2.9999999999999997e-05,-2.9999999999999997e-05,-2.9999999999999997e-05,-4e-05,7e-05,0.0,-1e-05,3
10442,10753,-1e-05,-2.9999999999999997e-05,-2.9999999999999997e-05,-2.9999999999999997e-05,-4e-05,7e-05,0.0,-1e-05,3
10443,10754,-1e-05,-2.9999999999999997e-05,-2.9999999999999997e-05,-2.9999999999999997e-05,-4e-05,7e-05,0.0,-1e-05,3
10444,10755,-1e-05,-2.9999999999999997e-05,-2.9999999999999997e-05,-2.9999999999999997e-05,-4e-05,7e-05,0.0,-1e-05,3
10445,10756,-1e-05,-2.9999999999999997e-05,-2.9999999999999997e-05,-2.9999999999999997e-05,-4e-05,7e-05,0.0,-1e-05,3
10446,10757,-1e-05,-2.9999999999999997e-05,-2.9999999999999997e-05,-2.9999999999999997e-05,-4e-05,7e-05,0.0,-1e-05,3
10447,10758,-1e-05,-2.9999999999999997e-05,-2.9999999999999997e-05,-2.9999999999999997e-05,-4e-05,7e-05,0.0,-1e-05,3
10448,10759,-1e-05,-2.9999999999999997e-05,-2.9999999999999997e-05,-2.9999999999999997e-05,-4e-05,7e-05,0.0,-1e-05,3
10449,10760,-1e-05,-2.9999999999999997e-05,-2.9999999999999997e-05,-2.9999999999999997e-05,-4e-05,7e-05,0.0,-1e-05,3
10450,10761,-1e-05,-2.9999999999999997e-05,-2.9999999999999997e-05,-2.9999999999999997e-05,-4e-05,7e-05,0.0,-1e-05,3
10451,10762,-1e-05,-2.9999999999999997e-05,-2.9999999999999997e-05,-2.9999999999999997e-05,-4e-05,7e-05,0.0,-1e-05,3
10452,10763,-1e-05,-2.9999999999999997e-05,-2.9999999999999997e-05,-2.9999999999999997e-05,-4e-05,7e-05,0.0,-1e-05,3
10453,10764,-1e-05,-2.9999999999999997e-05,-2.9999999999999997e-05,-2.9999999999999997e-05,-4e-05,7e-05,0.0,-1e-05,3
10454,10765,-1e-05,-2.9999999999999997e-05,-2.9999999999999997e-05,-2.9999999999999997e-05,-4e-05,7e-05,0.0,-1e-05,3
10455,10766,-2e-05,0.0,-1e-05,-5e-05,-0.00011999999999999999,-5.9999999999999995e-05,1e-05,0.0001,3
10456,10767,-2e-05,0.0,-1e-05,-5e-05,-0.00011999999999999999,-5.9999999999999995e-05,1e-05,0.0001,3
10457,10768,-2e-05,0.0,-1e-05,-5e-05,-0.00011999999999999999,-5.9999999999999995e-05,1e-05,0.0001,3
10458,10769,-2e-05,0.0,-1e-05,-5e-05,-0.00011999999999999999,-5.9999999999999995e-05,1e-05,0.0001,3
10459,10770,-2e-05,0.0,-1e-05,-5e-05,-0.00011999999999999999,-5.9999999999999995e-05,1e-05,0.0001,3
10460,10771,-2e-05,0.0,-1e-05,-5e-05,-0.00011999999999999999,-5.9999999999999995e-05,1e-05,0.0001,3
10461,10772,-2e-05,0.0,-1e-05,-5e-05,-0.00011999999999999999,-5.9999999999999995e-05,1e-05,0.0001,3
10462,10773,-2e-05,0.0,-1e-05,-5e-05,-0.00011999999999999999,-5.9999999999999995e-05,1e-05,0.0001,3
10463,10774,-2e-05,0.0,-1e-05,-5e-05,-0.00011999999999999999,-5.9999999999999995e-05,1e-05,0.0001,3
10464,10775,-2e-05,0.0,-1e-05,-5e-05,-0.00011999999999999999,-5.9999999999999995e-05,1e-05,0.0001,3
10465,10776,-2e-05,0.0,-1e-05,-5e-05,-0.00011999999999999999,-5.9999999999999995e-05,1e-05,0.0001,3
10466,10777,-2e-05,0.0,-1e-05,-5e-05,-0.00011999999999999999,-5.9999999999999995e-05,1e-05,0.0001,3
10467,10778,-2e-05,0.0,-1e-05,-5e-05,-0.00011999999999999999,-5.9999999999999995e-05,1e-05,0.0001,3
10468,10779,-2e-05,0.0,-1e-05,-5e-05,-0.00011999999999999999,-5.9999999999999995e-05,1e-05,0.0001,3
10469,10780,-4e-05,-4e-05,-2.9999999999999997e-05,-2e-05,-9e-05,-2e-05,-2.9999999999999997e-05,-0.00011,3
10470,10781,-4e-05,-4e-05,-2.9999999999999997e-05,-2e-05,-9e-05,-2e-05,-2.9999999999999997e-05,-0.00011,3
10471,10782,-4e-05,-4e-05,-2.9999999999999997e-05,-2e-05,-9e-05,-2e-05,-2.9999999999999997e-05,-0.00011,3
10472,10783,-4e-05,-4e-05,-2.9999999999999997e-05,-2e-05,-9e-05,-2e-05,-2.9999999999999997e-05,-0.00011,3
10473,10784,-4e-05,-4e-05,-2.9999999999999997e-05,-2e-05,-9e-05,-2e-05,-2.9999999999999997e-05,-0.00011,3
10474,10785,-4e-05,-4e-05,-2.9999999999999997e-05,-2e-05,-9e-05,-2e-05,-2.9999999999999997e-05,-0.00011,3
10475,10786,-4e-05,-4e-05,-2.9999999999999997e-05,-2e-05,-9e-05,-2e-05,-2.9999999999999997e-05,-0.00011,3
10476,10788,2.9999999999999997e-05,-1e-05,-2e-05,0.0,2e-05,-1e-05,-2.9999999999999997e-05,-0.00011,3
10477,10789,2.9999999999999997e-05,-1e-05,-2e-05,0.0,2e-05,-1e-05,-2.9999999999999997e-05,-0.00011,3
10478,10790,2.9999999999999997e-05,-1e-05,-2e-05,0.0,2e-05,-1e-05,-2.9999999999999997e-05,-0.00011,3
10479,10791,2.9999999999999997e-05,-1e-05,-2e-05,0.0,2e-05,-1e-05,-2.9999999999999997e-05,-0.00011,3
10480,10792,2.9999999999999997e-05,-1e-05,-2e-05,0.0,2e-05,-1e-05,-2.9999999999999997e-05,-0.00011,3
10481,10793,2.9999999999999997e-05,-1e-05,-2e-05,0.0,2e-05,-1e-05,-2.9999999999999997e-05,-0.00011,3
10482,10794,2.9999999999999997e-05,-1e-05,-2e-05,0.0,2e-05,-1e-05,-2.9999999999999997e-05,-0.00011,3
10483,10795,2.9999999999999997e-05,-1e-05,-2e-05,0.0,2e-05,-1e-05,-2.9999999999999997e-05,-0.00011,3
10484,10796,2.9999999999999997e-05,-1e-05,-2e-05,0.0,2e-05,-1e-05,-2.9999999999999997e-05,-0.00011,3
10485,10797,2.9999999999999997e-05,-1e-05,-2e-05,0.0,2e-05,-1e-05,-2.9999999999999997e-05,-0.00011,3
10486,10798,2.9999999999999997e-05,-1e-05,-2e-05,0.0,2e-05,-1e-05,-2.9999999999999997e-05,-0.00011,3
10487,10799,2.9999999999999997e-05,-1e-05,-2e-05,0.0,2e-05,-1e-05,-2.9999999999999997e-05,-0.00011,3
10488,10800,2.9999999999999997e-05,-1e-05,-2e-05,0.0,2e-05,-1e-05,-2.9999999999999997e-05,-0.00011,3
10489,10801,2.9999999999999997e-05,-1e-05,-2e-05,0.0,2e-05,-1e-05,-2.9999999999999997e-05,-0.00011,3
10490,10802,2.9999999999999997e-05,-1e-05,-2e-05,0.0,2e-05,-1e-05,-2.9999999999999997e-05,-0.00011,3
10491,10803,-2e-05,-2e-05,-2.9999999999999997e-05,-2.9999999999999997e-05,-1e-05,-2e-05,0.0,1e-05,3
10492,10804,-2.9999999999999997e-05,0.0,2e-05,-1e-05,-1e-05,-5e-05,0.0,7e-05,3
10493,10805,-2.9999999999999997e-05,0.0,2e-05,-1e-05,-1e-05,-5e-05,0.0,7e-05,3
10494,10806,-2.9999999999999997e-05,0.0,2e-05,-1e-05,-1e-05,-5e-05,0.0,7e-05,3
10495,10807,-2.9999999999999997e-05,0.0,2e-05,-1e-05,-1e-05,-5e-05,0.0,7e-05,3
10496,10808,-2.9999999999999997e-05,0.0,2e-05,-1e-05,-1e-05,-5e-05,0.0,7e-05,3
10497,10809,-2.9999999999999997e-05,0.0,2e-05,-1e-05,-1e-05,-5e-05,0.0,7e-05,3
10498,10810,-2.9999999999999997e-05,0.0,2e-05,-1e-05,-1e-05,-5e-05,0.0,7e-05,3
10499,10811,-2.9999999999999997e-05,0.0,2e-05,-1e-05,-1e-05,-5e-05,0.0,7e-05,3
10500,10812,-2.9999999999999997e-05,0.0,2e-05,-1e-05,-1e-05,-5e-05,0.0,7e-05,3
10501,10813,-2.9999999999999997e-05,0.0,2e-05,-1e-05,-1e-05,-5e-05,0.0,7e-05,3
10502,10814,-2.9999999999999997e-05,0.0,2e-05,-1e-05,-1e-05,-5e-05,0.0,7e-05,3
10503,10815,-2.9999999999999997e-05,0.0,2e-05,-1e-05,-1e-05,-5e-05,0.0,7e-05,3
10504,10816,-2.9999999999999997e-05,0.0,2e-05,-1e-05,-1e-05,-5e-05,0.0,7e-05,3
10505,10817,-2.9999999999999997e-05,0.0,2e-05,-1e-05,-1e-05,-5e-05,0.0,7e-05,3
10506,10818,-2.9999999999999997e-05,0.0,2e-05,-1e-05,-1e-05,-5e-05,0.0,7e-05,3
10507,10819,-2.9999999999999997e-05,0.0,2e-05,-1e-05,-1e-05,-5e-05,0.0,7e-05,3
10508,10820,-2.9999999999999997e-05,0.0,2e-05,-1e-05,-1e-05,-5e-05,0.0,7e-05,3
10509,10821,-2.9999999999999997e-05,0.0,2e-05,-1e-05,-1e-05,-5e-05,0.0,7e-05,3
10510,10822,-2.9999999999999997e-05,0.0,2e-05,-1e-05,-1e-05,-5e-05,0.0,7e-05,3
10511,10823,-2.9999999999999997e-05,0.0,2e-05,-1e-05,-1e-05,-5e-05,0.0,7e-05,3
10512,10824,-2.9999999999999997e-05,0.0,2e-05,-1e-05,-1e-05,-5e-05,0.0,7e-05,3
10513,10825,2e-05,0.0,0.0,-2.9999999999999997e-05,-1e-05,-4e-05,-2.9999999999999997e-05,-0.0002,3
10514,10826,-2.9999999999999997e-05,0.0,-1e-05,-5e-05,-0.00018999999999999998,-5.9999999999999995e-05,0.0,-0.00013000000000000002,3
10515,10827,-2e-05,-2.9999999999999997e-05,-2.9999999999999997e-05,-1e-05,0.00014,1e-05,-4e-05,1e-05,3
10516,10828,-2e-05,-2.9999999999999997e-05,-2.9999999999999997e-05,-1e-05,0.00014,1e-05,-4e-05,1e-05,3
10517,10829,-2e-05,-2.9999999999999997e-05,-2.9999999999999997e-05,-1e-05,0.00014,1e-05,-4e-05,1e-05,3
10518,10830,-2e-05,-2.9999999999999997e-05,-2.9999999999999997e-05,-1e-05,0.00014,1e-05,-4e-05,1e-05,3
10519,10831,-2e-05,-2.9999999999999997e-05,-2.9999999999999997e-05,-1e-05,0.00014,1e-05,-4e-05,1e-05,3
10520,10832,-2e-05,-2.9999999999999997e-05,-2.9999999999999997e-05,-1e-05,0.00014,1e-05,-4e-05,1e-05,3
10521,10833,-2e-05,-2.9999999999999997e-05,-2.9999999999999997e-05,-1e-05,0.00014,1e-05,-4e-05,1e-05,3
10522,10834,-2e-05,-2.9999999999999997e-05,-2.9999999999999997e-05,-1e-05,0.00014,1e-05,-4e-05,1e-05,3
10523,10835,-2e-05,-2.9999999999999997e-05,-2.9999999999999997e-05,-1e-05,0.00014,1e-05,-4e-05,1e-05,3
10524,10836,-2e-05,-2.9999999999999997e-05,-2.9999999999999997e-05,-1e-05,0.00014,1e-05,-4e-05,1e-05,3
10525,10838,-2e-05,-2.9999999999999997e-05,-2.9999999999999997e-05,-1e-05,0.00014,1e-05,-4e-05,1e-05,3
10526,10839,-2e-05,-2.9999999999999997e-05,-2.9999999999999997e-05,-1e-05,0.00014,1e-05,-4e-05,1e-05,3
10527,10840,-2e-05,-2.9999999999999997e-05,-2.9999999999999997e-05,-1e-05,0.00014,1e-05,-4e-05,1e-05,3
10528,10841,-2e-05,-2.9999999999999997e-05,-2.9999999999999997e-05,-1e-05,0.00014,1e-05,-4e-05,1e-05,3
10529,10842,-2e-05,-2.9999999999999997e-05,-2.9999999999999997e-05,-1e-05,0.00014,1e-05,-4e-05,1e-05,3
10530,10843,-2e-05,-2.9999999999999997e-05,-2.9999999999999997e-05,-1e-05,0.00014,1e-05,-4e-05,1e-05,3
10531,10844,-2e-05,-2.9999999999999997e-05,-2.9999999999999997e-05,-1e-05,0.00014,1e-05,-4e-05,1e-05,3
10532,10845,-2e-05,-2.9999999999999997e-05,-2.9999999999999997e-05,-1e-05,0.00014,1e-05,-4e-05,1e-05,3
10533,10846,-2e-05,-2.9999999999999997e-05,-2.9999999999999997e-05,-1e-05,0.00014,1e-05,-4e-05,1e-05,3
10534,10847,-2e-05,-2.9999999999999997e-05,-2.9999999999999997e-05,-1e-05,0.00014,1e-05,-4e-05,1e-05,3
10535,10848,-2e-05,-2.9999999999999997e-05,-2.9999999999999997e-05,-1e-05,0.00014,1e-05,-4e-05,1e-05,3
10536,10849,-2e-05,0.0,2e-05,2e-05,-4e-05,0.0,2e-05,-2.9999999999999997e-05,3
10537,10850,0.0,0.0,2e-05,0.0,-0.00047000000000000004,-2.9999999999999997e-05,0.0,5e-05,3
10538,10851,0.0,0.0,2e-05,0.0,-0.00047000000000000004,-2.9999999999999997e-05,0.0,5e-05,3
10539,10852,0.0,0.0,2e-05,0.0,-0.00047000000000000004,-2.9999999999999997e-05,0.0,5e-05,3
10540,10853,0.0,0.0,2e-05,0.0,-0.00047000000000000004,-2.9999999999999997e-05,0.0,5e-05,3
10541,10854,0.0,0.0,2e-05,0.0,-0.00047000000000000004,-2.9999999999999997e-05,0.0,5e-05,3
10542,10855,0.0,0.0,2e-05,0.0,-0.00047000000000000004,-2.9999999999999997e-05,0.0,5e-05,3
10543,10856,0.0,0.0,2e-05,0.0,-0.00047000000000000004,-2.9999999999999997e-05,0.0,5e-05,3
10544,10857,0.0,0.0,2e-05,0.0,-0.00047000000000000004,-2.9999999999999997e-05,0.0,5e-05,3
10545,10858,0.0,0.0,2e-05,0.0,-0.00047000000000000004,-2.9999999999999997e-05,0.0,5e-05,3
10546,10859,0.0,0.0,2e-05,0.0,-0.00047000000000000004,-2.9999999999999997e-05,0.0,5e-05,3
10547,10860,0.0,0.0,2e-05,0.0,-0.00047000000000000004,-2.9999999999999997e-05,0.0,5e-05,3
10548,10861,0.0,0.0,2e-05,0.0,-0.00047000000000000004,-2.9999999999999997e-05,0.0,5e-05,3
10549,10862,0.0,0.0,2e-05,0.0,-0.00047000000000000004,-2.9999999999999997e-05,0.0,5e-05,3
10550,10863,-1e-05,-4e-05,-2e-05,-4e-05,0.00011999999999999999,0.0,-5e-05,-2.9999999999999997e-05,3
10551,10864,0.0,-2.9999999999999997e-05,-2e-05,0.0,0.00011999999999999999,0.0,0.0,-5.9999999999999995e-05,3
10552,10865,0.0,-2.9999999999999997e-05,-2e-05,0.0,0.00011999999999999999,0.0,0.0,-5.9999999999999995e-05,3
10553,10866,0.0,-2.9999999999999997e-05,-2e-05,0.0,0.00011999999999999999,0.0,0.0,-5.9999999999999995e-05,3
10554,10867,0.0,-2.9999999999999997e-05,-2e-05,0.0,0.00011999999999999999,0.0,0.0,-5.9999999999999995e-05,3
10555,10868,0.0,-2.9999999999999997e-05,-2e-05,0.0,0.00011999999999999999,0.0,0.0,-5.9999999999999995e-05,3
10556,10869,0.0,-2.9999999999999997e-05,-2e-05,0.0,0.00011999999999999999,0.0,0.0,-5.9999999999999995e-05,3
10557,10870,0.0,-2.9999999999999997e-05,-2e-05,0.0,0.00011999999999999999,0.0,0.0,-5.9999999999999995e-05,3
10558,10871,0.0,-2.9999999999999997e-05,-2e-05,0.0,0.00011999999999999999,0.0,0.0,-5.9999999999999995e-05,3
10559,10872,0.0,-2.9999999999999997e-05,-2e-05,0.0,0.00011999999999999999,0.0,0.0,-5.9999999999999995e-05,3
10560,10873,0.0,-2.9999999999999997e-05,-2e-05,0.0,0.00011999999999999999,0.0,0.0,-5.9999999999999995e-05,3
10561,10874,0.0,-2.9999999999999997e-05,-2e-05,0.0,0.00011999999999999999,0.0,0.0,-5.9999999999999995e-05,3
10562,10875,0.0,-2.9999999999999997e-05,-2e-05,0.0,0.00011999999999999999,0.0,0.0,-5.9999999999999995e-05,3
10563,10876,0.0,-2.9999999999999997e-05,-2e-05,0.0,0.00011999999999999999,0.0,0.0,-5.9999999999999995e-05,3
10564,10877,0.0,-2.9999999999999997e-05,-2e-05,0.0,0.00011999999999999999,0.0,0.0,-5.9999999999999995e-05,3
10565,10878,0.0,-2.9999999999999997e-05,-2e-05,0.0,0.00011999999999999999,0.0,0.0,-5.9999999999999995e-05,3
10566,10879,0.0,-2.9999999999999997e-05,-2e-05,0.0,0.00011999999999999999,0.0,0.0,-5.9999999999999995e-05,3
10567,10880,0.0,-2.9999999999999997e-05,-2e-05,0.0,0.00011999999999999999,0.0,0.0,-5.9999999999999995e-05,3
10568,10881,0.0,-2.9999999999999997e-05,-2e-05,0.0,0.00011999999999999999,0.0,0.0,-5.9999999999999995e-05,3
10569,10882,0.0,-2.9999999999999997e-05,-2e-05,0.0,0.00011999999999999999,0.0,0.0,-5.9999999999999995e-05,3
10570,10883,0.0,-2.9999999999999997e-05,-2e-05,0.0,0.00011999999999999999,0.0,0.0,-5.9999999999999995e-05,3
10571,10884,0.0,-2.9999999999999997e-05,-2e-05,0.0,0.00011999999999999999,0.0,0.0,-5.9999999999999995e-05,3
10572,10885,-1e-05,-2.9999999999999997e-05,-2e-05,2.9999999999999997e-05,2e-05,-7e-05,-4e-05,1e-05,3
10573,10886,-2e-05,-2e-05,-2e-05,-4e-05,-4e-05,-4e-05,4e-05,5.9999999999999995e-05,3
10574,10888,0.0,-2e-05,-1e-05,2e-05,9e-05,0.0,-7e-05,-0.00022,3
10575,10889,0.0,-2e-05,-1e-05,2e-05,9e-05,0.0,-7e-05,-0.00022,3
10576,10890,0.0,-2e-05,-1e-05,2e-05,9e-05,0.0,-7e-05,-0.00022,3
10577,10891,0.0,-2e-05,-1e-05,2e-05,9e-05,0.0,-7e-05,-0.00022,3
10578,10892,0.0,-2e-05,-1e-05,2e-05,9e-05,0.0,-7e-05,-0.00022,3
10579,10893,0.0,-2e-05,-1e-05,2e-05,9e-05,0.0,-7e-05,-0.00022,3
10580,10894,0.0,-2e-05,-1e-05,2e-05,9e-05,0.0,-7e-05,-0.00022,3
10581,10895,0.0,-2e-05,-1e-05,2e-05,9e-05,0.0,-7e-05,-0.00022,3
10582,10896,0.0,-2e-05,-1e-05,2e-05,9e-05,0.0,-7e-05,-0.00022,3
10583,10897,0.0,-2e-05,-1e-05,2e-05,9e-05,0.0,-7e-05,-0.00022,3
10584,10898,0.0,-2e-05,-1e-05,2e-05,9e-05,0.0,-7e-05,-0.00022,3
10585,10899,0.0,-2e-05,-1e-05,2e-05,9e-05,0.0,-7e-05,-0.00022,3
10586,10900,0.0,-2e-05,-1e-05,2e-05,9e-05,0.0,-7e-05,-0.00022,3
10587,10901,0.0,-2e-05,-1e-05,2e-05,9e-05,0.0,-7e-05,-0.00022,3
10588,10902,0.0,-2e-05,-1e-05,2e-05,9e-05,0.0,-7e-05,-0.00022,3
10589,10903,0.0,-2e-05,-1e-05,2e-05,9e-05,0.0,-7e-05,-0.00022,3
10590,10904,0.0,-2e-05,-1e-05,2e-05,9e-05,0.0,-7e-05,-0.00022,3
10591,10905,0.0,-2e-05,-1e-05,2e-05,9e-05,0.0,-7e-05,-0.00022,3
10592,10906,0.0,-2e-05,-1e-05,2e-05,9e-05,0.0,-7e-05,-0.00022,3
10593,10907,0.0,-2e-05,-1e-05,2e-05,9e-05,0.0,-7e-05,-0.00022,3
10594,10908,0.0,-2e-05,-1e-05,2e-05,9e-05,0.0,-7e-05,-0.00022,3
10595,10909,-1e-05,-1e-05,1e-05,4e-05,5e-05,5.9999999999999995e-05,0.00011,0.00011999999999999999,3
10596,10910,-2.9999999999999997e-05,-1e-05,-2e-05,2e-05,0.00018999999999999998,-1e-05,2.9999999999999997e-05,0.00014,3
10597,10911,-2.9999999999999997e-05,-1e-05,-2e-05,2e-05,0.00018999999999999998,-1e-05,2.9999999999999997e-05,0.00014,3
10598,10912,-2.9999999999999997e-05,-1e-05,-2e-05,2e-05,0.00018999999999999998,-1e-05,2.9999999999999997e-05,0.00014,3
10599,10913,-2.9999999999999997e-05,-1e-05,-2e-05,2e-05,0.00018999999999999998,-1e-05,2.9999999999999997e-05,0.00014,3
10600,10914,-2.9999999999999997e-05,-1e-05,-2e-05,2e-05,0.00018999999999999998,-1e-05,2.9999999999999997e-05,0.00014,3
10601,10915,-2.9999999999999997e-05,-1e-05,-2e-05,2e-05,0.00018999999999999998,-1e-05,2.9999999999999997e-05,0.00014,3
10602,10916,-2.9999999999999997e-05,-1e-05,-2e-05,2e-05,0.00018999999999999998,-1e-05,2.9999999999999997e-05,0.00014,3
10603,10917,-2.9999999999999997e-05,-1e-05,-2e-05,2e-05,0.00018999999999999998,-1e-05,2.9999999999999997e-05,0.00014,3
10604,10918,-2.9999999999999997e-05,-1e-05,-2e-05,2e-05,0.00018999999999999998,-1e-05,2.9999999999999997e-05,0.00014,3
10605,10919,-2.9999999999999997e-05,-1e-05,-2e-05,2e-05,0.00018999999999999998,-1e-05,2.9999999999999997e-05,0.00014,3
10606,10920,-2.9999999999999997e-05,-1e-05,-2e-05,2e-05,0.00018999999999999998,-1e-05,2.9999999999999997e-05,0.00014,3
10607,10921,-2.9999999999999997e-05,-1e-05,-2e-05,2e-05,0.00018999999999999998,-1e-05,2.9999999999999997e-05,0.00014,3
10608,10922,-2.9999999999999997e-05,-1e-05,-2e-05,2e-05,0.00018999999999999998,-1e-05,2.9999999999999997e-05,0.00014,3
10609,10923,4e-05,2.9999999999999997e-05,-2e-05,-4e-05,-0.0001,2e-05,0.0,-5.9999999999999995e-05,3
10610,10924,5.9999999999999995e-05,0.0,2e-05,5.9999999999999995e-05,0.00013000000000000002,0.0,-2e-05,0.00011999999999999999,3
10611,10925,5.9999999999999995e-05,0.0,2e-05,5.9999999999999995e-05,0.00013000000000000002,0.0,-2e-05,0.00011999999999999999,3
10612,10926,5.9999999999999995e-05,0.0,2e-05,5.9999999999999995e-05,0.00013000000000000002,0.0,-2e-05,0.00011999999999999999,3
10613,10927,5.9999999999999995e-05,0.0,2e-05,5.9999999999999995e-05,0.00013000000000000002,0.0,-2e-05,0.00011999999999999999,3
10614,10928,5.9999999999999995e-05,0.0,2e-05,5.9999999999999995e-05,0.00013000000000000002,0.0,-2e-05,0.00011999999999999999,3
10615,10929,5.9999999999999995e-05,0.0,2e-05,5.9999999999999995e-05,0.00013000000000000002,0.0,-2e-05,0.00011999999999999999,3
10616,10930,5.9999999999999995e-05,0.0,2e-05,5.9999999999999995e-05,0.00013000000000000002,0.0,-2e-05,0.00011999999999999999,3
10617,10931,5.9999999999999995e-05,0.0,2e-05,5.9999999999999995e-05,0.00013000000000000002,0.0,-2e-05,0.00011999999999999999,3
10618,10932,5.9999999999999995e-05,0.0,2e-05,5.9999999999999995e-05,0.00013000000000000002,0.0,-2e-05,0.00011999999999999999,3
10619,10933,5.9999999999999995e-05,0.0,2e-05,5.9999999999999995e-05,0.00013000000000000002,0.0,-2e-05,0.00011999999999999999,3
10620,10934,5.9999999999999995e-05,0.0,2e-05,5.9999999999999995e-05,0.00013000000000000002,0.0,-2e-05,0.00011999999999999999,3
10621,10935,5.9999999999999995e-05,0.0,2e-05,5.9999999999999995e-05,0.00013000000000000002,0.0,-2e-05,0.00011999999999999999,3
10622,10936,5.9999999999999995e-05,0.0,2e-05,5.9999999999999995e-05,0.00013000000000000002,0.0,-2e-05,0.00011999999999999999,3
10623,10938,5.9999999999999995e-05,0.0,2e-05,5.9999999999999995e-05,0.00013000000000000002,0.0,-2e-05,0.00011999999999999999,3
10624,10939,5.9999999999999995e-05,0.0,2e-05,5.9999999999999995e-05,0.00013000000000000002,0.0,-2e-05,0.00011999999999999999,3
10625,10940,5.9999999999999995e-05,0.0,2e-05,5.9999999999999995e-05,0.00013000000000000002,0.0,-2e-05,0.00011999999999999999,3
10626,10941,5.9999999999999995e-05,0.0,2e-05,5.9999999999999995e-05,0.00013000000000000002,0.0,-2e-05,0.00011999999999999999,3
10627,10942,5.9999999999999995e-05,0.0,2e-05,5.9999999999999995e-05,0.00013000000000000002,0.0,-2e-05,0.00011999999999999999,3
10628,10943,5.9999999999999995e-05,0.0,2e-05,5.9999999999999995e-05,0.00013000000000000002,0.0,-2e-05,0.00011999999999999999,3
10629,10944,5.9999999999999995e-05,0.0,2e-05,5.9999999999999995e-05,0.00013000000000000002,0.0,-2e-05,0.00011999999999999999,3
10630,10945,1e-05,0.0,0.0,0.0,5e-05,2.9999999999999997e-05,1e-05,4e-05,3
10631,10946,-4e-05,0.0,-2e-05,-4e-05,-4e-05,-2.9999999999999997e-05,0.0,-0.00015,3
10632,10947,-4e-05,0.0,-2e-05,-4e-05,-4e-05,-2.9999999999999997e-05,0.0,-0.00015,3
10633,10948,-4e-05,0.0,-2e-05,-4e-05,-4e-05,-2.9999999999999997e-05,0.0,-0.00015,3
10634,10949,-4e-05,0.0,-2e-05,-4e-05,-4e-05,-2.9999999999999997e-05,0.0,-0.00015,3
10635,10950,-4e-05,0.0,-2e-05,-4e-05,-4e-05,-2.9999999999999997e-05,0.0,-0.00015,3
10636,10951,-4e-05,0.0,-2e-05,-4e-05,-4e-05,-2.9999999999999997e-05,0.0,-0.00015,3
10637,10952,-4e-05,0.0,-2e-05,-4e-05,-4e-05,-2.9999999999999997e-05,0.0,-0.00015,3
10638,10953,-4e-05,0.0,-2e-05,-4e-05,-4e-05,-2.9999999999999997e-05,0.0,-0.00015,3
10639,10954,-4e-05,0.0,-2e-05,-4e-05,-4e-05,-2.9999999999999997e-05,0.0,-0.00015,3
10640,10955,-4e-05,0.0,-2e-05,-4e-05,-4e-05,-2.9999999999999997e-05,0.0,-0.00015,3
10641,10956,-4e-05,0.0,-2e-05,-4e-05,-4e-05,-2.9999999999999997e-05,0.0,-0.00015,3
10642,10957,-4e-05,0.0,-2e-05,-4e-05,-4e-05,-2.9999999999999997e-05,0.0,-0.00015,3
10643,10958,-4e-05,0.0,-2e-05,-4e-05,-4e-05,-2.9999999999999997e-05,0.0,-0.00015,3
10644,10959,-4e-05,0.0,-2e-05,-4e-05,-4e-05,-2.9999999999999997e-05,0.0,-0.00015,3
10645,10960,-4e-05,0.0,-2e-05,-4e-05,-4e-05,-2.9999999999999997e-05,0.0,-0.00015,3
10646,10961,-4e-05,0.0,-2e-05,-4e-05,-4e-05,-2.9999999999999997e-05,0.0,-0.00015,3
10647,10962,-4e-05,0.0,-2e-05,-4e-05,-4e-05,-2.9999999999999997e-05,0.0,-0.00015,3
10648,10963,-4e-05,0.0,-2e-05,-4e-05,-4e-05,-2.9999999999999997e-05,0.0,-0.00015,3
10649,10964,-4e-05,0.0,-2e-05,-4e-05,-4e-05,-2.9999999999999997e-05,0.0,-0.00015,3
10650,10965,-4e-05,0.0,-2e-05,-4e-05,-4e-05,-2.9999999999999997e-05,0.0,-0.00015,3
10651,10966,-4e-05,0.0,-2e-05,-4e-05,-4e-05,-2.9999999999999997e-05,0.0,-0.00015,3
10652,10967,-4e-05,0.0,-2e-05,-4e-05,-4e-05,-2.9999999999999997e-05,0.0,-0.00015,3
10653,10968,-4e-05,0.0,-2e-05,-4e-05,-4e-05,-2.9999999999999997e-05,0.0,-0.00015,3
10654,10969,2e-05,-2e-05,-2e-05,0.0,-2.9999999999999997e-05,2.9999999999999997e-05,0.0,-1e-05,3
10655,10970,-5e-05,0.0,1e-05,-4e-05,-0.0001,-8e-05,-4e-05,-8e-05,3
10656,10972,-5e-05,0.0,1e-05,-4e-05,-0.0001,-8e-05,-4e-05,-8e-05,3
10657,10973,-5e-05,0.0,1e-05,-4e-05,-0.0001,-8e-05,-4e-05,-8e-05,3
10658,10974,-5e-05,0.0,1e-05,-4e-05,-0.0001,-8e-05,-4e-05,-8e-05,3
10659,10975,-5e-05,0.0,1e-05,-4e-05,-0.0001,-8e-05,-4e-05,-8e-05,3
10660,10976,-5e-05,0.0,1e-05,-4e-05,-0.0001,-8e-05,-4e-05,-8e-05,3
10661,10977,-5e-05,0.0,1e-05,-4e-05,-0.0001,-8e-05,-4e-05,-8e-05,3
10662,10978,-5e-05,0.0,1e-05,-4e-05,-0.0001,-8e-05,-4e-05,-8e-05,3
10663,10979,-5e-05,0.0,1e-05,-4e-05,-0.0001,-8e-05,-4e-05,-8e-05,3
10664,10980,-5e-05,0.0,1e-05,-4e-05,-0.0001,-8e-05,-4e-05,-8e-05,3
10665,10981,-5e-05,0.0,1e-05,-4e-05,-0.0001,-8e-05,-4e-05,-8e-05,3
10666,10982,-5e-05,0.0,1e-05,-4e-05,-0.0001,-8e-05,-4e-05,-8e-05,3
10667,10983,-2e-05,-2e-05,-2e-05,-2.9999999999999997e-05,0.0,-8e-05,-5e-05,0.0,3
10668,10984,-2.9999999999999997e-05,1e-05,-1e-05,-7e-05,-8e-05,-5.9999999999999995e-05,-0.00013000000000000002,-4e-05,3
10669,10985,-2.9999999999999997e-05,1e-05,-1e-05,-7e-05,-8e-05,-5.9999999999999995e-05,-0.00013000000000000002,-4e-05,3
10670,10986,-2.9999999999999997e-05,1e-05,-1e-05,-7e-05,-8e-05,-5.9999999999999995e-05,-0.00013000000000000002,-4e-05,3
10671,10988,-2.9999999999999997e-05,1e-05,-1e-05,-7e-05,-8e-05,-5.9999999999999995e-05,-0.00013000000000000002,-4e-05,3
10672,10989,-2.9999999999999997e-05,1e-05,-1e-05,-7e-05,-8e-05,-5.9999999999999995e-05,-0.00013000000000000002,-4e-05,3
10673,10990,-2.9999999999999997e-05,1e-05,-1e-05,-7e-05,-8e-05,-5.9999999999999995e-05,-0.00013000000000000002,-4e-05,3
10674,10991,-2.9999999999999997e-05,1e-05,-1e-05,-7e-05,-8e-05,-5.9999999999999995e-05,-0.00013000000000000002,-4e-05,3
10675,10992,-2.9999999999999997e-05,1e-05,-1e-05,-7e-05,-8e-05,-5.9999999999999995e-05,-0.00013000000000000002,-4e-05,3
10676,10993,-2.9999999999999997e-05,1e-05,-1e-05,-7e-05,-8e-05,-5.9999999999999995e-05,-0.00013000000000000002,-4e-05,3
10677,10994,-2.9999999999999997e-05,1e-05,-1e-05,-7e-05,-8e-05,-5.9999999999999995e-05,-0.00013000000000000002,-4e-05,3
10678,10995,-2.9999999999999997e-05,1e-05,-1e-05,-7e-05,-8e-05,-5.9999999999999995e-05,-0.00013000000000000002,-4e-05,3
10679,10996,-2.9999999999999997e-05,1e-05,-1e-05,-7e-05,-8e-05,-5.9999999999999995e-05,-0.00013000000000000002,-4e-05,3
10680,10997,-2.9999999999999997e-05,1e-05,-1e-05,-7e-05,-8e-05,-5.9999999999999995e-05,-0.00013000000000000002,-4e-05,3
10681,10998,-2.9999999999999997e-05,1e-05,-1e-05,-7e-05,-8e-05,-5.9999999999999995e-05,-0.00013000000000000002,-4e-05,3
10682,10999,-2.9999999999999997e-05,1e-05,-1e-05,-7e-05,-8e-05,-5.9999999999999995e-05,-0.00013000000000000002,-4e-05,3
10683,11000,-2.9999999999999997e-05,1e-05,-1e-05,-7e-05,-8e-05,-5.9999999999999995e-05,-0.00013000000000000002,-4e-05,3
10684,11001,-2.9999999999999997e-05,1e-05,-1e-05,-7e-05,-8e-05,-5.9999999999999995e-05,-0.00013000000000000002,-4e-05,3
10685,11002,-2.9999999999999997e-05,1e-05,-1e-05,-7e-05,-8e-05,-5.9999999999999995e-05,-0.00013000000000000002,-4e-05,3
10686,11003,-2.9999999999999997e-05,1e-05,-1e-05,-7e-05,-8e-05,-5.9999999999999995e-05,-0.00013000000000000002,-4e-05,3
10687,11004,-2.9999999999999997e-05,1e-05,-1e-05,-7e-05,-8e-05,-5.9999999999999995e-05,-0.00013000000000000002,-4e-05,3
10688,11005,-4e-05,-2e-05,-2.9999999999999997e-05,0.0,2.9999999999999997e-05,-5.9999999999999995e-05,-1e-05,-4e-05,3
10689,11006,-4e-05,-2e-05,-2.9999999999999997e-05,0.0,2.9999999999999997e-05,-5.9999999999999995e-05,-1e-05,-4e-05,3
10690,11007,2e-05,0.0,-2e-05,-1e-05,-0.00026000000000000003,0.0,8e-05,-0.00015,3
10691,11008,2e-05,0.0,-2e-05,-1e-05,-0.00026000000000000003,0.0,8e-05,-0.00015,3
10692,11009,2e-05,0.0,-2e-05,-1e-05,-0.00026000000000000003,0.0,8e-05,-0.00015,3
10693,11010,2e-05,0.0,-2e-05,-1e-05,-0.00026000000000000003,0.0,8e-05,-0.00015,3
10694,11011,2e-05,0.0,-2e-05,-1e-05,-0.00026000000000000003,0.0,8e-05,-0.00015,3
10695,11012,2e-05,0.0,-2e-05,-1e-05,-0.00026000000000000003,0.0,8e-05,-0.00015,3
10696,11013,2e-05,0.0,-2e-05,-1e-05,-0.00026000000000000003,0.0,8e-05,-0.00015,3
10697,11014,2e-05,0.0,-2e-05,-1e-05,-0.00026000000000000003,0.0,8e-05,-0.00015,3
10698,11015,2e-05,0.0,-2e-05,-1e-05,-0.00026000000000000003,0.0,8e-05,-0.00015,3
10699,11016,2e-05,0.0,-2e-05,-1e-05,-0.00026000000000000003,0.0,8e-05,-0.00015,3
10700,11017,2e-05,0.0,-2e-05,-1e-05,-0.00026000000000000003,0.0,8e-05,-0.00015,3
10701,11018,2e-05,0.0,-2e-05,-1e-05,-0.00026000000000000003,0.0,8e-05,-0.00015,3
10702,11019,2e-05,0.0,-2e-05,-1e-05,-0.00026000000000000003,0.0,8e-05,-0.00015,3
10703,11020,2e-05,0.0,-2e-05,-1e-05,-0.00026000000000000003,0.0,8e-05,-0.00015,3
10704,11021,2e-05,0.0,-2e-05,-1e-05,-0.00026000000000000003,0.0,8e-05,-0.00015,3
10705,11022,2e-05,0.0,-2e-05,-1e-05,-0.00026000000000000003,0.0,8e-05,-0.00015,3
10706,11023,2e-05,0.0,-2e-05,-1e-05,-0.00026000000000000003,0.0,8e-05,-0.00015,3
10707,11024,2e-05,0.0,-2e-05,-1e-05,-0.00026000000000000003,0.0,8e-05,-0.00015,3
10708,11025,2e-05,0.0,-2e-05,-1e-05,-0.00026000000000000003,0.0,8e-05,-0.00015,3
10709,11026,2e-05,0.0,-2e-05,-1e-05,-0.00026000000000000003,0.0,8e-05,-0.00015,3
10710,11027,2e-05,0.0,-2e-05,-1e-05,-0.00026000000000000003,0.0,8e-05,-0.00015,3
10711,11028,2e-05,0.0,-2e-05,-1e-05,-0.00026000000000000003,0.0,8e-05,-0.00015,3
10712,11029,2.9999999999999997e-05,-2e-05,-1e-05,-1e-05,4e-05,1e-05,4e-05,0.00022999999999999998,3
10713,11030,-5.9999999999999995e-05,-2.9999999999999997e-05,-2.9999999999999997e-05,-5e-05,-5.9999999999999995e-05,-5e-05,-0.00015,-4e-05,3
10714,11031,-5.9999999999999995e-05,-2.9999999999999997e-05,-2.9999999999999997e-05,-5e-05,-5.9999999999999995e-05,-5e-05,-0.00015,-4e-05,3
10715,11032,-5.9999999999999995e-05,-2.9999999999999997e-05,-2.9999999999999997e-05,-5e-05,-5.9999999999999995e-05,-5e-05,-0.00015,-4e-05,3
10716,11033,-5.9999999999999995e-05,-2.9999999999999997e-05,-2.9999999999999997e-05,-5e-05,-5.9999999999999995e-05,-5e-05,-0.00015,-4e-05,3
10717,11034,-5.9999999999999995e-05,-2.9999999999999997e-05,-2.9999999999999997e-05,-5e-05,-5.9999999999999995e-05,-5e-05,-0.00015,-4e-05,3
10718,11035,-5.9999999999999995e-05,-2.9999999999999997e-05,-2.9999999999999997e-05,-5e-05,-5.9999999999999995e-05,-5e-05,-0.00015,-4e-05,3
10719,11036,-5.9999999999999995e-05,-2.9999999999999997e-05,-2.9999999999999997e-05,-5e-05,-5.9999999999999995e-05,-5e-05,-0.00015,-4e-05,3
10720,11038,-5.9999999999999995e-05,-2.9999999999999997e-05,-2.9999999999999997e-05,-5e-05,-5.9999999999999995e-05,-5e-05,-0.00015,-4e-05,3
10721,11039,-5.9999999999999995e-05,-2.9999999999999997e-05,-2.9999999999999997e-05,-5e-05,-5.9999999999999995e-05,-5e-05,-0.00015,-4e-05,3
10722,11040,-5.9999999999999995e-05,-2.9999999999999997e-05,-2.9999999999999997e-05,-5e-05,-5.9999999999999995e-05,-5e-05,-0.00015,-4e-05,3
10723,11041,-5.9999999999999995e-05,-2.9999999999999997e-05,-2.9999999999999997e-05,-5e-05,-5.9999999999999995e-05,-5e-05,-0.00015,-4e-05,3
10724,11042,-5.9999999999999995e-05,-2.9999999999999997e-05,-2.9999999999999997e-05,-5e-05,-5.9999999999999995e-05,-5e-05,-0.00015,-4e-05,3
10725,11043,2.9999999999999997e-05,1e-05,1e-05,2e-05,-1e-05,7e-05,-2e-05,2.9999999999999997e-05,3
10726,11044,0.0,-2e-05,-1e-05,-2.9999999999999997e-05,-0.00011,1e-05,7e-05,0.00011,3
10727,11045,0.0,-2e-05,-1e-05,-2.9999999999999997e-05,-0.00011,1e-05,7e-05,0.00011,3
10728,11046,0.0,-2e-05,-1e-05,-2.9999999999999997e-05,-0.00011,1e-05,7e-05,0.00011,3
10729,11047,0.0,-2e-05,-1e-05,-2.9999999999999997e-05,-0.00011,1e-05,7e-05,0.00011,3
10730,11048,0.0,-2e-05,-1e-05,-2.9999999999999997e-05,-0.00011,1e-05,7e-05,0.00011,3
10731,11049,0.0,-2e-05,-1e-05,-2.9999999999999997e-05,-0.00011,1e-05,7e-05,0.00011,3
10732,11050,0.0,-2e-05,-1e-05,-2.9999999999999997e-05,-0.00011,1e-05,7e-05,0.00011,3
10733,11051,0.0,-2e-05,-1e-05,-2.9999999999999997e-05,-0.00011,1e-05,7e-05,0.00011,3
10734,11052,0.0,-2e-05,-1e-05,-2.9999999999999997e-05,-0.00011,1e-05,7e-05,0.00011,3
10735,11053,0.0,-2e-05,-1e-05,-2.9999999999999997e-05,-0.00011,1e-05,7e-05,0.00011,3
10736,11054,0.0,-2e-05,-1e-05,-2.9999999999999997e-05,-0.00011,1e-05,7e-05,0.00011,3
10737,11055,0.0,-2e-05,-1e-05,-2.9999999999999997e-05,-0.00011,1e-05,7e-05,0.00011,3
10738,11056,0.0,-2e-05,-1e-05,-2.9999999999999997e-05,-0.00011,1e-05,7e-05,0.00011,3
10739,11057,0.0,-2e-05,-1e-05,-2.9999999999999997e-05,-0.00011,1e-05,7e-05,0.00011,3
10740,11058,0.0,-2e-05,-1e-05,-2.9999999999999997e-05,-0.00011,1e-05,7e-05,0.00011,3
10741,11059,0.0,-2e-05,-1e-05,-2.9999999999999997e-05,-0.00011,1e-05,7e-05,0.00011,3
10742,11060,0.0,-2e-05,-1e-05,-2.9999999999999997e-05,-0.00011,1e-05,7e-05,0.00011,3
10743,11061,0.0,-2e-05,-1e-05,-2.9999999999999997e-05,-0.00011,1e-05,7e-05,0.00011,3
10744,11062,0.0,-2e-05,-1e-05,-2.9999999999999997e-05,-0.00011,1e-05,7e-05,0.00011,3
10745,11063,0.0,-2e-05,-1e-05,-2.9999999999999997e-05,-0.00011,1e-05,7e-05,0.00011,3
10746,11064,0.0,-2e-05,-1e-05,-2.9999999999999997e-05,-0.00011,1e-05,7e-05,0.00011,3
10747,11065,0.0,-2e-05,-1e-05,-2.9999999999999997e-05,-0.00011,1e-05,7e-05,0.00011,3
10748,11066,-1e-05,2e-05,1e-05,2e-05,5.9999999999999995e-05,-2e-05,0.0,-2e-05,3
10749,11067,-1e-05,2e-05,1e-05,2e-05,5.9999999999999995e-05,-2e-05,0.0,-2e-05,3
10750,11068,-1e-05,2e-05,1e-05,2e-05,5.9999999999999995e-05,-2e-05,0.0,-2e-05,3
10751,11069,-1e-05,2e-05,1e-05,2e-05,5.9999999999999995e-05,-2e-05,0.0,-2e-05,3
10752,11070,-1e-05,2e-05,1e-05,2e-05,5.9999999999999995e-05,-2e-05,0.0,-2e-05,3
10753,11071,-1e-05,2e-05,1e-05,2e-05,5.9999999999999995e-05,-2e-05,0.0,-2e-05,3
10754,11072,-1e-05,2e-05,1e-05,2e-05,5.9999999999999995e-05,-2e-05,0.0,-2e-05,3
10755,11073,-1e-05,2e-05,1e-05,2e-05,5.9999999999999995e-05,-2e-05,0.0,-2e-05,3
10756,11074,-1e-05,2e-05,1e-05,2e-05,5.9999999999999995e-05,-2e-05,0.0,-2e-05,3
10757,11075,-1e-05,2e-05,1e-05,2e-05,5.9999999999999995e-05,-2e-05,0.0,-2e-05,3
10758,11076,-1e-05,2e-05,1e-05,2e-05,5.9999999999999995e-05,-2e-05,0.0,-2e-05,3
10759,11077,-1e-05,2e-05,1e-05,2e-05,5.9999999999999995e-05,-2e-05,0.0,-2e-05,3
10760,11078,-1e-05,2e-05,1e-05,2e-05,5.9999999999999995e-05,-2e-05,0.0,-2e-05,3
10761,11079,-1e-05,2e-05,1e-05,2e-05,5.9999999999999995e-05,-2e-05,0.0,-2e-05,3
10762,11080,-1e-05,2e-05,1e-05,2e-05,5.9999999999999995e-05,-2e-05,0.0,-2e-05,3
10763,11081,-1e-05,2e-05,1e-05,2e-05,5.9999999999999995e-05,-2e-05,0.0,-2e-05,3
10764,11082,-1e-05,2e-05,1e-05,2e-05,5.9999999999999995e-05,-2e-05,0.0,-2e-05,3
10765,11083,-1e-05,2e-05,1e-05,2e-05,5.9999999999999995e-05,-2e-05,0.0,-2e-05,3
10766,11084,-1e-05,2e-05,1e-05,2e-05,5.9999999999999995e-05,-2e-05,0.0,-2e-05,3
10767,11085,-1e-05,2e-05,1e-05,2e-05,5.9999999999999995e-05,-2e-05,0.0,-2e-05,3
10768,11086,-1e-05,2e-05,1e-05,2e-05,5.9999999999999995e-05,-2e-05,0.0,-2e-05,3
10769,11088,-1e-05,2e-05,1e-05,2e-05,5.9999999999999995e-05,-2e-05,0.0,-2e-05,3
10770,11089,2e-05,0.0,-1e-05,-2e-05,-2.9999999999999997e-05,1e-05,2e-05,-2e-05,3
10771,11090,-1e-05,-2e-05,-4e-05,-5e-05,-0.00013000000000000002,-2e-05,0.0,7e-05,3
10772,11091,-1e-05,-2e-05,-4e-05,-5e-05,-0.00013000000000000002,-2e-05,0.0,7e-05,3
10773,11092,-1e-05,-2e-05,-4e-05,-5e-05,-0.00013000000000000002,-2e-05,0.0,7e-05,3
10774,11093,-1e-05,-2e-05,-4e-05,-5e-05,-0.00013000000000000002,-2e-05,0.0,7e-05,3
10775,11094,-1e-05,-2e-05,-4e-05,-5e-05,-0.00013000000000000002,-2e-05,0.0,7e-05,3
10776,11095,-1e-05,-2e-05,-4e-05,-5e-05,-0.00013000000000000002,-2e-05,0.0,7e-05,3
10777,11096,-1e-05,-2e-05,-4e-05,-5e-05,-0.00013000000000000002,-2e-05,0.0,7e-05,3
10778,11097,-1e-05,-2e-05,-4e-05,-5e-05,-0.00013000000000000002,-2e-05,0.0,7e-05,3
10779,11098,-1e-05,-2e-05,-4e-05,-5e-05,-0.00013000000000000002,-2e-05,0.0,7e-05,3
10780,11099,-1e-05,-2e-05,-4e-05,-5e-05,-0.00013000000000000002,-2e-05,0.0,7e-05,3
10781,11100,-1e-05,-2e-05,-4e-05,-5e-05,-0.00013000000000000002,-2e-05,0.0,7e-05,3
10782,11101,-1e-05,-2e-05,-4e-05,-5e-05,-0.00013000000000000002,-2e-05,0.0,7e-05,3
10783,11102,-1e-05,-2e-05,-4e-05,-5e-05,-0.00013000000000000002,-2e-05,0.0,7e-05,3
10784,11103,2e-05,1e-05,2e-05,-1e-05,-0.0001,2e-05,0.0,2.9999999999999997e-05,3
10785,11104,-1e-05,-2e-05,0.0,4e-05,5e-05,0.00018999999999999998,9e-05,-0.0001,3
10786,11105,-1e-05,-2e-05,0.0,4e-05,5e-05,0.00018999999999999998,9e-05,-0.0001,3
10787,11106,-1e-05,-2e-05,0.0,4e-05,5e-05,0.00018999999999999998,9e-05,-0.0001,3
10788,11107,-1e-05,-2e-05,0.0,4e-05,5e-05,0.00018999999999999998,9e-05,-0.0001,3
10789,11108,-1e-05,-2e-05,0.0,4e-05,5e-05,0.00018999999999999998,9e-05,-0.0001,3
10790,11109,-1e-05,-2e-05,0.0,4e-05,5e-05,0.00018999999999999998,9e-05,-0.0001,3
10791,11110,-1e-05,-2e-05,0.0,4e-05,5e-05,0.00018999999999999998,9e-05,-0.0001,3
10792,11111,-1e-05,-2e-05,0.0,4e-05,5e-05,0.00018999999999999998,9e-05,-0.0001,3
10793,11112,-1e-05,-2e-05,0.0,4e-05,5e-05,0.00018999999999999998,9e-05,-0.0001,3
10794,11113,-1e-05,-2e-05,0.0,4e-05,5e-05,0.00018999999999999998,9e-05,-0.0001,3
10795,11114,-1e-05,-2e-05,0.0,4e-05,5e-05,0.00018999999999999998,9e-05,-0.0001,3
10796,11115,-1e-05,-2e-05,0.0,4e-05,5e-05,0.00018999999999999998,9e-05,-0.0001,3
10797,11116,-1e-05,-2e-05,0.0,4e-05,5e-05,0.00018999999999999998,9e-05,-0.0001,3
10798,11117,-1e-05,-2e-05,0.0,4e-05,5e-05,0.00018999999999999998,9e-05,-0.0001,3
10799,11118,-1e-05,-2e-05,0.0,4e-05,5e-05,0.00018999999999999998,9e-05,-0.0001,3
10800,11119,-1e-05,-2e-05,0.0,4e-05,5e-05,0.00018999999999999998,9e-05,-0.0001,3
10801,11120,-1e-05,-2e-05,0.0,4e-05,5e-05,0.00018999999999999998,9e-05,-0.0001,3
10802,11121,-1e-05,-2e-05,0.0,4e-05,5e-05,0.00018999999999999998,9e-05,-0.0001,3
10803,11122,-1e-05,-2e-05,0.0,4e-05,5e-05,0.00018999999999999998,9e-05,-0.0001,3
10804,11123,-1e-05,-2e-05,0.0,4e-05,5e-05,0.00018999999999999998,9e-05,-0.0001,3
10805,11124,-1e-05,-2e-05,0.0,4e-05,5e-05,0.00018999999999999998,9e-05,-0.0001,3
10806,11125,-2e-05,-2e-05,-1e-05,-4e-05,-0.00016999999999999999,-5e-05,-8e-05,-0.00013000000000000002,3
10807,11126,-2.9999999999999997e-05,-2e-05,-1e-05,1e-05,7e-05,1e-05,2.9999999999999997e-05,0.0,3
10808,11127,-2.9999999999999997e-05,-2e-05,-1e-05,1e-05,7e-05,1e-05,2.9999999999999997e-05,0.0,3
10809,11128,-2.9999999999999997e-05,-2e-05,-1e-05,1e-05,7e-05,1e-05,2.9999999999999997e-05,0.0,3
10810,11129,-2.9999999999999997e-05,-2e-05,-1e-05,1e-05,7e-05,1e-05,2.9999999999999997e-05,0.0,3
10811,11130,-2.9999999999999997e-05,-2e-05,-1e-05,1e-05,7e-05,1e-05,2.9999999999999997e-05,0.0,3
10812,11131,-2.9999999999999997e-05,-2e-05,-1e-05,1e-05,7e-05,1e-05,2.9999999999999997e-05,0.0,3
10813,11132,-2.9999999999999997e-05,-2e-05,-1e-05,1e-05,7e-05,1e-05,2.9999999999999997e-05,0.0,3
10814,11133,-2.9999999999999997e-05,-2e-05,-1e-05,1e-05,7e-05,1e-05,2.9999999999999997e-05,0.0,3
10815,11134,-2.9999999999999997e-05,-2e-05,-1e-05,1e-05,7e-05,1e-05,2.9999999999999997e-05,0.0,3
10816,11135,-2.9999999999999997e-05,-2e-05,-1e-05,1e-05,7e-05,1e-05,2.9999999999999997e-05,0.0,3
10817,11136,-2.9999999999999997e-05,-2e-05,-1e-05,1e-05,7e-05,1e-05,2.9999999999999997e-05,0.0,3
10818,11138,-2.9999999999999997e-05,-2e-05,-1e-05,1e-05,7e-05,1e-05,2.9999999999999997e-05,0.0,3
10819,11139,-2.9999999999999997e-05,-2e-05,-1e-05,1e-05,7e-05,1e-05,2.9999999999999997e-05,0.0,3
10820,11140,-2.9999999999999997e-05,-2e-05,-1e-05,1e-05,7e-05,1e-05,2.9999999999999997e-05,0.0,3
10821,11141,-2.9999999999999997e-05,-2e-05,-1e-05,1e-05,7e-05,1e-05,2.9999999999999997e-05,0.0,3
10822,11142,-2.9999999999999997e-05,-2e-05,-1e-05,1e-05,7e-05,1e-05,2.9999999999999997e-05,0.0,3
10823,11143,-2.9999999999999997e-05,-2e-05,-1e-05,1e-05,7e-05,1e-05,2.9999999999999997e-05,0.0,3
10824,11144,-2.9999999999999997e-05,-2e-05,-1e-05,1e-05,7e-05,1e-05,2.9999999999999997e-05,0.0,3
10825,11145,-2.9999999999999997e-05,-2e-05,-1e-05,1e-05,7e-05,1e-05,2.9999999999999997e-05,0.0,3
10826,11146,-2.9999999999999997e-05,-2e-05,-1e-05,1e-05,7e-05,1e-05,2.9999999999999997e-05,0.0,3
10827,11147,-2.9999999999999997e-05,-2e-05,-1e-05,1e-05,7e-05,1e-05,2.9999999999999997e-05,0.0,3
10828,11148,-2.9999999999999997e-05,-2e-05,-1e-05,1e-05,7e-05,1e-05,2.9999999999999997e-05,0.0,3
10829,11149,-2.9999999999999997e-05,-2.9999999999999997e-05,-4e-05,0.0,0.00016999999999999999,2e-05,-1e-05,-2e-05,3
10830,11150,1e-05,0.0,-2e-05,0.0,8e-05,-2.9999999999999997e-05,-5e-05,-0.00011999999999999999,3
10831,11151,1e-05,0.0,-2e-05,0.0,8e-05,-2.9999999999999997e-05,-5e-05,-0.00011999999999999999,3
10832,11152,1e-05,0.0,-2e-05,0.0,8e-05,-2.9999999999999997e-05,-5e-05,-0.00011999999999999999,3
10833,11153,1e-05,0.0,-2e-05,0.0,8e-05,-2.9999999999999997e-05,-5e-05,-0.00011999999999999999,3
10834,11154,1e-05,0.0,-2e-05,0.0,8e-05,-2.9999999999999997e-05,-5e-05,-0.00011999999999999999,3
10835,11155,1e-05,0.0,-2e-05,0.0,8e-05,-2.9999999999999997e-05,-5e-05,-0.00011999999999999999,3
10836,11156,1e-05,0.0,-2e-05,0.0,8e-05,-2.9999999999999997e-05,-5e-05,-0.00011999999999999999,3
10837,11157,1e-05,0.0,-2e-05,0.0,8e-05,-2.9999999999999997e-05,-5e-05,-0.00011999999999999999,3
10838,11158,1e-05,0.0,-2e-05,0.0,8e-05,-2.9999999999999997e-05,-5e-05,-0.00011999999999999999,3
10839,11159,1e-05,0.0,-2e-05,0.0,8e-05,-2.9999999999999997e-05,-5e-05,-0.00011999999999999999,3
10840,11160,1e-05,0.0,-2e-05,0.0,8e-05,-2.9999999999999997e-05,-5e-05,-0.00011999999999999999,3
10841,11161,1e-05,0.0,-2e-05,0.0,8e-05,-2.9999999999999997e-05,-5e-05,-0.00011999999999999999,3
10842,11162,1e-05,0.0,-2e-05,0.0,8e-05,-2.9999999999999997e-05,-5e-05,-0.00011999999999999999,3
10843,11163,-1e-05,1e-05,0.0,0.0,0.0,-8e-05,-2.9999999999999997e-05,5e-05,3
10844,11164,0.0,0.0,-1e-05,2e-05,0.00018,-2e-05,2e-05,1e-05,3
10845,11165,0.0,0.0,-1e-05,2e-05,0.00018,-2e-05,2e-05,1e-05,3
10846,11166,0.0,0.0,-1e-05,2e-05,0.00018,-2e-05,2e-05,1e-05,3
10847,11167,0.0,0.0,-1e-05,2e-05,0.00018,-2e-05,2e-05,1e-05,3
10848,11168,0.0,0.0,-1e-05,2e-05,0.00018,-2e-05,2e-05,1e-05,3
10849,11169,0.0,0.0,-1e-05,2e-05,0.00018,-2e-05,2e-05,1e-05,3
10850,11170,0.0,0.0,-1e-05,2e-05,0.00018,-2e-05,2e-05,1e-05,3
10851,11171,0.0,0.0,-1e-05,2e-05,0.00018,-2e-05,2e-05,1e-05,3
10852,11172,0.0,0.0,-1e-05,2e-05,0.00018,-2e-05,2e-05,1e-05,3
10853,11173,0.0,0.0,-1e-05,2e-05,0.00018,-2e-05,2e-05,1e-05,3
10854,11174,0.0,0.0,-1e-05,2e-05,0.00018,-2e-05,2e-05,1e-05,3
10855,11175,0.0,0.0,-1e-05,2e-05,0.00018,-2e-05,2e-05,1e-05,3
10856,11176,0.0,0.0,-1e-05,2e-05,0.00018,-2e-05,2e-05,1e-05,3
10857,11177,0.0,0.0,-1e-05,2e-05,0.00018,-2e-05,2e-05,1e-05,3
10858,11178,0.0,0.0,-1e-05,2e-05,0.00018,-2e-05,2e-05,1e-05,3
10859,11179,0.0,0.0,-1e-05,2e-05,0.00018,-2e-05,2e-05,1e-05,3
10860,11180,0.0,0.0,-1e-05,2e-05,0.00018,-2e-05,2e-05,1e-05,3
10861,11181,0.0,0.0,-1e-05,2e-05,0.00018,-2e-05,2e-05,1e-05,3
10862,11182,0.0,0.0,-1e-05,2e-05,0.00018,-2e-05,2e-05,1e-05,3
10863,11183,0.0,0.0,-1e-05,2e-05,0.00018,-2e-05,2e-05,1e-05,3
10864,11184,0.0,0.0,-1e-05,2e-05,0.00018,-2e-05,2e-05,1e-05,3
10865,11185,0.0,0.0,-1e-05,2e-05,0.00018,-2e-05,2e-05,1e-05,3
10866,11186,-2.9999999999999997e-05,-5e-05,-2.9999999999999997e-05,-2e-05,-5e-05,-5.9999999999999995e-05,-4e-05,2e-05,3
10867,11188,-2.9999999999999997e-05,-5e-05,-2.9999999999999997e-05,-2e-05,-5e-05,-5.9999999999999995e-05,-4e-05,2e-05,3
10868,11189,-2.9999999999999997e-05,-5e-05,-2.9999999999999997e-05,-2e-05,-5e-05,-5.9999999999999995e-05,-4e-05,2e-05,3
10869,11190,-2.9999999999999997e-05,-5e-05,-2.9999999999999997e-05,-2e-05,-5e-05,-5.9999999999999995e-05,-4e-05,2e-05,3
10870,11191,-2.9999999999999997e-05,-5e-05,-2.9999999999999997e-05,-2e-05,-5e-05,-5.9999999999999995e-05,-4e-05,2e-05,3
10871,11192,-2.9999999999999997e-05,-5e-05,-2.9999999999999997e-05,-2e-05,-5e-05,-5.9999999999999995e-05,-4e-05,2e-05,3
10872,11193,-2.9999999999999997e-05,-5e-05,-2.9999999999999997e-05,-2e-05,-5e-05,-5.9999999999999995e-05,-4e-05,2e-05,3
10873,11194,-2.9999999999999997e-05,-5e-05,-2.9999999999999997e-05,-2e-05,-5e-05,-5.9999999999999995e-05,-4e-05,2e-05,3
10874,11195,-2.9999999999999997e-05,-5e-05,-2.9999999999999997e-05,-2e-05,-5e-05,-5.9999999999999995e-05,-4e-05,2e-05,3
10875,11196,-2.9999999999999997e-05,-5e-05,-2.9999999999999997e-05,-2e-05,-5e-05,-5.9999999999999995e-05,-4e-05,2e-05,3
10876,11197,-2.9999999999999997e-05,-5e-05,-2.9999999999999997e-05,-2e-05,-5e-05,-5.9999999999999995e-05,-4e-05,2e-05,3
10877,11198,-2.9999999999999997e-05,-5e-05,-2.9999999999999997e-05,-2e-05,-5e-05,-5.9999999999999995e-05,-4e-05,2e-05,3
10878,11199,-2.9999999999999997e-05,-5e-05,-2.9999999999999997e-05,-2e-05,-5e-05,-5.9999999999999995e-05,-4e-05,2e-05,3
10879,11200,-2.9999999999999997e-05,-5e-05,-2.9999999999999997e-05,-2e-05,-5e-05,-5.9999999999999995e-05,-4e-05,2e-05,3
10880,11201,-2.9999999999999997e-05,-5e-05,-2.9999999999999997e-05,-2e-05,-5e-05,-5.9999999999999995e-05,-4e-05,2e-05,3
10881,11202,-2.9999999999999997e-05,-5e-05,-2.9999999999999997e-05,-2e-05,-5e-05,-5.9999999999999995e-05,-4e-05,2e-05,3
10882,11203,-2.9999999999999997e-05,-5e-05,-2.9999999999999997e-05,-2e-05,-5e-05,-5.9999999999999995e-05,-4e-05,2e-05,3
10883,11204,-2.9999999999999997e-05,-5e-05,-2.9999999999999997e-05,-2e-05,-5e-05,-5.9999999999999995e-05,-4e-05,2e-05,3
10884,11205,-2.9999999999999997e-05,-5e-05,-2.9999999999999997e-05,-2e-05,-5e-05,-5.9999999999999995e-05,-4e-05,2e-05,3
10885,11206,-2.9999999999999997e-05,-5e-05,-2.9999999999999997e-05,-2e-05,-5e-05,-5.9999999999999995e-05,-4e-05,2e-05,3
10886,11207,-2.9999999999999997e-05,-5e-05,-2.9999999999999997e-05,-2e-05,-5e-05,-5.9999999999999995e-05,-4e-05,2e-05,3
10887,11208,-2.9999999999999997e-05,-5e-05,-2.9999999999999997e-05,-2e-05,-5e-05,-5.9999999999999995e-05,-4e-05,2e-05,3
10888,11209,-1e-05,0.0,-1e-05,0.0,-4e-05,-0.0001,-0.0001,-7e-05,3
10889,11210,1e-05,0.0,0.0,-5e-05,5e-05,1e-05,1e-05,8e-05,3
10890,11211,1e-05,0.0,0.0,-5e-05,5e-05,1e-05,1e-05,8e-05,3
10891,11212,1e-05,0.0,0.0,-5e-05,5e-05,1e-05,1e-05,8e-05,3
10892,11213,1e-05,0.0,0.0,-5e-05,5e-05,1e-05,1e-05,8e-05,3
10893,11214,1e-05,0.0,0.0,-5e-05,5e-05,1e-05,1e-05,8e-05,3
10894,11215,1e-05,0.0,0.0,-5e-05,5e-05,1e-05,1e-05,8e-05,3
10895,11216,1e-05,0.0,0.0,-5e-05,5e-05,1e-05,1e-05,8e-05,3
10896,11217,1e-05,0.0,0.0,-5e-05,5e-05,1e-05,1e-05,8e-05,3
10897,11218,1e-05,0.0,0.0,-5e-05,5e-05,1e-05,1e-05,8e-05,3
10898,11219,1e-05,0.0,0.0,-5e-05,5e-05,1e-05,1e-05,8e-05,3
10899,11220,1e-05,0.0,0.0,-5e-05,5e-05,1e-05,1e-05,8e-05,3
10900,11221,1e-05,0.0,0.0,-5e-05,5e-05,1e-05,1e-05,8e-05,3
10901,11222,1e-05,0.0,0.0,-5e-05,5e-05,1e-05,1e-05,8e-05,3
10902,11223,-2.9999999999999997e-05,-2e-05,-1e-05,2e-05,1e-05,2.9999999999999997e-05,5e-05,0.0002,3
10903,11224,2e-05,-1e-05,-2e-05,0.0,-0.00016999999999999999,-2.9999999999999997e-05,4e-05,4e-05,3
10904,11225,2e-05,-1e-05,-2e-05,0.0,-0.00016999999999999999,-2.9999999999999997e-05,4e-05,4e-05,3
10905,11226,2e-05,-1e-05,-2e-05,0.0,-0.00016999999999999999,-2.9999999999999997e-05,4e-05,4e-05,3
10906,11227,2e-05,-1e-05,-2e-05,0.0,-0.00016999999999999999,-2.9999999999999997e-05,4e-05,4e-05,3
10907,11228,2e-05,-1e-05,-2e-05,0.0,-0.00016999999999999999,-2.9999999999999997e-05,4e-05,4e-05,3
10908,11229,2e-05,-1e-05,-2e-05,0.0,-0.00016999999999999999,-2.9999999999999997e-05,4e-05,4e-05,3
10909,11230,2e-05,-1e-05,-2e-05,0.0,-0.00016999999999999999,-2.9999999999999997e-05,4e-05,4e-05,3
10910,11231,2e-05,-1e-05,-2e-05,0.0,-0.00016999999999999999,-2.9999999999999997e-05,4e-05,4e-05,3
10911,11232,2e-05,-1e-05,-2e-05,0.0,-0.00016999999999999999,-2.9999999999999997e-05,4e-05,4e-05,3
10912,11233,2e-05,-1e-05,-2e-05,0.0,-0.00016999999999999999,-2.9999999999999997e-05,4e-05,4e-05,3
10913,11234,2e-05,-1e-05,-2e-05,0.0,-0.00016999999999999999,-2.9999999999999997e-05,4e-05,4e-05,3
10914,11235,2e-05,-1e-05,-2e-05,0.0,-0.00016999999999999999,-2.9999999999999997e-05,4e-05,4e-05,3
10915,11236,2e-05,-1e-05,-2e-05,0.0,-0.00016999999999999999,-2.9999999999999997e-05,4e-05,4e-05,3
10916,11238,2e-05,-1e-05,-2e-05,0.0,-0.00016999999999999999,-2.9999999999999997e-05,4e-05,4e-05,3
10917,11239,2e-05,-1e-05,-2e-05,0.0,-0.00016999999999999999,-2.9999999999999997e-05,4e-05,4e-05,3
10918,11240,2e-05,-1e-05,-2e-05,0.0,-0.00016999999999999999,-2.9999999999999997e-05,4e-05,4e-05,3
10919,11241,2e-05,-1e-05,-2e-05,0.0,-0.00016999999999999999,-2.9999999999999997e-05,4e-05,4e-05,3
10920,11242,2e-05,-1e-05,-2e-05,0.0,-0.00016999999999999999,-2.9999999999999997e-05,4e-05,4e-05,3
10921,11243,2e-05,-1e-05,-2e-05,0.0,-0.00016999999999999999,-2.9999999999999997e-05,4e-05,4e-05,3
10922,11244,2e-05,-1e-05,-2e-05,0.0,-0.00016999999999999999,-2.9999999999999997e-05,4e-05,4e-05,3
10923,11245,2.9999999999999997e-05,-1e-05,0.0,2.9999999999999997e-05,0.00022999999999999998,2.9999999999999997e-05,-0.00013000000000000002,-8e-05,3
10924,11246,-1e-05,1e-05,-2e-05,-2e-05,0.00016,-1e-05,-5.9999999999999995e-05,5e-05,3
10925,11247,-1e-05,1e-05,-2e-05,-2e-05,0.00016,-1e-05,-5.9999999999999995e-05,5e-05,3
10926,11248,-1e-05,1e-05,-2e-05,-2e-05,0.00016,-1e-05,-5.9999999999999995e-05,5e-05,3
10927,11249,-1e-05,1e-05,-2e-05,-2e-05,0.00016,-1e-05,-5.9999999999999995e-05,5e-05,3
10928,11250,-1e-05,1e-05,-2e-05,-2e-05,0.00016,-1e-05,-5.9999999999999995e-05,5e-05,3
10929,11251,-1e-05,1e-05,-2e-05,-2e-05,0.00016,-1e-05,-5.9999999999999995e-05,5e-05,3
10930,11252,-1e-05,1e-05,-2e-05,-2e-05,0.00016,-1e-05,-5.9999999999999995e-05,5e-05,3
10931,11253,-1e-05,1e-05,-2e-05,-2e-05,0.00016,-1e-05,-5.9999999999999995e-05,5e-05,3
10932,11254,-1e-05,1e-05,-2e-05,-2e-05,0.00016,-1e-05,-5.9999999999999995e-05,5e-05,3
10933,11255,-1e-05,1e-05,-2e-05,-2e-05,0.00016,-1e-05,-5.9999999999999995e-05,5e-05,3
10934,11256,-1e-05,1e-05,-2e-05,-2e-05,0.00016,-1e-05,-5.9999999999999995e-05,5e-05,3
10935,11257,-1e-05,1e-05,-2e-05,-2e-05,0.00016,-1e-05,-5.9999999999999995e-05,5e-05,3
10936,11258,-1e-05,1e-05,-2e-05,-2e-05,0.00016,-1e-05,-5.9999999999999995e-05,5e-05,3
10937,11259,-1e-05,1e-05,-2e-05,-2e-05,0.00016,-1e-05,-5.9999999999999995e-05,5e-05,3
10938,11260,-1e-05,1e-05,-2e-05,-2e-05,0.00016,-1e-05,-5.9999999999999995e-05,5e-05,3
10939,11261,-1e-05,1e-05,-2e-05,-2e-05,0.00016,-1e-05,-5.9999999999999995e-05,5e-05,3
10940,11262,-1e-05,1e-05,-2e-05,-2e-05,0.00016,-1e-05,-5.9999999999999995e-05,5e-05,3
10941,11263,-1e-05,1e-05,-2e-05,-2e-05,0.00016,-1e-05,-5.9999999999999995e-05,5e-05,3
10942,11264,-1e-05,1e-05,-2e-05,-2e-05,0.00016,-1e-05,-5.9999999999999995e-05,5e-05,3
10943,11265,-1e-05,1e-05,-2e-05,-2e-05,0.00016,-1e-05,-5.9999999999999995e-05,5e-05,3
10944,11266,-1e-05,1e-05,-2e-05,-2e-05,0.00016,-1e-05,-5.9999999999999995e-05,5e-05,3
10945,11267,-1e-05,1e-05,-2e-05,-2e-05,0.00016,-1e-05,-5.9999999999999995e-05,5e-05,3
10946,11268,-1e-05,1e-05,-2e-05,-2e-05,0.00016,-1e-05,-5.9999999999999995e-05,5e-05,3
10947,11269,1e-05,1e-05,2e-05,4e-05,0.00011,-1e-05,-1e-05,-5e-05,3
10948,11270,-1e-05,1e-05,0.0,-5e-05,-0.00022,-1e-05,0.0,-8e-05,3
10949,11271,-1e-05,1e-05,0.0,-5e-05,-0.00022,-1e-05,0.0,-8e-05,3
10950,11272,-1e-05,1e-05,0.0,-5e-05,-0.00022,-1e-05,0.0,-8e-05,3
10951,11273,-1e-05,1e-05,0.0,-5e-05,-0.00022,-1e-05,0.0,-8e-05,3
10952,11274,-1e-05,1e-05,0.0,-5e-05,-0.00022,-1e-05,0.0,-8e-05,3
10953,11275,-1e-05,1e-05,0.0,-5e-05,-0.00022,-1e-05,0.0,-8e-05,3
10954,11276,-1e-05,1e-05,0.0,-5e-05,-0.00022,-1e-05,0.0,-8e-05,3
10955,11277,-1e-05,1e-05,0.0,-5e-05,-0.00022,-1e-05,0.0,-8e-05,3
10956,11278,-1e-05,1e-05,0.0,-5e-05,-0.00022,-1e-05,0.0,-8e-05,3
10957,11280,-1e-05,1e-05,0.0,-5e-05,-0.00022,-1e-05,0.0,-8e-05,3
10958,11281,-1e-05,1e-05,0.0,-5e-05,-0.00022,-1e-05,0.0,-8e-05,3
10959,11282,-1e-05,1e-05,0.0,-5e-05,-0.00022,-1e-05,0.0,-8e-05,3
10960,11283,-1e-05,0.0,0.0,2e-05,5e-05,-1e-05,-4e-05,-0.0001,3
10961,11284,0.0,0.0,0.0,-1e-05,2.9999999999999997e-05,2.9999999999999997e-05,5.9999999999999995e-05,-1e-05,3
10962,11285,0.0,0.0,0.0,-1e-05,2.9999999999999997e-05,2.9999999999999997e-05,5.9999999999999995e-05,-1e-05,3
10963,11286,0.0,0.0,0.0,-1e-05,2.9999999999999997e-05,2.9999999999999997e-05,5.9999999999999995e-05,-1e-05,3
10964,11288,0.0,0.0,0.0,-1e-05,2.9999999999999997e-05,2.9999999999999997e-05,5.9999999999999995e-05,-1e-05,3
10965,11289,0.0,0.0,0.0,-1e-05,2.9999999999999997e-05,2.9999999999999997e-05,5.9999999999999995e-05,-1e-05,3
10966,11290,0.0,0.0,0.0,-1e-05,2.9999999999999997e-05,2.9999999999999997e-05,5.9999999999999995e-05,-1e-05,3
10967,11291,0.0,0.0,0.0,-1e-05,2.9999999999999997e-05,2.9999999999999997e-05,5.9999999999999995e-05,-1e-05,3
10968,11292,0.0,0.0,0.0,-1e-05,2.9999999999999997e-05,2.9999999999999997e-05,5.9999999999999995e-05,-1e-05,3
10969,11293,0.0,0.0,0.0,-1e-05,2.9999999999999997e-05,2.9999999999999997e-05,5.9999999999999995e-05,-1e-05,3
10970,11294,0.0,0.0,0.0,-1e-05,2.9999999999999997e-05,2.9999999999999997e-05,5.9999999999999995e-05,-1e-05,3
10971,11295,0.0,0.0,0.0,-1e-05,2.9999999999999997e-05,2.9999999999999997e-05,5.9999999999999995e-05,-1e-05,3
10972,11296,0.0,0.0,0.0,-1e-05,2.9999999999999997e-05,2.9999999999999997e-05,5.9999999999999995e-05,-1e-05,3
10973,11297,0.0,0.0,0.0,-1e-05,2.9999999999999997e-05,2.9999999999999997e-05,5.9999999999999995e-05,-1e-05,3
10974,11298,0.0,0.0,0.0,-1e-05,2.9999999999999997e-05,2.9999999999999997e-05,5.9999999999999995e-05,-1e-05,3
10975,11299,0.0,0.0,0.0,-1e-05,2.9999999999999997e-05,2.9999999999999997e-05,5.9999999999999995e-05,-1e-05,3
10976,11300,0.0,0.0,0.0,-1e-05,2.9999999999999997e-05,2.9999999999999997e-05,5.9999999999999995e-05,-1e-05,3
10977,11301,0.0,0.0,0.0,-1e-05,2.9999999999999997e-05,2.9999999999999997e-05,5.9999999999999995e-05,-1e-05,3
10978,11302,0.0,0.0,0.0,-1e-05,2.9999999999999997e-05,2.9999999999999997e-05,5.9999999999999995e-05,-1e-05,3
10979,11303,0.0,0.0,0.0,-1e-05,2.9999999999999997e-05,2.9999999999999997e-05,5.9999999999999995e-05,-1e-05,3
10980,11304,0.0,0.0,0.0,-1e-05,2.9999999999999997e-05,2.9999999999999997e-05,5.9999999999999995e-05,-1e-05,3
10981,11305,0.0,0.0,0.0,-1e-05,2.9999999999999997e-05,2.9999999999999997e-05,5.9999999999999995e-05,-1e-05,3
10982,11306,-1e-05,-2.9999999999999997e-05,0.0,-2.9999999999999997e-05,-7e-05,4e-05,0.0,-2e-05,3
10983,11307,-1e-05,-2.9999999999999997e-05,-2e-05,-1e-05,-2.9999999999999997e-05,1e-05,-2e-05,7e-05,3
10984,11308,-1e-05,-2.9999999999999997e-05,-2e-05,-1e-05,-2.9999999999999997e-05,1e-05,-2e-05,7e-05,3
10985,11309,-1e-05,-2.9999999999999997e-05,-2e-05,-1e-05,-2.9999999999999997e-05,1e-05,-2e-05,7e-05,3
10986,11310,-1e-05,-2.9999999999999997e-05,-2e-05,-1e-05,-2.9999999999999997e-05,1e-05,-2e-05,7e-05,3
10987,11311,-1e-05,-2.9999999999999997e-05,-2e-05,-1e-05,-2.9999999999999997e-05,1e-05,-2e-05,7e-05,3
10988,11312,-1e-05,-2.9999999999999997e-05,-2e-05,-1e-05,-2.9999999999999997e-05,1e-05,-2e-05,7e-05,3
10989,11313,-1e-05,-2.9999999999999997e-05,-2e-05,-1e-05,-2.9999999999999997e-05,1e-05,-2e-05,7e-05,3
10990,11314,-1e-05,-2.9999999999999997e-05,-2e-05,-1e-05,-2.9999999999999997e-05,1e-05,-2e-05,7e-05,3
10991,11315,-1e-05,-2.9999999999999997e-05,-2e-05,-1e-05,-2.9999999999999997e-05,1e-05,-2e-05,7e-05,3
10992,11316,-1e-05,-2.9999999999999997e-05,-2e-05,-1e-05,-2.9999999999999997e-05,1e-05,-2e-05,7e-05,3
10993,11317,-1e-05,-2.9999999999999997e-05,-2e-05,-1e-05,-2.9999999999999997e-05,1e-05,-2e-05,7e-05,3
10994,11318,-1e-05,-2.9999999999999997e-05,-2e-05,-1e-05,-2.9999999999999997e-05,1e-05,-2e-05,7e-05,3
10995,11319,-1e-05,-2.9999999999999997e-05,-2e-05,-1e-05,-2.9999999999999997e-05,1e-05,-2e-05,7e-05,3
10996,11320,-1e-05,-2.9999999999999997e-05,-2e-05,-1e-05,-2.9999999999999997e-05,1e-05,-2e-05,7e-05,3
10997,11321,-1e-05,-2.9999999999999997e-05,-2e-05,-1e-05,-2.9999999999999997e-05,1e-05,-2e-05,7e-05,3
10998,11322,-1e-05,-2.9999999999999997e-05,-2e-05,-1e-05,-2.9999999999999997e-05,1e-05,-2e-05,7e-05,3
10999,11323,-1e-05,-2.9999999999999997e-05,-2e-05,-1e-05,-2.9999999999999997e-05,1e-05,-2e-05,7e-05,3
11000,11324,-1e-05,-2.9999999999999997e-05,-2e-05,-1e-05,-2.9999999999999997e-05,1e-05,-2e-05,7e-05,3
11001,11325,-1e-05,-2.9999999999999997e-05,-2e-05,-1e-05,-2.9999999999999997e-05,1e-05,-2e-05,7e-05,3
11002,11326,-1e-05,-2.9999999999999997e-05,-2e-05,-1e-05,-2.9999999999999997e-05,1e-05,-2e-05,7e-05,3
11003,11327,-1e-05,-2.9999999999999997e-05,-2e-05,-1e-05,-2.9999999999999997e-05,1e-05,-2e-05,7e-05,3
11004,11328,-1e-05,-2.9999999999999997e-05,-2e-05,-1e-05,-2.9999999999999997e-05,1e-05,-2e-05,7e-05,3
11005,11329,-2.9999999999999997e-05,-2e-05,-2e-05,1e-05,2.9999999999999997e-05,1e-05,2.9999999999999997e-05,-5e-05,3
11006,11330,-2e-05,-4e-05,0.0,-1e-05,0.0,-7e-05,-0.0001,-0.00011999999999999999,3
11007,11331,-2e-05,-4e-05,0.0,-1e-05,0.0,-7e-05,-0.0001,-0.00011999999999999999,3
11008,11332,-2e-05,-4e-05,0.0,-1e-05,0.0,-7e-05,-0.0001,-0.00011999999999999999,3
11009,11333,-2e-05,-4e-05,0.0,-1e-05,0.0,-7e-05,-0.0001,-0.00011999999999999999,3
11010,11334,-2e-05,-4e-05,0.0,-1e-05,0.0,-7e-05,-0.0001,-0.00011999999999999999,3
11011,11335,-2e-05,-4e-05,0.0,-1e-05,0.0,-7e-05,-0.0001,-0.00011999999999999999,3
11012,11336,-2e-05,-4e-05,0.0,-1e-05,0.0,-7e-05,-0.0001,-0.00011999999999999999,3
11013,11338,-2e-05,-4e-05,0.0,-1e-05,0.0,-7e-05,-0.0001,-0.00011999999999999999,3
11014,11339,-2e-05,-4e-05,0.0,-1e-05,0.0,-7e-05,-0.0001,-0.00011999999999999999,3
11015,11340,-2e-05,-4e-05,0.0,-1e-05,0.0,-7e-05,-0.0001,-0.00011999999999999999,3
11016,11341,-2e-05,-4e-05,0.0,-1e-05,0.0,-7e-05,-0.0001,-0.00011999999999999999,3
11017,11342,-2e-05,-4e-05,0.0,-1e-05,0.0,-7e-05,-0.0001,-0.00011999999999999999,3
11018,11343,-1e-05,0.0,0.0,-1e-05,-5e-05,0.0,2e-05,-2.9999999999999997e-05,3
11019,11344,2.9999999999999997e-05,1e-05,1e-05,-1e-05,-5.9999999999999995e-05,-5.9999999999999995e-05,-2.9999999999999997e-05,-0.00033999999999999997,3
11020,11345,2.9999999999999997e-05,1e-05,1e-05,-1e-05,-5.9999999999999995e-05,-5.9999999999999995e-05,-2.9999999999999997e-05,-0.00033999999999999997,3
11021,11346,2.9999999999999997e-05,1e-05,1e-05,-1e-05,-5.9999999999999995e-05,-5.9999999999999995e-05,-2.9999999999999997e-05,-0.00033999999999999997,3
11022,11347,2.9999999999999997e-05,1e-05,1e-05,-1e-05,-5.9999999999999995e-05,-5.9999999999999995e-05,-2.9999999999999997e-05,-0.00033999999999999997,3
11023,11348,2.9999999999999997e-05,1e-05,1e-05,-1e-05,-5.9999999999999995e-05,-5.9999999999999995e-05,-2.9999999999999997e-05,-0.00033999999999999997,3
11024,11349,2.9999999999999997e-05,1e-05,1e-05,-1e-05,-5.9999999999999995e-05,-5.9999999999999995e-05,-2.9999999999999997e-05,-0.00033999999999999997,3
11025,11350,2.9999999999999997e-05,1e-05,1e-05,-1e-05,-5.9999999999999995e-05,-5.9999999999999995e-05,-2.9999999999999997e-05,-0.00033999999999999997,3
11026,11351,2.9999999999999997e-05,1e-05,1e-05,-1e-05,-5.9999999999999995e-05,-5.9999999999999995e-05,-2.9999999999999997e-05,-0.00033999999999999997,3
11027,11352,2.9999999999999997e-05,1e-05,1e-05,-1e-05,-5.9999999999999995e-05,-5.9999999999999995e-05,-2.9999999999999997e-05,-0.00033999999999999997,3
11028,11353,2.9999999999999997e-05,1e-05,1e-05,-1e-05,-5.9999999999999995e-05,-5.9999999999999995e-05,-2.9999999999999997e-05,-0.00033999999999999997,3
11029,11354,2.9999999999999997e-05,1e-05,1e-05,-1e-05,-5.9999999999999995e-05,-5.9999999999999995e-05,-2.9999999999999997e-05,-0.00033999999999999997,3
11030,11355,2.9999999999999997e-05,1e-05,1e-05,-1e-05,-5.9999999999999995e-05,-5.9999999999999995e-05,-2.9999999999999997e-05,-0.00033999999999999997,3
11031,11356,2.9999999999999997e-05,1e-05,1e-05,-1e-05,-5.9999999999999995e-05,-5.9999999999999995e-05,-2.9999999999999997e-05,-0.00033999999999999997,3
11032,11357,2.9999999999999997e-05,1e-05,1e-05,-1e-05,-5.9999999999999995e-05,-5.9999999999999995e-05,-2.9999999999999997e-05,-0.00033999999999999997,3
11033,11358,2.9999999999999997e-05,1e-05,1e-05,-1e-05,-5.9999999999999995e-05,-5.9999999999999995e-05,-2.9999999999999997e-05,-0.00033999999999999997,3
11034,11359,2.9999999999999997e-05,1e-05,1e-05,-1e-05,-5.9999999999999995e-05,-5.9999999999999995e-05,-2.9999999999999997e-05,-0.00033999999999999997,3
11035,11360,2.9999999999999997e-05,1e-05,1e-05,-1e-05,-5.9999999999999995e-05,-5.9999999999999995e-05,-2.9999999999999997e-05,-0.00033999999999999997,3
11036,11361,2.9999999999999997e-05,1e-05,1e-05,-1e-05,-5.9999999999999995e-05,-5.9999999999999995e-05,-2.9999999999999997e-05,-0.00033999999999999997,3
11037,11362,2.9999999999999997e-05,1e-05,1e-05,-1e-05,-5.9999999999999995e-05,-5.9999999999999995e-05,-2.9999999999999997e-05,-0.00033999999999999997,3
11038,11363,2.9999999999999997e-05,1e-05,1e-05,-1e-05,-5.9999999999999995e-05,-5.9999999999999995e-05,-2.9999999999999997e-05,-0.00033999999999999997,3
11039,11364,2.9999999999999997e-05,1e-05,1e-05,-1e-05,-5.9999999999999995e-05,-5.9999999999999995e-05,-2.9999999999999997e-05,-0.00033999999999999997,3
11040,11365,-2.9999999999999997e-05,-2.9999999999999997e-05,-2.9999999999999997e-05,1e-05,0.0,-1e-05,-5.9999999999999995e-05,5.9999999999999995e-05,3
11041,11366,-8e-05,-4e-05,-4e-05,-5e-05,-1e-05,-1e-05,5e-05,0.00011999999999999999,3
11042,11367,-8e-05,-4e-05,-4e-05,-5e-05,-1e-05,-1e-05,5e-05,0.00011999999999999999,3
11043,11368,-8e-05,-4e-05,-4e-05,-5e-05,-1e-05,-1e-05,5e-05,0.00011999999999999999,3
11044,11369,-8e-05,-4e-05,-4e-05,-5e-05,-1e-05,-1e-05,5e-05,0.00011999999999999999,3
11045,11370,-8e-05,-4e-05,-4e-05,-5e-05,-1e-05,-1e-05,5e-05,0.00011999999999999999,3
11046,11371,-8e-05,-4e-05,-4e-05,-5e-05,-1e-05,-1e-05,5e-05,0.00011999999999999999,3
11047,11372,-8e-05,-4e-05,-4e-05,-5e-05,-1e-05,-1e-05,5e-05,0.00011999999999999999,3
11048,11373,-8e-05,-4e-05,-4e-05,-5e-05,-1e-05,-1e-05,5e-05,0.00011999999999999999,3
11049,11374,-8e-05,-4e-05,-4e-05,-5e-05,-1e-05,-1e-05,5e-05,0.00011999999999999999,3
11050,11375,-8e-05,-4e-05,-4e-05,-5e-05,-1e-05,-1e-05,5e-05,0.00011999999999999999,3
11051,11376,-8e-05,-4e-05,-4e-05,-5e-05,-1e-05,-1e-05,5e-05,0.00011999999999999999,3
11052,11377,-8e-05,-4e-05,-4e-05,-5e-05,-1e-05,-1e-05,5e-05,0.00011999999999999999,3
11053,11378,-8e-05,-4e-05,-4e-05,-5e-05,-1e-05,-1e-05,5e-05,0.00011999999999999999,3
11054,11379,-8e-05,-4e-05,-4e-05,-5e-05,-1e-05,-1e-05,5e-05,0.00011999999999999999,3
11055,11380,-8e-05,-4e-05,-4e-05,-5e-05,-1e-05,-1e-05,5e-05,0.00011999999999999999,3
11056,11381,-8e-05,-4e-05,-4e-05,-5e-05,-1e-05,-1e-05,5e-05,0.00011999999999999999,3
11057,11382,-8e-05,-4e-05,-4e-05,-5e-05,-1e-05,-1e-05,5e-05,0.00011999999999999999,3
