,time,channel1,channel2,channel3,channel4,channel5,channel6,channel7,channel8,class
9429,9784,0.0005200000000000001,7e-05,-2e-05,-5.9999999999999995e-05,-0.00011,-0.00037999999999999997,-0.00037999999999999997,0.00042,3
9430,9785,0.0005200000000000001,7e-05,-2e-05,-5.9999999999999995e-05,-0.00011,-0.00037999999999999997,-0.00037999999999999997,0.00042,3
9431,9787,0.0005200000000000001,7e-05,-2e-05,-5.9999999999999995e-05,-0.00011,-0.00037999999999999997,-0.00037999999999999997,0.00042,3
9432,9789,-0.0007099999999999999,-0.00026000000000000003,-9e-05,-2.9999999999999997e-05,-5e-05,0.00018,0.00016999999999999999,0.00011999999999999999,3
9433,9790,-0.00036,-0.00014,2.9999999999999997e-05,0.00011999999999999999,0.00033999999999999997,0.00011999999999999999,0.00023999999999999998,-0.00033999999999999997,3
9434,9791,-0.00036,-0.00014,2.9999999999999997e-05,0.00011999999999999999,0.00033999999999999997,0.00011999999999999999,0.00023999999999999998,-0.00033999999999999997,3
9435,9792,-0.00036,-0.00014,2.9999999999999997e-05,0.00011999999999999999,0.00033999999999999997,0.00011999999999999999,0.00023999999999999998,-0.00033999999999999997,3
9436,9793,-0.00036,-0.00014,2.9999999999999997e-05,0.00011999999999999999,0.00033999999999999997,0.00011999999999999999,0.00023999999999999998,-0.00033999999999999997,3
9437,9794,-0.00036,-0.00014,2.9999999999999997e-05,0.00011999999999999999,0.00033999999999999997,0.00011999999999999999,0.00023999999999999998,-0.00033999999999999997,3
9438,9795,-0.00036,-0.00014,2.9999999999999997e-05,0.00011999999999999999,0.00033999999999999997,0.00011999999999999999,0.00023999999999999998,-0.00033999999999999997,3
9439,9796,-0.00036,-0.00014,2.9999999999999997e-05,0.00011999999999999999,0.00033999999999999997,0.00011999999999999999,0.00023999999999999998,-0.00033999999999999997,3
9440,9797,-0.00036,-0.00014,2.9999999999999997e-05,0.00011999999999999999,0.00033999999999999997,0.00011999999999999999,0.00023999999999999998,-0.00033999999999999997,3
9441,9798,-0.00036,-0.00014,2.9999999999999997e-05,0.00011999999999999999,0.00033999999999999997,0.00011999999999999999,0.00023999999999999998,-0.00033999999999999997,3
9442,9799,-0.00036,-0.00014,2.9999999999999997e-05,0.00011999999999999999,0.00033999999999999997,0.00011999999999999999,0.00023999999999999998,-0.00033999999999999997,3
9443,9800,-0.00036,-0.00014,2.9999999999999997e-05,0.00011999999999999999,0.00033999999999999997,0.00011999999999999999,0.00023999999999999998,-0.00033999999999999997,3
9444,9801,-0.00036,-0.00014,2.9999999999999997e-05,0.00011999999999999999,0.00033999999999999997,0.00011999999999999999,0.00023999999999999998,-0.00033999999999999997,3
9445,9802,-0.00036,-0.00014,2.9999999999999997e-05,0.00011999999999999999,0.00033999999999999997,0.00011999999999999999,0.00023999999999999998,-0.00033999999999999997,3
9446,9803,-0.00036,-0.00014,2.9999999999999997e-05,0.00011999999999999999,0.00033999999999999997,0.00011999999999999999,0.00023999999999999998,-0.00033999999999999997,3
9447,9804,-0.00036,-0.00014,2.9999999999999997e-05,0.00011999999999999999,0.00033999999999999997,0.00011999999999999999,0.00023999999999999998,-0.00033999999999999997,3
9448,9805,-0.00033999999999999997,-0.00021,-2e-05,9e-05,0.00015,2.9999999999999997e-05,0.00015,0.0,3
9449,9806,-0.00033999999999999997,-0.00021,-2e-05,9e-05,0.00015,2.9999999999999997e-05,0.00015,0.0,3
9450,9807,0.00027,8e-05,-2e-05,-8e-05,-0.0002,-7e-05,0.00053,0.00016999999999999999,3
9451,9808,0.00027,8e-05,-2e-05,-8e-05,-0.0002,-7e-05,0.00053,0.00016999999999999999,3
9452,9809,0.00027,8e-05,-2e-05,-8e-05,-0.0002,-7e-05,0.00053,0.00016999999999999999,3
9453,9810,0.00027,8e-05,-2e-05,-8e-05,-0.0002,-7e-05,0.00053,0.00016999999999999999,3
9454,9811,0.00027,8e-05,-2e-05,-8e-05,-0.0002,-7e-05,0.00053,0.00016999999999999999,3
9455,9812,0.00027,8e-05,-2e-05,-8e-05,-0.0002,-7e-05,0.00053,0.00016999999999999999,3
9456,9813,0.00027,8e-05,-2e-05,-8e-05,-0.0002,-7e-05,0.00053,0.00016999999999999999,3
9457,9814,0.00027,8e-05,-2e-05,-8e-05,-0.0002,-7e-05,0.00053,0.00016999999999999999,3
9458,9815,0.00027,8e-05,-2e-05,-8e-05,-0.0002,-7e-05,0.00053,0.00016999999999999999,3
9459,9816,0.00027,8e-05,-2e-05,-8e-05,-0.0002,-7e-05,0.00053,0.00016999999999999999,3
9460,9817,0.00027,8e-05,-2e-05,-8e-05,-0.0002,-7e-05,0.00053,0.00016999999999999999,3
9461,9818,0.00027,8e-05,-2e-05,-8e-05,-0.0002,-7e-05,0.00053,0.00016999999999999999,3
9462,9819,0.00027,8e-05,-2e-05,-8e-05,-0.0002,-7e-05,0.00053,0.00016999999999999999,3
9463,9820,0.00027,8e-05,-2e-05,-8e-05,-0.0002,-7e-05,0.00053,0.00016999999999999999,3
9464,9821,0.00027,8e-05,-2e-05,-8e-05,-0.0002,-7e-05,0.00053,0.00016999999999999999,3
9465,9822,0.00027,8e-05,-2e-05,-8e-05,-0.0002,-7e-05,0.00053,0.00016999999999999999,3
9466,9823,0.00027,8e-05,-2e-05,-8e-05,-0.0002,-7e-05,0.00053,0.00016999999999999999,3
9467,9824,0.00027,8e-05,-2e-05,-8e-05,-0.0002,-7e-05,0.00053,0.00016999999999999999,3
9468,9825,0.00027,8e-05,-2e-05,-8e-05,-0.0002,-7e-05,0.00053,0.00016999999999999999,3
9469,9826,0.00027,8e-05,-2e-05,-8e-05,-0.0002,-7e-05,0.00053,0.00016999999999999999,3
9470,9827,0.00027,8e-05,-2e-05,-8e-05,-0.0002,-7e-05,0.00053,0.00016999999999999999,3
9471,9828,0.00022,2e-05,-4e-05,-1e-05,-0.0001,-1e-05,0.00013000000000000002,-0.00011999999999999999,3
9472,9829,-0.0001,-1e-05,2e-05,-2e-05,-5.9999999999999995e-05,0.00013000000000000002,-2e-05,-0.00026000000000000003,3
9473,9831,-0.0001,-1e-05,2e-05,-2e-05,-5.9999999999999995e-05,0.00013000000000000002,-2e-05,-0.00026000000000000003,3
9474,9832,-0.0001,-1e-05,2e-05,-2e-05,-5.9999999999999995e-05,0.00013000000000000002,-2e-05,-0.00026000000000000003,3
9475,9833,-0.0001,-1e-05,2e-05,-2e-05,-5.9999999999999995e-05,0.00013000000000000002,-2e-05,-0.00026000000000000003,3
9476,9834,-0.0001,-1e-05,2e-05,-2e-05,-5.9999999999999995e-05,0.00013000000000000002,-2e-05,-0.00026000000000000003,3
9477,9835,-0.0001,-1e-05,2e-05,-2e-05,-5.9999999999999995e-05,0.00013000000000000002,-2e-05,-0.00026000000000000003,3
9478,9837,-0.0001,-1e-05,2e-05,-2e-05,-5.9999999999999995e-05,0.00013000000000000002,-2e-05,-0.00026000000000000003,3
9479,9839,-0.0001,-1e-05,2e-05,-2e-05,-5.9999999999999995e-05,0.00013000000000000002,-2e-05,-0.00026000000000000003,3
9480,9840,-0.0001,-1e-05,2e-05,-2e-05,-5.9999999999999995e-05,0.00013000000000000002,-2e-05,-0.00026000000000000003,3
9481,9841,-0.0001,-1e-05,2e-05,-2e-05,-5.9999999999999995e-05,0.00013000000000000002,-2e-05,-0.00026000000000000003,3
9482,9842,-1e-05,8e-05,5e-05,-1e-05,-9e-05,-5.9999999999999995e-05,0.00014,-0.0006,3
9483,9843,-1e-05,8e-05,5e-05,-1e-05,-9e-05,-5.9999999999999995e-05,0.00014,-0.0006,3
9484,9844,-1e-05,8e-05,5e-05,-1e-05,-9e-05,-5.9999999999999995e-05,0.00014,-0.0006,3
9485,9845,-1e-05,8e-05,5e-05,-1e-05,-9e-05,-5.9999999999999995e-05,0.00014,-0.0006,3
9486,9846,-1e-05,8e-05,5e-05,-1e-05,-9e-05,-5.9999999999999995e-05,0.00014,-0.0006,3
9487,9847,-1e-05,8e-05,5e-05,-1e-05,-9e-05,-5.9999999999999995e-05,0.00014,-0.0006,3
9488,9848,-1e-05,8e-05,5e-05,-1e-05,-9e-05,-5.9999999999999995e-05,0.00014,-0.0006,3
9489,9849,-1e-05,8e-05,5e-05,-1e-05,-9e-05,-5.9999999999999995e-05,0.00014,-0.0006,3
9490,9850,0.00031,0.00014,2.9999999999999997e-05,-1e-05,2.9999999999999997e-05,7e-05,-0.00016,0.00026000000000000003,3
9491,9852,0.00031,0.00014,2.9999999999999997e-05,-1e-05,2.9999999999999997e-05,7e-05,-0.00016,0.00026000000000000003,3
9492,9853,0.00031,0.00014,2.9999999999999997e-05,-1e-05,2.9999999999999997e-05,7e-05,-0.00016,0.00026000000000000003,3
9493,9854,0.00031,0.00014,2.9999999999999997e-05,-1e-05,2.9999999999999997e-05,7e-05,-0.00016,0.00026000000000000003,3
9494,9855,0.00031,0.00014,2.9999999999999997e-05,-1e-05,2.9999999999999997e-05,7e-05,-0.00016,0.00026000000000000003,3
9495,9856,0.00031,0.00014,2.9999999999999997e-05,-1e-05,2.9999999999999997e-05,7e-05,-0.00016,0.00026000000000000003,3
9496,9857,0.00031,0.00014,2.9999999999999997e-05,-1e-05,2.9999999999999997e-05,7e-05,-0.00016,0.00026000000000000003,3
9497,9858,0.00031,0.00014,2.9999999999999997e-05,-1e-05,2.9999999999999997e-05,7e-05,-0.00016,0.00026000000000000003,3
9498,9859,0.00031,0.00014,2.9999999999999997e-05,-1e-05,2.9999999999999997e-05,7e-05,-0.00016,0.00026000000000000003,3
9499,9860,0.00031,0.00014,2.9999999999999997e-05,-1e-05,2.9999999999999997e-05,7e-05,-0.00016,0.00026000000000000003,3
9500,9861,0.00031,0.00014,2.9999999999999997e-05,-1e-05,2.9999999999999997e-05,7e-05,-0.00016,0.00026000000000000003,3
9501,9862,0.00031,0.00014,2.9999999999999997e-05,-1e-05,2.9999999999999997e-05,7e-05,-0.00016,0.00026000000000000003,3
9502,9863,0.00031,0.00014,2.9999999999999997e-05,-1e-05,2.9999999999999997e-05,7e-05,-0.00016,0.00026000000000000003,3
9503,9864,0.00031,0.00014,2.9999999999999997e-05,-1e-05,2.9999999999999997e-05,7e-05,-0.00016,0.00026000000000000003,3
9504,9865,-0.0001,1e-05,-1e-05,7e-05,0.00015,-0.00016,-0.00011,-8e-05,3
9505,9866,-0.0001,1e-05,-1e-05,7e-05,0.00015,-0.00016,-0.00011,-8e-05,3
9506,9867,-0.0007099999999999999,-0.00018999999999999998,7e-05,0.00014,1e-05,4e-05,9e-05,-2.9999999999999997e-05,3
9507,9868,-0.0007099999999999999,-0.00018999999999999998,7e-05,0.00014,1e-05,4e-05,9e-05,-2.9999999999999997e-05,3
9508,9869,-0.0007099999999999999,-0.00018999999999999998,7e-05,0.00014,1e-05,4e-05,9e-05,-2.9999999999999997e-05,3
9509,9870,-0.0007099999999999999,-0.00018999999999999998,7e-05,0.00014,1e-05,4e-05,9e-05,-2.9999999999999997e-05,3
9510,9871,-0.0007099999999999999,-0.00018999999999999998,7e-05,0.00014,1e-05,4e-05,9e-05,-2.9999999999999997e-05,3
9511,9872,-0.0007099999999999999,-0.00018999999999999998,7e-05,0.00014,1e-05,4e-05,9e-05,-2.9999999999999997e-05,3
9512,9873,-0.0007099999999999999,-0.00018999999999999998,7e-05,0.00014,1e-05,4e-05,9e-05,-2.9999999999999997e-05,3
9513,9874,-0.0007099999999999999,-0.00018999999999999998,7e-05,0.00014,1e-05,4e-05,9e-05,-2.9999999999999997e-05,3
9514,9875,-0.0007099999999999999,-0.00018999999999999998,7e-05,0.00014,1e-05,4e-05,9e-05,-2.9999999999999997e-05,3
9515,9876,-0.0007099999999999999,-0.00018999999999999998,7e-05,0.00014,1e-05,4e-05,9e-05,-2.9999999999999997e-05,3
9516,9877,-0.0007099999999999999,-0.00018999999999999998,7e-05,0.00014,1e-05,4e-05,9e-05,-2.9999999999999997e-05,3
9517,9878,-0.0007099999999999999,-0.00018999999999999998,7e-05,0.00014,1e-05,4e-05,9e-05,-2.9999999999999997e-05,3
9518,9879,-0.0007099999999999999,-0.00018999999999999998,7e-05,0.00014,1e-05,4e-05,9e-05,-2.9999999999999997e-05,3
9519,9880,-0.0007099999999999999,-0.00018999999999999998,7e-05,0.00014,1e-05,4e-05,9e-05,-2.9999999999999997e-05,3
9520,9881,-0.0007099999999999999,-0.00018999999999999998,7e-05,0.00014,1e-05,4e-05,9e-05,-2.9999999999999997e-05,3
9521,9882,-0.0007099999999999999,-0.00018999999999999998,7e-05,0.00014,1e-05,4e-05,9e-05,-2.9999999999999997e-05,3
9522,9883,-0.0007099999999999999,-0.00018999999999999998,7e-05,0.00014,1e-05,4e-05,9e-05,-2.9999999999999997e-05,3
9523,9884,-0.0007099999999999999,-0.00018999999999999998,7e-05,0.00014,1e-05,4e-05,9e-05,-2.9999999999999997e-05,3
9524,9885,-0.0007099999999999999,-0.00018999999999999998,7e-05,0.00014,1e-05,4e-05,9e-05,-2.9999999999999997e-05,3
9525,9887,-0.0007099999999999999,-0.00018999999999999998,7e-05,0.00014,1e-05,4e-05,9e-05,-2.9999999999999997e-05,3
9526,9889,-0.00028,-0.00022,-4e-05,4e-05,0.00018,0.00022,0.0003,0.00037999999999999997,3
9527,9890,0.00058,0.0001,-1e-05,-8e-05,-5.9999999999999995e-05,-2.9999999999999997e-05,5e-05,0.0006799999999999999,3
9528,9891,0.00058,0.0001,-1e-05,-8e-05,-5.9999999999999995e-05,-2.9999999999999997e-05,5e-05,0.0006799999999999999,3
9529,9892,0.00058,0.0001,-1e-05,-8e-05,-5.9999999999999995e-05,-2.9999999999999997e-05,5e-05,0.0006799999999999999,3
9530,9893,0.00058,0.0001,-1e-05,-8e-05,-5.9999999999999995e-05,-2.9999999999999997e-05,5e-05,0.0006799999999999999,3
9531,9894,0.00058,0.0001,-1e-05,-8e-05,-5.9999999999999995e-05,-2.9999999999999997e-05,5e-05,0.0006799999999999999,3
9532,9895,0.00058,0.0001,-1e-05,-8e-05,-5.9999999999999995e-05,-2.9999999999999997e-05,5e-05,0.0006799999999999999,3
9533,9896,0.00058,0.0001,-1e-05,-8e-05,-5.9999999999999995e-05,-2.9999999999999997e-05,5e-05,0.0006799999999999999,3
9534,9897,0.00058,0.0001,-1e-05,-8e-05,-5.9999999999999995e-05,-2.9999999999999997e-05,5e-05,0.0006799999999999999,3
9535,9898,0.00058,0.0001,-1e-05,-8e-05,-5.9999999999999995e-05,-2.9999999999999997e-05,5e-05,0.0006799999999999999,3
9536,9899,0.00058,0.0001,-1e-05,-8e-05,-5.9999999999999995e-05,-2.9999999999999997e-05,5e-05,0.0006799999999999999,3
9537,9900,0.00058,0.0001,-1e-05,-8e-05,-5.9999999999999995e-05,-2.9999999999999997e-05,5e-05,0.0006799999999999999,3
9538,9901,0.00058,0.0001,-1e-05,-8e-05,-5.9999999999999995e-05,-2.9999999999999997e-05,5e-05,0.0006799999999999999,3
9539,9902,0.00058,0.0001,-1e-05,-8e-05,-5.9999999999999995e-05,-2.9999999999999997e-05,5e-05,0.0006799999999999999,3
9540,9903,0.00058,0.0001,-1e-05,-8e-05,-5.9999999999999995e-05,-2.9999999999999997e-05,5e-05,0.0006799999999999999,3
9541,9904,0.00058,0.0001,-1e-05,-8e-05,-5.9999999999999995e-05,-2.9999999999999997e-05,5e-05,0.0006799999999999999,3
9542,9905,0.00058,0.0001,-1e-05,-8e-05,-5.9999999999999995e-05,-2.9999999999999997e-05,5e-05,0.0006799999999999999,3
9543,9906,0.00058,0.0001,-1e-05,-8e-05,-5.9999999999999995e-05,-2.9999999999999997e-05,5e-05,0.0006799999999999999,3
9544,9907,0.00058,0.0001,-1e-05,-8e-05,-5.9999999999999995e-05,-2.9999999999999997e-05,5e-05,0.0006799999999999999,3
9545,9908,0.00058,0.0001,-1e-05,-8e-05,-5.9999999999999995e-05,-2.9999999999999997e-05,5e-05,0.0006799999999999999,3
9546,9909,0.00058,0.0001,-1e-05,-8e-05,-5.9999999999999995e-05,-2.9999999999999997e-05,5e-05,0.0006799999999999999,3
9547,9910,0.00058,0.0001,-1e-05,-8e-05,-5.9999999999999995e-05,-2.9999999999999997e-05,5e-05,0.0006799999999999999,3
9548,9911,0.0005099999999999999,9e-05,-1e-05,-5e-05,1e-05,0.0,1e-05,0.0005200000000000001,3
9549,9912,-2e-05,-9e-05,-0.00011999999999999999,-0.0001,-0.00014,-4e-05,1e-05,-0.00011999999999999999,3
9550,9913,-2e-05,-9e-05,-0.00011999999999999999,-0.0001,-0.00014,-4e-05,1e-05,-0.00011999999999999999,3
9551,9914,-2e-05,-9e-05,-0.00011999999999999999,-0.0001,-0.00014,-4e-05,1e-05,-0.00011999999999999999,3
9552,9915,-2e-05,-9e-05,-0.00011999999999999999,-0.0001,-0.00014,-4e-05,1e-05,-0.00011999999999999999,3
9553,9916,-2e-05,-9e-05,-0.00011999999999999999,-0.0001,-0.00014,-4e-05,1e-05,-0.00011999999999999999,3
9554,9917,-2e-05,-9e-05,-0.00011999999999999999,-0.0001,-0.00014,-4e-05,1e-05,-0.00011999999999999999,3
9555,9918,-2e-05,-9e-05,-0.00011999999999999999,-0.0001,-0.00014,-4e-05,1e-05,-0.00011999999999999999,3
9556,9919,-2e-05,-9e-05,-0.00011999999999999999,-0.0001,-0.00014,-4e-05,1e-05,-0.00011999999999999999,3
9557,9920,-2e-05,-9e-05,-0.00011999999999999999,-0.0001,-0.00014,-4e-05,1e-05,-0.00011999999999999999,3
9558,9921,-2e-05,-9e-05,-0.00011999999999999999,-0.0001,-0.00014,-4e-05,1e-05,-0.00011999999999999999,3
9559,9922,-2e-05,-9e-05,-0.00011999999999999999,-0.0001,-0.00014,-4e-05,1e-05,-0.00011999999999999999,3
9560,9923,-2e-05,-9e-05,-0.00011999999999999999,-0.0001,-0.00014,-4e-05,1e-05,-0.00011999999999999999,3
9561,9924,-2e-05,-9e-05,-0.00011999999999999999,-0.0001,-0.00014,-4e-05,1e-05,-0.00011999999999999999,3
9562,9925,0.00014,0.00011,5.9999999999999995e-05,5e-05,2e-05,-2.9999999999999997e-05,-0.00016999999999999999,-0.00011999999999999999,3
9563,9926,0.00014,0.00011,5.9999999999999995e-05,5e-05,2e-05,-2.9999999999999997e-05,-0.00016999999999999999,-0.00011999999999999999,3
9564,9927,-0.00045,-8e-05,-2.9999999999999997e-05,0.0,5e-05,-7e-05,-0.00021,-0.0004,3
9565,9928,-0.00045,-8e-05,-2.9999999999999997e-05,0.0,5e-05,-7e-05,-0.00021,-0.0004,3
9566,9929,-0.00045,-8e-05,-2.9999999999999997e-05,0.0,5e-05,-7e-05,-0.00021,-0.0004,3
9567,9930,-0.00045,-8e-05,-2.9999999999999997e-05,0.0,5e-05,-7e-05,-0.00021,-0.0004,3
9568,9931,-0.00045,-8e-05,-2.9999999999999997e-05,0.0,5e-05,-7e-05,-0.00021,-0.0004,3
9569,9932,-0.00045,-8e-05,-2.9999999999999997e-05,0.0,5e-05,-7e-05,-0.00021,-0.0004,3
9570,9933,-0.00045,-8e-05,-2.9999999999999997e-05,0.0,5e-05,-7e-05,-0.00021,-0.0004,3
9571,9934,-0.00045,-8e-05,-2.9999999999999997e-05,0.0,5e-05,-7e-05,-0.00021,-0.0004,3
9572,9935,-0.00045,-8e-05,-2.9999999999999997e-05,0.0,5e-05,-7e-05,-0.00021,-0.0004,3
9573,9937,-0.00045,-8e-05,-2.9999999999999997e-05,0.0,5e-05,-7e-05,-0.00021,-0.0004,3
9574,9939,-0.00045,-8e-05,-2.9999999999999997e-05,0.0,5e-05,-7e-05,-0.00021,-0.0004,3
9575,9940,-0.00045,-8e-05,-2.9999999999999997e-05,0.0,5e-05,-7e-05,-0.00021,-0.0004,3
9576,9941,-0.00045,-8e-05,-2.9999999999999997e-05,0.0,5e-05,-7e-05,-0.00021,-0.0004,3
9577,9942,-0.00045,-8e-05,-2.9999999999999997e-05,0.0,5e-05,-7e-05,-0.00021,-0.0004,3
9578,9943,-0.00045,-8e-05,-2.9999999999999997e-05,0.0,5e-05,-7e-05,-0.00021,-0.0004,3
9579,9944,-0.00045,-8e-05,-2.9999999999999997e-05,0.0,5e-05,-7e-05,-0.00021,-0.0004,3
9580,9945,-0.00045,-8e-05,-2.9999999999999997e-05,0.0,5e-05,-7e-05,-0.00021,-0.0004,3
9581,9946,-0.00045,-8e-05,-2.9999999999999997e-05,0.0,5e-05,-7e-05,-0.00021,-0.0004,3
9582,9947,-0.00045,-8e-05,-2.9999999999999997e-05,0.0,5e-05,-7e-05,-0.00021,-0.0004,3
9583,9948,-0.00045,-8e-05,-2.9999999999999997e-05,0.0,5e-05,-7e-05,-0.00021,-0.0004,3
9584,9950,-0.00045,-8e-05,-2.9999999999999997e-05,0.0,5e-05,-7e-05,-0.00021,-0.0004,3
9585,9951,-0.00045,-8e-05,-2.9999999999999997e-05,0.0,5e-05,-7e-05,-0.00021,-0.0004,3
9586,9952,-0.00045,-8e-05,-2.9999999999999997e-05,0.0,5e-05,-7e-05,-0.00021,-0.0004,3
9587,9953,-0.00045,-8e-05,-2.9999999999999997e-05,0.0,5e-05,-7e-05,-0.00021,-0.0004,3
9588,9954,-0.00045,-8e-05,-2.9999999999999997e-05,0.0,5e-05,-7e-05,-0.00021,-0.0004,3
9589,9955,-0.00045,-8e-05,-2.9999999999999997e-05,0.0,5e-05,-7e-05,-0.00021,-0.0004,3
9590,9956,-0.00045,-8e-05,-2.9999999999999997e-05,0.0,5e-05,-7e-05,-0.00021,-0.0004,3
9591,9957,-0.00045,-8e-05,-2.9999999999999997e-05,0.0,5e-05,-7e-05,-0.00021,-0.0004,3
9592,9958,-0.00045,-8e-05,-2.9999999999999997e-05,0.0,5e-05,-7e-05,-0.00021,-0.0004,3
9593,9959,-0.00045,-8e-05,-2.9999999999999997e-05,0.0,5e-05,-7e-05,-0.00021,-0.0004,3
9594,9960,-0.00045,-8e-05,-2.9999999999999997e-05,0.0,5e-05,-7e-05,-0.00021,-0.0004,3
9595,9961,-0.00045,-8e-05,-2.9999999999999997e-05,0.0,5e-05,-7e-05,-0.00021,-0.0004,3
9596,9962,-0.00045,-8e-05,-2.9999999999999997e-05,0.0,5e-05,-7e-05,-0.00021,-0.0004,3
9597,9963,-0.00045,-8e-05,-2.9999999999999997e-05,0.0,5e-05,-7e-05,-0.00021,-0.0004,3
9598,9964,-0.00045,-8e-05,-2.9999999999999997e-05,0.0,5e-05,-7e-05,-0.00021,-0.0004,3
9599,9965,-0.00045,-8e-05,-2.9999999999999997e-05,0.0,5e-05,-7e-05,-0.00021,-0.0004,3
9600,9966,-0.00045,-8e-05,-2.9999999999999997e-05,0.0,5e-05,-7e-05,-0.00021,-0.0004,3
9601,9967,-0.00045,-8e-05,-2.9999999999999997e-05,0.0,5e-05,-7e-05,-0.00021,-0.0004,3
9602,9968,-0.00045,-8e-05,-2.9999999999999997e-05,0.0,5e-05,-7e-05,-0.00021,-0.0004,3
9603,9969,-0.00045,-8e-05,-2.9999999999999997e-05,0.0,5e-05,-7e-05,-0.00021,-0.0004,3
9604,9970,-0.00045,-8e-05,-2.9999999999999997e-05,0.0,5e-05,-7e-05,-0.00021,-0.0004,3
9605,9971,5e-05,-8e-05,-5e-05,-4e-05,-8e-05,0.00035,0.00016999999999999999,0.0003,3
9606,9972,5e-05,2.9999999999999997e-05,2e-05,0.00016999999999999999,0.00041,0.00016,-9e-05,0.00028,3
9607,9973,0.00032,4e-05,2e-05,-5e-05,-9e-05,-5e-05,0.00021,-7e-05,3
9608,9974,0.00011,-0.00015,-0.00016,-0.00018,-0.00021,-7e-05,1e-05,-0.00016,3
9609,9975,0.00011,-0.00015,-0.00016,-0.00018,-0.00021,-7e-05,1e-05,-0.00016,3
9610,9976,0.00011,-0.00015,-0.00016,-0.00018,-0.00021,-7e-05,1e-05,-0.00016,3
9611,9977,0.00011,-0.00015,-0.00016,-0.00018,-0.00021,-7e-05,1e-05,-0.00016,3
9612,9978,0.00021,1e-05,5.9999999999999995e-05,7e-05,0.00023999999999999998,0.00021,-0.0004,0.00011,3
9613,9979,0.00021,1e-05,5.9999999999999995e-05,7e-05,0.00023999999999999998,0.00021,-0.0004,0.00011,3
9614,9980,0.00021,1e-05,5.9999999999999995e-05,7e-05,0.00023999999999999998,0.00021,-0.0004,0.00011,3
9615,9981,0.00021,1e-05,5.9999999999999995e-05,7e-05,0.00023999999999999998,0.00021,-0.0004,0.00011,3
9616,9982,0.00021,1e-05,5.9999999999999995e-05,7e-05,0.00023999999999999998,0.00021,-0.0004,0.00011,3
9617,9983,0.00021,1e-05,5.9999999999999995e-05,7e-05,0.00023999999999999998,0.00021,-0.0004,0.00011,3
9618,9984,0.00021,1e-05,5.9999999999999995e-05,7e-05,0.00023999999999999998,0.00021,-0.0004,0.00011,3
9619,9985,0.00031,2e-05,1e-05,-2e-05,-2.9999999999999997e-05,2.9999999999999997e-05,0.0001,0.00016999999999999999,3
9620,9987,0.00031,2e-05,1e-05,-2e-05,-2.9999999999999997e-05,2.9999999999999997e-05,0.0001,0.00016999999999999999,3
9621,9989,-1e-05,2.9999999999999997e-05,-7e-05,-0.00011,-0.00013000000000000002,-0.0001,-0.00016,-9e-05,3
9622,9990,-1e-05,2.9999999999999997e-05,-7e-05,-0.00011,-0.00013000000000000002,-0.0001,-0.00016,-9e-05,3
9623,9991,-1e-05,2.9999999999999997e-05,-7e-05,-0.00011,-0.00013000000000000002,-0.0001,-0.00016,-9e-05,3
9624,9992,-1e-05,2.9999999999999997e-05,-7e-05,-0.00011,-0.00013000000000000002,-0.0001,-0.00016,-9e-05,3
9625,9993,-1e-05,2.9999999999999997e-05,-7e-05,-0.00011,-0.00013000000000000002,-0.0001,-0.00016,-9e-05,3
9626,9994,-1e-05,2.9999999999999997e-05,-7e-05,-0.00011,-0.00013000000000000002,-0.0001,-0.00016,-9e-05,3
9627,9995,-1e-05,2.9999999999999997e-05,-7e-05,-0.00011,-0.00013000000000000002,-0.0001,-0.00016,-9e-05,3
9628,9996,-1e-05,2.9999999999999997e-05,-7e-05,-0.00011,-0.00013000000000000002,-0.0001,-0.00016,-9e-05,3
9629,9997,-1e-05,2.9999999999999997e-05,-7e-05,-0.00011,-0.00013000000000000002,-0.0001,-0.00016,-9e-05,3
9630,9998,-1e-05,2.9999999999999997e-05,-7e-05,-0.00011,-0.00013000000000000002,-0.0001,-0.00016,-9e-05,3
9631,9999,-1e-05,2.9999999999999997e-05,-7e-05,-0.00011,-0.00013000000000000002,-0.0001,-0.00016,-9e-05,3
9632,10000,-1e-05,2.9999999999999997e-05,-7e-05,-0.00011,-0.00013000000000000002,-0.0001,-0.00016,-9e-05,3
9633,10001,-1e-05,2.9999999999999997e-05,-7e-05,-0.00011,-0.00013000000000000002,-0.0001,-0.00016,-9e-05,3
9634,10002,-1e-05,2.9999999999999997e-05,-7e-05,-0.00011,-0.00013000000000000002,-0.0001,-0.00016,-9e-05,3
9635,10003,-1e-05,2.9999999999999997e-05,-7e-05,-0.00011,-0.00013000000000000002,-0.0001,-0.00016,-9e-05,3
9636,10004,-1e-05,2.9999999999999997e-05,-7e-05,-0.00011,-0.00013000000000000002,-0.0001,-0.00016,-9e-05,3
9637,10005,-1e-05,2.9999999999999997e-05,-7e-05,-0.00011,-0.00013000000000000002,-0.0001,-0.00016,-9e-05,3
9638,10006,-1e-05,2.9999999999999997e-05,-7e-05,-0.00011,-0.00013000000000000002,-0.0001,-0.00016,-9e-05,3
9639,10007,-1e-05,2.9999999999999997e-05,-7e-05,-0.00011,-0.00013000000000000002,-0.0001,-0.00016,-9e-05,3
9640,10008,-1e-05,2.9999999999999997e-05,-7e-05,-0.00011,-0.00013000000000000002,-0.0001,-0.00016,-9e-05,3
9641,10009,-1e-05,2.9999999999999997e-05,-7e-05,-0.00011,-0.00013000000000000002,-0.0001,-0.00016,-9e-05,3
9642,10010,-1e-05,2.9999999999999997e-05,-7e-05,-0.00011,-0.00013000000000000002,-0.0001,-0.00016,-9e-05,3
9643,10011,-1e-05,2.9999999999999997e-05,-7e-05,-0.00011,-0.00013000000000000002,-0.0001,-0.00016,-9e-05,3
9644,10012,-1e-05,2.9999999999999997e-05,-7e-05,-0.00011,-0.00013000000000000002,-0.0001,-0.00016,-9e-05,3
9645,10013,-1e-05,2.9999999999999997e-05,-7e-05,-0.00011,-0.00013000000000000002,-0.0001,-0.00016,-9e-05,3
9646,10014,-1e-05,2.9999999999999997e-05,-7e-05,-0.00011,-0.00013000000000000002,-0.0001,-0.00016,-9e-05,3
9647,10015,-1e-05,2.9999999999999997e-05,-7e-05,-0.00011,-0.00013000000000000002,-0.0001,-0.00016,-9e-05,3
9648,10016,-1e-05,2.9999999999999997e-05,-7e-05,-0.00011,-0.00013000000000000002,-0.0001,-0.00016,-9e-05,3
9649,10017,-1e-05,2.9999999999999997e-05,-7e-05,-0.00011,-0.00013000000000000002,-0.0001,-0.00016,-9e-05,3
9650,10018,-1e-05,2.9999999999999997e-05,-7e-05,-0.00011,-0.00013000000000000002,-0.0001,-0.00016,-9e-05,3
9651,10019,-1e-05,2.9999999999999997e-05,-7e-05,-0.00011,-0.00013000000000000002,-0.0001,-0.00016,-9e-05,3
9652,10020,-1e-05,2.9999999999999997e-05,-7e-05,-0.00011,-0.00013000000000000002,-0.0001,-0.00016,-9e-05,3
9653,10021,-1e-05,2.9999999999999997e-05,-7e-05,-0.00011,-0.00013000000000000002,-0.0001,-0.00016,-9e-05,3
9654,10022,-1e-05,2.9999999999999997e-05,-7e-05,-0.00011,-0.00013000000000000002,-0.0001,-0.00016,-9e-05,3
9655,10023,0.00041,9e-05,-2.9999999999999997e-05,-8e-05,-9e-05,2e-05,-0.00011,-0.00011999999999999999,3
9656,10024,0.00041,9e-05,-2.9999999999999997e-05,-8e-05,-9e-05,2e-05,-0.00011,-0.00011999999999999999,3
9657,10025,-9e-05,-7e-05,-2.9999999999999997e-05,2e-05,0.00016,5e-05,1e-05,5e-05,3
9658,10026,0.00028,-2.9999999999999997e-05,-5e-05,-7e-05,-0.00015,-0.0002,0.0,0.0003,3
9659,10027,0.00028,-2.9999999999999997e-05,-5e-05,-7e-05,-0.00015,-0.0002,0.0,0.0003,3
9660,10028,0.00028,-2.9999999999999997e-05,-5e-05,-7e-05,-0.00015,-0.0002,0.0,0.0003,3
9661,10029,0.00028,-2.9999999999999997e-05,-5e-05,-7e-05,-0.00015,-0.0002,0.0,0.0003,3
9662,10030,-7e-05,-1e-05,-2.9999999999999997e-05,-2e-05,-0.00011,-0.00015,-0.00015,-2e-05,3
9663,10031,-7e-05,-1e-05,-2.9999999999999997e-05,-2e-05,-0.00011,-0.00015,-0.00015,-2e-05,3
9664,10033,-7e-05,-1e-05,-2.9999999999999997e-05,-2e-05,-0.00011,-0.00015,-0.00015,-2e-05,3
9665,10034,-7e-05,-1e-05,-2.9999999999999997e-05,-2e-05,-0.00011,-0.00015,-0.00015,-2e-05,3
9666,10035,-7e-05,-1e-05,-2.9999999999999997e-05,-2e-05,-0.00011,-0.00015,-0.00015,-2e-05,3
9667,10042,-7e-05,-1e-05,-2.9999999999999997e-05,-2e-05,-0.00011,-0.00015,-0.00015,-2e-05,3
9668,10043,-7e-05,-1e-05,-2.9999999999999997e-05,-2e-05,-0.00011,-0.00015,-0.00015,-2e-05,3
9669,10044,-7e-05,-1e-05,-2.9999999999999997e-05,-2e-05,-0.00011,-0.00015,-0.00015,-2e-05,3
9670,10045,-0.00033,-2e-05,2e-05,5e-05,-1e-05,-2.9999999999999997e-05,-4e-05,-4e-05,3
9671,10046,-0.00033,-2e-05,2e-05,5e-05,-1e-05,-2.9999999999999997e-05,-4e-05,-4e-05,3
9672,10047,2e-05,-2.9999999999999997e-05,-5e-05,-0.00011,-0.00016,0.0002,0.00041,0.0003,3
9673,10048,2e-05,-2.9999999999999997e-05,-5e-05,-0.00011,-0.00016,0.0002,0.00041,0.0003,3
9674,10049,2e-05,-2.9999999999999997e-05,-5e-05,-0.00011,-0.00016,0.0002,0.00041,0.0003,3
9675,10050,2e-05,-2.9999999999999997e-05,-5e-05,-0.00011,-0.00016,0.0002,0.00041,0.0003,3
9676,10051,2e-05,-2.9999999999999997e-05,-5e-05,-0.00011,-0.00016,0.0002,0.00041,0.0003,3
9677,10052,2e-05,-2.9999999999999997e-05,-5e-05,-0.00011,-0.00016,0.0002,0.00041,0.0003,3
9678,10053,2e-05,-2.9999999999999997e-05,-5e-05,-0.00011,-0.00016,0.0002,0.00041,0.0003,3
9679,10054,2e-05,-2.9999999999999997e-05,-5e-05,-0.00011,-0.00016,0.0002,0.00041,0.0003,3
9680,10055,2e-05,-2.9999999999999997e-05,-5e-05,-0.00011,-0.00016,0.0002,0.00041,0.0003,3
9681,10056,2e-05,-2.9999999999999997e-05,-5e-05,-0.00011,-0.00016,0.0002,0.00041,0.0003,3
9682,10057,2e-05,-2.9999999999999997e-05,-5e-05,-0.00011,-0.00016,0.0002,0.00041,0.0003,3
9683,10058,2e-05,-2.9999999999999997e-05,-5e-05,-0.00011,-0.00016,0.0002,0.00041,0.0003,3
9684,10059,2e-05,-2.9999999999999997e-05,-5e-05,-0.00011,-0.00016,0.0002,0.00041,0.0003,3
9685,10060,2e-05,-2.9999999999999997e-05,-5e-05,-0.00011,-0.00016,0.0002,0.00041,0.0003,3
9686,10061,2e-05,-2.9999999999999997e-05,-5e-05,-0.00011,-0.00016,0.0002,0.00041,0.0003,3
9687,10062,2e-05,-2.9999999999999997e-05,-5e-05,-0.00011,-0.00016,0.0002,0.00041,0.0003,3
9688,10063,2e-05,-2.9999999999999997e-05,-5e-05,-0.00011,-0.00016,0.0002,0.00041,0.0003,3
9689,10064,2e-05,-2.9999999999999997e-05,-5e-05,-0.00011,-0.00016,0.0002,0.00041,0.0003,3
9690,10065,2e-05,-2.9999999999999997e-05,-5e-05,-0.00011,-0.00016,0.0002,0.00041,0.0003,3
9691,10066,2e-05,-2.9999999999999997e-05,-5e-05,-0.00011,-0.00016,0.0002,0.00041,0.0003,3
9692,10067,2e-05,-2.9999999999999997e-05,-5e-05,-0.00011,-0.00016,0.0002,0.00041,0.0003,3
9693,10068,2e-05,-2.9999999999999997e-05,-5e-05,-0.00011,-0.00016,0.0002,0.00041,0.0003,3
9694,10069,2e-05,-2.9999999999999997e-05,-5e-05,-0.00011,-0.00016,0.0002,0.00041,0.0003,3
9695,10070,2e-05,-2.9999999999999997e-05,-5e-05,-0.00011,-0.00016,0.0002,0.00041,0.0003,3
9696,10071,2e-05,-2.9999999999999997e-05,-5e-05,-0.00011,-0.00016,0.0002,0.00041,0.0003,3
9697,10072,2e-05,-2.9999999999999997e-05,-5e-05,-0.00011,-0.00016,0.0002,0.00041,0.0003,3
9698,10073,2e-05,-2.9999999999999997e-05,-5e-05,-0.00011,-0.00016,0.0002,0.00041,0.0003,3
9699,10074,8e-05,2e-05,0.0,-7e-05,-0.00014,-7e-05,2.9999999999999997e-05,7e-05,3
9700,10075,8e-05,2e-05,0.0,-7e-05,-0.00014,-7e-05,2.9999999999999997e-05,7e-05,3
9701,10076,8e-05,2e-05,0.0,-7e-05,-0.00014,-7e-05,2.9999999999999997e-05,7e-05,3
9702,10077,8e-05,2e-05,0.0,-7e-05,-0.00014,-7e-05,2.9999999999999997e-05,7e-05,3
9703,10078,8e-05,2e-05,0.0,-7e-05,-0.00014,-7e-05,2.9999999999999997e-05,7e-05,3
9704,10079,8e-05,2e-05,0.0,-7e-05,-0.00014,-7e-05,2.9999999999999997e-05,7e-05,3
9705,10080,8e-05,2e-05,0.0,-7e-05,-0.00014,-7e-05,2.9999999999999997e-05,7e-05,3
9706,10081,8e-05,2e-05,0.0,-7e-05,-0.00014,-7e-05,2.9999999999999997e-05,7e-05,3
9707,10082,8e-05,2e-05,0.0,-7e-05,-0.00014,-7e-05,2.9999999999999997e-05,7e-05,3
9708,10083,5.9999999999999995e-05,0.0,5e-05,0.00011999999999999999,0.00014,1e-05,5.9999999999999995e-05,9e-05,3
9709,10084,0.00039,9e-05,-5.9999999999999995e-05,-0.00014,-0.0002,-1e-05,-2.9999999999999997e-05,2e-05,3
9710,10085,0.00039,9e-05,-5.9999999999999995e-05,-0.00014,-0.0002,-1e-05,-2.9999999999999997e-05,2e-05,3
9711,10086,0.00039,9e-05,-5.9999999999999995e-05,-0.00014,-0.0002,-1e-05,-2.9999999999999997e-05,2e-05,3
9712,10088,0.00039,9e-05,-5.9999999999999995e-05,-0.00014,-0.0002,-1e-05,-2.9999999999999997e-05,2e-05,3
9713,10089,0.00039,9e-05,-5.9999999999999995e-05,-0.00014,-0.0002,-1e-05,-2.9999999999999997e-05,2e-05,3
9714,10090,0.00033,0.00014,-4e-05,-0.0001,-0.0002,-0.00011,7e-05,-8e-05,3
9715,10092,0.00033,0.00014,-4e-05,-0.0001,-0.0002,-0.00011,7e-05,-8e-05,3
9716,10093,0.00033,0.00014,-4e-05,-0.0001,-0.0002,-0.00011,7e-05,-8e-05,3
9717,10094,0.00033,0.00014,-4e-05,-0.0001,-0.0002,-0.00011,7e-05,-8e-05,3
9718,10095,0.00033,0.00014,-4e-05,-0.0001,-0.0002,-0.00011,7e-05,-8e-05,3
9719,10096,0.00033,0.00014,-4e-05,-0.0001,-0.0002,-0.00011,7e-05,-8e-05,3
9720,10097,0.00033,0.00014,-4e-05,-0.0001,-0.0002,-0.00011,7e-05,-8e-05,3
9721,10098,0.00033,0.00014,-4e-05,-0.0001,-0.0002,-0.00011,7e-05,-8e-05,3
9722,10099,0.00033,0.00014,-4e-05,-0.0001,-0.0002,-0.00011,7e-05,-8e-05,3
9723,10100,0.00033,0.00014,-4e-05,-0.0001,-0.0002,-0.00011,7e-05,-8e-05,3
9724,10101,0.00033,0.00014,-4e-05,-0.0001,-0.0002,-0.00011,7e-05,-8e-05,3
9725,10102,0.00033,0.00014,-4e-05,-0.0001,-0.0002,-0.00011,7e-05,-8e-05,3
9726,10103,0.00033,0.00014,-4e-05,-0.0001,-0.0002,-0.00011,7e-05,-8e-05,3
9727,10104,-5.9999999999999995e-05,1e-05,2e-05,4e-05,1e-05,-2e-05,2e-05,-0.00015,3
9728,10105,-5.9999999999999995e-05,1e-05,2e-05,4e-05,1e-05,-2e-05,2e-05,-0.00015,3
9729,10106,-5.9999999999999995e-05,1e-05,2e-05,4e-05,1e-05,-2e-05,2e-05,-0.00015,3
9730,10107,-5.9999999999999995e-05,1e-05,2e-05,4e-05,1e-05,-2e-05,2e-05,-0.00015,3
9731,10108,-5.9999999999999995e-05,1e-05,2e-05,4e-05,1e-05,-2e-05,2e-05,-0.00015,3
9732,10109,-5.9999999999999995e-05,1e-05,2e-05,4e-05,1e-05,-2e-05,2e-05,-0.00015,3
9733,10110,-5.9999999999999995e-05,1e-05,2e-05,4e-05,1e-05,-2e-05,2e-05,-0.00015,3
9734,10111,-5.9999999999999995e-05,1e-05,2e-05,4e-05,1e-05,-2e-05,2e-05,-0.00015,3
9735,10112,-5.9999999999999995e-05,1e-05,2e-05,4e-05,1e-05,-2e-05,2e-05,-0.00015,3
9736,10113,-5e-05,-2.9999999999999997e-05,0.0,4e-05,5.9999999999999995e-05,2e-05,-0.00013000000000000002,2e-05,3
9737,10114,-5e-05,-2.9999999999999997e-05,0.0,4e-05,5.9999999999999995e-05,2e-05,-0.00013000000000000002,2e-05,3
9738,10115,-5e-05,-2.9999999999999997e-05,0.0,4e-05,5.9999999999999995e-05,2e-05,-0.00013000000000000002,2e-05,3
9739,10116,-5e-05,-2.9999999999999997e-05,0.0,4e-05,5.9999999999999995e-05,2e-05,-0.00013000000000000002,2e-05,3
9740,10117,-5e-05,-2.9999999999999997e-05,0.0,4e-05,5.9999999999999995e-05,2e-05,-0.00013000000000000002,2e-05,3
9741,10118,-5e-05,-2.9999999999999997e-05,0.0,4e-05,5.9999999999999995e-05,2e-05,-0.00013000000000000002,2e-05,3
9742,10119,-5e-05,-2.9999999999999997e-05,0.0,4e-05,5.9999999999999995e-05,2e-05,-0.00013000000000000002,2e-05,3
9743,10120,-5e-05,-2.9999999999999997e-05,0.0,4e-05,5.9999999999999995e-05,2e-05,-0.00013000000000000002,2e-05,3
9744,10121,-5e-05,-2.9999999999999997e-05,0.0,4e-05,5.9999999999999995e-05,2e-05,-0.00013000000000000002,2e-05,3
9745,10122,-5e-05,-2.9999999999999997e-05,0.0,4e-05,5.9999999999999995e-05,2e-05,-0.00013000000000000002,2e-05,3
9746,10123,-5e-05,-2.9999999999999997e-05,0.0,4e-05,5.9999999999999995e-05,2e-05,-0.00013000000000000002,2e-05,3
9747,10124,-5e-05,-2.9999999999999997e-05,0.0,4e-05,5.9999999999999995e-05,2e-05,-0.00013000000000000002,2e-05,3
9748,10125,-5e-05,-2.9999999999999997e-05,0.0,4e-05,5.9999999999999995e-05,2e-05,-0.00013000000000000002,2e-05,3
9749,10126,-5e-05,-2.9999999999999997e-05,0.0,4e-05,5.9999999999999995e-05,2e-05,-0.00013000000000000002,2e-05,3
9750,10127,5.9999999999999995e-05,2e-05,-2.9999999999999997e-05,-2.9999999999999997e-05,-9e-05,-5.9999999999999995e-05,0.0,0.00015,3
9751,10128,-1e-05,-1e-05,5e-05,2.9999999999999997e-05,-5.9999999999999995e-05,4e-05,2.9999999999999997e-05,-2.9999999999999997e-05,3
9752,10129,-1e-05,-1e-05,5e-05,2.9999999999999997e-05,-5.9999999999999995e-05,4e-05,2.9999999999999997e-05,-2.9999999999999997e-05,3
9753,10130,-1e-05,-1e-05,5e-05,2.9999999999999997e-05,-5.9999999999999995e-05,4e-05,2.9999999999999997e-05,-2.9999999999999997e-05,3
9754,10131,-1e-05,-1e-05,5e-05,2.9999999999999997e-05,-5.9999999999999995e-05,4e-05,2.9999999999999997e-05,-2.9999999999999997e-05,3
9755,10132,-1e-05,-1e-05,5e-05,2.9999999999999997e-05,-5.9999999999999995e-05,4e-05,2.9999999999999997e-05,-2.9999999999999997e-05,3
9756,10133,-1e-05,-1e-05,5e-05,2.9999999999999997e-05,-5.9999999999999995e-05,4e-05,2.9999999999999997e-05,-2.9999999999999997e-05,3
9757,10134,-1e-05,-1e-05,5e-05,2.9999999999999997e-05,-5.9999999999999995e-05,4e-05,2.9999999999999997e-05,-2.9999999999999997e-05,3
9758,10135,-0.00016,0.0,1e-05,4e-05,2e-05,-0.00011,5e-05,-1e-05,3
9759,10136,-0.00016,0.0,1e-05,4e-05,2e-05,-0.00011,5e-05,-1e-05,3
9760,10138,-0.00016,0.0,1e-05,4e-05,2e-05,-0.00011,5e-05,-1e-05,3
9761,10139,-0.00016,0.0,1e-05,4e-05,2e-05,-0.00011,5e-05,-1e-05,3
9762,10140,-0.00016,0.0,1e-05,4e-05,2e-05,-0.00011,5e-05,-1e-05,3
9763,10141,-0.00056,-0.00011999999999999999,0.0,-1e-05,4e-05,0.00015,0.00018,0.00018,3
9764,10142,-0.00056,-0.00011999999999999999,0.0,-1e-05,4e-05,0.00015,0.00018,0.00018,3
9765,10143,-0.00056,-0.00011999999999999999,0.0,-1e-05,4e-05,0.00015,0.00018,0.00018,3
9766,10144,-0.00056,-0.00011999999999999999,0.0,-1e-05,4e-05,0.00015,0.00018,0.00018,3
9767,10145,-0.00056,-0.00011999999999999999,0.0,-1e-05,4e-05,0.00015,0.00018,0.00018,3
9768,10146,-0.00056,-0.00011999999999999999,0.0,-1e-05,4e-05,0.00015,0.00018,0.00018,3
9769,10147,-0.00056,-0.00011999999999999999,0.0,-1e-05,4e-05,0.00015,0.00018,0.00018,3
9770,10148,-0.00056,-0.00011999999999999999,0.0,-1e-05,4e-05,0.00015,0.00018,0.00018,3
9771,10149,-0.00056,-0.00011999999999999999,0.0,-1e-05,4e-05,0.00015,0.00018,0.00018,3
9772,10150,0.00014,-5.9999999999999995e-05,0.0,-1e-05,5e-05,1e-05,8e-05,-7e-05,3
9773,10151,0.00014,-5.9999999999999995e-05,0.0,-1e-05,5e-05,1e-05,8e-05,-7e-05,3
9774,10152,0.00014,-5.9999999999999995e-05,0.0,-1e-05,5e-05,1e-05,8e-05,-7e-05,3
9775,10153,0.00014,-5.9999999999999995e-05,0.0,-1e-05,5e-05,1e-05,8e-05,-7e-05,3
9776,10154,0.00014,-5.9999999999999995e-05,0.0,-1e-05,5e-05,1e-05,8e-05,-7e-05,3
9777,10155,0.00014,-5.9999999999999995e-05,0.0,-1e-05,5e-05,1e-05,8e-05,-7e-05,3
9778,10156,0.00014,-5.9999999999999995e-05,0.0,-1e-05,5e-05,1e-05,8e-05,-7e-05,3
9779,10157,0.00014,-5.9999999999999995e-05,0.0,-1e-05,5e-05,1e-05,8e-05,-7e-05,3
9780,10158,0.00014,-5.9999999999999995e-05,0.0,-1e-05,5e-05,1e-05,8e-05,-7e-05,3
9781,10159,0.00014,-5.9999999999999995e-05,0.0,-1e-05,5e-05,1e-05,8e-05,-7e-05,3
9782,10160,0.00014,-5.9999999999999995e-05,0.0,-1e-05,5e-05,1e-05,8e-05,-7e-05,3
9783,10161,0.00014,-5.9999999999999995e-05,0.0,-1e-05,5e-05,1e-05,8e-05,-7e-05,3
9784,10162,0.00014,-5.9999999999999995e-05,0.0,-1e-05,5e-05,1e-05,8e-05,-7e-05,3
9785,10163,0.00014,-5.9999999999999995e-05,0.0,-1e-05,5e-05,1e-05,8e-05,-7e-05,3
9786,10164,0.00014,-5.9999999999999995e-05,0.0,-1e-05,5e-05,1e-05,8e-05,-7e-05,3
9787,10165,0.00011999999999999999,-0.00011999999999999999,-5.9999999999999995e-05,-4e-05,2.9999999999999997e-05,-0.00018,-0.00016,7e-05,3
9788,10166,0.00011999999999999999,-0.00011999999999999999,-5.9999999999999995e-05,-4e-05,2.9999999999999997e-05,-0.00018,-0.00016,7e-05,3
9789,10167,9e-05,4e-05,2e-05,5.9999999999999995e-05,0.00011,0.00011999999999999999,0.00011999999999999999,-2e-05,3
9790,10168,9e-05,4e-05,2e-05,5.9999999999999995e-05,0.00011,0.00011999999999999999,0.00011999999999999999,-2e-05,3
9791,10169,9e-05,4e-05,2e-05,5.9999999999999995e-05,0.00011,0.00011999999999999999,0.00011999999999999999,-2e-05,3
9792,10170,9e-05,4e-05,2e-05,5.9999999999999995e-05,0.00011,0.00011999999999999999,0.00011999999999999999,-2e-05,3
9793,10171,9e-05,4e-05,2e-05,5.9999999999999995e-05,0.00011,0.00011999999999999999,0.00011999999999999999,-2e-05,3
9794,10172,9e-05,4e-05,2e-05,5.9999999999999995e-05,0.00011,0.00011999999999999999,0.00011999999999999999,-2e-05,3
9795,10173,9e-05,4e-05,2e-05,5.9999999999999995e-05,0.00011,0.00011999999999999999,0.00011999999999999999,-2e-05,3
9796,10174,9e-05,4e-05,2e-05,5.9999999999999995e-05,0.00011,0.00011999999999999999,0.00011999999999999999,-2e-05,3
9797,10175,9e-05,4e-05,2e-05,5.9999999999999995e-05,0.00011,0.00011999999999999999,0.00011999999999999999,-2e-05,3
9798,10176,9e-05,4e-05,2e-05,5.9999999999999995e-05,0.00011,0.00011999999999999999,0.00011999999999999999,-2e-05,3
9799,10177,9e-05,4e-05,2e-05,5.9999999999999995e-05,0.00011,0.00011999999999999999,0.00011999999999999999,-2e-05,3
9800,10178,9e-05,4e-05,2e-05,5.9999999999999995e-05,0.00011,0.00011999999999999999,0.00011999999999999999,-2e-05,3
9801,10179,9e-05,4e-05,2e-05,5.9999999999999995e-05,0.00011,0.00011999999999999999,0.00011999999999999999,-2e-05,3
9802,10180,9e-05,4e-05,2e-05,5.9999999999999995e-05,0.00011,0.00011999999999999999,0.00011999999999999999,-2e-05,3
9803,10181,9e-05,4e-05,2e-05,5.9999999999999995e-05,0.00011,0.00011999999999999999,0.00011999999999999999,-2e-05,3
9804,10182,9e-05,4e-05,2e-05,5.9999999999999995e-05,0.00011,0.00011999999999999999,0.00011999999999999999,-2e-05,3
9805,10183,9e-05,4e-05,2e-05,5.9999999999999995e-05,0.00011,0.00011999999999999999,0.00011999999999999999,-2e-05,3
9806,10184,9e-05,4e-05,2e-05,5.9999999999999995e-05,0.00011,0.00011999999999999999,0.00011999999999999999,-2e-05,3
9807,10185,9e-05,4e-05,2e-05,5.9999999999999995e-05,0.00011,0.00011999999999999999,0.00011999999999999999,-2e-05,3
9808,10186,9e-05,4e-05,2e-05,5.9999999999999995e-05,0.00011,0.00011999999999999999,0.00011999999999999999,-2e-05,3
9809,10188,9e-05,4e-05,2e-05,5.9999999999999995e-05,0.00011,0.00011999999999999999,0.00011999999999999999,-2e-05,3
9810,10189,8e-05,5.9999999999999995e-05,-5e-05,-9e-05,-9e-05,-0.00014,-4e-05,-9e-05,3
9811,10190,0.0006,0.00015,-2e-05,-8e-05,-0.00015,-8e-05,-0.00016999999999999999,0.00033999999999999997,3
9812,10191,0.0006,0.00015,-2e-05,-8e-05,-0.00015,-8e-05,-0.00016999999999999999,0.00033999999999999997,3
9813,10192,0.0006,0.00015,-2e-05,-8e-05,-0.00015,-8e-05,-0.00016999999999999999,0.00033999999999999997,3
9814,10193,0.0006,0.00015,-2e-05,-8e-05,-0.00015,-8e-05,-0.00016999999999999999,0.00033999999999999997,3
9815,10194,0.0006,0.00015,-2e-05,-8e-05,-0.00015,-8e-05,-0.00016999999999999999,0.00033999999999999997,3
9816,10195,0.0006,0.00015,-2e-05,-8e-05,-0.00015,-8e-05,-0.00016999999999999999,0.00033999999999999997,3
9817,10196,0.0006,0.00015,-2e-05,-8e-05,-0.00015,-8e-05,-0.00016999999999999999,0.00033999999999999997,3
9818,10197,0.0006,0.00015,-2e-05,-8e-05,-0.00015,-8e-05,-0.00016999999999999999,0.00033999999999999997,3
9819,10198,0.0006,0.00015,-2e-05,-8e-05,-0.00015,-8e-05,-0.00016999999999999999,0.00033999999999999997,3
9820,10199,0.0006,0.00015,-2e-05,-8e-05,-0.00015,-8e-05,-0.00016999999999999999,0.00033999999999999997,3
9821,10200,0.0006,0.00015,-2e-05,-8e-05,-0.00015,-8e-05,-0.00016999999999999999,0.00033999999999999997,3
9822,10201,-9e-05,1e-05,1e-05,2.9999999999999997e-05,0.0001,1e-05,-0.00016999999999999999,-0.00026000000000000003,3
9823,10202,-9e-05,1e-05,1e-05,2.9999999999999997e-05,0.0001,1e-05,-0.00016999999999999999,-0.00026000000000000003,3
9824,10203,-9e-05,1e-05,1e-05,2.9999999999999997e-05,0.0001,1e-05,-0.00016999999999999999,-0.00026000000000000003,3
9825,10204,-9e-05,1e-05,1e-05,2.9999999999999997e-05,0.0001,1e-05,-0.00016999999999999999,-0.00026000000000000003,3
9826,10205,-9e-05,1e-05,1e-05,2.9999999999999997e-05,0.0001,1e-05,-0.00016999999999999999,-0.00026000000000000003,3
9827,10206,-9e-05,1e-05,1e-05,2.9999999999999997e-05,0.0001,1e-05,-0.00016999999999999999,-0.00026000000000000003,3
9828,10207,-9e-05,1e-05,1e-05,2.9999999999999997e-05,0.0001,1e-05,-0.00016999999999999999,-0.00026000000000000003,3
9829,10208,-9e-05,1e-05,1e-05,2.9999999999999997e-05,0.0001,1e-05,-0.00016999999999999999,-0.00026000000000000003,3
9830,10209,-9e-05,1e-05,1e-05,2.9999999999999997e-05,0.0001,1e-05,-0.00016999999999999999,-0.00026000000000000003,3
9831,10210,0.0001,5.9999999999999995e-05,-2.9999999999999997e-05,-8e-05,-0.0001,7e-05,-1e-05,-0.00023999999999999998,3
9832,10211,0.0001,5.9999999999999995e-05,-2.9999999999999997e-05,-8e-05,-0.0001,7e-05,-1e-05,-0.00023999999999999998,3
9833,10212,0.0001,5.9999999999999995e-05,-2.9999999999999997e-05,-8e-05,-0.0001,7e-05,-1e-05,-0.00023999999999999998,3
9834,10213,0.0001,5.9999999999999995e-05,-2.9999999999999997e-05,-8e-05,-0.0001,7e-05,-1e-05,-0.00023999999999999998,3
9835,10214,0.0001,5.9999999999999995e-05,-2.9999999999999997e-05,-8e-05,-0.0001,7e-05,-1e-05,-0.00023999999999999998,3
9836,10215,0.0001,5.9999999999999995e-05,-2.9999999999999997e-05,-8e-05,-0.0001,7e-05,-1e-05,-0.00023999999999999998,3
9837,10216,0.0001,5.9999999999999995e-05,-2.9999999999999997e-05,-8e-05,-0.0001,7e-05,-1e-05,-0.00023999999999999998,3
9838,10217,0.0001,5.9999999999999995e-05,-2.9999999999999997e-05,-8e-05,-0.0001,7e-05,-1e-05,-0.00023999999999999998,3
9839,10218,0.0001,5.9999999999999995e-05,-2.9999999999999997e-05,-8e-05,-0.0001,7e-05,-1e-05,-0.00023999999999999998,3
9840,10219,0.0001,5.9999999999999995e-05,-2.9999999999999997e-05,-8e-05,-0.0001,7e-05,-1e-05,-0.00023999999999999998,3
9841,10220,0.0001,5.9999999999999995e-05,-2.9999999999999997e-05,-8e-05,-0.0001,7e-05,-1e-05,-0.00023999999999999998,3
9842,10221,0.0001,5.9999999999999995e-05,-2.9999999999999997e-05,-8e-05,-0.0001,7e-05,-1e-05,-0.00023999999999999998,3
9843,10222,0.0001,5.9999999999999995e-05,-2.9999999999999997e-05,-8e-05,-0.0001,7e-05,-1e-05,-0.00023999999999999998,3
9844,10223,0.0001,5.9999999999999995e-05,-2.9999999999999997e-05,-8e-05,-0.0001,7e-05,-1e-05,-0.00023999999999999998,3
9845,10224,0.0001,5.9999999999999995e-05,-2.9999999999999997e-05,-8e-05,-0.0001,7e-05,-1e-05,-0.00023999999999999998,3
9846,10225,-8e-05,-5e-05,-2.9999999999999997e-05,1e-05,2.9999999999999997e-05,2e-05,-1e-05,-8e-05,3
9847,10226,-8e-05,-5e-05,-2.9999999999999997e-05,1e-05,2.9999999999999997e-05,2e-05,-1e-05,-8e-05,3
9848,10227,-0.00028,-8e-05,-7e-05,-0.00016,-0.00011999999999999999,-0.00022,7e-05,-0.00015,3
9849,10228,-0.00028,-8e-05,-7e-05,-0.00016,-0.00011999999999999999,-0.00022,7e-05,-0.00015,3
9850,10229,-0.00028,-8e-05,-7e-05,-0.00016,-0.00011999999999999999,-0.00022,7e-05,-0.00015,3
9851,10230,-0.00028,-8e-05,-7e-05,-0.00016,-0.00011999999999999999,-0.00022,7e-05,-0.00015,3
9852,10231,-0.00028,-8e-05,-7e-05,-0.00016,-0.00011999999999999999,-0.00022,7e-05,-0.00015,3
9853,10232,-0.00028,-8e-05,-7e-05,-0.00016,-0.00011999999999999999,-0.00022,7e-05,-0.00015,3
9854,10233,-0.00028,-8e-05,-7e-05,-0.00016,-0.00011999999999999999,-0.00022,7e-05,-0.00015,3
9855,10234,-0.00028,-8e-05,-7e-05,-0.00016,-0.00011999999999999999,-0.00022,7e-05,-0.00015,3
9856,10235,-0.00028,-8e-05,-7e-05,-0.00016,-0.00011999999999999999,-0.00022,7e-05,-0.00015,3
9857,10236,-0.00028,-8e-05,-7e-05,-0.00016,-0.00011999999999999999,-0.00022,7e-05,-0.00015,3
9858,10238,-0.00028,-8e-05,-7e-05,-0.00016,-0.00011999999999999999,-0.00022,7e-05,-0.00015,3
9859,10239,-0.00028,-8e-05,-7e-05,-0.00016,-0.00011999999999999999,-0.00022,7e-05,-0.00015,3
9860,10240,-0.00028,-8e-05,-7e-05,-0.00016,-0.00011999999999999999,-0.00022,7e-05,-0.00015,3
9861,10241,-0.00028,-8e-05,-7e-05,-0.00016,-0.00011999999999999999,-0.00022,7e-05,-0.00015,3
9862,10242,-0.00028,-8e-05,-7e-05,-0.00016,-0.00011999999999999999,-0.00022,7e-05,-0.00015,3
9863,10243,-0.00028,-8e-05,-7e-05,-0.00016,-0.00011999999999999999,-0.00022,7e-05,-0.00015,3
9864,10244,-0.00028,-8e-05,-7e-05,-0.00016,-0.00011999999999999999,-0.00022,7e-05,-0.00015,3
9865,10245,-0.00028,-8e-05,-7e-05,-0.00016,-0.00011999999999999999,-0.00022,7e-05,-0.00015,3
9866,10246,-0.00028,-8e-05,-7e-05,-0.00016,-0.00011999999999999999,-0.00022,7e-05,-0.00015,3
9867,10247,-0.00028,-8e-05,-7e-05,-0.00016,-0.00011999999999999999,-0.00022,7e-05,-0.00015,3
9868,10248,-0.00021,-5e-05,1e-05,1e-05,-1e-05,0.0001,8e-05,0.00018999999999999998,3
9869,10249,-0.00021,-5e-05,1e-05,1e-05,-1e-05,0.0001,8e-05,0.00018999999999999998,3
9870,10250,1e-05,-2e-05,-7e-05,-0.00011999999999999999,-0.00031,-0.00022999999999999998,-0.00026000000000000003,-0.00011,3
9871,10251,1e-05,-2e-05,-7e-05,-0.00011999999999999999,-0.00031,-0.00022999999999999998,-0.00026000000000000003,-0.00011,3
9872,10252,1e-05,-2e-05,-7e-05,-0.00011999999999999999,-0.00031,-0.00022999999999999998,-0.00026000000000000003,-0.00011,3
9873,10253,1e-05,-2e-05,-7e-05,-0.00011999999999999999,-0.00031,-0.00022999999999999998,-0.00026000000000000003,-0.00011,3
9874,10254,1e-05,-2e-05,-7e-05,-0.00011999999999999999,-0.00031,-0.00022999999999999998,-0.00026000000000000003,-0.00011,3
9875,10255,1e-05,-2e-05,-7e-05,-0.00011999999999999999,-0.00031,-0.00022999999999999998,-0.00026000000000000003,-0.00011,3
9876,10256,1e-05,-2e-05,-7e-05,-0.00011999999999999999,-0.00031,-0.00022999999999999998,-0.00026000000000000003,-0.00011,3
9877,10257,1e-05,-2e-05,-7e-05,-0.00011999999999999999,-0.00031,-0.00022999999999999998,-0.00026000000000000003,-0.00011,3
9878,10258,1e-05,-2e-05,-7e-05,-0.00011999999999999999,-0.00031,-0.00022999999999999998,-0.00026000000000000003,-0.00011,3
9879,10259,1e-05,-2e-05,-7e-05,-0.00011999999999999999,-0.00031,-0.00022999999999999998,-0.00026000000000000003,-0.00011,3
9880,10260,1e-05,-2e-05,-7e-05,-0.00011999999999999999,-0.00031,-0.00022999999999999998,-0.00026000000000000003,-0.00011,3
9881,10261,1e-05,-2e-05,-7e-05,-0.00011999999999999999,-0.00031,-0.00022999999999999998,-0.00026000000000000003,-0.00011,3
9882,10262,-0.00049,-1e-05,0.0,4e-05,-4e-05,0.00015,-2.9999999999999997e-05,-0.00041,3
9883,10263,-0.00049,-1e-05,0.0,4e-05,-4e-05,0.00015,-2.9999999999999997e-05,-0.00041,3
9884,10264,-0.00049,-1e-05,0.0,4e-05,-4e-05,0.00015,-2.9999999999999997e-05,-0.00041,3
9885,10265,-0.00049,-1e-05,0.0,4e-05,-4e-05,0.00015,-2.9999999999999997e-05,-0.00041,3
9886,10266,-0.00049,-1e-05,0.0,4e-05,-4e-05,0.00015,-2.9999999999999997e-05,-0.00041,3
9887,10267,-0.00049,-1e-05,0.0,4e-05,-4e-05,0.00015,-2.9999999999999997e-05,-0.00041,3
9888,10268,-0.00049,-1e-05,0.0,4e-05,-4e-05,0.00015,-2.9999999999999997e-05,-0.00041,3
9889,10269,-0.00049,-1e-05,0.0,4e-05,-4e-05,0.00015,-2.9999999999999997e-05,-0.00041,3
9890,10270,-0.00049,-1e-05,0.0,4e-05,-4e-05,0.00015,-2.9999999999999997e-05,-0.00041,3
9891,10271,0.00014,-4e-05,-4e-05,-1e-05,-2.9999999999999997e-05,1e-05,5e-05,0.00018,3
9892,10272,0.00014,-4e-05,-4e-05,-1e-05,-2.9999999999999997e-05,1e-05,5e-05,0.00018,3
9893,10273,0.00014,-4e-05,-4e-05,-1e-05,-2.9999999999999997e-05,1e-05,5e-05,0.00018,3
9894,10274,0.00014,-4e-05,-4e-05,-1e-05,-2.9999999999999997e-05,1e-05,5e-05,0.00018,3
9895,10275,0.00014,-4e-05,-4e-05,-1e-05,-2.9999999999999997e-05,1e-05,5e-05,0.00018,3
9896,10276,0.00014,-4e-05,-4e-05,-1e-05,-2.9999999999999997e-05,1e-05,5e-05,0.00018,3
9897,10277,0.00014,-4e-05,-4e-05,-1e-05,-2.9999999999999997e-05,1e-05,5e-05,0.00018,3
9898,10278,0.00014,-4e-05,-4e-05,-1e-05,-2.9999999999999997e-05,1e-05,5e-05,0.00018,3
9899,10279,0.00014,-4e-05,-4e-05,-1e-05,-2.9999999999999997e-05,1e-05,5e-05,0.00018,3
9900,10280,0.00014,-4e-05,-4e-05,-1e-05,-2.9999999999999997e-05,1e-05,5e-05,0.00018,3
9901,10281,0.00014,-4e-05,-4e-05,-1e-05,-2.9999999999999997e-05,1e-05,5e-05,0.00018,3
9902,10282,0.00014,-4e-05,-4e-05,-1e-05,-2.9999999999999997e-05,1e-05,5e-05,0.00018,3
9903,10283,0.00014,-4e-05,-4e-05,-1e-05,-2.9999999999999997e-05,1e-05,5e-05,0.00018,3
9904,10284,0.00014,-4e-05,-4e-05,-1e-05,-2.9999999999999997e-05,1e-05,5e-05,0.00018,3
9905,10285,0.00026000000000000003,-2e-05,0.0,-1e-05,-5e-05,0.00018999999999999998,0.00016,0.00035,3
9906,10286,0.00026000000000000003,-2e-05,0.0,-1e-05,-5e-05,0.00018999999999999998,0.00016,0.00035,3
9907,10288,2e-05,2.9999999999999997e-05,1e-05,5e-05,5e-05,7e-05,-5.9999999999999995e-05,-0.00011,3
9908,10289,2e-05,2.9999999999999997e-05,1e-05,5e-05,5e-05,7e-05,-5.9999999999999995e-05,-0.00011,3
9909,10290,2e-05,2.9999999999999997e-05,1e-05,5e-05,5e-05,7e-05,-5.9999999999999995e-05,-0.00011,3
9910,10291,2e-05,2.9999999999999997e-05,1e-05,5e-05,5e-05,7e-05,-5.9999999999999995e-05,-0.00011,3
9911,10292,2e-05,2.9999999999999997e-05,1e-05,5e-05,5e-05,7e-05,-5.9999999999999995e-05,-0.00011,3
9912,10293,2e-05,2.9999999999999997e-05,1e-05,5e-05,5e-05,7e-05,-5.9999999999999995e-05,-0.00011,3
9913,10294,2e-05,2.9999999999999997e-05,1e-05,5e-05,5e-05,7e-05,-5.9999999999999995e-05,-0.00011,3
9914,10295,2e-05,2.9999999999999997e-05,1e-05,5e-05,5e-05,7e-05,-5.9999999999999995e-05,-0.00011,3
9915,10296,2e-05,2.9999999999999997e-05,1e-05,5e-05,5e-05,7e-05,-5.9999999999999995e-05,-0.00011,3
9916,10297,2e-05,2.9999999999999997e-05,1e-05,5e-05,5e-05,7e-05,-5.9999999999999995e-05,-0.00011,3
9917,10298,2e-05,2.9999999999999997e-05,1e-05,5e-05,5e-05,7e-05,-5.9999999999999995e-05,-0.00011,3
9918,10299,2e-05,2.9999999999999997e-05,1e-05,5e-05,5e-05,7e-05,-5.9999999999999995e-05,-0.00011,3
9919,10300,2e-05,2.9999999999999997e-05,1e-05,5e-05,5e-05,7e-05,-5.9999999999999995e-05,-0.00011,3
9920,10301,2e-05,2.9999999999999997e-05,1e-05,5e-05,5e-05,7e-05,-5.9999999999999995e-05,-0.00011,3
9921,10302,2e-05,2.9999999999999997e-05,1e-05,5e-05,5e-05,7e-05,-5.9999999999999995e-05,-0.00011,3
9922,10303,2e-05,2.9999999999999997e-05,1e-05,5e-05,5e-05,7e-05,-5.9999999999999995e-05,-0.00011,3
9923,10304,2e-05,2.9999999999999997e-05,1e-05,5e-05,5e-05,7e-05,-5.9999999999999995e-05,-0.00011,3
9924,10305,2e-05,2.9999999999999997e-05,1e-05,5e-05,5e-05,7e-05,-5.9999999999999995e-05,-0.00011,3
9925,10306,2e-05,2.9999999999999997e-05,1e-05,5e-05,5e-05,7e-05,-5.9999999999999995e-05,-0.00011,3
9926,10307,2e-05,2.9999999999999997e-05,1e-05,5e-05,5e-05,7e-05,-5.9999999999999995e-05,-0.00011,3
9927,10308,-0.00021,-0.00016999999999999999,-0.00011999999999999999,-5.9999999999999995e-05,5e-05,-5e-05,0.00016,-0.00021,3
9928,10309,-1e-05,-7e-05,2e-05,4e-05,0.0,-5.9999999999999995e-05,0.0,0.00029,3
9929,10310,-1e-05,-7e-05,2e-05,4e-05,0.0,-5.9999999999999995e-05,0.0,0.00029,3
9930,10311,-1e-05,-7e-05,2e-05,4e-05,0.0,-5.9999999999999995e-05,0.0,0.00029,3
9931,10312,-1e-05,-7e-05,2e-05,4e-05,0.0,-5.9999999999999995e-05,0.0,0.00029,3
9932,10313,-1e-05,-7e-05,2e-05,4e-05,0.0,-5.9999999999999995e-05,0.0,0.00029,3
9933,10314,-1e-05,-7e-05,2e-05,4e-05,0.0,-5.9999999999999995e-05,0.0,0.00029,3
9934,10315,-1e-05,-7e-05,2e-05,4e-05,0.0,-5.9999999999999995e-05,0.0,0.00029,3
9935,10316,-1e-05,-7e-05,2e-05,4e-05,0.0,-5.9999999999999995e-05,0.0,0.00029,3
9936,10317,-1e-05,-7e-05,2e-05,4e-05,0.0,-5.9999999999999995e-05,0.0,0.00029,3
9937,10318,-1e-05,-7e-05,2e-05,4e-05,0.0,-5.9999999999999995e-05,0.0,0.00029,3
9938,10319,-1e-05,-7e-05,2e-05,4e-05,0.0,-5.9999999999999995e-05,0.0,0.00029,3
9939,10320,-1e-05,-7e-05,2e-05,4e-05,0.0,-5.9999999999999995e-05,0.0,0.00029,3
9940,10321,-1e-05,-7e-05,2e-05,4e-05,0.0,-5.9999999999999995e-05,0.0,0.00029,3
9941,10322,-1e-05,-7e-05,2e-05,4e-05,0.0,-5.9999999999999995e-05,0.0,0.00029,3
9942,10323,-1e-05,-7e-05,2e-05,4e-05,0.0,-5.9999999999999995e-05,0.0,0.00029,3
9943,10324,-1e-05,-7e-05,2e-05,4e-05,0.0,-5.9999999999999995e-05,0.0,0.00029,3
9944,10325,-1e-05,-7e-05,2e-05,4e-05,0.0,-5.9999999999999995e-05,0.0,0.00029,3
9945,10326,-1e-05,-7e-05,2e-05,4e-05,0.0,-5.9999999999999995e-05,0.0,0.00029,3
9946,10327,-1e-05,-7e-05,2e-05,4e-05,0.0,-5.9999999999999995e-05,0.0,0.00029,3
9947,10328,-1e-05,-7e-05,2e-05,4e-05,0.0,-5.9999999999999995e-05,0.0,0.00029,3
9948,10329,-1e-05,-7e-05,2e-05,4e-05,0.0,-5.9999999999999995e-05,0.0,0.00029,3
9949,10330,0.00011999999999999999,5e-05,0.00011,0.00023999999999999998,0.00025,-1e-05,-0.00011999999999999999,-1e-05,3
9950,10331,0.00011999999999999999,5e-05,0.00011,0.00023999999999999998,0.00025,-1e-05,-0.00011999999999999999,-1e-05,3
9951,10332,-0.00015,2.9999999999999997e-05,-1e-05,-1e-05,-7e-05,-0.0001,7e-05,-5e-05,3
9952,10333,-0.00015,2.9999999999999997e-05,-1e-05,-1e-05,-7e-05,-0.0001,7e-05,-5e-05,3
9953,10334,-0.00015,2.9999999999999997e-05,-1e-05,-1e-05,-7e-05,-0.0001,7e-05,-5e-05,3
9954,10335,-0.00015,2.9999999999999997e-05,-1e-05,-1e-05,-7e-05,-0.0001,7e-05,-5e-05,3
9955,10336,-0.00015,2.9999999999999997e-05,-1e-05,-1e-05,-7e-05,-0.0001,7e-05,-5e-05,3
9956,10338,-0.00015,2.9999999999999997e-05,-1e-05,-1e-05,-7e-05,-0.0001,7e-05,-5e-05,3
9957,10339,-0.00015,2.9999999999999997e-05,-1e-05,-1e-05,-7e-05,-0.0001,7e-05,-5e-05,3
9958,10340,-0.00015,2.9999999999999997e-05,-1e-05,-1e-05,-7e-05,-0.0001,7e-05,-5e-05,3
9959,10341,-0.00015,2.9999999999999997e-05,-1e-05,-1e-05,-7e-05,-0.0001,7e-05,-5e-05,3
9960,10342,-0.00015,2.9999999999999997e-05,-1e-05,-1e-05,-7e-05,-0.0001,7e-05,-5e-05,3
9961,10343,-0.00015,2.9999999999999997e-05,-1e-05,-1e-05,-7e-05,-0.0001,7e-05,-5e-05,3
9962,10344,-0.00015,2.9999999999999997e-05,-1e-05,-1e-05,-7e-05,-0.0001,7e-05,-5e-05,3
9963,10345,-0.00015,2.9999999999999997e-05,-1e-05,-1e-05,-7e-05,-0.0001,7e-05,-5e-05,3
9964,10346,-0.00015,2.9999999999999997e-05,-1e-05,-1e-05,-7e-05,-0.0001,7e-05,-5e-05,3
9965,10347,-0.00015,2.9999999999999997e-05,-1e-05,-1e-05,-7e-05,-0.0001,7e-05,-5e-05,3
9966,10348,-0.00015,2.9999999999999997e-05,-1e-05,-1e-05,-7e-05,-0.0001,7e-05,-5e-05,3
9967,10349,-0.00015,2.9999999999999997e-05,-1e-05,-1e-05,-7e-05,-0.0001,7e-05,-5e-05,3
9968,10350,-0.00015,2.9999999999999997e-05,-1e-05,-1e-05,-7e-05,-0.0001,7e-05,-5e-05,3
9969,10351,-0.00015,2.9999999999999997e-05,-1e-05,-1e-05,-7e-05,-0.0001,7e-05,-5e-05,3
9970,10352,-0.00015,2.9999999999999997e-05,-1e-05,-1e-05,-7e-05,-0.0001,7e-05,-5e-05,3
9971,10353,-2e-05,-2.9999999999999997e-05,-2.9999999999999997e-05,-5.9999999999999995e-05,-9e-05,-0.00014,-7e-05,-0.00014,3
9972,10354,-2e-05,-2.9999999999999997e-05,-2.9999999999999997e-05,-5.9999999999999995e-05,-9e-05,-0.00014,-7e-05,-0.00014,3
9973,10355,-0.00018,-5.9999999999999995e-05,2e-05,5.9999999999999995e-05,8e-05,2e-05,2e-05,1e-05,3
9974,10356,-0.00018,-5.9999999999999995e-05,2e-05,5.9999999999999995e-05,8e-05,2e-05,2e-05,1e-05,3
9975,10357,-0.00018,-5.9999999999999995e-05,2e-05,5.9999999999999995e-05,8e-05,2e-05,2e-05,1e-05,3
9976,10358,-0.00018,-5.9999999999999995e-05,2e-05,5.9999999999999995e-05,8e-05,2e-05,2e-05,1e-05,3
9977,10359,-0.00018,-5.9999999999999995e-05,2e-05,5.9999999999999995e-05,8e-05,2e-05,2e-05,1e-05,3
9978,10360,-0.00018,-5.9999999999999995e-05,2e-05,5.9999999999999995e-05,8e-05,2e-05,2e-05,1e-05,3
9979,10361,-0.00018,-5.9999999999999995e-05,2e-05,5.9999999999999995e-05,8e-05,2e-05,2e-05,1e-05,3
9980,10362,-0.00018,-5.9999999999999995e-05,2e-05,5.9999999999999995e-05,8e-05,2e-05,2e-05,1e-05,3
9981,10363,-0.00018,-5.9999999999999995e-05,2e-05,5.9999999999999995e-05,8e-05,2e-05,2e-05,1e-05,3
9982,10364,-0.00018,-5.9999999999999995e-05,2e-05,5.9999999999999995e-05,8e-05,2e-05,2e-05,1e-05,3
9983,10365,-0.00018,-5.9999999999999995e-05,2e-05,5.9999999999999995e-05,8e-05,2e-05,2e-05,1e-05,3
9984,10366,-0.00018,-5.9999999999999995e-05,2e-05,5.9999999999999995e-05,8e-05,2e-05,2e-05,1e-05,3
9985,10367,-0.00018,-5.9999999999999995e-05,2e-05,5.9999999999999995e-05,8e-05,2e-05,2e-05,1e-05,3
9986,10368,-5e-05,1e-05,-4e-05,-7e-05,-5.9999999999999995e-05,2.9999999999999997e-05,-5e-05,-0.00018999999999999998,3
9987,10369,0.00011,0.0,0.0,-2.9999999999999997e-05,5e-05,0.00011,5.9999999999999995e-05,0.0003,3
9988,10370,0.00011,0.0,0.0,-2.9999999999999997e-05,5e-05,0.00011,5.9999999999999995e-05,0.0003,3
9989,10371,0.00011,0.0,0.0,-2.9999999999999997e-05,5e-05,0.00011,5.9999999999999995e-05,0.0003,3
9990,10372,0.00011,0.0,0.0,-2.9999999999999997e-05,5e-05,0.00011,5.9999999999999995e-05,0.0003,3
9991,10373,0.00011,0.0,0.0,-2.9999999999999997e-05,5e-05,0.00011,5.9999999999999995e-05,0.0003,3
9992,10374,0.00011,0.0,0.0,-2.9999999999999997e-05,5e-05,0.00011,5.9999999999999995e-05,0.0003,3
9993,10375,0.00011,0.0,0.0,-2.9999999999999997e-05,5e-05,0.00011,5.9999999999999995e-05,0.0003,3
9994,10377,0.00011,0.0,0.0,-2.9999999999999997e-05,5e-05,0.00011,5.9999999999999995e-05,0.0003,3
9995,10378,0.00011,0.0,0.0,-2.9999999999999997e-05,5e-05,0.00011,5.9999999999999995e-05,0.0003,3
9996,10379,0.00011,0.0,0.0,-2.9999999999999997e-05,5e-05,0.00011,5.9999999999999995e-05,0.0003,3
9997,10380,0.00011,0.0,0.0,-2.9999999999999997e-05,5e-05,0.00011,5.9999999999999995e-05,0.0003,3
9998,10381,-0.00016999999999999999,-0.00013000000000000002,-9e-05,-7e-05,-2.9999999999999997e-05,-4e-05,-1e-05,0.00037,3
9999,10382,-0.00016999999999999999,-0.00013000000000000002,-9e-05,-7e-05,-2.9999999999999997e-05,-4e-05,-1e-05,0.00037,3
10000,10383,-0.00016999999999999999,-0.00013000000000000002,-9e-05,-7e-05,-2.9999999999999997e-05,-4e-05,-1e-05,0.00037,3
10001,10384,-0.00016999999999999999,-0.00013000000000000002,-9e-05,-7e-05,-2.9999999999999997e-05,-4e-05,-1e-05,0.00037,3
10002,10385,-0.00016999999999999999,-0.00013000000000000002,-9e-05,-7e-05,-2.9999999999999997e-05,-4e-05,-1e-05,0.00037,3
10003,10386,-0.00016999999999999999,-0.00013000000000000002,-9e-05,-7e-05,-2.9999999999999997e-05,-4e-05,-1e-05,0.00037,3
10004,10390,-0.00016999999999999999,-0.00013000000000000002,-9e-05,-7e-05,-2.9999999999999997e-05,-4e-05,-1e-05,0.00037,3
10005,10391,-0.00036,-0.00011,-2e-05,0.0,9e-05,-0.00011999999999999999,-0.0002,-0.00041,3
10006,10392,-0.00036,-0.00011,-2e-05,0.0,9e-05,-0.00011999999999999999,-0.0002,-0.00041,3
10007,10393,-0.00036,-0.00011,-2e-05,0.0,9e-05,-0.00011999999999999999,-0.0002,-0.00041,3
10008,10394,-0.00036,-0.00011,-2e-05,0.0,9e-05,-0.00011999999999999999,-0.0002,-0.00041,3
10009,10395,-0.00036,-0.00011,-2e-05,0.0,9e-05,-0.00011999999999999999,-0.0002,-0.00041,3
10010,10396,-0.00036,-0.00011,-2e-05,0.0,9e-05,-0.00011999999999999999,-0.0002,-0.00041,3
10011,10397,-0.00036,-0.00011,-2e-05,0.0,9e-05,-0.00011999999999999999,-0.0002,-0.00041,3
10012,10398,-0.00036,-0.00011,-2e-05,0.0,9e-05,-0.00011999999999999999,-0.0002,-0.00041,3
10013,10399,-0.00036,-0.00011,-2e-05,0.0,9e-05,-0.00011999999999999999,-0.0002,-0.00041,3
10014,10400,-0.00036,-0.00011,-2e-05,0.0,9e-05,-0.00011999999999999999,-0.0002,-0.00041,3
10015,10401,-0.00036,-0.00011,-2e-05,0.0,9e-05,-0.00011999999999999999,-0.0002,-0.00041,3
10016,10402,-0.00036,-0.00011,-2e-05,0.0,9e-05,-0.00011999999999999999,-0.0002,-0.00041,3
10017,10403,-0.00036,-0.00011,-2e-05,0.0,9e-05,-0.00011999999999999999,-0.0002,-0.00041,3
10018,10404,-0.00036,-0.00011,-2e-05,0.0,9e-05,-0.00011999999999999999,-0.0002,-0.00041,3
10019,10405,-2.9999999999999997e-05,0.00011999999999999999,5e-05,-2.9999999999999997e-05,-2e-05,0.00039,5e-05,-0.00033,3
10020,10406,-2.9999999999999997e-05,0.00011999999999999999,5e-05,-2.9999999999999997e-05,-2e-05,0.00039,5e-05,-0.00033,3
10021,10407,5e-05,-5e-05,-5.9999999999999995e-05,-1e-05,-5e-05,2e-05,-4e-05,0.0,3
10022,10408,5e-05,-5e-05,-5.9999999999999995e-05,-1e-05,-5e-05,2e-05,-4e-05,0.0,3
10023,10409,5e-05,-5e-05,-5.9999999999999995e-05,-1e-05,-5e-05,2e-05,-4e-05,0.0,3
10024,10410,5e-05,-5e-05,-5.9999999999999995e-05,-1e-05,-5e-05,2e-05,-4e-05,0.0,3
10025,10411,5e-05,-5e-05,-5.9999999999999995e-05,-1e-05,-5e-05,2e-05,-4e-05,0.0,3
10026,10412,5e-05,-5e-05,-5.9999999999999995e-05,-1e-05,-5e-05,2e-05,-4e-05,0.0,3
10027,10413,5e-05,-5e-05,-5.9999999999999995e-05,-1e-05,-5e-05,2e-05,-4e-05,0.0,3
10028,10414,5e-05,-5e-05,-5.9999999999999995e-05,-1e-05,-5e-05,2e-05,-4e-05,0.0,3
10029,10415,5e-05,-5e-05,-5.9999999999999995e-05,-1e-05,-5e-05,2e-05,-4e-05,0.0,3
10030,10416,5e-05,-5e-05,-5.9999999999999995e-05,-1e-05,-5e-05,2e-05,-4e-05,0.0,3
10031,10417,5e-05,-5e-05,-5.9999999999999995e-05,-1e-05,-5e-05,2e-05,-4e-05,0.0,3
10032,10418,5e-05,-5e-05,-5.9999999999999995e-05,-1e-05,-5e-05,2e-05,-4e-05,0.0,3
10033,10419,5e-05,-5e-05,-5.9999999999999995e-05,-1e-05,-5e-05,2e-05,-4e-05,0.0,3
10034,10420,5e-05,-5e-05,-5.9999999999999995e-05,-1e-05,-5e-05,2e-05,-4e-05,0.0,3
10035,10421,5e-05,-5e-05,-5.9999999999999995e-05,-1e-05,-5e-05,2e-05,-4e-05,0.0,3
10036,10422,5e-05,-5e-05,-5.9999999999999995e-05,-1e-05,-5e-05,2e-05,-4e-05,0.0,3
10037,10423,5e-05,-5e-05,-5.9999999999999995e-05,-1e-05,-5e-05,2e-05,-4e-05,0.0,3
10038,10424,5e-05,-5e-05,-5.9999999999999995e-05,-1e-05,-5e-05,2e-05,-4e-05,0.0,3
10039,10425,5e-05,-5e-05,-5.9999999999999995e-05,-1e-05,-5e-05,2e-05,-4e-05,0.0,3
10040,10426,5e-05,-5e-05,-5.9999999999999995e-05,-1e-05,-5e-05,2e-05,-4e-05,0.0,3
10041,10427,5e-05,-5e-05,-5.9999999999999995e-05,-1e-05,-5e-05,2e-05,-4e-05,0.0,3
10042,10428,-9e-05,-2e-05,0.0,-5.9999999999999995e-05,-8e-05,-0.00018999999999999998,-0.00013000000000000002,7e-05,3
10043,10429,0.00025,0.00013000000000000002,5.9999999999999995e-05,4e-05,-2.9999999999999997e-05,2.9999999999999997e-05,-4e-05,8e-05,3
10044,10430,0.00025,0.00013000000000000002,5.9999999999999995e-05,4e-05,-2.9999999999999997e-05,2.9999999999999997e-05,-4e-05,8e-05,3
10045,10431,0.00025,0.00013000000000000002,5.9999999999999995e-05,4e-05,-2.9999999999999997e-05,2.9999999999999997e-05,-4e-05,8e-05,3
10046,10432,0.00025,0.00013000000000000002,5.9999999999999995e-05,4e-05,-2.9999999999999997e-05,2.9999999999999997e-05,-4e-05,8e-05,3
10047,10433,0.00025,0.00013000000000000002,5.9999999999999995e-05,4e-05,-2.9999999999999997e-05,2.9999999999999997e-05,-4e-05,8e-05,3
10048,10434,0.00025,0.00013000000000000002,5.9999999999999995e-05,4e-05,-2.9999999999999997e-05,2.9999999999999997e-05,-4e-05,8e-05,3
10049,10435,0.00025,0.00013000000000000002,5.9999999999999995e-05,4e-05,-2.9999999999999997e-05,2.9999999999999997e-05,-4e-05,8e-05,3
10050,10436,0.00025,0.00013000000000000002,5.9999999999999995e-05,4e-05,-2.9999999999999997e-05,2.9999999999999997e-05,-4e-05,8e-05,3
10051,10439,0.00025,0.00013000000000000002,5.9999999999999995e-05,4e-05,-2.9999999999999997e-05,2.9999999999999997e-05,-4e-05,8e-05,3
10052,10440,0.00025,0.00013000000000000002,5.9999999999999995e-05,4e-05,-2.9999999999999997e-05,2.9999999999999997e-05,-4e-05,8e-05,3
10053,10441,0.00025,0.00013000000000000002,5.9999999999999995e-05,4e-05,-2.9999999999999997e-05,2.9999999999999997e-05,-4e-05,8e-05,3
10054,10442,0.00025,0.00013000000000000002,5.9999999999999995e-05,4e-05,-2.9999999999999997e-05,2.9999999999999997e-05,-4e-05,8e-05,3
10055,10443,0.00025,0.00013000000000000002,5.9999999999999995e-05,4e-05,-2.9999999999999997e-05,2.9999999999999997e-05,-4e-05,8e-05,3
10056,10444,0.00025,0.00013000000000000002,5.9999999999999995e-05,4e-05,-2.9999999999999997e-05,2.9999999999999997e-05,-4e-05,8e-05,3
10057,10445,0.00025,0.00013000000000000002,5.9999999999999995e-05,4e-05,-2.9999999999999997e-05,2.9999999999999997e-05,-4e-05,8e-05,3
10058,10446,0.00025,0.00013000000000000002,5.9999999999999995e-05,4e-05,-2.9999999999999997e-05,2.9999999999999997e-05,-4e-05,8e-05,3
10059,10447,0.00025,0.00013000000000000002,5.9999999999999995e-05,4e-05,-2.9999999999999997e-05,2.9999999999999997e-05,-4e-05,8e-05,3
10060,10448,0.00025,0.00013000000000000002,5.9999999999999995e-05,4e-05,-2.9999999999999997e-05,2.9999999999999997e-05,-4e-05,8e-05,3
10061,10449,0.00025,0.00013000000000000002,5.9999999999999995e-05,4e-05,-2.9999999999999997e-05,2.9999999999999997e-05,-4e-05,8e-05,3
10062,10450,0.00033999999999999997,0.00018999999999999998,0.00011,0.00018,0.00011999999999999999,5.9999999999999995e-05,1e-05,-0.00018999999999999998,3
10063,10451,0.00033999999999999997,0.00018999999999999998,0.00011,0.00018,0.00011999999999999999,5.9999999999999995e-05,1e-05,-0.00018999999999999998,3
10064,10452,-0.00018,-0.00011999999999999999,-1e-05,2.9999999999999997e-05,1e-05,-0.00011999999999999999,-8e-05,-0.00016,3
10065,10453,-0.00018,-0.00011999999999999999,-1e-05,2.9999999999999997e-05,1e-05,-0.00011999999999999999,-8e-05,-0.00016,3
10066,10454,-0.00018,-0.00011999999999999999,-1e-05,2.9999999999999997e-05,1e-05,-0.00011999999999999999,-8e-05,-0.00016,3
10067,10455,-0.00018,-0.00011999999999999999,-1e-05,2.9999999999999997e-05,1e-05,-0.00011999999999999999,-8e-05,-0.00016,3
10068,10456,-0.00018,-0.00011999999999999999,-1e-05,2.9999999999999997e-05,1e-05,-0.00011999999999999999,-8e-05,-0.00016,3
10069,10457,-0.00018,-0.00011999999999999999,-1e-05,2.9999999999999997e-05,1e-05,-0.00011999999999999999,-8e-05,-0.00016,3
10070,10458,-0.00018,-0.00011999999999999999,-1e-05,2.9999999999999997e-05,1e-05,-0.00011999999999999999,-8e-05,-0.00016,3
10071,10459,-0.00018,-0.00011999999999999999,-1e-05,2.9999999999999997e-05,1e-05,-0.00011999999999999999,-8e-05,-0.00016,3
10072,10460,-0.00018,-0.00011999999999999999,-1e-05,2.9999999999999997e-05,1e-05,-0.00011999999999999999,-8e-05,-0.00016,3
10073,10461,-0.00018,-0.00011999999999999999,-1e-05,2.9999999999999997e-05,1e-05,-0.00011999999999999999,-8e-05,-0.00016,3
10074,10462,-0.00018,-0.00011999999999999999,-1e-05,2.9999999999999997e-05,1e-05,-0.00011999999999999999,-8e-05,-0.00016,3
10075,10463,-0.00018,-0.00011999999999999999,-1e-05,2.9999999999999997e-05,1e-05,-0.00011999999999999999,-8e-05,-0.00016,3
10076,10464,-0.00018,-0.00011999999999999999,-1e-05,2.9999999999999997e-05,1e-05,-0.00011999999999999999,-8e-05,-0.00016,3
10077,10465,-0.00018,-0.00011999999999999999,-1e-05,2.9999999999999997e-05,1e-05,-0.00011999999999999999,-8e-05,-0.00016,3
10078,10466,-0.00022999999999999998,0.0,-5e-05,-2e-05,-1e-05,-0.00011999999999999999,1e-05,-5.9999999999999995e-05,3
10079,10467,-0.00026000000000000003,-4e-05,0.0,-2.9999999999999997e-05,-4e-05,0.00015,0.00016999999999999999,-0.00016,3
10080,10468,-0.00026000000000000003,-4e-05,0.0,-2.9999999999999997e-05,-4e-05,0.00015,0.00016999999999999999,-0.00016,3
10081,10469,-0.00026000000000000003,-4e-05,0.0,-2.9999999999999997e-05,-4e-05,0.00015,0.00016999999999999999,-0.00016,3
10082,10470,-0.00026000000000000003,-4e-05,0.0,-2.9999999999999997e-05,-4e-05,0.00015,0.00016999999999999999,-0.00016,3
10083,10471,-0.00026000000000000003,-4e-05,0.0,-2.9999999999999997e-05,-4e-05,0.00015,0.00016999999999999999,-0.00016,3
10084,10472,-0.00026000000000000003,-4e-05,0.0,-2.9999999999999997e-05,-4e-05,0.00015,0.00016999999999999999,-0.00016,3
10085,10473,-0.00026000000000000003,-4e-05,0.0,-2.9999999999999997e-05,-4e-05,0.00015,0.00016999999999999999,-0.00016,3
10086,10474,-0.00026000000000000003,-4e-05,0.0,-2.9999999999999997e-05,-4e-05,0.00015,0.00016999999999999999,-0.00016,3
10087,10475,-0.00026000000000000003,-4e-05,0.0,-2.9999999999999997e-05,-4e-05,0.00015,0.00016999999999999999,-0.00016,3
10088,10476,-0.00026000000000000003,-4e-05,0.0,-2.9999999999999997e-05,-4e-05,0.00015,0.00016999999999999999,-0.00016,3
10089,10477,-0.00026000000000000003,-4e-05,0.0,-2.9999999999999997e-05,-4e-05,0.00015,0.00016999999999999999,-0.00016,3
10090,10478,-0.00026000000000000003,-4e-05,0.0,-2.9999999999999997e-05,-4e-05,0.00015,0.00016999999999999999,-0.00016,3
10091,10479,-0.00026000000000000003,-4e-05,0.0,-2.9999999999999997e-05,-4e-05,0.00015,0.00016999999999999999,-0.00016,3
10092,10480,-0.00026000000000000003,-4e-05,0.0,-2.9999999999999997e-05,-4e-05,0.00015,0.00016999999999999999,-0.00016,3
10093,10481,-0.00026000000000000003,-4e-05,0.0,-2.9999999999999997e-05,-4e-05,0.00015,0.00016999999999999999,-0.00016,3
10094,10482,-0.00026000000000000003,-4e-05,0.0,-2.9999999999999997e-05,-4e-05,0.00015,0.00016999999999999999,-0.00016,3
10095,10483,-0.00026000000000000003,-4e-05,0.0,-2.9999999999999997e-05,-4e-05,0.00015,0.00016999999999999999,-0.00016,3
10096,10484,-0.00026000000000000003,-4e-05,0.0,-2.9999999999999997e-05,-4e-05,0.00015,0.00016999999999999999,-0.00016,3
10097,10485,-0.00026000000000000003,-4e-05,0.0,-2.9999999999999997e-05,-4e-05,0.00015,0.00016999999999999999,-0.00016,3
10098,10486,-0.00026000000000000003,-4e-05,0.0,-2.9999999999999997e-05,-4e-05,0.00015,0.00016999999999999999,-0.00016,3
10099,10489,-0.00026000000000000003,-4e-05,0.0,-2.9999999999999997e-05,-4e-05,0.00015,0.00016999999999999999,-0.00016,3
10100,10490,-2.9999999999999997e-05,-2e-05,1e-05,8e-05,0.00016999999999999999,-2.9999999999999997e-05,-0.0001,0.0002,3
10101,10491,-2.9999999999999997e-05,-2e-05,1e-05,8e-05,0.00016999999999999999,-2.9999999999999997e-05,-0.0001,0.0002,3
10102,10492,-2.9999999999999997e-05,-2e-05,1e-05,8e-05,0.00016999999999999999,-2.9999999999999997e-05,-0.0001,0.0002,3
10103,10493,-2.9999999999999997e-05,-2e-05,1e-05,8e-05,0.00016999999999999999,-2.9999999999999997e-05,-0.0001,0.0002,3
10104,10494,-2.9999999999999997e-05,-2e-05,1e-05,8e-05,0.00016999999999999999,-2.9999999999999997e-05,-0.0001,0.0002,3
10105,10495,-2.9999999999999997e-05,-2e-05,1e-05,8e-05,0.00016999999999999999,-2.9999999999999997e-05,-0.0001,0.0002,3
10106,10496,-2.9999999999999997e-05,-2e-05,1e-05,8e-05,0.00016999999999999999,-2.9999999999999997e-05,-0.0001,0.0002,3
10107,10497,-2.9999999999999997e-05,-2e-05,1e-05,8e-05,0.00016999999999999999,-2.9999999999999997e-05,-0.0001,0.0002,3
10108,10498,-2.9999999999999997e-05,-2e-05,1e-05,8e-05,0.00016999999999999999,-2.9999999999999997e-05,-0.0001,0.0002,3
10109,10499,-2.9999999999999997e-05,-2e-05,1e-05,8e-05,0.00016999999999999999,-2.9999999999999997e-05,-0.0001,0.0002,3
10110,10500,-2.9999999999999997e-05,-2e-05,1e-05,8e-05,0.00016999999999999999,-2.9999999999999997e-05,-0.0001,0.0002,3
10111,10501,-2.9999999999999997e-05,-2e-05,1e-05,8e-05,0.00016999999999999999,-2.9999999999999997e-05,-0.0001,0.0002,3
10112,10502,-2.9999999999999997e-05,-2e-05,1e-05,8e-05,0.00016999999999999999,-2.9999999999999997e-05,-0.0001,0.0002,3
10113,10503,-2.9999999999999997e-05,-2e-05,1e-05,8e-05,0.00016999999999999999,-2.9999999999999997e-05,-0.0001,0.0002,3
10114,10504,-2.9999999999999997e-05,-2e-05,1e-05,8e-05,0.00016999999999999999,-2.9999999999999997e-05,-0.0001,0.0002,3
10115,10505,-2.9999999999999997e-05,-2e-05,1e-05,8e-05,0.00016999999999999999,-2.9999999999999997e-05,-0.0001,0.0002,3
10116,10506,-2.9999999999999997e-05,-2e-05,1e-05,8e-05,0.00016999999999999999,-2.9999999999999997e-05,-0.0001,0.0002,3
10117,10507,-2.9999999999999997e-05,-2e-05,1e-05,8e-05,0.00016999999999999999,-2.9999999999999997e-05,-0.0001,0.0002,3
10118,10508,-2.9999999999999997e-05,-2e-05,1e-05,8e-05,0.00016999999999999999,-2.9999999999999997e-05,-0.0001,0.0002,3
10119,10509,-2.9999999999999997e-05,-2e-05,1e-05,8e-05,0.00016999999999999999,-2.9999999999999997e-05,-0.0001,0.0002,3
10120,10510,-0.00074,-0.00035,-8e-05,-5e-05,-9e-05,-0.0001,-0.00013000000000000002,-0.00015,3
10121,10511,-0.00074,-0.00035,-8e-05,-5e-05,-9e-05,-0.0001,-0.00013000000000000002,-0.00015,3
10122,10512,-4e-05,-5e-05,0.0,-1e-05,-5e-05,0.0,-7e-05,4e-05,3
10123,10513,-4e-05,-5e-05,0.0,-1e-05,-5e-05,0.0,-7e-05,4e-05,3
10124,10514,-4e-05,-5e-05,0.0,-1e-05,-5e-05,0.0,-7e-05,4e-05,3
10125,10515,-4e-05,-5e-05,0.0,-1e-05,-5e-05,0.0,-7e-05,4e-05,3
10126,10516,-4e-05,-5e-05,0.0,-1e-05,-5e-05,0.0,-7e-05,4e-05,3
10127,10517,-4e-05,-5e-05,0.0,-1e-05,-5e-05,0.0,-7e-05,4e-05,3
10128,10518,-4e-05,-5e-05,0.0,-1e-05,-5e-05,0.0,-7e-05,4e-05,3
10129,10519,-4e-05,-5e-05,0.0,-1e-05,-5e-05,0.0,-7e-05,4e-05,3
10130,10520,-4e-05,-5e-05,0.0,-1e-05,-5e-05,0.0,-7e-05,4e-05,3
10131,10521,-4e-05,-5e-05,0.0,-1e-05,-5e-05,0.0,-7e-05,4e-05,3
10132,10522,-4e-05,-5e-05,0.0,-1e-05,-5e-05,0.0,-7e-05,4e-05,3
10133,10523,-4e-05,-5e-05,0.0,-1e-05,-5e-05,0.0,-7e-05,4e-05,3
10134,10524,-4e-05,-5e-05,0.0,-1e-05,-5e-05,0.0,-7e-05,4e-05,3
10135,10525,0.00014,-4e-05,-2.9999999999999997e-05,-2.9999999999999997e-05,-0.00016,2e-05,-0.00018,-5.9999999999999995e-05,3
10136,10526,0.00014,-4e-05,-2.9999999999999997e-05,-2.9999999999999997e-05,-0.00016,2e-05,-0.00018,-5.9999999999999995e-05,3
10137,10527,-4e-05,-2e-05,1e-05,0.00011,0.00018,0.0002,0.00014,-0.00018999999999999998,3
10138,10528,-4e-05,-2e-05,1e-05,0.00011,0.00018,0.0002,0.00014,-0.00018999999999999998,3
10139,10529,-4e-05,-2e-05,1e-05,0.00011,0.00018,0.0002,0.00014,-0.00018999999999999998,3
10140,10530,-4e-05,-2e-05,1e-05,0.00011,0.00018,0.0002,0.00014,-0.00018999999999999998,3
10141,10531,-4e-05,-2e-05,1e-05,0.00011,0.00018,0.0002,0.00014,-0.00018999999999999998,3
10142,10532,-4e-05,-2e-05,1e-05,0.00011,0.00018,0.0002,0.00014,-0.00018999999999999998,3
10143,10533,-4e-05,-2e-05,1e-05,0.00011,0.00018,0.0002,0.00014,-0.00018999999999999998,3
10144,10534,-4e-05,-2e-05,1e-05,0.00011,0.00018,0.0002,0.00014,-0.00018999999999999998,3
10145,10535,-4e-05,-2e-05,1e-05,0.00011,0.00018,0.0002,0.00014,-0.00018999999999999998,3
10146,10536,-4e-05,-2e-05,1e-05,0.00011,0.00018,0.0002,0.00014,-0.00018999999999999998,3
10147,10539,-4e-05,-2e-05,1e-05,0.00011,0.00018,0.0002,0.00014,-0.00018999999999999998,3
10148,10540,-4e-05,-2e-05,1e-05,0.00011,0.00018,0.0002,0.00014,-0.00018999999999999998,3
10149,10541,-4e-05,-2e-05,1e-05,0.00011,0.00018,0.0002,0.00014,-0.00018999999999999998,3
10150,10542,-4e-05,-2e-05,1e-05,0.00011,0.00018,0.0002,0.00014,-0.00018999999999999998,3
10151,10543,-4e-05,-2e-05,1e-05,0.00011,0.00018,0.0002,0.00014,-0.00018999999999999998,3
10152,10544,-4e-05,-2e-05,1e-05,0.00011,0.00018,0.0002,0.00014,-0.00018999999999999998,3
10153,10545,-4e-05,-2e-05,1e-05,0.00011,0.00018,0.0002,0.00014,-0.00018999999999999998,3
10154,10546,-4e-05,-2e-05,1e-05,0.00011,0.00018,0.0002,0.00014,-0.00018999999999999998,3
10155,10547,-4e-05,-2e-05,1e-05,0.00011,0.00018,0.0002,0.00014,-0.00018999999999999998,3
10156,10548,-4e-05,-2e-05,1e-05,0.00011,0.00018,0.0002,0.00014,-0.00018999999999999998,3
10157,10549,-4e-05,-2e-05,1e-05,0.00011,0.00018,0.0002,0.00014,-0.00018999999999999998,3
10158,10550,-4e-05,-2e-05,1e-05,0.00011,0.00018,0.0002,0.00014,-0.00018999999999999998,3
10159,10551,-4e-05,-2e-05,1e-05,0.00011,0.00018,0.0002,0.00014,-0.00018999999999999998,3
10160,10552,-4e-05,-2e-05,1e-05,0.00011,0.00018,0.0002,0.00014,-0.00018999999999999998,3
10161,10553,-4e-05,-2e-05,1e-05,0.00011,0.00018,0.0002,0.00014,-0.00018999999999999998,3
10162,10554,-4e-05,-2e-05,1e-05,0.00011,0.00018,0.0002,0.00014,-0.00018999999999999998,3
10163,10555,0.00027,0.0,-4e-05,-1e-05,-2e-05,-0.00011,1e-05,0.00016,3
10164,10556,0.00027,0.0,-4e-05,-1e-05,-2e-05,-0.00011,1e-05,0.00016,3
10165,10557,-5.9999999999999995e-05,1e-05,2e-05,0.0,9e-05,5e-05,-0.00023999999999999998,-0.00022,3
10166,10558,-5.9999999999999995e-05,1e-05,2e-05,0.0,9e-05,5e-05,-0.00023999999999999998,-0.00022,3
10167,10559,-5.9999999999999995e-05,1e-05,2e-05,0.0,9e-05,5e-05,-0.00023999999999999998,-0.00022,3
10168,10560,-5.9999999999999995e-05,1e-05,2e-05,0.0,9e-05,5e-05,-0.00023999999999999998,-0.00022,3
10169,10561,-5.9999999999999995e-05,1e-05,2e-05,0.0,9e-05,5e-05,-0.00023999999999999998,-0.00022,3
10170,10562,-5.9999999999999995e-05,1e-05,2e-05,0.0,9e-05,5e-05,-0.00023999999999999998,-0.00022,3
10171,10563,-5.9999999999999995e-05,1e-05,2e-05,0.0,9e-05,5e-05,-0.00023999999999999998,-0.00022,3
10172,10564,-5.9999999999999995e-05,1e-05,2e-05,0.0,9e-05,5e-05,-0.00023999999999999998,-0.00022,3
10173,10565,-5.9999999999999995e-05,1e-05,2e-05,0.0,9e-05,5e-05,-0.00023999999999999998,-0.00022,3
10174,10566,-5.9999999999999995e-05,1e-05,2e-05,0.0,9e-05,5e-05,-0.00023999999999999998,-0.00022,3
10175,10567,-5.9999999999999995e-05,1e-05,2e-05,0.0,9e-05,5e-05,-0.00023999999999999998,-0.00022,3
10176,10568,-5.9999999999999995e-05,1e-05,2e-05,0.0,9e-05,5e-05,-0.00023999999999999998,-0.00022,3
10177,10569,-5.9999999999999995e-05,1e-05,2e-05,0.0,9e-05,5e-05,-0.00023999999999999998,-0.00022,3
10178,10570,-5.9999999999999995e-05,1e-05,2e-05,0.0,9e-05,5e-05,-0.00023999999999999998,-0.00022,3
10179,10571,0.00015,5e-05,5e-05,7e-05,-8e-05,0.0,-0.00015,8e-05,3
10180,10572,0.00015,5e-05,5e-05,7e-05,-8e-05,0.0,-0.00015,8e-05,3
10181,10573,-0.00025,-1e-05,0.0,2e-05,5e-05,0.00011,0.00013000000000000002,-8e-05,3
10182,10574,-0.00025,-1e-05,0.0,2e-05,5e-05,0.00011,0.00013000000000000002,-8e-05,3
10183,10575,-0.00025,-1e-05,0.0,2e-05,5e-05,0.00011,0.00013000000000000002,-8e-05,3
10184,10576,-2.9999999999999997e-05,-0.0001,-7e-05,-0.0001,-0.00011,-9e-05,-5e-05,0.00018,3
10185,10577,-2.9999999999999997e-05,-0.0001,-7e-05,-0.0001,-0.00011,-9e-05,-5e-05,0.00018,3
10186,10578,-2.9999999999999997e-05,-0.0001,-7e-05,-0.0001,-0.00011,-9e-05,-5e-05,0.00018,3
10187,10579,-2.9999999999999997e-05,-0.0001,-7e-05,-0.0001,-0.00011,-9e-05,-5e-05,0.00018,3
10188,10580,-2.9999999999999997e-05,-0.0001,-7e-05,-0.0001,-0.00011,-9e-05,-5e-05,0.00018,3
10189,10581,-2.9999999999999997e-05,-0.0001,-7e-05,-0.0001,-0.00011,-9e-05,-5e-05,0.00018,3
10190,10582,-2.9999999999999997e-05,-0.0001,-7e-05,-0.0001,-0.00011,-9e-05,-5e-05,0.00018,3
10191,10583,-2.9999999999999997e-05,-0.0001,-7e-05,-0.0001,-0.00011,-9e-05,-5e-05,0.00018,3
10192,10584,0.00023999999999999998,9e-05,5.9999999999999995e-05,4e-05,5e-05,-5e-05,4e-05,0.0003,3
10193,10585,0.00023999999999999998,9e-05,5.9999999999999995e-05,4e-05,5e-05,-5e-05,4e-05,0.0003,3
10194,10586,0.00023999999999999998,9e-05,5.9999999999999995e-05,4e-05,5e-05,-5e-05,4e-05,0.0003,3
10195,10588,0.00023999999999999998,9e-05,5.9999999999999995e-05,4e-05,5e-05,-5e-05,4e-05,0.0003,3
10196,10589,0.00023999999999999998,9e-05,5.9999999999999995e-05,4e-05,5e-05,-5e-05,4e-05,0.0003,3
10197,10590,0.00023999999999999998,9e-05,5.9999999999999995e-05,4e-05,5e-05,-5e-05,4e-05,0.0003,3
10198,10591,-0.00037999999999999997,-2e-05,-2.9999999999999997e-05,-0.0001,-0.00016,-5.9999999999999995e-05,0.00013000000000000002,-0.00015,3
10199,10593,-0.00037999999999999997,-2e-05,-2.9999999999999997e-05,-0.0001,-0.00016,-5.9999999999999995e-05,0.00013000000000000002,-0.00015,3
10200,10594,-0.00037999999999999997,-2e-05,-2.9999999999999997e-05,-0.0001,-0.00016,-5.9999999999999995e-05,0.00013000000000000002,-0.00015,3
10201,10595,-0.00037999999999999997,-2e-05,-2.9999999999999997e-05,-0.0001,-0.00016,-5.9999999999999995e-05,0.00013000000000000002,-0.00015,3
10202,10596,-0.00037999999999999997,-2e-05,-2.9999999999999997e-05,-0.0001,-0.00016,-5.9999999999999995e-05,0.00013000000000000002,-0.00015,3
10203,10597,-0.00037999999999999997,-2e-05,-2.9999999999999997e-05,-0.0001,-0.00016,-5.9999999999999995e-05,0.00013000000000000002,-0.00015,3
10204,10598,-0.00037999999999999997,-2e-05,-2.9999999999999997e-05,-0.0001,-0.00016,-5.9999999999999995e-05,0.00013000000000000002,-0.00015,3
10205,10599,-0.00037999999999999997,-2e-05,-2.9999999999999997e-05,-0.0001,-0.00016,-5.9999999999999995e-05,0.00013000000000000002,-0.00015,3
10206,10600,-0.00037999999999999997,-2e-05,-2.9999999999999997e-05,-0.0001,-0.00016,-5.9999999999999995e-05,0.00013000000000000002,-0.00015,3
10207,10601,-0.00037999999999999997,-2e-05,-2.9999999999999997e-05,-0.0001,-0.00016,-5.9999999999999995e-05,0.00013000000000000002,-0.00015,3
10208,10602,-0.00037999999999999997,-2e-05,-2.9999999999999997e-05,-0.0001,-0.00016,-5.9999999999999995e-05,0.00013000000000000002,-0.00015,3
10209,10603,-0.00037999999999999997,-2e-05,-2.9999999999999997e-05,-0.0001,-0.00016,-5.9999999999999995e-05,0.00013000000000000002,-0.00015,3
10210,10604,-0.00037999999999999997,-2e-05,-2.9999999999999997e-05,-0.0001,-0.00016,-5.9999999999999995e-05,0.00013000000000000002,-0.00015,3
10211,10605,-0.00037999999999999997,-2e-05,-2.9999999999999997e-05,-0.0001,-0.00016,-5.9999999999999995e-05,0.00013000000000000002,-0.00015,3
10212,10606,-0.00037999999999999997,-2e-05,-2.9999999999999997e-05,-0.0001,-0.00016,-5.9999999999999995e-05,0.00013000000000000002,-0.00015,3
10213,10607,-0.00037999999999999997,-2e-05,-2.9999999999999997e-05,-0.0001,-0.00016,-5.9999999999999995e-05,0.00013000000000000002,-0.00015,3
10214,10608,0.00025,0.00011,1e-05,5.9999999999999995e-05,5.9999999999999995e-05,-1e-05,1e-05,-4e-05,3
10215,10609,-0.00028,-0.00011,-5e-05,-1e-05,-5e-05,-9e-05,-2.9999999999999997e-05,-0.00011999999999999999,3
10216,10610,-0.00028,-0.00011,-5e-05,-1e-05,-5e-05,-9e-05,-2.9999999999999997e-05,-0.00011999999999999999,3
10217,10611,-0.00028,-0.00011,-5e-05,-1e-05,-5e-05,-9e-05,-2.9999999999999997e-05,-0.00011999999999999999,3
10218,10612,-0.00028,-0.00011,-5e-05,-1e-05,-5e-05,-9e-05,-2.9999999999999997e-05,-0.00011999999999999999,3
10219,10613,-0.00028,-0.00011,-5e-05,-1e-05,-5e-05,-9e-05,-2.9999999999999997e-05,-0.00011999999999999999,3
10220,10614,-0.00028,-0.00011,-5e-05,-1e-05,-5e-05,-9e-05,-2.9999999999999997e-05,-0.00011999999999999999,3
10221,10615,-0.00028,-0.00011,-5e-05,-1e-05,-5e-05,-9e-05,-2.9999999999999997e-05,-0.00011999999999999999,3
10222,10616,-0.00028,-0.00011,-5e-05,-1e-05,-5e-05,-9e-05,-2.9999999999999997e-05,-0.00011999999999999999,3
10223,10617,-0.00028,-0.00011,-5e-05,-1e-05,-5e-05,-9e-05,-2.9999999999999997e-05,-0.00011999999999999999,3
10224,10618,-0.00028,-0.00011,-5e-05,-1e-05,-5e-05,-9e-05,-2.9999999999999997e-05,-0.00011999999999999999,3
10225,10619,-0.00028,-0.00011,-5e-05,-1e-05,-5e-05,-9e-05,-2.9999999999999997e-05,-0.00011999999999999999,3
10226,10620,-0.00028,-0.00011,-5e-05,-1e-05,-5e-05,-9e-05,-2.9999999999999997e-05,-0.00011999999999999999,3
10227,10621,-0.00028,-0.00011,-5e-05,-1e-05,-5e-05,-9e-05,-2.9999999999999997e-05,-0.00011999999999999999,3
10228,10622,-0.00028,-0.00011,-5e-05,-1e-05,-5e-05,-9e-05,-2.9999999999999997e-05,-0.00011999999999999999,3
10229,10623,-0.00028,-0.00011,-5e-05,-1e-05,-5e-05,-9e-05,-2.9999999999999997e-05,-0.00011999999999999999,3
10230,10624,-0.00028,-0.00011,-5e-05,-1e-05,-5e-05,-9e-05,-2.9999999999999997e-05,-0.00011999999999999999,3
10231,10625,-0.00028,-0.00011,-5e-05,-1e-05,-5e-05,-9e-05,-2.9999999999999997e-05,-0.00011999999999999999,3
10232,10626,-0.00028,-0.00011,-5e-05,-1e-05,-5e-05,-9e-05,-2.9999999999999997e-05,-0.00011999999999999999,3
10233,10627,-0.00028,-0.00011,-5e-05,-1e-05,-5e-05,-9e-05,-2.9999999999999997e-05,-0.00011999999999999999,3
10234,10628,-0.00028,-0.00011,-5e-05,-1e-05,-5e-05,-9e-05,-2.9999999999999997e-05,-0.00011999999999999999,3
10235,10629,-0.00028,-0.00011,-5e-05,-1e-05,-5e-05,-9e-05,-2.9999999999999997e-05,-0.00011999999999999999,3
10236,10630,0.00021,7e-05,0.0,-4e-05,0.0,5e-05,5.9999999999999995e-05,-5.9999999999999995e-05,3
10237,10631,0.00021,7e-05,0.0,-4e-05,0.0,5e-05,5.9999999999999995e-05,-5.9999999999999995e-05,3
10238,10632,0.00026000000000000003,2.9999999999999997e-05,-2e-05,-2.9999999999999997e-05,2e-05,4e-05,2e-05,-5.9999999999999995e-05,3
10239,10633,0.00026000000000000003,2.9999999999999997e-05,-2e-05,-2.9999999999999997e-05,2e-05,4e-05,2e-05,-5.9999999999999995e-05,3
10240,10634,0.00026000000000000003,2.9999999999999997e-05,-2e-05,-2.9999999999999997e-05,2e-05,4e-05,2e-05,-5.9999999999999995e-05,3
10241,10635,0.00026000000000000003,2.9999999999999997e-05,-2e-05,-2.9999999999999997e-05,2e-05,4e-05,2e-05,-5.9999999999999995e-05,3
10242,10636,0.00026000000000000003,2.9999999999999997e-05,-2e-05,-2.9999999999999997e-05,2e-05,4e-05,2e-05,-5.9999999999999995e-05,3
10243,10638,0.00026000000000000003,2.9999999999999997e-05,-2e-05,-2.9999999999999997e-05,2e-05,4e-05,2e-05,-5.9999999999999995e-05,3
10244,10639,0.00026000000000000003,2.9999999999999997e-05,-2e-05,-2.9999999999999997e-05,2e-05,4e-05,2e-05,-5.9999999999999995e-05,3
10245,10640,0.00026000000000000003,2.9999999999999997e-05,-2e-05,-2.9999999999999997e-05,2e-05,4e-05,2e-05,-5.9999999999999995e-05,3
10246,10641,0.00026000000000000003,2.9999999999999997e-05,-2e-05,-2.9999999999999997e-05,2e-05,4e-05,2e-05,-5.9999999999999995e-05,3
10247,10642,0.00026000000000000003,2.9999999999999997e-05,-2e-05,-2.9999999999999997e-05,2e-05,4e-05,2e-05,-5.9999999999999995e-05,3
10248,10643,0.00026000000000000003,2.9999999999999997e-05,-2e-05,-2.9999999999999997e-05,2e-05,4e-05,2e-05,-5.9999999999999995e-05,3
10249,10644,0.0,1e-05,-2e-05,-2.9999999999999997e-05,-7e-05,-0.0001,-7e-05,-0.0001,3
10250,10645,7e-05,-1e-05,1e-05,0.0,2.9999999999999997e-05,-2e-05,-0.00015,-4e-05,3
10251,10646,7e-05,-1e-05,1e-05,0.0,2.9999999999999997e-05,-2e-05,-0.00015,-4e-05,3
10252,10647,7e-05,-1e-05,1e-05,0.0,2.9999999999999997e-05,-2e-05,-0.00015,-4e-05,3
10253,10648,7e-05,-1e-05,1e-05,0.0,2.9999999999999997e-05,-2e-05,-0.00015,-4e-05,3
10254,10649,7e-05,-1e-05,1e-05,0.0,2.9999999999999997e-05,-2e-05,-0.00015,-4e-05,3
10255,10650,7e-05,-1e-05,1e-05,0.0,2.9999999999999997e-05,-2e-05,-0.00015,-4e-05,3
10256,10651,0.00016,4e-05,-1e-05,-5e-05,-0.0002,0.0,-0.0001,0.0002,3
10257,10652,0.00016,4e-05,-1e-05,-5e-05,-0.0002,0.0,-0.0001,0.0002,3
10258,10653,0.00016,4e-05,-1e-05,-5e-05,-0.0002,0.0,-0.0001,0.0002,3
10259,10654,0.00016,4e-05,-1e-05,-5e-05,-0.0002,0.0,-0.0001,0.0002,3
10260,10655,0.00016,4e-05,-1e-05,-5e-05,-0.0002,0.0,-0.0001,0.0002,3
10261,10656,0.00016,4e-05,-1e-05,-5e-05,-0.0002,0.0,-0.0001,0.0002,3
10262,10657,0.00016,4e-05,-1e-05,-5e-05,-0.0002,0.0,-0.0001,0.0002,3
10263,10658,0.00016,4e-05,-1e-05,-5e-05,-0.0002,0.0,-0.0001,0.0002,3
10264,10659,0.00016,4e-05,-1e-05,-5e-05,-0.0002,0.0,-0.0001,0.0002,3
10265,10660,0.00016,4e-05,-1e-05,-5e-05,-0.0002,0.0,-0.0001,0.0002,3
10266,10661,0.00016,4e-05,-1e-05,-5e-05,-0.0002,0.0,-0.0001,0.0002,3
10267,10662,0.00016,4e-05,-1e-05,-5e-05,-0.0002,0.0,-0.0001,0.0002,3
10268,10663,0.00016,4e-05,-1e-05,-5e-05,-0.0002,0.0,-0.0001,0.0002,3
10269,10664,0.00016,4e-05,-1e-05,-5e-05,-0.0002,0.0,-0.0001,0.0002,3
10270,10665,0.00016,4e-05,-1e-05,-5e-05,-0.0002,0.0,-0.0001,0.0002,3
10271,10666,0.00016,4e-05,-1e-05,-5e-05,-0.0002,0.0,-0.0001,0.0002,3
10272,10667,0.00016,4e-05,-1e-05,-5e-05,-0.0002,0.0,-0.0001,0.0002,3
10273,10668,0.00042,0.0001,4e-05,4e-05,8e-05,5e-05,-4e-05,-0.0001,3
10274,10669,2e-05,1e-05,2.9999999999999997e-05,7e-05,0.00014,-4e-05,0.0,-1e-05,3
10275,10670,2e-05,1e-05,2.9999999999999997e-05,7e-05,0.00014,-4e-05,0.0,-1e-05,3
10276,10671,2e-05,1e-05,2.9999999999999997e-05,7e-05,0.00014,-4e-05,0.0,-1e-05,3
10277,10672,2e-05,1e-05,2.9999999999999997e-05,7e-05,0.00014,-4e-05,0.0,-1e-05,3
10278,10673,2e-05,1e-05,2.9999999999999997e-05,7e-05,0.00014,-4e-05,0.0,-1e-05,3
10279,10674,2e-05,1e-05,2.9999999999999997e-05,7e-05,0.00014,-4e-05,0.0,-1e-05,3
10280,10675,2e-05,1e-05,2.9999999999999997e-05,7e-05,0.00014,-4e-05,0.0,-1e-05,3
10281,10676,2e-05,1e-05,2.9999999999999997e-05,7e-05,0.00014,-4e-05,0.0,-1e-05,3
10282,10677,2e-05,1e-05,2.9999999999999997e-05,7e-05,0.00014,-4e-05,0.0,-1e-05,3
10283,10678,2e-05,1e-05,2.9999999999999997e-05,7e-05,0.00014,-4e-05,0.0,-1e-05,3
10284,10679,2e-05,1e-05,2.9999999999999997e-05,7e-05,0.00014,-4e-05,0.0,-1e-05,3
10285,10680,2e-05,1e-05,2.9999999999999997e-05,7e-05,0.00014,-4e-05,0.0,-1e-05,3
10286,10681,2e-05,1e-05,2.9999999999999997e-05,7e-05,0.00014,-4e-05,0.0,-1e-05,3
10287,10682,2e-05,1e-05,2.9999999999999997e-05,7e-05,0.00014,-4e-05,0.0,-1e-05,3
10288,10683,2e-05,1e-05,2.9999999999999997e-05,7e-05,0.00014,-4e-05,0.0,-1e-05,3
10289,10684,2e-05,1e-05,2.9999999999999997e-05,7e-05,0.00014,-4e-05,0.0,-1e-05,3
10290,10685,2e-05,1e-05,2.9999999999999997e-05,7e-05,0.00014,-4e-05,0.0,-1e-05,3
10291,10686,2e-05,1e-05,2.9999999999999997e-05,7e-05,0.00014,-4e-05,0.0,-1e-05,3
10292,10688,2e-05,1e-05,2.9999999999999997e-05,7e-05,0.00014,-4e-05,0.0,-1e-05,3
10293,10689,2e-05,1e-05,2.9999999999999997e-05,7e-05,0.00014,-4e-05,0.0,-1e-05,3
10294,10690,-0.0001,-5e-05,-5.9999999999999995e-05,-5.9999999999999995e-05,-0.00016,-0.00021,-0.0001,-0.00027,3
10295,10691,-0.0001,-5e-05,-5.9999999999999995e-05,-5.9999999999999995e-05,-0.00016,-0.00021,-0.0001,-0.00027,3
10296,10692,-0.00016,-5e-05,-2e-05,-2.9999999999999997e-05,0.0,-9e-05,0.0,0.00025,3
10297,10693,-0.00016,-5e-05,-2e-05,-2.9999999999999997e-05,0.0,-9e-05,0.0,0.00025,3
10298,10694,-0.00016,-5e-05,-2e-05,-2.9999999999999997e-05,0.0,-9e-05,0.0,0.00025,3
10299,10695,-0.00016,-5e-05,-2e-05,-2.9999999999999997e-05,0.0,-9e-05,0.0,0.00025,3
10300,10696,-0.00016,-5e-05,-2e-05,-2.9999999999999997e-05,0.0,-9e-05,0.0,0.00025,3
10301,10697,-0.00016,-5e-05,-2e-05,-2.9999999999999997e-05,0.0,-9e-05,0.0,0.00025,3
10302,10698,-0.00016,-5e-05,-2e-05,-2.9999999999999997e-05,0.0,-9e-05,0.0,0.00025,3
10303,10699,-0.00016,-5e-05,-2e-05,-2.9999999999999997e-05,0.0,-9e-05,0.0,0.00025,3
10304,10700,-0.00016,-5e-05,-2e-05,-2.9999999999999997e-05,0.0,-9e-05,0.0,0.00025,3
10305,10701,-0.00016,-5e-05,-2e-05,-2.9999999999999997e-05,0.0,-9e-05,0.0,0.00025,3
10306,10702,-0.00016,-5e-05,-2e-05,-2.9999999999999997e-05,0.0,-9e-05,0.0,0.00025,3
10307,10703,-0.00016,-5e-05,-2e-05,-2.9999999999999997e-05,0.0,-9e-05,0.0,0.00025,3
10308,10704,-0.0002,-5.9999999999999995e-05,1e-05,2.9999999999999997e-05,0.0,0.00011,-0.00018,-0.00033999999999999997,3
10309,10705,-0.00018,-2e-05,-4e-05,-2e-05,1e-05,-5.9999999999999995e-05,7e-05,0.00011,3
10310,10706,-0.00018,-2e-05,-4e-05,-2e-05,1e-05,-5.9999999999999995e-05,7e-05,0.00011,3
10311,10707,-0.00018,-2e-05,-4e-05,-2e-05,1e-05,-5.9999999999999995e-05,7e-05,0.00011,3
10312,10708,-0.00018,-2e-05,-4e-05,-2e-05,1e-05,-5.9999999999999995e-05,7e-05,0.00011,3
10313,10709,-0.00018,-2e-05,-4e-05,-2e-05,1e-05,-5.9999999999999995e-05,7e-05,0.00011,3
10314,10710,-0.00018,-2e-05,-4e-05,-2e-05,1e-05,-5.9999999999999995e-05,7e-05,0.00011,3
10315,10711,0.0002,2.9999999999999997e-05,-1e-05,-2e-05,-5.9999999999999995e-05,-7e-05,2.9999999999999997e-05,8e-05,3
10316,10712,0.0002,2.9999999999999997e-05,-1e-05,-2e-05,-5.9999999999999995e-05,-7e-05,2.9999999999999997e-05,8e-05,3
10317,10713,0.0002,2.9999999999999997e-05,-1e-05,-2e-05,-5.9999999999999995e-05,-7e-05,2.9999999999999997e-05,8e-05,3
10318,10714,0.0002,2.9999999999999997e-05,-1e-05,-2e-05,-5.9999999999999995e-05,-7e-05,2.9999999999999997e-05,8e-05,3
10319,10715,0.0002,2.9999999999999997e-05,-1e-05,-2e-05,-5.9999999999999995e-05,-7e-05,2.9999999999999997e-05,8e-05,3
10320,10716,0.0002,2.9999999999999997e-05,-1e-05,-2e-05,-5.9999999999999995e-05,-7e-05,2.9999999999999997e-05,8e-05,3
10321,10717,0.0002,2.9999999999999997e-05,-1e-05,-2e-05,-5.9999999999999995e-05,-7e-05,2.9999999999999997e-05,8e-05,3
10322,10718,0.0002,2.9999999999999997e-05,-1e-05,-2e-05,-5.9999999999999995e-05,-7e-05,2.9999999999999997e-05,8e-05,3
10323,10719,0.0002,2.9999999999999997e-05,-1e-05,-2e-05,-5.9999999999999995e-05,-7e-05,2.9999999999999997e-05,8e-05,3
10324,10720,0.0002,2.9999999999999997e-05,-1e-05,-2e-05,-5.9999999999999995e-05,-7e-05,2.9999999999999997e-05,8e-05,3
10325,10721,0.0002,2.9999999999999997e-05,-1e-05,-2e-05,-5.9999999999999995e-05,-7e-05,2.9999999999999997e-05,8e-05,3
10326,10722,0.0002,2.9999999999999997e-05,-1e-05,-2e-05,-5.9999999999999995e-05,-7e-05,2.9999999999999997e-05,8e-05,3
10327,10723,0.0002,2.9999999999999997e-05,-1e-05,-2e-05,-5.9999999999999995e-05,-7e-05,2.9999999999999997e-05,8e-05,3
10328,10724,0.0002,2.9999999999999997e-05,-1e-05,-2e-05,-5.9999999999999995e-05,-7e-05,2.9999999999999997e-05,8e-05,3
10329,10725,0.0002,2.9999999999999997e-05,-1e-05,-2e-05,-5.9999999999999995e-05,-7e-05,2.9999999999999997e-05,8e-05,3
10330,10726,0.0002,2.9999999999999997e-05,-1e-05,-2e-05,-5.9999999999999995e-05,-7e-05,2.9999999999999997e-05,8e-05,3
10331,10727,0.0002,2.9999999999999997e-05,-1e-05,-2e-05,-5.9999999999999995e-05,-7e-05,2.9999999999999997e-05,8e-05,3
10332,10728,0.0004,0.00011,2.9999999999999997e-05,2e-05,-5.9999999999999995e-05,0.0,0.0003,-0.00021,3
10333,10729,0.00058,2.9999999999999997e-05,2e-05,5.9999999999999995e-05,1e-05,-2.9999999999999997e-05,5e-05,0.00016,3
10334,10730,0.00058,2.9999999999999997e-05,2e-05,5.9999999999999995e-05,1e-05,-2.9999999999999997e-05,5e-05,0.00016,3
10335,10731,0.00058,2.9999999999999997e-05,2e-05,5.9999999999999995e-05,1e-05,-2.9999999999999997e-05,5e-05,0.00016,3
10336,10732,0.00058,2.9999999999999997e-05,2e-05,5.9999999999999995e-05,1e-05,-2.9999999999999997e-05,5e-05,0.00016,3
10337,10733,0.00058,2.9999999999999997e-05,2e-05,5.9999999999999995e-05,1e-05,-2.9999999999999997e-05,5e-05,0.00016,3
10338,10734,0.00058,2.9999999999999997e-05,2e-05,5.9999999999999995e-05,1e-05,-2.9999999999999997e-05,5e-05,0.00016,3
10339,10735,0.00058,2.9999999999999997e-05,2e-05,5.9999999999999995e-05,1e-05,-2.9999999999999997e-05,5e-05,0.00016,3
10340,10736,0.00058,2.9999999999999997e-05,2e-05,5.9999999999999995e-05,1e-05,-2.9999999999999997e-05,5e-05,0.00016,3
10341,10738,0.00058,2.9999999999999997e-05,2e-05,5.9999999999999995e-05,1e-05,-2.9999999999999997e-05,5e-05,0.00016,3
10342,10739,0.00058,2.9999999999999997e-05,2e-05,5.9999999999999995e-05,1e-05,-2.9999999999999997e-05,5e-05,0.00016,3
10343,10740,0.00058,2.9999999999999997e-05,2e-05,5.9999999999999995e-05,1e-05,-2.9999999999999997e-05,5e-05,0.00016,3
10344,10741,0.00058,2.9999999999999997e-05,2e-05,5.9999999999999995e-05,1e-05,-2.9999999999999997e-05,5e-05,0.00016,3
10345,10742,0.00058,2.9999999999999997e-05,2e-05,5.9999999999999995e-05,1e-05,-2.9999999999999997e-05,5e-05,0.00016,3
10346,10743,0.00058,2.9999999999999997e-05,2e-05,5.9999999999999995e-05,1e-05,-2.9999999999999997e-05,5e-05,0.00016,3
10347,10744,0.00058,2.9999999999999997e-05,2e-05,5.9999999999999995e-05,1e-05,-2.9999999999999997e-05,5e-05,0.00016,3
10348,10745,0.00058,2.9999999999999997e-05,2e-05,5.9999999999999995e-05,1e-05,-2.9999999999999997e-05,5e-05,0.00016,3
10349,10746,0.00058,2.9999999999999997e-05,2e-05,5.9999999999999995e-05,1e-05,-2.9999999999999997e-05,5e-05,0.00016,3
10350,10747,0.00058,2.9999999999999997e-05,2e-05,5.9999999999999995e-05,1e-05,-2.9999999999999997e-05,5e-05,0.00016,3
10351,10748,0.00058,2.9999999999999997e-05,2e-05,5.9999999999999995e-05,1e-05,-2.9999999999999997e-05,5e-05,0.00016,3
10352,10749,0.00058,2.9999999999999997e-05,2e-05,5.9999999999999995e-05,1e-05,-2.9999999999999997e-05,5e-05,0.00016,3
10353,10750,-0.00018999999999999998,5e-05,-2e-05,-8e-05,-5e-05,8e-05,0.00011,-8e-05,3
10354,10751,-0.00018999999999999998,5e-05,-2e-05,-8e-05,-5e-05,8e-05,0.00011,-8e-05,3
10355,10752,2e-05,2e-05,-2e-05,-5e-05,1e-05,5.9999999999999995e-05,0.00016,0.0001,3
10356,10753,2e-05,2e-05,-2e-05,-5e-05,1e-05,5.9999999999999995e-05,0.00016,0.0001,3
10357,10754,2e-05,2e-05,-2e-05,-5e-05,1e-05,5.9999999999999995e-05,0.00016,0.0001,3
10358,10755,2e-05,2e-05,-2e-05,-5e-05,1e-05,5.9999999999999995e-05,0.00016,0.0001,3
10359,10756,2e-05,2e-05,-2e-05,-5e-05,1e-05,5.9999999999999995e-05,0.00016,0.0001,3
10360,10757,2e-05,2e-05,-2e-05,-5e-05,1e-05,5.9999999999999995e-05,0.00016,0.0001,3
10361,10758,2e-05,2e-05,-2e-05,-5e-05,1e-05,5.9999999999999995e-05,0.00016,0.0001,3
10362,10759,2e-05,2e-05,-2e-05,-5e-05,1e-05,5.9999999999999995e-05,0.00016,0.0001,3
10363,10760,2e-05,2e-05,-2e-05,-5e-05,1e-05,5.9999999999999995e-05,0.00016,0.0001,3
10364,10761,2e-05,2e-05,-2e-05,-5e-05,1e-05,5.9999999999999995e-05,0.00016,0.0001,3
10365,10762,2e-05,2e-05,-2e-05,-5e-05,1e-05,5.9999999999999995e-05,0.00016,0.0001,3
10366,10763,2e-05,2e-05,-2e-05,-5e-05,1e-05,5.9999999999999995e-05,0.00016,0.0001,3
10367,10764,-0.00013000000000000002,-5e-05,-5.9999999999999995e-05,-0.00013000000000000002,-9e-05,-7e-05,1e-05,4e-05,3
10368,10765,-0.00013000000000000002,-5e-05,-5.9999999999999995e-05,-0.00013000000000000002,-9e-05,-7e-05,1e-05,4e-05,3
10369,10766,-0.00013000000000000002,-5e-05,-5.9999999999999995e-05,-0.00013000000000000002,-9e-05,-7e-05,1e-05,4e-05,3
10370,10767,-0.00013000000000000002,-5e-05,-5.9999999999999995e-05,-0.00013000000000000002,-9e-05,-7e-05,1e-05,4e-05,3
10371,10768,-0.00013000000000000002,-5e-05,-5.9999999999999995e-05,-0.00013000000000000002,-9e-05,-7e-05,1e-05,4e-05,3
10372,10769,-0.00013000000000000002,-5e-05,-5.9999999999999995e-05,-0.00013000000000000002,-9e-05,-7e-05,1e-05,4e-05,3
10373,10770,-0.00013000000000000002,-5e-05,-5.9999999999999995e-05,-0.00013000000000000002,-9e-05,-7e-05,1e-05,4e-05,3
10374,10771,-0.0002,-2.9999999999999997e-05,-5.9999999999999995e-05,-0.00013000000000000002,-0.00016999999999999999,-0.00016,-0.00018,-0.0001,3
10375,10772,-0.0002,-2.9999999999999997e-05,-5.9999999999999995e-05,-0.00013000000000000002,-0.00016999999999999999,-0.00016,-0.00018,-0.0001,3
10376,10773,-0.0002,-2.9999999999999997e-05,-5.9999999999999995e-05,-0.00013000000000000002,-0.00016999999999999999,-0.00016,-0.00018,-0.0001,3
10377,10774,-0.0002,-2.9999999999999997e-05,-5.9999999999999995e-05,-0.00013000000000000002,-0.00016999999999999999,-0.00016,-0.00018,-0.0001,3
10378,10775,-0.0002,-2.9999999999999997e-05,-5.9999999999999995e-05,-0.00013000000000000002,-0.00016999999999999999,-0.00016,-0.00018,-0.0001,3
10379,10776,-0.0002,-2.9999999999999997e-05,-5.9999999999999995e-05,-0.00013000000000000002,-0.00016999999999999999,-0.00016,-0.00018,-0.0001,3
10380,10777,-0.0002,-2.9999999999999997e-05,-5.9999999999999995e-05,-0.00013000000000000002,-0.00016999999999999999,-0.00016,-0.00018,-0.0001,3
10381,10778,-0.0002,-2.9999999999999997e-05,-5.9999999999999995e-05,-0.00013000000000000002,-0.00016999999999999999,-0.00016,-0.00018,-0.0001,3
10382,10779,-0.0002,-2.9999999999999997e-05,-5.9999999999999995e-05,-0.00013000000000000002,-0.00016999999999999999,-0.00016,-0.00018,-0.0001,3
10383,10780,-0.0002,-2.9999999999999997e-05,-5.9999999999999995e-05,-0.00013000000000000002,-0.00016999999999999999,-0.00016,-0.00018,-0.0001,3
10384,10781,-0.0002,-2.9999999999999997e-05,-5.9999999999999995e-05,-0.00013000000000000002,-0.00016999999999999999,-0.00016,-0.00018,-0.0001,3
10385,10782,-0.0002,-2.9999999999999997e-05,-5.9999999999999995e-05,-0.00013000000000000002,-0.00016999999999999999,-0.00016,-0.00018,-0.0001,3
10386,10783,-0.0002,-2.9999999999999997e-05,-5.9999999999999995e-05,-0.00013000000000000002,-0.00016999999999999999,-0.00016,-0.00018,-0.0001,3
10387,10784,-0.0002,-2.9999999999999997e-05,-5.9999999999999995e-05,-0.00013000000000000002,-0.00016999999999999999,-0.00016,-0.00018,-0.0001,3
10388,10785,-0.0002,-2.9999999999999997e-05,-5.9999999999999995e-05,-0.00013000000000000002,-0.00016999999999999999,-0.00016,-0.00018,-0.0001,3
10389,10786,-0.0002,-2.9999999999999997e-05,-5.9999999999999995e-05,-0.00013000000000000002,-0.00016999999999999999,-0.00016,-0.00018,-0.0001,3
10390,10788,-0.0002,-2.9999999999999997e-05,-5.9999999999999995e-05,-0.00013000000000000002,-0.00016999999999999999,-0.00016,-0.00018,-0.0001,3
10391,10789,-0.0002,-2.9999999999999997e-05,-5.9999999999999995e-05,-0.00013000000000000002,-0.00016999999999999999,-0.00016,-0.00018,-0.0001,3
10392,10790,-0.0002,-2.9999999999999997e-05,-5.9999999999999995e-05,-0.00013000000000000002,-0.00016999999999999999,-0.00016,-0.00018,-0.0001,3
10393,10791,-0.0002,-2.9999999999999997e-05,-5.9999999999999995e-05,-0.00013000000000000002,-0.00016999999999999999,-0.00016,-0.00018,-0.0001,3
10394,10792,-0.0002,-2.9999999999999997e-05,-5.9999999999999995e-05,-0.00013000000000000002,-0.00016999999999999999,-0.00016,-0.00018,-0.0001,3
10395,10793,-0.0002,-2.9999999999999997e-05,-5.9999999999999995e-05,-0.00013000000000000002,-0.00016999999999999999,-0.00016,-0.00018,-0.0001,3
10396,10794,-0.0002,-2.9999999999999997e-05,-5.9999999999999995e-05,-0.00013000000000000002,-0.00016999999999999999,-0.00016,-0.00018,-0.0001,3
10397,10795,-0.00023999999999999998,0.0,1e-05,5e-05,7e-05,5e-05,0.00011999999999999999,-0.00025,3
10398,10796,-0.00023999999999999998,0.0,1e-05,5e-05,7e-05,5e-05,0.00011999999999999999,-0.00025,3
10399,10797,9e-05,2e-05,1e-05,4e-05,0.0001,0.00027,0.00011999999999999999,2e-05,3
10400,10798,9e-05,2e-05,1e-05,4e-05,0.0001,0.00027,0.00011999999999999999,2e-05,3
10401,10799,9e-05,2e-05,1e-05,4e-05,0.0001,0.00027,0.00011999999999999999,2e-05,3
10402,10800,9e-05,2e-05,1e-05,4e-05,0.0001,0.00027,0.00011999999999999999,2e-05,3
10403,10801,9e-05,2e-05,1e-05,4e-05,0.0001,0.00027,0.00011999999999999999,2e-05,3
10404,10802,9e-05,2e-05,1e-05,4e-05,0.0001,0.00027,0.00011999999999999999,2e-05,3
10405,10803,9e-05,2e-05,1e-05,4e-05,0.0001,0.00027,0.00011999999999999999,2e-05,3
10406,10804,9e-05,2e-05,1e-05,4e-05,0.0001,0.00027,0.00011999999999999999,2e-05,3
10407,10805,9e-05,2e-05,1e-05,4e-05,0.0001,0.00027,0.00011999999999999999,2e-05,3
10408,10806,9e-05,2e-05,1e-05,4e-05,0.0001,0.00027,0.00011999999999999999,2e-05,3
10409,10807,9e-05,2e-05,1e-05,4e-05,0.0001,0.00027,0.00011999999999999999,2e-05,3
10410,10808,9e-05,2e-05,1e-05,4e-05,0.0001,0.00027,0.00011999999999999999,2e-05,3
10411,10809,9e-05,2e-05,1e-05,4e-05,0.0001,0.00027,0.00011999999999999999,2e-05,3
10412,10810,-9e-05,-7e-05,1e-05,2.9999999999999997e-05,2e-05,-5e-05,-0.00018,5.9999999999999995e-05,3
10413,10811,-9e-05,-7e-05,1e-05,2.9999999999999997e-05,2e-05,-5e-05,-0.00018,5.9999999999999995e-05,3
10414,10812,-8e-05,5e-05,2e-05,0.0,0.00011999999999999999,0.00015,0.00031,7e-05,3
10415,10813,-8e-05,5e-05,2e-05,0.0,0.00011999999999999999,0.00015,0.00031,7e-05,3
10416,10814,-8e-05,5e-05,2e-05,0.0,0.00011999999999999999,0.00015,0.00031,7e-05,3
10417,10815,-8e-05,5e-05,2e-05,0.0,0.00011999999999999999,0.00015,0.00031,7e-05,3
10418,10816,-8e-05,5e-05,2e-05,0.0,0.00011999999999999999,0.00015,0.00031,7e-05,3
10419,10817,-8e-05,5e-05,2e-05,0.0,0.00011999999999999999,0.00015,0.00031,7e-05,3
10420,10818,-8e-05,5e-05,2e-05,0.0,0.00011999999999999999,0.00015,0.00031,7e-05,3
10421,10819,-8e-05,5e-05,2e-05,0.0,0.00011999999999999999,0.00015,0.00031,7e-05,3
10422,10820,-8e-05,5e-05,2e-05,0.0,0.00011999999999999999,0.00015,0.00031,7e-05,3
10423,10821,-8e-05,5e-05,2e-05,0.0,0.00011999999999999999,0.00015,0.00031,7e-05,3
10424,10822,-8e-05,5e-05,2e-05,0.0,0.00011999999999999999,0.00015,0.00031,7e-05,3
10425,10823,-8e-05,5e-05,2e-05,0.0,0.00011999999999999999,0.00015,0.00031,7e-05,3
10426,10824,-8e-05,5e-05,2e-05,0.0,0.00011999999999999999,0.00015,0.00031,7e-05,3
10427,10825,-8e-05,-0.0001,-2e-05,2e-05,5e-05,9e-05,2.9999999999999997e-05,0.0,3
10428,10826,-8e-05,-0.0001,-2e-05,2e-05,5e-05,9e-05,2.9999999999999997e-05,0.0,3
10429,10827,-8e-05,-0.0001,-2e-05,2e-05,5e-05,9e-05,2.9999999999999997e-05,0.0,3
10430,10828,-8e-05,-0.0001,-2e-05,2e-05,5e-05,9e-05,2.9999999999999997e-05,0.0,3
10431,10829,-8e-05,-0.0001,-2e-05,2e-05,5e-05,9e-05,2.9999999999999997e-05,0.0,3
10432,10830,-8e-05,-0.0001,-2e-05,2e-05,5e-05,9e-05,2.9999999999999997e-05,0.0,3
10433,10831,5.9999999999999995e-05,7e-05,4e-05,2.9999999999999997e-05,2e-05,1e-05,-7e-05,-5.9999999999999995e-05,3
10434,10832,5.9999999999999995e-05,7e-05,4e-05,2.9999999999999997e-05,2e-05,1e-05,-7e-05,-5.9999999999999995e-05,3
10435,10833,5.9999999999999995e-05,7e-05,4e-05,2.9999999999999997e-05,2e-05,1e-05,-7e-05,-5.9999999999999995e-05,3
10436,10834,5.9999999999999995e-05,7e-05,4e-05,2.9999999999999997e-05,2e-05,1e-05,-7e-05,-5.9999999999999995e-05,3
10437,10835,5.9999999999999995e-05,7e-05,4e-05,2.9999999999999997e-05,2e-05,1e-05,-7e-05,-5.9999999999999995e-05,3
10438,10836,5.9999999999999995e-05,7e-05,4e-05,2.9999999999999997e-05,2e-05,1e-05,-7e-05,-5.9999999999999995e-05,3
10439,10838,5.9999999999999995e-05,7e-05,4e-05,2.9999999999999997e-05,2e-05,1e-05,-7e-05,-5.9999999999999995e-05,3
10440,10839,5.9999999999999995e-05,7e-05,4e-05,2.9999999999999997e-05,2e-05,1e-05,-7e-05,-5.9999999999999995e-05,3
10441,10840,5.9999999999999995e-05,7e-05,4e-05,2.9999999999999997e-05,2e-05,1e-05,-7e-05,-5.9999999999999995e-05,3
10442,10841,5.9999999999999995e-05,7e-05,4e-05,2.9999999999999997e-05,2e-05,1e-05,-7e-05,-5.9999999999999995e-05,3
10443,10842,5.9999999999999995e-05,7e-05,4e-05,2.9999999999999997e-05,2e-05,1e-05,-7e-05,-5.9999999999999995e-05,3
10444,10843,5.9999999999999995e-05,7e-05,4e-05,2.9999999999999997e-05,2e-05,1e-05,-7e-05,-5.9999999999999995e-05,3
10445,10844,5.9999999999999995e-05,7e-05,4e-05,2.9999999999999997e-05,2e-05,1e-05,-7e-05,-5.9999999999999995e-05,3
10446,10845,5.9999999999999995e-05,7e-05,4e-05,2.9999999999999997e-05,2e-05,1e-05,-7e-05,-5.9999999999999995e-05,3
10447,10846,5.9999999999999995e-05,7e-05,4e-05,2.9999999999999997e-05,2e-05,1e-05,-7e-05,-5.9999999999999995e-05,3
10448,10847,5.9999999999999995e-05,7e-05,4e-05,2.9999999999999997e-05,2e-05,1e-05,-7e-05,-5.9999999999999995e-05,3
10449,10848,5.9999999999999995e-05,7e-05,4e-05,2.9999999999999997e-05,2e-05,1e-05,-7e-05,-5.9999999999999995e-05,3
10450,10849,5.9999999999999995e-05,7e-05,4e-05,2.9999999999999997e-05,2e-05,1e-05,-7e-05,-5.9999999999999995e-05,3
10451,10850,5.9999999999999995e-05,7e-05,4e-05,2.9999999999999997e-05,2e-05,1e-05,-7e-05,-5.9999999999999995e-05,3
10452,10851,5.9999999999999995e-05,7e-05,4e-05,2.9999999999999997e-05,2e-05,1e-05,-7e-05,-5.9999999999999995e-05,3
10453,10852,5.9999999999999995e-05,7e-05,4e-05,2.9999999999999997e-05,2e-05,1e-05,-7e-05,-5.9999999999999995e-05,3
10454,10853,5.9999999999999995e-05,7e-05,4e-05,2.9999999999999997e-05,2e-05,1e-05,-7e-05,-5.9999999999999995e-05,3
10455,10854,5.9999999999999995e-05,7e-05,4e-05,2.9999999999999997e-05,2e-05,1e-05,-7e-05,-5.9999999999999995e-05,3
10456,10855,5.9999999999999995e-05,7e-05,4e-05,2.9999999999999997e-05,2e-05,1e-05,-7e-05,-5.9999999999999995e-05,3
10457,10856,8e-05,-1e-05,-2.9999999999999997e-05,-2.9999999999999997e-05,-8e-05,-8e-05,-5.9999999999999995e-05,0.00028,3
10458,10857,0.00029,4e-05,7e-05,9e-05,5.9999999999999995e-05,-5.9999999999999995e-05,-0.0001,0.0,3
10459,10858,0.00029,4e-05,7e-05,9e-05,5.9999999999999995e-05,-5.9999999999999995e-05,-0.0001,0.0,3
10460,10859,0.00029,4e-05,7e-05,9e-05,5.9999999999999995e-05,-5.9999999999999995e-05,-0.0001,0.0,3
10461,10860,0.00029,4e-05,7e-05,9e-05,5.9999999999999995e-05,-5.9999999999999995e-05,-0.0001,0.0,3
10462,10861,0.00029,4e-05,7e-05,9e-05,5.9999999999999995e-05,-5.9999999999999995e-05,-0.0001,0.0,3
10463,10862,0.00029,4e-05,7e-05,9e-05,5.9999999999999995e-05,-5.9999999999999995e-05,-0.0001,0.0,3
10464,10863,0.00029,4e-05,7e-05,9e-05,5.9999999999999995e-05,-5.9999999999999995e-05,-0.0001,0.0,3
10465,10864,0.00029,4e-05,7e-05,9e-05,5.9999999999999995e-05,-5.9999999999999995e-05,-0.0001,0.0,3
10466,10865,0.00029,4e-05,7e-05,9e-05,5.9999999999999995e-05,-5.9999999999999995e-05,-0.0001,0.0,3
10467,10866,0.00029,4e-05,7e-05,9e-05,5.9999999999999995e-05,-5.9999999999999995e-05,-0.0001,0.0,3
10468,10867,0.00029,4e-05,7e-05,9e-05,5.9999999999999995e-05,-5.9999999999999995e-05,-0.0001,0.0,3
10469,10868,0.00029,4e-05,7e-05,9e-05,5.9999999999999995e-05,-5.9999999999999995e-05,-0.0001,0.0,3
10470,10869,0.00029,4e-05,7e-05,9e-05,5.9999999999999995e-05,-5.9999999999999995e-05,-0.0001,0.0,3
10471,10870,-8e-05,-4e-05,-5.9999999999999995e-05,-0.0001,-0.00016999999999999999,-2e-05,-2.9999999999999997e-05,0.0,3
10472,10871,-8e-05,-4e-05,-5.9999999999999995e-05,-0.0001,-0.00016999999999999999,-2e-05,-2.9999999999999997e-05,0.0,3
10473,10872,-0.00021,-5.9999999999999995e-05,-2e-05,1e-05,2e-05,0.0,-0.00033,-0.00032,3
10474,10873,-0.00021,-5.9999999999999995e-05,-2e-05,1e-05,2e-05,0.0,-0.00033,-0.00032,3
10475,10874,-0.00021,-5.9999999999999995e-05,-2e-05,1e-05,2e-05,0.0,-0.00033,-0.00032,3
10476,10875,-0.00021,-5.9999999999999995e-05,-2e-05,1e-05,2e-05,0.0,-0.00033,-0.00032,3
10477,10876,-0.00021,-5.9999999999999995e-05,-2e-05,1e-05,2e-05,0.0,-0.00033,-0.00032,3
10478,10877,-0.00021,-5.9999999999999995e-05,-2e-05,1e-05,2e-05,0.0,-0.00033,-0.00032,3
10479,10878,-0.00021,-5.9999999999999995e-05,-2e-05,1e-05,2e-05,0.0,-0.00033,-0.00032,3
10480,10879,-0.00021,-5.9999999999999995e-05,-2e-05,1e-05,2e-05,0.0,-0.00033,-0.00032,3
10481,10880,-0.00021,-5.9999999999999995e-05,-2e-05,1e-05,2e-05,0.0,-0.00033,-0.00032,3
10482,10881,-0.00021,-5.9999999999999995e-05,-2e-05,1e-05,2e-05,0.0,-0.00033,-0.00032,3
10483,10882,-0.00021,-5.9999999999999995e-05,-2e-05,1e-05,2e-05,0.0,-0.00033,-0.00032,3
10484,10883,-0.00021,-5.9999999999999995e-05,-2e-05,1e-05,2e-05,0.0,-0.00033,-0.00032,3
10485,10884,0.00011999999999999999,5.9999999999999995e-05,2e-05,2.9999999999999997e-05,4e-05,-5.9999999999999995e-05,7e-05,0.00015,3
10486,10885,-0.00011999999999999999,-5.9999999999999995e-05,1e-05,7e-05,0.00018,0.00014,-2.9999999999999997e-05,4e-05,3
10487,10886,-0.00011999999999999999,-5.9999999999999995e-05,1e-05,7e-05,0.00018,0.00014,-2.9999999999999997e-05,4e-05,3
10488,10888,-0.00011999999999999999,-5.9999999999999995e-05,1e-05,7e-05,0.00018,0.00014,-2.9999999999999997e-05,4e-05,3
10489,10889,-0.00011999999999999999,-5.9999999999999995e-05,1e-05,7e-05,0.00018,0.00014,-2.9999999999999997e-05,4e-05,3
10490,10890,-0.00011999999999999999,-5.9999999999999995e-05,1e-05,7e-05,0.00018,0.00014,-2.9999999999999997e-05,4e-05,3
10491,10891,-2e-05,2e-05,0.0,2e-05,7e-05,7e-05,-1e-05,5.9999999999999995e-05,3
10492,10892,-2e-05,2e-05,0.0,2e-05,7e-05,7e-05,-1e-05,5.9999999999999995e-05,3
10493,10893,-2e-05,2e-05,0.0,2e-05,7e-05,7e-05,-1e-05,5.9999999999999995e-05,3
10494,10894,-2e-05,2e-05,0.0,2e-05,7e-05,7e-05,-1e-05,5.9999999999999995e-05,3
10495,10895,-2e-05,2e-05,0.0,2e-05,7e-05,7e-05,-1e-05,5.9999999999999995e-05,3
10496,10896,-2e-05,2e-05,0.0,2e-05,7e-05,7e-05,-1e-05,5.9999999999999995e-05,3
10497,10897,-2e-05,2e-05,0.0,2e-05,7e-05,7e-05,-1e-05,5.9999999999999995e-05,3
10498,10898,-2e-05,2e-05,0.0,2e-05,7e-05,7e-05,-1e-05,5.9999999999999995e-05,3
10499,10899,-2e-05,2e-05,0.0,2e-05,7e-05,7e-05,-1e-05,5.9999999999999995e-05,3
10500,10900,-2e-05,2e-05,0.0,2e-05,7e-05,7e-05,-1e-05,5.9999999999999995e-05,3
10501,10901,-2e-05,2e-05,0.0,2e-05,7e-05,7e-05,-1e-05,5.9999999999999995e-05,3
10502,10902,-2e-05,2e-05,0.0,2e-05,7e-05,7e-05,-1e-05,5.9999999999999995e-05,3
10503,10903,-2e-05,2e-05,0.0,2e-05,7e-05,7e-05,-1e-05,5.9999999999999995e-05,3
10504,10904,-2e-05,2e-05,0.0,2e-05,7e-05,7e-05,-1e-05,5.9999999999999995e-05,3
10505,10905,-2e-05,2e-05,0.0,2e-05,7e-05,7e-05,-1e-05,5.9999999999999995e-05,3
10506,10906,-2e-05,2e-05,0.0,2e-05,7e-05,7e-05,-1e-05,5.9999999999999995e-05,3
10507,10907,-2e-05,2e-05,0.0,2e-05,7e-05,7e-05,-1e-05,5.9999999999999995e-05,3
10508,10908,-0.00015,-5.9999999999999995e-05,-2e-05,1e-05,8e-05,-2.9999999999999997e-05,-0.00014,-0.00031,3
10509,10909,-5.9999999999999995e-05,2e-05,0.0,-4e-05,-0.00015,-0.0002,-4e-05,-0.0001,3
10510,10910,-5.9999999999999995e-05,2e-05,0.0,-4e-05,-0.00015,-0.0002,-4e-05,-0.0001,3
10511,10911,-5.9999999999999995e-05,2e-05,0.0,-4e-05,-0.00015,-0.0002,-4e-05,-0.0001,3
10512,10912,-5.9999999999999995e-05,2e-05,0.0,-4e-05,-0.00015,-0.0002,-4e-05,-0.0001,3
10513,10913,-5.9999999999999995e-05,2e-05,0.0,-4e-05,-0.00015,-0.0002,-4e-05,-0.0001,3
10514,10914,-5.9999999999999995e-05,2e-05,0.0,-4e-05,-0.00015,-0.0002,-4e-05,-0.0001,3
10515,10915,-5.9999999999999995e-05,2e-05,0.0,-4e-05,-0.00015,-0.0002,-4e-05,-0.0001,3
10516,10916,-5.9999999999999995e-05,2e-05,0.0,-4e-05,-0.00015,-0.0002,-4e-05,-0.0001,3
10517,10917,-5.9999999999999995e-05,2e-05,0.0,-4e-05,-0.00015,-0.0002,-4e-05,-0.0001,3
10518,10918,-5.9999999999999995e-05,2e-05,0.0,-4e-05,-0.00015,-0.0002,-4e-05,-0.0001,3
10519,10919,-5.9999999999999995e-05,2e-05,0.0,-4e-05,-0.00015,-0.0002,-4e-05,-0.0001,3
10520,10920,-5.9999999999999995e-05,2e-05,0.0,-4e-05,-0.00015,-0.0002,-4e-05,-0.0001,3
10521,10921,-5.9999999999999995e-05,2e-05,0.0,-4e-05,-0.00015,-0.0002,-4e-05,-0.0001,3
10522,10922,-5.9999999999999995e-05,2e-05,0.0,-4e-05,-0.00015,-0.0002,-4e-05,-0.0001,3
10523,10923,-5.9999999999999995e-05,2e-05,0.0,-4e-05,-0.00015,-0.0002,-4e-05,-0.0001,3
10524,10924,-5.9999999999999995e-05,2e-05,0.0,-4e-05,-0.00015,-0.0002,-4e-05,-0.0001,3
10525,10925,-5.9999999999999995e-05,2e-05,0.0,-4e-05,-0.00015,-0.0002,-4e-05,-0.0001,3
10526,10926,-5.9999999999999995e-05,2e-05,0.0,-4e-05,-0.00015,-0.0002,-4e-05,-0.0001,3
10527,10927,-5.9999999999999995e-05,2e-05,0.0,-4e-05,-0.00015,-0.0002,-4e-05,-0.0001,3
10528,10928,-5.9999999999999995e-05,2e-05,0.0,-4e-05,-0.00015,-0.0002,-4e-05,-0.0001,3
10529,10929,-5.9999999999999995e-05,2e-05,0.0,-4e-05,-0.00015,-0.0002,-4e-05,-0.0001,3
10530,10930,0.00016,-2e-05,2e-05,5e-05,5e-05,0.0,8e-05,7e-05,3
10531,10931,0.00016,-2e-05,2e-05,5e-05,5e-05,0.0,8e-05,7e-05,3
10532,10932,-5.9999999999999995e-05,-5e-05,-5e-05,-7e-05,-0.00011,-0.00011999999999999999,-0.00011999999999999999,-0.00028,3
10533,10933,-5.9999999999999995e-05,-5e-05,-5e-05,-7e-05,-0.00011,-0.00011999999999999999,-0.00011999999999999999,-0.00028,3
10534,10934,-5.9999999999999995e-05,-5e-05,-5e-05,-7e-05,-0.00011,-0.00011999999999999999,-0.00011999999999999999,-0.00028,3
10535,10935,-5.9999999999999995e-05,-5e-05,-5e-05,-7e-05,-0.00011,-0.00011999999999999999,-0.00011999999999999999,-0.00028,3
10536,10936,-5.9999999999999995e-05,-5e-05,-5e-05,-7e-05,-0.00011,-0.00011999999999999999,-0.00011999999999999999,-0.00028,3
10537,10938,-5.9999999999999995e-05,-5e-05,-5e-05,-7e-05,-0.00011,-0.00011999999999999999,-0.00011999999999999999,-0.00028,3
10538,10939,-5.9999999999999995e-05,-5e-05,-5e-05,-7e-05,-0.00011,-0.00011999999999999999,-0.00011999999999999999,-0.00028,3
10539,10940,-5.9999999999999995e-05,-5e-05,-5e-05,-7e-05,-0.00011,-0.00011999999999999999,-0.00011999999999999999,-0.00028,3
10540,10941,-5.9999999999999995e-05,-5e-05,-5e-05,-7e-05,-0.00011,-0.00011999999999999999,-0.00011999999999999999,-0.00028,3
10541,10942,-5.9999999999999995e-05,-5e-05,-5e-05,-7e-05,-0.00011,-0.00011999999999999999,-0.00011999999999999999,-0.00028,3
10542,10943,-5.9999999999999995e-05,-5e-05,-5e-05,-7e-05,-0.00011,-0.00011999999999999999,-0.00011999999999999999,-0.00028,3
10543,10944,0.00032,5.9999999999999995e-05,0.0,-2e-05,-2e-05,-2e-05,4e-05,0.0002,3
10544,10945,0.00032,5.9999999999999995e-05,0.0,-2e-05,-2e-05,-2e-05,4e-05,0.0002,3
10545,10946,0.00032,5.9999999999999995e-05,0.0,-2e-05,-2e-05,-2e-05,4e-05,0.0002,3
10546,10947,0.00032,5.9999999999999995e-05,0.0,-2e-05,-2e-05,-2e-05,4e-05,0.0002,3
10547,10948,0.00032,5.9999999999999995e-05,0.0,-2e-05,-2e-05,-2e-05,4e-05,0.0002,3
10548,10949,0.00032,5.9999999999999995e-05,0.0,-2e-05,-2e-05,-2e-05,4e-05,0.0002,3
10549,10950,0.00032,5.9999999999999995e-05,0.0,-2e-05,-2e-05,-2e-05,4e-05,0.0002,3
10550,10951,0.00032,5.9999999999999995e-05,0.0,-2e-05,-2e-05,-2e-05,4e-05,0.0002,3
10551,10952,0.00032,5.9999999999999995e-05,0.0,-2e-05,-2e-05,-2e-05,4e-05,0.0002,3
10552,10953,-4e-05,5.9999999999999995e-05,1e-05,1e-05,-4e-05,2.9999999999999997e-05,7e-05,-5.9999999999999995e-05,3
10553,10954,-4e-05,5.9999999999999995e-05,1e-05,1e-05,-4e-05,2.9999999999999997e-05,7e-05,-5.9999999999999995e-05,3
10554,10955,-4e-05,5.9999999999999995e-05,1e-05,1e-05,-4e-05,2.9999999999999997e-05,7e-05,-5.9999999999999995e-05,3
10555,10956,-4e-05,5.9999999999999995e-05,1e-05,1e-05,-4e-05,2.9999999999999997e-05,7e-05,-5.9999999999999995e-05,3
10556,10957,-4e-05,5.9999999999999995e-05,1e-05,1e-05,-4e-05,2.9999999999999997e-05,7e-05,-5.9999999999999995e-05,3
10557,10958,-4e-05,5.9999999999999995e-05,1e-05,1e-05,-4e-05,2.9999999999999997e-05,7e-05,-5.9999999999999995e-05,3
10558,10959,-4e-05,5.9999999999999995e-05,1e-05,1e-05,-4e-05,2.9999999999999997e-05,7e-05,-5.9999999999999995e-05,3
10559,10960,-4e-05,5.9999999999999995e-05,1e-05,1e-05,-4e-05,2.9999999999999997e-05,7e-05,-5.9999999999999995e-05,3
10560,10961,-4e-05,5.9999999999999995e-05,1e-05,1e-05,-4e-05,2.9999999999999997e-05,7e-05,-5.9999999999999995e-05,3
10561,10962,-4e-05,5.9999999999999995e-05,1e-05,1e-05,-4e-05,2.9999999999999997e-05,7e-05,-5.9999999999999995e-05,3
10562,10963,-4e-05,5.9999999999999995e-05,1e-05,1e-05,-4e-05,2.9999999999999997e-05,7e-05,-5.9999999999999995e-05,3
10563,10964,-4e-05,5.9999999999999995e-05,1e-05,1e-05,-4e-05,2.9999999999999997e-05,7e-05,-5.9999999999999995e-05,3
10564,10965,-4e-05,5.9999999999999995e-05,1e-05,1e-05,-4e-05,2.9999999999999997e-05,7e-05,-5.9999999999999995e-05,3
10565,10966,-4e-05,5.9999999999999995e-05,1e-05,1e-05,-4e-05,2.9999999999999997e-05,7e-05,-5.9999999999999995e-05,3
10566,10967,-0.0004,-9e-05,1e-05,0.0,-5e-05,5.9999999999999995e-05,1e-05,-2e-05,3
10567,10968,-0.0004,-9e-05,1e-05,0.0,-5e-05,5.9999999999999995e-05,1e-05,-2e-05,3
10568,10969,0.0,-1e-05,-2.9999999999999997e-05,-2.9999999999999997e-05,0.0,-2.9999999999999997e-05,0.0,-5.9999999999999995e-05,3
10569,10970,0.0,-1e-05,-2.9999999999999997e-05,-2.9999999999999997e-05,0.0,-2.9999999999999997e-05,0.0,-5.9999999999999995e-05,3
10570,10971,0.0,-1e-05,-2.9999999999999997e-05,-2.9999999999999997e-05,0.0,-2.9999999999999997e-05,0.0,-5.9999999999999995e-05,3
10571,10972,0.0,-1e-05,-2.9999999999999997e-05,-2.9999999999999997e-05,0.0,-2.9999999999999997e-05,0.0,-5.9999999999999995e-05,3
10572,10973,0.0,-1e-05,-2.9999999999999997e-05,-2.9999999999999997e-05,0.0,-2.9999999999999997e-05,0.0,-5.9999999999999995e-05,3
10573,10974,0.0,-1e-05,-2.9999999999999997e-05,-2.9999999999999997e-05,0.0,-2.9999999999999997e-05,0.0,-5.9999999999999995e-05,3
10574,10975,0.0,-1e-05,-2.9999999999999997e-05,-2.9999999999999997e-05,0.0,-2.9999999999999997e-05,0.0,-5.9999999999999995e-05,3
10575,10976,0.0,-1e-05,-2.9999999999999997e-05,-2.9999999999999997e-05,0.0,-2.9999999999999997e-05,0.0,-5.9999999999999995e-05,3
10576,10977,0.0,-1e-05,-2.9999999999999997e-05,-2.9999999999999997e-05,0.0,-2.9999999999999997e-05,0.0,-5.9999999999999995e-05,3
10577,10978,0.0,-1e-05,-2.9999999999999997e-05,-2.9999999999999997e-05,0.0,-2.9999999999999997e-05,0.0,-5.9999999999999995e-05,3
10578,10979,0.0,-1e-05,-2.9999999999999997e-05,-2.9999999999999997e-05,0.0,-2.9999999999999997e-05,0.0,-5.9999999999999995e-05,3
10579,10980,0.0,-1e-05,-2.9999999999999997e-05,-2.9999999999999997e-05,0.0,-2.9999999999999997e-05,0.0,-5.9999999999999995e-05,3
10580,10981,0.0,-1e-05,-2.9999999999999997e-05,-2.9999999999999997e-05,0.0,-2.9999999999999997e-05,0.0,-5.9999999999999995e-05,3
10581,10982,0.0,-1e-05,-2.9999999999999997e-05,-2.9999999999999997e-05,0.0,-2.9999999999999997e-05,0.0,-5.9999999999999995e-05,3
10582,10983,0.0,-1e-05,-2.9999999999999997e-05,-2.9999999999999997e-05,0.0,-2.9999999999999997e-05,0.0,-5.9999999999999995e-05,3
10583,10984,0.0,-1e-05,-2.9999999999999997e-05,-2.9999999999999997e-05,0.0,-2.9999999999999997e-05,0.0,-5.9999999999999995e-05,3
10584,10985,0.0,-1e-05,-2.9999999999999997e-05,-2.9999999999999997e-05,0.0,-2.9999999999999997e-05,0.0,-5.9999999999999995e-05,3
10585,10986,0.0,-1e-05,-2.9999999999999997e-05,-2.9999999999999997e-05,0.0,-2.9999999999999997e-05,0.0,-5.9999999999999995e-05,3
10586,10988,0.0,-1e-05,-2.9999999999999997e-05,-2.9999999999999997e-05,0.0,-2.9999999999999997e-05,0.0,-5.9999999999999995e-05,3
10587,10989,0.0,-1e-05,-2.9999999999999997e-05,-2.9999999999999997e-05,0.0,-2.9999999999999997e-05,0.0,-5.9999999999999995e-05,3
10588,10990,5.9999999999999995e-05,4e-05,0.0,0.0,-0.00014,-5.9999999999999995e-05,-7e-05,-9e-05,3
10589,10991,5.9999999999999995e-05,4e-05,0.0,0.0,-0.00014,-5.9999999999999995e-05,-7e-05,-9e-05,3
10590,10992,-1e-05,-8e-05,-5.9999999999999995e-05,-5.9999999999999995e-05,-1e-05,4e-05,0.00014,0.00026000000000000003,3
10591,10993,-1e-05,-8e-05,-5.9999999999999995e-05,-5.9999999999999995e-05,-1e-05,4e-05,0.00014,0.00026000000000000003,3
10592,10994,-1e-05,-8e-05,-5.9999999999999995e-05,-5.9999999999999995e-05,-1e-05,4e-05,0.00014,0.00026000000000000003,3
10593,10995,-1e-05,-8e-05,-5.9999999999999995e-05,-5.9999999999999995e-05,-1e-05,4e-05,0.00014,0.00026000000000000003,3
10594,10996,-1e-05,-8e-05,-5.9999999999999995e-05,-5.9999999999999995e-05,-1e-05,4e-05,0.00014,0.00026000000000000003,3
10595,10997,-1e-05,-8e-05,-5.9999999999999995e-05,-5.9999999999999995e-05,-1e-05,4e-05,0.00014,0.00026000000000000003,3
10596,10998,-1e-05,-8e-05,-5.9999999999999995e-05,-5.9999999999999995e-05,-1e-05,4e-05,0.00014,0.00026000000000000003,3
10597,10999,-1e-05,-8e-05,-5.9999999999999995e-05,-5.9999999999999995e-05,-1e-05,4e-05,0.00014,0.00026000000000000003,3
10598,11000,-1e-05,-8e-05,-5.9999999999999995e-05,-5.9999999999999995e-05,-1e-05,4e-05,0.00014,0.00026000000000000003,3
10599,11001,-1e-05,-8e-05,-5.9999999999999995e-05,-5.9999999999999995e-05,-1e-05,4e-05,0.00014,0.00026000000000000003,3
10600,11002,-1e-05,-8e-05,-5.9999999999999995e-05,-5.9999999999999995e-05,-1e-05,4e-05,0.00014,0.00026000000000000003,3
