,time,channel1,channel2,channel3,channel4,channel5,channel6,channel7,channel8,class
8937,9376,-0.00025,-5.9999999999999995e-05,1e-05,0.0,0.0,5e-05,1e-05,4e-05,3
8938,9377,-0.00025,-5.9999999999999995e-05,1e-05,0.0,0.0,5e-05,1e-05,4e-05,3
8939,9378,-0.00025,-5.9999999999999995e-05,1e-05,0.0,0.0,5e-05,1e-05,4e-05,3
8940,9379,-0.00025,-5.9999999999999995e-05,1e-05,0.0,0.0,5e-05,1e-05,4e-05,3
8941,9380,-5e-05,4e-05,-1e-05,1e-05,0.0,-4e-05,0.00014,2e-05,3
8942,9381,-5e-05,4e-05,-1e-05,1e-05,0.0,-4e-05,0.00014,2e-05,3
8943,9382,0.0002,9e-05,2e-05,0.0,2e-05,-2e-05,-1e-05,-5e-05,3
8944,9383,0.0002,9e-05,2e-05,0.0,2e-05,-2e-05,-1e-05,-5e-05,3
8945,9384,0.0002,9e-05,2e-05,0.0,2e-05,-2e-05,-1e-05,-5e-05,3
8946,9385,0.0002,9e-05,2e-05,0.0,2e-05,-2e-05,-1e-05,-5e-05,3
8947,9386,0.0002,9e-05,2e-05,0.0,2e-05,-2e-05,-1e-05,-5e-05,3
8948,9388,0.0002,9e-05,2e-05,0.0,2e-05,-2e-05,-1e-05,-5e-05,3
8949,9389,0.0002,9e-05,2e-05,0.0,2e-05,-2e-05,-1e-05,-5e-05,3
8950,9390,0.0002,9e-05,2e-05,0.0,2e-05,-2e-05,-1e-05,-5e-05,3
8951,9391,0.0002,9e-05,2e-05,0.0,2e-05,-2e-05,-1e-05,-5e-05,3
8952,9392,0.0002,9e-05,2e-05,0.0,2e-05,-2e-05,-1e-05,-5e-05,3
8953,9393,-5e-05,4e-05,1e-05,-2e-05,-7e-05,-8e-05,-0.00022999999999999998,1e-05,3
8954,9394,-5e-05,4e-05,1e-05,-2e-05,-7e-05,-8e-05,-0.00022999999999999998,1e-05,3
8955,9395,-5e-05,4e-05,1e-05,-2e-05,-7e-05,-8e-05,-0.00022999999999999998,1e-05,3
8956,9396,-5e-05,4e-05,1e-05,-2e-05,-7e-05,-8e-05,-0.00022999999999999998,1e-05,3
8957,9397,-5e-05,4e-05,1e-05,-2e-05,-7e-05,-8e-05,-0.00022999999999999998,1e-05,3
8958,9398,-5e-05,4e-05,1e-05,-2e-05,-7e-05,-8e-05,-0.00022999999999999998,1e-05,3
8959,9399,-5e-05,4e-05,1e-05,-2e-05,-7e-05,-8e-05,-0.00022999999999999998,1e-05,3
8960,9400,-5e-05,4e-05,1e-05,-2e-05,-7e-05,-8e-05,-0.00022999999999999998,1e-05,3
8961,9401,-5e-05,4e-05,1e-05,-2e-05,-7e-05,-8e-05,-0.00022999999999999998,1e-05,3
8962,9402,0.00025,0.0002,-1e-05,-2e-05,1e-05,5e-05,2e-05,-2.9999999999999997e-05,3
8963,9403,0.00025,0.0002,-1e-05,-2e-05,1e-05,5e-05,2e-05,-2.9999999999999997e-05,3
8964,9404,0.00025,0.0002,-1e-05,-2e-05,1e-05,5e-05,2e-05,-2.9999999999999997e-05,3
8965,9405,0.00025,0.0002,-1e-05,-2e-05,1e-05,5e-05,2e-05,-2.9999999999999997e-05,3
8966,9406,0.00025,0.0002,-1e-05,-2e-05,1e-05,5e-05,2e-05,-2.9999999999999997e-05,3
8967,9407,0.00025,0.0002,-1e-05,-2e-05,1e-05,5e-05,2e-05,-2.9999999999999997e-05,3
8968,9408,0.00025,0.0002,-1e-05,-2e-05,1e-05,5e-05,2e-05,-2.9999999999999997e-05,3
8969,9409,0.00025,0.0002,-1e-05,-2e-05,1e-05,5e-05,2e-05,-2.9999999999999997e-05,3
8970,9410,0.00025,0.0002,-1e-05,-2e-05,1e-05,5e-05,2e-05,-2.9999999999999997e-05,3
8971,9411,0.00025,0.0002,-1e-05,-2e-05,1e-05,5e-05,2e-05,-2.9999999999999997e-05,3
8972,9412,0.00025,0.0002,-1e-05,-2e-05,1e-05,5e-05,2e-05,-2.9999999999999997e-05,3
8973,9413,0.00025,0.0002,-1e-05,-2e-05,1e-05,5e-05,2e-05,-2.9999999999999997e-05,3
8974,9414,0.00025,0.0002,-1e-05,-2e-05,1e-05,5e-05,2e-05,-2.9999999999999997e-05,3
8975,9415,0.00025,0.0002,-1e-05,-2e-05,1e-05,5e-05,2e-05,-2.9999999999999997e-05,3
8976,9416,0.00025,0.0002,-1e-05,-2e-05,1e-05,5e-05,2e-05,-2.9999999999999997e-05,3
8977,9417,0.00025,0.0002,-1e-05,-2e-05,1e-05,5e-05,2e-05,-2.9999999999999997e-05,3
8978,9418,0.00025,0.0002,-1e-05,-2e-05,1e-05,5e-05,2e-05,-2.9999999999999997e-05,3
8979,9419,-0.0002,-9e-05,-5e-05,-2e-05,-1e-05,-4e-05,0.0001,-2.9999999999999997e-05,3
8980,9420,5.9999999999999995e-05,-0.00015,-1e-05,-5e-05,-5e-05,-7e-05,-0.00015,-0.00011999999999999999,3
8981,9421,5.9999999999999995e-05,-0.00015,-1e-05,-5e-05,-5e-05,-7e-05,-0.00015,-0.00011999999999999999,3
8982,9422,5.9999999999999995e-05,-0.00015,-1e-05,-5e-05,-5e-05,-7e-05,-0.00015,-0.00011999999999999999,3
8983,9423,5.9999999999999995e-05,-0.00015,-1e-05,-5e-05,-5e-05,-7e-05,-0.00015,-0.00011999999999999999,3
8984,9424,5.9999999999999995e-05,-0.00015,-1e-05,-5e-05,-5e-05,-7e-05,-0.00015,-0.00011999999999999999,3
8985,9425,5.9999999999999995e-05,-0.00015,-1e-05,-5e-05,-5e-05,-7e-05,-0.00015,-0.00011999999999999999,3
8986,9426,5.9999999999999995e-05,-0.00015,-1e-05,-5e-05,-5e-05,-7e-05,-0.00015,-0.00011999999999999999,3
8987,9427,5.9999999999999995e-05,-0.00015,-1e-05,-5e-05,-5e-05,-7e-05,-0.00015,-0.00011999999999999999,3
8988,9428,5.9999999999999995e-05,-0.00015,-1e-05,-5e-05,-5e-05,-7e-05,-0.00015,-0.00011999999999999999,3
8989,9429,5.9999999999999995e-05,-0.00015,-1e-05,-5e-05,-5e-05,-7e-05,-0.00015,-0.00011999999999999999,3
8990,9430,5.9999999999999995e-05,-0.00015,-1e-05,-5e-05,-5e-05,-7e-05,-0.00015,-0.00011999999999999999,3
8991,9431,5.9999999999999995e-05,-0.00015,-1e-05,-5e-05,-5e-05,-7e-05,-0.00015,-0.00011999999999999999,3
8992,9432,5.9999999999999995e-05,-0.00015,-1e-05,-5e-05,-5e-05,-7e-05,-0.00015,-0.00011999999999999999,3
8993,9433,5.9999999999999995e-05,-0.00015,-1e-05,-5e-05,-5e-05,-7e-05,-0.00015,-0.00011999999999999999,3
8994,9434,5.9999999999999995e-05,-0.00015,-1e-05,-5e-05,-5e-05,-7e-05,-0.00015,-0.00011999999999999999,3
8995,9435,5.9999999999999995e-05,-0.00015,-1e-05,-5e-05,-5e-05,-7e-05,-0.00015,-0.00011999999999999999,3
8996,9436,5.9999999999999995e-05,-0.00015,-1e-05,-5e-05,-5e-05,-7e-05,-0.00015,-0.00011999999999999999,3
8997,9438,5.9999999999999995e-05,-0.00015,-1e-05,-5e-05,-5e-05,-7e-05,-0.00015,-0.00011999999999999999,3
8998,9439,5.9999999999999995e-05,-0.00015,-1e-05,-5e-05,-5e-05,-7e-05,-0.00015,-0.00011999999999999999,3
8999,9440,-5.9999999999999995e-05,0.00014,-2e-05,-2.9999999999999997e-05,0.0,2e-05,2e-05,-7e-05,3
9000,9441,-0.0004,-0.00033999999999999997,-0.00011,-2.9999999999999997e-05,-1e-05,-1e-05,2e-05,-4e-05,3
9001,9442,-0.0004,-0.00033999999999999997,-0.00011,-2.9999999999999997e-05,-1e-05,-1e-05,2e-05,-4e-05,3
9002,9443,-0.0004,-0.00033999999999999997,-0.00011,-2.9999999999999997e-05,-1e-05,-1e-05,2e-05,-4e-05,3
9003,9444,-0.0004,-0.00033999999999999997,-0.00011,-2.9999999999999997e-05,-1e-05,-1e-05,2e-05,-4e-05,3
9004,9445,-0.0004,-0.00033999999999999997,-0.00011,-2.9999999999999997e-05,-1e-05,-1e-05,2e-05,-4e-05,3
9005,9446,-0.0004,-0.00033999999999999997,-0.00011,-2.9999999999999997e-05,-1e-05,-1e-05,2e-05,-4e-05,3
9006,9447,-0.0004,-0.00033999999999999997,-0.00011,-2.9999999999999997e-05,-1e-05,-1e-05,2e-05,-4e-05,3
9007,9448,-0.0004,-0.00033999999999999997,-0.00011,-2.9999999999999997e-05,-1e-05,-1e-05,2e-05,-4e-05,3
9008,9449,-0.0004,-0.00033999999999999997,-0.00011,-2.9999999999999997e-05,-1e-05,-1e-05,2e-05,-4e-05,3
9009,9450,-0.0004,-0.00033999999999999997,-0.00011,-2.9999999999999997e-05,-1e-05,-1e-05,2e-05,-4e-05,3
9010,9451,-0.0004,-0.00033999999999999997,-0.00011,-2.9999999999999997e-05,-1e-05,-1e-05,2e-05,-4e-05,3
9011,9452,-0.0004,-0.00033999999999999997,-0.00011,-2.9999999999999997e-05,-1e-05,-1e-05,2e-05,-4e-05,3
9012,9453,-5e-05,0.0,-1e-05,-2e-05,2e-05,1e-05,5.9999999999999995e-05,-2.9999999999999997e-05,3
9013,9454,0.0001,2e-05,0.0,2e-05,-2e-05,-1e-05,-1e-05,-5.9999999999999995e-05,3
9014,9455,0.0001,2e-05,0.0,2e-05,-2e-05,-1e-05,-1e-05,-5.9999999999999995e-05,3
9015,9456,0.0001,2e-05,0.0,2e-05,-2e-05,-1e-05,-1e-05,-5.9999999999999995e-05,3
9016,9457,0.0001,2e-05,0.0,2e-05,-2e-05,-1e-05,-1e-05,-5.9999999999999995e-05,3
9017,9458,0.0001,2e-05,0.0,2e-05,-2e-05,-1e-05,-1e-05,-5.9999999999999995e-05,3
9018,9459,0.0001,2e-05,0.0,2e-05,-2e-05,-1e-05,-1e-05,-5.9999999999999995e-05,3
9019,9460,0.0001,2e-05,0.0,2e-05,-2e-05,-1e-05,-1e-05,-5.9999999999999995e-05,3
9020,9461,0.0001,2e-05,0.0,2e-05,-2e-05,-1e-05,-1e-05,-5.9999999999999995e-05,3
9021,9462,7e-05,0.00011,1e-05,1e-05,1e-05,5e-05,0.0001,-7e-05,3
9022,9463,7e-05,0.00011,1e-05,1e-05,1e-05,5e-05,0.0001,-7e-05,3
9023,9464,7e-05,0.00011,1e-05,1e-05,1e-05,5e-05,0.0001,-7e-05,3
9024,9465,7e-05,0.00011,1e-05,1e-05,1e-05,5e-05,0.0001,-7e-05,3
9025,9466,7e-05,0.00011,1e-05,1e-05,1e-05,5e-05,0.0001,-7e-05,3
9026,9467,7e-05,0.00011,1e-05,1e-05,1e-05,5e-05,0.0001,-7e-05,3
9027,9468,7e-05,0.00011,1e-05,1e-05,1e-05,5e-05,0.0001,-7e-05,3
9028,9469,7e-05,0.00011,1e-05,1e-05,1e-05,5e-05,0.0001,-7e-05,3
9029,9470,7e-05,0.00011,1e-05,1e-05,1e-05,5e-05,0.0001,-7e-05,3
9030,9471,7e-05,0.00011,1e-05,1e-05,1e-05,5e-05,0.0001,-7e-05,3
9031,9472,7e-05,0.00011,1e-05,1e-05,1e-05,5e-05,0.0001,-7e-05,3
9032,9473,7e-05,0.00011,1e-05,1e-05,1e-05,5e-05,0.0001,-7e-05,3
9033,9474,7e-05,0.00011,1e-05,1e-05,1e-05,5e-05,0.0001,-7e-05,3
9034,9475,7e-05,0.00011,1e-05,1e-05,1e-05,5e-05,0.0001,-7e-05,3
9035,9476,7e-05,0.00011,1e-05,1e-05,1e-05,5e-05,0.0001,-7e-05,3
9036,9477,7e-05,0.00011,1e-05,1e-05,1e-05,5e-05,0.0001,-7e-05,3
9037,9478,-0.00018999999999999998,-4e-05,-4e-05,-2.9999999999999997e-05,-2.9999999999999997e-05,-4e-05,-8e-05,1e-05,3
9038,9479,-0.00018999999999999998,-4e-05,-4e-05,-2.9999999999999997e-05,-2.9999999999999997e-05,-4e-05,-8e-05,1e-05,3
9039,9480,-0.00018999999999999998,-4e-05,-4e-05,-2.9999999999999997e-05,-2.9999999999999997e-05,-4e-05,-8e-05,1e-05,3
9040,9481,-0.00018999999999999998,-4e-05,-4e-05,-2.9999999999999997e-05,-2.9999999999999997e-05,-4e-05,-8e-05,1e-05,3
9041,9482,-0.00018999999999999998,-4e-05,-4e-05,-2.9999999999999997e-05,-2.9999999999999997e-05,-4e-05,-8e-05,1e-05,3
9042,9483,-0.00011999999999999999,-2.9999999999999997e-05,-1e-05,-1e-05,-4e-05,4e-05,4e-05,0.0,3
9043,9484,-0.00011999999999999999,-2.9999999999999997e-05,-1e-05,-1e-05,-4e-05,4e-05,4e-05,0.0,3
9044,9485,-0.00011999999999999999,-2.9999999999999997e-05,-1e-05,-1e-05,-4e-05,4e-05,4e-05,0.0,3
9045,9486,-0.00011999999999999999,-2.9999999999999997e-05,-1e-05,-1e-05,-4e-05,4e-05,4e-05,0.0,3
9046,9489,-0.00011999999999999999,-2.9999999999999997e-05,-1e-05,-1e-05,-4e-05,4e-05,4e-05,0.0,3
9047,9490,-0.00011999999999999999,-2.9999999999999997e-05,-1e-05,-1e-05,-4e-05,4e-05,4e-05,0.0,3
9048,9491,-0.00011999999999999999,-2.9999999999999997e-05,-1e-05,-1e-05,-4e-05,4e-05,4e-05,0.0,3
9049,9492,-0.00011999999999999999,-2.9999999999999997e-05,-1e-05,-1e-05,-4e-05,4e-05,4e-05,0.0,3
9050,9493,-0.00011999999999999999,-2.9999999999999997e-05,-1e-05,-1e-05,-4e-05,4e-05,4e-05,0.0,3
9051,9494,-0.00011999999999999999,-2.9999999999999997e-05,-1e-05,-1e-05,-4e-05,4e-05,4e-05,0.0,3
9052,9495,-0.00011999999999999999,-2.9999999999999997e-05,-1e-05,-1e-05,-4e-05,4e-05,4e-05,0.0,3
9053,9496,-0.00011999999999999999,-2.9999999999999997e-05,-1e-05,-1e-05,-4e-05,4e-05,4e-05,0.0,3
9054,9497,-0.00011999999999999999,-2.9999999999999997e-05,-1e-05,-1e-05,-4e-05,4e-05,4e-05,0.0,3
9055,9498,-0.00011999999999999999,-2.9999999999999997e-05,-1e-05,-1e-05,-4e-05,4e-05,4e-05,0.0,3
9056,9499,-0.00011999999999999999,-2.9999999999999997e-05,-1e-05,-1e-05,-4e-05,4e-05,4e-05,0.0,3
9057,9500,-0.0001,0.0,0.0,0.0,-1e-05,5e-05,0.00011,9e-05,3
9058,9501,0.0002,5.9999999999999995e-05,-2e-05,-5.9999999999999995e-05,-4e-05,5.9999999999999995e-05,0.0001,-2.9999999999999997e-05,3
9059,9502,-5e-05,7e-05,0.0,2e-05,2e-05,-4e-05,-9e-05,4e-05,3
9060,9503,-5e-05,7e-05,0.0,2e-05,2e-05,-4e-05,-9e-05,4e-05,3
9061,9504,-5e-05,7e-05,0.0,2e-05,2e-05,-4e-05,-9e-05,4e-05,3
9062,9505,-5e-05,7e-05,0.0,2e-05,2e-05,-4e-05,-9e-05,4e-05,3
9063,9506,-5e-05,7e-05,0.0,2e-05,2e-05,-4e-05,-9e-05,4e-05,3
9064,9507,-5e-05,7e-05,0.0,2e-05,2e-05,-4e-05,-9e-05,4e-05,3
9065,9508,-5e-05,7e-05,0.0,2e-05,2e-05,-4e-05,-9e-05,4e-05,3
9066,9509,-5e-05,7e-05,0.0,2e-05,2e-05,-4e-05,-9e-05,4e-05,3
9067,9510,-5e-05,7e-05,0.0,2e-05,2e-05,-4e-05,-9e-05,4e-05,3
9068,9511,-5e-05,7e-05,0.0,2e-05,2e-05,-4e-05,-9e-05,4e-05,3
9069,9512,-5e-05,7e-05,0.0,2e-05,2e-05,-4e-05,-9e-05,4e-05,3
9070,9513,-8e-05,-5.9999999999999995e-05,2e-05,0.0,2.9999999999999997e-05,2e-05,-5e-05,-7e-05,3
9071,9514,-8e-05,-5.9999999999999995e-05,2e-05,0.0,2.9999999999999997e-05,2e-05,-5e-05,-7e-05,3
9072,9515,-8e-05,-5.9999999999999995e-05,2e-05,0.0,2.9999999999999997e-05,2e-05,-5e-05,-7e-05,3
9073,9516,-8e-05,-5.9999999999999995e-05,2e-05,0.0,2.9999999999999997e-05,2e-05,-5e-05,-7e-05,3
9074,9517,-8e-05,-5.9999999999999995e-05,2e-05,0.0,2.9999999999999997e-05,2e-05,-5e-05,-7e-05,3
9075,9518,-8e-05,-5.9999999999999995e-05,2e-05,0.0,2.9999999999999997e-05,2e-05,-5e-05,-7e-05,3
9076,9519,-8e-05,-5.9999999999999995e-05,2e-05,0.0,2.9999999999999997e-05,2e-05,-5e-05,-7e-05,3
9077,9520,-8e-05,-5.9999999999999995e-05,2e-05,0.0,2.9999999999999997e-05,2e-05,-5e-05,-7e-05,3
9078,9521,-8e-05,-5.9999999999999995e-05,2e-05,0.0,2.9999999999999997e-05,2e-05,-5e-05,-7e-05,3
9079,9522,0.00011999999999999999,-4e-05,-1e-05,-2e-05,1e-05,-1e-05,2.9999999999999997e-05,2.9999999999999997e-05,3
9080,9523,0.00011999999999999999,-4e-05,-1e-05,-2e-05,1e-05,-1e-05,2.9999999999999997e-05,2.9999999999999997e-05,3
9081,9524,0.00011999999999999999,-4e-05,-1e-05,-2e-05,1e-05,-1e-05,2.9999999999999997e-05,2.9999999999999997e-05,3
9082,9525,0.00011999999999999999,-4e-05,-1e-05,-2e-05,1e-05,-1e-05,2.9999999999999997e-05,2.9999999999999997e-05,3
9083,9526,0.00011999999999999999,-4e-05,-1e-05,-2e-05,1e-05,-1e-05,2.9999999999999997e-05,2.9999999999999997e-05,3
9084,9527,0.00011999999999999999,-4e-05,-1e-05,-2e-05,1e-05,-1e-05,2.9999999999999997e-05,2.9999999999999997e-05,3
9085,9528,0.00011999999999999999,-4e-05,-1e-05,-2e-05,1e-05,-1e-05,2.9999999999999997e-05,2.9999999999999997e-05,3
9086,9529,0.00011999999999999999,-4e-05,-1e-05,-2e-05,1e-05,-1e-05,2.9999999999999997e-05,2.9999999999999997e-05,3
9087,9530,0.00011999999999999999,-4e-05,-1e-05,-2e-05,1e-05,-1e-05,2.9999999999999997e-05,2.9999999999999997e-05,3
9088,9531,0.00011999999999999999,-4e-05,-1e-05,-2e-05,1e-05,-1e-05,2.9999999999999997e-05,2.9999999999999997e-05,3
9089,9532,0.00011999999999999999,-4e-05,-1e-05,-2e-05,1e-05,-1e-05,2.9999999999999997e-05,2.9999999999999997e-05,3
9090,9533,0.00011999999999999999,-4e-05,-1e-05,-2e-05,1e-05,-1e-05,2.9999999999999997e-05,2.9999999999999997e-05,3
9091,9534,0.00011999999999999999,-4e-05,-1e-05,-2e-05,1e-05,-1e-05,2.9999999999999997e-05,2.9999999999999997e-05,3
9092,9535,0.00011999999999999999,-4e-05,-1e-05,-2e-05,1e-05,-1e-05,2.9999999999999997e-05,2.9999999999999997e-05,3
9093,9536,0.00011999999999999999,-4e-05,-1e-05,-2e-05,1e-05,-1e-05,2.9999999999999997e-05,2.9999999999999997e-05,3
9094,9539,2.9999999999999997e-05,2.9999999999999997e-05,-2.9999999999999997e-05,-2.9999999999999997e-05,-2.9999999999999997e-05,2e-05,-4e-05,-5e-05,3
9095,9540,2.9999999999999997e-05,2.9999999999999997e-05,-2.9999999999999997e-05,-2.9999999999999997e-05,-2.9999999999999997e-05,2e-05,-4e-05,-5e-05,3
9096,9541,2.9999999999999997e-05,2.9999999999999997e-05,-2.9999999999999997e-05,-2.9999999999999997e-05,-2.9999999999999997e-05,2e-05,-4e-05,-5e-05,3
9097,9542,2.9999999999999997e-05,2.9999999999999997e-05,-2.9999999999999997e-05,-2.9999999999999997e-05,-2.9999999999999997e-05,2e-05,-4e-05,-5e-05,3
9098,9543,2.9999999999999997e-05,2.9999999999999997e-05,-2.9999999999999997e-05,-2.9999999999999997e-05,-2.9999999999999997e-05,2e-05,-4e-05,-5e-05,3
9099,9544,2.9999999999999997e-05,2.9999999999999997e-05,-2.9999999999999997e-05,-2.9999999999999997e-05,-2.9999999999999997e-05,2e-05,-4e-05,-5e-05,3
9100,9545,2.9999999999999997e-05,2.9999999999999997e-05,-2.9999999999999997e-05,-2.9999999999999997e-05,-2.9999999999999997e-05,2e-05,-4e-05,-5e-05,3
9101,9546,2.9999999999999997e-05,2.9999999999999997e-05,-2.9999999999999997e-05,-2.9999999999999997e-05,-2.9999999999999997e-05,2e-05,-4e-05,-5e-05,3
9102,9547,2.9999999999999997e-05,2.9999999999999997e-05,-2.9999999999999997e-05,-2.9999999999999997e-05,-2.9999999999999997e-05,2e-05,-4e-05,-5e-05,3
9103,9548,2.9999999999999997e-05,2.9999999999999997e-05,-2.9999999999999997e-05,-2.9999999999999997e-05,-2.9999999999999997e-05,2e-05,-4e-05,-5e-05,3
9104,9549,2.9999999999999997e-05,2.9999999999999997e-05,-2.9999999999999997e-05,-2.9999999999999997e-05,-2.9999999999999997e-05,2e-05,-4e-05,-5e-05,3
9105,9550,2.9999999999999997e-05,2.9999999999999997e-05,-2.9999999999999997e-05,-2.9999999999999997e-05,-2.9999999999999997e-05,2e-05,-4e-05,-5e-05,3
9106,9551,2.9999999999999997e-05,2.9999999999999997e-05,-2.9999999999999997e-05,-2.9999999999999997e-05,-2.9999999999999997e-05,2e-05,-4e-05,-5e-05,3
9107,9552,2.9999999999999997e-05,2.9999999999999997e-05,-2.9999999999999997e-05,-2.9999999999999997e-05,-2.9999999999999997e-05,2e-05,-4e-05,-5e-05,3
9108,9553,2.9999999999999997e-05,2.9999999999999997e-05,-2.9999999999999997e-05,-2.9999999999999997e-05,-2.9999999999999997e-05,2e-05,-4e-05,-5e-05,3
9109,9554,2.9999999999999997e-05,2.9999999999999997e-05,-2.9999999999999997e-05,-2.9999999999999997e-05,-2.9999999999999997e-05,2e-05,-4e-05,-5e-05,3
9110,9555,2.9999999999999997e-05,2.9999999999999997e-05,-2.9999999999999997e-05,-2.9999999999999997e-05,-2.9999999999999997e-05,2e-05,-4e-05,-5e-05,3
9111,9556,2.9999999999999997e-05,2.9999999999999997e-05,-2.9999999999999997e-05,-2.9999999999999997e-05,-2.9999999999999997e-05,2e-05,-4e-05,-5e-05,3
9112,9557,2.9999999999999997e-05,2.9999999999999997e-05,-2.9999999999999997e-05,-2.9999999999999997e-05,-2.9999999999999997e-05,2e-05,-4e-05,-5e-05,3
9113,9558,2.9999999999999997e-05,2.9999999999999997e-05,-2.9999999999999997e-05,-2.9999999999999997e-05,-2.9999999999999997e-05,2e-05,-4e-05,-5e-05,3
9114,9559,2.9999999999999997e-05,2.9999999999999997e-05,-2.9999999999999997e-05,-2.9999999999999997e-05,-2.9999999999999997e-05,2e-05,-4e-05,-5e-05,3
9115,9560,-7e-05,-0.00013000000000000002,-2.9999999999999997e-05,-2e-05,-2e-05,-1e-05,0.0,0.0,3
9116,9561,-0.00022999999999999998,5e-05,1e-05,0.0,-7e-05,-0.00013000000000000002,-0.00022999999999999998,-5e-05,3
9117,9562,-0.00022999999999999998,5e-05,1e-05,0.0,-7e-05,-0.00013000000000000002,-0.00022999999999999998,-5e-05,3
9118,9563,-0.00022999999999999998,5e-05,1e-05,0.0,-7e-05,-0.00013000000000000002,-0.00022999999999999998,-5e-05,3
9119,9564,-0.00022999999999999998,5e-05,1e-05,0.0,-7e-05,-0.00013000000000000002,-0.00022999999999999998,-5e-05,3
9120,9565,-0.00022999999999999998,5e-05,1e-05,0.0,-7e-05,-0.00013000000000000002,-0.00022999999999999998,-5e-05,3
9121,9566,-0.00022999999999999998,5e-05,1e-05,0.0,-7e-05,-0.00013000000000000002,-0.00022999999999999998,-5e-05,3
9122,9567,-0.00022999999999999998,5e-05,1e-05,0.0,-7e-05,-0.00013000000000000002,-0.00022999999999999998,-5e-05,3
9123,9568,-0.00022999999999999998,5e-05,1e-05,0.0,-7e-05,-0.00013000000000000002,-0.00022999999999999998,-5e-05,3
9124,9569,-0.00022999999999999998,5e-05,1e-05,0.0,-7e-05,-0.00013000000000000002,-0.00022999999999999998,-5e-05,3
9125,9570,-0.00022999999999999998,5e-05,1e-05,0.0,-7e-05,-0.00013000000000000002,-0.00022999999999999998,-5e-05,3
9126,9571,-0.00022999999999999998,5e-05,1e-05,0.0,-7e-05,-0.00013000000000000002,-0.00022999999999999998,-5e-05,3
9127,9572,-0.00022999999999999998,5e-05,1e-05,0.0,-7e-05,-0.00013000000000000002,-0.00022999999999999998,-5e-05,3
9128,9573,-2.9999999999999997e-05,-1e-05,0.0,1e-05,2.9999999999999997e-05,0.00015,0.00023999999999999998,0.00014,3
9129,9574,-2.9999999999999997e-05,-1e-05,0.0,1e-05,2.9999999999999997e-05,0.00015,0.00023999999999999998,0.00014,3
9130,9575,-2.9999999999999997e-05,-1e-05,0.0,1e-05,2.9999999999999997e-05,0.00015,0.00023999999999999998,0.00014,3
9131,9576,-2.9999999999999997e-05,-1e-05,0.0,1e-05,2.9999999999999997e-05,0.00015,0.00023999999999999998,0.00014,3
9132,9577,-2.9999999999999997e-05,-1e-05,0.0,1e-05,2.9999999999999997e-05,0.00015,0.00023999999999999998,0.00014,3
9133,9578,-2.9999999999999997e-05,-1e-05,0.0,1e-05,2.9999999999999997e-05,0.00015,0.00023999999999999998,0.00014,3
9134,9579,-2.9999999999999997e-05,-1e-05,0.0,1e-05,2.9999999999999997e-05,0.00015,0.00023999999999999998,0.00014,3
9135,9580,-2.9999999999999997e-05,-1e-05,0.0,1e-05,2.9999999999999997e-05,0.00015,0.00023999999999999998,0.00014,3
9136,9581,-2.9999999999999997e-05,-1e-05,0.0,1e-05,2.9999999999999997e-05,0.00015,0.00023999999999999998,0.00014,3
9137,9582,-2.9999999999999997e-05,-1e-05,0.0,1e-05,2.9999999999999997e-05,0.00015,0.00023999999999999998,0.00014,3
9138,9583,-2.9999999999999997e-05,-1e-05,0.0,1e-05,2.9999999999999997e-05,0.00015,0.00023999999999999998,0.00014,3
9139,9584,-2.9999999999999997e-05,-1e-05,0.0,1e-05,2.9999999999999997e-05,0.00015,0.00023999999999999998,0.00014,3
9140,9585,-2.9999999999999997e-05,-1e-05,0.0,1e-05,2.9999999999999997e-05,0.00015,0.00023999999999999998,0.00014,3
9141,9586,-2.9999999999999997e-05,-1e-05,0.0,1e-05,2.9999999999999997e-05,0.00015,0.00023999999999999998,0.00014,3
9142,9588,-2.9999999999999997e-05,-1e-05,0.0,1e-05,2.9999999999999997e-05,0.00015,0.00023999999999999998,0.00014,3
9143,9590,0.00016999999999999999,4e-05,2e-05,1e-05,-2.9999999999999997e-05,-5.9999999999999995e-05,-5e-05,0.0,3
9144,9591,-4e-05,-7e-05,0.0,5e-05,9e-05,4e-05,5e-05,-2.9999999999999997e-05,3
9145,9592,-4e-05,-7e-05,0.0,5e-05,9e-05,4e-05,5e-05,-2.9999999999999997e-05,3
9146,9593,-4e-05,-7e-05,0.0,5e-05,9e-05,4e-05,5e-05,-2.9999999999999997e-05,3
9147,9594,-4e-05,-7e-05,0.0,5e-05,9e-05,4e-05,5e-05,-2.9999999999999997e-05,3
9148,9595,-4e-05,-7e-05,0.0,5e-05,9e-05,4e-05,5e-05,-2.9999999999999997e-05,3
9149,9596,-0.00011999999999999999,0.00015,-1e-05,-4e-05,-2.9999999999999997e-05,1e-05,2.9999999999999997e-05,-4e-05,3
9150,9597,-0.00016,-0.0001,-2e-05,0.0,2.9999999999999997e-05,-2e-05,-9e-05,-0.00015,3
9151,9599,-0.00016,-0.0001,-2e-05,0.0,2.9999999999999997e-05,-2e-05,-9e-05,-0.00015,3
9152,9600,-0.00016,-0.0001,-2e-05,0.0,2.9999999999999997e-05,-2e-05,-9e-05,-0.00015,3
9153,9601,-0.00016,-0.0001,-2e-05,0.0,2.9999999999999997e-05,-2e-05,-9e-05,-0.00015,3
9154,9602,-0.00016,-0.0001,-2e-05,0.0,2.9999999999999997e-05,-2e-05,-9e-05,-0.00015,3
9155,9603,0.00018,7e-05,0.0,-2e-05,0.0,-2e-05,-1e-05,4e-05,3
9156,9604,0.00018,7e-05,0.0,-2e-05,0.0,-2e-05,-1e-05,4e-05,3
9157,9605,0.00018,7e-05,0.0,-2e-05,0.0,-2e-05,-1e-05,4e-05,3
9158,9606,0.00018,7e-05,0.0,-2e-05,0.0,-2e-05,-1e-05,4e-05,3
9159,9607,0.00018,7e-05,0.0,-2e-05,0.0,-2e-05,-1e-05,4e-05,3
9160,9608,0.00018,7e-05,0.0,-2e-05,0.0,-2e-05,-1e-05,4e-05,3
9161,9609,0.00018,7e-05,0.0,-2e-05,0.0,-2e-05,-1e-05,4e-05,3
9162,9610,0.00018,7e-05,0.0,-2e-05,0.0,-2e-05,-1e-05,4e-05,3
9163,9611,0.00018,7e-05,0.0,-2e-05,0.0,-2e-05,-1e-05,4e-05,3
9164,9612,0.00018,7e-05,0.0,-2e-05,0.0,-2e-05,-1e-05,4e-05,3
9165,9613,0.00018,7e-05,0.0,-2e-05,0.0,-2e-05,-1e-05,4e-05,3
9166,9614,0.00018,7e-05,0.0,-2e-05,0.0,-2e-05,-1e-05,4e-05,3
9167,9615,0.00018,7e-05,0.0,-2e-05,0.0,-2e-05,-1e-05,4e-05,3
9168,9616,0.00018,7e-05,0.0,-2e-05,0.0,-2e-05,-1e-05,4e-05,3
9169,9617,0.00018,7e-05,0.0,-2e-05,0.0,-2e-05,-1e-05,4e-05,3
9170,9618,0.00018,7e-05,0.0,-2e-05,0.0,-2e-05,-1e-05,4e-05,3
9171,9619,0.00018,7e-05,0.0,-2e-05,0.0,-2e-05,-1e-05,4e-05,3
9172,9620,9e-05,1e-05,1e-05,2e-05,-1e-05,0.0,-2e-05,0.0,3
9173,9621,9e-05,2e-05,5e-05,2e-05,4e-05,-1e-05,0.0,0.0,3
9174,9622,-5.9999999999999995e-05,-0.00022,-8e-05,-5e-05,-2.9999999999999997e-05,-4e-05,0.0,-0.0001,3
9175,9623,-5.9999999999999995e-05,-0.00022,-8e-05,-5e-05,-2.9999999999999997e-05,-4e-05,0.0,-0.0001,3
9176,9624,-5.9999999999999995e-05,-0.00022,-8e-05,-5e-05,-2.9999999999999997e-05,-4e-05,0.0,-0.0001,3
9177,9625,-5.9999999999999995e-05,-0.00022,-8e-05,-5e-05,-2.9999999999999997e-05,-4e-05,0.0,-0.0001,3
9178,9626,-5.9999999999999995e-05,-0.00022,-8e-05,-5e-05,-2.9999999999999997e-05,-4e-05,0.0,-0.0001,3
9179,9627,-5.9999999999999995e-05,-0.00022,-8e-05,-5e-05,-2.9999999999999997e-05,-4e-05,0.0,-0.0001,3
9180,9628,-5.9999999999999995e-05,-0.00022,-8e-05,-5e-05,-2.9999999999999997e-05,-4e-05,0.0,-0.0001,3
9181,9629,-5.9999999999999995e-05,-0.00022,-8e-05,-5e-05,-2.9999999999999997e-05,-4e-05,0.0,-0.0001,3
9182,9630,-5.9999999999999995e-05,-0.00022,-8e-05,-5e-05,-2.9999999999999997e-05,-4e-05,0.0,-0.0001,3
9183,9631,-5.9999999999999995e-05,-0.00022,-8e-05,-5e-05,-2.9999999999999997e-05,-4e-05,0.0,-0.0001,3
9184,9632,-5.9999999999999995e-05,-0.00022,-8e-05,-5e-05,-2.9999999999999997e-05,-4e-05,0.0,-0.0001,3
9185,9633,-5.9999999999999995e-05,-0.00022,-8e-05,-5e-05,-2.9999999999999997e-05,-4e-05,0.0,-0.0001,3
9186,9634,-5.9999999999999995e-05,-0.00022,-8e-05,-5e-05,-2.9999999999999997e-05,-4e-05,0.0,-0.0001,3
9187,9635,-5.9999999999999995e-05,-0.00022,-8e-05,-5e-05,-2.9999999999999997e-05,-4e-05,0.0,-0.0001,3
9188,9636,-5.9999999999999995e-05,-0.00022,-8e-05,-5e-05,-2.9999999999999997e-05,-4e-05,0.0,-0.0001,3
9189,9639,-5.9999999999999995e-05,-0.00022,-8e-05,-5e-05,-2.9999999999999997e-05,-4e-05,0.0,-0.0001,3
9190,9640,-5.9999999999999995e-05,-0.00022,-8e-05,-5e-05,-2.9999999999999997e-05,-4e-05,0.0,-0.0001,3
9191,9641,-5.9999999999999995e-05,-0.00022,-8e-05,-5e-05,-2.9999999999999997e-05,-4e-05,0.0,-0.0001,3
9192,9642,-0.0003,-0.0001,-1e-05,0.0,-2e-05,-2.9999999999999997e-05,-8e-05,-0.0001,3
9193,9643,-0.0003,-0.0001,-1e-05,0.0,-2e-05,-2.9999999999999997e-05,-8e-05,-0.0001,3
9194,9644,0.00028,2e-05,-2e-05,-1e-05,4e-05,8e-05,0.00011,5.9999999999999995e-05,3
9195,9645,0.00028,2e-05,-2e-05,-1e-05,4e-05,8e-05,0.00011,5.9999999999999995e-05,3
9196,9646,0.00028,2e-05,-2e-05,-1e-05,4e-05,8e-05,0.00011,5.9999999999999995e-05,3
9197,9647,0.00028,2e-05,-2e-05,-1e-05,4e-05,8e-05,0.00011,5.9999999999999995e-05,3
9198,9648,0.00028,2e-05,-2e-05,-1e-05,4e-05,8e-05,0.00011,5.9999999999999995e-05,3
9199,9649,0.00028,2e-05,-2e-05,-1e-05,4e-05,8e-05,0.00011,5.9999999999999995e-05,3
9200,9650,0.00028,2e-05,-2e-05,-1e-05,4e-05,8e-05,0.00011,5.9999999999999995e-05,3
9201,9651,0.00028,2e-05,-2e-05,-1e-05,4e-05,8e-05,0.00011,5.9999999999999995e-05,3
9202,9652,0.00028,2e-05,-2e-05,-1e-05,4e-05,8e-05,0.00011,5.9999999999999995e-05,3
9203,9653,0.00028,2e-05,-2e-05,-1e-05,4e-05,8e-05,0.00011,5.9999999999999995e-05,3
9204,9654,0.00028,2e-05,-2e-05,-1e-05,4e-05,8e-05,0.00011,5.9999999999999995e-05,3
9205,9655,0.00028,2e-05,-2e-05,-1e-05,4e-05,8e-05,0.00011,5.9999999999999995e-05,3
9206,9656,0.00028,2e-05,-2e-05,-1e-05,4e-05,8e-05,0.00011,5.9999999999999995e-05,3
9207,9657,0.00028,2e-05,-2e-05,-1e-05,4e-05,8e-05,0.00011,5.9999999999999995e-05,3
9208,9658,0.00015,-5.9999999999999995e-05,-4e-05,-1e-05,2e-05,0.0,-2e-05,0.00011999999999999999,3
9209,9659,7e-05,-8e-05,-1e-05,-2e-05,1e-05,-4e-05,-2.9999999999999997e-05,1e-05,3
9210,9660,7e-05,-8e-05,-1e-05,-2e-05,1e-05,-4e-05,-2.9999999999999997e-05,1e-05,3
9211,9661,7e-05,-8e-05,-1e-05,-2e-05,1e-05,-4e-05,-2.9999999999999997e-05,1e-05,3
9212,9662,7e-05,-8e-05,-1e-05,-2e-05,1e-05,-4e-05,-2.9999999999999997e-05,1e-05,3
9213,9663,7e-05,-8e-05,-1e-05,-2e-05,1e-05,-4e-05,-2.9999999999999997e-05,1e-05,3
9214,9664,7e-05,-8e-05,-1e-05,-2e-05,1e-05,-4e-05,-2.9999999999999997e-05,1e-05,3
9215,9665,7e-05,-8e-05,-1e-05,-2e-05,1e-05,-4e-05,-2.9999999999999997e-05,1e-05,3
9216,9666,7e-05,-8e-05,-1e-05,-2e-05,1e-05,-4e-05,-2.9999999999999997e-05,1e-05,3
9217,9667,7e-05,-8e-05,-1e-05,-2e-05,1e-05,-4e-05,-2.9999999999999997e-05,1e-05,3
9218,9668,7e-05,-8e-05,-1e-05,-2e-05,1e-05,-4e-05,-2.9999999999999997e-05,1e-05,3
9219,9669,7e-05,-8e-05,-1e-05,-2e-05,1e-05,-4e-05,-2.9999999999999997e-05,1e-05,3
9220,9670,7e-05,-8e-05,-1e-05,-2e-05,1e-05,-4e-05,-2.9999999999999997e-05,1e-05,3
9221,9671,7e-05,-8e-05,-1e-05,-2e-05,1e-05,-4e-05,-2.9999999999999997e-05,1e-05,3
9222,9672,7e-05,-8e-05,-1e-05,-2e-05,1e-05,-4e-05,-2.9999999999999997e-05,1e-05,3
9223,9673,7e-05,-8e-05,-1e-05,-2e-05,1e-05,-4e-05,-2.9999999999999997e-05,1e-05,3
9224,9674,7e-05,-8e-05,-1e-05,-2e-05,1e-05,-4e-05,-2.9999999999999997e-05,1e-05,3
9225,9675,7e-05,-8e-05,-1e-05,-2e-05,1e-05,-4e-05,-2.9999999999999997e-05,1e-05,3
9226,9676,7e-05,-8e-05,-1e-05,-2e-05,1e-05,-4e-05,-2.9999999999999997e-05,1e-05,3
9227,9677,7e-05,-8e-05,-1e-05,-2e-05,1e-05,-4e-05,-2.9999999999999997e-05,1e-05,3
9228,9678,7e-05,-8e-05,-1e-05,-2e-05,1e-05,-4e-05,-2.9999999999999997e-05,1e-05,3
9229,9679,7e-05,-8e-05,-1e-05,-2e-05,1e-05,-4e-05,-2.9999999999999997e-05,1e-05,3
9230,9680,0.00016999999999999999,5.9999999999999995e-05,1e-05,0.0,0.0,5e-05,2e-05,-1e-05,3
9231,9681,0.00016999999999999999,5.9999999999999995e-05,1e-05,0.0,0.0,5e-05,2e-05,-1e-05,3
9232,9682,1e-05,2.9999999999999997e-05,0.0,-2e-05,-5.9999999999999995e-05,0.0,0.00013000000000000002,2e-05,3
9233,9683,1e-05,2.9999999999999997e-05,0.0,-2e-05,-5.9999999999999995e-05,0.0,0.00013000000000000002,2e-05,3
9234,9684,1e-05,2.9999999999999997e-05,0.0,-2e-05,-5.9999999999999995e-05,0.0,0.00013000000000000002,2e-05,3
9235,9685,1e-05,2.9999999999999997e-05,0.0,-2e-05,-5.9999999999999995e-05,0.0,0.00013000000000000002,2e-05,3
9236,9686,1e-05,2.9999999999999997e-05,0.0,-2e-05,-5.9999999999999995e-05,0.0,0.00013000000000000002,2e-05,3
9237,9689,1e-05,2.9999999999999997e-05,0.0,-2e-05,-5.9999999999999995e-05,0.0,0.00013000000000000002,2e-05,3
9238,9690,1e-05,2.9999999999999997e-05,0.0,-2e-05,-5.9999999999999995e-05,0.0,0.00013000000000000002,2e-05,3
9239,9691,1e-05,2.9999999999999997e-05,0.0,-2e-05,-5.9999999999999995e-05,0.0,0.00013000000000000002,2e-05,3
9240,9692,1e-05,2.9999999999999997e-05,0.0,-2e-05,-5.9999999999999995e-05,0.0,0.00013000000000000002,2e-05,3
9241,9693,1e-05,2.9999999999999997e-05,0.0,-2e-05,-5.9999999999999995e-05,0.0,0.00013000000000000002,2e-05,3
9242,9694,1e-05,2.9999999999999997e-05,0.0,-2e-05,-5.9999999999999995e-05,0.0,0.00013000000000000002,2e-05,3
9243,9695,1e-05,2.9999999999999997e-05,0.0,-2e-05,-5.9999999999999995e-05,0.0,0.00013000000000000002,2e-05,3
9244,9696,1e-05,2.9999999999999997e-05,0.0,-2e-05,-5.9999999999999995e-05,0.0,0.00013000000000000002,2e-05,3
9245,9697,1e-05,2.9999999999999997e-05,0.0,-2e-05,-5.9999999999999995e-05,0.0,0.00013000000000000002,2e-05,3
9246,9698,1e-05,2.9999999999999997e-05,0.0,-2e-05,-5.9999999999999995e-05,0.0,0.00013000000000000002,2e-05,3
9247,9699,1e-05,2.9999999999999997e-05,0.0,-2e-05,-5.9999999999999995e-05,0.0,0.00013000000000000002,2e-05,3
9248,9700,1e-05,2.9999999999999997e-05,0.0,-2e-05,-5.9999999999999995e-05,0.0,0.00013000000000000002,2e-05,3
9249,9701,1e-05,2.9999999999999997e-05,0.0,-2e-05,-5.9999999999999995e-05,0.0,0.00013000000000000002,2e-05,3
9250,9702,1e-05,2.9999999999999997e-05,0.0,-2e-05,-5.9999999999999995e-05,0.0,0.00013000000000000002,2e-05,3
9251,9703,7e-05,0.0,-5e-05,-5e-05,0.0,-9e-05,-7e-05,2e-05,3
9252,9704,9e-05,0.0,-2e-05,4e-05,8e-05,1e-05,-0.00011999999999999999,2e-05,3
9253,9705,9e-05,0.0,-2e-05,4e-05,8e-05,1e-05,-0.00011999999999999999,2e-05,3
9254,9706,9e-05,0.0,-2e-05,4e-05,8e-05,1e-05,-0.00011999999999999999,2e-05,3
9255,9707,9e-05,0.0,-2e-05,4e-05,8e-05,1e-05,-0.00011999999999999999,2e-05,3
9256,9708,9e-05,0.0,-2e-05,4e-05,8e-05,1e-05,-0.00011999999999999999,2e-05,3
9257,9709,9e-05,0.0,-2e-05,4e-05,8e-05,1e-05,-0.00011999999999999999,2e-05,3
9258,9710,9e-05,0.0,-2e-05,4e-05,8e-05,1e-05,-0.00011999999999999999,2e-05,3
9259,9711,9e-05,0.0,-2e-05,4e-05,8e-05,1e-05,-0.00011999999999999999,2e-05,3
9260,9712,9e-05,0.0,-2e-05,4e-05,8e-05,1e-05,-0.00011999999999999999,2e-05,3
9261,9713,9e-05,0.0,-2e-05,4e-05,8e-05,1e-05,-0.00011999999999999999,2e-05,3
9262,9714,9e-05,0.0,-2e-05,4e-05,8e-05,1e-05,-0.00011999999999999999,2e-05,3
9263,9715,9e-05,0.0,-2e-05,4e-05,8e-05,1e-05,-0.00011999999999999999,2e-05,3
9264,9716,9e-05,0.0,-2e-05,4e-05,8e-05,1e-05,-0.00011999999999999999,2e-05,3
9265,9717,9e-05,0.0,-2e-05,4e-05,8e-05,1e-05,-0.00011999999999999999,2e-05,3
9266,9718,-0.00016,-1e-05,-1e-05,0.0,1e-05,-2.9999999999999997e-05,8e-05,-0.00016999999999999999,3
9267,9719,2.9999999999999997e-05,2.9999999999999997e-05,-1e-05,0.0,-2e-05,5e-05,2.9999999999999997e-05,5e-05,3
9268,9720,2.9999999999999997e-05,2.9999999999999997e-05,-1e-05,0.0,-2e-05,5e-05,2.9999999999999997e-05,5e-05,3
9269,9721,2.9999999999999997e-05,2.9999999999999997e-05,-1e-05,0.0,-2e-05,5e-05,2.9999999999999997e-05,5e-05,3
9270,9722,2.9999999999999997e-05,2.9999999999999997e-05,-1e-05,0.0,-2e-05,5e-05,2.9999999999999997e-05,5e-05,3
9271,9723,-5.9999999999999995e-05,7e-05,2.9999999999999997e-05,-2e-05,-5e-05,-5.9999999999999995e-05,-4e-05,-5e-05,3
9272,9724,-5.9999999999999995e-05,7e-05,2.9999999999999997e-05,-2e-05,-5e-05,-5.9999999999999995e-05,-4e-05,-5e-05,3
9273,9725,-5.9999999999999995e-05,7e-05,2.9999999999999997e-05,-2e-05,-5e-05,-5.9999999999999995e-05,-4e-05,-5e-05,3
9274,9726,-5.9999999999999995e-05,7e-05,2.9999999999999997e-05,-2e-05,-5e-05,-5.9999999999999995e-05,-4e-05,-5e-05,3
9275,9727,-5.9999999999999995e-05,7e-05,2.9999999999999997e-05,-2e-05,-5e-05,-5.9999999999999995e-05,-4e-05,-5e-05,3
9276,9728,-5.9999999999999995e-05,7e-05,2.9999999999999997e-05,-2e-05,-5e-05,-5.9999999999999995e-05,-4e-05,-5e-05,3
9277,9729,-5.9999999999999995e-05,7e-05,2.9999999999999997e-05,-2e-05,-5e-05,-5.9999999999999995e-05,-4e-05,-5e-05,3
9278,9730,-5.9999999999999995e-05,7e-05,2.9999999999999997e-05,-2e-05,-5e-05,-5.9999999999999995e-05,-4e-05,-5e-05,3
9279,9731,-5.9999999999999995e-05,7e-05,2.9999999999999997e-05,-2e-05,-5e-05,-5.9999999999999995e-05,-4e-05,-5e-05,3
9280,9732,-5.9999999999999995e-05,7e-05,2.9999999999999997e-05,-2e-05,-5e-05,-5.9999999999999995e-05,-4e-05,-5e-05,3
9281,9733,-5.9999999999999995e-05,7e-05,2.9999999999999997e-05,-2e-05,-5e-05,-5.9999999999999995e-05,-4e-05,-5e-05,3
9282,9734,-5.9999999999999995e-05,7e-05,2.9999999999999997e-05,-2e-05,-5e-05,-5.9999999999999995e-05,-4e-05,-5e-05,3
9283,9735,-5.9999999999999995e-05,7e-05,2.9999999999999997e-05,-2e-05,-5e-05,-5.9999999999999995e-05,-4e-05,-5e-05,3
9284,9736,-5.9999999999999995e-05,7e-05,2.9999999999999997e-05,-2e-05,-5e-05,-5.9999999999999995e-05,-4e-05,-5e-05,3
9285,9738,-5.9999999999999995e-05,7e-05,2.9999999999999997e-05,-2e-05,-5e-05,-5.9999999999999995e-05,-4e-05,-5e-05,3
9286,9739,-5.9999999999999995e-05,7e-05,2.9999999999999997e-05,-2e-05,-5e-05,-5.9999999999999995e-05,-4e-05,-5e-05,3
9287,9740,-8e-05,0.0,-2.9999999999999997e-05,-4e-05,-0.0001,-5e-05,-5.9999999999999995e-05,-1e-05,3
9288,9741,-2.9999999999999997e-05,4e-05,1e-05,5e-05,7e-05,2.9999999999999997e-05,0.0,-1e-05,3
9289,9742,-2.9999999999999997e-05,4e-05,1e-05,5e-05,7e-05,2.9999999999999997e-05,0.0,-1e-05,3
9290,9743,-2.9999999999999997e-05,4e-05,1e-05,5e-05,7e-05,2.9999999999999997e-05,0.0,-1e-05,3
9291,9744,-2.9999999999999997e-05,4e-05,1e-05,5e-05,7e-05,2.9999999999999997e-05,0.0,-1e-05,3
9292,9745,-2.9999999999999997e-05,4e-05,1e-05,5e-05,7e-05,2.9999999999999997e-05,0.0,-1e-05,3
9293,9746,-2.9999999999999997e-05,4e-05,1e-05,5e-05,7e-05,2.9999999999999997e-05,0.0,-1e-05,3
9294,9747,-2.9999999999999997e-05,4e-05,1e-05,5e-05,7e-05,2.9999999999999997e-05,0.0,-1e-05,3
9295,9748,-2.9999999999999997e-05,4e-05,1e-05,5e-05,7e-05,2.9999999999999997e-05,0.0,-1e-05,3
9296,9749,-2.9999999999999997e-05,4e-05,1e-05,5e-05,7e-05,2.9999999999999997e-05,0.0,-1e-05,3
9297,9750,-2.9999999999999997e-05,4e-05,1e-05,5e-05,7e-05,2.9999999999999997e-05,0.0,-1e-05,3
9298,9751,-2.9999999999999997e-05,4e-05,1e-05,5e-05,7e-05,2.9999999999999997e-05,0.0,-1e-05,3
9299,9752,-2.9999999999999997e-05,4e-05,1e-05,5e-05,7e-05,2.9999999999999997e-05,0.0,-1e-05,3
9300,9753,-2.9999999999999997e-05,4e-05,1e-05,5e-05,7e-05,2.9999999999999997e-05,0.0,-1e-05,3
9301,9754,-2.9999999999999997e-05,4e-05,1e-05,5e-05,7e-05,2.9999999999999997e-05,0.0,-1e-05,3
9302,9755,-2.9999999999999997e-05,4e-05,1e-05,5e-05,7e-05,2.9999999999999997e-05,0.0,-1e-05,3
9303,9756,-2.9999999999999997e-05,4e-05,1e-05,5e-05,7e-05,2.9999999999999997e-05,0.0,-1e-05,3
9304,9757,-2.9999999999999997e-05,4e-05,1e-05,5e-05,7e-05,2.9999999999999997e-05,0.0,-1e-05,3
9305,9758,-2.9999999999999997e-05,4e-05,1e-05,5e-05,7e-05,2.9999999999999997e-05,0.0,-1e-05,3
9306,9759,-2.9999999999999997e-05,4e-05,1e-05,5e-05,7e-05,2.9999999999999997e-05,0.0,-1e-05,3
9307,9760,-2.9999999999999997e-05,4e-05,1e-05,5e-05,7e-05,2.9999999999999997e-05,0.0,-1e-05,3
9308,9761,-2.9999999999999997e-05,4e-05,1e-05,5e-05,7e-05,2.9999999999999997e-05,0.0,-1e-05,3
9309,9762,-2.9999999999999997e-05,4e-05,1e-05,5e-05,7e-05,2.9999999999999997e-05,0.0,-1e-05,3
9310,9763,-5e-05,-0.0001,-4e-05,-2.9999999999999997e-05,-4e-05,-4e-05,-1e-05,0.0,3
9311,9764,-0.00015,-0.00016,-9e-05,-9e-05,-0.0001,-8e-05,5.9999999999999995e-05,-0.0001,3
9312,9765,-0.00015,-0.00016,-9e-05,-9e-05,-0.0001,-8e-05,5.9999999999999995e-05,-0.0001,3
9313,9766,-0.00015,-0.00016,-9e-05,-9e-05,-0.0001,-8e-05,5.9999999999999995e-05,-0.0001,3
9314,9767,-0.00015,-0.00016,-9e-05,-9e-05,-0.0001,-8e-05,5.9999999999999995e-05,-0.0001,3
9315,9768,-0.00015,-0.00016,-9e-05,-9e-05,-0.0001,-8e-05,5.9999999999999995e-05,-0.0001,3
9316,9769,-0.00015,-0.00016,-9e-05,-9e-05,-0.0001,-8e-05,5.9999999999999995e-05,-0.0001,3
9317,9770,-0.00015,-0.00016,-9e-05,-9e-05,-0.0001,-8e-05,5.9999999999999995e-05,-0.0001,3
9318,9771,-0.00015,-0.00016,-9e-05,-9e-05,-0.0001,-8e-05,5.9999999999999995e-05,-0.0001,3
9319,9772,-0.00015,-0.00016,-9e-05,-9e-05,-0.0001,-8e-05,5.9999999999999995e-05,-0.0001,3
9320,9773,-0.00015,-0.00016,-9e-05,-9e-05,-0.0001,-8e-05,5.9999999999999995e-05,-0.0001,3
9321,9774,-0.00015,-0.00016,-9e-05,-9e-05,-0.0001,-8e-05,5.9999999999999995e-05,-0.0001,3
9322,9775,-0.00015,-0.00016,-9e-05,-9e-05,-0.0001,-8e-05,5.9999999999999995e-05,-0.0001,3
9323,9776,-0.00015,-0.00016,-9e-05,-9e-05,-0.0001,-8e-05,5.9999999999999995e-05,-0.0001,3
9324,9777,-5e-05,-0.00014,0.0,-1e-05,-2.9999999999999997e-05,-4e-05,5.9999999999999995e-05,-2e-05,3
9325,9778,-5e-05,-0.00014,0.0,-1e-05,-2.9999999999999997e-05,-4e-05,5.9999999999999995e-05,-2e-05,3
9326,9779,4e-05,7e-05,-1e-05,-1e-05,2e-05,5.9999999999999995e-05,-4e-05,7e-05,3
9327,9780,4e-05,7e-05,-1e-05,-1e-05,2e-05,5.9999999999999995e-05,-4e-05,7e-05,3
9328,9781,4e-05,7e-05,-1e-05,-1e-05,2e-05,5.9999999999999995e-05,-4e-05,7e-05,3
9329,9782,4e-05,7e-05,-1e-05,-1e-05,2e-05,5.9999999999999995e-05,-4e-05,7e-05,3
9330,9783,4e-05,7e-05,-1e-05,-1e-05,2e-05,5.9999999999999995e-05,-4e-05,7e-05,3
9331,9784,4e-05,7e-05,-1e-05,-1e-05,2e-05,5.9999999999999995e-05,-4e-05,7e-05,3
9332,9785,4e-05,7e-05,-1e-05,-1e-05,2e-05,5.9999999999999995e-05,-4e-05,7e-05,3
9333,9786,4e-05,7e-05,-1e-05,-1e-05,2e-05,5.9999999999999995e-05,-4e-05,7e-05,3
9334,9788,4e-05,7e-05,-1e-05,-1e-05,2e-05,5.9999999999999995e-05,-4e-05,7e-05,3
9335,9789,4e-05,7e-05,-1e-05,-1e-05,2e-05,5.9999999999999995e-05,-4e-05,7e-05,3
9336,9790,4e-05,7e-05,-1e-05,-1e-05,2e-05,5.9999999999999995e-05,-4e-05,7e-05,3
9337,9791,4e-05,7e-05,-1e-05,-1e-05,2e-05,5.9999999999999995e-05,-4e-05,7e-05,3
9338,9792,4e-05,7e-05,-1e-05,-1e-05,2e-05,5.9999999999999995e-05,-4e-05,7e-05,3
9339,9793,4e-05,7e-05,-1e-05,-1e-05,2e-05,5.9999999999999995e-05,-4e-05,7e-05,3
9340,9794,4e-05,7e-05,-1e-05,-1e-05,2e-05,5.9999999999999995e-05,-4e-05,7e-05,3
9341,9795,4e-05,7e-05,-1e-05,-1e-05,2e-05,5.9999999999999995e-05,-4e-05,7e-05,3
9342,9796,4e-05,7e-05,-1e-05,-1e-05,2e-05,5.9999999999999995e-05,-4e-05,7e-05,3
9343,9797,4e-05,7e-05,-1e-05,-1e-05,2e-05,5.9999999999999995e-05,-4e-05,7e-05,3
9344,9798,4e-05,7e-05,-1e-05,-1e-05,2e-05,5.9999999999999995e-05,-4e-05,7e-05,3
9345,9799,4e-05,7e-05,-1e-05,-1e-05,2e-05,5.9999999999999995e-05,-4e-05,7e-05,3
9346,9800,-0.00016999999999999999,-1e-05,-5.9999999999999995e-05,-5e-05,-2e-05,-2.9999999999999997e-05,7e-05,-8e-05,3
9347,9801,2e-05,-5.9999999999999995e-05,-1e-05,-2e-05,-2.9999999999999997e-05,-2.9999999999999997e-05,-5.9999999999999995e-05,0.0,3
9348,9802,2e-05,-5.9999999999999995e-05,-1e-05,-2e-05,-2.9999999999999997e-05,-2.9999999999999997e-05,-5.9999999999999995e-05,0.0,3
9349,9803,2e-05,-5.9999999999999995e-05,-1e-05,-2e-05,-2.9999999999999997e-05,-2.9999999999999997e-05,-5.9999999999999995e-05,0.0,3
9350,9804,2e-05,-5.9999999999999995e-05,-1e-05,-2e-05,-2.9999999999999997e-05,-2.9999999999999997e-05,-5.9999999999999995e-05,0.0,3
9351,9805,2e-05,-5.9999999999999995e-05,-1e-05,-2e-05,-2.9999999999999997e-05,-2.9999999999999997e-05,-5.9999999999999995e-05,0.0,3
9352,9806,2e-05,-5.9999999999999995e-05,-1e-05,-2e-05,-2.9999999999999997e-05,-2.9999999999999997e-05,-5.9999999999999995e-05,0.0,3
9353,9807,2e-05,-5.9999999999999995e-05,-1e-05,-2e-05,-2.9999999999999997e-05,-2.9999999999999997e-05,-5.9999999999999995e-05,0.0,3
9354,9808,2e-05,-5.9999999999999995e-05,-1e-05,-2e-05,-2.9999999999999997e-05,-2.9999999999999997e-05,-5.9999999999999995e-05,0.0,3
9355,9809,2e-05,-5.9999999999999995e-05,-1e-05,-2e-05,-2.9999999999999997e-05,-2.9999999999999997e-05,-5.9999999999999995e-05,0.0,3
9356,9810,2e-05,-5.9999999999999995e-05,-1e-05,-2e-05,-2.9999999999999997e-05,-2.9999999999999997e-05,-5.9999999999999995e-05,0.0,3
9357,9811,2e-05,-5.9999999999999995e-05,-1e-05,-2e-05,-2.9999999999999997e-05,-2.9999999999999997e-05,-5.9999999999999995e-05,0.0,3
9358,9812,2e-05,-5.9999999999999995e-05,-1e-05,-2e-05,-2.9999999999999997e-05,-2.9999999999999997e-05,-5.9999999999999995e-05,0.0,3
9359,9813,2e-05,-5.9999999999999995e-05,-1e-05,-2e-05,-2.9999999999999997e-05,-2.9999999999999997e-05,-5.9999999999999995e-05,0.0,3
9360,9814,2e-05,-5.9999999999999995e-05,-1e-05,-2e-05,-2.9999999999999997e-05,-2.9999999999999997e-05,-5.9999999999999995e-05,0.0,3
9361,9815,2e-05,-5.9999999999999995e-05,-1e-05,-2e-05,-2.9999999999999997e-05,-2.9999999999999997e-05,-5.9999999999999995e-05,0.0,3
9362,9816,2e-05,-5.9999999999999995e-05,-1e-05,-2e-05,-2.9999999999999997e-05,-2.9999999999999997e-05,-5.9999999999999995e-05,0.0,3
9363,9817,2e-05,-5.9999999999999995e-05,-1e-05,-2e-05,-2.9999999999999997e-05,-2.9999999999999997e-05,-5.9999999999999995e-05,0.0,3
9364,9818,2e-05,-5.9999999999999995e-05,-1e-05,-2e-05,-2.9999999999999997e-05,-2.9999999999999997e-05,-5.9999999999999995e-05,0.0,3
9365,9819,2e-05,-5.9999999999999995e-05,-1e-05,-2e-05,-2.9999999999999997e-05,-2.9999999999999997e-05,-5.9999999999999995e-05,0.0,3
9366,9820,2e-05,-5.9999999999999995e-05,-1e-05,-2e-05,-2.9999999999999997e-05,-2.9999999999999997e-05,-5.9999999999999995e-05,0.0,3
9367,9821,2e-05,-5.9999999999999995e-05,-1e-05,-2e-05,-2.9999999999999997e-05,-2.9999999999999997e-05,-5.9999999999999995e-05,0.0,3
9368,9822,2e-05,-5.9999999999999995e-05,-1e-05,-2e-05,-2.9999999999999997e-05,-2.9999999999999997e-05,-5.9999999999999995e-05,0.0,3
9369,9823,2e-05,-5.9999999999999995e-05,-1e-05,-2e-05,-2.9999999999999997e-05,-2.9999999999999997e-05,-5.9999999999999995e-05,0.0,3
9370,9824,2e-05,-5.9999999999999995e-05,-1e-05,-2e-05,-2.9999999999999997e-05,-2.9999999999999997e-05,-5.9999999999999995e-05,0.0,3
9371,9825,2e-05,-5.9999999999999995e-05,-1e-05,-2e-05,-2.9999999999999997e-05,-2.9999999999999997e-05,-5.9999999999999995e-05,0.0,3
9372,9826,2e-05,-5.9999999999999995e-05,-1e-05,-2e-05,-2.9999999999999997e-05,-2.9999999999999997e-05,-5.9999999999999995e-05,0.0,3
9373,9827,2e-05,-5.9999999999999995e-05,-1e-05,-2e-05,-2.9999999999999997e-05,-2.9999999999999997e-05,-5.9999999999999995e-05,0.0,3
9374,9828,2e-05,-5.9999999999999995e-05,-1e-05,-2e-05,-2.9999999999999997e-05,-2.9999999999999997e-05,-5.9999999999999995e-05,0.0,3
9375,9829,2e-05,-5.9999999999999995e-05,-1e-05,-2e-05,-2.9999999999999997e-05,-2.9999999999999997e-05,-5.9999999999999995e-05,0.0,3
9376,9830,1e-05,5e-05,2.9999999999999997e-05,2.9999999999999997e-05,8e-05,2e-05,-5.9999999999999995e-05,9e-05,3
9377,9831,-0.00016,-1e-05,0.0,-4e-05,-5e-05,-2e-05,-2.9999999999999997e-05,1e-05,3
9378,9832,-0.00016,-1e-05,0.0,-4e-05,-5e-05,-2e-05,-2.9999999999999997e-05,1e-05,3
9379,9833,-0.00016,-1e-05,0.0,-4e-05,-5e-05,-2e-05,-2.9999999999999997e-05,1e-05,3
9380,9834,-0.00016,-1e-05,0.0,-4e-05,-5e-05,-2e-05,-2.9999999999999997e-05,1e-05,3
9381,9835,-0.00016,-1e-05,0.0,-4e-05,-5e-05,-2e-05,-2.9999999999999997e-05,1e-05,3
9382,9836,-8e-05,-1e-05,1e-05,0.0,0.0,-2.9999999999999997e-05,-4e-05,5.9999999999999995e-05,3
9383,9839,-0.00032,1e-05,0.0,0.0,0.0,1e-05,2e-05,-5e-05,3
9384,9840,-0.00032,1e-05,0.0,0.0,0.0,1e-05,2e-05,-5e-05,3
9385,9841,-0.00032,1e-05,0.0,0.0,0.0,1e-05,2e-05,-5e-05,3
9386,9842,-0.00032,1e-05,0.0,0.0,0.0,1e-05,2e-05,-5e-05,3
9387,9843,0.00016,0.00013000000000000002,4e-05,4e-05,-4e-05,-2e-05,-5e-05,2.9999999999999997e-05,3
9388,9844,0.00016,0.00013000000000000002,4e-05,4e-05,-4e-05,-2e-05,-5e-05,2.9999999999999997e-05,3
9389,9845,0.00016,0.00013000000000000002,4e-05,4e-05,-4e-05,-2e-05,-5e-05,2.9999999999999997e-05,3
9390,9846,0.00016,0.00013000000000000002,4e-05,4e-05,-4e-05,-2e-05,-5e-05,2.9999999999999997e-05,3
9391,9847,0.00016,0.00013000000000000002,4e-05,4e-05,-4e-05,-2e-05,-5e-05,2.9999999999999997e-05,3
9392,9848,0.00016,0.00013000000000000002,4e-05,4e-05,-4e-05,-2e-05,-5e-05,2.9999999999999997e-05,3
9393,9849,0.00016,0.00013000000000000002,4e-05,4e-05,-4e-05,-2e-05,-5e-05,2.9999999999999997e-05,3
9394,9850,0.00016,0.00013000000000000002,4e-05,4e-05,-4e-05,-2e-05,-5e-05,2.9999999999999997e-05,3
9395,9851,0.00016,0.00013000000000000002,4e-05,4e-05,-4e-05,-2e-05,-5e-05,2.9999999999999997e-05,3
9396,9852,0.00016,0.00013000000000000002,4e-05,4e-05,-4e-05,-2e-05,-5e-05,2.9999999999999997e-05,3
9397,9853,0.00016,0.00013000000000000002,4e-05,4e-05,-4e-05,-2e-05,-5e-05,2.9999999999999997e-05,3
9398,9854,0.00016,0.00013000000000000002,4e-05,4e-05,-4e-05,-2e-05,-5e-05,2.9999999999999997e-05,3
9399,9855,0.00016,0.00013000000000000002,4e-05,4e-05,-4e-05,-2e-05,-5e-05,2.9999999999999997e-05,3
9400,9856,0.00016,0.00013000000000000002,4e-05,4e-05,-4e-05,-2e-05,-5e-05,2.9999999999999997e-05,3
9401,9857,0.00016,0.00013000000000000002,4e-05,4e-05,-4e-05,-2e-05,-5e-05,2.9999999999999997e-05,3
9402,9858,0.00016,0.00013000000000000002,4e-05,4e-05,-4e-05,-2e-05,-5e-05,2.9999999999999997e-05,3
9403,9859,0.00016,0.00013000000000000002,4e-05,4e-05,-4e-05,-2e-05,-5e-05,2.9999999999999997e-05,3
9404,9860,0.00016,0.00013000000000000002,4e-05,4e-05,-4e-05,-2e-05,-5e-05,2.9999999999999997e-05,3
9405,9861,0.00016,0.00013000000000000002,4e-05,4e-05,-4e-05,-2e-05,-5e-05,2.9999999999999997e-05,3
9406,9862,0.00016,0.00013000000000000002,4e-05,4e-05,-4e-05,-2e-05,-5e-05,2.9999999999999997e-05,3
9407,9863,0.00016,0.00013000000000000002,4e-05,4e-05,-4e-05,-2e-05,-5e-05,2.9999999999999997e-05,3
9408,9864,0.00016,0.00013000000000000002,4e-05,4e-05,-4e-05,-2e-05,-5e-05,2.9999999999999997e-05,3
9409,9865,0.00016,0.00013000000000000002,4e-05,4e-05,-4e-05,-2e-05,-5e-05,2.9999999999999997e-05,3
9410,9866,0.00016,0.00013000000000000002,4e-05,4e-05,-4e-05,-2e-05,-5e-05,2.9999999999999997e-05,3
9411,9867,0.00016,5e-05,1e-05,0.0,7e-05,4e-05,2.9999999999999997e-05,9e-05,3
9412,9868,0.00016,5e-05,1e-05,0.0,7e-05,4e-05,2.9999999999999997e-05,9e-05,3
9413,9870,0.0,5e-05,-1e-05,-1e-05,0.0,5e-05,4e-05,-2e-05,3
9414,9871,0.0,5e-05,-1e-05,-1e-05,0.0,5e-05,4e-05,-2e-05,3
9415,9872,0.0,5e-05,-1e-05,-1e-05,0.0,5e-05,4e-05,-2e-05,3
9416,9873,0.0,5e-05,-1e-05,-1e-05,0.0,5e-05,4e-05,-2e-05,3
9417,9874,0.0,5e-05,-1e-05,-1e-05,0.0,5e-05,4e-05,-2e-05,3
9418,9875,0.0,5e-05,-1e-05,-1e-05,0.0,5e-05,4e-05,-2e-05,3
9419,9876,0.0,5e-05,-1e-05,-1e-05,0.0,5e-05,4e-05,-2e-05,3
9420,9877,0.0,5e-05,-1e-05,-1e-05,0.0,5e-05,4e-05,-2e-05,3
9421,9878,0.0,5e-05,-1e-05,-1e-05,0.0,5e-05,4e-05,-2e-05,3
9422,9879,0.0,5e-05,-1e-05,-1e-05,0.0,5e-05,4e-05,-2e-05,3
9423,9880,0.0,5e-05,-1e-05,-1e-05,0.0,5e-05,4e-05,-2e-05,3
9424,9881,0.0,5e-05,-1e-05,-1e-05,0.0,5e-05,4e-05,-2e-05,3
9425,9882,0.00022999999999999998,5e-05,-4e-05,-2.9999999999999997e-05,-1e-05,-4e-05,-8e-05,1e-05,3
9426,9883,-0.00011999999999999999,-1e-05,0.0,-1e-05,-4e-05,-2.9999999999999997e-05,-1e-05,-0.00015,3
9427,9884,-0.0003,-7e-05,-2e-05,-2.9999999999999997e-05,-2e-05,-4e-05,2e-05,-0.0001,3
9428,9885,-0.0003,-7e-05,-2e-05,-2.9999999999999997e-05,-2e-05,-4e-05,2e-05,-0.0001,3
9429,9886,-0.0003,-7e-05,-2e-05,-2.9999999999999997e-05,-2e-05,-4e-05,2e-05,-0.0001,3
9430,9889,-0.0003,-7e-05,-2e-05,-2.9999999999999997e-05,-2e-05,-4e-05,2e-05,-0.0001,3
9431,9890,-0.0003,-7e-05,-2e-05,-2.9999999999999997e-05,-2e-05,-4e-05,2e-05,-0.0001,3
9432,9891,-0.0003,-7e-05,-2e-05,-2.9999999999999997e-05,-2e-05,-4e-05,2e-05,-0.0001,3
9433,9892,-0.0003,-7e-05,-2e-05,-2.9999999999999997e-05,-2e-05,-4e-05,2e-05,-0.0001,3
9434,9893,-0.0003,-7e-05,-2e-05,-2.9999999999999997e-05,-2e-05,-4e-05,2e-05,-0.0001,3
9435,9894,-0.0003,-7e-05,-2e-05,-2.9999999999999997e-05,-2e-05,-4e-05,2e-05,-0.0001,3
9436,9895,-0.0003,-7e-05,-2e-05,-2.9999999999999997e-05,-2e-05,-4e-05,2e-05,-0.0001,3
9437,9896,-9e-05,-2.9999999999999997e-05,-1e-05,-1e-05,0.0,-2e-05,9e-05,0.0,3
9438,9897,0.00016,-2.9999999999999997e-05,-2.9999999999999997e-05,-2e-05,-4e-05,-9e-05,-0.00021,-0.0001,3
9439,9898,0.00016,-2.9999999999999997e-05,-2.9999999999999997e-05,-2e-05,-4e-05,-9e-05,-0.00021,-0.0001,3
9440,9899,0.00016,-2.9999999999999997e-05,-2.9999999999999997e-05,-2e-05,-4e-05,-9e-05,-0.00021,-0.0001,3
9441,9900,0.00016,-2.9999999999999997e-05,-2.9999999999999997e-05,-2e-05,-4e-05,-9e-05,-0.00021,-0.0001,3
9442,9901,0.00016,-2.9999999999999997e-05,-2.9999999999999997e-05,-2e-05,-4e-05,-9e-05,-0.00021,-0.0001,3
9443,9902,0.00016,-2.9999999999999997e-05,-2.9999999999999997e-05,-2e-05,-4e-05,-9e-05,-0.00021,-0.0001,3
9444,9903,1e-05,-1e-05,0.0,-2.9999999999999997e-05,0.0,-1e-05,2.9999999999999997e-05,-5.9999999999999995e-05,3
9445,9904,-2e-05,5.9999999999999995e-05,2e-05,1e-05,1e-05,-2e-05,-1e-05,0.00011999999999999999,3
9446,9905,-2e-05,5.9999999999999995e-05,2e-05,1e-05,1e-05,-2e-05,-1e-05,0.00011999999999999999,3
9447,9906,-2e-05,5.9999999999999995e-05,2e-05,1e-05,1e-05,-2e-05,-1e-05,0.00011999999999999999,3
9448,9907,-2e-05,5.9999999999999995e-05,2e-05,1e-05,1e-05,-2e-05,-1e-05,0.00011999999999999999,3
9449,9908,-2e-05,5.9999999999999995e-05,2e-05,1e-05,1e-05,-2e-05,-1e-05,0.00011999999999999999,3
9450,9909,-2e-05,5.9999999999999995e-05,2e-05,1e-05,1e-05,-2e-05,-1e-05,0.00011999999999999999,3
9451,9910,-2e-05,5.9999999999999995e-05,2e-05,1e-05,1e-05,-2e-05,-1e-05,0.00011999999999999999,3
9452,9911,-2e-05,5.9999999999999995e-05,2e-05,1e-05,1e-05,-2e-05,-1e-05,0.00011999999999999999,3
9453,9912,-2e-05,5.9999999999999995e-05,2e-05,1e-05,1e-05,-2e-05,-1e-05,0.00011999999999999999,3
9454,9913,-2e-05,5.9999999999999995e-05,2e-05,1e-05,1e-05,-2e-05,-1e-05,0.00011999999999999999,3
9455,9914,-2e-05,5.9999999999999995e-05,2e-05,1e-05,1e-05,-2e-05,-1e-05,0.00011999999999999999,3
9456,9915,-2e-05,5.9999999999999995e-05,2e-05,1e-05,1e-05,-2e-05,-1e-05,0.00011999999999999999,3
9457,9916,-2e-05,5.9999999999999995e-05,2e-05,1e-05,1e-05,-2e-05,-1e-05,0.00011999999999999999,3
9458,9917,-2e-05,5.9999999999999995e-05,2e-05,1e-05,1e-05,-2e-05,-1e-05,0.00011999999999999999,3
9459,9918,-2e-05,5.9999999999999995e-05,2e-05,1e-05,1e-05,-2e-05,-1e-05,0.00011999999999999999,3
9460,9919,-2e-05,5.9999999999999995e-05,2e-05,1e-05,1e-05,-2e-05,-1e-05,0.00011999999999999999,3
9461,9920,-2e-05,5.9999999999999995e-05,2e-05,1e-05,1e-05,-2e-05,-1e-05,0.00011999999999999999,3
9462,9921,-2.9999999999999997e-05,2e-05,-2e-05,-4e-05,-2.9999999999999997e-05,-9e-05,-4e-05,-4e-05,3
9463,9922,2.9999999999999997e-05,-2e-05,-1e-05,-1e-05,2e-05,1e-05,2e-05,2e-05,3
9464,9923,2.9999999999999997e-05,-2e-05,-1e-05,-1e-05,2e-05,1e-05,2e-05,2e-05,3
9465,9924,2.9999999999999997e-05,-2e-05,-1e-05,-1e-05,2e-05,1e-05,2e-05,2e-05,3
9466,9925,2.9999999999999997e-05,-2e-05,-1e-05,-1e-05,2e-05,1e-05,2e-05,2e-05,3
9467,9926,2.9999999999999997e-05,-2e-05,-1e-05,-1e-05,2e-05,1e-05,2e-05,2e-05,3
9468,9927,2.9999999999999997e-05,-2e-05,-1e-05,-1e-05,2e-05,1e-05,2e-05,2e-05,3
9469,9928,2.9999999999999997e-05,-2e-05,-1e-05,-1e-05,2e-05,1e-05,2e-05,2e-05,3
9470,9929,2.9999999999999997e-05,-2e-05,-1e-05,-1e-05,2e-05,1e-05,2e-05,2e-05,3
9471,9930,2.9999999999999997e-05,-2e-05,-1e-05,-1e-05,2e-05,1e-05,2e-05,2e-05,3
9472,9931,2.9999999999999997e-05,-2e-05,-1e-05,-1e-05,2e-05,1e-05,2e-05,2e-05,3
9473,9932,2.9999999999999997e-05,-2e-05,-1e-05,-1e-05,2e-05,1e-05,2e-05,2e-05,3
9474,9933,2.9999999999999997e-05,-2e-05,-1e-05,-1e-05,2e-05,1e-05,2e-05,2e-05,3
9475,9934,2.9999999999999997e-05,-2e-05,-1e-05,-1e-05,2e-05,1e-05,2e-05,2e-05,3
9476,9935,2.9999999999999997e-05,-2e-05,-1e-05,-1e-05,2e-05,1e-05,2e-05,2e-05,3
9477,9937,2.9999999999999997e-05,-2e-05,-1e-05,-1e-05,2e-05,1e-05,2e-05,2e-05,3
9478,9939,2.9999999999999997e-05,-2e-05,-1e-05,-1e-05,2e-05,1e-05,2e-05,2e-05,3
9479,9940,2.9999999999999997e-05,-2e-05,-1e-05,-1e-05,2e-05,1e-05,2e-05,2e-05,3
9480,9941,2.9999999999999997e-05,-2e-05,-1e-05,-1e-05,2e-05,1e-05,2e-05,2e-05,3
9481,9942,-0.00028,-0.00015,-4e-05,-1e-05,-1e-05,-2e-05,2.9999999999999997e-05,-0.00014,3
9482,9943,-0.00028,-0.00015,-4e-05,-1e-05,-1e-05,-2e-05,2.9999999999999997e-05,-0.00014,3
9483,9944,0.0001,-1e-05,-1e-05,-1e-05,-4e-05,-2e-05,-2.9999999999999997e-05,-4e-05,3
9484,9945,0.0001,-1e-05,-1e-05,-1e-05,-4e-05,-2e-05,-2.9999999999999997e-05,-4e-05,3
9485,9946,0.0001,-1e-05,-1e-05,-1e-05,-4e-05,-2e-05,-2.9999999999999997e-05,-4e-05,3
9486,9947,0.0001,-1e-05,-1e-05,-1e-05,-4e-05,-2e-05,-2.9999999999999997e-05,-4e-05,3
9487,9948,0.0001,-1e-05,-1e-05,-1e-05,-4e-05,-2e-05,-2.9999999999999997e-05,-4e-05,3
9488,9949,0.0001,-1e-05,-1e-05,-1e-05,-4e-05,-2e-05,-2.9999999999999997e-05,-4e-05,3
9489,9950,0.0001,-1e-05,-1e-05,-1e-05,-4e-05,-2e-05,-2.9999999999999997e-05,-4e-05,3
9490,9951,0.0001,-1e-05,-1e-05,-1e-05,-4e-05,-2e-05,-2.9999999999999997e-05,-4e-05,3
9491,9952,0.0001,-1e-05,-1e-05,-1e-05,-4e-05,-2e-05,-2.9999999999999997e-05,-4e-05,3
9492,9953,0.0001,-1e-05,-1e-05,-1e-05,-4e-05,-2e-05,-2.9999999999999997e-05,-4e-05,3
9493,9954,0.0001,-1e-05,-1e-05,-1e-05,-4e-05,-2e-05,-2.9999999999999997e-05,-4e-05,3
9494,9955,0.0001,-1e-05,-1e-05,-1e-05,-4e-05,-2e-05,-2.9999999999999997e-05,-4e-05,3
9495,9956,-2.9999999999999997e-05,-2.9999999999999997e-05,0.0,2e-05,8e-05,1e-05,-5e-05,2e-05,3
9496,9957,0.00023999999999999998,0.00014,1e-05,-1e-05,-5.9999999999999995e-05,-5e-05,-5.9999999999999995e-05,-4e-05,3
9497,9958,0.00023999999999999998,0.00014,1e-05,-1e-05,-5.9999999999999995e-05,-5e-05,-5.9999999999999995e-05,-4e-05,3
9498,9959,0.00023999999999999998,0.00014,1e-05,-1e-05,-5.9999999999999995e-05,-5e-05,-5.9999999999999995e-05,-4e-05,3
9499,9960,0.00023999999999999998,0.00014,1e-05,-1e-05,-5.9999999999999995e-05,-5e-05,-5.9999999999999995e-05,-4e-05,3
9500,9961,0.00023999999999999998,0.00014,1e-05,-1e-05,-5.9999999999999995e-05,-5e-05,-5.9999999999999995e-05,-4e-05,3
9501,9962,0.00023999999999999998,0.00014,1e-05,-1e-05,-5.9999999999999995e-05,-5e-05,-5.9999999999999995e-05,-4e-05,3
9502,9963,0.00023999999999999998,0.00014,1e-05,-1e-05,-5.9999999999999995e-05,-5e-05,-5.9999999999999995e-05,-4e-05,3
9503,9964,0.00023999999999999998,0.00014,1e-05,-1e-05,-5.9999999999999995e-05,-5e-05,-5.9999999999999995e-05,-4e-05,3
9504,9965,0.00023999999999999998,0.00014,1e-05,-1e-05,-5.9999999999999995e-05,-5e-05,-5.9999999999999995e-05,-4e-05,3
9505,9966,0.00023999999999999998,0.00014,1e-05,-1e-05,-5.9999999999999995e-05,-5e-05,-5.9999999999999995e-05,-4e-05,3
9506,9967,0.00023999999999999998,0.00014,1e-05,-1e-05,-5.9999999999999995e-05,-5e-05,-5.9999999999999995e-05,-4e-05,3
9507,9968,0.00023999999999999998,0.00014,1e-05,-1e-05,-5.9999999999999995e-05,-5e-05,-5.9999999999999995e-05,-4e-05,3
9508,9969,0.00023999999999999998,0.00014,1e-05,-1e-05,-5.9999999999999995e-05,-5e-05,-5.9999999999999995e-05,-4e-05,3
9509,9970,0.00023999999999999998,0.00014,1e-05,-1e-05,-5.9999999999999995e-05,-5e-05,-5.9999999999999995e-05,-4e-05,3
9510,9971,2.9999999999999997e-05,-0.00011,-5.9999999999999995e-05,-4e-05,-5.9999999999999995e-05,-4e-05,-0.00011,-5.9999999999999995e-05,3
9511,9972,2.9999999999999997e-05,-0.00011,-5.9999999999999995e-05,-4e-05,-5.9999999999999995e-05,-4e-05,-0.00011,-5.9999999999999995e-05,3
9512,9973,2.9999999999999997e-05,-0.00011,-5.9999999999999995e-05,-4e-05,-5.9999999999999995e-05,-4e-05,-0.00011,-5.9999999999999995e-05,3
9513,9974,2.9999999999999997e-05,-0.00011,-5.9999999999999995e-05,-4e-05,-5.9999999999999995e-05,-4e-05,-0.00011,-5.9999999999999995e-05,3
9514,9975,2.9999999999999997e-05,-0.00011,-5.9999999999999995e-05,-4e-05,-5.9999999999999995e-05,-4e-05,-0.00011,-5.9999999999999995e-05,3
9515,9976,2.9999999999999997e-05,-0.00011,-5.9999999999999995e-05,-4e-05,-5.9999999999999995e-05,-4e-05,-0.00011,-5.9999999999999995e-05,3
9516,9977,2.9999999999999997e-05,-0.00011,-5.9999999999999995e-05,-4e-05,-5.9999999999999995e-05,-4e-05,-0.00011,-5.9999999999999995e-05,3
9517,9978,2.9999999999999997e-05,-0.00011,-5.9999999999999995e-05,-4e-05,-5.9999999999999995e-05,-4e-05,-0.00011,-5.9999999999999995e-05,3
9518,9979,2.9999999999999997e-05,-0.00011,-5.9999999999999995e-05,-4e-05,-5.9999999999999995e-05,-4e-05,-0.00011,-5.9999999999999995e-05,3
9519,9980,0.00013000000000000002,7e-05,2.9999999999999997e-05,2e-05,-1e-05,1e-05,-5.9999999999999995e-05,0.0001,3
9520,9981,0.00021,2.9999999999999997e-05,1e-05,1e-05,2e-05,0.0,0.0,-7e-05,3
9521,9982,0.00021,2.9999999999999997e-05,1e-05,1e-05,2e-05,0.0,0.0,-7e-05,3
9522,9983,0.00021,2.9999999999999997e-05,1e-05,1e-05,2e-05,0.0,0.0,-7e-05,3
9523,9984,0.00021,2.9999999999999997e-05,1e-05,1e-05,2e-05,0.0,0.0,-7e-05,3
9524,9985,0.00021,2.9999999999999997e-05,1e-05,1e-05,2e-05,0.0,0.0,-7e-05,3
9525,9987,0.00021,2.9999999999999997e-05,1e-05,1e-05,2e-05,0.0,0.0,-7e-05,3
9526,9989,0.00021,2.9999999999999997e-05,1e-05,1e-05,2e-05,0.0,0.0,-7e-05,3
9527,9990,0.00021,2.9999999999999997e-05,1e-05,1e-05,2e-05,0.0,0.0,-7e-05,3
9528,9991,0.00021,2.9999999999999997e-05,1e-05,1e-05,2e-05,0.0,0.0,-7e-05,3
9529,9992,0.00021,2.9999999999999997e-05,1e-05,1e-05,2e-05,0.0,0.0,-7e-05,3
9530,9993,0.00021,2.9999999999999997e-05,1e-05,1e-05,2e-05,0.0,0.0,-7e-05,3
9531,9994,0.00021,2.9999999999999997e-05,1e-05,1e-05,2e-05,0.0,0.0,-7e-05,3
9532,9995,0.00021,2.9999999999999997e-05,1e-05,1e-05,2e-05,0.0,0.0,-7e-05,3
9533,9996,0.00021,2.9999999999999997e-05,1e-05,1e-05,2e-05,0.0,0.0,-7e-05,3
9534,9997,0.00021,2.9999999999999997e-05,1e-05,1e-05,2e-05,0.0,0.0,-7e-05,3
9535,9998,0.00021,2.9999999999999997e-05,1e-05,1e-05,2e-05,0.0,0.0,-7e-05,3
9536,9999,0.00021,2.9999999999999997e-05,1e-05,1e-05,2e-05,0.0,0.0,-7e-05,3
9537,10000,0.00021,2.9999999999999997e-05,1e-05,1e-05,2e-05,0.0,0.0,-7e-05,3
9538,10001,0.00021,2.9999999999999997e-05,1e-05,1e-05,2e-05,0.0,0.0,-7e-05,3
9539,10002,0.00021,2.9999999999999997e-05,1e-05,1e-05,2e-05,0.0,0.0,-7e-05,3
9540,10003,-0.0002,-0.0001,-2e-05,1e-05,-2e-05,-2.9999999999999997e-05,2e-05,-5.9999999999999995e-05,3
9541,10004,0.00011,-1e-05,-1e-05,-4e-05,-2.9999999999999997e-05,-5.9999999999999995e-05,-1e-05,-5e-05,3
9542,10005,0.00011,-1e-05,-1e-05,-4e-05,-2.9999999999999997e-05,-5.9999999999999995e-05,-1e-05,-5e-05,3
9543,10006,0.00011,-1e-05,-1e-05,-4e-05,-2.9999999999999997e-05,-5.9999999999999995e-05,-1e-05,-5e-05,3
9544,10007,0.00011,-1e-05,-1e-05,-4e-05,-2.9999999999999997e-05,-5.9999999999999995e-05,-1e-05,-5e-05,3
9545,10008,0.00011,-1e-05,-1e-05,-4e-05,-2.9999999999999997e-05,-5.9999999999999995e-05,-1e-05,-5e-05,3
9546,10009,0.00011,-1e-05,-1e-05,-4e-05,-2.9999999999999997e-05,-5.9999999999999995e-05,-1e-05,-5e-05,3
9547,10010,0.00011,-1e-05,-1e-05,-4e-05,-2.9999999999999997e-05,-5.9999999999999995e-05,-1e-05,-5e-05,3
9548,10011,0.00011,-1e-05,-1e-05,-4e-05,-2.9999999999999997e-05,-5.9999999999999995e-05,-1e-05,-5e-05,3
9549,10012,0.00011,-1e-05,-1e-05,-4e-05,-2.9999999999999997e-05,-5.9999999999999995e-05,-1e-05,-5e-05,3
9550,10013,0.00011,-1e-05,-1e-05,-4e-05,-2.9999999999999997e-05,-5.9999999999999995e-05,-1e-05,-5e-05,3
9551,10014,0.00011,-1e-05,-1e-05,-4e-05,-2.9999999999999997e-05,-5.9999999999999995e-05,-1e-05,-5e-05,3
9552,10015,0.00011,-1e-05,-1e-05,-4e-05,-2.9999999999999997e-05,-5.9999999999999995e-05,-1e-05,-5e-05,3
9553,10016,-8e-05,-0.00011999999999999999,-5e-05,2.9999999999999997e-05,9e-05,9e-05,2.9999999999999997e-05,7e-05,3
9554,10017,8e-05,4e-05,2e-05,1e-05,4e-05,8e-05,5.9999999999999995e-05,2.9999999999999997e-05,3
9555,10018,8e-05,4e-05,2e-05,1e-05,4e-05,8e-05,5.9999999999999995e-05,2.9999999999999997e-05,3
9556,10019,8e-05,4e-05,2e-05,1e-05,4e-05,8e-05,5.9999999999999995e-05,2.9999999999999997e-05,3
9557,10020,8e-05,4e-05,2e-05,1e-05,4e-05,8e-05,5.9999999999999995e-05,2.9999999999999997e-05,3
9558,10021,8e-05,4e-05,2e-05,1e-05,4e-05,8e-05,5.9999999999999995e-05,2.9999999999999997e-05,3
9559,10022,8e-05,4e-05,2e-05,1e-05,4e-05,8e-05,5.9999999999999995e-05,2.9999999999999997e-05,3
9560,10023,-0.0002,-5e-05,-1e-05,-1e-05,-2e-05,1e-05,5.9999999999999995e-05,-1e-05,3
9561,10024,0.00018,8e-05,0.0,-1e-05,-2e-05,-2.9999999999999997e-05,0.0,-1e-05,3
9562,10025,0.00018,8e-05,0.0,-1e-05,-2e-05,-2.9999999999999997e-05,0.0,-1e-05,3
9563,10026,0.00018,8e-05,0.0,-1e-05,-2e-05,-2.9999999999999997e-05,0.0,-1e-05,3
9564,10027,0.00018,8e-05,0.0,-1e-05,-2e-05,-2.9999999999999997e-05,0.0,-1e-05,3
9565,10028,0.00018,8e-05,0.0,-1e-05,-2e-05,-2.9999999999999997e-05,0.0,-1e-05,3
9566,10029,0.00018,8e-05,0.0,-1e-05,-2e-05,-2.9999999999999997e-05,0.0,-1e-05,3
9567,10030,0.00018,8e-05,0.0,-1e-05,-2e-05,-2.9999999999999997e-05,0.0,-1e-05,3
9568,10031,0.00018,8e-05,0.0,-1e-05,-2e-05,-2.9999999999999997e-05,0.0,-1e-05,3
9569,10033,0.00018,8e-05,0.0,-1e-05,-2e-05,-2.9999999999999997e-05,0.0,-1e-05,3
9570,10034,0.00018,8e-05,0.0,-1e-05,-2e-05,-2.9999999999999997e-05,0.0,-1e-05,3
9571,10035,0.00018,8e-05,0.0,-1e-05,-2e-05,-2.9999999999999997e-05,0.0,-1e-05,3
9572,10044,5e-05,-0.00013000000000000002,-7e-05,2e-05,5e-05,7e-05,5.9999999999999995e-05,4e-05,3
9573,10045,5e-05,-0.00013000000000000002,-7e-05,2e-05,5e-05,7e-05,5.9999999999999995e-05,4e-05,3
9574,10046,5e-05,-0.00013000000000000002,-7e-05,2e-05,5e-05,7e-05,5.9999999999999995e-05,4e-05,3
9575,10047,5e-05,-0.00013000000000000002,-7e-05,2e-05,5e-05,7e-05,5.9999999999999995e-05,4e-05,3
9576,10048,5e-05,-0.00013000000000000002,-7e-05,2e-05,5e-05,7e-05,5.9999999999999995e-05,4e-05,3
9577,10049,5e-05,-0.00013000000000000002,-7e-05,2e-05,5e-05,7e-05,5.9999999999999995e-05,4e-05,3
9578,10050,5e-05,-0.00013000000000000002,-7e-05,2e-05,5e-05,7e-05,5.9999999999999995e-05,4e-05,3
9579,10051,5e-05,-0.00013000000000000002,-7e-05,2e-05,5e-05,7e-05,5.9999999999999995e-05,4e-05,3
9580,10052,5e-05,-0.00013000000000000002,-7e-05,2e-05,5e-05,7e-05,5.9999999999999995e-05,4e-05,3
9581,10053,5e-05,-0.00013000000000000002,-7e-05,2e-05,5e-05,7e-05,5.9999999999999995e-05,4e-05,3
9582,10054,5e-05,-0.00013000000000000002,-7e-05,2e-05,5e-05,7e-05,5.9999999999999995e-05,4e-05,3
9583,10055,5e-05,-0.00013000000000000002,-7e-05,2e-05,5e-05,7e-05,5.9999999999999995e-05,4e-05,3
9584,10056,5e-05,-0.00013000000000000002,-7e-05,2e-05,5e-05,7e-05,5.9999999999999995e-05,4e-05,3
9585,10057,5e-05,-0.00013000000000000002,-7e-05,2e-05,5e-05,7e-05,5.9999999999999995e-05,4e-05,3
9586,10058,5e-05,-0.00013000000000000002,-7e-05,2e-05,5e-05,7e-05,5.9999999999999995e-05,4e-05,3
9587,10059,5e-05,-0.00013000000000000002,-7e-05,2e-05,5e-05,7e-05,5.9999999999999995e-05,4e-05,3
9588,10060,5e-05,-0.00013000000000000002,-7e-05,2e-05,5e-05,7e-05,5.9999999999999995e-05,4e-05,3
9589,10061,0.0001,-0.00011999999999999999,-4e-05,-2e-05,-2.9999999999999997e-05,2e-05,5.9999999999999995e-05,-2.9999999999999997e-05,3
9590,10062,0.0001,-0.00011999999999999999,-4e-05,-2e-05,-2.9999999999999997e-05,2e-05,5.9999999999999995e-05,-2.9999999999999997e-05,3
9591,10063,0.0001,-0.00011999999999999999,-4e-05,-2e-05,-2.9999999999999997e-05,2e-05,5.9999999999999995e-05,-2.9999999999999997e-05,3
9592,10064,0.0001,-0.00011999999999999999,-4e-05,-2e-05,-2.9999999999999997e-05,2e-05,5.9999999999999995e-05,-2.9999999999999997e-05,3
9593,10065,0.0001,-0.00011999999999999999,-4e-05,-2e-05,-2.9999999999999997e-05,2e-05,5.9999999999999995e-05,-2.9999999999999997e-05,3
9594,10066,0.0001,-0.00011999999999999999,-4e-05,-2e-05,-2.9999999999999997e-05,2e-05,5.9999999999999995e-05,-2.9999999999999997e-05,3
9595,10067,0.0001,-0.00011999999999999999,-4e-05,-2e-05,-2.9999999999999997e-05,2e-05,5.9999999999999995e-05,-2.9999999999999997e-05,3
9596,10068,0.0001,-0.00011999999999999999,-4e-05,-2e-05,-2.9999999999999997e-05,2e-05,5.9999999999999995e-05,-2.9999999999999997e-05,3
9597,10069,0.0001,-0.00011999999999999999,-4e-05,-2e-05,-2.9999999999999997e-05,2e-05,5.9999999999999995e-05,-2.9999999999999997e-05,3
9598,10070,0.0001,-0.00011999999999999999,-4e-05,-2e-05,-2.9999999999999997e-05,2e-05,5.9999999999999995e-05,-2.9999999999999997e-05,3
9599,10071,0.0,0.0,2.9999999999999997e-05,-1e-05,0.0,-4e-05,-2e-05,-2e-05,3
9600,10072,0.0,0.0,2.9999999999999997e-05,-1e-05,0.0,-4e-05,-2e-05,-2e-05,3
9601,10073,0.0,0.0,2.9999999999999997e-05,-1e-05,0.0,-4e-05,-2e-05,-2e-05,3
9602,10074,0.0,0.0,2.9999999999999997e-05,-1e-05,0.0,-4e-05,-2e-05,-2e-05,3
9603,10075,0.0,0.0,2.9999999999999997e-05,-1e-05,0.0,-4e-05,-2e-05,-2e-05,3
9604,10076,-0.00011999999999999999,-5e-05,-5.9999999999999995e-05,-4e-05,-5e-05,1e-05,1e-05,-8e-05,3
9605,10077,9e-05,-5e-05,-4e-05,-2e-05,-1e-05,-4e-05,-7e-05,-5e-05,3
9606,10079,9e-05,-5e-05,-4e-05,-2e-05,-1e-05,-4e-05,-7e-05,-5e-05,3
9607,10080,9e-05,-5e-05,-4e-05,-2e-05,-1e-05,-4e-05,-7e-05,-5e-05,3
9608,10081,9e-05,-5e-05,-4e-05,-2e-05,-1e-05,-4e-05,-7e-05,-5e-05,3
9609,10082,9e-05,-5e-05,-4e-05,-2e-05,-1e-05,-4e-05,-7e-05,-5e-05,3
9610,10083,-4e-05,9e-05,2.9999999999999997e-05,0.0,-4e-05,2.9999999999999997e-05,-2e-05,0.0,3
9611,10084,-4e-05,9e-05,2.9999999999999997e-05,0.0,-4e-05,2.9999999999999997e-05,-2e-05,0.0,3
9612,10085,-4e-05,9e-05,2.9999999999999997e-05,0.0,-4e-05,2.9999999999999997e-05,-2e-05,0.0,3
9613,10087,-4e-05,9e-05,2.9999999999999997e-05,0.0,-4e-05,2.9999999999999997e-05,-2e-05,0.0,3
9614,10089,-4e-05,9e-05,2.9999999999999997e-05,0.0,-4e-05,2.9999999999999997e-05,-2e-05,0.0,3
9615,10090,-4e-05,9e-05,2.9999999999999997e-05,0.0,-4e-05,2.9999999999999997e-05,-2e-05,0.0,3
9616,10091,-4e-05,9e-05,2.9999999999999997e-05,0.0,-4e-05,2.9999999999999997e-05,-2e-05,0.0,3
9617,10092,-4e-05,9e-05,2.9999999999999997e-05,0.0,-4e-05,2.9999999999999997e-05,-2e-05,0.0,3
9618,10093,-4e-05,9e-05,2.9999999999999997e-05,0.0,-4e-05,2.9999999999999997e-05,-2e-05,0.0,3
9619,10094,-4e-05,9e-05,2.9999999999999997e-05,0.0,-4e-05,2.9999999999999997e-05,-2e-05,0.0,3
9620,10095,-4e-05,9e-05,2.9999999999999997e-05,0.0,-4e-05,2.9999999999999997e-05,-2e-05,0.0,3
9621,10096,-4e-05,9e-05,2.9999999999999997e-05,0.0,-4e-05,2.9999999999999997e-05,-2e-05,0.0,3
9622,10097,-4e-05,9e-05,2.9999999999999997e-05,0.0,-4e-05,2.9999999999999997e-05,-2e-05,0.0,3
9623,10098,-4e-05,9e-05,2.9999999999999997e-05,0.0,-4e-05,2.9999999999999997e-05,-2e-05,0.0,3
9624,10099,-4e-05,9e-05,2.9999999999999997e-05,0.0,-4e-05,2.9999999999999997e-05,-2e-05,0.0,3
9625,10100,-1e-05,-5.9999999999999995e-05,-5.9999999999999995e-05,-1e-05,-2e-05,-5.9999999999999995e-05,4e-05,-2e-05,3
9626,10101,-1e-05,-5.9999999999999995e-05,-5.9999999999999995e-05,-1e-05,-2e-05,-5.9999999999999995e-05,4e-05,-2e-05,3
9627,10102,-1e-05,-5.9999999999999995e-05,-5.9999999999999995e-05,-1e-05,-2e-05,-5.9999999999999995e-05,4e-05,-2e-05,3
9628,10103,-1e-05,-5.9999999999999995e-05,-5.9999999999999995e-05,-1e-05,-2e-05,-5.9999999999999995e-05,4e-05,-2e-05,3
9629,10104,-1e-05,-5.9999999999999995e-05,-5.9999999999999995e-05,-1e-05,-2e-05,-5.9999999999999995e-05,4e-05,-2e-05,3
9630,10105,-1e-05,-5.9999999999999995e-05,-5.9999999999999995e-05,-1e-05,-2e-05,-5.9999999999999995e-05,4e-05,-2e-05,3
9631,10106,-1e-05,-5.9999999999999995e-05,-5.9999999999999995e-05,-1e-05,-2e-05,-5.9999999999999995e-05,4e-05,-2e-05,3
9632,10107,-0.00023999999999999998,-8e-05,-1e-05,2e-05,-1e-05,-5e-05,-7e-05,-5.9999999999999995e-05,3
9633,10108,-0.00023999999999999998,-8e-05,-1e-05,2e-05,-1e-05,-5e-05,-7e-05,-5.9999999999999995e-05,3
9634,10109,-0.00023999999999999998,-8e-05,-1e-05,2e-05,-1e-05,-5e-05,-7e-05,-5.9999999999999995e-05,3
9635,10110,-0.00023999999999999998,-8e-05,-1e-05,2e-05,-1e-05,-5e-05,-7e-05,-5.9999999999999995e-05,3
9636,10111,-0.00023999999999999998,-8e-05,-1e-05,2e-05,-1e-05,-5e-05,-7e-05,-5.9999999999999995e-05,3
9637,10112,-0.00023999999999999998,-8e-05,-1e-05,2e-05,-1e-05,-5e-05,-7e-05,-5.9999999999999995e-05,3
9638,10113,-0.00023999999999999998,-8e-05,-1e-05,2e-05,-1e-05,-5e-05,-7e-05,-5.9999999999999995e-05,3
9639,10114,-0.00023999999999999998,-8e-05,-1e-05,2e-05,-1e-05,-5e-05,-7e-05,-5.9999999999999995e-05,3
9640,10115,-0.00023999999999999998,-8e-05,-1e-05,2e-05,-1e-05,-5e-05,-7e-05,-5.9999999999999995e-05,3
9641,10116,-0.00023999999999999998,-8e-05,-1e-05,2e-05,-1e-05,-5e-05,-7e-05,-5.9999999999999995e-05,3
9642,10117,-0.00023999999999999998,-8e-05,-1e-05,2e-05,-1e-05,-5e-05,-7e-05,-5.9999999999999995e-05,3
9643,10118,-0.00023999999999999998,-8e-05,-1e-05,2e-05,-1e-05,-5e-05,-7e-05,-5.9999999999999995e-05,3
9644,10119,-0.00023999999999999998,-8e-05,-1e-05,2e-05,-1e-05,-5e-05,-7e-05,-5.9999999999999995e-05,3
9645,10120,-0.00023999999999999998,-8e-05,-1e-05,2e-05,-1e-05,-5e-05,-7e-05,-5.9999999999999995e-05,3
9646,10121,-0.00023999999999999998,-8e-05,-1e-05,2e-05,-1e-05,-5e-05,-7e-05,-5.9999999999999995e-05,3
9647,10122,-0.00023999999999999998,-8e-05,-1e-05,2e-05,-1e-05,-5e-05,-7e-05,-5.9999999999999995e-05,3
9648,10123,-0.00023999999999999998,-8e-05,-1e-05,2e-05,-1e-05,-5e-05,-7e-05,-5.9999999999999995e-05,3
9649,10124,0.00018999999999999998,0.00016999999999999999,2e-05,0.0,-4e-05,-5e-05,-5e-05,5.9999999999999995e-05,3
9650,10125,-5e-05,-4e-05,-2e-05,0.0,2.9999999999999997e-05,1e-05,1e-05,-1e-05,3
9651,10126,-5e-05,-4e-05,-2e-05,0.0,2.9999999999999997e-05,1e-05,1e-05,-1e-05,3
9652,10127,-5e-05,-4e-05,-2e-05,0.0,2.9999999999999997e-05,1e-05,1e-05,-1e-05,3
9653,10128,-5e-05,-4e-05,-2e-05,0.0,2.9999999999999997e-05,1e-05,1e-05,-1e-05,3
9654,10129,-5e-05,-4e-05,-2e-05,0.0,2.9999999999999997e-05,1e-05,1e-05,-1e-05,3
9655,10130,-5e-05,-4e-05,-2e-05,0.0,2.9999999999999997e-05,1e-05,1e-05,-1e-05,3
9656,10131,-5e-05,-4e-05,-2e-05,0.0,2.9999999999999997e-05,1e-05,1e-05,-1e-05,3
9657,10132,-5e-05,-4e-05,-2e-05,0.0,2.9999999999999997e-05,1e-05,1e-05,-1e-05,3
9658,10133,-5e-05,-4e-05,-2e-05,0.0,2.9999999999999997e-05,1e-05,1e-05,-1e-05,3
9659,10134,-5e-05,-4e-05,-2e-05,0.0,2.9999999999999997e-05,1e-05,1e-05,-1e-05,3
9660,10135,-5e-05,-4e-05,-2e-05,0.0,2.9999999999999997e-05,1e-05,1e-05,-1e-05,3
9661,10137,-5e-05,-4e-05,-2e-05,0.0,2.9999999999999997e-05,1e-05,1e-05,-1e-05,3
9662,10139,-5e-05,-4e-05,-2e-05,0.0,2.9999999999999997e-05,1e-05,1e-05,-1e-05,3
9663,10140,0.00018999999999999998,5.9999999999999995e-05,2.9999999999999997e-05,-1e-05,0.0,-2e-05,0.0,-0.00014,3
9664,10141,0.00018999999999999998,5.9999999999999995e-05,2.9999999999999997e-05,-1e-05,0.0,-2e-05,0.0,-0.00014,3
9665,10142,0.00018999999999999998,5.9999999999999995e-05,2.9999999999999997e-05,-1e-05,0.0,-2e-05,0.0,-0.00014,3
9666,10143,0.00018999999999999998,5.9999999999999995e-05,2.9999999999999997e-05,-1e-05,0.0,-2e-05,0.0,-0.00014,3
9667,10144,0.00018999999999999998,5.9999999999999995e-05,2.9999999999999997e-05,-1e-05,0.0,-2e-05,0.0,-0.00014,3
9668,10145,0.00013000000000000002,-5.9999999999999995e-05,-1e-05,-4e-05,-5e-05,-5e-05,-2e-05,0.0,3
9669,10146,0.00013000000000000002,-5.9999999999999995e-05,-1e-05,-4e-05,-5e-05,-5e-05,-2e-05,0.0,3
9670,10147,0.00013000000000000002,-5.9999999999999995e-05,-1e-05,-4e-05,-5e-05,-5e-05,-2e-05,0.0,3
9671,10148,0.00013000000000000002,-5.9999999999999995e-05,-1e-05,-4e-05,-5e-05,-5e-05,-2e-05,0.0,3
9672,10149,0.00013000000000000002,-5.9999999999999995e-05,-1e-05,-4e-05,-5e-05,-5e-05,-2e-05,0.0,3
9673,10150,0.00013000000000000002,-5.9999999999999995e-05,-1e-05,-4e-05,-5e-05,-5e-05,-2e-05,0.0,3
9674,10151,0.00013000000000000002,-5.9999999999999995e-05,-1e-05,-4e-05,-5e-05,-5e-05,-2e-05,0.0,3
9675,10152,0.00013000000000000002,-5.9999999999999995e-05,-1e-05,-4e-05,-5e-05,-5e-05,-2e-05,0.0,3
9676,10153,0.00013000000000000002,-5.9999999999999995e-05,-1e-05,-4e-05,-5e-05,-5e-05,-2e-05,0.0,3
9677,10154,0.00013000000000000002,-5.9999999999999995e-05,-1e-05,-4e-05,-5e-05,-5e-05,-2e-05,0.0,3
9678,10155,0.00013000000000000002,-5.9999999999999995e-05,-1e-05,-4e-05,-5e-05,-5e-05,-2e-05,0.0,3
9679,10156,0.00013000000000000002,-5.9999999999999995e-05,-1e-05,-4e-05,-5e-05,-5e-05,-2e-05,0.0,3
9680,10157,0.00013000000000000002,-5.9999999999999995e-05,-1e-05,-4e-05,-5e-05,-5e-05,-2e-05,0.0,3
9681,10158,0.00013000000000000002,-5.9999999999999995e-05,-1e-05,-4e-05,-5e-05,-5e-05,-2e-05,0.0,3
9682,10159,0.00013000000000000002,-5.9999999999999995e-05,-1e-05,-4e-05,-5e-05,-5e-05,-2e-05,0.0,3
9683,10160,-0.00011999999999999999,-2.9999999999999997e-05,-5e-05,-2.9999999999999997e-05,-5e-05,2e-05,-2e-05,0.0,3
9684,10161,-5e-05,-5.9999999999999995e-05,0.0,-1e-05,-2e-05,1e-05,0.0001,-2e-05,3
9685,10162,-5e-05,-5.9999999999999995e-05,0.0,-1e-05,-2e-05,1e-05,0.0001,-2e-05,3
9686,10163,-5e-05,-5.9999999999999995e-05,0.0,-1e-05,-2e-05,1e-05,0.0001,-2e-05,3
9687,10164,-5e-05,-5.9999999999999995e-05,0.0,-1e-05,-2e-05,1e-05,0.0001,-2e-05,3
9688,10165,-5e-05,-5.9999999999999995e-05,0.0,-1e-05,-2e-05,1e-05,0.0001,-2e-05,3
9689,10166,-5e-05,-5.9999999999999995e-05,0.0,-1e-05,-2e-05,1e-05,0.0001,-2e-05,3
9690,10167,-5e-05,-5.9999999999999995e-05,0.0,-1e-05,-2e-05,1e-05,0.0001,-2e-05,3
9691,10168,-5e-05,-5.9999999999999995e-05,0.0,-1e-05,-2e-05,1e-05,0.0001,-2e-05,3
9692,10169,-5e-05,-5.9999999999999995e-05,0.0,-1e-05,-2e-05,1e-05,0.0001,-2e-05,3
9693,10170,-5e-05,-5.9999999999999995e-05,0.0,-1e-05,-2e-05,1e-05,0.0001,-2e-05,3
9694,10171,-5e-05,-5.9999999999999995e-05,0.0,-1e-05,-2e-05,1e-05,0.0001,-2e-05,3
9695,10172,-5e-05,-5.9999999999999995e-05,0.0,-1e-05,-2e-05,1e-05,0.0001,-2e-05,3
9696,10173,-5e-05,-5.9999999999999995e-05,0.0,-1e-05,-2e-05,1e-05,0.0001,-2e-05,3
9697,10174,-5e-05,-5.9999999999999995e-05,0.0,-1e-05,-2e-05,1e-05,0.0001,-2e-05,3
9698,10175,-5e-05,-5.9999999999999995e-05,0.0,-1e-05,-2e-05,1e-05,0.0001,-2e-05,3
9699,10176,-5e-05,-5.9999999999999995e-05,0.0,-1e-05,-2e-05,1e-05,0.0001,-2e-05,3
9700,10177,-5e-05,-5.9999999999999995e-05,0.0,-1e-05,-2e-05,1e-05,0.0001,-2e-05,3
9701,10178,-5e-05,-5.9999999999999995e-05,0.0,-1e-05,-2e-05,1e-05,0.0001,-2e-05,3
9702,10179,-5e-05,-5.9999999999999995e-05,0.0,-1e-05,-2e-05,1e-05,0.0001,-2e-05,3
9703,10180,-5e-05,-5.9999999999999995e-05,0.0,-1e-05,-2e-05,1e-05,0.0001,-2e-05,3
9704,10181,-5e-05,-5.9999999999999995e-05,0.0,-1e-05,-2e-05,1e-05,0.0001,-2e-05,3
9705,10182,5.9999999999999995e-05,-2.9999999999999997e-05,2e-05,1e-05,-2.9999999999999997e-05,2e-05,4e-05,5e-05,3
9706,10183,5.9999999999999995e-05,-2.9999999999999997e-05,2e-05,1e-05,-2.9999999999999997e-05,2e-05,4e-05,5e-05,3
9707,10184,-0.0001,5.9999999999999995e-05,0.0,1e-05,4e-05,0.0,-5e-05,7e-05,3
9708,10185,-0.0001,5.9999999999999995e-05,0.0,1e-05,4e-05,0.0,-5e-05,7e-05,3
9709,10186,-0.0001,5.9999999999999995e-05,0.0,1e-05,4e-05,0.0,-5e-05,7e-05,3
9710,10188,-0.0001,5.9999999999999995e-05,0.0,1e-05,4e-05,0.0,-5e-05,7e-05,3
9711,10189,-0.0001,5.9999999999999995e-05,0.0,1e-05,4e-05,0.0,-5e-05,7e-05,3
9712,10190,-0.0001,5.9999999999999995e-05,0.0,1e-05,4e-05,0.0,-5e-05,7e-05,3
9713,10191,-0.0001,5.9999999999999995e-05,0.0,1e-05,4e-05,0.0,-5e-05,7e-05,3
9714,10192,-0.0001,5.9999999999999995e-05,0.0,1e-05,4e-05,0.0,-5e-05,7e-05,3
9715,10193,-0.0001,5.9999999999999995e-05,0.0,1e-05,4e-05,0.0,-5e-05,7e-05,3
9716,10194,-0.0001,5.9999999999999995e-05,0.0,1e-05,4e-05,0.0,-5e-05,7e-05,3
9717,10195,-0.0001,5.9999999999999995e-05,0.0,1e-05,4e-05,0.0,-5e-05,7e-05,3
9718,10196,-0.00014,2.9999999999999997e-05,5e-05,2.9999999999999997e-05,5e-05,2e-05,-2.9999999999999997e-05,1e-05,3
9719,10197,-0.00014,2.9999999999999997e-05,5e-05,2.9999999999999997e-05,5e-05,2e-05,-2.9999999999999997e-05,1e-05,3
9720,10198,-0.00014,2.9999999999999997e-05,5e-05,2.9999999999999997e-05,5e-05,2e-05,-2.9999999999999997e-05,1e-05,3
9721,10199,-0.00014,2.9999999999999997e-05,5e-05,2.9999999999999997e-05,5e-05,2e-05,-2.9999999999999997e-05,1e-05,3
9722,10200,-0.00014,2.9999999999999997e-05,5e-05,2.9999999999999997e-05,5e-05,2e-05,-2.9999999999999997e-05,1e-05,3
9723,10201,-0.00014,2.9999999999999997e-05,5e-05,2.9999999999999997e-05,5e-05,2e-05,-2.9999999999999997e-05,1e-05,3
9724,10202,-0.00014,2.9999999999999997e-05,5e-05,2.9999999999999997e-05,5e-05,2e-05,-2.9999999999999997e-05,1e-05,3
9725,10203,-0.00014,2.9999999999999997e-05,5e-05,2.9999999999999997e-05,5e-05,2e-05,-2.9999999999999997e-05,1e-05,3
9726,10204,-0.00014,2.9999999999999997e-05,5e-05,2.9999999999999997e-05,5e-05,2e-05,-2.9999999999999997e-05,1e-05,3
9727,10205,0.0,2e-05,-4e-05,-5e-05,-8e-05,-5.9999999999999995e-05,8e-05,0.0,3
9728,10206,0.0,2e-05,-4e-05,-5e-05,-8e-05,-5.9999999999999995e-05,8e-05,0.0,3
9729,10207,0.0,2e-05,-4e-05,-5e-05,-8e-05,-5.9999999999999995e-05,8e-05,0.0,3
9730,10208,0.0,2e-05,-4e-05,-5e-05,-8e-05,-5.9999999999999995e-05,8e-05,0.0,3
9731,10209,0.0,2e-05,-4e-05,-5e-05,-8e-05,-5.9999999999999995e-05,8e-05,0.0,3
9732,10210,0.0,2e-05,-4e-05,-5e-05,-8e-05,-5.9999999999999995e-05,8e-05,0.0,3
9733,10211,0.0,2e-05,-4e-05,-5e-05,-8e-05,-5.9999999999999995e-05,8e-05,0.0,3
9734,10212,0.0,2e-05,-4e-05,-5e-05,-8e-05,-5.9999999999999995e-05,8e-05,0.0,3
9735,10213,0.0,2e-05,-4e-05,-5e-05,-8e-05,-5.9999999999999995e-05,8e-05,0.0,3
9736,10214,0.0,2e-05,-4e-05,-5e-05,-8e-05,-5.9999999999999995e-05,8e-05,0.0,3
9737,10215,0.0,2e-05,-4e-05,-5e-05,-8e-05,-5.9999999999999995e-05,8e-05,0.0,3
9738,10216,0.0,2e-05,-4e-05,-5e-05,-8e-05,-5.9999999999999995e-05,8e-05,0.0,3
9739,10217,0.0,2e-05,-4e-05,-5e-05,-8e-05,-5.9999999999999995e-05,8e-05,0.0,3
9740,10218,0.0,2e-05,-4e-05,-5e-05,-8e-05,-5.9999999999999995e-05,8e-05,0.0,3
9741,10219,0.0,2e-05,-4e-05,-5e-05,-8e-05,-5.9999999999999995e-05,8e-05,0.0,3
9742,10220,-0.00018,-0.00018999999999999998,-9e-05,-5e-05,-4e-05,-9e-05,-4e-05,-5e-05,3
9743,10221,-0.00018,-0.00018999999999999998,-9e-05,-5e-05,-4e-05,-9e-05,-4e-05,-5e-05,3
9744,10222,5.9999999999999995e-05,-2.9999999999999997e-05,-4e-05,-2.9999999999999997e-05,-2e-05,-2e-05,-5.9999999999999995e-05,-0.00015,3
9745,10223,5.9999999999999995e-05,-2.9999999999999997e-05,-4e-05,-2.9999999999999997e-05,-2e-05,-2e-05,-5.9999999999999995e-05,-0.00015,3
9746,10224,5.9999999999999995e-05,-2.9999999999999997e-05,-4e-05,-2.9999999999999997e-05,-2e-05,-2e-05,-5.9999999999999995e-05,-0.00015,3
9747,10225,5.9999999999999995e-05,-2.9999999999999997e-05,-4e-05,-2.9999999999999997e-05,-2e-05,-2e-05,-5.9999999999999995e-05,-0.00015,3
9748,10226,5.9999999999999995e-05,-2.9999999999999997e-05,-4e-05,-2.9999999999999997e-05,-2e-05,-2e-05,-5.9999999999999995e-05,-0.00015,3
9749,10227,5.9999999999999995e-05,-2.9999999999999997e-05,-4e-05,-2.9999999999999997e-05,-2e-05,-2e-05,-5.9999999999999995e-05,-0.00015,3
9750,10228,5.9999999999999995e-05,-2.9999999999999997e-05,-4e-05,-2.9999999999999997e-05,-2e-05,-2e-05,-5.9999999999999995e-05,-0.00015,3
9751,10229,5.9999999999999995e-05,-2.9999999999999997e-05,-4e-05,-2.9999999999999997e-05,-2e-05,-2e-05,-5.9999999999999995e-05,-0.00015,3
9752,10230,5.9999999999999995e-05,-2.9999999999999997e-05,-4e-05,-2.9999999999999997e-05,-2e-05,-2e-05,-5.9999999999999995e-05,-0.00015,3
9753,10231,5.9999999999999995e-05,-2.9999999999999997e-05,-4e-05,-2.9999999999999997e-05,-2e-05,-2e-05,-5.9999999999999995e-05,-0.00015,3
9754,10232,5.9999999999999995e-05,-2.9999999999999997e-05,-4e-05,-2.9999999999999997e-05,-2e-05,-2e-05,-5.9999999999999995e-05,-0.00015,3
9755,10233,5.9999999999999995e-05,-2.9999999999999997e-05,-4e-05,-2.9999999999999997e-05,-2e-05,-2e-05,-5.9999999999999995e-05,-0.00015,3
9756,10234,5.9999999999999995e-05,-2.9999999999999997e-05,-4e-05,-2.9999999999999997e-05,-2e-05,-2e-05,-5.9999999999999995e-05,-0.00015,3
9757,10235,5.9999999999999995e-05,-2.9999999999999997e-05,-4e-05,-2.9999999999999997e-05,-2e-05,-2e-05,-5.9999999999999995e-05,-0.00015,3
9758,10236,5.9999999999999995e-05,-2.9999999999999997e-05,-4e-05,-2.9999999999999997e-05,-2e-05,-2e-05,-5.9999999999999995e-05,-0.00015,3
9759,10238,5.9999999999999995e-05,-2.9999999999999997e-05,-4e-05,-2.9999999999999997e-05,-2e-05,-2e-05,-5.9999999999999995e-05,-0.00015,3
9760,10239,5.9999999999999995e-05,-2.9999999999999997e-05,-4e-05,-2.9999999999999997e-05,-2e-05,-2e-05,-5.9999999999999995e-05,-0.00015,3
9761,10240,5.9999999999999995e-05,-2.9999999999999997e-05,-4e-05,-2.9999999999999997e-05,-2e-05,-2e-05,-5.9999999999999995e-05,-0.00015,3
9762,10241,5.9999999999999995e-05,-2.9999999999999997e-05,-4e-05,-2.9999999999999997e-05,-2e-05,-2e-05,-5.9999999999999995e-05,-0.00015,3
9763,10242,9e-05,7e-05,2.9999999999999997e-05,4e-05,2.9999999999999997e-05,-2e-05,-5.9999999999999995e-05,5e-05,3
9764,10243,9e-05,7e-05,2.9999999999999997e-05,4e-05,2.9999999999999997e-05,-2e-05,-5.9999999999999995e-05,5e-05,3
9765,10244,-2.9999999999999997e-05,-0.00018999999999999998,-5e-05,-1e-05,2.9999999999999997e-05,4e-05,-1e-05,5.9999999999999995e-05,3
9766,10245,-2.9999999999999997e-05,-0.00018999999999999998,-5e-05,-1e-05,2.9999999999999997e-05,4e-05,-1e-05,5.9999999999999995e-05,3
9767,10246,-2.9999999999999997e-05,-0.00018999999999999998,-5e-05,-1e-05,2.9999999999999997e-05,4e-05,-1e-05,5.9999999999999995e-05,3
9768,10247,-2.9999999999999997e-05,-0.00018999999999999998,-5e-05,-1e-05,2.9999999999999997e-05,4e-05,-1e-05,5.9999999999999995e-05,3
9769,10248,-2.9999999999999997e-05,-0.00018999999999999998,-5e-05,-1e-05,2.9999999999999997e-05,4e-05,-1e-05,5.9999999999999995e-05,3
9770,10249,-2.9999999999999997e-05,-0.00018999999999999998,-5e-05,-1e-05,2.9999999999999997e-05,4e-05,-1e-05,5.9999999999999995e-05,3
9771,10250,-2.9999999999999997e-05,-0.00018999999999999998,-5e-05,-1e-05,2.9999999999999997e-05,4e-05,-1e-05,5.9999999999999995e-05,3
9772,10251,-2.9999999999999997e-05,-0.00018999999999999998,-5e-05,-1e-05,2.9999999999999997e-05,4e-05,-1e-05,5.9999999999999995e-05,3
9773,10252,-2.9999999999999997e-05,-0.00018999999999999998,-5e-05,-1e-05,2.9999999999999997e-05,4e-05,-1e-05,5.9999999999999995e-05,3
9774,10253,-2.9999999999999997e-05,-0.00018999999999999998,-5e-05,-1e-05,2.9999999999999997e-05,4e-05,-1e-05,5.9999999999999995e-05,3
9775,10254,-2.9999999999999997e-05,-0.00018999999999999998,-5e-05,-1e-05,2.9999999999999997e-05,4e-05,-1e-05,5.9999999999999995e-05,3
9776,10255,-2.9999999999999997e-05,-0.00018999999999999998,-5e-05,-1e-05,2.9999999999999997e-05,4e-05,-1e-05,5.9999999999999995e-05,3
9777,10256,5.9999999999999995e-05,-7e-05,-1e-05,-2.9999999999999997e-05,-2.9999999999999997e-05,-7e-05,-8e-05,2.9999999999999997e-05,3
9778,10257,5.9999999999999995e-05,-7e-05,-1e-05,-2.9999999999999997e-05,-2.9999999999999997e-05,-7e-05,-8e-05,2.9999999999999997e-05,3
9779,10258,5.9999999999999995e-05,-7e-05,-1e-05,-2.9999999999999997e-05,-2.9999999999999997e-05,-7e-05,-8e-05,2.9999999999999997e-05,3
9780,10259,5.9999999999999995e-05,-7e-05,-1e-05,-2.9999999999999997e-05,-2.9999999999999997e-05,-7e-05,-8e-05,2.9999999999999997e-05,3
9781,10260,5.9999999999999995e-05,-7e-05,-1e-05,-2.9999999999999997e-05,-2.9999999999999997e-05,-7e-05,-8e-05,2.9999999999999997e-05,3
9782,10261,5.9999999999999995e-05,-7e-05,-1e-05,-2.9999999999999997e-05,-2.9999999999999997e-05,-7e-05,-8e-05,2.9999999999999997e-05,3
9783,10262,5.9999999999999995e-05,-7e-05,-1e-05,-2.9999999999999997e-05,-2.9999999999999997e-05,-7e-05,-8e-05,2.9999999999999997e-05,3
9784,10263,5.9999999999999995e-05,-7e-05,-1e-05,-2.9999999999999997e-05,-2.9999999999999997e-05,-7e-05,-8e-05,2.9999999999999997e-05,3
9785,10264,5.9999999999999995e-05,-7e-05,-1e-05,-2.9999999999999997e-05,-2.9999999999999997e-05,-7e-05,-8e-05,2.9999999999999997e-05,3
9786,10265,0.00027,0.00022999999999999998,2.9999999999999997e-05,1e-05,-4e-05,5e-05,9e-05,0.0,3
9787,10266,0.00027,0.00022999999999999998,2.9999999999999997e-05,1e-05,-4e-05,5e-05,9e-05,0.0,3
9788,10267,0.00027,0.00022999999999999998,2.9999999999999997e-05,1e-05,-4e-05,5e-05,9e-05,0.0,3
9789,10268,0.00027,0.00022999999999999998,2.9999999999999997e-05,1e-05,-4e-05,5e-05,9e-05,0.0,3
9790,10269,0.00027,0.00022999999999999998,2.9999999999999997e-05,1e-05,-4e-05,5e-05,9e-05,0.0,3
9791,10270,0.00027,0.00022999999999999998,2.9999999999999997e-05,1e-05,-4e-05,5e-05,9e-05,0.0,3
9792,10271,0.00027,0.00022999999999999998,2.9999999999999997e-05,1e-05,-4e-05,5e-05,9e-05,0.0,3
9793,10272,0.00027,0.00022999999999999998,2.9999999999999997e-05,1e-05,-4e-05,5e-05,9e-05,0.0,3
9794,10273,0.00027,0.00022999999999999998,2.9999999999999997e-05,1e-05,-4e-05,5e-05,9e-05,0.0,3
9795,10274,0.00027,0.00022999999999999998,2.9999999999999997e-05,1e-05,-4e-05,5e-05,9e-05,0.0,3
9796,10275,0.00027,0.00022999999999999998,2.9999999999999997e-05,1e-05,-4e-05,5e-05,9e-05,0.0,3
9797,10276,0.00027,0.00022999999999999998,2.9999999999999997e-05,1e-05,-4e-05,5e-05,9e-05,0.0,3
9798,10277,0.00027,0.00022999999999999998,2.9999999999999997e-05,1e-05,-4e-05,5e-05,9e-05,0.0,3
9799,10278,0.00027,0.00022999999999999998,2.9999999999999997e-05,1e-05,-4e-05,5e-05,9e-05,0.0,3
9800,10279,0.00027,0.00022999999999999998,2.9999999999999997e-05,1e-05,-4e-05,5e-05,9e-05,0.0,3
9801,10280,7e-05,2e-05,0.0,1e-05,9e-05,4e-05,-2.9999999999999997e-05,-1e-05,3
9802,10281,-0.00018,5e-05,-1e-05,-1e-05,-2.9999999999999997e-05,-2.9999999999999997e-05,1e-05,-2e-05,3
9803,10282,-0.00018,5e-05,-1e-05,-1e-05,-2.9999999999999997e-05,-2.9999999999999997e-05,1e-05,-2e-05,3
9804,10283,-0.00018,5e-05,-1e-05,-1e-05,-2.9999999999999997e-05,-2.9999999999999997e-05,1e-05,-2e-05,3
9805,10284,-0.00018,5e-05,-1e-05,-1e-05,-2.9999999999999997e-05,-2.9999999999999997e-05,1e-05,-2e-05,3
9806,10285,-0.00018,5e-05,-1e-05,-1e-05,-2.9999999999999997e-05,-2.9999999999999997e-05,1e-05,-2e-05,3
9807,10286,-0.00018,5e-05,-1e-05,-1e-05,-2.9999999999999997e-05,-2.9999999999999997e-05,1e-05,-2e-05,3
9808,10289,-0.00018,5e-05,-1e-05,-1e-05,-2.9999999999999997e-05,-2.9999999999999997e-05,1e-05,-2e-05,3
9809,10290,-0.00018,5e-05,-1e-05,-1e-05,-2.9999999999999997e-05,-2.9999999999999997e-05,1e-05,-2e-05,3
9810,10291,-0.00018,5e-05,-1e-05,-1e-05,-2.9999999999999997e-05,-2.9999999999999997e-05,1e-05,-2e-05,3
9811,10292,-0.00018,5e-05,-1e-05,-1e-05,-2.9999999999999997e-05,-2.9999999999999997e-05,1e-05,-2e-05,3
9812,10293,-0.00018,5e-05,-1e-05,-1e-05,-2.9999999999999997e-05,-2.9999999999999997e-05,1e-05,-2e-05,3
9813,10294,-0.00018,5e-05,-1e-05,-1e-05,-2.9999999999999997e-05,-2.9999999999999997e-05,1e-05,-2e-05,3
9814,10295,-0.00018,5e-05,-1e-05,-1e-05,-2.9999999999999997e-05,-2.9999999999999997e-05,1e-05,-2e-05,3
9815,10296,-0.00018,5e-05,-1e-05,-1e-05,-2.9999999999999997e-05,-2.9999999999999997e-05,1e-05,-2e-05,3
9816,10297,-0.00018,5e-05,-1e-05,-1e-05,-2.9999999999999997e-05,-2.9999999999999997e-05,1e-05,-2e-05,3
9817,10298,-0.00018,5e-05,-1e-05,-1e-05,-2.9999999999999997e-05,-2.9999999999999997e-05,1e-05,-2e-05,3
9818,10299,-0.00018,5e-05,-1e-05,-1e-05,-2.9999999999999997e-05,-2.9999999999999997e-05,1e-05,-2e-05,3
9819,10300,-0.00018,5e-05,-1e-05,-1e-05,-2.9999999999999997e-05,-2.9999999999999997e-05,1e-05,-2e-05,3
9820,10301,-0.00018,5e-05,-1e-05,-1e-05,-2.9999999999999997e-05,-2.9999999999999997e-05,1e-05,-2e-05,3
9821,10302,0.00011999999999999999,4e-05,2e-05,1e-05,-0.0001,-1e-05,-2.9999999999999997e-05,-2.9999999999999997e-05,3
9822,10304,-1e-05,0.0,2.9999999999999997e-05,5e-05,5.9999999999999995e-05,2e-05,-1e-05,9e-05,3
9823,10305,-1e-05,0.0,2.9999999999999997e-05,5e-05,5.9999999999999995e-05,2e-05,-1e-05,9e-05,3
9824,10306,-1e-05,0.0,2.9999999999999997e-05,5e-05,5.9999999999999995e-05,2e-05,-1e-05,9e-05,3
9825,10307,-1e-05,0.0,2.9999999999999997e-05,5e-05,5.9999999999999995e-05,2e-05,-1e-05,9e-05,3
9826,10308,-1e-05,0.0,2.9999999999999997e-05,5e-05,5.9999999999999995e-05,2e-05,-1e-05,9e-05,3
9827,10309,-1e-05,0.0,2.9999999999999997e-05,5e-05,5.9999999999999995e-05,2e-05,-1e-05,9e-05,3
9828,10310,-1e-05,0.0,2.9999999999999997e-05,5e-05,5.9999999999999995e-05,2e-05,-1e-05,9e-05,3
9829,10311,-1e-05,0.0,2.9999999999999997e-05,5e-05,5.9999999999999995e-05,2e-05,-1e-05,9e-05,3
9830,10312,-1e-05,0.0,2.9999999999999997e-05,5e-05,5.9999999999999995e-05,2e-05,-1e-05,9e-05,3
9831,10313,-1e-05,0.0,2.9999999999999997e-05,5e-05,5.9999999999999995e-05,2e-05,-1e-05,9e-05,3
9832,10314,-1e-05,0.0,2.9999999999999997e-05,5e-05,5.9999999999999995e-05,2e-05,-1e-05,9e-05,3
9833,10315,-1e-05,0.0,2.9999999999999997e-05,5e-05,5.9999999999999995e-05,2e-05,-1e-05,9e-05,3
9834,10316,-0.00029,-5e-05,-2e-05,0.0,2e-05,1e-05,7e-05,-5e-05,3
9835,10317,-0.00029,-5e-05,-2e-05,0.0,2e-05,1e-05,7e-05,-5e-05,3
9836,10318,-0.00029,-5e-05,-2e-05,0.0,2e-05,1e-05,7e-05,-5e-05,3
9837,10319,-0.00029,-5e-05,-2e-05,0.0,2e-05,1e-05,7e-05,-5e-05,3
9838,10320,-0.00029,-5e-05,-2e-05,0.0,2e-05,1e-05,7e-05,-5e-05,3
9839,10321,-0.00029,-5e-05,-2e-05,0.0,2e-05,1e-05,7e-05,-5e-05,3
9840,10322,-0.00029,-5e-05,-2e-05,0.0,2e-05,1e-05,7e-05,-5e-05,3
9841,10323,-0.00029,-5e-05,-2e-05,0.0,2e-05,1e-05,7e-05,-5e-05,3
9842,10324,0.00015,7e-05,1e-05,0.0,-2e-05,-2.9999999999999997e-05,-5e-05,-2.9999999999999997e-05,3
9843,10325,-0.00018999999999999998,-0.00015,-1e-05,-2.9999999999999997e-05,-4e-05,2e-05,0.00011,-1e-05,3
9844,10326,-0.00018999999999999998,-0.00015,-1e-05,-2.9999999999999997e-05,-4e-05,2e-05,0.00011,-1e-05,3
9845,10327,-0.00018999999999999998,-0.00015,-1e-05,-2.9999999999999997e-05,-4e-05,2e-05,0.00011,-1e-05,3
9846,10328,-0.00018999999999999998,-0.00015,-1e-05,-2.9999999999999997e-05,-4e-05,2e-05,0.00011,-1e-05,3
9847,10329,-0.00018999999999999998,-0.00015,-1e-05,-2.9999999999999997e-05,-4e-05,2e-05,0.00011,-1e-05,3
9848,10330,-0.00018999999999999998,-0.00015,-1e-05,-2.9999999999999997e-05,-4e-05,2e-05,0.00011,-1e-05,3
9849,10331,-0.00018999999999999998,-0.00015,-1e-05,-2.9999999999999997e-05,-4e-05,2e-05,0.00011,-1e-05,3
9850,10332,-0.00018999999999999998,-0.00015,-1e-05,-2.9999999999999997e-05,-4e-05,2e-05,0.00011,-1e-05,3
9851,10333,-0.00018999999999999998,-0.00015,-1e-05,-2.9999999999999997e-05,-4e-05,2e-05,0.00011,-1e-05,3
9852,10334,-0.00018999999999999998,-0.00015,-1e-05,-2.9999999999999997e-05,-4e-05,2e-05,0.00011,-1e-05,3
9853,10335,-0.00018999999999999998,-0.00015,-1e-05,-2.9999999999999997e-05,-4e-05,2e-05,0.00011,-1e-05,3
9854,10337,-0.00018999999999999998,-0.00015,-1e-05,-2.9999999999999997e-05,-4e-05,2e-05,0.00011,-1e-05,3
9855,10340,-4e-05,0.0001,2e-05,2.9999999999999997e-05,2e-05,1e-05,-4e-05,2e-05,3
9856,10341,-2.9999999999999997e-05,-2.9999999999999997e-05,-4e-05,0.0,0.0,1e-05,1e-05,-1e-05,3
9857,10343,-2.9999999999999997e-05,-2.9999999999999997e-05,-4e-05,0.0,0.0,1e-05,1e-05,-1e-05,3
9858,10344,-2.9999999999999997e-05,-2.9999999999999997e-05,-4e-05,0.0,0.0,1e-05,1e-05,-1e-05,3
9859,10345,-2.9999999999999997e-05,-2.9999999999999997e-05,-4e-05,0.0,0.0,1e-05,1e-05,-1e-05,3
9860,10346,-2.9999999999999997e-05,-2.9999999999999997e-05,-4e-05,0.0,0.0,1e-05,1e-05,-1e-05,3
9861,10347,-2.9999999999999997e-05,-2.9999999999999997e-05,-4e-05,0.0,0.0,1e-05,1e-05,-1e-05,3
9862,10348,-2.9999999999999997e-05,-2.9999999999999997e-05,-4e-05,0.0,0.0,1e-05,1e-05,-1e-05,3
9863,10349,-2.9999999999999997e-05,-2.9999999999999997e-05,-4e-05,0.0,0.0,1e-05,1e-05,-1e-05,3
9864,10350,-2.9999999999999997e-05,-2.9999999999999997e-05,-4e-05,0.0,0.0,1e-05,1e-05,-1e-05,3
9865,10351,-2.9999999999999997e-05,-2.9999999999999997e-05,-4e-05,0.0,0.0,1e-05,1e-05,-1e-05,3
9866,10352,-2.9999999999999997e-05,-2.9999999999999997e-05,-4e-05,0.0,0.0,1e-05,1e-05,-1e-05,3
9867,10353,-2.9999999999999997e-05,-2.9999999999999997e-05,-4e-05,0.0,0.0,1e-05,1e-05,-1e-05,3
9868,10354,-2.9999999999999997e-05,-2.9999999999999997e-05,-4e-05,0.0,0.0,1e-05,1e-05,-1e-05,3
9869,10355,-2.9999999999999997e-05,-2.9999999999999997e-05,-4e-05,0.0,0.0,1e-05,1e-05,-1e-05,3
9870,10356,-2.9999999999999997e-05,-2.9999999999999997e-05,-4e-05,0.0,0.0,1e-05,1e-05,-1e-05,3
9871,10357,-2.9999999999999997e-05,-2.9999999999999997e-05,-4e-05,0.0,0.0,1e-05,1e-05,-1e-05,3
9872,10358,-2.9999999999999997e-05,-2.9999999999999997e-05,-4e-05,0.0,0.0,1e-05,1e-05,-1e-05,3
9873,10359,-2.9999999999999997e-05,-2.9999999999999997e-05,-4e-05,0.0,0.0,1e-05,1e-05,-1e-05,3
9874,10360,-2.9999999999999997e-05,-2.9999999999999997e-05,-4e-05,0.0,0.0,1e-05,1e-05,-1e-05,3
9875,10361,-2.9999999999999997e-05,-2.9999999999999997e-05,-4e-05,0.0,0.0,1e-05,1e-05,-1e-05,3
9876,10362,-8e-05,-4e-05,-4e-05,-2e-05,2e-05,-2e-05,-0.00013000000000000002,8e-05,3
9877,10363,1e-05,-5.9999999999999995e-05,1e-05,-1e-05,-4e-05,-4e-05,-5e-05,2e-05,3
9878,10364,0.00018999999999999998,2e-05,1e-05,-1e-05,-4e-05,-2e-05,-1e-05,2e-05,3
9879,10365,0.00018999999999999998,2e-05,1e-05,-1e-05,-4e-05,-2e-05,-1e-05,2e-05,3
9880,10366,0.00018999999999999998,2e-05,1e-05,-1e-05,-4e-05,-2e-05,-1e-05,2e-05,3
9881,10367,0.00018999999999999998,2e-05,1e-05,-1e-05,-4e-05,-2e-05,-1e-05,2e-05,3
9882,10368,0.00018999999999999998,2e-05,1e-05,-1e-05,-4e-05,-2e-05,-1e-05,2e-05,3
9883,10369,0.00018999999999999998,2e-05,1e-05,-1e-05,-4e-05,-2e-05,-1e-05,2e-05,3
9884,10370,0.00018999999999999998,2e-05,1e-05,-1e-05,-4e-05,-2e-05,-1e-05,2e-05,3
9885,10371,0.00018999999999999998,2e-05,1e-05,-1e-05,-4e-05,-2e-05,-1e-05,2e-05,3
9886,10372,0.00018999999999999998,2e-05,1e-05,-1e-05,-4e-05,-2e-05,-1e-05,2e-05,3
9887,10373,0.00018999999999999998,2e-05,1e-05,-1e-05,-4e-05,-2e-05,-1e-05,2e-05,3
9888,10374,0.00018999999999999998,2e-05,1e-05,-1e-05,-4e-05,-2e-05,-1e-05,2e-05,3
9889,10375,0.00018999999999999998,2e-05,1e-05,-1e-05,-4e-05,-2e-05,-1e-05,2e-05,3
9890,10376,4e-05,0.00011999999999999999,0.0,-1e-05,-2.9999999999999997e-05,2e-05,0.0,0.0,3
9891,10377,4e-05,0.00011999999999999999,0.0,-1e-05,-2.9999999999999997e-05,2e-05,0.0,0.0,3
9892,10378,4e-05,0.00011999999999999999,0.0,-1e-05,-2.9999999999999997e-05,2e-05,0.0,0.0,3
9893,10379,4e-05,0.00011999999999999999,0.0,-1e-05,-2.9999999999999997e-05,2e-05,0.0,0.0,3
9894,10380,4e-05,0.00011999999999999999,0.0,-1e-05,-2.9999999999999997e-05,2e-05,0.0,0.0,3
9895,10381,4e-05,0.00011999999999999999,0.0,-1e-05,-2.9999999999999997e-05,2e-05,0.0,0.0,3
9896,10382,4e-05,0.00011999999999999999,0.0,-1e-05,-2.9999999999999997e-05,2e-05,0.0,0.0,3
9897,10383,4e-05,0.00011999999999999999,0.0,-1e-05,-2.9999999999999997e-05,2e-05,0.0,0.0,3
9898,10384,4e-05,0.00011999999999999999,0.0,-1e-05,-2.9999999999999997e-05,2e-05,0.0,0.0,3
9899,10385,-4e-05,-2.9999999999999997e-05,-1e-05,-2e-05,-2e-05,-2e-05,-5.9999999999999995e-05,-1e-05,3
9900,10387,-4e-05,-2.9999999999999997e-05,-1e-05,-2e-05,-2e-05,-2e-05,-5.9999999999999995e-05,-1e-05,3
9901,10389,-4e-05,-2.9999999999999997e-05,-1e-05,-2e-05,-2e-05,-2e-05,-5.9999999999999995e-05,-1e-05,3
9902,10390,-4e-05,-2.9999999999999997e-05,-1e-05,-2e-05,-2e-05,-2e-05,-5.9999999999999995e-05,-1e-05,3
9903,10391,-4e-05,-2.9999999999999997e-05,-1e-05,-2e-05,-2e-05,-2e-05,-5.9999999999999995e-05,-1e-05,3
9904,10392,-4e-05,-2.9999999999999997e-05,-1e-05,-2e-05,-2e-05,-2e-05,-5.9999999999999995e-05,-1e-05,3
9905,10393,-4e-05,-2.9999999999999997e-05,-1e-05,-2e-05,-2e-05,-2e-05,-5.9999999999999995e-05,-1e-05,3
9906,10394,-4e-05,-2.9999999999999997e-05,-1e-05,-2e-05,-2e-05,-2e-05,-5.9999999999999995e-05,-1e-05,3
9907,10395,-4e-05,-2.9999999999999997e-05,-1e-05,-2e-05,-2e-05,-2e-05,-5.9999999999999995e-05,-1e-05,3
9908,10396,-4e-05,-2.9999999999999997e-05,-1e-05,-2e-05,-2e-05,-2e-05,-5.9999999999999995e-05,-1e-05,3
9909,10397,-4e-05,-2.9999999999999997e-05,-1e-05,-2e-05,-2e-05,-2e-05,-5.9999999999999995e-05,-1e-05,3
9910,10398,-4e-05,-2.9999999999999997e-05,-1e-05,-2e-05,-2e-05,-2e-05,-5.9999999999999995e-05,-1e-05,3
9911,10399,-4e-05,-2.9999999999999997e-05,-1e-05,-2e-05,-2e-05,-2e-05,-5.9999999999999995e-05,-1e-05,3
9912,10400,-0.0001,-0.00015,-1e-05,1e-05,2e-05,4e-05,0.0,-5.9999999999999995e-05,3
9913,10401,0.00015,4e-05,0.0,0.0,-2e-05,4e-05,9e-05,-1e-05,3
9914,10402,-0.00018,-9e-05,-4e-05,-4e-05,-1e-05,-7e-05,-0.00011999999999999999,-5e-05,3
9915,10403,-0.00018,-9e-05,-4e-05,-4e-05,-1e-05,-7e-05,-0.00011999999999999999,-5e-05,3
9916,10404,-0.00018,-9e-05,-4e-05,-4e-05,-1e-05,-7e-05,-0.00011999999999999999,-5e-05,3
9917,10405,-0.00018,-9e-05,-4e-05,-4e-05,-1e-05,-7e-05,-0.00011999999999999999,-5e-05,3
9918,10406,-0.00018,-9e-05,-4e-05,-4e-05,-1e-05,-7e-05,-0.00011999999999999999,-5e-05,3
9919,10407,-0.00018,-9e-05,-4e-05,-4e-05,-1e-05,-7e-05,-0.00011999999999999999,-5e-05,3
9920,10408,-0.00018,-9e-05,-4e-05,-4e-05,-1e-05,-7e-05,-0.00011999999999999999,-5e-05,3
9921,10409,-0.00018,-9e-05,-4e-05,-4e-05,-1e-05,-7e-05,-0.00011999999999999999,-5e-05,3
9922,10410,-0.00018,-9e-05,-4e-05,-4e-05,-1e-05,-7e-05,-0.00011999999999999999,-5e-05,3
9923,10411,-0.00018,-9e-05,-4e-05,-4e-05,-1e-05,-7e-05,-0.00011999999999999999,-5e-05,3
9924,10412,-0.00018,-9e-05,-4e-05,-4e-05,-1e-05,-7e-05,-0.00011999999999999999,-5e-05,3
9925,10413,-0.00018,-9e-05,-4e-05,-4e-05,-1e-05,-7e-05,-0.00011999999999999999,-5e-05,3
9926,10414,-0.00018,-9e-05,-4e-05,-4e-05,-1e-05,-7e-05,-0.00011999999999999999,-5e-05,3
9927,10415,-0.00018,-9e-05,-4e-05,-4e-05,-1e-05,-7e-05,-0.00011999999999999999,-5e-05,3
9928,10416,-0.00018,-9e-05,-4e-05,-4e-05,-1e-05,-7e-05,-0.00011999999999999999,-5e-05,3
9929,10417,-0.00018,-9e-05,-4e-05,-4e-05,-1e-05,-7e-05,-0.00011999999999999999,-5e-05,3
9930,10418,-0.00018,-9e-05,-4e-05,-4e-05,-1e-05,-7e-05,-0.00011999999999999999,-5e-05,3
9931,10419,-0.00018,-9e-05,-4e-05,-4e-05,-1e-05,-7e-05,-0.00011999999999999999,-5e-05,3
9932,10420,-0.00018,-9e-05,-4e-05,-4e-05,-1e-05,-7e-05,-0.00011999999999999999,-5e-05,3
9933,10421,-0.00018,-9e-05,-4e-05,-4e-05,-1e-05,-7e-05,-0.00011999999999999999,-5e-05,3
9934,10422,-0.00018,-9e-05,-4e-05,-4e-05,-1e-05,-7e-05,-0.00011999999999999999,-5e-05,3
9935,10423,5.9999999999999995e-05,-2e-05,-2.9999999999999997e-05,1e-05,7e-05,4e-05,5.9999999999999995e-05,5e-05,3
9936,10424,5.9999999999999995e-05,-2e-05,-2.9999999999999997e-05,1e-05,7e-05,4e-05,5.9999999999999995e-05,5e-05,3
9937,10425,5.9999999999999995e-05,-2e-05,-2.9999999999999997e-05,1e-05,7e-05,4e-05,5.9999999999999995e-05,5e-05,3
9938,10426,5.9999999999999995e-05,-2e-05,-2.9999999999999997e-05,1e-05,7e-05,4e-05,5.9999999999999995e-05,5e-05,3
9939,10427,5.9999999999999995e-05,-2e-05,-2.9999999999999997e-05,1e-05,7e-05,4e-05,5.9999999999999995e-05,5e-05,3
9940,10428,5.9999999999999995e-05,-2e-05,-2.9999999999999997e-05,1e-05,7e-05,4e-05,5.9999999999999995e-05,5e-05,3
9941,10429,5.9999999999999995e-05,-2e-05,-2.9999999999999997e-05,1e-05,7e-05,4e-05,5.9999999999999995e-05,5e-05,3
9942,10430,5.9999999999999995e-05,-2e-05,-2.9999999999999997e-05,1e-05,7e-05,4e-05,5.9999999999999995e-05,5e-05,3
9943,10431,5.9999999999999995e-05,-2e-05,-2.9999999999999997e-05,1e-05,7e-05,4e-05,5.9999999999999995e-05,5e-05,3
9944,10432,5.9999999999999995e-05,-2e-05,-2.9999999999999997e-05,1e-05,7e-05,4e-05,5.9999999999999995e-05,5e-05,3
9945,10433,5.9999999999999995e-05,-2e-05,-2.9999999999999997e-05,1e-05,7e-05,4e-05,5.9999999999999995e-05,5e-05,3
9946,10434,5.9999999999999995e-05,-2e-05,-2.9999999999999997e-05,1e-05,7e-05,4e-05,5.9999999999999995e-05,5e-05,3
9947,10435,5.9999999999999995e-05,-2e-05,-2.9999999999999997e-05,1e-05,7e-05,4e-05,5.9999999999999995e-05,5e-05,3
9948,10436,-2.9999999999999997e-05,-1e-05,-5e-05,-4e-05,-0.00011,-8e-05,-1e-05,0.0,3
9949,10439,-2.9999999999999997e-05,-1e-05,-5e-05,-4e-05,-0.00011,-8e-05,-1e-05,0.0,3
9950,10440,-2.9999999999999997e-05,-1e-05,-5e-05,-4e-05,-0.00011,-8e-05,-1e-05,0.0,3
9951,10441,-2.9999999999999997e-05,-1e-05,-5e-05,-4e-05,-0.00011,-8e-05,-1e-05,0.0,3
9952,10442,-2.9999999999999997e-05,-1e-05,-5e-05,-4e-05,-0.00011,-8e-05,-1e-05,0.0,3
9953,10443,-2.9999999999999997e-05,-1e-05,-5e-05,-4e-05,-0.00011,-8e-05,-1e-05,0.0,3
9954,10444,-2.9999999999999997e-05,-1e-05,-5e-05,-4e-05,-0.00011,-8e-05,-1e-05,0.0,3
9955,10445,-7e-05,2e-05,4e-05,-1e-05,-9e-05,-7e-05,-5.9999999999999995e-05,0.0,3
9956,10446,-7e-05,2e-05,4e-05,-1e-05,-9e-05,-7e-05,-5.9999999999999995e-05,0.0,3
9957,10447,-7e-05,2e-05,4e-05,-1e-05,-9e-05,-7e-05,-5.9999999999999995e-05,0.0,3
9958,10448,-7e-05,2e-05,4e-05,-1e-05,-9e-05,-7e-05,-5.9999999999999995e-05,0.0,3
9959,10449,-7e-05,2e-05,4e-05,-1e-05,-9e-05,-7e-05,-5.9999999999999995e-05,0.0,3
9960,10450,-7e-05,2e-05,4e-05,-1e-05,-9e-05,-7e-05,-5.9999999999999995e-05,0.0,3
9961,10451,-7e-05,2e-05,4e-05,-1e-05,-9e-05,-7e-05,-5.9999999999999995e-05,0.0,3
9962,10452,-7e-05,2e-05,4e-05,-1e-05,-9e-05,-7e-05,-5.9999999999999995e-05,0.0,3
9963,10453,-7e-05,2e-05,4e-05,-1e-05,-9e-05,-7e-05,-5.9999999999999995e-05,0.0,3
9964,10454,-7e-05,2e-05,4e-05,-1e-05,-9e-05,-7e-05,-5.9999999999999995e-05,0.0,3
9965,10455,-7e-05,2e-05,4e-05,-1e-05,-9e-05,-7e-05,-5.9999999999999995e-05,0.0,3
9966,10456,-7e-05,2e-05,4e-05,-1e-05,-9e-05,-7e-05,-5.9999999999999995e-05,0.0,3
9967,10457,-7e-05,2e-05,4e-05,-1e-05,-9e-05,-7e-05,-5.9999999999999995e-05,0.0,3
9968,10458,-7e-05,2e-05,4e-05,-1e-05,-9e-05,-7e-05,-5.9999999999999995e-05,0.0,3
9969,10459,-7e-05,2e-05,4e-05,-1e-05,-9e-05,-7e-05,-5.9999999999999995e-05,0.0,3
9970,10460,5e-05,0.00013000000000000002,5e-05,2e-05,8e-05,5.9999999999999995e-05,1e-05,5e-05,3
9971,10461,4e-05,-1e-05,-2e-05,0.0,-5.9999999999999995e-05,-8e-05,-0.00011999999999999999,-2e-05,3
9972,10462,4e-05,-1e-05,-2e-05,0.0,-5.9999999999999995e-05,-8e-05,-0.00011999999999999999,-2e-05,3
9973,10463,4e-05,-1e-05,-2e-05,0.0,-5.9999999999999995e-05,-8e-05,-0.00011999999999999999,-2e-05,3
9974,10464,4e-05,-1e-05,-2e-05,0.0,-5.9999999999999995e-05,-8e-05,-0.00011999999999999999,-2e-05,3
9975,10465,4e-05,-1e-05,-2e-05,0.0,-5.9999999999999995e-05,-8e-05,-0.00011999999999999999,-2e-05,3
9976,10466,4e-05,-1e-05,-2e-05,0.0,-5.9999999999999995e-05,-8e-05,-0.00011999999999999999,-2e-05,3
9977,10467,4e-05,-1e-05,-2e-05,0.0,-5.9999999999999995e-05,-8e-05,-0.00011999999999999999,-2e-05,3
9978,10468,4e-05,-1e-05,-2e-05,0.0,-5.9999999999999995e-05,-8e-05,-0.00011999999999999999,-2e-05,3
9979,10469,4e-05,-1e-05,-2e-05,0.0,-5.9999999999999995e-05,-8e-05,-0.00011999999999999999,-2e-05,3
9980,10470,4e-05,-1e-05,-2e-05,0.0,-5.9999999999999995e-05,-8e-05,-0.00011999999999999999,-2e-05,3
9981,10471,4e-05,-1e-05,-2e-05,0.0,-5.9999999999999995e-05,-8e-05,-0.00011999999999999999,-2e-05,3
9982,10472,4e-05,-1e-05,-2e-05,0.0,-5.9999999999999995e-05,-8e-05,-0.00011999999999999999,-2e-05,3
9983,10473,4e-05,-1e-05,-2e-05,0.0,-5.9999999999999995e-05,-8e-05,-0.00011999999999999999,-2e-05,3
9984,10474,4e-05,-1e-05,-2e-05,0.0,-5.9999999999999995e-05,-8e-05,-0.00011999999999999999,-2e-05,3
9985,10475,4e-05,-1e-05,-2e-05,0.0,-5.9999999999999995e-05,-8e-05,-0.00011999999999999999,-2e-05,3
9986,10476,4e-05,-1e-05,-2e-05,0.0,-5.9999999999999995e-05,-8e-05,-0.00011999999999999999,-2e-05,3
9987,10477,4e-05,-1e-05,-2e-05,0.0,-5.9999999999999995e-05,-8e-05,-0.00011999999999999999,-2e-05,3
9988,10478,4e-05,-1e-05,-2e-05,0.0,-5.9999999999999995e-05,-8e-05,-0.00011999999999999999,-2e-05,3
9989,10479,4e-05,-1e-05,-2e-05,0.0,-5.9999999999999995e-05,-8e-05,-0.00011999999999999999,-2e-05,3
9990,10480,4e-05,-1e-05,-2e-05,0.0,-5.9999999999999995e-05,-8e-05,-0.00011999999999999999,-2e-05,3
9991,10481,4e-05,-1e-05,-2e-05,0.0,-5.9999999999999995e-05,-8e-05,-0.00011999999999999999,-2e-05,3
9992,10482,4e-05,-1e-05,-2e-05,0.0,-5.9999999999999995e-05,-8e-05,-0.00011999999999999999,-2e-05,3
9993,10483,-0.00027,-5.9999999999999995e-05,-1e-05,4e-05,1e-05,5e-05,-1e-05,2e-05,3
9994,10484,-0.00016,-1e-05,2e-05,-1e-05,0.0,2e-05,-4e-05,-5.9999999999999995e-05,3
9995,10485,-0.00016,-1e-05,2e-05,-1e-05,0.0,2e-05,-4e-05,-5.9999999999999995e-05,3
9996,10486,-0.00016,-1e-05,2e-05,-1e-05,0.0,2e-05,-4e-05,-5.9999999999999995e-05,3
9997,10489,-0.00016,-1e-05,2e-05,-1e-05,0.0,2e-05,-4e-05,-5.9999999999999995e-05,3
9998,10490,-0.00016,-1e-05,2e-05,-1e-05,0.0,2e-05,-4e-05,-5.9999999999999995e-05,3
9999,10491,-0.00016,-1e-05,2e-05,-1e-05,0.0,2e-05,-4e-05,-5.9999999999999995e-05,3
10000,10492,-0.00016,-1e-05,2e-05,-1e-05,0.0,2e-05,-4e-05,-5.9999999999999995e-05,3
10001,10493,-0.00016,-1e-05,2e-05,-1e-05,0.0,2e-05,-4e-05,-5.9999999999999995e-05,3
10002,10494,-0.00016,-1e-05,2e-05,-1e-05,0.0,2e-05,-4e-05,-5.9999999999999995e-05,3
10003,10495,-0.00016,-1e-05,2e-05,-1e-05,0.0,2e-05,-4e-05,-5.9999999999999995e-05,3
10004,10496,0.00015,0.00011,2.9999999999999997e-05,-2e-05,-1e-05,-2e-05,-7e-05,-1e-05,3
10005,10497,0.00015,0.00011,2.9999999999999997e-05,-2e-05,-1e-05,-2e-05,-7e-05,-1e-05,3
10006,10498,0.00015,0.00011,2.9999999999999997e-05,-2e-05,-1e-05,-2e-05,-7e-05,-1e-05,3
10007,10499,0.00015,0.00011,2.9999999999999997e-05,-2e-05,-1e-05,-2e-05,-7e-05,-1e-05,3
10008,10500,0.00015,0.00011,2.9999999999999997e-05,-2e-05,-1e-05,-2e-05,-7e-05,-1e-05,3
10009,10501,0.00015,0.00011,2.9999999999999997e-05,-2e-05,-1e-05,-2e-05,-7e-05,-1e-05,3
10010,10502,0.00015,0.00011,2.9999999999999997e-05,-2e-05,-1e-05,-2e-05,-7e-05,-1e-05,3
10011,10503,0.00015,0.00011,2.9999999999999997e-05,-2e-05,-1e-05,-2e-05,-7e-05,-1e-05,3
10012,10504,0.00015,0.00011,2.9999999999999997e-05,-2e-05,-1e-05,-2e-05,-7e-05,-1e-05,3
10013,10505,0.00015,0.00011,2.9999999999999997e-05,-2e-05,-1e-05,-2e-05,-7e-05,-1e-05,3
10014,10506,5e-05,-5e-05,-2.9999999999999997e-05,2e-05,-1e-05,-4e-05,0.0,1e-05,3
10015,10507,5e-05,-5e-05,-2.9999999999999997e-05,2e-05,-1e-05,-4e-05,0.0,1e-05,3
10016,10508,5e-05,-5e-05,-2.9999999999999997e-05,2e-05,-1e-05,-4e-05,0.0,1e-05,3
10017,10509,5e-05,-5e-05,-2.9999999999999997e-05,2e-05,-1e-05,-4e-05,0.0,1e-05,3
10018,10510,5e-05,-5e-05,-2.9999999999999997e-05,2e-05,-1e-05,-4e-05,0.0,1e-05,3
10019,10511,5e-05,-5e-05,-2.9999999999999997e-05,2e-05,-1e-05,-4e-05,0.0,1e-05,3
10020,10512,5e-05,-5e-05,-2.9999999999999997e-05,2e-05,-1e-05,-4e-05,0.0,1e-05,3
10021,10513,5e-05,-5e-05,-2.9999999999999997e-05,2e-05,-1e-05,-4e-05,0.0,1e-05,3
10022,10514,5e-05,-5e-05,-2.9999999999999997e-05,2e-05,-1e-05,-4e-05,0.0,1e-05,3
10023,10515,5e-05,-5e-05,-2.9999999999999997e-05,2e-05,-1e-05,-4e-05,0.0,1e-05,3
10024,10516,5e-05,-5e-05,-2.9999999999999997e-05,2e-05,-1e-05,-4e-05,0.0,1e-05,3
10025,10517,5e-05,-5e-05,-2.9999999999999997e-05,2e-05,-1e-05,-4e-05,0.0,1e-05,3
10026,10518,5e-05,-5e-05,-2.9999999999999997e-05,2e-05,-1e-05,-4e-05,0.0,1e-05,3
10027,10519,5e-05,-5e-05,-2.9999999999999997e-05,2e-05,-1e-05,-4e-05,0.0,1e-05,3
10028,10520,-0.00033,-0.00013000000000000002,-2.9999999999999997e-05,-1e-05,5e-05,0.0001,9e-05,-8e-05,3
10029,10521,-0.00033,-0.00013000000000000002,-2.9999999999999997e-05,-1e-05,5e-05,0.0001,9e-05,-8e-05,3
10030,10522,-2e-05,2.9999999999999997e-05,0.0,-2.9999999999999997e-05,-2.9999999999999997e-05,0.0,2.9999999999999997e-05,2.9999999999999997e-05,3
10031,10523,-2e-05,2.9999999999999997e-05,0.0,-2.9999999999999997e-05,-2.9999999999999997e-05,0.0,2.9999999999999997e-05,2.9999999999999997e-05,3
10032,10524,-2e-05,2.9999999999999997e-05,0.0,-2.9999999999999997e-05,-2.9999999999999997e-05,0.0,2.9999999999999997e-05,2.9999999999999997e-05,3
10033,10525,-2e-05,2.9999999999999997e-05,0.0,-2.9999999999999997e-05,-2.9999999999999997e-05,0.0,2.9999999999999997e-05,2.9999999999999997e-05,3
10034,10526,-2e-05,2.9999999999999997e-05,0.0,-2.9999999999999997e-05,-2.9999999999999997e-05,0.0,2.9999999999999997e-05,2.9999999999999997e-05,3
10035,10527,-2e-05,2.9999999999999997e-05,0.0,-2.9999999999999997e-05,-2.9999999999999997e-05,0.0,2.9999999999999997e-05,2.9999999999999997e-05,3
10036,10528,-2e-05,2.9999999999999997e-05,0.0,-2.9999999999999997e-05,-2.9999999999999997e-05,0.0,2.9999999999999997e-05,2.9999999999999997e-05,3
10037,10529,-2e-05,2.9999999999999997e-05,0.0,-2.9999999999999997e-05,-2.9999999999999997e-05,0.0,2.9999999999999997e-05,2.9999999999999997e-05,3
10038,10530,-2e-05,2.9999999999999997e-05,0.0,-2.9999999999999997e-05,-2.9999999999999997e-05,0.0,2.9999999999999997e-05,2.9999999999999997e-05,3
10039,10531,-2e-05,2.9999999999999997e-05,0.0,-2.9999999999999997e-05,-2.9999999999999997e-05,0.0,2.9999999999999997e-05,2.9999999999999997e-05,3
10040,10532,-2e-05,2.9999999999999997e-05,0.0,-2.9999999999999997e-05,-2.9999999999999997e-05,0.0,2.9999999999999997e-05,2.9999999999999997e-05,3
10041,10533,-2e-05,2.9999999999999997e-05,0.0,-2.9999999999999997e-05,-2.9999999999999997e-05,0.0,2.9999999999999997e-05,2.9999999999999997e-05,3
10042,10534,-2e-05,2.9999999999999997e-05,0.0,-2.9999999999999997e-05,-2.9999999999999997e-05,0.0,2.9999999999999997e-05,2.9999999999999997e-05,3
10043,10535,-2e-05,2.9999999999999997e-05,0.0,-2.9999999999999997e-05,-2.9999999999999997e-05,0.0,2.9999999999999997e-05,2.9999999999999997e-05,3
10044,10536,-2e-05,2.9999999999999997e-05,0.0,-2.9999999999999997e-05,-2.9999999999999997e-05,0.0,2.9999999999999997e-05,2.9999999999999997e-05,3
10045,10539,-2e-05,2.9999999999999997e-05,0.0,-2.9999999999999997e-05,-2.9999999999999997e-05,0.0,2.9999999999999997e-05,2.9999999999999997e-05,3
10046,10540,-2e-05,2.9999999999999997e-05,0.0,-2.9999999999999997e-05,-2.9999999999999997e-05,0.0,2.9999999999999997e-05,2.9999999999999997e-05,3
10047,10541,-2e-05,2.9999999999999997e-05,0.0,-2.9999999999999997e-05,-2.9999999999999997e-05,0.0,2.9999999999999997e-05,2.9999999999999997e-05,3
10048,10542,-2e-05,2.9999999999999997e-05,0.0,-2.9999999999999997e-05,-2.9999999999999997e-05,0.0,2.9999999999999997e-05,2.9999999999999997e-05,3
10049,10543,-2e-05,2.9999999999999997e-05,0.0,-2.9999999999999997e-05,-2.9999999999999997e-05,0.0,2.9999999999999997e-05,2.9999999999999997e-05,3
10050,10544,-2e-05,2.9999999999999997e-05,0.0,-2.9999999999999997e-05,-2.9999999999999997e-05,0.0,2.9999999999999997e-05,2.9999999999999997e-05,3
10051,10545,-2e-05,2.9999999999999997e-05,0.0,-2.9999999999999997e-05,-2.9999999999999997e-05,0.0,2.9999999999999997e-05,2.9999999999999997e-05,3
10052,10546,-2e-05,2.9999999999999997e-05,0.0,-2.9999999999999997e-05,-2.9999999999999997e-05,0.0,2.9999999999999997e-05,2.9999999999999997e-05,3
10053,10547,-2e-05,2.9999999999999997e-05,0.0,-2.9999999999999997e-05,-2.9999999999999997e-05,0.0,2.9999999999999997e-05,2.9999999999999997e-05,3
10054,10548,-2e-05,2.9999999999999997e-05,0.0,-2.9999999999999997e-05,-2.9999999999999997e-05,0.0,2.9999999999999997e-05,2.9999999999999997e-05,3
10055,10549,-2e-05,2.9999999999999997e-05,0.0,-2.9999999999999997e-05,-2.9999999999999997e-05,0.0,2.9999999999999997e-05,2.9999999999999997e-05,3
10056,10550,5e-05,-7e-05,-5e-05,-2e-05,-9e-05,-7e-05,7e-05,-2.9999999999999997e-05,3
10057,10551,0.00014,-8e-05,-7e-05,-2e-05,2e-05,0.0,-0.00013000000000000002,0.0,3
10058,10552,0.00014,-8e-05,-7e-05,-2e-05,2e-05,0.0,-0.00013000000000000002,0.0,3
10059,10553,0.00014,-8e-05,-7e-05,-2e-05,2e-05,0.0,-0.00013000000000000002,0.0,3
10060,10554,0.00014,-8e-05,-7e-05,-2e-05,2e-05,0.0,-0.00013000000000000002,0.0,3
10061,10555,0.00014,-8e-05,-7e-05,-2e-05,2e-05,0.0,-0.00013000000000000002,0.0,3
10062,10556,0.00014,-8e-05,-7e-05,-2e-05,2e-05,0.0,-0.00013000000000000002,0.0,3
10063,10557,0.00014,-8e-05,-7e-05,-2e-05,2e-05,0.0,-0.00013000000000000002,0.0,3
10064,10558,0.00014,-8e-05,-7e-05,-2e-05,2e-05,0.0,-0.00013000000000000002,0.0,3
10065,10559,0.00014,-8e-05,-7e-05,-2e-05,2e-05,0.0,-0.00013000000000000002,0.0,3
10066,10560,0.00014,-8e-05,-7e-05,-2e-05,2e-05,0.0,-0.00013000000000000002,0.0,3
10067,10561,0.00014,-8e-05,-7e-05,-2e-05,2e-05,0.0,-0.00013000000000000002,0.0,3
10068,10562,0.00014,-8e-05,-7e-05,-2e-05,2e-05,0.0,-0.00013000000000000002,0.0,3
10069,10563,0.00014,-8e-05,-7e-05,-2e-05,2e-05,0.0,-0.00013000000000000002,0.0,3
10070,10564,0.00014,-8e-05,-7e-05,-2e-05,2e-05,0.0,-0.00013000000000000002,0.0,3
10071,10565,0.00049,-7e-05,-4e-05,-4e-05,-4e-05,-8e-05,-5.9999999999999995e-05,4e-05,3
10072,10566,-0.00033999999999999997,8e-05,2e-05,-1e-05,1e-05,2e-05,1e-05,5.9999999999999995e-05,3
10073,10567,-0.00033999999999999997,8e-05,2e-05,-1e-05,1e-05,2e-05,1e-05,5.9999999999999995e-05,3
10074,10568,-0.00033999999999999997,8e-05,2e-05,-1e-05,1e-05,2e-05,1e-05,5.9999999999999995e-05,3
10075,10569,-0.00033999999999999997,8e-05,2e-05,-1e-05,1e-05,2e-05,1e-05,5.9999999999999995e-05,3
10076,10570,-0.00033999999999999997,8e-05,2e-05,-1e-05,1e-05,2e-05,1e-05,5.9999999999999995e-05,3
10077,10571,-0.00033999999999999997,8e-05,2e-05,-1e-05,1e-05,2e-05,1e-05,5.9999999999999995e-05,3
10078,10572,-0.00033999999999999997,8e-05,2e-05,-1e-05,1e-05,2e-05,1e-05,5.9999999999999995e-05,3
10079,10573,-0.00033999999999999997,8e-05,2e-05,-1e-05,1e-05,2e-05,1e-05,5.9999999999999995e-05,3
10080,10574,-0.00033999999999999997,8e-05,2e-05,-1e-05,1e-05,2e-05,1e-05,5.9999999999999995e-05,3
10081,10575,-0.00033999999999999997,8e-05,2e-05,-1e-05,1e-05,2e-05,1e-05,5.9999999999999995e-05,3
10082,10576,-0.00033999999999999997,8e-05,2e-05,-1e-05,1e-05,2e-05,1e-05,5.9999999999999995e-05,3
10083,10577,-0.00033999999999999997,8e-05,2e-05,-1e-05,1e-05,2e-05,1e-05,5.9999999999999995e-05,3
10084,10578,-0.00033999999999999997,8e-05,2e-05,-1e-05,1e-05,2e-05,1e-05,5.9999999999999995e-05,3
10085,10579,-0.00033999999999999997,8e-05,2e-05,-1e-05,1e-05,2e-05,1e-05,5.9999999999999995e-05,3
10086,10580,0.0001,-2e-05,-4e-05,-2.9999999999999997e-05,1e-05,4e-05,2.9999999999999997e-05,-2e-05,3
10087,10581,9e-05,4e-05,0.0,0.0,1e-05,-7e-05,-8e-05,-2e-05,3
10088,10582,9e-05,4e-05,0.0,0.0,1e-05,-7e-05,-8e-05,-2e-05,3
10089,10583,9e-05,4e-05,0.0,0.0,1e-05,-7e-05,-8e-05,-2e-05,3
10090,10584,9e-05,4e-05,0.0,0.0,1e-05,-7e-05,-8e-05,-2e-05,3
10091,10585,9e-05,4e-05,0.0,0.0,1e-05,-7e-05,-8e-05,-2e-05,3
10092,10586,9e-05,4e-05,0.0,0.0,1e-05,-7e-05,-8e-05,-2e-05,3
10093,10589,9e-05,4e-05,0.0,0.0,1e-05,-7e-05,-8e-05,-2e-05,3
10094,10590,9e-05,4e-05,0.0,0.0,1e-05,-7e-05,-8e-05,-2e-05,3
10095,10591,9e-05,4e-05,0.0,0.0,1e-05,-7e-05,-8e-05,-2e-05,3
10096,10592,9e-05,4e-05,0.0,0.0,1e-05,-7e-05,-8e-05,-2e-05,3
10097,10593,9e-05,4e-05,0.0,0.0,1e-05,-7e-05,-8e-05,-2e-05,3
10098,10594,9e-05,4e-05,0.0,0.0,1e-05,-7e-05,-8e-05,-2e-05,3
10099,10595,9e-05,4e-05,0.0,0.0,1e-05,-7e-05,-8e-05,-2e-05,3
10100,10596,9e-05,4e-05,0.0,0.0,1e-05,-7e-05,-8e-05,-2e-05,3
10101,10597,9e-05,4e-05,0.0,0.0,1e-05,-7e-05,-8e-05,-2e-05,3
10102,10598,9e-05,4e-05,0.0,0.0,1e-05,-7e-05,-8e-05,-2e-05,3
10103,10599,9e-05,4e-05,0.0,0.0,1e-05,-7e-05,-8e-05,-2e-05,3
10104,10600,9e-05,4e-05,0.0,0.0,1e-05,-7e-05,-8e-05,-2e-05,3
10105,10601,9e-05,4e-05,0.0,0.0,1e-05,-7e-05,-8e-05,-2e-05,3
10106,10602,-0.00013000000000000002,-5e-05,-2e-05,0.0,2e-05,-5.9999999999999995e-05,-2.9999999999999997e-05,-1e-05,3
10107,10603,-0.00013000000000000002,-5e-05,-2e-05,0.0,2e-05,-5.9999999999999995e-05,-2.9999999999999997e-05,-1e-05,3
10108,10604,5.9999999999999995e-05,2e-05,1e-05,-1e-05,-2e-05,-1e-05,5.9999999999999995e-05,0.0,3
10109,10605,5.9999999999999995e-05,2e-05,1e-05,-1e-05,-2e-05,-1e-05,5.9999999999999995e-05,0.0,3
10110,10606,5.9999999999999995e-05,2e-05,1e-05,-1e-05,-2e-05,-1e-05,5.9999999999999995e-05,0.0,3
10111,10607,5.9999999999999995e-05,2e-05,1e-05,-1e-05,-2e-05,-1e-05,5.9999999999999995e-05,0.0,3
10112,10608,5.9999999999999995e-05,2e-05,1e-05,-1e-05,-2e-05,-1e-05,5.9999999999999995e-05,0.0,3
10113,10609,5.9999999999999995e-05,2e-05,1e-05,-1e-05,-2e-05,-1e-05,5.9999999999999995e-05,0.0,3
10114,10610,5.9999999999999995e-05,2e-05,1e-05,-1e-05,-2e-05,-1e-05,5.9999999999999995e-05,0.0,3
10115,10611,5.9999999999999995e-05,2e-05,1e-05,-1e-05,-2e-05,-1e-05,5.9999999999999995e-05,0.0,3
10116,10612,5.9999999999999995e-05,2e-05,1e-05,-1e-05,-2e-05,-1e-05,5.9999999999999995e-05,0.0,3
10117,10613,5.9999999999999995e-05,2e-05,1e-05,-1e-05,-2e-05,-1e-05,5.9999999999999995e-05,0.0,3
10118,10614,5.9999999999999995e-05,2e-05,1e-05,-1e-05,-2e-05,-1e-05,5.9999999999999995e-05,0.0,3
10119,10615,5.9999999999999995e-05,2e-05,1e-05,-1e-05,-2e-05,-1e-05,5.9999999999999995e-05,0.0,3
10120,10616,5.9999999999999995e-05,2e-05,1e-05,-1e-05,-2e-05,-1e-05,5.9999999999999995e-05,0.0,3
10121,10617,5.9999999999999995e-05,2e-05,1e-05,-1e-05,-2e-05,-1e-05,5.9999999999999995e-05,0.0,3
10122,10618,5.9999999999999995e-05,2e-05,1e-05,-1e-05,-2e-05,-1e-05,5.9999999999999995e-05,0.0,3
10123,10619,5.9999999999999995e-05,2e-05,1e-05,-1e-05,-2e-05,-1e-05,5.9999999999999995e-05,0.0,3
10124,10620,5.9999999999999995e-05,2e-05,1e-05,-1e-05,-2e-05,-1e-05,5.9999999999999995e-05,0.0,3
10125,10621,5.9999999999999995e-05,2e-05,1e-05,-1e-05,-2e-05,-1e-05,5.9999999999999995e-05,0.0,3
10126,10622,5.9999999999999995e-05,2e-05,1e-05,-1e-05,-2e-05,-1e-05,5.9999999999999995e-05,0.0,3
10127,10623,5.9999999999999995e-05,2e-05,1e-05,-1e-05,-2e-05,-1e-05,5.9999999999999995e-05,0.0,3
10128,10624,5.9999999999999995e-05,2e-05,1e-05,-1e-05,-2e-05,-1e-05,5.9999999999999995e-05,0.0,3
10129,10625,-0.00021,0.0,-2e-05,-4e-05,-5e-05,-8e-05,-0.00016,-2.9999999999999997e-05,3
10130,10626,5.9999999999999995e-05,-2.9999999999999997e-05,-1e-05,2.9999999999999997e-05,0.00011999999999999999,5.9999999999999995e-05,8e-05,-2e-05,3
10131,10627,5.9999999999999995e-05,-2.9999999999999997e-05,-1e-05,2.9999999999999997e-05,0.00011999999999999999,5.9999999999999995e-05,8e-05,-2e-05,3
10132,10628,5.9999999999999995e-05,-2.9999999999999997e-05,-1e-05,2.9999999999999997e-05,0.00011999999999999999,5.9999999999999995e-05,8e-05,-2e-05,3
10133,10629,5.9999999999999995e-05,-2.9999999999999997e-05,-1e-05,2.9999999999999997e-05,0.00011999999999999999,5.9999999999999995e-05,8e-05,-2e-05,3
10134,10630,5.9999999999999995e-05,-2.9999999999999997e-05,-1e-05,2.9999999999999997e-05,0.00011999999999999999,5.9999999999999995e-05,8e-05,-2e-05,3
10135,10631,5.9999999999999995e-05,-2.9999999999999997e-05,-1e-05,2.9999999999999997e-05,0.00011999999999999999,5.9999999999999995e-05,8e-05,-2e-05,3
10136,10632,5.9999999999999995e-05,-2.9999999999999997e-05,-1e-05,2.9999999999999997e-05,0.00011999999999999999,5.9999999999999995e-05,8e-05,-2e-05,3
10137,10633,5.9999999999999995e-05,-2.9999999999999997e-05,-1e-05,2.9999999999999997e-05,0.00011999999999999999,5.9999999999999995e-05,8e-05,-2e-05,3
10138,10634,5.9999999999999995e-05,-2.9999999999999997e-05,-1e-05,2.9999999999999997e-05,0.00011999999999999999,5.9999999999999995e-05,8e-05,-2e-05,3
10139,10635,5.9999999999999995e-05,-2.9999999999999997e-05,-1e-05,2.9999999999999997e-05,0.00011999999999999999,5.9999999999999995e-05,8e-05,-2e-05,3
10140,10636,5.9999999999999995e-05,-2.9999999999999997e-05,-1e-05,2.9999999999999997e-05,0.00011999999999999999,5.9999999999999995e-05,8e-05,-2e-05,3
10141,10639,5.9999999999999995e-05,-2.9999999999999997e-05,-1e-05,2.9999999999999997e-05,0.00011999999999999999,5.9999999999999995e-05,8e-05,-2e-05,3
10142,10640,-0.00023999999999999998,4e-05,4e-05,2e-05,-1e-05,0.0,5e-05,-7e-05,3
10143,10641,-0.00013000000000000002,-2.9999999999999997e-05,-2.9999999999999997e-05,-2.9999999999999997e-05,-2e-05,-2.9999999999999997e-05,-5e-05,-5e-05,3
10144,10642,-0.00013000000000000002,-2.9999999999999997e-05,-2.9999999999999997e-05,-2.9999999999999997e-05,-2e-05,-2.9999999999999997e-05,-5e-05,-5e-05,3
10145,10643,-0.00013000000000000002,-2.9999999999999997e-05,-2.9999999999999997e-05,-2.9999999999999997e-05,-2e-05,-2.9999999999999997e-05,-5e-05,-5e-05,3
10146,10644,-0.00013000000000000002,-2.9999999999999997e-05,-2.9999999999999997e-05,-2.9999999999999997e-05,-2e-05,-2.9999999999999997e-05,-5e-05,-5e-05,3
10147,10645,-0.00013000000000000002,-2.9999999999999997e-05,-2.9999999999999997e-05,-2.9999999999999997e-05,-2e-05,-2.9999999999999997e-05,-5e-05,-5e-05,3
10148,10646,-0.00013000000000000002,-2.9999999999999997e-05,-2.9999999999999997e-05,-2.9999999999999997e-05,-2e-05,-2.9999999999999997e-05,-5e-05,-5e-05,3
10149,10647,-0.00013000000000000002,-2.9999999999999997e-05,-2.9999999999999997e-05,-2.9999999999999997e-05,-2e-05,-2.9999999999999997e-05,-5e-05,-5e-05,3
10150,10648,-0.00013000000000000002,-2.9999999999999997e-05,-2.9999999999999997e-05,-2.9999999999999997e-05,-2e-05,-2.9999999999999997e-05,-5e-05,-5e-05,3
10151,10649,-0.00013000000000000002,-2.9999999999999997e-05,-2.9999999999999997e-05,-2.9999999999999997e-05,-2e-05,-2.9999999999999997e-05,-5e-05,-5e-05,3
10152,10650,-0.00013000000000000002,-2.9999999999999997e-05,-2.9999999999999997e-05,-2.9999999999999997e-05,-2e-05,-2.9999999999999997e-05,-5e-05,-5e-05,3
10153,10651,-0.00013000000000000002,-2.9999999999999997e-05,-2.9999999999999997e-05,-2.9999999999999997e-05,-2e-05,-2.9999999999999997e-05,-5e-05,-5e-05,3
10154,10652,-0.00013000000000000002,-2.9999999999999997e-05,-2.9999999999999997e-05,-2.9999999999999997e-05,-2e-05,-2.9999999999999997e-05,-5e-05,-5e-05,3
10155,10653,-0.00013000000000000002,-2.9999999999999997e-05,-2.9999999999999997e-05,-2.9999999999999997e-05,-2e-05,-2.9999999999999997e-05,-5e-05,-5e-05,3
10156,10654,-0.00013000000000000002,-2.9999999999999997e-05,-2.9999999999999997e-05,-2.9999999999999997e-05,-2e-05,-2.9999999999999997e-05,-5e-05,-5e-05,3
10157,10655,-0.00013000000000000002,-2.9999999999999997e-05,-2.9999999999999997e-05,-2.9999999999999997e-05,-2e-05,-2.9999999999999997e-05,-5e-05,-5e-05,3
10158,10656,-0.00013000000000000002,-2.9999999999999997e-05,-2.9999999999999997e-05,-2.9999999999999997e-05,-2e-05,-2.9999999999999997e-05,-5e-05,-5e-05,3
10159,10657,-0.00013000000000000002,-2.9999999999999997e-05,-2.9999999999999997e-05,-2.9999999999999997e-05,-2e-05,-2.9999999999999997e-05,-5e-05,-5e-05,3
10160,10658,-0.00013000000000000002,-2.9999999999999997e-05,-2.9999999999999997e-05,-2.9999999999999997e-05,-2e-05,-2.9999999999999997e-05,-5e-05,-5e-05,3
10161,10659,-0.00013000000000000002,-2.9999999999999997e-05,-2.9999999999999997e-05,-2.9999999999999997e-05,-2e-05,-2.9999999999999997e-05,-5e-05,-5e-05,3
