,time,channel1,channel2,channel3,channel4,channel5,channel6,channel7,channel8,class
9876,10351,-0.00013000000000000002,-1e-05,-2e-05,-2.9999999999999997e-05,-4e-05,-0.00033999999999999997,-0.00014,-0.00011999999999999999,3
9877,10353,-0.00013000000000000002,-1e-05,-2e-05,-2.9999999999999997e-05,-4e-05,-0.00033999999999999997,-0.00014,-0.00011999999999999999,3
9878,10354,-0.00013000000000000002,-1e-05,-2e-05,-2.9999999999999997e-05,-4e-05,-0.00033999999999999997,-0.00014,-0.00011999999999999999,3
9879,10355,-0.00013000000000000002,-1e-05,-2e-05,-2.9999999999999997e-05,-4e-05,-0.00033999999999999997,-0.00014,-0.00011999999999999999,3
9880,10356,-0.00013000000000000002,-1e-05,-2e-05,-2.9999999999999997e-05,-4e-05,-0.00033999999999999997,-0.00014,-0.00011999999999999999,3
9881,10357,-0.00013000000000000002,-1e-05,-2e-05,-2.9999999999999997e-05,-4e-05,-0.00033999999999999997,-0.00014,-0.00011999999999999999,3
9882,10358,-0.00013000000000000002,-1e-05,-2e-05,-2.9999999999999997e-05,-4e-05,-0.00033999999999999997,-0.00014,-0.00011999999999999999,3
9883,10359,-0.00013000000000000002,-1e-05,-2e-05,-2.9999999999999997e-05,-4e-05,-0.00033999999999999997,-0.00014,-0.00011999999999999999,3
9884,10360,-0.00013000000000000002,-1e-05,-2e-05,-2.9999999999999997e-05,-4e-05,-0.00033999999999999997,-0.00014,-0.00011999999999999999,3
9885,10361,-0.00013000000000000002,-1e-05,-2e-05,-2.9999999999999997e-05,-4e-05,-0.00033999999999999997,-0.00014,-0.00011999999999999999,3
9886,10362,-0.00013000000000000002,-1e-05,-2e-05,-2.9999999999999997e-05,-4e-05,-0.00033999999999999997,-0.00014,-0.00011999999999999999,3
9887,10363,-0.00013000000000000002,-1e-05,-2e-05,-2.9999999999999997e-05,-4e-05,-0.00033999999999999997,-0.00014,-0.00011999999999999999,3
9888,10364,-1e-05,7e-05,5.9999999999999995e-05,0.00011,0.00014,0.00025,2e-05,-4e-05,3
9889,10365,-2.9999999999999997e-05,1e-05,-2e-05,-0.00011,-0.00015,-0.0003,-4e-05,-8e-05,3
9890,10366,-2.9999999999999997e-05,1e-05,-2e-05,-0.00011,-0.00015,-0.0003,-4e-05,-8e-05,3
9891,10367,-2.9999999999999997e-05,1e-05,-2e-05,-0.00011,-0.00015,-0.0003,-4e-05,-8e-05,3
9892,10368,-2.9999999999999997e-05,1e-05,-2e-05,-0.00011,-0.00015,-0.0003,-4e-05,-8e-05,3
9893,10369,-2.9999999999999997e-05,1e-05,-2e-05,-0.00011,-0.00015,-0.0003,-4e-05,-8e-05,3
9894,10370,-2.9999999999999997e-05,1e-05,-2e-05,-0.00011,-0.00015,-0.0003,-4e-05,-8e-05,3
9895,10371,-2.9999999999999997e-05,1e-05,-2e-05,-0.00011,-0.00015,-0.0003,-4e-05,-8e-05,3
9896,10372,-2.9999999999999997e-05,1e-05,-2e-05,-0.00011,-0.00015,-0.0003,-4e-05,-8e-05,3
9897,10373,-2.9999999999999997e-05,1e-05,-2e-05,-0.00011,-0.00015,-0.0003,-4e-05,-8e-05,3
9898,10374,-2.9999999999999997e-05,1e-05,-2e-05,-0.00011,-0.00015,-0.0003,-4e-05,-8e-05,3
9899,10375,-2.9999999999999997e-05,1e-05,-2e-05,-0.00011,-0.00015,-0.0003,-4e-05,-8e-05,3
9900,10376,-2.9999999999999997e-05,1e-05,-2e-05,-0.00011,-0.00015,-0.0003,-4e-05,-8e-05,3
9901,10377,-2.9999999999999997e-05,1e-05,-2e-05,-0.00011,-0.00015,-0.0003,-4e-05,-8e-05,3
9902,10378,2.9999999999999997e-05,-4e-05,7e-05,0.00015,0.00013000000000000002,0.00011999999999999999,0.00014,5e-05,3
9903,10379,2.9999999999999997e-05,-4e-05,7e-05,0.00015,0.00013000000000000002,0.00011999999999999999,0.00014,5e-05,3
9904,10380,2.9999999999999997e-05,-4e-05,7e-05,0.00015,0.00013000000000000002,0.00011999999999999999,0.00014,5e-05,3
9905,10381,2.9999999999999997e-05,-4e-05,7e-05,0.00015,0.00013000000000000002,0.00011999999999999999,0.00014,5e-05,3
9906,10382,2.9999999999999997e-05,-4e-05,7e-05,0.00015,0.00013000000000000002,0.00011999999999999999,0.00014,5e-05,3
9907,10383,2.9999999999999997e-05,-4e-05,7e-05,0.00015,0.00013000000000000002,0.00011999999999999999,0.00014,5e-05,3
9908,10384,2.9999999999999997e-05,-4e-05,7e-05,0.00015,0.00013000000000000002,0.00011999999999999999,0.00014,5e-05,3
9909,10385,2.9999999999999997e-05,-4e-05,7e-05,0.00015,0.00013000000000000002,0.00011999999999999999,0.00014,5e-05,3
9910,10386,2e-05,-0.00023999999999999998,-2e-05,-0.0001,-0.0003,1e-05,-2e-05,-2.9999999999999997e-05,3
9911,10388,2e-05,-0.00023999999999999998,-2e-05,-0.0001,-0.0003,1e-05,-2e-05,-2.9999999999999997e-05,3
9912,10389,2e-05,-0.00023999999999999998,-2e-05,-0.0001,-0.0003,1e-05,-2e-05,-2.9999999999999997e-05,3
9913,10390,2e-05,-0.00023999999999999998,-2e-05,-0.0001,-0.0003,1e-05,-2e-05,-2.9999999999999997e-05,3
9914,10391,2e-05,-0.00023999999999999998,-2e-05,-0.0001,-0.0003,1e-05,-2e-05,-2.9999999999999997e-05,3
9915,10392,2e-05,-0.00023999999999999998,-2e-05,-0.0001,-0.0003,1e-05,-2e-05,-2.9999999999999997e-05,3
9916,10393,2e-05,-0.00023999999999999998,-2e-05,-0.0001,-0.0003,1e-05,-2e-05,-2.9999999999999997e-05,3
9917,10394,2e-05,-0.00023999999999999998,-2e-05,-0.0001,-0.0003,1e-05,-2e-05,-2.9999999999999997e-05,3
9918,10395,2e-05,-0.00023999999999999998,-2e-05,-0.0001,-0.0003,1e-05,-2e-05,-2.9999999999999997e-05,3
9919,10396,2e-05,-0.00023999999999999998,-2e-05,-0.0001,-0.0003,1e-05,-2e-05,-2.9999999999999997e-05,3
9920,10397,2e-05,-0.00023999999999999998,-2e-05,-0.0001,-0.0003,1e-05,-2e-05,-2.9999999999999997e-05,3
9921,10398,2e-05,-0.00023999999999999998,-2e-05,-0.0001,-0.0003,1e-05,-2e-05,-2.9999999999999997e-05,3
9922,10399,2e-05,-0.00023999999999999998,-2e-05,-0.0001,-0.0003,1e-05,-2e-05,-2.9999999999999997e-05,3
9923,10400,2e-05,-0.00023999999999999998,-2e-05,-0.0001,-0.0003,1e-05,-2e-05,-2.9999999999999997e-05,3
9924,10401,0.00026000000000000003,-7e-05,2e-05,5e-05,-5.9999999999999995e-05,0.0002,2e-05,5e-05,3
9925,10402,-0.00021,5e-05,1e-05,-5e-05,-5e-05,-0.00013000000000000002,-2.9999999999999997e-05,-5.9999999999999995e-05,3
9926,10403,-0.00021,5e-05,1e-05,-5e-05,-5e-05,-0.00013000000000000002,-2.9999999999999997e-05,-5.9999999999999995e-05,3
9927,10404,-0.00021,5e-05,1e-05,-5e-05,-5e-05,-0.00013000000000000002,-2.9999999999999997e-05,-5.9999999999999995e-05,3
9928,10405,-0.00021,5e-05,1e-05,-5e-05,-5e-05,-0.00013000000000000002,-2.9999999999999997e-05,-5.9999999999999995e-05,3
9929,10406,-0.00021,5e-05,1e-05,-5e-05,-5e-05,-0.00013000000000000002,-2.9999999999999997e-05,-5.9999999999999995e-05,3
9930,10407,-0.00021,5e-05,1e-05,-5e-05,-5e-05,-0.00013000000000000002,-2.9999999999999997e-05,-5.9999999999999995e-05,3
9931,10408,-0.00021,5e-05,1e-05,-5e-05,-5e-05,-0.00013000000000000002,-2.9999999999999997e-05,-5.9999999999999995e-05,3
9932,10409,-0.00021,5e-05,1e-05,-5e-05,-5e-05,-0.00013000000000000002,-2.9999999999999997e-05,-5.9999999999999995e-05,3
9933,10410,-0.00021,5e-05,1e-05,-5e-05,-5e-05,-0.00013000000000000002,-2.9999999999999997e-05,-5.9999999999999995e-05,3
9934,10411,-0.00021,5e-05,1e-05,-5e-05,-5e-05,-0.00013000000000000002,-2.9999999999999997e-05,-5.9999999999999995e-05,3
9935,10412,-0.00021,5e-05,1e-05,-5e-05,-5e-05,-0.00013000000000000002,-2.9999999999999997e-05,-5.9999999999999995e-05,3
9936,10413,-0.00021,5e-05,1e-05,-5e-05,-5e-05,-0.00013000000000000002,-2.9999999999999997e-05,-5.9999999999999995e-05,3
9937,10414,-0.00021,5e-05,1e-05,-5e-05,-5e-05,-0.00013000000000000002,-2.9999999999999997e-05,-5.9999999999999995e-05,3
9938,10415,-0.00021,5e-05,1e-05,-5e-05,-5e-05,-0.00013000000000000002,-2.9999999999999997e-05,-5.9999999999999995e-05,3
9939,10416,-0.00021,5e-05,1e-05,-5e-05,-5e-05,-0.00013000000000000002,-2.9999999999999997e-05,-5.9999999999999995e-05,3
9940,10417,-0.00021,5e-05,1e-05,-5e-05,-5e-05,-0.00013000000000000002,-2.9999999999999997e-05,-5.9999999999999995e-05,3
9941,10418,-0.00021,5e-05,1e-05,-5e-05,-5e-05,-0.00013000000000000002,-2.9999999999999997e-05,-5.9999999999999995e-05,3
9942,10419,-0.00021,5e-05,1e-05,-5e-05,-5e-05,-0.00013000000000000002,-2.9999999999999997e-05,-5.9999999999999995e-05,3
9943,10420,-0.00021,5e-05,1e-05,-5e-05,-5e-05,-0.00013000000000000002,-2.9999999999999997e-05,-5.9999999999999995e-05,3
9944,10421,-0.00021,5e-05,1e-05,-5e-05,-5e-05,-0.00013000000000000002,-2.9999999999999997e-05,-5.9999999999999995e-05,3
9945,10422,-0.00021,5e-05,1e-05,-5e-05,-5e-05,-0.00013000000000000002,-2.9999999999999997e-05,-5.9999999999999995e-05,3
9946,10423,-0.00021,5e-05,1e-05,-5e-05,-5e-05,-0.00013000000000000002,-2.9999999999999997e-05,-5.9999999999999995e-05,3
9947,10424,7e-05,-0.00018,-5.9999999999999995e-05,-1e-05,-0.00011999999999999999,1e-05,-5.9999999999999995e-05,8e-05,3
9948,10425,2e-05,-4e-05,0.0,-4e-05,2e-05,8e-05,-0.00011999999999999999,-7e-05,3
9949,10426,2e-05,-4e-05,0.0,-4e-05,2e-05,8e-05,-0.00011999999999999999,-7e-05,3
9950,10427,2e-05,-4e-05,0.0,-4e-05,2e-05,8e-05,-0.00011999999999999999,-7e-05,3
9951,10428,2e-05,-4e-05,0.0,-4e-05,2e-05,8e-05,-0.00011999999999999999,-7e-05,3
9952,10429,2e-05,-4e-05,0.0,-4e-05,2e-05,8e-05,-0.00011999999999999999,-7e-05,3
9953,10430,2e-05,-4e-05,0.0,-4e-05,2e-05,8e-05,-0.00011999999999999999,-7e-05,3
9954,10431,2e-05,-4e-05,0.0,-4e-05,2e-05,8e-05,-0.00011999999999999999,-7e-05,3
9955,10432,2e-05,-4e-05,0.0,-4e-05,2e-05,8e-05,-0.00011999999999999999,-7e-05,3
9956,10433,2e-05,-4e-05,0.0,-4e-05,2e-05,8e-05,-0.00011999999999999999,-7e-05,3
9957,10434,2e-05,-4e-05,0.0,-4e-05,2e-05,8e-05,-0.00011999999999999999,-7e-05,3
9958,10435,2e-05,-4e-05,0.0,-4e-05,2e-05,8e-05,-0.00011999999999999999,-7e-05,3
9959,10436,2e-05,-4e-05,0.0,-4e-05,2e-05,8e-05,-0.00011999999999999999,-7e-05,3
9960,10438,2e-05,-4e-05,0.0,-4e-05,2e-05,8e-05,-0.00011999999999999999,-7e-05,3
9961,10439,-4e-05,-0.0001,2e-05,5.9999999999999995e-05,0.0,0.00018999999999999998,-2.9999999999999997e-05,-1e-05,3
9962,10440,0.0002,7e-05,-2.9999999999999997e-05,-8e-05,-0.00015,-0.00025,4e-05,2.9999999999999997e-05,3
9963,10441,0.0002,7e-05,-2.9999999999999997e-05,-8e-05,-0.00015,-0.00025,4e-05,2.9999999999999997e-05,3
9964,10442,0.0002,7e-05,-2.9999999999999997e-05,-8e-05,-0.00015,-0.00025,4e-05,2.9999999999999997e-05,3
9965,10443,0.0002,7e-05,-2.9999999999999997e-05,-8e-05,-0.00015,-0.00025,4e-05,2.9999999999999997e-05,3
9966,10444,0.0002,7e-05,-2.9999999999999997e-05,-8e-05,-0.00015,-0.00025,4e-05,2.9999999999999997e-05,3
9967,10445,0.0002,7e-05,-2.9999999999999997e-05,-8e-05,-0.00015,-0.00025,4e-05,2.9999999999999997e-05,3
9968,10446,0.0002,7e-05,-2.9999999999999997e-05,-8e-05,-0.00015,-0.00025,4e-05,2.9999999999999997e-05,3
9969,10447,0.0002,7e-05,-2.9999999999999997e-05,-8e-05,-0.00015,-0.00025,4e-05,2.9999999999999997e-05,3
9970,10448,0.0002,7e-05,-2.9999999999999997e-05,-8e-05,-0.00015,-0.00025,4e-05,2.9999999999999997e-05,3
9971,10449,0.0002,7e-05,-2.9999999999999997e-05,-8e-05,-0.00015,-0.00025,4e-05,2.9999999999999997e-05,3
9972,10450,0.0002,7e-05,-2.9999999999999997e-05,-8e-05,-0.00015,-0.00025,4e-05,2.9999999999999997e-05,3
9973,10451,0.0002,7e-05,-2.9999999999999997e-05,-8e-05,-0.00015,-0.00025,4e-05,2.9999999999999997e-05,3
9974,10452,0.0002,7e-05,-2.9999999999999997e-05,-8e-05,-0.00015,-0.00025,4e-05,2.9999999999999997e-05,3
9975,10453,0.0002,7e-05,-2.9999999999999997e-05,-8e-05,-0.00015,-0.00025,4e-05,2.9999999999999997e-05,3
9976,10454,0.0002,7e-05,-2.9999999999999997e-05,-8e-05,-0.00015,-0.00025,4e-05,2.9999999999999997e-05,3
9977,10455,0.0002,7e-05,-2.9999999999999997e-05,-8e-05,-0.00015,-0.00025,4e-05,2.9999999999999997e-05,3
9978,10456,0.0002,7e-05,-2.9999999999999997e-05,-8e-05,-0.00015,-0.00025,4e-05,2.9999999999999997e-05,3
9979,10457,0.0002,7e-05,-2.9999999999999997e-05,-8e-05,-0.00015,-0.00025,4e-05,2.9999999999999997e-05,3
9980,10458,0.0002,7e-05,-2.9999999999999997e-05,-8e-05,-0.00015,-0.00025,4e-05,2.9999999999999997e-05,3
9981,10459,0.0002,7e-05,-2.9999999999999997e-05,-8e-05,-0.00015,-0.00025,4e-05,2.9999999999999997e-05,3
9982,10460,0.0002,7e-05,-2.9999999999999997e-05,-8e-05,-0.00015,-0.00025,4e-05,2.9999999999999997e-05,3
9983,10461,-0.00022999999999999998,9e-05,-8e-05,-0.00027,-0.00016999999999999999,-0.0002,2e-05,-9e-05,3
9984,10462,-8e-05,8e-05,1e-05,4e-05,0.0001,-2.9999999999999997e-05,-5.9999999999999995e-05,-2e-05,3
9985,10463,-8e-05,8e-05,1e-05,4e-05,0.0001,-2.9999999999999997e-05,-5.9999999999999995e-05,-2e-05,3
9986,10464,-8e-05,8e-05,1e-05,4e-05,0.0001,-2.9999999999999997e-05,-5.9999999999999995e-05,-2e-05,3
9987,10465,-8e-05,8e-05,1e-05,4e-05,0.0001,-2.9999999999999997e-05,-5.9999999999999995e-05,-2e-05,3
9988,10466,-8e-05,8e-05,1e-05,4e-05,0.0001,-2.9999999999999997e-05,-5.9999999999999995e-05,-2e-05,3
9989,10467,-8e-05,8e-05,1e-05,4e-05,0.0001,-2.9999999999999997e-05,-5.9999999999999995e-05,-2e-05,3
9990,10468,-8e-05,8e-05,1e-05,4e-05,0.0001,-2.9999999999999997e-05,-5.9999999999999995e-05,-2e-05,3
9991,10469,-8e-05,8e-05,1e-05,4e-05,0.0001,-2.9999999999999997e-05,-5.9999999999999995e-05,-2e-05,3
9992,10470,-8e-05,8e-05,1e-05,4e-05,0.0001,-2.9999999999999997e-05,-5.9999999999999995e-05,-2e-05,3
9993,10471,-8e-05,8e-05,1e-05,4e-05,0.0001,-2.9999999999999997e-05,-5.9999999999999995e-05,-2e-05,3
9994,10472,-8e-05,8e-05,1e-05,4e-05,0.0001,-2.9999999999999997e-05,-5.9999999999999995e-05,-2e-05,3
9995,10473,-8e-05,8e-05,1e-05,4e-05,0.0001,-2.9999999999999997e-05,-5.9999999999999995e-05,-2e-05,3
9996,10474,-8e-05,8e-05,1e-05,4e-05,0.0001,-2.9999999999999997e-05,-5.9999999999999995e-05,-2e-05,3
9997,10475,-8e-05,8e-05,1e-05,4e-05,0.0001,-2.9999999999999997e-05,-5.9999999999999995e-05,-2e-05,3
9998,10476,-8e-05,8e-05,1e-05,4e-05,0.0001,-2.9999999999999997e-05,-5.9999999999999995e-05,-2e-05,3
9999,10477,-8e-05,8e-05,1e-05,4e-05,0.0001,-2.9999999999999997e-05,-5.9999999999999995e-05,-2e-05,3
10000,10478,-8e-05,8e-05,1e-05,4e-05,0.0001,-2.9999999999999997e-05,-5.9999999999999995e-05,-2e-05,3
10001,10479,-8e-05,8e-05,1e-05,4e-05,0.0001,-2.9999999999999997e-05,-5.9999999999999995e-05,-2e-05,3
10002,10480,-8e-05,8e-05,1e-05,4e-05,0.0001,-2.9999999999999997e-05,-5.9999999999999995e-05,-2e-05,3
10003,10481,-8e-05,8e-05,1e-05,4e-05,0.0001,-2.9999999999999997e-05,-5.9999999999999995e-05,-2e-05,3
10004,10482,-8e-05,8e-05,1e-05,4e-05,0.0001,-2.9999999999999997e-05,-5.9999999999999995e-05,-2e-05,3
10005,10483,-8e-05,8e-05,1e-05,4e-05,0.0001,-2.9999999999999997e-05,-5.9999999999999995e-05,-2e-05,3
10006,10484,-8e-05,8e-05,1e-05,4e-05,0.0001,-2.9999999999999997e-05,-5.9999999999999995e-05,-2e-05,3
10007,10485,-8e-05,8e-05,1e-05,4e-05,0.0001,-2.9999999999999997e-05,-5.9999999999999995e-05,-2e-05,3
10008,10486,-8e-05,8e-05,1e-05,4e-05,0.0001,-2.9999999999999997e-05,-5.9999999999999995e-05,-2e-05,3
10009,10488,-8e-05,8e-05,1e-05,4e-05,0.0001,-2.9999999999999997e-05,-5.9999999999999995e-05,-2e-05,3
10010,10489,-8e-05,8e-05,1e-05,4e-05,0.0001,-2.9999999999999997e-05,-5.9999999999999995e-05,-2e-05,3
10011,10490,-8e-05,8e-05,1e-05,4e-05,0.0001,-2.9999999999999997e-05,-5.9999999999999995e-05,-2e-05,3
10012,10491,-8e-05,8e-05,1e-05,4e-05,0.0001,-2.9999999999999997e-05,-5.9999999999999995e-05,-2e-05,3
10013,10492,-0.00016999999999999999,0.0002,-1e-05,-4e-05,0.00018999999999999998,-0.00028,-5e-05,-0.00014,3
10014,10493,0.0,0.00028,2.9999999999999997e-05,5.9999999999999995e-05,8e-05,0.00022,-1e-05,2e-05,3
10015,10494,0.0,0.00028,2.9999999999999997e-05,5.9999999999999995e-05,8e-05,0.00022,-1e-05,2e-05,3
10016,10495,0.0,0.00028,2.9999999999999997e-05,5.9999999999999995e-05,8e-05,0.00022,-1e-05,2e-05,3
10017,10496,0.0,0.00028,2.9999999999999997e-05,5.9999999999999995e-05,8e-05,0.00022,-1e-05,2e-05,3
10018,10497,0.0,0.00028,2.9999999999999997e-05,5.9999999999999995e-05,8e-05,0.00022,-1e-05,2e-05,3
10019,10498,-0.00018,5e-05,2.9999999999999997e-05,0.00016,9e-05,0.00016999999999999999,2.9999999999999997e-05,-0.00011,3
10020,10499,5e-05,1e-05,0.0,0.00036,0.00015,0.00026000000000000003,1e-05,-5e-05,3
10021,10500,5e-05,1e-05,0.0,0.00036,0.00015,0.00026000000000000003,1e-05,-5e-05,3
10022,10501,5e-05,1e-05,0.0,0.00036,0.00015,0.00026000000000000003,1e-05,-5e-05,3
10023,10502,5e-05,1e-05,0.0,0.00036,0.00015,0.00026000000000000003,1e-05,-5e-05,3
10024,10504,5e-05,1e-05,0.0,0.00036,0.00015,0.00026000000000000003,1e-05,-5e-05,3
10025,10505,5e-05,1e-05,0.0,0.00036,0.00015,0.00026000000000000003,1e-05,-5e-05,3
10026,10506,5e-05,1e-05,0.0,0.00036,0.00015,0.00026000000000000003,1e-05,-5e-05,3
10027,10507,5e-05,1e-05,0.0,0.00036,0.00015,0.00026000000000000003,1e-05,-5e-05,3
10028,10508,5e-05,1e-05,0.0,0.00036,0.00015,0.00026000000000000003,1e-05,-5e-05,3
10029,10509,5e-05,1e-05,0.0,0.00036,0.00015,0.00026000000000000003,1e-05,-5e-05,3
10030,10510,5e-05,1e-05,0.0,0.00036,0.00015,0.00026000000000000003,1e-05,-5e-05,3
10031,10511,5e-05,1e-05,0.0,0.00036,0.00015,0.00026000000000000003,1e-05,-5e-05,3
10032,10512,5e-05,1e-05,0.0,0.00036,0.00015,0.00026000000000000003,1e-05,-5e-05,3
10033,10513,5e-05,1e-05,0.0,0.00036,0.00015,0.00026000000000000003,1e-05,-5e-05,3
10034,10514,5e-05,1e-05,0.0,0.00036,0.00015,0.00026000000000000003,1e-05,-5e-05,3
10035,10515,5e-05,1e-05,0.0,0.00036,0.00015,0.00026000000000000003,1e-05,-5e-05,3
10036,10516,5e-05,1e-05,0.0,0.00036,0.00015,0.00026000000000000003,1e-05,-5e-05,3
10037,10517,5e-05,1e-05,0.0,0.00036,0.00015,0.00026000000000000003,1e-05,-5e-05,3
10038,10518,5e-05,1e-05,0.0,0.00036,0.00015,0.00026000000000000003,1e-05,-5e-05,3
10039,10519,5e-05,1e-05,0.0,0.00036,0.00015,0.00026000000000000003,1e-05,-5e-05,3
10040,10520,5e-05,1e-05,0.0,0.00036,0.00015,0.00026000000000000003,1e-05,-5e-05,3
10041,10521,-2.9999999999999997e-05,-5.9999999999999995e-05,-5e-05,-0.00013000000000000002,-0.0002,5.9999999999999995e-05,-5e-05,2.9999999999999997e-05,3
10042,10522,0.00016,-0.00016999999999999999,-7e-05,-0.00022,-0.00015,0.00021,-1e-05,2.9999999999999997e-05,3
10043,10523,0.00016,-0.00016999999999999999,-7e-05,-0.00022,-0.00015,0.00021,-1e-05,2.9999999999999997e-05,3
10044,10524,0.00016,-0.00016999999999999999,-7e-05,-0.00022,-0.00015,0.00021,-1e-05,2.9999999999999997e-05,3
10045,10525,0.00016,-0.00016999999999999999,-7e-05,-0.00022,-0.00015,0.00021,-1e-05,2.9999999999999997e-05,3
10046,10526,0.00016,-0.00016999999999999999,-7e-05,-0.00022,-0.00015,0.00021,-1e-05,2.9999999999999997e-05,3
10047,10527,0.00016,-0.00016999999999999999,-7e-05,-0.00022,-0.00015,0.00021,-1e-05,2.9999999999999997e-05,3
10048,10528,0.00016,-0.00016999999999999999,-7e-05,-0.00022,-0.00015,0.00021,-1e-05,2.9999999999999997e-05,3
10049,10529,0.00016,-0.00016999999999999999,-7e-05,-0.00022,-0.00015,0.00021,-1e-05,2.9999999999999997e-05,3
10050,10530,0.00016,-0.00016999999999999999,-7e-05,-0.00022,-0.00015,0.00021,-1e-05,2.9999999999999997e-05,3
10051,10531,0.00016,-0.00016999999999999999,-7e-05,-0.00022,-0.00015,0.00021,-1e-05,2.9999999999999997e-05,3
10052,10532,0.00016,-0.00016999999999999999,-7e-05,-0.00022,-0.00015,0.00021,-1e-05,2.9999999999999997e-05,3
10053,10533,0.00016,-0.00016999999999999999,-7e-05,-0.00022,-0.00015,0.00021,-1e-05,2.9999999999999997e-05,3
10054,10534,0.00016,-0.00016999999999999999,-7e-05,-0.00022,-0.00015,0.00021,-1e-05,2.9999999999999997e-05,3
10055,10535,0.00016,-0.00016999999999999999,-7e-05,-0.00022,-0.00015,0.00021,-1e-05,2.9999999999999997e-05,3
10056,10536,0.00016,-0.00016999999999999999,-7e-05,-0.00022,-0.00015,0.00021,-1e-05,2.9999999999999997e-05,3
10057,10538,0.00016,-0.00016999999999999999,-7e-05,-0.00022,-0.00015,0.00021,-1e-05,2.9999999999999997e-05,3
10058,10539,0.00016,-0.00016999999999999999,-7e-05,-0.00022,-0.00015,0.00021,-1e-05,2.9999999999999997e-05,3
10059,10540,0.00016,-0.00016999999999999999,-7e-05,-0.00022,-0.00015,0.00021,-1e-05,2.9999999999999997e-05,3
10060,10541,0.00016,-0.00016999999999999999,-7e-05,-0.00022,-0.00015,0.00021,-1e-05,2.9999999999999997e-05,3
10061,10542,0.00016,-0.00016999999999999999,-7e-05,-0.00022,-0.00015,0.00021,-1e-05,2.9999999999999997e-05,3
10062,10543,0.00016,-0.00016999999999999999,-7e-05,-0.00022,-0.00015,0.00021,-1e-05,2.9999999999999997e-05,3
10063,10544,-0.0001,-0.00014,-5e-05,-4e-05,-5e-05,-8e-05,-2.9999999999999997e-05,9e-05,3
10064,10545,-0.00031,-0.00027,4e-05,1e-05,0.0,8e-05,-7e-05,-2.9999999999999997e-05,3
10065,10546,-0.00031,-0.00027,4e-05,1e-05,0.0,8e-05,-7e-05,-2.9999999999999997e-05,3
10066,10547,-0.00031,-0.00027,4e-05,1e-05,0.0,8e-05,-7e-05,-2.9999999999999997e-05,3
10067,10548,-0.00031,-0.00027,4e-05,1e-05,0.0,8e-05,-7e-05,-2.9999999999999997e-05,3
10068,10549,-0.00031,-0.00027,4e-05,1e-05,0.0,8e-05,-7e-05,-2.9999999999999997e-05,3
10069,10550,-0.00031,-0.00027,4e-05,1e-05,0.0,8e-05,-7e-05,-2.9999999999999997e-05,3
10070,10551,-0.00031,-0.00027,4e-05,1e-05,0.0,8e-05,-7e-05,-2.9999999999999997e-05,3
10071,10552,-0.00031,-0.00027,4e-05,1e-05,0.0,8e-05,-7e-05,-2.9999999999999997e-05,3
10072,10553,-0.00031,-0.00027,4e-05,1e-05,0.0,8e-05,-7e-05,-2.9999999999999997e-05,3
10073,10555,-0.00031,-0.00027,4e-05,1e-05,0.0,8e-05,-7e-05,-2.9999999999999997e-05,3
10074,10556,-0.00031,-0.00027,4e-05,1e-05,0.0,8e-05,-7e-05,-2.9999999999999997e-05,3
10075,10557,-0.00031,-0.00027,4e-05,1e-05,0.0,8e-05,-7e-05,-2.9999999999999997e-05,3
10076,10558,-0.00045,0.00014,5e-05,-7e-05,7e-05,8e-05,0.00011,7e-05,3
10077,10559,-9e-05,4e-05,0.0,-2e-05,-8e-05,-8e-05,-4e-05,4e-05,3
10078,10560,-9e-05,4e-05,0.0,-2e-05,-8e-05,-8e-05,-4e-05,4e-05,3
10079,10561,-9e-05,4e-05,0.0,-2e-05,-8e-05,-8e-05,-4e-05,4e-05,3
10080,10562,-9e-05,4e-05,0.0,-2e-05,-8e-05,-8e-05,-4e-05,4e-05,3
10081,10563,-9e-05,4e-05,0.0,-2e-05,-8e-05,-8e-05,-4e-05,4e-05,3
10082,10564,-9e-05,4e-05,0.0,-2e-05,-8e-05,-8e-05,-4e-05,4e-05,3
10083,10565,-9e-05,4e-05,0.0,-2e-05,-8e-05,-8e-05,-4e-05,4e-05,3
10084,10566,-9e-05,4e-05,0.0,-2e-05,-8e-05,-8e-05,-4e-05,4e-05,3
10085,10567,-9e-05,4e-05,0.0,-2e-05,-8e-05,-8e-05,-4e-05,4e-05,3
10086,10568,-9e-05,4e-05,0.0,-2e-05,-8e-05,-8e-05,-4e-05,4e-05,3
10087,10569,-9e-05,4e-05,0.0,-2e-05,-8e-05,-8e-05,-4e-05,4e-05,3
10088,10570,-9e-05,4e-05,0.0,-2e-05,-8e-05,-8e-05,-4e-05,4e-05,3
10089,10571,-9e-05,4e-05,0.0,-2e-05,-8e-05,-8e-05,-4e-05,4e-05,3
10090,10572,-9e-05,4e-05,0.0,-2e-05,-8e-05,-8e-05,-4e-05,4e-05,3
10091,10573,-9e-05,4e-05,0.0,-2e-05,-8e-05,-8e-05,-4e-05,4e-05,3
10092,10574,-9e-05,4e-05,0.0,-2e-05,-8e-05,-8e-05,-4e-05,4e-05,3
10093,10575,-9e-05,4e-05,0.0,-2e-05,-8e-05,-8e-05,-4e-05,4e-05,3
10094,10576,-9e-05,4e-05,0.0,-2e-05,-8e-05,-8e-05,-4e-05,4e-05,3
10095,10577,-9e-05,4e-05,0.0,-2e-05,-8e-05,-8e-05,-4e-05,4e-05,3
10096,10578,-9e-05,4e-05,0.0,-2e-05,-8e-05,-8e-05,-4e-05,4e-05,3
10097,10579,-9e-05,4e-05,0.0,-2e-05,-8e-05,-8e-05,-4e-05,4e-05,3
10098,10580,-9e-05,4e-05,0.0,-2e-05,-8e-05,-8e-05,-4e-05,4e-05,3
10099,10581,0.00021,5e-05,-8e-05,-5e-05,-0.00016,-4e-05,-0.00014,1e-05,3
10100,10582,0.00039,0.00023999999999999998,4e-05,2e-05,-5e-05,0.00037,0.00013000000000000002,7e-05,3
10101,10583,0.00039,0.00023999999999999998,4e-05,2e-05,-5e-05,0.00037,0.00013000000000000002,7e-05,3
10102,10584,0.00039,0.00023999999999999998,4e-05,2e-05,-5e-05,0.00037,0.00013000000000000002,7e-05,3
10103,10585,0.00039,0.00023999999999999998,4e-05,2e-05,-5e-05,0.00037,0.00013000000000000002,7e-05,3
10104,10586,0.00039,0.00023999999999999998,4e-05,2e-05,-5e-05,0.00037,0.00013000000000000002,7e-05,3
10105,10588,0.00039,0.00023999999999999998,4e-05,2e-05,-5e-05,0.00037,0.00013000000000000002,7e-05,3
10106,10589,0.00039,0.00023999999999999998,4e-05,2e-05,-5e-05,0.00037,0.00013000000000000002,7e-05,3
10107,10590,0.00039,0.00023999999999999998,4e-05,2e-05,-5e-05,0.00037,0.00013000000000000002,7e-05,3
10108,10591,0.00039,0.00023999999999999998,4e-05,2e-05,-5e-05,0.00037,0.00013000000000000002,7e-05,3
10109,10592,0.00039,0.00023999999999999998,4e-05,2e-05,-5e-05,0.00037,0.00013000000000000002,7e-05,3
10110,10593,0.00039,0.00023999999999999998,4e-05,2e-05,-5e-05,0.00037,0.00013000000000000002,7e-05,3
10111,10594,0.00039,0.00023999999999999998,4e-05,2e-05,-5e-05,0.00037,0.00013000000000000002,7e-05,3
10112,10595,0.00039,0.00023999999999999998,4e-05,2e-05,-5e-05,0.00037,0.00013000000000000002,7e-05,3
10113,10596,0.00039,0.00023999999999999998,4e-05,2e-05,-5e-05,0.00037,0.00013000000000000002,7e-05,3
10114,10597,0.00039,0.00023999999999999998,4e-05,2e-05,-5e-05,0.00037,0.00013000000000000002,7e-05,3
10115,10598,0.00039,0.00023999999999999998,4e-05,2e-05,-5e-05,0.00037,0.00013000000000000002,7e-05,3
10116,10599,0.00039,0.00023999999999999998,4e-05,2e-05,-5e-05,0.00037,0.00013000000000000002,7e-05,3
10117,10600,0.00039,0.00023999999999999998,4e-05,2e-05,-5e-05,0.00037,0.00013000000000000002,7e-05,3
10118,10601,0.00039,0.00023999999999999998,4e-05,2e-05,-5e-05,0.00037,0.00013000000000000002,7e-05,3
10119,10602,0.00039,0.00023999999999999998,4e-05,2e-05,-5e-05,0.00037,0.00013000000000000002,7e-05,3
10120,10603,0.00039,0.00023999999999999998,4e-05,2e-05,-5e-05,0.00037,0.00013000000000000002,7e-05,3
10121,10604,0.00039,0.00023999999999999998,4e-05,2e-05,-5e-05,0.00037,0.00013000000000000002,7e-05,3
10122,10605,0.00039,0.00023999999999999998,4e-05,2e-05,-5e-05,0.00037,0.00013000000000000002,7e-05,3
10123,10606,0.00039,0.00023999999999999998,4e-05,2e-05,-5e-05,0.00037,0.00013000000000000002,7e-05,3
10124,10607,0.00039,0.00023999999999999998,4e-05,2e-05,-5e-05,0.00037,0.00013000000000000002,7e-05,3
10125,10608,0.00039,0.00023999999999999998,4e-05,2e-05,-5e-05,0.00037,0.00013000000000000002,7e-05,3
10126,10609,0.00039,0.00023999999999999998,4e-05,2e-05,-5e-05,0.00037,0.00013000000000000002,7e-05,3
10127,10610,0.00039,0.00023999999999999998,4e-05,2e-05,-5e-05,0.00037,0.00013000000000000002,7e-05,3
10128,10611,-0.00032,-0.0001,-1e-05,-5e-05,-0.00011999999999999999,0.00011,-5.9999999999999995e-05,5e-05,3
10129,10612,0.00022,-2.9999999999999997e-05,1e-05,2.9999999999999997e-05,-2.9999999999999997e-05,1e-05,-0.0001,-1e-05,3
10130,10613,7e-05,8e-05,-1e-05,4e-05,0.00015,5e-05,2.9999999999999997e-05,0.0,3
10131,10614,7e-05,8e-05,-1e-05,4e-05,0.00015,5e-05,2.9999999999999997e-05,0.0,3
10132,10615,7e-05,8e-05,-1e-05,4e-05,0.00015,5e-05,2.9999999999999997e-05,0.0,3
10133,10616,7e-05,8e-05,-1e-05,4e-05,0.00015,5e-05,2.9999999999999997e-05,0.0,3
10134,10617,7e-05,8e-05,-1e-05,4e-05,0.00015,5e-05,2.9999999999999997e-05,0.0,3
10135,10618,-0.00036,-0.00032,2e-05,4e-05,5.9999999999999995e-05,-0.00015,-1e-05,2.9999999999999997e-05,3
10136,10619,-0.00036,-0.00032,2e-05,4e-05,5.9999999999999995e-05,-0.00015,-1e-05,2.9999999999999997e-05,3
10137,10620,-0.00036,-0.00032,2e-05,4e-05,5.9999999999999995e-05,-0.00015,-1e-05,2.9999999999999997e-05,3
10138,10621,-0.00036,-0.00032,2e-05,4e-05,5.9999999999999995e-05,-0.00015,-1e-05,2.9999999999999997e-05,3
10139,10622,-0.00036,-0.00032,2e-05,4e-05,5.9999999999999995e-05,-0.00015,-1e-05,2.9999999999999997e-05,3
10140,10623,-0.00036,-0.00032,2e-05,4e-05,5.9999999999999995e-05,-0.00015,-1e-05,2.9999999999999997e-05,3
10141,10624,-0.00036,-0.00032,2e-05,4e-05,5.9999999999999995e-05,-0.00015,-1e-05,2.9999999999999997e-05,3
10142,10625,-0.00036,-0.00032,2e-05,4e-05,5.9999999999999995e-05,-0.00015,-1e-05,2.9999999999999997e-05,3
10143,10626,-0.0001,-4e-05,-2.9999999999999997e-05,5.9999999999999995e-05,0.00027,0.00028,5e-05,-2e-05,3
10144,10627,-0.0001,-4e-05,-2.9999999999999997e-05,5.9999999999999995e-05,0.00027,0.00028,5e-05,-2e-05,3
10145,10628,-0.0001,-4e-05,-2.9999999999999997e-05,5.9999999999999995e-05,0.00027,0.00028,5e-05,-2e-05,3
10146,10629,-0.0001,-4e-05,-2.9999999999999997e-05,5.9999999999999995e-05,0.00027,0.00028,5e-05,-2e-05,3
10147,10630,-0.0001,-4e-05,-2.9999999999999997e-05,5.9999999999999995e-05,0.00027,0.00028,5e-05,-2e-05,3
10148,10631,-0.0001,-4e-05,-2.9999999999999997e-05,5.9999999999999995e-05,0.00027,0.00028,5e-05,-2e-05,3
10149,10632,-0.0001,-4e-05,-2.9999999999999997e-05,5.9999999999999995e-05,0.00027,0.00028,5e-05,-2e-05,3
10150,10633,-0.0001,-4e-05,-2.9999999999999997e-05,5.9999999999999995e-05,0.00027,0.00028,5e-05,-2e-05,3
10151,10634,-0.0001,-4e-05,-2.9999999999999997e-05,5.9999999999999995e-05,0.00027,0.00028,5e-05,-2e-05,3
10152,10635,-0.0001,-4e-05,-2.9999999999999997e-05,5.9999999999999995e-05,0.00027,0.00028,5e-05,-2e-05,3
10153,10636,-0.0001,-4e-05,-2.9999999999999997e-05,5.9999999999999995e-05,0.00027,0.00028,5e-05,-2e-05,3
10154,10638,-0.0001,-4e-05,-2.9999999999999997e-05,5.9999999999999995e-05,0.00027,0.00028,5e-05,-2e-05,3
10155,10639,-0.0001,-4e-05,-2.9999999999999997e-05,5.9999999999999995e-05,0.00027,0.00028,5e-05,-2e-05,3
10156,10640,-0.0001,-4e-05,-2.9999999999999997e-05,5.9999999999999995e-05,0.00027,0.00028,5e-05,-2e-05,3
10157,10641,-0.00037999999999999997,0.0,0.0,-9e-05,-8e-05,-0.00011,-2e-05,-0.00014,3
10158,10642,-0.00037999999999999997,0.0,0.0,-9e-05,-8e-05,-0.00011,-2e-05,-0.00014,3
10159,10643,-0.00037999999999999997,0.0,0.0,-9e-05,-8e-05,-0.00011,-2e-05,-0.00014,3
10160,10644,-0.00037999999999999997,0.0,0.0,-9e-05,-8e-05,-0.00011,-2e-05,-0.00014,3
10161,10645,-0.00037999999999999997,0.0,0.0,-9e-05,-8e-05,-0.00011,-2e-05,-0.00014,3
10162,10646,-0.00037999999999999997,0.0,0.0,-9e-05,-8e-05,-0.00011,-2e-05,-0.00014,3
10163,10647,-0.00037999999999999997,0.0,0.0,-9e-05,-8e-05,-0.00011,-2e-05,-0.00014,3
10164,10648,2.9999999999999997e-05,0.0,-2e-05,-5e-05,-7e-05,-7e-05,4e-05,1e-05,3
10165,10649,2.9999999999999997e-05,0.0,-2e-05,-5e-05,-7e-05,-7e-05,4e-05,1e-05,3
10166,10650,2.9999999999999997e-05,0.0,-2e-05,-5e-05,-7e-05,-7e-05,4e-05,1e-05,3
10167,10651,2.9999999999999997e-05,0.0,-2e-05,-5e-05,-7e-05,-7e-05,4e-05,1e-05,3
10168,10652,2.9999999999999997e-05,0.0,-2e-05,-5e-05,-7e-05,-7e-05,4e-05,1e-05,3
10169,10653,2.9999999999999997e-05,0.0,-2e-05,-5e-05,-7e-05,-7e-05,4e-05,1e-05,3
10170,10654,2.9999999999999997e-05,0.0,-2e-05,-5e-05,-7e-05,-7e-05,4e-05,1e-05,3
10171,10655,2.9999999999999997e-05,0.0,-2e-05,-5e-05,-7e-05,-7e-05,4e-05,1e-05,3
10172,10656,2.9999999999999997e-05,0.0,-2e-05,-5e-05,-7e-05,-7e-05,4e-05,1e-05,3
10173,10657,2.9999999999999997e-05,0.0,-2e-05,-5e-05,-7e-05,-7e-05,4e-05,1e-05,3
10174,10658,2.9999999999999997e-05,0.0,-2e-05,-5e-05,-7e-05,-7e-05,4e-05,1e-05,3
10175,10659,2.9999999999999997e-05,0.0,-2e-05,-5e-05,-7e-05,-7e-05,4e-05,1e-05,3
10176,10660,2.9999999999999997e-05,0.0,-2e-05,-5e-05,-7e-05,-7e-05,4e-05,1e-05,3
10177,10661,2.9999999999999997e-05,0.0,-2e-05,-5e-05,-7e-05,-7e-05,4e-05,1e-05,3
10178,10662,2.9999999999999997e-05,0.0,-2e-05,-5e-05,-7e-05,-7e-05,4e-05,1e-05,3
10179,10663,2.9999999999999997e-05,0.0,-2e-05,-5e-05,-7e-05,-7e-05,4e-05,1e-05,3
10180,10664,0.00042,1e-05,2e-05,-7e-05,-7e-05,-5.9999999999999995e-05,2.9999999999999997e-05,2e-05,3
10181,10665,-2.9999999999999997e-05,-2.9999999999999997e-05,-5e-05,2e-05,0.00013000000000000002,-0.00022999999999999998,7e-05,-2e-05,3
10182,10666,-2.9999999999999997e-05,-2.9999999999999997e-05,-5e-05,2e-05,0.00013000000000000002,-0.00022999999999999998,7e-05,-2e-05,3
10183,10667,-2.9999999999999997e-05,-2.9999999999999997e-05,-5e-05,2e-05,0.00013000000000000002,-0.00022999999999999998,7e-05,-2e-05,3
10184,10668,-2.9999999999999997e-05,-2.9999999999999997e-05,-5e-05,2e-05,0.00013000000000000002,-0.00022999999999999998,7e-05,-2e-05,3
10185,10669,-2.9999999999999997e-05,-2.9999999999999997e-05,-5e-05,2e-05,0.00013000000000000002,-0.00022999999999999998,7e-05,-2e-05,3
10186,10670,-2.9999999999999997e-05,-2.9999999999999997e-05,-5e-05,2e-05,0.00013000000000000002,-0.00022999999999999998,7e-05,-2e-05,3
10187,10671,-2.9999999999999997e-05,-2.9999999999999997e-05,-5e-05,2e-05,0.00013000000000000002,-0.00022999999999999998,7e-05,-2e-05,3
10188,10672,-2.9999999999999997e-05,-2.9999999999999997e-05,-5e-05,2e-05,0.00013000000000000002,-0.00022999999999999998,7e-05,-2e-05,3
10189,10673,-2.9999999999999997e-05,-2.9999999999999997e-05,-5e-05,2e-05,0.00013000000000000002,-0.00022999999999999998,7e-05,-2e-05,3
10190,10674,-2.9999999999999997e-05,-2.9999999999999997e-05,-5e-05,2e-05,0.00013000000000000002,-0.00022999999999999998,7e-05,-2e-05,3
10191,10675,-2.9999999999999997e-05,-2.9999999999999997e-05,-5e-05,2e-05,0.00013000000000000002,-0.00022999999999999998,7e-05,-2e-05,3
10192,10676,-2.9999999999999997e-05,-2.9999999999999997e-05,-5e-05,2e-05,0.00013000000000000002,-0.00022999999999999998,7e-05,-2e-05,3
10193,10677,-2.9999999999999997e-05,-2.9999999999999997e-05,-5e-05,2e-05,0.00013000000000000002,-0.00022999999999999998,7e-05,-2e-05,3
10194,10678,0.00045999999999999996,0.0001,0.0,7e-05,0.00011999999999999999,0.00032,0.00016,8e-05,3
10195,10679,0.00045999999999999996,0.0001,0.0,7e-05,0.00011999999999999999,0.00032,0.00016,8e-05,3
10196,10680,0.00045999999999999996,0.0001,0.0,7e-05,0.00011999999999999999,0.00032,0.00016,8e-05,3
10197,10681,0.00045999999999999996,0.0001,0.0,7e-05,0.00011999999999999999,0.00032,0.00016,8e-05,3
10198,10682,0.00045999999999999996,0.0001,0.0,7e-05,0.00011999999999999999,0.00032,0.00016,8e-05,3
10199,10683,0.00045999999999999996,0.0001,0.0,7e-05,0.00011999999999999999,0.00032,0.00016,8e-05,3
10200,10684,0.00045999999999999996,0.0001,0.0,7e-05,0.00011999999999999999,0.00032,0.00016,8e-05,3
10201,10685,0.00045999999999999996,0.0001,0.0,7e-05,0.00011999999999999999,0.00032,0.00016,8e-05,3
10202,10686,0.00045999999999999996,0.0001,0.0,7e-05,0.00011999999999999999,0.00032,0.00016,8e-05,3
10203,10688,0.00045999999999999996,0.0001,0.0,7e-05,0.00011999999999999999,0.00032,0.00016,8e-05,3
10204,10689,0.00045999999999999996,0.0001,0.0,7e-05,0.00011999999999999999,0.00032,0.00016,8e-05,3
10205,10690,0.00045999999999999996,0.0001,0.0,7e-05,0.00011999999999999999,0.00032,0.00016,8e-05,3
10206,10691,0.00045999999999999996,0.0001,0.0,7e-05,0.00011999999999999999,0.00032,0.00016,8e-05,3
10207,10692,0.00045999999999999996,0.0001,0.0,7e-05,0.00011999999999999999,0.00032,0.00016,8e-05,3
10208,10693,-0.00015,-0.00011,-5.9999999999999995e-05,-0.0001,5e-05,0.00011,2e-05,-2e-05,3
10209,10694,-0.00015,-0.00011,-5.9999999999999995e-05,-0.0001,5e-05,0.00011,2e-05,-2e-05,3
10210,10695,-0.00015,-0.00011,-5.9999999999999995e-05,-0.0001,5e-05,0.00011,2e-05,-2e-05,3
10211,10696,-0.00015,-0.00011,-5.9999999999999995e-05,-0.0001,5e-05,0.00011,2e-05,-2e-05,3
10212,10697,-0.00015,-0.00011,-5.9999999999999995e-05,-0.0001,5e-05,0.00011,2e-05,-2e-05,3
10213,10698,-0.00015,-0.00011,-5.9999999999999995e-05,-0.0001,5e-05,0.00011,2e-05,-2e-05,3
10214,10699,-0.00015,-0.00011,-5.9999999999999995e-05,-0.0001,5e-05,0.00011,2e-05,-2e-05,3
10215,10700,-0.00015,-0.00011,-5.9999999999999995e-05,-0.0001,5e-05,0.00011,2e-05,-2e-05,3
10216,10701,0.0001,2.9999999999999997e-05,-1e-05,5e-05,-9e-05,-0.00013000000000000002,-0.00014,2e-05,3
10217,10702,0.00014,9e-05,-1e-05,-5e-05,-0.00015,-5.9999999999999995e-05,-7e-05,-1e-05,3
10218,10704,0.00014,9e-05,-1e-05,-5e-05,-0.00015,-5.9999999999999995e-05,-7e-05,-1e-05,3
10219,10705,0.00014,9e-05,-1e-05,-5e-05,-0.00015,-5.9999999999999995e-05,-7e-05,-1e-05,3
10220,10706,0.00014,9e-05,-1e-05,-5e-05,-0.00015,-5.9999999999999995e-05,-7e-05,-1e-05,3
10221,10707,0.00014,9e-05,-1e-05,-5e-05,-0.00015,-5.9999999999999995e-05,-7e-05,-1e-05,3
10222,10708,0.00014,9e-05,-1e-05,-5e-05,-0.00015,-5.9999999999999995e-05,-7e-05,-1e-05,3
10223,10709,0.00014,9e-05,-1e-05,-5e-05,-0.00015,-5.9999999999999995e-05,-7e-05,-1e-05,3
10224,10710,0.00014,9e-05,-1e-05,-5e-05,-0.00015,-5.9999999999999995e-05,-7e-05,-1e-05,3
10225,10711,0.00014,9e-05,-1e-05,-5e-05,-0.00015,-5.9999999999999995e-05,-7e-05,-1e-05,3
10226,10712,0.00014,9e-05,-1e-05,-5e-05,-0.00015,-5.9999999999999995e-05,-7e-05,-1e-05,3
10227,10713,0.00014,9e-05,-1e-05,-5e-05,-0.00015,-5.9999999999999995e-05,-7e-05,-1e-05,3
10228,10714,0.00014,9e-05,-1e-05,-5e-05,-0.00015,-5.9999999999999995e-05,-7e-05,-1e-05,3
10229,10715,0.00014,9e-05,-1e-05,-5e-05,-0.00015,-5.9999999999999995e-05,-7e-05,-1e-05,3
10230,10716,0.00014,9e-05,-1e-05,-5e-05,-0.00015,-5.9999999999999995e-05,-7e-05,-1e-05,3
10231,10717,0.00014,9e-05,-1e-05,-5e-05,-0.00015,-5.9999999999999995e-05,-7e-05,-1e-05,3
10232,10718,0.00014,9e-05,-1e-05,-5e-05,-0.00015,-5.9999999999999995e-05,-7e-05,-1e-05,3
10233,10719,0.00014,9e-05,-1e-05,-5e-05,-0.00015,-5.9999999999999995e-05,-7e-05,-1e-05,3
10234,10720,0.00014,9e-05,-1e-05,-5e-05,-0.00015,-5.9999999999999995e-05,-7e-05,-1e-05,3
10235,10721,0.00014,9e-05,-1e-05,-5e-05,-0.00015,-5.9999999999999995e-05,-7e-05,-1e-05,3
10236,10722,0.00014,9e-05,-1e-05,-5e-05,-0.00015,-5.9999999999999995e-05,-7e-05,-1e-05,3
10237,10723,0.00014,9e-05,-1e-05,-5e-05,-0.00015,-5.9999999999999995e-05,-7e-05,-1e-05,3
10238,10724,0.00014,9e-05,-1e-05,-5e-05,-0.00015,-5.9999999999999995e-05,-7e-05,-1e-05,3
10239,10725,0.00014,9e-05,-1e-05,-5e-05,-0.00015,-5.9999999999999995e-05,-7e-05,-1e-05,3
10240,10726,0.00014,9e-05,-1e-05,-5e-05,-0.00015,-5.9999999999999995e-05,-7e-05,-1e-05,3
10241,10727,0.00014,9e-05,-1e-05,-5e-05,-0.00015,-5.9999999999999995e-05,-7e-05,-1e-05,3
10242,10728,0.00014,9e-05,-1e-05,-5e-05,-0.00015,-5.9999999999999995e-05,-7e-05,-1e-05,3
10243,10729,0.00014,9e-05,-1e-05,-5e-05,-0.00015,-5.9999999999999995e-05,-7e-05,-1e-05,3
10244,10730,0.00014,9e-05,-1e-05,-5e-05,-0.00015,-5.9999999999999995e-05,-7e-05,-1e-05,3
10245,10731,0.00014,9e-05,-1e-05,-5e-05,-0.00015,-5.9999999999999995e-05,-7e-05,-1e-05,3
10246,10732,-8e-05,-7e-05,-1e-05,-4e-05,-0.00013000000000000002,-0.00023999999999999998,-7e-05,-2.9999999999999997e-05,3
10247,10733,-8e-05,-7e-05,-1e-05,-4e-05,-0.00013000000000000002,-0.00023999999999999998,-7e-05,-2.9999999999999997e-05,3
10248,10734,-8e-05,-7e-05,-1e-05,-4e-05,-0.00013000000000000002,-0.00023999999999999998,-7e-05,-2.9999999999999997e-05,3
10249,10735,-8e-05,-7e-05,-1e-05,-4e-05,-0.00013000000000000002,-0.00023999999999999998,-7e-05,-2.9999999999999997e-05,3
10250,10736,-8e-05,-7e-05,-1e-05,-4e-05,-0.00013000000000000002,-0.00023999999999999998,-7e-05,-2.9999999999999997e-05,3
10251,10738,0.00011999999999999999,-5.9999999999999995e-05,-2e-05,0.00011999999999999999,0.00018,-0.00016999999999999999,-9e-05,0.0,3
10252,10739,0.00011999999999999999,-5.9999999999999995e-05,-2e-05,0.00011999999999999999,0.00018,-0.00016999999999999999,-9e-05,0.0,3
10253,10740,0.00011999999999999999,-5.9999999999999995e-05,-2e-05,0.00011999999999999999,0.00018,-0.00016999999999999999,-9e-05,0.0,3
10254,10741,0.00011999999999999999,-5.9999999999999995e-05,-2e-05,0.00011999999999999999,0.00018,-0.00016999999999999999,-9e-05,0.0,3
10255,10742,0.00011999999999999999,-5.9999999999999995e-05,-2e-05,0.00011999999999999999,0.00018,-0.00016999999999999999,-9e-05,0.0,3
10256,10743,0.00011999999999999999,-5.9999999999999995e-05,-2e-05,0.00011999999999999999,0.00018,-0.00016999999999999999,-9e-05,0.0,3
10257,10744,0.00011999999999999999,-5.9999999999999995e-05,-2e-05,0.00011999999999999999,0.00018,-0.00016999999999999999,-9e-05,0.0,3
10258,10745,0.00011999999999999999,-5.9999999999999995e-05,-2e-05,0.00011999999999999999,0.00018,-0.00016999999999999999,-9e-05,0.0,3
10259,10746,-9e-05,-8e-05,0.0,-4e-05,-0.00029,-0.00029,-7e-05,-5e-05,3
10260,10747,-9e-05,-8e-05,0.0,-4e-05,-0.00029,-0.00029,-7e-05,-5e-05,3
10261,10748,-9e-05,-8e-05,0.0,-4e-05,-0.00029,-0.00029,-7e-05,-5e-05,3
10262,10749,-9e-05,-8e-05,0.0,-4e-05,-0.00029,-0.00029,-7e-05,-5e-05,3
10263,10750,-9e-05,-8e-05,0.0,-4e-05,-0.00029,-0.00029,-7e-05,-5e-05,3
10264,10751,-9e-05,-8e-05,0.0,-4e-05,-0.00029,-0.00029,-7e-05,-5e-05,3
10265,10752,-9e-05,-8e-05,0.0,-4e-05,-0.00029,-0.00029,-7e-05,-5e-05,3
10266,10753,-9e-05,-8e-05,0.0,-4e-05,-0.00029,-0.00029,-7e-05,-5e-05,3
10267,10754,-9e-05,-8e-05,0.0,-4e-05,-0.00029,-0.00029,-7e-05,-5e-05,3
10268,10755,-9e-05,-8e-05,0.0,-4e-05,-0.00029,-0.00029,-7e-05,-5e-05,3
10269,10756,-9e-05,-8e-05,0.0,-4e-05,-0.00029,-0.00029,-7e-05,-5e-05,3
10270,10757,-9e-05,-8e-05,0.0,-4e-05,-0.00029,-0.00029,-7e-05,-5e-05,3
10271,10758,-9e-05,-8e-05,0.0,-4e-05,-0.00029,-0.00029,-7e-05,-5e-05,3
10272,10759,-9e-05,-8e-05,0.0,-4e-05,-0.00029,-0.00029,-7e-05,-5e-05,3
10273,10760,-9e-05,-8e-05,0.0,-4e-05,-0.00029,-0.00029,-7e-05,-5e-05,3
10274,10761,-0.00015,-4e-05,0.0,-5e-05,2e-05,5e-05,4e-05,-4e-05,3
10275,10762,-0.00015,-4e-05,0.0,-5e-05,2e-05,5e-05,4e-05,-4e-05,3
10276,10763,-0.00015,-4e-05,0.0,-5e-05,2e-05,5e-05,4e-05,-4e-05,3
10277,10764,-0.00015,-4e-05,0.0,-5e-05,2e-05,5e-05,4e-05,-4e-05,3
10278,10765,-0.00015,-4e-05,0.0,-5e-05,2e-05,5e-05,4e-05,-4e-05,3
10279,10766,-0.00015,-4e-05,0.0,-5e-05,2e-05,5e-05,4e-05,-4e-05,3
10280,10767,-0.00015,-4e-05,0.0,-5e-05,2e-05,5e-05,4e-05,-4e-05,3
10281,10768,-2e-05,7e-05,2e-05,2e-05,-7e-05,-0.00016999999999999999,-1e-05,-8e-05,3
10282,10769,-2e-05,7e-05,2e-05,2e-05,-7e-05,-0.00016999999999999999,-1e-05,-8e-05,3
10283,10770,-2e-05,7e-05,2e-05,2e-05,-7e-05,-0.00016999999999999999,-1e-05,-8e-05,3
10284,10771,-2e-05,7e-05,2e-05,2e-05,-7e-05,-0.00016999999999999999,-1e-05,-8e-05,3
10285,10772,-2e-05,7e-05,2e-05,2e-05,-7e-05,-0.00016999999999999999,-1e-05,-8e-05,3
10286,10773,-2e-05,7e-05,2e-05,2e-05,-7e-05,-0.00016999999999999999,-1e-05,-8e-05,3
10287,10774,-2e-05,7e-05,2e-05,2e-05,-7e-05,-0.00016999999999999999,-1e-05,-8e-05,3
10288,10775,-2e-05,7e-05,2e-05,2e-05,-7e-05,-0.00016999999999999999,-1e-05,-8e-05,3
10289,10776,-2e-05,7e-05,2e-05,2e-05,-7e-05,-0.00016999999999999999,-1e-05,-8e-05,3
10290,10777,-2e-05,7e-05,2e-05,2e-05,-7e-05,-0.00016999999999999999,-1e-05,-8e-05,3
10291,10778,-2e-05,7e-05,2e-05,2e-05,-7e-05,-0.00016999999999999999,-1e-05,-8e-05,3
10292,10779,-2e-05,7e-05,2e-05,2e-05,-7e-05,-0.00016999999999999999,-1e-05,-8e-05,3
10293,10780,-2e-05,7e-05,2e-05,2e-05,-7e-05,-0.00016999999999999999,-1e-05,-8e-05,3
10294,10781,-2e-05,7e-05,2e-05,2e-05,-7e-05,-0.00016999999999999999,-1e-05,-8e-05,3
10295,10782,-2e-05,7e-05,2e-05,2e-05,-7e-05,-0.00016999999999999999,-1e-05,-8e-05,3
10296,10783,-2e-05,7e-05,2e-05,2e-05,-7e-05,-0.00016999999999999999,-1e-05,-8e-05,3
10297,10784,9e-05,-8e-05,5e-05,4e-05,-1e-05,-7e-05,-8e-05,-2e-05,3
10298,10785,-0.00016,-0.00021,-5.9999999999999995e-05,-7e-05,-1e-05,-0.00025,-4e-05,-2.9999999999999997e-05,3
10299,10786,-0.00016,-0.00021,-5.9999999999999995e-05,-7e-05,-1e-05,-0.00025,-4e-05,-2.9999999999999997e-05,3
10300,10788,-0.00016,-0.00021,-5.9999999999999995e-05,-7e-05,-1e-05,-0.00025,-4e-05,-2.9999999999999997e-05,3
10301,10789,-0.00016,-0.00021,-5.9999999999999995e-05,-7e-05,-1e-05,-0.00025,-4e-05,-2.9999999999999997e-05,3
10302,10790,-0.00016,-0.00021,-5.9999999999999995e-05,-7e-05,-1e-05,-0.00025,-4e-05,-2.9999999999999997e-05,3
10303,10791,-0.00016,-0.00021,-5.9999999999999995e-05,-7e-05,-1e-05,-0.00025,-4e-05,-2.9999999999999997e-05,3
10304,10792,-0.00016,-0.00021,-5.9999999999999995e-05,-7e-05,-1e-05,-0.00025,-4e-05,-2.9999999999999997e-05,3
10305,10793,-0.00016,-0.00021,-5.9999999999999995e-05,-7e-05,-1e-05,-0.00025,-4e-05,-2.9999999999999997e-05,3
10306,10794,-0.00016,-0.00021,-5.9999999999999995e-05,-7e-05,-1e-05,-0.00025,-4e-05,-2.9999999999999997e-05,3
10307,10795,-0.00016,-0.00021,-5.9999999999999995e-05,-7e-05,-1e-05,-0.00025,-4e-05,-2.9999999999999997e-05,3
10308,10796,-0.00016,-0.00021,-5.9999999999999995e-05,-7e-05,-1e-05,-0.00025,-4e-05,-2.9999999999999997e-05,3
10309,10797,-0.00016,-0.00021,-5.9999999999999995e-05,-7e-05,-1e-05,-0.00025,-4e-05,-2.9999999999999997e-05,3
10310,10798,-0.00023999999999999998,-0.00021,-1e-05,-4e-05,-7e-05,7e-05,0.0001,0.0,3
10311,10799,-0.00023999999999999998,-0.00021,-1e-05,-4e-05,-7e-05,7e-05,0.0001,0.0,3
10312,10800,-0.00023999999999999998,-0.00021,-1e-05,-4e-05,-7e-05,7e-05,0.0001,0.0,3
10313,10801,-0.00023999999999999998,-0.00021,-1e-05,-4e-05,-7e-05,7e-05,0.0001,0.0,3
10314,10802,-0.00023999999999999998,-0.00021,-1e-05,-4e-05,-7e-05,7e-05,0.0001,0.0,3
10315,10804,-0.00023999999999999998,-0.00021,-1e-05,-4e-05,-7e-05,7e-05,0.0001,0.0,3
10316,10805,-0.00023999999999999998,-0.00021,-1e-05,-4e-05,-7e-05,7e-05,0.0001,0.0,3
10317,10806,-0.00021,4e-05,2e-05,-4e-05,-8e-05,-8e-05,0.0,0.0,3
10318,10807,-0.00021,4e-05,2e-05,-4e-05,-8e-05,-8e-05,0.0,0.0,3
10319,10808,-0.00021,4e-05,2e-05,-4e-05,-8e-05,-8e-05,0.0,0.0,3
10320,10809,-0.00021,4e-05,2e-05,-4e-05,-8e-05,-8e-05,0.0,0.0,3
10321,10810,-0.00021,4e-05,2e-05,-4e-05,-8e-05,-8e-05,0.0,0.0,3
10322,10811,-0.00021,4e-05,2e-05,-4e-05,-8e-05,-8e-05,0.0,0.0,3
10323,10812,-0.00021,4e-05,2e-05,-4e-05,-8e-05,-8e-05,0.0,0.0,3
10324,10813,-0.00021,4e-05,2e-05,-4e-05,-8e-05,-8e-05,0.0,0.0,3
10325,10814,-0.00021,4e-05,2e-05,-4e-05,-8e-05,-8e-05,0.0,0.0,3
10326,10815,-0.00021,4e-05,2e-05,-4e-05,-8e-05,-8e-05,0.0,0.0,3
10327,10816,-0.00021,4e-05,2e-05,-4e-05,-8e-05,-8e-05,0.0,0.0,3
10328,10817,-0.00021,4e-05,2e-05,-4e-05,-8e-05,-8e-05,0.0,0.0,3
10329,10818,-0.00021,4e-05,2e-05,-4e-05,-8e-05,-8e-05,0.0,0.0,3
10330,10819,-0.00021,4e-05,2e-05,-4e-05,-8e-05,-8e-05,0.0,0.0,3
10331,10820,-0.00021,4e-05,2e-05,-4e-05,-8e-05,-8e-05,0.0,0.0,3
10332,10821,0.00058,0.00011999999999999999,-5.9999999999999995e-05,-9e-05,-0.00016,-0.00018,4e-05,1e-05,3
10333,10822,0.0003,-2.9999999999999997e-05,-7e-05,-4e-05,-1e-05,0.00013000000000000002,8e-05,2e-05,3
10334,10823,0.0003,-2.9999999999999997e-05,-7e-05,-4e-05,-1e-05,0.00013000000000000002,8e-05,2e-05,3
10335,10824,0.0003,-2.9999999999999997e-05,-7e-05,-4e-05,-1e-05,0.00013000000000000002,8e-05,2e-05,3
10336,10825,0.0003,-2.9999999999999997e-05,-7e-05,-4e-05,-1e-05,0.00013000000000000002,8e-05,2e-05,3
10337,10826,0.0003,-2.9999999999999997e-05,-7e-05,-4e-05,-1e-05,0.00013000000000000002,8e-05,2e-05,3
10338,10827,0.0003,-2.9999999999999997e-05,-7e-05,-4e-05,-1e-05,0.00013000000000000002,8e-05,2e-05,3
10339,10828,0.0003,-2.9999999999999997e-05,-7e-05,-4e-05,-1e-05,0.00013000000000000002,8e-05,2e-05,3
10340,10829,0.0003,-2.9999999999999997e-05,-7e-05,-4e-05,-1e-05,0.00013000000000000002,8e-05,2e-05,3
10341,10830,0.0003,-2.9999999999999997e-05,-7e-05,-4e-05,-1e-05,0.00013000000000000002,8e-05,2e-05,3
10342,10831,0.0003,-2.9999999999999997e-05,-7e-05,-4e-05,-1e-05,0.00013000000000000002,8e-05,2e-05,3
10343,10832,0.0003,-2.9999999999999997e-05,-7e-05,-4e-05,-1e-05,0.00013000000000000002,8e-05,2e-05,3
10344,10833,0.0003,-2.9999999999999997e-05,-7e-05,-4e-05,-1e-05,0.00013000000000000002,8e-05,2e-05,3
10345,10834,0.0003,-2.9999999999999997e-05,-7e-05,-4e-05,-1e-05,0.00013000000000000002,8e-05,2e-05,3
10346,10835,0.0003,-2.9999999999999997e-05,-7e-05,-4e-05,-1e-05,0.00013000000000000002,8e-05,2e-05,3
10347,10836,0.0003,-2.9999999999999997e-05,-7e-05,-4e-05,-1e-05,0.00013000000000000002,8e-05,2e-05,3
10348,10838,0.0003,-2.9999999999999997e-05,-7e-05,-4e-05,-1e-05,0.00013000000000000002,8e-05,2e-05,3
10349,10839,0.0003,-2.9999999999999997e-05,-7e-05,-4e-05,-1e-05,0.00013000000000000002,8e-05,2e-05,3
10350,10840,0.0003,-2.9999999999999997e-05,-7e-05,-4e-05,-1e-05,0.00013000000000000002,8e-05,2e-05,3
10351,10841,0.0003,-2.9999999999999997e-05,-7e-05,-4e-05,-1e-05,0.00013000000000000002,8e-05,2e-05,3
10352,10842,0.0003,-2.9999999999999997e-05,-7e-05,-4e-05,-1e-05,0.00013000000000000002,8e-05,2e-05,3
10353,10843,0.0003,-2.9999999999999997e-05,-7e-05,-4e-05,-1e-05,0.00013000000000000002,8e-05,2e-05,3
10354,10844,0.0003,-2.9999999999999997e-05,-7e-05,-4e-05,-1e-05,0.00013000000000000002,8e-05,2e-05,3
10355,10845,0.0003,-2.9999999999999997e-05,-7e-05,-4e-05,-1e-05,0.00013000000000000002,8e-05,2e-05,3
10356,10846,0.0003,-2.9999999999999997e-05,-7e-05,-4e-05,-1e-05,0.00013000000000000002,8e-05,2e-05,3
10357,10847,0.0003,-2.9999999999999997e-05,-7e-05,-4e-05,-1e-05,0.00013000000000000002,8e-05,2e-05,3
10358,10848,0.0003,-2.9999999999999997e-05,-7e-05,-4e-05,-1e-05,0.00013000000000000002,8e-05,2e-05,3
10359,10849,0.0003,-2.9999999999999997e-05,-7e-05,-4e-05,-1e-05,0.00013000000000000002,8e-05,2e-05,3
10360,10850,0.0003,-2.9999999999999997e-05,-7e-05,-4e-05,-1e-05,0.00013000000000000002,8e-05,2e-05,3
10361,10851,0.00026000000000000003,5e-05,-2e-05,-0.0001,-0.00011,-0.00026000000000000003,-0.0001,2.9999999999999997e-05,3
10362,10852,2e-05,-0.00013000000000000002,-1e-05,2e-05,1e-05,0.00018,5.9999999999999995e-05,4e-05,3
10363,10854,2e-05,-0.00013000000000000002,-1e-05,2e-05,1e-05,0.00018,5.9999999999999995e-05,4e-05,3
10364,10855,2e-05,-0.00013000000000000002,-1e-05,2e-05,1e-05,0.00018,5.9999999999999995e-05,4e-05,3
10365,10856,2e-05,-0.00013000000000000002,-1e-05,2e-05,1e-05,0.00018,5.9999999999999995e-05,4e-05,3
10366,10857,2e-05,-0.00013000000000000002,-1e-05,2e-05,1e-05,0.00018,5.9999999999999995e-05,4e-05,3
10367,10858,-0.0001,-2e-05,-2.9999999999999997e-05,-4e-05,-5.9999999999999995e-05,-0.00016999999999999999,-9e-05,-2.9999999999999997e-05,3
10368,10859,-0.0001,-2e-05,-2.9999999999999997e-05,-4e-05,-5.9999999999999995e-05,-0.00016999999999999999,-9e-05,-2.9999999999999997e-05,3
10369,10860,-0.0001,-2e-05,-2.9999999999999997e-05,-4e-05,-5.9999999999999995e-05,-0.00016999999999999999,-9e-05,-2.9999999999999997e-05,3
10370,10861,-0.0001,-2e-05,-2.9999999999999997e-05,-4e-05,-5.9999999999999995e-05,-0.00016999999999999999,-9e-05,-2.9999999999999997e-05,3
10371,10862,-0.0001,-2e-05,-2.9999999999999997e-05,-4e-05,-5.9999999999999995e-05,-0.00016999999999999999,-9e-05,-2.9999999999999997e-05,3
10372,10863,-0.0001,-2e-05,-2.9999999999999997e-05,-4e-05,-5.9999999999999995e-05,-0.00016999999999999999,-9e-05,-2.9999999999999997e-05,3
10373,10864,-0.0001,-2e-05,-2.9999999999999997e-05,-4e-05,-5.9999999999999995e-05,-0.00016999999999999999,-9e-05,-2.9999999999999997e-05,3
10374,10865,-0.0001,-2e-05,-2.9999999999999997e-05,-4e-05,-5.9999999999999995e-05,-0.00016999999999999999,-9e-05,-2.9999999999999997e-05,3
10375,10866,-0.00047999999999999996,0.0,4e-05,4e-05,0.0,0.00047000000000000004,-8e-05,-2.9999999999999997e-05,3
10376,10867,-0.00047999999999999996,0.0,4e-05,4e-05,0.0,0.00047000000000000004,-8e-05,-2.9999999999999997e-05,3
10377,10868,-0.00047999999999999996,0.0,4e-05,4e-05,0.0,0.00047000000000000004,-8e-05,-2.9999999999999997e-05,3
10378,10869,-0.00047999999999999996,0.0,4e-05,4e-05,0.0,0.00047000000000000004,-8e-05,-2.9999999999999997e-05,3
10379,10870,-0.00047999999999999996,0.0,4e-05,4e-05,0.0,0.00047000000000000004,-8e-05,-2.9999999999999997e-05,3
10380,10871,-0.00047999999999999996,0.0,4e-05,4e-05,0.0,0.00047000000000000004,-8e-05,-2.9999999999999997e-05,3
10381,10872,-0.00047999999999999996,0.0,4e-05,4e-05,0.0,0.00047000000000000004,-8e-05,-2.9999999999999997e-05,3
10382,10873,-0.00047999999999999996,0.0,4e-05,4e-05,0.0,0.00047000000000000004,-8e-05,-2.9999999999999997e-05,3
10383,10874,-0.00047999999999999996,0.0,4e-05,4e-05,0.0,0.00047000000000000004,-8e-05,-2.9999999999999997e-05,3
10384,10875,-0.00047999999999999996,0.0,4e-05,4e-05,0.0,0.00047000000000000004,-8e-05,-2.9999999999999997e-05,3
10385,10876,-0.00047999999999999996,0.0,4e-05,4e-05,0.0,0.00047000000000000004,-8e-05,-2.9999999999999997e-05,3
10386,10877,-0.00047999999999999996,0.0,4e-05,4e-05,0.0,0.00047000000000000004,-8e-05,-2.9999999999999997e-05,3
10387,10878,-0.00047999999999999996,0.0,4e-05,4e-05,0.0,0.00047000000000000004,-8e-05,-2.9999999999999997e-05,3
10388,10879,-0.00047999999999999996,0.0,4e-05,4e-05,0.0,0.00047000000000000004,-8e-05,-2.9999999999999997e-05,3
10389,10880,-0.00047999999999999996,0.0,4e-05,4e-05,0.0,0.00047000000000000004,-8e-05,-2.9999999999999997e-05,3
10390,10881,-4e-05,2e-05,2.9999999999999997e-05,4e-05,0.00033,0.00033999999999999997,5.9999999999999995e-05,-4e-05,3
10391,10882,-0.00041,0.0001,-4e-05,-2e-05,4e-05,-0.00031,-5.9999999999999995e-05,-0.00011,3
10392,10883,-0.00041,0.0001,-4e-05,-2e-05,4e-05,-0.00031,-5.9999999999999995e-05,-0.00011,3
10393,10884,-0.00041,0.0001,-4e-05,-2e-05,4e-05,-0.00031,-5.9999999999999995e-05,-0.00011,3
10394,10885,-0.00041,0.0001,-4e-05,-2e-05,4e-05,-0.00031,-5.9999999999999995e-05,-0.00011,3
10395,10886,-0.00041,0.0001,-4e-05,-2e-05,4e-05,-0.00031,-5.9999999999999995e-05,-0.00011,3
10396,10888,-0.00041,0.0001,-4e-05,-2e-05,4e-05,-0.00031,-5.9999999999999995e-05,-0.00011,3
10397,10889,-0.00041,0.0001,-4e-05,-2e-05,4e-05,-0.00031,-5.9999999999999995e-05,-0.00011,3
10398,10890,-0.00041,0.0001,-4e-05,-2e-05,4e-05,-0.00031,-5.9999999999999995e-05,-0.00011,3
10399,10891,-0.00041,0.0001,-4e-05,-2e-05,4e-05,-0.00031,-5.9999999999999995e-05,-0.00011,3
10400,10892,-0.00041,0.0001,-4e-05,-2e-05,4e-05,-0.00031,-5.9999999999999995e-05,-0.00011,3
10401,10893,-0.00041,0.0001,-4e-05,-2e-05,4e-05,-0.00031,-5.9999999999999995e-05,-0.00011,3
10402,10894,-0.00041,0.0001,-4e-05,-2e-05,4e-05,-0.00031,-5.9999999999999995e-05,-0.00011,3
10403,10895,-0.00041,0.0001,-4e-05,-2e-05,4e-05,-0.00031,-5.9999999999999995e-05,-0.00011,3
10404,10896,-0.00041,0.0001,-4e-05,-2e-05,4e-05,-0.00031,-5.9999999999999995e-05,-0.00011,3
10405,10897,-0.00041,0.0001,-4e-05,-2e-05,4e-05,-0.00031,-5.9999999999999995e-05,-0.00011,3
10406,10898,-0.00041,0.0001,-4e-05,-2e-05,4e-05,-0.00031,-5.9999999999999995e-05,-0.00011,3
10407,10899,-0.00041,0.0001,-4e-05,-2e-05,4e-05,-0.00031,-5.9999999999999995e-05,-0.00011,3
10408,10900,-0.00041,0.0001,-4e-05,-2e-05,4e-05,-0.00031,-5.9999999999999995e-05,-0.00011,3
10409,10901,-0.00041,0.0001,-4e-05,-2e-05,4e-05,-0.00031,-5.9999999999999995e-05,-0.00011,3
10410,10902,-0.00041,0.0001,-4e-05,-2e-05,4e-05,-0.00031,-5.9999999999999995e-05,-0.00011,3
10411,10904,5e-05,-2e-05,0.0,-7e-05,-0.00022,-2e-05,5e-05,8e-05,3
10412,10905,0.00028,4e-05,2.9999999999999997e-05,-7e-05,-0.00035,-0.00065,-7e-05,5e-05,3
10413,10906,0.00028,4e-05,2.9999999999999997e-05,-7e-05,-0.00035,-0.00065,-7e-05,5e-05,3
10414,10907,0.00028,4e-05,2.9999999999999997e-05,-7e-05,-0.00035,-0.00065,-7e-05,5e-05,3
10415,10908,0.00028,4e-05,2.9999999999999997e-05,-7e-05,-0.00035,-0.00065,-7e-05,5e-05,3
10416,10909,0.00028,4e-05,2.9999999999999997e-05,-7e-05,-0.00035,-0.00065,-7e-05,5e-05,3
10417,10910,0.00028,4e-05,2.9999999999999997e-05,-7e-05,-0.00035,-0.00065,-7e-05,5e-05,3
10418,10911,0.00028,4e-05,2.9999999999999997e-05,-7e-05,-0.00035,-0.00065,-7e-05,5e-05,3
10419,10912,0.00028,4e-05,2.9999999999999997e-05,-7e-05,-0.00035,-0.00065,-7e-05,5e-05,3
10420,10913,0.00028,4e-05,2.9999999999999997e-05,-7e-05,-0.00035,-0.00065,-7e-05,5e-05,3
10421,10914,0.00028,4e-05,2.9999999999999997e-05,-7e-05,-0.00035,-0.00065,-7e-05,5e-05,3
10422,10915,0.00028,4e-05,2.9999999999999997e-05,-7e-05,-0.00035,-0.00065,-7e-05,5e-05,3
10423,10916,0.00028,4e-05,2.9999999999999997e-05,-7e-05,-0.00035,-0.00065,-7e-05,5e-05,3
10424,10917,0.00028,4e-05,2.9999999999999997e-05,-7e-05,-0.00035,-0.00065,-7e-05,5e-05,3
10425,10918,0.00013000000000000002,-5e-05,-7e-05,-5e-05,-9e-05,-0.0005200000000000001,-4e-05,-2.9999999999999997e-05,3
10426,10919,0.00013000000000000002,-5e-05,-7e-05,-5e-05,-9e-05,-0.0005200000000000001,-4e-05,-2.9999999999999997e-05,3
10427,10920,0.00013000000000000002,-5e-05,-7e-05,-5e-05,-9e-05,-0.0005200000000000001,-4e-05,-2.9999999999999997e-05,3
10428,10921,0.00013000000000000002,-5e-05,-7e-05,-5e-05,-9e-05,-0.0005200000000000001,-4e-05,-2.9999999999999997e-05,3
10429,10922,0.00013000000000000002,-5e-05,-7e-05,-5e-05,-9e-05,-0.0005200000000000001,-4e-05,-2.9999999999999997e-05,3
10430,10923,0.00013000000000000002,-5e-05,-7e-05,-5e-05,-9e-05,-0.0005200000000000001,-4e-05,-2.9999999999999997e-05,3
10431,10924,0.00013000000000000002,-5e-05,-7e-05,-5e-05,-9e-05,-0.0005200000000000001,-4e-05,-2.9999999999999997e-05,3
10432,10925,0.00013000000000000002,-5e-05,-7e-05,-5e-05,-9e-05,-0.0005200000000000001,-4e-05,-2.9999999999999997e-05,3
10433,10926,7e-05,0.0,1e-05,1e-05,0.00015,-5e-05,-2.9999999999999997e-05,-4e-05,3
10434,10927,7e-05,0.0,1e-05,1e-05,0.00015,-5e-05,-2.9999999999999997e-05,-4e-05,3
10435,10928,7e-05,0.0,1e-05,1e-05,0.00015,-5e-05,-2.9999999999999997e-05,-4e-05,3
10436,10929,7e-05,0.0,1e-05,1e-05,0.00015,-5e-05,-2.9999999999999997e-05,-4e-05,3
10437,10930,7e-05,0.0,1e-05,1e-05,0.00015,-5e-05,-2.9999999999999997e-05,-4e-05,3
10438,10931,7e-05,0.0,1e-05,1e-05,0.00015,-5e-05,-2.9999999999999997e-05,-4e-05,3
10439,10932,7e-05,0.0,1e-05,1e-05,0.00015,-5e-05,-2.9999999999999997e-05,-4e-05,3
10440,10933,7e-05,0.0,1e-05,1e-05,0.00015,-5e-05,-2.9999999999999997e-05,-4e-05,3
10441,10934,7e-05,0.0,1e-05,1e-05,0.00015,-5e-05,-2.9999999999999997e-05,-4e-05,3
10442,10935,7e-05,0.0,1e-05,1e-05,0.00015,-5e-05,-2.9999999999999997e-05,-4e-05,3
10443,10936,7e-05,0.0,1e-05,1e-05,0.00015,-5e-05,-2.9999999999999997e-05,-4e-05,3
10444,10938,7e-05,0.0,1e-05,1e-05,0.00015,-5e-05,-2.9999999999999997e-05,-4e-05,3
10445,10939,7e-05,0.0,1e-05,1e-05,0.00015,-5e-05,-2.9999999999999997e-05,-4e-05,3
10446,10940,7e-05,0.0,1e-05,1e-05,0.00015,-5e-05,-2.9999999999999997e-05,-4e-05,3
10447,10941,-0.00021,-2e-05,2e-05,1e-05,0.00015,-0.00028,-0.00013000000000000002,-4e-05,3
10448,10942,0.00015,-5.9999999999999995e-05,-7e-05,-5.9999999999999995e-05,-2e-05,-1e-05,2.9999999999999997e-05,1e-05,3
10449,10943,0.00015,-5.9999999999999995e-05,-7e-05,-5.9999999999999995e-05,-2e-05,-1e-05,2.9999999999999997e-05,1e-05,3
10450,10944,0.00015,-5.9999999999999995e-05,-7e-05,-5.9999999999999995e-05,-2e-05,-1e-05,2.9999999999999997e-05,1e-05,3
10451,10945,0.00015,-5.9999999999999995e-05,-7e-05,-5.9999999999999995e-05,-2e-05,-1e-05,2.9999999999999997e-05,1e-05,3
10452,10946,0.00015,-5.9999999999999995e-05,-7e-05,-5.9999999999999995e-05,-2e-05,-1e-05,2.9999999999999997e-05,1e-05,3
10453,10947,0.00015,-5.9999999999999995e-05,-7e-05,-5.9999999999999995e-05,-2e-05,-1e-05,2.9999999999999997e-05,1e-05,3
10454,10948,0.00015,-5.9999999999999995e-05,-7e-05,-5.9999999999999995e-05,-2e-05,-1e-05,2.9999999999999997e-05,1e-05,3
10455,10949,0.00015,-5.9999999999999995e-05,-7e-05,-5.9999999999999995e-05,-2e-05,-1e-05,2.9999999999999997e-05,1e-05,3
10456,10950,0.00015,-5.9999999999999995e-05,-7e-05,-5.9999999999999995e-05,-2e-05,-1e-05,2.9999999999999997e-05,1e-05,3
10457,10951,0.00015,-5.9999999999999995e-05,-7e-05,-5.9999999999999995e-05,-2e-05,-1e-05,2.9999999999999997e-05,1e-05,3
10458,10952,0.00015,-5.9999999999999995e-05,-7e-05,-5.9999999999999995e-05,-2e-05,-1e-05,2.9999999999999997e-05,1e-05,3
10459,10953,0.00015,-5.9999999999999995e-05,-7e-05,-5.9999999999999995e-05,-2e-05,-1e-05,2.9999999999999997e-05,1e-05,3
10460,10954,0.00015,-5.9999999999999995e-05,-7e-05,-5.9999999999999995e-05,-2e-05,-1e-05,2.9999999999999997e-05,1e-05,3
10461,10955,0.00015,-5.9999999999999995e-05,-7e-05,-5.9999999999999995e-05,-2e-05,-1e-05,2.9999999999999997e-05,1e-05,3
10462,10956,0.00015,-5.9999999999999995e-05,-7e-05,-5.9999999999999995e-05,-2e-05,-1e-05,2.9999999999999997e-05,1e-05,3
10463,10957,0.00015,-5.9999999999999995e-05,-7e-05,-5.9999999999999995e-05,-2e-05,-1e-05,2.9999999999999997e-05,1e-05,3
10464,10958,0.00015,-5.9999999999999995e-05,-7e-05,-5.9999999999999995e-05,-2e-05,-1e-05,2.9999999999999997e-05,1e-05,3
10465,10959,0.00015,-5.9999999999999995e-05,-7e-05,-5.9999999999999995e-05,-2e-05,-1e-05,2.9999999999999997e-05,1e-05,3
10466,10960,0.00015,-5.9999999999999995e-05,-7e-05,-5.9999999999999995e-05,-2e-05,-1e-05,2.9999999999999997e-05,1e-05,3
10467,10961,0.00015,-5.9999999999999995e-05,-7e-05,-5.9999999999999995e-05,-2e-05,-1e-05,2.9999999999999997e-05,1e-05,3
10468,10962,0.00015,-5.9999999999999995e-05,-7e-05,-5.9999999999999995e-05,-2e-05,-1e-05,2.9999999999999997e-05,1e-05,3
10469,10963,0.00015,-5.9999999999999995e-05,-7e-05,-5.9999999999999995e-05,-2e-05,-1e-05,2.9999999999999997e-05,1e-05,3
10470,10964,0.00015,-5.9999999999999995e-05,-7e-05,-5.9999999999999995e-05,-2e-05,-1e-05,2.9999999999999997e-05,1e-05,3
10471,10965,0.00015,-5.9999999999999995e-05,-7e-05,-5.9999999999999995e-05,-2e-05,-1e-05,2.9999999999999997e-05,1e-05,3
10472,10966,0.00015,-5.9999999999999995e-05,-7e-05,-5.9999999999999995e-05,-2e-05,-1e-05,2.9999999999999997e-05,1e-05,3
10473,10967,0.00015,-5.9999999999999995e-05,-7e-05,-5.9999999999999995e-05,-2e-05,-1e-05,2.9999999999999997e-05,1e-05,3
10474,10968,0.00015,-5.9999999999999995e-05,-7e-05,-5.9999999999999995e-05,-2e-05,-1e-05,2.9999999999999997e-05,1e-05,3
10475,10969,0.00015,-5.9999999999999995e-05,-7e-05,-5.9999999999999995e-05,-2e-05,-1e-05,2.9999999999999997e-05,1e-05,3
10476,10970,0.00015,-5.9999999999999995e-05,-7e-05,-5.9999999999999995e-05,-2e-05,-1e-05,2.9999999999999997e-05,1e-05,3
10477,10971,-2e-05,-4e-05,-2e-05,-7e-05,-0.00016999999999999999,-5.9999999999999995e-05,-0.0001,1e-05,3
10478,10972,-5e-05,-1e-05,1e-05,5.9999999999999995e-05,8e-05,0.00025,7e-05,2e-05,3
10479,10973,-5e-05,-1e-05,1e-05,5.9999999999999995e-05,8e-05,0.00025,7e-05,2e-05,3
10480,10974,-5e-05,-1e-05,1e-05,5.9999999999999995e-05,8e-05,0.00025,7e-05,2e-05,3
10481,10975,-5e-05,-1e-05,1e-05,5.9999999999999995e-05,8e-05,0.00025,7e-05,2e-05,3
10482,10976,-5e-05,-1e-05,1e-05,5.9999999999999995e-05,8e-05,0.00025,7e-05,2e-05,3
10483,10977,-5e-05,-1e-05,1e-05,5.9999999999999995e-05,8e-05,0.00025,7e-05,2e-05,3
10484,10978,-5e-05,-1e-05,1e-05,5.9999999999999995e-05,8e-05,0.00025,7e-05,2e-05,3
10485,10979,-5e-05,-1e-05,1e-05,5.9999999999999995e-05,8e-05,0.00025,7e-05,2e-05,3
10486,10980,-5e-05,-1e-05,1e-05,5.9999999999999995e-05,8e-05,0.00025,7e-05,2e-05,3
10487,10981,-5e-05,-1e-05,1e-05,5.9999999999999995e-05,8e-05,0.00025,7e-05,2e-05,3
10488,10982,-5e-05,-1e-05,1e-05,5.9999999999999995e-05,8e-05,0.00025,7e-05,2e-05,3
10489,10983,-5e-05,-1e-05,1e-05,5.9999999999999995e-05,8e-05,0.00025,7e-05,2e-05,3
10490,10984,-5e-05,-1e-05,1e-05,5.9999999999999995e-05,8e-05,0.00025,7e-05,2e-05,3
10491,10985,-5e-05,-1e-05,1e-05,5.9999999999999995e-05,8e-05,0.00025,7e-05,2e-05,3
10492,10986,-0.00013000000000000002,0.0,-4e-05,-5e-05,-0.00023999999999999998,0.00028,1e-05,-4e-05,3
10493,10988,0.00021,5.9999999999999995e-05,4e-05,1e-05,-0.00015,-2e-05,1e-05,5e-05,3
10494,10989,0.00021,5.9999999999999995e-05,4e-05,1e-05,-0.00015,-2e-05,1e-05,5e-05,3
10495,10990,0.00021,5.9999999999999995e-05,4e-05,1e-05,-0.00015,-2e-05,1e-05,5e-05,3
10496,10991,0.00021,5.9999999999999995e-05,4e-05,1e-05,-0.00015,-2e-05,1e-05,5e-05,3
10497,10992,0.00021,5.9999999999999995e-05,4e-05,1e-05,-0.00015,-2e-05,1e-05,5e-05,3
10498,10993,0.00021,5.9999999999999995e-05,4e-05,1e-05,-0.00015,-2e-05,1e-05,5e-05,3
10499,10994,0.00021,5.9999999999999995e-05,4e-05,1e-05,-0.00015,-2e-05,1e-05,5e-05,3
10500,10995,0.00021,5.9999999999999995e-05,4e-05,1e-05,-0.00015,-2e-05,1e-05,5e-05,3
10501,10996,0.00021,5.9999999999999995e-05,4e-05,1e-05,-0.00015,-2e-05,1e-05,5e-05,3
10502,10997,0.00021,5.9999999999999995e-05,4e-05,1e-05,-0.00015,-2e-05,1e-05,5e-05,3
10503,10998,0.00021,5.9999999999999995e-05,4e-05,1e-05,-0.00015,-2e-05,1e-05,5e-05,3
10504,10999,0.00021,5.9999999999999995e-05,4e-05,1e-05,-0.00015,-2e-05,1e-05,5e-05,3
10505,11000,0.00021,5.9999999999999995e-05,4e-05,1e-05,-0.00015,-2e-05,1e-05,5e-05,3
10506,11001,0.00011999999999999999,-4e-05,-2.9999999999999997e-05,-7e-05,-0.00015,0.00025,-2e-05,-4e-05,3
10507,11002,9e-05,-1e-05,-1e-05,0.00014,0.00027,0.00045,-2e-05,1e-05,3
10508,11003,9e-05,-1e-05,-1e-05,0.00014,0.00027,0.00045,-2e-05,1e-05,3
10509,11004,9e-05,-1e-05,-1e-05,0.00014,0.00027,0.00045,-2e-05,1e-05,3
10510,11005,9e-05,-1e-05,-1e-05,0.00014,0.00027,0.00045,-2e-05,1e-05,3
10511,11006,9e-05,-1e-05,-1e-05,0.00014,0.00027,0.00045,-2e-05,1e-05,3
10512,11007,9e-05,-1e-05,-1e-05,0.00014,0.00027,0.00045,-2e-05,1e-05,3
10513,11008,9e-05,-1e-05,-1e-05,0.00014,0.00027,0.00045,-2e-05,1e-05,3
10514,11009,9e-05,-1e-05,-1e-05,0.00014,0.00027,0.00045,-2e-05,1e-05,3
10515,11010,9e-05,-1e-05,-1e-05,0.00014,0.00027,0.00045,-2e-05,1e-05,3
10516,11011,9e-05,-1e-05,-1e-05,0.00014,0.00027,0.00045,-2e-05,1e-05,3
10517,11012,9e-05,-1e-05,-1e-05,0.00014,0.00027,0.00045,-2e-05,1e-05,3
10518,11013,9e-05,-1e-05,-1e-05,0.00014,0.00027,0.00045,-2e-05,1e-05,3
10519,11014,9e-05,-1e-05,-1e-05,0.00014,0.00027,0.00045,-2e-05,1e-05,3
10520,11015,9e-05,-1e-05,-1e-05,0.00014,0.00027,0.00045,-2e-05,1e-05,3
10521,11016,9e-05,-1e-05,-1e-05,0.00014,0.00027,0.00045,-2e-05,1e-05,3
10522,11017,9e-05,-1e-05,-1e-05,0.00014,0.00027,0.00045,-2e-05,1e-05,3
10523,11018,9e-05,-1e-05,-1e-05,0.00014,0.00027,0.00045,-2e-05,1e-05,3
10524,11019,9e-05,-1e-05,-1e-05,0.00014,0.00027,0.00045,-2e-05,1e-05,3
10525,11020,9e-05,-1e-05,-1e-05,0.00014,0.00027,0.00045,-2e-05,1e-05,3
10526,11021,9e-05,-1e-05,-1e-05,0.00014,0.00027,0.00045,-2e-05,1e-05,3
10527,11022,9e-05,-1e-05,-1e-05,0.00014,0.00027,0.00045,-2e-05,1e-05,3
10528,11023,9e-05,-1e-05,-1e-05,0.00014,0.00027,0.00045,-2e-05,1e-05,3
10529,11024,-2e-05,-1e-05,2e-05,4e-05,0.0002,0.0001,-4e-05,-5.9999999999999995e-05,3
10530,11025,-5e-05,-4e-05,-4e-05,0.0,-0.00016,-0.00027,2e-05,2e-05,3
10531,11026,-5e-05,-4e-05,-4e-05,0.0,-0.00016,-0.00027,2e-05,2e-05,3
10532,11027,-5e-05,-4e-05,-4e-05,0.0,-0.00016,-0.00027,2e-05,2e-05,3
10533,11028,-5e-05,-4e-05,-4e-05,0.0,-0.00016,-0.00027,2e-05,2e-05,3
10534,11029,-5e-05,-4e-05,-4e-05,0.0,-0.00016,-0.00027,2e-05,2e-05,3
10535,11030,-5e-05,-4e-05,-4e-05,0.0,-0.00016,-0.00027,2e-05,2e-05,3
10536,11031,-5e-05,-4e-05,-4e-05,0.0,-0.00016,-0.00027,2e-05,2e-05,3
10537,11032,-5e-05,-4e-05,-4e-05,0.0,-0.00016,-0.00027,2e-05,2e-05,3
10538,11033,-5e-05,-4e-05,-4e-05,0.0,-0.00016,-0.00027,2e-05,2e-05,3
10539,11034,-5e-05,-4e-05,-4e-05,0.0,-0.00016,-0.00027,2e-05,2e-05,3
10540,11035,-5e-05,-4e-05,-4e-05,0.0,-0.00016,-0.00027,2e-05,2e-05,3
10541,11036,-5e-05,-4e-05,-4e-05,0.0,-0.00016,-0.00027,2e-05,2e-05,3
10542,11038,-5e-05,-4e-05,-4e-05,0.0,-0.00016,-0.00027,2e-05,2e-05,3
10543,11039,-5e-05,-4e-05,-4e-05,0.0,-0.00016,-0.00027,2e-05,2e-05,3
10544,11040,-5e-05,-4e-05,-4e-05,0.0,-0.00016,-0.00027,2e-05,2e-05,3
10545,11041,-5e-05,-4e-05,-4e-05,0.0,-0.00016,-0.00027,2e-05,2e-05,3
10546,11042,-5e-05,-4e-05,-4e-05,0.0,-0.00016,-0.00027,2e-05,2e-05,3
10547,11043,-5e-05,-4e-05,-4e-05,0.0,-0.00016,-0.00027,2e-05,2e-05,3
10548,11044,-5e-05,-4e-05,-4e-05,0.0,-0.00016,-0.00027,2e-05,2e-05,3
10549,11045,-5e-05,-4e-05,-4e-05,0.0,-0.00016,-0.00027,2e-05,2e-05,3
10550,11046,2.9999999999999997e-05,-1e-05,-2e-05,1e-05,1e-05,7e-05,-4e-05,-4e-05,3
10551,11047,-5e-05,-4e-05,-1e-05,4e-05,0.00018999999999999998,7e-05,-4e-05,-2.9999999999999997e-05,3
10552,11048,-5e-05,-4e-05,-1e-05,4e-05,0.00018999999999999998,7e-05,-4e-05,-2.9999999999999997e-05,3
10553,11049,-5e-05,-4e-05,-1e-05,4e-05,0.00018999999999999998,7e-05,-4e-05,-2.9999999999999997e-05,3
10554,11050,-5e-05,-4e-05,-1e-05,4e-05,0.00018999999999999998,7e-05,-4e-05,-2.9999999999999997e-05,3
10555,11051,-5e-05,-4e-05,-1e-05,4e-05,0.00018999999999999998,7e-05,-4e-05,-2.9999999999999997e-05,3
10556,11052,-5e-05,-4e-05,-1e-05,4e-05,0.00018999999999999998,7e-05,-4e-05,-2.9999999999999997e-05,3
10557,11053,-5e-05,-4e-05,-1e-05,4e-05,0.00018999999999999998,7e-05,-4e-05,-2.9999999999999997e-05,3
10558,11054,-5e-05,-4e-05,-1e-05,4e-05,0.00018999999999999998,7e-05,-4e-05,-2.9999999999999997e-05,3
10559,11055,-5e-05,-4e-05,-1e-05,4e-05,0.00018999999999999998,7e-05,-4e-05,-2.9999999999999997e-05,3
10560,11056,-5e-05,-4e-05,-1e-05,4e-05,0.00018999999999999998,7e-05,-4e-05,-2.9999999999999997e-05,3
10561,11057,-5e-05,-4e-05,-1e-05,4e-05,0.00018999999999999998,7e-05,-4e-05,-2.9999999999999997e-05,3
10562,11058,-5e-05,-4e-05,-1e-05,4e-05,0.00018999999999999998,7e-05,-4e-05,-2.9999999999999997e-05,3
10563,11059,-5e-05,-4e-05,-1e-05,4e-05,0.00018999999999999998,7e-05,-4e-05,-2.9999999999999997e-05,3
10564,11060,-5e-05,-4e-05,-1e-05,4e-05,0.00018999999999999998,7e-05,-4e-05,-2.9999999999999997e-05,3
10565,11061,-5.9999999999999995e-05,-4e-05,-5e-05,-7e-05,-0.00022,-0.00018999999999999998,-0.00016,-5e-05,3
10566,11062,0.00015,1e-05,5e-05,1e-05,8e-05,-0.00039,2.9999999999999997e-05,5e-05,3
10567,11063,0.00015,1e-05,5e-05,1e-05,8e-05,-0.00039,2.9999999999999997e-05,5e-05,3
10568,11064,0.00015,1e-05,5e-05,1e-05,8e-05,-0.00039,2.9999999999999997e-05,5e-05,3
10569,11065,0.00015,1e-05,5e-05,1e-05,8e-05,-0.00039,2.9999999999999997e-05,5e-05,3
10570,11066,0.00015,1e-05,5e-05,1e-05,8e-05,-0.00039,2.9999999999999997e-05,5e-05,3
10571,11067,0.00015,1e-05,5e-05,1e-05,8e-05,-0.00039,2.9999999999999997e-05,5e-05,3
10572,11068,0.00015,1e-05,5e-05,1e-05,8e-05,-0.00039,2.9999999999999997e-05,5e-05,3
10573,11069,0.00015,1e-05,5e-05,1e-05,8e-05,-0.00039,2.9999999999999997e-05,5e-05,3
10574,11070,0.00015,1e-05,5e-05,1e-05,8e-05,-0.00039,2.9999999999999997e-05,5e-05,3
10575,11071,0.00015,1e-05,5e-05,1e-05,8e-05,-0.00039,2.9999999999999997e-05,5e-05,3
10576,11072,0.00015,1e-05,5e-05,1e-05,8e-05,-0.00039,2.9999999999999997e-05,5e-05,3
10577,11073,0.00015,1e-05,5e-05,1e-05,8e-05,-0.00039,2.9999999999999997e-05,5e-05,3
10578,11074,0.00015,1e-05,5e-05,1e-05,8e-05,-0.00039,2.9999999999999997e-05,5e-05,3
10579,11075,0.00015,1e-05,5e-05,1e-05,8e-05,-0.00039,2.9999999999999997e-05,5e-05,3
10580,11076,0.00015,1e-05,5e-05,1e-05,8e-05,-0.00039,2.9999999999999997e-05,5e-05,3
10581,11077,0.00015,1e-05,5e-05,1e-05,8e-05,-0.00039,2.9999999999999997e-05,5e-05,3
10582,11078,0.00015,1e-05,5e-05,1e-05,8e-05,-0.00039,2.9999999999999997e-05,5e-05,3
10583,11079,0.00015,1e-05,5e-05,1e-05,8e-05,-0.00039,2.9999999999999997e-05,5e-05,3
10584,11080,0.00015,1e-05,5e-05,1e-05,8e-05,-0.00039,2.9999999999999997e-05,5e-05,3
10585,11081,0.00015,1e-05,5e-05,1e-05,8e-05,-0.00039,2.9999999999999997e-05,5e-05,3
10586,11082,0.00015,1e-05,5e-05,1e-05,8e-05,-0.00039,2.9999999999999997e-05,5e-05,3
10587,11083,0.00015,1e-05,5e-05,1e-05,8e-05,-0.00039,2.9999999999999997e-05,5e-05,3
10588,11084,-2.9999999999999997e-05,-2.9999999999999997e-05,-2.9999999999999997e-05,1e-05,-2.9999999999999997e-05,4e-05,2e-05,4e-05,3
10589,11085,4e-05,0.0,-1e-05,-2e-05,0.00022,0.0,-0.00015,-9e-05,3
10590,11086,4e-05,0.0,-1e-05,-2e-05,0.00022,0.0,-0.00015,-9e-05,3
10591,11088,4e-05,0.0,-1e-05,-2e-05,0.00022,0.0,-0.00015,-9e-05,3
10592,11089,4e-05,0.0,-1e-05,-2e-05,0.00022,0.0,-0.00015,-9e-05,3
10593,11090,4e-05,0.0,-1e-05,-2e-05,0.00022,0.0,-0.00015,-9e-05,3
10594,11091,4e-05,0.0,-1e-05,-2e-05,0.00022,0.0,-0.00015,-9e-05,3
10595,11092,4e-05,0.0,-1e-05,-2e-05,0.00022,0.0,-0.00015,-9e-05,3
10596,11093,4e-05,0.0,-1e-05,-2e-05,0.00022,0.0,-0.00015,-9e-05,3
10597,11094,4e-05,0.0,-1e-05,-2e-05,0.00022,0.0,-0.00015,-9e-05,3
10598,11095,4e-05,0.0,-1e-05,-2e-05,0.00022,0.0,-0.00015,-9e-05,3
10599,11096,4e-05,0.0,-1e-05,-2e-05,0.00022,0.0,-0.00015,-9e-05,3
10600,11097,4e-05,0.0,-1e-05,-2e-05,0.00022,0.0,-0.00015,-9e-05,3
10601,11098,4e-05,0.0,-1e-05,-2e-05,0.00022,0.0,-0.00015,-9e-05,3
10602,11099,4e-05,0.0,-1e-05,-2e-05,0.00022,0.0,-0.00015,-9e-05,3
10603,11100,4e-05,0.0,-1e-05,-2e-05,0.00022,0.0,-0.00015,-9e-05,3
10604,11101,4e-05,0.0,-1e-05,-2e-05,0.00022,0.0,-0.00015,-9e-05,3
10605,11102,4e-05,0.0,-1e-05,-2e-05,0.00022,0.0,-0.00015,-9e-05,3
10606,11104,4e-05,0.0,-1e-05,-2e-05,0.00022,0.0,-0.00015,-9e-05,3
10607,11105,4e-05,0.0,-1e-05,-2e-05,0.00022,0.0,-0.00015,-9e-05,3
10608,11106,-2.9999999999999997e-05,2.9999999999999997e-05,5e-05,0.00011999999999999999,9e-05,0.00015,0.00016999999999999999,-1e-05,3
10609,11107,-7e-05,-1e-05,-5.9999999999999995e-05,-9e-05,-0.0001,-0.00011999999999999999,-1e-05,1e-05,3
10610,11108,2.9999999999999997e-05,1e-05,0.0,-1e-05,4e-05,0.00043,4e-05,0.0,3
10611,11109,2.9999999999999997e-05,1e-05,0.0,-1e-05,4e-05,0.00043,4e-05,0.0,3
10612,11110,2.9999999999999997e-05,1e-05,0.0,-1e-05,4e-05,0.00043,4e-05,0.0,3
10613,11111,2.9999999999999997e-05,1e-05,0.0,-1e-05,4e-05,0.00043,4e-05,0.0,3
10614,11112,2.9999999999999997e-05,1e-05,0.0,-1e-05,4e-05,0.00043,4e-05,0.0,3
10615,11113,2.9999999999999997e-05,1e-05,0.0,-1e-05,4e-05,0.00043,4e-05,0.0,3
10616,11114,2.9999999999999997e-05,1e-05,0.0,-1e-05,4e-05,0.00043,4e-05,0.0,3
10617,11115,2.9999999999999997e-05,1e-05,0.0,-1e-05,4e-05,0.00043,4e-05,0.0,3
10618,11116,2.9999999999999997e-05,1e-05,0.0,-1e-05,4e-05,0.00043,4e-05,0.0,3
10619,11117,2.9999999999999997e-05,1e-05,0.0,-1e-05,4e-05,0.00043,4e-05,0.0,3
10620,11118,2.9999999999999997e-05,1e-05,0.0,-1e-05,4e-05,0.00043,4e-05,0.0,3
10621,11119,2.9999999999999997e-05,1e-05,0.0,-1e-05,4e-05,0.00043,4e-05,0.0,3
10622,11120,2.9999999999999997e-05,1e-05,0.0,-1e-05,4e-05,0.00043,4e-05,0.0,3
10623,11121,2.9999999999999997e-05,1e-05,0.0,-1e-05,4e-05,0.00043,4e-05,0.0,3
10624,11122,-0.00011,0.0,-1e-05,2e-05,-1e-05,0.00032,0.00015,-7e-05,3
10625,11123,-0.00011,0.0,-1e-05,2e-05,-1e-05,0.00032,0.00015,-7e-05,3
10626,11124,-0.00011,0.0,-1e-05,2e-05,-1e-05,0.00032,0.00015,-7e-05,3
10627,11125,-0.00011,0.0,-1e-05,2e-05,-1e-05,0.00032,0.00015,-7e-05,3
10628,11126,-0.00011,0.0,-1e-05,2e-05,-1e-05,0.00032,0.00015,-7e-05,3
10629,11127,-0.00011,0.0,-1e-05,2e-05,-1e-05,0.00032,0.00015,-7e-05,3
10630,11128,-5e-05,-2.9999999999999997e-05,-4e-05,1e-05,-0.00013000000000000002,-0.00039,-5.9999999999999995e-05,-5.9999999999999995e-05,3
10631,11129,-5e-05,-2.9999999999999997e-05,-4e-05,1e-05,-0.00013000000000000002,-0.00039,-5.9999999999999995e-05,-5.9999999999999995e-05,3
10632,11130,-5e-05,-2.9999999999999997e-05,-4e-05,1e-05,-0.00013000000000000002,-0.00039,-5.9999999999999995e-05,-5.9999999999999995e-05,3
10633,11131,-5e-05,-2.9999999999999997e-05,-4e-05,1e-05,-0.00013000000000000002,-0.00039,-5.9999999999999995e-05,-5.9999999999999995e-05,3
10634,11132,-5e-05,-2.9999999999999997e-05,-4e-05,1e-05,-0.00013000000000000002,-0.00039,-5.9999999999999995e-05,-5.9999999999999995e-05,3
10635,11133,-5e-05,-2.9999999999999997e-05,-4e-05,1e-05,-0.00013000000000000002,-0.00039,-5.9999999999999995e-05,-5.9999999999999995e-05,3
10636,11134,-5e-05,-2.9999999999999997e-05,-4e-05,1e-05,-0.00013000000000000002,-0.00039,-5.9999999999999995e-05,-5.9999999999999995e-05,3
10637,11135,-5e-05,-2.9999999999999997e-05,-4e-05,1e-05,-0.00013000000000000002,-0.00039,-5.9999999999999995e-05,-5.9999999999999995e-05,3
10638,11136,-5e-05,-2.9999999999999997e-05,-4e-05,1e-05,-0.00013000000000000002,-0.00039,-5.9999999999999995e-05,-5.9999999999999995e-05,3
10639,11138,-5e-05,-2.9999999999999997e-05,-4e-05,1e-05,-0.00013000000000000002,-0.00039,-5.9999999999999995e-05,-5.9999999999999995e-05,3
10640,11139,-5e-05,-2.9999999999999997e-05,-4e-05,1e-05,-0.00013000000000000002,-0.00039,-5.9999999999999995e-05,-5.9999999999999995e-05,3
10641,11140,-5e-05,-2.9999999999999997e-05,-4e-05,1e-05,-0.00013000000000000002,-0.00039,-5.9999999999999995e-05,-5.9999999999999995e-05,3
10642,11141,-5e-05,-2.9999999999999997e-05,-4e-05,1e-05,-0.00013000000000000002,-0.00039,-5.9999999999999995e-05,-5.9999999999999995e-05,3
10643,11142,-5e-05,-2.9999999999999997e-05,-4e-05,1e-05,-0.00013000000000000002,-0.00039,-5.9999999999999995e-05,-5.9999999999999995e-05,3
10644,11143,-5e-05,-2.9999999999999997e-05,-4e-05,1e-05,-0.00013000000000000002,-0.00039,-5.9999999999999995e-05,-5.9999999999999995e-05,3
10645,11144,-4e-05,-1e-05,-1e-05,0.0,-0.00011999999999999999,-2.9999999999999997e-05,4e-05,-2e-05,3
10646,11145,-4e-05,-1e-05,-1e-05,0.0,-0.00011999999999999999,-2.9999999999999997e-05,4e-05,-2e-05,3
10647,11146,-2e-05,-4e-05,-2e-05,-9e-05,-0.00011999999999999999,-0.00028,-2e-05,-2.9999999999999997e-05,3
10648,11147,-2e-05,-4e-05,-2e-05,-9e-05,-0.00011999999999999999,-0.00028,-2e-05,-2.9999999999999997e-05,3
10649,11148,-2e-05,-4e-05,-2e-05,-9e-05,-0.00011999999999999999,-0.00028,-2e-05,-2.9999999999999997e-05,3
10650,11149,-2e-05,-4e-05,-2e-05,-9e-05,-0.00011999999999999999,-0.00028,-2e-05,-2.9999999999999997e-05,3
10651,11150,-2e-05,-4e-05,-2e-05,-9e-05,-0.00011999999999999999,-0.00028,-2e-05,-2.9999999999999997e-05,3
10652,11151,-2e-05,-4e-05,-2e-05,-9e-05,-0.00011999999999999999,-0.00028,-2e-05,-2.9999999999999997e-05,3
10653,11152,-2e-05,-4e-05,-2e-05,-9e-05,-0.00011999999999999999,-0.00028,-2e-05,-2.9999999999999997e-05,3
10654,11153,-2e-05,-4e-05,-2e-05,-9e-05,-0.00011999999999999999,-0.00028,-2e-05,-2.9999999999999997e-05,3
10655,11154,-2e-05,-4e-05,-2e-05,-9e-05,-0.00011999999999999999,-0.00028,-2e-05,-2.9999999999999997e-05,3
10656,11155,-2e-05,-4e-05,-2e-05,-9e-05,-0.00011999999999999999,-0.00028,-2e-05,-2.9999999999999997e-05,3
10657,11156,-2e-05,-4e-05,-2e-05,-9e-05,-0.00011999999999999999,-0.00028,-2e-05,-2.9999999999999997e-05,3
10658,11157,-2e-05,-4e-05,-2e-05,-9e-05,-0.00011999999999999999,-0.00028,-2e-05,-2.9999999999999997e-05,3
10659,11158,-2e-05,-4e-05,-2e-05,-9e-05,-0.00011999999999999999,-0.00028,-2e-05,-2.9999999999999997e-05,3
10660,11159,-2e-05,-4e-05,-2e-05,-9e-05,-0.00011999999999999999,-0.00028,-2e-05,-2.9999999999999997e-05,3
10661,11160,-2e-05,-4e-05,-2e-05,-9e-05,-0.00011999999999999999,-0.00028,-2e-05,-2.9999999999999997e-05,3
10662,11161,-2e-05,-4e-05,-2e-05,-9e-05,-0.00011999999999999999,-0.00028,-2e-05,-2.9999999999999997e-05,3
10663,11162,-2e-05,-4e-05,-2e-05,-9e-05,-0.00011999999999999999,-0.00028,-2e-05,-2.9999999999999997e-05,3
10664,11163,-2e-05,-4e-05,-2e-05,-9e-05,-0.00011999999999999999,-0.00028,-2e-05,-2.9999999999999997e-05,3
10665,11164,-2e-05,-4e-05,-2e-05,-9e-05,-0.00011999999999999999,-0.00028,-2e-05,-2.9999999999999997e-05,3
10666,11165,-2e-05,-4e-05,-2e-05,-9e-05,-0.00011999999999999999,-0.00028,-2e-05,-2.9999999999999997e-05,3
10667,11166,2e-05,-2e-05,0.0,0.0001,9e-05,0.00018999999999999998,2.9999999999999997e-05,2.9999999999999997e-05,3
10668,11167,0.00039,0.0,-4e-05,1e-05,-2.9999999999999997e-05,0.00026000000000000003,5e-05,5e-05,3
10669,11168,0.00039,0.0,-4e-05,1e-05,-2.9999999999999997e-05,0.00026000000000000003,5e-05,5e-05,3
10670,11169,0.00039,0.0,-4e-05,1e-05,-2.9999999999999997e-05,0.00026000000000000003,5e-05,5e-05,3
10671,11170,0.00039,0.0,-4e-05,1e-05,-2.9999999999999997e-05,0.00026000000000000003,5e-05,5e-05,3
10672,11171,0.00039,0.0,-4e-05,1e-05,-2.9999999999999997e-05,0.00026000000000000003,5e-05,5e-05,3
10673,11172,0.00039,0.0,-4e-05,1e-05,-2.9999999999999997e-05,0.00026000000000000003,5e-05,5e-05,3
10674,11173,0.00039,0.0,-4e-05,1e-05,-2.9999999999999997e-05,0.00026000000000000003,5e-05,5e-05,3
10675,11174,0.00039,0.0,-4e-05,1e-05,-2.9999999999999997e-05,0.00026000000000000003,5e-05,5e-05,3
10676,11175,0.00039,0.0,-4e-05,1e-05,-2.9999999999999997e-05,0.00026000000000000003,5e-05,5e-05,3
10677,11176,0.00039,0.0,-4e-05,1e-05,-2.9999999999999997e-05,0.00026000000000000003,5e-05,5e-05,3
10678,11177,0.00039,0.0,-4e-05,1e-05,-2.9999999999999997e-05,0.00026000000000000003,5e-05,5e-05,3
10679,11178,0.00039,0.0,-4e-05,1e-05,-2.9999999999999997e-05,0.00026000000000000003,5e-05,5e-05,3
10680,11179,0.00039,0.0,-4e-05,1e-05,-2.9999999999999997e-05,0.00026000000000000003,5e-05,5e-05,3
10681,11180,0.00039,0.0,-4e-05,1e-05,-2.9999999999999997e-05,0.00026000000000000003,5e-05,5e-05,3
10682,11181,9e-05,-1e-05,1e-05,5e-05,5e-05,-0.00039,7e-05,4e-05,3
10683,11182,-2.9999999999999997e-05,-2e-05,0.0,1e-05,-2e-05,0.00028,7e-05,1e-05,3
10684,11183,-2.9999999999999997e-05,-2e-05,0.0,1e-05,-2e-05,0.00028,7e-05,1e-05,3
10685,11184,-2.9999999999999997e-05,-2e-05,0.0,1e-05,-2e-05,0.00028,7e-05,1e-05,3
10686,11185,-2.9999999999999997e-05,-2e-05,0.0,1e-05,-2e-05,0.00028,7e-05,1e-05,3
10687,11186,-2.9999999999999997e-05,-2e-05,0.0,1e-05,-2e-05,0.00028,7e-05,1e-05,3
10688,11188,-2.9999999999999997e-05,-2e-05,0.0,1e-05,-2e-05,0.00028,7e-05,1e-05,3
10689,11189,-2.9999999999999997e-05,-2e-05,0.0,1e-05,-2e-05,0.00028,7e-05,1e-05,3
10690,11190,-2.9999999999999997e-05,-2e-05,0.0,1e-05,-2e-05,0.00028,7e-05,1e-05,3
10691,11191,-2.9999999999999997e-05,-2e-05,0.0,1e-05,-2e-05,0.00028,7e-05,1e-05,3
10692,11192,-2.9999999999999997e-05,-2e-05,0.0,1e-05,-2e-05,0.00028,7e-05,1e-05,3
10693,11193,-2.9999999999999997e-05,-2e-05,0.0,1e-05,-2e-05,0.00028,7e-05,1e-05,3
10694,11194,-2.9999999999999997e-05,-2e-05,0.0,1e-05,-2e-05,0.00028,7e-05,1e-05,3
10695,11195,-2.9999999999999997e-05,-2e-05,0.0,1e-05,-2e-05,0.00028,7e-05,1e-05,3
10696,11196,-2.9999999999999997e-05,-2e-05,0.0,1e-05,-2e-05,0.00028,7e-05,1e-05,3
10697,11197,-2.9999999999999997e-05,-2e-05,0.0,1e-05,-2e-05,0.00028,7e-05,1e-05,3
10698,11198,-2.9999999999999997e-05,-2e-05,0.0,1e-05,-2e-05,0.00028,7e-05,1e-05,3
10699,11199,-2.9999999999999997e-05,-2e-05,0.0,1e-05,-2e-05,0.00028,7e-05,1e-05,3
10700,11200,-2.9999999999999997e-05,-2e-05,0.0,1e-05,-2e-05,0.00028,7e-05,1e-05,3
10701,11201,-2.9999999999999997e-05,-2e-05,0.0,1e-05,-2e-05,0.00028,7e-05,1e-05,3
10702,11202,-2.9999999999999997e-05,-2e-05,0.0,1e-05,-2e-05,0.00028,7e-05,1e-05,3
10703,11203,0.0,5e-05,2e-05,-4e-05,-2.9999999999999997e-05,-5.9999999999999995e-05,9e-05,2e-05,3
10704,11204,-0.00021,-5e-05,-2e-05,5.9999999999999995e-05,0.00011,0.0,-0.00016999999999999999,-2.9999999999999997e-05,3
10705,11205,-0.00015,-2.9999999999999997e-05,0.0,0.00011999999999999999,5.9999999999999995e-05,0.00023999999999999998,-5.9999999999999995e-05,-4e-05,3
10706,11206,-0.00015,-2.9999999999999997e-05,0.0,0.00011999999999999999,5.9999999999999995e-05,0.00023999999999999998,-5.9999999999999995e-05,-4e-05,3
10707,11207,-0.00015,-2.9999999999999997e-05,0.0,0.00011999999999999999,5.9999999999999995e-05,0.00023999999999999998,-5.9999999999999995e-05,-4e-05,3
10708,11208,-0.00015,-2.9999999999999997e-05,0.0,0.00011999999999999999,5.9999999999999995e-05,0.00023999999999999998,-5.9999999999999995e-05,-4e-05,3
10709,11209,-0.00015,-2.9999999999999997e-05,0.0,0.00011999999999999999,5.9999999999999995e-05,0.00023999999999999998,-5.9999999999999995e-05,-4e-05,3
10710,11210,-0.00015,-2.9999999999999997e-05,0.0,0.00011999999999999999,5.9999999999999995e-05,0.00023999999999999998,-5.9999999999999995e-05,-4e-05,3
10711,11211,-0.00015,-2.9999999999999997e-05,0.0,0.00011999999999999999,5.9999999999999995e-05,0.00023999999999999998,-5.9999999999999995e-05,-4e-05,3
10712,11212,-0.00015,-2.9999999999999997e-05,0.0,0.00011999999999999999,5.9999999999999995e-05,0.00023999999999999998,-5.9999999999999995e-05,-4e-05,3
10713,11213,-0.00015,-2.9999999999999997e-05,0.0,0.00011999999999999999,5.9999999999999995e-05,0.00023999999999999998,-5.9999999999999995e-05,-4e-05,3
10714,11214,-0.00015,-2.9999999999999997e-05,0.0,0.00011999999999999999,5.9999999999999995e-05,0.00023999999999999998,-5.9999999999999995e-05,-4e-05,3
10715,11215,-0.00015,-2.9999999999999997e-05,0.0,0.00011999999999999999,5.9999999999999995e-05,0.00023999999999999998,-5.9999999999999995e-05,-4e-05,3
10716,11216,-0.00015,-2.9999999999999997e-05,0.0,0.00011999999999999999,5.9999999999999995e-05,0.00023999999999999998,-5.9999999999999995e-05,-4e-05,3
10717,11217,-0.00015,-2.9999999999999997e-05,0.0,0.00011999999999999999,5.9999999999999995e-05,0.00023999999999999998,-5.9999999999999995e-05,-4e-05,3
10718,11218,-0.00015,-2.9999999999999997e-05,0.0,0.00011999999999999999,5.9999999999999995e-05,0.00023999999999999998,-5.9999999999999995e-05,-4e-05,3
10719,11219,-0.00015,-2.9999999999999997e-05,0.0,0.00011999999999999999,5.9999999999999995e-05,0.00023999999999999998,-5.9999999999999995e-05,-4e-05,3
10720,11220,-0.00015,-2.9999999999999997e-05,0.0,0.00011999999999999999,5.9999999999999995e-05,0.00023999999999999998,-5.9999999999999995e-05,-4e-05,3
10721,11221,-0.00015,-2.9999999999999997e-05,0.0,0.00011999999999999999,5.9999999999999995e-05,0.00023999999999999998,-5.9999999999999995e-05,-4e-05,3
10722,11222,-0.00015,-2.9999999999999997e-05,0.0,0.00011999999999999999,5.9999999999999995e-05,0.00023999999999999998,-5.9999999999999995e-05,-4e-05,3
10723,11223,-0.00015,-2.9999999999999997e-05,0.0,0.00011999999999999999,5.9999999999999995e-05,0.00023999999999999998,-5.9999999999999995e-05,-4e-05,3
10724,11224,-0.00015,-2.9999999999999997e-05,0.0,0.00011999999999999999,5.9999999999999995e-05,0.00023999999999999998,-5.9999999999999995e-05,-4e-05,3
10725,11225,-0.00015,-2.9999999999999997e-05,0.0,0.00011999999999999999,5.9999999999999995e-05,0.00023999999999999998,-5.9999999999999995e-05,-4e-05,3
10726,11226,-0.00015,-2.9999999999999997e-05,0.0,0.00011999999999999999,5.9999999999999995e-05,0.00023999999999999998,-5.9999999999999995e-05,-4e-05,3
10727,11227,-2e-05,1e-05,0.0,2e-05,-2e-05,1e-05,0.0,1e-05,3
10728,11228,9e-05,-2e-05,-5e-05,-0.00015,-0.00013000000000000002,-0.0001,5.9999999999999995e-05,7e-05,3
10729,11229,9e-05,-2e-05,-5e-05,-0.00015,-0.00013000000000000002,-0.0001,5.9999999999999995e-05,7e-05,3
10730,11230,9e-05,-2e-05,-5e-05,-0.00015,-0.00013000000000000002,-0.0001,5.9999999999999995e-05,7e-05,3
10731,11231,9e-05,-2e-05,-5e-05,-0.00015,-0.00013000000000000002,-0.0001,5.9999999999999995e-05,7e-05,3
10732,11232,9e-05,-2e-05,-5e-05,-0.00015,-0.00013000000000000002,-0.0001,5.9999999999999995e-05,7e-05,3
10733,11233,9e-05,-2e-05,-5e-05,-0.00015,-0.00013000000000000002,-0.0001,5.9999999999999995e-05,7e-05,3
10734,11234,9e-05,-2e-05,-5e-05,-0.00015,-0.00013000000000000002,-0.0001,5.9999999999999995e-05,7e-05,3
10735,11235,9e-05,-2e-05,-5e-05,-0.00015,-0.00013000000000000002,-0.0001,5.9999999999999995e-05,7e-05,3
10736,11237,9e-05,-2e-05,-5e-05,-0.00015,-0.00013000000000000002,-0.0001,5.9999999999999995e-05,7e-05,3
10737,11240,9e-05,-2e-05,-5e-05,-0.00015,-0.00013000000000000002,-0.0001,5.9999999999999995e-05,7e-05,3
10738,11241,9e-05,-2e-05,-5e-05,-0.00015,-0.00013000000000000002,-0.0001,5.9999999999999995e-05,7e-05,3
10739,11242,9e-05,-2e-05,-5e-05,-0.00015,-0.00013000000000000002,-0.0001,5.9999999999999995e-05,7e-05,3
10740,11243,9e-05,-2e-05,-5e-05,-0.00015,-0.00013000000000000002,-0.0001,5.9999999999999995e-05,7e-05,3
10741,11244,9e-05,-2e-05,-5e-05,-0.00015,-0.00013000000000000002,-0.0001,5.9999999999999995e-05,7e-05,3
10742,11245,9e-05,-2e-05,-5e-05,-0.00015,-0.00013000000000000002,-0.0001,5.9999999999999995e-05,7e-05,3
10743,11246,9e-05,-2e-05,-5e-05,-0.00015,-0.00013000000000000002,-0.0001,5.9999999999999995e-05,7e-05,3
10744,11247,9e-05,-2e-05,-5e-05,-0.00015,-0.00013000000000000002,-0.0001,5.9999999999999995e-05,7e-05,3
10745,11248,9e-05,-2e-05,-5e-05,-0.00015,-0.00013000000000000002,-0.0001,5.9999999999999995e-05,7e-05,3
10746,11249,0.00011,-5.9999999999999995e-05,-7e-05,-8e-05,-0.00023999999999999998,-0.00028,0.00014,-2.9999999999999997e-05,3
10747,11250,0.00011,-5.9999999999999995e-05,-7e-05,-8e-05,-0.00023999999999999998,-0.00028,0.00014,-2.9999999999999997e-05,3
10748,11251,-2.9999999999999997e-05,0.0,4e-05,4e-05,-1e-05,-5e-05,2.9999999999999997e-05,-2e-05,3
10749,11252,-2.9999999999999997e-05,0.0,4e-05,4e-05,-1e-05,-5e-05,2.9999999999999997e-05,-2e-05,3
10750,11254,-2.9999999999999997e-05,0.0,4e-05,4e-05,-1e-05,-5e-05,2.9999999999999997e-05,-2e-05,3
10751,11255,-2.9999999999999997e-05,0.0,4e-05,4e-05,-1e-05,-5e-05,2.9999999999999997e-05,-2e-05,3
10752,11256,-2.9999999999999997e-05,0.0,4e-05,4e-05,-1e-05,-5e-05,2.9999999999999997e-05,-2e-05,3
10753,11257,-2.9999999999999997e-05,0.0,4e-05,4e-05,-1e-05,-5e-05,2.9999999999999997e-05,-2e-05,3
10754,11258,-2.9999999999999997e-05,0.0,4e-05,4e-05,-1e-05,-5e-05,2.9999999999999997e-05,-2e-05,3
10755,11259,-2.9999999999999997e-05,0.0,4e-05,4e-05,-1e-05,-5e-05,2.9999999999999997e-05,-2e-05,3
10756,11260,-2.9999999999999997e-05,0.0,4e-05,4e-05,-1e-05,-5e-05,2.9999999999999997e-05,-2e-05,3
10757,11261,-2.9999999999999997e-05,0.0,4e-05,4e-05,-1e-05,-5e-05,2.9999999999999997e-05,-2e-05,3
10758,11262,-2.9999999999999997e-05,0.0,4e-05,4e-05,-1e-05,-5e-05,2.9999999999999997e-05,-2e-05,3
10759,11263,-2.9999999999999997e-05,0.0,4e-05,4e-05,-1e-05,-5e-05,2.9999999999999997e-05,-2e-05,3
10760,11264,7e-05,-2e-05,-5.9999999999999995e-05,-0.0001,-0.00011,-0.0003,-0.00016,-2e-05,3
10761,11265,7e-05,-2e-05,-5.9999999999999995e-05,-0.0001,-0.00011,-0.0003,-0.00016,-2e-05,3
10762,11266,-0.00013000000000000002,-2e-05,-4e-05,-0.00016,0.00032,0.00016999999999999999,1e-05,-2e-05,3
10763,11267,-0.00013000000000000002,-2e-05,-4e-05,-0.00016,0.00032,0.00016999999999999999,1e-05,-2e-05,3
10764,11268,-0.00013000000000000002,-2e-05,-4e-05,-0.00016,0.00032,0.00016999999999999999,1e-05,-2e-05,3
10765,11269,-0.00013000000000000002,-2e-05,-4e-05,-0.00016,0.00032,0.00016999999999999999,1e-05,-2e-05,3
10766,11270,-0.00013000000000000002,-2e-05,-4e-05,-0.00016,0.00032,0.00016999999999999999,1e-05,-2e-05,3
10767,11271,-0.00013000000000000002,-2e-05,-4e-05,-0.00016,0.00032,0.00016999999999999999,1e-05,-2e-05,3
10768,11272,-0.00013000000000000002,-2e-05,-4e-05,-0.00016,0.00032,0.00016999999999999999,1e-05,-2e-05,3
10769,11273,-0.00013000000000000002,-2e-05,-4e-05,-0.00016,0.00032,0.00016999999999999999,1e-05,-2e-05,3
10770,11274,-0.00013000000000000002,-2e-05,-4e-05,-0.00016,0.00032,0.00016999999999999999,1e-05,-2e-05,3
10771,11275,-0.00013000000000000002,-2e-05,-4e-05,-0.00016,0.00032,0.00016999999999999999,1e-05,-2e-05,3
10772,11276,-0.00013000000000000002,-2e-05,-4e-05,-0.00016,0.00032,0.00016999999999999999,1e-05,-2e-05,3
10773,11277,-0.00013000000000000002,-2e-05,-4e-05,-0.00016,0.00032,0.00016999999999999999,1e-05,-2e-05,3
10774,11278,-0.00013000000000000002,-2e-05,-4e-05,-0.00016,0.00032,0.00016999999999999999,1e-05,-2e-05,3
10775,11279,-0.00013000000000000002,-2e-05,-4e-05,-0.00016,0.00032,0.00016999999999999999,1e-05,-2e-05,3
10776,11280,-0.00013000000000000002,-2e-05,-4e-05,-0.00016,0.00032,0.00016999999999999999,1e-05,-2e-05,3
10777,11281,-0.00013000000000000002,-2e-05,-4e-05,-0.00016,0.00032,0.00016999999999999999,1e-05,-2e-05,3
10778,11282,-0.00013000000000000002,-2e-05,-4e-05,-0.00016,0.00032,0.00016999999999999999,1e-05,-2e-05,3
10779,11283,-0.00013000000000000002,-2e-05,-4e-05,-0.00016,0.00032,0.00016999999999999999,1e-05,-2e-05,3
10780,11284,-0.00013000000000000002,-2e-05,-4e-05,-0.00016,0.00032,0.00016999999999999999,1e-05,-2e-05,3
10781,11285,-0.00013000000000000002,-2e-05,-4e-05,-0.00016,0.00032,0.00016999999999999999,1e-05,-2e-05,3
10782,11287,2e-05,2.9999999999999997e-05,5e-05,-0.00013000000000000002,5.9999999999999995e-05,0.00043,1e-05,-1e-05,3
10783,11290,-0.00015,-1e-05,-5.9999999999999995e-05,-0.00016,-0.00016,0.0005099999999999999,4e-05,-7e-05,3
10784,11291,-0.00015,-1e-05,-5.9999999999999995e-05,-0.00016,-0.00016,0.0005099999999999999,4e-05,-7e-05,3
10785,11292,-0.00015,-1e-05,-5.9999999999999995e-05,-0.00016,-0.00016,0.0005099999999999999,4e-05,-7e-05,3
10786,11293,-0.00015,-1e-05,-5.9999999999999995e-05,-0.00016,-0.00016,0.0005099999999999999,4e-05,-7e-05,3
10787,11294,-0.00015,-1e-05,-5.9999999999999995e-05,-0.00016,-0.00016,0.0005099999999999999,4e-05,-7e-05,3
10788,11295,-0.00015,-1e-05,-5.9999999999999995e-05,-0.00016,-0.00016,0.0005099999999999999,4e-05,-7e-05,3
10789,11296,-0.00015,-1e-05,-5.9999999999999995e-05,-0.00016,-0.00016,0.0005099999999999999,4e-05,-7e-05,3
10790,11297,-0.00015,-1e-05,-5.9999999999999995e-05,-0.00016,-0.00016,0.0005099999999999999,4e-05,-7e-05,3
10791,11298,-0.00015,-1e-05,-5.9999999999999995e-05,-0.00016,-0.00016,0.0005099999999999999,4e-05,-7e-05,3
10792,11299,-0.00015,-1e-05,-5.9999999999999995e-05,-0.00016,-0.00016,0.0005099999999999999,4e-05,-7e-05,3
10793,11300,2.9999999999999997e-05,-2e-05,-2.9999999999999997e-05,-0.00011999999999999999,-1e-05,7e-05,5e-05,1e-05,3
10794,11301,2.9999999999999997e-05,-2e-05,-2.9999999999999997e-05,-0.00011999999999999999,-1e-05,7e-05,5e-05,1e-05,3
10795,11302,2.9999999999999997e-05,-2e-05,-2.9999999999999997e-05,-0.00011999999999999999,-1e-05,7e-05,5e-05,1e-05,3
10796,11304,2.9999999999999997e-05,-2e-05,-2.9999999999999997e-05,-0.00011999999999999999,-1e-05,7e-05,5e-05,1e-05,3
10797,11305,2.9999999999999997e-05,-2e-05,-2.9999999999999997e-05,-0.00011999999999999999,-1e-05,7e-05,5e-05,1e-05,3
10798,11306,2.9999999999999997e-05,-2e-05,-2.9999999999999997e-05,-0.00011999999999999999,-1e-05,7e-05,5e-05,1e-05,3
10799,11307,2.9999999999999997e-05,-2e-05,-2.9999999999999997e-05,-0.00011999999999999999,-1e-05,7e-05,5e-05,1e-05,3
10800,11308,2.9999999999999997e-05,-2e-05,-2.9999999999999997e-05,-0.00011999999999999999,-1e-05,7e-05,5e-05,1e-05,3
10801,11309,0.00015,2.9999999999999997e-05,5.9999999999999995e-05,0.00016,0.0001,0.00023999999999999998,-5.9999999999999995e-05,0.00011,3
10802,11310,-5e-05,-5e-05,-0.00029,-7e-05,-0.00015,-2e-05,5e-05,1e-05,3
10803,11311,-5e-05,-5e-05,-0.00029,-7e-05,-0.00015,-2e-05,5e-05,1e-05,3
10804,11312,-5e-05,-5e-05,-0.00029,-7e-05,-0.00015,-2e-05,5e-05,1e-05,3
10805,11313,-5e-05,-5e-05,-0.00029,-7e-05,-0.00015,-2e-05,5e-05,1e-05,3
10806,11314,-5e-05,-5e-05,-0.00029,-7e-05,-0.00015,-2e-05,5e-05,1e-05,3
10807,11315,-5e-05,-5e-05,-0.00029,-7e-05,-0.00015,-2e-05,5e-05,1e-05,3
10808,11316,-5e-05,-5e-05,-0.00029,-7e-05,-0.00015,-2e-05,5e-05,1e-05,3
10809,11317,-5e-05,-5e-05,-0.00029,-7e-05,-0.00015,-2e-05,5e-05,1e-05,3
10810,11318,-5e-05,-5e-05,-0.00029,-7e-05,-0.00015,-2e-05,5e-05,1e-05,3
10811,11319,-5e-05,-5e-05,-0.00029,-7e-05,-0.00015,-2e-05,5e-05,1e-05,3
10812,11320,-5e-05,-5e-05,-0.00029,-7e-05,-0.00015,-2e-05,5e-05,1e-05,3
10813,11321,-5e-05,-5e-05,-0.00029,-7e-05,-0.00015,-2e-05,5e-05,1e-05,3
10814,11322,-5e-05,-5e-05,-0.00029,-7e-05,-0.00015,-2e-05,5e-05,1e-05,3
10815,11323,-5e-05,-5e-05,-0.00029,-7e-05,-0.00015,-2e-05,5e-05,1e-05,3
10816,11324,0.00011,5.9999999999999995e-05,5e-05,-0.00011999999999999999,-0.00018,1e-05,2e-05,0.0,3
10817,11325,-0.00013000000000000002,-5.9999999999999995e-05,-1e-05,5.9999999999999995e-05,0.0,1e-05,2.9999999999999997e-05,0.0,3
10818,11326,-4e-05,1e-05,5e-05,0.0001,0.0002,-0.00022,-0.00013000000000000002,-4e-05,3
10819,11327,-4e-05,1e-05,5e-05,0.0001,0.0002,-0.00022,-0.00013000000000000002,-4e-05,3
10820,11328,-4e-05,1e-05,5e-05,0.0001,0.0002,-0.00022,-0.00013000000000000002,-4e-05,3
10821,11329,-4e-05,1e-05,5e-05,0.0001,0.0002,-0.00022,-0.00013000000000000002,-4e-05,3
10822,11330,-4e-05,1e-05,5e-05,0.0001,0.0002,-0.00022,-0.00013000000000000002,-4e-05,3
10823,11331,-4e-05,1e-05,5e-05,0.0001,0.0002,-0.00022,-0.00013000000000000002,-4e-05,3
10824,11332,-4e-05,1e-05,5e-05,0.0001,0.0002,-0.00022,-0.00013000000000000002,-4e-05,3
10825,11333,-4e-05,1e-05,5e-05,0.0001,0.0002,-0.00022,-0.00013000000000000002,-4e-05,3
10826,11334,-4e-05,1e-05,5e-05,0.0001,0.0002,-0.00022,-0.00013000000000000002,-4e-05,3
10827,11335,-4e-05,1e-05,5e-05,0.0001,0.0002,-0.00022,-0.00013000000000000002,-4e-05,3
10828,11336,-4e-05,1e-05,5e-05,0.0001,0.0002,-0.00022,-0.00013000000000000002,-4e-05,3
10829,11339,-4e-05,1e-05,5e-05,0.0001,0.0002,-0.00022,-0.00013000000000000002,-4e-05,3
10830,11340,-4e-05,1e-05,5e-05,0.0001,0.0002,-0.00022,-0.00013000000000000002,-4e-05,3
10831,11341,-4e-05,1e-05,5e-05,0.0001,0.0002,-0.00022,-0.00013000000000000002,-4e-05,3
10832,11342,-4e-05,1e-05,5e-05,0.0001,0.0002,-0.00022,-0.00013000000000000002,-4e-05,3
10833,11343,-4e-05,1e-05,5e-05,0.0001,0.0002,-0.00022,-0.00013000000000000002,-4e-05,3
10834,11344,-4e-05,1e-05,5e-05,0.0001,0.0002,-0.00022,-0.00013000000000000002,-4e-05,3
10835,11345,-4e-05,1e-05,5e-05,0.0001,0.0002,-0.00022,-0.00013000000000000002,-4e-05,3
10836,11346,-4e-05,1e-05,5e-05,0.0001,0.0002,-0.00022,-0.00013000000000000002,-4e-05,3
10837,11347,2e-05,-5.9999999999999995e-05,-5e-05,0.00016999999999999999,0.00028,5.9999999999999995e-05,-7e-05,2e-05,3
10838,11348,1e-05,5e-05,0.00014,0.0001,0.0001,-0.00031,-4e-05,2e-05,3
10839,11349,1e-05,5e-05,0.00014,0.0001,0.0001,-0.00031,-4e-05,2e-05,3
10840,11350,1e-05,5e-05,0.00014,0.0001,0.0001,-0.00031,-4e-05,2e-05,3
10841,11351,1e-05,5e-05,0.00014,0.0001,0.0001,-0.00031,-4e-05,2e-05,3
10842,11352,1e-05,5e-05,0.00014,0.0001,0.0001,-0.00031,-4e-05,2e-05,3
10843,11353,1e-05,5e-05,0.00014,0.0001,0.0001,-0.00031,-4e-05,2e-05,3
10844,11354,1e-05,5e-05,0.00014,0.0001,0.0001,-0.00031,-4e-05,2e-05,3
10845,11355,1e-05,5e-05,0.00014,0.0001,0.0001,-0.00031,-4e-05,2e-05,3
10846,11356,1e-05,5e-05,0.00014,0.0001,0.0001,-0.00031,-4e-05,2e-05,3
10847,11357,1e-05,5e-05,0.00014,0.0001,0.0001,-0.00031,-4e-05,2e-05,3
10848,11358,1e-05,5e-05,0.00014,0.0001,0.0001,-0.00031,-4e-05,2e-05,3
10849,11359,1e-05,5e-05,0.00014,0.0001,0.0001,-0.00031,-4e-05,2e-05,3
10850,11360,1e-05,5e-05,0.00014,0.0001,0.0001,-0.00031,-4e-05,2e-05,3
10851,11361,1e-05,5e-05,0.00014,0.0001,0.0001,-0.00031,-4e-05,2e-05,3
10852,11362,1e-05,5e-05,0.00014,0.0001,0.0001,-0.00031,-4e-05,2e-05,3
10853,11363,1e-05,5e-05,0.00014,0.0001,0.0001,-0.00031,-4e-05,2e-05,3
10854,11364,1e-05,5e-05,0.00014,0.0001,0.0001,-0.00031,-4e-05,2e-05,3
10855,11365,1e-05,5e-05,0.00014,0.0001,0.0001,-0.00031,-4e-05,2e-05,3
10856,11366,1e-05,5e-05,0.00014,0.0001,0.0001,-0.00031,-4e-05,2e-05,3
10857,11367,1e-05,5e-05,0.00014,0.0001,0.0001,-0.00031,-4e-05,2e-05,3
10858,11368,1e-05,5e-05,0.00014,0.0001,0.0001,-0.00031,-4e-05,2e-05,3
10859,11369,-9e-05,0.0,1e-05,-7e-05,0.00023999999999999998,0.00054,0.00027,-2e-05,3
10860,11370,-9e-05,0.0,1e-05,-7e-05,0.00023999999999999998,0.00054,0.00027,-2e-05,3
10861,11371,-2e-05,-5.9999999999999995e-05,-5e-05,-2e-05,-0.00011999999999999999,-0.0001,-2e-05,-5e-05,3
10862,11372,-2e-05,-5.9999999999999995e-05,-5e-05,-2e-05,-0.00011999999999999999,-0.0001,-2e-05,-5e-05,3
10863,11373,-2e-05,-5.9999999999999995e-05,-5e-05,-2e-05,-0.00011999999999999999,-0.0001,-2e-05,-5e-05,3
10864,11375,-2e-05,-5.9999999999999995e-05,-5e-05,-2e-05,-0.00011999999999999999,-0.0001,-2e-05,-5e-05,3
10865,11376,-2e-05,-5.9999999999999995e-05,-5e-05,-2e-05,-0.00011999999999999999,-0.0001,-2e-05,-5e-05,3
10866,11377,-2e-05,-5.9999999999999995e-05,-5e-05,-2e-05,-0.00011999999999999999,-0.0001,-2e-05,-5e-05,3
10867,11378,-2e-05,-5.9999999999999995e-05,-5e-05,-2e-05,-0.00011999999999999999,-0.0001,-2e-05,-5e-05,3
10868,11379,-2e-05,-5.9999999999999995e-05,-5e-05,-2e-05,-0.00011999999999999999,-0.0001,-2e-05,-5e-05,3
10869,11380,-2e-05,-5.9999999999999995e-05,-5e-05,-2e-05,-0.00011999999999999999,-0.0001,-2e-05,-5e-05,3
10870,11381,-2e-05,-5.9999999999999995e-05,-5e-05,-2e-05,-0.00011999999999999999,-0.0001,-2e-05,-5e-05,3
10871,11382,-2e-05,-5.9999999999999995e-05,-5e-05,-2e-05,-0.00011999999999999999,-0.0001,-2e-05,-5e-05,3
10872,11383,-2e-05,-5.9999999999999995e-05,-5e-05,-2e-05,-0.00011999999999999999,-0.0001,-2e-05,-5e-05,3
10873,11384,9e-05,0.0,0.0,0.00011,5e-05,0.00044,0.00013000000000000002,7e-05,3
10874,11385,9e-05,0.0,0.0,0.00011,5e-05,0.00044,0.00013000000000000002,7e-05,3
10875,11386,2.9999999999999997e-05,2.9999999999999997e-05,5e-05,0.00022999999999999998,-7e-05,-0.00027,-2.9999999999999997e-05,0.0,3
10876,11389,2.9999999999999997e-05,2.9999999999999997e-05,5e-05,0.00022999999999999998,-7e-05,-0.00027,-2.9999999999999997e-05,0.0,3
10877,11390,2.9999999999999997e-05,2.9999999999999997e-05,5e-05,0.00022999999999999998,-7e-05,-0.00027,-2.9999999999999997e-05,0.0,3
10878,11391,2.9999999999999997e-05,2.9999999999999997e-05,5e-05,0.00022999999999999998,-7e-05,-0.00027,-2.9999999999999997e-05,0.0,3
10879,11392,2.9999999999999997e-05,2.9999999999999997e-05,5e-05,0.00022999999999999998,-7e-05,-0.00027,-2.9999999999999997e-05,0.0,3
10880,11393,2.9999999999999997e-05,2.9999999999999997e-05,5e-05,0.00022999999999999998,-7e-05,-0.00027,-2.9999999999999997e-05,0.0,3
10881,11394,2.9999999999999997e-05,2.9999999999999997e-05,5e-05,0.00022999999999999998,-7e-05,-0.00027,-2.9999999999999997e-05,0.0,3
10882,11395,2.9999999999999997e-05,2.9999999999999997e-05,5e-05,0.00022999999999999998,-7e-05,-0.00027,-2.9999999999999997e-05,0.0,3
10883,11396,2.9999999999999997e-05,2.9999999999999997e-05,5e-05,0.00022999999999999998,-7e-05,-0.00027,-2.9999999999999997e-05,0.0,3
10884,11397,2.9999999999999997e-05,2.9999999999999997e-05,5e-05,0.00022999999999999998,-7e-05,-0.00027,-2.9999999999999997e-05,0.0,3
10885,11398,2.9999999999999997e-05,2.9999999999999997e-05,5e-05,0.00022999999999999998,-7e-05,-0.00027,-2.9999999999999997e-05,0.0,3
10886,11399,2.9999999999999997e-05,2.9999999999999997e-05,5e-05,0.00022999999999999998,-7e-05,-0.00027,-2.9999999999999997e-05,0.0,3
10887,11400,2.9999999999999997e-05,2.9999999999999997e-05,5e-05,0.00022999999999999998,-7e-05,-0.00027,-2.9999999999999997e-05,0.0,3
10888,11401,2.9999999999999997e-05,2.9999999999999997e-05,5e-05,0.00022999999999999998,-7e-05,-0.00027,-2.9999999999999997e-05,0.0,3
10889,11402,2.9999999999999997e-05,2.9999999999999997e-05,5e-05,0.00022999999999999998,-7e-05,-0.00027,-2.9999999999999997e-05,0.0,3
10890,11403,2.9999999999999997e-05,2.9999999999999997e-05,5e-05,0.00022999999999999998,-7e-05,-0.00027,-2.9999999999999997e-05,0.0,3
10891,11404,2.9999999999999997e-05,2.9999999999999997e-05,5e-05,0.00022999999999999998,-7e-05,-0.00027,-2.9999999999999997e-05,0.0,3
10892,11405,2.9999999999999997e-05,2.9999999999999997e-05,5e-05,0.00022999999999999998,-7e-05,-0.00027,-2.9999999999999997e-05,0.0,3
10893,11406,2.9999999999999997e-05,2.9999999999999997e-05,5e-05,0.00022999999999999998,-7e-05,-0.00027,-2.9999999999999997e-05,0.0,3
10894,11407,2.9999999999999997e-05,2.9999999999999997e-05,5e-05,0.00022999999999999998,-7e-05,-0.00027,-2.9999999999999997e-05,0.0,3
10895,11408,2.9999999999999997e-05,2.9999999999999997e-05,5e-05,0.00022999999999999998,-7e-05,-0.00027,-2.9999999999999997e-05,0.0,3
10896,11409,2.9999999999999997e-05,2.9999999999999997e-05,5e-05,0.00022999999999999998,-7e-05,-0.00027,-2.9999999999999997e-05,0.0,3
10897,11410,2.9999999999999997e-05,2.9999999999999997e-05,5e-05,0.00022999999999999998,-7e-05,-0.00027,-2.9999999999999997e-05,0.0,3
10898,11411,2.9999999999999997e-05,2.9999999999999997e-05,5e-05,0.00022999999999999998,-7e-05,-0.00027,-2.9999999999999997e-05,0.0,3
10899,11412,2.9999999999999997e-05,2.9999999999999997e-05,5e-05,0.00022999999999999998,-7e-05,-0.00027,-2.9999999999999997e-05,0.0,3
10900,11413,2.9999999999999997e-05,2.9999999999999997e-05,5e-05,0.00022999999999999998,-7e-05,-0.00027,-2.9999999999999997e-05,0.0,3
10901,11414,1e-05,0.0,-1e-05,0.0,-2.9999999999999997e-05,-0.00026000000000000003,0.00011,-2.9999999999999997e-05,3
10902,11415,-7e-05,-4e-05,-8e-05,-7e-05,-7e-05,0.0005200000000000001,0.0,-2e-05,3
10903,11416,1e-05,-4e-05,-8e-05,-0.00026000000000000003,-0.00013000000000000002,-0.00047000000000000004,-5.9999999999999995e-05,-5e-05,3
10904,11417,1e-05,-4e-05,-8e-05,-0.00026000000000000003,-0.00013000000000000002,-0.00047000000000000004,-5.9999999999999995e-05,-5e-05,3
10905,11418,1e-05,-4e-05,-8e-05,-0.00026000000000000003,-0.00013000000000000002,-0.00047000000000000004,-5.9999999999999995e-05,-5e-05,3
10906,11419,1e-05,-4e-05,-8e-05,-0.00026000000000000003,-0.00013000000000000002,-0.00047000000000000004,-5.9999999999999995e-05,-5e-05,3
10907,11420,1e-05,-4e-05,-8e-05,-0.00026000000000000003,-0.00013000000000000002,-0.00047000000000000004,-5.9999999999999995e-05,-5e-05,3
10908,11421,-0.00027,2e-05,2e-05,0.00022,0.00013000000000000002,0.00018999999999999998,-8e-05,-5e-05,3
10909,11422,-0.00027,2e-05,2e-05,0.00022,0.00013000000000000002,0.00018999999999999998,-8e-05,-5e-05,3
10910,11423,-0.00027,2e-05,2e-05,0.00022,0.00013000000000000002,0.00018999999999999998,-8e-05,-5e-05,3
10911,11424,-0.00027,2e-05,2e-05,0.00022,0.00013000000000000002,0.00018999999999999998,-8e-05,-5e-05,3
10912,11425,-0.00027,2e-05,2e-05,0.00022,0.00013000000000000002,0.00018999999999999998,-8e-05,-5e-05,3
10913,11426,-0.00027,2e-05,2e-05,0.00022,0.00013000000000000002,0.00018999999999999998,-8e-05,-5e-05,3
10914,11427,-0.00027,2e-05,2e-05,0.00022,0.00013000000000000002,0.00018999999999999998,-8e-05,-5e-05,3
10915,11428,2e-05,-5e-05,-4e-05,-0.00011999999999999999,-1e-05,0.00022999999999999998,0.0001,1e-05,3
10916,11429,2e-05,-5e-05,-4e-05,-0.00011999999999999999,-1e-05,0.00022999999999999998,0.0001,1e-05,3
10917,11430,2e-05,-5e-05,-4e-05,-0.00011999999999999999,-1e-05,0.00022999999999999998,0.0001,1e-05,3
10918,11431,2e-05,-5e-05,-4e-05,-0.00011999999999999999,-1e-05,0.00022999999999999998,0.0001,1e-05,3
10919,11432,2e-05,-5e-05,-4e-05,-0.00011999999999999999,-1e-05,0.00022999999999999998,0.0001,1e-05,3
10920,11433,2e-05,-5e-05,-4e-05,-0.00011999999999999999,-1e-05,0.00022999999999999998,0.0001,1e-05,3
10921,11434,2e-05,-5e-05,-4e-05,-0.00011999999999999999,-1e-05,0.00022999999999999998,0.0001,1e-05,3
10922,11435,2e-05,-5e-05,-4e-05,-0.00011999999999999999,-1e-05,0.00022999999999999998,0.0001,1e-05,3
10923,11436,2e-05,-5e-05,-4e-05,-0.00011999999999999999,-1e-05,0.00022999999999999998,0.0001,1e-05,3
10924,11439,2e-05,-5e-05,-4e-05,-0.00011999999999999999,-1e-05,0.00022999999999999998,0.0001,1e-05,3
10925,11440,2e-05,-5e-05,-4e-05,-0.00011999999999999999,-1e-05,0.00022999999999999998,0.0001,1e-05,3
10926,11441,2e-05,-5e-05,-4e-05,-0.00011999999999999999,-1e-05,0.00022999999999999998,0.0001,1e-05,3
10927,11442,2e-05,-5e-05,-4e-05,-0.00011999999999999999,-1e-05,0.00022999999999999998,0.0001,1e-05,3
10928,11443,2e-05,-5e-05,-4e-05,-0.00011999999999999999,-1e-05,0.00022999999999999998,0.0001,1e-05,3
10929,11444,-4e-05,-7e-05,-5e-05,-8e-05,9e-05,-8e-05,-0.00011,0.0,3
10930,11445,-4e-05,-7e-05,-5e-05,-8e-05,9e-05,-8e-05,-0.00011,0.0,3
10931,11446,-4e-05,-1e-05,0.0,-8e-05,2.9999999999999997e-05,2.9999999999999997e-05,-5.9999999999999995e-05,-5.9999999999999995e-05,3
10932,11447,-4e-05,-1e-05,0.0,-8e-05,2.9999999999999997e-05,2.9999999999999997e-05,-5.9999999999999995e-05,-5.9999999999999995e-05,3
10933,11448,-4e-05,-1e-05,0.0,-8e-05,2.9999999999999997e-05,2.9999999999999997e-05,-5.9999999999999995e-05,-5.9999999999999995e-05,3
10934,11449,-4e-05,-1e-05,0.0,-8e-05,2.9999999999999997e-05,2.9999999999999997e-05,-5.9999999999999995e-05,-5.9999999999999995e-05,3
10935,11450,-4e-05,-1e-05,0.0,-8e-05,2.9999999999999997e-05,2.9999999999999997e-05,-5.9999999999999995e-05,-5.9999999999999995e-05,3
10936,11451,-4e-05,-1e-05,0.0,-8e-05,2.9999999999999997e-05,2.9999999999999997e-05,-5.9999999999999995e-05,-5.9999999999999995e-05,3
10937,11452,-4e-05,-1e-05,0.0,-8e-05,2.9999999999999997e-05,2.9999999999999997e-05,-5.9999999999999995e-05,-5.9999999999999995e-05,3
10938,11453,-4e-05,-1e-05,0.0,-8e-05,2.9999999999999997e-05,2.9999999999999997e-05,-5.9999999999999995e-05,-5.9999999999999995e-05,3
10939,11454,-4e-05,-1e-05,0.0,-8e-05,2.9999999999999997e-05,2.9999999999999997e-05,-5.9999999999999995e-05,-5.9999999999999995e-05,3
10940,11455,-4e-05,-1e-05,0.0,-8e-05,2.9999999999999997e-05,2.9999999999999997e-05,-5.9999999999999995e-05,-5.9999999999999995e-05,3
10941,11456,-4e-05,-1e-05,0.0,-8e-05,2.9999999999999997e-05,2.9999999999999997e-05,-5.9999999999999995e-05,-5.9999999999999995e-05,3
10942,11457,-4e-05,-1e-05,0.0,-8e-05,2.9999999999999997e-05,2.9999999999999997e-05,-5.9999999999999995e-05,-5.9999999999999995e-05,3
10943,11458,-4e-05,-1e-05,0.0,-8e-05,2.9999999999999997e-05,2.9999999999999997e-05,-5.9999999999999995e-05,-5.9999999999999995e-05,3
10944,11459,-4e-05,-1e-05,0.0,-8e-05,2.9999999999999997e-05,2.9999999999999997e-05,-5.9999999999999995e-05,-5.9999999999999995e-05,3
10945,11460,-4e-05,-1e-05,0.0,-8e-05,2.9999999999999997e-05,2.9999999999999997e-05,-5.9999999999999995e-05,-5.9999999999999995e-05,3
10946,11461,-4e-05,-1e-05,0.0,-8e-05,2.9999999999999997e-05,2.9999999999999997e-05,-5.9999999999999995e-05,-5.9999999999999995e-05,3
10947,11462,-4e-05,-1e-05,0.0,-8e-05,2.9999999999999997e-05,2.9999999999999997e-05,-5.9999999999999995e-05,-5.9999999999999995e-05,3
10948,11463,-4e-05,-1e-05,0.0,-8e-05,2.9999999999999997e-05,2.9999999999999997e-05,-5.9999999999999995e-05,-5.9999999999999995e-05,3
10949,11464,-4e-05,-1e-05,0.0,-8e-05,2.9999999999999997e-05,2.9999999999999997e-05,-5.9999999999999995e-05,-5.9999999999999995e-05,3
10950,11465,-4e-05,-1e-05,0.0,-8e-05,2.9999999999999997e-05,2.9999999999999997e-05,-5.9999999999999995e-05,-5.9999999999999995e-05,3
10951,11466,-4e-05,-1e-05,0.0,-8e-05,2.9999999999999997e-05,2.9999999999999997e-05,-5.9999999999999995e-05,-5.9999999999999995e-05,3
10952,11467,2.9999999999999997e-05,-2e-05,-1e-05,1e-05,-0.00032,-0.00036,-4e-05,1e-05,3
10953,11468,4e-05,-2.9999999999999997e-05,-1e-05,-5.9999999999999995e-05,0.00027,0.00025,8e-05,0.0,3
10954,11469,4e-05,-2.9999999999999997e-05,-1e-05,-5.9999999999999995e-05,0.00027,0.00025,8e-05,0.0,3
10955,11470,4e-05,-2.9999999999999997e-05,-1e-05,-5.9999999999999995e-05,0.00027,0.00025,8e-05,0.0,3
10956,11471,4e-05,-2.9999999999999997e-05,-1e-05,-5.9999999999999995e-05,0.00027,0.00025,8e-05,0.0,3
10957,11472,4e-05,-2.9999999999999997e-05,-1e-05,-5.9999999999999995e-05,0.00027,0.00025,8e-05,0.0,3
10958,11473,4e-05,-2.9999999999999997e-05,-1e-05,-5.9999999999999995e-05,0.00027,0.00025,8e-05,0.0,3
10959,11474,4e-05,-2.9999999999999997e-05,-1e-05,-5.9999999999999995e-05,0.00027,0.00025,8e-05,0.0,3
10960,11475,4e-05,-2.9999999999999997e-05,-1e-05,-5.9999999999999995e-05,0.00027,0.00025,8e-05,0.0,3
10961,11476,4e-05,-2.9999999999999997e-05,-1e-05,-5.9999999999999995e-05,0.00027,0.00025,8e-05,0.0,3
10962,11477,4e-05,-2.9999999999999997e-05,-1e-05,-5.9999999999999995e-05,0.00027,0.00025,8e-05,0.0,3
10963,11478,4e-05,-2.9999999999999997e-05,-1e-05,-5.9999999999999995e-05,0.00027,0.00025,8e-05,0.0,3
10964,11479,4e-05,-2.9999999999999997e-05,-1e-05,-5.9999999999999995e-05,0.00027,0.00025,8e-05,0.0,3
10965,11480,4e-05,-2.9999999999999997e-05,-1e-05,-5.9999999999999995e-05,0.00027,0.00025,8e-05,0.0,3
10966,11481,4e-05,-2.9999999999999997e-05,-1e-05,-5.9999999999999995e-05,0.00027,0.00025,8e-05,0.0,3
10967,11482,-0.00027,-5e-05,-5.9999999999999995e-05,-0.00011,8e-05,-0.0002,0.0001,-5e-05,3
10968,11483,-0.00027,-5e-05,-5.9999999999999995e-05,-0.00011,8e-05,-0.0002,0.0001,-5e-05,3
10969,11484,-0.00027,-5e-05,-5.9999999999999995e-05,-0.00011,8e-05,-0.0002,0.0001,-5e-05,3
10970,11485,-0.00027,-5e-05,-5.9999999999999995e-05,-0.00011,8e-05,-0.0002,0.0001,-5e-05,3
10971,11486,-0.00027,-5e-05,-5.9999999999999995e-05,-0.00011,8e-05,-0.0002,0.0001,-5e-05,3
10972,11489,-0.00027,-5e-05,-5.9999999999999995e-05,-0.00011,8e-05,-0.0002,0.0001,-5e-05,3
10973,11490,-4e-05,2e-05,1e-05,0.00011999999999999999,5e-05,0.00035,-2e-05,-2.9999999999999997e-05,3
10974,11492,-4e-05,2e-05,1e-05,0.00011999999999999999,5e-05,0.00035,-2e-05,-2.9999999999999997e-05,3
10975,11493,-4e-05,2e-05,1e-05,0.00011999999999999999,5e-05,0.00035,-2e-05,-2.9999999999999997e-05,3
10976,11494,-4e-05,2e-05,1e-05,0.00011999999999999999,5e-05,0.00035,-2e-05,-2.9999999999999997e-05,3
10977,11495,-4e-05,2e-05,1e-05,0.00011999999999999999,5e-05,0.00035,-2e-05,-2.9999999999999997e-05,3
10978,11496,-4e-05,2e-05,1e-05,0.00011999999999999999,5e-05,0.00035,-2e-05,-2.9999999999999997e-05,3
10979,11497,-4e-05,2e-05,1e-05,0.00011999999999999999,5e-05,0.00035,-2e-05,-2.9999999999999997e-05,3
10980,11498,-4e-05,2e-05,1e-05,0.00011999999999999999,5e-05,0.00035,-2e-05,-2.9999999999999997e-05,3
10981,11499,-4e-05,2e-05,1e-05,0.00011999999999999999,5e-05,0.00035,-2e-05,-2.9999999999999997e-05,3
10982,11500,-4e-05,2e-05,1e-05,0.00011999999999999999,5e-05,0.00035,-2e-05,-2.9999999999999997e-05,3
10983,11501,-4e-05,2e-05,1e-05,0.00011999999999999999,5e-05,0.00035,-2e-05,-2.9999999999999997e-05,3
10984,11502,-4e-05,2e-05,1e-05,0.00011999999999999999,5e-05,0.00035,-2e-05,-2.9999999999999997e-05,3
10985,11505,0.00023999999999999998,2e-05,1e-05,0.00018,4e-05,8e-05,-0.00022999999999999998,-2e-05,3
10986,11506,-9e-05,-4e-05,-5.9999999999999995e-05,0.0003,-0.00027,-0.00015,0.0001,1e-05,3
10987,11507,-9e-05,-4e-05,-5.9999999999999995e-05,0.0003,-0.00027,-0.00015,0.0001,1e-05,3
10988,11508,-9e-05,-4e-05,-5.9999999999999995e-05,0.0003,-0.00027,-0.00015,0.0001,1e-05,3
10989,11509,-9e-05,-4e-05,-5.9999999999999995e-05,0.0003,-0.00027,-0.00015,0.0001,1e-05,3
10990,11510,-9e-05,-4e-05,-5.9999999999999995e-05,0.0003,-0.00027,-0.00015,0.0001,1e-05,3
10991,11511,-9e-05,-4e-05,-5.9999999999999995e-05,0.0003,-0.00027,-0.00015,0.0001,1e-05,3
10992,11512,-9e-05,-4e-05,-5.9999999999999995e-05,0.0003,-0.00027,-0.00015,0.0001,1e-05,3
10993,11513,-9e-05,-4e-05,-5.9999999999999995e-05,0.0003,-0.00027,-0.00015,0.0001,1e-05,3
10994,11514,-9e-05,-4e-05,-5.9999999999999995e-05,0.0003,-0.00027,-0.00015,0.0001,1e-05,3
10995,11515,-9e-05,-4e-05,-5.9999999999999995e-05,0.0003,-0.00027,-0.00015,0.0001,1e-05,3
10996,11516,-9e-05,-4e-05,-5.9999999999999995e-05,0.0003,-0.00027,-0.00015,0.0001,1e-05,3
10997,11517,-9e-05,-4e-05,-5.9999999999999995e-05,0.0003,-0.00027,-0.00015,0.0001,1e-05,3
10998,11518,-9e-05,-4e-05,-5.9999999999999995e-05,0.0003,-0.00027,-0.00015,0.0001,1e-05,3
10999,11519,-9e-05,-4e-05,-5.9999999999999995e-05,0.0003,-0.00027,-0.00015,0.0001,1e-05,3
11000,11520,-9e-05,-4e-05,-5.9999999999999995e-05,0.0003,-0.00027,-0.00015,0.0001,1e-05,3
11001,11521,-9e-05,-4e-05,-5.9999999999999995e-05,0.0003,-0.00027,-0.00015,0.0001,1e-05,3
11002,11522,-9e-05,-4e-05,-5.9999999999999995e-05,0.0003,-0.00027,-0.00015,0.0001,1e-05,3
11003,11523,-9e-05,-4e-05,-5.9999999999999995e-05,0.0003,-0.00027,-0.00015,0.0001,1e-05,3
11004,11524,-9e-05,-4e-05,-5.9999999999999995e-05,0.0003,-0.00027,-0.00015,0.0001,1e-05,3
11005,11525,-9e-05,-4e-05,-5.9999999999999995e-05,0.0003,-0.00027,-0.00015,0.0001,1e-05,3
11006,11526,-9e-05,-4e-05,-5.9999999999999995e-05,0.0003,-0.00027,-0.00015,0.0001,1e-05,3
11007,11527,-9e-05,-4e-05,-5.9999999999999995e-05,0.0003,-0.00027,-0.00015,0.0001,1e-05,3
11008,11528,0.00013000000000000002,-1e-05,-5e-05,-0.00011999999999999999,0.00011,0.00042,-0.0001,-5e-05,3
11009,11529,0.00013000000000000002,-1e-05,-5e-05,-0.00011999999999999999,0.00011,0.00042,-0.0001,-5e-05,3
11010,11530,0.00013000000000000002,-1e-05,-5e-05,-0.00011999999999999999,0.00011,0.00042,-0.0001,-5e-05,3
11011,11531,0.00013000000000000002,-1e-05,-5e-05,-0.00011999999999999999,0.00011,0.00042,-0.0001,-5e-05,3
11012,11532,0.00013000000000000002,-1e-05,-5e-05,-0.00011999999999999999,0.00011,0.00042,-0.0001,-5e-05,3
11013,11533,0.00013000000000000002,-1e-05,-5e-05,-0.00011999999999999999,0.00011,0.00042,-0.0001,-5e-05,3
11014,11534,0.00013000000000000002,-1e-05,-5e-05,-0.00011999999999999999,0.00011,0.00042,-0.0001,-5e-05,3
11015,11535,0.00013000000000000002,-1e-05,-5e-05,-0.00011999999999999999,0.00011,0.00042,-0.0001,-5e-05,3
11016,11536,0.00013000000000000002,-1e-05,-5e-05,-0.00011999999999999999,0.00011,0.00042,-0.0001,-5e-05,3
11017,11539,0.00013000000000000002,-1e-05,-5e-05,-0.00011999999999999999,0.00011,0.00042,-0.0001,-5e-05,3
11018,11540,0.00013000000000000002,-1e-05,-5e-05,-0.00011999999999999999,0.00011,0.00042,-0.0001,-5e-05,3
11019,11541,0.00013000000000000002,-1e-05,-5e-05,-0.00011999999999999999,0.00011,0.00042,-0.0001,-5e-05,3
11020,11542,0.00013000000000000002,-1e-05,-5e-05,-0.00011999999999999999,0.00011,0.00042,-0.0001,-5e-05,3
11021,11543,0.00013000000000000002,-1e-05,-5e-05,-0.00011999999999999999,0.00011,0.00042,-0.0001,-5e-05,3
11022,11544,4e-05,2.9999999999999997e-05,5.9999999999999995e-05,0.00073,0.00025,-4e-05,2e-05,1e-05,3
11023,11545,4e-05,2.9999999999999997e-05,5.9999999999999995e-05,0.00073,0.00025,-4e-05,2e-05,1e-05,3
11024,11546,4e-05,2.9999999999999997e-05,5.9999999999999995e-05,0.00073,0.00025,-4e-05,2e-05,1e-05,3
11025,11547,4e-05,2.9999999999999997e-05,5.9999999999999995e-05,0.00073,0.00025,-4e-05,2e-05,1e-05,3
11026,11548,4e-05,2.9999999999999997e-05,5.9999999999999995e-05,0.00073,0.00025,-4e-05,2e-05,1e-05,3
11027,11549,0.0001,4e-05,5e-05,5.9999999999999995e-05,-0.00011999999999999999,-0.00015,-9e-05,5e-05,3
11028,11550,0.0001,4e-05,5e-05,5.9999999999999995e-05,-0.00011999999999999999,-0.00015,-9e-05,5e-05,3
11029,11551,0.0001,4e-05,5e-05,5.9999999999999995e-05,-0.00011999999999999999,-0.00015,-9e-05,5e-05,3
11030,11552,0.0001,4e-05,5e-05,5.9999999999999995e-05,-0.00011999999999999999,-0.00015,-9e-05,5e-05,3
11031,11554,0.0001,4e-05,5e-05,5.9999999999999995e-05,-0.00011999999999999999,-0.00015,-9e-05,5e-05,3
11032,11555,0.0001,4e-05,5e-05,5.9999999999999995e-05,-0.00011999999999999999,-0.00015,-9e-05,5e-05,3
11033,11556,0.0001,4e-05,5e-05,5.9999999999999995e-05,-0.00011999999999999999,-0.00015,-9e-05,5e-05,3
11034,11557,0.0001,4e-05,5e-05,5.9999999999999995e-05,-0.00011999999999999999,-0.00015,-9e-05,5e-05,3
11035,11558,0.0001,4e-05,5e-05,5.9999999999999995e-05,-0.00011999999999999999,-0.00015,-9e-05,5e-05,3
11036,11559,0.0001,4e-05,5e-05,5.9999999999999995e-05,-0.00011999999999999999,-0.00015,-9e-05,5e-05,3
11037,11560,0.0001,4e-05,5e-05,5.9999999999999995e-05,-0.00011999999999999999,-0.00015,-9e-05,5e-05,3
11038,11561,0.0001,4e-05,5e-05,5.9999999999999995e-05,-0.00011999999999999999,-0.00015,-9e-05,5e-05,3
11039,11562,0.0001,4e-05,5e-05,5.9999999999999995e-05,-0.00011999999999999999,-0.00015,-9e-05,5e-05,3
11040,11563,0.0001,4e-05,5e-05,5.9999999999999995e-05,-0.00011999999999999999,-0.00015,-9e-05,5e-05,3
11041,11564,0.0001,4e-05,5e-05,5.9999999999999995e-05,-0.00011999999999999999,-0.00015,-9e-05,5e-05,3
11042,11565,9e-05,2e-05,0.0,-0.00029,-0.00021,0.00021,0.00013000000000000002,-2e-05,3
11043,11566,2.9999999999999997e-05,1e-05,-2e-05,0.00011999999999999999,0.00022999999999999998,-0.00014,-7e-05,1e-05,3
11044,11567,2.9999999999999997e-05,1e-05,-2e-05,0.00011999999999999999,0.00022999999999999998,-0.00014,-7e-05,1e-05,3
11045,11568,2.9999999999999997e-05,1e-05,-2e-05,0.00011999999999999999,0.00022999999999999998,-0.00014,-7e-05,1e-05,3
11046,11569,2.9999999999999997e-05,1e-05,-2e-05,0.00011999999999999999,0.00022999999999999998,-0.00014,-7e-05,1e-05,3
11047,11570,2.9999999999999997e-05,1e-05,-2e-05,0.00011999999999999999,0.00022999999999999998,-0.00014,-7e-05,1e-05,3
11048,11571,2.9999999999999997e-05,1e-05,-2e-05,0.00011999999999999999,0.00022999999999999998,-0.00014,-7e-05,1e-05,3
11049,11572,2.9999999999999997e-05,1e-05,-2e-05,0.00011999999999999999,0.00022999999999999998,-0.00014,-7e-05,1e-05,3
11050,11573,2.9999999999999997e-05,1e-05,-2e-05,0.00011999999999999999,0.00022999999999999998,-0.00014,-7e-05,1e-05,3
11051,11574,2.9999999999999997e-05,1e-05,-2e-05,0.00011999999999999999,0.00022999999999999998,-0.00014,-7e-05,1e-05,3
11052,11575,2.9999999999999997e-05,1e-05,-2e-05,0.00011999999999999999,0.00022999999999999998,-0.00014,-7e-05,1e-05,3
11053,11576,2.9999999999999997e-05,1e-05,-2e-05,0.00011999999999999999,0.00022999999999999998,-0.00014,-7e-05,1e-05,3
11054,11577,2.9999999999999997e-05,1e-05,-2e-05,0.00011999999999999999,0.00022999999999999998,-0.00014,-7e-05,1e-05,3
11055,11578,2.9999999999999997e-05,1e-05,-2e-05,0.00011999999999999999,0.00022999999999999998,-0.00014,-7e-05,1e-05,3
11056,11579,2.9999999999999997e-05,1e-05,-2e-05,0.00011999999999999999,0.00022999999999999998,-0.00014,-7e-05,1e-05,3
11057,11580,2.9999999999999997e-05,1e-05,-2e-05,0.00011999999999999999,0.00022999999999999998,-0.00014,-7e-05,1e-05,3
11058,11581,2.9999999999999997e-05,1e-05,-2e-05,0.00011999999999999999,0.00022999999999999998,-0.00014,-7e-05,1e-05,3
11059,11582,2.9999999999999997e-05,1e-05,-2e-05,0.00011999999999999999,0.00022999999999999998,-0.00014,-7e-05,1e-05,3
11060,11583,2.9999999999999997e-05,1e-05,-2e-05,0.00011999999999999999,0.00022999999999999998,-0.00014,-7e-05,1e-05,3
11061,11584,2.9999999999999997e-05,1e-05,-2e-05,0.00011999999999999999,0.00022999999999999998,-0.00014,-7e-05,1e-05,3
11062,11585,2.9999999999999997e-05,1e-05,-2e-05,0.00011999999999999999,0.00022999999999999998,-0.00014,-7e-05,1e-05,3
11063,11587,-2e-05,-0.0001,-2e-05,5e-05,-0.00016999999999999999,-0.00033,-0.00013000000000000002,-4e-05,3
11064,11590,-5e-05,-7e-05,-5e-05,-0.00018,-2e-05,2.9999999999999997e-05,-2e-05,-1e-05,3
11065,11591,-5e-05,-7e-05,-5e-05,-0.00018,-2e-05,2.9999999999999997e-05,-2e-05,-1e-05,3
11066,11592,-5e-05,-7e-05,-5e-05,-0.00018,-2e-05,2.9999999999999997e-05,-2e-05,-1e-05,3
11067,11593,-5e-05,-7e-05,-5e-05,-0.00018,-2e-05,2.9999999999999997e-05,-2e-05,-1e-05,3
11068,11594,-5e-05,-7e-05,-5e-05,-0.00018,-2e-05,2.9999999999999997e-05,-2e-05,-1e-05,3
11069,11595,-5e-05,-7e-05,-5e-05,-0.00018,-2e-05,2.9999999999999997e-05,-2e-05,-1e-05,3
11070,11596,-5e-05,-7e-05,-5e-05,-0.00018,-2e-05,2.9999999999999997e-05,-2e-05,-1e-05,3
11071,11597,-5e-05,-7e-05,-5e-05,-0.00018,-2e-05,2.9999999999999997e-05,-2e-05,-1e-05,3
11072,11598,-5e-05,-7e-05,-5e-05,-0.00018,-2e-05,2.9999999999999997e-05,-2e-05,-1e-05,3
11073,11599,-5e-05,-7e-05,-5e-05,-0.00018,-2e-05,2.9999999999999997e-05,-2e-05,-1e-05,3
11074,11600,0.00011,1e-05,-4e-05,-0.00011999999999999999,4e-05,-0.00031,-9e-05,-1e-05,3
11075,11601,0.00011,1e-05,-4e-05,-0.00011999999999999999,4e-05,-0.00031,-9e-05,-1e-05,3
11076,11602,0.00011,1e-05,-4e-05,-0.00011999999999999999,4e-05,-0.00031,-9e-05,-1e-05,3
11077,11604,0.00011,1e-05,-4e-05,-0.00011999999999999999,4e-05,-0.00031,-9e-05,-1e-05,3
11078,11605,0.00011,1e-05,-4e-05,-0.00011999999999999999,4e-05,-0.00031,-9e-05,-1e-05,3
11079,11606,0.00011,1e-05,-4e-05,-0.00011999999999999999,4e-05,-0.00031,-9e-05,-1e-05,3
11080,11607,0.00011,1e-05,-4e-05,-0.00011999999999999999,4e-05,-0.00031,-9e-05,-1e-05,3
11081,11608,0.00011,1e-05,-4e-05,-0.00011999999999999999,4e-05,-0.00031,-9e-05,-1e-05,3
11082,11609,0.00011,1e-05,-4e-05,-0.00011999999999999999,4e-05,-0.00031,-9e-05,-1e-05,3
11083,11610,0.00011,2.9999999999999997e-05,1e-05,2e-05,0.00022999999999999998,0.00018999999999999998,-2.9999999999999997e-05,1e-05,3
11084,11611,-4e-05,-2.9999999999999997e-05,-5e-05,0.0001,4e-05,-0.00023999999999999998,-2.9999999999999997e-05,-2.9999999999999997e-05,3
11085,11612,-4e-05,-2.9999999999999997e-05,-5e-05,0.0001,4e-05,-0.00023999999999999998,-2.9999999999999997e-05,-2.9999999999999997e-05,3
11086,11613,-4e-05,-2.9999999999999997e-05,-5e-05,0.0001,4e-05,-0.00023999999999999998,-2.9999999999999997e-05,-2.9999999999999997e-05,3
11087,11614,-4e-05,-2.9999999999999997e-05,-5e-05,0.0001,4e-05,-0.00023999999999999998,-2.9999999999999997e-05,-2.9999999999999997e-05,3
11088,11615,-4e-05,-2.9999999999999997e-05,-5e-05,0.0001,4e-05,-0.00023999999999999998,-2.9999999999999997e-05,-2.9999999999999997e-05,3
11089,11616,-4e-05,-2.9999999999999997e-05,-5e-05,0.0001,4e-05,-0.00023999999999999998,-2.9999999999999997e-05,-2.9999999999999997e-05,3
