,time,channel1,channel2,channel3,channel4,channel5,channel6,channel7,channel8,class
8368,8741,0.00085,0.00013000000000000002,-9e-05,-8e-05,-0.00021,-0.00029,-0.00037999999999999997,-2.9999999999999997e-05,3
8369,8742,0.00085,0.00013000000000000002,-9e-05,-8e-05,-0.00021,-0.00029,-0.00037999999999999997,-2.9999999999999997e-05,3
8370,8743,0.00085,0.00013000000000000002,-9e-05,-8e-05,-0.00021,-0.00029,-0.00037999999999999997,-2.9999999999999997e-05,3
8371,8744,0.00085,0.00013000000000000002,-9e-05,-8e-05,-0.00021,-0.00029,-0.00037999999999999997,-2.9999999999999997e-05,3
8372,8745,0.00085,0.00013000000000000002,-9e-05,-8e-05,-0.00021,-0.00029,-0.00037999999999999997,-2.9999999999999997e-05,3
8373,8746,0.00085,0.00013000000000000002,-9e-05,-8e-05,-0.00021,-0.00029,-0.00037999999999999997,-2.9999999999999997e-05,3
8374,8747,0.00085,0.00013000000000000002,-9e-05,-8e-05,-0.00021,-0.00029,-0.00037999999999999997,-2.9999999999999997e-05,3
8375,8748,0.00085,0.00013000000000000002,-9e-05,-8e-05,-0.00021,-0.00029,-0.00037999999999999997,-2.9999999999999997e-05,3
8376,8749,0.00085,0.00013000000000000002,-9e-05,-8e-05,-0.00021,-0.00029,-0.00037999999999999997,-2.9999999999999997e-05,3
8377,8750,0.00085,0.00013000000000000002,-9e-05,-8e-05,-0.00021,-0.00029,-0.00037999999999999997,-2.9999999999999997e-05,3
8378,8751,0.00085,0.00013000000000000002,-9e-05,-8e-05,-0.00021,-0.00029,-0.00037999999999999997,-2.9999999999999997e-05,3
8379,8752,-0.00023999999999999998,7e-05,2e-05,8e-05,0.00045,0.00033,5e-05,2e-05,3
8380,8753,5.9999999999999995e-05,2.9999999999999997e-05,8e-05,0.00013000000000000002,5.9999999999999995e-05,-2e-05,0.0003,0.00036,3
8381,8754,0.00037999999999999997,2e-05,2.9999999999999997e-05,-2e-05,-0.00047999999999999996,2.9999999999999997e-05,0.00031,0.00023999999999999998,3
8382,8755,0.00037999999999999997,2e-05,2.9999999999999997e-05,-2e-05,-0.00047999999999999996,2.9999999999999997e-05,0.00031,0.00023999999999999998,3
8383,8756,0.00037999999999999997,2e-05,2.9999999999999997e-05,-2e-05,-0.00047999999999999996,2.9999999999999997e-05,0.00031,0.00023999999999999998,3
8384,8757,0.00037999999999999997,2e-05,2.9999999999999997e-05,-2e-05,-0.00047999999999999996,2.9999999999999997e-05,0.00031,0.00023999999999999998,3
8385,8758,0.00037999999999999997,2e-05,2.9999999999999997e-05,-2e-05,-0.00047999999999999996,2.9999999999999997e-05,0.00031,0.00023999999999999998,3
8386,8759,0.00037999999999999997,2e-05,2.9999999999999997e-05,-2e-05,-0.00047999999999999996,2.9999999999999997e-05,0.00031,0.00023999999999999998,3
8387,8760,0.00037999999999999997,2e-05,2.9999999999999997e-05,-2e-05,-0.00047999999999999996,2.9999999999999997e-05,0.00031,0.00023999999999999998,3
8388,8761,0.00037999999999999997,2e-05,2.9999999999999997e-05,-2e-05,-0.00047999999999999996,2.9999999999999997e-05,0.00031,0.00023999999999999998,3
8389,8762,0.00037999999999999997,2e-05,2.9999999999999997e-05,-2e-05,-0.00047999999999999996,2.9999999999999997e-05,0.00031,0.00023999999999999998,3
8390,8763,0.00037999999999999997,2e-05,2.9999999999999997e-05,-2e-05,-0.00047999999999999996,2.9999999999999997e-05,0.00031,0.00023999999999999998,3
8391,8764,0.00037999999999999997,2e-05,2.9999999999999997e-05,-2e-05,-0.00047999999999999996,2.9999999999999997e-05,0.00031,0.00023999999999999998,3
8392,8765,0.00037999999999999997,2e-05,2.9999999999999997e-05,-2e-05,-0.00047999999999999996,2.9999999999999997e-05,0.00031,0.00023999999999999998,3
8393,8766,0.00037999999999999997,2e-05,2.9999999999999997e-05,-2e-05,-0.00047999999999999996,2.9999999999999997e-05,0.00031,0.00023999999999999998,3
8394,8767,0.00037999999999999997,2e-05,2.9999999999999997e-05,-2e-05,-0.00047999999999999996,2.9999999999999997e-05,0.00031,0.00023999999999999998,3
8395,8768,0.00037999999999999997,2e-05,2.9999999999999997e-05,-2e-05,-0.00047999999999999996,2.9999999999999997e-05,0.00031,0.00023999999999999998,3
8396,8769,0.00037999999999999997,2e-05,2.9999999999999997e-05,-2e-05,-0.00047999999999999996,2.9999999999999997e-05,0.00031,0.00023999999999999998,3
8397,8770,0.00037999999999999997,2e-05,2.9999999999999997e-05,-2e-05,-0.00047999999999999996,2.9999999999999997e-05,0.00031,0.00023999999999999998,3
8398,8771,0.00037999999999999997,2e-05,2.9999999999999997e-05,-2e-05,-0.00047999999999999996,2.9999999999999997e-05,0.00031,0.00023999999999999998,3
8399,8772,0.00037999999999999997,2e-05,2.9999999999999997e-05,-2e-05,-0.00047999999999999996,2.9999999999999997e-05,0.00031,0.00023999999999999998,3
8400,8773,0.00037999999999999997,2e-05,2.9999999999999997e-05,-2e-05,-0.00047999999999999996,2.9999999999999997e-05,0.00031,0.00023999999999999998,3
8401,8774,0.00037999999999999997,2e-05,2.9999999999999997e-05,-2e-05,-0.00047999999999999996,2.9999999999999997e-05,0.00031,0.00023999999999999998,3
8402,8775,0.00037999999999999997,2e-05,2.9999999999999997e-05,-2e-05,-0.00047999999999999996,2.9999999999999997e-05,0.00031,0.00023999999999999998,3
8403,8776,0.00037999999999999997,2e-05,2.9999999999999997e-05,-2e-05,-0.00047999999999999996,2.9999999999999997e-05,0.00031,0.00023999999999999998,3
8404,8777,0.00037999999999999997,2e-05,2.9999999999999997e-05,-2e-05,-0.00047999999999999996,2.9999999999999997e-05,0.00031,0.00023999999999999998,3
8405,8778,0.00037999999999999997,2e-05,2.9999999999999997e-05,-2e-05,-0.00047999999999999996,2.9999999999999997e-05,0.00031,0.00023999999999999998,3
8406,8779,0.00037999999999999997,2e-05,2.9999999999999997e-05,-2e-05,-0.00047999999999999996,2.9999999999999997e-05,0.00031,0.00023999999999999998,3
8407,8780,0.00037999999999999997,2e-05,2.9999999999999997e-05,-2e-05,-0.00047999999999999996,2.9999999999999997e-05,0.00031,0.00023999999999999998,3
8408,8781,-8e-05,4e-05,4e-05,-0.00014,-0.00026000000000000003,-0.00011999999999999999,-1e-05,7e-05,3
8409,8782,0.00016,-2e-05,1e-05,-2e-05,0.00039,0.00027,-7e-05,0.00032,3
8410,8783,0.00016,-2e-05,1e-05,-2e-05,0.00039,0.00027,-7e-05,0.00032,3
8411,8784,0.00016,-2e-05,1e-05,-2e-05,0.00039,0.00027,-7e-05,0.00032,3
8412,8785,0.00016,-2e-05,1e-05,-2e-05,0.00039,0.00027,-7e-05,0.00032,3
8413,8786,0.00016,-2e-05,1e-05,-2e-05,0.00039,0.00027,-7e-05,0.00032,3
8414,8789,-0.00073,-8e-05,-5e-05,-0.00015,-0.0005200000000000001,-0.00031,-0.00015,-0.00015,3
8415,8790,-0.00073,-8e-05,-5e-05,-0.00015,-0.0005200000000000001,-0.00031,-0.00015,-0.00015,3
8416,8791,-0.00073,-8e-05,-5e-05,-0.00015,-0.0005200000000000001,-0.00031,-0.00015,-0.00015,3
8417,8792,-0.00073,-8e-05,-5e-05,-0.00015,-0.0005200000000000001,-0.00031,-0.00015,-0.00015,3
8418,8793,-0.00073,-8e-05,-5e-05,-0.00015,-0.0005200000000000001,-0.00031,-0.00015,-0.00015,3
8419,8794,0.00064,-0.00011,5e-05,4e-05,-0.0002,-5.9999999999999995e-05,0.00029,0.00042,3
8420,8795,-0.00121,0.00022999999999999998,0.00015,0.00033999999999999997,0.0009199999999999999,0.00039,-0.00035,-0.00056,3
8421,8796,-0.00121,0.00022999999999999998,0.00015,0.00033999999999999997,0.0009199999999999999,0.00039,-0.00035,-0.00056,3
8422,8797,-0.00121,0.00022999999999999998,0.00015,0.00033999999999999997,0.0009199999999999999,0.00039,-0.00035,-0.00056,3
8423,8798,-0.00121,0.00022999999999999998,0.00015,0.00033999999999999997,0.0009199999999999999,0.00039,-0.00035,-0.00056,3
8424,8799,-0.00121,0.00022999999999999998,0.00015,0.00033999999999999997,0.0009199999999999999,0.00039,-0.00035,-0.00056,3
8425,8800,-0.00121,0.00022999999999999998,0.00015,0.00033999999999999997,0.0009199999999999999,0.00039,-0.00035,-0.00056,3
8426,8801,-0.00121,0.00022999999999999998,0.00015,0.00033999999999999997,0.0009199999999999999,0.00039,-0.00035,-0.00056,3
8427,8802,-0.00121,0.00022999999999999998,0.00015,0.00033999999999999997,0.0009199999999999999,0.00039,-0.00035,-0.00056,3
8428,8803,-0.00121,0.00022999999999999998,0.00015,0.00033999999999999997,0.0009199999999999999,0.00039,-0.00035,-0.00056,3
8429,8804,-0.00121,0.00022999999999999998,0.00015,0.00033999999999999997,0.0009199999999999999,0.00039,-0.00035,-0.00056,3
8430,8805,-0.00121,0.00022999999999999998,0.00015,0.00033999999999999997,0.0009199999999999999,0.00039,-0.00035,-0.00056,3
8431,8806,-0.00121,0.00022999999999999998,0.00015,0.00033999999999999997,0.0009199999999999999,0.00039,-0.00035,-0.00056,3
8432,8807,-0.00121,0.00022999999999999998,0.00015,0.00033999999999999997,0.0009199999999999999,0.00039,-0.00035,-0.00056,3
8433,8808,-0.00121,0.00022999999999999998,0.00015,0.00033999999999999997,0.0009199999999999999,0.00039,-0.00035,-0.00056,3
8434,8809,-0.00121,0.00022999999999999998,0.00015,0.00033999999999999997,0.0009199999999999999,0.00039,-0.00035,-0.00056,3
8435,8810,-0.00121,0.00022999999999999998,0.00015,0.00033999999999999997,0.0009199999999999999,0.00039,-0.00035,-0.00056,3
8436,8811,0.00022999999999999998,5e-05,-8e-05,-0.00021,-0.00075,-0.00027,-2e-05,0.00018,3
8437,8812,0.00022999999999999998,5e-05,-8e-05,-0.00021,-0.00075,-0.00027,-2e-05,0.00018,3
8438,8813,0.00061,2e-05,-4e-05,-0.00015,-0.00045,-9e-05,0.00032,0.00018999999999999998,3
8439,8814,0.00061,2e-05,-4e-05,-0.00015,-0.00045,-9e-05,0.00032,0.00018999999999999998,3
8440,8815,0.00061,2e-05,-4e-05,-0.00015,-0.00045,-9e-05,0.00032,0.00018999999999999998,3
8441,8816,0.00061,2e-05,-4e-05,-0.00015,-0.00045,-9e-05,0.00032,0.00018999999999999998,3
8442,8817,0.00061,2e-05,-4e-05,-0.00015,-0.00045,-9e-05,0.00032,0.00018999999999999998,3
8443,8818,0.00061,2e-05,-4e-05,-0.00015,-0.00045,-9e-05,0.00032,0.00018999999999999998,3
8444,8819,0.00061,2e-05,-4e-05,-0.00015,-0.00045,-9e-05,0.00032,0.00018999999999999998,3
8445,8820,0.00061,2e-05,-4e-05,-0.00015,-0.00045,-9e-05,0.00032,0.00018999999999999998,3
8446,8821,0.00061,2e-05,-4e-05,-0.00015,-0.00045,-9e-05,0.00032,0.00018999999999999998,3
8447,8822,0.00061,2e-05,-4e-05,-0.00015,-0.00045,-9e-05,0.00032,0.00018999999999999998,3
8448,8823,0.00061,2e-05,-4e-05,-0.00015,-0.00045,-9e-05,0.00032,0.00018999999999999998,3
8449,8824,0.00061,2e-05,-4e-05,-0.00015,-0.00045,-9e-05,0.00032,0.00018999999999999998,3
8450,8825,0.00061,2e-05,-4e-05,-0.00015,-0.00045,-9e-05,0.00032,0.00018999999999999998,3
8451,8826,0.00061,2e-05,-4e-05,-0.00015,-0.00045,-9e-05,0.00032,0.00018999999999999998,3
8452,8827,0.00061,2e-05,-4e-05,-0.00015,-0.00045,-9e-05,0.00032,0.00018999999999999998,3
8453,8828,0.00061,2e-05,-4e-05,-0.00015,-0.00045,-9e-05,0.00032,0.00018999999999999998,3
8454,8829,0.00061,2e-05,-4e-05,-0.00015,-0.00045,-9e-05,0.00032,0.00018999999999999998,3
8455,8830,0.00061,2e-05,-4e-05,-0.00015,-0.00045,-9e-05,0.00032,0.00018999999999999998,3
8456,8831,0.00061,2e-05,-4e-05,-0.00015,-0.00045,-9e-05,0.00032,0.00018999999999999998,3
8457,8832,0.00061,2e-05,-4e-05,-0.00015,-0.00045,-9e-05,0.00032,0.00018999999999999998,3
8458,8833,-0.00078,2.9999999999999997e-05,-2e-05,5.9999999999999995e-05,8e-05,0.00018,-7e-05,0.00018999999999999998,3
8459,8834,-0.00078,2.9999999999999997e-05,-2e-05,5.9999999999999995e-05,8e-05,0.00018,-7e-05,0.00018999999999999998,3
8460,8835,4e-05,0.00016999999999999999,-4e-05,-0.00035,-0.0005099999999999999,-0.00037999999999999997,-0.00022,-2.9999999999999997e-05,3
8461,8836,4e-05,0.00016999999999999999,-4e-05,-0.00035,-0.0005099999999999999,-0.00037999999999999997,-0.00022,-2.9999999999999997e-05,3
8462,8839,4e-05,0.00016999999999999999,-4e-05,-0.00035,-0.0005099999999999999,-0.00037999999999999997,-0.00022,-2.9999999999999997e-05,3
8463,8840,4e-05,0.00016999999999999999,-4e-05,-0.00035,-0.0005099999999999999,-0.00037999999999999997,-0.00022,-2.9999999999999997e-05,3
8464,8841,4e-05,0.00016999999999999999,-4e-05,-0.00035,-0.0005099999999999999,-0.00037999999999999997,-0.00022,-2.9999999999999997e-05,3
8465,8842,4e-05,0.00016999999999999999,-4e-05,-0.00035,-0.0005099999999999999,-0.00037999999999999997,-0.00022,-2.9999999999999997e-05,3
8466,8843,4e-05,0.00016999999999999999,-4e-05,-0.00035,-0.0005099999999999999,-0.00037999999999999997,-0.00022,-2.9999999999999997e-05,3
8467,8844,4e-05,0.00016999999999999999,-4e-05,-0.00035,-0.0005099999999999999,-0.00037999999999999997,-0.00022,-2.9999999999999997e-05,3
8468,8845,4e-05,0.00016999999999999999,-4e-05,-0.00035,-0.0005099999999999999,-0.00037999999999999997,-0.00022,-2.9999999999999997e-05,3
8469,8846,4e-05,0.00016999999999999999,-4e-05,-0.00035,-0.0005099999999999999,-0.00037999999999999997,-0.00022,-2.9999999999999997e-05,3
8470,8847,4e-05,0.00016999999999999999,-4e-05,-0.00035,-0.0005099999999999999,-0.00037999999999999997,-0.00022,-2.9999999999999997e-05,3
8471,8848,-0.00075,-0.00018,-0.0001,-0.0001,-0.00039,-5.9999999999999995e-05,-1e-05,-0.00018,3
8472,8849,-0.00075,-0.00018,-0.0001,-0.0001,-0.00039,-5.9999999999999995e-05,-1e-05,-0.00018,3
8473,8850,-0.00075,-0.00018,-0.0001,-0.0001,-0.00039,-5.9999999999999995e-05,-1e-05,-0.00018,3
8474,8851,-0.00075,-0.00018,-0.0001,-0.0001,-0.00039,-5.9999999999999995e-05,-1e-05,-0.00018,3
8475,8852,-0.00075,-0.00018,-0.0001,-0.0001,-0.00039,-5.9999999999999995e-05,-1e-05,-0.00018,3
8476,8853,-0.00075,-0.00018,-0.0001,-0.0001,-0.00039,-5.9999999999999995e-05,-1e-05,-0.00018,3
8477,8854,0.00035,-0.0002,-7e-05,0.00029,0.00106,0.00011999999999999999,-0.00021,-4e-05,3
8478,8855,0.00035,-0.0002,-7e-05,0.00029,0.00106,0.00011999999999999999,-0.00021,-4e-05,3
8479,8856,0.00035,-0.0002,-7e-05,0.00029,0.00106,0.00011999999999999999,-0.00021,-4e-05,3
8480,8857,0.00035,-0.0002,-7e-05,0.00029,0.00106,0.00011999999999999999,-0.00021,-4e-05,3
8481,8858,0.00035,-0.0002,-7e-05,0.00029,0.00106,0.00011999999999999999,-0.00021,-4e-05,3
8482,8859,0.00035,-0.0002,-7e-05,0.00029,0.00106,0.00011999999999999999,-0.00021,-4e-05,3
8483,8860,0.00035,-0.0002,-7e-05,0.00029,0.00106,0.00011999999999999999,-0.00021,-4e-05,3
8484,8861,0.00035,-0.0002,-7e-05,0.00029,0.00106,0.00011999999999999999,-0.00021,-4e-05,3
8485,8862,0.00035,-0.0002,-7e-05,0.00029,0.00106,0.00011999999999999999,-0.00021,-4e-05,3
8486,8863,0.00035,-0.0002,-7e-05,0.00029,0.00106,0.00011999999999999999,-0.00021,-4e-05,3
8487,8864,0.00035,-0.0002,-7e-05,0.00029,0.00106,0.00011999999999999999,-0.00021,-4e-05,3
8488,8865,0.00035,-0.0002,-7e-05,0.00029,0.00106,0.00011999999999999999,-0.00021,-4e-05,3
8489,8866,0.00035,-0.0002,-7e-05,0.00029,0.00106,0.00011999999999999999,-0.00021,-4e-05,3
8490,8867,0.00035,-0.0002,-7e-05,0.00029,0.00106,0.00011999999999999999,-0.00021,-4e-05,3
8491,8868,0.00035,-0.0002,-7e-05,0.00029,0.00106,0.00011999999999999999,-0.00021,-4e-05,3
8492,8869,0.00035,-0.0002,-7e-05,0.00029,0.00106,0.00011999999999999999,-0.00021,-4e-05,3
8493,8870,0.00035,-0.0002,-7e-05,0.00029,0.00106,0.00011999999999999999,-0.00021,-4e-05,3
8494,8871,0.00062,0.00022999999999999998,0.00018,-0.00015,-0.00013000000000000002,0.00022999999999999998,0.00032,0.00035,3
8495,8872,0.00041,0.00027,0.00015,-0.00011999999999999999,0.00011,-5e-05,0.00033999999999999997,0.00047999999999999996,3
8496,8873,0.00041,0.00027,0.00015,-0.00011999999999999999,0.00011,-5e-05,0.00033999999999999997,0.00047999999999999996,3
8497,8874,0.00041,0.00027,0.00015,-0.00011999999999999999,0.00011,-5e-05,0.00033999999999999997,0.00047999999999999996,3
8498,8875,0.00041,0.00027,0.00015,-0.00011999999999999999,0.00011,-5e-05,0.00033999999999999997,0.00047999999999999996,3
8499,8876,0.00041,0.00027,0.00015,-0.00011999999999999999,0.00011,-5e-05,0.00033999999999999997,0.00047999999999999996,3
8500,8877,0.00041,0.00027,0.00015,-0.00011999999999999999,0.00011,-5e-05,0.00033999999999999997,0.00047999999999999996,3
8501,8878,0.00041,0.00027,0.00015,-0.00011999999999999999,0.00011,-5e-05,0.00033999999999999997,0.00047999999999999996,3
8502,8879,0.00041,0.00027,0.00015,-0.00011999999999999999,0.00011,-5e-05,0.00033999999999999997,0.00047999999999999996,3
8503,8880,0.00041,0.00027,0.00015,-0.00011999999999999999,0.00011,-5e-05,0.00033999999999999997,0.00047999999999999996,3
8504,8881,0.00041,0.00027,0.00015,-0.00011999999999999999,0.00011,-5e-05,0.00033999999999999997,0.00047999999999999996,3
8505,8882,0.00041,0.00027,0.00015,-0.00011999999999999999,0.00011,-5e-05,0.00033999999999999997,0.00047999999999999996,3
8506,8883,0.00041,0.00027,0.00015,-0.00011999999999999999,0.00011,-5e-05,0.00033999999999999997,0.00047999999999999996,3
8507,8884,0.00041,0.00027,0.00015,-0.00011999999999999999,0.00011,-5e-05,0.00033999999999999997,0.00047999999999999996,3
8508,8885,0.00041,0.00027,0.00015,-0.00011999999999999999,0.00011,-5e-05,0.00033999999999999997,0.00047999999999999996,3
8509,8886,0.00041,0.00027,0.00015,-0.00011999999999999999,0.00011,-5e-05,0.00033999999999999997,0.00047999999999999996,3
8510,8888,0.00041,0.00027,0.00015,-0.00011999999999999999,0.00011,-5e-05,0.00033999999999999997,0.00047999999999999996,3
8511,8889,0.00041,0.00027,0.00015,-0.00011999999999999999,0.00011,-5e-05,0.00033999999999999997,0.00047999999999999996,3
8512,8890,0.00041,0.00027,0.00015,-0.00011999999999999999,0.00011,-5e-05,0.00033999999999999997,0.00047999999999999996,3
8513,8891,0.00041,0.00027,0.00015,-0.00011999999999999999,0.00011,-5e-05,0.00033999999999999997,0.00047999999999999996,3
8514,8892,0.00041,0.00027,0.00015,-0.00011999999999999999,0.00011,-5e-05,0.00033999999999999997,0.00047999999999999996,3
8515,8893,0.0006,0.0001,-7e-05,-0.00015,-0.00022999999999999998,-1e-05,0.00022,8e-05,3
8516,8894,0.0006,0.0001,-7e-05,-0.00015,-0.00022999999999999998,-1e-05,0.00022,8e-05,3
8517,8895,0.00016999999999999999,-5.9999999999999995e-05,-4e-05,2e-05,-0.00014,-0.00013000000000000002,-0.00014,2.9999999999999997e-05,3
8518,8896,0.00016999999999999999,-5.9999999999999995e-05,-4e-05,2e-05,-0.00014,-0.00013000000000000002,-0.00014,2.9999999999999997e-05,3
8519,8897,0.00016999999999999999,-5.9999999999999995e-05,-4e-05,2e-05,-0.00014,-0.00013000000000000002,-0.00014,2.9999999999999997e-05,3
8520,8898,0.00016999999999999999,-5.9999999999999995e-05,-4e-05,2e-05,-0.00014,-0.00013000000000000002,-0.00014,2.9999999999999997e-05,3
8521,8899,0.00016999999999999999,-5.9999999999999995e-05,-4e-05,2e-05,-0.00014,-0.00013000000000000002,-0.00014,2.9999999999999997e-05,3
8522,8900,0.00016999999999999999,-5.9999999999999995e-05,-4e-05,2e-05,-0.00014,-0.00013000000000000002,-0.00014,2.9999999999999997e-05,3
8523,8901,0.00016999999999999999,-5.9999999999999995e-05,-4e-05,2e-05,-0.00014,-0.00013000000000000002,-0.00014,2.9999999999999997e-05,3
8524,8902,0.00016999999999999999,-5.9999999999999995e-05,-4e-05,2e-05,-0.00014,-0.00013000000000000002,-0.00014,2.9999999999999997e-05,3
8525,8903,0.00016999999999999999,-5.9999999999999995e-05,-4e-05,2e-05,-0.00014,-0.00013000000000000002,-0.00014,2.9999999999999997e-05,3
8526,8904,0.00016999999999999999,-5.9999999999999995e-05,-4e-05,2e-05,-0.00014,-0.00013000000000000002,-0.00014,2.9999999999999997e-05,3
8527,8905,0.00016999999999999999,-5.9999999999999995e-05,-4e-05,2e-05,-0.00014,-0.00013000000000000002,-0.00014,2.9999999999999997e-05,3
8528,8906,0.00016999999999999999,-5.9999999999999995e-05,-4e-05,2e-05,-0.00014,-0.00013000000000000002,-0.00014,2.9999999999999997e-05,3
8529,8907,0.00016999999999999999,-5.9999999999999995e-05,-4e-05,2e-05,-0.00014,-0.00013000000000000002,-0.00014,2.9999999999999997e-05,3
8530,8908,-0.0008699999999999999,1e-05,5e-05,0.00014,0.00029,5e-05,0.00032,5e-05,3
8531,8909,-0.0008699999999999999,1e-05,5e-05,0.00014,0.00029,5e-05,0.00032,5e-05,3
8532,8910,-0.0008699999999999999,1e-05,5e-05,0.00014,0.00029,5e-05,0.00032,5e-05,3
8533,8911,-0.0008699999999999999,1e-05,5e-05,0.00014,0.00029,5e-05,0.00032,5e-05,3
8534,8912,-0.0008699999999999999,1e-05,5e-05,0.00014,0.00029,5e-05,0.00032,5e-05,3
8535,8913,-0.0008699999999999999,1e-05,5e-05,0.00014,0.00029,5e-05,0.00032,5e-05,3
8536,8914,0.00026000000000000003,-7e-05,-5.9999999999999995e-05,-7e-05,-0.00044,-0.00025,-0.00021,-0.0005099999999999999,3
8537,8915,0.00114,0.00054,8e-05,0.00021,0.00018,5.9999999999999995e-05,0.0002,0.00054,3
8538,8916,0.00114,0.00054,8e-05,0.00021,0.00018,5.9999999999999995e-05,0.0002,0.00054,3
8539,8917,0.00114,0.00054,8e-05,0.00021,0.00018,5.9999999999999995e-05,0.0002,0.00054,3
8540,8918,0.00114,0.00054,8e-05,0.00021,0.00018,5.9999999999999995e-05,0.0002,0.00054,3
8541,8919,0.00114,0.00054,8e-05,0.00021,0.00018,5.9999999999999995e-05,0.0002,0.00054,3
8542,8920,0.00114,0.00054,8e-05,0.00021,0.00018,5.9999999999999995e-05,0.0002,0.00054,3
8543,8921,0.00114,0.00054,8e-05,0.00021,0.00018,5.9999999999999995e-05,0.0002,0.00054,3
8544,8922,0.00114,0.00054,8e-05,0.00021,0.00018,5.9999999999999995e-05,0.0002,0.00054,3
8545,8923,0.00114,0.00054,8e-05,0.00021,0.00018,5.9999999999999995e-05,0.0002,0.00054,3
8546,8924,0.00114,0.00054,8e-05,0.00021,0.00018,5.9999999999999995e-05,0.0002,0.00054,3
8547,8925,0.00114,0.00054,8e-05,0.00021,0.00018,5.9999999999999995e-05,0.0002,0.00054,3
8548,8926,0.00114,0.00054,8e-05,0.00021,0.00018,5.9999999999999995e-05,0.0002,0.00054,3
8549,8927,0.00114,0.00054,8e-05,0.00021,0.00018,5.9999999999999995e-05,0.0002,0.00054,3
8550,8928,0.00114,0.00054,8e-05,0.00021,0.00018,5.9999999999999995e-05,0.0002,0.00054,3
8551,8929,0.00114,0.00054,8e-05,0.00021,0.00018,5.9999999999999995e-05,0.0002,0.00054,3
8552,8930,0.00114,0.00054,8e-05,0.00021,0.00018,5.9999999999999995e-05,0.0002,0.00054,3
8553,8931,0.00042,-0.0002,-2e-05,5e-05,0.00032,0.00014,-0.00016999999999999999,8e-05,3
8554,8932,-0.0008900000000000001,-0.00041,-5.9999999999999995e-05,0.00021,0.00022,1e-05,-0.00036,-0.00025,3
8555,8933,-0.0008900000000000001,-0.00041,-5.9999999999999995e-05,0.00021,0.00022,1e-05,-0.00036,-0.00025,3
8556,8934,-0.0008900000000000001,-0.00041,-5.9999999999999995e-05,0.00021,0.00022,1e-05,-0.00036,-0.00025,3
8557,8935,-0.0008900000000000001,-0.00041,-5.9999999999999995e-05,0.00021,0.00022,1e-05,-0.00036,-0.00025,3
8558,8936,-0.0008900000000000001,-0.00041,-5.9999999999999995e-05,0.00021,0.00022,1e-05,-0.00036,-0.00025,3
8559,8938,-0.0008900000000000001,-0.00041,-5.9999999999999995e-05,0.00021,0.00022,1e-05,-0.00036,-0.00025,3
8560,8939,-0.0008900000000000001,-0.00041,-5.9999999999999995e-05,0.00021,0.00022,1e-05,-0.00036,-0.00025,3
8561,8940,-0.0008900000000000001,-0.00041,-5.9999999999999995e-05,0.00021,0.00022,1e-05,-0.00036,-0.00025,3
8562,8941,-0.0008900000000000001,-0.00041,-5.9999999999999995e-05,0.00021,0.00022,1e-05,-0.00036,-0.00025,3
8563,8942,-0.0008900000000000001,-0.00041,-5.9999999999999995e-05,0.00021,0.00022,1e-05,-0.00036,-0.00025,3
8564,8943,-0.0008900000000000001,-0.00041,-5.9999999999999995e-05,0.00021,0.00022,1e-05,-0.00036,-0.00025,3
8565,8944,-0.0008900000000000001,-0.00041,-5.9999999999999995e-05,0.00021,0.00022,1e-05,-0.00036,-0.00025,3
8566,8945,-0.0008900000000000001,-0.00041,-5.9999999999999995e-05,0.00021,0.00022,1e-05,-0.00036,-0.00025,3
8567,8946,-0.0008900000000000001,-0.00041,-5.9999999999999995e-05,0.00021,0.00022,1e-05,-0.00036,-0.00025,3
8568,8947,-0.0008900000000000001,-0.00041,-5.9999999999999995e-05,0.00021,0.00022,1e-05,-0.00036,-0.00025,3
8569,8948,-0.0008900000000000001,-0.00041,-5.9999999999999995e-05,0.00021,0.00022,1e-05,-0.00036,-0.00025,3
8570,8949,-0.0008900000000000001,-0.00041,-5.9999999999999995e-05,0.00021,0.00022,1e-05,-0.00036,-0.00025,3
8571,8950,-0.0008900000000000001,-0.00041,-5.9999999999999995e-05,0.00021,0.00022,1e-05,-0.00036,-0.00025,3
8572,8951,-0.0008900000000000001,-0.00041,-5.9999999999999995e-05,0.00021,0.00022,1e-05,-0.00036,-0.00025,3
8573,8952,-0.0008900000000000001,-0.00041,-5.9999999999999995e-05,0.00021,0.00022,1e-05,-0.00036,-0.00025,3
8574,8953,0.0005099999999999999,0.00043,-5e-05,-0.00014,-0.00054,-0.0001,-9e-05,-7e-05,3
8575,8954,0.0005099999999999999,0.00043,-5e-05,-0.00014,-0.00054,-0.0001,-9e-05,-7e-05,3
8576,8955,0.0008300000000000001,0.00011999999999999999,-2.9999999999999997e-05,-0.00013000000000000002,-0.00015,0.00039,0.00082,0.00055,3
8577,8956,0.0008300000000000001,0.00011999999999999999,-2.9999999999999997e-05,-0.00013000000000000002,-0.00015,0.00039,0.00082,0.00055,3
8578,8957,0.0008300000000000001,0.00011999999999999999,-2.9999999999999997e-05,-0.00013000000000000002,-0.00015,0.00039,0.00082,0.00055,3
8579,8958,0.0008300000000000001,0.00011999999999999999,-2.9999999999999997e-05,-0.00013000000000000002,-0.00015,0.00039,0.00082,0.00055,3
8580,8959,0.0008300000000000001,0.00011999999999999999,-2.9999999999999997e-05,-0.00013000000000000002,-0.00015,0.00039,0.00082,0.00055,3
8581,8960,0.0008300000000000001,0.00011999999999999999,-2.9999999999999997e-05,-0.00013000000000000002,-0.00015,0.00039,0.00082,0.00055,3
8582,8961,0.0008300000000000001,0.00011999999999999999,-2.9999999999999997e-05,-0.00013000000000000002,-0.00015,0.00039,0.00082,0.00055,3
8583,8962,0.0008300000000000001,0.00011999999999999999,-2.9999999999999997e-05,-0.00013000000000000002,-0.00015,0.00039,0.00082,0.00055,3
8584,8963,0.0008300000000000001,0.00011999999999999999,-2.9999999999999997e-05,-0.00013000000000000002,-0.00015,0.00039,0.00082,0.00055,3
8585,8964,0.0008300000000000001,0.00011999999999999999,-2.9999999999999997e-05,-0.00013000000000000002,-0.00015,0.00039,0.00082,0.00055,3
8586,8965,0.0008300000000000001,0.00011999999999999999,-2.9999999999999997e-05,-0.00013000000000000002,-0.00015,0.00039,0.00082,0.00055,3
8587,8966,0.0008300000000000001,0.00011999999999999999,-2.9999999999999997e-05,-0.00013000000000000002,-0.00015,0.00039,0.00082,0.00055,3
8588,8967,0.0008,0.00016999999999999999,-1e-05,-0.00026000000000000003,-0.00049,-0.00027,-5.9999999999999995e-05,0.0001,3
8589,8968,0.0008,0.00016999999999999999,-1e-05,-0.00026000000000000003,-0.00049,-0.00027,-5.9999999999999995e-05,0.0001,3
8590,8969,0.0008,0.00016999999999999999,-1e-05,-0.00026000000000000003,-0.00049,-0.00027,-5.9999999999999995e-05,0.0001,3
8591,8970,0.0008,0.00016999999999999999,-1e-05,-0.00026000000000000003,-0.00049,-0.00027,-5.9999999999999995e-05,0.0001,3
8592,8971,0.0008,0.00016999999999999999,-1e-05,-0.00026000000000000003,-0.00049,-0.00027,-5.9999999999999995e-05,0.0001,3
8593,8972,0.0008,0.00016999999999999999,-1e-05,-0.00026000000000000003,-0.00049,-0.00027,-5.9999999999999995e-05,0.0001,3
8594,8973,0.0008,0.00016999999999999999,-1e-05,-0.00026000000000000003,-0.00049,-0.00027,-5.9999999999999995e-05,0.0001,3
8595,8974,0.0008,0.00016999999999999999,-1e-05,-0.00026000000000000003,-0.00049,-0.00027,-5.9999999999999995e-05,0.0001,3
8596,8975,0.0008,0.00016999999999999999,-1e-05,-0.00026000000000000003,-0.00049,-0.00027,-5.9999999999999995e-05,0.0001,3
8597,8976,0.0008,0.00016999999999999999,-1e-05,-0.00026000000000000003,-0.00049,-0.00027,-5.9999999999999995e-05,0.0001,3
8598,8977,0.0008,0.00016999999999999999,-1e-05,-0.00026000000000000003,-0.00049,-0.00027,-5.9999999999999995e-05,0.0001,3
8599,8978,0.0008,0.00016999999999999999,-1e-05,-0.00026000000000000003,-0.00049,-0.00027,-5.9999999999999995e-05,0.0001,3
8600,8979,0.0008,0.00016999999999999999,-1e-05,-0.00026000000000000003,-0.00049,-0.00027,-5.9999999999999995e-05,0.0001,3
8601,8980,0.0008,0.00016999999999999999,-1e-05,-0.00026000000000000003,-0.00049,-0.00027,-5.9999999999999995e-05,0.0001,3
8602,8981,0.0008,0.00016999999999999999,-1e-05,-0.00026000000000000003,-0.00049,-0.00027,-5.9999999999999995e-05,0.0001,3
8603,8982,0.0008,0.00016999999999999999,-1e-05,-0.00026000000000000003,-0.00049,-0.00027,-5.9999999999999995e-05,0.0001,3
8604,8983,0.00014,1e-05,-4e-05,-0.00018999999999999998,-0.00011,2.9999999999999997e-05,-0.00016999999999999999,0.00016,3
8605,8984,-0.00079,-0.00023999999999999998,2e-05,0.00016999999999999999,0.00018,-0.00011999999999999999,0.00044,-0.0001,3
8606,8985,-0.00079,-0.00023999999999999998,2e-05,0.00016999999999999999,0.00018,-0.00011999999999999999,0.00044,-0.0001,3
8607,8986,-0.00079,-0.00023999999999999998,2e-05,0.00016999999999999999,0.00018,-0.00011999999999999999,0.00044,-0.0001,3
8608,8988,-0.00079,-0.00023999999999999998,2e-05,0.00016999999999999999,0.00018,-0.00011999999999999999,0.00044,-0.0001,3
8609,8989,-0.00079,-0.00023999999999999998,2e-05,0.00016999999999999999,0.00018,-0.00011999999999999999,0.00044,-0.0001,3
8610,8990,-0.00079,-0.00023999999999999998,2e-05,0.00016999999999999999,0.00018,-0.00011999999999999999,0.00044,-0.0001,3
8611,8991,4e-05,0.0,0.0001,-2.9999999999999997e-05,-0.00016,-9e-05,-2e-05,0.00011,3
8612,8992,0.00011,0.0001,-1e-05,-0.00014,-0.00037,1e-05,0.00025,-0.00032,3
8613,8993,0.00011,0.0001,-1e-05,-0.00014,-0.00037,1e-05,0.00025,-0.00032,3
8614,8994,0.00011,0.0001,-1e-05,-0.00014,-0.00037,1e-05,0.00025,-0.00032,3
8615,8995,0.00011,0.0001,-1e-05,-0.00014,-0.00037,1e-05,0.00025,-0.00032,3
8616,8996,0.00011,0.0001,-1e-05,-0.00014,-0.00037,1e-05,0.00025,-0.00032,3
8617,8997,0.00011,0.0001,-1e-05,-0.00014,-0.00037,1e-05,0.00025,-0.00032,3
8618,8998,0.00011,0.0001,-1e-05,-0.00014,-0.00037,1e-05,0.00025,-0.00032,3
8619,8999,0.00011,0.0001,-1e-05,-0.00014,-0.00037,1e-05,0.00025,-0.00032,3
8620,9000,0.00011,0.0001,-1e-05,-0.00014,-0.00037,1e-05,0.00025,-0.00032,3
8621,9001,0.00011,0.0001,-1e-05,-0.00014,-0.00037,1e-05,0.00025,-0.00032,3
8622,9002,0.00011,0.0001,-1e-05,-0.00014,-0.00037,1e-05,0.00025,-0.00032,3
8623,9003,0.00011,0.0001,-1e-05,-0.00014,-0.00037,1e-05,0.00025,-0.00032,3
8624,9004,0.00011,0.0001,-1e-05,-0.00014,-0.00037,1e-05,0.00025,-0.00032,3
8625,9005,0.00011,0.0001,-1e-05,-0.00014,-0.00037,1e-05,0.00025,-0.00032,3
8626,9006,0.00011,0.0001,-1e-05,-0.00014,-0.00037,1e-05,0.00025,-0.00032,3
8627,9007,0.00011,0.0001,-1e-05,-0.00014,-0.00037,1e-05,0.00025,-0.00032,3
8628,9008,0.00011,0.0001,-1e-05,-0.00014,-0.00037,1e-05,0.00025,-0.00032,3
8629,9009,0.00011,0.0001,-1e-05,-0.00014,-0.00037,1e-05,0.00025,-0.00032,3
8630,9010,0.00011,0.0001,-1e-05,-0.00014,-0.00037,1e-05,0.00025,-0.00032,3
8631,9011,0.00011,0.0001,-1e-05,-0.00014,-0.00037,1e-05,0.00025,-0.00032,3
8632,9012,0.00011,0.0001,-1e-05,-0.00014,-0.00037,1e-05,0.00025,-0.00032,3
8633,9013,0.00011,0.0001,-1e-05,-0.00014,-0.00037,1e-05,0.00025,-0.00032,3
8634,9014,-0.00014,0.0,1e-05,0.00016,0.00023999999999999998,0.00018999999999999998,0.00025,0.0006799999999999999,3
8635,9015,0.00011,5e-05,-9e-05,-2e-05,0.0,5e-05,-0.00016,0.00044,3
8636,9016,0.00011,5e-05,-9e-05,-2e-05,0.0,5e-05,-0.00016,0.00044,3
8637,9017,0.00011,5e-05,-9e-05,-2e-05,0.0,5e-05,-0.00016,0.00044,3
8638,9018,0.00011,5e-05,-9e-05,-2e-05,0.0,5e-05,-0.00016,0.00044,3
8639,9019,0.00011,5e-05,-9e-05,-2e-05,0.0,5e-05,-0.00016,0.00044,3
8640,9020,0.00011,5e-05,-9e-05,-2e-05,0.0,5e-05,-0.00016,0.00044,3
8641,9021,0.00011,5e-05,-9e-05,-2e-05,0.0,5e-05,-0.00016,0.00044,3
8642,9022,0.00011,5e-05,-9e-05,-2e-05,0.0,5e-05,-0.00016,0.00044,3
8643,9023,0.00011,5e-05,-9e-05,-2e-05,0.0,5e-05,-0.00016,0.00044,3
8644,9024,0.00011,5e-05,-9e-05,-2e-05,0.0,5e-05,-0.00016,0.00044,3
8645,9025,0.00011,5e-05,-9e-05,-2e-05,0.0,5e-05,-0.00016,0.00044,3
8646,9026,0.00011,5e-05,-9e-05,-2e-05,0.0,5e-05,-0.00016,0.00044,3
8647,9027,-0.00105,-0.00027,-2e-05,-0.00011999999999999999,-0.0006900000000000001,-0.00027,-0.00029,-0.00059,3
8648,9028,-0.00105,-0.00027,-2e-05,-0.00011999999999999999,-0.0006900000000000001,-0.00027,-0.00029,-0.00059,3
8649,9029,-0.00105,-0.00027,-2e-05,-0.00011999999999999999,-0.0006900000000000001,-0.00027,-0.00029,-0.00059,3
8650,9030,-0.00105,-0.00027,-2e-05,-0.00011999999999999999,-0.0006900000000000001,-0.00027,-0.00029,-0.00059,3
8651,9032,-0.00105,-0.00027,-2e-05,-0.00011999999999999999,-0.0006900000000000001,-0.00027,-0.00029,-0.00059,3
8652,9033,-0.00105,-0.00027,-2e-05,-0.00011999999999999999,-0.0006900000000000001,-0.00027,-0.00029,-0.00059,3
8653,9034,-0.00105,-0.00027,-2e-05,-0.00011999999999999999,-0.0006900000000000001,-0.00027,-0.00029,-0.00059,3
8654,9035,-0.00105,-0.00027,-2e-05,-0.00011999999999999999,-0.0006900000000000001,-0.00027,-0.00029,-0.00059,3
8655,9036,-0.00072,0.00016,0.0001,0.00018999999999999998,0.00045999999999999996,0.00018999999999999998,0.00011,-0.00044,3
8656,9039,-0.00072,0.00016,0.0001,0.00018999999999999998,0.00045999999999999996,0.00018999999999999998,0.00011,-0.00044,3
8657,9040,-0.00072,0.00016,0.0001,0.00018999999999999998,0.00045999999999999996,0.00018999999999999998,0.00011,-0.00044,3
8658,9041,-0.00072,0.00016,0.0001,0.00018999999999999998,0.00045999999999999996,0.00018999999999999998,0.00011,-0.00044,3
8659,9042,-0.00072,0.00016,0.0001,0.00018999999999999998,0.00045999999999999996,0.00018999999999999998,0.00011,-0.00044,3
8660,9043,-0.00072,0.00016,0.0001,0.00018999999999999998,0.00045999999999999996,0.00018999999999999998,0.00011,-0.00044,3
8661,9044,-0.00072,0.00016,0.0001,0.00018999999999999998,0.00045999999999999996,0.00018999999999999998,0.00011,-0.00044,3
8662,9045,-0.00072,0.00016,0.0001,0.00018999999999999998,0.00045999999999999996,0.00018999999999999998,0.00011,-0.00044,3
8663,9046,-0.00072,0.00016,0.0001,0.00018999999999999998,0.00045999999999999996,0.00018999999999999998,0.00011,-0.00044,3
8664,9047,-0.00072,0.00016,0.0001,0.00018999999999999998,0.00045999999999999996,0.00018999999999999998,0.00011,-0.00044,3
8665,9048,-0.00072,0.00016,0.0001,0.00018999999999999998,0.00045999999999999996,0.00018999999999999998,0.00011,-0.00044,3
8666,9049,-0.00072,0.00016,0.0001,0.00018999999999999998,0.00045999999999999996,0.00018999999999999998,0.00011,-0.00044,3
8667,9050,-0.00072,0.00016,0.0001,0.00018999999999999998,0.00045999999999999996,0.00018999999999999998,0.00011,-0.00044,3
8668,9051,0.00031,-0.00025,-2e-05,0.0002,0.00053,0.00041,0.00011,-0.00028,3
8669,9052,-0.00013000000000000002,-0.00022,-0.0001,-0.0002,-0.00033,-0.00014,-0.00021,-5e-05,3
8670,9053,-0.00013000000000000002,-0.00022,-0.0001,-0.0002,-0.00033,-0.00014,-0.00021,-5e-05,3
8671,9054,-0.00013000000000000002,-0.00022,-0.0001,-0.0002,-0.00033,-0.00014,-0.00021,-5e-05,3
8672,9055,-0.00013000000000000002,-0.00022,-0.0001,-0.0002,-0.00033,-0.00014,-0.00021,-5e-05,3
8673,9056,-0.00013000000000000002,-0.00022,-0.0001,-0.0002,-0.00033,-0.00014,-0.00021,-5e-05,3
8674,9057,-0.00013000000000000002,-0.00022,-0.0001,-0.0002,-0.00033,-0.00014,-0.00021,-5e-05,3
8675,9058,-0.00013000000000000002,-0.00022,-0.0001,-0.0002,-0.00033,-0.00014,-0.00021,-5e-05,3
8676,9059,-0.00013000000000000002,-0.00022,-0.0001,-0.0002,-0.00033,-0.00014,-0.00021,-5e-05,3
8677,9060,-0.00013000000000000002,-0.00022,-0.0001,-0.0002,-0.00033,-0.00014,-0.00021,-5e-05,3
8678,9061,-0.00013000000000000002,-0.00022,-0.0001,-0.0002,-0.00033,-0.00014,-0.00021,-5e-05,3
8679,9062,-0.00013000000000000002,-0.00022,-0.0001,-0.0002,-0.00033,-0.00014,-0.00021,-5e-05,3
8680,9063,-0.00013000000000000002,-0.00022,-0.0001,-0.0002,-0.00033,-0.00014,-0.00021,-5e-05,3
8681,9064,-0.00013000000000000002,-0.00022,-0.0001,-0.0002,-0.00033,-0.00014,-0.00021,-5e-05,3
8682,9065,-0.00013000000000000002,-0.00022,-0.0001,-0.0002,-0.00033,-0.00014,-0.00021,-5e-05,3
8683,9066,-0.00013000000000000002,-0.00022,-0.0001,-0.0002,-0.00033,-0.00014,-0.00021,-5e-05,3
8684,9067,-0.00013000000000000002,-0.00022,-0.0001,-0.0002,-0.00033,-0.00014,-0.00021,-5e-05,3
8685,9068,-0.00013000000000000002,-0.00022,-0.0001,-0.0002,-0.00033,-0.00014,-0.00021,-5e-05,3
8686,9069,-0.00013000000000000002,-0.00022,-0.0001,-0.0002,-0.00033,-0.00014,-0.00021,-5e-05,3
8687,9070,-0.00013000000000000002,-0.00022,-0.0001,-0.0002,-0.00033,-0.00014,-0.00021,-5e-05,3
8688,9071,-0.00013000000000000002,-0.00022,-0.0001,-0.0002,-0.00033,-0.00014,-0.00021,-5e-05,3
8689,9072,-0.00013000000000000002,-0.00022,-0.0001,-0.0002,-0.00033,-0.00014,-0.00021,-5e-05,3
8690,9073,0.00074,0.00022999999999999998,0.0,-2.9999999999999997e-05,5.9999999999999995e-05,1e-05,-0.0001,-0.0003,3
8691,9074,0.00074,0.00022999999999999998,0.0,-2.9999999999999997e-05,5.9999999999999995e-05,1e-05,-0.0001,-0.0003,3
8692,9075,1e-05,4e-05,-0.00013000000000000002,-0.00011,-0.00018,2.9999999999999997e-05,-0.00031,-7e-05,3
8693,9076,1e-05,4e-05,-0.00013000000000000002,-0.00011,-0.00018,2.9999999999999997e-05,-0.00031,-7e-05,3
8694,9077,1e-05,4e-05,-0.00013000000000000002,-0.00011,-0.00018,2.9999999999999997e-05,-0.00031,-7e-05,3
8695,9078,1e-05,4e-05,-0.00013000000000000002,-0.00011,-0.00018,2.9999999999999997e-05,-0.00031,-7e-05,3
8696,9079,1e-05,4e-05,-0.00013000000000000002,-0.00011,-0.00018,2.9999999999999997e-05,-0.00031,-7e-05,3
8697,9080,1e-05,4e-05,-0.00013000000000000002,-0.00011,-0.00018,2.9999999999999997e-05,-0.00031,-7e-05,3
8698,9081,1e-05,4e-05,-0.00013000000000000002,-0.00011,-0.00018,2.9999999999999997e-05,-0.00031,-7e-05,3
8699,9082,1e-05,4e-05,-0.00013000000000000002,-0.00011,-0.00018,2.9999999999999997e-05,-0.00031,-7e-05,3
8700,9083,1e-05,4e-05,-0.00013000000000000002,-0.00011,-0.00018,2.9999999999999997e-05,-0.00031,-7e-05,3
8701,9084,1e-05,4e-05,-0.00013000000000000002,-0.00011,-0.00018,2.9999999999999997e-05,-0.00031,-7e-05,3
8702,9085,1e-05,4e-05,-0.00013000000000000002,-0.00011,-0.00018,2.9999999999999997e-05,-0.00031,-7e-05,3
8703,9086,1e-05,4e-05,-0.00013000000000000002,-0.00011,-0.00018,2.9999999999999997e-05,-0.00031,-7e-05,3
8704,9089,-0.00032,9e-05,-1e-05,-7e-05,0.00011999999999999999,9e-05,0.00021,0.00014,3
8705,9090,-0.00032,9e-05,-1e-05,-7e-05,0.00011999999999999999,9e-05,0.00021,0.00014,3
8706,9091,-0.00032,9e-05,-1e-05,-7e-05,0.00011999999999999999,9e-05,0.00021,0.00014,3
8707,9092,-0.00032,9e-05,-1e-05,-7e-05,0.00011999999999999999,9e-05,0.00021,0.00014,3
8708,9093,-0.00032,9e-05,-1e-05,-7e-05,0.00011999999999999999,9e-05,0.00021,0.00014,3
8709,9094,-0.00032,9e-05,-1e-05,-7e-05,0.00011999999999999999,9e-05,0.00021,0.00014,3
8710,9095,-0.00032,9e-05,-1e-05,-7e-05,0.00011999999999999999,9e-05,0.00021,0.00014,3
8711,9096,-7e-05,-0.00022,0.0,0.00011999999999999999,1e-05,-0.00015,-5.9999999999999995e-05,0.00015,3
8712,9097,-7e-05,-0.00022,0.0,0.00011999999999999999,1e-05,-0.00015,-5.9999999999999995e-05,0.00015,3
8713,9098,-7e-05,-0.00022,0.0,0.00011999999999999999,1e-05,-0.00015,-5.9999999999999995e-05,0.00015,3
8714,9099,-7e-05,-0.00022,0.0,0.00011999999999999999,1e-05,-0.00015,-5.9999999999999995e-05,0.00015,3
8715,9100,-7e-05,-0.00022,0.0,0.00011999999999999999,1e-05,-0.00015,-5.9999999999999995e-05,0.00015,3
8716,9101,-7e-05,-0.00022,0.0,0.00011999999999999999,1e-05,-0.00015,-5.9999999999999995e-05,0.00015,3
8717,9102,-7e-05,-0.00022,0.0,0.00011999999999999999,1e-05,-0.00015,-5.9999999999999995e-05,0.00015,3
8718,9103,-7e-05,-0.00022,0.0,0.00011999999999999999,1e-05,-0.00015,-5.9999999999999995e-05,0.00015,3
8719,9104,-7e-05,-0.00022,0.0,0.00011999999999999999,1e-05,-0.00015,-5.9999999999999995e-05,0.00015,3
8720,9105,-7e-05,-0.00022,0.0,0.00011999999999999999,1e-05,-0.00015,-5.9999999999999995e-05,0.00015,3
8721,9106,-7e-05,-0.00022,0.0,0.00011999999999999999,1e-05,-0.00015,-5.9999999999999995e-05,0.00015,3
8722,9107,-7e-05,-0.00022,0.0,0.00011999999999999999,1e-05,-0.00015,-5.9999999999999995e-05,0.00015,3
8723,9108,-7e-05,-0.00022,0.0,0.00011999999999999999,1e-05,-0.00015,-5.9999999999999995e-05,0.00015,3
8724,9109,-7e-05,-0.00022,0.0,0.00011999999999999999,1e-05,-0.00015,-5.9999999999999995e-05,0.00015,3
8725,9110,-7e-05,-0.00022,0.0,0.00011999999999999999,1e-05,-0.00015,-5.9999999999999995e-05,0.00015,3
8726,9111,0.00045999999999999996,7e-05,0.0,9e-05,0.00053,-8e-05,4e-05,0.00029,3
8727,9112,0.00028,8e-05,2e-05,0.0001,0.00041,0.00027,-0.0001,-0.00016,3
8728,9113,0.00028,8e-05,2e-05,0.0001,0.00041,0.00027,-0.0001,-0.00016,3
8729,9114,0.00028,8e-05,2e-05,0.0001,0.00041,0.00027,-0.0001,-0.00016,3
8730,9115,0.00028,8e-05,2e-05,0.0001,0.00041,0.00027,-0.0001,-0.00016,3
8731,9116,0.00028,8e-05,2e-05,0.0001,0.00041,0.00027,-0.0001,-0.00016,3
8732,9117,0.00028,8e-05,2e-05,0.0001,0.00041,0.00027,-0.0001,-0.00016,3
8733,9118,0.00028,8e-05,2e-05,0.0001,0.00041,0.00027,-0.0001,-0.00016,3
8734,9119,0.00028,8e-05,2e-05,0.0001,0.00041,0.00027,-0.0001,-0.00016,3
8735,9120,0.00028,8e-05,2e-05,0.0001,0.00041,0.00027,-0.0001,-0.00016,3
8736,9121,0.00028,8e-05,2e-05,0.0001,0.00041,0.00027,-0.0001,-0.00016,3
8737,9122,0.00028,8e-05,2e-05,0.0001,0.00041,0.00027,-0.0001,-0.00016,3
8738,9123,0.00028,8e-05,2e-05,0.0001,0.00041,0.00027,-0.0001,-0.00016,3
8739,9124,0.00028,8e-05,2e-05,0.0001,0.00041,0.00027,-0.0001,-0.00016,3
8740,9125,0.00028,8e-05,2e-05,0.0001,0.00041,0.00027,-0.0001,-0.00016,3
8741,9126,0.00028,8e-05,2e-05,0.0001,0.00041,0.00027,-0.0001,-0.00016,3
8742,9127,0.00028,8e-05,2e-05,0.0001,0.00041,0.00027,-0.0001,-0.00016,3
8743,9128,0.00028,8e-05,2e-05,0.0001,0.00041,0.00027,-0.0001,-0.00016,3
8744,9129,0.00028,8e-05,2e-05,0.0001,0.00041,0.00027,-0.0001,-0.00016,3
8745,9130,0.00028,8e-05,2e-05,0.0001,0.00041,0.00027,-0.0001,-0.00016,3
8746,9131,0.00028,8e-05,2e-05,0.0001,0.00041,0.00027,-0.0001,-0.00016,3
8747,9132,0.00028,8e-05,2e-05,0.0001,0.00041,0.00027,-0.0001,-0.00016,3
8748,9133,0.00023999999999999998,5.9999999999999995e-05,7e-05,7e-05,-0.00022,-5e-05,4e-05,0.00016,3
8749,9134,0.00023999999999999998,5.9999999999999995e-05,7e-05,7e-05,-0.00022,-5e-05,4e-05,0.00016,3
8750,9135,-0.00075,-0.00015,1e-05,-0.00014,-0.00037,-0.00014,-0.00106,-0.0009400000000000001,3
8751,9136,-0.00075,-0.00015,1e-05,-0.00014,-0.00037,-0.00014,-0.00106,-0.0009400000000000001,3
8752,9138,-0.00075,-0.00015,1e-05,-0.00014,-0.00037,-0.00014,-0.00106,-0.0009400000000000001,3
8753,9139,-0.00075,-0.00015,1e-05,-0.00014,-0.00037,-0.00014,-0.00106,-0.0009400000000000001,3
8754,9140,-0.00075,-0.00015,1e-05,-0.00014,-0.00037,-0.00014,-0.00106,-0.0009400000000000001,3
8755,9141,-0.00075,-0.00015,1e-05,-0.00014,-0.00037,-0.00014,-0.00106,-0.0009400000000000001,3
8756,9142,-0.00075,-0.00015,1e-05,-0.00014,-0.00037,-0.00014,-0.00106,-0.0009400000000000001,3
8757,9143,-0.00075,-0.00015,1e-05,-0.00014,-0.00037,-0.00014,-0.00106,-0.0009400000000000001,3
8758,9144,-0.00075,-0.00015,1e-05,-0.00014,-0.00037,-0.00014,-0.00106,-0.0009400000000000001,3
8759,9145,-0.00075,-0.00015,1e-05,-0.00014,-0.00037,-0.00014,-0.00106,-0.0009400000000000001,3
8760,9146,-0.00075,-0.00015,1e-05,-0.00014,-0.00037,-0.00014,-0.00106,-0.0009400000000000001,3
8761,9147,-0.00075,-0.00015,1e-05,-0.00014,-0.00037,-0.00014,-0.00106,-0.0009400000000000001,3
8762,9148,0.0,-5.9999999999999995e-05,5e-05,1e-05,-4e-05,0.00018,0.00022999999999999998,0.00047000000000000004,3
8763,9149,0.0,-5.9999999999999995e-05,5e-05,1e-05,-4e-05,0.00018,0.00022999999999999998,0.00047000000000000004,3
8764,9150,0.0,-5.9999999999999995e-05,5e-05,1e-05,-4e-05,0.00018,0.00022999999999999998,0.00047000000000000004,3
8765,9151,0.0,-5.9999999999999995e-05,5e-05,1e-05,-4e-05,0.00018,0.00022999999999999998,0.00047000000000000004,3
8766,9152,0.0,-5.9999999999999995e-05,5e-05,1e-05,-4e-05,0.00018,0.00022999999999999998,0.00047000000000000004,3
8767,9153,0.0,-5.9999999999999995e-05,5e-05,1e-05,-4e-05,0.00018,0.00022999999999999998,0.00047000000000000004,3
8768,9154,0.0,-5.9999999999999995e-05,5e-05,1e-05,-4e-05,0.00018,0.00022999999999999998,0.00047000000000000004,3
8769,9155,0.0,-5.9999999999999995e-05,5e-05,1e-05,-4e-05,0.00018,0.00022999999999999998,0.00047000000000000004,3
8770,9156,-0.00011999999999999999,-2e-05,-7e-05,-0.00011999999999999999,-0.00066,-0.00031,0.00031,-0.00032,3
8771,9157,-0.00011999999999999999,-2e-05,-7e-05,-0.00011999999999999999,-0.00066,-0.00031,0.00031,-0.00032,3
8772,9158,-0.00011999999999999999,-2e-05,-7e-05,-0.00011999999999999999,-0.00066,-0.00031,0.00031,-0.00032,3
8773,9159,-0.00011999999999999999,-2e-05,-7e-05,-0.00011999999999999999,-0.00066,-0.00031,0.00031,-0.00032,3
8774,9160,-0.00011999999999999999,-2e-05,-7e-05,-0.00011999999999999999,-0.00066,-0.00031,0.00031,-0.00032,3
8775,9161,-0.00011999999999999999,-2e-05,-7e-05,-0.00011999999999999999,-0.00066,-0.00031,0.00031,-0.00032,3
8776,9162,-0.00011999999999999999,-2e-05,-7e-05,-0.00011999999999999999,-0.00066,-0.00031,0.00031,-0.00032,3
8777,9163,-0.00011999999999999999,-2e-05,-7e-05,-0.00011999999999999999,-0.00066,-0.00031,0.00031,-0.00032,3
8778,9164,-0.00011999999999999999,-2e-05,-7e-05,-0.00011999999999999999,-0.00066,-0.00031,0.00031,-0.00032,3
8779,9165,-0.00011999999999999999,-2e-05,-7e-05,-0.00011999999999999999,-0.00066,-0.00031,0.00031,-0.00032,3
8780,9166,-0.00011999999999999999,-2e-05,-7e-05,-0.00011999999999999999,-0.00066,-0.00031,0.00031,-0.00032,3
8781,9167,-0.00011999999999999999,-2e-05,-7e-05,-0.00011999999999999999,-0.00066,-0.00031,0.00031,-0.00032,3
8782,9168,-0.00011999999999999999,-2e-05,-7e-05,-0.00011999999999999999,-0.00066,-0.00031,0.00031,-0.00032,3
8783,9169,-0.00011999999999999999,-2e-05,-7e-05,-0.00011999999999999999,-0.00066,-0.00031,0.00031,-0.00032,3
8784,9170,-0.00011999999999999999,-2e-05,-7e-05,-0.00011999999999999999,-0.00066,-0.00031,0.00031,-0.00032,3
8785,9171,-0.00022,-0.00011999999999999999,2.9999999999999997e-05,2e-05,-8e-05,8e-05,-5.9999999999999995e-05,0.00016,3
8786,9172,0.0007599999999999999,0.00021,-1e-05,-4e-05,-0.00018,-0.00022,5e-05,0.00014,3
8787,9174,0.0007599999999999999,0.00021,-1e-05,-4e-05,-0.00018,-0.00022,5e-05,0.00014,3
8788,9175,0.0007599999999999999,0.00021,-1e-05,-4e-05,-0.00018,-0.00022,5e-05,0.00014,3
8789,9176,0.0007599999999999999,0.00021,-1e-05,-4e-05,-0.00018,-0.00022,5e-05,0.00014,3
8790,9177,0.0007599999999999999,0.00021,-1e-05,-4e-05,-0.00018,-0.00022,5e-05,0.00014,3
8791,9178,0.0007599999999999999,0.00021,-1e-05,-4e-05,-0.00018,-0.00022,5e-05,0.00014,3
8792,9179,0.0007599999999999999,0.00021,-1e-05,-4e-05,-0.00018,-0.00022,5e-05,0.00014,3
8793,9180,0.0007599999999999999,0.00021,-1e-05,-4e-05,-0.00018,-0.00022,5e-05,0.00014,3
8794,9181,0.0007599999999999999,0.00021,-1e-05,-4e-05,-0.00018,-0.00022,5e-05,0.00014,3
8795,9182,0.0007599999999999999,0.00021,-1e-05,-4e-05,-0.00018,-0.00022,5e-05,0.00014,3
8796,9183,0.0007599999999999999,0.00021,-1e-05,-4e-05,-0.00018,-0.00022,5e-05,0.00014,3
8797,9184,0.0007599999999999999,0.00021,-1e-05,-4e-05,-0.00018,-0.00022,5e-05,0.00014,3
8798,9185,0.0007599999999999999,0.00021,-1e-05,-4e-05,-0.00018,-0.00022,5e-05,0.00014,3
8799,9186,0.0007599999999999999,0.00021,-1e-05,-4e-05,-0.00018,-0.00022,5e-05,0.00014,3
8800,9188,0.0007599999999999999,0.00021,-1e-05,-4e-05,-0.00018,-0.00022,5e-05,0.00014,3
8801,9189,0.0007599999999999999,0.00021,-1e-05,-4e-05,-0.00018,-0.00022,5e-05,0.00014,3
8802,9190,0.0007599999999999999,0.00021,-1e-05,-4e-05,-0.00018,-0.00022,5e-05,0.00014,3
8803,9191,0.0007599999999999999,0.00021,-1e-05,-4e-05,-0.00018,-0.00022,5e-05,0.00014,3
8804,9192,0.0007599999999999999,0.00021,-1e-05,-4e-05,-0.00018,-0.00022,5e-05,0.00014,3
8805,9193,2.9999999999999997e-05,1e-05,-4e-05,-5e-05,0.00016,0.00011999999999999999,-0.00016,-0.00016999999999999999,3
8806,9195,2.9999999999999997e-05,1e-05,-4e-05,-5e-05,0.00016,0.00011999999999999999,-0.00016,-0.00016999999999999999,3
8807,9196,0.00054,2.9999999999999997e-05,4e-05,0.00011999999999999999,-8e-05,0.00021,0.00018,0.00053,3
8808,9197,0.00054,2.9999999999999997e-05,4e-05,0.00011999999999999999,-8e-05,0.00021,0.00018,0.00053,3
8809,9198,0.00054,2.9999999999999997e-05,4e-05,0.00011999999999999999,-8e-05,0.00021,0.00018,0.00053,3
8810,9199,0.00054,2.9999999999999997e-05,4e-05,0.00011999999999999999,-8e-05,0.00021,0.00018,0.00053,3
8811,9200,0.00054,2.9999999999999997e-05,4e-05,0.00011999999999999999,-8e-05,0.00021,0.00018,0.00053,3
8812,9201,0.00054,2.9999999999999997e-05,4e-05,0.00011999999999999999,-8e-05,0.00021,0.00018,0.00053,3
8813,9202,0.00054,2.9999999999999997e-05,4e-05,0.00011999999999999999,-8e-05,0.00021,0.00018,0.00053,3
8814,9203,0.00054,2.9999999999999997e-05,4e-05,0.00011999999999999999,-8e-05,0.00021,0.00018,0.00053,3
8815,9204,0.00054,2.9999999999999997e-05,4e-05,0.00011999999999999999,-8e-05,0.00021,0.00018,0.00053,3
8816,9205,0.00054,2.9999999999999997e-05,4e-05,0.00011999999999999999,-8e-05,0.00021,0.00018,0.00053,3
8817,9206,0.00054,2.9999999999999997e-05,4e-05,0.00011999999999999999,-8e-05,0.00021,0.00018,0.00053,3
8818,9207,-0.00107,-0.0006799999999999999,-5e-05,1e-05,2e-05,-9e-05,0.00044,-0.00015,3
8819,9208,-0.00107,-0.0006799999999999999,-5e-05,1e-05,2e-05,-9e-05,0.00044,-0.00015,3
8820,9209,-0.00107,-0.0006799999999999999,-5e-05,1e-05,2e-05,-9e-05,0.00044,-0.00015,3
8821,9210,-0.00107,-0.0006799999999999999,-5e-05,1e-05,2e-05,-9e-05,0.00044,-0.00015,3
8822,9211,-0.00107,-0.0006799999999999999,-5e-05,1e-05,2e-05,-9e-05,0.00044,-0.00015,3
8823,9212,-0.00107,-0.0006799999999999999,-5e-05,1e-05,2e-05,-9e-05,0.00044,-0.00015,3
8824,9213,-0.00107,-0.0006799999999999999,-5e-05,1e-05,2e-05,-9e-05,0.00044,-0.00015,3
8825,9214,-0.00107,-0.0006799999999999999,-5e-05,1e-05,2e-05,-9e-05,0.00044,-0.00015,3
8826,9215,-0.00107,-0.0006799999999999999,-5e-05,1e-05,2e-05,-9e-05,0.00044,-0.00015,3
8827,9216,0.00053,8e-05,2.9999999999999997e-05,8e-05,-0.00011,0.00015,0.0002,0.00029,3
8828,9217,0.00053,8e-05,2.9999999999999997e-05,8e-05,-0.00011,0.00015,0.0002,0.00029,3
8829,9218,0.00053,8e-05,2.9999999999999997e-05,8e-05,-0.00011,0.00015,0.0002,0.00029,3
8830,9219,0.00053,8e-05,2.9999999999999997e-05,8e-05,-0.00011,0.00015,0.0002,0.00029,3
8831,9220,0.00053,8e-05,2.9999999999999997e-05,8e-05,-0.00011,0.00015,0.0002,0.00029,3
8832,9221,0.00053,8e-05,2.9999999999999997e-05,8e-05,-0.00011,0.00015,0.0002,0.00029,3
8833,9222,0.00053,8e-05,2.9999999999999997e-05,8e-05,-0.00011,0.00015,0.0002,0.00029,3
8834,9223,0.00053,8e-05,2.9999999999999997e-05,8e-05,-0.00011,0.00015,0.0002,0.00029,3
8835,9224,0.00053,8e-05,2.9999999999999997e-05,8e-05,-0.00011,0.00015,0.0002,0.00029,3
8836,9225,0.00053,8e-05,2.9999999999999997e-05,8e-05,-0.00011,0.00015,0.0002,0.00029,3
8837,9226,0.00053,8e-05,2.9999999999999997e-05,8e-05,-0.00011,0.00015,0.0002,0.00029,3
8838,9227,0.00053,8e-05,2.9999999999999997e-05,8e-05,-0.00011,0.00015,0.0002,0.00029,3
8839,9228,0.00053,8e-05,2.9999999999999997e-05,8e-05,-0.00011,0.00015,0.0002,0.00029,3
8840,9229,0.00053,8e-05,2.9999999999999997e-05,8e-05,-0.00011,0.00015,0.0002,0.00029,3
8841,9230,-0.0004,-0.00016999999999999999,-7e-05,-0.0004,-0.00082,-0.00029,0.0,-0.00061,3
8842,9231,0.0003,9e-05,-8e-05,0.0,-1e-05,-5e-05,-0.00018999999999999998,-2e-05,3
8843,9232,-0.00011,-0.00039,-0.0001,-5e-05,2.9999999999999997e-05,-0.00022,0.00011,0.00026000000000000003,3
8844,9234,-0.00011,-0.00039,-0.0001,-5e-05,2.9999999999999997e-05,-0.00022,0.00011,0.00026000000000000003,3
8845,9235,-0.00011,-0.00039,-0.0001,-5e-05,2.9999999999999997e-05,-0.00022,0.00011,0.00026000000000000003,3
8846,9236,-0.00011,-0.00039,-0.0001,-5e-05,2.9999999999999997e-05,-0.00022,0.00011,0.00026000000000000003,3
8847,9239,-0.00011,-0.00039,-0.0001,-5e-05,2.9999999999999997e-05,-0.00022,0.00011,0.00026000000000000003,3
8848,9240,-0.00011,-0.00039,-0.0001,-5e-05,2.9999999999999997e-05,-0.00022,0.00011,0.00026000000000000003,3
8849,9241,-0.00011,-0.00039,-0.0001,-5e-05,2.9999999999999997e-05,-0.00022,0.00011,0.00026000000000000003,3
8850,9242,-0.00011,-0.00039,-0.0001,-5e-05,2.9999999999999997e-05,-0.00022,0.00011,0.00026000000000000003,3
8851,9243,-0.00011,-0.00039,-0.0001,-5e-05,2.9999999999999997e-05,-0.00022,0.00011,0.00026000000000000003,3
8852,9244,-0.00011,-0.00039,-0.0001,-5e-05,2.9999999999999997e-05,-0.00022,0.00011,0.00026000000000000003,3
8853,9245,-0.00011,-0.00039,-0.0001,-5e-05,2.9999999999999997e-05,-0.00022,0.00011,0.00026000000000000003,3
8854,9246,-0.00011,-0.00039,-0.0001,-5e-05,2.9999999999999997e-05,-0.00022,0.00011,0.00026000000000000003,3
8855,9247,-0.00011,-0.00039,-0.0001,-5e-05,2.9999999999999997e-05,-0.00022,0.00011,0.00026000000000000003,3
8856,9248,-0.00011,-0.00039,-0.0001,-5e-05,2.9999999999999997e-05,-0.00022,0.00011,0.00026000000000000003,3
8857,9249,-0.00011,-0.00039,-0.0001,-5e-05,2.9999999999999997e-05,-0.00022,0.00011,0.00026000000000000003,3
8858,9250,-0.00011,-0.00039,-0.0001,-5e-05,2.9999999999999997e-05,-0.00022,0.00011,0.00026000000000000003,3
8859,9251,-0.00011,-0.00039,-0.0001,-5e-05,2.9999999999999997e-05,-0.00022,0.00011,0.00026000000000000003,3
8860,9252,-0.00011,-0.00039,-0.0001,-5e-05,2.9999999999999997e-05,-0.00022,0.00011,0.00026000000000000003,3
8861,9253,0.00032,-1e-05,2.9999999999999997e-05,0.0001,0.0,1e-05,-2.9999999999999997e-05,-0.00015,3
8862,9254,0.00032,-1e-05,2.9999999999999997e-05,0.0001,0.0,1e-05,-2.9999999999999997e-05,-0.00015,3
8863,9255,0.00032,-1e-05,2.9999999999999997e-05,0.0001,0.0,1e-05,-2.9999999999999997e-05,-0.00015,3
8864,9256,0.00032,-1e-05,2.9999999999999997e-05,0.0001,0.0,1e-05,-2.9999999999999997e-05,-0.00015,3
8865,9257,0.00032,-1e-05,2.9999999999999997e-05,0.0001,0.0,1e-05,-2.9999999999999997e-05,-0.00015,3
8866,9258,0.00032,-1e-05,2.9999999999999997e-05,0.0001,0.0,1e-05,-2.9999999999999997e-05,-0.00015,3
8867,9259,0.00032,-1e-05,2.9999999999999997e-05,0.0001,0.0,1e-05,-2.9999999999999997e-05,-0.00015,3
8868,9260,0.00032,-1e-05,2.9999999999999997e-05,0.0001,0.0,1e-05,-2.9999999999999997e-05,-0.00015,3
8869,9261,-0.00033,0.00013000000000000002,-2.9999999999999997e-05,-1e-05,0.00013000000000000002,-2.9999999999999997e-05,-0.00016999999999999999,-0.00061,3
8870,9262,-0.00033,0.00013000000000000002,-2.9999999999999997e-05,-1e-05,0.00013000000000000002,-2.9999999999999997e-05,-0.00016999999999999999,-0.00061,3
8871,9263,-0.00033,0.00013000000000000002,-2.9999999999999997e-05,-1e-05,0.00013000000000000002,-2.9999999999999997e-05,-0.00016999999999999999,-0.00061,3
8872,9264,-0.00033,0.00013000000000000002,-2.9999999999999997e-05,-1e-05,0.00013000000000000002,-2.9999999999999997e-05,-0.00016999999999999999,-0.00061,3
8873,9265,-0.00033,0.00013000000000000002,-2.9999999999999997e-05,-1e-05,0.00013000000000000002,-2.9999999999999997e-05,-0.00016999999999999999,-0.00061,3
8874,9266,-0.00033,0.00013000000000000002,-2.9999999999999997e-05,-1e-05,0.00013000000000000002,-2.9999999999999997e-05,-0.00016999999999999999,-0.00061,3
8875,9267,-0.00043,-2.9999999999999997e-05,2.9999999999999997e-05,0.00011,0.0004,-0.00027,-0.00032,-0.00022,3
8876,9268,-0.00043,-2.9999999999999997e-05,2.9999999999999997e-05,0.00011,0.0004,-0.00027,-0.00032,-0.00022,3
8877,9269,-0.00043,-2.9999999999999997e-05,2.9999999999999997e-05,0.00011,0.0004,-0.00027,-0.00032,-0.00022,3
8878,9270,-0.00043,-2.9999999999999997e-05,2.9999999999999997e-05,0.00011,0.0004,-0.00027,-0.00032,-0.00022,3
8879,9271,-0.00043,-2.9999999999999997e-05,2.9999999999999997e-05,0.00011,0.0004,-0.00027,-0.00032,-0.00022,3
8880,9272,-0.00043,-2.9999999999999997e-05,2.9999999999999997e-05,0.00011,0.0004,-0.00027,-0.00032,-0.00022,3
8881,9273,-0.00043,-2.9999999999999997e-05,2.9999999999999997e-05,0.00011,0.0004,-0.00027,-0.00032,-0.00022,3
8882,9274,-0.00043,-2.9999999999999997e-05,2.9999999999999997e-05,0.00011,0.0004,-0.00027,-0.00032,-0.00022,3
8883,9275,-0.00043,-2.9999999999999997e-05,2.9999999999999997e-05,0.00011,0.0004,-0.00027,-0.00032,-0.00022,3
8884,9276,-0.00043,-2.9999999999999997e-05,2.9999999999999997e-05,0.00011,0.0004,-0.00027,-0.00032,-0.00022,3
8885,9277,-0.00043,-2.9999999999999997e-05,2.9999999999999997e-05,0.00011,0.0004,-0.00027,-0.00032,-0.00022,3
8886,9278,-0.00043,-2.9999999999999997e-05,2.9999999999999997e-05,0.00011,0.0004,-0.00027,-0.00032,-0.00022,3
8887,9279,-0.00043,-2.9999999999999997e-05,2.9999999999999997e-05,0.00011,0.0004,-0.00027,-0.00032,-0.00022,3
8888,9280,-0.00043,-2.9999999999999997e-05,2.9999999999999997e-05,0.00011,0.0004,-0.00027,-0.00032,-0.00022,3
8889,9281,-0.00043,-2.9999999999999997e-05,2.9999999999999997e-05,0.00011,0.0004,-0.00027,-0.00032,-0.00022,3
8890,9282,-0.00043,-2.9999999999999997e-05,2.9999999999999997e-05,0.00011,0.0004,-0.00027,-0.00032,-0.00022,3
8891,9283,-0.0001,4e-05,2e-05,7e-05,-0.0001,9e-05,-5e-05,0.00018,3
8892,9284,0.0005099999999999999,0.00039,0.00015,-0.00016999999999999999,0.00035,0.00031,0.00064,0.00016,3
8893,9285,0.0005099999999999999,0.00039,0.00015,-0.00016999999999999999,0.00035,0.00031,0.00064,0.00016,3
8894,9286,0.0005099999999999999,0.00039,0.00015,-0.00016999999999999999,0.00035,0.00031,0.00064,0.00016,3
8895,9288,0.0005099999999999999,0.00039,0.00015,-0.00016999999999999999,0.00035,0.00031,0.00064,0.00016,3
8896,9290,0.0005099999999999999,0.00039,0.00015,-0.00016999999999999999,0.00035,0.00031,0.00064,0.00016,3
8897,9291,0.00044,0.0002,0.00011,0.00033,0.00062,0.00033999999999999997,-0.00037,4e-05,3
8898,9292,-0.00042,0.00029,9e-05,0.0001,-0.00039,-2e-05,0.00033,-0.0001,3
8899,9293,-0.00023999999999999998,-0.00029,-0.00014,-8e-05,-8e-05,-0.00025,-0.00047999999999999996,0.0003,3
8900,9294,-0.00023999999999999998,-0.00029,-0.00014,-8e-05,-8e-05,-0.00025,-0.00047999999999999996,0.0003,3
8901,9295,-0.00023999999999999998,-0.00029,-0.00014,-8e-05,-8e-05,-0.00025,-0.00047999999999999996,0.0003,3
8902,9296,-0.00023999999999999998,-0.00029,-0.00014,-8e-05,-8e-05,-0.00025,-0.00047999999999999996,0.0003,3
8903,9297,-0.00023999999999999998,-0.00029,-0.00014,-8e-05,-8e-05,-0.00025,-0.00047999999999999996,0.0003,3
8904,9298,-0.00023999999999999998,-0.00029,-0.00014,-8e-05,-8e-05,-0.00025,-0.00047999999999999996,0.0003,3
8905,9299,-0.00023999999999999998,-0.00029,-0.00014,-8e-05,-8e-05,-0.00025,-0.00047999999999999996,0.0003,3
8906,9300,-0.00023999999999999998,-0.00029,-0.00014,-8e-05,-8e-05,-0.00025,-0.00047999999999999996,0.0003,3
8907,9301,-0.00023999999999999998,-0.00029,-0.00014,-8e-05,-8e-05,-0.00025,-0.00047999999999999996,0.0003,3
8908,9302,-0.00023999999999999998,-0.00029,-0.00014,-8e-05,-8e-05,-0.00025,-0.00047999999999999996,0.0003,3
8909,9303,-0.00023999999999999998,-0.00029,-0.00014,-8e-05,-8e-05,-0.00025,-0.00047999999999999996,0.0003,3
8910,9304,-0.00023999999999999998,-0.00029,-0.00014,-8e-05,-8e-05,-0.00025,-0.00047999999999999996,0.0003,3
8911,9305,-0.00023999999999999998,-0.00029,-0.00014,-8e-05,-8e-05,-0.00025,-0.00047999999999999996,0.0003,3
8912,9306,-0.00023999999999999998,-0.00029,-0.00014,-8e-05,-8e-05,-0.00025,-0.00047999999999999996,0.0003,3
8913,9307,-0.00023999999999999998,-0.00029,-0.00014,-8e-05,-8e-05,-0.00025,-0.00047999999999999996,0.0003,3
8914,9308,-0.00023999999999999998,-0.00029,-0.00014,-8e-05,-8e-05,-0.00025,-0.00047999999999999996,0.0003,3
8915,9309,-0.00023999999999999998,-0.00029,-0.00014,-8e-05,-8e-05,-0.00025,-0.00047999999999999996,0.0003,3
8916,9310,-0.00023999999999999998,-0.00029,-0.00014,-8e-05,-8e-05,-0.00025,-0.00047999999999999996,0.0003,3
8917,9311,-0.00023999999999999998,-0.00029,-0.00014,-8e-05,-8e-05,-0.00025,-0.00047999999999999996,0.0003,3
8918,9312,-0.00023999999999999998,-0.00029,-0.00014,-8e-05,-8e-05,-0.00025,-0.00047999999999999996,0.0003,3
8919,9313,-0.00067,-0.00011999999999999999,-5.9999999999999995e-05,5.9999999999999995e-05,-0.00014,2.9999999999999997e-05,0.00032,-0.00033,3
8920,9314,-0.00067,-0.00011999999999999999,-5.9999999999999995e-05,5.9999999999999995e-05,-0.00014,2.9999999999999997e-05,0.00032,-0.00033,3
8921,9315,0.00033,0.0,2e-05,5e-05,-0.00014,-0.00015,-0.00011999999999999999,2.9999999999999997e-05,3
8922,9316,0.00033,0.0,2e-05,5e-05,-0.00014,-0.00015,-0.00011999999999999999,2.9999999999999997e-05,3
8923,9317,0.00033,0.0,2e-05,5e-05,-0.00014,-0.00015,-0.00011999999999999999,2.9999999999999997e-05,3
8924,9318,0.00033,0.0,2e-05,5e-05,-0.00014,-0.00015,-0.00011999999999999999,2.9999999999999997e-05,3
8925,9319,0.00033,0.0,2e-05,5e-05,-0.00014,-0.00015,-0.00011999999999999999,2.9999999999999997e-05,3
8926,9320,0.00033,0.0,2e-05,5e-05,-0.00014,-0.00015,-0.00011999999999999999,2.9999999999999997e-05,3
8927,9321,0.00033,0.0,2e-05,5e-05,-0.00014,-0.00015,-0.00011999999999999999,2.9999999999999997e-05,3
8928,9322,0.00033,0.0,2e-05,5e-05,-0.00014,-0.00015,-0.00011999999999999999,2.9999999999999997e-05,3
8929,9323,0.00033,0.0,2e-05,5e-05,-0.00014,-0.00015,-0.00011999999999999999,2.9999999999999997e-05,3
8930,9324,0.00033,0.0,2e-05,5e-05,-0.00014,-0.00015,-0.00011999999999999999,2.9999999999999997e-05,3
8931,9325,0.00033,0.0,2e-05,5e-05,-0.00014,-0.00015,-0.00011999999999999999,2.9999999999999997e-05,3
8932,9326,0.00033,0.0,2e-05,5e-05,-0.00014,-0.00015,-0.00011999999999999999,2.9999999999999997e-05,3
8933,9327,0.00055,5e-05,-0.0001,-0.00011999999999999999,-0.0002,-0.0001,0.0004,0.00021,3
8934,9328,0.00055,5e-05,-0.0001,-0.00011999999999999999,-0.0002,-0.0001,0.0004,0.00021,3
8935,9329,0.00055,5e-05,-0.0001,-0.00011999999999999999,-0.0002,-0.0001,0.0004,0.00021,3
8936,9330,0.00055,5e-05,-0.0001,-0.00011999999999999999,-0.0002,-0.0001,0.0004,0.00021,3
8937,9331,0.00055,5e-05,-0.0001,-0.00011999999999999999,-0.0002,-0.0001,0.0004,0.00021,3
8938,9332,0.00055,5e-05,-0.0001,-0.00011999999999999999,-0.0002,-0.0001,0.0004,0.00021,3
8939,9333,0.00055,5e-05,-0.0001,-0.00011999999999999999,-0.0002,-0.0001,0.0004,0.00021,3
8940,9334,0.00055,5e-05,-0.0001,-0.00011999999999999999,-0.0002,-0.0001,0.0004,0.00021,3
8941,9335,0.00055,5e-05,-0.0001,-0.00011999999999999999,-0.0002,-0.0001,0.0004,0.00021,3
8942,9336,2e-05,-0.00011,-4e-05,5.9999999999999995e-05,1e-05,-2e-05,0.0,0.0003,3
8943,9339,2e-05,-0.00011,-4e-05,5.9999999999999995e-05,1e-05,-2e-05,0.0,0.0003,3
8944,9340,2e-05,-0.00011,-4e-05,5.9999999999999995e-05,1e-05,-2e-05,0.0,0.0003,3
8945,9341,2e-05,-0.00011,-4e-05,5.9999999999999995e-05,1e-05,-2e-05,0.0,0.0003,3
8946,9342,2e-05,-0.00011,-4e-05,5.9999999999999995e-05,1e-05,-2e-05,0.0,0.0003,3
8947,9343,2e-05,-0.00011,-4e-05,5.9999999999999995e-05,1e-05,-2e-05,0.0,0.0003,3
8948,9344,2e-05,-0.00011,-4e-05,5.9999999999999995e-05,1e-05,-2e-05,0.0,0.0003,3
8949,9345,2e-05,-0.00011,-4e-05,5.9999999999999995e-05,1e-05,-2e-05,0.0,0.0003,3
8950,9346,2e-05,-0.00011,-4e-05,5.9999999999999995e-05,1e-05,-2e-05,0.0,0.0003,3
8951,9347,2e-05,-0.00011,-4e-05,5.9999999999999995e-05,1e-05,-2e-05,0.0,0.0003,3
8952,9348,2e-05,-0.00011,-4e-05,5.9999999999999995e-05,1e-05,-2e-05,0.0,0.0003,3
8953,9349,2e-05,-0.00011,-4e-05,5.9999999999999995e-05,1e-05,-2e-05,0.0,0.0003,3
8954,9351,0.0007,0.00028,0.00025,0.00049,0.00108,0.00075,0.00057,0.001,3
8955,9352,0.0004,0.00014,5e-05,0.00021,0.00053,0.00026000000000000003,0.0001,-0.00016999999999999999,3
8956,9354,0.0004,0.00014,5e-05,0.00021,0.00053,0.00026000000000000003,0.0001,-0.00016999999999999999,3
8957,9355,0.0004,0.00014,5e-05,0.00021,0.00053,0.00026000000000000003,0.0001,-0.00016999999999999999,3
8958,9356,0.0004,0.00014,5e-05,0.00021,0.00053,0.00026000000000000003,0.0001,-0.00016999999999999999,3
8959,9357,0.0004,0.00014,5e-05,0.00021,0.00053,0.00026000000000000003,0.0001,-0.00016999999999999999,3
8960,9358,0.0004,0.00014,5e-05,0.00021,0.00053,0.00026000000000000003,0.0001,-0.00016999999999999999,3
8961,9359,0.0004,0.00014,5e-05,0.00021,0.00053,0.00026000000000000003,0.0001,-0.00016999999999999999,3
8962,9360,0.0004,0.00014,5e-05,0.00021,0.00053,0.00026000000000000003,0.0001,-0.00016999999999999999,3
8963,9361,0.0004,0.00014,5e-05,0.00021,0.00053,0.00026000000000000003,0.0001,-0.00016999999999999999,3
8964,9362,0.0004,0.00014,5e-05,0.00021,0.00053,0.00026000000000000003,0.0001,-0.00016999999999999999,3
8965,9363,0.0004,0.00014,5e-05,0.00021,0.00053,0.00026000000000000003,0.0001,-0.00016999999999999999,3
8966,9364,0.0004,0.00014,5e-05,0.00021,0.00053,0.00026000000000000003,0.0001,-0.00016999999999999999,3
8967,9365,0.0004,0.00014,5e-05,0.00021,0.00053,0.00026000000000000003,0.0001,-0.00016999999999999999,3
8968,9366,0.0004,0.00014,5e-05,0.00021,0.00053,0.00026000000000000003,0.0001,-0.00016999999999999999,3
8969,9367,0.0004,0.00014,5e-05,0.00021,0.00053,0.00026000000000000003,0.0001,-0.00016999999999999999,3
8970,9368,0.0004,0.00014,5e-05,0.00021,0.00053,0.00026000000000000003,0.0001,-0.00016999999999999999,3
8971,9369,0.0004,0.00014,5e-05,0.00021,0.00053,0.00026000000000000003,0.0001,-0.00016999999999999999,3
8972,9370,0.0004,0.00014,5e-05,0.00021,0.00053,0.00026000000000000003,0.0001,-0.00016999999999999999,3
8973,9371,0.0004,0.00014,5e-05,0.00021,0.00053,0.00026000000000000003,0.0001,-0.00016999999999999999,3
8974,9372,0.0004,0.00014,5e-05,0.00021,0.00053,0.00026000000000000003,0.0001,-0.00016999999999999999,3
8975,9373,0.00047000000000000004,2e-05,-0.00015,-0.00021,-0.00042,-2.9999999999999997e-05,0.00015,0.00055,3
8976,9374,0.00047000000000000004,2e-05,-0.00015,-0.00021,-0.00042,-2.9999999999999997e-05,0.00015,0.00055,3
8977,9375,-7e-05,0.0001,5.9999999999999995e-05,0.00011,-0.00013000000000000002,-2.9999999999999997e-05,-5e-05,9e-05,3
8978,9376,-7e-05,0.0001,5.9999999999999995e-05,0.00011,-0.00013000000000000002,-2.9999999999999997e-05,-5e-05,9e-05,3
8979,9377,-7e-05,0.0001,5.9999999999999995e-05,0.00011,-0.00013000000000000002,-2.9999999999999997e-05,-5e-05,9e-05,3
8980,9378,-7e-05,0.0001,5.9999999999999995e-05,0.00011,-0.00013000000000000002,-2.9999999999999997e-05,-5e-05,9e-05,3
8981,9379,-7e-05,0.0001,5.9999999999999995e-05,0.00011,-0.00013000000000000002,-2.9999999999999997e-05,-5e-05,9e-05,3
8982,9380,-7e-05,0.0001,5.9999999999999995e-05,0.00011,-0.00013000000000000002,-2.9999999999999997e-05,-5e-05,9e-05,3
8983,9381,-7e-05,0.0001,5.9999999999999995e-05,0.00011,-0.00013000000000000002,-2.9999999999999997e-05,-5e-05,9e-05,3
8984,9382,-7e-05,0.0001,5.9999999999999995e-05,0.00011,-0.00013000000000000002,-2.9999999999999997e-05,-5e-05,9e-05,3
8985,9383,-7e-05,0.0001,5.9999999999999995e-05,0.00011,-0.00013000000000000002,-2.9999999999999997e-05,-5e-05,9e-05,3
8986,9384,-7e-05,0.0001,5.9999999999999995e-05,0.00011,-0.00013000000000000002,-2.9999999999999997e-05,-5e-05,9e-05,3
8987,9385,-7e-05,0.0001,5.9999999999999995e-05,0.00011,-0.00013000000000000002,-2.9999999999999997e-05,-5e-05,9e-05,3
8988,9386,-7e-05,0.0001,5.9999999999999995e-05,0.00011,-0.00013000000000000002,-2.9999999999999997e-05,-5e-05,9e-05,3
8989,9388,-7e-05,0.0001,5.9999999999999995e-05,0.00011,-0.00013000000000000002,-2.9999999999999997e-05,-5e-05,9e-05,3
8990,9389,-7e-05,0.0001,5.9999999999999995e-05,0.00011,-0.00013000000000000002,-2.9999999999999997e-05,-5e-05,9e-05,3
8991,9390,-7e-05,0.0001,5.9999999999999995e-05,0.00011,-0.00013000000000000002,-2.9999999999999997e-05,-5e-05,9e-05,3
8992,9391,-7e-05,0.0001,5.9999999999999995e-05,0.00011,-0.00013000000000000002,-2.9999999999999997e-05,-5e-05,9e-05,3
8993,9392,-7e-05,0.0001,5.9999999999999995e-05,0.00011,-0.00013000000000000002,-2.9999999999999997e-05,-5e-05,9e-05,3
8994,9393,-7e-05,0.0001,5.9999999999999995e-05,0.00011,-0.00013000000000000002,-2.9999999999999997e-05,-5e-05,9e-05,3
8995,9394,-7e-05,0.0001,5.9999999999999995e-05,0.00011,-0.00013000000000000002,-2.9999999999999997e-05,-5e-05,9e-05,3
8996,9395,-7e-05,0.0001,5.9999999999999995e-05,0.00011,-0.00013000000000000002,-2.9999999999999997e-05,-5e-05,9e-05,3
8997,9396,-0.00121,-0.00016,-5e-05,-0.00013000000000000002,-0.0003,0.00011999999999999999,-0.00022,-0.00072,3
8998,9397,2.9999999999999997e-05,2e-05,9e-05,0.0003,0.00112,0.00013000000000000002,-0.00026000000000000003,0.00037999999999999997,3
8999,9398,2.9999999999999997e-05,2e-05,9e-05,0.0003,0.00112,0.00013000000000000002,-0.00026000000000000003,0.00037999999999999997,3
9000,9399,0.0004,-5e-05,-0.00013000000000000002,-0.00022999999999999998,-0.0007700000000000001,-0.00022,5.9999999999999995e-05,-0.00031,3
9001,9400,0.0004,-5e-05,-0.00013000000000000002,-0.00022999999999999998,-0.0007700000000000001,-0.00022,5.9999999999999995e-05,-0.00031,3
9002,9401,0.0004,-5e-05,-0.00013000000000000002,-0.00022999999999999998,-0.0007700000000000001,-0.00022,5.9999999999999995e-05,-0.00031,3
9003,9402,0.0004,-5e-05,-0.00013000000000000002,-0.00022999999999999998,-0.0007700000000000001,-0.00022,5.9999999999999995e-05,-0.00031,3
9004,9403,0.0004,-5e-05,-0.00013000000000000002,-0.00022999999999999998,-0.0007700000000000001,-0.00022,5.9999999999999995e-05,-0.00031,3
9005,9404,0.0004,-5e-05,-0.00013000000000000002,-0.00022999999999999998,-0.0007700000000000001,-0.00022,5.9999999999999995e-05,-0.00031,3
9006,9405,0.0004,-5e-05,-0.00013000000000000002,-0.00022999999999999998,-0.0007700000000000001,-0.00022,5.9999999999999995e-05,-0.00031,3
9007,9406,0.0004,-5e-05,-0.00013000000000000002,-0.00022999999999999998,-0.0007700000000000001,-0.00022,5.9999999999999995e-05,-0.00031,3
9008,9407,0.0004,-5e-05,-0.00013000000000000002,-0.00022999999999999998,-0.0007700000000000001,-0.00022,5.9999999999999995e-05,-0.00031,3
9009,9408,0.0004,-5e-05,-0.00013000000000000002,-0.00022999999999999998,-0.0007700000000000001,-0.00022,5.9999999999999995e-05,-0.00031,3
9010,9409,0.0004,-5e-05,-0.00013000000000000002,-0.00022999999999999998,-0.0007700000000000001,-0.00022,5.9999999999999995e-05,-0.00031,3
9011,9410,0.0004,-5e-05,-0.00013000000000000002,-0.00022999999999999998,-0.0007700000000000001,-0.00022,5.9999999999999995e-05,-0.00031,3
9012,9411,2e-05,-0.00018999999999999998,1e-05,-0.00018999999999999998,-1e-05,2.9999999999999997e-05,-0.0002,7e-05,3
9013,9412,-0.00011999999999999999,-1e-05,1e-05,-0.0001,0.00016999999999999999,7e-05,-0.00016999999999999999,-0.00025,3
9014,9413,-0.00011999999999999999,-1e-05,1e-05,-0.0001,0.00016999999999999999,7e-05,-0.00016999999999999999,-0.00025,3
9015,9414,-0.00011999999999999999,-1e-05,1e-05,-0.0001,0.00016999999999999999,7e-05,-0.00016999999999999999,-0.00025,3
9016,9415,-0.00011999999999999999,-1e-05,1e-05,-0.0001,0.00016999999999999999,7e-05,-0.00016999999999999999,-0.00025,3
9017,9416,-0.00011999999999999999,-1e-05,1e-05,-0.0001,0.00016999999999999999,7e-05,-0.00016999999999999999,-0.00025,3
9018,9417,-0.00011999999999999999,-1e-05,1e-05,-0.0001,0.00016999999999999999,7e-05,-0.00016999999999999999,-0.00025,3
9019,9418,-0.00011999999999999999,-1e-05,1e-05,-0.0001,0.00016999999999999999,7e-05,-0.00016999999999999999,-0.00025,3
9020,9419,-0.00011999999999999999,-1e-05,1e-05,-0.0001,0.00016999999999999999,7e-05,-0.00016999999999999999,-0.00025,3
9021,9420,-0.00011999999999999999,-1e-05,1e-05,-0.0001,0.00016999999999999999,7e-05,-0.00016999999999999999,-0.00025,3
9022,9421,-0.00011999999999999999,-1e-05,1e-05,-0.0001,0.00016999999999999999,7e-05,-0.00016999999999999999,-0.00025,3
9023,9422,-0.00011999999999999999,-1e-05,1e-05,-0.0001,0.00016999999999999999,7e-05,-0.00016999999999999999,-0.00025,3
9024,9423,-0.00011999999999999999,-1e-05,1e-05,-0.0001,0.00016999999999999999,7e-05,-0.00016999999999999999,-0.00025,3
9025,9424,-0.00011999999999999999,-1e-05,1e-05,-0.0001,0.00016999999999999999,7e-05,-0.00016999999999999999,-0.00025,3
9026,9425,-0.00011999999999999999,-1e-05,1e-05,-0.0001,0.00016999999999999999,7e-05,-0.00016999999999999999,-0.00025,3
9027,9426,-0.00011999999999999999,-1e-05,1e-05,-0.0001,0.00016999999999999999,7e-05,-0.00016999999999999999,-0.00025,3
9028,9427,-0.00011999999999999999,-1e-05,1e-05,-0.0001,0.00016999999999999999,7e-05,-0.00016999999999999999,-0.00025,3
9029,9428,-0.00011999999999999999,-1e-05,1e-05,-0.0001,0.00016999999999999999,7e-05,-0.00016999999999999999,-0.00025,3
9030,9429,-0.00011999999999999999,-1e-05,1e-05,-0.0001,0.00016999999999999999,7e-05,-0.00016999999999999999,-0.00025,3
9031,9430,-0.00011999999999999999,-1e-05,1e-05,-0.0001,0.00016999999999999999,7e-05,-0.00016999999999999999,-0.00025,3
9032,9431,-0.00011999999999999999,-1e-05,1e-05,-0.0001,0.00016999999999999999,7e-05,-0.00016999999999999999,-0.00025,3
9033,9432,-0.00011999999999999999,-1e-05,1e-05,-0.0001,0.00016999999999999999,7e-05,-0.00016999999999999999,-0.00025,3
9034,9433,-0.00055,-0.00029,-0.00014,-0.00023999999999999998,-0.00049,-0.00042,-0.00028,-0.00015,3
9035,9434,-0.00055,-0.00029,-0.00014,-0.00023999999999999998,-0.00049,-0.00042,-0.00028,-0.00015,3
9036,9435,0.00014,-0.0001,-8e-05,-0.00018,-0.00022999999999999998,-4e-05,5e-05,0.0001,3
9037,9436,0.00014,-0.0001,-8e-05,-0.00018,-0.00022999999999999998,-4e-05,5e-05,0.0001,3
9038,9439,0.00014,-0.0001,-8e-05,-0.00018,-0.00022999999999999998,-4e-05,5e-05,0.0001,3
9039,9440,0.00014,-0.0001,-8e-05,-0.00018,-0.00022999999999999998,-4e-05,5e-05,0.0001,3
9040,9441,0.00014,-0.0001,-8e-05,-0.00018,-0.00022999999999999998,-4e-05,5e-05,0.0001,3
9041,9442,0.00014,-0.0001,-8e-05,-0.00018,-0.00022999999999999998,-4e-05,5e-05,0.0001,3
9042,9443,0.00014,-0.0001,-8e-05,-0.00018,-0.00022999999999999998,-4e-05,5e-05,0.0001,3
9043,9444,0.00014,-0.0001,-8e-05,-0.00018,-0.00022999999999999998,-4e-05,5e-05,0.0001,3
9044,9445,0.00014,-0.0001,-8e-05,-0.00018,-0.00022999999999999998,-4e-05,5e-05,0.0001,3
9045,9446,0.00014,-0.0001,-8e-05,-0.00018,-0.00022999999999999998,-4e-05,5e-05,0.0001,3
9046,9447,0.00014,-0.0001,-8e-05,-0.00018,-0.00022999999999999998,-4e-05,5e-05,0.0001,3
9047,9448,0.00014,-0.0001,-8e-05,-0.00018,-0.00022999999999999998,-4e-05,5e-05,0.0001,3
9048,9449,0.00014,-0.0001,-8e-05,-0.00018,-0.00022999999999999998,-4e-05,5e-05,0.0001,3
9049,9450,0.00014,-0.0001,-8e-05,-0.00018,-0.00022999999999999998,-4e-05,5e-05,0.0001,3
9050,9451,0.00014,-0.0001,-8e-05,-0.00018,-0.00022999999999999998,-4e-05,5e-05,0.0001,3
9051,9452,0.00014,-0.0001,-8e-05,-0.00018,-0.00022999999999999998,-4e-05,5e-05,0.0001,3
9052,9453,0.00014,-0.0001,-8e-05,-0.00018,-0.00022999999999999998,-4e-05,5e-05,0.0001,3
9053,9454,0.00014,-0.0001,-8e-05,-0.00018,-0.00022999999999999998,-4e-05,5e-05,0.0001,3
9054,9455,0.00014,-0.0001,-8e-05,-0.00018,-0.00022999999999999998,-4e-05,5e-05,0.0001,3
9055,9456,2.9999999999999997e-05,0.00014,5e-05,-8e-05,-0.0005200000000000001,-0.00029,-7e-05,-0.00026000000000000003,3
9056,9457,0.0008699999999999999,0.00014,-5e-05,-7e-05,1e-05,-7e-05,8e-05,0.00018999999999999998,3
9057,9458,0.0008699999999999999,0.00014,-5e-05,-7e-05,1e-05,-7e-05,8e-05,0.00018999999999999998,3
9058,9459,0.0008699999999999999,0.00014,-5e-05,-7e-05,1e-05,-7e-05,8e-05,0.00018999999999999998,3
9059,9460,0.0008699999999999999,0.00014,-5e-05,-7e-05,1e-05,-7e-05,8e-05,0.00018999999999999998,3
9060,9461,0.0008699999999999999,0.00014,-5e-05,-7e-05,1e-05,-7e-05,8e-05,0.00018999999999999998,3
9061,9462,0.0008699999999999999,0.00014,-5e-05,-7e-05,1e-05,-7e-05,8e-05,0.00018999999999999998,3
9062,9463,0.0008699999999999999,0.00014,-5e-05,-7e-05,1e-05,-7e-05,8e-05,0.00018999999999999998,3
9063,9464,0.0008699999999999999,0.00014,-5e-05,-7e-05,1e-05,-7e-05,8e-05,0.00018999999999999998,3
9064,9465,0.0008699999999999999,0.00014,-5e-05,-7e-05,1e-05,-7e-05,8e-05,0.00018999999999999998,3
9065,9466,0.0008699999999999999,0.00014,-5e-05,-7e-05,1e-05,-7e-05,8e-05,0.00018999999999999998,3
9066,9467,0.0008699999999999999,0.00014,-5e-05,-7e-05,1e-05,-7e-05,8e-05,0.00018999999999999998,3
9067,9468,0.0008699999999999999,0.00014,-5e-05,-7e-05,1e-05,-7e-05,8e-05,0.00018999999999999998,3
9068,9469,0.0008699999999999999,0.00014,-5e-05,-7e-05,1e-05,-7e-05,8e-05,0.00018999999999999998,3
9069,9470,0.0008699999999999999,0.00014,-5e-05,-7e-05,1e-05,-7e-05,8e-05,0.00018999999999999998,3
9070,9471,0.00018,-5.9999999999999995e-05,0.0,-5.9999999999999995e-05,-0.00033,-0.00021,0.0003,0.00085,3
9071,9472,-0.00026000000000000003,-0.00011999999999999999,4e-05,1e-05,0.00015,0.0,-0.00025,-0.0001,3
9072,9473,-0.00026000000000000003,-0.00011999999999999999,4e-05,1e-05,0.00015,0.0,-0.00025,-0.0001,3
9073,9474,-0.00026000000000000003,-0.00011999999999999999,4e-05,1e-05,0.00015,0.0,-0.00025,-0.0001,3
9074,9475,-0.00026000000000000003,-0.00011999999999999999,4e-05,1e-05,0.00015,0.0,-0.00025,-0.0001,3
9075,9476,-0.00026000000000000003,-0.00011999999999999999,4e-05,1e-05,0.00015,0.0,-0.00025,-0.0001,3
9076,9477,-0.00026000000000000003,-0.00011999999999999999,4e-05,1e-05,0.00015,0.0,-0.00025,-0.0001,3
9077,9478,-0.00026000000000000003,-0.00011999999999999999,4e-05,1e-05,0.00015,0.0,-0.00025,-0.0001,3
9078,9479,-0.00026000000000000003,-0.00011999999999999999,4e-05,1e-05,0.00015,0.0,-0.00025,-0.0001,3
9079,9480,-0.00026000000000000003,-0.00011999999999999999,4e-05,1e-05,0.00015,0.0,-0.00025,-0.0001,3
9080,9481,-0.00026000000000000003,-0.00011999999999999999,4e-05,1e-05,0.00015,0.0,-0.00025,-0.0001,3
9081,9482,-0.00026000000000000003,-0.00011999999999999999,4e-05,1e-05,0.00015,0.0,-0.00025,-0.0001,3
9082,9483,-0.00026000000000000003,-0.00011999999999999999,4e-05,1e-05,0.00015,0.0,-0.00025,-0.0001,3
9083,9484,-0.00026000000000000003,-0.00011999999999999999,4e-05,1e-05,0.00015,0.0,-0.00025,-0.0001,3
9084,9485,-0.00026000000000000003,-0.00011999999999999999,4e-05,1e-05,0.00015,0.0,-0.00025,-0.0001,3
9085,9486,-0.00026000000000000003,-0.00011999999999999999,4e-05,1e-05,0.00015,0.0,-0.00025,-0.0001,3
9086,9488,-0.00026000000000000003,-0.00011999999999999999,4e-05,1e-05,0.00015,0.0,-0.00025,-0.0001,3
9087,9489,-0.00026000000000000003,-0.00011999999999999999,4e-05,1e-05,0.00015,0.0,-0.00025,-0.0001,3
9088,9490,-0.00026000000000000003,-0.00011999999999999999,4e-05,1e-05,0.00015,0.0,-0.00025,-0.0001,3
9089,9491,-0.00026000000000000003,-0.00011999999999999999,4e-05,1e-05,0.00015,0.0,-0.00025,-0.0001,3
9090,9492,-0.00026000000000000003,-0.00011999999999999999,4e-05,1e-05,0.00015,0.0,-0.00025,-0.0001,3
9091,9493,0.0009699999999999999,-9e-05,-9e-05,-0.0001,0.00016999999999999999,-1e-05,8e-05,0.00026000000000000003,3
9092,9494,0.0009699999999999999,-9e-05,-9e-05,-0.0001,0.00016999999999999999,-1e-05,8e-05,0.00026000000000000003,3
9093,9495,-0.00032,-5e-05,-2e-05,2.9999999999999997e-05,4e-05,5e-05,8e-05,-0.00081,3
9094,9496,-0.00032,-5e-05,-2e-05,2.9999999999999997e-05,4e-05,5e-05,8e-05,-0.00081,3
9095,9497,-0.00032,-5e-05,-2e-05,2.9999999999999997e-05,4e-05,5e-05,8e-05,-0.00081,3
9096,9498,-0.00032,-5e-05,-2e-05,2.9999999999999997e-05,4e-05,5e-05,8e-05,-0.00081,3
9097,9499,-0.00032,-5e-05,-2e-05,2.9999999999999997e-05,4e-05,5e-05,8e-05,-0.00081,3
9098,9500,-0.00032,-5e-05,-2e-05,2.9999999999999997e-05,4e-05,5e-05,8e-05,-0.00081,3
9099,9501,-0.00032,-5e-05,-2e-05,2.9999999999999997e-05,4e-05,5e-05,8e-05,-0.00081,3
9100,9502,-0.00032,-5e-05,-2e-05,2.9999999999999997e-05,4e-05,5e-05,8e-05,-0.00081,3
9101,9503,-0.00032,-5e-05,-2e-05,2.9999999999999997e-05,4e-05,5e-05,8e-05,-0.00081,3
9102,9504,-0.00032,-5e-05,-2e-05,2.9999999999999997e-05,4e-05,5e-05,8e-05,-0.00081,3
9103,9505,-0.00032,-5e-05,-2e-05,2.9999999999999997e-05,4e-05,5e-05,8e-05,-0.00081,3
9104,9506,-0.00032,-5e-05,-2e-05,2.9999999999999997e-05,4e-05,5e-05,8e-05,-0.00081,3
9105,9507,-0.00032,-5e-05,-2e-05,2.9999999999999997e-05,4e-05,5e-05,8e-05,-0.00081,3
9106,9508,-0.00032,-5e-05,-2e-05,2.9999999999999997e-05,4e-05,5e-05,8e-05,-0.00081,3
9107,9509,-0.00032,-5e-05,-2e-05,2.9999999999999997e-05,4e-05,5e-05,8e-05,-0.00081,3
9108,9510,-0.00032,-5e-05,-2e-05,2.9999999999999997e-05,4e-05,5e-05,8e-05,-0.00081,3
9109,9511,-0.00032,-5e-05,-2e-05,2.9999999999999997e-05,4e-05,5e-05,8e-05,-0.00081,3
9110,9512,-0.00032,-5e-05,-2e-05,2.9999999999999997e-05,4e-05,5e-05,8e-05,-0.00081,3
9111,9513,-0.00032,-5e-05,-2e-05,2.9999999999999997e-05,4e-05,5e-05,8e-05,-0.00081,3
9112,9514,-0.00032,-5e-05,-2e-05,2.9999999999999997e-05,4e-05,5e-05,8e-05,-0.00081,3
9113,9515,-0.00032,-5e-05,-2e-05,2.9999999999999997e-05,4e-05,5e-05,8e-05,-0.00081,3
9114,9516,0.0006900000000000001,0.00022,2.9999999999999997e-05,9e-05,0.00023999999999999998,0.00014,-0.00018,-5e-05,3
9115,9517,-0.00027,-0.00021,-8e-05,-0.00029,-0.0004,-0.00022,8e-05,-0.00011999999999999999,3
9116,9518,0.0003,1e-05,-8e-05,0.00011999999999999999,-0.00016,-5e-05,-1e-05,-0.00011999999999999999,3
9117,9519,0.0003,1e-05,-8e-05,0.00011999999999999999,-0.00016,-5e-05,-1e-05,-0.00011999999999999999,3
9118,9520,0.0003,1e-05,-8e-05,0.00011999999999999999,-0.00016,-5e-05,-1e-05,-0.00011999999999999999,3
9119,9521,0.0003,1e-05,-8e-05,0.00011999999999999999,-0.00016,-5e-05,-1e-05,-0.00011999999999999999,3
9120,9522,0.0003,1e-05,-8e-05,0.00011999999999999999,-0.00016,-5e-05,-1e-05,-0.00011999999999999999,3
9121,9523,0.0003,1e-05,-8e-05,0.00011999999999999999,-0.00016,-5e-05,-1e-05,-0.00011999999999999999,3
9122,9524,0.0003,1e-05,-8e-05,0.00011999999999999999,-0.00016,-5e-05,-1e-05,-0.00011999999999999999,3
9123,9525,0.0003,1e-05,-8e-05,0.00011999999999999999,-0.00016,-5e-05,-1e-05,-0.00011999999999999999,3
9124,9526,0.0003,1e-05,-8e-05,0.00011999999999999999,-0.00016,-5e-05,-1e-05,-0.00011999999999999999,3
9125,9527,0.0003,1e-05,-8e-05,0.00011999999999999999,-0.00016,-5e-05,-1e-05,-0.00011999999999999999,3
9126,9528,0.0003,1e-05,-8e-05,0.00011999999999999999,-0.00016,-5e-05,-1e-05,-0.00011999999999999999,3
9127,9529,0.0003,1e-05,-8e-05,0.00011999999999999999,-0.00016,-5e-05,-1e-05,-0.00011999999999999999,3
9128,9530,0.00013000000000000002,-0.00022,1e-05,-8e-05,0.00037999999999999997,0.00018,-5e-05,-0.00033999999999999997,3
9129,9531,-0.0004,8e-05,-5.9999999999999995e-05,-8e-05,-1e-05,9e-05,-0.00018,-0.00022999999999999998,3
9130,9532,-0.0004,8e-05,-5.9999999999999995e-05,-8e-05,-1e-05,9e-05,-0.00018,-0.00022999999999999998,3
9131,9533,-0.0004,8e-05,-5.9999999999999995e-05,-8e-05,-1e-05,9e-05,-0.00018,-0.00022999999999999998,3
9132,9534,-0.0004,8e-05,-5.9999999999999995e-05,-8e-05,-1e-05,9e-05,-0.00018,-0.00022999999999999998,3
9133,9535,-0.0004,8e-05,-5.9999999999999995e-05,-8e-05,-1e-05,9e-05,-0.00018,-0.00022999999999999998,3
9134,9536,-0.0004,8e-05,-5.9999999999999995e-05,-8e-05,-1e-05,9e-05,-0.00018,-0.00022999999999999998,3
9135,9539,-0.00128,-0.00025,0.00011,8e-05,-0.00025,-7e-05,2.9999999999999997e-05,5e-05,3
9136,9540,-0.00128,-0.00025,0.00011,8e-05,-0.00025,-7e-05,2.9999999999999997e-05,5e-05,3
9137,9541,-0.00128,-0.00025,0.00011,8e-05,-0.00025,-7e-05,2.9999999999999997e-05,5e-05,3
9138,9542,-0.00128,-0.00025,0.00011,8e-05,-0.00025,-7e-05,2.9999999999999997e-05,5e-05,3
9139,9543,-0.00128,-0.00025,0.00011,8e-05,-0.00025,-7e-05,2.9999999999999997e-05,5e-05,3
9140,9544,-0.00128,-0.00025,0.00011,8e-05,-0.00025,-7e-05,2.9999999999999997e-05,5e-05,3
9141,9545,-0.00128,-0.00025,0.00011,8e-05,-0.00025,-7e-05,2.9999999999999997e-05,5e-05,3
9142,9546,-0.00128,-0.00025,0.00011,8e-05,-0.00025,-7e-05,2.9999999999999997e-05,5e-05,3
9143,9547,-0.00128,-0.00025,0.00011,8e-05,-0.00025,-7e-05,2.9999999999999997e-05,5e-05,3
9144,9548,-0.00128,-0.00025,0.00011,8e-05,-0.00025,-7e-05,2.9999999999999997e-05,5e-05,3
9145,9549,-0.00128,-0.00025,0.00011,8e-05,-0.00025,-7e-05,2.9999999999999997e-05,5e-05,3
9146,9550,-0.00128,-0.00025,0.00011,8e-05,-0.00025,-7e-05,2.9999999999999997e-05,5e-05,3
9147,9551,-0.00128,-0.00025,0.00011,8e-05,-0.00025,-7e-05,2.9999999999999997e-05,5e-05,3
9148,9552,-0.00128,-0.00025,0.00011,8e-05,-0.00025,-7e-05,2.9999999999999997e-05,5e-05,3
9149,9553,-0.00128,-0.00025,0.00011,8e-05,-0.00025,-7e-05,2.9999999999999997e-05,5e-05,3
9150,9554,-0.0012,-0.00029,0.0,-5e-05,-8e-05,-0.00011,0.00016999999999999999,-0.00022,3
9151,9555,-0.0012,-0.00029,0.0,-5e-05,-8e-05,-0.00011,0.00016999999999999999,-0.00022,3
9152,9556,-0.0012,-0.00029,0.0,-5e-05,-8e-05,-0.00011,0.00016999999999999999,-0.00022,3
9153,9557,-0.0012,-0.00029,0.0,-5e-05,-8e-05,-0.00011,0.00016999999999999999,-0.00022,3
9154,9558,-0.0012,-0.00029,0.0,-5e-05,-8e-05,-0.00011,0.00016999999999999999,-0.00022,3
9155,9559,-0.00045,-7e-05,-0.00011,-0.00018999999999999998,-0.00011999999999999999,-0.00016,0.00013000000000000002,0.00011,3
9156,9560,-0.00045,-7e-05,-0.00011,-0.00018999999999999998,-0.00011999999999999999,-0.00016,0.00013000000000000002,0.00011,3
9157,9561,-0.00045,-7e-05,-0.00011,-0.00018999999999999998,-0.00011999999999999999,-0.00016,0.00013000000000000002,0.00011,3
9158,9562,-0.00045,-7e-05,-0.00011,-0.00018999999999999998,-0.00011999999999999999,-0.00016,0.00013000000000000002,0.00011,3
9159,9563,-0.00045,-7e-05,-0.00011,-0.00018999999999999998,-0.00011999999999999999,-0.00016,0.00013000000000000002,0.00011,3
9160,9564,-0.00045,-7e-05,-0.00011,-0.00018999999999999998,-0.00011999999999999999,-0.00016,0.00013000000000000002,0.00011,3
9161,9565,-0.00045,-7e-05,-0.00011,-0.00018999999999999998,-0.00011999999999999999,-0.00016,0.00013000000000000002,0.00011,3
9162,9566,-0.00045,-7e-05,-0.00011,-0.00018999999999999998,-0.00011999999999999999,-0.00016,0.00013000000000000002,0.00011,3
9163,9567,-0.00045,-7e-05,-0.00011,-0.00018999999999999998,-0.00011999999999999999,-0.00016,0.00013000000000000002,0.00011,3
9164,9568,-0.00045,-7e-05,-0.00011,-0.00018999999999999998,-0.00011999999999999999,-0.00016,0.00013000000000000002,0.00011,3
9165,9569,-0.00045,-7e-05,-0.00011,-0.00018999999999999998,-0.00011999999999999999,-0.00016,0.00013000000000000002,0.00011,3
9166,9570,-0.00045,-7e-05,-0.00011,-0.00018999999999999998,-0.00011999999999999999,-0.00016,0.00013000000000000002,0.00011,3
9167,9571,-0.00045,-7e-05,-0.00011,-0.00018999999999999998,-0.00011999999999999999,-0.00016,0.00013000000000000002,0.00011,3
9168,9572,-0.00045,-7e-05,-0.00011,-0.00018999999999999998,-0.00011999999999999999,-0.00016,0.00013000000000000002,0.00011,3
9169,9573,-0.00045,-7e-05,-0.00011,-0.00018999999999999998,-0.00011999999999999999,-0.00016,0.00013000000000000002,0.00011,3
9170,9574,-0.00045,-7e-05,-0.00011,-0.00018999999999999998,-0.00011999999999999999,-0.00016,0.00013000000000000002,0.00011,3
9171,9575,-0.00045,-7e-05,-0.00011,-0.00018999999999999998,-0.00011999999999999999,-0.00016,0.00013000000000000002,0.00011,3
9172,9576,0.0006,0.00016999999999999999,1e-05,2.9999999999999997e-05,2.9999999999999997e-05,-0.00014,-0.00014,0.00036,3
9173,9577,0.00037,0.00016999999999999999,7e-05,7e-05,0.0002,5e-05,5.9999999999999995e-05,0.00031,3
9174,9578,0.00037,0.00016999999999999999,7e-05,7e-05,0.0002,5e-05,5.9999999999999995e-05,0.00031,3
9175,9579,0.00037,0.00016999999999999999,7e-05,7e-05,0.0002,5e-05,5.9999999999999995e-05,0.00031,3
9176,9580,0.00037,0.00016999999999999999,7e-05,7e-05,0.0002,5e-05,5.9999999999999995e-05,0.00031,3
9177,9581,0.00037,0.00016999999999999999,7e-05,7e-05,0.0002,5e-05,5.9999999999999995e-05,0.00031,3
9178,9582,0.00037,0.00016999999999999999,7e-05,7e-05,0.0002,5e-05,5.9999999999999995e-05,0.00031,3
9179,9583,0.00037,0.00016999999999999999,7e-05,7e-05,0.0002,5e-05,5.9999999999999995e-05,0.00031,3
9180,9584,0.00037,0.00016999999999999999,7e-05,7e-05,0.0002,5e-05,5.9999999999999995e-05,0.00031,3
9181,9585,0.00037,0.00016999999999999999,7e-05,7e-05,0.0002,5e-05,5.9999999999999995e-05,0.00031,3
9182,9586,0.00037,0.00016999999999999999,7e-05,7e-05,0.0002,5e-05,5.9999999999999995e-05,0.00031,3
9183,9588,0.00037,0.00016999999999999999,7e-05,7e-05,0.0002,5e-05,5.9999999999999995e-05,0.00031,3
9184,9589,0.00037,0.00016999999999999999,7e-05,7e-05,0.0002,5e-05,5.9999999999999995e-05,0.00031,3
9185,9590,-0.00031,-0.00018999999999999998,-0.00013000000000000002,7e-05,0.00011,-0.00018,-0.00041,-0.0008300000000000001,3
9186,9591,-0.00031,-0.00018999999999999998,-0.00013000000000000002,7e-05,0.00011,-0.00018,-0.00041,-0.0008300000000000001,3
9187,9592,-0.00031,-0.00018999999999999998,-0.00013000000000000002,7e-05,0.00011,-0.00018,-0.00041,-0.0008300000000000001,3
9188,9593,-0.00031,-0.00018999999999999998,-0.00013000000000000002,7e-05,0.00011,-0.00018,-0.00041,-0.0008300000000000001,3
9189,9594,-0.00031,-0.00018999999999999998,-0.00013000000000000002,7e-05,0.00011,-0.00018,-0.00041,-0.0008300000000000001,3
9190,9595,-0.00031,-0.00018999999999999998,-0.00013000000000000002,7e-05,0.00011,-0.00018,-0.00041,-0.0008300000000000001,3
9191,9596,-0.00031,-0.00018999999999999998,-0.00013000000000000002,7e-05,0.00011,-0.00018,-0.00041,-0.0008300000000000001,3
9192,9597,0.0001,7e-05,-5.9999999999999995e-05,-0.00018999999999999998,-0.00039,-0.00021,-0.00022,0.00031,3
9193,9598,0.0001,7e-05,-5.9999999999999995e-05,-0.00018999999999999998,-0.00039,-0.00021,-0.00022,0.00031,3
9194,9599,0.0001,7e-05,-5.9999999999999995e-05,-0.00018999999999999998,-0.00039,-0.00021,-0.00022,0.00031,3
9195,9600,0.0001,7e-05,-5.9999999999999995e-05,-0.00018999999999999998,-0.00039,-0.00021,-0.00022,0.00031,3
9196,9601,0.0001,7e-05,-5.9999999999999995e-05,-0.00018999999999999998,-0.00039,-0.00021,-0.00022,0.00031,3
9197,9602,0.0001,7e-05,-5.9999999999999995e-05,-0.00018999999999999998,-0.00039,-0.00021,-0.00022,0.00031,3
9198,9603,0.0001,7e-05,-5.9999999999999995e-05,-0.00018999999999999998,-0.00039,-0.00021,-0.00022,0.00031,3
9199,9604,0.0001,7e-05,-5.9999999999999995e-05,-0.00018999999999999998,-0.00039,-0.00021,-0.00022,0.00031,3
9200,9605,0.0001,7e-05,-5.9999999999999995e-05,-0.00018999999999999998,-0.00039,-0.00021,-0.00022,0.00031,3
9201,9606,0.0001,7e-05,-5.9999999999999995e-05,-0.00018999999999999998,-0.00039,-0.00021,-0.00022,0.00031,3
9202,9607,0.0001,7e-05,-5.9999999999999995e-05,-0.00018999999999999998,-0.00039,-0.00021,-0.00022,0.00031,3
9203,9608,0.0001,7e-05,-5.9999999999999995e-05,-0.00018999999999999998,-0.00039,-0.00021,-0.00022,0.00031,3
9204,9609,0.0001,7e-05,-5.9999999999999995e-05,-0.00018999999999999998,-0.00039,-0.00021,-0.00022,0.00031,3
9205,9610,0.0001,7e-05,-5.9999999999999995e-05,-0.00018999999999999998,-0.00039,-0.00021,-0.00022,0.00031,3
9206,9611,0.0001,7e-05,-5.9999999999999995e-05,-0.00018999999999999998,-0.00039,-0.00021,-0.00022,0.00031,3
9207,9612,0.0001,7e-05,-5.9999999999999995e-05,-0.00018999999999999998,-0.00039,-0.00021,-0.00022,0.00031,3
9208,9613,-0.00098,2.9999999999999997e-05,5e-05,0.0001,0.00014,-2e-05,-0.0002,0.00011999999999999999,3
9209,9614,-0.00098,2.9999999999999997e-05,5e-05,0.0001,0.00014,-2e-05,-0.0002,0.00011999999999999999,3
9210,9616,2e-05,5.9999999999999995e-05,-4e-05,2e-05,0.00045,-4e-05,-7e-05,5.9999999999999995e-05,3
9211,9617,2e-05,5.9999999999999995e-05,-4e-05,2e-05,0.00045,-4e-05,-7e-05,5.9999999999999995e-05,3
9212,9618,2e-05,5.9999999999999995e-05,-4e-05,2e-05,0.00045,-4e-05,-7e-05,5.9999999999999995e-05,3
9213,9619,2e-05,5.9999999999999995e-05,-4e-05,2e-05,0.00045,-4e-05,-7e-05,5.9999999999999995e-05,3
9214,9620,2e-05,5.9999999999999995e-05,-4e-05,2e-05,0.00045,-4e-05,-7e-05,5.9999999999999995e-05,3
9215,9621,2e-05,5.9999999999999995e-05,-4e-05,2e-05,0.00045,-4e-05,-7e-05,5.9999999999999995e-05,3
9216,9622,2e-05,5.9999999999999995e-05,-4e-05,2e-05,0.00045,-4e-05,-7e-05,5.9999999999999995e-05,3
9217,9623,2e-05,5.9999999999999995e-05,-4e-05,2e-05,0.00045,-4e-05,-7e-05,5.9999999999999995e-05,3
9218,9624,2e-05,5.9999999999999995e-05,-4e-05,2e-05,0.00045,-4e-05,-7e-05,5.9999999999999995e-05,3
9219,9625,2e-05,5.9999999999999995e-05,-4e-05,2e-05,0.00045,-4e-05,-7e-05,5.9999999999999995e-05,3
9220,9626,2e-05,5.9999999999999995e-05,-4e-05,2e-05,0.00045,-4e-05,-7e-05,5.9999999999999995e-05,3
9221,9627,2e-05,5.9999999999999995e-05,-4e-05,2e-05,0.00045,-4e-05,-7e-05,5.9999999999999995e-05,3
9222,9628,2e-05,5.9999999999999995e-05,-4e-05,2e-05,0.00045,-4e-05,-7e-05,5.9999999999999995e-05,3
9223,9629,2e-05,5.9999999999999995e-05,-4e-05,2e-05,0.00045,-4e-05,-7e-05,5.9999999999999995e-05,3
9224,9630,2e-05,5.9999999999999995e-05,-4e-05,2e-05,0.00045,-4e-05,-7e-05,5.9999999999999995e-05,3
9225,9631,2e-05,5.9999999999999995e-05,-4e-05,2e-05,0.00045,-4e-05,-7e-05,5.9999999999999995e-05,3
9226,9632,2e-05,5.9999999999999995e-05,-4e-05,2e-05,0.00045,-4e-05,-7e-05,5.9999999999999995e-05,3
9227,9633,2e-05,5.9999999999999995e-05,-4e-05,2e-05,0.00045,-4e-05,-7e-05,5.9999999999999995e-05,3
9228,9634,2e-05,5.9999999999999995e-05,-4e-05,2e-05,0.00045,-4e-05,-7e-05,5.9999999999999995e-05,3
9229,9635,7e-05,5.9999999999999995e-05,2.9999999999999997e-05,8e-05,-0.00045999999999999996,-0.00025,-2e-05,0.00015,3
9230,9637,0.00063,0.00022999999999999998,8e-05,-0.0001,-0.00047000000000000004,0.0002,0.0001,-0.0003,3
9231,9640,0.00063,0.00022999999999999998,8e-05,-0.0001,-0.00047000000000000004,0.0002,0.0001,-0.0003,3
9232,9641,0.00063,0.00022999999999999998,8e-05,-0.0001,-0.00047000000000000004,0.0002,0.0001,-0.0003,3
9233,9642,0.00042,0.00018999999999999998,7e-05,-8e-05,-0.00016,-7e-05,-0.00031,0.00028,3
9234,9643,0.00042,0.00018999999999999998,7e-05,-8e-05,-0.00016,-7e-05,-0.00031,0.00028,3
9235,9644,0.00042,0.00018999999999999998,7e-05,-8e-05,-0.00016,-7e-05,-0.00031,0.00028,3
9236,9645,0.00042,0.00018999999999999998,7e-05,-8e-05,-0.00016,-7e-05,-0.00031,0.00028,3
9237,9646,0.00042,0.00018999999999999998,7e-05,-8e-05,-0.00016,-7e-05,-0.00031,0.00028,3
9238,9647,0.00042,0.00018999999999999998,7e-05,-8e-05,-0.00016,-7e-05,-0.00031,0.00028,3
9239,9648,0.00042,0.00018999999999999998,7e-05,-8e-05,-0.00016,-7e-05,-0.00031,0.00028,3
9240,9649,0.00042,0.00018999999999999998,7e-05,-8e-05,-0.00016,-7e-05,-0.00031,0.00028,3
9241,9650,4e-05,2.9999999999999997e-05,-1e-05,0.0001,0.00026000000000000003,-0.0001,0.00011,0.00016999999999999999,3
9242,9651,4e-05,2.9999999999999997e-05,-1e-05,0.0001,0.00026000000000000003,-0.0001,0.00011,0.00016999999999999999,3
9243,9652,4e-05,2.9999999999999997e-05,-1e-05,0.0001,0.00026000000000000003,-0.0001,0.00011,0.00016999999999999999,3
9244,9653,4e-05,2.9999999999999997e-05,-1e-05,0.0001,0.00026000000000000003,-0.0001,0.00011,0.00016999999999999999,3
9245,9654,4e-05,2.9999999999999997e-05,-1e-05,0.0001,0.00026000000000000003,-0.0001,0.00011,0.00016999999999999999,3
9246,9655,4e-05,2.9999999999999997e-05,-1e-05,0.0001,0.00026000000000000003,-0.0001,0.00011,0.00016999999999999999,3
9247,9656,4e-05,2.9999999999999997e-05,-1e-05,0.0001,0.00026000000000000003,-0.0001,0.00011,0.00016999999999999999,3
9248,9657,0.00032,-5.9999999999999995e-05,-5e-05,2.9999999999999997e-05,0.00011,5e-05,4e-05,1e-05,3
9249,9658,0.00032,-5.9999999999999995e-05,-5e-05,2.9999999999999997e-05,0.00011,5e-05,4e-05,1e-05,3
9250,9659,0.00032,-5.9999999999999995e-05,-5e-05,2.9999999999999997e-05,0.00011,5e-05,4e-05,1e-05,3
9251,9660,0.00032,-5.9999999999999995e-05,-5e-05,2.9999999999999997e-05,0.00011,5e-05,4e-05,1e-05,3
9252,9661,0.00032,-5.9999999999999995e-05,-5e-05,2.9999999999999997e-05,0.00011,5e-05,4e-05,1e-05,3
9253,9662,0.00032,-5.9999999999999995e-05,-5e-05,2.9999999999999997e-05,0.00011,5e-05,4e-05,1e-05,3
9254,9663,0.00032,-5.9999999999999995e-05,-5e-05,2.9999999999999997e-05,0.00011,5e-05,4e-05,1e-05,3
9255,9664,0.00032,-5.9999999999999995e-05,-5e-05,2.9999999999999997e-05,0.00011,5e-05,4e-05,1e-05,3
9256,9665,0.00032,-5.9999999999999995e-05,-5e-05,2.9999999999999997e-05,0.00011,5e-05,4e-05,1e-05,3
9257,9666,0.00032,-5.9999999999999995e-05,-5e-05,2.9999999999999997e-05,0.00011,5e-05,4e-05,1e-05,3
9258,9667,0.00032,-5.9999999999999995e-05,-5e-05,2.9999999999999997e-05,0.00011,5e-05,4e-05,1e-05,3
9259,9668,0.00032,-5.9999999999999995e-05,-5e-05,2.9999999999999997e-05,0.00011,5e-05,4e-05,1e-05,3
9260,9669,0.00032,-5.9999999999999995e-05,-5e-05,2.9999999999999997e-05,0.00011,5e-05,4e-05,1e-05,3
9261,9670,0.00032,-5.9999999999999995e-05,-5e-05,2.9999999999999997e-05,0.00011,5e-05,4e-05,1e-05,3
9262,9671,0.00032,-5.9999999999999995e-05,-5e-05,2.9999999999999997e-05,0.00011,5e-05,4e-05,1e-05,3
9263,9672,0.00032,-5.9999999999999995e-05,-5e-05,2.9999999999999997e-05,0.00011,5e-05,4e-05,1e-05,3
9264,9673,-0.00022,-0.00011999999999999999,1e-05,-5.9999999999999995e-05,-0.00022999999999999998,-5e-05,-0.00011999999999999999,-5e-05,3
9265,9674,-0.00022,-0.00011999999999999999,1e-05,-5.9999999999999995e-05,-0.00022999999999999998,-5e-05,-0.00011999999999999999,-5e-05,3
9266,9675,0.00105,0.00011999999999999999,4e-05,0.0002,0.0005099999999999999,0.00016,0.00037,0.00011,3
9267,9676,0.00105,0.00011999999999999999,4e-05,0.0002,0.0005099999999999999,0.00016,0.00037,0.00011,3
9268,9677,0.00105,0.00011999999999999999,4e-05,0.0002,0.0005099999999999999,0.00016,0.00037,0.00011,3
9269,9678,0.00105,0.00011999999999999999,4e-05,0.0002,0.0005099999999999999,0.00016,0.00037,0.00011,3
9270,9679,0.00105,0.00011999999999999999,4e-05,0.0002,0.0005099999999999999,0.00016,0.00037,0.00011,3
9271,9680,0.00105,0.00011999999999999999,4e-05,0.0002,0.0005099999999999999,0.00016,0.00037,0.00011,3
9272,9681,0.00105,0.00011999999999999999,4e-05,0.0002,0.0005099999999999999,0.00016,0.00037,0.00011,3
9273,9682,0.00105,0.00011999999999999999,4e-05,0.0002,0.0005099999999999999,0.00016,0.00037,0.00011,3
9274,9683,0.00105,0.00011999999999999999,4e-05,0.0002,0.0005099999999999999,0.00016,0.00037,0.00011,3
9275,9684,0.00105,0.00011999999999999999,4e-05,0.0002,0.0005099999999999999,0.00016,0.00037,0.00011,3
9276,9685,0.00105,0.00011999999999999999,4e-05,0.0002,0.0005099999999999999,0.00016,0.00037,0.00011,3
9277,9686,0.00105,0.00011999999999999999,4e-05,0.0002,0.0005099999999999999,0.00016,0.00037,0.00011,3
9278,9688,0.00105,0.00011999999999999999,4e-05,0.0002,0.0005099999999999999,0.00016,0.00037,0.00011,3
9279,9689,0.00105,0.00011999999999999999,4e-05,0.0002,0.0005099999999999999,0.00016,0.00037,0.00011,3
9280,9690,0.00105,0.00011999999999999999,4e-05,0.0002,0.0005099999999999999,0.00016,0.00037,0.00011,3
9281,9691,0.00105,0.00011999999999999999,4e-05,0.0002,0.0005099999999999999,0.00016,0.00037,0.00011,3
9282,9692,0.00105,0.00011999999999999999,4e-05,0.0002,0.0005099999999999999,0.00016,0.00037,0.00011,3
9283,9693,0.00105,0.00011999999999999999,4e-05,0.0002,0.0005099999999999999,0.00016,0.00037,0.00011,3
9284,9694,0.00105,0.00011999999999999999,4e-05,0.0002,0.0005099999999999999,0.00016,0.00037,0.00011,3
9285,9695,0.00105,0.00011999999999999999,4e-05,0.0002,0.0005099999999999999,0.00016,0.00037,0.00011,3
9286,9696,0.00042,0.0,-9e-05,1e-05,0.00035,4e-05,-0.00033,-0.0004,3
9287,9697,2.9999999999999997e-05,4e-05,-2e-05,1e-05,0.00053,0.00029,0.00027,0.00018,3
9288,9699,2.9999999999999997e-05,4e-05,-2e-05,1e-05,0.00053,0.00029,0.00027,0.00018,3
9289,9700,2.9999999999999997e-05,4e-05,-2e-05,1e-05,0.00053,0.00029,0.00027,0.00018,3
9290,9701,2.9999999999999997e-05,4e-05,-2e-05,1e-05,0.00053,0.00029,0.00027,0.00018,3
9291,9702,2.9999999999999997e-05,4e-05,-2e-05,1e-05,0.00053,0.00029,0.00027,0.00018,3
9292,9703,2.9999999999999997e-05,4e-05,-2e-05,1e-05,0.00053,0.00029,0.00027,0.00018,3
9293,9704,2.9999999999999997e-05,4e-05,-2e-05,1e-05,0.00053,0.00029,0.00027,0.00018,3
9294,9705,2.9999999999999997e-05,4e-05,-2e-05,1e-05,0.00053,0.00029,0.00027,0.00018,3
9295,9706,2.9999999999999997e-05,4e-05,-2e-05,1e-05,0.00053,0.00029,0.00027,0.00018,3
9296,9707,2.9999999999999997e-05,4e-05,-2e-05,1e-05,0.00053,0.00029,0.00027,0.00018,3
9297,9708,2.9999999999999997e-05,4e-05,-2e-05,1e-05,0.00053,0.00029,0.00027,0.00018,3
9298,9709,2.9999999999999997e-05,4e-05,-2e-05,1e-05,0.00053,0.00029,0.00027,0.00018,3
9299,9710,-4e-05,0.00011999999999999999,4e-05,-5.9999999999999995e-05,-4e-05,-2e-05,0.0002,4e-05,3
9300,9711,-4e-05,0.00011999999999999999,4e-05,-5.9999999999999995e-05,-4e-05,-2e-05,0.0002,4e-05,3
9301,9712,-4e-05,0.00011999999999999999,4e-05,-5.9999999999999995e-05,-4e-05,-2e-05,0.0002,4e-05,3
9302,9713,-4e-05,0.00011999999999999999,4e-05,-5.9999999999999995e-05,-4e-05,-2e-05,0.0002,4e-05,3
9303,9714,-4e-05,0.00011999999999999999,4e-05,-5.9999999999999995e-05,-4e-05,-2e-05,0.0002,4e-05,3
9304,9715,-4e-05,0.00011999999999999999,4e-05,-5.9999999999999995e-05,-4e-05,-2e-05,0.0002,4e-05,3
9305,9716,-4e-05,0.00011999999999999999,4e-05,-5.9999999999999995e-05,-4e-05,-2e-05,0.0002,4e-05,3
9306,9717,-0.00057,-0.00023999999999999998,-4e-05,-2e-05,-0.00028,-5.9999999999999995e-05,0.00018,-0.00011,3
9307,9718,-0.00057,-0.00023999999999999998,-4e-05,-2e-05,-0.00028,-5.9999999999999995e-05,0.00018,-0.00011,3
9308,9719,-0.00057,-0.00023999999999999998,-4e-05,-2e-05,-0.00028,-5.9999999999999995e-05,0.00018,-0.00011,3
9309,9720,-0.00057,-0.00023999999999999998,-4e-05,-2e-05,-0.00028,-5.9999999999999995e-05,0.00018,-0.00011,3
9310,9721,-0.00057,-0.00023999999999999998,-4e-05,-2e-05,-0.00028,-5.9999999999999995e-05,0.00018,-0.00011,3
9311,9722,-0.00057,-0.00023999999999999998,-4e-05,-2e-05,-0.00028,-5.9999999999999995e-05,0.00018,-0.00011,3
9312,9723,-0.00057,-0.00023999999999999998,-4e-05,-2e-05,-0.00028,-5.9999999999999995e-05,0.00018,-0.00011,3
9313,9724,-0.00057,-0.00023999999999999998,-4e-05,-2e-05,-0.00028,-5.9999999999999995e-05,0.00018,-0.00011,3
9314,9725,-0.00057,-0.00023999999999999998,-4e-05,-2e-05,-0.00028,-5.9999999999999995e-05,0.00018,-0.00011,3
9315,9726,-0.00057,-0.00023999999999999998,-4e-05,-2e-05,-0.00028,-5.9999999999999995e-05,0.00018,-0.00011,3
9316,9727,-0.00057,-0.00023999999999999998,-4e-05,-2e-05,-0.00028,-5.9999999999999995e-05,0.00018,-0.00011,3
9317,9728,-0.00057,-0.00023999999999999998,-4e-05,-2e-05,-0.00028,-5.9999999999999995e-05,0.00018,-0.00011,3
9318,9729,-0.00057,-0.00023999999999999998,-4e-05,-2e-05,-0.00028,-5.9999999999999995e-05,0.00018,-0.00011,3
9319,9730,-0.00057,-0.00023999999999999998,-4e-05,-2e-05,-0.00028,-5.9999999999999995e-05,0.00018,-0.00011,3
9320,9731,-0.00057,-0.00023999999999999998,-4e-05,-2e-05,-0.00028,-5.9999999999999995e-05,0.00018,-0.00011,3
9321,9732,-0.00057,-0.00023999999999999998,-4e-05,-2e-05,-0.00028,-5.9999999999999995e-05,0.00018,-0.00011,3
9322,9733,0.00016,1e-05,-5e-05,0.00016999999999999999,0.00011999999999999999,0.00014,0.0002,-0.00047999999999999996,3
9323,9734,-0.00033,1e-05,2.9999999999999997e-05,0.00013000000000000002,0.00025,0.00016999999999999999,-1e-05,2e-05,3
9324,9735,-0.00033,1e-05,2.9999999999999997e-05,0.00013000000000000002,0.00025,0.00016999999999999999,-1e-05,2e-05,3
9325,9736,-0.00033,1e-05,2.9999999999999997e-05,0.00013000000000000002,0.00025,0.00016999999999999999,-1e-05,2e-05,3
9326,9738,-0.00033,1e-05,2.9999999999999997e-05,0.00013000000000000002,0.00025,0.00016999999999999999,-1e-05,2e-05,3
9327,9739,-0.00033,1e-05,2.9999999999999997e-05,0.00013000000000000002,0.00025,0.00016999999999999999,-1e-05,2e-05,3
9328,9740,-0.00033,1e-05,2.9999999999999997e-05,0.00013000000000000002,0.00025,0.00016999999999999999,-1e-05,2e-05,3
9329,9741,-0.00033,1e-05,2.9999999999999997e-05,0.00013000000000000002,0.00025,0.00016999999999999999,-1e-05,2e-05,3
9330,9742,-0.00033,1e-05,2.9999999999999997e-05,0.00013000000000000002,0.00025,0.00016999999999999999,-1e-05,2e-05,3
9331,9743,-0.00033,1e-05,2.9999999999999997e-05,0.00013000000000000002,0.00025,0.00016999999999999999,-1e-05,2e-05,3
9332,9744,-0.00033,1e-05,2.9999999999999997e-05,0.00013000000000000002,0.00025,0.00016999999999999999,-1e-05,2e-05,3
9333,9745,-0.00033,1e-05,2.9999999999999997e-05,0.00013000000000000002,0.00025,0.00016999999999999999,-1e-05,2e-05,3
9334,9746,-0.00033,1e-05,2.9999999999999997e-05,0.00013000000000000002,0.00025,0.00016999999999999999,-1e-05,2e-05,3
9335,9747,-0.00033,1e-05,2.9999999999999997e-05,0.00013000000000000002,0.00025,0.00016999999999999999,-1e-05,2e-05,3
9336,9749,-0.00033,1e-05,2.9999999999999997e-05,0.00013000000000000002,0.00025,0.00016999999999999999,-1e-05,2e-05,3
9337,9750,-0.00033,1e-05,2.9999999999999997e-05,0.00013000000000000002,0.00025,0.00016999999999999999,-1e-05,2e-05,3
9338,9751,-0.00033,1e-05,2.9999999999999997e-05,0.00013000000000000002,0.00025,0.00016999999999999999,-1e-05,2e-05,3
9339,9752,-0.00033,1e-05,2.9999999999999997e-05,0.00013000000000000002,0.00025,0.00016999999999999999,-1e-05,2e-05,3
9340,9753,-0.00033,1e-05,2.9999999999999997e-05,0.00013000000000000002,0.00025,0.00016999999999999999,-1e-05,2e-05,3
9341,9754,-0.00033,1e-05,2.9999999999999997e-05,0.00013000000000000002,0.00025,0.00016999999999999999,-1e-05,2e-05,3
9342,9755,-0.00033,1e-05,2.9999999999999997e-05,0.00013000000000000002,0.00025,0.00016999999999999999,-1e-05,2e-05,3
9343,9756,-0.00074,-0.00033,2.9999999999999997e-05,2e-05,-0.00018999999999999998,2.9999999999999997e-05,-0.00037999999999999997,-0.00099,3
9344,9757,-0.00018999999999999998,-0.00013000000000000002,5.9999999999999995e-05,-9e-05,-0.00041,1e-05,-0.00013000000000000002,-0.00022999999999999998,3
9345,9758,-0.00018999999999999998,-0.00013000000000000002,5.9999999999999995e-05,-9e-05,-0.00041,1e-05,-0.00013000000000000002,-0.00022999999999999998,3
9346,9759,-0.00018999999999999998,-0.00013000000000000002,5.9999999999999995e-05,-9e-05,-0.00041,1e-05,-0.00013000000000000002,-0.00022999999999999998,3
9347,9760,-0.00018999999999999998,-0.00013000000000000002,5.9999999999999995e-05,-9e-05,-0.00041,1e-05,-0.00013000000000000002,-0.00022999999999999998,3
9348,9761,-0.00018999999999999998,-0.00013000000000000002,5.9999999999999995e-05,-9e-05,-0.00041,1e-05,-0.00013000000000000002,-0.00022999999999999998,3
9349,9762,-0.00018999999999999998,-0.00013000000000000002,5.9999999999999995e-05,-9e-05,-0.00041,1e-05,-0.00013000000000000002,-0.00022999999999999998,3
9350,9763,-0.00018999999999999998,-0.00013000000000000002,5.9999999999999995e-05,-9e-05,-0.00041,1e-05,-0.00013000000000000002,-0.00022999999999999998,3
9351,9764,-0.00018999999999999998,-0.00013000000000000002,5.9999999999999995e-05,-9e-05,-0.00041,1e-05,-0.00013000000000000002,-0.00022999999999999998,3
9352,9765,-0.00018999999999999998,-0.00013000000000000002,5.9999999999999995e-05,-9e-05,-0.00041,1e-05,-0.00013000000000000002,-0.00022999999999999998,3
9353,9766,-0.00018999999999999998,-0.00013000000000000002,5.9999999999999995e-05,-9e-05,-0.00041,1e-05,-0.00013000000000000002,-0.00022999999999999998,3
9354,9767,-0.00018999999999999998,-0.00013000000000000002,5.9999999999999995e-05,-9e-05,-0.00041,1e-05,-0.00013000000000000002,-0.00022999999999999998,3
9355,9768,-0.00018999999999999998,-0.00013000000000000002,5.9999999999999995e-05,-9e-05,-0.00041,1e-05,-0.00013000000000000002,-0.00022999999999999998,3
9356,9769,-0.00018999999999999998,-0.00013000000000000002,5.9999999999999995e-05,-9e-05,-0.00041,1e-05,-0.00013000000000000002,-0.00022999999999999998,3
9357,9770,-0.00014,-0.00015,0.0,-8e-05,8e-05,-0.00016,0.00011999999999999999,-5.9999999999999995e-05,3
9358,9771,-0.00014,-0.00015,0.0,-8e-05,8e-05,-0.00016,0.00011999999999999999,-5.9999999999999995e-05,3
9359,9772,-0.00014,-0.00015,0.0,-8e-05,8e-05,-0.00016,0.00011999999999999999,-5.9999999999999995e-05,3
9360,9773,-0.00014,-0.00015,0.0,-8e-05,8e-05,-0.00016,0.00011999999999999999,-5.9999999999999995e-05,3
9361,9774,-0.00014,-0.00015,0.0,-8e-05,8e-05,-0.00016,0.00011999999999999999,-5.9999999999999995e-05,3
9362,9775,-0.00014,-0.00015,0.0,-8e-05,8e-05,-0.00016,0.00011999999999999999,-5.9999999999999995e-05,3
9363,9776,-0.00014,-0.00015,0.0,-8e-05,8e-05,-0.00016,0.00011999999999999999,-5.9999999999999995e-05,3
9364,9777,9e-05,0.0001,4e-05,-0.00014,-0.00022999999999999998,-0.00027,-9e-05,0.00029,3
9365,9778,9e-05,0.0001,4e-05,-0.00014,-0.00022999999999999998,-0.00027,-9e-05,0.00029,3
9366,9779,9e-05,0.0001,4e-05,-0.00014,-0.00022999999999999998,-0.00027,-9e-05,0.00029,3
9367,9780,9e-05,0.0001,4e-05,-0.00014,-0.00022999999999999998,-0.00027,-9e-05,0.00029,3
9368,9781,9e-05,0.0001,4e-05,-0.00014,-0.00022999999999999998,-0.00027,-9e-05,0.00029,3
9369,9782,9e-05,0.0001,4e-05,-0.00014,-0.00022999999999999998,-0.00027,-9e-05,0.00029,3
9370,9783,9e-05,0.0001,4e-05,-0.00014,-0.00022999999999999998,-0.00027,-9e-05,0.00029,3
9371,9784,9e-05,0.0001,4e-05,-0.00014,-0.00022999999999999998,-0.00027,-9e-05,0.00029,3
9372,9785,9e-05,0.0001,4e-05,-0.00014,-0.00022999999999999998,-0.00027,-9e-05,0.00029,3
9373,9786,9e-05,0.0001,4e-05,-0.00014,-0.00022999999999999998,-0.00027,-9e-05,0.00029,3
9374,9789,9e-05,0.0001,4e-05,-0.00014,-0.00022999999999999998,-0.00027,-9e-05,0.00029,3
9375,9790,9e-05,0.0001,4e-05,-0.00014,-0.00022999999999999998,-0.00027,-9e-05,0.00029,3
9376,9791,9e-05,0.0001,4e-05,-0.00014,-0.00022999999999999998,-0.00027,-9e-05,0.00029,3
9377,9792,9e-05,0.0001,4e-05,-0.00014,-0.00022999999999999998,-0.00027,-9e-05,0.00029,3
9378,9793,0.0006,0.00016999999999999999,-2e-05,-1e-05,-0.00018,2e-05,1e-05,0.00022999999999999998,3
9379,9794,0.0006,0.00016999999999999999,-2e-05,-1e-05,-0.00018,2e-05,1e-05,0.00022999999999999998,3
9380,9795,-9e-05,-0.00016,-0.0001,-9e-05,-0.00029,-0.00011,-0.0001,1e-05,3
9381,9796,-9e-05,-0.00016,-0.0001,-9e-05,-0.00029,-0.00011,-0.0001,1e-05,3
9382,9797,-9e-05,-0.00016,-0.0001,-9e-05,-0.00029,-0.00011,-0.0001,1e-05,3
9383,9798,-9e-05,-0.00016,-0.0001,-9e-05,-0.00029,-0.00011,-0.0001,1e-05,3
9384,9799,-9e-05,-0.00016,-0.0001,-9e-05,-0.00029,-0.00011,-0.0001,1e-05,3
9385,9800,-9e-05,-0.00016,-0.0001,-9e-05,-0.00029,-0.00011,-0.0001,1e-05,3
9386,9801,-9e-05,-0.00016,-0.0001,-9e-05,-0.00029,-0.00011,-0.0001,1e-05,3
9387,9802,-9e-05,-0.00016,-0.0001,-9e-05,-0.00029,-0.00011,-0.0001,1e-05,3
9388,9803,-9e-05,-0.00016,-0.0001,-9e-05,-0.00029,-0.00011,-0.0001,1e-05,3
9389,9804,-9e-05,-0.00016,-0.0001,-9e-05,-0.00029,-0.00011,-0.0001,1e-05,3
9390,9805,-9e-05,-0.00016,-0.0001,-9e-05,-0.00029,-0.00011,-0.0001,1e-05,3
9391,9806,-9e-05,-0.00016,-0.0001,-9e-05,-0.00029,-0.00011,-0.0001,1e-05,3
9392,9807,-9e-05,-0.00016,-0.0001,-9e-05,-0.00029,-0.00011,-0.0001,1e-05,3
9393,9809,-9e-05,-0.00016,-0.0001,-9e-05,-0.00029,-0.00011,-0.0001,1e-05,3
9394,9810,-9e-05,-0.00016,-0.0001,-9e-05,-0.00029,-0.00011,-0.0001,1e-05,3
9395,9811,-9e-05,-0.00016,-0.0001,-9e-05,-0.00029,-0.00011,-0.0001,1e-05,3
9396,9812,-9e-05,-0.00016,-0.0001,-9e-05,-0.00029,-0.00011,-0.0001,1e-05,3
9397,9813,-9e-05,-0.00016,-0.0001,-9e-05,-0.00029,-0.00011,-0.0001,1e-05,3
9398,9814,-9e-05,-0.00016,-0.0001,-9e-05,-0.00029,-0.00011,-0.0001,1e-05,3
9399,9815,-9e-05,-0.00016,-0.0001,-9e-05,-0.00029,-0.00011,-0.0001,1e-05,3
9400,9816,-9e-05,-0.00016,-0.0001,-9e-05,-0.00029,-0.00011,-0.0001,1e-05,3
9401,9817,0.0006900000000000001,9e-05,-2e-05,0.0001,0.00015,-7e-05,-2.9999999999999997e-05,0.00018,3
9402,9818,0.00058,8e-05,2e-05,0.00015,0.0003,0.0002,0.00021,0.00016,3
9403,9819,0.00058,8e-05,2e-05,0.00015,0.0003,0.0002,0.00021,0.00016,3
9404,9820,0.00058,8e-05,2e-05,0.00015,0.0003,0.0002,0.00021,0.00016,3
9405,9821,0.00058,8e-05,2e-05,0.00015,0.0003,0.0002,0.00021,0.00016,3
9406,9822,0.00058,8e-05,2e-05,0.00015,0.0003,0.0002,0.00021,0.00016,3
9407,9823,0.00058,8e-05,2e-05,0.00015,0.0003,0.0002,0.00021,0.00016,3
9408,9824,0.00058,8e-05,2e-05,0.00015,0.0003,0.0002,0.00021,0.00016,3
9409,9825,0.00058,8e-05,2e-05,0.00015,0.0003,0.0002,0.00021,0.00016,3
9410,9826,0.00058,8e-05,2e-05,0.00015,0.0003,0.0002,0.00021,0.00016,3
9411,9827,0.00058,8e-05,2e-05,0.00015,0.0003,0.0002,0.00021,0.00016,3
9412,9829,0.00058,8e-05,2e-05,0.00015,0.0003,0.0002,0.00021,0.00016,3
9413,9830,-0.00081,-0.0001,-1e-05,-7e-05,-0.00023999999999999998,-8e-05,2e-05,5.9999999999999995e-05,3
9414,9831,-0.00081,-0.0001,-1e-05,-7e-05,-0.00023999999999999998,-8e-05,2e-05,5.9999999999999995e-05,3
9415,9832,-0.00081,-0.0001,-1e-05,-7e-05,-0.00023999999999999998,-8e-05,2e-05,5.9999999999999995e-05,3
9416,9833,-0.00081,-0.0001,-1e-05,-7e-05,-0.00023999999999999998,-8e-05,2e-05,5.9999999999999995e-05,3
9417,9834,-0.00081,-0.0001,-1e-05,-7e-05,-0.00023999999999999998,-8e-05,2e-05,5.9999999999999995e-05,3
9418,9835,-0.00081,-0.0001,-1e-05,-7e-05,-0.00023999999999999998,-8e-05,2e-05,5.9999999999999995e-05,3
9419,9836,-0.00081,-0.0001,-1e-05,-7e-05,-0.00023999999999999998,-8e-05,2e-05,5.9999999999999995e-05,3
9420,9839,0.00026000000000000003,1e-05,-1e-05,-0.00013000000000000002,-0.0005099999999999999,-0.00022,-0.00014,-0.00016,3
9421,9840,0.00026000000000000003,1e-05,-1e-05,-0.00013000000000000002,-0.0005099999999999999,-0.00022,-0.00014,-0.00016,3
9422,9841,0.00026000000000000003,1e-05,-1e-05,-0.00013000000000000002,-0.0005099999999999999,-0.00022,-0.00014,-0.00016,3
9423,9842,0.00026000000000000003,1e-05,-1e-05,-0.00013000000000000002,-0.0005099999999999999,-0.00022,-0.00014,-0.00016,3
9424,9843,0.00026000000000000003,1e-05,-1e-05,-0.00013000000000000002,-0.0005099999999999999,-0.00022,-0.00014,-0.00016,3
9425,9844,0.00026000000000000003,1e-05,-1e-05,-0.00013000000000000002,-0.0005099999999999999,-0.00022,-0.00014,-0.00016,3
9426,9845,0.00026000000000000003,1e-05,-1e-05,-0.00013000000000000002,-0.0005099999999999999,-0.00022,-0.00014,-0.00016,3
9427,9846,0.00026000000000000003,1e-05,-1e-05,-0.00013000000000000002,-0.0005099999999999999,-0.00022,-0.00014,-0.00016,3
9428,9847,0.00026000000000000003,1e-05,-1e-05,-0.00013000000000000002,-0.0005099999999999999,-0.00022,-0.00014,-0.00016,3
9429,9848,0.00026000000000000003,1e-05,-1e-05,-0.00013000000000000002,-0.0005099999999999999,-0.00022,-0.00014,-0.00016,3
9430,9849,0.00026000000000000003,1e-05,-1e-05,-0.00013000000000000002,-0.0005099999999999999,-0.00022,-0.00014,-0.00016,3
9431,9850,0.00026000000000000003,1e-05,-1e-05,-0.00013000000000000002,-0.0005099999999999999,-0.00022,-0.00014,-0.00016,3
9432,9851,0.00026000000000000003,1e-05,-1e-05,-0.00013000000000000002,-0.0005099999999999999,-0.00022,-0.00014,-0.00016,3
9433,9852,0.00026000000000000003,1e-05,-1e-05,-0.00013000000000000002,-0.0005099999999999999,-0.00022,-0.00014,-0.00016,3
9434,9853,-0.00045999999999999996,-1e-05,4e-05,5.9999999999999995e-05,0.00018,-1e-05,-0.00018999999999999998,-5e-05,3
9435,9854,-0.00045999999999999996,-1e-05,4e-05,5.9999999999999995e-05,0.00018,-1e-05,-0.00018999999999999998,-5e-05,3
9436,9855,-0.00053,-0.00011,-8e-05,-2.9999999999999997e-05,-9e-05,-8e-05,-5.9999999999999995e-05,-9e-05,3
9437,9856,-0.00053,-0.00011,-8e-05,-2.9999999999999997e-05,-9e-05,-8e-05,-5.9999999999999995e-05,-9e-05,3
9438,9857,-0.00053,-0.00011,-8e-05,-2.9999999999999997e-05,-9e-05,-8e-05,-5.9999999999999995e-05,-9e-05,3
9439,9858,-0.00053,-0.00011,-8e-05,-2.9999999999999997e-05,-9e-05,-8e-05,-5.9999999999999995e-05,-9e-05,3
9440,9859,-0.00053,-0.00011,-8e-05,-2.9999999999999997e-05,-9e-05,-8e-05,-5.9999999999999995e-05,-9e-05,3
9441,9860,-0.00053,-0.00011,-8e-05,-2.9999999999999997e-05,-9e-05,-8e-05,-5.9999999999999995e-05,-9e-05,3
9442,9861,-0.00053,-0.00011,-8e-05,-2.9999999999999997e-05,-9e-05,-8e-05,-5.9999999999999995e-05,-9e-05,3
9443,9862,-0.00053,-0.00011,-8e-05,-2.9999999999999997e-05,-9e-05,-8e-05,-5.9999999999999995e-05,-9e-05,3
9444,9863,-0.00053,-0.00011,-8e-05,-2.9999999999999997e-05,-9e-05,-8e-05,-5.9999999999999995e-05,-9e-05,3
9445,9864,-0.00053,-0.00011,-8e-05,-2.9999999999999997e-05,-9e-05,-8e-05,-5.9999999999999995e-05,-9e-05,3
9446,9865,-0.00053,-0.00011,-8e-05,-2.9999999999999997e-05,-9e-05,-8e-05,-5.9999999999999995e-05,-9e-05,3
9447,9867,-0.00053,-0.00011,-8e-05,-2.9999999999999997e-05,-9e-05,-8e-05,-5.9999999999999995e-05,-9e-05,3
9448,9868,-0.00053,-0.00011,-8e-05,-2.9999999999999997e-05,-9e-05,-8e-05,-5.9999999999999995e-05,-9e-05,3
9449,9869,-0.00053,-0.00011,-8e-05,-2.9999999999999997e-05,-9e-05,-8e-05,-5.9999999999999995e-05,-9e-05,3
9450,9870,-0.00053,-0.00011,-8e-05,-2.9999999999999997e-05,-9e-05,-8e-05,-5.9999999999999995e-05,-9e-05,3
9451,9871,-0.00053,-0.00011,-8e-05,-2.9999999999999997e-05,-9e-05,-8e-05,-5.9999999999999995e-05,-9e-05,3
9452,9872,-0.00053,-0.00011,-8e-05,-2.9999999999999997e-05,-9e-05,-8e-05,-5.9999999999999995e-05,-9e-05,3
9453,9873,-0.00053,-0.00011,-8e-05,-2.9999999999999997e-05,-9e-05,-8e-05,-5.9999999999999995e-05,-9e-05,3
9454,9874,-0.00053,-0.00011,-8e-05,-2.9999999999999997e-05,-9e-05,-8e-05,-5.9999999999999995e-05,-9e-05,3
9455,9875,-0.00053,-0.00011,-8e-05,-2.9999999999999997e-05,-9e-05,-8e-05,-5.9999999999999995e-05,-9e-05,3
9456,9876,-0.00026000000000000003,1e-05,8e-05,4e-05,5.9999999999999995e-05,-0.00015,8e-05,0.00031,3
9457,9877,-0.00053,-2.9999999999999997e-05,2.9999999999999997e-05,0.00028,0.00016999999999999999,0.00016999999999999999,5.9999999999999995e-05,-0.00031,3
9458,9878,-0.00053,-2.9999999999999997e-05,2.9999999999999997e-05,0.00028,0.00016999999999999999,0.00016999999999999999,5.9999999999999995e-05,-0.00031,3
9459,9879,-0.00053,-2.9999999999999997e-05,2.9999999999999997e-05,0.00028,0.00016999999999999999,0.00016999999999999999,5.9999999999999995e-05,-0.00031,3
9460,9880,-0.00053,-2.9999999999999997e-05,2.9999999999999997e-05,0.00028,0.00016999999999999999,0.00016999999999999999,5.9999999999999995e-05,-0.00031,3
9461,9881,-0.00053,-2.9999999999999997e-05,2.9999999999999997e-05,0.00028,0.00016999999999999999,0.00016999999999999999,5.9999999999999995e-05,-0.00031,3
9462,9882,-0.00053,-2.9999999999999997e-05,2.9999999999999997e-05,0.00028,0.00016999999999999999,0.00016999999999999999,5.9999999999999995e-05,-0.00031,3
9463,9883,-0.00053,-2.9999999999999997e-05,2.9999999999999997e-05,0.00028,0.00016999999999999999,0.00016999999999999999,5.9999999999999995e-05,-0.00031,3
9464,9884,-0.00053,-2.9999999999999997e-05,2.9999999999999997e-05,0.00028,0.00016999999999999999,0.00016999999999999999,5.9999999999999995e-05,-0.00031,3
9465,9885,-0.00053,-2.9999999999999997e-05,2.9999999999999997e-05,0.00028,0.00016999999999999999,0.00016999999999999999,5.9999999999999995e-05,-0.00031,3
9466,9886,-0.00053,-2.9999999999999997e-05,2.9999999999999997e-05,0.00028,0.00016999999999999999,0.00016999999999999999,5.9999999999999995e-05,-0.00031,3
9467,9888,-0.00053,-2.9999999999999997e-05,2.9999999999999997e-05,0.00028,0.00016999999999999999,0.00016999999999999999,5.9999999999999995e-05,-0.00031,3
9468,9889,-0.00053,-2.9999999999999997e-05,2.9999999999999997e-05,0.00028,0.00016999999999999999,0.00016999999999999999,5.9999999999999995e-05,-0.00031,3
9469,9890,-0.00053,-2.9999999999999997e-05,2.9999999999999997e-05,0.00028,0.00016999999999999999,0.00016999999999999999,5.9999999999999995e-05,-0.00031,3
9470,9891,-0.00053,-2.9999999999999997e-05,2.9999999999999997e-05,0.00028,0.00016999999999999999,0.00016999999999999999,5.9999999999999995e-05,-0.00031,3
9471,9892,-0.00053,-2.9999999999999997e-05,2.9999999999999997e-05,0.00028,0.00016999999999999999,0.00016999999999999999,5.9999999999999995e-05,-0.00031,3
9472,9893,-0.00053,-2.9999999999999997e-05,2.9999999999999997e-05,0.00028,0.00016999999999999999,0.00016999999999999999,5.9999999999999995e-05,-0.00031,3
9473,9894,-0.00053,-2.9999999999999997e-05,2.9999999999999997e-05,0.00028,0.00016999999999999999,0.00016999999999999999,5.9999999999999995e-05,-0.00031,3
9474,9895,-0.00053,-2.9999999999999997e-05,2.9999999999999997e-05,0.00028,0.00016999999999999999,0.00016999999999999999,5.9999999999999995e-05,-0.00031,3
9475,9896,-0.00053,-2.9999999999999997e-05,2.9999999999999997e-05,0.00028,0.00016999999999999999,0.00016999999999999999,5.9999999999999995e-05,-0.00031,3
9476,9897,-0.00053,-2.9999999999999997e-05,2.9999999999999997e-05,0.00028,0.00016999999999999999,0.00016999999999999999,5.9999999999999995e-05,-0.00031,3
9477,9898,0.00056,0.0003,-2.9999999999999997e-05,-0.00027,-0.00036,-0.00016,-0.00022999999999999998,5.9999999999999995e-05,3
9478,9899,0.00056,0.0003,-2.9999999999999997e-05,-0.00027,-0.00036,-0.00016,-0.00022999999999999998,5.9999999999999995e-05,3
9479,9900,0.00056,0.0003,-2.9999999999999997e-05,-0.00027,-0.00036,-0.00016,-0.00022999999999999998,5.9999999999999995e-05,3
9480,9901,-5e-05,4e-05,2e-05,5.9999999999999995e-05,0.00022999999999999998,-9e-05,-0.00031,-0.00044,3
9481,9902,-0.00011,-0.0001,-1e-05,8e-05,0.00021,-0.00011,-0.00021,-0.00013000000000000002,3
9482,9903,-0.00011,-0.0001,-1e-05,8e-05,0.00021,-0.00011,-0.00021,-0.00013000000000000002,3
9483,9904,-0.00011,-0.0001,-1e-05,8e-05,0.00021,-0.00011,-0.00021,-0.00013000000000000002,3
9484,9905,-0.00011,-0.0001,-1e-05,8e-05,0.00021,-0.00011,-0.00021,-0.00013000000000000002,3
9485,9906,-0.00011,-0.0001,-1e-05,8e-05,0.00021,-0.00011,-0.00021,-0.00013000000000000002,3
9486,9907,-0.00011,-0.0001,-1e-05,8e-05,0.00021,-0.00011,-0.00021,-0.00013000000000000002,3
9487,9909,-0.00011,-0.0001,-1e-05,8e-05,0.00021,-0.00011,-0.00021,-0.00013000000000000002,3
9488,9910,-0.00011,-0.0001,-1e-05,8e-05,0.00021,-0.00011,-0.00021,-0.00013000000000000002,3
9489,9911,-0.00011,-0.0001,-1e-05,8e-05,0.00021,-0.00011,-0.00021,-0.00013000000000000002,3
9490,9912,-0.00011,-0.0001,-1e-05,8e-05,0.00021,-0.00011,-0.00021,-0.00013000000000000002,3
9491,9913,0.00043,0.0003,1e-05,-2.9999999999999997e-05,-5e-05,0.0,1e-05,0.00015,3
9492,9914,0.00043,0.0003,1e-05,-2.9999999999999997e-05,-5e-05,0.0,1e-05,0.00015,3
9493,9915,0.00043,0.0003,1e-05,-2.9999999999999997e-05,-5e-05,0.0,1e-05,0.00015,3
9494,9916,0.00043,0.0003,1e-05,-2.9999999999999997e-05,-5e-05,0.0,1e-05,0.00015,3
9495,9917,0.00043,0.0003,1e-05,-2.9999999999999997e-05,-5e-05,0.0,1e-05,0.00015,3
9496,9918,0.00043,0.0003,1e-05,-2.9999999999999997e-05,-5e-05,0.0,1e-05,0.00015,3
9497,9919,-0.00078,-0.00033,-5.9999999999999995e-05,0.00018999999999999998,0.00037,5e-05,2e-05,-0.00015,3
9498,9920,-0.00078,-0.00033,-5.9999999999999995e-05,0.00018999999999999998,0.00037,5e-05,2e-05,-0.00015,3
9499,9921,-0.00078,-0.00033,-5.9999999999999995e-05,0.00018999999999999998,0.00037,5e-05,2e-05,-0.00015,3
9500,9922,-0.00078,-0.00033,-5.9999999999999995e-05,0.00018999999999999998,0.00037,5e-05,2e-05,-0.00015,3
9501,9923,-0.00078,-0.00033,-5.9999999999999995e-05,0.00018999999999999998,0.00037,5e-05,2e-05,-0.00015,3
9502,9924,-0.00078,-0.00033,-5.9999999999999995e-05,0.00018999999999999998,0.00037,5e-05,2e-05,-0.00015,3
9503,9925,-0.00078,-0.00033,-5.9999999999999995e-05,0.00018999999999999998,0.00037,5e-05,2e-05,-0.00015,3
9504,9926,-0.00078,-0.00033,-5.9999999999999995e-05,0.00018999999999999998,0.00037,5e-05,2e-05,-0.00015,3
9505,9927,-0.00078,-0.00033,-5.9999999999999995e-05,0.00018999999999999998,0.00037,5e-05,2e-05,-0.00015,3
9506,9928,-0.00078,-0.00033,-5.9999999999999995e-05,0.00018999999999999998,0.00037,5e-05,2e-05,-0.00015,3
9507,9929,-0.00078,-0.00033,-5.9999999999999995e-05,0.00018999999999999998,0.00037,5e-05,2e-05,-0.00015,3
9508,9930,-0.00078,-0.00033,-5.9999999999999995e-05,0.00018999999999999998,0.00037,5e-05,2e-05,-0.00015,3
9509,9931,-0.00078,-0.00033,-5.9999999999999995e-05,0.00018999999999999998,0.00037,5e-05,2e-05,-0.00015,3
9510,9932,-0.00078,-0.00033,-5.9999999999999995e-05,0.00018999999999999998,0.00037,5e-05,2e-05,-0.00015,3
