,time,channel1,channel2,channel3,channel4,channel5,channel6,channel7,channel8,class
12639,13134,-0.00015,0.00032,-0.00018,-9e-05,-5e-05,2e-05,-0.00011,-0.00018,3
12640,13135,-0.00015,0.00032,-0.00018,-9e-05,-5e-05,2e-05,-0.00011,-0.00018,3
12641,13136,-0.00015,0.00032,-0.00018,-9e-05,-5e-05,2e-05,-0.00011,-0.00018,3
12642,13138,-0.00015,0.00032,-0.00018,-9e-05,-5e-05,2e-05,-0.00011,-0.00018,3
12643,13139,-0.00015,0.00032,-0.00018,-9e-05,-5e-05,2e-05,-0.00011,-0.00018,3
12644,13140,-0.00015,0.00032,-0.00018,-9e-05,-5e-05,2e-05,-0.00011,-0.00018,3
12645,13141,-0.00015,0.00032,-0.00018,-9e-05,-5e-05,2e-05,-0.00011,-0.00018,3
12646,13142,-0.00015,0.00032,-0.00018,-9e-05,-5e-05,2e-05,-0.00011,-0.00018,3
12647,13143,-0.00015,0.00032,-0.00018,-9e-05,-5e-05,2e-05,-0.00011,-0.00018,3
12648,13144,-0.00015,0.00032,-0.00018,-9e-05,-5e-05,2e-05,-0.00011,-0.00018,3
12649,13145,-0.00015,0.00032,-0.00018,-9e-05,-5e-05,2e-05,-0.00011,-0.00018,3
12650,13146,-0.00015,0.00032,-0.00018,-9e-05,-5e-05,2e-05,-0.00011,-0.00018,3
12651,13147,-0.00015,0.00032,-0.00018,-9e-05,-5e-05,2e-05,-0.00011,-0.00018,3
12652,13148,-0.00015,0.00032,-0.00018,-9e-05,-5e-05,2e-05,-0.00011,-0.00018,3
12653,13149,-0.00015,0.00032,-0.00018,-9e-05,-5e-05,2e-05,-0.00011,-0.00018,3
12654,13150,-0.00016,0.0003,-0.00015,-5e-05,-1e-05,-4e-05,-2e-05,0.00011,3
12655,13151,0.00015,-0.00016,2e-05,2.9999999999999997e-05,4e-05,0.00013000000000000002,-2.9999999999999997e-05,8e-05,3
12656,13152,-0.0002,-0.00025,0.00011999999999999999,2.9999999999999997e-05,0.0,-7e-05,5.9999999999999995e-05,5e-05,3
12657,13153,-0.0002,-0.00025,0.00011999999999999999,2.9999999999999997e-05,0.0,-7e-05,5.9999999999999995e-05,5e-05,3
12658,13154,-0.0002,-0.00025,0.00011999999999999999,2.9999999999999997e-05,0.0,-7e-05,5.9999999999999995e-05,5e-05,3
12659,13155,-0.0002,-0.00025,0.00011999999999999999,2.9999999999999997e-05,0.0,-7e-05,5.9999999999999995e-05,5e-05,3
12660,13156,-0.0002,-0.00025,0.00011999999999999999,2.9999999999999997e-05,0.0,-7e-05,5.9999999999999995e-05,5e-05,3
12661,13157,-0.0002,-0.00025,0.00011999999999999999,2.9999999999999997e-05,0.0,-7e-05,5.9999999999999995e-05,5e-05,3
12662,13158,-0.0002,-0.00025,0.00011999999999999999,2.9999999999999997e-05,0.0,-7e-05,5.9999999999999995e-05,5e-05,3
12663,13159,-0.0002,-0.00025,0.00011999999999999999,2.9999999999999997e-05,0.0,-7e-05,5.9999999999999995e-05,5e-05,3
12664,13160,-0.0002,-0.00025,0.00011999999999999999,2.9999999999999997e-05,0.0,-7e-05,5.9999999999999995e-05,5e-05,3
12665,13161,-0.0002,-0.00025,0.00011999999999999999,2.9999999999999997e-05,0.0,-7e-05,5.9999999999999995e-05,5e-05,3
12666,13162,-0.0002,-0.00025,0.00011999999999999999,2.9999999999999997e-05,0.0,-7e-05,5.9999999999999995e-05,5e-05,3
12667,13163,-0.0002,-0.00025,0.00011999999999999999,2.9999999999999997e-05,0.0,-7e-05,5.9999999999999995e-05,5e-05,3
12668,13164,-0.00026000000000000003,0.00043,-5.9999999999999995e-05,2.9999999999999997e-05,4e-05,-2e-05,-0.00014,0.0003,3
12669,13165,-0.00026000000000000003,0.00043,-5.9999999999999995e-05,2.9999999999999997e-05,4e-05,-2e-05,-0.00014,0.0003,3
12670,13166,-0.00026000000000000003,0.00043,-5.9999999999999995e-05,2.9999999999999997e-05,4e-05,-2e-05,-0.00014,0.0003,3
12671,13167,-0.00026000000000000003,0.00043,-5.9999999999999995e-05,2.9999999999999997e-05,4e-05,-2e-05,-0.00014,0.0003,3
12672,13168,-0.00026000000000000003,0.00043,-5.9999999999999995e-05,2.9999999999999997e-05,4e-05,-2e-05,-0.00014,0.0003,3
12673,13169,-0.00026000000000000003,0.00043,-5.9999999999999995e-05,2.9999999999999997e-05,4e-05,-2e-05,-0.00014,0.0003,3
12674,13170,-0.00026000000000000003,0.00043,-5.9999999999999995e-05,2.9999999999999997e-05,4e-05,-2e-05,-0.00014,0.0003,3
12675,13171,-0.00026000000000000003,0.00043,-5.9999999999999995e-05,2.9999999999999997e-05,4e-05,-2e-05,-0.00014,0.0003,3
12676,13172,-0.00026000000000000003,0.00043,-5.9999999999999995e-05,2.9999999999999997e-05,4e-05,-2e-05,-0.00014,0.0003,3
12677,13173,-0.00026000000000000003,0.00043,-5.9999999999999995e-05,2.9999999999999997e-05,4e-05,-2e-05,-0.00014,0.0003,3
12678,13174,-0.00026000000000000003,0.00043,-5.9999999999999995e-05,2.9999999999999997e-05,4e-05,-2e-05,-0.00014,0.0003,3
12679,13175,-0.00026000000000000003,0.00043,-5.9999999999999995e-05,2.9999999999999997e-05,4e-05,-2e-05,-0.00014,0.0003,3
12680,13176,-0.00026000000000000003,0.00043,-5.9999999999999995e-05,2.9999999999999997e-05,4e-05,-2e-05,-0.00014,0.0003,3
12681,13177,-0.00026000000000000003,0.00043,-5.9999999999999995e-05,2.9999999999999997e-05,4e-05,-2e-05,-0.00014,0.0003,3
12682,13178,0.0002,0.0002,9e-05,2.9999999999999997e-05,0.0,-2e-05,-2e-05,0.00018999999999999998,3
12683,13179,-5.9999999999999995e-05,-5.9999999999999995e-05,-8e-05,-1e-05,4e-05,4e-05,2.9999999999999997e-05,-0.00011999999999999999,3
12684,13180,-5.9999999999999995e-05,-5.9999999999999995e-05,-8e-05,-1e-05,4e-05,4e-05,2.9999999999999997e-05,-0.00011999999999999999,3
12685,13181,-5.9999999999999995e-05,-5.9999999999999995e-05,-8e-05,-1e-05,4e-05,4e-05,2.9999999999999997e-05,-0.00011999999999999999,3
12686,13182,-5.9999999999999995e-05,-5.9999999999999995e-05,-8e-05,-1e-05,4e-05,4e-05,2.9999999999999997e-05,-0.00011999999999999999,3
12687,13183,-5.9999999999999995e-05,-5.9999999999999995e-05,-8e-05,-1e-05,4e-05,4e-05,2.9999999999999997e-05,-0.00011999999999999999,3
12688,13184,-5.9999999999999995e-05,-5.9999999999999995e-05,-8e-05,-1e-05,4e-05,4e-05,2.9999999999999997e-05,-0.00011999999999999999,3
12689,13185,-5.9999999999999995e-05,-5.9999999999999995e-05,-8e-05,-1e-05,4e-05,4e-05,2.9999999999999997e-05,-0.00011999999999999999,3
12690,13186,-5.9999999999999995e-05,-5.9999999999999995e-05,-8e-05,-1e-05,4e-05,4e-05,2.9999999999999997e-05,-0.00011999999999999999,3
12691,13188,1e-05,8e-05,-0.00011,0.0,-5e-05,-8e-05,-0.00016999999999999999,-0.00013000000000000002,3
12692,13189,-0.0001,-5e-05,0.00011,0.00011999999999999999,8e-05,-2e-05,0.0,0.00036,3
12693,13190,-0.0001,-5e-05,0.00011,0.00011999999999999999,8e-05,-2e-05,0.0,0.00036,3
12694,13191,-0.0001,-5e-05,0.00011,0.00011999999999999999,8e-05,-2e-05,0.0,0.00036,3
12695,13192,-0.0001,-5e-05,0.00011,0.00011999999999999999,8e-05,-2e-05,0.0,0.00036,3
12696,13193,-0.0001,-5e-05,0.00011,0.00011999999999999999,8e-05,-2e-05,0.0,0.00036,3
12697,13194,-0.0001,-5e-05,0.00011,0.00011999999999999999,8e-05,-2e-05,0.0,0.00036,3
12698,13195,-0.0001,-5e-05,0.00011,0.00011999999999999999,8e-05,-2e-05,0.0,0.00036,3
12699,13196,-0.0001,-5e-05,0.00011,0.00011999999999999999,8e-05,-2e-05,0.0,0.00036,3
12700,13197,-0.0001,-5e-05,0.00011,0.00011999999999999999,8e-05,-2e-05,0.0,0.00036,3
12701,13198,-0.0001,-5e-05,0.00011,0.00011999999999999999,8e-05,-2e-05,0.0,0.00036,3
12702,13199,-0.0001,-5e-05,0.00011,0.00011999999999999999,8e-05,-2e-05,0.0,0.00036,3
12703,13200,-0.0001,-5e-05,0.00011,0.00011999999999999999,8e-05,-2e-05,0.0,0.00036,3
12704,13201,-0.0001,-5e-05,0.00011,0.00011999999999999999,8e-05,-2e-05,0.0,0.00036,3
12705,13202,-0.0001,-5e-05,0.00011,0.00011999999999999999,8e-05,-2e-05,0.0,0.00036,3
12706,13203,-0.0001,-5e-05,0.00011,0.00011999999999999999,8e-05,-2e-05,0.0,0.00036,3
12707,13204,-0.0001,-5e-05,0.00011,0.00011999999999999999,8e-05,-2e-05,0.0,0.00036,3
12708,13205,-0.0001,-5e-05,0.00011,0.00011999999999999999,8e-05,-2e-05,0.0,0.00036,3
12709,13206,-0.0001,-5e-05,0.00011,0.00011999999999999999,8e-05,-2e-05,0.0,0.00036,3
12710,13207,-0.0001,-5e-05,0.00011,0.00011999999999999999,8e-05,-2e-05,0.0,0.00036,3
12711,13208,-0.0001,-5e-05,0.00011,0.00011999999999999999,8e-05,-2e-05,0.0,0.00036,3
12712,13209,-0.0001,-5e-05,0.00011,0.00011999999999999999,8e-05,-2e-05,0.0,0.00036,3
12713,13210,-0.00037999999999999997,0.00016,4e-05,-5e-05,2e-05,2.9999999999999997e-05,0.00016,0.00054,3
12714,13211,8e-05,-0.00033,-5e-05,-5e-05,-4e-05,0.0,2e-05,0.00047000000000000004,3
12715,13212,8e-05,-0.00033,-5e-05,-5e-05,-4e-05,0.0,2e-05,0.00047000000000000004,3
12716,13213,8e-05,-0.00033,-5e-05,-5e-05,-4e-05,0.0,2e-05,0.00047000000000000004,3
12717,13214,8e-05,-0.00033,-5e-05,-5e-05,-4e-05,0.0,2e-05,0.00047000000000000004,3
12718,13215,8e-05,-0.00033,-5e-05,-5e-05,-4e-05,0.0,2e-05,0.00047000000000000004,3
12719,13216,8e-05,-0.00033,-5e-05,-5e-05,-4e-05,0.0,2e-05,0.00047000000000000004,3
12720,13217,8e-05,-0.00033,-5e-05,-5e-05,-4e-05,0.0,2e-05,0.00047000000000000004,3
12721,13218,8e-05,-0.00033,-5e-05,-5e-05,-4e-05,0.0,2e-05,0.00047000000000000004,3
12722,13219,8e-05,-0.00033,-5e-05,-5e-05,-4e-05,0.0,2e-05,0.00047000000000000004,3
12723,13220,8e-05,-0.00033,-5e-05,-5e-05,-4e-05,0.0,2e-05,0.00047000000000000004,3
12724,13221,8e-05,-0.00033,-5e-05,-5e-05,-4e-05,0.0,2e-05,0.00047000000000000004,3
12725,13222,8e-05,-0.00033,-5e-05,-5e-05,-4e-05,0.0,2e-05,0.00047000000000000004,3
12726,13223,8e-05,-0.00033,-5e-05,-5e-05,-4e-05,0.0,2e-05,0.00047000000000000004,3
12727,13224,0.00037,0.00039,-7e-05,-4e-05,0.0,0.00015,0.0,-8e-05,3
12728,13225,0.00037,0.00039,-7e-05,-4e-05,0.0,0.00015,0.0,-8e-05,3
12729,13226,0.00037,0.00039,-7e-05,-4e-05,0.0,0.00015,0.0,-8e-05,3
12730,13227,0.00037,0.00039,-7e-05,-4e-05,0.0,0.00015,0.0,-8e-05,3
12731,13228,0.00037,0.00039,-7e-05,-4e-05,0.0,0.00015,0.0,-8e-05,3
12732,13229,0.00037,0.00039,-7e-05,-4e-05,0.0,0.00015,0.0,-8e-05,3
12733,13230,0.00037,0.00039,-7e-05,-4e-05,0.0,0.00015,0.0,-8e-05,3
12734,13231,0.00037,0.00039,-7e-05,-4e-05,0.0,0.00015,0.0,-8e-05,3
12735,13232,-2.9999999999999997e-05,9e-05,-8e-05,-2.9999999999999997e-05,-5.9999999999999995e-05,-2e-05,1e-05,0.00022,3
12736,13233,-2.9999999999999997e-05,9e-05,-8e-05,-2.9999999999999997e-05,-5.9999999999999995e-05,-2e-05,1e-05,0.00022,3
12737,13234,-2.9999999999999997e-05,9e-05,-8e-05,-2.9999999999999997e-05,-5.9999999999999995e-05,-2e-05,1e-05,0.00022,3
12738,13235,-2.9999999999999997e-05,9e-05,-8e-05,-2.9999999999999997e-05,-5.9999999999999995e-05,-2e-05,1e-05,0.00022,3
12739,13236,-2.9999999999999997e-05,9e-05,-8e-05,-2.9999999999999997e-05,-5.9999999999999995e-05,-2e-05,1e-05,0.00022,3
12740,13238,-2.9999999999999997e-05,9e-05,-8e-05,-2.9999999999999997e-05,-5.9999999999999995e-05,-2e-05,1e-05,0.00022,3
12741,13239,-2.9999999999999997e-05,9e-05,-8e-05,-2.9999999999999997e-05,-5.9999999999999995e-05,-2e-05,1e-05,0.00022,3
12742,13240,-2.9999999999999997e-05,9e-05,-8e-05,-2.9999999999999997e-05,-5.9999999999999995e-05,-2e-05,1e-05,0.00022,3
12743,13241,-2.9999999999999997e-05,9e-05,-8e-05,-2.9999999999999997e-05,-5.9999999999999995e-05,-2e-05,1e-05,0.00022,3
12744,13242,-2.9999999999999997e-05,9e-05,-8e-05,-2.9999999999999997e-05,-5.9999999999999995e-05,-2e-05,1e-05,0.00022,3
12745,13243,-2.9999999999999997e-05,9e-05,-8e-05,-2.9999999999999997e-05,-5.9999999999999995e-05,-2e-05,1e-05,0.00022,3
12746,13244,-2.9999999999999997e-05,9e-05,-8e-05,-2.9999999999999997e-05,-5.9999999999999995e-05,-2e-05,1e-05,0.00022,3
12747,13245,-2.9999999999999997e-05,9e-05,-8e-05,-2.9999999999999997e-05,-5.9999999999999995e-05,-2e-05,1e-05,0.00022,3
12748,13246,-2.9999999999999997e-05,9e-05,-8e-05,-2.9999999999999997e-05,-5.9999999999999995e-05,-2e-05,1e-05,0.00022,3
12749,13247,-0.00065,-0.00036,0.00043,-2e-05,-5e-05,-5e-05,2e-05,0.00016999999999999999,3
12750,13248,-0.00011999999999999999,0.00018,-0.00064,-8e-05,-1e-05,2.9999999999999997e-05,-0.0001,-0.00063,3
12751,13249,-0.00011999999999999999,0.00018,-0.00064,-8e-05,-1e-05,2.9999999999999997e-05,-0.0001,-0.00063,3
12752,13250,-0.00011999999999999999,0.00018,-0.00064,-8e-05,-1e-05,2.9999999999999997e-05,-0.0001,-0.00063,3
12753,13251,-0.00011999999999999999,0.00018,-0.00064,-8e-05,-1e-05,2.9999999999999997e-05,-0.0001,-0.00063,3
12754,13252,-0.00011999999999999999,0.00018,-0.00064,-8e-05,-1e-05,2.9999999999999997e-05,-0.0001,-0.00063,3
12755,13253,-0.00011999999999999999,0.00018,-0.00064,-8e-05,-1e-05,2.9999999999999997e-05,-0.0001,-0.00063,3
12756,13254,-0.00011999999999999999,0.00018,-0.00064,-8e-05,-1e-05,2.9999999999999997e-05,-0.0001,-0.00063,3
12757,13255,-0.00011999999999999999,0.00018,-0.00064,-8e-05,-1e-05,2.9999999999999997e-05,-0.0001,-0.00063,3
12758,13256,-0.00011999999999999999,0.00018,-0.00064,-8e-05,-1e-05,2.9999999999999997e-05,-0.0001,-0.00063,3
12759,13257,-0.00011999999999999999,0.00018,-0.00064,-8e-05,-1e-05,2.9999999999999997e-05,-0.0001,-0.00063,3
12760,13258,-0.00011999999999999999,0.00018,-0.00064,-8e-05,-1e-05,2.9999999999999997e-05,-0.0001,-0.00063,3
12761,13259,-0.00011999999999999999,0.00018,-0.00064,-8e-05,-1e-05,2.9999999999999997e-05,-0.0001,-0.00063,3
12762,13260,-0.00011999999999999999,0.00018,-0.00064,-8e-05,-1e-05,2.9999999999999997e-05,-0.0001,-0.00063,3
12763,13261,-0.00011999999999999999,0.00018,-0.00064,-8e-05,-1e-05,2.9999999999999997e-05,-0.0001,-0.00063,3
12764,13262,-0.00011999999999999999,0.00018,-0.00064,-8e-05,-1e-05,2.9999999999999997e-05,-0.0001,-0.00063,3
12765,13263,-0.00011999999999999999,0.00018,-0.00064,-8e-05,-1e-05,2.9999999999999997e-05,-0.0001,-0.00063,3
12766,13264,-0.00011999999999999999,0.00018,-0.00064,-8e-05,-1e-05,2.9999999999999997e-05,-0.0001,-0.00063,3
12767,13265,-0.00011999999999999999,0.00018,-0.00064,-8e-05,-1e-05,2.9999999999999997e-05,-0.0001,-0.00063,3
12768,13266,-0.00011999999999999999,0.00018,-0.00064,-8e-05,-1e-05,2.9999999999999997e-05,-0.0001,-0.00063,3
12769,13267,-0.00011999999999999999,0.00018,-0.00064,-8e-05,-1e-05,2.9999999999999997e-05,-0.0001,-0.00063,3
12770,13268,-0.00011999999999999999,0.00018,-0.00064,-8e-05,-1e-05,2.9999999999999997e-05,-0.0001,-0.00063,3
12771,13269,0.00015,-0.00028,-4e-05,-2e-05,-2.9999999999999997e-05,-7e-05,2.9999999999999997e-05,-0.00016,3
12772,13270,-0.00016,4e-05,0.00011999999999999999,-5e-05,-8e-05,-7e-05,2e-05,9e-05,3
12773,13271,-0.00016,4e-05,0.00011999999999999999,-5e-05,-8e-05,-7e-05,2e-05,9e-05,3
12774,13272,-0.00016,4e-05,0.00011999999999999999,-5e-05,-8e-05,-7e-05,2e-05,9e-05,3
12775,13273,-0.00016,4e-05,0.00011999999999999999,-5e-05,-8e-05,-7e-05,2e-05,9e-05,3
12776,13274,-0.00016,4e-05,0.00011999999999999999,-5e-05,-8e-05,-7e-05,2e-05,9e-05,3
12777,13275,-0.00016,4e-05,0.00011999999999999999,-5e-05,-8e-05,-7e-05,2e-05,9e-05,3
12778,13276,-0.00016,4e-05,0.00011999999999999999,-5e-05,-8e-05,-7e-05,2e-05,9e-05,3
12779,13277,-0.00016,4e-05,0.00011999999999999999,-5e-05,-8e-05,-7e-05,2e-05,9e-05,3
12780,13278,-0.00016,4e-05,0.00011999999999999999,-5e-05,-8e-05,-7e-05,2e-05,9e-05,3
12781,13279,-0.00016,4e-05,0.00011999999999999999,-5e-05,-8e-05,-7e-05,2e-05,9e-05,3
12782,13280,-0.00016,4e-05,0.00011999999999999999,-5e-05,-8e-05,-7e-05,2e-05,9e-05,3
12783,13281,-0.00016,4e-05,0.00011999999999999999,-5e-05,-8e-05,-7e-05,2e-05,9e-05,3
12784,13282,-0.00016,4e-05,0.00011999999999999999,-5e-05,-8e-05,-7e-05,2e-05,9e-05,3
12785,13283,-0.00016,4e-05,0.00011999999999999999,-5e-05,-8e-05,-7e-05,2e-05,9e-05,3
12786,13284,-0.0002,-0.00065,-0.00015,-2.9999999999999997e-05,1e-05,4e-05,5e-05,0.00072,3
12787,13285,-0.0002,-0.00065,-0.00015,-2.9999999999999997e-05,1e-05,4e-05,5e-05,0.00072,3
12788,13286,-0.0002,-0.00065,-0.00015,-2.9999999999999997e-05,1e-05,4e-05,5e-05,0.00072,3
12789,13288,-0.0002,-0.00065,-0.00015,-2.9999999999999997e-05,1e-05,4e-05,5e-05,0.00072,3
12790,13289,-0.0002,-0.00065,-0.00015,-2.9999999999999997e-05,1e-05,4e-05,5e-05,0.00072,3
12791,13290,-0.0002,-0.00065,-0.00015,-2.9999999999999997e-05,1e-05,4e-05,5e-05,0.00072,3
12792,13291,-0.0002,-0.00065,-0.00015,-2.9999999999999997e-05,1e-05,4e-05,5e-05,0.00072,3
12793,13292,-7e-05,-0.00022999999999999998,0.00013000000000000002,2e-05,0.0,-2e-05,-4e-05,0.00016999999999999999,3
12794,13293,-7e-05,-0.00022999999999999998,0.00013000000000000002,2e-05,0.0,-2e-05,-4e-05,0.00016999999999999999,3
12795,13294,-7e-05,-0.00022999999999999998,0.00013000000000000002,2e-05,0.0,-2e-05,-4e-05,0.00016999999999999999,3
12796,13295,-7e-05,-0.00022999999999999998,0.00013000000000000002,2e-05,0.0,-2e-05,-4e-05,0.00016999999999999999,3
12797,13296,-7e-05,-0.00022999999999999998,0.00013000000000000002,2e-05,0.0,-2e-05,-4e-05,0.00016999999999999999,3
12798,13297,-7e-05,-0.00022999999999999998,0.00013000000000000002,2e-05,0.0,-2e-05,-4e-05,0.00016999999999999999,3
12799,13298,-7e-05,-0.00022999999999999998,0.00013000000000000002,2e-05,0.0,-2e-05,-4e-05,0.00016999999999999999,3
12800,13299,-7e-05,-0.00022999999999999998,0.00013000000000000002,2e-05,0.0,-2e-05,-4e-05,0.00016999999999999999,3
12801,13300,-7e-05,-0.00022999999999999998,0.00013000000000000002,2e-05,0.0,-2e-05,-4e-05,0.00016999999999999999,3
12802,13301,-7e-05,-0.00022999999999999998,0.00013000000000000002,2e-05,0.0,-2e-05,-4e-05,0.00016999999999999999,3
12803,13302,-7e-05,-0.00022999999999999998,0.00013000000000000002,2e-05,0.0,-2e-05,-4e-05,0.00016999999999999999,3
12804,13303,-7e-05,-0.00022999999999999998,0.00013000000000000002,2e-05,0.0,-2e-05,-4e-05,0.00016999999999999999,3
12805,13304,-7e-05,-0.00022999999999999998,0.00013000000000000002,2e-05,0.0,-2e-05,-4e-05,0.00016999999999999999,3
12806,13305,-7e-05,-0.00022999999999999998,0.00013000000000000002,2e-05,0.0,-2e-05,-4e-05,0.00016999999999999999,3
12807,13306,-7e-05,-0.00022999999999999998,0.00013000000000000002,2e-05,0.0,-2e-05,-4e-05,0.00016999999999999999,3
12808,13307,-0.00037999999999999997,-0.00058,-5e-05,-5e-05,-1e-05,1e-05,-1e-05,-0.00013000000000000002,3
12809,13308,-0.00037999999999999997,-0.00058,-5e-05,-5e-05,-1e-05,1e-05,-1e-05,-0.00013000000000000002,3
12810,13309,-0.00037999999999999997,-0.00058,-5e-05,-5e-05,-1e-05,1e-05,-1e-05,-0.00013000000000000002,3
12811,13310,-0.00037999999999999997,-0.00058,-5e-05,-5e-05,-1e-05,1e-05,-1e-05,-0.00013000000000000002,3
12812,13311,-0.00037999999999999997,-0.00058,-5e-05,-5e-05,-1e-05,1e-05,-1e-05,-0.00013000000000000002,3
12813,13312,-0.00037999999999999997,-0.00058,-5e-05,-5e-05,-1e-05,1e-05,-1e-05,-0.00013000000000000002,3
12814,13313,-0.00037999999999999997,-0.00058,-5e-05,-5e-05,-1e-05,1e-05,-1e-05,-0.00013000000000000002,3
12815,13314,-0.00037999999999999997,-0.00058,-5e-05,-5e-05,-1e-05,1e-05,-1e-05,-0.00013000000000000002,3
12816,13315,-0.00037999999999999997,-0.00058,-5e-05,-5e-05,-1e-05,1e-05,-1e-05,-0.00013000000000000002,3
12817,13316,-0.00037999999999999997,-0.00058,-5e-05,-5e-05,-1e-05,1e-05,-1e-05,-0.00013000000000000002,3
12818,13317,-0.00037999999999999997,-0.00058,-5e-05,-5e-05,-1e-05,1e-05,-1e-05,-0.00013000000000000002,3
12819,13318,-0.00037999999999999997,-0.00058,-5e-05,-5e-05,-1e-05,1e-05,-1e-05,-0.00013000000000000002,3
12820,13319,-0.00037999999999999997,-0.00058,-5e-05,-5e-05,-1e-05,1e-05,-1e-05,-0.00013000000000000002,3
12821,13320,-0.00037999999999999997,-0.00058,-5e-05,-5e-05,-1e-05,1e-05,-1e-05,-0.00013000000000000002,3
12822,13321,-0.00037999999999999997,-0.00058,-5e-05,-5e-05,-1e-05,1e-05,-1e-05,-0.00013000000000000002,3
12823,13322,-0.00037999999999999997,-0.00058,-5e-05,-5e-05,-1e-05,1e-05,-1e-05,-0.00013000000000000002,3
12824,13323,-0.00037999999999999997,-0.00058,-5e-05,-5e-05,-1e-05,1e-05,-1e-05,-0.00013000000000000002,3
12825,13324,-0.00037999999999999997,-0.00058,-5e-05,-5e-05,-1e-05,1e-05,-1e-05,-0.00013000000000000002,3
12826,13325,-0.00037999999999999997,-0.00058,-5e-05,-5e-05,-1e-05,1e-05,-1e-05,-0.00013000000000000002,3
12827,13326,-0.00037999999999999997,-0.00058,-5e-05,-5e-05,-1e-05,1e-05,-1e-05,-0.00013000000000000002,3
12828,13327,-0.00037999999999999997,-0.00058,-5e-05,-5e-05,-1e-05,1e-05,-1e-05,-0.00013000000000000002,3
12829,13328,-0.00037999999999999997,-0.00058,-5e-05,-5e-05,-1e-05,1e-05,-1e-05,-0.00013000000000000002,3
12830,13329,-9e-05,0.00042,1e-05,1e-05,0.0,-2.9999999999999997e-05,-1e-05,-0.00015,3
12831,13330,1e-05,0.00016,7e-05,4e-05,2e-05,-2e-05,1e-05,-0.00032,3
12832,13331,1e-05,0.00016,7e-05,4e-05,2e-05,-2e-05,1e-05,-0.00032,3
12833,13332,1e-05,0.00016,7e-05,4e-05,2e-05,-2e-05,1e-05,-0.00032,3
12834,13333,1e-05,0.00016,7e-05,4e-05,2e-05,-2e-05,1e-05,-0.00032,3
12835,13334,1e-05,0.00016,7e-05,4e-05,2e-05,-2e-05,1e-05,-0.00032,3
12836,13335,1e-05,0.00016,7e-05,4e-05,2e-05,-2e-05,1e-05,-0.00032,3
12837,13336,1e-05,0.00016,7e-05,4e-05,2e-05,-2e-05,1e-05,-0.00032,3
12838,13338,1e-05,0.00016,7e-05,4e-05,2e-05,-2e-05,1e-05,-0.00032,3
12839,13339,1e-05,0.00016,7e-05,4e-05,2e-05,-2e-05,1e-05,-0.00032,3
12840,13340,1e-05,0.00016,7e-05,4e-05,2e-05,-2e-05,1e-05,-0.00032,3
12841,13341,1e-05,0.00016,7e-05,4e-05,2e-05,-2e-05,1e-05,-0.00032,3
12842,13342,1e-05,0.00016,7e-05,4e-05,2e-05,-2e-05,1e-05,-0.00032,3
12843,13343,0.00016,-0.00062,-5e-05,-4e-05,0.0,-2e-05,-8e-05,0.00033,3
12844,13344,0.0004,0.00033999999999999997,-4e-05,1e-05,0.0,2.9999999999999997e-05,0.0,-0.00041,3
12845,13345,0.0004,0.00033999999999999997,-4e-05,1e-05,0.0,2.9999999999999997e-05,0.0,-0.00041,3
12846,13346,0.0004,0.00033999999999999997,-4e-05,1e-05,0.0,2.9999999999999997e-05,0.0,-0.00041,3
12847,13347,0.0004,0.00033999999999999997,-4e-05,1e-05,0.0,2.9999999999999997e-05,0.0,-0.00041,3
12848,13348,0.0004,0.00033999999999999997,-4e-05,1e-05,0.0,2.9999999999999997e-05,0.0,-0.00041,3
12849,13349,0.0004,0.00033999999999999997,-4e-05,1e-05,0.0,2.9999999999999997e-05,0.0,-0.00041,3
12850,13350,0.0004,0.00033999999999999997,-4e-05,1e-05,0.0,2.9999999999999997e-05,0.0,-0.00041,3
12851,13351,0.0004,0.00033999999999999997,-4e-05,1e-05,0.0,2.9999999999999997e-05,0.0,-0.00041,3
12852,13352,0.00013000000000000002,1e-05,0.0001,-1e-05,-1e-05,-2.9999999999999997e-05,-1e-05,0.00014,3
12853,13353,0.00013000000000000002,1e-05,0.0001,-1e-05,-1e-05,-2.9999999999999997e-05,-1e-05,0.00014,3
12854,13354,0.00013000000000000002,1e-05,0.0001,-1e-05,-1e-05,-2.9999999999999997e-05,-1e-05,0.00014,3
12855,13355,0.00013000000000000002,1e-05,0.0001,-1e-05,-1e-05,-2.9999999999999997e-05,-1e-05,0.00014,3
12856,13356,0.00013000000000000002,1e-05,0.0001,-1e-05,-1e-05,-2.9999999999999997e-05,-1e-05,0.00014,3
12857,13357,0.00013000000000000002,1e-05,0.0001,-1e-05,-1e-05,-2.9999999999999997e-05,-1e-05,0.00014,3
12858,13358,0.00013000000000000002,1e-05,0.0001,-1e-05,-1e-05,-2.9999999999999997e-05,-1e-05,0.00014,3
12859,13359,0.00013000000000000002,1e-05,0.0001,-1e-05,-1e-05,-2.9999999999999997e-05,-1e-05,0.00014,3
12860,13360,0.00013000000000000002,1e-05,0.0001,-1e-05,-1e-05,-2.9999999999999997e-05,-1e-05,0.00014,3
12861,13361,0.00013000000000000002,1e-05,0.0001,-1e-05,-1e-05,-2.9999999999999997e-05,-1e-05,0.00014,3
12862,13362,0.00013000000000000002,1e-05,0.0001,-1e-05,-1e-05,-2.9999999999999997e-05,-1e-05,0.00014,3
12863,13363,0.00013000000000000002,1e-05,0.0001,-1e-05,-1e-05,-2.9999999999999997e-05,-1e-05,0.00014,3
12864,13364,0.00013000000000000002,1e-05,0.0001,-1e-05,-1e-05,-2.9999999999999997e-05,-1e-05,0.00014,3
12865,13365,0.00013000000000000002,1e-05,0.0001,-1e-05,-1e-05,-2.9999999999999997e-05,-1e-05,0.00014,3
12866,13366,0.00013000000000000002,1e-05,0.0001,-1e-05,-1e-05,-2.9999999999999997e-05,-1e-05,0.00014,3
12867,13367,-4e-05,-0.00011999999999999999,-2e-05,-5e-05,-2.9999999999999997e-05,-5e-05,2.9999999999999997e-05,-4e-05,3
12868,13368,-9e-05,0.00011,0.0001,5.9999999999999995e-05,5e-05,5.9999999999999995e-05,4e-05,-0.00061,3
12869,13369,-9e-05,0.00011,0.0001,5.9999999999999995e-05,5e-05,5.9999999999999995e-05,4e-05,-0.00061,3
12870,13370,-9e-05,0.00011,0.0001,5.9999999999999995e-05,5e-05,5.9999999999999995e-05,4e-05,-0.00061,3
12871,13371,-9e-05,0.00011,0.0001,5.9999999999999995e-05,5e-05,5.9999999999999995e-05,4e-05,-0.00061,3
12872,13372,-9e-05,0.00011,0.0001,5.9999999999999995e-05,5e-05,5.9999999999999995e-05,4e-05,-0.00061,3
12873,13373,-9e-05,0.00011,0.0001,5.9999999999999995e-05,5e-05,5.9999999999999995e-05,4e-05,-0.00061,3
12874,13374,-9e-05,0.00011,0.0001,5.9999999999999995e-05,5e-05,5.9999999999999995e-05,4e-05,-0.00061,3
12875,13375,-9e-05,0.00011,0.0001,5.9999999999999995e-05,5e-05,5.9999999999999995e-05,4e-05,-0.00061,3
12876,13376,-9e-05,0.00011,0.0001,5.9999999999999995e-05,5e-05,5.9999999999999995e-05,4e-05,-0.00061,3
12877,13377,-9e-05,0.00011,0.0001,5.9999999999999995e-05,5e-05,5.9999999999999995e-05,4e-05,-0.00061,3
12878,13378,-9e-05,0.00011,0.0001,5.9999999999999995e-05,5e-05,5.9999999999999995e-05,4e-05,-0.00061,3
12879,13379,-9e-05,0.00011,0.0001,5.9999999999999995e-05,5e-05,5.9999999999999995e-05,4e-05,-0.00061,3
12880,13380,-9e-05,0.00011,0.0001,5.9999999999999995e-05,5e-05,5.9999999999999995e-05,4e-05,-0.00061,3
12881,13381,-9e-05,0.00011,0.0001,5.9999999999999995e-05,5e-05,5.9999999999999995e-05,4e-05,-0.00061,3
12882,13382,-9e-05,0.00011,0.0001,5.9999999999999995e-05,5e-05,5.9999999999999995e-05,4e-05,-0.00061,3
12883,13383,-9e-05,0.00011,0.0001,5.9999999999999995e-05,5e-05,5.9999999999999995e-05,4e-05,-0.00061,3
12884,13384,-9e-05,0.00011,0.0001,5.9999999999999995e-05,5e-05,5.9999999999999995e-05,4e-05,-0.00061,3
12885,13385,-9e-05,0.00011,0.0001,5.9999999999999995e-05,5e-05,5.9999999999999995e-05,4e-05,-0.00061,3
12886,13386,-9e-05,0.00011,0.0001,5.9999999999999995e-05,5e-05,5.9999999999999995e-05,4e-05,-0.00061,3
12887,13388,-9e-05,0.00011,0.0001,5.9999999999999995e-05,5e-05,5.9999999999999995e-05,4e-05,-0.00061,3
12888,13389,-9e-05,-0.00098,-0.0001,0.0,4e-05,1e-05,-2e-05,0.00018,3
12889,13390,0.00043,-2.9999999999999997e-05,-4e-05,-4e-05,-4e-05,-1e-05,1e-05,2e-05,3
12890,13391,0.00043,-2.9999999999999997e-05,-4e-05,-4e-05,-4e-05,-1e-05,1e-05,2e-05,3
12891,13392,0.00043,-2.9999999999999997e-05,-4e-05,-4e-05,-4e-05,-1e-05,1e-05,2e-05,3
12892,13393,0.00043,-2.9999999999999997e-05,-4e-05,-4e-05,-4e-05,-1e-05,1e-05,2e-05,3
12893,13394,0.00043,-2.9999999999999997e-05,-4e-05,-4e-05,-4e-05,-1e-05,1e-05,2e-05,3
12894,13395,0.00043,-2.9999999999999997e-05,-4e-05,-4e-05,-4e-05,-1e-05,1e-05,2e-05,3
12895,13396,0.00043,-2.9999999999999997e-05,-4e-05,-4e-05,-4e-05,-1e-05,1e-05,2e-05,3
12896,13397,0.00043,-2.9999999999999997e-05,-4e-05,-4e-05,-4e-05,-1e-05,1e-05,2e-05,3
12897,13398,0.00043,-2.9999999999999997e-05,-4e-05,-4e-05,-4e-05,-1e-05,1e-05,2e-05,3
12898,13399,0.00043,-2.9999999999999997e-05,-4e-05,-4e-05,-4e-05,-1e-05,1e-05,2e-05,3
12899,13400,0.00043,-2.9999999999999997e-05,-4e-05,-4e-05,-4e-05,-1e-05,1e-05,2e-05,3
12900,13401,0.00043,-2.9999999999999997e-05,-4e-05,-4e-05,-4e-05,-1e-05,1e-05,2e-05,3
12901,13402,0.00043,-2.9999999999999997e-05,-4e-05,-4e-05,-4e-05,-1e-05,1e-05,2e-05,3
12902,13403,-9e-05,0.00061,1e-05,-2e-05,-2.9999999999999997e-05,-7e-05,-2e-05,0.00028,3
12903,13404,0.00027,0.00016999999999999999,4e-05,1e-05,-1e-05,-5e-05,-0.00013000000000000002,-0.00047999999999999996,3
12904,13405,0.00027,0.00016999999999999999,4e-05,1e-05,-1e-05,-5e-05,-0.00013000000000000002,-0.00047999999999999996,3
12905,13406,0.00027,0.00016999999999999999,4e-05,1e-05,-1e-05,-5e-05,-0.00013000000000000002,-0.00047999999999999996,3
12906,13407,0.00027,0.00016999999999999999,4e-05,1e-05,-1e-05,-5e-05,-0.00013000000000000002,-0.00047999999999999996,3
12907,13408,0.00027,0.00016999999999999999,4e-05,1e-05,-1e-05,-5e-05,-0.00013000000000000002,-0.00047999999999999996,3
12908,13409,0.00027,0.00016999999999999999,4e-05,1e-05,-1e-05,-5e-05,-0.00013000000000000002,-0.00047999999999999996,3
12909,13410,0.00027,0.00016999999999999999,4e-05,1e-05,-1e-05,-5e-05,-0.00013000000000000002,-0.00047999999999999996,3
12910,13411,0.00027,0.00016999999999999999,4e-05,1e-05,-1e-05,-5e-05,-0.00013000000000000002,-0.00047999999999999996,3
12911,13412,0.00027,0.00016999999999999999,4e-05,1e-05,-1e-05,-5e-05,-0.00013000000000000002,-0.00047999999999999996,3
12912,13413,0.00027,0.00016999999999999999,4e-05,1e-05,-1e-05,-5e-05,-0.00013000000000000002,-0.00047999999999999996,3
12913,13414,0.00027,0.00016999999999999999,4e-05,1e-05,-1e-05,-5e-05,-0.00013000000000000002,-0.00047999999999999996,3
12914,13415,0.00027,0.00016999999999999999,4e-05,1e-05,-1e-05,-5e-05,-0.00013000000000000002,-0.00047999999999999996,3
12915,13416,0.00027,0.00016999999999999999,4e-05,1e-05,-1e-05,-5e-05,-0.00013000000000000002,-0.00047999999999999996,3
12916,13417,0.00027,0.00016999999999999999,4e-05,1e-05,-1e-05,-5e-05,-0.00013000000000000002,-0.00047999999999999996,3
12917,13418,0.00027,0.00016999999999999999,4e-05,1e-05,-1e-05,-5e-05,-0.00013000000000000002,-0.00047999999999999996,3
12918,13419,-9e-05,-0.00042,-1e-05,-5e-05,-4e-05,-4e-05,-0.0001,2e-05,3
12919,13420,-9e-05,-0.00042,-1e-05,-5e-05,-4e-05,-4e-05,-0.0001,2e-05,3
12920,13421,-9e-05,-0.00042,-1e-05,-5e-05,-4e-05,-4e-05,-0.0001,2e-05,3
12921,13422,-9e-05,-0.00042,-1e-05,-5e-05,-4e-05,-4e-05,-0.0001,2e-05,3
12922,13423,-9e-05,-0.00042,-1e-05,-5e-05,-4e-05,-4e-05,-0.0001,2e-05,3
12923,13424,-9e-05,-0.00042,-1e-05,-5e-05,-4e-05,-4e-05,-0.0001,2e-05,3
12924,13425,-9e-05,-0.00042,-1e-05,-5e-05,-4e-05,-4e-05,-0.0001,2e-05,3
12925,13426,-5.9999999999999995e-05,0.00055,8e-05,5.9999999999999995e-05,4e-05,2.9999999999999997e-05,5.9999999999999995e-05,-0.00055,3
12926,13427,-7e-05,-7e-05,8e-05,4e-05,1e-05,-2.9999999999999997e-05,0.0,0.00018,3
12927,13428,-7e-05,-7e-05,8e-05,4e-05,1e-05,-2.9999999999999997e-05,0.0,0.00018,3
12928,13429,-7e-05,-7e-05,8e-05,4e-05,1e-05,-2.9999999999999997e-05,0.0,0.00018,3
12929,13430,-7e-05,-7e-05,8e-05,4e-05,1e-05,-2.9999999999999997e-05,0.0,0.00018,3
12930,13431,-7e-05,-7e-05,8e-05,4e-05,1e-05,-2.9999999999999997e-05,0.0,0.00018,3
12931,13432,-7e-05,-7e-05,8e-05,4e-05,1e-05,-2.9999999999999997e-05,0.0,0.00018,3
12932,13433,-7e-05,-7e-05,8e-05,4e-05,1e-05,-2.9999999999999997e-05,0.0,0.00018,3
12933,13434,-7e-05,-7e-05,8e-05,4e-05,1e-05,-2.9999999999999997e-05,0.0,0.00018,3
12934,13435,-7e-05,-7e-05,8e-05,4e-05,1e-05,-2.9999999999999997e-05,0.0,0.00018,3
12935,13436,-7e-05,-7e-05,8e-05,4e-05,1e-05,-2.9999999999999997e-05,0.0,0.00018,3
12936,13438,-7e-05,-7e-05,8e-05,4e-05,1e-05,-2.9999999999999997e-05,0.0,0.00018,3
12937,13439,-7e-05,-7e-05,8e-05,4e-05,1e-05,-2.9999999999999997e-05,0.0,0.00018,3
12938,13440,-7e-05,-7e-05,8e-05,4e-05,1e-05,-2.9999999999999997e-05,0.0,0.00018,3
12939,13441,-7e-05,-7e-05,8e-05,4e-05,1e-05,-2.9999999999999997e-05,0.0,0.00018,3
12940,13442,-7e-05,-7e-05,8e-05,4e-05,1e-05,-2.9999999999999997e-05,0.0,0.00018,3
12941,13443,-7e-05,-7e-05,8e-05,4e-05,1e-05,-2.9999999999999997e-05,0.0,0.00018,3
12942,13444,-7e-05,-7e-05,8e-05,4e-05,1e-05,-2.9999999999999997e-05,0.0,0.00018,3
12943,13445,-7e-05,-7e-05,8e-05,4e-05,1e-05,-2.9999999999999997e-05,0.0,0.00018,3
12944,13446,-7e-05,-7e-05,8e-05,4e-05,1e-05,-2.9999999999999997e-05,0.0,0.00018,3
12945,13447,-7e-05,-7e-05,8e-05,4e-05,1e-05,-2.9999999999999997e-05,0.0,0.00018,3
12946,13448,-7e-05,-7e-05,8e-05,4e-05,1e-05,-2.9999999999999997e-05,0.0,0.00018,3
12947,13449,-7e-05,-7e-05,8e-05,4e-05,1e-05,-2.9999999999999997e-05,0.0,0.00018,3
12948,13450,-2.9999999999999997e-05,4e-05,-2e-05,-2.9999999999999997e-05,0.0,2.9999999999999997e-05,9e-05,0.0003,3
12949,13451,-2.9999999999999997e-05,4e-05,-2e-05,-2.9999999999999997e-05,0.0,2.9999999999999997e-05,9e-05,0.0003,3
12950,13452,-2.9999999999999997e-05,4e-05,-2e-05,-2.9999999999999997e-05,0.0,2.9999999999999997e-05,9e-05,0.0003,3
12951,13453,-2.9999999999999997e-05,4e-05,-2e-05,-2.9999999999999997e-05,0.0,2.9999999999999997e-05,9e-05,0.0003,3
12952,13454,-2.9999999999999997e-05,4e-05,-2e-05,-2.9999999999999997e-05,0.0,2.9999999999999997e-05,9e-05,0.0003,3
12953,13455,-2.9999999999999997e-05,4e-05,-2e-05,-2.9999999999999997e-05,0.0,2.9999999999999997e-05,9e-05,0.0003,3
12954,13456,-2.9999999999999997e-05,4e-05,-2e-05,-2.9999999999999997e-05,0.0,2.9999999999999997e-05,9e-05,0.0003,3
12955,13457,-2.9999999999999997e-05,4e-05,-2e-05,-2.9999999999999997e-05,0.0,2.9999999999999997e-05,9e-05,0.0003,3
12956,13458,-2.9999999999999997e-05,4e-05,-2e-05,-2.9999999999999997e-05,0.0,2.9999999999999997e-05,9e-05,0.0003,3
12957,13459,-2.9999999999999997e-05,4e-05,-2e-05,-2.9999999999999997e-05,0.0,2.9999999999999997e-05,9e-05,0.0003,3
12958,13460,-2.9999999999999997e-05,4e-05,-2e-05,-2.9999999999999997e-05,0.0,2.9999999999999997e-05,9e-05,0.0003,3
12959,13461,-2.9999999999999997e-05,4e-05,-2e-05,-2.9999999999999997e-05,0.0,2.9999999999999997e-05,9e-05,0.0003,3
12960,13462,-2.9999999999999997e-05,4e-05,-2e-05,-2.9999999999999997e-05,0.0,2.9999999999999997e-05,9e-05,0.0003,3
12961,13463,-0.00022,0.00035,0.00061,0.00011999999999999999,4e-05,2e-05,7e-05,0.00045999999999999996,3
12962,13464,-2.9999999999999997e-05,-0.00042,-0.00063,-0.00015,-1e-05,2e-05,-5.9999999999999995e-05,0.00041,3
12963,13465,-2.9999999999999997e-05,-0.00042,-0.00063,-0.00015,-1e-05,2e-05,-5.9999999999999995e-05,0.00041,3
12964,13466,-2.9999999999999997e-05,-0.00042,-0.00063,-0.00015,-1e-05,2e-05,-5.9999999999999995e-05,0.00041,3
12965,13467,-2.9999999999999997e-05,-0.00042,-0.00063,-0.00015,-1e-05,2e-05,-5.9999999999999995e-05,0.00041,3
12966,13468,-2.9999999999999997e-05,-0.00042,-0.00063,-0.00015,-1e-05,2e-05,-5.9999999999999995e-05,0.00041,3
12967,13469,-2.9999999999999997e-05,-0.00042,-0.00063,-0.00015,-1e-05,2e-05,-5.9999999999999995e-05,0.00041,3
12968,13470,-2.9999999999999997e-05,-0.00042,-0.00063,-0.00015,-1e-05,2e-05,-5.9999999999999995e-05,0.00041,3
12969,13471,-2.9999999999999997e-05,-0.00042,-0.00063,-0.00015,-1e-05,2e-05,-5.9999999999999995e-05,0.00041,3
12970,13472,-2.9999999999999997e-05,-0.00042,-0.00063,-0.00015,-1e-05,2e-05,-5.9999999999999995e-05,0.00041,3
12971,13473,-2.9999999999999997e-05,-0.00042,-0.00063,-0.00015,-1e-05,2e-05,-5.9999999999999995e-05,0.00041,3
12972,13474,-2.9999999999999997e-05,-0.00042,-0.00063,-0.00015,-1e-05,2e-05,-5.9999999999999995e-05,0.00041,3
12973,13475,-2.9999999999999997e-05,-0.00042,-0.00063,-0.00015,-1e-05,2e-05,-5.9999999999999995e-05,0.00041,3
12974,13476,-2.9999999999999997e-05,-0.00042,-0.00063,-0.00015,-1e-05,2e-05,-5.9999999999999995e-05,0.00041,3
12975,13477,-2.9999999999999997e-05,-0.00042,-0.00063,-0.00015,-1e-05,2e-05,-5.9999999999999995e-05,0.00041,3
12976,13478,-2.9999999999999997e-05,-0.00042,-0.00063,-0.00015,-1e-05,2e-05,-5.9999999999999995e-05,0.00041,3
12977,13479,-2.9999999999999997e-05,-0.00042,-0.00063,-0.00015,-1e-05,2e-05,-5.9999999999999995e-05,0.00041,3
12978,13480,-2.9999999999999997e-05,-0.00042,-0.00063,-0.00015,-1e-05,2e-05,-5.9999999999999995e-05,0.00041,3
12979,13481,-2.9999999999999997e-05,-0.00042,-0.00063,-0.00015,-1e-05,2e-05,-5.9999999999999995e-05,0.00041,3
12980,13482,-2.9999999999999997e-05,-0.00042,-0.00063,-0.00015,-1e-05,2e-05,-5.9999999999999995e-05,0.00041,3
12981,13483,-2.9999999999999997e-05,-0.00042,-0.00063,-0.00015,-1e-05,2e-05,-5.9999999999999995e-05,0.00041,3
12982,13484,-2.9999999999999997e-05,-0.00042,-0.00063,-0.00015,-1e-05,2e-05,-5.9999999999999995e-05,0.00041,3
12983,13485,-2.9999999999999997e-05,-0.00042,-0.00063,-0.00015,-1e-05,2e-05,-5.9999999999999995e-05,0.00041,3
12984,13486,-2.9999999999999997e-05,-0.00042,-0.00063,-0.00015,-1e-05,2e-05,-5.9999999999999995e-05,0.00041,3
12985,13489,-0.00066,-0.00065,-9e-05,-4e-05,-2e-05,-1e-05,-4e-05,-0.00031,3
12986,13490,-0.0002,-0.0007700000000000001,-4e-05,-1e-05,1e-05,2.9999999999999997e-05,-2e-05,-1e-05,3
12987,13491,-0.0002,-0.0007700000000000001,-4e-05,-1e-05,1e-05,2.9999999999999997e-05,-2e-05,-1e-05,3
12988,13492,-0.0002,-0.0007700000000000001,-4e-05,-1e-05,1e-05,2.9999999999999997e-05,-2e-05,-1e-05,3
12989,13493,-0.0002,-0.0007700000000000001,-4e-05,-1e-05,1e-05,2.9999999999999997e-05,-2e-05,-1e-05,3
12990,13494,-0.0002,-0.0007700000000000001,-4e-05,-1e-05,1e-05,2.9999999999999997e-05,-2e-05,-1e-05,3
12991,13495,-0.0002,-0.0007700000000000001,-4e-05,-1e-05,1e-05,2.9999999999999997e-05,-2e-05,-1e-05,3
12992,13496,-0.0002,-0.0007700000000000001,-4e-05,-1e-05,1e-05,2.9999999999999997e-05,-2e-05,-1e-05,3
12993,13497,-0.0002,-0.0007700000000000001,-4e-05,-1e-05,1e-05,2.9999999999999997e-05,-2e-05,-1e-05,3
12994,13498,-0.0002,-0.0007700000000000001,-4e-05,-1e-05,1e-05,2.9999999999999997e-05,-2e-05,-1e-05,3
12995,13499,-0.0002,-0.0007700000000000001,-4e-05,-1e-05,1e-05,2.9999999999999997e-05,-2e-05,-1e-05,3
12996,13500,-0.0002,-0.0007700000000000001,-4e-05,-1e-05,1e-05,2.9999999999999997e-05,-2e-05,-1e-05,3
12997,13501,-0.0002,-0.0007700000000000001,-4e-05,-1e-05,1e-05,2.9999999999999997e-05,-2e-05,-1e-05,3
12998,13502,-0.0002,-0.0007700000000000001,-4e-05,-1e-05,1e-05,2.9999999999999997e-05,-2e-05,-1e-05,3
12999,13503,-0.0002,-0.0007700000000000001,-4e-05,-1e-05,1e-05,2.9999999999999997e-05,-2e-05,-1e-05,3
13000,13504,-0.0002,-0.0007700000000000001,-4e-05,-1e-05,1e-05,2.9999999999999997e-05,-2e-05,-1e-05,3
13001,13505,-0.0002,-0.0007700000000000001,-4e-05,-1e-05,1e-05,2.9999999999999997e-05,-2e-05,-1e-05,3
13002,13506,-0.0002,-0.0007700000000000001,-4e-05,-1e-05,1e-05,2.9999999999999997e-05,-2e-05,-1e-05,3
13003,13507,-0.0002,-0.0007700000000000001,-4e-05,-1e-05,1e-05,2.9999999999999997e-05,-2e-05,-1e-05,3
13004,13508,-0.0002,-0.0007700000000000001,-4e-05,-1e-05,1e-05,2.9999999999999997e-05,-2e-05,-1e-05,3
13005,13509,-0.0002,-0.0007700000000000001,-4e-05,-1e-05,1e-05,2.9999999999999997e-05,-2e-05,-1e-05,3
13006,13510,-0.0001,2.9999999999999997e-05,0.00011,-2e-05,1e-05,1e-05,4e-05,-0.00062,3
13007,13511,-0.0001,2.9999999999999997e-05,0.00011,-2e-05,1e-05,1e-05,4e-05,-0.00062,3
13008,13512,-0.0001,2.9999999999999997e-05,0.00011,-2e-05,1e-05,1e-05,4e-05,-0.00062,3
13009,13513,-0.0001,2.9999999999999997e-05,0.00011,-2e-05,1e-05,1e-05,4e-05,-0.00062,3
13010,13514,-0.0001,2.9999999999999997e-05,0.00011,-2e-05,1e-05,1e-05,4e-05,-0.00062,3
13011,13515,-0.0001,2.9999999999999997e-05,0.00011,-2e-05,1e-05,1e-05,4e-05,-0.00062,3
13012,13516,-0.0001,2.9999999999999997e-05,0.00011,-2e-05,1e-05,1e-05,4e-05,-0.00062,3
13013,13517,-0.0001,2.9999999999999997e-05,0.00011,-2e-05,1e-05,1e-05,4e-05,-0.00062,3
13014,13518,-0.0001,2.9999999999999997e-05,0.00011,-2e-05,1e-05,1e-05,4e-05,-0.00062,3
13015,13519,-0.0001,2.9999999999999997e-05,0.00011,-2e-05,1e-05,1e-05,4e-05,-0.00062,3
13016,13520,-0.0001,2.9999999999999997e-05,0.00011,-2e-05,1e-05,1e-05,4e-05,-0.00062,3
13017,13521,-0.0001,2.9999999999999997e-05,0.00011,-2e-05,1e-05,1e-05,4e-05,-0.00062,3
13018,13522,-0.0001,2.9999999999999997e-05,0.00011,-2e-05,1e-05,1e-05,4e-05,-0.00062,3
13019,13523,0.00033999999999999997,-5.9999999999999995e-05,-0.00011999999999999999,-1e-05,-5e-05,-5.9999999999999995e-05,0.0,-2e-05,3
13020,13524,-9e-05,5.9999999999999995e-05,7e-05,1e-05,1e-05,-2e-05,-4e-05,-0.00028,3
13021,13525,-9e-05,5.9999999999999995e-05,7e-05,1e-05,1e-05,-2e-05,-4e-05,-0.00028,3
13022,13526,-9e-05,5.9999999999999995e-05,7e-05,1e-05,1e-05,-2e-05,-4e-05,-0.00028,3
13023,13527,-9e-05,5.9999999999999995e-05,7e-05,1e-05,1e-05,-2e-05,-4e-05,-0.00028,3
13024,13528,-9e-05,5.9999999999999995e-05,7e-05,1e-05,1e-05,-2e-05,-4e-05,-0.00028,3
13025,13529,-9e-05,5.9999999999999995e-05,7e-05,1e-05,1e-05,-2e-05,-4e-05,-0.00028,3
13026,13530,-9e-05,5.9999999999999995e-05,7e-05,1e-05,1e-05,-2e-05,-4e-05,-0.00028,3
13027,13531,-9e-05,5.9999999999999995e-05,7e-05,1e-05,1e-05,-2e-05,-4e-05,-0.00028,3
13028,13532,-9e-05,5.9999999999999995e-05,7e-05,1e-05,1e-05,-2e-05,-4e-05,-0.00028,3
13029,13533,-9e-05,5.9999999999999995e-05,7e-05,1e-05,1e-05,-2e-05,-4e-05,-0.00028,3
13030,13534,-9e-05,5.9999999999999995e-05,7e-05,1e-05,1e-05,-2e-05,-4e-05,-0.00028,3
13031,13535,-9e-05,5.9999999999999995e-05,7e-05,1e-05,1e-05,-2e-05,-4e-05,-0.00028,3
13032,13536,-9e-05,5.9999999999999995e-05,7e-05,1e-05,1e-05,-2e-05,-4e-05,-0.00028,3
13033,13538,-9e-05,5.9999999999999995e-05,7e-05,1e-05,1e-05,-2e-05,-4e-05,-0.00028,3
13034,13539,8e-05,0.00032,-5.9999999999999995e-05,-1e-05,-2e-05,-5.9999999999999995e-05,-1e-05,-0.00015,3
13035,13540,8e-05,0.00032,-5.9999999999999995e-05,-1e-05,-2e-05,-5.9999999999999995e-05,-1e-05,-0.00015,3
13036,13541,8e-05,0.00032,-5.9999999999999995e-05,-1e-05,-2e-05,-5.9999999999999995e-05,-1e-05,-0.00015,3
13037,13542,8e-05,0.00032,-5.9999999999999995e-05,-1e-05,-2e-05,-5.9999999999999995e-05,-1e-05,-0.00015,3
13038,13543,8e-05,0.00032,-5.9999999999999995e-05,-1e-05,-2e-05,-5.9999999999999995e-05,-1e-05,-0.00015,3
13039,13544,8e-05,0.00032,-5.9999999999999995e-05,-1e-05,-2e-05,-5.9999999999999995e-05,-1e-05,-0.00015,3
13040,13545,8e-05,0.00032,-5.9999999999999995e-05,-1e-05,-2e-05,-5.9999999999999995e-05,-1e-05,-0.00015,3
13041,13546,-0.00015,-0.00022,-0.00011,-5.9999999999999995e-05,-5.9999999999999995e-05,-5.9999999999999995e-05,5e-05,0.00023999999999999998,3
13042,13547,-0.00016,-2e-05,-2.9999999999999997e-05,-1e-05,-2.9999999999999997e-05,-2.9999999999999997e-05,-5.9999999999999995e-05,-0.00039,3
13043,13548,-0.00016,-2e-05,-2.9999999999999997e-05,-1e-05,-2.9999999999999997e-05,-2.9999999999999997e-05,-5.9999999999999995e-05,-0.00039,3
13044,13549,-0.00016,-2e-05,-2.9999999999999997e-05,-1e-05,-2.9999999999999997e-05,-2.9999999999999997e-05,-5.9999999999999995e-05,-0.00039,3
13045,13550,-0.00016,-2e-05,-2.9999999999999997e-05,-1e-05,-2.9999999999999997e-05,-2.9999999999999997e-05,-5.9999999999999995e-05,-0.00039,3
13046,13551,-0.00016,-2e-05,-2.9999999999999997e-05,-1e-05,-2.9999999999999997e-05,-2.9999999999999997e-05,-5.9999999999999995e-05,-0.00039,3
13047,13552,-0.00016,-2e-05,-2.9999999999999997e-05,-1e-05,-2.9999999999999997e-05,-2.9999999999999997e-05,-5.9999999999999995e-05,-0.00039,3
13048,13553,-0.00016,-2e-05,-2.9999999999999997e-05,-1e-05,-2.9999999999999997e-05,-2.9999999999999997e-05,-5.9999999999999995e-05,-0.00039,3
13049,13554,-0.00016,-2e-05,-2.9999999999999997e-05,-1e-05,-2.9999999999999997e-05,-2.9999999999999997e-05,-5.9999999999999995e-05,-0.00039,3
13050,13555,-0.00016,-2e-05,-2.9999999999999997e-05,-1e-05,-2.9999999999999997e-05,-2.9999999999999997e-05,-5.9999999999999995e-05,-0.00039,3
13051,13556,-0.00016,-2e-05,-2.9999999999999997e-05,-1e-05,-2.9999999999999997e-05,-2.9999999999999997e-05,-5.9999999999999995e-05,-0.00039,3
13052,13557,-0.00016,-2e-05,-2.9999999999999997e-05,-1e-05,-2.9999999999999997e-05,-2.9999999999999997e-05,-5.9999999999999995e-05,-0.00039,3
13053,13558,-0.00016,-2e-05,-2.9999999999999997e-05,-1e-05,-2.9999999999999997e-05,-2.9999999999999997e-05,-5.9999999999999995e-05,-0.00039,3
13054,13559,-0.00016,-2e-05,-2.9999999999999997e-05,-1e-05,-2.9999999999999997e-05,-2.9999999999999997e-05,-5.9999999999999995e-05,-0.00039,3
13055,13560,-0.00016,-2e-05,-2.9999999999999997e-05,-1e-05,-2.9999999999999997e-05,-2.9999999999999997e-05,-5.9999999999999995e-05,-0.00039,3
13056,13561,-0.00016,-2e-05,-2.9999999999999997e-05,-1e-05,-2.9999999999999997e-05,-2.9999999999999997e-05,-5.9999999999999995e-05,-0.00039,3
13057,13562,-0.00016,-2e-05,-2.9999999999999997e-05,-1e-05,-2.9999999999999997e-05,-2.9999999999999997e-05,-5.9999999999999995e-05,-0.00039,3
13058,13563,-0.00016,-2e-05,-2.9999999999999997e-05,-1e-05,-2.9999999999999997e-05,-2.9999999999999997e-05,-5.9999999999999995e-05,-0.00039,3
13059,13564,-0.00016,-2e-05,-2.9999999999999997e-05,-1e-05,-2.9999999999999997e-05,-2.9999999999999997e-05,-5.9999999999999995e-05,-0.00039,3
13060,13565,-0.00016,-2e-05,-2.9999999999999997e-05,-1e-05,-2.9999999999999997e-05,-2.9999999999999997e-05,-5.9999999999999995e-05,-0.00039,3
13061,13566,-0.00016,-2e-05,-2.9999999999999997e-05,-1e-05,-2.9999999999999997e-05,-2.9999999999999997e-05,-5.9999999999999995e-05,-0.00039,3
13062,13567,-0.00016,-2e-05,-2.9999999999999997e-05,-1e-05,-2.9999999999999997e-05,-2.9999999999999997e-05,-5.9999999999999995e-05,-0.00039,3
13063,13568,-0.00016,-2e-05,-2.9999999999999997e-05,-1e-05,-2.9999999999999997e-05,-2.9999999999999997e-05,-5.9999999999999995e-05,-0.00039,3
13064,13569,-0.00015,0.00018999999999999998,5.9999999999999995e-05,1e-05,-5e-05,-7e-05,0.0,-0.0005099999999999999,3
13065,13570,0.00014,0.00015,0.0,2e-05,-1e-05,-2e-05,-7e-05,0.00013000000000000002,3
13066,13571,0.00014,0.00015,0.0,2e-05,-1e-05,-2e-05,-7e-05,0.00013000000000000002,3
13067,13572,0.00014,0.00015,0.0,2e-05,-1e-05,-2e-05,-7e-05,0.00013000000000000002,3
13068,13573,0.00014,0.00015,0.0,2e-05,-1e-05,-2e-05,-7e-05,0.00013000000000000002,3
13069,13574,0.00014,0.00015,0.0,2e-05,-1e-05,-2e-05,-7e-05,0.00013000000000000002,3
13070,13575,0.00014,0.00015,0.0,2e-05,-1e-05,-2e-05,-7e-05,0.00013000000000000002,3
13071,13576,0.00014,0.00015,0.0,2e-05,-1e-05,-2e-05,-7e-05,0.00013000000000000002,3
13072,13577,0.00014,0.00015,0.0,2e-05,-1e-05,-2e-05,-7e-05,0.00013000000000000002,3
13073,13578,0.00014,0.00015,0.0,2e-05,-1e-05,-2e-05,-7e-05,0.00013000000000000002,3
13074,13579,0.00014,0.00015,0.0,2e-05,-1e-05,-2e-05,-7e-05,0.00013000000000000002,3
13075,13580,0.00014,0.00015,0.0,2e-05,-1e-05,-2e-05,-7e-05,0.00013000000000000002,3
13076,13581,0.00014,0.00015,0.0,2e-05,-1e-05,-2e-05,-7e-05,0.00013000000000000002,3
13077,13582,0.00014,0.00015,0.0,2e-05,-1e-05,-2e-05,-7e-05,0.00013000000000000002,3
13078,13583,0.0,2.9999999999999997e-05,2.9999999999999997e-05,0.0,1e-05,0.0,7e-05,0.00014,3
13079,13584,0.0,2.9999999999999997e-05,2.9999999999999997e-05,0.0,1e-05,0.0,7e-05,0.00014,3
13080,13585,0.0,2.9999999999999997e-05,2.9999999999999997e-05,0.0,1e-05,0.0,7e-05,0.00014,3
13081,13586,0.0,2.9999999999999997e-05,2.9999999999999997e-05,0.0,1e-05,0.0,7e-05,0.00014,3
13082,13588,0.0,2.9999999999999997e-05,2.9999999999999997e-05,0.0,1e-05,0.0,7e-05,0.00014,3
13083,13589,0.0,2.9999999999999997e-05,2.9999999999999997e-05,0.0,1e-05,0.0,7e-05,0.00014,3
13084,13590,0.0,2.9999999999999997e-05,2.9999999999999997e-05,0.0,1e-05,0.0,7e-05,0.00014,3
13085,13591,0.0,2.9999999999999997e-05,2.9999999999999997e-05,0.0,1e-05,0.0,7e-05,0.00014,3
13086,13592,-0.00014,-0.0007099999999999999,-7e-05,-4e-05,-5e-05,-5.9999999999999995e-05,-1e-05,-5.9999999999999995e-05,3
13087,13593,-0.00014,-0.0007099999999999999,-7e-05,-4e-05,-5e-05,-5.9999999999999995e-05,-1e-05,-5.9999999999999995e-05,3
13088,13594,-0.00014,-0.0007099999999999999,-7e-05,-4e-05,-5e-05,-5.9999999999999995e-05,-1e-05,-5.9999999999999995e-05,3
13089,13595,-0.00014,-0.0007099999999999999,-7e-05,-4e-05,-5e-05,-5.9999999999999995e-05,-1e-05,-5.9999999999999995e-05,3
13090,13596,-0.00014,-0.0007099999999999999,-7e-05,-4e-05,-5e-05,-5.9999999999999995e-05,-1e-05,-5.9999999999999995e-05,3
13091,13597,-0.00014,-0.0007099999999999999,-7e-05,-4e-05,-5e-05,-5.9999999999999995e-05,-1e-05,-5.9999999999999995e-05,3
13092,13598,-0.00014,-0.0007099999999999999,-7e-05,-4e-05,-5e-05,-5.9999999999999995e-05,-1e-05,-5.9999999999999995e-05,3
13093,13599,-0.00014,-0.0007099999999999999,-7e-05,-4e-05,-5e-05,-5.9999999999999995e-05,-1e-05,-5.9999999999999995e-05,3
13094,13600,-0.00014,-0.0007099999999999999,-7e-05,-4e-05,-5e-05,-5.9999999999999995e-05,-1e-05,-5.9999999999999995e-05,3
13095,13601,-0.00014,-0.0007099999999999999,-7e-05,-4e-05,-5e-05,-5.9999999999999995e-05,-1e-05,-5.9999999999999995e-05,3
13096,13602,-0.00014,-0.0007099999999999999,-7e-05,-4e-05,-5e-05,-5.9999999999999995e-05,-1e-05,-5.9999999999999995e-05,3
13097,13603,-0.00014,-0.0007099999999999999,-7e-05,-4e-05,-5e-05,-5.9999999999999995e-05,-1e-05,-5.9999999999999995e-05,3
13098,13604,-0.00014,-0.0007099999999999999,-7e-05,-4e-05,-5e-05,-5.9999999999999995e-05,-1e-05,-5.9999999999999995e-05,3
13099,13605,-0.00014,-0.0007099999999999999,-7e-05,-4e-05,-5e-05,-5.9999999999999995e-05,-1e-05,-5.9999999999999995e-05,3
13100,13606,0.00033999999999999997,0.0004,-2.9999999999999997e-05,-1e-05,2e-05,5e-05,2e-05,-0.0003,3
13101,13607,-0.00013000000000000002,0.0,-4e-05,-4e-05,-2.9999999999999997e-05,-5e-05,-2e-05,5.9999999999999995e-05,3
13102,13608,0.00016999999999999999,-0.00025,0.0001,2e-05,1e-05,2e-05,0.0,-0.00037,3
13103,13609,0.00016999999999999999,-0.00025,0.0001,2e-05,1e-05,2e-05,0.0,-0.00037,3
13104,13610,0.00016999999999999999,-0.00025,0.0001,2e-05,1e-05,2e-05,0.0,-0.00037,3
13105,13611,0.00016999999999999999,-0.00025,0.0001,2e-05,1e-05,2e-05,0.0,-0.00037,3
13106,13612,0.00016999999999999999,-0.00025,0.0001,2e-05,1e-05,2e-05,0.0,-0.00037,3
13107,13613,0.00016999999999999999,-0.00025,0.0001,2e-05,1e-05,2e-05,0.0,-0.00037,3
13108,13614,0.00016999999999999999,-0.00025,0.0001,2e-05,1e-05,2e-05,0.0,-0.00037,3
13109,13615,0.00016999999999999999,-0.00025,0.0001,2e-05,1e-05,2e-05,0.0,-0.00037,3
13110,13616,0.00016999999999999999,-0.00025,0.0001,2e-05,1e-05,2e-05,0.0,-0.00037,3
13111,13617,0.00016999999999999999,-0.00025,0.0001,2e-05,1e-05,2e-05,0.0,-0.00037,3
13112,13618,0.00016999999999999999,-0.00025,0.0001,2e-05,1e-05,2e-05,0.0,-0.00037,3
13113,13619,0.00016999999999999999,-0.00025,0.0001,2e-05,1e-05,2e-05,0.0,-0.00037,3
13114,13620,0.00016999999999999999,-0.00025,0.0001,2e-05,1e-05,2e-05,0.0,-0.00037,3
13115,13621,0.00016999999999999999,-0.00025,0.0001,2e-05,1e-05,2e-05,0.0,-0.00037,3
13116,13622,0.00016999999999999999,-0.00025,0.0001,2e-05,1e-05,2e-05,0.0,-0.00037,3
13117,13623,0.00016999999999999999,-0.00025,0.0001,2e-05,1e-05,2e-05,0.0,-0.00037,3
13118,13624,0.00016999999999999999,-0.00025,0.0001,2e-05,1e-05,2e-05,0.0,-0.00037,3
13119,13625,0.00016999999999999999,-0.00025,0.0001,2e-05,1e-05,2e-05,0.0,-0.00037,3
13120,13626,0.00016999999999999999,-0.00025,0.0001,2e-05,1e-05,2e-05,0.0,-0.00037,3
13121,13627,0.00016999999999999999,-0.00025,0.0001,2e-05,1e-05,2e-05,0.0,-0.00037,3
13122,13628,0.00016999999999999999,-0.00025,0.0001,2e-05,1e-05,2e-05,0.0,-0.00037,3
13123,13629,0.00044,0.0004,-2.9999999999999997e-05,-5e-05,-2e-05,0.0,-2.9999999999999997e-05,-0.00018,3
13124,13630,0.00044,0.0004,-2.9999999999999997e-05,-5e-05,-2e-05,0.0,-2.9999999999999997e-05,-0.00018,3
13125,13631,0.00044,0.0004,-2.9999999999999997e-05,-5e-05,-2e-05,0.0,-2.9999999999999997e-05,-0.00018,3
13126,13632,0.00044,0.0004,-2.9999999999999997e-05,-5e-05,-2e-05,0.0,-2.9999999999999997e-05,-0.00018,3
13127,13633,0.00044,0.0004,-2.9999999999999997e-05,-5e-05,-2e-05,0.0,-2.9999999999999997e-05,-0.00018,3
13128,13634,0.00044,0.0004,-2.9999999999999997e-05,-5e-05,-2e-05,0.0,-2.9999999999999997e-05,-0.00018,3
13129,13635,0.00044,0.0004,-2.9999999999999997e-05,-5e-05,-2e-05,0.0,-2.9999999999999997e-05,-0.00018,3
13130,13636,0.00044,0.0004,-2.9999999999999997e-05,-5e-05,-2e-05,0.0,-2.9999999999999997e-05,-0.00018,3
13131,13638,-5e-05,7e-05,-1e-05,0.0,0.0,-1e-05,-4e-05,0.0002,3
13132,13639,-5e-05,7e-05,-1e-05,0.0,0.0,-1e-05,-4e-05,0.0002,3
13133,13640,-5e-05,7e-05,-1e-05,0.0,0.0,-1e-05,-4e-05,0.0002,3
13134,13641,-5e-05,7e-05,-1e-05,0.0,0.0,-1e-05,-4e-05,0.0002,3
13135,13642,-5e-05,7e-05,-1e-05,0.0,0.0,-1e-05,-4e-05,0.0002,3
13136,13643,-0.00011,-0.00026000000000000003,-8e-05,-4e-05,4e-05,2.9999999999999997e-05,5e-05,-0.00061,3
13137,13644,1e-05,0.0003,0.0001,4e-05,2e-05,5.9999999999999995e-05,-2.9999999999999997e-05,-0.00014,3
13138,13645,1e-05,0.0003,0.0001,4e-05,2e-05,5.9999999999999995e-05,-2.9999999999999997e-05,-0.00014,3
13139,13646,1e-05,0.0003,0.0001,4e-05,2e-05,5.9999999999999995e-05,-2.9999999999999997e-05,-0.00014,3
13140,13647,1e-05,0.0003,0.0001,4e-05,2e-05,5.9999999999999995e-05,-2.9999999999999997e-05,-0.00014,3
13141,13648,1e-05,0.0003,0.0001,4e-05,2e-05,5.9999999999999995e-05,-2.9999999999999997e-05,-0.00014,3
13142,13649,1e-05,0.0003,0.0001,4e-05,2e-05,5.9999999999999995e-05,-2.9999999999999997e-05,-0.00014,3
13143,13650,1e-05,0.0003,0.0001,4e-05,2e-05,5.9999999999999995e-05,-2.9999999999999997e-05,-0.00014,3
13144,13651,-8e-05,-0.00015,-2e-05,-1e-05,1e-05,1e-05,-2e-05,1e-05,3
13145,13652,1e-05,0.00027,-1e-05,-1e-05,-1e-05,0.0,0.0,-0.0002,3
13146,13653,1e-05,0.00027,-1e-05,-1e-05,-1e-05,0.0,0.0,-0.0002,3
13147,13654,1e-05,0.00027,-1e-05,-1e-05,-1e-05,0.0,0.0,-0.0002,3
13148,13655,1e-05,0.00027,-1e-05,-1e-05,-1e-05,0.0,0.0,-0.0002,3
13149,13656,1e-05,0.00027,-1e-05,-1e-05,-1e-05,0.0,0.0,-0.0002,3
13150,13657,1e-05,0.00027,-1e-05,-1e-05,-1e-05,0.0,0.0,-0.0002,3
13151,13658,1e-05,0.00027,-1e-05,-1e-05,-1e-05,0.0,0.0,-0.0002,3
13152,13659,1e-05,0.00027,-1e-05,-1e-05,-1e-05,0.0,0.0,-0.0002,3
13153,13660,1e-05,0.00027,-1e-05,-1e-05,-1e-05,0.0,0.0,-0.0002,3
13154,13661,1e-05,0.00027,-1e-05,-1e-05,-1e-05,0.0,0.0,-0.0002,3
13155,13662,1e-05,0.00027,-1e-05,-1e-05,-1e-05,0.0,0.0,-0.0002,3
13156,13663,1e-05,0.00027,-1e-05,-1e-05,-1e-05,0.0,0.0,-0.0002,3
13157,13664,1e-05,0.00027,-1e-05,-1e-05,-1e-05,0.0,0.0,-0.0002,3
13158,13665,1e-05,0.00027,-1e-05,-1e-05,-1e-05,0.0,0.0,-0.0002,3
13159,13666,1e-05,0.00027,-1e-05,-1e-05,-1e-05,0.0,0.0,-0.0002,3
13160,13667,-0.00011,0.00026000000000000003,2e-05,0.0,-1e-05,-8e-05,-8e-05,0.00011999999999999999,3
13161,13668,5e-05,0.0001,1e-05,0.0,0.0,1e-05,4e-05,0.00011999999999999999,3
13162,13669,-8e-05,0.00022,-1e-05,-5.9999999999999995e-05,-2.9999999999999997e-05,0.0,2e-05,9e-05,3
13163,13670,-8e-05,0.00022,-1e-05,-5.9999999999999995e-05,-2.9999999999999997e-05,0.0,2e-05,9e-05,3
13164,13671,-8e-05,0.00022,-1e-05,-5.9999999999999995e-05,-2.9999999999999997e-05,0.0,2e-05,9e-05,3
13165,13672,-8e-05,0.00022,-1e-05,-5.9999999999999995e-05,-2.9999999999999997e-05,0.0,2e-05,9e-05,3
13166,13673,-8e-05,0.00022,-1e-05,-5.9999999999999995e-05,-2.9999999999999997e-05,0.0,2e-05,9e-05,3
13167,13674,-8e-05,0.00022,-1e-05,-5.9999999999999995e-05,-2.9999999999999997e-05,0.0,2e-05,9e-05,3
13168,13675,-8e-05,0.00022,-1e-05,-5.9999999999999995e-05,-2.9999999999999997e-05,0.0,2e-05,9e-05,3
13169,13676,-8e-05,0.00022,-1e-05,-5.9999999999999995e-05,-2.9999999999999997e-05,0.0,2e-05,9e-05,3
13170,13677,-8e-05,0.00022,-1e-05,-5.9999999999999995e-05,-2.9999999999999997e-05,0.0,2e-05,9e-05,3
13171,13678,-8e-05,0.00022,-1e-05,-5.9999999999999995e-05,-2.9999999999999997e-05,0.0,2e-05,9e-05,3
13172,13679,-8e-05,0.00022,-1e-05,-5.9999999999999995e-05,-2.9999999999999997e-05,0.0,2e-05,9e-05,3
13173,13680,-8e-05,0.00022,-1e-05,-5.9999999999999995e-05,-2.9999999999999997e-05,0.0,2e-05,9e-05,3
13174,13681,-8e-05,0.00022,-1e-05,-5.9999999999999995e-05,-2.9999999999999997e-05,0.0,2e-05,9e-05,3
13175,13682,-8e-05,0.00022,-1e-05,-5.9999999999999995e-05,-2.9999999999999997e-05,0.0,2e-05,9e-05,3
13176,13683,-8e-05,0.00022,-1e-05,-5.9999999999999995e-05,-2.9999999999999997e-05,0.0,2e-05,9e-05,3
13177,13684,-8e-05,0.00022,-1e-05,-5.9999999999999995e-05,-2.9999999999999997e-05,0.0,2e-05,9e-05,3
13178,13685,-8e-05,0.00022,-1e-05,-5.9999999999999995e-05,-2.9999999999999997e-05,0.0,2e-05,9e-05,3
13179,13686,-8e-05,0.00022,-1e-05,-5.9999999999999995e-05,-2.9999999999999997e-05,0.0,2e-05,9e-05,3
13180,13688,-8e-05,0.00022,-1e-05,-5.9999999999999995e-05,-2.9999999999999997e-05,0.0,2e-05,9e-05,3
13181,13689,-8e-05,0.00022,-1e-05,-5.9999999999999995e-05,-2.9999999999999997e-05,0.0,2e-05,9e-05,3
13182,13690,-8e-05,0.00022,-1e-05,-5.9999999999999995e-05,-2.9999999999999997e-05,0.0,2e-05,9e-05,3
13183,13691,-8e-05,0.00022,-1e-05,-5.9999999999999995e-05,-2.9999999999999997e-05,0.0,2e-05,9e-05,3
13184,13692,-8e-05,0.00022,-1e-05,-5.9999999999999995e-05,-2.9999999999999997e-05,0.0,2e-05,9e-05,3
13185,13693,-8e-05,0.00022,-1e-05,-5.9999999999999995e-05,-2.9999999999999997e-05,0.0,2e-05,9e-05,3
13186,13694,-8e-05,0.00022,-1e-05,-5.9999999999999995e-05,-2.9999999999999997e-05,0.0,2e-05,9e-05,3
13187,13695,-8e-05,0.00022,-1e-05,-5.9999999999999995e-05,-2.9999999999999997e-05,0.0,2e-05,9e-05,3
13188,13696,-8e-05,0.00022,-1e-05,-5.9999999999999995e-05,-2.9999999999999997e-05,0.0,2e-05,9e-05,3
13189,13697,-0.00011,-0.00011,-5e-05,-5.9999999999999995e-05,-2e-05,2e-05,0.0,-0.00022,3
13190,13698,0.00075,0.0002,-5.9999999999999995e-05,-8e-05,-5e-05,-0.00011,-0.00018,-0.00029,3
13191,13699,0.00075,0.0002,-5.9999999999999995e-05,-8e-05,-5e-05,-0.00011,-0.00018,-0.00029,3
13192,13700,0.00075,0.0002,-5.9999999999999995e-05,-8e-05,-5e-05,-0.00011,-0.00018,-0.00029,3
13193,13701,0.00075,0.0002,-5.9999999999999995e-05,-8e-05,-5e-05,-0.00011,-0.00018,-0.00029,3
13194,13702,0.00075,0.0002,-5.9999999999999995e-05,-8e-05,-5e-05,-0.00011,-0.00018,-0.00029,3
13195,13703,0.00075,0.0002,-5.9999999999999995e-05,-8e-05,-5e-05,-0.00011,-0.00018,-0.00029,3
13196,13704,0.00075,0.0002,-5.9999999999999995e-05,-8e-05,-5e-05,-0.00011,-0.00018,-0.00029,3
13197,13705,0.00075,0.0002,-5.9999999999999995e-05,-8e-05,-5e-05,-0.00011,-0.00018,-0.00029,3
13198,13706,0.00075,0.0002,-5.9999999999999995e-05,-8e-05,-5e-05,-0.00011,-0.00018,-0.00029,3
13199,13707,0.00075,0.0002,-5.9999999999999995e-05,-8e-05,-5e-05,-0.00011,-0.00018,-0.00029,3
13200,13708,0.00075,0.0002,-5.9999999999999995e-05,-8e-05,-5e-05,-0.00011,-0.00018,-0.00029,3
13201,13709,0.00075,0.0002,-5.9999999999999995e-05,-8e-05,-5e-05,-0.00011,-0.00018,-0.00029,3
13202,13710,0.00075,0.0002,-5.9999999999999995e-05,-8e-05,-5e-05,-0.00011,-0.00018,-0.00029,3
13203,13711,0.00075,0.0002,-5.9999999999999995e-05,-8e-05,-5e-05,-0.00011,-0.00018,-0.00029,3
13204,13712,0.00075,0.0002,-5.9999999999999995e-05,-8e-05,-5e-05,-0.00011,-0.00018,-0.00029,3
13205,13713,-2e-05,0.00011,1e-05,1e-05,-1e-05,-1e-05,4e-05,-2.9999999999999997e-05,3
13206,13714,-0.00025,-0.0007099999999999999,-8e-05,-1e-05,-1e-05,0.0,-1e-05,0.00033,3
13207,13715,-0.00025,-0.0007099999999999999,-8e-05,-1e-05,-1e-05,0.0,-1e-05,0.00033,3
13208,13716,-0.00025,-0.0007099999999999999,-8e-05,-1e-05,-1e-05,0.0,-1e-05,0.00033,3
13209,13717,-0.00025,-0.0007099999999999999,-8e-05,-1e-05,-1e-05,0.0,-1e-05,0.00033,3
13210,13718,-0.00025,-0.0007099999999999999,-8e-05,-1e-05,-1e-05,0.0,-1e-05,0.00033,3
13211,13719,-0.00025,-0.0007099999999999999,-8e-05,-1e-05,-1e-05,0.0,-1e-05,0.00033,3
13212,13720,-0.00025,-0.0007099999999999999,-8e-05,-1e-05,-1e-05,0.0,-1e-05,0.00033,3
13213,13721,-0.00025,-0.0007099999999999999,-8e-05,-1e-05,-1e-05,0.0,-1e-05,0.00033,3
13214,13722,-0.00025,-0.0007099999999999999,-8e-05,-1e-05,-1e-05,0.0,-1e-05,0.00033,3
13215,13723,-0.00025,-0.0007099999999999999,-8e-05,-1e-05,-1e-05,0.0,-1e-05,0.00033,3
13216,13724,-0.00025,-0.0007099999999999999,-8e-05,-1e-05,-1e-05,0.0,-1e-05,0.00033,3
13217,13725,-0.00025,-0.0007099999999999999,-8e-05,-1e-05,-1e-05,0.0,-1e-05,0.00033,3
13218,13726,-0.00025,-0.0007099999999999999,-8e-05,-1e-05,-1e-05,0.0,-1e-05,0.00033,3
13219,13727,8e-05,0.00013000000000000002,5.9999999999999995e-05,1e-05,-2e-05,1e-05,1e-05,0.0005,3
13220,13728,-0.00013000000000000002,0.00025,2e-05,0.0,0.0,4e-05,9e-05,-0.0002,3
13221,13729,-0.00013000000000000002,0.00025,2e-05,0.0,0.0,4e-05,9e-05,-0.0002,3
13222,13730,-0.00013000000000000002,0.00025,2e-05,0.0,0.0,4e-05,9e-05,-0.0002,3
13223,13731,-0.00013000000000000002,0.00025,2e-05,0.0,0.0,4e-05,9e-05,-0.0002,3
13224,13732,-0.00013000000000000002,0.00025,2e-05,0.0,0.0,4e-05,9e-05,-0.0002,3
13225,13733,-0.00013000000000000002,0.00025,2e-05,0.0,0.0,4e-05,9e-05,-0.0002,3
13226,13734,-0.00013000000000000002,0.00025,2e-05,0.0,0.0,4e-05,9e-05,-0.0002,3
13227,13735,-0.00013000000000000002,0.00025,2e-05,0.0,0.0,4e-05,9e-05,-0.0002,3
13228,13736,-0.00013000000000000002,0.00025,2e-05,0.0,0.0,4e-05,9e-05,-0.0002,3
13229,13738,-0.00013000000000000002,0.00025,2e-05,0.0,0.0,4e-05,9e-05,-0.0002,3
13230,13739,-0.00013000000000000002,0.00025,2e-05,0.0,0.0,4e-05,9e-05,-0.0002,3
13231,13740,-0.00013000000000000002,0.00025,2e-05,0.0,0.0,4e-05,9e-05,-0.0002,3
13232,13741,-0.00013000000000000002,0.00025,2e-05,0.0,0.0,4e-05,9e-05,-0.0002,3
13233,13742,-0.00013000000000000002,0.00025,2e-05,0.0,0.0,4e-05,9e-05,-0.0002,3
13234,13743,-0.00013000000000000002,0.00025,2e-05,0.0,0.0,4e-05,9e-05,-0.0002,3
13235,13744,-0.00013000000000000002,0.00025,2e-05,0.0,0.0,4e-05,9e-05,-0.0002,3
13236,13745,-0.00013000000000000002,0.00025,2e-05,0.0,0.0,4e-05,9e-05,-0.0002,3
13237,13746,-0.00013000000000000002,0.00025,2e-05,0.0,0.0,4e-05,9e-05,-0.0002,3
13238,13747,-0.00013000000000000002,0.00025,2e-05,0.0,0.0,4e-05,9e-05,-0.0002,3
13239,13748,-0.00013000000000000002,0.00025,2e-05,0.0,0.0,4e-05,9e-05,-0.0002,3
13240,13749,-0.00013000000000000002,0.00025,2e-05,0.0,0.0,4e-05,9e-05,-0.0002,3
13241,13750,-0.00013000000000000002,0.00025,2e-05,0.0,0.0,4e-05,9e-05,-0.0002,3
13242,13752,-0.00013000000000000002,0.00025,2e-05,0.0,0.0,4e-05,9e-05,-0.0002,3
13243,13753,-0.00013000000000000002,0.00025,2e-05,0.0,0.0,4e-05,9e-05,-0.0002,3
13244,13754,-0.00013000000000000002,0.00025,2e-05,0.0,0.0,4e-05,9e-05,-0.0002,3
13245,13755,-0.00013000000000000002,0.00025,2e-05,0.0,0.0,4e-05,9e-05,-0.0002,3
13246,13756,-0.00013000000000000002,0.00025,2e-05,0.0,0.0,4e-05,9e-05,-0.0002,3
13247,13757,-0.00026000000000000003,-0.00025,-2e-05,-1e-05,-1e-05,0.0,1e-05,-0.00016,3
13248,13758,1e-05,-1e-05,-1e-05,0.0,4e-05,8e-05,0.00011,0.00037,3
13249,13759,1e-05,-1e-05,-1e-05,0.0,4e-05,8e-05,0.00011,0.00037,3
13250,13760,1e-05,-1e-05,-1e-05,0.0,4e-05,8e-05,0.00011,0.00037,3
13251,13761,1e-05,-1e-05,-1e-05,0.0,4e-05,8e-05,0.00011,0.00037,3
13252,13762,1e-05,-1e-05,-1e-05,0.0,4e-05,8e-05,0.00011,0.00037,3
13253,13763,1e-05,-1e-05,-1e-05,0.0,4e-05,8e-05,0.00011,0.00037,3
13254,13764,1e-05,-1e-05,-1e-05,0.0,4e-05,8e-05,0.00011,0.00037,3
13255,13765,1e-05,-1e-05,-1e-05,0.0,4e-05,8e-05,0.00011,0.00037,3
13256,13766,1e-05,-1e-05,-1e-05,0.0,4e-05,8e-05,0.00011,0.00037,3
13257,13767,1e-05,-1e-05,-1e-05,0.0,4e-05,8e-05,0.00011,0.00037,3
13258,13768,1e-05,-1e-05,-1e-05,0.0,4e-05,8e-05,0.00011,0.00037,3
13259,13769,1e-05,-1e-05,-1e-05,0.0,4e-05,8e-05,0.00011,0.00037,3
13260,13770,1e-05,-1e-05,-1e-05,0.0,4e-05,8e-05,0.00011,0.00037,3
13261,13771,1e-05,-1e-05,-1e-05,0.0,4e-05,8e-05,0.00011,0.00037,3
13262,13772,0.00015,-2.9999999999999997e-05,0.0,0.0,2e-05,4e-05,-4e-05,1e-05,3
13263,13773,-9e-05,-0.00022999999999999998,-2e-05,-1e-05,-4e-05,-5.9999999999999995e-05,7e-05,-0.00035,3
13264,13774,-9e-05,-0.00022999999999999998,-2e-05,-1e-05,-4e-05,-5.9999999999999995e-05,7e-05,-0.00035,3
13265,13775,-9e-05,-0.00022999999999999998,-2e-05,-1e-05,-4e-05,-5.9999999999999995e-05,7e-05,-0.00035,3
13266,13776,-9e-05,-0.00022999999999999998,-2e-05,-1e-05,-4e-05,-5.9999999999999995e-05,7e-05,-0.00035,3
13267,13777,-9e-05,-0.00022999999999999998,-2e-05,-1e-05,-4e-05,-5.9999999999999995e-05,7e-05,-0.00035,3
13268,13778,-9e-05,-0.00022999999999999998,-2e-05,-1e-05,-4e-05,-5.9999999999999995e-05,7e-05,-0.00035,3
13269,13779,-9e-05,-0.00022999999999999998,-2e-05,-1e-05,-4e-05,-5.9999999999999995e-05,7e-05,-0.00035,3
13270,13780,-9e-05,-0.00022999999999999998,-2e-05,-1e-05,-4e-05,-5.9999999999999995e-05,7e-05,-0.00035,3
13271,13781,-9e-05,-0.00022999999999999998,-2e-05,-1e-05,-4e-05,-5.9999999999999995e-05,7e-05,-0.00035,3
13272,13782,-9e-05,-0.00022999999999999998,-2e-05,-1e-05,-4e-05,-5.9999999999999995e-05,7e-05,-0.00035,3
13273,13783,-9e-05,-0.00022999999999999998,-2e-05,-1e-05,-4e-05,-5.9999999999999995e-05,7e-05,-0.00035,3
13274,13784,-9e-05,-0.00022999999999999998,-2e-05,-1e-05,-4e-05,-5.9999999999999995e-05,7e-05,-0.00035,3
13275,13785,-9e-05,-0.00022999999999999998,-2e-05,-1e-05,-4e-05,-5.9999999999999995e-05,7e-05,-0.00035,3
13276,13786,-9e-05,-0.00022999999999999998,-2e-05,-1e-05,-4e-05,-5.9999999999999995e-05,7e-05,-0.00035,3
13277,13788,-9e-05,0.00037,1e-05,2.9999999999999997e-05,2.9999999999999997e-05,8e-05,2.9999999999999997e-05,0.00057,3
13278,13789,-9e-05,0.00037,1e-05,2.9999999999999997e-05,2.9999999999999997e-05,8e-05,2.9999999999999997e-05,0.00057,3
13279,13790,-9e-05,0.00037,1e-05,2.9999999999999997e-05,2.9999999999999997e-05,8e-05,2.9999999999999997e-05,0.00057,3
13280,13791,-9e-05,0.00037,1e-05,2.9999999999999997e-05,2.9999999999999997e-05,8e-05,2.9999999999999997e-05,0.00057,3
13281,13792,-9e-05,0.00037,1e-05,2.9999999999999997e-05,2.9999999999999997e-05,8e-05,2.9999999999999997e-05,0.00057,3
13282,13793,-9e-05,0.00037,1e-05,2.9999999999999997e-05,2.9999999999999997e-05,8e-05,2.9999999999999997e-05,0.00057,3
13283,13794,-9e-05,0.00037,1e-05,2.9999999999999997e-05,2.9999999999999997e-05,8e-05,2.9999999999999997e-05,0.00057,3
13284,13795,-9e-05,0.00037,1e-05,2.9999999999999997e-05,2.9999999999999997e-05,8e-05,2.9999999999999997e-05,0.00057,3
13285,13796,-9e-05,0.00037,1e-05,2.9999999999999997e-05,2.9999999999999997e-05,8e-05,2.9999999999999997e-05,0.00057,3
13286,13797,-9e-05,0.00037,1e-05,2.9999999999999997e-05,2.9999999999999997e-05,8e-05,2.9999999999999997e-05,0.00057,3
13287,13798,-9e-05,0.00037,1e-05,2.9999999999999997e-05,2.9999999999999997e-05,8e-05,2.9999999999999997e-05,0.00057,3
13288,13799,-9e-05,0.00037,1e-05,2.9999999999999997e-05,2.9999999999999997e-05,8e-05,2.9999999999999997e-05,0.00057,3
13289,13800,-9e-05,0.00037,1e-05,2.9999999999999997e-05,2.9999999999999997e-05,8e-05,2.9999999999999997e-05,0.00057,3
13290,13801,-9e-05,0.00037,1e-05,2.9999999999999997e-05,2.9999999999999997e-05,8e-05,2.9999999999999997e-05,0.00057,3
13291,13802,-9e-05,0.00037,1e-05,2.9999999999999997e-05,2.9999999999999997e-05,8e-05,2.9999999999999997e-05,0.00057,3
13292,13803,-9e-05,0.00037,1e-05,2.9999999999999997e-05,2.9999999999999997e-05,8e-05,2.9999999999999997e-05,0.00057,3
13293,13804,-9e-05,0.00037,1e-05,2.9999999999999997e-05,2.9999999999999997e-05,8e-05,2.9999999999999997e-05,0.00057,3
13294,13805,-9e-05,0.00037,1e-05,2.9999999999999997e-05,2.9999999999999997e-05,8e-05,2.9999999999999997e-05,0.00057,3
13295,13806,-9e-05,0.00037,1e-05,2.9999999999999997e-05,2.9999999999999997e-05,8e-05,2.9999999999999997e-05,0.00057,3
13296,13807,-9e-05,0.00037,1e-05,2.9999999999999997e-05,2.9999999999999997e-05,8e-05,2.9999999999999997e-05,0.00057,3
13297,13808,-9e-05,0.00037,1e-05,2.9999999999999997e-05,2.9999999999999997e-05,8e-05,2.9999999999999997e-05,0.00057,3
13298,13809,-8e-05,-0.00016,5e-05,1e-05,1e-05,1e-05,-2.9999999999999997e-05,-0.00021,3
13299,13810,-0.00011,8e-05,0.0,0.0,-2.9999999999999997e-05,-1e-05,-0.0001,-0.00027,3
13300,13811,-0.00011,8e-05,0.0,0.0,-2.9999999999999997e-05,-1e-05,-0.0001,-0.00027,3
13301,13812,-0.00011,8e-05,0.0,0.0,-2.9999999999999997e-05,-1e-05,-0.0001,-0.00027,3
13302,13813,-0.00011,8e-05,0.0,0.0,-2.9999999999999997e-05,-1e-05,-0.0001,-0.00027,3
13303,13814,-0.00011,8e-05,0.0,0.0,-2.9999999999999997e-05,-1e-05,-0.0001,-0.00027,3
13304,13816,-0.00011,8e-05,0.0,0.0,-2.9999999999999997e-05,-1e-05,-0.0001,-0.00027,3
13305,13817,-0.00011,8e-05,0.0,0.0,-2.9999999999999997e-05,-1e-05,-0.0001,-0.00027,3
13306,13818,-0.00011,8e-05,0.0,0.0,-2.9999999999999997e-05,-1e-05,-0.0001,-0.00027,3
13307,13819,-0.00011,8e-05,0.0,0.0,-2.9999999999999997e-05,-1e-05,-0.0001,-0.00027,3
13308,13820,-0.00011,8e-05,0.0,0.0,-2.9999999999999997e-05,-1e-05,-0.0001,-0.00027,3
13309,13821,-0.00011,8e-05,0.0,0.0,-2.9999999999999997e-05,-1e-05,-0.0001,-0.00027,3
13310,13822,-0.00011,8e-05,0.0,0.0,-2.9999999999999997e-05,-1e-05,-0.0001,-0.00027,3
13311,13823,-0.00011,8e-05,0.0,0.0,-2.9999999999999997e-05,-1e-05,-0.0001,-0.00027,3
13312,13824,-0.00011,8e-05,0.0,0.0,-2.9999999999999997e-05,-1e-05,-0.0001,-0.00027,3
13313,13825,-0.00011,8e-05,0.0,0.0,-2.9999999999999997e-05,-1e-05,-0.0001,-0.00027,3
13314,13826,-0.00011,8e-05,0.0,0.0,-2.9999999999999997e-05,-1e-05,-0.0001,-0.00027,3
13315,13827,-0.00011,8e-05,0.0,0.0,-2.9999999999999997e-05,-1e-05,-0.0001,-0.00027,3
13316,13828,-0.00011,8e-05,0.0,0.0,-2.9999999999999997e-05,-1e-05,-0.0001,-0.00027,3
13317,13829,-0.00011,8e-05,0.0,0.0,-2.9999999999999997e-05,-1e-05,-0.0001,-0.00027,3
13318,13830,-0.00011,8e-05,0.0,0.0,-2.9999999999999997e-05,-1e-05,-0.0001,-0.00027,3
13319,13831,-0.00011,8e-05,0.0,0.0,-2.9999999999999997e-05,-1e-05,-0.0001,-0.00027,3
13320,13832,-2.9999999999999997e-05,-0.00043,-5e-05,0.0,2e-05,4e-05,-2e-05,-0.00062,3
13321,13833,8e-05,0.00033999999999999997,1e-05,-1e-05,2e-05,-2e-05,-1e-05,0.0002,3
13322,13834,8e-05,0.00033999999999999997,1e-05,-1e-05,2e-05,-2e-05,-1e-05,0.0002,3
13323,13835,8e-05,0.00033999999999999997,1e-05,-1e-05,2e-05,-2e-05,-1e-05,0.0002,3
13324,13836,8e-05,0.00033999999999999997,1e-05,-1e-05,2e-05,-2e-05,-1e-05,0.0002,3
13325,13838,8e-05,0.00033999999999999997,1e-05,-1e-05,2e-05,-2e-05,-1e-05,0.0002,3
13326,13839,8e-05,0.00033999999999999997,1e-05,-1e-05,2e-05,-2e-05,-1e-05,0.0002,3
13327,13840,8e-05,0.00033999999999999997,1e-05,-1e-05,2e-05,-2e-05,-1e-05,0.0002,3
13328,13841,8e-05,0.00033999999999999997,1e-05,-1e-05,2e-05,-2e-05,-1e-05,0.0002,3
13329,13842,8e-05,0.00033999999999999997,1e-05,-1e-05,2e-05,-2e-05,-1e-05,0.0002,3
13330,13843,8e-05,0.00033999999999999997,1e-05,-1e-05,2e-05,-2e-05,-1e-05,0.0002,3
13331,13844,8e-05,0.00033999999999999997,1e-05,-1e-05,2e-05,-2e-05,-1e-05,0.0002,3
13332,13845,8e-05,0.00033999999999999997,1e-05,-1e-05,2e-05,-2e-05,-1e-05,0.0002,3
13333,13846,8e-05,0.00033999999999999997,1e-05,-1e-05,2e-05,-2e-05,-1e-05,0.0002,3
13334,13847,0.00029,-5.9999999999999995e-05,-1e-05,0.0,0.0,2.9999999999999997e-05,-5.9999999999999995e-05,-0.0001,3
13335,13848,-9e-05,0.00018,2.9999999999999997e-05,4e-05,2e-05,2e-05,-1e-05,-0.0003,3
13336,13849,-9e-05,0.00018,2.9999999999999997e-05,4e-05,2e-05,2e-05,-1e-05,-0.0003,3
13337,13850,-9e-05,0.00018,2.9999999999999997e-05,4e-05,2e-05,2e-05,-1e-05,-0.0003,3
13338,13851,-9e-05,0.00018,2.9999999999999997e-05,4e-05,2e-05,2e-05,-1e-05,-0.0003,3
13339,13852,-9e-05,0.00018,2.9999999999999997e-05,4e-05,2e-05,2e-05,-1e-05,-0.0003,3
13340,13853,-9e-05,0.00018,2.9999999999999997e-05,4e-05,2e-05,2e-05,-1e-05,-0.0003,3
13341,13854,-9e-05,0.00018,2.9999999999999997e-05,4e-05,2e-05,2e-05,-1e-05,-0.0003,3
13342,13855,-9e-05,0.00018,2.9999999999999997e-05,4e-05,2e-05,2e-05,-1e-05,-0.0003,3
13343,13856,-9e-05,0.00018,2.9999999999999997e-05,4e-05,2e-05,2e-05,-1e-05,-0.0003,3
13344,13857,-9e-05,0.00018,2.9999999999999997e-05,4e-05,2e-05,2e-05,-1e-05,-0.0003,3
13345,13858,-9e-05,0.00018,2.9999999999999997e-05,4e-05,2e-05,2e-05,-1e-05,-0.0003,3
13346,13859,-9e-05,0.00018,2.9999999999999997e-05,4e-05,2e-05,2e-05,-1e-05,-0.0003,3
13347,13860,-9e-05,0.00018,2.9999999999999997e-05,4e-05,2e-05,2e-05,-1e-05,-0.0003,3
13348,13861,-9e-05,0.00018,2.9999999999999997e-05,4e-05,2e-05,2e-05,-1e-05,-0.0003,3
13349,13862,-9e-05,0.00018,2.9999999999999997e-05,4e-05,2e-05,2e-05,-1e-05,-0.0003,3
13350,13863,-9e-05,0.00018,2.9999999999999997e-05,4e-05,2e-05,2e-05,-1e-05,-0.0003,3
13351,13864,-9e-05,0.00018,2.9999999999999997e-05,4e-05,2e-05,2e-05,-1e-05,-0.0003,3
13352,13865,-9e-05,0.00018,2.9999999999999997e-05,4e-05,2e-05,2e-05,-1e-05,-0.0003,3
13353,13866,-9e-05,0.00018,2.9999999999999997e-05,4e-05,2e-05,2e-05,-1e-05,-0.0003,3
13354,13867,-9e-05,0.00018,2.9999999999999997e-05,4e-05,2e-05,2e-05,-1e-05,-0.0003,3
13355,13868,-9e-05,0.00018,2.9999999999999997e-05,4e-05,2e-05,2e-05,-1e-05,-0.0003,3
13356,13869,-0.00018,0.0001,-5e-05,-2e-05,-4e-05,-0.0001,-5e-05,-0.00058,3
13357,13870,2.9999999999999997e-05,4e-05,-4e-05,-5.9999999999999995e-05,-4e-05,-1e-05,-4e-05,2.9999999999999997e-05,3
13358,13871,2.9999999999999997e-05,4e-05,-4e-05,-5.9999999999999995e-05,-4e-05,-1e-05,-4e-05,2.9999999999999997e-05,3
13359,13872,2.9999999999999997e-05,4e-05,-4e-05,-5.9999999999999995e-05,-4e-05,-1e-05,-4e-05,2.9999999999999997e-05,3
13360,13873,2.9999999999999997e-05,4e-05,-4e-05,-5.9999999999999995e-05,-4e-05,-1e-05,-4e-05,2.9999999999999997e-05,3
13361,13874,2.9999999999999997e-05,4e-05,-4e-05,-5.9999999999999995e-05,-4e-05,-1e-05,-4e-05,2.9999999999999997e-05,3
13362,13875,2.9999999999999997e-05,4e-05,-4e-05,-5.9999999999999995e-05,-4e-05,-1e-05,-4e-05,2.9999999999999997e-05,3
13363,13876,2.9999999999999997e-05,4e-05,-4e-05,-5.9999999999999995e-05,-4e-05,-1e-05,-4e-05,2.9999999999999997e-05,3
13364,13877,2.9999999999999997e-05,4e-05,-4e-05,-5.9999999999999995e-05,-4e-05,-1e-05,-4e-05,2.9999999999999997e-05,3
13365,13878,2.9999999999999997e-05,4e-05,-4e-05,-5.9999999999999995e-05,-4e-05,-1e-05,-4e-05,2.9999999999999997e-05,3
13366,13879,2.9999999999999997e-05,4e-05,-4e-05,-5.9999999999999995e-05,-4e-05,-1e-05,-4e-05,2.9999999999999997e-05,3
13367,13880,2.9999999999999997e-05,4e-05,-4e-05,-5.9999999999999995e-05,-4e-05,-1e-05,-4e-05,2.9999999999999997e-05,3
13368,13881,2.9999999999999997e-05,4e-05,-4e-05,-5.9999999999999995e-05,-4e-05,-1e-05,-4e-05,2.9999999999999997e-05,3
13369,13882,2.9999999999999997e-05,4e-05,-4e-05,-5.9999999999999995e-05,-4e-05,-1e-05,-4e-05,2.9999999999999997e-05,3
13370,13883,2.9999999999999997e-05,4e-05,-4e-05,-5.9999999999999995e-05,-4e-05,-1e-05,-4e-05,2.9999999999999997e-05,3
13371,13884,2.9999999999999997e-05,4e-05,-4e-05,-5.9999999999999995e-05,-4e-05,-1e-05,-4e-05,2.9999999999999997e-05,3
13372,13885,2.9999999999999997e-05,4e-05,-4e-05,-5.9999999999999995e-05,-4e-05,-1e-05,-4e-05,2.9999999999999997e-05,3
13373,13886,2.9999999999999997e-05,4e-05,-4e-05,-5.9999999999999995e-05,-4e-05,-1e-05,-4e-05,2.9999999999999997e-05,3
13374,13888,2.9999999999999997e-05,4e-05,-4e-05,-5.9999999999999995e-05,-4e-05,-1e-05,-4e-05,2.9999999999999997e-05,3
13375,13889,2.9999999999999997e-05,4e-05,-4e-05,-5.9999999999999995e-05,-4e-05,-1e-05,-4e-05,2.9999999999999997e-05,3
13376,13890,2.9999999999999997e-05,4e-05,-4e-05,-5.9999999999999995e-05,-4e-05,-1e-05,-4e-05,2.9999999999999997e-05,3
13377,13891,2.9999999999999997e-05,4e-05,-4e-05,-5.9999999999999995e-05,-4e-05,-1e-05,-4e-05,2.9999999999999997e-05,3
13378,13892,0.00016,1e-05,-2.9999999999999997e-05,-2e-05,0.0,-1e-05,-2.9999999999999997e-05,-0.00055,3
13379,13893,-1e-05,-0.00072,-5.9999999999999995e-05,1e-05,0.0,-2e-05,-4e-05,0.00015,3
13380,13894,-1e-05,-0.00072,-5.9999999999999995e-05,1e-05,0.0,-2e-05,-4e-05,0.00015,3
13381,13895,-1e-05,-0.00072,-5.9999999999999995e-05,1e-05,0.0,-2e-05,-4e-05,0.00015,3
13382,13896,-1e-05,-0.00072,-5.9999999999999995e-05,1e-05,0.0,-2e-05,-4e-05,0.00015,3
13383,13897,-1e-05,-0.00072,-5.9999999999999995e-05,1e-05,0.0,-2e-05,-4e-05,0.00015,3
13384,13898,-1e-05,-0.00072,-5.9999999999999995e-05,1e-05,0.0,-2e-05,-4e-05,0.00015,3
13385,13899,-1e-05,-0.00072,-5.9999999999999995e-05,1e-05,0.0,-2e-05,-4e-05,0.00015,3
13386,13900,-1e-05,-0.00072,-5.9999999999999995e-05,1e-05,0.0,-2e-05,-4e-05,0.00015,3
13387,13901,-1e-05,-0.00072,-5.9999999999999995e-05,1e-05,0.0,-2e-05,-4e-05,0.00015,3
13388,13902,-1e-05,-0.00072,-5.9999999999999995e-05,1e-05,0.0,-2e-05,-4e-05,0.00015,3
13389,13903,-1e-05,-0.00072,-5.9999999999999995e-05,1e-05,0.0,-2e-05,-4e-05,0.00015,3
13390,13904,-1e-05,-0.00072,-5.9999999999999995e-05,1e-05,0.0,-2e-05,-4e-05,0.00015,3
13391,13905,-1e-05,-0.00072,-5.9999999999999995e-05,1e-05,0.0,-2e-05,-4e-05,0.00015,3
13392,13906,-4e-05,-5.9999999999999995e-05,-4e-05,-2.9999999999999997e-05,-2e-05,-2.9999999999999997e-05,-2.9999999999999997e-05,-5e-05,3
13393,13907,-7e-05,0.00026000000000000003,5e-05,1e-05,2e-05,0.00016,9e-05,0.0007700000000000001,3
13394,13908,-7e-05,0.00026000000000000003,5e-05,1e-05,2e-05,0.00016,9e-05,0.0007700000000000001,3
13395,13909,-7e-05,0.00026000000000000003,5e-05,1e-05,2e-05,0.00016,9e-05,0.0007700000000000001,3
13396,13910,-7e-05,0.00026000000000000003,5e-05,1e-05,2e-05,0.00016,9e-05,0.0007700000000000001,3
13397,13911,-7e-05,0.00026000000000000003,5e-05,1e-05,2e-05,0.00016,9e-05,0.0007700000000000001,3
13398,13912,-7e-05,0.00026000000000000003,5e-05,1e-05,2e-05,0.00016,9e-05,0.0007700000000000001,3
13399,13913,-7e-05,0.00026000000000000003,5e-05,1e-05,2e-05,0.00016,9e-05,0.0007700000000000001,3
13400,13914,-7e-05,0.00026000000000000003,5e-05,1e-05,2e-05,0.00016,9e-05,0.0007700000000000001,3
13401,13915,-7e-05,0.00026000000000000003,5e-05,1e-05,2e-05,0.00016,9e-05,0.0007700000000000001,3
13402,13916,-7e-05,0.00026000000000000003,5e-05,1e-05,2e-05,0.00016,9e-05,0.0007700000000000001,3
13403,13917,-7e-05,0.00026000000000000003,5e-05,1e-05,2e-05,0.00016,9e-05,0.0007700000000000001,3
13404,13918,-7e-05,0.00026000000000000003,5e-05,1e-05,2e-05,0.00016,9e-05,0.0007700000000000001,3
13405,13919,-7e-05,0.00026000000000000003,5e-05,1e-05,2e-05,0.00016,9e-05,0.0007700000000000001,3
13406,13920,-7e-05,0.00026000000000000003,5e-05,1e-05,2e-05,0.00016,9e-05,0.0007700000000000001,3
13407,13921,-7e-05,0.00026000000000000003,5e-05,1e-05,2e-05,0.00016,9e-05,0.0007700000000000001,3
13408,13922,-7e-05,0.00026000000000000003,5e-05,1e-05,2e-05,0.00016,9e-05,0.0007700000000000001,3
13409,13923,-7e-05,0.00026000000000000003,5e-05,1e-05,2e-05,0.00016,9e-05,0.0007700000000000001,3
13410,13924,-7e-05,0.00026000000000000003,5e-05,1e-05,2e-05,0.00016,9e-05,0.0007700000000000001,3
13411,13925,-7e-05,0.00026000000000000003,5e-05,1e-05,2e-05,0.00016,9e-05,0.0007700000000000001,3
13412,13926,-7e-05,0.00026000000000000003,5e-05,1e-05,2e-05,0.00016,9e-05,0.0007700000000000001,3
13413,13927,-7e-05,0.00026000000000000003,5e-05,1e-05,2e-05,0.00016,9e-05,0.0007700000000000001,3
13414,13928,-7e-05,0.00026000000000000003,5e-05,1e-05,2e-05,0.00016,9e-05,0.0007700000000000001,3
13415,13929,0.00015,0.00015,-1e-05,-2e-05,0.0,-2.9999999999999997e-05,0.0,-0.0005099999999999999,3
13416,13930,0.00022,1e-05,-5.9999999999999995e-05,0.0,0.0,-4e-05,-0.0001,-0.0007,3
13417,13931,0.00022,1e-05,-5.9999999999999995e-05,0.0,0.0,-4e-05,-0.0001,-0.0007,3
13418,13932,0.00022,1e-05,-5.9999999999999995e-05,0.0,0.0,-4e-05,-0.0001,-0.0007,3
13419,13933,0.00022,1e-05,-5.9999999999999995e-05,0.0,0.0,-4e-05,-0.0001,-0.0007,3
13420,13934,0.00022,1e-05,-5.9999999999999995e-05,0.0,0.0,-4e-05,-0.0001,-0.0007,3
13421,13935,0.00022,1e-05,-5.9999999999999995e-05,0.0,0.0,-4e-05,-0.0001,-0.0007,3
13422,13936,0.00022,1e-05,-5.9999999999999995e-05,0.0,0.0,-4e-05,-0.0001,-0.0007,3
13423,13939,0.00022,1e-05,-5.9999999999999995e-05,0.0,0.0,-4e-05,-0.0001,-0.0007,3
13424,13940,0.00022,1e-05,-5.9999999999999995e-05,0.0,0.0,-4e-05,-0.0001,-0.0007,3
13425,13941,0.00022,1e-05,-5.9999999999999995e-05,0.0,0.0,-4e-05,-0.0001,-0.0007,3
13426,13942,0.00022,1e-05,-5.9999999999999995e-05,0.0,0.0,-4e-05,-0.0001,-0.0007,3
13427,13943,0.00022,1e-05,-5.9999999999999995e-05,0.0,0.0,-4e-05,-0.0001,-0.0007,3
13428,13944,0.00022,1e-05,-5.9999999999999995e-05,0.0,0.0,-4e-05,-0.0001,-0.0007,3
13429,13945,0.00022,1e-05,-5.9999999999999995e-05,0.0,0.0,-4e-05,-0.0001,-0.0007,3
13430,13946,0.00022,1e-05,-5.9999999999999995e-05,0.0,0.0,-4e-05,-0.0001,-0.0007,3
13431,13947,0.00022,1e-05,-5.9999999999999995e-05,0.0,0.0,-4e-05,-0.0001,-0.0007,3
13432,13948,0.00022,1e-05,-5.9999999999999995e-05,0.0,0.0,-4e-05,-0.0001,-0.0007,3
13433,13949,0.00022,1e-05,-5.9999999999999995e-05,0.0,0.0,-4e-05,-0.0001,-0.0007,3
13434,13950,0.00022,1e-05,-5.9999999999999995e-05,0.0,0.0,-4e-05,-0.0001,-0.0007,3
13435,13951,0.00022,1e-05,-5.9999999999999995e-05,0.0,0.0,-4e-05,-0.0001,-0.0007,3
13436,13952,-2e-05,-0.00053,-9e-05,-2.9999999999999997e-05,-2.9999999999999997e-05,-5e-05,-2e-05,-0.00016,3
13437,13953,9e-05,0.00011,-1e-05,-2.9999999999999997e-05,-2e-05,-2e-05,-5e-05,-0.0007,3
13438,13954,9e-05,0.00011,-1e-05,-2.9999999999999997e-05,-2e-05,-2e-05,-5e-05,-0.0007,3
13439,13955,9e-05,0.00011,-1e-05,-2.9999999999999997e-05,-2e-05,-2e-05,-5e-05,-0.0007,3
13440,13956,9e-05,0.00011,-1e-05,-2.9999999999999997e-05,-2e-05,-2e-05,-5e-05,-0.0007,3
13441,13957,9e-05,0.00011,-1e-05,-2.9999999999999997e-05,-2e-05,-2e-05,-5e-05,-0.0007,3
13442,13958,9e-05,0.00011,-1e-05,-2.9999999999999997e-05,-2e-05,-2e-05,-5e-05,-0.0007,3
13443,13959,9e-05,0.00011,-1e-05,-2.9999999999999997e-05,-2e-05,-2e-05,-5e-05,-0.0007,3
13444,13960,9e-05,0.00011,-1e-05,-2.9999999999999997e-05,-2e-05,-2e-05,-5e-05,-0.0007,3
13445,13961,9e-05,0.00011,-1e-05,-2.9999999999999997e-05,-2e-05,-2e-05,-5e-05,-0.0007,3
13446,13962,9e-05,0.00011,-1e-05,-2.9999999999999997e-05,-2e-05,-2e-05,-5e-05,-0.0007,3
13447,13963,9e-05,0.00011,-1e-05,-2.9999999999999997e-05,-2e-05,-2e-05,-5e-05,-0.0007,3
13448,13964,9e-05,0.00011,-1e-05,-2.9999999999999997e-05,-2e-05,-2e-05,-5e-05,-0.0007,3
13449,13965,9e-05,0.00011,-1e-05,-2.9999999999999997e-05,-2e-05,-2e-05,-5e-05,-0.0007,3
13450,13966,9e-05,0.00011,-1e-05,-2.9999999999999997e-05,-2e-05,-2e-05,-5e-05,-0.0007,3
13451,13967,0.00016999999999999999,0.00011999999999999999,2e-05,2e-05,-4e-05,-2.9999999999999997e-05,-2e-05,-2e-05,3
13452,13968,0.00016999999999999999,0.00011999999999999999,2e-05,2e-05,-4e-05,-2.9999999999999997e-05,-2e-05,-2e-05,3
13453,13969,0.00016999999999999999,0.00011999999999999999,2e-05,2e-05,-4e-05,-2.9999999999999997e-05,-2e-05,-2e-05,3
13454,13970,0.00016999999999999999,0.00011999999999999999,2e-05,2e-05,-4e-05,-2.9999999999999997e-05,-2e-05,-2e-05,3
13455,13971,0.00016999999999999999,0.00011999999999999999,2e-05,2e-05,-4e-05,-2.9999999999999997e-05,-2e-05,-2e-05,3
13456,13972,0.00016999999999999999,0.00011999999999999999,2e-05,2e-05,-4e-05,-2.9999999999999997e-05,-2e-05,-2e-05,3
13457,13973,0.00016999999999999999,0.00011999999999999999,2e-05,2e-05,-4e-05,-2.9999999999999997e-05,-2e-05,-2e-05,3
13458,13974,-0.0002,-9e-05,-1e-05,1e-05,0.0,-9e-05,2.9999999999999997e-05,-0.0005,3
13459,13975,-0.0002,-9e-05,-1e-05,1e-05,0.0,-9e-05,2.9999999999999997e-05,-0.0005,3
13460,13976,-0.0002,-9e-05,-1e-05,1e-05,0.0,-9e-05,2.9999999999999997e-05,-0.0005,3
13461,13977,-0.0002,-9e-05,-1e-05,1e-05,0.0,-9e-05,2.9999999999999997e-05,-0.0005,3
13462,13978,-0.0002,-9e-05,-1e-05,1e-05,0.0,-9e-05,2.9999999999999997e-05,-0.0005,3
13463,13979,-0.0002,-9e-05,-1e-05,1e-05,0.0,-9e-05,2.9999999999999997e-05,-0.0005,3
13464,13980,-0.0002,-9e-05,-1e-05,1e-05,0.0,-9e-05,2.9999999999999997e-05,-0.0005,3
13465,13981,-0.0002,-9e-05,-1e-05,1e-05,0.0,-9e-05,2.9999999999999997e-05,-0.0005,3
13466,13982,-0.0002,-9e-05,-1e-05,1e-05,0.0,-9e-05,2.9999999999999997e-05,-0.0005,3
13467,13983,-0.0002,-9e-05,-1e-05,1e-05,0.0,-9e-05,2.9999999999999997e-05,-0.0005,3
13468,13984,-0.0002,-9e-05,-1e-05,1e-05,0.0,-9e-05,2.9999999999999997e-05,-0.0005,3
13469,13985,-0.0002,-9e-05,-1e-05,1e-05,0.0,-9e-05,2.9999999999999997e-05,-0.0005,3
13470,13986,-0.0002,-9e-05,-1e-05,1e-05,0.0,-9e-05,2.9999999999999997e-05,-0.0005,3
13471,13988,-0.0002,-9e-05,-1e-05,1e-05,0.0,-9e-05,2.9999999999999997e-05,-0.0005,3
13472,13989,-0.00011,4e-05,-2e-05,-2e-05,4e-05,5.9999999999999995e-05,2e-05,0.00014,3
13473,13990,-0.0001,0.00011999999999999999,5e-05,1e-05,-2e-05,-2e-05,1e-05,7e-05,3
13474,13991,-0.0001,0.00011999999999999999,5e-05,1e-05,-2e-05,-2e-05,1e-05,7e-05,3
13475,13992,-0.0001,0.00011999999999999999,5e-05,1e-05,-2e-05,-2e-05,1e-05,7e-05,3
13476,13993,-0.0001,0.00011999999999999999,5e-05,1e-05,-2e-05,-2e-05,1e-05,7e-05,3
13477,13994,-0.0001,0.00011999999999999999,5e-05,1e-05,-2e-05,-2e-05,1e-05,7e-05,3
13478,13995,-0.0001,0.00011999999999999999,5e-05,1e-05,-2e-05,-2e-05,1e-05,7e-05,3
13479,13996,-0.0001,0.00011999999999999999,5e-05,1e-05,-2e-05,-2e-05,1e-05,7e-05,3
13480,13997,-0.0001,0.00011999999999999999,5e-05,1e-05,-2e-05,-2e-05,1e-05,7e-05,3
13481,13998,-0.0001,0.00011999999999999999,5e-05,1e-05,-2e-05,-2e-05,1e-05,7e-05,3
13482,13999,-0.0001,0.00011999999999999999,5e-05,1e-05,-2e-05,-2e-05,1e-05,7e-05,3
13483,14000,-0.0001,0.00011999999999999999,5e-05,1e-05,-2e-05,-2e-05,1e-05,7e-05,3
13484,14001,-0.0001,0.00011999999999999999,5e-05,1e-05,-2e-05,-2e-05,1e-05,7e-05,3
13485,14002,-0.0001,0.00011999999999999999,5e-05,1e-05,-2e-05,-2e-05,1e-05,7e-05,3
13486,14003,-0.0001,0.00011999999999999999,5e-05,1e-05,-2e-05,-2e-05,1e-05,7e-05,3
13487,14004,-0.0001,0.00011999999999999999,5e-05,1e-05,-2e-05,-2e-05,1e-05,7e-05,3
13488,14005,-0.0001,0.00011999999999999999,5e-05,1e-05,-2e-05,-2e-05,1e-05,7e-05,3
13489,14006,-0.0001,0.00011999999999999999,5e-05,1e-05,-2e-05,-2e-05,1e-05,7e-05,3
13490,14007,-0.0001,0.00011999999999999999,5e-05,1e-05,-2e-05,-2e-05,1e-05,7e-05,3
13491,14008,-0.0001,0.00011999999999999999,5e-05,1e-05,-2e-05,-2e-05,1e-05,7e-05,3
13492,14009,-0.0001,0.00011999999999999999,5e-05,1e-05,-2e-05,-2e-05,1e-05,7e-05,3
13493,14010,-0.0001,0.00011999999999999999,5e-05,1e-05,-2e-05,-2e-05,1e-05,7e-05,3
13494,14011,-0.0001,0.00011999999999999999,5e-05,1e-05,-2e-05,-2e-05,1e-05,7e-05,3
13495,14012,-8e-05,0.0,1e-05,0.0,-1e-05,0.0,5e-05,-2.9999999999999997e-05,3
13496,14013,0.00022999999999999998,0.00011999999999999999,1e-05,-2.9999999999999997e-05,-1e-05,-5e-05,-7e-05,-0.0001,3
13497,14014,0.00022999999999999998,0.00011999999999999999,1e-05,-2.9999999999999997e-05,-1e-05,-5e-05,-7e-05,-0.0001,3
13498,14015,0.00022999999999999998,0.00011999999999999999,1e-05,-2.9999999999999997e-05,-1e-05,-5e-05,-7e-05,-0.0001,3
13499,14016,0.00022999999999999998,0.00011999999999999999,1e-05,-2.9999999999999997e-05,-1e-05,-5e-05,-7e-05,-0.0001,3
13500,14017,0.00022999999999999998,0.00011999999999999999,1e-05,-2.9999999999999997e-05,-1e-05,-5e-05,-7e-05,-0.0001,3
13501,14018,0.00022999999999999998,0.00011999999999999999,1e-05,-2.9999999999999997e-05,-1e-05,-5e-05,-7e-05,-0.0001,3
13502,14019,0.00022999999999999998,0.00011999999999999999,1e-05,-2.9999999999999997e-05,-1e-05,-5e-05,-7e-05,-0.0001,3
13503,14020,0.00022999999999999998,0.00011999999999999999,1e-05,-2.9999999999999997e-05,-1e-05,-5e-05,-7e-05,-0.0001,3
13504,14021,0.00022999999999999998,0.00011999999999999999,1e-05,-2.9999999999999997e-05,-1e-05,-5e-05,-7e-05,-0.0001,3
13505,14022,0.00022999999999999998,0.00011999999999999999,1e-05,-2.9999999999999997e-05,-1e-05,-5e-05,-7e-05,-0.0001,3
13506,14023,0.00022999999999999998,0.00011999999999999999,1e-05,-2.9999999999999997e-05,-1e-05,-5e-05,-7e-05,-0.0001,3
13507,14024,0.00022999999999999998,0.00011999999999999999,1e-05,-2.9999999999999997e-05,-1e-05,-5e-05,-7e-05,-0.0001,3
13508,14025,0.00022999999999999998,0.00011999999999999999,1e-05,-2.9999999999999997e-05,-1e-05,-5e-05,-7e-05,-0.0001,3
13509,14026,-0.00037,-0.00036,-2.9999999999999997e-05,4e-05,0.0,-2.9999999999999997e-05,-2.9999999999999997e-05,0.00053,3
13510,14027,-5e-05,-2.9999999999999997e-05,1e-05,-2e-05,-2.9999999999999997e-05,-4e-05,4e-05,0.0004,3
13511,14028,-5e-05,-2.9999999999999997e-05,1e-05,-2e-05,-2.9999999999999997e-05,-4e-05,4e-05,0.0004,3
13512,14029,-5e-05,-2.9999999999999997e-05,1e-05,-2e-05,-2.9999999999999997e-05,-4e-05,4e-05,0.0004,3
13513,14030,-5e-05,-2.9999999999999997e-05,1e-05,-2e-05,-2.9999999999999997e-05,-4e-05,4e-05,0.0004,3
13514,14031,-5e-05,-2.9999999999999997e-05,1e-05,-2e-05,-2.9999999999999997e-05,-4e-05,4e-05,0.0004,3
13515,14032,-5e-05,-2.9999999999999997e-05,1e-05,-2e-05,-2.9999999999999997e-05,-4e-05,4e-05,0.0004,3
13516,14033,-5e-05,-2.9999999999999997e-05,1e-05,-2e-05,-2.9999999999999997e-05,-4e-05,4e-05,0.0004,3
13517,14034,-5e-05,-2.9999999999999997e-05,1e-05,-2e-05,-2.9999999999999997e-05,-4e-05,4e-05,0.0004,3
13518,14035,-5e-05,-2.9999999999999997e-05,1e-05,-2e-05,-2.9999999999999997e-05,-4e-05,4e-05,0.0004,3
13519,14036,-5e-05,-2.9999999999999997e-05,1e-05,-2e-05,-2.9999999999999997e-05,-4e-05,4e-05,0.0004,3
13520,14038,-5e-05,-2.9999999999999997e-05,1e-05,-2e-05,-2.9999999999999997e-05,-4e-05,4e-05,0.0004,3
13521,14039,-5e-05,-2.9999999999999997e-05,1e-05,-2e-05,-2.9999999999999997e-05,-4e-05,4e-05,0.0004,3
13522,14040,-5e-05,-2.9999999999999997e-05,1e-05,-2e-05,-2.9999999999999997e-05,-4e-05,4e-05,0.0004,3
13523,14041,-5e-05,-2.9999999999999997e-05,1e-05,-2e-05,-2.9999999999999997e-05,-4e-05,4e-05,0.0004,3
13524,14042,-5e-05,-2.9999999999999997e-05,1e-05,-2e-05,-2.9999999999999997e-05,-4e-05,4e-05,0.0004,3
13525,14043,-5e-05,-2.9999999999999997e-05,1e-05,-2e-05,-2.9999999999999997e-05,-4e-05,4e-05,0.0004,3
13526,14044,-5e-05,-2.9999999999999997e-05,1e-05,-2e-05,-2.9999999999999997e-05,-4e-05,4e-05,0.0004,3
13527,14045,-5e-05,-2.9999999999999997e-05,1e-05,-2e-05,-2.9999999999999997e-05,-4e-05,4e-05,0.0004,3
13528,14046,-5e-05,-2.9999999999999997e-05,1e-05,-2e-05,-2.9999999999999997e-05,-4e-05,4e-05,0.0004,3
13529,14047,-5e-05,-2.9999999999999997e-05,1e-05,-2e-05,-2.9999999999999997e-05,-4e-05,4e-05,0.0004,3
13530,14048,-5e-05,-2.9999999999999997e-05,1e-05,-2e-05,-2.9999999999999997e-05,-4e-05,4e-05,0.0004,3
13531,14049,-0.00016999999999999999,0.00018999999999999998,1e-05,0.0,1e-05,-4e-05,-7e-05,0.00064,3
13532,14050,5.9999999999999995e-05,-0.00015,-8e-05,-2e-05,-1e-05,-4e-05,1e-05,0.00018,3
13533,14051,5.9999999999999995e-05,-0.00015,-8e-05,-2e-05,-1e-05,-4e-05,1e-05,0.00018,3
13534,14052,5.9999999999999995e-05,-0.00015,-8e-05,-2e-05,-1e-05,-4e-05,1e-05,0.00018,3
13535,14053,5.9999999999999995e-05,-0.00015,-8e-05,-2e-05,-1e-05,-4e-05,1e-05,0.00018,3
13536,14054,5.9999999999999995e-05,-0.00015,-8e-05,-2e-05,-1e-05,-4e-05,1e-05,0.00018,3
13537,14055,5.9999999999999995e-05,-0.00015,-8e-05,-2e-05,-1e-05,-4e-05,1e-05,0.00018,3
13538,14056,5.9999999999999995e-05,-0.00015,-8e-05,-2e-05,-1e-05,-4e-05,1e-05,0.00018,3
13539,14057,5.9999999999999995e-05,-0.00015,-8e-05,-2e-05,-1e-05,-4e-05,1e-05,0.00018,3
13540,14058,5.9999999999999995e-05,-0.00015,-8e-05,-2e-05,-1e-05,-4e-05,1e-05,0.00018,3
13541,14059,5.9999999999999995e-05,-0.00015,-8e-05,-2e-05,-1e-05,-4e-05,1e-05,0.00018,3
13542,14060,5.9999999999999995e-05,-0.00015,-8e-05,-2e-05,-1e-05,-4e-05,1e-05,0.00018,3
13543,14061,5.9999999999999995e-05,-0.00015,-8e-05,-2e-05,-1e-05,-4e-05,1e-05,0.00018,3
13544,14062,5.9999999999999995e-05,-0.00015,-8e-05,-2e-05,-1e-05,-4e-05,1e-05,0.00018,3
13545,14063,5.9999999999999995e-05,-0.00015,-8e-05,-2e-05,-1e-05,-4e-05,1e-05,0.00018,3
13546,14064,5.9999999999999995e-05,-0.00015,-8e-05,-2e-05,-1e-05,-4e-05,1e-05,0.00018,3
13547,14065,5.9999999999999995e-05,-0.00015,-8e-05,-2e-05,-1e-05,-4e-05,1e-05,0.00018,3
13548,14066,5.9999999999999995e-05,-0.00015,-8e-05,-2e-05,-1e-05,-4e-05,1e-05,0.00018,3
13549,14067,5.9999999999999995e-05,-0.00015,-8e-05,-2e-05,-1e-05,-4e-05,1e-05,0.00018,3
13550,14068,5.9999999999999995e-05,-0.00015,-8e-05,-2e-05,-1e-05,-4e-05,1e-05,0.00018,3
13551,14069,5.9999999999999995e-05,-0.00015,-8e-05,-2e-05,-1e-05,-4e-05,1e-05,0.00018,3
13552,14070,5.9999999999999995e-05,-0.00015,-8e-05,-2e-05,-1e-05,-4e-05,1e-05,0.00018,3
13553,14071,5.9999999999999995e-05,-0.00015,-8e-05,-2e-05,-1e-05,-4e-05,1e-05,0.00018,3
13554,14072,-5e-05,0.0001,4e-05,1e-05,-2.9999999999999997e-05,-5.9999999999999995e-05,-4e-05,0.00023999999999999998,3
13555,14073,2.9999999999999997e-05,0.00022,-1e-05,-4e-05,-2e-05,-0.0001,-2e-05,-0.00035,3
13556,14074,2.9999999999999997e-05,0.00022,-1e-05,-4e-05,-2e-05,-0.0001,-2e-05,-0.00035,3
13557,14075,2.9999999999999997e-05,0.00022,-1e-05,-4e-05,-2e-05,-0.0001,-2e-05,-0.00035,3
13558,14076,2.9999999999999997e-05,0.00022,-1e-05,-4e-05,-2e-05,-0.0001,-2e-05,-0.00035,3
13559,14077,2.9999999999999997e-05,0.00022,-1e-05,-4e-05,-2e-05,-0.0001,-2e-05,-0.00035,3
13560,14078,2.9999999999999997e-05,0.00022,-1e-05,-4e-05,-2e-05,-0.0001,-2e-05,-0.00035,3
13561,14079,2.9999999999999997e-05,0.00022,-1e-05,-4e-05,-2e-05,-0.0001,-2e-05,-0.00035,3
13562,14080,2.9999999999999997e-05,0.00022,-1e-05,-4e-05,-2e-05,-0.0001,-2e-05,-0.00035,3
13563,14081,2.9999999999999997e-05,0.00022,-1e-05,-4e-05,-2e-05,-0.0001,-2e-05,-0.00035,3
13564,14082,2.9999999999999997e-05,0.00022,-1e-05,-4e-05,-2e-05,-0.0001,-2e-05,-0.00035,3
13565,14083,2.9999999999999997e-05,0.00022,-1e-05,-4e-05,-2e-05,-0.0001,-2e-05,-0.00035,3
13566,14084,2.9999999999999997e-05,0.00022,-1e-05,-4e-05,-2e-05,-0.0001,-2e-05,-0.00035,3
13567,14085,2.9999999999999997e-05,0.00022,-1e-05,-4e-05,-2e-05,-0.0001,-2e-05,-0.00035,3
13568,14086,2.9999999999999997e-05,0.00022,-1e-05,-4e-05,-2e-05,-0.0001,-2e-05,-0.00035,3
13569,14088,-0.0002,-0.00047999999999999996,-5.9999999999999995e-05,-2e-05,0.0,0.0001,-4e-05,-0.00029,3
13570,14089,-0.0002,-0.00047999999999999996,-5.9999999999999995e-05,-2e-05,0.0,0.0001,-4e-05,-0.00029,3
13571,14090,-0.0002,-0.00047999999999999996,-5.9999999999999995e-05,-2e-05,0.0,0.0001,-4e-05,-0.00029,3
13572,14091,-0.0002,-0.00047999999999999996,-5.9999999999999995e-05,-2e-05,0.0,0.0001,-4e-05,-0.00029,3
13573,14092,-0.0002,-0.00047999999999999996,-5.9999999999999995e-05,-2e-05,0.0,0.0001,-4e-05,-0.00029,3
13574,14093,-0.0002,-0.00047999999999999996,-5.9999999999999995e-05,-2e-05,0.0,0.0001,-4e-05,-0.00029,3
13575,14094,-0.0002,-0.00047999999999999996,-5.9999999999999995e-05,-2e-05,0.0,0.0001,-4e-05,-0.00029,3
13576,14095,-0.0002,-0.00047999999999999996,-5.9999999999999995e-05,-2e-05,0.0,0.0001,-4e-05,-0.00029,3
13577,14096,-0.0002,-0.00047999999999999996,-5.9999999999999995e-05,-2e-05,0.0,0.0001,-4e-05,-0.00029,3
13578,14097,-0.0002,-0.00047999999999999996,-5.9999999999999995e-05,-2e-05,0.0,0.0001,-4e-05,-0.00029,3
13579,14098,-0.0002,-0.00047999999999999996,-5.9999999999999995e-05,-2e-05,0.0,0.0001,-4e-05,-0.00029,3
13580,14099,-0.0002,-0.00047999999999999996,-5.9999999999999995e-05,-2e-05,0.0,0.0001,-4e-05,-0.00029,3
13581,14100,-0.0002,-0.00047999999999999996,-5.9999999999999995e-05,-2e-05,0.0,0.0001,-4e-05,-0.00029,3
13582,14101,-0.0002,-0.00047999999999999996,-5.9999999999999995e-05,-2e-05,0.0,0.0001,-4e-05,-0.00029,3
13583,14102,-0.0002,-0.00047999999999999996,-5.9999999999999995e-05,-2e-05,0.0,0.0001,-4e-05,-0.00029,3
13584,14103,-0.0002,-0.00047999999999999996,-5.9999999999999995e-05,-2e-05,0.0,0.0001,-4e-05,-0.00029,3
13585,14104,-0.0002,-0.00047999999999999996,-5.9999999999999995e-05,-2e-05,0.0,0.0001,-4e-05,-0.00029,3
13586,14105,-0.0002,-0.00047999999999999996,-5.9999999999999995e-05,-2e-05,0.0,0.0001,-4e-05,-0.00029,3
13587,14106,-0.0002,-0.00047999999999999996,-5.9999999999999995e-05,-2e-05,0.0,0.0001,-4e-05,-0.00029,3
13588,14107,-0.0002,-0.00047999999999999996,-5.9999999999999995e-05,-2e-05,0.0,0.0001,-4e-05,-0.00029,3
13589,14108,-0.0002,-0.00047999999999999996,-5.9999999999999995e-05,-2e-05,0.0,0.0001,-4e-05,-0.00029,3
13590,14109,1e-05,-0.00011999999999999999,-2.9999999999999997e-05,-1e-05,-1e-05,-1e-05,2e-05,-0.0001,3
13591,14110,-7e-05,0.0002,5e-05,1e-05,1e-05,0.00015,0.0,0.0005,3
13592,14111,-7e-05,0.0002,5e-05,1e-05,1e-05,0.00015,0.0,0.0005,3
13593,14112,-7e-05,0.0002,5e-05,1e-05,1e-05,0.00015,0.0,0.0005,3
13594,14113,-7e-05,0.0002,5e-05,1e-05,1e-05,0.00015,0.0,0.0005,3
13595,14114,-7e-05,0.0002,5e-05,1e-05,1e-05,0.00015,0.0,0.0005,3
13596,14115,-7e-05,0.0002,5e-05,1e-05,1e-05,0.00015,0.0,0.0005,3
13597,14116,-7e-05,0.0002,5e-05,1e-05,1e-05,0.00015,0.0,0.0005,3
13598,14117,-7e-05,0.0002,5e-05,1e-05,1e-05,0.00015,0.0,0.0005,3
13599,14118,-7e-05,0.0002,5e-05,1e-05,1e-05,0.00015,0.0,0.0005,3
13600,14119,-7e-05,0.0002,5e-05,1e-05,1e-05,0.00015,0.0,0.0005,3
13601,14120,-7e-05,0.0002,5e-05,1e-05,1e-05,0.00015,0.0,0.0005,3
13602,14121,-7e-05,0.0002,5e-05,1e-05,1e-05,0.00015,0.0,0.0005,3
13603,14122,-7e-05,0.0002,5e-05,1e-05,1e-05,0.00015,0.0,0.0005,3
13604,14123,-7e-05,0.0002,5e-05,1e-05,1e-05,0.00015,0.0,0.0005,3
13605,14124,-7e-05,0.0002,5e-05,1e-05,1e-05,0.00015,0.0,0.0005,3
13606,14125,-7e-05,0.0002,5e-05,1e-05,1e-05,0.00015,0.0,0.0005,3
13607,14126,-7e-05,0.0002,5e-05,1e-05,1e-05,0.00015,0.0,0.0005,3
13608,14127,-7e-05,0.0002,5e-05,1e-05,1e-05,0.00015,0.0,0.0005,3
13609,14128,-7e-05,0.0002,5e-05,1e-05,1e-05,0.00015,0.0,0.0005,3
13610,14129,-7e-05,0.0002,5e-05,1e-05,1e-05,0.00015,0.0,0.0005,3
13611,14130,-7e-05,0.0002,5e-05,1e-05,1e-05,0.00015,0.0,0.0005,3
13612,14131,-7e-05,0.0002,5e-05,1e-05,1e-05,0.00015,0.0,0.0005,3
13613,14132,-0.00022,-9e-05,2.9999999999999997e-05,-2.9999999999999997e-05,-2e-05,0.0,5e-05,-0.00023999999999999998,3
13614,14133,0.00021,-5e-05,-4e-05,-5e-05,-5e-05,-2.9999999999999997e-05,-2e-05,0.00029,3
13615,14134,0.00021,-5e-05,-4e-05,-5e-05,-5e-05,-2.9999999999999997e-05,-2e-05,0.00029,3
13616,14135,0.00021,-5e-05,-4e-05,-5e-05,-5e-05,-2.9999999999999997e-05,-2e-05,0.00029,3
13617,14137,0.00021,-5e-05,-4e-05,-5e-05,-5e-05,-2.9999999999999997e-05,-2e-05,0.00029,3
13618,14139,0.00021,-5e-05,-4e-05,-5e-05,-5e-05,-2.9999999999999997e-05,-2e-05,0.00029,3
13619,14140,0.00021,-5e-05,-4e-05,-5e-05,-5e-05,-2.9999999999999997e-05,-2e-05,0.00029,3
13620,14141,0.00021,-5e-05,-4e-05,-5e-05,-5e-05,-2.9999999999999997e-05,-2e-05,0.00029,3
13621,14142,0.00021,-5e-05,-4e-05,-5e-05,-5e-05,-2.9999999999999997e-05,-2e-05,0.00029,3
13622,14143,0.00021,-5e-05,-4e-05,-5e-05,-5e-05,-2.9999999999999997e-05,-2e-05,0.00029,3
13623,14144,0.00021,-5e-05,-4e-05,-5e-05,-5e-05,-2.9999999999999997e-05,-2e-05,0.00029,3
13624,14145,0.00021,-5e-05,-4e-05,-5e-05,-5e-05,-2.9999999999999997e-05,-2e-05,0.00029,3
13625,14146,0.00021,-5e-05,-4e-05,-5e-05,-5e-05,-2.9999999999999997e-05,-2e-05,0.00029,3
13626,14147,2.9999999999999997e-05,0.00022,0.0,-1e-05,0.0,2e-05,-1e-05,4e-05,3
13627,14148,2.9999999999999997e-05,0.00022,0.0,-1e-05,0.0,2e-05,-1e-05,4e-05,3
13628,14149,2.9999999999999997e-05,0.00022,0.0,-1e-05,0.0,2e-05,-1e-05,4e-05,3
13629,14150,2.9999999999999997e-05,0.00022,0.0,-1e-05,0.0,2e-05,-1e-05,4e-05,3
13630,14151,2.9999999999999997e-05,0.00022,0.0,-1e-05,0.0,2e-05,-1e-05,4e-05,3
13631,14152,2.9999999999999997e-05,0.00022,0.0,-1e-05,0.0,2e-05,-1e-05,4e-05,3
13632,14153,2.9999999999999997e-05,0.00022,0.0,-1e-05,0.0,2e-05,-1e-05,4e-05,3
13633,14154,2.9999999999999997e-05,0.00022,0.0,-1e-05,0.0,2e-05,-1e-05,4e-05,3
13634,14155,2.9999999999999997e-05,0.00022,0.0,-1e-05,0.0,2e-05,-1e-05,4e-05,3
13635,14156,2.9999999999999997e-05,0.00022,0.0,-1e-05,0.0,2e-05,-1e-05,4e-05,3
13636,14157,2.9999999999999997e-05,0.00022,0.0,-1e-05,0.0,2e-05,-1e-05,4e-05,3
13637,14158,2.9999999999999997e-05,0.00022,0.0,-1e-05,0.0,2e-05,-1e-05,4e-05,3
13638,14159,2.9999999999999997e-05,0.00022,0.0,-1e-05,0.0,2e-05,-1e-05,4e-05,3
13639,14160,2.9999999999999997e-05,0.00022,0.0,-1e-05,0.0,2e-05,-1e-05,4e-05,3
13640,14161,2.9999999999999997e-05,0.00022,0.0,-1e-05,0.0,2e-05,-1e-05,4e-05,3
13641,14162,2.9999999999999997e-05,0.00022,0.0,-1e-05,0.0,2e-05,-1e-05,4e-05,3
13642,14163,2.9999999999999997e-05,0.00022,0.0,-1e-05,0.0,2e-05,-1e-05,4e-05,3
13643,14164,2.9999999999999997e-05,0.00022,0.0,-1e-05,0.0,2e-05,-1e-05,4e-05,3
13644,14165,2.9999999999999997e-05,0.00022,0.0,-1e-05,0.0,2e-05,-1e-05,4e-05,3
13645,14166,2.9999999999999997e-05,0.00022,0.0,-1e-05,0.0,2e-05,-1e-05,4e-05,3
13646,14167,2.9999999999999997e-05,0.00022,0.0,-1e-05,0.0,2e-05,-1e-05,4e-05,3
13647,14168,2.9999999999999997e-05,0.00022,0.0,-1e-05,0.0,2e-05,-1e-05,4e-05,3
13648,14169,0.00015,5e-05,-5.9999999999999995e-05,-8e-05,-2e-05,-2e-05,-2.9999999999999997e-05,-4e-05,3
13649,14170,-0.00018,1e-05,2.9999999999999997e-05,2e-05,-2.9999999999999997e-05,-7e-05,1e-05,-0.00011,3
13650,14171,-0.00018,1e-05,2.9999999999999997e-05,2e-05,-2.9999999999999997e-05,-7e-05,1e-05,-0.00011,3
13651,14172,-0.00018,1e-05,2.9999999999999997e-05,2e-05,-2.9999999999999997e-05,-7e-05,1e-05,-0.00011,3
13652,14173,-0.00018,1e-05,2.9999999999999997e-05,2e-05,-2.9999999999999997e-05,-7e-05,1e-05,-0.00011,3
13653,14174,-0.00018,1e-05,2.9999999999999997e-05,2e-05,-2.9999999999999997e-05,-7e-05,1e-05,-0.00011,3
13654,14175,-0.00018,1e-05,2.9999999999999997e-05,2e-05,-2.9999999999999997e-05,-7e-05,1e-05,-0.00011,3
13655,14176,-0.00018,1e-05,2.9999999999999997e-05,2e-05,-2.9999999999999997e-05,-7e-05,1e-05,-0.00011,3
13656,14177,-0.00018,1e-05,2.9999999999999997e-05,2e-05,-2.9999999999999997e-05,-7e-05,1e-05,-0.00011,3
13657,14178,-0.00018,1e-05,2.9999999999999997e-05,2e-05,-2.9999999999999997e-05,-7e-05,1e-05,-0.00011,3
13658,14179,-0.00018,1e-05,2.9999999999999997e-05,2e-05,-2.9999999999999997e-05,-7e-05,1e-05,-0.00011,3
13659,14180,-0.00018,1e-05,2.9999999999999997e-05,2e-05,-2.9999999999999997e-05,-7e-05,1e-05,-0.00011,3
13660,14181,-0.00018,1e-05,2.9999999999999997e-05,2e-05,-2.9999999999999997e-05,-7e-05,1e-05,-0.00011,3
13661,14182,-0.00018,1e-05,2.9999999999999997e-05,2e-05,-2.9999999999999997e-05,-7e-05,1e-05,-0.00011,3
13662,14183,-0.00018,1e-05,2.9999999999999997e-05,2e-05,-2.9999999999999997e-05,-7e-05,1e-05,-0.00011,3
13663,14184,-0.00018,1e-05,2.9999999999999997e-05,2e-05,-2.9999999999999997e-05,-7e-05,1e-05,-0.00011,3
13664,14185,-0.00018,1e-05,2.9999999999999997e-05,2e-05,-2.9999999999999997e-05,-7e-05,1e-05,-0.00011,3
13665,14187,-0.00018,1e-05,2.9999999999999997e-05,2e-05,-2.9999999999999997e-05,-7e-05,1e-05,-0.00011,3
13666,14189,-0.00018,1e-05,2.9999999999999997e-05,2e-05,-2.9999999999999997e-05,-7e-05,1e-05,-0.00011,3
13667,14190,-0.00018,1e-05,2.9999999999999997e-05,2e-05,-2.9999999999999997e-05,-7e-05,1e-05,-0.00011,3
13668,14191,-0.00018,1e-05,2.9999999999999997e-05,2e-05,-2.9999999999999997e-05,-7e-05,1e-05,-0.00011,3
13669,14192,4e-05,0.00022999999999999998,2.9999999999999997e-05,1e-05,1e-05,0.0,-2.9999999999999997e-05,-0.00033,3
13670,14193,-1e-05,9e-05,-2.9999999999999997e-05,-1e-05,-2.9999999999999997e-05,-9e-05,-5e-05,-0.00085,3
13671,14194,-1e-05,9e-05,-2.9999999999999997e-05,-1e-05,-2.9999999999999997e-05,-9e-05,-5e-05,-0.00085,3
13672,14195,-1e-05,9e-05,-2.9999999999999997e-05,-1e-05,-2.9999999999999997e-05,-9e-05,-5e-05,-0.00085,3
13673,14196,-1e-05,9e-05,-2.9999999999999997e-05,-1e-05,-2.9999999999999997e-05,-9e-05,-5e-05,-0.00085,3
13674,14197,-1e-05,9e-05,-2.9999999999999997e-05,-1e-05,-2.9999999999999997e-05,-9e-05,-5e-05,-0.00085,3
13675,14198,-1e-05,9e-05,-2.9999999999999997e-05,-1e-05,-2.9999999999999997e-05,-9e-05,-5e-05,-0.00085,3
13676,14199,-1e-05,9e-05,-2.9999999999999997e-05,-1e-05,-2.9999999999999997e-05,-9e-05,-5e-05,-0.00085,3
13677,14200,-1e-05,9e-05,-2.9999999999999997e-05,-1e-05,-2.9999999999999997e-05,-9e-05,-5e-05,-0.00085,3
13678,14201,-1e-05,9e-05,-2.9999999999999997e-05,-1e-05,-2.9999999999999997e-05,-9e-05,-5e-05,-0.00085,3
13679,14202,-1e-05,9e-05,-2.9999999999999997e-05,-1e-05,-2.9999999999999997e-05,-9e-05,-5e-05,-0.00085,3
13680,14203,-1e-05,9e-05,-2.9999999999999997e-05,-1e-05,-2.9999999999999997e-05,-9e-05,-5e-05,-0.00085,3
13681,14204,-1e-05,9e-05,-2.9999999999999997e-05,-1e-05,-2.9999999999999997e-05,-9e-05,-5e-05,-0.00085,3
13682,14205,-1e-05,9e-05,-2.9999999999999997e-05,-1e-05,-2.9999999999999997e-05,-9e-05,-5e-05,-0.00085,3
13683,14206,-1e-05,9e-05,-2.9999999999999997e-05,-1e-05,-2.9999999999999997e-05,-9e-05,-5e-05,-0.00085,3
13684,14207,0.00029,9e-05,0.0,-2.9999999999999997e-05,0.0,0.00011999999999999999,-1e-05,9e-05,3
13685,14208,-5.9999999999999995e-05,0.00013000000000000002,2e-05,1e-05,-2.9999999999999997e-05,-0.00021,2e-05,0.00018,3
13686,14209,-5.9999999999999995e-05,0.00013000000000000002,2e-05,1e-05,-2.9999999999999997e-05,-0.00021,2e-05,0.00018,3
13687,14210,-5.9999999999999995e-05,0.00013000000000000002,2e-05,1e-05,-2.9999999999999997e-05,-0.00021,2e-05,0.00018,3
13688,14211,-5.9999999999999995e-05,0.00013000000000000002,2e-05,1e-05,-2.9999999999999997e-05,-0.00021,2e-05,0.00018,3
13689,14212,-5.9999999999999995e-05,0.00013000000000000002,2e-05,1e-05,-2.9999999999999997e-05,-0.00021,2e-05,0.00018,3
13690,14213,-5.9999999999999995e-05,0.00013000000000000002,2e-05,1e-05,-2.9999999999999997e-05,-0.00021,2e-05,0.00018,3
13691,14214,-5.9999999999999995e-05,0.00013000000000000002,2e-05,1e-05,-2.9999999999999997e-05,-0.00021,2e-05,0.00018,3
13692,14215,-5.9999999999999995e-05,0.00013000000000000002,2e-05,1e-05,-2.9999999999999997e-05,-0.00021,2e-05,0.00018,3
13693,14216,-5.9999999999999995e-05,0.00013000000000000002,2e-05,1e-05,-2.9999999999999997e-05,-0.00021,2e-05,0.00018,3
13694,14217,-5.9999999999999995e-05,0.00013000000000000002,2e-05,1e-05,-2.9999999999999997e-05,-0.00021,2e-05,0.00018,3
13695,14218,-5.9999999999999995e-05,0.00013000000000000002,2e-05,1e-05,-2.9999999999999997e-05,-0.00021,2e-05,0.00018,3
13696,14219,-5.9999999999999995e-05,0.00013000000000000002,2e-05,1e-05,-2.9999999999999997e-05,-0.00021,2e-05,0.00018,3
13697,14220,-5.9999999999999995e-05,0.00013000000000000002,2e-05,1e-05,-2.9999999999999997e-05,-0.00021,2e-05,0.00018,3
13698,14221,-5.9999999999999995e-05,0.00013000000000000002,2e-05,1e-05,-2.9999999999999997e-05,-0.00021,2e-05,0.00018,3
13699,14222,-5.9999999999999995e-05,0.00013000000000000002,2e-05,1e-05,-2.9999999999999997e-05,-0.00021,2e-05,0.00018,3
13700,14223,-5.9999999999999995e-05,0.00013000000000000002,2e-05,1e-05,-2.9999999999999997e-05,-0.00021,2e-05,0.00018,3
13701,14224,-5.9999999999999995e-05,0.00013000000000000002,2e-05,1e-05,-2.9999999999999997e-05,-0.00021,2e-05,0.00018,3
13702,14225,-5.9999999999999995e-05,0.00013000000000000002,2e-05,1e-05,-2.9999999999999997e-05,-0.00021,2e-05,0.00018,3
13703,14226,-5.9999999999999995e-05,0.00013000000000000002,2e-05,1e-05,-2.9999999999999997e-05,-0.00021,2e-05,0.00018,3
13704,14227,-5.9999999999999995e-05,0.00013000000000000002,2e-05,1e-05,-2.9999999999999997e-05,-0.00021,2e-05,0.00018,3
13705,14228,-5.9999999999999995e-05,0.00013000000000000002,2e-05,1e-05,-2.9999999999999997e-05,-0.00021,2e-05,0.00018,3
13706,14229,-2.9999999999999997e-05,0.0002,1e-05,-1e-05,-1e-05,-2e-05,-4e-05,0.0003,3
13707,14230,-8e-05,7e-05,5e-05,1e-05,0.0,2.9999999999999997e-05,2.9999999999999997e-05,0.00021,3
13708,14231,-8e-05,7e-05,5e-05,1e-05,0.0,2.9999999999999997e-05,2.9999999999999997e-05,0.00021,3
13709,14232,-8e-05,7e-05,5e-05,1e-05,0.0,2.9999999999999997e-05,2.9999999999999997e-05,0.00021,3
13710,14233,-8e-05,7e-05,5e-05,1e-05,0.0,2.9999999999999997e-05,2.9999999999999997e-05,0.00021,3
13711,14234,-8e-05,7e-05,5e-05,1e-05,0.0,2.9999999999999997e-05,2.9999999999999997e-05,0.00021,3
13712,14235,-8e-05,7e-05,5e-05,1e-05,0.0,2.9999999999999997e-05,2.9999999999999997e-05,0.00021,3
13713,14237,-8e-05,7e-05,5e-05,1e-05,0.0,2.9999999999999997e-05,2.9999999999999997e-05,0.00021,3
13714,14239,-8e-05,7e-05,5e-05,1e-05,0.0,2.9999999999999997e-05,2.9999999999999997e-05,0.00021,3
13715,14240,-8e-05,7e-05,5e-05,1e-05,0.0,2.9999999999999997e-05,2.9999999999999997e-05,0.00021,3
13716,14241,-8e-05,7e-05,5e-05,1e-05,0.0,2.9999999999999997e-05,2.9999999999999997e-05,0.00021,3
13717,14242,-8e-05,7e-05,5e-05,1e-05,0.0,2.9999999999999997e-05,2.9999999999999997e-05,0.00021,3
13718,14243,-8e-05,7e-05,5e-05,1e-05,0.0,2.9999999999999997e-05,2.9999999999999997e-05,0.00021,3
13719,14244,-8e-05,7e-05,5e-05,1e-05,0.0,2.9999999999999997e-05,2.9999999999999997e-05,0.00021,3
13720,14245,-8e-05,7e-05,5e-05,1e-05,0.0,2.9999999999999997e-05,2.9999999999999997e-05,0.00021,3
13721,14246,-8e-05,7e-05,5e-05,1e-05,0.0,2.9999999999999997e-05,2.9999999999999997e-05,0.00021,3
13722,14247,-8e-05,7e-05,5e-05,1e-05,0.0,2.9999999999999997e-05,2.9999999999999997e-05,0.00021,3
13723,14248,-8e-05,7e-05,5e-05,1e-05,0.0,2.9999999999999997e-05,2.9999999999999997e-05,0.00021,3
13724,14249,-8e-05,7e-05,5e-05,1e-05,0.0,2.9999999999999997e-05,2.9999999999999997e-05,0.00021,3
13725,14250,-8e-05,7e-05,5e-05,1e-05,0.0,2.9999999999999997e-05,2.9999999999999997e-05,0.00021,3
13726,14251,-8e-05,7e-05,5e-05,1e-05,0.0,2.9999999999999997e-05,2.9999999999999997e-05,0.00021,3
13727,14252,-8e-05,7e-05,5e-05,1e-05,0.0,2.9999999999999997e-05,2.9999999999999997e-05,0.00021,3
13728,14253,-5e-05,2.9999999999999997e-05,-5.9999999999999995e-05,-5e-05,-1e-05,-4e-05,1e-05,0.0,3
13729,14254,-5e-05,2.9999999999999997e-05,-5.9999999999999995e-05,-5e-05,-1e-05,-4e-05,1e-05,0.0,3
13730,14255,-5e-05,2.9999999999999997e-05,-5.9999999999999995e-05,-5e-05,-1e-05,-4e-05,1e-05,0.0,3
13731,14256,-5e-05,2.9999999999999997e-05,-5.9999999999999995e-05,-5e-05,-1e-05,-4e-05,1e-05,0.0,3
13732,14257,-5e-05,2.9999999999999997e-05,-5.9999999999999995e-05,-5e-05,-1e-05,-4e-05,1e-05,0.0,3
13733,14258,-5e-05,2.9999999999999997e-05,-5.9999999999999995e-05,-5e-05,-1e-05,-4e-05,1e-05,0.0,3
13734,14259,-5e-05,2.9999999999999997e-05,-5.9999999999999995e-05,-5e-05,-1e-05,-4e-05,1e-05,0.0,3
13735,14260,-5e-05,2.9999999999999997e-05,-5.9999999999999995e-05,-5e-05,-1e-05,-4e-05,1e-05,0.0,3
13736,14261,-5e-05,2.9999999999999997e-05,-5.9999999999999995e-05,-5e-05,-1e-05,-4e-05,1e-05,0.0,3
13737,14262,-5e-05,2.9999999999999997e-05,-5.9999999999999995e-05,-5e-05,-1e-05,-4e-05,1e-05,0.0,3
13738,14263,-5e-05,2.9999999999999997e-05,-5.9999999999999995e-05,-5e-05,-1e-05,-4e-05,1e-05,0.0,3
13739,14264,-5e-05,2.9999999999999997e-05,-5.9999999999999995e-05,-5e-05,-1e-05,-4e-05,1e-05,0.0,3
13740,14265,-5e-05,2.9999999999999997e-05,-5.9999999999999995e-05,-5e-05,-1e-05,-4e-05,1e-05,0.0,3
13741,14266,-0.00013000000000000002,2.9999999999999997e-05,2.9999999999999997e-05,-1e-05,-2.9999999999999997e-05,-2e-05,2e-05,-0.00018999999999999998,3
13742,14267,8e-05,-5e-05,-4e-05,2.9999999999999997e-05,2.9999999999999997e-05,2.9999999999999997e-05,0.0,-5e-05,3
13743,14268,8e-05,-5e-05,-4e-05,2.9999999999999997e-05,2.9999999999999997e-05,2.9999999999999997e-05,0.0,-5e-05,3
13744,14269,8e-05,-5e-05,-4e-05,2.9999999999999997e-05,2.9999999999999997e-05,2.9999999999999997e-05,0.0,-5e-05,3
13745,14270,8e-05,-5e-05,-4e-05,2.9999999999999997e-05,2.9999999999999997e-05,2.9999999999999997e-05,0.0,-5e-05,3
13746,14271,8e-05,-5e-05,-4e-05,2.9999999999999997e-05,2.9999999999999997e-05,2.9999999999999997e-05,0.0,-5e-05,3
13747,14272,8e-05,-5e-05,-4e-05,2.9999999999999997e-05,2.9999999999999997e-05,2.9999999999999997e-05,0.0,-5e-05,3
13748,14273,8e-05,-5e-05,-4e-05,2.9999999999999997e-05,2.9999999999999997e-05,2.9999999999999997e-05,0.0,-5e-05,3
13749,14274,8e-05,-5e-05,-4e-05,2.9999999999999997e-05,2.9999999999999997e-05,2.9999999999999997e-05,0.0,-5e-05,3
13750,14275,8e-05,-5e-05,-4e-05,2.9999999999999997e-05,2.9999999999999997e-05,2.9999999999999997e-05,0.0,-5e-05,3
13751,14276,8e-05,-5e-05,-4e-05,2.9999999999999997e-05,2.9999999999999997e-05,2.9999999999999997e-05,0.0,-5e-05,3
13752,14277,8e-05,-5e-05,-4e-05,2.9999999999999997e-05,2.9999999999999997e-05,2.9999999999999997e-05,0.0,-5e-05,3
13753,14278,8e-05,-5e-05,-4e-05,2.9999999999999997e-05,2.9999999999999997e-05,2.9999999999999997e-05,0.0,-5e-05,3
13754,14279,8e-05,-5e-05,-4e-05,2.9999999999999997e-05,2.9999999999999997e-05,2.9999999999999997e-05,0.0,-5e-05,3
13755,14280,8e-05,-5e-05,-4e-05,2.9999999999999997e-05,2.9999999999999997e-05,2.9999999999999997e-05,0.0,-5e-05,3
13756,14281,8e-05,-5e-05,-4e-05,2.9999999999999997e-05,2.9999999999999997e-05,2.9999999999999997e-05,0.0,-5e-05,3
13757,14282,8e-05,-5e-05,-4e-05,2.9999999999999997e-05,2.9999999999999997e-05,2.9999999999999997e-05,0.0,-5e-05,3
13758,14283,8e-05,-5e-05,-4e-05,2.9999999999999997e-05,2.9999999999999997e-05,2.9999999999999997e-05,0.0,-5e-05,3
13759,14284,8e-05,-5e-05,-4e-05,2.9999999999999997e-05,2.9999999999999997e-05,2.9999999999999997e-05,0.0,-5e-05,3
13760,14285,8e-05,-5e-05,-4e-05,2.9999999999999997e-05,2.9999999999999997e-05,2.9999999999999997e-05,0.0,-5e-05,3
13761,14287,8e-05,-5e-05,-4e-05,2.9999999999999997e-05,2.9999999999999997e-05,2.9999999999999997e-05,0.0,-5e-05,3
13762,14289,-0.0001,-0.00039,0.0,0.0,2e-05,9e-05,2.9999999999999997e-05,-0.00036,3
13763,14290,-0.00011999999999999999,-8e-05,1e-05,-1e-05,0.0,0.0001,-2.9999999999999997e-05,-8e-05,3
13764,14291,-0.00011999999999999999,-8e-05,1e-05,-1e-05,0.0,0.0001,-2.9999999999999997e-05,-8e-05,3
13765,14292,-0.00011999999999999999,-8e-05,1e-05,-1e-05,0.0,0.0001,-2.9999999999999997e-05,-8e-05,3
13766,14293,-0.00011999999999999999,-8e-05,1e-05,-1e-05,0.0,0.0001,-2.9999999999999997e-05,-8e-05,3
13767,14294,-0.00011999999999999999,-8e-05,1e-05,-1e-05,0.0,0.0001,-2.9999999999999997e-05,-8e-05,3
13768,14295,-0.00011999999999999999,-8e-05,1e-05,-1e-05,0.0,0.0001,-2.9999999999999997e-05,-8e-05,3
13769,14296,-0.00011999999999999999,-8e-05,1e-05,-1e-05,0.0,0.0001,-2.9999999999999997e-05,-8e-05,3
13770,14297,-0.00011999999999999999,-8e-05,1e-05,-1e-05,0.0,0.0001,-2.9999999999999997e-05,-8e-05,3
13771,14298,-0.00011999999999999999,-8e-05,1e-05,-1e-05,0.0,0.0001,-2.9999999999999997e-05,-8e-05,3
13772,14299,-0.00011999999999999999,-8e-05,1e-05,-1e-05,0.0,0.0001,-2.9999999999999997e-05,-8e-05,3
13773,14300,-0.00011999999999999999,-8e-05,1e-05,-1e-05,0.0,0.0001,-2.9999999999999997e-05,-8e-05,3
13774,14301,-0.00011999999999999999,-8e-05,1e-05,-1e-05,0.0,0.0001,-2.9999999999999997e-05,-8e-05,3
13775,14302,-0.00011999999999999999,-8e-05,1e-05,-1e-05,0.0,0.0001,-2.9999999999999997e-05,-8e-05,3
13776,14303,-0.00011999999999999999,-8e-05,1e-05,-1e-05,0.0,0.0001,-2.9999999999999997e-05,-8e-05,3
13777,14304,-0.00011999999999999999,-8e-05,1e-05,-1e-05,0.0,0.0001,-2.9999999999999997e-05,-8e-05,3
13778,14305,-0.00011999999999999999,-8e-05,1e-05,-1e-05,0.0,0.0001,-2.9999999999999997e-05,-8e-05,3
13779,14306,-0.00011999999999999999,-8e-05,1e-05,-1e-05,0.0,0.0001,-2.9999999999999997e-05,-8e-05,3
13780,14307,-0.00011999999999999999,-8e-05,1e-05,-1e-05,0.0,0.0001,-2.9999999999999997e-05,-8e-05,3
13781,14308,-0.00011999999999999999,-8e-05,1e-05,-1e-05,0.0,0.0001,-2.9999999999999997e-05,-8e-05,3
13782,14309,-0.00011999999999999999,-8e-05,1e-05,-1e-05,0.0,0.0001,-2.9999999999999997e-05,-8e-05,3
13783,14310,-0.00011999999999999999,-8e-05,1e-05,-1e-05,0.0,0.0001,-2.9999999999999997e-05,-8e-05,3
13784,14311,-0.00011999999999999999,-8e-05,1e-05,-1e-05,0.0,0.0001,-2.9999999999999997e-05,-8e-05,3
13785,14312,-9e-05,-0.00029,-2.9999999999999997e-05,-1e-05,-4e-05,-2e-05,2e-05,5.9999999999999995e-05,3
13786,14313,-0.00014,-0.00036,-8e-05,-7e-05,-4e-05,5.9999999999999995e-05,1e-05,0.00022999999999999998,3
13787,14314,-0.00014,-0.00036,-8e-05,-7e-05,-4e-05,5.9999999999999995e-05,1e-05,0.00022999999999999998,3
13788,14315,-0.00014,-0.00036,-8e-05,-7e-05,-4e-05,5.9999999999999995e-05,1e-05,0.00022999999999999998,3
13789,14316,-0.00014,-0.00036,-8e-05,-7e-05,-4e-05,5.9999999999999995e-05,1e-05,0.00022999999999999998,3
13790,14317,-0.00014,-0.00036,-8e-05,-7e-05,-4e-05,5.9999999999999995e-05,1e-05,0.00022999999999999998,3
13791,14318,-0.00014,-0.00036,-8e-05,-7e-05,-4e-05,5.9999999999999995e-05,1e-05,0.00022999999999999998,3
13792,14319,-0.00014,-0.00036,-8e-05,-7e-05,-4e-05,5.9999999999999995e-05,1e-05,0.00022999999999999998,3
13793,14320,-0.00014,-0.00036,-8e-05,-7e-05,-4e-05,5.9999999999999995e-05,1e-05,0.00022999999999999998,3
13794,14321,-0.00014,-0.00036,-8e-05,-7e-05,-4e-05,5.9999999999999995e-05,1e-05,0.00022999999999999998,3
13795,14322,-0.00014,-0.00036,-8e-05,-7e-05,-4e-05,5.9999999999999995e-05,1e-05,0.00022999999999999998,3
13796,14323,-0.00014,-0.00036,-8e-05,-7e-05,-4e-05,5.9999999999999995e-05,1e-05,0.00022999999999999998,3
13797,14324,-0.00014,-0.00036,-8e-05,-7e-05,-4e-05,5.9999999999999995e-05,1e-05,0.00022999999999999998,3
13798,14325,-0.00014,-0.00036,-8e-05,-7e-05,-4e-05,5.9999999999999995e-05,1e-05,0.00022999999999999998,3
13799,14326,5e-05,0.00016999999999999999,4e-05,-1e-05,-1e-05,1e-05,-2.9999999999999997e-05,0.00022,3
13800,14327,5e-05,0.00016999999999999999,4e-05,-1e-05,-1e-05,1e-05,-2.9999999999999997e-05,0.00022,3
13801,14328,5e-05,0.00016999999999999999,4e-05,-1e-05,-1e-05,1e-05,-2.9999999999999997e-05,0.00022,3
13802,14329,5e-05,0.00016999999999999999,4e-05,-1e-05,-1e-05,1e-05,-2.9999999999999997e-05,0.00022,3
13803,14330,5e-05,0.00016999999999999999,4e-05,-1e-05,-1e-05,1e-05,-2.9999999999999997e-05,0.00022,3
13804,14331,5e-05,0.00016999999999999999,4e-05,-1e-05,-1e-05,1e-05,-2.9999999999999997e-05,0.00022,3
13805,14332,5e-05,0.00016999999999999999,4e-05,-1e-05,-1e-05,1e-05,-2.9999999999999997e-05,0.00022,3
13806,14333,5e-05,0.00016999999999999999,4e-05,-1e-05,-1e-05,1e-05,-2.9999999999999997e-05,0.00022,3
13807,14334,-2e-05,0.00016999999999999999,-1e-05,2e-05,-2.9999999999999997e-05,-7e-05,-1e-05,0.00022,3
13808,14335,-2e-05,0.00016999999999999999,-1e-05,2e-05,-2.9999999999999997e-05,-7e-05,-1e-05,0.00022,3
13809,14336,-2e-05,0.00016999999999999999,-1e-05,2e-05,-2.9999999999999997e-05,-7e-05,-1e-05,0.00022,3
13810,14338,-2e-05,0.00016999999999999999,-1e-05,2e-05,-2.9999999999999997e-05,-7e-05,-1e-05,0.00022,3
13811,14339,-2e-05,0.00016999999999999999,-1e-05,2e-05,-2.9999999999999997e-05,-7e-05,-1e-05,0.00022,3
13812,14340,-2e-05,0.00016999999999999999,-1e-05,2e-05,-2.9999999999999997e-05,-7e-05,-1e-05,0.00022,3
13813,14341,-2e-05,0.00016999999999999999,-1e-05,2e-05,-2.9999999999999997e-05,-7e-05,-1e-05,0.00022,3
13814,14342,-2e-05,0.00016999999999999999,-1e-05,2e-05,-2.9999999999999997e-05,-7e-05,-1e-05,0.00022,3
13815,14343,-2e-05,0.00016999999999999999,-1e-05,2e-05,-2.9999999999999997e-05,-7e-05,-1e-05,0.00022,3
13816,14344,-2e-05,0.00016999999999999999,-1e-05,2e-05,-2.9999999999999997e-05,-7e-05,-1e-05,0.00022,3
13817,14345,-2e-05,0.00016999999999999999,-1e-05,2e-05,-2.9999999999999997e-05,-7e-05,-1e-05,0.00022,3
13818,14346,-2e-05,0.00016999999999999999,-1e-05,2e-05,-2.9999999999999997e-05,-7e-05,-1e-05,0.00022,3
13819,14347,-2e-05,0.00016999999999999999,-1e-05,2e-05,-2.9999999999999997e-05,-7e-05,-1e-05,0.00022,3
13820,14348,-2e-05,0.00016999999999999999,-1e-05,2e-05,-2.9999999999999997e-05,-7e-05,-1e-05,0.00022,3
13821,14349,-5e-05,-7e-05,-1e-05,0.0,2.9999999999999997e-05,-1e-05,1e-05,0.00033999999999999997,3
13822,14350,-0.0001,-0.00037999999999999997,-2.9999999999999997e-05,-2.9999999999999997e-05,-4e-05,-0.00011,-4e-05,-2e-05,3
13823,14351,-0.0001,-0.00037999999999999997,-2.9999999999999997e-05,-2.9999999999999997e-05,-4e-05,-0.00011,-4e-05,-2e-05,3
13824,14352,-0.0001,-0.00037999999999999997,-2.9999999999999997e-05,-2.9999999999999997e-05,-4e-05,-0.00011,-4e-05,-2e-05,3
13825,14353,-0.0001,-0.00037999999999999997,-2.9999999999999997e-05,-2.9999999999999997e-05,-4e-05,-0.00011,-4e-05,-2e-05,3
13826,14354,-0.0001,-0.00037999999999999997,-2.9999999999999997e-05,-2.9999999999999997e-05,-4e-05,-0.00011,-4e-05,-2e-05,3
13827,14355,-0.0001,-0.00037999999999999997,-2.9999999999999997e-05,-2.9999999999999997e-05,-4e-05,-0.00011,-4e-05,-2e-05,3
13828,14356,-0.0001,-0.00037999999999999997,-2.9999999999999997e-05,-2.9999999999999997e-05,-4e-05,-0.00011,-4e-05,-2e-05,3
13829,14357,-0.0001,-0.00037999999999999997,-2.9999999999999997e-05,-2.9999999999999997e-05,-4e-05,-0.00011,-4e-05,-2e-05,3
13830,14358,-0.0001,-0.00037999999999999997,-2.9999999999999997e-05,-2.9999999999999997e-05,-4e-05,-0.00011,-4e-05,-2e-05,3
13831,14359,-0.0001,-0.00037999999999999997,-2.9999999999999997e-05,-2.9999999999999997e-05,-4e-05,-0.00011,-4e-05,-2e-05,3
13832,14361,-0.0001,-0.00037999999999999997,-2.9999999999999997e-05,-2.9999999999999997e-05,-4e-05,-0.00011,-4e-05,-2e-05,3
13833,14362,-0.0001,-0.00037999999999999997,-2.9999999999999997e-05,-2.9999999999999997e-05,-4e-05,-0.00011,-4e-05,-2e-05,3
13834,14363,-0.0001,-0.00037999999999999997,-2.9999999999999997e-05,-2.9999999999999997e-05,-4e-05,-0.00011,-4e-05,-2e-05,3
13835,14364,-0.0001,-0.00037999999999999997,-2.9999999999999997e-05,-2.9999999999999997e-05,-4e-05,-0.00011,-4e-05,-2e-05,3
13836,14365,-0.0001,-0.00037999999999999997,-2.9999999999999997e-05,-2.9999999999999997e-05,-4e-05,-0.00011,-4e-05,-2e-05,3
13837,14366,-0.0001,-0.00037999999999999997,-2.9999999999999997e-05,-2.9999999999999997e-05,-4e-05,-0.00011,-4e-05,-2e-05,3
13838,14367,-0.0001,-0.00037999999999999997,-2.9999999999999997e-05,-2.9999999999999997e-05,-4e-05,-0.00011,-4e-05,-2e-05,3
13839,14368,-0.0001,-0.00037999999999999997,-2.9999999999999997e-05,-2.9999999999999997e-05,-4e-05,-0.00011,-4e-05,-2e-05,3
13840,14369,-0.0001,-0.00037999999999999997,-2.9999999999999997e-05,-2.9999999999999997e-05,-4e-05,-0.00011,-4e-05,-2e-05,3
13841,14370,-0.0001,-0.00037999999999999997,-2.9999999999999997e-05,-2.9999999999999997e-05,-4e-05,-0.00011,-4e-05,-2e-05,3
13842,14371,-0.0001,-0.00037999999999999997,-2.9999999999999997e-05,-2.9999999999999997e-05,-4e-05,-0.00011,-4e-05,-2e-05,3
13843,14372,-0.0001,-0.00037999999999999997,-2.9999999999999997e-05,-2.9999999999999997e-05,-4e-05,-0.00011,-4e-05,-2e-05,3
13844,14373,-0.00022999999999999998,-0.00033999999999999997,-0.0001,-5.9999999999999995e-05,0.0,0.0,-0.0001,-0.00066,3
13845,14374,0.00016999999999999999,0.00016,5e-05,4e-05,-1e-05,4e-05,-2.9999999999999997e-05,0.00043,3
13846,14375,0.00016999999999999999,0.00016,5e-05,4e-05,-1e-05,4e-05,-2.9999999999999997e-05,0.00043,3
13847,14376,0.00016999999999999999,0.00016,5e-05,4e-05,-1e-05,4e-05,-2.9999999999999997e-05,0.00043,3
13848,14377,0.00016999999999999999,0.00016,5e-05,4e-05,-1e-05,4e-05,-2.9999999999999997e-05,0.00043,3
13849,14378,0.00016999999999999999,0.00016,5e-05,4e-05,-1e-05,4e-05,-2.9999999999999997e-05,0.00043,3
13850,14379,0.00016999999999999999,0.00016,5e-05,4e-05,-1e-05,4e-05,-2.9999999999999997e-05,0.00043,3
13851,14380,0.00016999999999999999,0.00016,5e-05,4e-05,-1e-05,4e-05,-2.9999999999999997e-05,0.00043,3
13852,14381,0.00016999999999999999,0.00016,5e-05,4e-05,-1e-05,4e-05,-2.9999999999999997e-05,0.00043,3
13853,14382,0.00016999999999999999,0.00016,5e-05,4e-05,-1e-05,4e-05,-2.9999999999999997e-05,0.00043,3
13854,14383,0.00016999999999999999,0.00016,5e-05,4e-05,-1e-05,4e-05,-2.9999999999999997e-05,0.00043,3
13855,14384,0.00016999999999999999,0.00016,5e-05,4e-05,-1e-05,4e-05,-2.9999999999999997e-05,0.00043,3
13856,14385,0.00016999999999999999,0.00016,5e-05,4e-05,-1e-05,4e-05,-2.9999999999999997e-05,0.00043,3
13857,14387,0.0001,-0.0001,-7e-05,-2.9999999999999997e-05,-4e-05,-0.0001,0.0,0.00018,3
13858,14389,0.0001,-0.0001,-7e-05,-2.9999999999999997e-05,-4e-05,-0.0001,0.0,0.00018,3
13859,14390,0.0001,-0.0001,-7e-05,-2.9999999999999997e-05,-4e-05,-0.0001,0.0,0.00018,3
13860,14391,0.0001,-0.0001,-7e-05,-2.9999999999999997e-05,-4e-05,-0.0001,0.0,0.00018,3
13861,14392,0.0001,-0.0001,-7e-05,-2.9999999999999997e-05,-4e-05,-0.0001,0.0,0.00018,3
13862,14393,0.0001,-0.0001,-7e-05,-2.9999999999999997e-05,-4e-05,-0.0001,0.0,0.00018,3
13863,14394,-5.9999999999999995e-05,2e-05,4e-05,-1e-05,0.0,-4e-05,-7e-05,0.00037,3
13864,14395,-5.9999999999999995e-05,2e-05,4e-05,-1e-05,0.0,-4e-05,-7e-05,0.00037,3
13865,14396,-5.9999999999999995e-05,2e-05,4e-05,-1e-05,0.0,-4e-05,-7e-05,0.00037,3
13866,14397,-5.9999999999999995e-05,2e-05,4e-05,-1e-05,0.0,-4e-05,-7e-05,0.00037,3
13867,14398,-5.9999999999999995e-05,2e-05,4e-05,-1e-05,0.0,-4e-05,-7e-05,0.00037,3
13868,14399,-5.9999999999999995e-05,2e-05,4e-05,-1e-05,0.0,-4e-05,-7e-05,0.00037,3
