,time,channel1,channel2,channel3,channel4,channel5,channel6,channel7,channel8,class
11454,11871,-0.0007599999999999999,0.00045999999999999996,0.0,-8e-05,-0.00023999999999999998,-0.00035,-5.9999999999999995e-05,-2.9999999999999997e-05,3
11455,11872,-0.0007599999999999999,0.00045999999999999996,0.0,-8e-05,-0.00023999999999999998,-0.00035,-5.9999999999999995e-05,-2.9999999999999997e-05,3
11456,11873,-2.9999999999999997e-05,5.9999999999999995e-05,4e-05,1e-05,0.00015,-8e-05,2e-05,0.0003,3
11457,11874,-0.00033,-0.0007599999999999999,1e-05,-5.9999999999999995e-05,0.00027,0.0007099999999999999,0.00022,4e-05,3
11458,11875,-0.00033,-0.0007599999999999999,1e-05,-5.9999999999999995e-05,0.00027,0.0007099999999999999,0.00022,4e-05,3
11459,11876,-0.00033,-0.0007599999999999999,1e-05,-5.9999999999999995e-05,0.00027,0.0007099999999999999,0.00022,4e-05,3
11460,11877,-0.00033,-0.0007599999999999999,1e-05,-5.9999999999999995e-05,0.00027,0.0007099999999999999,0.00022,4e-05,3
11461,11878,-0.00033,-0.0007599999999999999,1e-05,-5.9999999999999995e-05,0.00027,0.0007099999999999999,0.00022,4e-05,3
11462,11879,-0.00033,-0.0007599999999999999,1e-05,-5.9999999999999995e-05,0.00027,0.0007099999999999999,0.00022,4e-05,3
11463,11880,-0.00033,-0.0007599999999999999,1e-05,-5.9999999999999995e-05,0.00027,0.0007099999999999999,0.00022,4e-05,3
11464,11881,-0.00033,-0.0007599999999999999,1e-05,-5.9999999999999995e-05,0.00027,0.0007099999999999999,0.00022,4e-05,3
11465,11882,-0.00033,-0.0007599999999999999,1e-05,-5.9999999999999995e-05,0.00027,0.0007099999999999999,0.00022,4e-05,3
11466,11883,-0.00033,-0.0007599999999999999,1e-05,-5.9999999999999995e-05,0.00027,0.0007099999999999999,0.00022,4e-05,3
11467,11884,-0.00033,-0.0007599999999999999,1e-05,-5.9999999999999995e-05,0.00027,0.0007099999999999999,0.00022,4e-05,3
11468,11885,-0.00033,-0.0007599999999999999,1e-05,-5.9999999999999995e-05,0.00027,0.0007099999999999999,0.00022,4e-05,3
11469,11886,-0.00033,-0.0007599999999999999,1e-05,-5.9999999999999995e-05,0.00027,0.0007099999999999999,0.00022,4e-05,3
11470,11888,-0.00033,-0.0007599999999999999,1e-05,-5.9999999999999995e-05,0.00027,0.0007099999999999999,0.00022,4e-05,3
11471,11889,-0.00033,-0.0007599999999999999,1e-05,-5.9999999999999995e-05,0.00027,0.0007099999999999999,0.00022,4e-05,3
11472,11890,-0.00033,-0.0007599999999999999,1e-05,-5.9999999999999995e-05,0.00027,0.0007099999999999999,0.00022,4e-05,3
11473,11891,-0.00033,-0.0007599999999999999,1e-05,-5.9999999999999995e-05,0.00027,0.0007099999999999999,0.00022,4e-05,3
11474,11892,-0.00033,-0.0007599999999999999,1e-05,-5.9999999999999995e-05,0.00027,0.0007099999999999999,0.00022,4e-05,3
11475,11893,-0.00033,-0.0007599999999999999,1e-05,-5.9999999999999995e-05,0.00027,0.0007099999999999999,0.00022,4e-05,3
11476,11894,-0.00033,-0.0007599999999999999,1e-05,-5.9999999999999995e-05,0.00027,0.0007099999999999999,0.00022,4e-05,3
11477,11895,0.00025,-0.00061,-0.00018999999999999998,-5e-05,-7e-05,-0.00013000000000000002,2e-05,-0.00064,3
11478,11896,0.00025,-0.00061,-0.00018999999999999998,-5e-05,-7e-05,-0.00013000000000000002,2e-05,-0.00064,3
11479,11897,0.00043,0.00063,7e-05,-2e-05,-0.0004,0.00105,7e-05,-0.00023999999999999998,3
11480,11898,0.00043,0.00063,7e-05,-2e-05,-0.0004,0.00105,7e-05,-0.00023999999999999998,3
11481,11899,0.00043,0.00063,7e-05,-2e-05,-0.0004,0.00105,7e-05,-0.00023999999999999998,3
11482,11900,0.00043,0.00063,7e-05,-2e-05,-0.0004,0.00105,7e-05,-0.00023999999999999998,3
11483,11901,0.00043,0.00063,7e-05,-2e-05,-0.0004,0.00105,7e-05,-0.00023999999999999998,3
11484,11902,0.00043,0.00063,7e-05,-2e-05,-0.0004,0.00105,7e-05,-0.00023999999999999998,3
11485,11903,0.00043,0.00063,7e-05,-2e-05,-0.0004,0.00105,7e-05,-0.00023999999999999998,3
11486,11904,0.00043,0.00063,7e-05,-2e-05,-0.0004,0.00105,7e-05,-0.00023999999999999998,3
11487,11905,0.00043,0.00063,7e-05,-2e-05,-0.0004,0.00105,7e-05,-0.00023999999999999998,3
11488,11906,0.00043,0.00063,7e-05,-2e-05,-0.0004,0.00105,7e-05,-0.00023999999999999998,3
11489,11907,0.00043,0.00063,7e-05,-2e-05,-0.0004,0.00105,7e-05,-0.00023999999999999998,3
11490,11908,0.00043,0.00063,7e-05,-2e-05,-0.0004,0.00105,7e-05,-0.00023999999999999998,3
11491,11909,0.0007,0.0007700000000000001,2.9999999999999997e-05,5e-05,-8e-05,-0.00042,-0.0001,0.0004,3
11492,11910,0.0007,0.0007700000000000001,2.9999999999999997e-05,5e-05,-8e-05,-0.00042,-0.0001,0.0004,3
11493,11911,0.0007,0.0007700000000000001,2.9999999999999997e-05,5e-05,-8e-05,-0.00042,-0.0001,0.0004,3
11494,11912,0.0007,0.0007700000000000001,2.9999999999999997e-05,5e-05,-8e-05,-0.00042,-0.0001,0.0004,3
11495,11913,0.0007,0.0007700000000000001,2.9999999999999997e-05,5e-05,-8e-05,-0.00042,-0.0001,0.0004,3
11496,11914,0.0007,0.0007700000000000001,2.9999999999999997e-05,5e-05,-8e-05,-0.00042,-0.0001,0.0004,3
11497,11915,0.0007,0.0007700000000000001,2.9999999999999997e-05,5e-05,-8e-05,-0.00042,-0.0001,0.0004,3
11498,11916,0.0007,0.0007700000000000001,2.9999999999999997e-05,5e-05,-8e-05,-0.00042,-0.0001,0.0004,3
11499,11917,0.0007,0.0007700000000000001,2.9999999999999997e-05,5e-05,-8e-05,-0.00042,-0.0001,0.0004,3
11500,11918,0.00029,0.00059,5.9999999999999995e-05,2e-05,-0.0003,-0.00035,5.9999999999999995e-05,-0.00074,3
11501,11919,0.00029,0.00059,5.9999999999999995e-05,2e-05,-0.0003,-0.00035,5.9999999999999995e-05,-0.00074,3
11502,11920,0.00029,0.00059,5.9999999999999995e-05,2e-05,-0.0003,-0.00035,5.9999999999999995e-05,-0.00074,3
11503,11921,0.00029,0.00059,5.9999999999999995e-05,2e-05,-0.0003,-0.00035,5.9999999999999995e-05,-0.00074,3
11504,11922,0.00029,0.00059,5.9999999999999995e-05,2e-05,-0.0003,-0.00035,5.9999999999999995e-05,-0.00074,3
11505,11923,0.00029,0.00059,5.9999999999999995e-05,2e-05,-0.0003,-0.00035,5.9999999999999995e-05,-0.00074,3
11506,11924,0.00029,0.00059,5.9999999999999995e-05,2e-05,-0.0003,-0.00035,5.9999999999999995e-05,-0.00074,3
11507,11925,0.00029,0.00059,5.9999999999999995e-05,2e-05,-0.0003,-0.00035,5.9999999999999995e-05,-0.00074,3
11508,11926,0.00029,0.00059,5.9999999999999995e-05,2e-05,-0.0003,-0.00035,5.9999999999999995e-05,-0.00074,3
11509,11927,0.00029,0.00059,5.9999999999999995e-05,2e-05,-0.0003,-0.00035,5.9999999999999995e-05,-0.00074,3
11510,11928,0.00029,0.00059,5.9999999999999995e-05,2e-05,-0.0003,-0.00035,5.9999999999999995e-05,-0.00074,3
11511,11929,0.00029,0.00059,5.9999999999999995e-05,2e-05,-0.0003,-0.00035,5.9999999999999995e-05,-0.00074,3
11512,11930,0.00029,0.00059,5.9999999999999995e-05,2e-05,-0.0003,-0.00035,5.9999999999999995e-05,-0.00074,3
11513,11931,0.00029,0.00059,5.9999999999999995e-05,2e-05,-0.0003,-0.00035,5.9999999999999995e-05,-0.00074,3
11514,11932,0.00029,0.00059,5.9999999999999995e-05,2e-05,-0.0003,-0.00035,5.9999999999999995e-05,-0.00074,3
11515,11933,0.00035,0.0012699999999999999,0.00022999999999999998,4e-05,0.00049,0.0,8e-05,-0.0004,3
11516,11934,-0.0008900000000000001,0.00057,2e-05,5.9999999999999995e-05,0.00022999999999999998,-0.00029,-0.00026000000000000003,-0.00011999999999999999,3
11517,11935,-0.0008900000000000001,0.00057,2e-05,5.9999999999999995e-05,0.00022999999999999998,-0.00029,-0.00026000000000000003,-0.00011999999999999999,3
11518,11936,-0.0008900000000000001,0.00057,2e-05,5.9999999999999995e-05,0.00022999999999999998,-0.00029,-0.00026000000000000003,-0.00011999999999999999,3
11519,11938,-0.0008900000000000001,0.00057,2e-05,5.9999999999999995e-05,0.00022999999999999998,-0.00029,-0.00026000000000000003,-0.00011999999999999999,3
11520,11939,-0.0008900000000000001,0.00057,2e-05,5.9999999999999995e-05,0.00022999999999999998,-0.00029,-0.00026000000000000003,-0.00011999999999999999,3
11521,11940,-0.0008900000000000001,0.00057,2e-05,5.9999999999999995e-05,0.00022999999999999998,-0.00029,-0.00026000000000000003,-0.00011999999999999999,3
11522,11941,-0.0008900000000000001,0.00057,2e-05,5.9999999999999995e-05,0.00022999999999999998,-0.00029,-0.00026000000000000003,-0.00011999999999999999,3
11523,11942,-0.0008900000000000001,0.00057,2e-05,5.9999999999999995e-05,0.00022999999999999998,-0.00029,-0.00026000000000000003,-0.00011999999999999999,3
11524,11943,-0.0008900000000000001,0.00057,2e-05,5.9999999999999995e-05,0.00022999999999999998,-0.00029,-0.00026000000000000003,-0.00011999999999999999,3
11525,11944,-0.0008900000000000001,0.00057,2e-05,5.9999999999999995e-05,0.00022999999999999998,-0.00029,-0.00026000000000000003,-0.00011999999999999999,3
11526,11945,-0.0008900000000000001,0.00057,2e-05,5.9999999999999995e-05,0.00022999999999999998,-0.00029,-0.00026000000000000003,-0.00011999999999999999,3
11527,11946,-0.0008900000000000001,0.00057,2e-05,5.9999999999999995e-05,0.00022999999999999998,-0.00029,-0.00026000000000000003,-0.00011999999999999999,3
11528,11947,-0.0008900000000000001,0.00057,2e-05,5.9999999999999995e-05,0.00022999999999999998,-0.00029,-0.00026000000000000003,-0.00011999999999999999,3
11529,11948,-0.0008900000000000001,0.00057,2e-05,5.9999999999999995e-05,0.00022999999999999998,-0.00029,-0.00026000000000000003,-0.00011999999999999999,3
11530,11949,-0.0008900000000000001,0.00057,2e-05,5.9999999999999995e-05,0.00022999999999999998,-0.00029,-0.00026000000000000003,-0.00011999999999999999,3
11531,11950,-0.0008900000000000001,0.00057,2e-05,5.9999999999999995e-05,0.00022999999999999998,-0.00029,-0.00026000000000000003,-0.00011999999999999999,3
11532,11951,-0.0008900000000000001,0.00057,2e-05,5.9999999999999995e-05,0.00022999999999999998,-0.00029,-0.00026000000000000003,-0.00011999999999999999,3
11533,11952,-0.0008900000000000001,0.00057,2e-05,5.9999999999999995e-05,0.00022999999999999998,-0.00029,-0.00026000000000000003,-0.00011999999999999999,3
11534,11953,-0.0008900000000000001,0.00057,2e-05,5.9999999999999995e-05,0.00022999999999999998,-0.00029,-0.00026000000000000003,-0.00011999999999999999,3
11535,11954,-0.0008900000000000001,0.00057,2e-05,5.9999999999999995e-05,0.00022999999999999998,-0.00029,-0.00026000000000000003,-0.00011999999999999999,3
11536,11955,-0.00014,0.00063,0.00016999999999999999,9e-05,0.00072,0.00093,0.00035,8e-05,3
11537,11956,-0.00014,0.00063,0.00016999999999999999,9e-05,0.00072,0.00093,0.00035,8e-05,3
11538,11957,-0.00021,0.00021,0.0001,5.9999999999999995e-05,-0.00049,-0.00109,4e-05,0.00121,3
11539,11958,-0.00021,0.00021,0.0001,5.9999999999999995e-05,-0.00049,-0.00109,4e-05,0.00121,3
11540,11959,-0.00021,0.00021,0.0001,5.9999999999999995e-05,-0.00049,-0.00109,4e-05,0.00121,3
11541,11960,-0.00021,0.00021,0.0001,5.9999999999999995e-05,-0.00049,-0.00109,4e-05,0.00121,3
11542,11961,-0.00021,0.00021,0.0001,5.9999999999999995e-05,-0.00049,-0.00109,4e-05,0.00121,3
11543,11962,-0.00021,0.00021,0.0001,5.9999999999999995e-05,-0.00049,-0.00109,4e-05,0.00121,3
11544,11963,-0.00021,0.00021,0.0001,5.9999999999999995e-05,-0.00049,-0.00109,4e-05,0.00121,3
11545,11964,-0.00021,0.00021,0.0001,5.9999999999999995e-05,-0.00049,-0.00109,4e-05,0.00121,3
11546,11965,-0.00021,0.00021,0.0001,5.9999999999999995e-05,-0.00049,-0.00109,4e-05,0.00121,3
11547,11966,-0.00021,0.00021,0.0001,5.9999999999999995e-05,-0.00049,-0.00109,4e-05,0.00121,3
11548,11967,-0.00021,0.00021,0.0001,5.9999999999999995e-05,-0.00049,-0.00109,4e-05,0.00121,3
11549,11968,-0.00021,0.00021,0.0001,5.9999999999999995e-05,-0.00049,-0.00109,4e-05,0.00121,3
11550,11969,0.0,0.0008900000000000001,5.9999999999999995e-05,-4e-05,-0.00075,-0.00098,-2.9999999999999997e-05,-0.00066,3
11551,11970,0.0,0.0008900000000000001,5.9999999999999995e-05,-4e-05,-0.00075,-0.00098,-2.9999999999999997e-05,-0.00066,3
11552,11971,0.0,0.0008900000000000001,5.9999999999999995e-05,-4e-05,-0.00075,-0.00098,-2.9999999999999997e-05,-0.00066,3
11553,11972,0.0,0.0008900000000000001,5.9999999999999995e-05,-4e-05,-0.00075,-0.00098,-2.9999999999999997e-05,-0.00066,3
11554,11973,0.0,0.0008900000000000001,5.9999999999999995e-05,-4e-05,-0.00075,-0.00098,-2.9999999999999997e-05,-0.00066,3
11555,11974,0.0,0.0008900000000000001,5.9999999999999995e-05,-4e-05,-0.00075,-0.00098,-2.9999999999999997e-05,-0.00066,3
11556,11975,0.0,0.0008900000000000001,5.9999999999999995e-05,-4e-05,-0.00075,-0.00098,-2.9999999999999997e-05,-0.00066,3
11557,11976,0.0,0.0008900000000000001,5.9999999999999995e-05,-4e-05,-0.00075,-0.00098,-2.9999999999999997e-05,-0.00066,3
11558,11978,0.0,0.0008900000000000001,5.9999999999999995e-05,-4e-05,-0.00075,-0.00098,-2.9999999999999997e-05,-0.00066,3
11559,11979,0.00085,0.0005099999999999999,-9e-05,-1e-05,0.00029,-0.00063,-0.00021,0.0005,3
11560,11980,0.00085,0.0005099999999999999,-9e-05,-1e-05,0.00029,-0.00063,-0.00021,0.0005,3
11561,11981,0.00085,0.0005099999999999999,-9e-05,-1e-05,0.00029,-0.00063,-0.00021,0.0005,3
11562,11982,0.00085,0.0005099999999999999,-9e-05,-1e-05,0.00029,-0.00063,-0.00021,0.0005,3
11563,11983,0.00085,0.0005099999999999999,-9e-05,-1e-05,0.00029,-0.00063,-0.00021,0.0005,3
11564,11984,0.00085,0.0005099999999999999,-9e-05,-1e-05,0.00029,-0.00063,-0.00021,0.0005,3
11565,11985,0.00085,0.0005099999999999999,-9e-05,-1e-05,0.00029,-0.00063,-0.00021,0.0005,3
11566,11986,0.00085,0.0005099999999999999,-9e-05,-1e-05,0.00029,-0.00063,-0.00021,0.0005,3
11567,11988,0.00085,0.0005099999999999999,-9e-05,-1e-05,0.00029,-0.00063,-0.00021,0.0005,3
11568,11989,0.00085,0.0005099999999999999,-9e-05,-1e-05,0.00029,-0.00063,-0.00021,0.0005,3
11569,11990,0.00085,0.0005099999999999999,-9e-05,-1e-05,0.00029,-0.00063,-0.00021,0.0005,3
11570,11991,0.00085,0.0005099999999999999,-9e-05,-1e-05,0.00029,-0.00063,-0.00021,0.0005,3
11571,11992,0.00085,0.0005099999999999999,-9e-05,-1e-05,0.00029,-0.00063,-0.00021,0.0005,3
11572,11993,-0.00047000000000000004,-0.00084,-0.00011999999999999999,-5e-05,0.00016999999999999999,0.0001,-9e-05,0.00018999999999999998,3
11573,11994,0.00031,-0.0012699999999999999,-0.00033,-0.00016999999999999999,4e-05,-0.00042,-0.00014,-0.00066,3
11574,11995,0.00031,-0.0012699999999999999,-0.00033,-0.00016999999999999999,4e-05,-0.00042,-0.00014,-0.00066,3
11575,11996,0.00031,-0.0012699999999999999,-0.00033,-0.00016999999999999999,4e-05,-0.00042,-0.00014,-0.00066,3
11576,11997,0.00031,-0.0012699999999999999,-0.00033,-0.00016999999999999999,4e-05,-0.00042,-0.00014,-0.00066,3
11577,11998,0.00031,-0.0012699999999999999,-0.00033,-0.00016999999999999999,4e-05,-0.00042,-0.00014,-0.00066,3
11578,11999,0.00031,-0.0012699999999999999,-0.00033,-0.00016999999999999999,4e-05,-0.00042,-0.00014,-0.00066,3
11579,12000,0.00031,-0.0012699999999999999,-0.00033,-0.00016999999999999999,4e-05,-0.00042,-0.00014,-0.00066,3
11580,12001,0.00031,-0.0012699999999999999,-0.00033,-0.00016999999999999999,4e-05,-0.00042,-0.00014,-0.00066,3
11581,12002,0.00031,-0.0012699999999999999,-0.00033,-0.00016999999999999999,4e-05,-0.00042,-0.00014,-0.00066,3
11582,12003,0.00031,-0.0012699999999999999,-0.00033,-0.00016999999999999999,4e-05,-0.00042,-0.00014,-0.00066,3
11583,12004,0.00031,-0.0012699999999999999,-0.00033,-0.00016999999999999999,4e-05,-0.00042,-0.00014,-0.00066,3
11584,12005,0.00031,-0.0012699999999999999,-0.00033,-0.00016999999999999999,4e-05,-0.00042,-0.00014,-0.00066,3
11585,12006,0.00031,-0.0012699999999999999,-0.00033,-0.00016999999999999999,4e-05,-0.00042,-0.00014,-0.00066,3
11586,12007,0.00031,-0.0012699999999999999,-0.00033,-0.00016999999999999999,4e-05,-0.00042,-0.00014,-0.00066,3
11587,12008,0.00031,-0.0012699999999999999,-0.00033,-0.00016999999999999999,4e-05,-0.00042,-0.00014,-0.00066,3
11588,12009,0.00031,-0.0012699999999999999,-0.00033,-0.00016999999999999999,4e-05,-0.00042,-0.00014,-0.00066,3
11589,12010,0.00031,-0.0012699999999999999,-0.00033,-0.00016999999999999999,4e-05,-0.00042,-0.00014,-0.00066,3
11590,12011,0.00031,-0.0012699999999999999,-0.00033,-0.00016999999999999999,4e-05,-0.00042,-0.00014,-0.00066,3
11591,12012,0.00031,-0.0012699999999999999,-0.00033,-0.00016999999999999999,4e-05,-0.00042,-0.00014,-0.00066,3
11592,12013,0.00031,-0.0012699999999999999,-0.00033,-0.00016999999999999999,4e-05,-0.00042,-0.00014,-0.00066,3
11593,12014,0.00031,-0.0012699999999999999,-0.00033,-0.00016999999999999999,4e-05,-0.00042,-0.00014,-0.00066,3
11594,12015,0.00022999999999999998,-0.00091,-0.00018,-8e-05,-0.00025,-0.00021,-0.00022999999999999998,8e-05,3
11595,12016,0.00022999999999999998,-0.00091,-0.00018,-8e-05,-0.00025,-0.00021,-0.00022999999999999998,8e-05,3
11596,12017,0.00064,0.00031,5.9999999999999995e-05,-4e-05,-0.00029,-0.00028,0.00018,-2e-05,3
11597,12018,0.00064,0.00031,5.9999999999999995e-05,-4e-05,-0.00029,-0.00028,0.00018,-2e-05,3
11598,12019,0.00064,0.00031,5.9999999999999995e-05,-4e-05,-0.00029,-0.00028,0.00018,-2e-05,3
11599,12020,0.00064,0.00031,5.9999999999999995e-05,-4e-05,-0.00029,-0.00028,0.00018,-2e-05,3
11600,12021,0.00064,0.00031,5.9999999999999995e-05,-4e-05,-0.00029,-0.00028,0.00018,-2e-05,3
11601,12022,0.00064,0.00031,5.9999999999999995e-05,-4e-05,-0.00029,-0.00028,0.00018,-2e-05,3
11602,12023,0.00064,0.00031,5.9999999999999995e-05,-4e-05,-0.00029,-0.00028,0.00018,-2e-05,3
11603,12024,0.00064,0.00031,5.9999999999999995e-05,-4e-05,-0.00029,-0.00028,0.00018,-2e-05,3
11604,12025,0.00064,0.00031,5.9999999999999995e-05,-4e-05,-0.00029,-0.00028,0.00018,-2e-05,3
11605,12026,0.00064,0.00031,5.9999999999999995e-05,-4e-05,-0.00029,-0.00028,0.00018,-2e-05,3
11606,12027,0.00064,0.00031,5.9999999999999995e-05,-4e-05,-0.00029,-0.00028,0.00018,-2e-05,3
11607,12028,0.00064,0.00031,5.9999999999999995e-05,-4e-05,-0.00029,-0.00028,0.00018,-2e-05,3
11608,12029,0.00021,-0.00056,-7e-05,-8e-05,-0.00011,-2e-05,-0.00011999999999999999,0.00108,3
11609,12030,0.00021,-0.00056,-7e-05,-8e-05,-0.00011,-2e-05,-0.00011999999999999999,0.00108,3
11610,12031,0.00021,-0.00056,-7e-05,-8e-05,-0.00011,-2e-05,-0.00011999999999999999,0.00108,3
11611,12032,0.00021,-0.00056,-7e-05,-8e-05,-0.00011,-2e-05,-0.00011999999999999999,0.00108,3
11612,12033,0.00021,-0.00056,-7e-05,-8e-05,-0.00011,-2e-05,-0.00011999999999999999,0.00108,3
11613,12034,0.00021,-0.00056,-7e-05,-8e-05,-0.00011,-2e-05,-0.00011999999999999999,0.00108,3
11614,12035,0.00021,-0.00056,-7e-05,-8e-05,-0.00011,-2e-05,-0.00011999999999999999,0.00108,3
11615,12036,0.00021,-0.00056,-7e-05,-8e-05,-0.00011,-2e-05,-0.00011999999999999999,0.00108,3
11616,12038,0.00047999999999999996,0.00021,8e-05,-1e-05,0.00041,0.00095,-0.00016,0.00072,3
11617,12039,0.00047999999999999996,0.00021,8e-05,-1e-05,0.00041,0.00095,-0.00016,0.00072,3
11618,12040,0.00047999999999999996,0.00021,8e-05,-1e-05,0.00041,0.00095,-0.00016,0.00072,3
11619,12041,0.00047999999999999996,0.00021,8e-05,-1e-05,0.00041,0.00095,-0.00016,0.00072,3
11620,12042,0.00047999999999999996,0.00021,8e-05,-1e-05,0.00041,0.00095,-0.00016,0.00072,3
11621,12043,0.00047999999999999996,0.00021,8e-05,-1e-05,0.00041,0.00095,-0.00016,0.00072,3
11622,12044,0.00047999999999999996,0.00021,8e-05,-1e-05,0.00041,0.00095,-0.00016,0.00072,3
11623,12045,0.00047999999999999996,0.00021,8e-05,-1e-05,0.00041,0.00095,-0.00016,0.00072,3
11624,12046,0.00047999999999999996,0.00021,8e-05,-1e-05,0.00041,0.00095,-0.00016,0.00072,3
11625,12047,0.00047999999999999996,0.00021,8e-05,-1e-05,0.00041,0.00095,-0.00016,0.00072,3
11626,12048,0.00047999999999999996,0.00021,8e-05,-1e-05,0.00041,0.00095,-0.00016,0.00072,3
11627,12049,0.00047999999999999996,0.00021,8e-05,-1e-05,0.00041,0.00095,-0.00016,0.00072,3
11628,12050,0.00047999999999999996,0.00021,8e-05,-1e-05,0.00041,0.00095,-0.00016,0.00072,3
11629,12051,0.00047999999999999996,0.00021,8e-05,-1e-05,0.00041,0.00095,-0.00016,0.00072,3
11630,12052,0.00047999999999999996,0.00021,8e-05,-1e-05,0.00041,0.00095,-0.00016,0.00072,3
11631,12053,7e-05,0.00027,8e-05,-7e-05,-0.00041,-0.0008699999999999999,-9e-05,-0.0007,3
11632,12054,-0.00093,-0.0007,-5e-05,-2e-05,0.00023999999999999998,0.00025,-7e-05,-0.0009,3
11633,12055,-0.00093,-0.0007,-5e-05,-2e-05,0.00023999999999999998,0.00025,-7e-05,-0.0009,3
11634,12056,-0.00093,-0.0007,-5e-05,-2e-05,0.00023999999999999998,0.00025,-7e-05,-0.0009,3
11635,12057,-0.00093,-0.0007,-5e-05,-2e-05,0.00023999999999999998,0.00025,-7e-05,-0.0009,3
11636,12058,-0.00093,-0.0007,-5e-05,-2e-05,0.00023999999999999998,0.00025,-7e-05,-0.0009,3
11637,12059,-0.00093,-0.0007,-5e-05,-2e-05,0.00023999999999999998,0.00025,-7e-05,-0.0009,3
11638,12060,-0.00093,-0.0007,-5e-05,-2e-05,0.00023999999999999998,0.00025,-7e-05,-0.0009,3
11639,12061,-0.00093,-0.0007,-5e-05,-2e-05,0.00023999999999999998,0.00025,-7e-05,-0.0009,3
11640,12062,-0.00093,-0.0007,-5e-05,-2e-05,0.00023999999999999998,0.00025,-7e-05,-0.0009,3
11641,12063,-0.00093,-0.0007,-5e-05,-2e-05,0.00023999999999999998,0.00025,-7e-05,-0.0009,3
11642,12064,-0.00093,-0.0007,-5e-05,-2e-05,0.00023999999999999998,0.00025,-7e-05,-0.0009,3
11643,12065,-0.00093,-0.0007,-5e-05,-2e-05,0.00023999999999999998,0.00025,-7e-05,-0.0009,3
11644,12066,-0.00093,-0.0007,-5e-05,-2e-05,0.00023999999999999998,0.00025,-7e-05,-0.0009,3
11645,12067,-0.00093,-0.0007,-5e-05,-2e-05,0.00023999999999999998,0.00025,-7e-05,-0.0009,3
11646,12068,-0.00093,-0.0007,-5e-05,-2e-05,0.00023999999999999998,0.00025,-7e-05,-0.0009,3
11647,12069,-0.00093,-0.0007,-5e-05,-2e-05,0.00023999999999999998,0.00025,-7e-05,-0.0009,3
11648,12070,-0.00093,-0.0007,-5e-05,-2e-05,0.00023999999999999998,0.00025,-7e-05,-0.0009,3
11649,12071,-0.00093,-0.0007,-5e-05,-2e-05,0.00023999999999999998,0.00025,-7e-05,-0.0009,3
11650,12072,-0.00093,-0.0007,-5e-05,-2e-05,0.00023999999999999998,0.00025,-7e-05,-0.0009,3
11651,12073,-0.00093,-0.0007,-5e-05,-2e-05,0.00023999999999999998,0.00025,-7e-05,-0.0009,3
11652,12074,-0.00093,-0.0007,-5e-05,-2e-05,0.00023999999999999998,0.00025,-7e-05,-0.0009,3
11653,12075,-0.00011,0.00033,-2e-05,0.00016999999999999999,0.00039,0.00059,-0.00015,-0.00067,3
11654,12076,-0.00011,0.00033,-2e-05,0.00016999999999999999,0.00039,0.00059,-0.00015,-0.00067,3
11655,12077,0.00033999999999999997,0.00073,2.9999999999999997e-05,2.9999999999999997e-05,-0.00022,-0.00032,-0.0001,0.0006900000000000001,3
11656,12078,0.00033999999999999997,0.00073,2.9999999999999997e-05,2.9999999999999997e-05,-0.00022,-0.00032,-0.0001,0.0006900000000000001,3
11657,12079,0.00033999999999999997,0.00073,2.9999999999999997e-05,2.9999999999999997e-05,-0.00022,-0.00032,-0.0001,0.0006900000000000001,3
11658,12080,0.00033999999999999997,0.00073,2.9999999999999997e-05,2.9999999999999997e-05,-0.00022,-0.00032,-0.0001,0.0006900000000000001,3
11659,12081,0.00033999999999999997,0.00073,2.9999999999999997e-05,2.9999999999999997e-05,-0.00022,-0.00032,-0.0001,0.0006900000000000001,3
11660,12082,0.00033999999999999997,0.00073,2.9999999999999997e-05,2.9999999999999997e-05,-0.00022,-0.00032,-0.0001,0.0006900000000000001,3
11661,12083,0.00033999999999999997,0.00073,2.9999999999999997e-05,2.9999999999999997e-05,-0.00022,-0.00032,-0.0001,0.0006900000000000001,3
11662,12084,0.00033999999999999997,0.00073,2.9999999999999997e-05,2.9999999999999997e-05,-0.00022,-0.00032,-0.0001,0.0006900000000000001,3
11663,12085,0.00033999999999999997,0.00073,2.9999999999999997e-05,2.9999999999999997e-05,-0.00022,-0.00032,-0.0001,0.0006900000000000001,3
11664,12086,0.00033999999999999997,0.00073,2.9999999999999997e-05,2.9999999999999997e-05,-0.00022,-0.00032,-0.0001,0.0006900000000000001,3
11665,12088,0.00033999999999999997,0.00073,2.9999999999999997e-05,2.9999999999999997e-05,-0.00022,-0.00032,-0.0001,0.0006900000000000001,3
11666,12089,-0.00061,-0.0009699999999999999,-0.00021,-0.0001,0.00075,0.0005200000000000001,0.00015,-0.0008300000000000001,3
11667,12090,-0.00061,-0.0009699999999999999,-0.00021,-0.0001,0.00075,0.0005200000000000001,0.00015,-0.0008300000000000001,3
11668,12091,-0.00061,-0.0009699999999999999,-0.00021,-0.0001,0.00075,0.0005200000000000001,0.00015,-0.0008300000000000001,3
11669,12092,-0.00061,-0.0009699999999999999,-0.00021,-0.0001,0.00075,0.0005200000000000001,0.00015,-0.0008300000000000001,3
11670,12093,-0.00061,-0.0009699999999999999,-0.00021,-0.0001,0.00075,0.0005200000000000001,0.00015,-0.0008300000000000001,3
11671,12094,-0.00061,-0.0009699999999999999,-0.00021,-0.0001,0.00075,0.0005200000000000001,0.00015,-0.0008300000000000001,3
11672,12095,-0.00061,-0.0009699999999999999,-0.00021,-0.0001,0.00075,0.0005200000000000001,0.00015,-0.0008300000000000001,3
11673,12096,-0.00061,-0.0009699999999999999,-0.00021,-0.0001,0.00075,0.0005200000000000001,0.00015,-0.0008300000000000001,3
11674,12097,-0.00061,-0.0009699999999999999,-0.00021,-0.0001,0.00075,0.0005200000000000001,0.00015,-0.0008300000000000001,3
11675,12098,-0.00021,0.0005200000000000001,-9e-05,-1e-05,0.0002,1e-05,0.00011,-0.00035,3
11676,12099,-0.00021,0.0005200000000000001,-9e-05,-1e-05,0.0002,1e-05,0.00011,-0.00035,3
11677,12100,-0.00021,0.0005200000000000001,-9e-05,-1e-05,0.0002,1e-05,0.00011,-0.00035,3
11678,12101,-0.00021,0.0005200000000000001,-9e-05,-1e-05,0.0002,1e-05,0.00011,-0.00035,3
11679,12102,-0.00021,0.0005200000000000001,-9e-05,-1e-05,0.0002,1e-05,0.00011,-0.00035,3
11680,12103,-0.00021,0.0005200000000000001,-9e-05,-1e-05,0.0002,1e-05,0.00011,-0.00035,3
11681,12104,-0.00021,0.0005200000000000001,-9e-05,-1e-05,0.0002,1e-05,0.00011,-0.00035,3
11682,12105,-0.00021,0.0005200000000000001,-9e-05,-1e-05,0.0002,1e-05,0.00011,-0.00035,3
11683,12106,-0.00021,0.0005200000000000001,-9e-05,-1e-05,0.0002,1e-05,0.00011,-0.00035,3
11684,12107,-0.00021,0.0005200000000000001,-9e-05,-1e-05,0.0002,1e-05,0.00011,-0.00035,3
11685,12108,-0.00021,0.0005200000000000001,-9e-05,-1e-05,0.0002,1e-05,0.00011,-0.00035,3
11686,12109,-0.00021,0.0005200000000000001,-9e-05,-1e-05,0.0002,1e-05,0.00011,-0.00035,3
11687,12110,-0.00021,0.0005200000000000001,-9e-05,-1e-05,0.0002,1e-05,0.00011,-0.00035,3
11688,12111,-0.00021,0.0005200000000000001,-9e-05,-1e-05,0.0002,1e-05,0.00011,-0.00035,3
11689,12112,-0.00021,0.0005200000000000001,-9e-05,-1e-05,0.0002,1e-05,0.00011,-0.00035,3
11690,12113,0.0005099999999999999,0.00033,8e-05,-5.9999999999999995e-05,-0.0004,-0.0007099999999999999,-4e-05,0.00018999999999999998,3
11691,12114,0.00029,0.0005099999999999999,0.00016,0.00011,-0.00041,0.0007099999999999999,-1e-05,-0.00093,3
11692,12115,0.00029,0.0005099999999999999,0.00016,0.00011,-0.00041,0.0007099999999999999,-1e-05,-0.00093,3
11693,12116,0.00029,0.0005099999999999999,0.00016,0.00011,-0.00041,0.0007099999999999999,-1e-05,-0.00093,3
11694,12117,0.00029,0.0005099999999999999,0.00016,0.00011,-0.00041,0.0007099999999999999,-1e-05,-0.00093,3
11695,12119,0.00029,0.0005099999999999999,0.00016,0.00011,-0.00041,0.0007099999999999999,-1e-05,-0.00093,3
11696,12120,0.00029,0.0005099999999999999,0.00016,0.00011,-0.00041,0.0007099999999999999,-1e-05,-0.00093,3
11697,12121,0.00029,0.0005099999999999999,0.00016,0.00011,-0.00041,0.0007099999999999999,-1e-05,-0.00093,3
11698,12122,0.00029,0.0005099999999999999,0.00016,0.00011,-0.00041,0.0007099999999999999,-1e-05,-0.00093,3
11699,12123,0.00029,0.0005099999999999999,0.00016,0.00011,-0.00041,0.0007099999999999999,-1e-05,-0.00093,3
11700,12124,0.00029,0.0005099999999999999,0.00016,0.00011,-0.00041,0.0007099999999999999,-1e-05,-0.00093,3
11701,12125,0.00029,0.0005099999999999999,0.00016,0.00011,-0.00041,0.0007099999999999999,-1e-05,-0.00093,3
11702,12126,0.00029,0.0005099999999999999,0.00016,0.00011,-0.00041,0.0007099999999999999,-1e-05,-0.00093,3
11703,12127,0.00029,0.0005099999999999999,0.00016,0.00011,-0.00041,0.0007099999999999999,-1e-05,-0.00093,3
11704,12128,0.00029,0.0005099999999999999,0.00016,0.00011,-0.00041,0.0007099999999999999,-1e-05,-0.00093,3
11705,12129,0.00029,0.0005099999999999999,0.00016,0.00011,-0.00041,0.0007099999999999999,-1e-05,-0.00093,3
11706,12130,0.00029,0.0005099999999999999,0.00016,0.00011,-0.00041,0.0007099999999999999,-1e-05,-0.00093,3
11707,12131,0.00029,0.0005099999999999999,0.00016,0.00011,-0.00041,0.0007099999999999999,-1e-05,-0.00093,3
11708,12132,0.00029,0.0005099999999999999,0.00016,0.00011,-0.00041,0.0007099999999999999,-1e-05,-0.00093,3
11709,12133,0.00029,0.0005099999999999999,0.00016,0.00011,-0.00041,0.0007099999999999999,-1e-05,-0.00093,3
11710,12134,0.00029,0.0005099999999999999,0.00016,0.00011,-0.00041,0.0007099999999999999,-1e-05,-0.00093,3
11711,12135,0.0001,0.00057,0.00011999999999999999,-1e-05,-0.00018,0.0007,-0.00025,-0.00029,3
11712,12136,0.0001,0.00057,0.00011999999999999999,-1e-05,-0.00018,0.0007,-0.00025,-0.00029,3
11713,12138,4e-05,-0.0005099999999999999,-0.00011,2e-05,0.00013000000000000002,-0.00084,0.0,-0.00021,3
11714,12139,4e-05,-0.0005099999999999999,-0.00011,2e-05,0.00013000000000000002,-0.00084,0.0,-0.00021,3
11715,12140,4e-05,-0.0005099999999999999,-0.00011,2e-05,0.00013000000000000002,-0.00084,0.0,-0.00021,3
11716,12141,4e-05,-0.0005099999999999999,-0.00011,2e-05,0.00013000000000000002,-0.00084,0.0,-0.00021,3
11717,12142,4e-05,-0.0005099999999999999,-0.00011,2e-05,0.00013000000000000002,-0.00084,0.0,-0.00021,3
11718,12143,4e-05,-0.0005099999999999999,-0.00011,2e-05,0.00013000000000000002,-0.00084,0.0,-0.00021,3
11719,12144,4e-05,-0.0005099999999999999,-0.00011,2e-05,0.00013000000000000002,-0.00084,0.0,-0.00021,3
11720,12145,4e-05,-0.0005099999999999999,-0.00011,2e-05,0.00013000000000000002,-0.00084,0.0,-0.00021,3
11721,12146,4e-05,-0.0005099999999999999,-0.00011,2e-05,0.00013000000000000002,-0.00084,0.0,-0.00021,3
11722,12147,4e-05,-0.0005099999999999999,-0.00011,2e-05,0.00013000000000000002,-0.00084,0.0,-0.00021,3
11723,12148,4e-05,-0.0005099999999999999,-0.00011,2e-05,0.00013000000000000002,-0.00084,0.0,-0.00021,3
11724,12149,-0.00108,0.00016999999999999999,5.9999999999999995e-05,0.00016,-0.00018999999999999998,-0.00016,-7e-05,0.0007700000000000001,3
11725,12150,-0.00108,0.00016999999999999999,5.9999999999999995e-05,0.00016,-0.00018999999999999998,-0.00016,-7e-05,0.0007700000000000001,3
11726,12151,-0.00108,0.00016999999999999999,5.9999999999999995e-05,0.00016,-0.00018999999999999998,-0.00016,-7e-05,0.0007700000000000001,3
11727,12152,-0.00108,0.00016999999999999999,5.9999999999999995e-05,0.00016,-0.00018999999999999998,-0.00016,-7e-05,0.0007700000000000001,3
11728,12153,-0.00108,0.00016999999999999999,5.9999999999999995e-05,0.00016,-0.00018999999999999998,-0.00016,-7e-05,0.0007700000000000001,3
11729,12154,-0.00108,0.00016999999999999999,5.9999999999999995e-05,0.00016,-0.00018999999999999998,-0.00016,-7e-05,0.0007700000000000001,3
11730,12155,-0.00108,0.00016999999999999999,5.9999999999999995e-05,0.00016,-0.00018999999999999998,-0.00016,-7e-05,0.0007700000000000001,3
11731,12156,-0.00108,0.00016999999999999999,5.9999999999999995e-05,0.00016,-0.00018999999999999998,-0.00016,-7e-05,0.0007700000000000001,3
11732,12157,-0.00108,0.00016999999999999999,5.9999999999999995e-05,0.00016,-0.00018999999999999998,-0.00016,-7e-05,0.0007700000000000001,3
11733,12158,-0.00039,-0.00105,-0.0002,-2.9999999999999997e-05,0.00039,0.00016,2e-05,-0.00063,3
11734,12159,-0.00039,-0.00105,-0.0002,-2.9999999999999997e-05,0.00039,0.00016,2e-05,-0.00063,3
11735,12160,-0.00039,-0.00105,-0.0002,-2.9999999999999997e-05,0.00039,0.00016,2e-05,-0.00063,3
11736,12161,-0.00039,-0.00105,-0.0002,-2.9999999999999997e-05,0.00039,0.00016,2e-05,-0.00063,3
11737,12162,-0.00039,-0.00105,-0.0002,-2.9999999999999997e-05,0.00039,0.00016,2e-05,-0.00063,3
11738,12163,-0.00039,-0.00105,-0.0002,-2.9999999999999997e-05,0.00039,0.00016,2e-05,-0.00063,3
11739,12164,-0.00039,-0.00105,-0.0002,-2.9999999999999997e-05,0.00039,0.00016,2e-05,-0.00063,3
11740,12165,-0.00039,-0.00105,-0.0002,-2.9999999999999997e-05,0.00039,0.00016,2e-05,-0.00063,3
11741,12166,-0.00039,-0.00105,-0.0002,-2.9999999999999997e-05,0.00039,0.00016,2e-05,-0.00063,3
11742,12167,-0.00039,-0.00105,-0.0002,-2.9999999999999997e-05,0.00039,0.00016,2e-05,-0.00063,3
11743,12168,-0.00039,-0.00105,-0.0002,-2.9999999999999997e-05,0.00039,0.00016,2e-05,-0.00063,3
11744,12169,-0.00039,-0.00105,-0.0002,-2.9999999999999997e-05,0.00039,0.00016,2e-05,-0.00063,3
11745,12170,-0.00039,-0.00105,-0.0002,-2.9999999999999997e-05,0.00039,0.00016,2e-05,-0.00063,3
11746,12171,-0.00039,-0.00105,-0.0002,-2.9999999999999997e-05,0.00039,0.00016,2e-05,-0.00063,3
11747,12172,-0.00039,-0.00105,-0.0002,-2.9999999999999997e-05,0.00039,0.00016,2e-05,-0.00063,3
11748,12173,0.00033,-0.00044,-0.00013000000000000002,-5.9999999999999995e-05,0.00026000000000000003,2e-05,0.00022,0.00067,3
11749,12174,-0.0001,-2e-05,0.00013000000000000002,5.9999999999999995e-05,-0.00018,0.00054,0.00018,-0.00026000000000000003,3
11750,12175,-0.0001,-2e-05,0.00013000000000000002,5.9999999999999995e-05,-0.00018,0.00054,0.00018,-0.00026000000000000003,3
11751,12176,-0.0001,-2e-05,0.00013000000000000002,5.9999999999999995e-05,-0.00018,0.00054,0.00018,-0.00026000000000000003,3
11752,12177,-0.0001,-2e-05,0.00013000000000000002,5.9999999999999995e-05,-0.00018,0.00054,0.00018,-0.00026000000000000003,3
11753,12178,-0.0001,-2e-05,0.00013000000000000002,5.9999999999999995e-05,-0.00018,0.00054,0.00018,-0.00026000000000000003,3
11754,12179,-0.0001,-2e-05,0.00013000000000000002,5.9999999999999995e-05,-0.00018,0.00054,0.00018,-0.00026000000000000003,3
11755,12180,-0.0001,-2e-05,0.00013000000000000002,5.9999999999999995e-05,-0.00018,0.00054,0.00018,-0.00026000000000000003,3
11756,12181,-0.0001,-2e-05,0.00013000000000000002,5.9999999999999995e-05,-0.00018,0.00054,0.00018,-0.00026000000000000003,3
11757,12182,-0.0001,-2e-05,0.00013000000000000002,5.9999999999999995e-05,-0.00018,0.00054,0.00018,-0.00026000000000000003,3
11758,12183,-0.0001,-2e-05,0.00013000000000000002,5.9999999999999995e-05,-0.00018,0.00054,0.00018,-0.00026000000000000003,3
11759,12184,-0.0001,-2e-05,0.00013000000000000002,5.9999999999999995e-05,-0.00018,0.00054,0.00018,-0.00026000000000000003,3
11760,12185,-0.0001,-2e-05,0.00013000000000000002,5.9999999999999995e-05,-0.00018,0.00054,0.00018,-0.00026000000000000003,3
11761,12186,-0.0001,-2e-05,0.00013000000000000002,5.9999999999999995e-05,-0.00018,0.00054,0.00018,-0.00026000000000000003,3
11762,12188,-0.0001,-2e-05,0.00013000000000000002,5.9999999999999995e-05,-0.00018,0.00054,0.00018,-0.00026000000000000003,3
11763,12189,-0.0001,-2e-05,0.00013000000000000002,5.9999999999999995e-05,-0.00018,0.00054,0.00018,-0.00026000000000000003,3
11764,12190,-0.0001,-2e-05,0.00013000000000000002,5.9999999999999995e-05,-0.00018,0.00054,0.00018,-0.00026000000000000003,3
11765,12191,-0.0001,-2e-05,0.00013000000000000002,5.9999999999999995e-05,-0.00018,0.00054,0.00018,-0.00026000000000000003,3
11766,12192,-0.0001,-2e-05,0.00013000000000000002,5.9999999999999995e-05,-0.00018,0.00054,0.00018,-0.00026000000000000003,3
11767,12193,-0.0001,-2e-05,0.00013000000000000002,5.9999999999999995e-05,-0.00018,0.00054,0.00018,-0.00026000000000000003,3
11768,12194,-0.0001,-2e-05,0.00013000000000000002,5.9999999999999995e-05,-0.00018,0.00054,0.00018,-0.00026000000000000003,3
11769,12195,-0.0001,0.00035,-5e-05,-8e-05,-4e-05,2e-05,-0.00016999999999999999,-7e-05,3
11770,12196,-0.0001,0.00035,-5e-05,-8e-05,-4e-05,2e-05,-0.00016999999999999999,-7e-05,3
11771,12197,-0.0006,0.00065,0.0,2.9999999999999997e-05,-0.00025,0.00032,0.0,0.0005099999999999999,3
11772,12198,-0.0006,0.00065,0.0,2.9999999999999997e-05,-0.00025,0.00032,0.0,0.0005099999999999999,3
11773,12199,-0.0006,0.00065,0.0,2.9999999999999997e-05,-0.00025,0.00032,0.0,0.0005099999999999999,3
11774,12200,-0.0006,0.00065,0.0,2.9999999999999997e-05,-0.00025,0.00032,0.0,0.0005099999999999999,3
11775,12201,-0.0006,0.00065,0.0,2.9999999999999997e-05,-0.00025,0.00032,0.0,0.0005099999999999999,3
11776,12202,-0.0006,0.00065,0.0,2.9999999999999997e-05,-0.00025,0.00032,0.0,0.0005099999999999999,3
11777,12203,-0.0006,0.00065,0.0,2.9999999999999997e-05,-0.00025,0.00032,0.0,0.0005099999999999999,3
11778,12204,-0.0006,0.00065,0.0,2.9999999999999997e-05,-0.00025,0.00032,0.0,0.0005099999999999999,3
11779,12205,-0.0006,0.00065,0.0,2.9999999999999997e-05,-0.00025,0.00032,0.0,0.0005099999999999999,3
11780,12206,-0.0006,0.00065,0.0,2.9999999999999997e-05,-0.00025,0.00032,0.0,0.0005099999999999999,3
11781,12207,-0.0006,0.00065,0.0,2.9999999999999997e-05,-0.00025,0.00032,0.0,0.0005099999999999999,3
11782,12208,-0.0006,0.00065,0.0,2.9999999999999997e-05,-0.00025,0.00032,0.0,0.0005099999999999999,3
11783,12209,-0.0002,-8e-05,-5.9999999999999995e-05,-2.9999999999999997e-05,0.00062,-0.00031,4e-05,0.00036,3
11784,12210,-0.0002,-8e-05,-5.9999999999999995e-05,-2.9999999999999997e-05,0.00062,-0.00031,4e-05,0.00036,3
11785,12211,-0.0002,-8e-05,-5.9999999999999995e-05,-2.9999999999999997e-05,0.00062,-0.00031,4e-05,0.00036,3
11786,12212,-0.0002,-8e-05,-5.9999999999999995e-05,-2.9999999999999997e-05,0.00062,-0.00031,4e-05,0.00036,3
11787,12213,-0.0002,-8e-05,-5.9999999999999995e-05,-2.9999999999999997e-05,0.00062,-0.00031,4e-05,0.00036,3
11788,12214,-0.0002,-8e-05,-5.9999999999999995e-05,-2.9999999999999997e-05,0.00062,-0.00031,4e-05,0.00036,3
11789,12215,-0.0002,-8e-05,-5.9999999999999995e-05,-2.9999999999999997e-05,0.00062,-0.00031,4e-05,0.00036,3
11790,12216,-0.0002,-8e-05,-5.9999999999999995e-05,-2.9999999999999997e-05,0.00062,-0.00031,4e-05,0.00036,3
11791,12217,-0.0002,-8e-05,-5.9999999999999995e-05,-2.9999999999999997e-05,0.00062,-0.00031,4e-05,0.00036,3
11792,12218,0.00026000000000000003,-0.00022,-1e-05,-4e-05,0.00018,-0.00025,-0.00025,-0.00057,3
11793,12219,0.00026000000000000003,-0.00022,-1e-05,-4e-05,0.00018,-0.00025,-0.00025,-0.00057,3
11794,12220,0.00026000000000000003,-0.00022,-1e-05,-4e-05,0.00018,-0.00025,-0.00025,-0.00057,3
11795,12221,0.00026000000000000003,-0.00022,-1e-05,-4e-05,0.00018,-0.00025,-0.00025,-0.00057,3
11796,12222,0.00026000000000000003,-0.00022,-1e-05,-4e-05,0.00018,-0.00025,-0.00025,-0.00057,3
11797,12223,0.00026000000000000003,-0.00022,-1e-05,-4e-05,0.00018,-0.00025,-0.00025,-0.00057,3
11798,12224,0.00026000000000000003,-0.00022,-1e-05,-4e-05,0.00018,-0.00025,-0.00025,-0.00057,3
11799,12225,0.00026000000000000003,-0.00022,-1e-05,-4e-05,0.00018,-0.00025,-0.00025,-0.00057,3
11800,12226,0.00026000000000000003,-0.00022,-1e-05,-4e-05,0.00018,-0.00025,-0.00025,-0.00057,3
11801,12227,0.00026000000000000003,-0.00022,-1e-05,-4e-05,0.00018,-0.00025,-0.00025,-0.00057,3
11802,12228,0.00026000000000000003,-0.00022,-1e-05,-4e-05,0.00018,-0.00025,-0.00025,-0.00057,3
11803,12229,0.00026000000000000003,-0.00022,-1e-05,-4e-05,0.00018,-0.00025,-0.00025,-0.00057,3
11804,12230,0.00026000000000000003,-0.00022,-1e-05,-4e-05,0.00018,-0.00025,-0.00025,-0.00057,3
11805,12231,0.00026000000000000003,-0.00022,-1e-05,-4e-05,0.00018,-0.00025,-0.00025,-0.00057,3
11806,12232,0.00026000000000000003,-0.00022,-1e-05,-4e-05,0.00018,-0.00025,-0.00025,-0.00057,3
11807,12233,0.00026000000000000003,-0.00022,-1e-05,-4e-05,0.00018,-0.00025,-0.00025,-0.00057,3
11808,12234,0.00026000000000000003,-0.00022,-1e-05,-4e-05,0.00018,-0.00025,-0.00025,-0.00057,3
11809,12235,0.00026000000000000003,-0.00022,-1e-05,-4e-05,0.00018,-0.00025,-0.00025,-0.00057,3
11810,12236,0.00026000000000000003,-0.00022,-1e-05,-4e-05,0.00018,-0.00025,-0.00025,-0.00057,3
11811,12238,0.00026000000000000003,-0.00022,-1e-05,-4e-05,0.00018,-0.00025,-0.00025,-0.00057,3
11812,12239,0.00026000000000000003,-0.00022,-1e-05,-4e-05,0.00018,-0.00025,-0.00025,-0.00057,3
11813,12240,-0.00016,-0.00033,-0.00011,-2.9999999999999997e-05,-5.9999999999999995e-05,0.00056,0.0004,-8e-05,3
11814,12241,-0.00016,-0.00033,-0.00011,-2.9999999999999997e-05,-5.9999999999999995e-05,0.00056,0.0004,-8e-05,3
11815,12242,-0.00045,7e-05,-2.9999999999999997e-05,-2.9999999999999997e-05,-0.00015,-0.00055,-0.00026000000000000003,0.00029,3
11816,12243,-0.00045,7e-05,-2.9999999999999997e-05,-2.9999999999999997e-05,-0.00015,-0.00055,-0.00026000000000000003,0.00029,3
11817,12244,-0.00045,7e-05,-2.9999999999999997e-05,-2.9999999999999997e-05,-0.00015,-0.00055,-0.00026000000000000003,0.00029,3
11818,12245,-0.00045,7e-05,-2.9999999999999997e-05,-2.9999999999999997e-05,-0.00015,-0.00055,-0.00026000000000000003,0.00029,3
11819,12246,-0.00045,7e-05,-2.9999999999999997e-05,-2.9999999999999997e-05,-0.00015,-0.00055,-0.00026000000000000003,0.00029,3
11820,12247,-0.00045,7e-05,-2.9999999999999997e-05,-2.9999999999999997e-05,-0.00015,-0.00055,-0.00026000000000000003,0.00029,3
11821,12248,-0.00045,7e-05,-2.9999999999999997e-05,-2.9999999999999997e-05,-0.00015,-0.00055,-0.00026000000000000003,0.00029,3
11822,12249,-0.00045,7e-05,-2.9999999999999997e-05,-2.9999999999999997e-05,-0.00015,-0.00055,-0.00026000000000000003,0.00029,3
11823,12250,-0.00045,7e-05,-2.9999999999999997e-05,-2.9999999999999997e-05,-0.00015,-0.00055,-0.00026000000000000003,0.00029,3
11824,12251,-0.00045,7e-05,-2.9999999999999997e-05,-2.9999999999999997e-05,-0.00015,-0.00055,-0.00026000000000000003,0.00029,3
11825,12252,-0.00045,7e-05,-2.9999999999999997e-05,-2.9999999999999997e-05,-0.00015,-0.00055,-0.00026000000000000003,0.00029,3
11826,12253,-0.00045,7e-05,-2.9999999999999997e-05,-2.9999999999999997e-05,-0.00015,-0.00055,-0.00026000000000000003,0.00029,3
11827,12254,-0.00045,7e-05,-2.9999999999999997e-05,-2.9999999999999997e-05,-0.00015,-0.00055,-0.00026000000000000003,0.00029,3
11828,12255,0.00066,0.00049,2.9999999999999997e-05,-5.9999999999999995e-05,-0.00063,8e-05,2e-05,0.0,3
11829,12256,0.00066,0.00049,2.9999999999999997e-05,-5.9999999999999995e-05,-0.00063,8e-05,2e-05,0.0,3
11830,12257,0.00027,0.00037,0.00013000000000000002,-2e-05,-0.00021,-0.00016,0.00032,0.00033999999999999997,3
11831,12258,0.00027,0.00037,0.00013000000000000002,-2e-05,-0.00021,-0.00016,0.00032,0.00033999999999999997,3
11832,12259,0.00027,0.00037,0.00013000000000000002,-2e-05,-0.00021,-0.00016,0.00032,0.00033999999999999997,3
11833,12260,0.00027,0.00037,0.00013000000000000002,-2e-05,-0.00021,-0.00016,0.00032,0.00033999999999999997,3
11834,12261,0.00027,0.00037,0.00013000000000000002,-2e-05,-0.00021,-0.00016,0.00032,0.00033999999999999997,3
11835,12262,0.00027,0.00037,0.00013000000000000002,-2e-05,-0.00021,-0.00016,0.00032,0.00033999999999999997,3
11836,12263,0.00027,0.00037,0.00013000000000000002,-2e-05,-0.00021,-0.00016,0.00032,0.00033999999999999997,3
11837,12264,0.00027,0.00037,0.00013000000000000002,-2e-05,-0.00021,-0.00016,0.00032,0.00033999999999999997,3
11838,12265,0.00027,0.00037,0.00013000000000000002,-2e-05,-0.00021,-0.00016,0.00032,0.00033999999999999997,3
11839,12266,0.00027,0.00037,0.00013000000000000002,-2e-05,-0.00021,-0.00016,0.00032,0.00033999999999999997,3
11840,12267,0.00027,0.00037,0.00013000000000000002,-2e-05,-0.00021,-0.00016,0.00032,0.00033999999999999997,3
11841,12268,0.00027,0.00037,0.00013000000000000002,-2e-05,-0.00021,-0.00016,0.00032,0.00033999999999999997,3
11842,12269,-1e-05,-0.0003,5e-05,0.0,-5e-05,0.00013000000000000002,-2.9999999999999997e-05,-0.00073,3
11843,12270,-1e-05,-0.0003,5e-05,0.0,-5e-05,0.00013000000000000002,-2.9999999999999997e-05,-0.00073,3
11844,12271,-1e-05,-0.0003,5e-05,0.0,-5e-05,0.00013000000000000002,-2.9999999999999997e-05,-0.00073,3
11845,12272,-1e-05,-0.0003,5e-05,0.0,-5e-05,0.00013000000000000002,-2.9999999999999997e-05,-0.00073,3
11846,12273,-1e-05,-0.0003,5e-05,0.0,-5e-05,0.00013000000000000002,-2.9999999999999997e-05,-0.00073,3
11847,12274,-1e-05,-0.0003,5e-05,0.0,-5e-05,0.00013000000000000002,-2.9999999999999997e-05,-0.00073,3
11848,12275,-1e-05,-0.0003,5e-05,0.0,-5e-05,0.00013000000000000002,-2.9999999999999997e-05,-0.00073,3
11849,12276,-1e-05,-0.0003,5e-05,0.0,-5e-05,0.00013000000000000002,-2.9999999999999997e-05,-0.00073,3
11850,12277,-1e-05,-0.0003,5e-05,0.0,-5e-05,0.00013000000000000002,-2.9999999999999997e-05,-0.00073,3
11851,12278,-1e-05,-0.0003,5e-05,0.0,-5e-05,0.00013000000000000002,-2.9999999999999997e-05,-0.00073,3
11852,12279,-1e-05,-0.0003,5e-05,0.0,-5e-05,0.00013000000000000002,-2.9999999999999997e-05,-0.00073,3
11853,12280,-1e-05,-0.0003,5e-05,0.0,-5e-05,0.00013000000000000002,-2.9999999999999997e-05,-0.00073,3
11854,12281,-1e-05,-0.0003,5e-05,0.0,-5e-05,0.00013000000000000002,-2.9999999999999997e-05,-0.00073,3
11855,12282,-1e-05,-0.0003,5e-05,0.0,-5e-05,0.00013000000000000002,-2.9999999999999997e-05,-0.00073,3
11856,12283,-1e-05,-0.0003,5e-05,0.0,-5e-05,0.00013000000000000002,-2.9999999999999997e-05,-0.00073,3
11857,12284,0.00021,-0.0001,7e-05,0.00011999999999999999,0.00054,0.00058,0.0002,-0.00098,3
11858,12285,0.00021,-0.0001,7e-05,0.00011999999999999999,0.00054,0.00058,0.0002,-0.00098,3
11859,12286,0.00021,-0.0001,7e-05,0.00011999999999999999,0.00054,0.00058,0.0002,-0.00098,3
11860,12288,0.00021,-0.0001,7e-05,0.00011999999999999999,0.00054,0.00058,0.0002,-0.00098,3
11861,12289,0.00021,-0.0001,7e-05,0.00011999999999999999,0.00054,0.00058,0.0002,-0.00098,3
11862,12290,0.00021,-0.0001,7e-05,0.00011999999999999999,0.00054,0.00058,0.0002,-0.00098,3
11863,12291,0.00021,-0.0001,7e-05,0.00011999999999999999,0.00054,0.00058,0.0002,-0.00098,3
11864,12292,0.00021,-0.0001,7e-05,0.00011999999999999999,0.00054,0.00058,0.0002,-0.00098,3
11865,12293,0.00053,0.00042,5e-05,7e-05,0.00041,5e-05,7e-05,-0.00023999999999999998,3
11866,12294,-0.00028,-0.0007700000000000001,-0.00016,-0.0002,-0.00016,-5e-05,8e-05,9e-05,3
11867,12295,-0.00028,-0.0007700000000000001,-0.00016,-0.0002,-0.00016,-5e-05,8e-05,9e-05,3
11868,12296,-0.00028,-0.0007700000000000001,-0.00016,-0.0002,-0.00016,-5e-05,8e-05,9e-05,3
11869,12297,-0.00028,-0.0007700000000000001,-0.00016,-0.0002,-0.00016,-5e-05,8e-05,9e-05,3
11870,12298,-0.00028,-0.0007700000000000001,-0.00016,-0.0002,-0.00016,-5e-05,8e-05,9e-05,3
11871,12299,-0.00028,-0.0007700000000000001,-0.00016,-0.0002,-0.00016,-5e-05,8e-05,9e-05,3
11872,12300,-0.00028,-0.0007700000000000001,-0.00016,-0.0002,-0.00016,-5e-05,8e-05,9e-05,3
11873,12301,-0.00028,-0.0007700000000000001,-0.00016,-0.0002,-0.00016,-5e-05,8e-05,9e-05,3
11874,12302,-0.00028,-0.0007700000000000001,-0.00016,-0.0002,-0.00016,-5e-05,8e-05,9e-05,3
11875,12303,-0.00028,-0.0007700000000000001,-0.00016,-0.0002,-0.00016,-5e-05,8e-05,9e-05,3
11876,12304,-0.00028,-0.0007700000000000001,-0.00016,-0.0002,-0.00016,-5e-05,8e-05,9e-05,3
11877,12305,-0.00028,-0.0007700000000000001,-0.00016,-0.0002,-0.00016,-5e-05,8e-05,9e-05,3
11878,12306,-0.00028,-0.0007700000000000001,-0.00016,-0.0002,-0.00016,-5e-05,8e-05,9e-05,3
11879,12307,-0.00028,-0.0007700000000000001,-0.00016,-0.0002,-0.00016,-5e-05,8e-05,9e-05,3
11880,12308,-0.00028,-0.0007700000000000001,-0.00016,-0.0002,-0.00016,-5e-05,8e-05,9e-05,3
11881,12309,-0.00028,-0.0007700000000000001,-0.00016,-0.0002,-0.00016,-5e-05,8e-05,9e-05,3
11882,12310,-0.00028,-0.0007700000000000001,-0.00016,-0.0002,-0.00016,-5e-05,8e-05,9e-05,3
11883,12311,-0.00028,-0.0007700000000000001,-0.00016,-0.0002,-0.00016,-5e-05,8e-05,9e-05,3
11884,12312,-0.00028,-0.0007700000000000001,-0.00016,-0.0002,-0.00016,-5e-05,8e-05,9e-05,3
11885,12313,-0.00028,-0.0007700000000000001,-0.00016,-0.0002,-0.00016,-5e-05,8e-05,9e-05,3
11886,12314,-0.00028,-0.0007700000000000001,-0.00016,-0.0002,-0.00016,-5e-05,8e-05,9e-05,3
11887,12315,0.0002,0.00011,-5e-05,0.0,0.0,-0.00047000000000000004,-0.00023999999999999998,0.00014,3
11888,12316,0.0002,0.00011,-5e-05,0.0,0.0,-0.00047000000000000004,-0.00023999999999999998,0.00014,3
11889,12317,9e-05,7e-05,-5e-05,-1e-05,0.00026000000000000003,-0.00026000000000000003,0.00011999999999999999,0.001,3
11890,12318,9e-05,7e-05,-5e-05,-1e-05,0.00026000000000000003,-0.00026000000000000003,0.00011999999999999999,0.001,3
11891,12319,9e-05,7e-05,-5e-05,-1e-05,0.00026000000000000003,-0.00026000000000000003,0.00011999999999999999,0.001,3
11892,12320,9e-05,7e-05,-5e-05,-1e-05,0.00026000000000000003,-0.00026000000000000003,0.00011999999999999999,0.001,3
11893,12321,9e-05,7e-05,-5e-05,-1e-05,0.00026000000000000003,-0.00026000000000000003,0.00011999999999999999,0.001,3
11894,12322,9e-05,7e-05,-5e-05,-1e-05,0.00026000000000000003,-0.00026000000000000003,0.00011999999999999999,0.001,3
11895,12323,9e-05,7e-05,-5e-05,-1e-05,0.00026000000000000003,-0.00026000000000000003,0.00011999999999999999,0.001,3
11896,12324,9e-05,7e-05,-5e-05,-1e-05,0.00026000000000000003,-0.00026000000000000003,0.00011999999999999999,0.001,3
11897,12325,9e-05,7e-05,-5e-05,-1e-05,0.00026000000000000003,-0.00026000000000000003,0.00011999999999999999,0.001,3
11898,12326,9e-05,7e-05,-5e-05,-1e-05,0.00026000000000000003,-0.00026000000000000003,0.00011999999999999999,0.001,3
11899,12327,9e-05,7e-05,-5e-05,-1e-05,0.00026000000000000003,-0.00026000000000000003,0.00011999999999999999,0.001,3
11900,12328,9e-05,7e-05,-5e-05,-1e-05,0.00026000000000000003,-0.00026000000000000003,0.00011999999999999999,0.001,3
11901,12329,-7e-05,-0.00047000000000000004,0.0,2e-05,-0.00037,-0.0004,7e-05,0.0006799999999999999,3
11902,12330,-7e-05,-0.00047000000000000004,0.0,2e-05,-0.00037,-0.0004,7e-05,0.0006799999999999999,3
11903,12331,-7e-05,-0.00047000000000000004,0.0,2e-05,-0.00037,-0.0004,7e-05,0.0006799999999999999,3
11904,12332,-7e-05,-0.00047000000000000004,0.0,2e-05,-0.00037,-0.0004,7e-05,0.0006799999999999999,3
11905,12333,-7e-05,-0.00047000000000000004,0.0,2e-05,-0.00037,-0.0004,7e-05,0.0006799999999999999,3
11906,12334,-7e-05,-0.00047000000000000004,0.0,2e-05,-0.00037,-0.0004,7e-05,0.0006799999999999999,3
11907,12335,-7e-05,-0.00047000000000000004,0.0,2e-05,-0.00037,-0.0004,7e-05,0.0006799999999999999,3
11908,12336,-7e-05,-0.00047000000000000004,0.0,2e-05,-0.00037,-0.0004,7e-05,0.0006799999999999999,3
11909,12338,0.00025,-2e-05,-1e-05,-7e-05,-2.9999999999999997e-05,-0.00049,-8e-05,-0.00032,3
11910,12339,0.00025,-2e-05,-1e-05,-7e-05,-2.9999999999999997e-05,-0.00049,-8e-05,-0.00032,3
11911,12340,0.00025,-2e-05,-1e-05,-7e-05,-2.9999999999999997e-05,-0.00049,-8e-05,-0.00032,3
11912,12341,0.00025,-2e-05,-1e-05,-7e-05,-2.9999999999999997e-05,-0.00049,-8e-05,-0.00032,3
11913,12342,0.00025,-2e-05,-1e-05,-7e-05,-2.9999999999999997e-05,-0.00049,-8e-05,-0.00032,3
11914,12343,0.00025,-2e-05,-1e-05,-7e-05,-2.9999999999999997e-05,-0.00049,-8e-05,-0.00032,3
11915,12344,0.00025,-2e-05,-1e-05,-7e-05,-2.9999999999999997e-05,-0.00049,-8e-05,-0.00032,3
11916,12345,0.00025,-2e-05,-1e-05,-7e-05,-2.9999999999999997e-05,-0.00049,-8e-05,-0.00032,3
11917,12346,0.00025,-2e-05,-1e-05,-7e-05,-2.9999999999999997e-05,-0.00049,-8e-05,-0.00032,3
11918,12347,0.00025,-2e-05,-1e-05,-7e-05,-2.9999999999999997e-05,-0.00049,-8e-05,-0.00032,3
11919,12348,0.00025,-2e-05,-1e-05,-7e-05,-2.9999999999999997e-05,-0.00049,-8e-05,-0.00032,3
11920,12349,0.00025,-2e-05,-1e-05,-7e-05,-2.9999999999999997e-05,-0.00049,-8e-05,-0.00032,3
11921,12350,0.00025,-2e-05,-1e-05,-7e-05,-2.9999999999999997e-05,-0.00049,-8e-05,-0.00032,3
11922,12351,0.00025,-2e-05,-1e-05,-7e-05,-2.9999999999999997e-05,-0.00049,-8e-05,-0.00032,3
11923,12352,0.00047000000000000004,0.00037999999999999997,-2e-05,-2.9999999999999997e-05,0.0001,-0.00016,0.00016,-0.00035,3
11924,12353,-7e-05,0.00039,0.0001,4e-05,0.00043,0.0001,-0.00011,-0.00016,3
11925,12354,-0.00037,0.00011,-1e-05,7e-05,-7e-05,0.00025,-0.00026000000000000003,-0.00037999999999999997,3
11926,12355,-0.00037,0.00011,-1e-05,7e-05,-7e-05,0.00025,-0.00026000000000000003,-0.00037999999999999997,3
11927,12356,-0.00037,0.00011,-1e-05,7e-05,-7e-05,0.00025,-0.00026000000000000003,-0.00037999999999999997,3
11928,12357,-0.00037,0.00011,-1e-05,7e-05,-7e-05,0.00025,-0.00026000000000000003,-0.00037999999999999997,3
11929,12358,-0.00037,0.00011,-1e-05,7e-05,-7e-05,0.00025,-0.00026000000000000003,-0.00037999999999999997,3
11930,12359,-0.00037,0.00011,-1e-05,7e-05,-7e-05,0.00025,-0.00026000000000000003,-0.00037999999999999997,3
11931,12360,-0.00037,0.00011,-1e-05,7e-05,-7e-05,0.00025,-0.00026000000000000003,-0.00037999999999999997,3
11932,12361,-0.00037,0.00011,-1e-05,7e-05,-7e-05,0.00025,-0.00026000000000000003,-0.00037999999999999997,3
11933,12362,-0.00037,0.00011,-1e-05,7e-05,-7e-05,0.00025,-0.00026000000000000003,-0.00037999999999999997,3
11934,12363,-0.00037,0.00011,-1e-05,7e-05,-7e-05,0.00025,-0.00026000000000000003,-0.00037999999999999997,3
11935,12364,-0.00037,0.00011,-1e-05,7e-05,-7e-05,0.00025,-0.00026000000000000003,-0.00037999999999999997,3
11936,12365,-0.00037,0.00011,-1e-05,7e-05,-7e-05,0.00025,-0.00026000000000000003,-0.00037999999999999997,3
11937,12366,-0.00037,0.00011,-1e-05,7e-05,-7e-05,0.00025,-0.00026000000000000003,-0.00037999999999999997,3
11938,12367,-0.00037,0.00011,-1e-05,7e-05,-7e-05,0.00025,-0.00026000000000000003,-0.00037999999999999997,3
11939,12368,-0.00037,0.00011,-1e-05,7e-05,-7e-05,0.00025,-0.00026000000000000003,-0.00037999999999999997,3
11940,12369,-0.00037,0.00011,-1e-05,7e-05,-7e-05,0.00025,-0.00026000000000000003,-0.00037999999999999997,3
11941,12370,-0.00037,0.00011,-1e-05,7e-05,-7e-05,0.00025,-0.00026000000000000003,-0.00037999999999999997,3
11942,12371,-0.00037,0.00011,-1e-05,7e-05,-7e-05,0.00025,-0.00026000000000000003,-0.00037999999999999997,3
11943,12372,-0.00037,0.00011,-1e-05,7e-05,-7e-05,0.00025,-0.00026000000000000003,-0.00037999999999999997,3
11944,12373,-0.00037,0.00011,-1e-05,7e-05,-7e-05,0.00025,-0.00026000000000000003,-0.00037999999999999997,3
11945,12374,-0.00037,0.00011,-1e-05,7e-05,-7e-05,0.00025,-0.00026000000000000003,-0.00037999999999999997,3
11946,12375,0.00013000000000000002,-2.9999999999999997e-05,1e-05,-8e-05,0.00014,-0.00028,-0.00022,-5e-05,3
11947,12376,0.00013000000000000002,-2.9999999999999997e-05,1e-05,-8e-05,0.00014,-0.00028,-0.00022,-5e-05,3
11948,12377,0.00011999999999999999,-0.00014,-0.0001,0.0,0.00037999999999999997,0.00026000000000000003,-0.0001,-0.00054,3
11949,12378,0.00011999999999999999,-0.00014,-0.0001,0.0,0.00037999999999999997,0.00026000000000000003,-0.0001,-0.00054,3
11950,12379,0.00011999999999999999,-0.00014,-0.0001,0.0,0.00037999999999999997,0.00026000000000000003,-0.0001,-0.00054,3
11951,12380,0.00011999999999999999,-0.00014,-0.0001,0.0,0.00037999999999999997,0.00026000000000000003,-0.0001,-0.00054,3
11952,12381,0.00011999999999999999,-0.00014,-0.0001,0.0,0.00037999999999999997,0.00026000000000000003,-0.0001,-0.00054,3
11953,12382,0.00011999999999999999,-0.00014,-0.0001,0.0,0.00037999999999999997,0.00026000000000000003,-0.0001,-0.00054,3
11954,12383,0.00011999999999999999,-0.00014,-0.0001,0.0,0.00037999999999999997,0.00026000000000000003,-0.0001,-0.00054,3
11955,12384,0.00011999999999999999,-0.00014,-0.0001,0.0,0.00037999999999999997,0.00026000000000000003,-0.0001,-0.00054,3
11956,12385,0.00011999999999999999,-0.00014,-0.0001,0.0,0.00037999999999999997,0.00026000000000000003,-0.0001,-0.00054,3
11957,12386,0.00011999999999999999,-0.00014,-0.0001,0.0,0.00037999999999999997,0.00026000000000000003,-0.0001,-0.00054,3
11958,12388,0.00011999999999999999,-0.00014,-0.0001,0.0,0.00037999999999999997,0.00026000000000000003,-0.0001,-0.00054,3
11959,12389,-0.0003,-0.00022,-7e-05,-0.00011,-0.00081,0.00011999999999999999,0.00013000000000000002,-0.00045999999999999996,3
11960,12390,-0.0003,-0.00022,-7e-05,-0.00011,-0.00081,0.00011999999999999999,0.00013000000000000002,-0.00045999999999999996,3
11961,12391,-0.0003,-0.00022,-7e-05,-0.00011,-0.00081,0.00011999999999999999,0.00013000000000000002,-0.00045999999999999996,3
11962,12392,-0.0003,-0.00022,-7e-05,-0.00011,-0.00081,0.00011999999999999999,0.00013000000000000002,-0.00045999999999999996,3
11963,12393,-0.0003,-0.00022,-7e-05,-0.00011,-0.00081,0.00011999999999999999,0.00013000000000000002,-0.00045999999999999996,3
11964,12394,-0.0003,-0.00022,-7e-05,-0.00011,-0.00081,0.00011999999999999999,0.00013000000000000002,-0.00045999999999999996,3
11965,12395,-0.0003,-0.00022,-7e-05,-0.00011,-0.00081,0.00011999999999999999,0.00013000000000000002,-0.00045999999999999996,3
11966,12396,-0.0003,-0.00022,-7e-05,-0.00011,-0.00081,0.00011999999999999999,0.00013000000000000002,-0.00045999999999999996,3
11967,12397,-0.0003,-0.00022,-7e-05,-0.00011,-0.00081,0.00011999999999999999,0.00013000000000000002,-0.00045999999999999996,3
11968,12398,-0.00041,-0.00055,-0.00018999999999999998,-2.9999999999999997e-05,4e-05,0.00011,0.0,0.0002,3
11969,12399,-0.00041,-0.00055,-0.00018999999999999998,-2.9999999999999997e-05,4e-05,0.00011,0.0,0.0002,3
11970,12400,-0.00041,-0.00055,-0.00018999999999999998,-2.9999999999999997e-05,4e-05,0.00011,0.0,0.0002,3
11971,12401,-0.00041,-0.00055,-0.00018999999999999998,-2.9999999999999997e-05,4e-05,0.00011,0.0,0.0002,3
11972,12402,-0.00041,-0.00055,-0.00018999999999999998,-2.9999999999999997e-05,4e-05,0.00011,0.0,0.0002,3
11973,12403,-0.00041,-0.00055,-0.00018999999999999998,-2.9999999999999997e-05,4e-05,0.00011,0.0,0.0002,3
11974,12404,-0.00041,-0.00055,-0.00018999999999999998,-2.9999999999999997e-05,4e-05,0.00011,0.0,0.0002,3
11975,12405,-0.00041,-0.00055,-0.00018999999999999998,-2.9999999999999997e-05,4e-05,0.00011,0.0,0.0002,3
11976,12406,-0.00041,-0.00055,-0.00018999999999999998,-2.9999999999999997e-05,4e-05,0.00011,0.0,0.0002,3
11977,12407,-0.00041,-0.00055,-0.00018999999999999998,-2.9999999999999997e-05,4e-05,0.00011,0.0,0.0002,3
11978,12408,-0.00041,-0.00055,-0.00018999999999999998,-2.9999999999999997e-05,4e-05,0.00011,0.0,0.0002,3
11979,12409,-0.00041,-0.00055,-0.00018999999999999998,-2.9999999999999997e-05,4e-05,0.00011,0.0,0.0002,3
11980,12410,-0.00041,-0.00055,-0.00018999999999999998,-2.9999999999999997e-05,4e-05,0.00011,0.0,0.0002,3
11981,12411,-0.00041,-0.00055,-0.00018999999999999998,-2.9999999999999997e-05,4e-05,0.00011,0.0,0.0002,3
11982,12412,-0.00041,-0.00055,-0.00018999999999999998,-2.9999999999999997e-05,4e-05,0.00011,0.0,0.0002,3
11983,12413,0.00061,0.0001,2.9999999999999997e-05,-2.9999999999999997e-05,-0.0001,0.00013000000000000002,0.00011,-0.0007599999999999999,3
11984,12414,0.0,-0.00037999999999999997,2e-05,2.9999999999999997e-05,0.0002,0.0008,-2.9999999999999997e-05,-0.00039,3
11985,12415,0.0,-0.00037999999999999997,2e-05,2.9999999999999997e-05,0.0002,0.0008,-2.9999999999999997e-05,-0.00039,3
11986,12416,0.0,-0.00037999999999999997,2e-05,2.9999999999999997e-05,0.0002,0.0008,-2.9999999999999997e-05,-0.00039,3
11987,12417,0.0,-0.00037999999999999997,2e-05,2.9999999999999997e-05,0.0002,0.0008,-2.9999999999999997e-05,-0.00039,3
11988,12418,0.0,-0.00037999999999999997,2e-05,2.9999999999999997e-05,0.0002,0.0008,-2.9999999999999997e-05,-0.00039,3
11989,12419,0.0,-0.00037999999999999997,2e-05,2.9999999999999997e-05,0.0002,0.0008,-2.9999999999999997e-05,-0.00039,3
11990,12420,0.0,-0.00037999999999999997,2e-05,2.9999999999999997e-05,0.0002,0.0008,-2.9999999999999997e-05,-0.00039,3
11991,12421,0.0,-0.00037999999999999997,2e-05,2.9999999999999997e-05,0.0002,0.0008,-2.9999999999999997e-05,-0.00039,3
11992,12422,0.0,-0.00037999999999999997,2e-05,2.9999999999999997e-05,0.0002,0.0008,-2.9999999999999997e-05,-0.00039,3
11993,12423,0.0,-0.00037999999999999997,2e-05,2.9999999999999997e-05,0.0002,0.0008,-2.9999999999999997e-05,-0.00039,3
11994,12424,0.0,-0.00037999999999999997,2e-05,2.9999999999999997e-05,0.0002,0.0008,-2.9999999999999997e-05,-0.00039,3
11995,12425,0.0,-0.00037999999999999997,2e-05,2.9999999999999997e-05,0.0002,0.0008,-2.9999999999999997e-05,-0.00039,3
11996,12426,0.0,-0.00037999999999999997,2e-05,2.9999999999999997e-05,0.0002,0.0008,-2.9999999999999997e-05,-0.00039,3
11997,12427,0.0,-0.00037999999999999997,2e-05,2.9999999999999997e-05,0.0002,0.0008,-2.9999999999999997e-05,-0.00039,3
11998,12428,0.0,-0.00037999999999999997,2e-05,2.9999999999999997e-05,0.0002,0.0008,-2.9999999999999997e-05,-0.00039,3
11999,12429,0.0,-0.00037999999999999997,2e-05,2.9999999999999997e-05,0.0002,0.0008,-2.9999999999999997e-05,-0.00039,3
12000,12430,0.0,-0.00037999999999999997,2e-05,2.9999999999999997e-05,0.0002,0.0008,-2.9999999999999997e-05,-0.00039,3
12001,12431,0.0,-0.00037999999999999997,2e-05,2.9999999999999997e-05,0.0002,0.0008,-2.9999999999999997e-05,-0.00039,3
12002,12432,0.0,-0.00037999999999999997,2e-05,2.9999999999999997e-05,0.0002,0.0008,-2.9999999999999997e-05,-0.00039,3
12003,12433,0.0,-0.00037999999999999997,2e-05,2.9999999999999997e-05,0.0002,0.0008,-2.9999999999999997e-05,-0.00039,3
12004,12434,0.0,-0.00037999999999999997,2e-05,2.9999999999999997e-05,0.0002,0.0008,-2.9999999999999997e-05,-0.00039,3
12005,12435,-0.00047000000000000004,0.00023999999999999998,-5.9999999999999995e-05,-4e-05,-0.00079,8e-05,4e-05,0.00064,3
12006,12436,-0.00047000000000000004,0.00023999999999999998,-5.9999999999999995e-05,-4e-05,-0.00079,8e-05,4e-05,0.00064,3
12007,12438,0.00016,-0.00016,-4e-05,-5.9999999999999995e-05,-0.00022,-0.00025,0.00014,0.00028,3
12008,12439,0.00016,-0.00016,-4e-05,-5.9999999999999995e-05,-0.00022,-0.00025,0.00014,0.00028,3
12009,12440,0.00016,-0.00016,-4e-05,-5.9999999999999995e-05,-0.00022,-0.00025,0.00014,0.00028,3
12010,12441,0.00016,-0.00016,-4e-05,-5.9999999999999995e-05,-0.00022,-0.00025,0.00014,0.00028,3
12011,12442,0.00016,-0.00016,-4e-05,-5.9999999999999995e-05,-0.00022,-0.00025,0.00014,0.00028,3
12012,12443,0.00016,-0.00016,-4e-05,-5.9999999999999995e-05,-0.00022,-0.00025,0.00014,0.00028,3
12013,12444,0.00016,-0.00016,-4e-05,-5.9999999999999995e-05,-0.00022,-0.00025,0.00014,0.00028,3
12014,12445,0.00016,-0.00016,-4e-05,-5.9999999999999995e-05,-0.00022,-0.00025,0.00014,0.00028,3
12015,12446,0.00016,-0.00016,-4e-05,-5.9999999999999995e-05,-0.00022,-0.00025,0.00014,0.00028,3
12016,12447,0.00016,-0.00016,-4e-05,-5.9999999999999995e-05,-0.00022,-0.00025,0.00014,0.00028,3
12017,12448,0.00016,-0.00016,-4e-05,-5.9999999999999995e-05,-0.00022,-0.00025,0.00014,0.00028,3
12018,12449,0.00016,-0.00016,-4e-05,-5.9999999999999995e-05,-0.00022,-0.00025,0.00014,0.00028,3
12019,12450,0.00016,-0.00016,-4e-05,-5.9999999999999995e-05,-0.00022,-0.00025,0.00014,0.00028,3
12020,12451,0.00016,-0.00016,-4e-05,-5.9999999999999995e-05,-0.00022,-0.00025,0.00014,0.00028,3
12021,12452,0.00016,-0.00016,-4e-05,-5.9999999999999995e-05,-0.00022,-0.00025,0.00014,0.00028,3
12022,12453,0.00016,-0.00016,-4e-05,-5.9999999999999995e-05,-0.00022,-0.00025,0.00014,0.00028,3
12023,12454,0.00016,-0.00016,-4e-05,-5.9999999999999995e-05,-0.00022,-0.00025,0.00014,0.00028,3
12024,12455,0.00016,-0.00016,-4e-05,-5.9999999999999995e-05,-0.00022,-0.00025,0.00014,0.00028,3
12025,12456,0.00016,-0.00016,-4e-05,-5.9999999999999995e-05,-0.00022,-0.00025,0.00014,0.00028,3
12026,12457,0.00016,-0.00016,-4e-05,-5.9999999999999995e-05,-0.00022,-0.00025,0.00014,0.00028,3
12027,12458,9e-05,-0.00021,-5.9999999999999995e-05,5.9999999999999995e-05,5.9999999999999995e-05,-0.0008300000000000001,-9e-05,0.00031,3
12028,12459,-0.0004,-0.00036,-5.9999999999999995e-05,-0.0001,-7e-05,0.00061,-0.00021,0.0006799999999999999,3
12029,12460,-0.0004,-0.00036,-5.9999999999999995e-05,-0.0001,-7e-05,0.00061,-0.00021,0.0006799999999999999,3
12030,12461,-0.0004,-0.00036,-5.9999999999999995e-05,-0.0001,-7e-05,0.00061,-0.00021,0.0006799999999999999,3
12031,12462,-0.0004,-0.00036,-5.9999999999999995e-05,-0.0001,-7e-05,0.00061,-0.00021,0.0006799999999999999,3
12032,12463,-0.0004,-0.00036,-5.9999999999999995e-05,-0.0001,-7e-05,0.00061,-0.00021,0.0006799999999999999,3
12033,12464,-0.0004,-0.00036,-5.9999999999999995e-05,-0.0001,-7e-05,0.00061,-0.00021,0.0006799999999999999,3
12034,12465,-0.0004,-0.00036,-5.9999999999999995e-05,-0.0001,-7e-05,0.00061,-0.00021,0.0006799999999999999,3
12035,12466,-0.0004,-0.00036,-5.9999999999999995e-05,-0.0001,-7e-05,0.00061,-0.00021,0.0006799999999999999,3
12036,12467,-0.0004,-0.00036,-5.9999999999999995e-05,-0.0001,-7e-05,0.00061,-0.00021,0.0006799999999999999,3
12037,12468,-0.0004,-0.00036,-5.9999999999999995e-05,-0.0001,-7e-05,0.00061,-0.00021,0.0006799999999999999,3
12038,12469,-0.0004,-0.00036,-5.9999999999999995e-05,-0.0001,-7e-05,0.00061,-0.00021,0.0006799999999999999,3
12039,12470,-0.0004,-0.00036,-5.9999999999999995e-05,-0.0001,-7e-05,0.00061,-0.00021,0.0006799999999999999,3
12040,12471,-0.0004,-0.00036,-5.9999999999999995e-05,-0.0001,-7e-05,0.00061,-0.00021,0.0006799999999999999,3
12041,12472,-0.0004,-0.00036,-5.9999999999999995e-05,-0.0001,-7e-05,0.00061,-0.00021,0.0006799999999999999,3
12042,12473,0.00013000000000000002,-5e-05,-7e-05,2.9999999999999997e-05,0.00037,0.00047000000000000004,0.0001,-1e-05,3
12043,12474,0.00037999999999999997,0.00018999999999999998,9e-05,0.0,0.00028,-0.00033999999999999997,-2e-05,0.00054,3
12044,12475,0.00037999999999999997,0.00018999999999999998,9e-05,0.0,0.00028,-0.00033999999999999997,-2e-05,0.00054,3
12045,12476,0.00037999999999999997,0.00018999999999999998,9e-05,0.0,0.00028,-0.00033999999999999997,-2e-05,0.00054,3
12046,12477,0.00037999999999999997,0.00018999999999999998,9e-05,0.0,0.00028,-0.00033999999999999997,-2e-05,0.00054,3
12047,12478,0.00037999999999999997,0.00018999999999999998,9e-05,0.0,0.00028,-0.00033999999999999997,-2e-05,0.00054,3
12048,12479,0.00037999999999999997,0.00018999999999999998,9e-05,0.0,0.00028,-0.00033999999999999997,-2e-05,0.00054,3
12049,12480,0.00037999999999999997,0.00018999999999999998,9e-05,0.0,0.00028,-0.00033999999999999997,-2e-05,0.00054,3
12050,12481,0.00037999999999999997,0.00018999999999999998,9e-05,0.0,0.00028,-0.00033999999999999997,-2e-05,0.00054,3
12051,12482,0.00037999999999999997,0.00018999999999999998,9e-05,0.0,0.00028,-0.00033999999999999997,-2e-05,0.00054,3
12052,12483,0.00037999999999999997,0.00018999999999999998,9e-05,0.0,0.00028,-0.00033999999999999997,-2e-05,0.00054,3
12053,12484,0.00037999999999999997,0.00018999999999999998,9e-05,0.0,0.00028,-0.00033999999999999997,-2e-05,0.00054,3
12054,12485,0.00037999999999999997,0.00018999999999999998,9e-05,0.0,0.00028,-0.00033999999999999997,-2e-05,0.00054,3
12055,12486,0.00037999999999999997,0.00018999999999999998,9e-05,0.0,0.00028,-0.00033999999999999997,-2e-05,0.00054,3
12056,12488,0.00037999999999999997,0.00018999999999999998,9e-05,0.0,0.00028,-0.00033999999999999997,-2e-05,0.00054,3
12057,12489,0.00037999999999999997,0.00018999999999999998,9e-05,0.0,0.00028,-0.00033999999999999997,-2e-05,0.00054,3
12058,12490,0.00037999999999999997,0.00018999999999999998,9e-05,0.0,0.00028,-0.00033999999999999997,-2e-05,0.00054,3
12059,12491,0.00037999999999999997,0.00018999999999999998,9e-05,0.0,0.00028,-0.00033999999999999997,-2e-05,0.00054,3
12060,12492,0.00037999999999999997,0.00018999999999999998,9e-05,0.0,0.00028,-0.00033999999999999997,-2e-05,0.00054,3
12061,12493,0.00037999999999999997,0.00018999999999999998,9e-05,0.0,0.00028,-0.00033999999999999997,-2e-05,0.00054,3
12062,12494,0.00037999999999999997,0.00018999999999999998,9e-05,0.0,0.00028,-0.00033999999999999997,-2e-05,0.00054,3
12063,12495,-0.00016999999999999999,4e-05,2.9999999999999997e-05,2e-05,0.00049,-0.00022999999999999998,-0.0001,-0.0005099999999999999,3
12064,12496,-0.00016999999999999999,4e-05,2.9999999999999997e-05,2e-05,0.00049,-0.00022999999999999998,-0.0001,-0.0005099999999999999,3
12065,12497,-5.9999999999999995e-05,0.0001,8e-05,4e-05,-0.0002,-0.00085,-2e-05,-0.00031,3
12066,12498,-5.9999999999999995e-05,0.0001,8e-05,4e-05,-0.0002,-0.00085,-2e-05,-0.00031,3
12067,12499,-5.9999999999999995e-05,0.0001,8e-05,4e-05,-0.0002,-0.00085,-2e-05,-0.00031,3
12068,12500,-5.9999999999999995e-05,0.0001,8e-05,4e-05,-0.0002,-0.00085,-2e-05,-0.00031,3
12069,12501,-5.9999999999999995e-05,0.0001,8e-05,4e-05,-0.0002,-0.00085,-2e-05,-0.00031,3
12070,12502,-5.9999999999999995e-05,0.0001,8e-05,4e-05,-0.0002,-0.00085,-2e-05,-0.00031,3
12071,12503,-5.9999999999999995e-05,0.0001,8e-05,4e-05,-0.0002,-0.00085,-2e-05,-0.00031,3
12072,12504,-5.9999999999999995e-05,0.0001,8e-05,4e-05,-0.0002,-0.00085,-2e-05,-0.00031,3
12073,12505,-5.9999999999999995e-05,0.0001,8e-05,4e-05,-0.0002,-0.00085,-2e-05,-0.00031,3
12074,12506,-5.9999999999999995e-05,0.0001,8e-05,4e-05,-0.0002,-0.00085,-2e-05,-0.00031,3
12075,12507,-5.9999999999999995e-05,0.0001,8e-05,4e-05,-0.0002,-0.00085,-2e-05,-0.00031,3
12076,12508,-5.9999999999999995e-05,0.0001,8e-05,4e-05,-0.0002,-0.00085,-2e-05,-0.00031,3
12077,12509,-5.9999999999999995e-05,0.0001,8e-05,4e-05,-0.0002,-0.00085,-2e-05,-0.00031,3
12078,12510,-5.9999999999999995e-05,0.0001,8e-05,4e-05,-0.0002,-0.00085,-2e-05,-0.00031,3
12079,12511,-5.9999999999999995e-05,0.0001,8e-05,4e-05,-0.0002,-0.00085,-2e-05,-0.00031,3
12080,12512,-5.9999999999999995e-05,0.0001,8e-05,4e-05,-0.0002,-0.00085,-2e-05,-0.00031,3
12081,12513,-5.9999999999999995e-05,0.0001,8e-05,4e-05,-0.0002,-0.00085,-2e-05,-0.00031,3
12082,12514,-5.9999999999999995e-05,0.0001,8e-05,4e-05,-0.0002,-0.00085,-2e-05,-0.00031,3
12083,12515,-5.9999999999999995e-05,0.0001,8e-05,4e-05,-0.0002,-0.00085,-2e-05,-0.00031,3
12084,12516,-5.9999999999999995e-05,0.0001,8e-05,4e-05,-0.0002,-0.00085,-2e-05,-0.00031,3
12085,12517,-5.9999999999999995e-05,0.0001,8e-05,4e-05,-0.0002,-0.00085,-2e-05,-0.00031,3
12086,12518,-0.00025,-0.00022,-8e-05,-5e-05,0.00047999999999999996,0.00064,0.00022,0.00037,3
12087,12519,0.00014,-0.00014,4e-05,5.9999999999999995e-05,0.00033999999999999997,0.00021,5e-05,0.0004,3
12088,12520,0.00014,-0.00014,4e-05,5.9999999999999995e-05,0.00033999999999999997,0.00021,5e-05,0.0004,3
12089,12521,0.00014,-0.00014,4e-05,5.9999999999999995e-05,0.00033999999999999997,0.00021,5e-05,0.0004,3
12090,12522,0.00014,-0.00014,4e-05,5.9999999999999995e-05,0.00033999999999999997,0.00021,5e-05,0.0004,3
12091,12523,0.00014,-0.00014,4e-05,5.9999999999999995e-05,0.00033999999999999997,0.00021,5e-05,0.0004,3
12092,12524,0.00014,-0.00014,4e-05,5.9999999999999995e-05,0.00033999999999999997,0.00021,5e-05,0.0004,3
12093,12525,0.00014,-0.00014,4e-05,5.9999999999999995e-05,0.00033999999999999997,0.00021,5e-05,0.0004,3
12094,12526,0.00014,-0.00014,4e-05,5.9999999999999995e-05,0.00033999999999999997,0.00021,5e-05,0.0004,3
12095,12527,0.00014,-0.00014,4e-05,5.9999999999999995e-05,0.00033999999999999997,0.00021,5e-05,0.0004,3
12096,12528,0.00014,-0.00014,4e-05,5.9999999999999995e-05,0.00033999999999999997,0.00021,5e-05,0.0004,3
12097,12529,0.00014,-0.00014,4e-05,5.9999999999999995e-05,0.00033999999999999997,0.00021,5e-05,0.0004,3
12098,12530,0.00014,-0.00014,4e-05,5.9999999999999995e-05,0.00033999999999999997,0.00021,5e-05,0.0004,3
12099,12531,0.00014,-0.00014,4e-05,5.9999999999999995e-05,0.00033999999999999997,0.00021,5e-05,0.0004,3
12100,12532,0.00014,-0.00014,4e-05,5.9999999999999995e-05,0.00033999999999999997,0.00021,5e-05,0.0004,3
12101,12533,0.00014,-0.00014,4e-05,5.9999999999999995e-05,0.00033999999999999997,0.00021,5e-05,0.0004,3
12102,12534,0.00014,-0.00014,4e-05,5.9999999999999995e-05,0.00033999999999999997,0.00021,5e-05,0.0004,3
12103,12535,0.00014,-0.00014,4e-05,5.9999999999999995e-05,0.00033999999999999997,0.00021,5e-05,0.0004,3
12104,12536,0.00014,-0.00014,4e-05,5.9999999999999995e-05,0.00033999999999999997,0.00021,5e-05,0.0004,3
12105,12538,0.00014,-0.00014,4e-05,5.9999999999999995e-05,0.00033999999999999997,0.00021,5e-05,0.0004,3
12106,12539,0.00014,-0.00014,4e-05,5.9999999999999995e-05,0.00033999999999999997,0.00021,5e-05,0.0004,3
12107,12540,0.00018999999999999998,-0.00029,-8e-05,-2.9999999999999997e-05,-0.00022999999999999998,-0.00056,-0.0002,0.0009699999999999999,3
12108,12541,0.00018999999999999998,-0.00029,-8e-05,-2.9999999999999997e-05,-0.00022999999999999998,-0.00056,-0.0002,0.0009699999999999999,3
12109,12542,0.00032,0.00095,0.0001,-1e-05,-8e-05,0.00036,-7e-05,-0.00086,3
12110,12543,0.00032,0.00095,0.0001,-1e-05,-8e-05,0.00036,-7e-05,-0.00086,3
12111,12544,0.00032,0.00095,0.0001,-1e-05,-8e-05,0.00036,-7e-05,-0.00086,3
12112,12545,0.00032,0.00095,0.0001,-1e-05,-8e-05,0.00036,-7e-05,-0.00086,3
12113,12546,0.00032,0.00095,0.0001,-1e-05,-8e-05,0.00036,-7e-05,-0.00086,3
12114,12547,0.00032,0.00095,0.0001,-1e-05,-8e-05,0.00036,-7e-05,-0.00086,3
12115,12548,0.00032,0.00095,0.0001,-1e-05,-8e-05,0.00036,-7e-05,-0.00086,3
12116,12549,0.00032,0.00095,0.0001,-1e-05,-8e-05,0.00036,-7e-05,-0.00086,3
12117,12550,0.00032,0.00095,0.0001,-1e-05,-8e-05,0.00036,-7e-05,-0.00086,3
12118,12551,0.00032,0.00095,0.0001,-1e-05,-8e-05,0.00036,-7e-05,-0.00086,3
12119,12552,0.00032,0.00095,0.0001,-1e-05,-8e-05,0.00036,-7e-05,-0.00086,3
12120,12553,0.00032,0.00095,0.0001,-1e-05,-8e-05,0.00036,-7e-05,-0.00086,3
12121,12554,0.00032,0.00095,0.0001,-1e-05,-8e-05,0.00036,-7e-05,-0.00086,3
12122,12555,-0.0002,-0.00058,-9e-05,-5.9999999999999995e-05,-0.00011,0.00011,0.00023999999999999998,0.00044,3
12123,12556,-0.0002,-0.00058,-9e-05,-5.9999999999999995e-05,-0.00011,0.00011,0.00023999999999999998,0.00044,3
12124,12557,-4e-05,-0.00014,0.0,-4e-05,-0.0008900000000000001,0.0,-0.00013000000000000002,0.00035,3
12125,12558,-4e-05,-0.00014,0.0,-4e-05,-0.0008900000000000001,0.0,-0.00013000000000000002,0.00035,3
12126,12559,-4e-05,-0.00014,0.0,-4e-05,-0.0008900000000000001,0.0,-0.00013000000000000002,0.00035,3
12127,12560,-4e-05,-0.00014,0.0,-4e-05,-0.0008900000000000001,0.0,-0.00013000000000000002,0.00035,3
12128,12561,-4e-05,-0.00014,0.0,-4e-05,-0.0008900000000000001,0.0,-0.00013000000000000002,0.00035,3
12129,12562,-4e-05,-0.00014,0.0,-4e-05,-0.0008900000000000001,0.0,-0.00013000000000000002,0.00035,3
12130,12563,-4e-05,-0.00014,0.0,-4e-05,-0.0008900000000000001,0.0,-0.00013000000000000002,0.00035,3
12131,12564,-4e-05,-0.00014,0.0,-4e-05,-0.0008900000000000001,0.0,-0.00013000000000000002,0.00035,3
12132,12565,-4e-05,-0.00014,0.0,-4e-05,-0.0008900000000000001,0.0,-0.00013000000000000002,0.00035,3
12133,12566,-4e-05,-0.00014,0.0,-4e-05,-0.0008900000000000001,0.0,-0.00013000000000000002,0.00035,3
12134,12567,-4e-05,-0.00014,0.0,-4e-05,-0.0008900000000000001,0.0,-0.00013000000000000002,0.00035,3
12135,12568,-4e-05,-0.00014,0.0,-4e-05,-0.0008900000000000001,0.0,-0.00013000000000000002,0.00035,3
12136,12569,-4e-05,-0.00014,0.0,-4e-05,-0.0008900000000000001,0.0,-0.00013000000000000002,0.00035,3
12137,12570,-4e-05,-0.00014,0.0,-4e-05,-0.0008900000000000001,0.0,-0.00013000000000000002,0.00035,3
12138,12571,-4e-05,-0.00014,0.0,-4e-05,-0.0008900000000000001,0.0,-0.00013000000000000002,0.00035,3
12139,12572,-4e-05,-0.00014,0.0,-4e-05,-0.0008900000000000001,0.0,-0.00013000000000000002,0.00035,3
12140,12573,-4e-05,-0.00014,0.0,-4e-05,-0.0008900000000000001,0.0,-0.00013000000000000002,0.00035,3
12141,12574,-4e-05,-0.00014,0.0,-4e-05,-0.0008900000000000001,0.0,-0.00013000000000000002,0.00035,3
12142,12575,-4e-05,-0.00014,0.0,-4e-05,-0.0008900000000000001,0.0,-0.00013000000000000002,0.00035,3
12143,12576,-4e-05,-0.00014,0.0,-4e-05,-0.0008900000000000001,0.0,-0.00013000000000000002,0.00035,3
12144,12577,8e-05,1e-05,2e-05,-8e-05,-0.00032,-4e-05,-0.00013000000000000002,-0.0008,3
12145,12578,8e-05,1e-05,2e-05,-8e-05,-0.00032,-4e-05,-0.00013000000000000002,-0.0008,3
12146,12579,8e-05,1e-05,2e-05,-8e-05,-0.00032,-4e-05,-0.00013000000000000002,-0.0008,3
12147,12580,8e-05,1e-05,2e-05,-8e-05,-0.00032,-4e-05,-0.00013000000000000002,-0.0008,3
12148,12581,8e-05,1e-05,2e-05,-8e-05,-0.00032,-4e-05,-0.00013000000000000002,-0.0008,3
12149,12582,8e-05,1e-05,2e-05,-8e-05,-0.00032,-4e-05,-0.00013000000000000002,-0.0008,3
12150,12583,8e-05,1e-05,2e-05,-8e-05,-0.00032,-4e-05,-0.00013000000000000002,-0.0008,3
12151,12584,8e-05,1e-05,2e-05,-8e-05,-0.00032,-4e-05,-0.00013000000000000002,-0.0008,3
12152,12585,-0.00032,-0.00079,-0.00011,4e-05,0.00066,0.00037,0.00011999999999999999,-0.0005099999999999999,3
12153,12586,-0.00032,-0.00079,-0.00011,4e-05,0.00066,0.00037,0.00011999999999999999,-0.0005099999999999999,3
12154,12588,-0.00032,-0.00079,-0.00011,4e-05,0.00066,0.00037,0.00011999999999999999,-0.0005099999999999999,3
12155,12589,-0.00032,-0.00079,-0.00011,4e-05,0.00066,0.00037,0.00011999999999999999,-0.0005099999999999999,3
12156,12590,-0.00032,-0.00079,-0.00011,4e-05,0.00066,0.00037,0.00011999999999999999,-0.0005099999999999999,3
12157,12591,-0.00032,-0.00079,-0.00011,4e-05,0.00066,0.00037,0.00011999999999999999,-0.0005099999999999999,3
12158,12592,0.00016,-2e-05,-4e-05,0.0,5.9999999999999995e-05,0.00061,-4e-05,0.00026000000000000003,3
12159,12593,0.00016,-2e-05,-4e-05,0.0,5.9999999999999995e-05,0.00061,-4e-05,0.00026000000000000003,3
12160,12594,0.00016,-2e-05,-4e-05,0.0,5.9999999999999995e-05,0.00061,-4e-05,0.00026000000000000003,3
12161,12595,0.00016,-2e-05,-4e-05,0.0,5.9999999999999995e-05,0.00061,-4e-05,0.00026000000000000003,3
12162,12596,0.00016,-2e-05,-4e-05,0.0,5.9999999999999995e-05,0.00061,-4e-05,0.00026000000000000003,3
12163,12597,0.00016,-2e-05,-4e-05,0.0,5.9999999999999995e-05,0.00061,-4e-05,0.00026000000000000003,3
12164,12598,0.00016,-2e-05,-4e-05,0.0,5.9999999999999995e-05,0.00061,-4e-05,0.00026000000000000003,3
12165,12599,0.00016,-2e-05,-4e-05,0.0,5.9999999999999995e-05,0.00061,-4e-05,0.00026000000000000003,3
12166,12600,0.00016,-2e-05,-4e-05,0.0,5.9999999999999995e-05,0.00061,-4e-05,0.00026000000000000003,3
12167,12601,0.00016,-2e-05,-4e-05,0.0,5.9999999999999995e-05,0.00061,-4e-05,0.00026000000000000003,3
12168,12602,0.00016,-2e-05,-4e-05,0.0,5.9999999999999995e-05,0.00061,-4e-05,0.00026000000000000003,3
12169,12603,0.00016,-2e-05,-4e-05,0.0,5.9999999999999995e-05,0.00061,-4e-05,0.00026000000000000003,3
12170,12604,0.00016,-2e-05,-4e-05,0.0,5.9999999999999995e-05,0.00061,-4e-05,0.00026000000000000003,3
12171,12605,0.00016,-2e-05,-4e-05,0.0,5.9999999999999995e-05,0.00061,-4e-05,0.00026000000000000003,3
12172,12606,0.00033999999999999997,0.00018999999999999998,-1e-05,-1e-05,-8e-05,0.0001,-0.00023999999999999998,-0.0008300000000000001,3
12173,12607,0.00033999999999999997,0.00018999999999999998,-1e-05,-1e-05,-8e-05,0.0001,-0.00023999999999999998,-0.0008300000000000001,3
12174,12608,0.00033999999999999997,0.00018999999999999998,-1e-05,-1e-05,-8e-05,0.0001,-0.00023999999999999998,-0.0008300000000000001,3
12175,12609,0.00033999999999999997,0.00018999999999999998,-1e-05,-1e-05,-8e-05,0.0001,-0.00023999999999999998,-0.0008300000000000001,3
12176,12610,0.00033999999999999997,0.00018999999999999998,-1e-05,-1e-05,-8e-05,0.0001,-0.00023999999999999998,-0.0008300000000000001,3
12177,12611,0.00033999999999999997,0.00018999999999999998,-1e-05,-1e-05,-8e-05,0.0001,-0.00023999999999999998,-0.0008300000000000001,3
12178,12612,0.00033999999999999997,0.00018999999999999998,-1e-05,-1e-05,-8e-05,0.0001,-0.00023999999999999998,-0.0008300000000000001,3
12179,12613,0.00033999999999999997,0.00018999999999999998,-1e-05,-1e-05,-8e-05,0.0001,-0.00023999999999999998,-0.0008300000000000001,3
12180,12614,0.00033999999999999997,0.00018999999999999998,-1e-05,-1e-05,-8e-05,0.0001,-0.00023999999999999998,-0.0008300000000000001,3
12181,12615,9e-05,0.0010400000000000001,0.00014,5e-05,1e-05,-0.00064,-0.00016999999999999999,-0.00073,3
12182,12616,9e-05,0.0010400000000000001,0.00014,5e-05,1e-05,-0.00064,-0.00016999999999999999,-0.00073,3
12183,12617,-2e-05,0.0,-5e-05,-9e-05,-0.00015,-0.00018,7e-05,0.00021,3
12184,12618,-2e-05,0.0,-5e-05,-9e-05,-0.00015,-0.00018,7e-05,0.00021,3
12185,12619,-2e-05,0.0,-5e-05,-9e-05,-0.00015,-0.00018,7e-05,0.00021,3
12186,12620,-2e-05,0.0,-5e-05,-9e-05,-0.00015,-0.00018,7e-05,0.00021,3
12187,12621,-2e-05,0.0,-5e-05,-9e-05,-0.00015,-0.00018,7e-05,0.00021,3
12188,12622,-2e-05,0.0,-5e-05,-9e-05,-0.00015,-0.00018,7e-05,0.00021,3
12189,12623,-2e-05,0.0,-5e-05,-9e-05,-0.00015,-0.00018,7e-05,0.00021,3
12190,12624,-2e-05,0.0,-5e-05,-9e-05,-0.00015,-0.00018,7e-05,0.00021,3
12191,12625,-2e-05,0.0,-5e-05,-9e-05,-0.00015,-0.00018,7e-05,0.00021,3
12192,12626,-2e-05,0.0,-5e-05,-9e-05,-0.00015,-0.00018,7e-05,0.00021,3
12193,12627,-2e-05,0.0,-5e-05,-9e-05,-0.00015,-0.00018,7e-05,0.00021,3
12194,12628,-2e-05,0.0,-5e-05,-9e-05,-0.00015,-0.00018,7e-05,0.00021,3
12195,12629,-2e-05,0.0,-5e-05,-9e-05,-0.00015,-0.00018,7e-05,0.00021,3
12196,12630,-2e-05,0.0,-5e-05,-9e-05,-0.00015,-0.00018,7e-05,0.00021,3
12197,12631,-2e-05,0.0,-5e-05,-9e-05,-0.00015,-0.00018,7e-05,0.00021,3
12198,12632,-2e-05,0.0,-5e-05,-9e-05,-0.00015,-0.00018,7e-05,0.00021,3
12199,12633,-2e-05,0.0,-5e-05,-9e-05,-0.00015,-0.00018,7e-05,0.00021,3
12200,12634,-2e-05,0.0,-5e-05,-9e-05,-0.00015,-0.00018,7e-05,0.00021,3
12201,12635,-2e-05,0.0,-5e-05,-9e-05,-0.00015,-0.00018,7e-05,0.00021,3
12202,12636,-2e-05,0.0,-5e-05,-9e-05,-0.00015,-0.00018,7e-05,0.00021,3
12203,12639,-0.00018,0.00023999999999999998,-2.9999999999999997e-05,2e-05,0.00055,-7e-05,-5e-05,0.00018,3
12204,12640,-0.00018,0.00023999999999999998,-2.9999999999999997e-05,2e-05,0.00055,-7e-05,-5e-05,0.00018,3
12205,12641,-0.00018,0.00023999999999999998,-2.9999999999999997e-05,2e-05,0.00055,-7e-05,-5e-05,0.00018,3
12206,12642,-0.00018,0.00023999999999999998,-2.9999999999999997e-05,2e-05,0.00055,-7e-05,-5e-05,0.00018,3
12207,12643,-0.00018,0.00023999999999999998,-2.9999999999999997e-05,2e-05,0.00055,-7e-05,-5e-05,0.00018,3
12208,12644,-0.00018,0.00023999999999999998,-2.9999999999999997e-05,2e-05,0.00055,-7e-05,-5e-05,0.00018,3
12209,12645,-0.00018,0.00023999999999999998,-2.9999999999999997e-05,2e-05,0.00055,-7e-05,-5e-05,0.00018,3
12210,12646,-0.00018,0.00023999999999999998,-2.9999999999999997e-05,2e-05,0.00055,-7e-05,-5e-05,0.00018,3
12211,12647,-0.00018,0.00023999999999999998,-2.9999999999999997e-05,2e-05,0.00055,-7e-05,-5e-05,0.00018,3
12212,12648,-0.00018,0.00023999999999999998,-2.9999999999999997e-05,2e-05,0.00055,-7e-05,-5e-05,0.00018,3
12213,12649,-0.00018,0.00023999999999999998,-2.9999999999999997e-05,2e-05,0.00055,-7e-05,-5e-05,0.00018,3
12214,12650,-0.00018,0.00023999999999999998,-2.9999999999999997e-05,2e-05,0.00055,-7e-05,-5e-05,0.00018,3
12215,12651,-0.00018,0.00023999999999999998,-2.9999999999999997e-05,2e-05,0.00055,-7e-05,-5e-05,0.00018,3
12216,12652,-0.00041,1e-05,4e-05,2.9999999999999997e-05,0.00028,0.00014,0.0001,-0.00044,3
12217,12653,-0.00041,1e-05,4e-05,2.9999999999999997e-05,0.00028,0.00014,0.0001,-0.00044,3
12218,12654,-0.00041,1e-05,4e-05,2.9999999999999997e-05,0.00028,0.00014,0.0001,-0.00044,3
12219,12655,-0.00041,1e-05,4e-05,2.9999999999999997e-05,0.00028,0.00014,0.0001,-0.00044,3
12220,12656,-0.00041,1e-05,4e-05,2.9999999999999997e-05,0.00028,0.00014,0.0001,-0.00044,3
12221,12657,-0.00041,1e-05,4e-05,2.9999999999999997e-05,0.00028,0.00014,0.0001,-0.00044,3
12222,12658,-0.00041,1e-05,4e-05,2.9999999999999997e-05,0.00028,0.00014,0.0001,-0.00044,3
12223,12659,-0.00041,1e-05,4e-05,2.9999999999999997e-05,0.00028,0.00014,0.0001,-0.00044,3
12224,12660,-0.0001,-0.00044,-0.00013000000000000002,-5e-05,-0.00011,-0.00058,-2.9999999999999997e-05,-0.00059,3
12225,12661,-0.0001,-0.00044,-0.00013000000000000002,-5e-05,-0.00011,-0.00058,-2.9999999999999997e-05,-0.00059,3
12226,12662,-0.0001,-0.00044,-0.00013000000000000002,-5e-05,-0.00011,-0.00058,-2.9999999999999997e-05,-0.00059,3
12227,12663,-0.0001,-0.00044,-0.00013000000000000002,-5e-05,-0.00011,-0.00058,-2.9999999999999997e-05,-0.00059,3
12228,12664,-0.0001,-0.00044,-0.00013000000000000002,-5e-05,-0.00011,-0.00058,-2.9999999999999997e-05,-0.00059,3
12229,12665,-0.0001,-0.00044,-0.00013000000000000002,-5e-05,-0.00011,-0.00058,-2.9999999999999997e-05,-0.00059,3
12230,12666,-0.0001,-0.00044,-0.00013000000000000002,-5e-05,-0.00011,-0.00058,-2.9999999999999997e-05,-0.00059,3
12231,12667,-0.0001,-0.00044,-0.00013000000000000002,-5e-05,-0.00011,-0.00058,-2.9999999999999997e-05,-0.00059,3
12232,12668,-0.0001,-0.00044,-0.00013000000000000002,-5e-05,-0.00011,-0.00058,-2.9999999999999997e-05,-0.00059,3
12233,12669,-0.0001,-0.00044,-0.00013000000000000002,-5e-05,-0.00011,-0.00058,-2.9999999999999997e-05,-0.00059,3
12234,12670,-0.0001,-0.00044,-0.00013000000000000002,-5e-05,-0.00011,-0.00058,-2.9999999999999997e-05,-0.00059,3
12235,12671,-0.0001,-0.00044,-0.00013000000000000002,-5e-05,-0.00011,-0.00058,-2.9999999999999997e-05,-0.00059,3
12236,12672,-0.0001,-0.00044,-0.00013000000000000002,-5e-05,-0.00011,-0.00058,-2.9999999999999997e-05,-0.00059,3
12237,12673,-0.0001,-0.00044,-0.00013000000000000002,-5e-05,-0.00011,-0.00058,-2.9999999999999997e-05,-0.00059,3
12238,12674,-0.0001,-0.00044,-0.00013000000000000002,-5e-05,-0.00011,-0.00058,-2.9999999999999997e-05,-0.00059,3
12239,12675,-0.0001,-7e-05,5e-05,1e-05,5.9999999999999995e-05,0.00042,5e-05,0.00039,3
12240,12676,-0.0001,-7e-05,5e-05,1e-05,5.9999999999999995e-05,0.00042,5e-05,0.00039,3
12241,12677,8e-05,0.0006900000000000001,4e-05,7e-05,0.0007700000000000001,-7e-05,0.0,-0.00014,3
12242,12678,8e-05,0.0006900000000000001,4e-05,7e-05,0.0007700000000000001,-7e-05,0.0,-0.00014,3
12243,12679,8e-05,0.0006900000000000001,4e-05,7e-05,0.0007700000000000001,-7e-05,0.0,-0.00014,3
12244,12680,8e-05,0.0006900000000000001,4e-05,7e-05,0.0007700000000000001,-7e-05,0.0,-0.00014,3
12245,12681,8e-05,0.0006900000000000001,4e-05,7e-05,0.0007700000000000001,-7e-05,0.0,-0.00014,3
12246,12682,8e-05,0.0006900000000000001,4e-05,7e-05,0.0007700000000000001,-7e-05,0.0,-0.00014,3
12247,12683,8e-05,0.0006900000000000001,4e-05,7e-05,0.0007700000000000001,-7e-05,0.0,-0.00014,3
12248,12684,8e-05,0.0006900000000000001,4e-05,7e-05,0.0007700000000000001,-7e-05,0.0,-0.00014,3
12249,12685,8e-05,0.0006900000000000001,4e-05,7e-05,0.0007700000000000001,-7e-05,0.0,-0.00014,3
12250,12686,8e-05,0.0006900000000000001,4e-05,7e-05,0.0007700000000000001,-7e-05,0.0,-0.00014,3
12251,12688,8e-05,0.0006900000000000001,4e-05,7e-05,0.0007700000000000001,-7e-05,0.0,-0.00014,3
12252,12689,8e-05,0.0006900000000000001,4e-05,7e-05,0.0007700000000000001,-7e-05,0.0,-0.00014,3
12253,12690,8e-05,0.0006900000000000001,4e-05,7e-05,0.0007700000000000001,-7e-05,0.0,-0.00014,3
12254,12691,8e-05,0.0006900000000000001,4e-05,7e-05,0.0007700000000000001,-7e-05,0.0,-0.00014,3
12255,12692,8e-05,0.0006900000000000001,4e-05,7e-05,0.0007700000000000001,-7e-05,0.0,-0.00014,3
12256,12693,8e-05,0.0006900000000000001,4e-05,7e-05,0.0007700000000000001,-7e-05,0.0,-0.00014,3
12257,12694,8e-05,0.0006900000000000001,4e-05,7e-05,0.0007700000000000001,-7e-05,0.0,-0.00014,3
12258,12695,8e-05,0.0006900000000000001,4e-05,7e-05,0.0007700000000000001,-7e-05,0.0,-0.00014,3
12259,12696,8e-05,0.0006900000000000001,4e-05,7e-05,0.0007700000000000001,-7e-05,0.0,-0.00014,3
12260,12697,8e-05,0.0006900000000000001,4e-05,7e-05,0.0007700000000000001,-7e-05,0.0,-0.00014,3
12261,12698,-1e-05,0.00022999999999999998,5.9999999999999995e-05,2.9999999999999997e-05,0.00044,0.00061,-0.00016,-0.00059,3
12262,12699,0.00018,4e-05,5e-05,-2.9999999999999997e-05,-0.00065,0.00027,0.00027,0.0007599999999999999,3
12263,12700,0.00018,4e-05,5e-05,-2.9999999999999997e-05,-0.00065,0.00027,0.00027,0.0007599999999999999,3
12264,12701,0.00018,4e-05,5e-05,-2.9999999999999997e-05,-0.00065,0.00027,0.00027,0.0007599999999999999,3
12265,12702,0.00018,4e-05,5e-05,-2.9999999999999997e-05,-0.00065,0.00027,0.00027,0.0007599999999999999,3
12266,12703,0.00018,4e-05,5e-05,-2.9999999999999997e-05,-0.00065,0.00027,0.00027,0.0007599999999999999,3
12267,12704,0.00018,4e-05,5e-05,-2.9999999999999997e-05,-0.00065,0.00027,0.00027,0.0007599999999999999,3
12268,12705,0.00018,4e-05,5e-05,-2.9999999999999997e-05,-0.00065,0.00027,0.00027,0.0007599999999999999,3
12269,12706,0.00018,4e-05,5e-05,-2.9999999999999997e-05,-0.00065,0.00027,0.00027,0.0007599999999999999,3
12270,12707,0.00018,4e-05,5e-05,-2.9999999999999997e-05,-0.00065,0.00027,0.00027,0.0007599999999999999,3
12271,12708,0.00018,4e-05,5e-05,-2.9999999999999997e-05,-0.00065,0.00027,0.00027,0.0007599999999999999,3
12272,12709,0.00018,4e-05,5e-05,-2.9999999999999997e-05,-0.00065,0.00027,0.00027,0.0007599999999999999,3
12273,12710,0.00018,4e-05,5e-05,-2.9999999999999997e-05,-0.00065,0.00027,0.00027,0.0007599999999999999,3
12274,12711,0.00018,4e-05,5e-05,-2.9999999999999997e-05,-0.00065,0.00027,0.00027,0.0007599999999999999,3
12275,12712,-2e-05,0.0005200000000000001,4e-05,-2.9999999999999997e-05,2.9999999999999997e-05,0.00059,4e-05,-0.00079,3
12276,12713,2.9999999999999997e-05,-0.00018,-2e-05,1e-05,-1e-05,0.00013000000000000002,4e-05,4e-05,3
12277,12714,2.9999999999999997e-05,-0.00018,-2e-05,1e-05,-1e-05,0.00013000000000000002,4e-05,4e-05,3
12278,12715,2.9999999999999997e-05,-0.00018,-2e-05,1e-05,-1e-05,0.00013000000000000002,4e-05,4e-05,3
12279,12716,2.9999999999999997e-05,-0.00018,-2e-05,1e-05,-1e-05,0.00013000000000000002,4e-05,4e-05,3
12280,12717,2.9999999999999997e-05,-0.00018,-2e-05,1e-05,-1e-05,0.00013000000000000002,4e-05,4e-05,3
12281,12718,2.9999999999999997e-05,-0.00018,-2e-05,1e-05,-1e-05,0.00013000000000000002,4e-05,4e-05,3
12282,12719,-0.00032,-0.00027,-9e-05,-1e-05,-0.00015,0.00056,5e-05,4e-05,3
12283,12720,-0.00032,-0.00027,-9e-05,-1e-05,-0.00015,0.00056,5e-05,4e-05,3
12284,12721,-0.00032,-0.00027,-9e-05,-1e-05,-0.00015,0.00056,5e-05,4e-05,3
12285,12722,-0.00032,-0.00027,-9e-05,-1e-05,-0.00015,0.00056,5e-05,4e-05,3
12286,12723,-0.00032,-0.00027,-9e-05,-1e-05,-0.00015,0.00056,5e-05,4e-05,3
12287,12724,-0.00032,-0.00027,-9e-05,-1e-05,-0.00015,0.00056,5e-05,4e-05,3
12288,12725,-0.00032,-0.00027,-9e-05,-1e-05,-0.00015,0.00056,5e-05,4e-05,3
12289,12726,-0.00032,-0.00027,-9e-05,-1e-05,-0.00015,0.00056,5e-05,4e-05,3
12290,12727,-0.00032,-0.00027,-9e-05,-1e-05,-0.00015,0.00056,5e-05,4e-05,3
12291,12728,-0.00032,-0.00027,-9e-05,-1e-05,-0.00015,0.00056,5e-05,4e-05,3
12292,12729,-0.00032,-0.00027,-9e-05,-1e-05,-0.00015,0.00056,5e-05,4e-05,3
12293,12730,-0.00032,-0.00027,-9e-05,-1e-05,-0.00015,0.00056,5e-05,4e-05,3
12294,12731,-0.00032,-0.00027,-9e-05,-1e-05,-0.00015,0.00056,5e-05,4e-05,3
12295,12732,-0.00032,-0.00027,-9e-05,-1e-05,-0.00015,0.00056,5e-05,4e-05,3
12296,12733,-0.00032,-0.00027,-9e-05,-1e-05,-0.00015,0.00056,5e-05,4e-05,3
12297,12734,-0.00032,-0.00027,-9e-05,-1e-05,-0.00015,0.00056,5e-05,4e-05,3
12298,12735,0.00031,0.0006,7e-05,-5.9999999999999995e-05,-0.00036,-0.0006900000000000001,-0.00016999999999999999,0.00058,3
12299,12736,0.00031,0.0006,7e-05,-5.9999999999999995e-05,-0.00036,-0.0006900000000000001,-0.00016999999999999999,0.00058,3
12300,12738,-0.00018,1e-05,-4e-05,5e-05,0.0002,0.00041,5e-05,-0.00103,3
12301,12739,-0.00018,1e-05,-4e-05,5e-05,0.0002,0.00041,5e-05,-0.00103,3
12302,12740,-0.00018,1e-05,-4e-05,5e-05,0.0002,0.00041,5e-05,-0.00103,3
12303,12741,-0.00018,1e-05,-4e-05,5e-05,0.0002,0.00041,5e-05,-0.00103,3
12304,12742,-0.00018,1e-05,-4e-05,5e-05,0.0002,0.00041,5e-05,-0.00103,3
12305,12743,-0.00018,1e-05,-4e-05,5e-05,0.0002,0.00041,5e-05,-0.00103,3
12306,12744,-0.00018,1e-05,-4e-05,5e-05,0.0002,0.00041,5e-05,-0.00103,3
12307,12745,-0.00018,1e-05,-4e-05,5e-05,0.0002,0.00041,5e-05,-0.00103,3
12308,12746,-0.00018,1e-05,-4e-05,5e-05,0.0002,0.00041,5e-05,-0.00103,3
12309,12747,-0.00018,1e-05,-4e-05,5e-05,0.0002,0.00041,5e-05,-0.00103,3
12310,12748,-0.00018,1e-05,-4e-05,5e-05,0.0002,0.00041,5e-05,-0.00103,3
12311,12749,-0.00018,1e-05,-4e-05,5e-05,0.0002,0.00041,5e-05,-0.00103,3
12312,12750,-0.00018,1e-05,-4e-05,5e-05,0.0002,0.00041,5e-05,-0.00103,3
12313,12751,-0.00018,1e-05,-4e-05,5e-05,0.0002,0.00041,5e-05,-0.00103,3
12314,12752,-0.00018,1e-05,-4e-05,5e-05,0.0002,0.00041,5e-05,-0.00103,3
12315,12753,-0.00018,1e-05,-4e-05,5e-05,0.0002,0.00041,5e-05,-0.00103,3
12316,12754,-0.00018,1e-05,-4e-05,5e-05,0.0002,0.00041,5e-05,-0.00103,3
12317,12755,-0.00018,1e-05,-4e-05,5e-05,0.0002,0.00041,5e-05,-0.00103,3
12318,12756,-0.00018,1e-05,-4e-05,5e-05,0.0002,0.00041,5e-05,-0.00103,3
12319,12757,-0.00018,1e-05,-4e-05,5e-05,0.0002,0.00041,5e-05,-0.00103,3
12320,12758,0.00013000000000000002,-0.00061,-0.00011999999999999999,-5.9999999999999995e-05,-0.0001,2e-05,-5e-05,0.00016,3
12321,12759,0.00025,0.00073,0.0001,0.0,-0.00011,-0.0009199999999999999,-8e-05,2.9999999999999997e-05,3
12322,12760,0.00025,0.00073,0.0001,0.0,-0.00011,-0.0009199999999999999,-8e-05,2.9999999999999997e-05,3
12323,12761,0.00025,0.00073,0.0001,0.0,-0.00011,-0.0009199999999999999,-8e-05,2.9999999999999997e-05,3
12324,12762,0.00025,0.00073,0.0001,0.0,-0.00011,-0.0009199999999999999,-8e-05,2.9999999999999997e-05,3
12325,12763,0.00025,0.00073,0.0001,0.0,-0.00011,-0.0009199999999999999,-8e-05,2.9999999999999997e-05,3
12326,12764,0.00025,0.00073,0.0001,0.0,-0.00011,-0.0009199999999999999,-8e-05,2.9999999999999997e-05,3
12327,12765,0.00025,0.00073,0.0001,0.0,-0.00011,-0.0009199999999999999,-8e-05,2.9999999999999997e-05,3
12328,12766,0.00025,0.00073,0.0001,0.0,-0.00011,-0.0009199999999999999,-8e-05,2.9999999999999997e-05,3
12329,12767,0.00025,0.00073,0.0001,0.0,-0.00011,-0.0009199999999999999,-8e-05,2.9999999999999997e-05,3
12330,12768,0.00025,0.00073,0.0001,0.0,-0.00011,-0.0009199999999999999,-8e-05,2.9999999999999997e-05,3
12331,12769,0.00025,0.00073,0.0001,0.0,-0.00011,-0.0009199999999999999,-8e-05,2.9999999999999997e-05,3
12332,12770,0.00025,0.00073,0.0001,0.0,-0.00011,-0.0009199999999999999,-8e-05,2.9999999999999997e-05,3
12333,12771,0.00025,0.00073,0.0001,0.0,-0.00011,-0.0009199999999999999,-8e-05,2.9999999999999997e-05,3
12334,12772,-0.00016,-0.00033,-4e-05,2.9999999999999997e-05,0.0,5e-05,0.00027,-0.0009199999999999999,3
12335,12773,-0.00016,-0.00033,-4e-05,2.9999999999999997e-05,0.0,5e-05,0.00027,-0.0009199999999999999,3
12336,12774,-0.00016,-0.00033,-4e-05,2.9999999999999997e-05,0.0,5e-05,0.00027,-0.0009199999999999999,3
12337,12775,-0.00016,-0.00033,-4e-05,2.9999999999999997e-05,0.0,5e-05,0.00027,-0.0009199999999999999,3
12338,12776,-0.00016,-0.00033,-4e-05,2.9999999999999997e-05,0.0,5e-05,0.00027,-0.0009199999999999999,3
12339,12777,-0.00016,-0.00033,-4e-05,2.9999999999999997e-05,0.0,5e-05,0.00027,-0.0009199999999999999,3
12340,12778,-0.00016,-0.00033,-4e-05,2.9999999999999997e-05,0.0,5e-05,0.00027,-0.0009199999999999999,3
12341,12779,0.00013000000000000002,5e-05,9e-05,-1e-05,-0.00026000000000000003,0.00028,2.9999999999999997e-05,-2e-05,3
12342,12780,0.00013000000000000002,5e-05,9e-05,-1e-05,-0.00026000000000000003,0.00028,2.9999999999999997e-05,-2e-05,3
12343,12781,0.00013000000000000002,5e-05,9e-05,-1e-05,-0.00026000000000000003,0.00028,2.9999999999999997e-05,-2e-05,3
12344,12782,0.00013000000000000002,5e-05,9e-05,-1e-05,-0.00026000000000000003,0.00028,2.9999999999999997e-05,-2e-05,3
12345,12783,0.00013000000000000002,5e-05,9e-05,-1e-05,-0.00026000000000000003,0.00028,2.9999999999999997e-05,-2e-05,3
12346,12784,0.00013000000000000002,5e-05,9e-05,-1e-05,-0.00026000000000000003,0.00028,2.9999999999999997e-05,-2e-05,3
12347,12785,0.00013000000000000002,5e-05,9e-05,-1e-05,-0.00026000000000000003,0.00028,2.9999999999999997e-05,-2e-05,3
12348,12786,0.00013000000000000002,5e-05,9e-05,-1e-05,-0.00026000000000000003,0.00028,2.9999999999999997e-05,-2e-05,3
12349,12788,0.00013000000000000002,5e-05,9e-05,-1e-05,-0.00026000000000000003,0.00028,2.9999999999999997e-05,-2e-05,3
12350,12789,0.00013000000000000002,5e-05,9e-05,-1e-05,-0.00026000000000000003,0.00028,2.9999999999999997e-05,-2e-05,3
12351,12790,0.00013000000000000002,5e-05,9e-05,-1e-05,-0.00026000000000000003,0.00028,2.9999999999999997e-05,-2e-05,3
12352,12791,0.00013000000000000002,5e-05,9e-05,-1e-05,-0.00026000000000000003,0.00028,2.9999999999999997e-05,-2e-05,3
12353,12792,0.00013000000000000002,5e-05,9e-05,-1e-05,-0.00026000000000000003,0.00028,2.9999999999999997e-05,-2e-05,3
12354,12793,0.00013000000000000002,5e-05,9e-05,-1e-05,-0.00026000000000000003,0.00028,2.9999999999999997e-05,-2e-05,3
12355,12794,0.00013000000000000002,5e-05,9e-05,-1e-05,-0.00026000000000000003,0.00028,2.9999999999999997e-05,-2e-05,3
12356,12795,-0.00022999999999999998,-0.0001,0.0,-2e-05,0.00027,-0.00021,-8e-05,-0.00042,3
12357,12796,-0.00022999999999999998,-0.0001,0.0,-2e-05,0.00027,-0.00021,-8e-05,-0.00042,3
12358,12797,0.00022,-0.00016999999999999999,-4e-05,-5e-05,-0.00039,0.00014,-5.9999999999999995e-05,0.00082,3
12359,12798,0.00022,-0.00016999999999999999,-4e-05,-5e-05,-0.00039,0.00014,-5.9999999999999995e-05,0.00082,3
12360,12799,0.00022,-0.00016999999999999999,-4e-05,-5e-05,-0.00039,0.00014,-5.9999999999999995e-05,0.00082,3
12361,12800,0.00022,-0.00016999999999999999,-4e-05,-5e-05,-0.00039,0.00014,-5.9999999999999995e-05,0.00082,3
12362,12801,0.00022,-0.00016999999999999999,-4e-05,-5e-05,-0.00039,0.00014,-5.9999999999999995e-05,0.00082,3
12363,12802,0.00022,-0.00016999999999999999,-4e-05,-5e-05,-0.00039,0.00014,-5.9999999999999995e-05,0.00082,3
12364,12803,0.00022,-0.00016999999999999999,-4e-05,-5e-05,-0.00039,0.00014,-5.9999999999999995e-05,0.00082,3
12365,12804,0.00022,-0.00016999999999999999,-4e-05,-5e-05,-0.00039,0.00014,-5.9999999999999995e-05,0.00082,3
12366,12805,0.00022,-0.00016999999999999999,-4e-05,-5e-05,-0.00039,0.00014,-5.9999999999999995e-05,0.00082,3
12367,12806,0.00022,-0.00016999999999999999,-4e-05,-5e-05,-0.00039,0.00014,-5.9999999999999995e-05,0.00082,3
12368,12807,0.00022,-0.00016999999999999999,-4e-05,-5e-05,-0.00039,0.00014,-5.9999999999999995e-05,0.00082,3
12369,12808,0.00022,-0.00016999999999999999,-4e-05,-5e-05,-0.00039,0.00014,-5.9999999999999995e-05,0.00082,3
12370,12809,0.00022,-0.00016999999999999999,-4e-05,-5e-05,-0.00039,0.00014,-5.9999999999999995e-05,0.00082,3
12371,12810,0.00022,-0.00016999999999999999,-4e-05,-5e-05,-0.00039,0.00014,-5.9999999999999995e-05,0.00082,3
12372,12811,0.00022,-0.00016999999999999999,-4e-05,-5e-05,-0.00039,0.00014,-5.9999999999999995e-05,0.00082,3
12373,12812,0.00022,-0.00016999999999999999,-4e-05,-5e-05,-0.00039,0.00014,-5.9999999999999995e-05,0.00082,3
12374,12813,0.00022,-0.00016999999999999999,-4e-05,-5e-05,-0.00039,0.00014,-5.9999999999999995e-05,0.00082,3
12375,12814,0.00022,-0.00016999999999999999,-4e-05,-5e-05,-0.00039,0.00014,-5.9999999999999995e-05,0.00082,3
12376,12815,0.00022,-0.00016999999999999999,-4e-05,-5e-05,-0.00039,0.00014,-5.9999999999999995e-05,0.00082,3
12377,12816,0.00022,-0.00016999999999999999,-4e-05,-5e-05,-0.00039,0.00014,-5.9999999999999995e-05,0.00082,3
12378,12817,0.00022,-0.00016999999999999999,-4e-05,-5e-05,-0.00039,0.00014,-5.9999999999999995e-05,0.00082,3
12379,12818,-5.9999999999999995e-05,0.00037,-1e-05,2.9999999999999997e-05,0.00014,-0.00018999999999999998,-0.0001,0.00032,3
12380,12819,-2e-05,-7e-05,-1e-05,-5e-05,-0.00032,-4e-05,0.00011,0.0002,3
12381,12820,-2e-05,-7e-05,-1e-05,-5e-05,-0.00032,-4e-05,0.00011,0.0002,3
12382,12821,-2e-05,-7e-05,-1e-05,-5e-05,-0.00032,-4e-05,0.00011,0.0002,3
12383,12822,-2e-05,-7e-05,-1e-05,-5e-05,-0.00032,-4e-05,0.00011,0.0002,3
12384,12823,-2e-05,-7e-05,-1e-05,-5e-05,-0.00032,-4e-05,0.00011,0.0002,3
12385,12824,-2e-05,-7e-05,-1e-05,-5e-05,-0.00032,-4e-05,0.00011,0.0002,3
12386,12825,-2e-05,-7e-05,-1e-05,-5e-05,-0.00032,-4e-05,0.00011,0.0002,3
12387,12826,-2e-05,-7e-05,-1e-05,-5e-05,-0.00032,-4e-05,0.00011,0.0002,3
12388,12827,-2e-05,-7e-05,-1e-05,-5e-05,-0.00032,-4e-05,0.00011,0.0002,3
12389,12828,-2e-05,-7e-05,-1e-05,-5e-05,-0.00032,-4e-05,0.00011,0.0002,3
12390,12829,-2e-05,-7e-05,-1e-05,-5e-05,-0.00032,-4e-05,0.00011,0.0002,3
12391,12830,-2e-05,-7e-05,-1e-05,-5e-05,-0.00032,-4e-05,0.00011,0.0002,3
12392,12831,-2e-05,-7e-05,-1e-05,-5e-05,-0.00032,-4e-05,0.00011,0.0002,3
12393,12832,0.00025,-0.00047999999999999996,-4e-05,2e-05,-9e-05,-0.0003,-0.00045,0.00023999999999999998,3
12394,12833,0.00025,-0.00047999999999999996,-4e-05,2e-05,-9e-05,-0.0003,-0.00045,0.00023999999999999998,3
12395,12834,0.00025,-0.00047999999999999996,-4e-05,2e-05,-9e-05,-0.0003,-0.00045,0.00023999999999999998,3
12396,12835,0.00025,-0.00047999999999999996,-4e-05,2e-05,-9e-05,-0.0003,-0.00045,0.00023999999999999998,3
12397,12836,0.00025,-0.00047999999999999996,-4e-05,2e-05,-9e-05,-0.0003,-0.00045,0.00023999999999999998,3
12398,12838,0.00025,-0.00047999999999999996,-4e-05,2e-05,-9e-05,-0.0003,-0.00045,0.00023999999999999998,3
12399,12839,2.9999999999999997e-05,0.00031,2e-05,2.9999999999999997e-05,-0.00056,-0.00067,-1e-05,5.9999999999999995e-05,3
12400,12840,2.9999999999999997e-05,0.00031,2e-05,2.9999999999999997e-05,-0.00056,-0.00067,-1e-05,5.9999999999999995e-05,3
12401,12841,2.9999999999999997e-05,0.00031,2e-05,2.9999999999999997e-05,-0.00056,-0.00067,-1e-05,5.9999999999999995e-05,3
12402,12842,2.9999999999999997e-05,0.00031,2e-05,2.9999999999999997e-05,-0.00056,-0.00067,-1e-05,5.9999999999999995e-05,3
12403,12843,2.9999999999999997e-05,0.00031,2e-05,2.9999999999999997e-05,-0.00056,-0.00067,-1e-05,5.9999999999999995e-05,3
12404,12844,2.9999999999999997e-05,0.00031,2e-05,2.9999999999999997e-05,-0.00056,-0.00067,-1e-05,5.9999999999999995e-05,3
12405,12845,2.9999999999999997e-05,0.00031,2e-05,2.9999999999999997e-05,-0.00056,-0.00067,-1e-05,5.9999999999999995e-05,3
12406,12846,2.9999999999999997e-05,0.00031,2e-05,2.9999999999999997e-05,-0.00056,-0.00067,-1e-05,5.9999999999999995e-05,3
12407,12847,2.9999999999999997e-05,0.00031,2e-05,2.9999999999999997e-05,-0.00056,-0.00067,-1e-05,5.9999999999999995e-05,3
12408,12848,2.9999999999999997e-05,0.00031,2e-05,2.9999999999999997e-05,-0.00056,-0.00067,-1e-05,5.9999999999999995e-05,3
12409,12849,2.9999999999999997e-05,0.00031,2e-05,2.9999999999999997e-05,-0.00056,-0.00067,-1e-05,5.9999999999999995e-05,3
12410,12850,2.9999999999999997e-05,0.00031,2e-05,2.9999999999999997e-05,-0.00056,-0.00067,-1e-05,5.9999999999999995e-05,3
12411,12851,2.9999999999999997e-05,0.00031,2e-05,2.9999999999999997e-05,-0.00056,-0.00067,-1e-05,5.9999999999999995e-05,3
12412,12852,2.9999999999999997e-05,0.00031,2e-05,2.9999999999999997e-05,-0.00056,-0.00067,-1e-05,5.9999999999999995e-05,3
12413,12853,2.9999999999999997e-05,0.00031,2e-05,2.9999999999999997e-05,-0.00056,-0.00067,-1e-05,5.9999999999999995e-05,3
12414,12854,2.9999999999999997e-05,0.00031,2e-05,2.9999999999999997e-05,-0.00056,-0.00067,-1e-05,5.9999999999999995e-05,3
12415,12855,0.0001,0.00022,5.9999999999999995e-05,-2e-05,-0.00016,-0.00044,-0.00011,-0.00128,3
12416,12856,0.0001,0.00022,5.9999999999999995e-05,-2e-05,-0.00016,-0.00044,-0.00011,-0.00128,3
12417,12857,-0.00032,-0.00056,-0.0001,-1e-05,2.9999999999999997e-05,-0.00025,-9e-05,-0.00016,3
12418,12858,-0.00032,-0.00056,-0.0001,-1e-05,2.9999999999999997e-05,-0.00025,-9e-05,-0.00016,3
12419,12859,-0.00032,-0.00056,-0.0001,-1e-05,2.9999999999999997e-05,-0.00025,-9e-05,-0.00016,3
12420,12860,-0.00032,-0.00056,-0.0001,-1e-05,2.9999999999999997e-05,-0.00025,-9e-05,-0.00016,3
12421,12861,-0.00032,-0.00056,-0.0001,-1e-05,2.9999999999999997e-05,-0.00025,-9e-05,-0.00016,3
12422,12862,-0.00032,-0.00056,-0.0001,-1e-05,2.9999999999999997e-05,-0.00025,-9e-05,-0.00016,3
12423,12863,-0.00032,-0.00056,-0.0001,-1e-05,2.9999999999999997e-05,-0.00025,-9e-05,-0.00016,3
12424,12864,-0.00032,-0.00056,-0.0001,-1e-05,2.9999999999999997e-05,-0.00025,-9e-05,-0.00016,3
12425,12865,-0.00032,-0.00056,-0.0001,-1e-05,2.9999999999999997e-05,-0.00025,-9e-05,-0.00016,3
12426,12866,-0.00032,-0.00056,-0.0001,-1e-05,2.9999999999999997e-05,-0.00025,-9e-05,-0.00016,3
12427,12867,-0.00032,-0.00056,-0.0001,-1e-05,2.9999999999999997e-05,-0.00025,-9e-05,-0.00016,3
12428,12868,-0.00032,-0.00056,-0.0001,-1e-05,2.9999999999999997e-05,-0.00025,-9e-05,-0.00016,3
12429,12869,-0.00032,-0.00056,-0.0001,-1e-05,2.9999999999999997e-05,-0.00025,-9e-05,-0.00016,3
12430,12870,-0.00032,-0.00056,-0.0001,-1e-05,2.9999999999999997e-05,-0.00025,-9e-05,-0.00016,3
12431,12871,-0.00032,-0.00056,-0.0001,-1e-05,2.9999999999999997e-05,-0.00025,-9e-05,-0.00016,3
12432,12872,-0.00032,-0.00056,-0.0001,-1e-05,2.9999999999999997e-05,-0.00025,-9e-05,-0.00016,3
12433,12873,-0.00032,-0.00056,-0.0001,-1e-05,2.9999999999999997e-05,-0.00025,-9e-05,-0.00016,3
12434,12874,-0.00032,-0.00056,-0.0001,-1e-05,2.9999999999999997e-05,-0.00025,-9e-05,-0.00016,3
12435,12875,-0.00032,-0.00056,-0.0001,-1e-05,2.9999999999999997e-05,-0.00025,-9e-05,-0.00016,3
12436,12876,-0.00032,-0.00056,-0.0001,-1e-05,2.9999999999999997e-05,-0.00025,-9e-05,-0.00016,3
12437,12877,-0.00032,-0.00056,-0.0001,-1e-05,2.9999999999999997e-05,-0.00025,-9e-05,-0.00016,3
12438,12878,-1e-05,-9e-05,-4e-05,-8e-05,2e-05,-0.0005200000000000001,-4e-05,-4e-05,3
12439,12879,7e-05,0.00064,5.9999999999999995e-05,-5e-05,-0.00018999999999999998,0.00023999999999999998,0.00015,-0.00039,3
12440,12880,-0.00018999999999999998,-0.00016,-0.00011999999999999999,-7e-05,0.0,-0.00011999999999999999,-0.00016,0.0002,3
12441,12881,-0.00018999999999999998,-0.00016,-0.00011999999999999999,-7e-05,0.0,-0.00011999999999999999,-0.00016,0.0002,3
12442,12882,-0.00018999999999999998,-0.00016,-0.00011999999999999999,-7e-05,0.0,-0.00011999999999999999,-0.00016,0.0002,3
12443,12883,-0.00018999999999999998,-0.00016,-0.00011999999999999999,-7e-05,0.0,-0.00011999999999999999,-0.00016,0.0002,3
12444,12884,-0.00018999999999999998,-0.00016,-0.00011999999999999999,-7e-05,0.0,-0.00011999999999999999,-0.00016,0.0002,3
12445,12885,-0.00018999999999999998,-0.00016,-0.00011999999999999999,-7e-05,0.0,-0.00011999999999999999,-0.00016,0.0002,3
12446,12886,-0.00018999999999999998,-0.00016,-0.00011999999999999999,-7e-05,0.0,-0.00011999999999999999,-0.00016,0.0002,3
12447,12888,-0.00018999999999999998,-0.00016,-0.00011999999999999999,-7e-05,0.0,-0.00011999999999999999,-0.00016,0.0002,3
12448,12889,-0.00018999999999999998,-0.00016,-0.00011999999999999999,-7e-05,0.0,-0.00011999999999999999,-0.00016,0.0002,3
12449,12890,-0.00018999999999999998,-0.00016,-0.00011999999999999999,-7e-05,0.0,-0.00011999999999999999,-0.00016,0.0002,3
12450,12891,-0.00018999999999999998,-0.00016,-0.00011999999999999999,-7e-05,0.0,-0.00011999999999999999,-0.00016,0.0002,3
12451,12892,-4e-05,0.00032,5e-05,2.9999999999999997e-05,-0.0001,1e-05,0.00028,0.00021,3
12452,12893,-4e-05,0.00032,5e-05,2.9999999999999997e-05,-0.0001,1e-05,0.00028,0.00021,3
12453,12894,-4e-05,0.00032,5e-05,2.9999999999999997e-05,-0.0001,1e-05,0.00028,0.00021,3
12454,12895,-4e-05,0.00032,5e-05,2.9999999999999997e-05,-0.0001,1e-05,0.00028,0.00021,3
12455,12896,-4e-05,0.00032,5e-05,2.9999999999999997e-05,-0.0001,1e-05,0.00028,0.00021,3
12456,12897,-4e-05,0.00032,5e-05,2.9999999999999997e-05,-0.0001,1e-05,0.00028,0.00021,3
12457,12898,-4e-05,0.00032,5e-05,2.9999999999999997e-05,-0.0001,1e-05,0.00028,0.00021,3
12458,12899,0.00016999999999999999,0.00022,4e-05,5e-05,0.00022,0.00018999999999999998,0.00031,-0.00027,3
12459,12900,0.00016999999999999999,0.00022,4e-05,5e-05,0.00022,0.00018999999999999998,0.00031,-0.00027,3
12460,12901,0.00016999999999999999,0.00022,4e-05,5e-05,0.00022,0.00018999999999999998,0.00031,-0.00027,3
12461,12902,0.00016999999999999999,0.00022,4e-05,5e-05,0.00022,0.00018999999999999998,0.00031,-0.00027,3
12462,12903,0.00016999999999999999,0.00022,4e-05,5e-05,0.00022,0.00018999999999999998,0.00031,-0.00027,3
12463,12904,0.00016999999999999999,0.00022,4e-05,5e-05,0.00022,0.00018999999999999998,0.00031,-0.00027,3
12464,12905,0.00016999999999999999,0.00022,4e-05,5e-05,0.00022,0.00018999999999999998,0.00031,-0.00027,3
12465,12906,0.00016999999999999999,0.00022,4e-05,5e-05,0.00022,0.00018999999999999998,0.00031,-0.00027,3
12466,12907,0.00016999999999999999,0.00022,4e-05,5e-05,0.00022,0.00018999999999999998,0.00031,-0.00027,3
12467,12908,0.00016999999999999999,0.00022,4e-05,5e-05,0.00022,0.00018999999999999998,0.00031,-0.00027,3
12468,12909,0.00016999999999999999,0.00022,4e-05,5e-05,0.00022,0.00018999999999999998,0.00031,-0.00027,3
12469,12910,0.00016999999999999999,0.00022,4e-05,5e-05,0.00022,0.00018999999999999998,0.00031,-0.00027,3
12470,12911,0.00016999999999999999,0.00022,4e-05,5e-05,0.00022,0.00018999999999999998,0.00031,-0.00027,3
12471,12912,0.00016999999999999999,0.00022,4e-05,5e-05,0.00022,0.00018999999999999998,0.00031,-0.00027,3
12472,12913,0.00016999999999999999,0.00022,4e-05,5e-05,0.00022,0.00018999999999999998,0.00031,-0.00027,3
12473,12914,0.00016999999999999999,0.00022,4e-05,5e-05,0.00022,0.00018999999999999998,0.00031,-0.00027,3
12474,12915,0.00018999999999999998,0.00036,-2.9999999999999997e-05,-9e-05,-0.00062,-0.00018999999999999998,-9e-05,0.00054,3
12475,12916,0.00018999999999999998,0.00036,-2.9999999999999997e-05,-9e-05,-0.00062,-0.00018999999999999998,-9e-05,0.00054,3
12476,12917,0.0002,0.0005099999999999999,0.00011999999999999999,0.0,-0.0004,5.9999999999999995e-05,0.0,0.00044,3
12477,12918,0.0002,0.0005099999999999999,0.00011999999999999999,0.0,-0.0004,5.9999999999999995e-05,0.0,0.00044,3
12478,12919,0.0002,0.0005099999999999999,0.00011999999999999999,0.0,-0.0004,5.9999999999999995e-05,0.0,0.00044,3
12479,12920,0.0002,0.0005099999999999999,0.00011999999999999999,0.0,-0.0004,5.9999999999999995e-05,0.0,0.00044,3
12480,12921,0.0002,0.0005099999999999999,0.00011999999999999999,0.0,-0.0004,5.9999999999999995e-05,0.0,0.00044,3
12481,12922,0.0002,0.0005099999999999999,0.00011999999999999999,0.0,-0.0004,5.9999999999999995e-05,0.0,0.00044,3
12482,12923,0.0002,0.0005099999999999999,0.00011999999999999999,0.0,-0.0004,5.9999999999999995e-05,0.0,0.00044,3
12483,12924,0.0002,0.0005099999999999999,0.00011999999999999999,0.0,-0.0004,5.9999999999999995e-05,0.0,0.00044,3
12484,12925,0.0002,0.0005099999999999999,0.00011999999999999999,0.0,-0.0004,5.9999999999999995e-05,0.0,0.00044,3
12485,12926,0.0002,0.0005099999999999999,0.00011999999999999999,0.0,-0.0004,5.9999999999999995e-05,0.0,0.00044,3
12486,12927,0.0002,0.0005099999999999999,0.00011999999999999999,0.0,-0.0004,5.9999999999999995e-05,0.0,0.00044,3
12487,12928,0.0002,0.0005099999999999999,0.00011999999999999999,0.0,-0.0004,5.9999999999999995e-05,0.0,0.00044,3
12488,12929,0.0002,0.0005099999999999999,0.00011999999999999999,0.0,-0.0004,5.9999999999999995e-05,0.0,0.00044,3
12489,12930,0.0002,0.0005099999999999999,0.00011999999999999999,0.0,-0.0004,5.9999999999999995e-05,0.0,0.00044,3
12490,12931,0.0002,0.0005099999999999999,0.00011999999999999999,0.0,-0.0004,5.9999999999999995e-05,0.0,0.00044,3
12491,12932,0.0002,0.0005099999999999999,0.00011999999999999999,0.0,-0.0004,5.9999999999999995e-05,0.0,0.00044,3
12492,12933,0.0002,0.0005099999999999999,0.00011999999999999999,0.0,-0.0004,5.9999999999999995e-05,0.0,0.00044,3
12493,12934,0.0002,0.0005099999999999999,0.00011999999999999999,0.0,-0.0004,5.9999999999999995e-05,0.0,0.00044,3
12494,12935,0.0002,0.0005099999999999999,0.00011999999999999999,0.0,-0.0004,5.9999999999999995e-05,0.0,0.00044,3
12495,12936,0.0002,0.0005099999999999999,0.00011999999999999999,0.0,-0.0004,5.9999999999999995e-05,0.0,0.00044,3
12496,12939,-0.00018,0.00015,2.9999999999999997e-05,4e-05,0.00044,0.00042,0.00027,-0.00011,3
12497,12940,-0.00018,0.00015,2.9999999999999997e-05,4e-05,0.00044,0.00042,0.00027,-0.00011,3
12498,12941,-0.00018,0.00015,2.9999999999999997e-05,4e-05,0.00044,0.00042,0.00027,-0.00011,3
12499,12942,-0.00018,0.00015,2.9999999999999997e-05,4e-05,0.00044,0.00042,0.00027,-0.00011,3
12500,12943,-0.00018,0.00015,2.9999999999999997e-05,4e-05,0.00044,0.00042,0.00027,-0.00011,3
12501,12944,-0.00018,0.00015,2.9999999999999997e-05,4e-05,0.00044,0.00042,0.00027,-0.00011,3
12502,12945,-0.00018,0.00015,2.9999999999999997e-05,4e-05,0.00044,0.00042,0.00027,-0.00011,3
12503,12946,-0.00018,0.00015,2.9999999999999997e-05,4e-05,0.00044,0.00042,0.00027,-0.00011,3
12504,12947,-0.00018,0.00015,2.9999999999999997e-05,4e-05,0.00044,0.00042,0.00027,-0.00011,3
12505,12948,-0.00018,0.00015,2.9999999999999997e-05,4e-05,0.00044,0.00042,0.00027,-0.00011,3
12506,12949,-0.00018,0.00015,2.9999999999999997e-05,4e-05,0.00044,0.00042,0.00027,-0.00011,3
12507,12950,-0.00018,0.00015,2.9999999999999997e-05,4e-05,0.00044,0.00042,0.00027,-0.00011,3
12508,12951,-0.00044,-0.0008,-0.00016999999999999999,-7e-05,0.00049,0.0005099999999999999,7e-05,-0.00013000000000000002,3
12509,12952,-0.00044,-0.0008,-0.00016999999999999999,-7e-05,0.00049,0.0005099999999999999,7e-05,-0.00013000000000000002,3
12510,12953,-0.00044,-0.0008,-0.00016999999999999999,-7e-05,0.00049,0.0005099999999999999,7e-05,-0.00013000000000000002,3
12511,12954,-0.00044,-0.0008,-0.00016999999999999999,-7e-05,0.00049,0.0005099999999999999,7e-05,-0.00013000000000000002,3
12512,12955,-0.00044,-0.0008,-0.00016999999999999999,-7e-05,0.00049,0.0005099999999999999,7e-05,-0.00013000000000000002,3
12513,12956,-0.00044,-0.0008,-0.00016999999999999999,-7e-05,0.00049,0.0005099999999999999,7e-05,-0.00013000000000000002,3
12514,12957,-0.00044,-0.0008,-0.00016999999999999999,-7e-05,0.00049,0.0005099999999999999,7e-05,-0.00013000000000000002,3
12515,12958,-0.00044,-0.0008,-0.00016999999999999999,-7e-05,0.00049,0.0005099999999999999,7e-05,-0.00013000000000000002,3
12516,12959,-0.00044,-0.0008,-0.00016999999999999999,-7e-05,0.00049,0.0005099999999999999,7e-05,-0.00013000000000000002,3
12517,12960,-9e-05,8e-05,5e-05,9e-05,0.00033999999999999997,-0.00043,7e-05,0.00018,3
12518,12962,-9e-05,8e-05,5e-05,9e-05,0.00033999999999999997,-0.00043,7e-05,0.00018,3
12519,12963,-9e-05,8e-05,5e-05,9e-05,0.00033999999999999997,-0.00043,7e-05,0.00018,3
12520,12964,-9e-05,8e-05,5e-05,9e-05,0.00033999999999999997,-0.00043,7e-05,0.00018,3
12521,12965,-9e-05,8e-05,5e-05,9e-05,0.00033999999999999997,-0.00043,7e-05,0.00018,3
12522,12966,-9e-05,8e-05,5e-05,9e-05,0.00033999999999999997,-0.00043,7e-05,0.00018,3
12523,12967,-9e-05,8e-05,5e-05,9e-05,0.00033999999999999997,-0.00043,7e-05,0.00018,3
12524,12968,-9e-05,8e-05,5e-05,9e-05,0.00033999999999999997,-0.00043,7e-05,0.00018,3
12525,12969,-9e-05,8e-05,5e-05,9e-05,0.00033999999999999997,-0.00043,7e-05,0.00018,3
12526,12970,-9e-05,8e-05,5e-05,9e-05,0.00033999999999999997,-0.00043,7e-05,0.00018,3
12527,12972,-9e-05,8e-05,5e-05,9e-05,0.00033999999999999997,-0.00043,7e-05,0.00018,3
12528,12973,-9e-05,8e-05,5e-05,9e-05,0.00033999999999999997,-0.00043,7e-05,0.00018,3
12529,12974,-9e-05,8e-05,5e-05,9e-05,0.00033999999999999997,-0.00043,7e-05,0.00018,3
12530,12975,-9e-05,-0.00044,-5e-05,1e-05,-5e-05,-0.00033,0.00013000000000000002,0.00029,3
12531,12976,-9e-05,-0.00044,-5e-05,1e-05,-5e-05,-0.00033,0.00013000000000000002,0.00029,3
12532,12977,4e-05,-0.00032,-4e-05,-4e-05,-0.00011,0.0002,2.9999999999999997e-05,-0.00016,3
12533,12978,4e-05,-0.00032,-4e-05,-4e-05,-0.00011,0.0002,2.9999999999999997e-05,-0.00016,3
12534,12979,4e-05,-0.00032,-4e-05,-4e-05,-0.00011,0.0002,2.9999999999999997e-05,-0.00016,3
12535,12980,4e-05,-0.00032,-4e-05,-4e-05,-0.00011,0.0002,2.9999999999999997e-05,-0.00016,3
12536,12981,4e-05,-0.00032,-4e-05,-4e-05,-0.00011,0.0002,2.9999999999999997e-05,-0.00016,3
12537,12982,4e-05,-0.00032,-4e-05,-4e-05,-0.00011,0.0002,2.9999999999999997e-05,-0.00016,3
12538,12983,4e-05,-0.00032,-4e-05,-4e-05,-0.00011,0.0002,2.9999999999999997e-05,-0.00016,3
12539,12984,4e-05,-0.00032,-4e-05,-4e-05,-0.00011,0.0002,2.9999999999999997e-05,-0.00016,3
12540,12985,4e-05,-0.00032,-4e-05,-4e-05,-0.00011,0.0002,2.9999999999999997e-05,-0.00016,3
12541,12986,4e-05,-0.00032,-4e-05,-4e-05,-0.00011,0.0002,2.9999999999999997e-05,-0.00016,3
12542,12988,4e-05,-0.00032,-4e-05,-4e-05,-0.00011,0.0002,2.9999999999999997e-05,-0.00016,3
12543,12989,4e-05,-0.00032,-4e-05,-4e-05,-0.00011,0.0002,2.9999999999999997e-05,-0.00016,3
12544,12990,4e-05,-0.00032,-4e-05,-4e-05,-0.00011,0.0002,2.9999999999999997e-05,-0.00016,3
12545,12991,4e-05,-0.00032,-4e-05,-4e-05,-0.00011,0.0002,2.9999999999999997e-05,-0.00016,3
12546,12992,4e-05,-0.00032,-4e-05,-4e-05,-0.00011,0.0002,2.9999999999999997e-05,-0.00016,3
12547,12993,4e-05,-0.00032,-4e-05,-4e-05,-0.00011,0.0002,2.9999999999999997e-05,-0.00016,3
12548,12994,4e-05,-0.00032,-4e-05,-4e-05,-0.00011,0.0002,2.9999999999999997e-05,-0.00016,3
12549,12995,4e-05,-0.00032,-4e-05,-4e-05,-0.00011,0.0002,2.9999999999999997e-05,-0.00016,3
12550,12996,4e-05,-0.00032,-4e-05,-4e-05,-0.00011,0.0002,2.9999999999999997e-05,-0.00016,3
12551,12997,4e-05,-0.00032,-4e-05,-4e-05,-0.00011,0.0002,2.9999999999999997e-05,-0.00016,3
12552,12998,0.00016999999999999999,1e-05,0.0,-8e-05,-0.00033999999999999997,-0.00013000000000000002,-0.0002,-0.00033999999999999997,3
12553,12999,0.00015,0.00016999999999999999,-5e-05,-5e-05,-0.00031,0.00016,-0.00025,-0.00011999999999999999,3
12554,13000,0.00015,0.00016999999999999999,-5e-05,-5e-05,-0.00031,0.00016,-0.00025,-0.00011999999999999999,3
12555,13001,0.00015,0.00016999999999999999,-5e-05,-5e-05,-0.00031,0.00016,-0.00025,-0.00011999999999999999,3
12556,13002,0.00015,0.00016999999999999999,-5e-05,-5e-05,-0.00031,0.00016,-0.00025,-0.00011999999999999999,3
12557,13003,0.00015,0.00016999999999999999,-5e-05,-5e-05,-0.00031,0.00016,-0.00025,-0.00011999999999999999,3
12558,13004,0.00015,0.00016999999999999999,-5e-05,-5e-05,-0.00031,0.00016,-0.00025,-0.00011999999999999999,3
12559,13005,0.00015,0.00016999999999999999,-5e-05,-5e-05,-0.00031,0.00016,-0.00025,-0.00011999999999999999,3
12560,13006,0.00015,0.00016999999999999999,-5e-05,-5e-05,-0.00031,0.00016,-0.00025,-0.00011999999999999999,3
12561,13007,0.00015,0.00016999999999999999,-5e-05,-5e-05,-0.00031,0.00016,-0.00025,-0.00011999999999999999,3
12562,13008,0.00015,0.00016999999999999999,-5e-05,-5e-05,-0.00031,0.00016,-0.00025,-0.00011999999999999999,3
12563,13009,0.00015,0.00016999999999999999,-5e-05,-5e-05,-0.00031,0.00016,-0.00025,-0.00011999999999999999,3
12564,13010,0.00015,0.00016999999999999999,-5e-05,-5e-05,-0.00031,0.00016,-0.00025,-0.00011999999999999999,3
12565,13011,0.00047999999999999996,0.00103,0.00013000000000000002,0.00011,-0.00061,0.0012699999999999999,0.00033999999999999997,0.00099,3
12566,13012,0.00047999999999999996,0.00103,0.00013000000000000002,0.00011,-0.00061,0.0012699999999999999,0.00033999999999999997,0.00099,3
12567,13013,0.00047999999999999996,0.00103,0.00013000000000000002,0.00011,-0.00061,0.0012699999999999999,0.00033999999999999997,0.00099,3
12568,13014,0.00047999999999999996,0.00103,0.00013000000000000002,0.00011,-0.00061,0.0012699999999999999,0.00033999999999999997,0.00099,3
12569,13015,0.00047999999999999996,0.00103,0.00013000000000000002,0.00011,-0.00061,0.0012699999999999999,0.00033999999999999997,0.00099,3
12570,13016,0.00047999999999999996,0.00103,0.00013000000000000002,0.00011,-0.00061,0.0012699999999999999,0.00033999999999999997,0.00099,3
12571,13017,0.00047999999999999996,0.00103,0.00013000000000000002,0.00011,-0.00061,0.0012699999999999999,0.00033999999999999997,0.00099,3
12572,13018,0.00047999999999999996,0.00103,0.00013000000000000002,0.00011,-0.00061,0.0012699999999999999,0.00033999999999999997,0.00099,3
12573,13019,0.00047999999999999996,0.00103,0.00013000000000000002,0.00011,-0.00061,0.0012699999999999999,0.00033999999999999997,0.00099,3
12574,13020,-0.0001,-0.00031,-8e-05,4e-05,0.00065,-0.00016999999999999999,-0.00016999999999999999,-0.00066,3
12575,13021,-0.0001,-0.00031,-8e-05,4e-05,0.00065,-0.00016999999999999999,-0.00016999999999999999,-0.00066,3
12576,13022,-0.0001,-0.00031,-8e-05,4e-05,0.00065,-0.00016999999999999999,-0.00016999999999999999,-0.00066,3
12577,13023,-0.0001,-0.00031,-8e-05,4e-05,0.00065,-0.00016999999999999999,-0.00016999999999999999,-0.00066,3
12578,13024,-0.0001,-0.00031,-8e-05,4e-05,0.00065,-0.00016999999999999999,-0.00016999999999999999,-0.00066,3
12579,13025,-0.0001,-0.00031,-8e-05,4e-05,0.00065,-0.00016999999999999999,-0.00016999999999999999,-0.00066,3
12580,13026,-0.0001,-0.00031,-8e-05,4e-05,0.00065,-0.00016999999999999999,-0.00016999999999999999,-0.00066,3
12581,13027,-0.0001,-0.00031,-8e-05,4e-05,0.00065,-0.00016999999999999999,-0.00016999999999999999,-0.00066,3
12582,13028,-0.0001,-0.00031,-8e-05,4e-05,0.00065,-0.00016999999999999999,-0.00016999999999999999,-0.00066,3
12583,13029,-0.0001,-0.00031,-8e-05,4e-05,0.00065,-0.00016999999999999999,-0.00016999999999999999,-0.00066,3
12584,13030,-0.0001,-0.00031,-8e-05,4e-05,0.00065,-0.00016999999999999999,-0.00016999999999999999,-0.00066,3
12585,13031,-0.0001,-0.00031,-8e-05,4e-05,0.00065,-0.00016999999999999999,-0.00016999999999999999,-0.00066,3
12586,13032,-0.0001,-0.00031,-8e-05,4e-05,0.00065,-0.00016999999999999999,-0.00016999999999999999,-0.00066,3
12587,13033,-0.0001,-0.00031,-8e-05,4e-05,0.00065,-0.00016999999999999999,-0.00016999999999999999,-0.00066,3
12588,13034,-0.0001,-0.00031,-8e-05,4e-05,0.00065,-0.00016999999999999999,-0.00016999999999999999,-0.00066,3
12589,13035,-0.00011,-0.00045,-1e-05,4e-05,0.00049,-0.00085,-2e-05,0.00075,3
12590,13036,-0.00011,-0.00045,-1e-05,4e-05,0.00049,-0.00085,-2e-05,0.00075,3
12591,13038,7e-05,0.0003,5.9999999999999995e-05,-2e-05,-7e-05,-0.00031,-9e-05,-0.00035,3
12592,13039,7e-05,0.0003,5.9999999999999995e-05,-2e-05,-7e-05,-0.00031,-9e-05,-0.00035,3
12593,13040,7e-05,0.0003,5.9999999999999995e-05,-2e-05,-7e-05,-0.00031,-9e-05,-0.00035,3
12594,13041,7e-05,0.0003,5.9999999999999995e-05,-2e-05,-7e-05,-0.00031,-9e-05,-0.00035,3
12595,13042,7e-05,0.0003,5.9999999999999995e-05,-2e-05,-7e-05,-0.00031,-9e-05,-0.00035,3
12596,13043,7e-05,0.0003,5.9999999999999995e-05,-2e-05,-7e-05,-0.00031,-9e-05,-0.00035,3
12597,13044,7e-05,0.0003,5.9999999999999995e-05,-2e-05,-7e-05,-0.00031,-9e-05,-0.00035,3
12598,13045,7e-05,0.0003,5.9999999999999995e-05,-2e-05,-7e-05,-0.00031,-9e-05,-0.00035,3
12599,13046,7e-05,0.0003,5.9999999999999995e-05,-2e-05,-7e-05,-0.00031,-9e-05,-0.00035,3
12600,13047,7e-05,0.0003,5.9999999999999995e-05,-2e-05,-7e-05,-0.00031,-9e-05,-0.00035,3
12601,13048,7e-05,0.0003,5.9999999999999995e-05,-2e-05,-7e-05,-0.00031,-9e-05,-0.00035,3
12602,13049,7e-05,0.0003,5.9999999999999995e-05,-2e-05,-7e-05,-0.00031,-9e-05,-0.00035,3
12603,13050,7e-05,0.0003,5.9999999999999995e-05,-2e-05,-7e-05,-0.00031,-9e-05,-0.00035,3
12604,13051,7e-05,0.0003,5.9999999999999995e-05,-2e-05,-7e-05,-0.00031,-9e-05,-0.00035,3
12605,13052,7e-05,0.0003,5.9999999999999995e-05,-2e-05,-7e-05,-0.00031,-9e-05,-0.00035,3
12606,13053,7e-05,0.0003,5.9999999999999995e-05,-2e-05,-7e-05,-0.00031,-9e-05,-0.00035,3
