,time,channel1,channel2,channel3,channel4,channel5,channel6,channel7,channel8,class
9772,10254,0.00112,0.0012699999999999999,9e-05,-5.9999999999999995e-05,-0.00013000000000000002,-0.00018,-0.00022999999999999998,0.00039,3
9773,10255,0.00112,0.0012699999999999999,9e-05,-5.9999999999999995e-05,-0.00013000000000000002,-0.00018,-0.00022999999999999998,0.00039,3
9774,10256,0.00112,0.0012699999999999999,9e-05,-5.9999999999999995e-05,-0.00013000000000000002,-0.00018,-0.00022999999999999998,0.00039,3
9775,10257,0.00112,0.0012699999999999999,9e-05,-5.9999999999999995e-05,-0.00013000000000000002,-0.00018,-0.00022999999999999998,0.00039,3
9776,10258,0.00112,0.0012699999999999999,9e-05,-5.9999999999999995e-05,-0.00013000000000000002,-0.00018,-0.00022999999999999998,0.00039,3
9777,10259,0.00112,0.0012699999999999999,9e-05,-5.9999999999999995e-05,-0.00013000000000000002,-0.00018,-0.00022999999999999998,0.00039,3
9778,10260,0.00112,0.0012699999999999999,9e-05,-5.9999999999999995e-05,-0.00013000000000000002,-0.00018,-0.00022999999999999998,0.00039,3
9779,10261,0.00112,0.0012699999999999999,9e-05,-5.9999999999999995e-05,-0.00013000000000000002,-0.00018,-0.00022999999999999998,0.00039,3
9780,10263,0.00033,0.00075,0.00011999999999999999,0.0,-7e-05,-7e-05,0.00011,0.00041,3
9781,10264,0.00033,0.00075,0.00011999999999999999,0.0,-7e-05,-7e-05,0.00011,0.00041,3
9782,10265,0.00033,0.00075,0.00011999999999999999,0.0,-7e-05,-7e-05,0.00011,0.00041,3
9783,10266,0.00033,0.00075,0.00011999999999999999,0.0,-7e-05,-7e-05,0.00011,0.00041,3
9784,10267,0.00033,0.00075,0.00011999999999999999,0.0,-7e-05,-7e-05,0.00011,0.00041,3
9785,10268,0.00033,0.00075,0.00011999999999999999,0.0,-7e-05,-7e-05,0.00011,0.00041,3
9786,10269,0.00033,0.00075,0.00011999999999999999,0.0,-7e-05,-7e-05,0.00011,0.00041,3
9787,10270,0.00033,0.00075,0.00011999999999999999,0.0,-7e-05,-7e-05,0.00011,0.00041,3
9788,10271,0.00033,0.00075,0.00011999999999999999,0.0,-7e-05,-7e-05,0.00011,0.00041,3
9789,10272,0.00033,0.00075,0.00011999999999999999,0.0,-7e-05,-7e-05,0.00011,0.00041,3
9790,10273,0.00033,0.00075,0.00011999999999999999,0.0,-7e-05,-7e-05,0.00011,0.00041,3
9791,10274,0.00033,0.00075,0.00011999999999999999,0.0,-7e-05,-7e-05,0.00011,0.00041,3
9792,10275,0.00018,0.00045,5e-05,5.9999999999999995e-05,2e-05,-5e-05,-2.9999999999999997e-05,-0.00013000000000000002,3
9793,10276,0.00018,0.00045,5e-05,5.9999999999999995e-05,2e-05,-5e-05,-2.9999999999999997e-05,-0.00013000000000000002,3
9794,10277,0.00018,0.00045,5e-05,5.9999999999999995e-05,2e-05,-5e-05,-2.9999999999999997e-05,-0.00013000000000000002,3
9795,10278,0.00018,0.00045,5e-05,5.9999999999999995e-05,2e-05,-5e-05,-2.9999999999999997e-05,-0.00013000000000000002,3
9796,10279,0.00018,0.00045,5e-05,5.9999999999999995e-05,2e-05,-5e-05,-2.9999999999999997e-05,-0.00013000000000000002,3
9797,10280,0.00018,0.00045,5e-05,5.9999999999999995e-05,2e-05,-5e-05,-2.9999999999999997e-05,-0.00013000000000000002,3
9798,10281,-0.00054,-0.00088,-0.00018999999999999998,-9e-05,-7e-05,1e-05,-2e-05,-8e-05,3
9799,10283,-0.00023999999999999998,-0.00044,-5.9999999999999995e-05,-9e-05,-0.00025,-0.0002,0.00014,-0.00011,3
9800,10284,-0.00023999999999999998,-0.00044,-5.9999999999999995e-05,-9e-05,-0.00025,-0.0002,0.00014,-0.00011,3
9801,10285,-0.00023999999999999998,-0.00044,-5.9999999999999995e-05,-9e-05,-0.00025,-0.0002,0.00014,-0.00011,3
9802,10286,-0.00023999999999999998,-0.00044,-5.9999999999999995e-05,-9e-05,-0.00025,-0.0002,0.00014,-0.00011,3
9803,10289,-0.00023999999999999998,-0.00044,-5.9999999999999995e-05,-9e-05,-0.00025,-0.0002,0.00014,-0.00011,3
9804,10290,-0.00023999999999999998,-0.00044,-5.9999999999999995e-05,-9e-05,-0.00025,-0.0002,0.00014,-0.00011,3
9805,10291,-0.00023999999999999998,-0.00044,-5.9999999999999995e-05,-9e-05,-0.00025,-0.0002,0.00014,-0.00011,3
9806,10292,-0.00023999999999999998,-0.00044,-5.9999999999999995e-05,-9e-05,-0.00025,-0.0002,0.00014,-0.00011,3
9807,10293,-0.00023999999999999998,-0.00044,-5.9999999999999995e-05,-9e-05,-0.00025,-0.0002,0.00014,-0.00011,3
9808,10294,-0.00023999999999999998,-0.00044,-5.9999999999999995e-05,-9e-05,-0.00025,-0.0002,0.00014,-0.00011,3
9809,10295,-0.00023999999999999998,-0.00044,-5.9999999999999995e-05,-9e-05,-0.00025,-0.0002,0.00014,-0.00011,3
9810,10296,-0.00023999999999999998,-0.00044,-5.9999999999999995e-05,-9e-05,-0.00025,-0.0002,0.00014,-0.00011,3
9811,10297,-0.00023999999999999998,-0.00044,-5.9999999999999995e-05,-9e-05,-0.00025,-0.0002,0.00014,-0.00011,3
9812,10298,-2e-05,0.00014,-4e-05,-0.0001,-5.9999999999999995e-05,-9e-05,-0.00011999999999999999,0.0001,3
9813,10299,-0.00027,-0.00035,1e-05,8e-05,0.00016999999999999999,0.0002,-7e-05,-0.00073,3
9814,10300,-0.00027,-0.00035,1e-05,8e-05,0.00016999999999999999,0.0002,-7e-05,-0.00073,3
9815,10301,-0.00027,-0.00035,1e-05,8e-05,0.00016999999999999999,0.0002,-7e-05,-0.00073,3
9816,10302,-0.00027,-0.00035,1e-05,8e-05,0.00016999999999999999,0.0002,-7e-05,-0.00073,3
9817,10303,-0.00027,-0.00035,1e-05,8e-05,0.00016999999999999999,0.0002,-7e-05,-0.00073,3
9818,10304,-0.00027,-0.00035,1e-05,8e-05,0.00016999999999999999,0.0002,-7e-05,-0.00073,3
9819,10305,-0.00027,-0.00035,1e-05,8e-05,0.00016999999999999999,0.0002,-7e-05,-0.00073,3
9820,10306,-0.00027,-0.00035,1e-05,8e-05,0.00016999999999999999,0.0002,-7e-05,-0.00073,3
9821,10307,-0.00027,-0.00035,1e-05,8e-05,0.00016999999999999999,0.0002,-7e-05,-0.00073,3
9822,10308,-0.00027,-0.00035,1e-05,8e-05,0.00016999999999999999,0.0002,-7e-05,-0.00073,3
9823,10309,-0.00027,-0.00035,1e-05,8e-05,0.00016999999999999999,0.0002,-7e-05,-0.00073,3
9824,10310,-0.00027,-0.00035,1e-05,8e-05,0.00016999999999999999,0.0002,-7e-05,-0.00073,3
9825,10311,-0.00027,-0.00035,1e-05,8e-05,0.00016999999999999999,0.0002,-7e-05,-0.00073,3
9826,10312,-0.00027,-0.00035,1e-05,8e-05,0.00016999999999999999,0.0002,-7e-05,-0.00073,3
9827,10313,-0.00027,-0.00035,1e-05,8e-05,0.00016999999999999999,0.0002,-7e-05,-0.00073,3
9828,10314,-0.00027,-0.00035,1e-05,8e-05,0.00016999999999999999,0.0002,-7e-05,-0.00073,3
9829,10315,-0.00027,-0.00035,1e-05,8e-05,0.00016999999999999999,0.0002,-7e-05,-0.00073,3
9830,10316,-0.00027,-0.00035,1e-05,8e-05,0.00016999999999999999,0.0002,-7e-05,-0.00073,3
9831,10317,-0.00027,-0.00035,1e-05,8e-05,0.00016999999999999999,0.0002,-7e-05,-0.00073,3
9832,10318,-0.00027,-0.00035,1e-05,8e-05,0.00016999999999999999,0.0002,-7e-05,-0.00073,3
9833,10319,-0.00027,-0.00035,1e-05,8e-05,0.00016999999999999999,0.0002,-7e-05,-0.00073,3
9834,10320,0.00043,0.00074,0.00014,0.00011,9e-05,5e-05,-1e-05,0.00023999999999999998,3
9835,10321,-0.00013000000000000002,-0.00022999999999999998,-0.0001,-7e-05,-9e-05,1e-05,-4e-05,-0.00022999999999999998,3
9836,10322,-0.00013000000000000002,-0.00022999999999999998,-0.0001,-7e-05,-9e-05,1e-05,-4e-05,-0.00022999999999999998,3
9837,10323,-0.00013000000000000002,-0.00022999999999999998,-0.0001,-7e-05,-9e-05,1e-05,-4e-05,-0.00022999999999999998,3
9838,10324,-0.00013000000000000002,-0.00022999999999999998,-0.0001,-7e-05,-9e-05,1e-05,-4e-05,-0.00022999999999999998,3
9839,10325,-0.00013000000000000002,-0.00022999999999999998,-0.0001,-7e-05,-9e-05,1e-05,-4e-05,-0.00022999999999999998,3
9840,10326,-0.00013000000000000002,-0.00022999999999999998,-0.0001,-7e-05,-9e-05,1e-05,-4e-05,-0.00022999999999999998,3
9841,10327,-0.00013000000000000002,-0.00022999999999999998,-0.0001,-7e-05,-9e-05,1e-05,-4e-05,-0.00022999999999999998,3
9842,10328,-0.00013000000000000002,-0.00022999999999999998,-0.0001,-7e-05,-9e-05,1e-05,-4e-05,-0.00022999999999999998,3
9843,10329,-0.00013000000000000002,-0.00022999999999999998,-0.0001,-7e-05,-9e-05,1e-05,-4e-05,-0.00022999999999999998,3
9844,10330,-0.00013000000000000002,-0.00022999999999999998,-0.0001,-7e-05,-9e-05,1e-05,-4e-05,-0.00022999999999999998,3
9845,10331,-0.00013000000000000002,-0.00022999999999999998,-0.0001,-7e-05,-9e-05,1e-05,-4e-05,-0.00022999999999999998,3
9846,10332,-0.00013000000000000002,-0.00022999999999999998,-0.0001,-7e-05,-9e-05,1e-05,-4e-05,-0.00022999999999999998,3
9847,10333,-0.00013000000000000002,-0.00022999999999999998,-0.0001,-7e-05,-9e-05,1e-05,-4e-05,-0.00022999999999999998,3
9848,10334,-0.00013000000000000002,-0.00022999999999999998,-0.0001,-7e-05,-9e-05,1e-05,-4e-05,-0.00022999999999999998,3
9849,10335,-0.00013000000000000002,-0.00022999999999999998,-0.0001,-7e-05,-9e-05,1e-05,-4e-05,-0.00022999999999999998,3
9850,10336,-0.00013000000000000002,-0.00022999999999999998,-0.0001,-7e-05,-9e-05,1e-05,-4e-05,-0.00022999999999999998,3
9851,10338,-0.00013000000000000002,-0.00022999999999999998,-0.0001,-7e-05,-9e-05,1e-05,-4e-05,-0.00022999999999999998,3
9852,10339,-0.00013000000000000002,-0.00022999999999999998,-0.0001,-7e-05,-9e-05,1e-05,-4e-05,-0.00022999999999999998,3
9853,10340,-0.00013000000000000002,-0.00022999999999999998,-0.0001,-7e-05,-9e-05,1e-05,-4e-05,-0.00022999999999999998,3
9854,10341,-0.00013000000000000002,-0.00022999999999999998,-0.0001,-7e-05,-9e-05,1e-05,-4e-05,-0.00022999999999999998,3
9855,10342,-0.00013000000000000002,-0.00022999999999999998,-0.0001,-7e-05,-9e-05,1e-05,-4e-05,-0.00022999999999999998,3
9856,10343,2.9999999999999997e-05,0.00022999999999999998,7e-05,2e-05,5e-05,2e-05,-5e-05,-0.00018999999999999998,3
9857,10344,0.00027,5e-05,-2e-05,4e-05,0.00015,8e-05,-2.9999999999999997e-05,0.00018,3
9858,10345,-0.00059,-0.00065,-0.00018999999999999998,-2e-05,0.00014,7e-05,-5e-05,-0.00033999999999999997,3
9859,10346,-0.00059,-0.00065,-0.00018999999999999998,-2e-05,0.00014,7e-05,-5e-05,-0.00033999999999999997,3
9860,10347,-0.00059,-0.00065,-0.00018999999999999998,-2e-05,0.00014,7e-05,-5e-05,-0.00033999999999999997,3
9861,10348,-0.00059,-0.00065,-0.00018999999999999998,-2e-05,0.00014,7e-05,-5e-05,-0.00033999999999999997,3
9862,10349,-0.00059,-0.00065,-0.00018999999999999998,-2e-05,0.00014,7e-05,-5e-05,-0.00033999999999999997,3
9863,10350,-0.00059,-0.00065,-0.00018999999999999998,-2e-05,0.00014,7e-05,-5e-05,-0.00033999999999999997,3
9864,10351,-0.00059,-0.00065,-0.00018999999999999998,-2e-05,0.00014,7e-05,-5e-05,-0.00033999999999999997,3
9865,10352,-0.00059,-0.00065,-0.00018999999999999998,-2e-05,0.00014,7e-05,-5e-05,-0.00033999999999999997,3
9866,10353,-0.00059,-0.00065,-0.00018999999999999998,-2e-05,0.00014,7e-05,-5e-05,-0.00033999999999999997,3
9867,10354,-0.00059,-0.00065,-0.00018999999999999998,-2e-05,0.00014,7e-05,-5e-05,-0.00033999999999999997,3
9868,10355,-0.00059,-0.00065,-0.00018999999999999998,-2e-05,0.00014,7e-05,-5e-05,-0.00033999999999999997,3
9869,10357,-0.00059,-0.00065,-0.00018999999999999998,-2e-05,0.00014,7e-05,-5e-05,-0.00033999999999999997,3
9870,10358,-0.00011,-0.00037999999999999997,-5e-05,-0.00013000000000000002,-0.00032,-0.00018,2.9999999999999997e-05,-0.00015,3
9871,10359,0.00016,0.00016999999999999999,2e-05,-2.9999999999999997e-05,-5e-05,-1e-05,-8e-05,-0.00022999999999999998,3
9872,10360,0.00016,0.00016999999999999999,2e-05,-2.9999999999999997e-05,-5e-05,-1e-05,-8e-05,-0.00022999999999999998,3
9873,10361,0.00016,0.00016999999999999999,2e-05,-2.9999999999999997e-05,-5e-05,-1e-05,-8e-05,-0.00022999999999999998,3
9874,10362,0.00016,0.00016999999999999999,2e-05,-2.9999999999999997e-05,-5e-05,-1e-05,-8e-05,-0.00022999999999999998,3
9875,10363,0.00016,0.00016999999999999999,2e-05,-2.9999999999999997e-05,-5e-05,-1e-05,-8e-05,-0.00022999999999999998,3
9876,10364,0.00016,0.00016999999999999999,2e-05,-2.9999999999999997e-05,-5e-05,-1e-05,-8e-05,-0.00022999999999999998,3
9877,10365,0.00016,0.00016999999999999999,2e-05,-2.9999999999999997e-05,-5e-05,-1e-05,-8e-05,-0.00022999999999999998,3
9878,10366,0.00016,0.00016999999999999999,2e-05,-2.9999999999999997e-05,-5e-05,-1e-05,-8e-05,-0.00022999999999999998,3
9879,10367,0.00016,0.00016999999999999999,2e-05,-2.9999999999999997e-05,-5e-05,-1e-05,-8e-05,-0.00022999999999999998,3
9880,10368,0.00016,0.00016999999999999999,2e-05,-2.9999999999999997e-05,-5e-05,-1e-05,-8e-05,-0.00022999999999999998,3
9881,10369,0.00016,0.00016999999999999999,2e-05,-2.9999999999999997e-05,-5e-05,-1e-05,-8e-05,-0.00022999999999999998,3
9882,10370,0.00016,0.00016999999999999999,2e-05,-2.9999999999999997e-05,-5e-05,-1e-05,-8e-05,-0.00022999999999999998,3
9883,10371,0.00016,0.00016999999999999999,2e-05,-2.9999999999999997e-05,-5e-05,-1e-05,-8e-05,-0.00022999999999999998,3
9884,10372,0.00016,0.00016999999999999999,2e-05,-2.9999999999999997e-05,-5e-05,-1e-05,-8e-05,-0.00022999999999999998,3
9885,10373,0.00016,0.00016999999999999999,2e-05,-2.9999999999999997e-05,-5e-05,-1e-05,-8e-05,-0.00022999999999999998,3
9886,10374,0.00016,0.00016999999999999999,2e-05,-2.9999999999999997e-05,-5e-05,-1e-05,-8e-05,-0.00022999999999999998,3
9887,10375,0.00016,0.00016999999999999999,2e-05,-2.9999999999999997e-05,-5e-05,-1e-05,-8e-05,-0.00022999999999999998,3
9888,10376,0.00016,0.00016999999999999999,2e-05,-2.9999999999999997e-05,-5e-05,-1e-05,-8e-05,-0.00022999999999999998,3
9889,10377,0.00016,0.00016999999999999999,2e-05,-2.9999999999999997e-05,-5e-05,-1e-05,-8e-05,-0.00022999999999999998,3
9890,10378,0.00016,0.00016999999999999999,2e-05,-2.9999999999999997e-05,-5e-05,-1e-05,-8e-05,-0.00022999999999999998,3
9891,10379,0.00016,0.00016999999999999999,2e-05,-2.9999999999999997e-05,-5e-05,-1e-05,-8e-05,-0.00022999999999999998,3
9892,10380,0.00022999999999999998,0.00066,5.9999999999999995e-05,1e-05,2e-05,0.00016,-0.00011,-5.9999999999999995e-05,3
9893,10381,-1e-05,-0.00023999999999999998,-2e-05,1e-05,0.00013000000000000002,1e-05,-9e-05,0.00022999999999999998,3
9894,10382,-1e-05,-0.00023999999999999998,-2e-05,1e-05,0.00013000000000000002,1e-05,-9e-05,0.00022999999999999998,3
9895,10383,-1e-05,-0.00023999999999999998,-2e-05,1e-05,0.00013000000000000002,1e-05,-9e-05,0.00022999999999999998,3
9896,10384,-1e-05,-0.00023999999999999998,-2e-05,1e-05,0.00013000000000000002,1e-05,-9e-05,0.00022999999999999998,3
9897,10385,-1e-05,-0.00023999999999999998,-2e-05,1e-05,0.00013000000000000002,1e-05,-9e-05,0.00022999999999999998,3
9898,10386,-1e-05,-0.00023999999999999998,-2e-05,1e-05,0.00013000000000000002,1e-05,-9e-05,0.00022999999999999998,3
9899,10388,-1e-05,-0.00023999999999999998,-2e-05,1e-05,0.00013000000000000002,1e-05,-9e-05,0.00022999999999999998,3
9900,10389,-1e-05,-0.00023999999999999998,-2e-05,1e-05,0.00013000000000000002,1e-05,-9e-05,0.00022999999999999998,3
9901,10390,-1e-05,-0.00023999999999999998,-2e-05,1e-05,0.00013000000000000002,1e-05,-9e-05,0.00022999999999999998,3
9902,10391,-1e-05,-0.00023999999999999998,-2e-05,1e-05,0.00013000000000000002,1e-05,-9e-05,0.00022999999999999998,3
9903,10392,-1e-05,-0.00023999999999999998,-2e-05,1e-05,0.00013000000000000002,1e-05,-9e-05,0.00022999999999999998,3
9904,10393,-1e-05,-0.00023999999999999998,-2e-05,1e-05,0.00013000000000000002,1e-05,-9e-05,0.00022999999999999998,3
9905,10394,-1e-05,-0.00023999999999999998,-2e-05,1e-05,0.00013000000000000002,1e-05,-9e-05,0.00022999999999999998,3
9906,10395,0.00025,0.00013000000000000002,-4e-05,0.0,0.0,1e-05,2e-05,0.00018,3
9907,10396,0.00025,0.00013000000000000002,-4e-05,0.0,0.0,1e-05,2e-05,0.00018,3
9908,10397,0.00025,0.00013000000000000002,-4e-05,0.0,0.0,1e-05,2e-05,0.00018,3
9909,10398,0.00025,0.00013000000000000002,-4e-05,0.0,0.0,1e-05,2e-05,0.00018,3
9910,10399,0.00025,0.00013000000000000002,-4e-05,0.0,0.0,1e-05,2e-05,0.00018,3
9911,10400,0.00025,0.00013000000000000002,-4e-05,0.0,0.0,1e-05,2e-05,0.00018,3
9912,10401,0.00025,0.00013000000000000002,-4e-05,0.0,0.0,1e-05,2e-05,0.00018,3
9913,10402,0.00025,0.00013000000000000002,-4e-05,0.0,0.0,1e-05,2e-05,0.00018,3
9914,10403,0.00025,0.00013000000000000002,-4e-05,0.0,0.0,1e-05,2e-05,0.00018,3
9915,10404,0.00025,0.00013000000000000002,-4e-05,0.0,0.0,1e-05,2e-05,0.00018,3
9916,10405,0.00025,0.00013000000000000002,-4e-05,0.0,0.0,1e-05,2e-05,0.00018,3
9917,10406,0.00025,0.00013000000000000002,-4e-05,0.0,0.0,1e-05,2e-05,0.00018,3
9918,10407,0.00025,0.00013000000000000002,-4e-05,0.0,0.0,1e-05,2e-05,0.00018,3
9919,10408,0.00025,0.00013000000000000002,-4e-05,0.0,0.0,1e-05,2e-05,0.00018,3
9920,10409,0.00025,0.00013000000000000002,-4e-05,0.0,0.0,1e-05,2e-05,0.00018,3
9921,10410,-0.00027,-0.00021,0.0,2.9999999999999997e-05,4e-05,-0.00016999999999999999,-1e-05,7e-05,3
9922,10411,-0.00027,-0.00021,0.0,2.9999999999999997e-05,4e-05,-0.00016999999999999999,-1e-05,7e-05,3
9923,10412,-0.00027,-0.00021,0.0,2.9999999999999997e-05,4e-05,-0.00016999999999999999,-1e-05,7e-05,3
9924,10413,-0.00027,-0.00021,0.0,2.9999999999999997e-05,4e-05,-0.00016999999999999999,-1e-05,7e-05,3
9925,10414,-0.00027,-0.00021,0.0,2.9999999999999997e-05,4e-05,-0.00016999999999999999,-1e-05,7e-05,3
9926,10415,-0.00027,-0.00021,0.0,2.9999999999999997e-05,4e-05,-0.00016999999999999999,-1e-05,7e-05,3
9927,10416,-0.00027,-0.00021,0.0,2.9999999999999997e-05,4e-05,-0.00016999999999999999,-1e-05,7e-05,3
9928,10417,-0.00027,-0.00021,0.0,2.9999999999999997e-05,4e-05,-0.00016999999999999999,-1e-05,7e-05,3
9929,10418,-0.00027,-0.00021,0.0,2.9999999999999997e-05,4e-05,-0.00016999999999999999,-1e-05,7e-05,3
9930,10419,-0.00027,-0.00021,0.0,2.9999999999999997e-05,4e-05,-0.00016999999999999999,-1e-05,7e-05,3
9931,10420,-0.00027,-0.00021,0.0,2.9999999999999997e-05,4e-05,-0.00016999999999999999,-1e-05,7e-05,3
9932,10421,-0.00027,-0.00021,0.0,2.9999999999999997e-05,4e-05,-0.00016999999999999999,-1e-05,7e-05,3
9933,10422,-0.00027,-0.00021,0.0,2.9999999999999997e-05,4e-05,-0.00016999999999999999,-1e-05,7e-05,3
9934,10423,-0.00027,-0.00021,0.0,2.9999999999999997e-05,4e-05,-0.00016999999999999999,-1e-05,7e-05,3
9935,10424,-0.00027,-0.00021,0.0,2.9999999999999997e-05,4e-05,-0.00016999999999999999,-1e-05,7e-05,3
9936,10425,-0.00027,-0.00021,0.0,2.9999999999999997e-05,4e-05,-0.00016999999999999999,-1e-05,7e-05,3
9937,10426,-0.00027,-0.00021,0.0,2.9999999999999997e-05,4e-05,-0.00016999999999999999,-1e-05,7e-05,3
9938,10427,-0.00027,-0.00021,0.0,2.9999999999999997e-05,4e-05,-0.00016999999999999999,-1e-05,7e-05,3
9939,10428,-0.00027,-0.00021,0.0,2.9999999999999997e-05,4e-05,-0.00016999999999999999,-1e-05,7e-05,3
9940,10429,-0.00027,-0.00021,0.0,2.9999999999999997e-05,4e-05,-0.00016999999999999999,-1e-05,7e-05,3
9941,10430,-0.00027,-0.00021,0.0,2.9999999999999997e-05,4e-05,-0.00016999999999999999,-1e-05,7e-05,3
9942,10431,-0.00027,-0.00021,0.0,2.9999999999999997e-05,4e-05,-0.00016999999999999999,-1e-05,7e-05,3
9943,10432,-0.00027,-0.00021,0.0,2.9999999999999997e-05,4e-05,-0.00016999999999999999,-1e-05,7e-05,3
9944,10433,9e-05,0.00029,0.0,2e-05,0.00011,4e-05,2.9999999999999997e-05,0.0,3
9945,10434,9e-05,0.00029,0.0,2e-05,0.00011,4e-05,2.9999999999999997e-05,0.0,3
9946,10435,9e-05,0.00029,0.0,2e-05,0.00011,4e-05,2.9999999999999997e-05,0.0,3
9947,10436,9e-05,0.00029,0.0,2e-05,0.00011,4e-05,2.9999999999999997e-05,0.0,3
9948,10438,9e-05,0.00029,0.0,2e-05,0.00011,4e-05,2.9999999999999997e-05,0.0,3
9949,10439,9e-05,0.00029,0.0,2e-05,0.00011,4e-05,2.9999999999999997e-05,0.0,3
9950,10440,9e-05,0.00029,0.0,2e-05,0.00011,4e-05,2.9999999999999997e-05,0.0,3
9951,10441,9e-05,0.00029,0.0,2e-05,0.00011,4e-05,2.9999999999999997e-05,0.0,3
9952,10442,9e-05,0.00029,0.0,2e-05,0.00011,4e-05,2.9999999999999997e-05,0.0,3
9953,10443,9e-05,0.00029,0.0,2e-05,0.00011,4e-05,2.9999999999999997e-05,0.0,3
9954,10444,9e-05,0.00029,0.0,2e-05,0.00011,4e-05,2.9999999999999997e-05,0.0,3
9955,10445,9e-05,0.00029,0.0,2e-05,0.00011,4e-05,2.9999999999999997e-05,0.0,3
9956,10446,9e-05,0.00029,0.0,2e-05,0.00011,4e-05,2.9999999999999997e-05,0.0,3
9957,10447,9e-05,0.00029,0.0,2e-05,0.00011,4e-05,2.9999999999999997e-05,0.0,3
9958,10448,9e-05,0.00029,0.0,2e-05,0.00011,4e-05,2.9999999999999997e-05,0.0,3
9959,10449,9e-05,0.00029,0.0,2e-05,0.00011,4e-05,2.9999999999999997e-05,0.0,3
9960,10450,9e-05,0.00029,0.0,2e-05,0.00011,4e-05,2.9999999999999997e-05,0.0,3
9961,10451,9e-05,0.00029,0.0,2e-05,0.00011,4e-05,2.9999999999999997e-05,0.0,3
9962,10452,9e-05,0.00029,0.0,2e-05,0.00011,4e-05,2.9999999999999997e-05,0.0,3
9963,10453,9e-05,0.00029,0.0,2e-05,0.00011,4e-05,2.9999999999999997e-05,0.0,3
9964,10454,9e-05,0.00029,0.0,2e-05,0.00011,4e-05,2.9999999999999997e-05,0.0,3
9965,10455,9e-05,0.00029,0.0,2e-05,0.00011,4e-05,2.9999999999999997e-05,0.0,3
9966,10456,0.00011,5e-05,-8e-05,0.0,2e-05,-8e-05,-2e-05,0.00011,3
9967,10457,0.00023999999999999998,0.00031,2.9999999999999997e-05,2.9999999999999997e-05,-7e-05,4e-05,-1e-05,0.00018,3
9968,10458,0.00023999999999999998,0.00031,2.9999999999999997e-05,2.9999999999999997e-05,-7e-05,4e-05,-1e-05,0.00018,3
9969,10459,0.00023999999999999998,0.00031,2.9999999999999997e-05,2.9999999999999997e-05,-7e-05,4e-05,-1e-05,0.00018,3
9970,10460,0.00023999999999999998,0.00031,2.9999999999999997e-05,2.9999999999999997e-05,-7e-05,4e-05,-1e-05,0.00018,3
9971,10461,0.00023999999999999998,0.00031,2.9999999999999997e-05,2.9999999999999997e-05,-7e-05,4e-05,-1e-05,0.00018,3
9972,10462,0.00023999999999999998,0.00031,2.9999999999999997e-05,2.9999999999999997e-05,-7e-05,4e-05,-1e-05,0.00018,3
9973,10463,0.00023999999999999998,0.00031,2.9999999999999997e-05,2.9999999999999997e-05,-7e-05,4e-05,-1e-05,0.00018,3
9974,10464,0.00023999999999999998,0.00031,2.9999999999999997e-05,2.9999999999999997e-05,-7e-05,4e-05,-1e-05,0.00018,3
9975,10465,0.00023999999999999998,0.00031,2.9999999999999997e-05,2.9999999999999997e-05,-7e-05,4e-05,-1e-05,0.00018,3
9976,10466,0.00023999999999999998,0.00031,2.9999999999999997e-05,2.9999999999999997e-05,-7e-05,4e-05,-1e-05,0.00018,3
9977,10467,0.00023999999999999998,0.00031,2.9999999999999997e-05,2.9999999999999997e-05,-7e-05,4e-05,-1e-05,0.00018,3
9978,10468,0.00023999999999999998,0.00031,2.9999999999999997e-05,2.9999999999999997e-05,-7e-05,4e-05,-1e-05,0.00018,3
9979,10469,0.00023999999999999998,0.00031,2.9999999999999997e-05,2.9999999999999997e-05,-7e-05,4e-05,-1e-05,0.00018,3
9980,10470,0.00023999999999999998,0.00031,2.9999999999999997e-05,2.9999999999999997e-05,-7e-05,4e-05,-1e-05,0.00018,3
9981,10471,0.00023999999999999998,0.00031,2.9999999999999997e-05,2.9999999999999997e-05,-7e-05,4e-05,-1e-05,0.00018,3
9982,10472,0.00023999999999999998,0.00031,2.9999999999999997e-05,2.9999999999999997e-05,-7e-05,4e-05,-1e-05,0.00018,3
9983,10473,0.00023999999999999998,0.00031,2.9999999999999997e-05,2.9999999999999997e-05,-7e-05,4e-05,-1e-05,0.00018,3
9984,10474,0.00023999999999999998,0.00031,2.9999999999999997e-05,2.9999999999999997e-05,-7e-05,4e-05,-1e-05,0.00018,3
9985,10475,0.00023999999999999998,0.00031,2.9999999999999997e-05,2.9999999999999997e-05,-7e-05,4e-05,-1e-05,0.00018,3
9986,10476,0.00023999999999999998,0.00031,2.9999999999999997e-05,2.9999999999999997e-05,-7e-05,4e-05,-1e-05,0.00018,3
9987,10477,0.00023999999999999998,0.00031,2.9999999999999997e-05,2.9999999999999997e-05,-7e-05,4e-05,-1e-05,0.00018,3
9988,10478,0.00023999999999999998,0.00031,2.9999999999999997e-05,2.9999999999999997e-05,-7e-05,4e-05,-1e-05,0.00018,3
9989,10479,0.00023999999999999998,0.00031,2.9999999999999997e-05,2.9999999999999997e-05,-7e-05,4e-05,-1e-05,0.00018,3
9990,10480,0.00023999999999999998,0.00031,2.9999999999999997e-05,2.9999999999999997e-05,-7e-05,4e-05,-1e-05,0.00018,3
9991,10481,0.00023999999999999998,0.00031,2.9999999999999997e-05,2.9999999999999997e-05,-7e-05,4e-05,-1e-05,0.00018,3
9992,10482,0.00023999999999999998,0.00031,2.9999999999999997e-05,2.9999999999999997e-05,-7e-05,4e-05,-1e-05,0.00018,3
9993,10483,0.00023999999999999998,0.00031,2.9999999999999997e-05,2.9999999999999997e-05,-7e-05,4e-05,-1e-05,0.00018,3
9994,10484,0.00023999999999999998,0.00031,2.9999999999999997e-05,2.9999999999999997e-05,-7e-05,4e-05,-1e-05,0.00018,3
9995,10485,-0.00025,-0.00032,-0.0001,-4e-05,5e-05,-4e-05,-2e-05,5.9999999999999995e-05,3
9996,10487,-0.00022999999999999998,-0.00058,-2e-05,-1e-05,4e-05,5e-05,-9e-05,-0.00015,3
9997,10490,-0.00022999999999999998,-0.00058,-2e-05,-1e-05,4e-05,5e-05,-9e-05,-0.00015,3
9998,10491,-0.00022999999999999998,-0.00058,-2e-05,-1e-05,4e-05,5e-05,-9e-05,-0.00015,3
9999,10492,-0.00022999999999999998,-0.00058,-2e-05,-1e-05,4e-05,5e-05,-9e-05,-0.00015,3
10000,10493,-0.00022999999999999998,-0.00058,-2e-05,-1e-05,4e-05,5e-05,-9e-05,-0.00015,3
10001,10494,-0.00022999999999999998,-0.00058,-2e-05,-1e-05,4e-05,5e-05,-9e-05,-0.00015,3
10002,10495,-0.00022999999999999998,-0.00058,-2e-05,-1e-05,4e-05,5e-05,-9e-05,-0.00015,3
10003,10496,-0.00022999999999999998,-0.00058,-2e-05,-1e-05,4e-05,5e-05,-9e-05,-0.00015,3
10004,10497,-0.00022999999999999998,-0.00058,-2e-05,-1e-05,4e-05,5e-05,-9e-05,-0.00015,3
10005,10498,-0.00022999999999999998,-0.00058,-2e-05,-1e-05,4e-05,5e-05,-9e-05,-0.00015,3
10006,10499,-0.00022999999999999998,-0.00058,-2e-05,-1e-05,4e-05,5e-05,-9e-05,-0.00015,3
10007,10500,-0.00022999999999999998,-0.00058,-2e-05,-1e-05,4e-05,5e-05,-9e-05,-0.00015,3
10008,10501,-0.00022999999999999998,-0.00058,-2e-05,-1e-05,4e-05,5e-05,-9e-05,-0.00015,3
10009,10502,-0.00022999999999999998,-0.00058,-2e-05,-1e-05,4e-05,5e-05,-9e-05,-0.00015,3
10010,10503,-0.00022999999999999998,-0.00058,-2e-05,-1e-05,4e-05,5e-05,-9e-05,-0.00015,3
10011,10504,-0.00022999999999999998,-0.00058,-2e-05,-1e-05,4e-05,5e-05,-9e-05,-0.00015,3
10012,10505,-0.00022999999999999998,-0.00058,-2e-05,-1e-05,4e-05,5e-05,-9e-05,-0.00015,3
10013,10506,-0.00022999999999999998,-0.00058,-2e-05,-1e-05,4e-05,5e-05,-9e-05,-0.00015,3
10014,10507,-0.00022999999999999998,-0.00058,-2e-05,-1e-05,4e-05,5e-05,-9e-05,-0.00015,3
10015,10508,-0.00022999999999999998,-0.00058,-2e-05,-1e-05,4e-05,5e-05,-9e-05,-0.00015,3
10016,10509,0.00018,0.00047000000000000004,0.00015,-2e-05,-0.00018,-0.0001,-7e-05,5e-05,3
10017,10510,0.00018,0.00047000000000000004,0.00015,-2e-05,-0.00018,-0.0001,-7e-05,5e-05,3
10018,10511,0.00018,0.00047000000000000004,0.00015,-2e-05,-0.00018,-0.0001,-7e-05,5e-05,3
10019,10512,0.00018,0.00047000000000000004,0.00015,-2e-05,-0.00018,-0.0001,-7e-05,5e-05,3
10020,10513,0.00018,0.00047000000000000004,0.00015,-2e-05,-0.00018,-0.0001,-7e-05,5e-05,3
10021,10514,0.00018,0.00047000000000000004,0.00015,-2e-05,-0.00018,-0.0001,-7e-05,5e-05,3
10022,10516,0.00018,0.00047000000000000004,0.00015,-2e-05,-0.00018,-0.0001,-7e-05,5e-05,3
10023,10517,0.00018,0.00047000000000000004,0.00015,-2e-05,-0.00018,-0.0001,-7e-05,5e-05,3
10024,10518,0.00018,0.00047000000000000004,0.00015,-2e-05,-0.00018,-0.0001,-7e-05,5e-05,3
10025,10519,0.00018,0.00047000000000000004,0.00015,-2e-05,-0.00018,-0.0001,-7e-05,5e-05,3
10026,10520,0.00018,0.00047000000000000004,0.00015,-2e-05,-0.00018,-0.0001,-7e-05,5e-05,3
10027,10521,0.00018,0.00047000000000000004,0.00015,-2e-05,-0.00018,-0.0001,-7e-05,5e-05,3
10028,10522,0.00018,0.00047000000000000004,0.00015,-2e-05,-0.00018,-0.0001,-7e-05,5e-05,3
10029,10523,0.00018,0.00047000000000000004,0.00015,-2e-05,-0.00018,-0.0001,-7e-05,5e-05,3
10030,10524,0.00018,0.00047000000000000004,0.00015,-2e-05,-0.00018,-0.0001,-7e-05,5e-05,3
10031,10525,0.00018,0.00047000000000000004,0.00015,-2e-05,-0.00018,-0.0001,-7e-05,5e-05,3
10032,10526,0.00018,0.00047000000000000004,0.00015,-2e-05,-0.00018,-0.0001,-7e-05,5e-05,3
10033,10527,0.00018,0.00047000000000000004,0.00015,-2e-05,-0.00018,-0.0001,-7e-05,5e-05,3
10034,10528,0.00018,0.00047000000000000004,0.00015,-2e-05,-0.00018,-0.0001,-7e-05,5e-05,3
10035,10529,0.00018,0.00047000000000000004,0.00015,-2e-05,-0.00018,-0.0001,-7e-05,5e-05,3
10036,10530,0.00018,0.00047000000000000004,0.00015,-2e-05,-0.00018,-0.0001,-7e-05,5e-05,3
10037,10531,0.00018,0.00047000000000000004,0.00015,-2e-05,-0.00018,-0.0001,-7e-05,5e-05,3
10038,10532,0.00018,0.00047000000000000004,0.00015,-2e-05,-0.00018,-0.0001,-7e-05,5e-05,3
10039,10533,0.00018,0.00047000000000000004,0.00015,-2e-05,-0.00018,-0.0001,-7e-05,5e-05,3
10040,10534,0.00018,0.00047000000000000004,0.00015,-2e-05,-0.00018,-0.0001,-7e-05,5e-05,3
10041,10535,0.00018,0.00047000000000000004,0.00015,-2e-05,-0.00018,-0.0001,-7e-05,5e-05,3
10042,10536,0.00018,0.00047000000000000004,0.00015,-2e-05,-0.00018,-0.0001,-7e-05,5e-05,3
10043,10538,0.00018,0.00047000000000000004,0.00015,-2e-05,-0.00018,-0.0001,-7e-05,5e-05,3
10044,10539,0.00018,0.00047000000000000004,0.00015,-2e-05,-0.00018,-0.0001,-7e-05,5e-05,3
10045,10540,0.00018,0.00047000000000000004,0.00015,-2e-05,-0.00018,-0.0001,-7e-05,5e-05,3
10046,10541,0.00018,0.00047000000000000004,0.00015,-2e-05,-0.00018,-0.0001,-7e-05,5e-05,3
10047,10542,0.00018,0.00047000000000000004,0.00015,-2e-05,-0.00018,-0.0001,-7e-05,5e-05,3
10048,10543,0.00018,0.00047000000000000004,0.00015,-2e-05,-0.00018,-0.0001,-7e-05,5e-05,3
10049,10544,0.00018,0.00047000000000000004,0.00015,-2e-05,-0.00018,-0.0001,-7e-05,5e-05,3
10050,10545,0.00018,0.00047000000000000004,0.00015,-2e-05,-0.00018,-0.0001,-7e-05,5e-05,3
10051,10546,0.00018,0.00047000000000000004,0.00015,-2e-05,-0.00018,-0.0001,-7e-05,5e-05,3
10052,10547,0.00018,0.00047000000000000004,0.00015,-2e-05,-0.00018,-0.0001,-7e-05,5e-05,3
10053,10548,0.00018,0.00047000000000000004,0.00015,-2e-05,-0.00018,-0.0001,-7e-05,5e-05,3
10054,10549,0.00018,0.00047000000000000004,0.00015,-2e-05,-0.00018,-0.0001,-7e-05,5e-05,3
10055,10550,0.00018,0.00047000000000000004,0.00015,-2e-05,-0.00018,-0.0001,-7e-05,5e-05,3
10056,10551,0.00018,0.00047000000000000004,0.00015,-2e-05,-0.00018,-0.0001,-7e-05,5e-05,3
10057,10552,0.00018,0.00047000000000000004,0.00015,-2e-05,-0.00018,-0.0001,-7e-05,5e-05,3
10058,10553,0.00018,0.00047000000000000004,0.00015,-2e-05,-0.00018,-0.0001,-7e-05,5e-05,3
10059,10554,0.00018,0.00047000000000000004,0.00015,-2e-05,-0.00018,-0.0001,-7e-05,5e-05,3
10060,10555,0.00018,0.00047000000000000004,0.00015,-2e-05,-0.00018,-0.0001,-7e-05,5e-05,3
10061,10556,0.00018,0.00047000000000000004,0.00015,-2e-05,-0.00018,-0.0001,-7e-05,5e-05,3
10062,10557,0.00018,0.00047000000000000004,0.00015,-2e-05,-0.00018,-0.0001,-7e-05,5e-05,3
10063,10558,0.00018,0.00047000000000000004,0.00015,-2e-05,-0.00018,-0.0001,-7e-05,5e-05,3
10064,10559,0.00018,0.00047000000000000004,0.00015,-2e-05,-0.00018,-0.0001,-7e-05,5e-05,3
10065,10560,0.00018,0.00047000000000000004,0.00015,-2e-05,-0.00018,-0.0001,-7e-05,5e-05,3
10066,10561,0.00018,0.00047000000000000004,0.00015,-2e-05,-0.00018,-0.0001,-7e-05,5e-05,3
10067,10562,-0.00059,-0.0009699999999999999,-0.00025,-0.00014,-0.00021,2.9999999999999997e-05,2.9999999999999997e-05,2e-05,3
10068,10563,-0.00059,-0.0009699999999999999,-0.00025,-0.00014,-0.00021,2.9999999999999997e-05,2.9999999999999997e-05,2e-05,3
10069,10564,-9e-05,-0.00036,-0.00011,-8e-05,-5e-05,-5e-05,-0.00018999999999999998,-4e-05,3
10070,10565,-9e-05,-0.00036,-0.00011,-8e-05,-5e-05,-5e-05,-0.00018999999999999998,-4e-05,3
10071,10566,-9e-05,-0.00036,-0.00011,-8e-05,-5e-05,-5e-05,-0.00018999999999999998,-4e-05,3
10072,10567,-9e-05,-0.00036,-0.00011,-8e-05,-5e-05,-5e-05,-0.00018999999999999998,-4e-05,3
10073,10568,-9e-05,-0.00036,-0.00011,-8e-05,-5e-05,-5e-05,-0.00018999999999999998,-4e-05,3
10074,10569,-9e-05,-0.00036,-0.00011,-8e-05,-5e-05,-5e-05,-0.00018999999999999998,-4e-05,3
10075,10570,-9e-05,-0.00036,-0.00011,-8e-05,-5e-05,-5e-05,-0.00018999999999999998,-4e-05,3
10076,10571,-9e-05,-0.00036,-0.00011,-8e-05,-5e-05,-5e-05,-0.00018999999999999998,-4e-05,3
10077,10572,-9e-05,-0.00036,-0.00011,-8e-05,-5e-05,-5e-05,-0.00018999999999999998,-4e-05,3
10078,10573,-9e-05,-0.00036,-0.00011,-8e-05,-5e-05,-5e-05,-0.00018999999999999998,-4e-05,3
10079,10574,-9e-05,-0.00036,-0.00011,-8e-05,-5e-05,-5e-05,-0.00018999999999999998,-4e-05,3
10080,10575,-9e-05,-0.00036,-0.00011,-8e-05,-5e-05,-5e-05,-0.00018999999999999998,-4e-05,3
10081,10576,-9e-05,-0.00036,-0.00011,-8e-05,-5e-05,-5e-05,-0.00018999999999999998,-4e-05,3
10082,10577,-9e-05,-0.00036,-0.00011,-8e-05,-5e-05,-5e-05,-0.00018999999999999998,-4e-05,3
10083,10578,-9e-05,-0.00036,-0.00011,-8e-05,-5e-05,-5e-05,-0.00018999999999999998,-4e-05,3
10084,10579,-9e-05,-0.00036,-0.00011,-8e-05,-5e-05,-5e-05,-0.00018999999999999998,-4e-05,3
10085,10580,-9e-05,-0.00036,-0.00011,-8e-05,-5e-05,-5e-05,-0.00018999999999999998,-4e-05,3
10086,10581,-9e-05,-0.00036,-0.00011,-8e-05,-5e-05,-5e-05,-0.00018999999999999998,-4e-05,3
10087,10582,-9e-05,-0.00036,-0.00011,-8e-05,-5e-05,-5e-05,-0.00018999999999999998,-4e-05,3
10088,10583,-9e-05,-0.00036,-0.00011,-8e-05,-5e-05,-5e-05,-0.00018999999999999998,-4e-05,3
10089,10584,0.00026000000000000003,0.00045999999999999996,5.9999999999999995e-05,-4e-05,-0.00013000000000000002,-2e-05,-4e-05,2e-05,3
10090,10585,0.00026000000000000003,0.00045999999999999996,5.9999999999999995e-05,-4e-05,-0.00013000000000000002,-2e-05,-4e-05,2e-05,3
10091,10586,0.00011,0.00035,-2e-05,8e-05,0.00015,-5e-05,-8e-05,-0.00023999999999999998,3
10092,10588,-0.00027,-0.0004,2.9999999999999997e-05,2.9999999999999997e-05,1e-05,-5e-05,1e-05,2e-05,3
10093,10589,-0.00027,-0.0004,2.9999999999999997e-05,2.9999999999999997e-05,1e-05,-5e-05,1e-05,2e-05,3
10094,10590,-0.00027,-0.0004,2.9999999999999997e-05,2.9999999999999997e-05,1e-05,-5e-05,1e-05,2e-05,3
10095,10591,-0.00027,-0.0004,2.9999999999999997e-05,2.9999999999999997e-05,1e-05,-5e-05,1e-05,2e-05,3
10096,10592,-0.00027,-0.0004,2.9999999999999997e-05,2.9999999999999997e-05,1e-05,-5e-05,1e-05,2e-05,3
10097,10593,-0.00027,-0.0004,2.9999999999999997e-05,2.9999999999999997e-05,1e-05,-5e-05,1e-05,2e-05,3
10098,10594,-0.00027,-0.0004,2.9999999999999997e-05,2.9999999999999997e-05,1e-05,-5e-05,1e-05,2e-05,3
10099,10595,-0.00027,-0.0004,2.9999999999999997e-05,2.9999999999999997e-05,1e-05,-5e-05,1e-05,2e-05,3
10100,10596,-0.00027,-0.0004,2.9999999999999997e-05,2.9999999999999997e-05,1e-05,-5e-05,1e-05,2e-05,3
10101,10597,-0.00027,-0.0004,2.9999999999999997e-05,2.9999999999999997e-05,1e-05,-5e-05,1e-05,2e-05,3
10102,10598,-0.00027,-0.0004,2.9999999999999997e-05,2.9999999999999997e-05,1e-05,-5e-05,1e-05,2e-05,3
10103,10599,-0.00027,-0.0004,2.9999999999999997e-05,2.9999999999999997e-05,1e-05,-5e-05,1e-05,2e-05,3
10104,10600,-0.00027,-0.0004,2.9999999999999997e-05,2.9999999999999997e-05,1e-05,-5e-05,1e-05,2e-05,3
10105,10601,-0.00027,-0.0004,2.9999999999999997e-05,2.9999999999999997e-05,1e-05,-5e-05,1e-05,2e-05,3
10106,10602,-0.00027,-0.0004,2.9999999999999997e-05,2.9999999999999997e-05,1e-05,-5e-05,1e-05,2e-05,3
10107,10604,-0.00027,-0.0004,2.9999999999999997e-05,2.9999999999999997e-05,1e-05,-5e-05,1e-05,2e-05,3
10108,10605,-0.00027,-0.0004,2.9999999999999997e-05,2.9999999999999997e-05,1e-05,-5e-05,1e-05,2e-05,3
10109,10606,-0.00027,-0.0004,2.9999999999999997e-05,2.9999999999999997e-05,1e-05,-5e-05,1e-05,2e-05,3
10110,10607,-0.00027,-0.0004,2.9999999999999997e-05,2.9999999999999997e-05,1e-05,-5e-05,1e-05,2e-05,3
10111,10608,-0.00027,-0.0004,2.9999999999999997e-05,2.9999999999999997e-05,1e-05,-5e-05,1e-05,2e-05,3
10112,10609,-0.00027,-0.0004,2.9999999999999997e-05,2.9999999999999997e-05,1e-05,-5e-05,1e-05,2e-05,3
10113,10610,-0.00027,-0.0004,2.9999999999999997e-05,2.9999999999999997e-05,1e-05,-5e-05,1e-05,2e-05,3
10114,10611,-0.00027,-0.0004,2.9999999999999997e-05,2.9999999999999997e-05,1e-05,-5e-05,1e-05,2e-05,3
10115,10612,-0.00027,-0.0004,2.9999999999999997e-05,2.9999999999999997e-05,1e-05,-5e-05,1e-05,2e-05,3
10116,10613,-0.00027,-0.0004,2.9999999999999997e-05,2.9999999999999997e-05,1e-05,-5e-05,1e-05,2e-05,3
10117,10614,-0.00027,-0.0004,2.9999999999999997e-05,2.9999999999999997e-05,1e-05,-5e-05,1e-05,2e-05,3
10118,10615,-0.00027,-0.0004,2.9999999999999997e-05,2.9999999999999997e-05,1e-05,-5e-05,1e-05,2e-05,3
10119,10616,-0.00027,-0.0004,2.9999999999999997e-05,2.9999999999999997e-05,1e-05,-5e-05,1e-05,2e-05,3
10120,10617,-0.00027,-0.0004,2.9999999999999997e-05,2.9999999999999997e-05,1e-05,-5e-05,1e-05,2e-05,3
10121,10618,-0.00027,-0.0004,2.9999999999999997e-05,2.9999999999999997e-05,1e-05,-5e-05,1e-05,2e-05,3
10122,10619,-0.00027,-0.0004,2.9999999999999997e-05,2.9999999999999997e-05,1e-05,-5e-05,1e-05,2e-05,3
10123,10620,-0.00027,-0.0004,2.9999999999999997e-05,2.9999999999999997e-05,1e-05,-5e-05,1e-05,2e-05,3
10124,10621,-0.00027,-0.0004,2.9999999999999997e-05,2.9999999999999997e-05,1e-05,-5e-05,1e-05,2e-05,3
10125,10622,-0.00027,-0.0004,2.9999999999999997e-05,2.9999999999999997e-05,1e-05,-5e-05,1e-05,2e-05,3
10126,10623,-0.00027,-0.0004,2.9999999999999997e-05,2.9999999999999997e-05,1e-05,-5e-05,1e-05,2e-05,3
10127,10624,-0.00027,-0.0004,2.9999999999999997e-05,2.9999999999999997e-05,1e-05,-5e-05,1e-05,2e-05,3
10128,10625,-0.00027,-0.0004,2.9999999999999997e-05,2.9999999999999997e-05,1e-05,-5e-05,1e-05,2e-05,3
10129,10626,-0.00027,-0.0004,2.9999999999999997e-05,2.9999999999999997e-05,1e-05,-5e-05,1e-05,2e-05,3
10130,10627,-0.00027,-0.0004,2.9999999999999997e-05,2.9999999999999997e-05,1e-05,-5e-05,1e-05,2e-05,3
10131,10628,-0.00027,-0.0004,2.9999999999999997e-05,2.9999999999999997e-05,1e-05,-5e-05,1e-05,2e-05,3
10132,10629,-0.00027,-0.0004,2.9999999999999997e-05,2.9999999999999997e-05,1e-05,-5e-05,1e-05,2e-05,3
10133,10630,-0.00027,-0.0004,2.9999999999999997e-05,2.9999999999999997e-05,1e-05,-5e-05,1e-05,2e-05,3
10134,10631,-0.00027,-0.0004,2.9999999999999997e-05,2.9999999999999997e-05,1e-05,-5e-05,1e-05,2e-05,3
10135,10632,-0.00027,-0.0004,2.9999999999999997e-05,2.9999999999999997e-05,1e-05,-5e-05,1e-05,2e-05,3
10136,10633,-0.00027,-0.0004,2.9999999999999997e-05,2.9999999999999997e-05,1e-05,-5e-05,1e-05,2e-05,3
10137,10634,-0.00027,-0.0004,2.9999999999999997e-05,2.9999999999999997e-05,1e-05,-5e-05,1e-05,2e-05,3
10138,10635,-0.00027,-0.0004,2.9999999999999997e-05,2.9999999999999997e-05,1e-05,-5e-05,1e-05,2e-05,3
10139,10636,-0.00027,-0.0004,2.9999999999999997e-05,2.9999999999999997e-05,1e-05,-5e-05,1e-05,2e-05,3
10140,10639,1e-05,1e-05,4e-05,0.00018,0.0005200000000000001,0.00016,5.9999999999999995e-05,5e-05,3
10141,10640,1e-05,1e-05,4e-05,0.00018,0.0005200000000000001,0.00016,5.9999999999999995e-05,5e-05,3
10142,10641,1e-05,1e-05,4e-05,0.00018,0.0005200000000000001,0.00016,5.9999999999999995e-05,5e-05,3
10143,10642,1e-05,1e-05,4e-05,0.00018,0.0005200000000000001,0.00016,5.9999999999999995e-05,5e-05,3
10144,10643,1e-05,1e-05,4e-05,0.00018,0.0005200000000000001,0.00016,5.9999999999999995e-05,5e-05,3
10145,10644,1e-05,1e-05,4e-05,0.00018,0.0005200000000000001,0.00016,5.9999999999999995e-05,5e-05,3
10146,10645,1e-05,1e-05,4e-05,0.00018,0.0005200000000000001,0.00016,5.9999999999999995e-05,5e-05,3
10147,10646,1e-05,1e-05,4e-05,0.00018,0.0005200000000000001,0.00016,5.9999999999999995e-05,5e-05,3
10148,10647,1e-05,1e-05,4e-05,0.00018,0.0005200000000000001,0.00016,5.9999999999999995e-05,5e-05,3
10149,10648,1e-05,1e-05,4e-05,0.00018,0.0005200000000000001,0.00016,5.9999999999999995e-05,5e-05,3
10150,10649,1e-05,1e-05,4e-05,0.00018,0.0005200000000000001,0.00016,5.9999999999999995e-05,5e-05,3
10151,10650,1e-05,1e-05,4e-05,0.00018,0.0005200000000000001,0.00016,5.9999999999999995e-05,5e-05,3
10152,10651,1e-05,1e-05,4e-05,0.00018,0.0005200000000000001,0.00016,5.9999999999999995e-05,5e-05,3
10153,10652,1e-05,1e-05,4e-05,0.00018,0.0005200000000000001,0.00016,5.9999999999999995e-05,5e-05,3
10154,10653,1e-05,1e-05,4e-05,0.00018,0.0005200000000000001,0.00016,5.9999999999999995e-05,5e-05,3
10155,10654,1e-05,1e-05,4e-05,0.00018,0.0005200000000000001,0.00016,5.9999999999999995e-05,5e-05,3
10156,10655,1e-05,1e-05,4e-05,0.00018,0.0005200000000000001,0.00016,5.9999999999999995e-05,5e-05,3
10157,10656,1e-05,1e-05,4e-05,0.00018,0.0005200000000000001,0.00016,5.9999999999999995e-05,5e-05,3
10158,10657,1e-05,1e-05,4e-05,0.00018,0.0005200000000000001,0.00016,5.9999999999999995e-05,5e-05,3
10159,10658,1e-05,1e-05,4e-05,0.00018,0.0005200000000000001,0.00016,5.9999999999999995e-05,5e-05,3
10160,10659,1e-05,1e-05,4e-05,0.00018,0.0005200000000000001,0.00016,5.9999999999999995e-05,5e-05,3
10161,10660,-0.00035,-0.00036,-0.00015,-7e-05,-9e-05,-1e-05,-1e-05,-0.00016,3
10162,10661,0.00037999999999999997,0.00079,7e-05,-4e-05,-0.00016999999999999999,-0.00018,5e-05,0.00018999999999999998,3
10163,10662,-8e-05,-9e-05,2.9999999999999997e-05,5e-05,2e-05,1e-05,-4e-05,1e-05,3
10164,10663,-8e-05,-9e-05,2.9999999999999997e-05,5e-05,2e-05,1e-05,-4e-05,1e-05,3
10165,10664,-8e-05,-9e-05,2.9999999999999997e-05,5e-05,2e-05,1e-05,-4e-05,1e-05,3
10166,10665,-8e-05,-9e-05,2.9999999999999997e-05,5e-05,2e-05,1e-05,-4e-05,1e-05,3
10167,10666,-8e-05,-9e-05,2.9999999999999997e-05,5e-05,2e-05,1e-05,-4e-05,1e-05,3
10168,10667,-8e-05,-9e-05,2.9999999999999997e-05,5e-05,2e-05,1e-05,-4e-05,1e-05,3
10169,10668,-8e-05,-9e-05,2.9999999999999997e-05,5e-05,2e-05,1e-05,-4e-05,1e-05,3
10170,10669,-8e-05,-9e-05,2.9999999999999997e-05,5e-05,2e-05,1e-05,-4e-05,1e-05,3
10171,10670,-8e-05,-9e-05,2.9999999999999997e-05,5e-05,2e-05,1e-05,-4e-05,1e-05,3
10172,10671,-8e-05,-9e-05,2.9999999999999997e-05,5e-05,2e-05,1e-05,-4e-05,1e-05,3
10173,10672,-8e-05,-9e-05,2.9999999999999997e-05,5e-05,2e-05,1e-05,-4e-05,1e-05,3
10174,10673,-8e-05,-9e-05,2.9999999999999997e-05,5e-05,2e-05,1e-05,-4e-05,1e-05,3
10175,10674,-8e-05,-9e-05,2.9999999999999997e-05,5e-05,2e-05,1e-05,-4e-05,1e-05,3
10176,10675,-8e-05,-9e-05,2.9999999999999997e-05,5e-05,2e-05,1e-05,-4e-05,1e-05,3
10177,10676,-8e-05,-9e-05,2.9999999999999997e-05,5e-05,2e-05,1e-05,-4e-05,1e-05,3
10178,10677,-8e-05,-9e-05,2.9999999999999997e-05,5e-05,2e-05,1e-05,-4e-05,1e-05,3
10179,10678,-8e-05,-9e-05,2.9999999999999997e-05,5e-05,2e-05,1e-05,-4e-05,1e-05,3
10180,10679,-8e-05,-9e-05,2.9999999999999997e-05,5e-05,2e-05,1e-05,-4e-05,1e-05,3
10181,10680,0.00021,0.00015,-4e-05,-5.9999999999999995e-05,-2.9999999999999997e-05,0.0,0.0001,0.00018,3
10182,10681,0.00021,0.00015,-4e-05,-5.9999999999999995e-05,-2.9999999999999997e-05,0.0,0.0001,0.00018,3
10183,10682,0.00021,0.00015,-4e-05,-5.9999999999999995e-05,-2.9999999999999997e-05,0.0,0.0001,0.00018,3
10184,10683,0.00021,0.00015,-4e-05,-5.9999999999999995e-05,-2.9999999999999997e-05,0.0,0.0001,0.00018,3
10185,10684,0.00021,0.00015,-4e-05,-5.9999999999999995e-05,-2.9999999999999997e-05,0.0,0.0001,0.00018,3
10186,10685,0.00021,0.00015,-4e-05,-5.9999999999999995e-05,-2.9999999999999997e-05,0.0,0.0001,0.00018,3
10187,10686,0.00021,0.00015,-4e-05,-5.9999999999999995e-05,-2.9999999999999997e-05,0.0,0.0001,0.00018,3
10188,10689,0.0,4e-05,7e-05,5.9999999999999995e-05,0.00018,0.00021,9e-05,9e-05,3
10189,10690,-0.00016999999999999999,-0.00037999999999999997,-5e-05,-7e-05,-0.00015,-7e-05,-7e-05,-0.00027,3
10190,10691,-0.00016999999999999999,-0.00037999999999999997,-5e-05,-7e-05,-0.00015,-7e-05,-7e-05,-0.00027,3
10191,10692,-0.00016999999999999999,-0.00037999999999999997,-5e-05,-7e-05,-0.00015,-7e-05,-7e-05,-0.00027,3
10192,10693,-0.00016999999999999999,-0.00037999999999999997,-5e-05,-7e-05,-0.00015,-7e-05,-7e-05,-0.00027,3
10193,10694,-0.00016999999999999999,-0.00037999999999999997,-5e-05,-7e-05,-0.00015,-7e-05,-7e-05,-0.00027,3
10194,10695,-0.00016999999999999999,-0.00037999999999999997,-5e-05,-7e-05,-0.00015,-7e-05,-7e-05,-0.00027,3
10195,10696,-0.00016999999999999999,-0.00037999999999999997,-5e-05,-7e-05,-0.00015,-7e-05,-7e-05,-0.00027,3
10196,10697,-0.00016999999999999999,-0.00037999999999999997,-5e-05,-7e-05,-0.00015,-7e-05,-7e-05,-0.00027,3
10197,10698,-0.00016999999999999999,-0.00037999999999999997,-5e-05,-7e-05,-0.00015,-7e-05,-7e-05,-0.00027,3
10198,10699,-0.00016999999999999999,-0.00037999999999999997,-5e-05,-7e-05,-0.00015,-7e-05,-7e-05,-0.00027,3
10199,10700,-0.00016999999999999999,-0.00037999999999999997,-5e-05,-7e-05,-0.00015,-7e-05,-7e-05,-0.00027,3
10200,10701,-0.00016999999999999999,-0.00037999999999999997,-5e-05,-7e-05,-0.00015,-7e-05,-7e-05,-0.00027,3
10201,10702,-0.00016999999999999999,-0.00037999999999999997,-5e-05,-7e-05,-0.00015,-7e-05,-7e-05,-0.00027,3
10202,10703,-0.00016999999999999999,-0.00037999999999999997,-5e-05,-7e-05,-0.00015,-7e-05,-7e-05,-0.00027,3
10203,10704,-0.00016999999999999999,-0.00037999999999999997,-5e-05,-7e-05,-0.00015,-7e-05,-7e-05,-0.00027,3
10204,10705,-0.00016999999999999999,-0.00037999999999999997,-5e-05,-7e-05,-0.00015,-7e-05,-7e-05,-0.00027,3
10205,10706,-0.00016999999999999999,-0.00037999999999999997,-5e-05,-7e-05,-0.00015,-7e-05,-7e-05,-0.00027,3
10206,10707,-0.00016999999999999999,-0.00037999999999999997,-5e-05,-7e-05,-0.00015,-7e-05,-7e-05,-0.00027,3
10207,10708,-0.00016999999999999999,-0.00037999999999999997,-5e-05,-7e-05,-0.00015,-7e-05,-7e-05,-0.00027,3
10208,10709,-0.00016999999999999999,-0.00037999999999999997,-5e-05,-7e-05,-0.00015,-7e-05,-7e-05,-0.00027,3
10209,10710,-0.00016999999999999999,-0.00037999999999999997,-5e-05,-7e-05,-0.00015,-7e-05,-7e-05,-0.00027,3
10210,10711,-0.00016999999999999999,-0.00037999999999999997,-5e-05,-7e-05,-0.00015,-7e-05,-7e-05,-0.00027,3
10211,10712,-0.00016,-0.00023999999999999998,5e-05,2e-05,2e-05,-2e-05,-0.00018,-0.00022,3
10212,10713,-0.00016,-0.00023999999999999998,5e-05,2e-05,2e-05,-2e-05,-0.00018,-0.00022,3
10213,10714,5e-05,-0.00032,-7e-05,-0.00013000000000000002,-0.00016999999999999999,-8e-05,-0.0001,-5e-05,3
10214,10715,5e-05,-0.00032,-7e-05,-0.00013000000000000002,-0.00016999999999999999,-8e-05,-0.0001,-5e-05,3
10215,10716,5e-05,-0.00032,-7e-05,-0.00013000000000000002,-0.00016999999999999999,-8e-05,-0.0001,-5e-05,3
10216,10717,5e-05,-0.00032,-7e-05,-0.00013000000000000002,-0.00016999999999999999,-8e-05,-0.0001,-5e-05,3
10217,10718,5e-05,-0.00032,-7e-05,-0.00013000000000000002,-0.00016999999999999999,-8e-05,-0.0001,-5e-05,3
10218,10719,5e-05,-0.00032,-7e-05,-0.00013000000000000002,-0.00016999999999999999,-8e-05,-0.0001,-5e-05,3
10219,10720,5e-05,-0.00032,-7e-05,-0.00013000000000000002,-0.00016999999999999999,-8e-05,-0.0001,-5e-05,3
10220,10721,5e-05,-0.00032,-7e-05,-0.00013000000000000002,-0.00016999999999999999,-8e-05,-0.0001,-5e-05,3
10221,10722,5e-05,-0.00032,-7e-05,-0.00013000000000000002,-0.00016999999999999999,-8e-05,-0.0001,-5e-05,3
10222,10723,5e-05,-0.00032,-7e-05,-0.00013000000000000002,-0.00016999999999999999,-8e-05,-0.0001,-5e-05,3
10223,10724,5e-05,-0.00032,-7e-05,-0.00013000000000000002,-0.00016999999999999999,-8e-05,-0.0001,-5e-05,3
10224,10725,5e-05,-0.00032,-7e-05,-0.00013000000000000002,-0.00016999999999999999,-8e-05,-0.0001,-5e-05,3
10225,10726,5e-05,-0.00032,-7e-05,-0.00013000000000000002,-0.00016999999999999999,-8e-05,-0.0001,-5e-05,3
10226,10727,5e-05,-0.00032,-7e-05,-0.00013000000000000002,-0.00016999999999999999,-8e-05,-0.0001,-5e-05,3
10227,10728,5e-05,-0.00032,-7e-05,-0.00013000000000000002,-0.00016999999999999999,-8e-05,-0.0001,-5e-05,3
10228,10729,5e-05,-0.00032,-7e-05,-0.00013000000000000002,-0.00016999999999999999,-8e-05,-0.0001,-5e-05,3
10229,10730,5e-05,-0.00032,-7e-05,-0.00013000000000000002,-0.00016999999999999999,-8e-05,-0.0001,-5e-05,3
10230,10731,5e-05,-0.00032,-7e-05,-0.00013000000000000002,-0.00016999999999999999,-8e-05,-0.0001,-5e-05,3
10231,10732,5e-05,-0.00032,-7e-05,-0.00013000000000000002,-0.00016999999999999999,-8e-05,-0.0001,-5e-05,3
10232,10733,5e-05,-0.00032,-7e-05,-0.00013000000000000002,-0.00016999999999999999,-8e-05,-0.0001,-5e-05,3
10233,10734,-0.00016999999999999999,-0.00026000000000000003,-0.00013000000000000002,-7e-05,-0.00011,-5e-05,-0.00013000000000000002,-0.00035,3
10234,10735,0.00015,0.00058,0.00022999999999999998,0.00014,0.00018,0.00014,0.00016,0.00014,3
10235,10736,-1e-05,1e-05,2e-05,-5e-05,-0.00014,-2e-05,-8e-05,2.9999999999999997e-05,3
10236,10738,-1e-05,1e-05,2e-05,-5e-05,-0.00014,-2e-05,-8e-05,2.9999999999999997e-05,3
10237,10739,-1e-05,1e-05,2e-05,-5e-05,-0.00014,-2e-05,-8e-05,2.9999999999999997e-05,3
10238,10740,-1e-05,1e-05,2e-05,-5e-05,-0.00014,-2e-05,-8e-05,2.9999999999999997e-05,3
10239,10741,-1e-05,1e-05,2e-05,-5e-05,-0.00014,-2e-05,-8e-05,2.9999999999999997e-05,3
10240,10742,-1e-05,1e-05,2e-05,-5e-05,-0.00014,-2e-05,-8e-05,2.9999999999999997e-05,3
10241,10743,-1e-05,1e-05,2e-05,-5e-05,-0.00014,-2e-05,-8e-05,2.9999999999999997e-05,3
10242,10744,-1e-05,1e-05,2e-05,-5e-05,-0.00014,-2e-05,-8e-05,2.9999999999999997e-05,3
10243,10745,-1e-05,1e-05,2e-05,-5e-05,-0.00014,-2e-05,-8e-05,2.9999999999999997e-05,3
10244,10746,-1e-05,1e-05,2e-05,-5e-05,-0.00014,-2e-05,-8e-05,2.9999999999999997e-05,3
10245,10747,-1e-05,1e-05,2e-05,-5e-05,-0.00014,-2e-05,-8e-05,2.9999999999999997e-05,3
10246,10748,-1e-05,1e-05,2e-05,-5e-05,-0.00014,-2e-05,-8e-05,2.9999999999999997e-05,3
10247,10749,-1e-05,1e-05,2e-05,-5e-05,-0.00014,-2e-05,-8e-05,2.9999999999999997e-05,3
10248,10750,-1e-05,1e-05,2e-05,-5e-05,-0.00014,-2e-05,-8e-05,2.9999999999999997e-05,3
10249,10751,-1e-05,1e-05,2e-05,-5e-05,-0.00014,-2e-05,-8e-05,2.9999999999999997e-05,3
10250,10752,-1e-05,1e-05,2e-05,-5e-05,-0.00014,-2e-05,-8e-05,2.9999999999999997e-05,3
10251,10753,-1e-05,1e-05,2e-05,-5e-05,-0.00014,-2e-05,-8e-05,2.9999999999999997e-05,3
10252,10754,-1e-05,1e-05,2e-05,-5e-05,-0.00014,-2e-05,-8e-05,2.9999999999999997e-05,3
10253,10755,-1e-05,1e-05,2e-05,-5e-05,-0.00014,-2e-05,-8e-05,2.9999999999999997e-05,3
10254,10756,-1e-05,1e-05,2e-05,-5e-05,-0.00014,-2e-05,-8e-05,2.9999999999999997e-05,3
10255,10757,-1e-05,1e-05,2e-05,-5e-05,-0.00014,-2e-05,-8e-05,2.9999999999999997e-05,3
10256,10758,-1e-05,1e-05,2e-05,-5e-05,-0.00014,-2e-05,-8e-05,2.9999999999999997e-05,3
10257,10759,-1e-05,1e-05,2e-05,-5e-05,-0.00014,-2e-05,-8e-05,2.9999999999999997e-05,3
10258,10760,-1e-05,1e-05,2e-05,-5e-05,-0.00014,-2e-05,-8e-05,2.9999999999999997e-05,3
10259,10761,-1e-05,1e-05,2e-05,-5e-05,-0.00014,-2e-05,-8e-05,2.9999999999999997e-05,3
10260,10762,-1e-05,1e-05,2e-05,-5e-05,-0.00014,-2e-05,-8e-05,2.9999999999999997e-05,3
10261,10763,-1e-05,1e-05,2e-05,-5e-05,-0.00014,-2e-05,-8e-05,2.9999999999999997e-05,3
10262,10764,-0.00025,-0.00011,-2e-05,0.0,5.9999999999999995e-05,-2e-05,2.9999999999999997e-05,5e-05,3
10263,10765,9e-05,0.00031,2.9999999999999997e-05,2.9999999999999997e-05,0.0,-9e-05,-2.9999999999999997e-05,7e-05,3
10264,10766,9e-05,0.00031,2.9999999999999997e-05,2.9999999999999997e-05,0.0,-9e-05,-2.9999999999999997e-05,7e-05,3
10265,10767,9e-05,0.00031,2.9999999999999997e-05,2.9999999999999997e-05,0.0,-9e-05,-2.9999999999999997e-05,7e-05,3
10266,10768,9e-05,0.00031,2.9999999999999997e-05,2.9999999999999997e-05,0.0,-9e-05,-2.9999999999999997e-05,7e-05,3
10267,10769,9e-05,0.00031,2.9999999999999997e-05,2.9999999999999997e-05,0.0,-9e-05,-2.9999999999999997e-05,7e-05,3
10268,10770,9e-05,0.00031,2.9999999999999997e-05,2.9999999999999997e-05,0.0,-9e-05,-2.9999999999999997e-05,7e-05,3
10269,10771,9e-05,0.00031,2.9999999999999997e-05,2.9999999999999997e-05,0.0,-9e-05,-2.9999999999999997e-05,7e-05,3
10270,10772,9e-05,0.00031,2.9999999999999997e-05,2.9999999999999997e-05,0.0,-9e-05,-2.9999999999999997e-05,7e-05,3
10271,10773,9e-05,0.00031,2.9999999999999997e-05,2.9999999999999997e-05,0.0,-9e-05,-2.9999999999999997e-05,7e-05,3
10272,10774,9e-05,0.00031,2.9999999999999997e-05,2.9999999999999997e-05,0.0,-9e-05,-2.9999999999999997e-05,7e-05,3
10273,10775,9e-05,0.00031,2.9999999999999997e-05,2.9999999999999997e-05,0.0,-9e-05,-2.9999999999999997e-05,7e-05,3
10274,10776,9e-05,0.00031,2.9999999999999997e-05,2.9999999999999997e-05,0.0,-9e-05,-2.9999999999999997e-05,7e-05,3
10275,10777,9e-05,0.00031,2.9999999999999997e-05,2.9999999999999997e-05,0.0,-9e-05,-2.9999999999999997e-05,7e-05,3
10276,10778,9e-05,0.00031,2.9999999999999997e-05,2.9999999999999997e-05,0.0,-9e-05,-2.9999999999999997e-05,7e-05,3
10277,10779,9e-05,0.00031,2.9999999999999997e-05,2.9999999999999997e-05,0.0,-9e-05,-2.9999999999999997e-05,7e-05,3
10278,10780,9e-05,0.00031,2.9999999999999997e-05,2.9999999999999997e-05,0.0,-9e-05,-2.9999999999999997e-05,7e-05,3
10279,10781,9e-05,0.00031,2.9999999999999997e-05,2.9999999999999997e-05,0.0,-9e-05,-2.9999999999999997e-05,7e-05,3
10280,10782,9e-05,0.00031,2.9999999999999997e-05,2.9999999999999997e-05,0.0,-9e-05,-2.9999999999999997e-05,7e-05,3
10281,10783,9e-05,0.00031,2.9999999999999997e-05,2.9999999999999997e-05,0.0,-9e-05,-2.9999999999999997e-05,7e-05,3
10282,10784,9e-05,0.00031,2.9999999999999997e-05,2.9999999999999997e-05,0.0,-9e-05,-2.9999999999999997e-05,7e-05,3
10283,10785,0.00011999999999999999,-0.00025,-0.00018,2.9999999999999997e-05,0.00011,0.0,-1e-05,1e-05,3
10284,10787,-0.00018999999999999998,-0.00015,-2.9999999999999997e-05,0.0,-5.9999999999999995e-05,-2e-05,2.9999999999999997e-05,-1e-05,3
10285,10789,-0.00018999999999999998,-0.00015,-2.9999999999999997e-05,0.0,-5.9999999999999995e-05,-2e-05,2.9999999999999997e-05,-1e-05,3
10286,10790,-0.00018999999999999998,-0.00015,-2.9999999999999997e-05,0.0,-5.9999999999999995e-05,-2e-05,2.9999999999999997e-05,-1e-05,3
10287,10792,-0.00018999999999999998,-0.00015,-2.9999999999999997e-05,0.0,-5.9999999999999995e-05,-2e-05,2.9999999999999997e-05,-1e-05,3
10288,10793,-0.00018999999999999998,-0.00015,-2.9999999999999997e-05,0.0,-5.9999999999999995e-05,-2e-05,2.9999999999999997e-05,-1e-05,3
10289,10794,-0.00018999999999999998,-0.00015,-2.9999999999999997e-05,0.0,-5.9999999999999995e-05,-2e-05,2.9999999999999997e-05,-1e-05,3
10290,10795,-0.00018999999999999998,-0.00015,-2.9999999999999997e-05,0.0,-5.9999999999999995e-05,-2e-05,2.9999999999999997e-05,-1e-05,3
10291,10796,-0.00018999999999999998,-0.00015,-2.9999999999999997e-05,0.0,-5.9999999999999995e-05,-2e-05,2.9999999999999997e-05,-1e-05,3
10292,10797,-0.00018999999999999998,-0.00015,-2.9999999999999997e-05,0.0,-5.9999999999999995e-05,-2e-05,2.9999999999999997e-05,-1e-05,3
10293,10798,-0.00018999999999999998,-0.00015,-2.9999999999999997e-05,0.0,-5.9999999999999995e-05,-2e-05,2.9999999999999997e-05,-1e-05,3
10294,10799,-0.00018999999999999998,-0.00015,-2.9999999999999997e-05,0.0,-5.9999999999999995e-05,-2e-05,2.9999999999999997e-05,-1e-05,3
10295,10800,-0.00018999999999999998,-0.00015,-2.9999999999999997e-05,0.0,-5.9999999999999995e-05,-2e-05,2.9999999999999997e-05,-1e-05,3
10296,10801,-0.00018999999999999998,-0.00015,-2.9999999999999997e-05,0.0,-5.9999999999999995e-05,-2e-05,2.9999999999999997e-05,-1e-05,3
10297,10802,-0.00018999999999999998,-0.00015,-2.9999999999999997e-05,0.0,-5.9999999999999995e-05,-2e-05,2.9999999999999997e-05,-1e-05,3
10298,10803,-0.00018999999999999998,-0.00015,-2.9999999999999997e-05,0.0,-5.9999999999999995e-05,-2e-05,2.9999999999999997e-05,-1e-05,3
10299,10804,-0.00018999999999999998,-0.00015,-2.9999999999999997e-05,0.0,-5.9999999999999995e-05,-2e-05,2.9999999999999997e-05,-1e-05,3
10300,10805,-0.00018999999999999998,-0.00015,-2.9999999999999997e-05,0.0,-5.9999999999999995e-05,-2e-05,2.9999999999999997e-05,-1e-05,3
10301,10806,-0.00018999999999999998,-0.00015,-2.9999999999999997e-05,0.0,-5.9999999999999995e-05,-2e-05,2.9999999999999997e-05,-1e-05,3
10302,10807,-0.00018999999999999998,-0.00015,-2.9999999999999997e-05,0.0,-5.9999999999999995e-05,-2e-05,2.9999999999999997e-05,-1e-05,3
10303,10808,-7e-05,0.00015,9e-05,1e-05,-9e-05,5e-05,5.9999999999999995e-05,7e-05,3
10304,10809,-7e-05,0.00015,9e-05,1e-05,-9e-05,5e-05,5.9999999999999995e-05,7e-05,3
10305,10810,-7e-05,0.00015,9e-05,1e-05,-9e-05,5e-05,5.9999999999999995e-05,7e-05,3
10306,10811,-7e-05,0.00015,9e-05,1e-05,-9e-05,5e-05,5.9999999999999995e-05,7e-05,3
10307,10812,-7e-05,0.00015,9e-05,1e-05,-9e-05,5e-05,5.9999999999999995e-05,7e-05,3
10308,10813,-7e-05,0.00015,9e-05,1e-05,-9e-05,5e-05,5.9999999999999995e-05,7e-05,3
10309,10814,-7e-05,0.00015,9e-05,1e-05,-9e-05,5e-05,5.9999999999999995e-05,7e-05,3
10310,10815,-7e-05,0.00015,9e-05,1e-05,-9e-05,5e-05,5.9999999999999995e-05,7e-05,3
10311,10816,-7e-05,0.00015,9e-05,1e-05,-9e-05,5e-05,5.9999999999999995e-05,7e-05,3
10312,10817,-7e-05,0.00015,9e-05,1e-05,-9e-05,5e-05,5.9999999999999995e-05,7e-05,3
10313,10818,-7e-05,0.00015,9e-05,1e-05,-9e-05,5e-05,5.9999999999999995e-05,7e-05,3
10314,10819,-7e-05,0.00015,9e-05,1e-05,-9e-05,5e-05,5.9999999999999995e-05,7e-05,3
10315,10820,-7e-05,0.00015,9e-05,1e-05,-9e-05,5e-05,5.9999999999999995e-05,7e-05,3
10316,10821,-7e-05,0.00015,9e-05,1e-05,-9e-05,5e-05,5.9999999999999995e-05,7e-05,3
10317,10822,-7e-05,0.00015,9e-05,1e-05,-9e-05,5e-05,5.9999999999999995e-05,7e-05,3
10318,10823,-7e-05,0.00015,9e-05,1e-05,-9e-05,5e-05,5.9999999999999995e-05,7e-05,3
10319,10824,-7e-05,0.00015,9e-05,1e-05,-9e-05,5e-05,5.9999999999999995e-05,7e-05,3
10320,10825,-7e-05,0.00015,9e-05,1e-05,-9e-05,5e-05,5.9999999999999995e-05,7e-05,3
10321,10826,-7e-05,0.00015,9e-05,1e-05,-9e-05,5e-05,5.9999999999999995e-05,7e-05,3
10322,10827,-7e-05,0.00015,9e-05,1e-05,-9e-05,5e-05,5.9999999999999995e-05,7e-05,3
10323,10828,-7e-05,0.00015,9e-05,1e-05,-9e-05,5e-05,5.9999999999999995e-05,7e-05,3
10324,10829,-7e-05,0.00015,9e-05,1e-05,-9e-05,5e-05,5.9999999999999995e-05,7e-05,3
10325,10830,-7e-05,0.00015,9e-05,1e-05,-9e-05,5e-05,5.9999999999999995e-05,7e-05,3
10326,10831,-7e-05,0.00015,9e-05,1e-05,-9e-05,5e-05,5.9999999999999995e-05,7e-05,3
10327,10832,-7e-05,0.00015,9e-05,1e-05,-9e-05,5e-05,5.9999999999999995e-05,7e-05,3
10328,10833,-7e-05,0.00015,9e-05,1e-05,-9e-05,5e-05,5.9999999999999995e-05,7e-05,3
10329,10834,-7e-05,0.00015,9e-05,1e-05,-9e-05,5e-05,5.9999999999999995e-05,7e-05,3
10330,10835,-7e-05,0.00015,9e-05,1e-05,-9e-05,5e-05,5.9999999999999995e-05,7e-05,3
10331,10836,-7e-05,0.00015,9e-05,1e-05,-9e-05,5e-05,5.9999999999999995e-05,7e-05,3
10332,10839,-0.00033,-0.00042,-5.9999999999999995e-05,-1e-05,1e-05,5e-05,0.00015,0.00013000000000000002,3
10333,10840,-0.00033,-0.00042,-5.9999999999999995e-05,-1e-05,1e-05,5e-05,0.00015,0.00013000000000000002,3
10334,10841,0.0001,0.0002,-5.9999999999999995e-05,-2.9999999999999997e-05,-0.00011,-4e-05,-0.00013000000000000002,-4e-05,3
10335,10842,0.0003,0.00045999999999999996,-8e-05,4e-05,0.00016,7e-05,7e-05,5e-05,3
10336,10843,0.0003,0.00045999999999999996,-8e-05,4e-05,0.00016,7e-05,7e-05,5e-05,3
10337,10844,0.0003,0.00045999999999999996,-8e-05,4e-05,0.00016,7e-05,7e-05,5e-05,3
10338,10845,0.0003,0.00045999999999999996,-8e-05,4e-05,0.00016,7e-05,7e-05,5e-05,3
10339,10846,0.0003,0.00045999999999999996,-8e-05,4e-05,0.00016,7e-05,7e-05,5e-05,3
10340,10847,0.0003,0.00045999999999999996,-8e-05,4e-05,0.00016,7e-05,7e-05,5e-05,3
10341,10848,0.0003,0.00045999999999999996,-8e-05,4e-05,0.00016,7e-05,7e-05,5e-05,3
10342,10849,0.0003,0.00045999999999999996,-8e-05,4e-05,0.00016,7e-05,7e-05,5e-05,3
10343,10850,0.0003,0.00045999999999999996,-8e-05,4e-05,0.00016,7e-05,7e-05,5e-05,3
10344,10851,0.0003,0.00045999999999999996,-8e-05,4e-05,0.00016,7e-05,7e-05,5e-05,3
10345,10852,0.0003,0.00045999999999999996,-8e-05,4e-05,0.00016,7e-05,7e-05,5e-05,3
10346,10853,0.0003,0.00045999999999999996,-8e-05,4e-05,0.00016,7e-05,7e-05,5e-05,3
10347,10854,0.0003,0.00045999999999999996,-8e-05,4e-05,0.00016,7e-05,7e-05,5e-05,3
10348,10855,0.0003,0.00045999999999999996,-8e-05,4e-05,0.00016,7e-05,7e-05,5e-05,3
10349,10856,0.0003,0.00045999999999999996,-8e-05,4e-05,0.00016,7e-05,7e-05,5e-05,3
10350,10857,0.0003,0.00045999999999999996,-8e-05,4e-05,0.00016,7e-05,7e-05,5e-05,3
10351,10858,0.0003,0.00045999999999999996,-8e-05,4e-05,0.00016,7e-05,7e-05,5e-05,3
10352,10859,0.0003,0.00045999999999999996,-8e-05,4e-05,0.00016,7e-05,7e-05,5e-05,3
10353,10860,0.0003,0.00045999999999999996,-8e-05,4e-05,0.00016,7e-05,7e-05,5e-05,3
10354,10861,0.0003,0.00045999999999999996,-8e-05,4e-05,0.00016,7e-05,7e-05,5e-05,3
10355,10862,1e-05,-0.0001,1e-05,7e-05,0.00023999999999999998,0.00014,7e-05,0.00011999999999999999,3
10356,10863,7e-05,0.00018,0.00013000000000000002,2.9999999999999997e-05,-4e-05,-4e-05,-5e-05,-0.0002,3
10357,10864,2e-05,8e-05,7e-05,-5e-05,-5.9999999999999995e-05,-5.9999999999999995e-05,5e-05,0.00035,3
10358,10865,2e-05,8e-05,7e-05,-5e-05,-5.9999999999999995e-05,-5.9999999999999995e-05,5e-05,0.00035,3
10359,10866,2e-05,8e-05,7e-05,-5e-05,-5.9999999999999995e-05,-5.9999999999999995e-05,5e-05,0.00035,3
10360,10867,2e-05,8e-05,7e-05,-5e-05,-5.9999999999999995e-05,-5.9999999999999995e-05,5e-05,0.00035,3
10361,10868,2e-05,8e-05,7e-05,-5e-05,-5.9999999999999995e-05,-5.9999999999999995e-05,5e-05,0.00035,3
10362,10869,2e-05,8e-05,7e-05,-5e-05,-5.9999999999999995e-05,-5.9999999999999995e-05,5e-05,0.00035,3
10363,10870,2e-05,8e-05,7e-05,-5e-05,-5.9999999999999995e-05,-5.9999999999999995e-05,5e-05,0.00035,3
10364,10871,2e-05,8e-05,7e-05,-5e-05,-5.9999999999999995e-05,-5.9999999999999995e-05,5e-05,0.00035,3
10365,10872,2e-05,8e-05,7e-05,-5e-05,-5.9999999999999995e-05,-5.9999999999999995e-05,5e-05,0.00035,3
10366,10873,2e-05,8e-05,7e-05,-5e-05,-5.9999999999999995e-05,-5.9999999999999995e-05,5e-05,0.00035,3
10367,10874,2e-05,8e-05,7e-05,-5e-05,-5.9999999999999995e-05,-5.9999999999999995e-05,5e-05,0.00035,3
10368,10875,2e-05,8e-05,7e-05,-5e-05,-5.9999999999999995e-05,-5.9999999999999995e-05,5e-05,0.00035,3
10369,10876,2e-05,8e-05,7e-05,-5e-05,-5.9999999999999995e-05,-5.9999999999999995e-05,5e-05,0.00035,3
10370,10877,2e-05,8e-05,7e-05,-5e-05,-5.9999999999999995e-05,-5.9999999999999995e-05,5e-05,0.00035,3
10371,10878,2e-05,8e-05,7e-05,-5e-05,-5.9999999999999995e-05,-5.9999999999999995e-05,5e-05,0.00035,3
10372,10879,2e-05,8e-05,7e-05,-5e-05,-5.9999999999999995e-05,-5.9999999999999995e-05,5e-05,0.00035,3
10373,10880,2e-05,8e-05,7e-05,-5e-05,-5.9999999999999995e-05,-5.9999999999999995e-05,5e-05,0.00035,3
10374,10881,2e-05,8e-05,7e-05,-5e-05,-5.9999999999999995e-05,-5.9999999999999995e-05,5e-05,0.00035,3
10375,10882,2e-05,8e-05,7e-05,-5e-05,-5.9999999999999995e-05,-5.9999999999999995e-05,5e-05,0.00035,3
10376,10883,2e-05,8e-05,7e-05,-5e-05,-5.9999999999999995e-05,-5.9999999999999995e-05,5e-05,0.00035,3
10377,10884,2e-05,8e-05,7e-05,-5e-05,-5.9999999999999995e-05,-5.9999999999999995e-05,5e-05,0.00035,3
10378,10885,2e-05,8e-05,7e-05,-5e-05,-5.9999999999999995e-05,-5.9999999999999995e-05,5e-05,0.00035,3
10379,10886,2e-05,8e-05,7e-05,-5e-05,-5.9999999999999995e-05,-5.9999999999999995e-05,5e-05,0.00035,3
10380,10889,2e-05,8e-05,7e-05,-5e-05,-5.9999999999999995e-05,-5.9999999999999995e-05,5e-05,0.00035,3
10381,10890,2e-05,8e-05,7e-05,-5e-05,-5.9999999999999995e-05,-5.9999999999999995e-05,5e-05,0.00035,3
10382,10891,0.00014,0.00047999999999999996,0.00016999999999999999,0.00011,0.0002,0.00013000000000000002,0.00013000000000000002,7e-05,3
10383,10892,0.00014,0.00047999999999999996,0.00016999999999999999,0.00011,0.0002,0.00013000000000000002,0.00013000000000000002,7e-05,3
10384,10893,0.00014,0.00047999999999999996,0.00016999999999999999,0.00011,0.0002,0.00013000000000000002,0.00013000000000000002,7e-05,3
10385,10894,0.00014,0.00047999999999999996,0.00016999999999999999,0.00011,0.0002,0.00013000000000000002,0.00013000000000000002,7e-05,3
10386,10895,0.00014,0.00047999999999999996,0.00016999999999999999,0.00011,0.0002,0.00013000000000000002,0.00013000000000000002,7e-05,3
10387,10896,0.00014,0.00047999999999999996,0.00016999999999999999,0.00011,0.0002,0.00013000000000000002,0.00013000000000000002,7e-05,3
10388,10897,0.00014,0.00047999999999999996,0.00016999999999999999,0.00011,0.0002,0.00013000000000000002,0.00013000000000000002,7e-05,3
10389,10898,0.00014,0.00047999999999999996,0.00016999999999999999,0.00011,0.0002,0.00013000000000000002,0.00013000000000000002,7e-05,3
10390,10899,0.00014,0.00047999999999999996,0.00016999999999999999,0.00011,0.0002,0.00013000000000000002,0.00013000000000000002,7e-05,3
10391,10900,0.00014,0.00047999999999999996,0.00016999999999999999,0.00011,0.0002,0.00013000000000000002,0.00013000000000000002,7e-05,3
10392,10901,0.00014,0.00047999999999999996,0.00016999999999999999,0.00011,0.0002,0.00013000000000000002,0.00013000000000000002,7e-05,3
10393,10902,0.00014,0.00047999999999999996,0.00016999999999999999,0.00011,0.0002,0.00013000000000000002,0.00013000000000000002,7e-05,3
10394,10903,0.00014,0.00047999999999999996,0.00016999999999999999,0.00011,0.0002,0.00013000000000000002,0.00013000000000000002,7e-05,3
10395,10904,0.00014,0.00047999999999999996,0.00016999999999999999,0.00011,0.0002,0.00013000000000000002,0.00013000000000000002,7e-05,3
10396,10905,0.00014,0.00047999999999999996,0.00016999999999999999,0.00011,0.0002,0.00013000000000000002,0.00013000000000000002,7e-05,3
10397,10906,0.00014,0.00047999999999999996,0.00016999999999999999,0.00011,0.0002,0.00013000000000000002,0.00013000000000000002,7e-05,3
10398,10907,0.00014,0.00047999999999999996,0.00016999999999999999,0.00011,0.0002,0.00013000000000000002,0.00013000000000000002,7e-05,3
10399,10908,0.00014,0.00047999999999999996,0.00016999999999999999,0.00011,0.0002,0.00013000000000000002,0.00013000000000000002,7e-05,3
10400,10909,0.00014,0.00047999999999999996,0.00016999999999999999,0.00011,0.0002,0.00013000000000000002,0.00013000000000000002,7e-05,3
10401,10910,0.00014,0.00047999999999999996,0.00016999999999999999,0.00011,0.0002,0.00013000000000000002,0.00013000000000000002,7e-05,3
10402,10911,0.00014,0.00047999999999999996,0.00016999999999999999,0.00011,0.0002,0.00013000000000000002,0.00013000000000000002,7e-05,3
10403,10912,0.00014,0.00047999999999999996,0.00016999999999999999,0.00011,0.0002,0.00013000000000000002,0.00013000000000000002,7e-05,3
10404,10913,0.00014,0.00047999999999999996,0.00016999999999999999,0.00011,0.0002,0.00013000000000000002,0.00013000000000000002,7e-05,3
10405,10914,0.00044,0.00031,5.9999999999999995e-05,-1e-05,-2.9999999999999997e-05,-2e-05,-0.00013000000000000002,-0.00015,3
10406,10915,-0.00036,-0.00072,-9e-05,-5e-05,-0.00014,-0.00011999999999999999,-5e-05,-0.00056,3
10407,10916,-0.00036,-0.00072,-9e-05,-5e-05,-0.00014,-0.00011999999999999999,-5e-05,-0.00056,3
10408,10917,-0.00013000000000000002,-0.00011999999999999999,-5.9999999999999995e-05,-1e-05,0.0001,-2.9999999999999997e-05,5.9999999999999995e-05,-5.9999999999999995e-05,3
10409,10918,-0.00013000000000000002,-0.00011999999999999999,-5.9999999999999995e-05,-1e-05,0.0001,-2.9999999999999997e-05,5.9999999999999995e-05,-5.9999999999999995e-05,3
10410,10919,-0.00013000000000000002,-0.00011999999999999999,-5.9999999999999995e-05,-1e-05,0.0001,-2.9999999999999997e-05,5.9999999999999995e-05,-5.9999999999999995e-05,3
10411,10920,-0.00013000000000000002,-0.00011999999999999999,-5.9999999999999995e-05,-1e-05,0.0001,-2.9999999999999997e-05,5.9999999999999995e-05,-5.9999999999999995e-05,3
10412,10921,-0.00013000000000000002,-0.00011999999999999999,-5.9999999999999995e-05,-1e-05,0.0001,-2.9999999999999997e-05,5.9999999999999995e-05,-5.9999999999999995e-05,3
10413,10922,-0.00013000000000000002,-0.00011999999999999999,-5.9999999999999995e-05,-1e-05,0.0001,-2.9999999999999997e-05,5.9999999999999995e-05,-5.9999999999999995e-05,3
10414,10923,-0.00013000000000000002,-0.00011999999999999999,-5.9999999999999995e-05,-1e-05,0.0001,-2.9999999999999997e-05,5.9999999999999995e-05,-5.9999999999999995e-05,3
10415,10924,-0.00013000000000000002,-0.00011999999999999999,-5.9999999999999995e-05,-1e-05,0.0001,-2.9999999999999997e-05,5.9999999999999995e-05,-5.9999999999999995e-05,3
10416,10925,-0.00013000000000000002,-0.00011999999999999999,-5.9999999999999995e-05,-1e-05,0.0001,-2.9999999999999997e-05,5.9999999999999995e-05,-5.9999999999999995e-05,3
10417,10926,-0.00013000000000000002,-0.00011999999999999999,-5.9999999999999995e-05,-1e-05,0.0001,-2.9999999999999997e-05,5.9999999999999995e-05,-5.9999999999999995e-05,3
10418,10927,-0.00013000000000000002,-0.00011999999999999999,-5.9999999999999995e-05,-1e-05,0.0001,-2.9999999999999997e-05,5.9999999999999995e-05,-5.9999999999999995e-05,3
10419,10928,-0.00013000000000000002,-0.00011999999999999999,-5.9999999999999995e-05,-1e-05,0.0001,-2.9999999999999997e-05,5.9999999999999995e-05,-5.9999999999999995e-05,3
10420,10929,-0.00013000000000000002,-0.00011999999999999999,-5.9999999999999995e-05,-1e-05,0.0001,-2.9999999999999997e-05,5.9999999999999995e-05,-5.9999999999999995e-05,3
10421,10930,-0.00013000000000000002,-0.00011999999999999999,-5.9999999999999995e-05,-1e-05,0.0001,-2.9999999999999997e-05,5.9999999999999995e-05,-5.9999999999999995e-05,3
10422,10931,-0.00013000000000000002,-0.00011999999999999999,-5.9999999999999995e-05,-1e-05,0.0001,-2.9999999999999997e-05,5.9999999999999995e-05,-5.9999999999999995e-05,3
10423,10932,-0.00013000000000000002,-0.00011999999999999999,-5.9999999999999995e-05,-1e-05,0.0001,-2.9999999999999997e-05,5.9999999999999995e-05,-5.9999999999999995e-05,3
10424,10933,-0.00013000000000000002,-0.00011999999999999999,-5.9999999999999995e-05,-1e-05,0.0001,-2.9999999999999997e-05,5.9999999999999995e-05,-5.9999999999999995e-05,3
10425,10934,-0.00013000000000000002,-0.00011999999999999999,-5.9999999999999995e-05,-1e-05,0.0001,-2.9999999999999997e-05,5.9999999999999995e-05,-5.9999999999999995e-05,3
10426,10935,-0.00013000000000000002,-0.00011999999999999999,-5.9999999999999995e-05,-1e-05,0.0001,-2.9999999999999997e-05,5.9999999999999995e-05,-5.9999999999999995e-05,3
10427,10936,0.00014,0.00045999999999999996,0.00011999999999999999,7e-05,0.00015,9e-05,-1e-05,0.00036,3
10428,10939,0.0001,0.00011999999999999999,0.0,-2.9999999999999997e-05,-0.00013000000000000002,-0.00011999999999999999,-5.9999999999999995e-05,0.00033,3
10429,10940,0.0001,0.00011999999999999999,0.0,-2.9999999999999997e-05,-0.00013000000000000002,-0.00011999999999999999,-5.9999999999999995e-05,0.00033,3
10430,10941,0.0001,0.00011999999999999999,0.0,-2.9999999999999997e-05,-0.00013000000000000002,-0.00011999999999999999,-5.9999999999999995e-05,0.00033,3
10431,10942,0.0001,0.00011999999999999999,0.0,-2.9999999999999997e-05,-0.00013000000000000002,-0.00011999999999999999,-5.9999999999999995e-05,0.00033,3
10432,10943,0.0001,0.00011999999999999999,0.0,-2.9999999999999997e-05,-0.00013000000000000002,-0.00011999999999999999,-5.9999999999999995e-05,0.00033,3
10433,10944,0.0001,0.00011999999999999999,0.0,-2.9999999999999997e-05,-0.00013000000000000002,-0.00011999999999999999,-5.9999999999999995e-05,0.00033,3
10434,10945,0.0001,0.00011999999999999999,0.0,-2.9999999999999997e-05,-0.00013000000000000002,-0.00011999999999999999,-5.9999999999999995e-05,0.00033,3
10435,10946,0.0001,0.00011999999999999999,0.0,-2.9999999999999997e-05,-0.00013000000000000002,-0.00011999999999999999,-5.9999999999999995e-05,0.00033,3
10436,10947,0.0001,0.00011999999999999999,0.0,-2.9999999999999997e-05,-0.00013000000000000002,-0.00011999999999999999,-5.9999999999999995e-05,0.00033,3
10437,10948,0.0001,0.00011999999999999999,0.0,-2.9999999999999997e-05,-0.00013000000000000002,-0.00011999999999999999,-5.9999999999999995e-05,0.00033,3
10438,10949,0.0001,0.00011999999999999999,0.0,-2.9999999999999997e-05,-0.00013000000000000002,-0.00011999999999999999,-5.9999999999999995e-05,0.00033,3
10439,10950,0.0001,0.00011999999999999999,0.0,-2.9999999999999997e-05,-0.00013000000000000002,-0.00011999999999999999,-5.9999999999999995e-05,0.00033,3
10440,10951,0.0001,0.00011999999999999999,0.0,-2.9999999999999997e-05,-0.00013000000000000002,-0.00011999999999999999,-5.9999999999999995e-05,0.00033,3
10441,10952,0.0001,0.00011999999999999999,0.0,-2.9999999999999997e-05,-0.00013000000000000002,-0.00011999999999999999,-5.9999999999999995e-05,0.00033,3
10442,10953,0.0001,0.00011999999999999999,0.0,-2.9999999999999997e-05,-0.00013000000000000002,-0.00011999999999999999,-5.9999999999999995e-05,0.00033,3
10443,10954,0.0001,0.00011999999999999999,0.0,-2.9999999999999997e-05,-0.00013000000000000002,-0.00011999999999999999,-5.9999999999999995e-05,0.00033,3
10444,10955,0.0001,0.00011999999999999999,0.0,-2.9999999999999997e-05,-0.00013000000000000002,-0.00011999999999999999,-5.9999999999999995e-05,0.00033,3
10445,10956,0.0001,0.00011999999999999999,0.0,-2.9999999999999997e-05,-0.00013000000000000002,-0.00011999999999999999,-5.9999999999999995e-05,0.00033,3
10446,10957,2.9999999999999997e-05,2e-05,4e-05,-9e-05,-0.00011,-0.00011999999999999999,-5.9999999999999995e-05,0.00013000000000000002,3
10447,10958,2.9999999999999997e-05,2e-05,4e-05,-9e-05,-0.00011,-0.00011999999999999999,-5.9999999999999995e-05,0.00013000000000000002,3
10448,10959,2.9999999999999997e-05,2e-05,4e-05,-9e-05,-0.00011,-0.00011999999999999999,-5.9999999999999995e-05,0.00013000000000000002,3
10449,10960,2.9999999999999997e-05,2e-05,4e-05,-9e-05,-0.00011,-0.00011999999999999999,-5.9999999999999995e-05,0.00013000000000000002,3
10450,10961,2.9999999999999997e-05,2e-05,4e-05,-9e-05,-0.00011,-0.00011999999999999999,-5.9999999999999995e-05,0.00013000000000000002,3
10451,10962,2.9999999999999997e-05,2e-05,4e-05,-9e-05,-0.00011,-0.00011999999999999999,-5.9999999999999995e-05,0.00013000000000000002,3
10452,10963,2.9999999999999997e-05,2e-05,4e-05,-9e-05,-0.00011,-0.00011999999999999999,-5.9999999999999995e-05,0.00013000000000000002,3
10453,10964,2.9999999999999997e-05,2e-05,4e-05,-9e-05,-0.00011,-0.00011999999999999999,-5.9999999999999995e-05,0.00013000000000000002,3
10454,10965,2.9999999999999997e-05,2e-05,4e-05,-9e-05,-0.00011,-0.00011999999999999999,-5.9999999999999995e-05,0.00013000000000000002,3
10455,10966,2.9999999999999997e-05,2e-05,4e-05,-9e-05,-0.00011,-0.00011999999999999999,-5.9999999999999995e-05,0.00013000000000000002,3
10456,10967,0.00047999999999999996,0.00031,-2e-05,-1e-05,8e-05,0.00011,7e-05,0.00021,3
10457,10968,-0.00032,-0.00065,-0.00022999999999999998,-8e-05,0.0,-5e-05,-0.0001,-0.00037,3
10458,10969,-0.00016999999999999999,-9e-05,-2.9999999999999997e-05,1e-05,2e-05,-4e-05,-0.00015,-2e-05,3
10459,10970,-0.00016999999999999999,-9e-05,-2.9999999999999997e-05,1e-05,2e-05,-4e-05,-0.00015,-2e-05,3
10460,10971,-0.00016999999999999999,-9e-05,-2.9999999999999997e-05,1e-05,2e-05,-4e-05,-0.00015,-2e-05,3
10461,10972,-0.00016999999999999999,-9e-05,-2.9999999999999997e-05,1e-05,2e-05,-4e-05,-0.00015,-2e-05,3
10462,10973,-0.00016999999999999999,-9e-05,-2.9999999999999997e-05,1e-05,2e-05,-4e-05,-0.00015,-2e-05,3
10463,10974,-0.00016999999999999999,-9e-05,-2.9999999999999997e-05,1e-05,2e-05,-4e-05,-0.00015,-2e-05,3
10464,10975,-0.00016999999999999999,-9e-05,-2.9999999999999997e-05,1e-05,2e-05,-4e-05,-0.00015,-2e-05,3
10465,10976,-0.00016999999999999999,-9e-05,-2.9999999999999997e-05,1e-05,2e-05,-4e-05,-0.00015,-2e-05,3
10466,10977,-0.00016999999999999999,-9e-05,-2.9999999999999997e-05,1e-05,2e-05,-4e-05,-0.00015,-2e-05,3
10467,10978,-0.00016999999999999999,-9e-05,-2.9999999999999997e-05,1e-05,2e-05,-4e-05,-0.00015,-2e-05,3
10468,10979,-0.00016999999999999999,-9e-05,-2.9999999999999997e-05,1e-05,2e-05,-4e-05,-0.00015,-2e-05,3
10469,10980,-0.00016999999999999999,-9e-05,-2.9999999999999997e-05,1e-05,2e-05,-4e-05,-0.00015,-2e-05,3
10470,10981,-0.00016999999999999999,-9e-05,-2.9999999999999997e-05,1e-05,2e-05,-4e-05,-0.00015,-2e-05,3
10471,10982,-0.00016999999999999999,-9e-05,-2.9999999999999997e-05,1e-05,2e-05,-4e-05,-0.00015,-2e-05,3
10472,10983,-0.00016999999999999999,-9e-05,-2.9999999999999997e-05,1e-05,2e-05,-4e-05,-0.00015,-2e-05,3
10473,10984,-0.00016999999999999999,-9e-05,-2.9999999999999997e-05,1e-05,2e-05,-4e-05,-0.00015,-2e-05,3
10474,10985,-0.00016999999999999999,-9e-05,-2.9999999999999997e-05,1e-05,2e-05,-4e-05,-0.00015,-2e-05,3
10475,10986,-0.00016999999999999999,-9e-05,-2.9999999999999997e-05,1e-05,2e-05,-4e-05,-0.00015,-2e-05,3
10476,10989,-4e-05,0.00027,-4e-05,-5.9999999999999995e-05,-0.00016999999999999999,-2.9999999999999997e-05,-2.9999999999999997e-05,5.9999999999999995e-05,3
10477,10990,-2e-05,4e-05,-2e-05,-5.9999999999999995e-05,-9e-05,-7e-05,-7e-05,0.00014,3
10478,10991,-2e-05,4e-05,-2e-05,-5.9999999999999995e-05,-9e-05,-7e-05,-7e-05,0.00014,3
10479,10992,-2e-05,4e-05,-2e-05,-5.9999999999999995e-05,-9e-05,-7e-05,-7e-05,0.00014,3
10480,10993,-2e-05,4e-05,-2e-05,-5.9999999999999995e-05,-9e-05,-7e-05,-7e-05,0.00014,3
10481,10994,-2e-05,4e-05,-2e-05,-5.9999999999999995e-05,-9e-05,-7e-05,-7e-05,0.00014,3
10482,10995,-2e-05,4e-05,-2e-05,-5.9999999999999995e-05,-9e-05,-7e-05,-7e-05,0.00014,3
10483,10996,-2e-05,4e-05,-2e-05,-5.9999999999999995e-05,-9e-05,-7e-05,-7e-05,0.00014,3
10484,10997,-2e-05,4e-05,-2e-05,-5.9999999999999995e-05,-9e-05,-7e-05,-7e-05,0.00014,3
10485,10998,-2e-05,4e-05,-2e-05,-5.9999999999999995e-05,-9e-05,-7e-05,-7e-05,0.00014,3
10486,10999,-2e-05,4e-05,-2e-05,-5.9999999999999995e-05,-9e-05,-7e-05,-7e-05,0.00014,3
10487,11000,-2e-05,4e-05,-2e-05,-5.9999999999999995e-05,-9e-05,-7e-05,-7e-05,0.00014,3
10488,11001,-2e-05,4e-05,-2e-05,-5.9999999999999995e-05,-9e-05,-7e-05,-7e-05,0.00014,3
10489,11002,-2e-05,4e-05,-2e-05,-5.9999999999999995e-05,-9e-05,-7e-05,-7e-05,0.00014,3
10490,11003,-2e-05,4e-05,-2e-05,-5.9999999999999995e-05,-9e-05,-7e-05,-7e-05,0.00014,3
10491,11004,-2e-05,4e-05,-2e-05,-5.9999999999999995e-05,-9e-05,-7e-05,-7e-05,0.00014,3
10492,11005,-2e-05,4e-05,-2e-05,-5.9999999999999995e-05,-9e-05,-7e-05,-7e-05,0.00014,3
10493,11006,-2e-05,4e-05,-2e-05,-5.9999999999999995e-05,-9e-05,-7e-05,-7e-05,0.00014,3
10494,11007,-2e-05,4e-05,-2e-05,-5.9999999999999995e-05,-9e-05,-7e-05,-7e-05,0.00014,3
10495,11008,-2e-05,4e-05,-2e-05,-5.9999999999999995e-05,-9e-05,-7e-05,-7e-05,0.00014,3
10496,11009,-0.00018,-9e-05,0.0,0.0,2.9999999999999997e-05,4e-05,7e-05,0.00018,3
10497,11010,-0.0001,-0.00015,-5e-05,1e-05,0.0,1e-05,-0.0001,-8e-05,3
10498,11011,-0.0001,-0.00015,-5e-05,1e-05,0.0,1e-05,-0.0001,-8e-05,3
10499,11012,-0.0001,-0.00015,-5e-05,1e-05,0.0,1e-05,-0.0001,-8e-05,3
10500,11013,-0.0001,-0.00015,-5e-05,1e-05,0.0,1e-05,-0.0001,-8e-05,3
10501,11014,-0.0001,-0.00015,-5e-05,1e-05,0.0,1e-05,-0.0001,-8e-05,3
10502,11015,-0.0001,-0.00015,-5e-05,1e-05,0.0,1e-05,-0.0001,-8e-05,3
10503,11016,-0.0001,-0.00015,-5e-05,1e-05,0.0,1e-05,-0.0001,-8e-05,3
10504,11017,-0.0001,-0.00015,-5e-05,1e-05,0.0,1e-05,-0.0001,-8e-05,3
10505,11018,-0.0001,-0.00015,-5e-05,1e-05,0.0,1e-05,-0.0001,-8e-05,3
10506,11019,-0.0001,-0.00015,-5e-05,1e-05,0.0,1e-05,-0.0001,-8e-05,3
10507,11020,-0.0001,-0.00015,-5e-05,1e-05,0.0,1e-05,-0.0001,-8e-05,3
10508,11021,-0.0001,-0.00015,-5e-05,1e-05,0.0,1e-05,-0.0001,-8e-05,3
10509,11022,-0.0001,-0.00015,-5e-05,1e-05,0.0,1e-05,-0.0001,-8e-05,3
10510,11023,-0.0001,-0.00015,-5e-05,1e-05,0.0,1e-05,-0.0001,-8e-05,3
10511,11024,-0.0001,-0.00015,-5e-05,1e-05,0.0,1e-05,-0.0001,-8e-05,3
10512,11025,-0.0001,-0.00015,-5e-05,1e-05,0.0,1e-05,-0.0001,-8e-05,3
10513,11026,-0.0001,-0.00015,-5e-05,1e-05,0.0,1e-05,-0.0001,-8e-05,3
10514,11027,-0.0001,-0.00015,-5e-05,1e-05,0.0,1e-05,-0.0001,-8e-05,3
10515,11028,-0.0001,-0.00015,-5e-05,1e-05,0.0,1e-05,-0.0001,-8e-05,3
10516,11029,-0.0001,-0.00015,-5e-05,1e-05,0.0,1e-05,-0.0001,-8e-05,3
10517,11030,-0.0001,-0.00015,-5e-05,1e-05,0.0,1e-05,-0.0001,-8e-05,3
10518,11031,-0.0001,-0.00015,-5e-05,1e-05,0.0,1e-05,-0.0001,-8e-05,3
10519,11032,-2.9999999999999997e-05,-4e-05,0.0,-5e-05,-2.9999999999999997e-05,5.9999999999999995e-05,4e-05,-4e-05,3
10520,11033,-2.9999999999999997e-05,-4e-05,0.0,-5e-05,-2.9999999999999997e-05,5.9999999999999995e-05,4e-05,-4e-05,3
10521,11034,-2.9999999999999997e-05,-4e-05,0.0,-5e-05,-2.9999999999999997e-05,5.9999999999999995e-05,4e-05,-4e-05,3
10522,11035,-2.9999999999999997e-05,-4e-05,0.0,-5e-05,-2.9999999999999997e-05,5.9999999999999995e-05,4e-05,-4e-05,3
10523,11036,-2.9999999999999997e-05,-4e-05,0.0,-5e-05,-2.9999999999999997e-05,5.9999999999999995e-05,4e-05,-4e-05,3
10524,11038,-2.9999999999999997e-05,-4e-05,0.0,-5e-05,-2.9999999999999997e-05,5.9999999999999995e-05,4e-05,-4e-05,3
10525,11039,-2.9999999999999997e-05,-4e-05,0.0,-5e-05,-2.9999999999999997e-05,5.9999999999999995e-05,4e-05,-4e-05,3
10526,11040,-2.9999999999999997e-05,-4e-05,0.0,-5e-05,-2.9999999999999997e-05,5.9999999999999995e-05,4e-05,-4e-05,3
10527,11041,-2.9999999999999997e-05,-4e-05,0.0,-5e-05,-2.9999999999999997e-05,5.9999999999999995e-05,4e-05,-4e-05,3
10528,11042,-0.00014,-8e-05,-0.00011,-7e-05,-0.00014,-9e-05,-0.0001,-0.00014,3
10529,11043,-0.00021,-0.00027,-0.00013000000000000002,-1e-05,0.0,-2.9999999999999997e-05,1e-05,-1e-05,3
10530,11044,-0.00021,-0.00027,-0.00013000000000000002,-1e-05,0.0,-2.9999999999999997e-05,1e-05,-1e-05,3
10531,11045,-0.00021,-0.00027,-0.00013000000000000002,-1e-05,0.0,-2.9999999999999997e-05,1e-05,-1e-05,3
10532,11046,-0.00021,-0.00027,-0.00013000000000000002,-1e-05,0.0,-2.9999999999999997e-05,1e-05,-1e-05,3
10533,11047,-0.00021,-0.00027,-0.00013000000000000002,-1e-05,0.0,-2.9999999999999997e-05,1e-05,-1e-05,3
10534,11048,-0.00021,-0.00027,-0.00013000000000000002,-1e-05,0.0,-2.9999999999999997e-05,1e-05,-1e-05,3
10535,11049,-0.00021,-0.00027,-0.00013000000000000002,-1e-05,0.0,-2.9999999999999997e-05,1e-05,-1e-05,3
10536,11050,-0.00021,-0.00027,-0.00013000000000000002,-1e-05,0.0,-2.9999999999999997e-05,1e-05,-1e-05,3
10537,11051,-0.00021,-0.00027,-0.00013000000000000002,-1e-05,0.0,-2.9999999999999997e-05,1e-05,-1e-05,3
10538,11052,-0.00021,-0.00027,-0.00013000000000000002,-1e-05,0.0,-2.9999999999999997e-05,1e-05,-1e-05,3
10539,11053,-0.00021,-0.00027,-0.00013000000000000002,-1e-05,0.0,-2.9999999999999997e-05,1e-05,-1e-05,3
10540,11054,-0.00021,-0.00027,-0.00013000000000000002,-1e-05,0.0,-2.9999999999999997e-05,1e-05,-1e-05,3
10541,11055,-0.00021,-0.00027,-0.00013000000000000002,-1e-05,0.0,-2.9999999999999997e-05,1e-05,-1e-05,3
10542,11056,-0.00021,-0.00027,-0.00013000000000000002,-1e-05,0.0,-2.9999999999999997e-05,1e-05,-1e-05,3
10543,11057,-0.00021,-0.00027,-0.00013000000000000002,-1e-05,0.0,-2.9999999999999997e-05,1e-05,-1e-05,3
10544,11058,-0.00021,-0.00027,-0.00013000000000000002,-1e-05,0.0,-2.9999999999999997e-05,1e-05,-1e-05,3
10545,11059,-0.00021,-0.00027,-0.00013000000000000002,-1e-05,0.0,-2.9999999999999997e-05,1e-05,-1e-05,3
10546,11060,-0.00021,-0.00027,-0.00013000000000000002,-1e-05,0.0,-2.9999999999999997e-05,1e-05,-1e-05,3
10547,11061,-0.00021,-0.00027,-0.00013000000000000002,-1e-05,0.0,-2.9999999999999997e-05,1e-05,-1e-05,3
10548,11062,-0.00021,-0.00027,-0.00013000000000000002,-1e-05,0.0,-2.9999999999999997e-05,1e-05,-1e-05,3
10549,11063,-0.00021,-0.00027,-0.00013000000000000002,-1e-05,0.0,-2.9999999999999997e-05,1e-05,-1e-05,3
10550,11064,7e-05,7e-05,-2.9999999999999997e-05,4e-05,7e-05,4e-05,-1e-05,-0.00013000000000000002,3
10551,11065,-0.00027,-7e-05,-2.9999999999999997e-05,4e-05,-1e-05,-0.00015,-0.00014,-0.00041,3
10552,11066,-0.00027,-7e-05,-2.9999999999999997e-05,4e-05,-1e-05,-0.00015,-0.00014,-0.00041,3
10553,11067,5e-05,-0.00028,-9e-05,-2.9999999999999997e-05,2e-05,-5e-05,-0.00011,-0.00036,3
10554,11068,5e-05,-0.00028,-9e-05,-2.9999999999999997e-05,2e-05,-5e-05,-0.00011,-0.00036,3
10555,11069,5e-05,-0.00028,-9e-05,-2.9999999999999997e-05,2e-05,-5e-05,-0.00011,-0.00036,3
10556,11070,5e-05,-0.00028,-9e-05,-2.9999999999999997e-05,2e-05,-5e-05,-0.00011,-0.00036,3
10557,11071,5e-05,-0.00028,-9e-05,-2.9999999999999997e-05,2e-05,-5e-05,-0.00011,-0.00036,3
10558,11073,5e-05,-0.00028,-9e-05,-2.9999999999999997e-05,2e-05,-5e-05,-0.00011,-0.00036,3
10559,11074,5e-05,-0.00028,-9e-05,-2.9999999999999997e-05,2e-05,-5e-05,-0.00011,-0.00036,3
10560,11075,5e-05,-0.00028,-9e-05,-2.9999999999999997e-05,2e-05,-5e-05,-0.00011,-0.00036,3
10561,11076,5e-05,-0.00028,-9e-05,-2.9999999999999997e-05,2e-05,-5e-05,-0.00011,-0.00036,3
10562,11077,5e-05,-0.00028,-9e-05,-2.9999999999999997e-05,2e-05,-5e-05,-0.00011,-0.00036,3
10563,11078,5e-05,-0.00028,-9e-05,-2.9999999999999997e-05,2e-05,-5e-05,-0.00011,-0.00036,3
10564,11079,5e-05,-0.00028,-9e-05,-2.9999999999999997e-05,2e-05,-5e-05,-0.00011,-0.00036,3
10565,11080,5e-05,-0.00028,-9e-05,-2.9999999999999997e-05,2e-05,-5e-05,-0.00011,-0.00036,3
10566,11081,5e-05,-0.00028,-9e-05,-2.9999999999999997e-05,2e-05,-5e-05,-0.00011,-0.00036,3
10567,11082,5e-05,-0.00028,-9e-05,-2.9999999999999997e-05,2e-05,-5e-05,-0.00011,-0.00036,3
10568,11083,5e-05,-0.00028,-9e-05,-2.9999999999999997e-05,2e-05,-5e-05,-0.00011,-0.00036,3
10569,11084,5e-05,-0.00028,-9e-05,-2.9999999999999997e-05,2e-05,-5e-05,-0.00011,-0.00036,3
10570,11085,5e-05,-0.00028,-9e-05,-2.9999999999999997e-05,2e-05,-5e-05,-0.00011,-0.00036,3
10571,11086,-0.00015,-0.00018999999999999998,-8e-05,-7e-05,-0.00013000000000000002,-2.9999999999999997e-05,-8e-05,-0.00016999999999999999,3
10572,11089,4e-05,-2.9999999999999997e-05,0.00015,0.0,-5.9999999999999995e-05,9e-05,-4e-05,-0.00016,3
10573,11090,4e-05,-2.9999999999999997e-05,0.00015,0.0,-5.9999999999999995e-05,9e-05,-4e-05,-0.00016,3
10574,11091,4e-05,-2.9999999999999997e-05,0.00015,0.0,-5.9999999999999995e-05,9e-05,-4e-05,-0.00016,3
10575,11092,4e-05,-2.9999999999999997e-05,0.00015,0.0,-5.9999999999999995e-05,9e-05,-4e-05,-0.00016,3
10576,11093,4e-05,-2.9999999999999997e-05,0.00015,0.0,-5.9999999999999995e-05,9e-05,-4e-05,-0.00016,3
10577,11094,4e-05,-2.9999999999999997e-05,0.00015,0.0,-5.9999999999999995e-05,9e-05,-4e-05,-0.00016,3
10578,11095,4e-05,-2.9999999999999997e-05,0.00015,0.0,-5.9999999999999995e-05,9e-05,-4e-05,-0.00016,3
10579,11096,4e-05,-2.9999999999999997e-05,0.00015,0.0,-5.9999999999999995e-05,9e-05,-4e-05,-0.00016,3
10580,11097,4e-05,-2.9999999999999997e-05,0.00015,0.0,-5.9999999999999995e-05,9e-05,-4e-05,-0.00016,3
10581,11098,4e-05,-2.9999999999999997e-05,0.00015,0.0,-5.9999999999999995e-05,9e-05,-4e-05,-0.00016,3
10582,11099,4e-05,-2.9999999999999997e-05,0.00015,0.0,-5.9999999999999995e-05,9e-05,-4e-05,-0.00016,3
10583,11100,4e-05,-2.9999999999999997e-05,0.00015,0.0,-5.9999999999999995e-05,9e-05,-4e-05,-0.00016,3
10584,11101,4e-05,-2.9999999999999997e-05,0.00015,0.0,-5.9999999999999995e-05,9e-05,-4e-05,-0.00016,3
10585,11102,4e-05,-2.9999999999999997e-05,0.00015,0.0,-5.9999999999999995e-05,9e-05,-4e-05,-0.00016,3
10586,11103,4e-05,-2.9999999999999997e-05,0.00015,0.0,-5.9999999999999995e-05,9e-05,-4e-05,-0.00016,3
10587,11104,4e-05,-2.9999999999999997e-05,0.00015,0.0,-5.9999999999999995e-05,9e-05,-4e-05,-0.00016,3
10588,11105,4e-05,-2.9999999999999997e-05,0.00015,0.0,-5.9999999999999995e-05,9e-05,-4e-05,-0.00016,3
10589,11106,4e-05,-2.9999999999999997e-05,0.00015,0.0,-5.9999999999999995e-05,9e-05,-4e-05,-0.00016,3
10590,11107,4e-05,-2.9999999999999997e-05,0.00015,0.0,-5.9999999999999995e-05,9e-05,-4e-05,-0.00016,3
10591,11108,4e-05,-2.9999999999999997e-05,0.00015,0.0,-5.9999999999999995e-05,9e-05,-4e-05,-0.00016,3
10592,11109,4e-05,-2.9999999999999997e-05,0.00015,0.0,-5.9999999999999995e-05,9e-05,-4e-05,-0.00016,3
10593,11110,4e-05,-2.9999999999999997e-05,0.00015,0.0,-5.9999999999999995e-05,9e-05,-4e-05,-0.00016,3
10594,11111,4e-05,-2.9999999999999997e-05,0.00015,0.0,-5.9999999999999995e-05,9e-05,-4e-05,-0.00016,3
10595,11112,4e-05,-2.9999999999999997e-05,0.00015,0.0,-5.9999999999999995e-05,9e-05,-4e-05,-0.00016,3
10596,11113,4e-05,-2.9999999999999997e-05,0.00015,0.0,-5.9999999999999995e-05,9e-05,-4e-05,-0.00016,3
10597,11114,4e-05,-2.9999999999999997e-05,0.00015,0.0,-5.9999999999999995e-05,9e-05,-4e-05,-0.00016,3
10598,11115,4e-05,-2.9999999999999997e-05,0.00015,0.0,-5.9999999999999995e-05,9e-05,-4e-05,-0.00016,3
10599,11116,4e-05,-2.9999999999999997e-05,0.00015,0.0,-5.9999999999999995e-05,9e-05,-4e-05,-0.00016,3
10600,11117,0.00061,0.00054,-5e-05,-7e-05,0.0,0.00015,0.00016999999999999999,0.00043,3
10601,11119,0.00047000000000000004,0.00031,0.00011999999999999999,-2e-05,-0.00022,-0.0001,-0.00011999999999999999,0.00022,3
10602,11120,0.00047000000000000004,0.00031,0.00011999999999999999,-2e-05,-0.00022,-0.0001,-0.00011999999999999999,0.00022,3
10603,11121,0.00047000000000000004,0.00031,0.00011999999999999999,-2e-05,-0.00022,-0.0001,-0.00011999999999999999,0.00022,3
10604,11122,0.00047000000000000004,0.00031,0.00011999999999999999,-2e-05,-0.00022,-0.0001,-0.00011999999999999999,0.00022,3
10605,11123,0.00047000000000000004,0.00031,0.00011999999999999999,-2e-05,-0.00022,-0.0001,-0.00011999999999999999,0.00022,3
10606,11124,0.00047000000000000004,0.00031,0.00011999999999999999,-2e-05,-0.00022,-0.0001,-0.00011999999999999999,0.00022,3
10607,11125,0.00047000000000000004,0.00031,0.00011999999999999999,-2e-05,-0.00022,-0.0001,-0.00011999999999999999,0.00022,3
10608,11126,0.00047000000000000004,0.00031,0.00011999999999999999,-2e-05,-0.00022,-0.0001,-0.00011999999999999999,0.00022,3
10609,11127,0.00047000000000000004,0.00031,0.00011999999999999999,-2e-05,-0.00022,-0.0001,-0.00011999999999999999,0.00022,3
10610,11128,0.00047000000000000004,0.00031,0.00011999999999999999,-2e-05,-0.00022,-0.0001,-0.00011999999999999999,0.00022,3
10611,11129,0.00047000000000000004,0.00031,0.00011999999999999999,-2e-05,-0.00022,-0.0001,-0.00011999999999999999,0.00022,3
10612,11130,0.00047000000000000004,0.00031,0.00011999999999999999,-2e-05,-0.00022,-0.0001,-0.00011999999999999999,0.00022,3
10613,11131,0.00047000000000000004,0.00031,0.00011999999999999999,-2e-05,-0.00022,-0.0001,-0.00011999999999999999,0.00022,3
10614,11132,0.00047000000000000004,0.00031,0.00011999999999999999,-2e-05,-0.00022,-0.0001,-0.00011999999999999999,0.00022,3
10615,11133,0.00047000000000000004,0.00031,0.00011999999999999999,-2e-05,-0.00022,-0.0001,-0.00011999999999999999,0.00022,3
10616,11134,0.00047000000000000004,0.00031,0.00011999999999999999,-2e-05,-0.00022,-0.0001,-0.00011999999999999999,0.00022,3
10617,11135,0.00047000000000000004,0.00031,0.00011999999999999999,-2e-05,-0.00022,-0.0001,-0.00011999999999999999,0.00022,3
10618,11137,0.00047000000000000004,0.00031,0.00011999999999999999,-2e-05,-0.00022,-0.0001,-0.00011999999999999999,0.00022,3
10619,11140,-2e-05,-8e-05,-2e-05,-2e-05,-1e-05,-0.00016999999999999999,-2e-05,0.0,3
10620,11141,2.9999999999999997e-05,2e-05,7e-05,-5.9999999999999995e-05,-0.00016,-0.0002,-0.00011999999999999999,8e-05,3
10621,11142,2.9999999999999997e-05,2e-05,7e-05,-5.9999999999999995e-05,-0.00016,-0.0002,-0.00011999999999999999,8e-05,3
10622,11143,2.9999999999999997e-05,2e-05,7e-05,-5.9999999999999995e-05,-0.00016,-0.0002,-0.00011999999999999999,8e-05,3
10623,11144,2.9999999999999997e-05,2e-05,7e-05,-5.9999999999999995e-05,-0.00016,-0.0002,-0.00011999999999999999,8e-05,3
10624,11145,2.9999999999999997e-05,2e-05,7e-05,-5.9999999999999995e-05,-0.00016,-0.0002,-0.00011999999999999999,8e-05,3
10625,11146,2.9999999999999997e-05,2e-05,7e-05,-5.9999999999999995e-05,-0.00016,-0.0002,-0.00011999999999999999,8e-05,3
10626,11147,2.9999999999999997e-05,2e-05,7e-05,-5.9999999999999995e-05,-0.00016,-0.0002,-0.00011999999999999999,8e-05,3
10627,11148,2.9999999999999997e-05,2e-05,7e-05,-5.9999999999999995e-05,-0.00016,-0.0002,-0.00011999999999999999,8e-05,3
10628,11149,2.9999999999999997e-05,2e-05,7e-05,-5.9999999999999995e-05,-0.00016,-0.0002,-0.00011999999999999999,8e-05,3
10629,11150,2.9999999999999997e-05,2e-05,7e-05,-5.9999999999999995e-05,-0.00016,-0.0002,-0.00011999999999999999,8e-05,3
10630,11151,2.9999999999999997e-05,2e-05,7e-05,-5.9999999999999995e-05,-0.00016,-0.0002,-0.00011999999999999999,8e-05,3
10631,11152,2.9999999999999997e-05,2e-05,7e-05,-5.9999999999999995e-05,-0.00016,-0.0002,-0.00011999999999999999,8e-05,3
10632,11153,2.9999999999999997e-05,2e-05,7e-05,-5.9999999999999995e-05,-0.00016,-0.0002,-0.00011999999999999999,8e-05,3
10633,11154,2.9999999999999997e-05,2e-05,7e-05,-5.9999999999999995e-05,-0.00016,-0.0002,-0.00011999999999999999,8e-05,3
10634,11155,2.9999999999999997e-05,2e-05,7e-05,-5.9999999999999995e-05,-0.00016,-0.0002,-0.00011999999999999999,8e-05,3
10635,11156,2.9999999999999997e-05,2e-05,7e-05,-5.9999999999999995e-05,-0.00016,-0.0002,-0.00011999999999999999,8e-05,3
10636,11157,2.9999999999999997e-05,2e-05,7e-05,-5.9999999999999995e-05,-0.00016,-0.0002,-0.00011999999999999999,8e-05,3
10637,11158,2.9999999999999997e-05,2e-05,7e-05,-5.9999999999999995e-05,-0.00016,-0.0002,-0.00011999999999999999,8e-05,3
10638,11159,2.9999999999999997e-05,2e-05,7e-05,-5.9999999999999995e-05,-0.00016,-0.0002,-0.00011999999999999999,8e-05,3
10639,11160,2.9999999999999997e-05,2e-05,7e-05,-5.9999999999999995e-05,-0.00016,-0.0002,-0.00011999999999999999,8e-05,3
10640,11161,2.9999999999999997e-05,2e-05,7e-05,-5.9999999999999995e-05,-0.00016,-0.0002,-0.00011999999999999999,8e-05,3
10641,11162,2.9999999999999997e-05,2e-05,7e-05,-5.9999999999999995e-05,-0.00016,-0.0002,-0.00011999999999999999,8e-05,3
10642,11163,2.9999999999999997e-05,2e-05,7e-05,-5.9999999999999995e-05,-0.00016,-0.0002,-0.00011999999999999999,8e-05,3
10643,11164,2.9999999999999997e-05,2e-05,7e-05,-5.9999999999999995e-05,-0.00016,-0.0002,-0.00011999999999999999,8e-05,3
10644,11165,2.9999999999999997e-05,2e-05,7e-05,-5.9999999999999995e-05,-0.00016,-0.0002,-0.00011999999999999999,8e-05,3
10645,11166,2.9999999999999997e-05,2e-05,7e-05,-5.9999999999999995e-05,-0.00016,-0.0002,-0.00011999999999999999,8e-05,3
10646,11167,2.9999999999999997e-05,2e-05,7e-05,-5.9999999999999995e-05,-0.00016,-0.0002,-0.00011999999999999999,8e-05,3
10647,11168,2.9999999999999997e-05,2e-05,7e-05,-5.9999999999999995e-05,-0.00016,-0.0002,-0.00011999999999999999,8e-05,3
10648,11169,-0.00022999999999999998,-0.00021,-1e-05,2.9999999999999997e-05,8e-05,0.0,-5e-05,-0.00022,3
10649,11170,4e-05,-5e-05,-5.9999999999999995e-05,-4e-05,-4e-05,2e-05,-9e-05,0.00021,3
10650,11171,4e-05,-5e-05,-5.9999999999999995e-05,-4e-05,-4e-05,2e-05,-9e-05,0.00021,3
10651,11172,4e-05,-5e-05,-5.9999999999999995e-05,-4e-05,-4e-05,2e-05,-9e-05,0.00021,3
10652,11173,4e-05,-5e-05,-5.9999999999999995e-05,-4e-05,-4e-05,2e-05,-9e-05,0.00021,3
10653,11174,4e-05,-5e-05,-5.9999999999999995e-05,-4e-05,-4e-05,2e-05,-9e-05,0.00021,3
10654,11175,7e-05,0.00042,4e-05,0.00016999999999999999,0.00041,8e-05,0.00018,0.00013000000000000002,3
10655,11176,2e-05,0.0002,1e-05,2e-05,8e-05,2e-05,-2.9999999999999997e-05,-4e-05,3
10656,11177,2e-05,0.0002,1e-05,2e-05,8e-05,2e-05,-2.9999999999999997e-05,-4e-05,3
10657,11178,2e-05,0.0002,1e-05,2e-05,8e-05,2e-05,-2.9999999999999997e-05,-4e-05,3
10658,11179,2e-05,0.0002,1e-05,2e-05,8e-05,2e-05,-2.9999999999999997e-05,-4e-05,3
10659,11180,2e-05,0.0002,1e-05,2e-05,8e-05,2e-05,-2.9999999999999997e-05,-4e-05,3
10660,11181,2e-05,0.0002,1e-05,2e-05,8e-05,2e-05,-2.9999999999999997e-05,-4e-05,3
10661,11182,2e-05,0.0002,1e-05,2e-05,8e-05,2e-05,-2.9999999999999997e-05,-4e-05,3
10662,11183,2e-05,0.0002,1e-05,2e-05,8e-05,2e-05,-2.9999999999999997e-05,-4e-05,3
10663,11184,2e-05,0.0002,1e-05,2e-05,8e-05,2e-05,-2.9999999999999997e-05,-4e-05,3
10664,11185,2e-05,0.0002,1e-05,2e-05,8e-05,2e-05,-2.9999999999999997e-05,-4e-05,3
10665,11186,2e-05,0.0002,1e-05,2e-05,8e-05,2e-05,-2.9999999999999997e-05,-4e-05,3
10666,11189,0.00059,0.0006799999999999999,0.00018999999999999998,7e-05,-7e-05,-1e-05,5.9999999999999995e-05,0.00025,3
10667,11190,0.00059,0.0006799999999999999,0.00018999999999999998,7e-05,-7e-05,-1e-05,5.9999999999999995e-05,0.00025,3
10668,11191,0.00059,0.0006799999999999999,0.00018999999999999998,7e-05,-7e-05,-1e-05,5.9999999999999995e-05,0.00025,3
10669,11192,0.00059,0.0006799999999999999,0.00018999999999999998,7e-05,-7e-05,-1e-05,5.9999999999999995e-05,0.00025,3
10670,11193,0.00059,0.0006799999999999999,0.00018999999999999998,7e-05,-7e-05,-1e-05,5.9999999999999995e-05,0.00025,3
10671,11194,0.00059,0.0006799999999999999,0.00018999999999999998,7e-05,-7e-05,-1e-05,5.9999999999999995e-05,0.00025,3
10672,11195,0.00059,0.0006799999999999999,0.00018999999999999998,7e-05,-7e-05,-1e-05,5.9999999999999995e-05,0.00025,3
10673,11196,0.00059,0.0006799999999999999,0.00018999999999999998,7e-05,-7e-05,-1e-05,5.9999999999999995e-05,0.00025,3
10674,11197,0.00059,0.0006799999999999999,0.00018999999999999998,7e-05,-7e-05,-1e-05,5.9999999999999995e-05,0.00025,3
10675,11198,0.00059,0.0006799999999999999,0.00018999999999999998,7e-05,-7e-05,-1e-05,5.9999999999999995e-05,0.00025,3
10676,11199,0.00059,0.0006799999999999999,0.00018999999999999998,7e-05,-7e-05,-1e-05,5.9999999999999995e-05,0.00025,3
10677,11200,0.00059,0.0006799999999999999,0.00018999999999999998,7e-05,-7e-05,-1e-05,5.9999999999999995e-05,0.00025,3
10678,11201,0.00059,0.0006799999999999999,0.00018999999999999998,7e-05,-7e-05,-1e-05,5.9999999999999995e-05,0.00025,3
10679,11202,0.00059,0.0006799999999999999,0.00018999999999999998,7e-05,-7e-05,-1e-05,5.9999999999999995e-05,0.00025,3
10680,11203,0.00059,0.0006799999999999999,0.00018999999999999998,7e-05,-7e-05,-1e-05,5.9999999999999995e-05,0.00025,3
10681,11204,0.00059,0.0006799999999999999,0.00018999999999999998,7e-05,-7e-05,-1e-05,5.9999999999999995e-05,0.00025,3
10682,11205,0.00059,0.0006799999999999999,0.00018999999999999998,7e-05,-7e-05,-1e-05,5.9999999999999995e-05,0.00025,3
10683,11206,0.00059,0.0006799999999999999,0.00018999999999999998,7e-05,-7e-05,-1e-05,5.9999999999999995e-05,0.00025,3
10684,11207,0.00059,0.0006799999999999999,0.00018999999999999998,7e-05,-7e-05,-1e-05,5.9999999999999995e-05,0.00025,3
10685,11208,0.00059,0.0006799999999999999,0.00018999999999999998,7e-05,-7e-05,-1e-05,5.9999999999999995e-05,0.00025,3
10686,11209,0.00059,0.0006799999999999999,0.00018999999999999998,7e-05,-7e-05,-1e-05,5.9999999999999995e-05,0.00025,3
10687,11210,0.00059,0.0006799999999999999,0.00018999999999999998,7e-05,-7e-05,-1e-05,5.9999999999999995e-05,0.00025,3
10688,11211,0.00059,0.0006799999999999999,0.00018999999999999998,7e-05,-7e-05,-1e-05,5.9999999999999995e-05,0.00025,3
10689,11212,0.00059,0.0006799999999999999,0.00018999999999999998,7e-05,-7e-05,-1e-05,5.9999999999999995e-05,0.00025,3
10690,11213,2e-05,-2.9999999999999997e-05,-8e-05,2.9999999999999997e-05,0.0003,0.00011,8e-05,-0.00014,3
10691,11214,2e-05,-2.9999999999999997e-05,-8e-05,2.9999999999999997e-05,0.0003,0.00011,8e-05,-0.00014,3
10692,11215,4e-05,0.0,2.9999999999999997e-05,-5.9999999999999995e-05,-0.00025,-0.00015,-0.00021,-0.00027,3
10693,11216,-0.0008699999999999999,-0.0011300000000000001,-0.00027,1e-05,2e-05,0.00011999999999999999,-4e-05,-0.00027,3
10694,11217,-0.0008699999999999999,-0.0011300000000000001,-0.00027,1e-05,2e-05,0.00011999999999999999,-4e-05,-0.00027,3
10695,11218,-0.0008699999999999999,-0.0011300000000000001,-0.00027,1e-05,2e-05,0.00011999999999999999,-4e-05,-0.00027,3
10696,11219,-0.0008699999999999999,-0.0011300000000000001,-0.00027,1e-05,2e-05,0.00011999999999999999,-4e-05,-0.00027,3
10697,11220,-0.0008699999999999999,-0.0011300000000000001,-0.00027,1e-05,2e-05,0.00011999999999999999,-4e-05,-0.00027,3
10698,11221,-0.0008699999999999999,-0.0011300000000000001,-0.00027,1e-05,2e-05,0.00011999999999999999,-4e-05,-0.00027,3
10699,11222,-0.0008699999999999999,-0.0011300000000000001,-0.00027,1e-05,2e-05,0.00011999999999999999,-4e-05,-0.00027,3
10700,11223,-0.0008699999999999999,-0.0011300000000000001,-0.00027,1e-05,2e-05,0.00011999999999999999,-4e-05,-0.00027,3
10701,11224,-0.0008699999999999999,-0.0011300000000000001,-0.00027,1e-05,2e-05,0.00011999999999999999,-4e-05,-0.00027,3
10702,11225,-0.0008699999999999999,-0.0011300000000000001,-0.00027,1e-05,2e-05,0.00011999999999999999,-4e-05,-0.00027,3
10703,11226,-0.0008699999999999999,-0.0011300000000000001,-0.00027,1e-05,2e-05,0.00011999999999999999,-4e-05,-0.00027,3
10704,11227,-0.0008699999999999999,-0.0011300000000000001,-0.00027,1e-05,2e-05,0.00011999999999999999,-4e-05,-0.00027,3
10705,11228,-0.0008699999999999999,-0.0011300000000000001,-0.00027,1e-05,2e-05,0.00011999999999999999,-4e-05,-0.00027,3
10706,11229,-0.0008699999999999999,-0.0011300000000000001,-0.00027,1e-05,2e-05,0.00011999999999999999,-4e-05,-0.00027,3
10707,11230,-0.0008699999999999999,-0.0011300000000000001,-0.00027,1e-05,2e-05,0.00011999999999999999,-4e-05,-0.00027,3
10708,11231,-0.0008699999999999999,-0.0011300000000000001,-0.00027,1e-05,2e-05,0.00011999999999999999,-4e-05,-0.00027,3
10709,11232,-0.0008699999999999999,-0.0011300000000000001,-0.00027,1e-05,2e-05,0.00011999999999999999,-4e-05,-0.00027,3
10710,11233,-0.0008699999999999999,-0.0011300000000000001,-0.00027,1e-05,2e-05,0.00011999999999999999,-4e-05,-0.00027,3
10711,11234,-0.0008699999999999999,-0.0011300000000000001,-0.00027,1e-05,2e-05,0.00011999999999999999,-4e-05,-0.00027,3
10712,11235,-0.0008699999999999999,-0.0011300000000000001,-0.00027,1e-05,2e-05,0.00011999999999999999,-4e-05,-0.00027,3
10713,11236,-0.00014,5.9999999999999995e-05,-1e-05,-9e-05,-0.0001,-4e-05,-4e-05,-2.9999999999999997e-05,3
10714,11238,0.0003,0.00023999999999999998,2e-05,-4e-05,-0.0001,-0.0001,-4e-05,0.00021,3
10715,11239,0.0003,0.00023999999999999998,2e-05,-4e-05,-0.0001,-0.0001,-4e-05,0.00021,3
10716,11240,0.0003,0.00023999999999999998,2e-05,-4e-05,-0.0001,-0.0001,-4e-05,0.00021,3
10717,11241,0.0003,0.00023999999999999998,2e-05,-4e-05,-0.0001,-0.0001,-4e-05,0.00021,3
10718,11242,0.0003,0.00023999999999999998,2e-05,-4e-05,-0.0001,-0.0001,-4e-05,0.00021,3
10719,11243,0.0003,0.00023999999999999998,2e-05,-4e-05,-0.0001,-0.0001,-4e-05,0.00021,3
10720,11244,0.0003,0.00023999999999999998,2e-05,-4e-05,-0.0001,-0.0001,-4e-05,0.00021,3
10721,11245,0.0003,0.00023999999999999998,2e-05,-4e-05,-0.0001,-0.0001,-4e-05,0.00021,3
10722,11246,0.0003,0.00023999999999999998,2e-05,-4e-05,-0.0001,-0.0001,-4e-05,0.00021,3
10723,11247,0.0003,0.00023999999999999998,2e-05,-4e-05,-0.0001,-0.0001,-4e-05,0.00021,3
10724,11248,0.0003,0.00023999999999999998,2e-05,-4e-05,-0.0001,-0.0001,-4e-05,0.00021,3
10725,11249,-0.00025,-0.00057,-2e-05,1e-05,0.0001,0.00014,8e-05,-5e-05,3
10726,11250,-0.00025,-0.00057,-2e-05,1e-05,0.0001,0.00014,8e-05,-5e-05,3
10727,11251,-0.00025,-0.00057,-2e-05,1e-05,0.0001,0.00014,8e-05,-5e-05,3
10728,11252,-0.00025,-0.00057,-2e-05,1e-05,0.0001,0.00014,8e-05,-5e-05,3
10729,11253,-0.00025,-0.00057,-2e-05,1e-05,0.0001,0.00014,8e-05,-5e-05,3
10730,11254,-0.00025,-0.00057,-2e-05,1e-05,0.0001,0.00014,8e-05,-5e-05,3
10731,11255,-0.00025,-0.00057,-2e-05,1e-05,0.0001,0.00014,8e-05,-5e-05,3
10732,11256,-0.00025,-0.00057,-2e-05,1e-05,0.0001,0.00014,8e-05,-5e-05,3
10733,11257,-0.00025,-0.00057,-2e-05,1e-05,0.0001,0.00014,8e-05,-5e-05,3
10734,11258,-0.00025,-0.00057,-2e-05,1e-05,0.0001,0.00014,8e-05,-5e-05,3
10735,11259,-0.00025,-0.00057,-2e-05,1e-05,0.0001,0.00014,8e-05,-5e-05,3
10736,11260,0.00049,0.00065,0.00013000000000000002,2.9999999999999997e-05,-5e-05,-4e-05,5.9999999999999995e-05,4e-05,3
10737,11261,0.00049,0.00065,0.00013000000000000002,2.9999999999999997e-05,-5e-05,-4e-05,5.9999999999999995e-05,4e-05,3
10738,11262,0.00049,0.00065,0.00013000000000000002,2.9999999999999997e-05,-5e-05,-4e-05,5.9999999999999995e-05,4e-05,3
10739,11263,0.00049,0.00065,0.00013000000000000002,2.9999999999999997e-05,-5e-05,-4e-05,5.9999999999999995e-05,4e-05,3
10740,11264,0.00049,0.00065,0.00013000000000000002,2.9999999999999997e-05,-5e-05,-4e-05,5.9999999999999995e-05,4e-05,3
10741,11265,0.00049,0.00065,0.00013000000000000002,2.9999999999999997e-05,-5e-05,-4e-05,5.9999999999999995e-05,4e-05,3
10742,11266,0.00049,0.00065,0.00013000000000000002,2.9999999999999997e-05,-5e-05,-4e-05,5.9999999999999995e-05,4e-05,3
10743,11267,0.00049,0.00065,0.00013000000000000002,2.9999999999999997e-05,-5e-05,-4e-05,5.9999999999999995e-05,4e-05,3
10744,11268,0.00049,0.00065,0.00013000000000000002,2.9999999999999997e-05,-5e-05,-4e-05,5.9999999999999995e-05,4e-05,3
10745,11269,0.00049,0.00065,0.00013000000000000002,2.9999999999999997e-05,-5e-05,-4e-05,5.9999999999999995e-05,4e-05,3
10746,11270,0.00049,0.00065,0.00013000000000000002,2.9999999999999997e-05,-5e-05,-4e-05,5.9999999999999995e-05,4e-05,3
10747,11271,0.00049,0.00065,0.00013000000000000002,2.9999999999999997e-05,-5e-05,-4e-05,5.9999999999999995e-05,4e-05,3
10748,11272,0.00049,0.00065,0.00013000000000000002,2.9999999999999997e-05,-5e-05,-4e-05,5.9999999999999995e-05,4e-05,3
10749,11274,0.00049,0.00065,0.00013000000000000002,2.9999999999999997e-05,-5e-05,-4e-05,5.9999999999999995e-05,4e-05,3
10750,11275,0.00049,0.00065,0.00013000000000000002,2.9999999999999997e-05,-5e-05,-4e-05,5.9999999999999995e-05,4e-05,3
10751,11276,0.00049,0.00065,0.00013000000000000002,2.9999999999999997e-05,-5e-05,-4e-05,5.9999999999999995e-05,4e-05,3
10752,11277,0.00049,0.00065,0.00013000000000000002,2.9999999999999997e-05,-5e-05,-4e-05,5.9999999999999995e-05,4e-05,3
10753,11278,0.00049,0.00065,0.00013000000000000002,2.9999999999999997e-05,-5e-05,-4e-05,5.9999999999999995e-05,4e-05,3
10754,11279,0.00049,0.00065,0.00013000000000000002,2.9999999999999997e-05,-5e-05,-4e-05,5.9999999999999995e-05,4e-05,3
10755,11280,-7e-05,-0.00011999999999999999,-4e-05,-1e-05,2e-05,-7e-05,5e-05,0.00028,3
10756,11281,-0.00011999999999999999,-0.0001,-5.9999999999999995e-05,-0.00011,-0.00029,-0.00018,-0.00015,-0.00015,3
10757,11282,-0.00011999999999999999,-0.0001,-5.9999999999999995e-05,-0.00011,-0.00029,-0.00018,-0.00015,-0.00015,3
10758,11283,-0.00011999999999999999,-0.0001,-5.9999999999999995e-05,-0.00011,-0.00029,-0.00018,-0.00015,-0.00015,3
10759,11284,-0.00011999999999999999,-0.0001,-5.9999999999999995e-05,-0.00011,-0.00029,-0.00018,-0.00015,-0.00015,3
10760,11285,-0.00011999999999999999,-0.0001,-5.9999999999999995e-05,-0.00011,-0.00029,-0.00018,-0.00015,-0.00015,3
10761,11286,-0.00011999999999999999,-0.0001,-5.9999999999999995e-05,-0.00011,-0.00029,-0.00018,-0.00015,-0.00015,3
10762,11288,-0.00011999999999999999,-0.0001,-5.9999999999999995e-05,-0.00011,-0.00029,-0.00018,-0.00015,-0.00015,3
10763,11289,-0.00011999999999999999,-0.0001,-5.9999999999999995e-05,-0.00011,-0.00029,-0.00018,-0.00015,-0.00015,3
10764,11290,-0.00011999999999999999,-0.0001,-5.9999999999999995e-05,-0.00011,-0.00029,-0.00018,-0.00015,-0.00015,3
10765,11291,-0.00011999999999999999,-0.0001,-5.9999999999999995e-05,-0.00011,-0.00029,-0.00018,-0.00015,-0.00015,3
10766,11292,-0.00011999999999999999,-0.0001,-5.9999999999999995e-05,-0.00011,-0.00029,-0.00018,-0.00015,-0.00015,3
10767,11293,-0.00011999999999999999,-0.0001,-5.9999999999999995e-05,-0.00011,-0.00029,-0.00018,-0.00015,-0.00015,3
10768,11294,-0.00011999999999999999,-0.0001,-5.9999999999999995e-05,-0.00011,-0.00029,-0.00018,-0.00015,-0.00015,3
10769,11295,-0.00011999999999999999,-0.0001,-5.9999999999999995e-05,-0.00011,-0.00029,-0.00018,-0.00015,-0.00015,3
10770,11296,-0.00035,-0.00022999999999999998,0.0,4e-05,9e-05,2.9999999999999997e-05,9e-05,-2.9999999999999997e-05,3
10771,11297,-8e-05,-0.00016999999999999999,-5e-05,-2.9999999999999997e-05,-9e-05,2e-05,8e-05,-5e-05,3
10772,11298,-8e-05,-0.00016999999999999999,-5e-05,-2.9999999999999997e-05,-9e-05,2e-05,8e-05,-5e-05,3
10773,11299,-8e-05,-0.00016999999999999999,-5e-05,-2.9999999999999997e-05,-9e-05,2e-05,8e-05,-5e-05,3
10774,11300,-8e-05,-0.00016999999999999999,-5e-05,-2.9999999999999997e-05,-9e-05,2e-05,8e-05,-5e-05,3
10775,11301,-8e-05,-0.00016999999999999999,-5e-05,-2.9999999999999997e-05,-9e-05,2e-05,8e-05,-5e-05,3
10776,11302,-8e-05,-0.00016999999999999999,-5e-05,-2.9999999999999997e-05,-9e-05,2e-05,8e-05,-5e-05,3
10777,11303,-8e-05,-0.00016999999999999999,-5e-05,-2.9999999999999997e-05,-9e-05,2e-05,8e-05,-5e-05,3
10778,11304,-8e-05,-0.00016999999999999999,-5e-05,-2.9999999999999997e-05,-9e-05,2e-05,8e-05,-5e-05,3
10779,11305,-8e-05,-0.00016999999999999999,-5e-05,-2.9999999999999997e-05,-9e-05,2e-05,8e-05,-5e-05,3
10780,11306,-8e-05,-0.00016999999999999999,-5e-05,-2.9999999999999997e-05,-9e-05,2e-05,8e-05,-5e-05,3
10781,11307,-8e-05,-0.00016999999999999999,-5e-05,-2.9999999999999997e-05,-9e-05,2e-05,8e-05,-5e-05,3
10782,11308,-8e-05,-0.00016999999999999999,-5e-05,-2.9999999999999997e-05,-9e-05,2e-05,8e-05,-5e-05,3
10783,11309,-8e-05,-0.00016999999999999999,-5e-05,-2.9999999999999997e-05,-9e-05,2e-05,8e-05,-5e-05,3
10784,11310,-8e-05,-0.00016999999999999999,-5e-05,-2.9999999999999997e-05,-9e-05,2e-05,8e-05,-5e-05,3
10785,11311,-8e-05,-0.00016999999999999999,-5e-05,-2.9999999999999997e-05,-9e-05,2e-05,8e-05,-5e-05,3
10786,11312,-8e-05,-0.00016999999999999999,-5e-05,-2.9999999999999997e-05,-9e-05,2e-05,8e-05,-5e-05,3
10787,11313,-8e-05,-0.00016999999999999999,-5e-05,-2.9999999999999997e-05,-9e-05,2e-05,8e-05,-5e-05,3
10788,11314,-8e-05,-0.00016999999999999999,-5e-05,-2.9999999999999997e-05,-9e-05,2e-05,8e-05,-5e-05,3
10789,11315,-8e-05,-0.00016999999999999999,-5e-05,-2.9999999999999997e-05,-9e-05,2e-05,8e-05,-5e-05,3
10790,11316,-8e-05,-0.00016999999999999999,-5e-05,-2.9999999999999997e-05,-9e-05,2e-05,8e-05,-5e-05,3
10791,11317,-8e-05,-0.00016999999999999999,-5e-05,-2.9999999999999997e-05,-9e-05,2e-05,8e-05,-5e-05,3
10792,11318,-8e-05,-0.00016999999999999999,-5e-05,-2.9999999999999997e-05,-9e-05,2e-05,8e-05,-5e-05,3
10793,11319,-4e-05,-0.0001,1e-05,2e-05,5e-05,2.9999999999999997e-05,2.9999999999999997e-05,8e-05,3
10794,11320,-4e-05,-0.0001,1e-05,2e-05,5e-05,2.9999999999999997e-05,2.9999999999999997e-05,8e-05,3
10795,11321,-4e-05,-0.0001,1e-05,2e-05,5e-05,2.9999999999999997e-05,2.9999999999999997e-05,8e-05,3
10796,11322,-4e-05,-0.0001,1e-05,2e-05,5e-05,2.9999999999999997e-05,2.9999999999999997e-05,8e-05,3
10797,11323,-4e-05,-0.0001,1e-05,2e-05,5e-05,2.9999999999999997e-05,2.9999999999999997e-05,8e-05,3
10798,11324,-4e-05,-0.0001,1e-05,2e-05,5e-05,2.9999999999999997e-05,2.9999999999999997e-05,8e-05,3
10799,11325,-4e-05,-0.0001,1e-05,2e-05,5e-05,2.9999999999999997e-05,2.9999999999999997e-05,8e-05,3
10800,11326,-4e-05,-0.0001,1e-05,2e-05,5e-05,2.9999999999999997e-05,2.9999999999999997e-05,8e-05,3
10801,11327,-4e-05,-0.0001,1e-05,2e-05,5e-05,2.9999999999999997e-05,2.9999999999999997e-05,8e-05,3
10802,11328,-4e-05,-0.0001,1e-05,2e-05,5e-05,2.9999999999999997e-05,2.9999999999999997e-05,8e-05,3
10803,11329,-4e-05,-0.0001,1e-05,2e-05,5e-05,2.9999999999999997e-05,2.9999999999999997e-05,8e-05,3
10804,11330,-4e-05,-0.0001,1e-05,2e-05,5e-05,2.9999999999999997e-05,2.9999999999999997e-05,8e-05,3
10805,11331,-4e-05,-0.0001,1e-05,2e-05,5e-05,2.9999999999999997e-05,2.9999999999999997e-05,8e-05,3
10806,11332,-4e-05,-0.0001,1e-05,2e-05,5e-05,2.9999999999999997e-05,2.9999999999999997e-05,8e-05,3
10807,11333,-0.00015,-0.00018,1e-05,-5e-05,-7e-05,-2.9999999999999997e-05,-8e-05,-2.9999999999999997e-05,3
10808,11334,9e-05,0.00022,5e-05,5.9999999999999995e-05,0.00015,9e-05,2e-05,-0.0001,3
10809,11335,9e-05,0.00022,5e-05,5.9999999999999995e-05,0.00015,9e-05,2e-05,-0.0001,3
10810,11336,9e-05,0.00022,5e-05,5.9999999999999995e-05,0.00015,9e-05,2e-05,-0.0001,3
10811,11340,9e-05,0.00022,5e-05,5.9999999999999995e-05,0.00015,9e-05,2e-05,-0.0001,3
10812,11341,9e-05,0.00022,5e-05,5.9999999999999995e-05,0.00015,9e-05,2e-05,-0.0001,3
10813,11342,9e-05,0.00022,5e-05,5.9999999999999995e-05,0.00015,9e-05,2e-05,-0.0001,3
10814,11343,9e-05,0.00022,5e-05,5.9999999999999995e-05,0.00015,9e-05,2e-05,-0.0001,3
10815,11344,9e-05,0.00022,5e-05,5.9999999999999995e-05,0.00015,9e-05,2e-05,-0.0001,3
10816,11345,9e-05,0.00022,5e-05,5.9999999999999995e-05,0.00015,9e-05,2e-05,-0.0001,3
10817,11346,9e-05,0.00022,5e-05,5.9999999999999995e-05,0.00015,9e-05,2e-05,-0.0001,3
10818,11347,9e-05,0.00022,5e-05,5.9999999999999995e-05,0.00015,9e-05,2e-05,-0.0001,3
10819,11348,9e-05,0.00022,5e-05,5.9999999999999995e-05,0.00015,9e-05,2e-05,-0.0001,3
10820,11349,9e-05,0.00022,5e-05,5.9999999999999995e-05,0.00015,9e-05,2e-05,-0.0001,3
10821,11350,9e-05,0.00022,5e-05,5.9999999999999995e-05,0.00015,9e-05,2e-05,-0.0001,3
10822,11351,9e-05,0.00022,5e-05,5.9999999999999995e-05,0.00015,9e-05,2e-05,-0.0001,3
10823,11352,9e-05,0.00022,5e-05,5.9999999999999995e-05,0.00015,9e-05,2e-05,-0.0001,3
10824,11353,9e-05,0.00022,5e-05,5.9999999999999995e-05,0.00015,9e-05,2e-05,-0.0001,3
10825,11354,9e-05,0.00022,5e-05,5.9999999999999995e-05,0.00015,9e-05,2e-05,-0.0001,3
10826,11355,9e-05,0.00022,5e-05,5.9999999999999995e-05,0.00015,9e-05,2e-05,-0.0001,3
10827,11356,0.0,-0.00011,0.0,0.0,0.0,0.0,-1e-05,-0.00014,3
10828,11357,9e-05,0.00018,5e-05,2.9999999999999997e-05,7e-05,5e-05,2e-05,1e-05,3
10829,11358,9e-05,0.00018,5e-05,2.9999999999999997e-05,7e-05,5e-05,2e-05,1e-05,3
10830,11359,9e-05,0.00018,5e-05,2.9999999999999997e-05,7e-05,5e-05,2e-05,1e-05,3
10831,11360,9e-05,0.00018,5e-05,2.9999999999999997e-05,7e-05,5e-05,2e-05,1e-05,3
10832,11361,9e-05,0.00018,5e-05,2.9999999999999997e-05,7e-05,5e-05,2e-05,1e-05,3
10833,11362,9e-05,0.00018,5e-05,2.9999999999999997e-05,7e-05,5e-05,2e-05,1e-05,3
10834,11363,9e-05,0.00018,5e-05,2.9999999999999997e-05,7e-05,5e-05,2e-05,1e-05,3
10835,11364,9e-05,0.00018,5e-05,2.9999999999999997e-05,7e-05,5e-05,2e-05,1e-05,3
10836,11365,9e-05,0.00018,5e-05,2.9999999999999997e-05,7e-05,5e-05,2e-05,1e-05,3
10837,11366,9e-05,0.00018,5e-05,2.9999999999999997e-05,7e-05,5e-05,2e-05,1e-05,3
10838,11367,9e-05,0.00018,5e-05,2.9999999999999997e-05,7e-05,5e-05,2e-05,1e-05,3
10839,11368,9e-05,0.00018,5e-05,2.9999999999999997e-05,7e-05,5e-05,2e-05,1e-05,3
10840,11369,9e-05,0.00018,5e-05,2.9999999999999997e-05,7e-05,5e-05,2e-05,1e-05,3
10841,11370,9e-05,0.00018,5e-05,2.9999999999999997e-05,7e-05,5e-05,2e-05,1e-05,3
10842,11371,9e-05,0.00018,5e-05,2.9999999999999997e-05,7e-05,5e-05,2e-05,1e-05,3
10843,11372,9e-05,0.00018,5e-05,2.9999999999999997e-05,7e-05,5e-05,2e-05,1e-05,3
10844,11373,9e-05,0.00018,5e-05,2.9999999999999997e-05,7e-05,5e-05,2e-05,1e-05,3
10845,11374,9e-05,0.00018,5e-05,2.9999999999999997e-05,7e-05,5e-05,2e-05,1e-05,3
10846,11375,9e-05,0.00018,5e-05,2.9999999999999997e-05,7e-05,5e-05,2e-05,1e-05,3
10847,11376,9e-05,0.00018,5e-05,2.9999999999999997e-05,7e-05,5e-05,2e-05,1e-05,3
10848,11377,9e-05,0.00018,5e-05,2.9999999999999997e-05,7e-05,5e-05,2e-05,1e-05,3
10849,11378,-0.00011999999999999999,0.00033,0.00013000000000000002,7e-05,8e-05,0.00011,5.9999999999999995e-05,9e-05,3
10850,11379,-0.00025,-0.00018,1e-05,2e-05,5.9999999999999995e-05,2e-05,-2e-05,-8e-05,3
10851,11380,-0.00025,-0.00018,1e-05,2e-05,5.9999999999999995e-05,2e-05,-2e-05,-8e-05,3
10852,11381,-0.00025,-0.00018,1e-05,2e-05,5.9999999999999995e-05,2e-05,-2e-05,-8e-05,3
10853,11382,-0.00025,-0.00018,1e-05,2e-05,5.9999999999999995e-05,2e-05,-2e-05,-8e-05,3
10854,11383,-0.00025,-0.00018,1e-05,2e-05,5.9999999999999995e-05,2e-05,-2e-05,-8e-05,3
10855,11384,-0.00025,-0.00018,1e-05,2e-05,5.9999999999999995e-05,2e-05,-2e-05,-8e-05,3
10856,11385,-0.00025,-0.00018,1e-05,2e-05,5.9999999999999995e-05,2e-05,-2e-05,-8e-05,3
10857,11386,-0.00025,-0.00018,1e-05,2e-05,5.9999999999999995e-05,2e-05,-2e-05,-8e-05,3
10858,11388,-0.00025,-0.00018,1e-05,2e-05,5.9999999999999995e-05,2e-05,-2e-05,-8e-05,3
10859,11389,-0.00025,-0.00018,1e-05,2e-05,5.9999999999999995e-05,2e-05,-2e-05,-8e-05,3
10860,11390,-0.00025,-0.00018,1e-05,2e-05,5.9999999999999995e-05,2e-05,-2e-05,-8e-05,3
10861,11391,-0.00025,-0.00018,1e-05,2e-05,5.9999999999999995e-05,2e-05,-2e-05,-8e-05,3
10862,11392,-1e-05,-0.00016999999999999999,-8e-05,-5e-05,2e-05,-2e-05,7e-05,9e-05,3
10863,11393,0.00016,0.00039,-1e-05,-1e-05,-4e-05,-0.00013000000000000002,-2e-05,-0.00013000000000000002,3
10864,11394,0.00016,0.00039,-1e-05,-1e-05,-4e-05,-0.00013000000000000002,-2e-05,-0.00013000000000000002,3
10865,11395,0.00016,0.00039,-1e-05,-1e-05,-4e-05,-0.00013000000000000002,-2e-05,-0.00013000000000000002,3
10866,11396,0.00016,0.00039,-1e-05,-1e-05,-4e-05,-0.00013000000000000002,-2e-05,-0.00013000000000000002,3
10867,11397,0.00016,0.00039,-1e-05,-1e-05,-4e-05,-0.00013000000000000002,-2e-05,-0.00013000000000000002,3
10868,11398,0.00016,0.00039,-1e-05,-1e-05,-4e-05,-0.00013000000000000002,-2e-05,-0.00013000000000000002,3
10869,11399,0.00016,0.00039,-1e-05,-1e-05,-4e-05,-0.00013000000000000002,-2e-05,-0.00013000000000000002,3
10870,11401,0.00016,0.00039,-1e-05,-1e-05,-4e-05,-0.00013000000000000002,-2e-05,-0.00013000000000000002,3
10871,11402,0.00016,0.00039,-1e-05,-1e-05,-4e-05,-0.00013000000000000002,-2e-05,-0.00013000000000000002,3
10872,11403,0.00016,0.00039,-1e-05,-1e-05,-4e-05,-0.00013000000000000002,-2e-05,-0.00013000000000000002,3
10873,11404,0.00016,0.00039,-1e-05,-1e-05,-4e-05,-0.00013000000000000002,-2e-05,-0.00013000000000000002,3
10874,11405,0.00016,0.00039,-1e-05,-1e-05,-4e-05,-0.00013000000000000002,-2e-05,-0.00013000000000000002,3
10875,11406,0.00016,0.00039,-1e-05,-1e-05,-4e-05,-0.00013000000000000002,-2e-05,-0.00013000000000000002,3
10876,11407,0.00016,0.00039,-1e-05,-1e-05,-4e-05,-0.00013000000000000002,-2e-05,-0.00013000000000000002,3
10877,11408,0.00016,0.00039,-1e-05,-1e-05,-4e-05,-0.00013000000000000002,-2e-05,-0.00013000000000000002,3
10878,11409,0.00016,0.00039,-1e-05,-1e-05,-4e-05,-0.00013000000000000002,-2e-05,-0.00013000000000000002,3
10879,11410,0.00016,0.00039,-1e-05,-1e-05,-4e-05,-0.00013000000000000002,-2e-05,-0.00013000000000000002,3
10880,11411,0.00016,0.00039,-1e-05,-1e-05,-4e-05,-0.00013000000000000002,-2e-05,-0.00013000000000000002,3
10881,11412,0.00016,0.00039,-1e-05,-1e-05,-4e-05,-0.00013000000000000002,-2e-05,-0.00013000000000000002,3
10882,11413,0.00016,0.00039,-1e-05,-1e-05,-4e-05,-0.00013000000000000002,-2e-05,-0.00013000000000000002,3
10883,11414,0.00016,0.00039,-1e-05,-1e-05,-4e-05,-0.00013000000000000002,-2e-05,-0.00013000000000000002,3
10884,11415,0.00016,0.00039,-1e-05,-1e-05,-4e-05,-0.00013000000000000002,-2e-05,-0.00013000000000000002,3
10885,11416,0.00027,0.00014,4e-05,4e-05,2.9999999999999997e-05,8e-05,0.00014,0.00031,3
10886,11417,-0.00018999999999999998,-0.0005,-2e-05,2.9999999999999997e-05,5.9999999999999995e-05,7e-05,-2e-05,5e-05,3
10887,11418,-0.00018999999999999998,-0.0005,-2e-05,2.9999999999999997e-05,5.9999999999999995e-05,7e-05,-2e-05,5e-05,3
10888,11419,-0.00018999999999999998,-0.0005,-2e-05,2.9999999999999997e-05,5.9999999999999995e-05,7e-05,-2e-05,5e-05,3
10889,11420,-0.00018999999999999998,-0.0005,-2e-05,2.9999999999999997e-05,5.9999999999999995e-05,7e-05,-2e-05,5e-05,3
10890,11421,-0.00018999999999999998,-0.0005,-2e-05,2.9999999999999997e-05,5.9999999999999995e-05,7e-05,-2e-05,5e-05,3
10891,11422,-0.00018999999999999998,-0.0005,-2e-05,2.9999999999999997e-05,5.9999999999999995e-05,7e-05,-2e-05,5e-05,3
10892,11423,-0.00018999999999999998,-0.0005,-2e-05,2.9999999999999997e-05,5.9999999999999995e-05,7e-05,-2e-05,5e-05,3
10893,11424,-0.00018999999999999998,-0.0005,-2e-05,2.9999999999999997e-05,5.9999999999999995e-05,7e-05,-2e-05,5e-05,3
10894,11425,-0.00018999999999999998,-0.0005,-2e-05,2.9999999999999997e-05,5.9999999999999995e-05,7e-05,-2e-05,5e-05,3
10895,11426,-0.00018999999999999998,-0.0005,-2e-05,2.9999999999999997e-05,5.9999999999999995e-05,7e-05,-2e-05,5e-05,3
10896,11427,-0.00018999999999999998,-0.0005,-2e-05,2.9999999999999997e-05,5.9999999999999995e-05,7e-05,-2e-05,5e-05,3
10897,11428,-0.00018999999999999998,-0.0005,-2e-05,2.9999999999999997e-05,5.9999999999999995e-05,7e-05,-2e-05,5e-05,3
10898,11429,-0.00018999999999999998,-0.0005,-2e-05,2.9999999999999997e-05,5.9999999999999995e-05,7e-05,-2e-05,5e-05,3
10899,11430,-0.00018999999999999998,-0.0005,-2e-05,2.9999999999999997e-05,5.9999999999999995e-05,7e-05,-2e-05,5e-05,3
10900,11431,-0.00018999999999999998,-0.0005,-2e-05,2.9999999999999997e-05,5.9999999999999995e-05,7e-05,-2e-05,5e-05,3
10901,11432,-0.00018999999999999998,-0.0005,-2e-05,2.9999999999999997e-05,5.9999999999999995e-05,7e-05,-2e-05,5e-05,3
10902,11433,-0.00018999999999999998,-0.0005,-2e-05,2.9999999999999997e-05,5.9999999999999995e-05,7e-05,-2e-05,5e-05,3
10903,11434,-0.00018999999999999998,-0.0005,-2e-05,2.9999999999999997e-05,5.9999999999999995e-05,7e-05,-2e-05,5e-05,3
10904,11435,-0.00018999999999999998,-0.0005,-2e-05,2.9999999999999997e-05,5.9999999999999995e-05,7e-05,-2e-05,5e-05,3
10905,11436,-0.00018999999999999998,-0.0005,-2e-05,2.9999999999999997e-05,5.9999999999999995e-05,7e-05,-2e-05,5e-05,3
10906,11439,7e-05,0.0001,2.9999999999999997e-05,-2e-05,4e-05,1e-05,-5e-05,9e-05,3
10907,11440,7e-05,0.0001,2.9999999999999997e-05,-2e-05,4e-05,1e-05,-5e-05,9e-05,3
10908,11441,7e-05,0.0001,2.9999999999999997e-05,-2e-05,4e-05,1e-05,-5e-05,9e-05,3
10909,11442,7e-05,0.0001,2.9999999999999997e-05,-2e-05,4e-05,1e-05,-5e-05,9e-05,3
10910,11443,7e-05,0.0001,2.9999999999999997e-05,-2e-05,4e-05,1e-05,-5e-05,9e-05,3
10911,11444,7e-05,0.0001,2.9999999999999997e-05,-2e-05,4e-05,1e-05,-5e-05,9e-05,3
10912,11445,7e-05,0.0001,2.9999999999999997e-05,-2e-05,4e-05,1e-05,-5e-05,9e-05,3
10913,11446,7e-05,0.0001,2.9999999999999997e-05,-2e-05,4e-05,1e-05,-5e-05,9e-05,3
10914,11447,7e-05,0.0001,2.9999999999999997e-05,-2e-05,4e-05,1e-05,-5e-05,9e-05,3
10915,11448,7e-05,0.0001,2.9999999999999997e-05,-2e-05,4e-05,1e-05,-5e-05,9e-05,3
10916,11449,7e-05,0.0001,2.9999999999999997e-05,-2e-05,4e-05,1e-05,-5e-05,9e-05,3
10917,11450,7e-05,0.0001,2.9999999999999997e-05,-2e-05,4e-05,1e-05,-5e-05,9e-05,3
10918,11451,7e-05,0.0001,2.9999999999999997e-05,-2e-05,4e-05,1e-05,-5e-05,9e-05,3
10919,11452,7e-05,0.0001,2.9999999999999997e-05,-2e-05,4e-05,1e-05,-5e-05,9e-05,3
10920,11453,7e-05,0.0001,2.9999999999999997e-05,-2e-05,4e-05,1e-05,-5e-05,9e-05,3
10921,11454,7e-05,0.0001,2.9999999999999997e-05,-2e-05,4e-05,1e-05,-5e-05,9e-05,3
10922,11455,-0.00022999999999999998,-0.00022999999999999998,-5.9999999999999995e-05,7e-05,0.00025,0.00011999999999999999,0.0,0.00021,3
10923,11456,-0.00022999999999999998,-0.00022999999999999998,-5.9999999999999995e-05,7e-05,0.00025,0.00011999999999999999,0.0,0.00021,3
10924,11457,-0.00022999999999999998,-0.00022999999999999998,-5.9999999999999995e-05,7e-05,0.00025,0.00011999999999999999,0.0,0.00021,3
10925,11458,-0.00022999999999999998,-0.00022999999999999998,-5.9999999999999995e-05,7e-05,0.00025,0.00011999999999999999,0.0,0.00021,3
10926,11459,-0.00022999999999999998,-0.00022999999999999998,-5.9999999999999995e-05,7e-05,0.00025,0.00011999999999999999,0.0,0.00021,3
10927,11460,4e-05,7e-05,7e-05,-1e-05,-2e-05,-1e-05,0.00018,0.00032,3
10928,11461,4e-05,7e-05,7e-05,-1e-05,-2e-05,-1e-05,0.00018,0.00032,3
10929,11462,4e-05,7e-05,7e-05,-1e-05,-2e-05,-1e-05,0.00018,0.00032,3
10930,11463,4e-05,7e-05,7e-05,-1e-05,-2e-05,-1e-05,0.00018,0.00032,3
10931,11464,4e-05,7e-05,7e-05,-1e-05,-2e-05,-1e-05,0.00018,0.00032,3
