,time,channel1,channel2,channel3,channel4,channel5,channel6,channel7,channel8,class
9232,9628,-0.00022,-0.00014,0.00029,2e-05,5e-05,-0.00014,-0.0001,-0.00018,3
9233,9629,-0.00022,-0.00014,0.00029,2e-05,5e-05,-0.00014,-0.0001,-0.00018,3
9234,9630,-0.00022,-0.00014,0.00029,2e-05,5e-05,-0.00014,-0.0001,-0.00018,3
9235,9631,-0.00022,-0.00014,0.00029,2e-05,5e-05,-0.00014,-0.0001,-0.00018,3
9236,9632,-0.00022,-0.00014,0.00029,2e-05,5e-05,-0.00014,-0.0001,-0.00018,3
9237,9633,-0.00022,-0.00014,0.00029,2e-05,5e-05,-0.00014,-0.0001,-0.00018,3
9238,9634,-0.00022,-0.00014,0.00029,2e-05,5e-05,-0.00014,-0.0001,-0.00018,3
9239,9635,-0.00022,-0.00014,0.00029,2e-05,5e-05,-0.00014,-0.0001,-0.00018,3
9240,9636,-0.00022,-0.00014,0.00029,2e-05,5e-05,-0.00014,-0.0001,-0.00018,3
9241,9638,-0.00022,-0.00014,0.00029,2e-05,5e-05,-0.00014,-0.0001,-0.00018,3
9242,9639,-0.00022999999999999998,-0.00011,-0.0002,-9e-05,-2.9999999999999997e-05,0.00011999999999999999,1e-05,-0.00016,3
9243,9640,-1e-05,0.0002,0.00049,1e-05,-0.00027,-0.00014,-0.0001,-7e-05,3
9244,9641,-1e-05,0.0002,0.00049,1e-05,-0.00027,-0.00014,-0.0001,-7e-05,3
9245,9642,-1e-05,0.0002,0.00049,1e-05,-0.00027,-0.00014,-0.0001,-7e-05,3
9246,9643,-1e-05,0.0002,0.00049,1e-05,-0.00027,-0.00014,-0.0001,-7e-05,3
9247,9644,-1e-05,0.0002,0.00049,1e-05,-0.00027,-0.00014,-0.0001,-7e-05,3
9248,9645,-1e-05,0.0002,0.00049,1e-05,-0.00027,-0.00014,-0.0001,-7e-05,3
9249,9646,-1e-05,0.0002,0.00049,1e-05,-0.00027,-0.00014,-0.0001,-7e-05,3
9250,9647,-1e-05,0.0002,0.00049,1e-05,-0.00027,-0.00014,-0.0001,-7e-05,3
9251,9648,-1e-05,0.0002,0.00049,1e-05,-0.00027,-0.00014,-0.0001,-7e-05,3
9252,9649,-1e-05,0.0002,0.00049,1e-05,-0.00027,-0.00014,-0.0001,-7e-05,3
9253,9650,-1e-05,0.0002,0.00049,1e-05,-0.00027,-0.00014,-0.0001,-7e-05,3
9254,9651,-1e-05,0.0002,0.00049,1e-05,-0.00027,-0.00014,-0.0001,-7e-05,3
9255,9652,-1e-05,0.0002,0.00049,1e-05,-0.00027,-0.00014,-0.0001,-7e-05,3
9256,9653,-1e-05,0.0002,0.00049,1e-05,-0.00027,-0.00014,-0.0001,-7e-05,3
9257,9654,-1e-05,0.0002,0.00049,1e-05,-0.00027,-0.00014,-0.0001,-7e-05,3
9258,9655,-1e-05,0.0002,0.00049,1e-05,-0.00027,-0.00014,-0.0001,-7e-05,3
9259,9657,-1e-05,0.0002,0.00049,1e-05,-0.00027,-0.00014,-0.0001,-7e-05,3
9260,9658,-1e-05,0.0002,0.00049,1e-05,-0.00027,-0.00014,-0.0001,-7e-05,3
9261,9659,-1e-05,0.0002,0.00049,1e-05,-0.00027,-0.00014,-0.0001,-7e-05,3
9262,9660,-1e-05,0.0002,0.00049,1e-05,-0.00027,-0.00014,-0.0001,-7e-05,3
9263,9661,0.00037,4e-05,-2e-05,-2.9999999999999997e-05,-5.9999999999999995e-05,-0.00014,-8e-05,0.0001,3
9264,9662,0.00037,4e-05,-2e-05,-2.9999999999999997e-05,-5.9999999999999995e-05,-0.00014,-8e-05,0.0001,3
9265,9663,0.00014,0.00022,-0.00028,0.00016999999999999999,0.00033,-2e-05,0.0001,0.00014,3
9266,9664,0.00014,0.00022,-0.00028,0.00016999999999999999,0.00033,-2e-05,0.0001,0.00014,3
9267,9665,0.00014,0.00022,-0.00028,0.00016999999999999999,0.00033,-2e-05,0.0001,0.00014,3
9268,9666,0.00014,0.00022,-0.00028,0.00016999999999999999,0.00033,-2e-05,0.0001,0.00014,3
9269,9667,0.00014,0.00022,-0.00028,0.00016999999999999999,0.00033,-2e-05,0.0001,0.00014,3
9270,9668,0.00014,0.00022,-0.00028,0.00016999999999999999,0.00033,-2e-05,0.0001,0.00014,3
9271,9669,0.00014,0.00022,-0.00028,0.00016999999999999999,0.00033,-2e-05,0.0001,0.00014,3
9272,9670,0.00014,0.00022,-0.00028,0.00016999999999999999,0.00033,-2e-05,0.0001,0.00014,3
9273,9671,0.00014,0.00022,-0.00028,0.00016999999999999999,0.00033,-2e-05,0.0001,0.00014,3
9274,9672,0.00014,0.00022,-0.00028,0.00016999999999999999,0.00033,-2e-05,0.0001,0.00014,3
9275,9673,0.00014,0.00022,-0.00028,0.00016999999999999999,0.00033,-2e-05,0.0001,0.00014,3
9276,9674,0.00014,0.00022,-0.00028,0.00016999999999999999,0.00033,-2e-05,0.0001,0.00014,3
9277,9675,-0.00016,-7e-05,0.0,5e-05,2.9999999999999997e-05,-0.00018,-0.00016999999999999999,-0.0002,3
9278,9676,-0.00016,-7e-05,0.0,5e-05,2.9999999999999997e-05,-0.00018,-0.00016999999999999999,-0.0002,3
9279,9677,-0.00016,-7e-05,0.0,5e-05,2.9999999999999997e-05,-0.00018,-0.00016999999999999999,-0.0002,3
9280,9678,-0.00016,-7e-05,0.0,5e-05,2.9999999999999997e-05,-0.00018,-0.00016999999999999999,-0.0002,3
9281,9679,-0.00016,-7e-05,0.0,5e-05,2.9999999999999997e-05,-0.00018,-0.00016999999999999999,-0.0002,3
9282,9680,-0.00016,-7e-05,0.0,5e-05,2.9999999999999997e-05,-0.00018,-0.00016999999999999999,-0.0002,3
9283,9681,-0.00016,-7e-05,0.0,5e-05,2.9999999999999997e-05,-0.00018,-0.00016999999999999999,-0.0002,3
9284,9682,-0.00016,-7e-05,0.0,5e-05,2.9999999999999997e-05,-0.00018,-0.00016999999999999999,-0.0002,3
9285,9683,-0.00016,-7e-05,0.0,5e-05,2.9999999999999997e-05,-0.00018,-0.00016999999999999999,-0.0002,3
9286,9684,0.0004,1e-05,-0.00013000000000000002,2.9999999999999997e-05,0.00013000000000000002,0.00014,5e-05,-5.9999999999999995e-05,3
9287,9685,0.0004,1e-05,-0.00013000000000000002,2.9999999999999997e-05,0.00013000000000000002,0.00014,5e-05,-5.9999999999999995e-05,3
9288,9686,0.0004,1e-05,-0.00013000000000000002,2.9999999999999997e-05,0.00013000000000000002,0.00014,5e-05,-5.9999999999999995e-05,3
9289,9688,0.0004,1e-05,-0.00013000000000000002,2.9999999999999997e-05,0.00013000000000000002,0.00014,5e-05,-5.9999999999999995e-05,3
9290,9689,0.0004,1e-05,-0.00013000000000000002,2.9999999999999997e-05,0.00013000000000000002,0.00014,5e-05,-5.9999999999999995e-05,3
9291,9690,0.0004,1e-05,-0.00013000000000000002,2.9999999999999997e-05,0.00013000000000000002,0.00014,5e-05,-5.9999999999999995e-05,3
9292,9691,0.0004,1e-05,-0.00013000000000000002,2.9999999999999997e-05,0.00013000000000000002,0.00014,5e-05,-5.9999999999999995e-05,3
9293,9692,0.0004,1e-05,-0.00013000000000000002,2.9999999999999997e-05,0.00013000000000000002,0.00014,5e-05,-5.9999999999999995e-05,3
9294,9693,0.0004,1e-05,-0.00013000000000000002,2.9999999999999997e-05,0.00013000000000000002,0.00014,5e-05,-5.9999999999999995e-05,3
9295,9694,0.0004,1e-05,-0.00013000000000000002,2.9999999999999997e-05,0.00013000000000000002,0.00014,5e-05,-5.9999999999999995e-05,3
9296,9695,0.0004,1e-05,-0.00013000000000000002,2.9999999999999997e-05,0.00013000000000000002,0.00014,5e-05,-5.9999999999999995e-05,3
9297,9696,0.0004,1e-05,-0.00013000000000000002,2.9999999999999997e-05,0.00013000000000000002,0.00014,5e-05,-5.9999999999999995e-05,3
9298,9697,0.0004,1e-05,-0.00013000000000000002,2.9999999999999997e-05,0.00013000000000000002,0.00014,5e-05,-5.9999999999999995e-05,3
9299,9698,0.0004,1e-05,-0.00013000000000000002,2.9999999999999997e-05,0.00013000000000000002,0.00014,5e-05,-5.9999999999999995e-05,3
9300,9699,7e-05,0.00011999999999999999,-1e-05,-2e-05,-8e-05,-4e-05,5.9999999999999995e-05,5e-05,3
9301,9700,0.00011999999999999999,-0.00013000000000000002,-0.00014,0.00015,0.00016,5e-05,0.00011999999999999999,4e-05,3
9302,9702,0.00011999999999999999,-0.00013000000000000002,-0.00014,0.00015,0.00016,5e-05,0.00011999999999999999,4e-05,3
9303,9703,0.00011999999999999999,-0.00013000000000000002,-0.00014,0.00015,0.00016,5e-05,0.00011999999999999999,4e-05,3
9304,9704,0.00011999999999999999,-0.00013000000000000002,-0.00014,0.00015,0.00016,5e-05,0.00011999999999999999,4e-05,3
9305,9705,0.00011999999999999999,-0.00013000000000000002,-0.00014,0.00015,0.00016,5e-05,0.00011999999999999999,4e-05,3
9306,9706,0.00011999999999999999,-0.00013000000000000002,-0.00014,0.00015,0.00016,5e-05,0.00011999999999999999,4e-05,3
9307,9707,0.00011999999999999999,-0.00013000000000000002,-0.00014,0.00015,0.00016,5e-05,0.00011999999999999999,4e-05,3
9308,9708,0.00011999999999999999,-0.00013000000000000002,-0.00014,0.00015,0.00016,5e-05,0.00011999999999999999,4e-05,3
9309,9712,0.00011999999999999999,-0.00013000000000000002,-0.00014,0.00015,0.00016,5e-05,0.00011999999999999999,4e-05,3
9310,9713,0.00011999999999999999,-0.00013000000000000002,-0.00014,0.00015,0.00016,5e-05,0.00011999999999999999,4e-05,3
9311,9714,0.00011999999999999999,-0.00013000000000000002,-0.00014,0.00015,0.00016,5e-05,0.00011999999999999999,4e-05,3
9312,9715,0.00011999999999999999,-0.00013000000000000002,-0.00014,0.00015,0.00016,5e-05,0.00011999999999999999,4e-05,3
9313,9716,0.00011999999999999999,-0.00013000000000000002,-0.00014,0.00015,0.00016,5e-05,0.00011999999999999999,4e-05,3
9314,9717,0.00011999999999999999,-0.00013000000000000002,-0.00014,0.00015,0.00016,5e-05,0.00011999999999999999,4e-05,3
9315,9718,0.00011999999999999999,-0.00013000000000000002,-0.00014,0.00015,0.00016,5e-05,0.00011999999999999999,4e-05,3
9316,9719,0.00011999999999999999,-0.00013000000000000002,-0.00014,0.00015,0.00016,5e-05,0.00011999999999999999,4e-05,3
9317,9720,0.00011999999999999999,-0.00013000000000000002,-0.00014,0.00015,0.00016,5e-05,0.00011999999999999999,4e-05,3
9318,9721,9e-05,0.0,-1e-05,-0.00013000000000000002,-0.00014,0.0,-0.0002,-0.00016999999999999999,3
9319,9722,9e-05,0.0,-1e-05,-0.00013000000000000002,-0.00014,0.0,-0.0002,-0.00016999999999999999,3
9320,9723,2.9999999999999997e-05,-5.9999999999999995e-05,-0.00023999999999999998,-0.00016999999999999999,-0.00022999999999999998,-7e-05,-2.9999999999999997e-05,4e-05,3
9321,9724,2.9999999999999997e-05,-5.9999999999999995e-05,-0.00023999999999999998,-0.00016999999999999999,-0.00022999999999999998,-7e-05,-2.9999999999999997e-05,4e-05,3
9322,9725,2.9999999999999997e-05,-5.9999999999999995e-05,-0.00023999999999999998,-0.00016999999999999999,-0.00022999999999999998,-7e-05,-2.9999999999999997e-05,4e-05,3
9323,9726,2.9999999999999997e-05,-5.9999999999999995e-05,-0.00023999999999999998,-0.00016999999999999999,-0.00022999999999999998,-7e-05,-2.9999999999999997e-05,4e-05,3
9324,9727,2.9999999999999997e-05,-5.9999999999999995e-05,-0.00023999999999999998,-0.00016999999999999999,-0.00022999999999999998,-7e-05,-2.9999999999999997e-05,4e-05,3
9325,9728,2.9999999999999997e-05,-5.9999999999999995e-05,-0.00023999999999999998,-0.00016999999999999999,-0.00022999999999999998,-7e-05,-2.9999999999999997e-05,4e-05,3
9326,9729,2.9999999999999997e-05,-5.9999999999999995e-05,-0.00023999999999999998,-0.00016999999999999999,-0.00022999999999999998,-7e-05,-2.9999999999999997e-05,4e-05,3
9327,9730,2.9999999999999997e-05,-5.9999999999999995e-05,-0.00023999999999999998,-0.00016999999999999999,-0.00022999999999999998,-7e-05,-2.9999999999999997e-05,4e-05,3
9328,9731,2.9999999999999997e-05,-5.9999999999999995e-05,-0.00023999999999999998,-0.00016999999999999999,-0.00022999999999999998,-7e-05,-2.9999999999999997e-05,4e-05,3
9329,9732,2.9999999999999997e-05,-5.9999999999999995e-05,-0.00023999999999999998,-0.00016999999999999999,-0.00022999999999999998,-7e-05,-2.9999999999999997e-05,4e-05,3
9330,9733,2.9999999999999997e-05,-5.9999999999999995e-05,-0.00023999999999999998,-0.00016999999999999999,-0.00022999999999999998,-7e-05,-2.9999999999999997e-05,4e-05,3
9331,9734,2.9999999999999997e-05,-5.9999999999999995e-05,-0.00023999999999999998,-0.00016999999999999999,-0.00022999999999999998,-7e-05,-2.9999999999999997e-05,4e-05,3
9332,9735,0.0001,0.00026000000000000003,7e-05,0.00013000000000000002,9e-05,5.9999999999999995e-05,1e-05,5.9999999999999995e-05,3
9333,9736,0.0001,0.00026000000000000003,7e-05,0.00013000000000000002,9e-05,5.9999999999999995e-05,1e-05,5.9999999999999995e-05,3
9334,9738,0.0001,0.00026000000000000003,7e-05,0.00013000000000000002,9e-05,5.9999999999999995e-05,1e-05,5.9999999999999995e-05,3
9335,9739,0.0001,0.00026000000000000003,7e-05,0.00013000000000000002,9e-05,5.9999999999999995e-05,1e-05,5.9999999999999995e-05,3
9336,9740,0.0001,0.00026000000000000003,7e-05,0.00013000000000000002,9e-05,5.9999999999999995e-05,1e-05,5.9999999999999995e-05,3
9337,9741,0.0001,0.00026000000000000003,7e-05,0.00013000000000000002,9e-05,5.9999999999999995e-05,1e-05,5.9999999999999995e-05,3
9338,9742,0.0001,0.00026000000000000003,7e-05,0.00013000000000000002,9e-05,5.9999999999999995e-05,1e-05,5.9999999999999995e-05,3
9339,9743,0.0001,0.00026000000000000003,7e-05,0.00013000000000000002,9e-05,5.9999999999999995e-05,1e-05,5.9999999999999995e-05,3
9340,9744,8e-05,-2.9999999999999997e-05,0.00033,-1e-05,-0.00022,8e-05,5e-05,0.00027,3
9341,9745,8e-05,-2.9999999999999997e-05,0.00033,-1e-05,-0.00022,8e-05,5e-05,0.00027,3
9342,9746,8e-05,-2.9999999999999997e-05,0.00033,-1e-05,-0.00022,8e-05,5e-05,0.00027,3
9343,9747,8e-05,-2.9999999999999997e-05,0.00033,-1e-05,-0.00022,8e-05,5e-05,0.00027,3
9344,9748,8e-05,-2.9999999999999997e-05,0.00033,-1e-05,-0.00022,8e-05,5e-05,0.00027,3
9345,9749,8e-05,-2.9999999999999997e-05,0.00033,-1e-05,-0.00022,8e-05,5e-05,0.00027,3
9346,9750,8e-05,-2.9999999999999997e-05,0.00033,-1e-05,-0.00022,8e-05,5e-05,0.00027,3
9347,9751,8e-05,-2.9999999999999997e-05,0.00033,-1e-05,-0.00022,8e-05,5e-05,0.00027,3
9348,9752,8e-05,-2.9999999999999997e-05,0.00033,-1e-05,-0.00022,8e-05,5e-05,0.00027,3
9349,9753,8e-05,-2.9999999999999997e-05,0.00033,-1e-05,-0.00022,8e-05,5e-05,0.00027,3
9350,9754,8e-05,-2.9999999999999997e-05,0.00033,-1e-05,-0.00022,8e-05,5e-05,0.00027,3
9351,9755,8e-05,-2.9999999999999997e-05,0.00033,-1e-05,-0.00022,8e-05,5e-05,0.00027,3
9352,9756,8e-05,-2.9999999999999997e-05,0.00033,-1e-05,-0.00022,8e-05,5e-05,0.00027,3
9353,9757,8e-05,-2.9999999999999997e-05,0.00033,-1e-05,-0.00022,8e-05,5e-05,0.00027,3
9354,9758,8e-05,-2.9999999999999997e-05,0.00033,-1e-05,-0.00022,8e-05,5e-05,0.00027,3
9355,9759,-0.00042,-0.00022,0.0,-0.00016999999999999999,-0.00011999999999999999,0.00025,-4e-05,-0.00015,3
9356,9760,-2.9999999999999997e-05,-0.0002,-0.00036,-0.00014,-0.00011,8e-05,2e-05,-5.9999999999999995e-05,3
9357,9761,-2.9999999999999997e-05,-0.0002,-0.00036,-0.00014,-0.00011,8e-05,2e-05,-5.9999999999999995e-05,3
9358,9762,-2.9999999999999997e-05,-0.0002,-0.00036,-0.00014,-0.00011,8e-05,2e-05,-5.9999999999999995e-05,3
9359,9763,-2.9999999999999997e-05,-0.0002,-0.00036,-0.00014,-0.00011,8e-05,2e-05,-5.9999999999999995e-05,3
9360,9764,-2.9999999999999997e-05,-0.0002,-0.00036,-0.00014,-0.00011,8e-05,2e-05,-5.9999999999999995e-05,3
9361,9765,-2.9999999999999997e-05,-0.0002,-0.00036,-0.00014,-0.00011,8e-05,2e-05,-5.9999999999999995e-05,3
9362,9766,-2.9999999999999997e-05,-0.0002,-0.00036,-0.00014,-0.00011,8e-05,2e-05,-5.9999999999999995e-05,3
9363,9767,-2.9999999999999997e-05,-0.0002,-0.00036,-0.00014,-0.00011,8e-05,2e-05,-5.9999999999999995e-05,3
9364,9768,-2.9999999999999997e-05,-0.0002,-0.00036,-0.00014,-0.00011,8e-05,2e-05,-5.9999999999999995e-05,3
9365,9769,-2.9999999999999997e-05,-0.0002,-0.00036,-0.00014,-0.00011,8e-05,2e-05,-5.9999999999999995e-05,3
9366,9770,-2.9999999999999997e-05,-0.0002,-0.00036,-0.00014,-0.00011,8e-05,2e-05,-5.9999999999999995e-05,3
9367,9771,-2.9999999999999997e-05,-0.0002,-0.00036,-0.00014,-0.00011,8e-05,2e-05,-5.9999999999999995e-05,3
9368,9772,-2.9999999999999997e-05,-0.0002,-0.00036,-0.00014,-0.00011,8e-05,2e-05,-5.9999999999999995e-05,3
9369,9773,-2.9999999999999997e-05,-0.0002,-0.00036,-0.00014,-0.00011,8e-05,2e-05,-5.9999999999999995e-05,3
9370,9774,-2.9999999999999997e-05,-0.0002,-0.00036,-0.00014,-0.00011,8e-05,2e-05,-5.9999999999999995e-05,3
9371,9775,-2.9999999999999997e-05,-0.0002,-0.00036,-0.00014,-0.00011,8e-05,2e-05,-5.9999999999999995e-05,3
9372,9776,-2.9999999999999997e-05,-0.0002,-0.00036,-0.00014,-0.00011,8e-05,2e-05,-5.9999999999999995e-05,3
9373,9777,-2.9999999999999997e-05,-0.0002,-0.00036,-0.00014,-0.00011,8e-05,2e-05,-5.9999999999999995e-05,3
9374,9778,-2.9999999999999997e-05,-0.0002,-0.00036,-0.00014,-0.00011,8e-05,2e-05,-5.9999999999999995e-05,3
9375,9779,-2.9999999999999997e-05,-0.0002,-0.00036,-0.00014,-0.00011,8e-05,2e-05,-5.9999999999999995e-05,3
9376,9780,-2.9999999999999997e-05,-0.0002,-0.00036,-0.00014,-0.00011,8e-05,2e-05,-5.9999999999999995e-05,3
9377,9781,2e-05,0.00011999999999999999,0.00028,8e-05,-2.9999999999999997e-05,-0.00011999999999999999,-2.9999999999999997e-05,-0.00016,3
9378,9782,2e-05,0.00011999999999999999,0.00028,8e-05,-2.9999999999999997e-05,-0.00011999999999999999,-2.9999999999999997e-05,-0.00016,3
9379,9783,-0.00029,-0.0001,-7e-05,-0.00022999999999999998,-0.0001,-7e-05,-0.0001,-0.00061,3
9380,9784,-0.00029,-0.0001,-7e-05,-0.00022999999999999998,-0.0001,-7e-05,-0.0001,-0.00061,3
9381,9785,-0.00029,-0.0001,-7e-05,-0.00022999999999999998,-0.0001,-7e-05,-0.0001,-0.00061,3
9382,9786,-0.00029,-0.0001,-7e-05,-0.00022999999999999998,-0.0001,-7e-05,-0.0001,-0.00061,3
9383,9788,-0.00029,-0.0001,-7e-05,-0.00022999999999999998,-0.0001,-7e-05,-0.0001,-0.00061,3
9384,9789,-0.00029,-0.0001,-7e-05,-0.00022999999999999998,-0.0001,-7e-05,-0.0001,-0.00061,3
9385,9790,-0.00029,-0.0001,-7e-05,-0.00022999999999999998,-0.0001,-7e-05,-0.0001,-0.00061,3
9386,9791,-0.00029,-0.0001,-7e-05,-0.00022999999999999998,-0.0001,-7e-05,-0.0001,-0.00061,3
9387,9792,-0.00029,-0.0001,-7e-05,-0.00022999999999999998,-0.0001,-7e-05,-0.0001,-0.00061,3
9388,9793,-0.00029,-0.0001,-7e-05,-0.00022999999999999998,-0.0001,-7e-05,-0.0001,-0.00061,3
9389,9794,-0.00029,-0.0001,-7e-05,-0.00022999999999999998,-0.0001,-7e-05,-0.0001,-0.00061,3
9390,9796,-0.0006900000000000001,-9e-05,7e-05,-2.9999999999999997e-05,-5.9999999999999995e-05,-8e-05,-5e-05,-0.00021,3
9391,9797,-0.0006900000000000001,-9e-05,7e-05,-2.9999999999999997e-05,-5.9999999999999995e-05,-8e-05,-5e-05,-0.00021,3
9392,9798,-0.0006900000000000001,-9e-05,7e-05,-2.9999999999999997e-05,-5.9999999999999995e-05,-8e-05,-5e-05,-0.00021,3
9393,9799,-0.0006900000000000001,-9e-05,7e-05,-2.9999999999999997e-05,-5.9999999999999995e-05,-8e-05,-5e-05,-0.00021,3
9394,9800,-0.0006900000000000001,-9e-05,7e-05,-2.9999999999999997e-05,-5.9999999999999995e-05,-8e-05,-5e-05,-0.00021,3
9395,9801,-0.0006900000000000001,-9e-05,7e-05,-2.9999999999999997e-05,-5.9999999999999995e-05,-8e-05,-5e-05,-0.00021,3
9396,9802,-0.0006900000000000001,-9e-05,7e-05,-2.9999999999999997e-05,-5.9999999999999995e-05,-8e-05,-5e-05,-0.00021,3
9397,9803,-0.0006900000000000001,-9e-05,7e-05,-2.9999999999999997e-05,-5.9999999999999995e-05,-8e-05,-5e-05,-0.00021,3
9398,9804,0.00027,0.00021,5.9999999999999995e-05,0.00016,1e-05,-1e-05,-0.00016999999999999999,0.00014,3
9399,9805,0.00027,0.00021,5.9999999999999995e-05,0.00016,1e-05,-1e-05,-0.00016999999999999999,0.00014,3
9400,9806,0.00027,0.00021,5.9999999999999995e-05,0.00016,1e-05,-1e-05,-0.00016999999999999999,0.00014,3
9401,9807,0.00027,0.00021,5.9999999999999995e-05,0.00016,1e-05,-1e-05,-0.00016999999999999999,0.00014,3
9402,9808,0.00027,0.00021,5.9999999999999995e-05,0.00016,1e-05,-1e-05,-0.00016999999999999999,0.00014,3
9403,9809,0.00027,0.00021,5.9999999999999995e-05,0.00016,1e-05,-1e-05,-0.00016999999999999999,0.00014,3
9404,9810,0.00027,0.00021,5.9999999999999995e-05,0.00016,1e-05,-1e-05,-0.00016999999999999999,0.00014,3
9405,9811,0.00027,0.00021,5.9999999999999995e-05,0.00016,1e-05,-1e-05,-0.00016999999999999999,0.00014,3
9406,9812,0.00027,0.00021,5.9999999999999995e-05,0.00016,1e-05,-1e-05,-0.00016999999999999999,0.00014,3
9407,9813,0.00027,0.00021,5.9999999999999995e-05,0.00016,1e-05,-1e-05,-0.00016999999999999999,0.00014,3
9408,9814,0.00027,0.00021,5.9999999999999995e-05,0.00016,1e-05,-1e-05,-0.00016999999999999999,0.00014,3
9409,9815,0.00027,0.00021,5.9999999999999995e-05,0.00016,1e-05,-1e-05,-0.00016999999999999999,0.00014,3
9410,9816,0.00027,0.00021,5.9999999999999995e-05,0.00016,1e-05,-1e-05,-0.00016999999999999999,0.00014,3
9411,9817,0.00027,0.00021,5.9999999999999995e-05,0.00016,1e-05,-1e-05,-0.00016999999999999999,0.00014,3
9412,9818,0.00027,0.00021,5.9999999999999995e-05,0.00016,1e-05,-1e-05,-0.00016999999999999999,0.00014,3
9413,9819,0.00031,-0.00022,4e-05,-2.9999999999999997e-05,0.00021,-1e-05,0.0,0.00011,3
9414,9820,-0.00016999999999999999,-0.00025,-9e-05,2e-05,-0.00011999999999999999,-0.00029,5e-05,0.00018999999999999998,3
9415,9821,-0.00016999999999999999,-0.00025,-9e-05,2e-05,-0.00011999999999999999,-0.00029,5e-05,0.00018999999999999998,3
9416,9822,-0.00016999999999999999,-0.00025,-9e-05,2e-05,-0.00011999999999999999,-0.00029,5e-05,0.00018999999999999998,3
9417,9823,-0.00016999999999999999,-0.00025,-9e-05,2e-05,-0.00011999999999999999,-0.00029,5e-05,0.00018999999999999998,3
9418,9824,-0.00016999999999999999,-0.00025,-9e-05,2e-05,-0.00011999999999999999,-0.00029,5e-05,0.00018999999999999998,3
9419,9825,-0.00016999999999999999,-0.00025,-9e-05,2e-05,-0.00011999999999999999,-0.00029,5e-05,0.00018999999999999998,3
9420,9826,-0.00016999999999999999,-0.00025,-9e-05,2e-05,-0.00011999999999999999,-0.00029,5e-05,0.00018999999999999998,3
9421,9827,-0.00016999999999999999,-0.00025,-9e-05,2e-05,-0.00011999999999999999,-0.00029,5e-05,0.00018999999999999998,3
9422,9828,-0.00016999999999999999,-0.00025,-9e-05,2e-05,-0.00011999999999999999,-0.00029,5e-05,0.00018999999999999998,3
9423,9829,-0.00016999999999999999,-0.00025,-9e-05,2e-05,-0.00011999999999999999,-0.00029,5e-05,0.00018999999999999998,3
9424,9830,-0.00016999999999999999,-0.00025,-9e-05,2e-05,-0.00011999999999999999,-0.00029,5e-05,0.00018999999999999998,3
9425,9831,-0.00016999999999999999,-0.00025,-9e-05,2e-05,-0.00011999999999999999,-0.00029,5e-05,0.00018999999999999998,3
9426,9832,-0.00016999999999999999,-0.00025,-9e-05,2e-05,-0.00011999999999999999,-0.00029,5e-05,0.00018999999999999998,3
9427,9833,-0.00016999999999999999,-0.00025,-9e-05,2e-05,-0.00011999999999999999,-0.00029,5e-05,0.00018999999999999998,3
9428,9834,-0.00016999999999999999,-0.00025,-9e-05,2e-05,-0.00011999999999999999,-0.00029,5e-05,0.00018999999999999998,3
9429,9835,-0.00016999999999999999,-0.00025,-9e-05,2e-05,-0.00011999999999999999,-0.00029,5e-05,0.00018999999999999998,3
9430,9836,-0.00016999999999999999,-0.00025,-9e-05,2e-05,-0.00011999999999999999,-0.00029,5e-05,0.00018999999999999998,3
9431,9838,-0.00016999999999999999,-0.00025,-9e-05,2e-05,-0.00011999999999999999,-0.00029,5e-05,0.00018999999999999998,3
9432,9839,-0.00016999999999999999,-0.00025,-9e-05,2e-05,-0.00011999999999999999,-0.00029,5e-05,0.00018999999999999998,3
9433,9840,-0.00016999999999999999,-0.00025,-9e-05,2e-05,-0.00011999999999999999,-0.00029,5e-05,0.00018999999999999998,3
9434,9841,-0.00037,-0.00027,-0.0006,-0.00018999999999999998,0.0001,-5.9999999999999995e-05,2e-05,-2e-05,3
9435,9842,-0.00037,-0.00027,-0.0006,-0.00018999999999999998,0.0001,-5.9999999999999995e-05,2e-05,-2e-05,3
9436,9844,0.00039,0.00016,5e-05,4e-05,2.9999999999999997e-05,-0.00014,-1e-05,2.9999999999999997e-05,3
9437,9845,0.00039,0.00016,5e-05,4e-05,2.9999999999999997e-05,-0.00014,-1e-05,2.9999999999999997e-05,3
9438,9846,0.00039,0.00016,5e-05,4e-05,2.9999999999999997e-05,-0.00014,-1e-05,2.9999999999999997e-05,3
9439,9847,0.00039,0.00016,5e-05,4e-05,2.9999999999999997e-05,-0.00014,-1e-05,2.9999999999999997e-05,3
9440,9848,0.00039,0.00016,5e-05,4e-05,2.9999999999999997e-05,-0.00014,-1e-05,2.9999999999999997e-05,3
9441,9849,0.00039,0.00016,5e-05,4e-05,2.9999999999999997e-05,-0.00014,-1e-05,2.9999999999999997e-05,3
9442,9850,0.00039,0.00016,5e-05,4e-05,2.9999999999999997e-05,-0.00014,-1e-05,2.9999999999999997e-05,3
9443,9851,0.00039,0.00016,5e-05,4e-05,2.9999999999999997e-05,-0.00014,-1e-05,2.9999999999999997e-05,3
9444,9852,0.00039,0.00016,5e-05,4e-05,2.9999999999999997e-05,-0.00014,-1e-05,2.9999999999999997e-05,3
9445,9853,0.00039,0.00016,5e-05,4e-05,2.9999999999999997e-05,-0.00014,-1e-05,2.9999999999999997e-05,3
9446,9854,0.00039,0.00016,5e-05,4e-05,2.9999999999999997e-05,-0.00014,-1e-05,2.9999999999999997e-05,3
9447,9855,0.00033,5.9999999999999995e-05,-1e-05,-5e-05,-9e-05,1e-05,2.9999999999999997e-05,4e-05,3
9448,9856,0.00033,5.9999999999999995e-05,-1e-05,-5e-05,-9e-05,1e-05,2.9999999999999997e-05,4e-05,3
9449,9857,0.00033,5.9999999999999995e-05,-1e-05,-5e-05,-9e-05,1e-05,2.9999999999999997e-05,4e-05,3
9450,9858,0.00033,5.9999999999999995e-05,-1e-05,-5e-05,-9e-05,1e-05,2.9999999999999997e-05,4e-05,3
9451,9859,0.00033,5.9999999999999995e-05,-1e-05,-5e-05,-9e-05,1e-05,2.9999999999999997e-05,4e-05,3
9452,9860,0.00033,5.9999999999999995e-05,-1e-05,-5e-05,-9e-05,1e-05,2.9999999999999997e-05,4e-05,3
9453,9861,0.00033,5.9999999999999995e-05,-1e-05,-5e-05,-9e-05,1e-05,2.9999999999999997e-05,4e-05,3
9454,9862,0.00033,5.9999999999999995e-05,-1e-05,-5e-05,-9e-05,1e-05,2.9999999999999997e-05,4e-05,3
9455,9863,0.00033,5.9999999999999995e-05,-1e-05,-5e-05,-9e-05,1e-05,2.9999999999999997e-05,4e-05,3
9456,9864,-0.0005,2.9999999999999997e-05,0.00026000000000000003,5e-05,-5e-05,0.00013000000000000002,2e-05,-0.00021,3
9457,9865,-0.0005,2.9999999999999997e-05,0.00026000000000000003,5e-05,-5e-05,0.00013000000000000002,2e-05,-0.00021,3
9458,9866,-0.0005,2.9999999999999997e-05,0.00026000000000000003,5e-05,-5e-05,0.00013000000000000002,2e-05,-0.00021,3
9459,9867,-0.0005,2.9999999999999997e-05,0.00026000000000000003,5e-05,-5e-05,0.00013000000000000002,2e-05,-0.00021,3
9460,9868,-0.0005,2.9999999999999997e-05,0.00026000000000000003,5e-05,-5e-05,0.00013000000000000002,2e-05,-0.00021,3
9461,9869,-0.0005,2.9999999999999997e-05,0.00026000000000000003,5e-05,-5e-05,0.00013000000000000002,2e-05,-0.00021,3
9462,9870,-0.0005,2.9999999999999997e-05,0.00026000000000000003,5e-05,-5e-05,0.00013000000000000002,2e-05,-0.00021,3
9463,9871,-0.0005,2.9999999999999997e-05,0.00026000000000000003,5e-05,-5e-05,0.00013000000000000002,2e-05,-0.00021,3
9464,9872,-0.0005,2.9999999999999997e-05,0.00026000000000000003,5e-05,-5e-05,0.00013000000000000002,2e-05,-0.00021,3
9465,9873,-0.0005,2.9999999999999997e-05,0.00026000000000000003,5e-05,-5e-05,0.00013000000000000002,2e-05,-0.00021,3
9466,9874,-0.0005,2.9999999999999997e-05,0.00026000000000000003,5e-05,-5e-05,0.00013000000000000002,2e-05,-0.00021,3
9467,9875,-0.0005,2.9999999999999997e-05,0.00026000000000000003,5e-05,-5e-05,0.00013000000000000002,2e-05,-0.00021,3
9468,9876,-0.0005,2.9999999999999997e-05,0.00026000000000000003,5e-05,-5e-05,0.00013000000000000002,2e-05,-0.00021,3
9469,9877,-0.0005,2.9999999999999997e-05,0.00026000000000000003,5e-05,-5e-05,0.00013000000000000002,2e-05,-0.00021,3
9470,9878,-0.0005,2.9999999999999997e-05,0.00026000000000000003,5e-05,-5e-05,0.00013000000000000002,2e-05,-0.00021,3
9471,9879,-5e-05,-0.00018999999999999998,-0.00037999999999999997,-4e-05,-0.00011,5.9999999999999995e-05,2e-05,-0.00032,3
9472,9880,0.0005099999999999999,7e-05,-0.00025,-0.00015,0.0,0.00015,2e-05,0.00026000000000000003,3
9473,9881,0.0005099999999999999,7e-05,-0.00025,-0.00015,0.0,0.00015,2e-05,0.00026000000000000003,3
9474,9882,0.0005099999999999999,7e-05,-0.00025,-0.00015,0.0,0.00015,2e-05,0.00026000000000000003,3
9475,9883,0.0005099999999999999,7e-05,-0.00025,-0.00015,0.0,0.00015,2e-05,0.00026000000000000003,3
9476,9884,0.0005099999999999999,7e-05,-0.00025,-0.00015,0.0,0.00015,2e-05,0.00026000000000000003,3
9477,9885,0.0005099999999999999,7e-05,-0.00025,-0.00015,0.0,0.00015,2e-05,0.00026000000000000003,3
9478,9886,0.0005099999999999999,7e-05,-0.00025,-0.00015,0.0,0.00015,2e-05,0.00026000000000000003,3
9479,9888,0.0005099999999999999,7e-05,-0.00025,-0.00015,0.0,0.00015,2e-05,0.00026000000000000003,3
9480,9890,0.0005099999999999999,7e-05,-0.00025,-0.00015,0.0,0.00015,2e-05,0.00026000000000000003,3
9481,9891,0.0005099999999999999,7e-05,-0.00025,-0.00015,0.0,0.00015,2e-05,0.00026000000000000003,3
9482,9892,0.0005099999999999999,7e-05,-0.00025,-0.00015,0.0,0.00015,2e-05,0.00026000000000000003,3
9483,9893,0.0005099999999999999,7e-05,-0.00025,-0.00015,0.0,0.00015,2e-05,0.00026000000000000003,3
9484,9894,0.0005099999999999999,7e-05,-0.00025,-0.00015,0.0,0.00015,2e-05,0.00026000000000000003,3
9485,9895,0.0005099999999999999,7e-05,-0.00025,-0.00015,0.0,0.00015,2e-05,0.00026000000000000003,3
9486,9896,0.0005099999999999999,7e-05,-0.00025,-0.00015,0.0,0.00015,2e-05,0.00026000000000000003,3
9487,9897,0.0005099999999999999,7e-05,-0.00025,-0.00015,0.0,0.00015,2e-05,0.00026000000000000003,3
9488,9898,0.0005099999999999999,7e-05,-0.00025,-0.00015,0.0,0.00015,2e-05,0.00026000000000000003,3
9489,9899,0.0005099999999999999,7e-05,-0.00025,-0.00015,0.0,0.00015,2e-05,0.00026000000000000003,3
9490,9900,0.0005099999999999999,7e-05,-0.00025,-0.00015,0.0,0.00015,2e-05,0.00026000000000000003,3
9491,9901,-2.9999999999999997e-05,-9e-05,0.0,0.00025,0.00037,2.9999999999999997e-05,-1e-05,4e-05,3
9492,9902,-2.9999999999999997e-05,-9e-05,0.0,0.00025,0.00037,2.9999999999999997e-05,-1e-05,4e-05,3
9493,9903,0.00011,-0.00067,-0.0008699999999999999,1e-05,0.00022,-5e-05,-1e-05,7e-05,3
9494,9904,0.00011,-0.00067,-0.0008699999999999999,1e-05,0.00022,-5e-05,-1e-05,7e-05,3
9495,9905,0.00011,-0.00067,-0.0008699999999999999,1e-05,0.00022,-5e-05,-1e-05,7e-05,3
9496,9906,0.00011,-0.00067,-0.0008699999999999999,1e-05,0.00022,-5e-05,-1e-05,7e-05,3
9497,9907,0.00011,-0.00067,-0.0008699999999999999,1e-05,0.00022,-5e-05,-1e-05,7e-05,3
9498,9908,0.00011,-0.00067,-0.0008699999999999999,1e-05,0.00022,-5e-05,-1e-05,7e-05,3
9499,9909,0.00011,-0.00067,-0.0008699999999999999,1e-05,0.00022,-5e-05,-1e-05,7e-05,3
9500,9910,0.00011,-0.00067,-0.0008699999999999999,1e-05,0.00022,-5e-05,-1e-05,7e-05,3
9501,9911,0.00011,-0.00067,-0.0008699999999999999,1e-05,0.00022,-5e-05,-1e-05,7e-05,3
9502,9912,0.00011,-0.00067,-0.0008699999999999999,1e-05,0.00022,-5e-05,-1e-05,7e-05,3
9503,9913,0.00011,-0.00067,-0.0008699999999999999,1e-05,0.00022,-5e-05,-1e-05,7e-05,3
9504,9914,0.00011,-0.00067,-0.0008699999999999999,1e-05,0.00022,-5e-05,-1e-05,7e-05,3
9505,9915,0.0009400000000000001,0.00037,0.00059,0.00011,-7e-05,-7e-05,7e-05,0.0002,3
9506,9916,0.0009400000000000001,0.00037,0.00059,0.00011,-7e-05,-7e-05,7e-05,0.0002,3
9507,9917,0.0009400000000000001,0.00037,0.00059,0.00011,-7e-05,-7e-05,7e-05,0.0002,3
9508,9918,0.0009400000000000001,0.00037,0.00059,0.00011,-7e-05,-7e-05,7e-05,0.0002,3
9509,9919,0.0009400000000000001,0.00037,0.00059,0.00011,-7e-05,-7e-05,7e-05,0.0002,3
9510,9920,0.0009400000000000001,0.00037,0.00059,0.00011,-7e-05,-7e-05,7e-05,0.0002,3
9511,9921,0.0009400000000000001,0.00037,0.00059,0.00011,-7e-05,-7e-05,7e-05,0.0002,3
9512,9922,0.0009400000000000001,0.00037,0.00059,0.00011,-7e-05,-7e-05,7e-05,0.0002,3
9513,9923,0.0009400000000000001,0.00037,0.00059,0.00011,-7e-05,-7e-05,7e-05,0.0002,3
9514,9924,-0.00022,0.00033,0.00033999999999999997,0.00011,0.0003,-5.9999999999999995e-05,-0.00016999999999999999,-0.00015,3
9515,9925,-0.00022,0.00033,0.00033999999999999997,0.00011,0.0003,-5.9999999999999995e-05,-0.00016999999999999999,-0.00015,3
9516,9926,-0.00022,0.00033,0.00033999999999999997,0.00011,0.0003,-5.9999999999999995e-05,-0.00016999999999999999,-0.00015,3
9517,9927,-0.00022,0.00033,0.00033999999999999997,0.00011,0.0003,-5.9999999999999995e-05,-0.00016999999999999999,-0.00015,3
9518,9928,-0.00022,0.00033,0.00033999999999999997,0.00011,0.0003,-5.9999999999999995e-05,-0.00016999999999999999,-0.00015,3
9519,9929,-0.00022,0.00033,0.00033999999999999997,0.00011,0.0003,-5.9999999999999995e-05,-0.00016999999999999999,-0.00015,3
9520,9930,-0.00022,0.00033,0.00033999999999999997,0.00011,0.0003,-5.9999999999999995e-05,-0.00016999999999999999,-0.00015,3
9521,9931,-0.00022,0.00033,0.00033999999999999997,0.00011,0.0003,-5.9999999999999995e-05,-0.00016999999999999999,-0.00015,3
9522,9932,-0.00022,0.00033,0.00033999999999999997,0.00011,0.0003,-5.9999999999999995e-05,-0.00016999999999999999,-0.00015,3
9523,9933,-0.00022,0.00033,0.00033999999999999997,0.00011,0.0003,-5.9999999999999995e-05,-0.00016999999999999999,-0.00015,3
9524,9934,-0.00022,0.00033,0.00033999999999999997,0.00011,0.0003,-5.9999999999999995e-05,-0.00016999999999999999,-0.00015,3
9525,9936,-0.00022,0.00033,0.00033999999999999997,0.00011,0.0003,-5.9999999999999995e-05,-0.00016999999999999999,-0.00015,3
9526,9937,-0.00022,0.00033,0.00033999999999999997,0.00011,0.0003,-5.9999999999999995e-05,-0.00016999999999999999,-0.00015,3
9527,9938,-0.00022,0.00033,0.00033999999999999997,0.00011,0.0003,-5.9999999999999995e-05,-0.00016999999999999999,-0.00015,3
9528,9939,0.00018999999999999998,0.00016,4e-05,9e-05,0.00011,-0.00011,2e-05,-2e-05,3
9529,9940,-5e-05,-0.0001,-0.00016,-0.00016999999999999999,-0.00021,-0.00016,-0.0001,-0.00023999999999999998,3
9530,9941,-5e-05,-0.0001,-0.00016,-0.00016999999999999999,-0.00021,-0.00016,-0.0001,-0.00023999999999999998,3
9531,9942,-5e-05,-0.0001,-0.00016,-0.00016999999999999999,-0.00021,-0.00016,-0.0001,-0.00023999999999999998,3
9532,9943,-5e-05,-0.0001,-0.00016,-0.00016999999999999999,-0.00021,-0.00016,-0.0001,-0.00023999999999999998,3
9533,9944,-5e-05,-0.0001,-0.00016,-0.00016999999999999999,-0.00021,-0.00016,-0.0001,-0.00023999999999999998,3
9534,9945,-5e-05,-0.0001,-0.00016,-0.00016999999999999999,-0.00021,-0.00016,-0.0001,-0.00023999999999999998,3
9535,9946,-5e-05,-0.0001,-0.00016,-0.00016999999999999999,-0.00021,-0.00016,-0.0001,-0.00023999999999999998,3
9536,9947,-5e-05,-0.0001,-0.00016,-0.00016999999999999999,-0.00021,-0.00016,-0.0001,-0.00023999999999999998,3
9537,9948,-5e-05,-0.0001,-0.00016,-0.00016999999999999999,-0.00021,-0.00016,-0.0001,-0.00023999999999999998,3
9538,9949,-5e-05,-0.0001,-0.00016,-0.00016999999999999999,-0.00021,-0.00016,-0.0001,-0.00023999999999999998,3
9539,9950,-5e-05,-0.0001,-0.00016,-0.00016999999999999999,-0.00021,-0.00016,-0.0001,-0.00023999999999999998,3
9540,9951,-5e-05,-0.0001,-0.00016,-0.00016999999999999999,-0.00021,-0.00016,-0.0001,-0.00023999999999999998,3
9541,9952,-5e-05,-0.0001,-0.00016,-0.00016999999999999999,-0.00021,-0.00016,-0.0001,-0.00023999999999999998,3
9542,9953,-5e-05,-0.0001,-0.00016,-0.00016999999999999999,-0.00021,-0.00016,-0.0001,-0.00023999999999999998,3
9543,9954,-5e-05,-0.0001,-0.00016,-0.00016999999999999999,-0.00021,-0.00016,-0.0001,-0.00023999999999999998,3
9544,9955,-5e-05,-0.0001,-0.00016,-0.00016999999999999999,-0.00021,-0.00016,-0.0001,-0.00023999999999999998,3
9545,9956,-5e-05,-0.0001,-0.00016,-0.00016999999999999999,-0.00021,-0.00016,-0.0001,-0.00023999999999999998,3
9546,9957,-5e-05,-0.0001,-0.00016,-0.00016999999999999999,-0.00021,-0.00016,-0.0001,-0.00023999999999999998,3
9547,9958,-5e-05,-0.0001,-0.00016,-0.00016999999999999999,-0.00021,-0.00016,-0.0001,-0.00023999999999999998,3
9548,9959,-5e-05,-0.0001,-0.00016,-0.00016999999999999999,-0.00021,-0.00016,-0.0001,-0.00023999999999999998,3
9549,9960,-5e-05,-0.0001,-0.00016,-0.00016999999999999999,-0.00021,-0.00016,-0.0001,-0.00023999999999999998,3
9550,9961,-0.00047000000000000004,0.0001,0.00026000000000000003,0.00027,0.00054,7e-05,-2.9999999999999997e-05,-5.9999999999999995e-05,3
9551,9962,-0.00047000000000000004,0.0001,0.00026000000000000003,0.00027,0.00054,7e-05,-2.9999999999999997e-05,-5.9999999999999995e-05,3
9552,9963,-0.00032,8e-05,0.00042,0.00021,2.9999999999999997e-05,-1e-05,2.9999999999999997e-05,-5.9999999999999995e-05,3
9553,9964,-0.00032,8e-05,0.00042,0.00021,2.9999999999999997e-05,-1e-05,2.9999999999999997e-05,-5.9999999999999995e-05,3
9554,9965,-0.00032,8e-05,0.00042,0.00021,2.9999999999999997e-05,-1e-05,2.9999999999999997e-05,-5.9999999999999995e-05,3
9555,9966,-0.00032,8e-05,0.00042,0.00021,2.9999999999999997e-05,-1e-05,2.9999999999999997e-05,-5.9999999999999995e-05,3
9556,9967,-0.00032,8e-05,0.00042,0.00021,2.9999999999999997e-05,-1e-05,2.9999999999999997e-05,-5.9999999999999995e-05,3
9557,9968,-0.00032,8e-05,0.00042,0.00021,2.9999999999999997e-05,-1e-05,2.9999999999999997e-05,-5.9999999999999995e-05,3
9558,9969,-0.00032,8e-05,0.00042,0.00021,2.9999999999999997e-05,-1e-05,2.9999999999999997e-05,-5.9999999999999995e-05,3
9559,9970,-0.00032,8e-05,0.00042,0.00021,2.9999999999999997e-05,-1e-05,2.9999999999999997e-05,-5.9999999999999995e-05,3
9560,9971,-0.00032,8e-05,0.00042,0.00021,2.9999999999999997e-05,-1e-05,2.9999999999999997e-05,-5.9999999999999995e-05,3
9561,9972,-0.00032,8e-05,0.00042,0.00021,2.9999999999999997e-05,-1e-05,2.9999999999999997e-05,-5.9999999999999995e-05,3
9562,9973,-0.00032,8e-05,0.00042,0.00021,2.9999999999999997e-05,-1e-05,2.9999999999999997e-05,-5.9999999999999995e-05,3
9563,9974,-0.00032,8e-05,0.00042,0.00021,2.9999999999999997e-05,-1e-05,2.9999999999999997e-05,-5.9999999999999995e-05,3
9564,9975,-0.00032,8e-05,0.00042,0.00021,2.9999999999999997e-05,-1e-05,2.9999999999999997e-05,-5.9999999999999995e-05,3
9565,9976,-0.00032,8e-05,0.00042,0.00021,2.9999999999999997e-05,-1e-05,2.9999999999999997e-05,-5.9999999999999995e-05,3
9566,9977,-0.00032,8e-05,0.00042,0.00021,2.9999999999999997e-05,-1e-05,2.9999999999999997e-05,-5.9999999999999995e-05,3
9567,9978,-0.00032,8e-05,0.00042,0.00021,2.9999999999999997e-05,-1e-05,2.9999999999999997e-05,-5.9999999999999995e-05,3
9568,9979,-0.00032,8e-05,0.00042,0.00021,2.9999999999999997e-05,-1e-05,2.9999999999999997e-05,-5.9999999999999995e-05,3
9569,9980,-0.00032,8e-05,0.00042,0.00021,2.9999999999999997e-05,-1e-05,2.9999999999999997e-05,-5.9999999999999995e-05,3
9570,9981,-0.00032,8e-05,0.00042,0.00021,2.9999999999999997e-05,-1e-05,2.9999999999999997e-05,-5.9999999999999995e-05,3
9571,9983,-0.00032,8e-05,0.00042,0.00021,2.9999999999999997e-05,-1e-05,2.9999999999999997e-05,-5.9999999999999995e-05,3
9572,9984,0.00013000000000000002,8e-05,0.00022999999999999998,-0.00013000000000000002,-0.00042,-0.00013000000000000002,-0.00013000000000000002,7e-05,3
9573,9985,0.0004,0.0004,0.00072,0.0001,9e-05,-0.00011,-9e-05,4e-05,3
9574,9986,0.0004,0.0004,0.00072,0.0001,9e-05,-0.00011,-9e-05,4e-05,3
9575,9988,0.0004,0.0004,0.00072,0.0001,9e-05,-0.00011,-9e-05,4e-05,3
9576,9989,0.0004,0.0004,0.00072,0.0001,9e-05,-0.00011,-9e-05,4e-05,3
9577,9990,0.0004,0.0004,0.00072,0.0001,9e-05,-0.00011,-9e-05,4e-05,3
9578,9991,0.0004,0.0004,0.00072,0.0001,9e-05,-0.00011,-9e-05,4e-05,3
9579,9992,0.0004,0.0004,0.00072,0.0001,9e-05,-0.00011,-9e-05,4e-05,3
9580,9993,0.0004,0.0004,0.00072,0.0001,9e-05,-0.00011,-9e-05,4e-05,3
9581,9994,0.0004,0.0004,0.00072,0.0001,9e-05,-0.00011,-9e-05,4e-05,3
9582,9995,0.0004,0.0004,0.00072,0.0001,9e-05,-0.00011,-9e-05,4e-05,3
9583,9996,0.0004,0.0004,0.00072,0.0001,9e-05,-0.00011,-9e-05,4e-05,3
9584,9997,0.0004,0.0004,0.00072,0.0001,9e-05,-0.00011,-9e-05,4e-05,3
9585,9998,0.0004,0.0004,0.00072,0.0001,9e-05,-0.00011,-9e-05,4e-05,3
9586,9999,0.00011,-0.00027,-0.00043,1e-05,0.00016,0.00011999999999999999,-4e-05,7e-05,3
9587,10000,5e-05,-2e-05,-9e-05,-0.00014,-0.00016,2.9999999999999997e-05,2e-05,0.00027,3
9588,10001,5e-05,-2e-05,-9e-05,-0.00014,-0.00016,2.9999999999999997e-05,2e-05,0.00027,3
9589,10002,5e-05,-2e-05,-9e-05,-0.00014,-0.00016,2.9999999999999997e-05,2e-05,0.00027,3
9590,10003,5e-05,-2e-05,-9e-05,-0.00014,-0.00016,2.9999999999999997e-05,2e-05,0.00027,3
9591,10004,5e-05,-2e-05,-9e-05,-0.00014,-0.00016,2.9999999999999997e-05,2e-05,0.00027,3
9592,10005,5e-05,-2e-05,-9e-05,-0.00014,-0.00016,2.9999999999999997e-05,2e-05,0.00027,3
9593,10006,5e-05,-2e-05,-9e-05,-0.00014,-0.00016,2.9999999999999997e-05,2e-05,0.00027,3
9594,10007,5e-05,-2e-05,-9e-05,-0.00014,-0.00016,2.9999999999999997e-05,2e-05,0.00027,3
9595,10008,5e-05,-2e-05,-9e-05,-0.00014,-0.00016,2.9999999999999997e-05,2e-05,0.00027,3
9596,10009,5e-05,-2e-05,-9e-05,-0.00014,-0.00016,2.9999999999999997e-05,2e-05,0.00027,3
9597,10010,5e-05,-2e-05,-9e-05,-0.00014,-0.00016,2.9999999999999997e-05,2e-05,0.00027,3
9598,10011,5e-05,-2e-05,-9e-05,-0.00014,-0.00016,2.9999999999999997e-05,2e-05,0.00027,3
9599,10012,5e-05,-2e-05,-9e-05,-0.00014,-0.00016,2.9999999999999997e-05,2e-05,0.00027,3
9600,10013,5e-05,-2e-05,-9e-05,-0.00014,-0.00016,2.9999999999999997e-05,2e-05,0.00027,3
9601,10014,5e-05,-2e-05,-9e-05,-0.00014,-0.00016,2.9999999999999997e-05,2e-05,0.00027,3
9602,10015,5e-05,-2e-05,-9e-05,-0.00014,-0.00016,2.9999999999999997e-05,2e-05,0.00027,3
9603,10016,5e-05,-2e-05,-9e-05,-0.00014,-0.00016,2.9999999999999997e-05,2e-05,0.00027,3
9604,10017,5e-05,-2e-05,-9e-05,-0.00014,-0.00016,2.9999999999999997e-05,2e-05,0.00027,3
9605,10018,5e-05,-2e-05,-9e-05,-0.00014,-0.00016,2.9999999999999997e-05,2e-05,0.00027,3
9606,10019,5e-05,-2e-05,-9e-05,-0.00014,-0.00016,2.9999999999999997e-05,2e-05,0.00027,3
9607,10020,5e-05,-2e-05,-9e-05,-0.00014,-0.00016,2.9999999999999997e-05,2e-05,0.00027,3
9608,10021,-0.00053,4e-05,-0.00022,-0.00018,-0.00025,7e-05,4e-05,0.0,3
9609,10022,-0.00053,4e-05,-0.00022,-0.00018,-0.00025,7e-05,4e-05,0.0,3
9610,10023,0.0001,-4e-05,-0.00027,-8e-05,0.00011,0.00016,0.00018999999999999998,0.0001,3
9611,10024,0.0001,-4e-05,-0.00027,-8e-05,0.00011,0.00016,0.00018999999999999998,0.0001,3
9612,10025,0.0001,-4e-05,-0.00027,-8e-05,0.00011,0.00016,0.00018999999999999998,0.0001,3
9613,10026,0.0001,-4e-05,-0.00027,-8e-05,0.00011,0.00016,0.00018999999999999998,0.0001,3
9614,10027,0.0001,-4e-05,-0.00027,-8e-05,0.00011,0.00016,0.00018999999999999998,0.0001,3
9615,10028,0.0001,-4e-05,-0.00027,-8e-05,0.00011,0.00016,0.00018999999999999998,0.0001,3
9616,10030,0.0001,-4e-05,-0.00027,-8e-05,0.00011,0.00016,0.00018999999999999998,0.0001,3
9617,10031,0.0001,-4e-05,-0.00027,-8e-05,0.00011,0.00016,0.00018999999999999998,0.0001,3
9618,10032,0.0001,-4e-05,-0.00027,-8e-05,0.00011,0.00016,0.00018999999999999998,0.0001,3
9619,10033,0.0001,-4e-05,-0.00027,-8e-05,0.00011,0.00016,0.00018999999999999998,0.0001,3
9620,10034,0.0001,-4e-05,-0.00027,-8e-05,0.00011,0.00016,0.00018999999999999998,0.0001,3
9621,10035,0.0001,-4e-05,-0.00027,-8e-05,0.00011,0.00016,0.00018999999999999998,0.0001,3
9622,10039,0.0001,-4e-05,-0.00027,-8e-05,0.00011,0.00016,0.00018999999999999998,0.0001,3
9623,10040,0.0001,-4e-05,-0.00027,-8e-05,0.00011,0.00016,0.00018999999999999998,0.0001,3
9624,10041,0.0001,-4e-05,-0.00027,-8e-05,0.00011,0.00016,0.00018999999999999998,0.0001,3
9625,10042,0.0001,-4e-05,-0.00027,-8e-05,0.00011,0.00016,0.00018999999999999998,0.0001,3
9626,10043,0.0001,-4e-05,-0.00027,-8e-05,0.00011,0.00016,0.00018999999999999998,0.0001,3
9627,10044,0.00028,-0.00022,-0.00047000000000000004,-0.00018,-0.00023999999999999998,-7e-05,7e-05,5.9999999999999995e-05,3
9628,10045,-0.00047999999999999996,-0.00022999999999999998,1e-05,-0.0001,-0.00029,-0.00015,-2.9999999999999997e-05,-0.00018,3
9629,10046,-0.00047999999999999996,-0.00022999999999999998,1e-05,-0.0001,-0.00029,-0.00015,-2.9999999999999997e-05,-0.00018,3
9630,10048,-0.00047999999999999996,-0.00022999999999999998,1e-05,-0.0001,-0.00029,-0.00015,-2.9999999999999997e-05,-0.00018,3
9631,10049,-0.00047999999999999996,-0.00022999999999999998,1e-05,-0.0001,-0.00029,-0.00015,-2.9999999999999997e-05,-0.00018,3
9632,10050,-0.00047999999999999996,-0.00022999999999999998,1e-05,-0.0001,-0.00029,-0.00015,-2.9999999999999997e-05,-0.00018,3
9633,10051,-0.00047999999999999996,-0.00022999999999999998,1e-05,-0.0001,-0.00029,-0.00015,-2.9999999999999997e-05,-0.00018,3
9634,10052,-0.00047999999999999996,-0.00022999999999999998,1e-05,-0.0001,-0.00029,-0.00015,-2.9999999999999997e-05,-0.00018,3
9635,10053,-0.00047999999999999996,-0.00022999999999999998,1e-05,-0.0001,-0.00029,-0.00015,-2.9999999999999997e-05,-0.00018,3
9636,10054,-0.00047999999999999996,-0.00022999999999999998,1e-05,-0.0001,-0.00029,-0.00015,-2.9999999999999997e-05,-0.00018,3
9637,10055,-0.00047999999999999996,-0.00022999999999999998,1e-05,-0.0001,-0.00029,-0.00015,-2.9999999999999997e-05,-0.00018,3
9638,10056,-0.00047999999999999996,-0.00022999999999999998,1e-05,-0.0001,-0.00029,-0.00015,-2.9999999999999997e-05,-0.00018,3
9639,10057,-0.00047999999999999996,-0.00022999999999999998,1e-05,-0.0001,-0.00029,-0.00015,-2.9999999999999997e-05,-0.00018,3
9640,10058,-0.00047999999999999996,-0.00022999999999999998,1e-05,-0.0001,-0.00029,-0.00015,-2.9999999999999997e-05,-0.00018,3
9641,10059,-4e-05,-7e-05,7e-05,-5e-05,-0.00035,1e-05,1e-05,8e-05,3
9642,10060,9e-05,2.9999999999999997e-05,-0.00016999999999999999,-7e-05,-2.9999999999999997e-05,-5e-05,-0.00011,-4e-05,3
9643,10061,9e-05,2.9999999999999997e-05,-0.00016999999999999999,-7e-05,-2.9999999999999997e-05,-5e-05,-0.00011,-4e-05,3
9644,10062,9e-05,2.9999999999999997e-05,-0.00016999999999999999,-7e-05,-2.9999999999999997e-05,-5e-05,-0.00011,-4e-05,3
9645,10063,9e-05,2.9999999999999997e-05,-0.00016999999999999999,-7e-05,-2.9999999999999997e-05,-5e-05,-0.00011,-4e-05,3
9646,10064,9e-05,2.9999999999999997e-05,-0.00016999999999999999,-7e-05,-2.9999999999999997e-05,-5e-05,-0.00011,-4e-05,3
9647,10065,9e-05,2.9999999999999997e-05,-0.00016999999999999999,-7e-05,-2.9999999999999997e-05,-5e-05,-0.00011,-4e-05,3
9648,10066,9e-05,2.9999999999999997e-05,-0.00016999999999999999,-7e-05,-2.9999999999999997e-05,-5e-05,-0.00011,-4e-05,3
9649,10067,9e-05,2.9999999999999997e-05,-0.00016999999999999999,-7e-05,-2.9999999999999997e-05,-5e-05,-0.00011,-4e-05,3
9650,10068,9e-05,2.9999999999999997e-05,-0.00016999999999999999,-7e-05,-2.9999999999999997e-05,-5e-05,-0.00011,-4e-05,3
9651,10069,9e-05,2.9999999999999997e-05,-0.00016999999999999999,-7e-05,-2.9999999999999997e-05,-5e-05,-0.00011,-4e-05,3
9652,10070,9e-05,2.9999999999999997e-05,-0.00016999999999999999,-7e-05,-2.9999999999999997e-05,-5e-05,-0.00011,-4e-05,3
9653,10071,9e-05,2.9999999999999997e-05,-0.00016999999999999999,-7e-05,-2.9999999999999997e-05,-5e-05,-0.00011,-4e-05,3
9654,10072,9e-05,2.9999999999999997e-05,-0.00016999999999999999,-7e-05,-2.9999999999999997e-05,-5e-05,-0.00011,-4e-05,3
9655,10073,9e-05,2.9999999999999997e-05,-0.00016999999999999999,-7e-05,-2.9999999999999997e-05,-5e-05,-0.00011,-4e-05,3
9656,10074,9e-05,2.9999999999999997e-05,-0.00016999999999999999,-7e-05,-2.9999999999999997e-05,-5e-05,-0.00011,-4e-05,3
9657,10075,9e-05,2.9999999999999997e-05,-0.00016999999999999999,-7e-05,-2.9999999999999997e-05,-5e-05,-0.00011,-4e-05,3
9658,10077,9e-05,2.9999999999999997e-05,-0.00016999999999999999,-7e-05,-2.9999999999999997e-05,-5e-05,-0.00011,-4e-05,3
9659,10078,9e-05,2.9999999999999997e-05,-0.00016999999999999999,-7e-05,-2.9999999999999997e-05,-5e-05,-0.00011,-4e-05,3
9660,10079,9e-05,2.9999999999999997e-05,-0.00016999999999999999,-7e-05,-2.9999999999999997e-05,-5e-05,-0.00011,-4e-05,3
9661,10080,9e-05,2.9999999999999997e-05,-0.00016999999999999999,-7e-05,-2.9999999999999997e-05,-5e-05,-0.00011,-4e-05,3
9662,10081,0.00047000000000000004,0.00011999999999999999,8e-05,-2e-05,7e-05,1e-05,0.0,4e-05,3
9663,10082,0.00047000000000000004,0.00011999999999999999,8e-05,-2e-05,7e-05,1e-05,0.0,4e-05,3
9664,10083,-0.0001,-0.00023999999999999998,-0.00032,-5.9999999999999995e-05,5e-05,0.00022999999999999998,1e-05,0.00011,3
9665,10084,-0.0001,-0.00023999999999999998,-0.00032,-5.9999999999999995e-05,5e-05,0.00022999999999999998,1e-05,0.00011,3
9666,10085,-0.0001,-0.00023999999999999998,-0.00032,-5.9999999999999995e-05,5e-05,0.00022999999999999998,1e-05,0.00011,3
9667,10086,-0.0001,-0.00023999999999999998,-0.00032,-5.9999999999999995e-05,5e-05,0.00022999999999999998,1e-05,0.00011,3
9668,10088,-0.0001,-0.00023999999999999998,-0.00032,-5.9999999999999995e-05,5e-05,0.00022999999999999998,1e-05,0.00011,3
9669,10089,-0.0001,-0.00023999999999999998,-0.00032,-5.9999999999999995e-05,5e-05,0.00022999999999999998,1e-05,0.00011,3
9670,10090,-0.0001,-0.00023999999999999998,-0.00032,-5.9999999999999995e-05,5e-05,0.00022999999999999998,1e-05,0.00011,3
9671,10091,-0.0001,-0.00023999999999999998,-0.00032,-5.9999999999999995e-05,5e-05,0.00022999999999999998,1e-05,0.00011,3
9672,10092,-0.0001,-0.00023999999999999998,-0.00032,-5.9999999999999995e-05,5e-05,0.00022999999999999998,1e-05,0.00011,3
9673,10093,-0.0001,-0.00023999999999999998,-0.00032,-5.9999999999999995e-05,5e-05,0.00022999999999999998,1e-05,0.00011,3
9674,10094,-0.0001,-0.00023999999999999998,-0.00032,-5.9999999999999995e-05,5e-05,0.00022999999999999998,1e-05,0.00011,3
9675,10095,-0.0001,-0.00023999999999999998,-0.00032,-5.9999999999999995e-05,5e-05,0.00022999999999999998,1e-05,0.00011,3
9676,10096,-0.0001,-0.00023999999999999998,-0.00032,-5.9999999999999995e-05,5e-05,0.00022999999999999998,1e-05,0.00011,3
9677,10097,-0.0001,-0.00023999999999999998,-0.00032,-5.9999999999999995e-05,5e-05,0.00022999999999999998,1e-05,0.00011,3
9678,10098,-0.0001,-0.00023999999999999998,-0.00032,-5.9999999999999995e-05,5e-05,0.00022999999999999998,1e-05,0.00011,3
9679,10099,-0.0001,-0.00023999999999999998,-0.00032,-5.9999999999999995e-05,5e-05,0.00022999999999999998,1e-05,0.00011,3
9680,10100,-0.0001,-0.00023999999999999998,-0.00032,-5.9999999999999995e-05,5e-05,0.00022999999999999998,1e-05,0.00011,3
9681,10101,-0.0001,-0.00023999999999999998,-0.00032,-5.9999999999999995e-05,5e-05,0.00022999999999999998,1e-05,0.00011,3
9682,10102,-0.0001,-0.00023999999999999998,-0.00032,-5.9999999999999995e-05,5e-05,0.00022999999999999998,1e-05,0.00011,3
9683,10103,-0.0001,-0.00023999999999999998,-0.00032,-5.9999999999999995e-05,5e-05,0.00022999999999999998,1e-05,0.00011,3
9684,10104,5e-05,-5.9999999999999995e-05,2e-05,4e-05,0.00054,0.00027,0.00013000000000000002,0.00011,3
9685,10105,0.00022999999999999998,9e-05,2.9999999999999997e-05,-8e-05,-0.00018999999999999998,-8e-05,-8e-05,9e-05,3
9686,10106,0.00022999999999999998,9e-05,2.9999999999999997e-05,-8e-05,-0.00018999999999999998,-8e-05,-8e-05,9e-05,3
9687,10107,0.00022999999999999998,9e-05,2.9999999999999997e-05,-8e-05,-0.00018999999999999998,-8e-05,-8e-05,9e-05,3
9688,10108,0.00022999999999999998,9e-05,2.9999999999999997e-05,-8e-05,-0.00018999999999999998,-8e-05,-8e-05,9e-05,3
9689,10109,0.00022999999999999998,9e-05,2.9999999999999997e-05,-8e-05,-0.00018999999999999998,-8e-05,-8e-05,9e-05,3
9690,10110,0.00022999999999999998,9e-05,2.9999999999999997e-05,-8e-05,-0.00018999999999999998,-8e-05,-8e-05,9e-05,3
9691,10111,0.00022999999999999998,9e-05,2.9999999999999997e-05,-8e-05,-0.00018999999999999998,-8e-05,-8e-05,9e-05,3
9692,10112,0.00022999999999999998,9e-05,2.9999999999999997e-05,-8e-05,-0.00018999999999999998,-8e-05,-8e-05,9e-05,3
9693,10113,0.00022999999999999998,9e-05,2.9999999999999997e-05,-8e-05,-0.00018999999999999998,-8e-05,-8e-05,9e-05,3
9694,10114,0.00022999999999999998,9e-05,2.9999999999999997e-05,-8e-05,-0.00018999999999999998,-8e-05,-8e-05,9e-05,3
9695,10115,0.00022999999999999998,9e-05,2.9999999999999997e-05,-8e-05,-0.00018999999999999998,-8e-05,-8e-05,9e-05,3
9696,10116,0.00022999999999999998,9e-05,2.9999999999999997e-05,-8e-05,-0.00018999999999999998,-8e-05,-8e-05,9e-05,3
9697,10117,0.00022999999999999998,9e-05,2.9999999999999997e-05,-8e-05,-0.00018999999999999998,-8e-05,-8e-05,9e-05,3
9698,10118,-0.00026000000000000003,9e-05,-0.00022,-0.00014,-0.00023999999999999998,0.00011999999999999999,2e-05,-0.0001,3
9699,10119,-0.00026000000000000003,9e-05,-0.00022,-0.00014,-0.00023999999999999998,0.00011999999999999999,2e-05,-0.0001,3
9700,10120,-0.00026000000000000003,9e-05,-0.00022,-0.00014,-0.00023999999999999998,0.00011999999999999999,2e-05,-0.0001,3
9701,10121,-0.00026000000000000003,9e-05,-0.00022,-0.00014,-0.00023999999999999998,0.00011999999999999999,2e-05,-0.0001,3
9702,10122,-0.00026000000000000003,9e-05,-0.00022,-0.00014,-0.00023999999999999998,0.00011999999999999999,2e-05,-0.0001,3
9703,10123,-0.00026000000000000003,9e-05,-0.00022,-0.00014,-0.00023999999999999998,0.00011999999999999999,2e-05,-0.0001,3
9704,10125,-1e-05,5e-05,0.00018,-5e-05,-0.0001,2.9999999999999997e-05,2e-05,-8e-05,3
9705,10126,-1e-05,5e-05,0.00018,-5e-05,-0.0001,2.9999999999999997e-05,2e-05,-8e-05,3
9706,10127,-1e-05,5e-05,0.00018,-5e-05,-0.0001,2.9999999999999997e-05,2e-05,-8e-05,3
9707,10128,-1e-05,5e-05,0.00018,-5e-05,-0.0001,2.9999999999999997e-05,2e-05,-8e-05,3
9708,10129,-1e-05,5e-05,0.00018,-5e-05,-0.0001,2.9999999999999997e-05,2e-05,-8e-05,3
9709,10130,-1e-05,5e-05,0.00018,-5e-05,-0.0001,2.9999999999999997e-05,2e-05,-8e-05,3
9710,10131,-1e-05,5e-05,0.00018,-5e-05,-0.0001,2.9999999999999997e-05,2e-05,-8e-05,3
9711,10132,-1e-05,5e-05,0.00018,-5e-05,-0.0001,2.9999999999999997e-05,2e-05,-8e-05,3
9712,10133,-1e-05,5e-05,0.00018,-5e-05,-0.0001,2.9999999999999997e-05,2e-05,-8e-05,3
9713,10134,-1e-05,5e-05,0.00018,-5e-05,-0.0001,2.9999999999999997e-05,2e-05,-8e-05,3
9714,10135,-1e-05,5e-05,0.00018,-5e-05,-0.0001,2.9999999999999997e-05,2e-05,-8e-05,3
9715,10136,-1e-05,5e-05,0.00018,-5e-05,-0.0001,2.9999999999999997e-05,2e-05,-8e-05,3
9716,10138,-1e-05,5e-05,0.00018,-5e-05,-0.0001,2.9999999999999997e-05,2e-05,-8e-05,3
9717,10139,-1e-05,5e-05,0.00018,-5e-05,-0.0001,2.9999999999999997e-05,2e-05,-8e-05,3
9718,10140,-1e-05,5e-05,0.00018,-5e-05,-0.0001,2.9999999999999997e-05,2e-05,-8e-05,3
9719,10141,-5.9999999999999995e-05,-2.9999999999999997e-05,0.0002,-2e-05,-0.00028,-0.00028,-8e-05,1e-05,3
9720,10142,-5.9999999999999995e-05,-2.9999999999999997e-05,0.0002,-2e-05,-0.00028,-0.00028,-8e-05,1e-05,3
9721,10143,-0.00014,0.00011,0.00018,-5.9999999999999995e-05,-0.00031,-5e-05,0.0,0.00011,3
9722,10144,-0.00014,0.00011,0.00018,-5.9999999999999995e-05,-0.00031,-5e-05,0.0,0.00011,3
9723,10145,-0.00014,0.00011,0.00018,-5.9999999999999995e-05,-0.00031,-5e-05,0.0,0.00011,3
9724,10146,-0.00014,0.00011,0.00018,-5.9999999999999995e-05,-0.00031,-5e-05,0.0,0.00011,3
9725,10148,-0.00014,0.00011,0.00018,-5.9999999999999995e-05,-0.00031,-5e-05,0.0,0.00011,3
9726,10149,-0.00014,0.00011,0.00018,-5.9999999999999995e-05,-0.00031,-5e-05,0.0,0.00011,3
9727,10150,-0.00014,0.00011,0.00018,-5.9999999999999995e-05,-0.00031,-5e-05,0.0,0.00011,3
9728,10151,-0.00014,0.00011,0.00018,-5.9999999999999995e-05,-0.00031,-5e-05,0.0,0.00011,3
9729,10152,-0.00014,0.00011,0.00018,-5.9999999999999995e-05,-0.00031,-5e-05,0.0,0.00011,3
9730,10153,-0.00014,0.00011,0.00018,-5.9999999999999995e-05,-0.00031,-5e-05,0.0,0.00011,3
9731,10154,-0.00014,0.00011,0.00018,-5.9999999999999995e-05,-0.00031,-5e-05,0.0,0.00011,3
9732,10155,-0.00014,0.00011,0.00018,-5.9999999999999995e-05,-0.00031,-5e-05,0.0,0.00011,3
9733,10156,-0.00014,0.00011,0.00018,-5.9999999999999995e-05,-0.00031,-5e-05,0.0,0.00011,3
9734,10157,-0.00014,0.00011,0.00018,-5.9999999999999995e-05,-0.00031,-5e-05,0.0,0.00011,3
9735,10158,-0.00014,0.00011,0.00018,-5.9999999999999995e-05,-0.00031,-5e-05,0.0,0.00011,3
9736,10159,-0.00014,0.00011,0.00018,-5.9999999999999995e-05,-0.00031,-5e-05,0.0,0.00011,3
9737,10160,-0.00014,0.00011,0.00018,-5.9999999999999995e-05,-0.00031,-5e-05,0.0,0.00011,3
9738,10161,-0.00014,0.00011,0.00018,-5.9999999999999995e-05,-0.00031,-5e-05,0.0,0.00011,3
9739,10162,-0.00014,0.00011,0.00018,-5.9999999999999995e-05,-0.00031,-5e-05,0.0,0.00011,3
9740,10163,-0.00014,0.00011,0.00018,-5.9999999999999995e-05,-0.00031,-5e-05,0.0,0.00011,3
9741,10164,-0.00022999999999999998,-0.00014,0.00023999999999999998,-8e-05,-0.00011999999999999999,-0.00013000000000000002,-9e-05,-5.9999999999999995e-05,3
9742,10165,-4e-05,-7e-05,0.00026000000000000003,5.9999999999999995e-05,7e-05,-2e-05,1e-05,-4e-05,3
9743,10166,-4e-05,-7e-05,0.00026000000000000003,5.9999999999999995e-05,7e-05,-2e-05,1e-05,-4e-05,3
9744,10167,-4e-05,-7e-05,0.00026000000000000003,5.9999999999999995e-05,7e-05,-2e-05,1e-05,-4e-05,3
9745,10168,-4e-05,-7e-05,0.00026000000000000003,5.9999999999999995e-05,7e-05,-2e-05,1e-05,-4e-05,3
9746,10170,-4e-05,-7e-05,0.00026000000000000003,5.9999999999999995e-05,7e-05,-2e-05,1e-05,-4e-05,3
9747,10171,-4e-05,-7e-05,0.00026000000000000003,5.9999999999999995e-05,7e-05,-2e-05,1e-05,-4e-05,3
9748,10172,-4e-05,-7e-05,0.00026000000000000003,5.9999999999999995e-05,7e-05,-2e-05,1e-05,-4e-05,3
9749,10173,-4e-05,-7e-05,0.00026000000000000003,5.9999999999999995e-05,7e-05,-2e-05,1e-05,-4e-05,3
9750,10174,-4e-05,-7e-05,0.00026000000000000003,5.9999999999999995e-05,7e-05,-2e-05,1e-05,-4e-05,3
9751,10175,-4e-05,-7e-05,0.00026000000000000003,5.9999999999999995e-05,7e-05,-2e-05,1e-05,-4e-05,3
9752,10176,-4e-05,-7e-05,0.00026000000000000003,5.9999999999999995e-05,7e-05,-2e-05,1e-05,-4e-05,3
9753,10177,-4e-05,-7e-05,0.00026000000000000003,5.9999999999999995e-05,7e-05,-2e-05,1e-05,-4e-05,3
9754,10178,2e-05,0.00016,-5.9999999999999995e-05,0.00011,0.0001,-5.9999999999999995e-05,-0.00018,-7e-05,3
9755,10179,2e-05,0.00016,-5.9999999999999995e-05,0.00011,0.0001,-5.9999999999999995e-05,-0.00018,-7e-05,3
9756,10180,2e-05,0.00016,-5.9999999999999995e-05,0.00011,0.0001,-5.9999999999999995e-05,-0.00018,-7e-05,3
9757,10181,2e-05,0.00016,-5.9999999999999995e-05,0.00011,0.0001,-5.9999999999999995e-05,-0.00018,-7e-05,3
9758,10182,2e-05,0.00016,-5.9999999999999995e-05,0.00011,0.0001,-5.9999999999999995e-05,-0.00018,-7e-05,3
9759,10183,2e-05,0.00016,-5.9999999999999995e-05,0.00011,0.0001,-5.9999999999999995e-05,-0.00018,-7e-05,3
9760,10184,2e-05,0.00016,-5.9999999999999995e-05,0.00011,0.0001,-5.9999999999999995e-05,-0.00018,-7e-05,3
9761,10185,-0.00022999999999999998,-0.00025,4e-05,5e-05,0.00018999999999999998,0.00016,5e-05,5.9999999999999995e-05,3
9762,10186,-0.00022999999999999998,-0.00025,4e-05,5e-05,0.00018999999999999998,0.00016,5e-05,5.9999999999999995e-05,3
9763,10188,-0.00022999999999999998,-0.00025,4e-05,5e-05,0.00018999999999999998,0.00016,5e-05,5.9999999999999995e-05,3
9764,10189,-0.00022999999999999998,-0.00025,4e-05,5e-05,0.00018999999999999998,0.00016,5e-05,5.9999999999999995e-05,3
9765,10190,-0.00022999999999999998,-0.00025,4e-05,5e-05,0.00018999999999999998,0.00016,5e-05,5.9999999999999995e-05,3
9766,10191,-0.00022999999999999998,-0.00025,4e-05,5e-05,0.00018999999999999998,0.00016,5e-05,5.9999999999999995e-05,3
9767,10192,-0.00022999999999999998,-0.00025,4e-05,5e-05,0.00018999999999999998,0.00016,5e-05,5.9999999999999995e-05,3
9768,10193,-0.00022999999999999998,-0.00025,4e-05,5e-05,0.00018999999999999998,0.00016,5e-05,5.9999999999999995e-05,3
9769,10194,-0.00022999999999999998,-0.00025,4e-05,5e-05,0.00018999999999999998,0.00016,5e-05,5.9999999999999995e-05,3
9770,10195,-0.00022999999999999998,-0.00025,4e-05,5e-05,0.00018999999999999998,0.00016,5e-05,5.9999999999999995e-05,3
9771,10196,-0.00022999999999999998,-0.00025,4e-05,5e-05,0.00018999999999999998,0.00016,5e-05,5.9999999999999995e-05,3
9772,10197,-0.00022999999999999998,-0.00025,4e-05,5e-05,0.00018999999999999998,0.00016,5e-05,5.9999999999999995e-05,3
9773,10198,-0.00022999999999999998,-0.00025,4e-05,5e-05,0.00018999999999999998,0.00016,5e-05,5.9999999999999995e-05,3
9774,10199,-0.00022999999999999998,-0.00025,4e-05,5e-05,0.00018999999999999998,0.00016,5e-05,5.9999999999999995e-05,3
9775,10200,-0.00022999999999999998,-0.00025,4e-05,5e-05,0.00018999999999999998,0.00016,5e-05,5.9999999999999995e-05,3
9776,10201,-2e-05,-0.00015,-7e-05,2e-05,0.00018,-1e-05,0.0001,0.00011999999999999999,3
9777,10202,-2e-05,-0.00015,-7e-05,2e-05,0.00018,-1e-05,0.0001,0.00011999999999999999,3
9778,10203,0.00011,0.00033999999999999997,2.9999999999999997e-05,5e-05,0.0,2.9999999999999997e-05,-2.9999999999999997e-05,-0.00028,3
9779,10204,0.00011,0.00033999999999999997,2.9999999999999997e-05,5e-05,0.0,2.9999999999999997e-05,-2.9999999999999997e-05,-0.00028,3
9780,10205,0.00011,0.00033999999999999997,2.9999999999999997e-05,5e-05,0.0,2.9999999999999997e-05,-2.9999999999999997e-05,-0.00028,3
9781,10206,0.00011,0.00033999999999999997,2.9999999999999997e-05,5e-05,0.0,2.9999999999999997e-05,-2.9999999999999997e-05,-0.00028,3
9782,10207,0.00011,0.00033999999999999997,2.9999999999999997e-05,5e-05,0.0,2.9999999999999997e-05,-2.9999999999999997e-05,-0.00028,3
9783,10208,0.00011,0.00033999999999999997,2.9999999999999997e-05,5e-05,0.0,2.9999999999999997e-05,-2.9999999999999997e-05,-0.00028,3
9784,10209,0.00011,0.00033999999999999997,2.9999999999999997e-05,5e-05,0.0,2.9999999999999997e-05,-2.9999999999999997e-05,-0.00028,3
9785,10210,0.00011,0.00033999999999999997,2.9999999999999997e-05,5e-05,0.0,2.9999999999999997e-05,-2.9999999999999997e-05,-0.00028,3
9786,10211,0.00011,0.00033999999999999997,2.9999999999999997e-05,5e-05,0.0,2.9999999999999997e-05,-2.9999999999999997e-05,-0.00028,3
9787,10212,0.00011,0.00033999999999999997,2.9999999999999997e-05,5e-05,0.0,2.9999999999999997e-05,-2.9999999999999997e-05,-0.00028,3
9788,10213,0.00011,0.00033999999999999997,2.9999999999999997e-05,5e-05,0.0,2.9999999999999997e-05,-2.9999999999999997e-05,-0.00028,3
9789,10214,0.00011,0.00033999999999999997,2.9999999999999997e-05,5e-05,0.0,2.9999999999999997e-05,-2.9999999999999997e-05,-0.00028,3
9790,10215,0.00011,0.00033999999999999997,2.9999999999999997e-05,5e-05,0.0,2.9999999999999997e-05,-2.9999999999999997e-05,-0.00028,3
9791,10216,0.00011,0.00033999999999999997,2.9999999999999997e-05,5e-05,0.0,2.9999999999999997e-05,-2.9999999999999997e-05,-0.00028,3
9792,10218,0.00011,0.00033999999999999997,2.9999999999999997e-05,5e-05,0.0,2.9999999999999997e-05,-2.9999999999999997e-05,-0.00028,3
9793,10219,0.00011,0.00033999999999999997,2.9999999999999997e-05,5e-05,0.0,2.9999999999999997e-05,-2.9999999999999997e-05,-0.00028,3
9794,10220,0.00011,0.00033999999999999997,2.9999999999999997e-05,5e-05,0.0,2.9999999999999997e-05,-2.9999999999999997e-05,-0.00028,3
9795,10221,0.00011,0.00033999999999999997,2.9999999999999997e-05,5e-05,0.0,2.9999999999999997e-05,-2.9999999999999997e-05,-0.00028,3
9796,10222,0.00011,0.00033999999999999997,2.9999999999999997e-05,5e-05,0.0,2.9999999999999997e-05,-2.9999999999999997e-05,-0.00028,3
9797,10223,0.00011,0.00033999999999999997,2.9999999999999997e-05,5e-05,0.0,2.9999999999999997e-05,-2.9999999999999997e-05,-0.00028,3
9798,10224,0.0,-7e-05,-0.00016999999999999999,4e-05,0.00011999999999999999,-0.00018999999999999998,-5e-05,-0.0002,3
9799,10225,0.00022,-8e-05,2e-05,8e-05,0.00029,-0.00013000000000000002,-4e-05,0.00032,3
9800,10226,0.00022,-8e-05,2e-05,8e-05,0.00029,-0.00013000000000000002,-4e-05,0.00032,3
9801,10227,0.00022,-8e-05,2e-05,8e-05,0.00029,-0.00013000000000000002,-4e-05,0.00032,3
9802,10228,0.00022,-8e-05,2e-05,8e-05,0.00029,-0.00013000000000000002,-4e-05,0.00032,3
9803,10229,0.00022,-8e-05,2e-05,8e-05,0.00029,-0.00013000000000000002,-4e-05,0.00032,3
9804,10230,0.00022,-8e-05,2e-05,8e-05,0.00029,-0.00013000000000000002,-4e-05,0.00032,3
9805,10231,0.00022,-8e-05,2e-05,8e-05,0.00029,-0.00013000000000000002,-4e-05,0.00032,3
9806,10232,0.00022,-8e-05,2e-05,8e-05,0.00029,-0.00013000000000000002,-4e-05,0.00032,3
9807,10233,0.00022,-8e-05,2e-05,8e-05,0.00029,-0.00013000000000000002,-4e-05,0.00032,3
9808,10234,0.00022,-8e-05,2e-05,8e-05,0.00029,-0.00013000000000000002,-4e-05,0.00032,3
9809,10235,0.00022,-8e-05,2e-05,8e-05,0.00029,-0.00013000000000000002,-4e-05,0.00032,3
9810,10236,0.00022,-8e-05,2e-05,8e-05,0.00029,-0.00013000000000000002,-4e-05,0.00032,3
9811,10238,-1e-05,2e-05,-0.0001,0.00013000000000000002,0.00029,5e-05,1e-05,1e-05,3
9812,10239,-1e-05,2e-05,-0.0001,0.00013000000000000002,0.00029,5e-05,1e-05,1e-05,3
9813,10240,-1e-05,2e-05,-0.0001,0.00013000000000000002,0.00029,5e-05,1e-05,1e-05,3
9814,10241,-1e-05,2e-05,-0.0001,0.00013000000000000002,0.00029,5e-05,1e-05,1e-05,3
9815,10242,-1e-05,2e-05,-0.0001,0.00013000000000000002,0.00029,5e-05,1e-05,1e-05,3
9816,10243,-1e-05,2e-05,-0.0001,0.00013000000000000002,0.00029,5e-05,1e-05,1e-05,3
9817,10244,-1e-05,2e-05,-0.0001,0.00013000000000000002,0.00029,5e-05,1e-05,1e-05,3
9818,10245,-0.00011999999999999999,2.9999999999999997e-05,-0.00021,-0.00014,0.0,-5e-05,2e-05,-0.00011,3
9819,10246,-0.00011999999999999999,2.9999999999999997e-05,-0.00021,-0.00014,0.0,-5e-05,2e-05,-0.00011,3
9820,10248,-0.00011999999999999999,2.9999999999999997e-05,-0.00021,-0.00014,0.0,-5e-05,2e-05,-0.00011,3
9821,10249,-0.00011999999999999999,2.9999999999999997e-05,-0.00021,-0.00014,0.0,-5e-05,2e-05,-0.00011,3
9822,10250,-0.00011999999999999999,2.9999999999999997e-05,-0.00021,-0.00014,0.0,-5e-05,2e-05,-0.00011,3
9823,10251,-0.00011999999999999999,2.9999999999999997e-05,-0.00021,-0.00014,0.0,-5e-05,2e-05,-0.00011,3
9824,10252,-0.00011999999999999999,2.9999999999999997e-05,-0.00021,-0.00014,0.0,-5e-05,2e-05,-0.00011,3
9825,10253,-0.00011999999999999999,2.9999999999999997e-05,-0.00021,-0.00014,0.0,-5e-05,2e-05,-0.00011,3
9826,10254,-0.00011999999999999999,2.9999999999999997e-05,-0.00021,-0.00014,0.0,-5e-05,2e-05,-0.00011,3
9827,10255,-0.00011999999999999999,2.9999999999999997e-05,-0.00021,-0.00014,0.0,-5e-05,2e-05,-0.00011,3
9828,10256,-0.00011999999999999999,2.9999999999999997e-05,-0.00021,-0.00014,0.0,-5e-05,2e-05,-0.00011,3
9829,10257,-0.00011999999999999999,2.9999999999999997e-05,-0.00021,-0.00014,0.0,-5e-05,2e-05,-0.00011,3
9830,10258,-0.00011999999999999999,2.9999999999999997e-05,-0.00021,-0.00014,0.0,-5e-05,2e-05,-0.00011,3
9831,10259,-0.00011999999999999999,2.9999999999999997e-05,-0.00021,-0.00014,0.0,-5e-05,2e-05,-0.00011,3
9832,10260,-0.00011999999999999999,2.9999999999999997e-05,-0.00021,-0.00014,0.0,-5e-05,2e-05,-0.00011,3
9833,10261,2.9999999999999997e-05,0.00032,0.00058,0.00016999999999999999,0.00011,0.00011999999999999999,0.0,9e-05,3
9834,10262,2.9999999999999997e-05,0.00032,0.00058,0.00016999999999999999,0.00011,0.00011999999999999999,0.0,9e-05,3
9835,10264,-0.00025,-0.00031,-0.00016999999999999999,-0.00011,-0.0001,7e-05,-5.9999999999999995e-05,-0.0002,3
9836,10265,-0.00025,-0.00031,-0.00016999999999999999,-0.00011,-0.0001,7e-05,-5.9999999999999995e-05,-0.0002,3
9837,10266,-0.00025,-0.00031,-0.00016999999999999999,-0.00011,-0.0001,7e-05,-5.9999999999999995e-05,-0.0002,3
9838,10267,-0.00025,-0.00031,-0.00016999999999999999,-0.00011,-0.0001,7e-05,-5.9999999999999995e-05,-0.0002,3
9839,10268,-0.00025,-0.00031,-0.00016999999999999999,-0.00011,-0.0001,7e-05,-5.9999999999999995e-05,-0.0002,3
9840,10269,-0.00025,-0.00031,-0.00016999999999999999,-0.00011,-0.0001,7e-05,-5.9999999999999995e-05,-0.0002,3
9841,10270,-0.00025,-0.00031,-0.00016999999999999999,-0.00011,-0.0001,7e-05,-5.9999999999999995e-05,-0.0002,3
9842,10271,-0.00025,-0.00031,-0.00016999999999999999,-0.00011,-0.0001,7e-05,-5.9999999999999995e-05,-0.0002,3
9843,10272,-0.00025,-0.00031,-0.00016999999999999999,-0.00011,-0.0001,7e-05,-5.9999999999999995e-05,-0.0002,3
9844,10273,-0.00025,-0.00031,-0.00016999999999999999,-0.00011,-0.0001,7e-05,-5.9999999999999995e-05,-0.0002,3
9845,10274,-0.00025,-0.00031,-0.00016999999999999999,-0.00011,-0.0001,7e-05,-5.9999999999999995e-05,-0.0002,3
9846,10275,-0.00025,-0.00031,-0.00016999999999999999,-0.00011,-0.0001,7e-05,-5.9999999999999995e-05,-0.0002,3
9847,10276,-0.00025,-0.00031,-0.00016999999999999999,-0.00011,-0.0001,7e-05,-5.9999999999999995e-05,-0.0002,3
9848,10277,-0.00025,-0.00031,-0.00016999999999999999,-0.00011,-0.0001,7e-05,-5.9999999999999995e-05,-0.0002,3
9849,10278,-0.00025,-0.00031,-0.00016999999999999999,-0.00011,-0.0001,7e-05,-5.9999999999999995e-05,-0.0002,3
9850,10279,-0.00025,-0.00031,-0.00016999999999999999,-0.00011,-0.0001,7e-05,-5.9999999999999995e-05,-0.0002,3
9851,10280,-0.00025,-0.00031,-0.00016999999999999999,-0.00011,-0.0001,7e-05,-5.9999999999999995e-05,-0.0002,3
9852,10281,-0.00025,-0.00031,-0.00016999999999999999,-0.00011,-0.0001,7e-05,-5.9999999999999995e-05,-0.0002,3
9853,10282,-0.00025,-0.00031,-0.00016999999999999999,-0.00011,-0.0001,7e-05,-5.9999999999999995e-05,-0.0002,3
9854,10283,-0.00025,-0.00031,-0.00016999999999999999,-0.00011,-0.0001,7e-05,-5.9999999999999995e-05,-0.0002,3
9855,10284,5e-05,-0.00011,9e-05,-4e-05,-0.00022,-7e-05,9e-05,8e-05,3
9856,10285,9e-05,-0.00014,-0.00014,1e-05,9e-05,-5e-05,5.9999999999999995e-05,2.9999999999999997e-05,3
9857,10286,9e-05,-0.00014,-0.00014,1e-05,9e-05,-5e-05,5.9999999999999995e-05,2.9999999999999997e-05,3
9858,10288,9e-05,-0.00014,-0.00014,1e-05,9e-05,-5e-05,5.9999999999999995e-05,2.9999999999999997e-05,3
9859,10289,9e-05,-0.00014,-0.00014,1e-05,9e-05,-5e-05,5.9999999999999995e-05,2.9999999999999997e-05,3
9860,10290,9e-05,-0.00014,-0.00014,1e-05,9e-05,-5e-05,5.9999999999999995e-05,2.9999999999999997e-05,3
9861,10291,9e-05,-0.00014,-0.00014,1e-05,9e-05,-5e-05,5.9999999999999995e-05,2.9999999999999997e-05,3
9862,10292,9e-05,-0.00014,-0.00014,1e-05,9e-05,-5e-05,5.9999999999999995e-05,2.9999999999999997e-05,3
9863,10293,9e-05,-0.00014,-0.00014,1e-05,9e-05,-5e-05,5.9999999999999995e-05,2.9999999999999997e-05,3
9864,10294,9e-05,-0.00014,-0.00014,1e-05,9e-05,-5e-05,5.9999999999999995e-05,2.9999999999999997e-05,3
9865,10295,9e-05,-0.00014,-0.00014,1e-05,9e-05,-5e-05,5.9999999999999995e-05,2.9999999999999997e-05,3
9866,10296,9e-05,-0.00014,-0.00014,1e-05,9e-05,-5e-05,5.9999999999999995e-05,2.9999999999999997e-05,3
9867,10297,9e-05,-0.00014,-0.00014,1e-05,9e-05,-5e-05,5.9999999999999995e-05,2.9999999999999997e-05,3
9868,10298,-0.00021,-5.9999999999999995e-05,-0.00029,-8e-05,-5e-05,0.00028,-5.9999999999999995e-05,-0.00015,3
9869,10299,-0.00021,-5.9999999999999995e-05,-0.00029,-8e-05,-5e-05,0.00028,-5.9999999999999995e-05,-0.00015,3
9870,10300,-0.00021,-5.9999999999999995e-05,-0.00029,-8e-05,-5e-05,0.00028,-5.9999999999999995e-05,-0.00015,3
9871,10301,-0.00021,-5.9999999999999995e-05,-0.00029,-8e-05,-5e-05,0.00028,-5.9999999999999995e-05,-0.00015,3
9872,10302,-0.00021,-5.9999999999999995e-05,-0.00029,-8e-05,-5e-05,0.00028,-5.9999999999999995e-05,-0.00015,3
9873,10303,-0.00021,-5.9999999999999995e-05,-0.00029,-8e-05,-5e-05,0.00028,-5.9999999999999995e-05,-0.00015,3
9874,10304,-0.00021,-5.9999999999999995e-05,-0.00029,-8e-05,-5e-05,0.00028,-5.9999999999999995e-05,-0.00015,3
9875,10305,0.00025,4e-05,7e-05,2.9999999999999997e-05,1e-05,-8e-05,-5e-05,4e-05,3
9876,10306,0.00025,4e-05,7e-05,2.9999999999999997e-05,1e-05,-8e-05,-5e-05,4e-05,3
9877,10307,0.00025,4e-05,7e-05,2.9999999999999997e-05,1e-05,-8e-05,-5e-05,4e-05,3
9878,10308,0.00025,4e-05,7e-05,2.9999999999999997e-05,1e-05,-8e-05,-5e-05,4e-05,3
9879,10309,0.00025,4e-05,7e-05,2.9999999999999997e-05,1e-05,-8e-05,-5e-05,4e-05,3
9880,10311,0.00025,4e-05,7e-05,2.9999999999999997e-05,1e-05,-8e-05,-5e-05,4e-05,3
9881,10312,0.00025,4e-05,7e-05,2.9999999999999997e-05,1e-05,-8e-05,-5e-05,4e-05,3
9882,10313,0.00025,4e-05,7e-05,2.9999999999999997e-05,1e-05,-8e-05,-5e-05,4e-05,3
9883,10314,0.00025,4e-05,7e-05,2.9999999999999997e-05,1e-05,-8e-05,-5e-05,4e-05,3
9884,10315,0.00025,4e-05,7e-05,2.9999999999999997e-05,1e-05,-8e-05,-5e-05,4e-05,3
9885,10316,0.00025,4e-05,7e-05,2.9999999999999997e-05,1e-05,-8e-05,-5e-05,4e-05,3
9886,10317,0.00025,4e-05,7e-05,2.9999999999999997e-05,1e-05,-8e-05,-5e-05,4e-05,3
9887,10318,0.00025,4e-05,7e-05,2.9999999999999997e-05,1e-05,-8e-05,-5e-05,4e-05,3
9888,10319,0.00025,4e-05,7e-05,2.9999999999999997e-05,1e-05,-8e-05,-5e-05,4e-05,3
9889,10320,0.00025,4e-05,7e-05,2.9999999999999997e-05,1e-05,-8e-05,-5e-05,4e-05,3
9890,10321,9e-05,2e-05,8e-05,-8e-05,-0.00018,-0.0001,-0.00014,5e-05,3
9891,10322,9e-05,2e-05,8e-05,-8e-05,-0.00018,-0.0001,-0.00014,5e-05,3
9892,10323,-0.00018,0.00011,0.00023999999999999998,0.00026000000000000003,0.0004,8e-05,7e-05,-5.9999999999999995e-05,3
9893,10324,-0.00018,0.00011,0.00023999999999999998,0.00026000000000000003,0.0004,8e-05,7e-05,-5.9999999999999995e-05,3
9894,10325,-0.00018,0.00011,0.00023999999999999998,0.00026000000000000003,0.0004,8e-05,7e-05,-5.9999999999999995e-05,3
9895,10326,-0.00018,0.00011,0.00023999999999999998,0.00026000000000000003,0.0004,8e-05,7e-05,-5.9999999999999995e-05,3
9896,10327,-0.00018,0.00011,0.00023999999999999998,0.00026000000000000003,0.0004,8e-05,7e-05,-5.9999999999999995e-05,3
9897,10328,-0.00018,0.00011,0.00023999999999999998,0.00026000000000000003,0.0004,8e-05,7e-05,-5.9999999999999995e-05,3
9898,10329,-0.00018,0.00011,0.00023999999999999998,0.00026000000000000003,0.0004,8e-05,7e-05,-5.9999999999999995e-05,3
9899,10330,-0.00018,0.00011,0.00023999999999999998,0.00026000000000000003,0.0004,8e-05,7e-05,-5.9999999999999995e-05,3
9900,10331,-0.00018,0.00011,0.00023999999999999998,0.00026000000000000003,0.0004,8e-05,7e-05,-5.9999999999999995e-05,3
9901,10332,-0.00018,0.00011,0.00023999999999999998,0.00026000000000000003,0.0004,8e-05,7e-05,-5.9999999999999995e-05,3
9902,10333,-0.00018,0.00011,0.00023999999999999998,0.00026000000000000003,0.0004,8e-05,7e-05,-5.9999999999999995e-05,3
9903,10334,-0.00018,0.00011,0.00023999999999999998,0.00026000000000000003,0.0004,8e-05,7e-05,-5.9999999999999995e-05,3
9904,10335,-0.00018,0.00011,0.00023999999999999998,0.00026000000000000003,0.0004,8e-05,7e-05,-5.9999999999999995e-05,3
9905,10336,-0.00018,0.00011,0.00023999999999999998,0.00026000000000000003,0.0004,8e-05,7e-05,-5.9999999999999995e-05,3
9906,10338,-0.00018,0.00011,0.00023999999999999998,0.00026000000000000003,0.0004,8e-05,7e-05,-5.9999999999999995e-05,3
9907,10339,-0.00018,0.00011,0.00023999999999999998,0.00026000000000000003,0.0004,8e-05,7e-05,-5.9999999999999995e-05,3
9908,10340,-0.00018,0.00011,0.00023999999999999998,0.00026000000000000003,0.0004,8e-05,7e-05,-5.9999999999999995e-05,3
9909,10341,-0.00018,0.00011,0.00023999999999999998,0.00026000000000000003,0.0004,8e-05,7e-05,-5.9999999999999995e-05,3
9910,10342,-0.00018,0.00011,0.00023999999999999998,0.00026000000000000003,0.0004,8e-05,7e-05,-5.9999999999999995e-05,3
9911,10343,-0.00018,0.00011,0.00023999999999999998,0.00026000000000000003,0.0004,8e-05,7e-05,-5.9999999999999995e-05,3
9912,10344,0.00013000000000000002,0.00016,-0.00011999999999999999,-5e-05,-0.0001,-7e-05,9e-05,2e-05,3
9913,10345,0.00018,0.00016,0.0001,5e-05,0.00011,-0.00014,-9e-05,-0.00022999999999999998,3
9914,10346,0.00018,0.00016,0.0001,5e-05,0.00011,-0.00014,-9e-05,-0.00022999999999999998,3
9915,10347,0.00018,0.00016,0.0001,5e-05,0.00011,-0.00014,-9e-05,-0.00022999999999999998,3
9916,10348,0.00018,0.00016,0.0001,5e-05,0.00011,-0.00014,-9e-05,-0.00022999999999999998,3
9917,10349,0.00018,0.00016,0.0001,5e-05,0.00011,-0.00014,-9e-05,-0.00022999999999999998,3
9918,10350,0.00018,0.00016,0.0001,5e-05,0.00011,-0.00014,-9e-05,-0.00022999999999999998,3
9919,10351,0.00018,0.00016,0.0001,5e-05,0.00011,-0.00014,-9e-05,-0.00022999999999999998,3
9920,10352,0.00018,0.00016,0.0001,5e-05,0.00011,-0.00014,-9e-05,-0.00022999999999999998,3
9921,10353,0.00018,0.00016,0.0001,5e-05,0.00011,-0.00014,-9e-05,-0.00022999999999999998,3
9922,10354,0.00018,0.00016,0.0001,5e-05,0.00011,-0.00014,-9e-05,-0.00022999999999999998,3
9923,10355,0.00018,0.00016,0.0001,5e-05,0.00011,-0.00014,-9e-05,-0.00022999999999999998,3
9924,10356,0.00018,0.00016,0.0001,5e-05,0.00011,-0.00014,-9e-05,-0.00022999999999999998,3
9925,10358,-0.00074,-0.00023999999999999998,-5.9999999999999995e-05,-9e-05,-0.00013000000000000002,0.00014,0.0,-0.00011999999999999999,3
9926,10359,-0.00074,-0.00023999999999999998,-5.9999999999999995e-05,-9e-05,-0.00013000000000000002,0.00014,0.0,-0.00011999999999999999,3
9927,10360,-0.00074,-0.00023999999999999998,-5.9999999999999995e-05,-9e-05,-0.00013000000000000002,0.00014,0.0,-0.00011999999999999999,3
9928,10361,-0.00074,-0.00023999999999999998,-5.9999999999999995e-05,-9e-05,-0.00013000000000000002,0.00014,0.0,-0.00011999999999999999,3
9929,10362,-0.00074,-0.00023999999999999998,-5.9999999999999995e-05,-9e-05,-0.00013000000000000002,0.00014,0.0,-0.00011999999999999999,3
9930,10363,-0.00074,-0.00023999999999999998,-5.9999999999999995e-05,-9e-05,-0.00013000000000000002,0.00014,0.0,-0.00011999999999999999,3
9931,10364,-0.00074,-0.00023999999999999998,-5.9999999999999995e-05,-9e-05,-0.00013000000000000002,0.00014,0.0,-0.00011999999999999999,3
9932,10365,8e-05,8e-05,-0.00016,5.9999999999999995e-05,0.00011,2e-05,1e-05,0.00011,3
9933,10366,8e-05,8e-05,-0.00016,5.9999999999999995e-05,0.00011,2e-05,1e-05,0.00011,3
9934,10367,8e-05,8e-05,-0.00016,5.9999999999999995e-05,0.00011,2e-05,1e-05,0.00011,3
9935,10368,8e-05,8e-05,-0.00016,5.9999999999999995e-05,0.00011,2e-05,1e-05,0.00011,3
9936,10369,8e-05,8e-05,-0.00016,5.9999999999999995e-05,0.00011,2e-05,1e-05,0.00011,3
9937,10370,8e-05,8e-05,-0.00016,5.9999999999999995e-05,0.00011,2e-05,1e-05,0.00011,3
9938,10371,8e-05,8e-05,-0.00016,5.9999999999999995e-05,0.00011,2e-05,1e-05,0.00011,3
9939,10372,8e-05,8e-05,-0.00016,5.9999999999999995e-05,0.00011,2e-05,1e-05,0.00011,3
9940,10373,8e-05,8e-05,-0.00016,5.9999999999999995e-05,0.00011,2e-05,1e-05,0.00011,3
9941,10374,8e-05,8e-05,-0.00016,5.9999999999999995e-05,0.00011,2e-05,1e-05,0.00011,3
9942,10375,8e-05,8e-05,-0.00016,5.9999999999999995e-05,0.00011,2e-05,1e-05,0.00011,3
9943,10376,8e-05,8e-05,-0.00016,5.9999999999999995e-05,0.00011,2e-05,1e-05,0.00011,3
9944,10377,8e-05,8e-05,-0.00016,5.9999999999999995e-05,0.00011,2e-05,1e-05,0.00011,3
9945,10378,8e-05,8e-05,-0.00016,5.9999999999999995e-05,0.00011,2e-05,1e-05,0.00011,3
9946,10379,8e-05,8e-05,-0.00016,5.9999999999999995e-05,0.00011,2e-05,1e-05,0.00011,3
9947,10380,8e-05,8e-05,-0.00016,5.9999999999999995e-05,0.00011,2e-05,1e-05,0.00011,3
9948,10381,0.00016,-0.00025,-0.00011999999999999999,-7e-05,-0.0002,1e-05,1e-05,5e-05,3
9949,10382,0.00016,-0.00025,-0.00011999999999999999,-7e-05,-0.0002,1e-05,1e-05,5e-05,3
9950,10383,-0.00045,-0.00016,-0.00016999999999999999,-2e-05,0.00027,7e-05,2.9999999999999997e-05,0.00014,3
9951,10384,-0.00045,-0.00016,-0.00016999999999999999,-2e-05,0.00027,7e-05,2.9999999999999997e-05,0.00014,3
9952,10385,-0.00045,-0.00016,-0.00016999999999999999,-2e-05,0.00027,7e-05,2.9999999999999997e-05,0.00014,3
9953,10386,-0.00045,-0.00016,-0.00016999999999999999,-2e-05,0.00027,7e-05,2.9999999999999997e-05,0.00014,3
9954,10388,-0.00045,-0.00016,-0.00016999999999999999,-2e-05,0.00027,7e-05,2.9999999999999997e-05,0.00014,3
9955,10389,-0.00045,-0.00016,-0.00016999999999999999,-2e-05,0.00027,7e-05,2.9999999999999997e-05,0.00014,3
9956,10390,-0.00045,-0.00016,-0.00016999999999999999,-2e-05,0.00027,7e-05,2.9999999999999997e-05,0.00014,3
9957,10391,-0.00045,-0.00016,-0.00016999999999999999,-2e-05,0.00027,7e-05,2.9999999999999997e-05,0.00014,3
9958,10392,-0.00045,-0.00016,-0.00016999999999999999,-2e-05,0.00027,7e-05,2.9999999999999997e-05,0.00014,3
9959,10393,-0.00045,-0.00016,-0.00016999999999999999,-2e-05,0.00027,7e-05,2.9999999999999997e-05,0.00014,3
9960,10394,-0.00045,-0.00016,-0.00016999999999999999,-2e-05,0.00027,7e-05,2.9999999999999997e-05,0.00014,3
9961,10395,-0.00045,-0.00016,-0.00016999999999999999,-2e-05,0.00027,7e-05,2.9999999999999997e-05,0.00014,3
9962,10396,-0.00045,-0.00016,-0.00016999999999999999,-2e-05,0.00027,7e-05,2.9999999999999997e-05,0.00014,3
9963,10397,-0.00045,-0.00016,-0.00016999999999999999,-2e-05,0.00027,7e-05,2.9999999999999997e-05,0.00014,3
9964,10398,-0.00045,-0.00016,-0.00016999999999999999,-2e-05,0.00027,7e-05,2.9999999999999997e-05,0.00014,3
9965,10399,-0.00045,-0.00016,-0.00016999999999999999,-2e-05,0.00027,7e-05,2.9999999999999997e-05,0.00014,3
9966,10400,-0.00045,-0.00016,-0.00016999999999999999,-2e-05,0.00027,7e-05,2.9999999999999997e-05,0.00014,3
9967,10401,-0.00045,-0.00016,-0.00016999999999999999,-2e-05,0.00027,7e-05,2.9999999999999997e-05,0.00014,3
9968,10402,-0.00045,-0.00016,-0.00016999999999999999,-2e-05,0.00027,7e-05,2.9999999999999997e-05,0.00014,3
9969,10404,-0.00045,-0.00016,-0.00016999999999999999,-2e-05,0.00027,7e-05,2.9999999999999997e-05,0.00014,3
9970,10405,0.00063,0.00044,0.00032,8e-05,-0.00025,5.9999999999999995e-05,5e-05,0.00021,3
9971,10406,0.00063,0.00044,0.00032,8e-05,-0.00025,5.9999999999999995e-05,5e-05,0.00021,3
9972,10407,0.00063,0.00044,0.00032,8e-05,-0.00025,5.9999999999999995e-05,5e-05,0.00021,3
9973,10408,0.00063,0.00044,0.00032,8e-05,-0.00025,5.9999999999999995e-05,5e-05,0.00021,3
9974,10409,0.00063,0.00044,0.00032,8e-05,-0.00025,5.9999999999999995e-05,5e-05,0.00021,3
9975,10410,0.00063,0.00044,0.00032,8e-05,-0.00025,5.9999999999999995e-05,5e-05,0.00021,3
9976,10411,0.00063,0.00044,0.00032,8e-05,-0.00025,5.9999999999999995e-05,5e-05,0.00021,3
9977,10412,0.00063,0.00044,0.00032,8e-05,-0.00025,5.9999999999999995e-05,5e-05,0.00021,3
9978,10413,0.00063,0.00044,0.00032,8e-05,-0.00025,5.9999999999999995e-05,5e-05,0.00021,3
9979,10414,0.00063,0.00044,0.00032,8e-05,-0.00025,5.9999999999999995e-05,5e-05,0.00021,3
9980,10415,0.00063,0.00044,0.00032,8e-05,-0.00025,5.9999999999999995e-05,5e-05,0.00021,3
9981,10416,0.00063,0.00044,0.00032,8e-05,-0.00025,5.9999999999999995e-05,5e-05,0.00021,3
9982,10417,0.00063,0.00044,0.00032,8e-05,-0.00025,5.9999999999999995e-05,5e-05,0.00021,3
9983,10418,-5e-05,-0.00011,-0.00029,-0.00016,-1e-05,-4e-05,-1e-05,-0.00016999999999999999,3
9984,10419,-5e-05,-0.00011,-0.00029,-0.00016,-1e-05,-4e-05,-1e-05,-0.00016999999999999999,3
9985,10420,-5e-05,-0.00011,-0.00029,-0.00016,-1e-05,-4e-05,-1e-05,-0.00016999999999999999,3
9986,10421,-5e-05,-0.00011,-0.00029,-0.00016,-1e-05,-4e-05,-1e-05,-0.00016999999999999999,3
9987,10422,-5e-05,-0.00011,-0.00029,-0.00016,-1e-05,-4e-05,-1e-05,-0.00016999999999999999,3
9988,10423,-5e-05,-0.00011,-0.00029,-0.00016,-1e-05,-4e-05,-1e-05,-0.00016999999999999999,3
9989,10424,-5e-05,-0.00011,-0.00029,-0.00016,-1e-05,-4e-05,-1e-05,-0.00016999999999999999,3
9990,10425,9e-05,-9e-05,-7e-05,-0.0001,-0.00022999999999999998,-2e-05,-0.00011,7e-05,3
9991,10426,9e-05,-9e-05,-7e-05,-0.0001,-0.00022999999999999998,-2e-05,-0.00011,7e-05,3
9992,10427,9e-05,-9e-05,-7e-05,-0.0001,-0.00022999999999999998,-2e-05,-0.00011,7e-05,3
9993,10428,9e-05,-9e-05,-7e-05,-0.0001,-0.00022999999999999998,-2e-05,-0.00011,7e-05,3
9994,10429,9e-05,-9e-05,-7e-05,-0.0001,-0.00022999999999999998,-2e-05,-0.00011,7e-05,3
9995,10430,9e-05,-9e-05,-7e-05,-0.0001,-0.00022999999999999998,-2e-05,-0.00011,7e-05,3
9996,10431,9e-05,-9e-05,-7e-05,-0.0001,-0.00022999999999999998,-2e-05,-0.00011,7e-05,3
9997,10432,9e-05,-9e-05,-7e-05,-0.0001,-0.00022999999999999998,-2e-05,-0.00011,7e-05,3
9998,10433,9e-05,-9e-05,-7e-05,-0.0001,-0.00022999999999999998,-2e-05,-0.00011,7e-05,3
9999,10434,9e-05,-9e-05,-7e-05,-0.0001,-0.00022999999999999998,-2e-05,-0.00011,7e-05,3
10000,10435,9e-05,-9e-05,-7e-05,-0.0001,-0.00022999999999999998,-2e-05,-0.00011,7e-05,3
10001,10436,9e-05,-9e-05,-7e-05,-0.0001,-0.00022999999999999998,-2e-05,-0.00011,7e-05,3
10002,10438,9e-05,-9e-05,-7e-05,-0.0001,-0.00022999999999999998,-2e-05,-0.00011,7e-05,3
10003,10439,9e-05,-9e-05,-7e-05,-0.0001,-0.00022999999999999998,-2e-05,-0.00011,7e-05,3
10004,10440,9e-05,-9e-05,-7e-05,-0.0001,-0.00022999999999999998,-2e-05,-0.00011,7e-05,3
10005,10441,5e-05,4e-05,2.9999999999999997e-05,7e-05,-2.9999999999999997e-05,-2.9999999999999997e-05,-2.9999999999999997e-05,-0.00023999999999999998,3
10006,10442,5e-05,4e-05,2.9999999999999997e-05,7e-05,-2.9999999999999997e-05,-2.9999999999999997e-05,-2.9999999999999997e-05,-0.00023999999999999998,3
10007,10443,-0.00054,-0.00018999999999999998,-0.00042,-0.00018,-0.00011999999999999999,-2e-05,1e-05,-0.00016,3
10008,10444,-0.00054,-0.00018999999999999998,-0.00042,-0.00018,-0.00011999999999999999,-2e-05,1e-05,-0.00016,3
10009,10445,-0.00054,-0.00018999999999999998,-0.00042,-0.00018,-0.00011999999999999999,-2e-05,1e-05,-0.00016,3
10010,10446,-0.00054,-0.00018999999999999998,-0.00042,-0.00018,-0.00011999999999999999,-2e-05,1e-05,-0.00016,3
10011,10447,-0.00054,-0.00018999999999999998,-0.00042,-0.00018,-0.00011999999999999999,-2e-05,1e-05,-0.00016,3
10012,10448,-0.00054,-0.00018999999999999998,-0.00042,-0.00018,-0.00011999999999999999,-2e-05,1e-05,-0.00016,3
10013,10449,-0.00054,-0.00018999999999999998,-0.00042,-0.00018,-0.00011999999999999999,-2e-05,1e-05,-0.00016,3
10014,10450,-0.00054,-0.00018999999999999998,-0.00042,-0.00018,-0.00011999999999999999,-2e-05,1e-05,-0.00016,3
10015,10452,-0.00054,-0.00018999999999999998,-0.00042,-0.00018,-0.00011999999999999999,-2e-05,1e-05,-0.00016,3
10016,10453,-0.00054,-0.00018999999999999998,-0.00042,-0.00018,-0.00011999999999999999,-2e-05,1e-05,-0.00016,3
10017,10454,-0.00054,-0.00018999999999999998,-0.00042,-0.00018,-0.00011999999999999999,-2e-05,1e-05,-0.00016,3
10018,10455,-0.00054,-0.00018999999999999998,-0.00042,-0.00018,-0.00011999999999999999,-2e-05,1e-05,-0.00016,3
10019,10456,-0.00054,-0.00018999999999999998,-0.00042,-0.00018,-0.00011999999999999999,-2e-05,1e-05,-0.00016,3
10020,10457,-0.00054,-0.00018999999999999998,-0.00042,-0.00018,-0.00011999999999999999,-2e-05,1e-05,-0.00016,3
10021,10458,-0.00054,-0.00018999999999999998,-0.00042,-0.00018,-0.00011999999999999999,-2e-05,1e-05,-0.00016,3
10022,10459,-0.00054,-0.00018999999999999998,-0.00042,-0.00018,-0.00011999999999999999,-2e-05,1e-05,-0.00016,3
10023,10460,-0.00054,-0.00018999999999999998,-0.00042,-0.00018,-0.00011999999999999999,-2e-05,1e-05,-0.00016,3
10024,10461,-0.00054,-0.00018999999999999998,-0.00042,-0.00018,-0.00011999999999999999,-2e-05,1e-05,-0.00016,3
10025,10462,-0.00054,-0.00018999999999999998,-0.00042,-0.00018,-0.00011999999999999999,-2e-05,1e-05,-0.00016,3
10026,10463,-0.00054,-0.00018999999999999998,-0.00042,-0.00018,-0.00011999999999999999,-2e-05,1e-05,-0.00016,3
10027,10464,-1e-05,9e-05,0.00042,0.00022,0.00011999999999999999,-7e-05,1e-05,-4e-05,3
10028,10465,5.9999999999999995e-05,-0.00033999999999999997,-0.0005099999999999999,-0.00016999999999999999,-0.00016999999999999999,-8e-05,-8e-05,2.9999999999999997e-05,3
10029,10466,5.9999999999999995e-05,-0.00033999999999999997,-0.0005099999999999999,-0.00016999999999999999,-0.00016999999999999999,-8e-05,-8e-05,2.9999999999999997e-05,3
10030,10467,5.9999999999999995e-05,-0.00033999999999999997,-0.0005099999999999999,-0.00016999999999999999,-0.00016999999999999999,-8e-05,-8e-05,2.9999999999999997e-05,3
10031,10468,5.9999999999999995e-05,-0.00033999999999999997,-0.0005099999999999999,-0.00016999999999999999,-0.00016999999999999999,-8e-05,-8e-05,2.9999999999999997e-05,3
10032,10469,5.9999999999999995e-05,-0.00033999999999999997,-0.0005099999999999999,-0.00016999999999999999,-0.00016999999999999999,-8e-05,-8e-05,2.9999999999999997e-05,3
10033,10470,5.9999999999999995e-05,-0.00033999999999999997,-0.0005099999999999999,-0.00016999999999999999,-0.00016999999999999999,-8e-05,-8e-05,2.9999999999999997e-05,3
10034,10471,5.9999999999999995e-05,-0.00033999999999999997,-0.0005099999999999999,-0.00016999999999999999,-0.00016999999999999999,-8e-05,-8e-05,2.9999999999999997e-05,3
10035,10472,5.9999999999999995e-05,-0.00033999999999999997,-0.0005099999999999999,-0.00016999999999999999,-0.00016999999999999999,-8e-05,-8e-05,2.9999999999999997e-05,3
10036,10473,5.9999999999999995e-05,-0.00033999999999999997,-0.0005099999999999999,-0.00016999999999999999,-0.00016999999999999999,-8e-05,-8e-05,2.9999999999999997e-05,3
10037,10474,5.9999999999999995e-05,-0.00033999999999999997,-0.0005099999999999999,-0.00016999999999999999,-0.00016999999999999999,-8e-05,-8e-05,2.9999999999999997e-05,3
10038,10475,5.9999999999999995e-05,-0.00033999999999999997,-0.0005099999999999999,-0.00016999999999999999,-0.00016999999999999999,-8e-05,-8e-05,2.9999999999999997e-05,3
10039,10476,5.9999999999999995e-05,-0.00033999999999999997,-0.0005099999999999999,-0.00016999999999999999,-0.00016999999999999999,-8e-05,-8e-05,2.9999999999999997e-05,3
10040,10477,-1e-05,0.00026000000000000003,0.00011999999999999999,2e-05,0.00021,1e-05,2e-05,5.9999999999999995e-05,3
10041,10478,-1e-05,0.00026000000000000003,0.00011999999999999999,2e-05,0.00021,1e-05,2e-05,5.9999999999999995e-05,3
10042,10479,-1e-05,0.00026000000000000003,0.00011999999999999999,2e-05,0.00021,1e-05,2e-05,5.9999999999999995e-05,3
10043,10480,-1e-05,0.00026000000000000003,0.00011999999999999999,2e-05,0.00021,1e-05,2e-05,5.9999999999999995e-05,3
10044,10481,-1e-05,0.00026000000000000003,0.00011999999999999999,2e-05,0.00021,1e-05,2e-05,5.9999999999999995e-05,3
10045,10482,-1e-05,0.00026000000000000003,0.00011999999999999999,2e-05,0.00021,1e-05,2e-05,5.9999999999999995e-05,3
10046,10486,1e-05,0.0001,0.00044,0.00016999999999999999,0.00011999999999999999,2e-05,8e-05,4e-05,3
10047,10487,1e-05,0.0001,0.00044,0.00016999999999999999,0.00011999999999999999,2e-05,8e-05,4e-05,3
10048,10488,1e-05,0.0001,0.00044,0.00016999999999999999,0.00011999999999999999,2e-05,8e-05,4e-05,3
10049,10489,1e-05,0.0001,0.00044,0.00016999999999999999,0.00011999999999999999,2e-05,8e-05,4e-05,3
10050,10490,1e-05,0.0001,0.00044,0.00016999999999999999,0.00011999999999999999,2e-05,8e-05,4e-05,3
10051,10491,1e-05,0.0001,0.00044,0.00016999999999999999,0.00011999999999999999,2e-05,8e-05,4e-05,3
10052,10492,1e-05,0.0001,0.00044,0.00016999999999999999,0.00011999999999999999,2e-05,8e-05,4e-05,3
10053,10493,1e-05,0.0001,0.00044,0.00016999999999999999,0.00011999999999999999,2e-05,8e-05,4e-05,3
10054,10494,1e-05,0.0001,0.00044,0.00016999999999999999,0.00011999999999999999,2e-05,8e-05,4e-05,3
10055,10495,1e-05,0.0001,0.00044,0.00016999999999999999,0.00011999999999999999,2e-05,8e-05,4e-05,3
10056,10496,1e-05,0.0001,0.00044,0.00016999999999999999,0.00011999999999999999,2e-05,8e-05,4e-05,3
10057,10497,1e-05,0.0001,0.00044,0.00016999999999999999,0.00011999999999999999,2e-05,8e-05,4e-05,3
10058,10499,1e-05,0.0001,0.00044,0.00016999999999999999,0.00011999999999999999,2e-05,8e-05,4e-05,3
10059,10500,1e-05,0.0001,0.00044,0.00016999999999999999,0.00011999999999999999,2e-05,8e-05,4e-05,3
10060,10501,0.00035,-0.00022999999999999998,-0.00045999999999999996,-0.00021,0.00011999999999999999,0.00035,2.9999999999999997e-05,5e-05,3
10061,10502,0.00035,-0.00022999999999999998,-0.00045999999999999996,-0.00021,0.00011999999999999999,0.00035,2.9999999999999997e-05,5e-05,3
10062,10503,0.00023999999999999998,0.00013000000000000002,-0.00036,-5e-05,7e-05,0.00013000000000000002,-2e-05,-7e-05,3
10063,10504,0.00023999999999999998,0.00013000000000000002,-0.00036,-5e-05,7e-05,0.00013000000000000002,-2e-05,-7e-05,3
10064,10505,0.00023999999999999998,0.00013000000000000002,-0.00036,-5e-05,7e-05,0.00013000000000000002,-2e-05,-7e-05,3
10065,10506,0.00023999999999999998,0.00013000000000000002,-0.00036,-5e-05,7e-05,0.00013000000000000002,-2e-05,-7e-05,3
10066,10507,0.00023999999999999998,0.00013000000000000002,-0.00036,-5e-05,7e-05,0.00013000000000000002,-2e-05,-7e-05,3
10067,10508,0.00023999999999999998,0.00013000000000000002,-0.00036,-5e-05,7e-05,0.00013000000000000002,-2e-05,-7e-05,3
10068,10509,0.00023999999999999998,0.00013000000000000002,-0.00036,-5e-05,7e-05,0.00013000000000000002,-2e-05,-7e-05,3
10069,10510,0.00023999999999999998,0.00013000000000000002,-0.00036,-5e-05,7e-05,0.00013000000000000002,-2e-05,-7e-05,3
10070,10511,0.00023999999999999998,0.00013000000000000002,-0.00036,-5e-05,7e-05,0.00013000000000000002,-2e-05,-7e-05,3
10071,10512,0.00023999999999999998,0.00013000000000000002,-0.00036,-5e-05,7e-05,0.00013000000000000002,-2e-05,-7e-05,3
10072,10513,0.00023999999999999998,0.00013000000000000002,-0.00036,-5e-05,7e-05,0.00013000000000000002,-2e-05,-7e-05,3
10073,10514,0.00023999999999999998,0.00013000000000000002,-0.00036,-5e-05,7e-05,0.00013000000000000002,-2e-05,-7e-05,3
10074,10515,0.00023999999999999998,0.00013000000000000002,-0.00036,-5e-05,7e-05,0.00013000000000000002,-2e-05,-7e-05,3
10075,10516,0.00023999999999999998,0.00013000000000000002,-0.00036,-5e-05,7e-05,0.00013000000000000002,-2e-05,-7e-05,3
10076,10517,0.00023999999999999998,0.00013000000000000002,-0.00036,-5e-05,7e-05,0.00013000000000000002,-2e-05,-7e-05,3
10077,10518,0.00023999999999999998,0.00013000000000000002,-0.00036,-5e-05,7e-05,0.00013000000000000002,-2e-05,-7e-05,3
10078,10519,0.00023999999999999998,0.00013000000000000002,-0.00036,-5e-05,7e-05,0.00013000000000000002,-2e-05,-7e-05,3
10079,10520,0.00023999999999999998,0.00013000000000000002,-0.00036,-5e-05,7e-05,0.00013000000000000002,-2e-05,-7e-05,3
10080,10521,0.00023999999999999998,0.00013000000000000002,-0.00036,-5e-05,7e-05,0.00013000000000000002,-2e-05,-7e-05,3
10081,10522,0.00023999999999999998,0.00013000000000000002,-0.00036,-5e-05,7e-05,0.00013000000000000002,-2e-05,-7e-05,3
10082,10523,0.00023999999999999998,0.00013000000000000002,-0.00036,-5e-05,7e-05,0.00013000000000000002,-2e-05,-7e-05,3
10083,10524,-0.0002,0.0001,0.00027,0.0001,2e-05,-0.00011,-5e-05,-8e-05,3
10084,10525,2e-05,-5.9999999999999995e-05,0.00015,0.0,-1e-05,0.00011,-1e-05,-2e-05,3
10085,10526,2e-05,-5.9999999999999995e-05,0.00015,0.0,-1e-05,0.00011,-1e-05,-2e-05,3
10086,10527,2e-05,-5.9999999999999995e-05,0.00015,0.0,-1e-05,0.00011,-1e-05,-2e-05,3
10087,10528,2e-05,-5.9999999999999995e-05,0.00015,0.0,-1e-05,0.00011,-1e-05,-2e-05,3
10088,10529,2e-05,-5.9999999999999995e-05,0.00015,0.0,-1e-05,0.00011,-1e-05,-2e-05,3
10089,10530,2e-05,-5.9999999999999995e-05,0.00015,0.0,-1e-05,0.00011,-1e-05,-2e-05,3
10090,10531,2e-05,-5.9999999999999995e-05,0.00015,0.0,-1e-05,0.00011,-1e-05,-2e-05,3
10091,10532,2e-05,-5.9999999999999995e-05,0.00015,0.0,-1e-05,0.00011,-1e-05,-2e-05,3
10092,10533,2e-05,-5.9999999999999995e-05,0.00015,0.0,-1e-05,0.00011,-1e-05,-2e-05,3
10093,10534,2e-05,-5.9999999999999995e-05,0.00015,0.0,-1e-05,0.00011,-1e-05,-2e-05,3
10094,10535,2e-05,-5.9999999999999995e-05,0.00015,0.0,-1e-05,0.00011,-1e-05,-2e-05,3
10095,10536,2e-05,-5.9999999999999995e-05,0.00015,0.0,-1e-05,0.00011,-1e-05,-2e-05,3
10096,10538,-4e-05,-5.9999999999999995e-05,-0.00011,-0.00021,-0.00033,-0.0001,2.9999999999999997e-05,0.0001,3
10097,10539,-4e-05,-5.9999999999999995e-05,-0.00011,-0.00021,-0.00033,-0.0001,2.9999999999999997e-05,0.0001,3
10098,10540,-4e-05,-5.9999999999999995e-05,-0.00011,-0.00021,-0.00033,-0.0001,2.9999999999999997e-05,0.0001,3
10099,10541,-4e-05,-5.9999999999999995e-05,-0.00011,-0.00021,-0.00033,-0.0001,2.9999999999999997e-05,0.0001,3
10100,10542,-4e-05,-5.9999999999999995e-05,-0.00011,-0.00021,-0.00033,-0.0001,2.9999999999999997e-05,0.0001,3
10101,10543,-4e-05,-5.9999999999999995e-05,-0.00011,-0.00021,-0.00033,-0.0001,2.9999999999999997e-05,0.0001,3
10102,10545,-4e-05,-5.9999999999999995e-05,-0.00011,-0.00021,-0.00033,-0.0001,2.9999999999999997e-05,0.0001,3
10103,10546,-0.00018,-0.0001,-2e-05,-0.00021,-0.00054,-0.00025,-5e-05,7e-05,3
10104,10547,-0.00018,-0.0001,-2e-05,-0.00021,-0.00054,-0.00025,-5e-05,7e-05,3
10105,10548,-0.00018,-0.0001,-2e-05,-0.00021,-0.00054,-0.00025,-5e-05,7e-05,3
10106,10549,-0.00018,-0.0001,-2e-05,-0.00021,-0.00054,-0.00025,-5e-05,7e-05,3
10107,10550,-0.00018,-0.0001,-2e-05,-0.00021,-0.00054,-0.00025,-5e-05,7e-05,3
10108,10551,-0.00018,-0.0001,-2e-05,-0.00021,-0.00054,-0.00025,-5e-05,7e-05,3
10109,10552,-0.00018,-0.0001,-2e-05,-0.00021,-0.00054,-0.00025,-5e-05,7e-05,3
10110,10553,-0.00018,-0.0001,-2e-05,-0.00021,-0.00054,-0.00025,-5e-05,7e-05,3
10111,10554,-0.00018,-0.0001,-2e-05,-0.00021,-0.00054,-0.00025,-5e-05,7e-05,3
10112,10555,-0.00018,-0.0001,-2e-05,-0.00021,-0.00054,-0.00025,-5e-05,7e-05,3
10113,10556,-0.00018,-0.0001,-2e-05,-0.00021,-0.00054,-0.00025,-5e-05,7e-05,3
10114,10557,-0.00018,-0.0001,-2e-05,-0.00021,-0.00054,-0.00025,-5e-05,7e-05,3
10115,10558,-0.00018,-0.0001,-2e-05,-0.00021,-0.00054,-0.00025,-5e-05,7e-05,3
10116,10559,-0.00018,-0.0001,-2e-05,-0.00021,-0.00054,-0.00025,-5e-05,7e-05,3
10117,10560,-0.00018,-0.0001,-2e-05,-0.00021,-0.00054,-0.00025,-5e-05,7e-05,3
10118,10561,0.00022999999999999998,-7e-05,0.00013000000000000002,-0.0001,0.0,-8e-05,5e-05,0.00023999999999999998,3
10119,10562,0.00022999999999999998,-7e-05,0.00013000000000000002,-0.0001,0.0,-8e-05,5e-05,0.00023999999999999998,3
10120,10563,8e-05,-2e-05,0.00011999999999999999,0.0001,-0.00015,-5.9999999999999995e-05,-5e-05,-9e-05,3
10121,10564,8e-05,-2e-05,0.00011999999999999999,0.0001,-0.00015,-5.9999999999999995e-05,-5e-05,-9e-05,3
10122,10565,8e-05,-2e-05,0.00011999999999999999,0.0001,-0.00015,-5.9999999999999995e-05,-5e-05,-9e-05,3
10123,10566,8e-05,-2e-05,0.00011999999999999999,0.0001,-0.00015,-5.9999999999999995e-05,-5e-05,-9e-05,3
10124,10567,8e-05,-2e-05,0.00011999999999999999,0.0001,-0.00015,-5.9999999999999995e-05,-5e-05,-9e-05,3
10125,10568,8e-05,-2e-05,0.00011999999999999999,0.0001,-0.00015,-5.9999999999999995e-05,-5e-05,-9e-05,3
10126,10569,8e-05,-2e-05,0.00011999999999999999,0.0001,-0.00015,-5.9999999999999995e-05,-5e-05,-9e-05,3
10127,10570,8e-05,-2e-05,0.00011999999999999999,0.0001,-0.00015,-5.9999999999999995e-05,-5e-05,-9e-05,3
10128,10571,8e-05,-2e-05,0.00011999999999999999,0.0001,-0.00015,-5.9999999999999995e-05,-5e-05,-9e-05,3
10129,10572,8e-05,-2e-05,0.00011999999999999999,0.0001,-0.00015,-5.9999999999999995e-05,-5e-05,-9e-05,3
10130,10573,8e-05,-2e-05,0.00011999999999999999,0.0001,-0.00015,-5.9999999999999995e-05,-5e-05,-9e-05,3
10131,10574,8e-05,-2e-05,0.00011999999999999999,0.0001,-0.00015,-5.9999999999999995e-05,-5e-05,-9e-05,3
10132,10575,8e-05,-2e-05,0.00011999999999999999,0.0001,-0.00015,-5.9999999999999995e-05,-5e-05,-9e-05,3
10133,10576,8e-05,-2e-05,0.00011999999999999999,0.0001,-0.00015,-5.9999999999999995e-05,-5e-05,-9e-05,3
10134,10577,8e-05,-2e-05,0.00011999999999999999,0.0001,-0.00015,-5.9999999999999995e-05,-5e-05,-9e-05,3
10135,10578,8e-05,-2e-05,0.00011999999999999999,0.0001,-0.00015,-5.9999999999999995e-05,-5e-05,-9e-05,3
10136,10579,8e-05,-2e-05,0.00011999999999999999,0.0001,-0.00015,-5.9999999999999995e-05,-5e-05,-9e-05,3
10137,10580,8e-05,-2e-05,0.00011999999999999999,0.0001,-0.00015,-5.9999999999999995e-05,-5e-05,-9e-05,3
10138,10581,8e-05,-2e-05,0.00011999999999999999,0.0001,-0.00015,-5.9999999999999995e-05,-5e-05,-9e-05,3
10139,10582,8e-05,-2e-05,0.00011999999999999999,0.0001,-0.00015,-5.9999999999999995e-05,-5e-05,-9e-05,3
10140,10583,8e-05,-2e-05,0.00011999999999999999,0.0001,-0.00015,-5.9999999999999995e-05,-5e-05,-9e-05,3
10141,10584,-0.00018999999999999998,-0.00031,-0.00035,-0.00015,-0.00016,4e-05,-2.9999999999999997e-05,-0.00022999999999999998,3
10142,10585,-0.00011999999999999999,-0.00018999999999999998,-0.00011999999999999999,-4e-05,-0.00015,0.00013000000000000002,0.00011999999999999999,0.00039,3
10143,10586,-0.00011999999999999999,-0.00018999999999999998,-0.00011999999999999999,-4e-05,-0.00015,0.00013000000000000002,0.00011999999999999999,0.00039,3
10144,10588,-0.00011999999999999999,-0.00018999999999999998,-0.00011999999999999999,-4e-05,-0.00015,0.00013000000000000002,0.00011999999999999999,0.00039,3
10145,10589,-0.00011999999999999999,-0.00018999999999999998,-0.00011999999999999999,-4e-05,-0.00015,0.00013000000000000002,0.00011999999999999999,0.00039,3
10146,10590,-0.00011999999999999999,-0.00018999999999999998,-0.00011999999999999999,-4e-05,-0.00015,0.00013000000000000002,0.00011999999999999999,0.00039,3
10147,10591,-0.00011999999999999999,-0.00018999999999999998,-0.00011999999999999999,-4e-05,-0.00015,0.00013000000000000002,0.00011999999999999999,0.00039,3
10148,10593,-0.00011999999999999999,-0.00018999999999999998,-0.00011999999999999999,-4e-05,-0.00015,0.00013000000000000002,0.00011999999999999999,0.00039,3
10149,10594,-0.00011999999999999999,-0.00018999999999999998,-0.00011999999999999999,-4e-05,-0.00015,0.00013000000000000002,0.00011999999999999999,0.00039,3
10150,10595,-0.00011999999999999999,-0.00018999999999999998,-0.00011999999999999999,-4e-05,-0.00015,0.00013000000000000002,0.00011999999999999999,0.00039,3
10151,10596,-0.00011999999999999999,-0.00018999999999999998,-0.00011999999999999999,-4e-05,-0.00015,0.00013000000000000002,0.00011999999999999999,0.00039,3
10152,10598,-0.00014,4e-05,0.00011,4e-05,0.00011999999999999999,0.0001,5.9999999999999995e-05,-7e-05,3
10153,10599,-0.00014,4e-05,0.00011,4e-05,0.00011999999999999999,0.0001,5.9999999999999995e-05,-7e-05,3
10154,10600,-0.00014,4e-05,0.00011,4e-05,0.00011999999999999999,0.0001,5.9999999999999995e-05,-7e-05,3
10155,10601,-0.00014,4e-05,0.00011,4e-05,0.00011999999999999999,0.0001,5.9999999999999995e-05,-7e-05,3
10156,10602,-0.00014,4e-05,0.00011,4e-05,0.00011999999999999999,0.0001,5.9999999999999995e-05,-7e-05,3
10157,10603,-0.00014,4e-05,0.00011,4e-05,0.00011999999999999999,0.0001,5.9999999999999995e-05,-7e-05,3
10158,10604,-0.00014,4e-05,0.00011,4e-05,0.00011999999999999999,0.0001,5.9999999999999995e-05,-7e-05,3
10159,10605,-0.00014,4e-05,0.00011,4e-05,0.00011999999999999999,0.0001,5.9999999999999995e-05,-7e-05,3
10160,10606,0.00013000000000000002,0.00025,0.00021,-2e-05,9e-05,-9e-05,1e-05,-0.0001,3
10161,10607,0.00013000000000000002,0.00025,0.00021,-2e-05,9e-05,-9e-05,1e-05,-0.0001,3
10162,10608,0.00013000000000000002,0.00025,0.00021,-2e-05,9e-05,-9e-05,1e-05,-0.0001,3
10163,10609,0.00013000000000000002,0.00025,0.00021,-2e-05,9e-05,-9e-05,1e-05,-0.0001,3
10164,10610,0.00013000000000000002,0.00025,0.00021,-2e-05,9e-05,-9e-05,1e-05,-0.0001,3
10165,10611,0.00013000000000000002,0.00025,0.00021,-2e-05,9e-05,-9e-05,1e-05,-0.0001,3
10166,10612,0.00013000000000000002,0.00025,0.00021,-2e-05,9e-05,-9e-05,1e-05,-0.0001,3
10167,10613,0.00013000000000000002,0.00025,0.00021,-2e-05,9e-05,-9e-05,1e-05,-0.0001,3
10168,10614,0.00013000000000000002,0.00025,0.00021,-2e-05,9e-05,-9e-05,1e-05,-0.0001,3
10169,10615,0.00013000000000000002,0.00025,0.00021,-2e-05,9e-05,-9e-05,1e-05,-0.0001,3
10170,10616,0.00013000000000000002,0.00025,0.00021,-2e-05,9e-05,-9e-05,1e-05,-0.0001,3
10171,10617,0.00013000000000000002,0.00025,0.00021,-2e-05,9e-05,-9e-05,1e-05,-0.0001,3
10172,10618,0.00013000000000000002,0.00025,0.00021,-2e-05,9e-05,-9e-05,1e-05,-0.0001,3
10173,10619,0.00013000000000000002,0.00025,0.00021,-2e-05,9e-05,-9e-05,1e-05,-0.0001,3
10174,10620,0.00013000000000000002,0.00025,0.00021,-2e-05,9e-05,-9e-05,1e-05,-0.0001,3
10175,10621,-0.00059,0.0002,0.00039,-1e-05,-8e-05,-4e-05,0.0,-0.0002,3
10176,10622,-0.00059,0.0002,0.00039,-1e-05,-8e-05,-4e-05,0.0,-0.0002,3
10177,10623,5e-05,0.00027,0.00021,0.00022,0.00016999999999999999,-9e-05,-0.00011,-0.00015,3
10178,10624,5e-05,0.00027,0.00021,0.00022,0.00016999999999999999,-9e-05,-0.00011,-0.00015,3
10179,10625,5e-05,0.00027,0.00021,0.00022,0.00016999999999999999,-9e-05,-0.00011,-0.00015,3
10180,10626,5e-05,0.00027,0.00021,0.00022,0.00016999999999999999,-9e-05,-0.00011,-0.00015,3
10181,10627,5e-05,0.00027,0.00021,0.00022,0.00016999999999999999,-9e-05,-0.00011,-0.00015,3
10182,10628,5e-05,0.00027,0.00021,0.00022,0.00016999999999999999,-9e-05,-0.00011,-0.00015,3
10183,10629,5e-05,0.00027,0.00021,0.00022,0.00016999999999999999,-9e-05,-0.00011,-0.00015,3
10184,10630,5e-05,0.00027,0.00021,0.00022,0.00016999999999999999,-9e-05,-0.00011,-0.00015,3
10185,10631,5e-05,0.00027,0.00021,0.00022,0.00016999999999999999,-9e-05,-0.00011,-0.00015,3
10186,10632,5e-05,0.00027,0.00021,0.00022,0.00016999999999999999,-9e-05,-0.00011,-0.00015,3
10187,10633,5e-05,0.00027,0.00021,0.00022,0.00016999999999999999,-9e-05,-0.00011,-0.00015,3
10188,10634,5e-05,0.00027,0.00021,0.00022,0.00016999999999999999,-9e-05,-0.00011,-0.00015,3
10189,10635,5e-05,0.00027,0.00021,0.00022,0.00016999999999999999,-9e-05,-0.00011,-0.00015,3
10190,10636,5e-05,0.00027,0.00021,0.00022,0.00016999999999999999,-9e-05,-0.00011,-0.00015,3
10191,10639,5e-05,0.00027,0.00021,0.00022,0.00016999999999999999,-9e-05,-0.00011,-0.00015,3
10192,10640,5e-05,0.00027,0.00021,0.00022,0.00016999999999999999,-9e-05,-0.00011,-0.00015,3
10193,10641,5e-05,0.00027,0.00021,0.00022,0.00016999999999999999,-9e-05,-0.00011,-0.00015,3
10194,10642,5e-05,0.00027,0.00021,0.00022,0.00016999999999999999,-9e-05,-0.00011,-0.00015,3
10195,10643,5e-05,0.00027,0.00021,0.00022,0.00016999999999999999,-9e-05,-0.00011,-0.00015,3
10196,10644,0.00101,9e-05,-5e-05,0.00011,0.00021,-0.00014,2.9999999999999997e-05,0.00043,3
10197,10645,-0.00018999999999999998,2e-05,0.0002,2.9999999999999997e-05,0.00011,0.00011,-5.9999999999999995e-05,-0.00058,3
10198,10646,-0.00018999999999999998,2e-05,0.0002,2.9999999999999997e-05,0.00011,0.00011,-5.9999999999999995e-05,-0.00058,3
10199,10648,-0.00018999999999999998,2e-05,0.0002,2.9999999999999997e-05,0.00011,0.00011,-5.9999999999999995e-05,-0.00058,3
10200,10649,-0.00018999999999999998,2e-05,0.0002,2.9999999999999997e-05,0.00011,0.00011,-5.9999999999999995e-05,-0.00058,3
10201,10650,-0.00018999999999999998,2e-05,0.0002,2.9999999999999997e-05,0.00011,0.00011,-5.9999999999999995e-05,-0.00058,3
10202,10651,-0.00018999999999999998,2e-05,0.0002,2.9999999999999997e-05,0.00011,0.00011,-5.9999999999999995e-05,-0.00058,3
10203,10652,-0.00018999999999999998,2e-05,0.0002,2.9999999999999997e-05,0.00011,0.00011,-5.9999999999999995e-05,-0.00058,3
10204,10653,-0.00018999999999999998,2e-05,0.0002,2.9999999999999997e-05,0.00011,0.00011,-5.9999999999999995e-05,-0.00058,3
10205,10654,-0.00018999999999999998,2e-05,0.0002,2.9999999999999997e-05,0.00011,0.00011,-5.9999999999999995e-05,-0.00058,3
10206,10655,-0.00018999999999999998,2e-05,0.0002,2.9999999999999997e-05,0.00011,0.00011,-5.9999999999999995e-05,-0.00058,3
10207,10656,-0.00018999999999999998,2e-05,0.0002,2.9999999999999997e-05,0.00011,0.00011,-5.9999999999999995e-05,-0.00058,3
10208,10657,-0.0003,-0.00037999999999999997,-0.0008300000000000001,-8e-05,-1e-05,-4e-05,-0.00018,5.9999999999999995e-05,3
10209,10658,-0.0003,-0.00037999999999999997,-0.0008300000000000001,-8e-05,-1e-05,-4e-05,-0.00018,5.9999999999999995e-05,3
10210,10659,-0.0003,-0.00037999999999999997,-0.0008300000000000001,-8e-05,-1e-05,-4e-05,-0.00018,5.9999999999999995e-05,3
10211,10660,-0.0003,-0.00037999999999999997,-0.0008300000000000001,-8e-05,-1e-05,-4e-05,-0.00018,5.9999999999999995e-05,3
10212,10661,-0.0003,-0.00037999999999999997,-0.0008300000000000001,-8e-05,-1e-05,-4e-05,-0.00018,5.9999999999999995e-05,3
10213,10662,-0.0003,-0.00037999999999999997,-0.0008300000000000001,-8e-05,-1e-05,-4e-05,-0.00018,5.9999999999999995e-05,3
10214,10663,-0.0003,-0.00037999999999999997,-0.0008300000000000001,-8e-05,-1e-05,-4e-05,-0.00018,5.9999999999999995e-05,3
10215,10664,-0.0003,-0.00037999999999999997,-0.0008300000000000001,-8e-05,-1e-05,-4e-05,-0.00018,5.9999999999999995e-05,3
10216,10665,-0.0003,-0.00037999999999999997,-0.0008300000000000001,-8e-05,-1e-05,-4e-05,-0.00018,5.9999999999999995e-05,3
10217,10666,0.00032,-1e-05,0.00013000000000000002,4e-05,0.00014,0.00028,0.00022999999999999998,0.00021,3
10218,10667,0.00032,-1e-05,0.00013000000000000002,4e-05,0.00014,0.00028,0.00022999999999999998,0.00021,3
10219,10668,0.00032,-1e-05,0.00013000000000000002,4e-05,0.00014,0.00028,0.00022999999999999998,0.00021,3
10220,10669,0.00032,-1e-05,0.00013000000000000002,4e-05,0.00014,0.00028,0.00022999999999999998,0.00021,3
10221,10670,0.00032,-1e-05,0.00013000000000000002,4e-05,0.00014,0.00028,0.00022999999999999998,0.00021,3
10222,10671,0.00032,-1e-05,0.00013000000000000002,4e-05,0.00014,0.00028,0.00022999999999999998,0.00021,3
10223,10672,0.00032,-1e-05,0.00013000000000000002,4e-05,0.00014,0.00028,0.00022999999999999998,0.00021,3
10224,10673,0.00032,-1e-05,0.00013000000000000002,4e-05,0.00014,0.00028,0.00022999999999999998,0.00021,3
10225,10674,0.00032,-1e-05,0.00013000000000000002,4e-05,0.00014,0.00028,0.00022999999999999998,0.00021,3
10226,10675,0.00032,-1e-05,0.00013000000000000002,4e-05,0.00014,0.00028,0.00022999999999999998,0.00021,3
10227,10676,0.00032,-1e-05,0.00013000000000000002,4e-05,0.00014,0.00028,0.00022999999999999998,0.00021,3
10228,10677,0.00032,-1e-05,0.00013000000000000002,4e-05,0.00014,0.00028,0.00022999999999999998,0.00021,3
10229,10678,0.00032,-1e-05,0.00013000000000000002,4e-05,0.00014,0.00028,0.00022999999999999998,0.00021,3
10230,10679,0.00032,-1e-05,0.00013000000000000002,4e-05,0.00014,0.00028,0.00022999999999999998,0.00021,3
10231,10680,0.00032,-1e-05,0.00013000000000000002,4e-05,0.00014,0.00028,0.00022999999999999998,0.00021,3
10232,10681,-0.00014,2e-05,-5.9999999999999995e-05,-0.0001,-0.00016999999999999999,-5e-05,-2.9999999999999997e-05,-0.00018,3
10233,10682,-0.00014,2e-05,-5.9999999999999995e-05,-0.0001,-0.00016999999999999999,-5e-05,-2.9999999999999997e-05,-0.00018,3
10234,10683,-0.00091,-0.00023999999999999998,-0.00013000000000000002,-0.00022999999999999998,-5.9999999999999995e-05,2e-05,-1e-05,-0.00036,3
10235,10684,-0.00091,-0.00023999999999999998,-0.00013000000000000002,-0.00022999999999999998,-5.9999999999999995e-05,2e-05,-1e-05,-0.00036,3
10236,10686,-0.00091,-0.00023999999999999998,-0.00013000000000000002,-0.00022999999999999998,-5.9999999999999995e-05,2e-05,-1e-05,-0.00036,3
10237,10687,-0.00091,-0.00023999999999999998,-0.00013000000000000002,-0.00022999999999999998,-5.9999999999999995e-05,2e-05,-1e-05,-0.00036,3
10238,10688,-0.00091,-0.00023999999999999998,-0.00013000000000000002,-0.00022999999999999998,-5.9999999999999995e-05,2e-05,-1e-05,-0.00036,3
10239,10689,-0.00091,-0.00023999999999999998,-0.00013000000000000002,-0.00022999999999999998,-5.9999999999999995e-05,2e-05,-1e-05,-0.00036,3
10240,10690,-0.00091,-0.00023999999999999998,-0.00013000000000000002,-0.00022999999999999998,-5.9999999999999995e-05,2e-05,-1e-05,-0.00036,3
10241,10691,-0.00091,-0.00023999999999999998,-0.00013000000000000002,-0.00022999999999999998,-5.9999999999999995e-05,2e-05,-1e-05,-0.00036,3
10242,10692,-0.00091,-0.00023999999999999998,-0.00013000000000000002,-0.00022999999999999998,-5.9999999999999995e-05,2e-05,-1e-05,-0.00036,3
10243,10693,-0.00091,-0.00023999999999999998,-0.00013000000000000002,-0.00022999999999999998,-5.9999999999999995e-05,2e-05,-1e-05,-0.00036,3
10244,10694,-0.00091,-0.00023999999999999998,-0.00013000000000000002,-0.00022999999999999998,-5.9999999999999995e-05,2e-05,-1e-05,-0.00036,3
10245,10695,-0.00091,-0.00023999999999999998,-0.00013000000000000002,-0.00022999999999999998,-5.9999999999999995e-05,2e-05,-1e-05,-0.00036,3
10246,10696,-0.00091,-0.00023999999999999998,-0.00013000000000000002,-0.00022999999999999998,-5.9999999999999995e-05,2e-05,-1e-05,-0.00036,3
10247,10697,-0.00091,-0.00023999999999999998,-0.00013000000000000002,-0.00022999999999999998,-5.9999999999999995e-05,2e-05,-1e-05,-0.00036,3
10248,10698,-0.00091,-0.00023999999999999998,-0.00013000000000000002,-0.00022999999999999998,-5.9999999999999995e-05,2e-05,-1e-05,-0.00036,3
10249,10699,-0.00091,-0.00023999999999999998,-0.00013000000000000002,-0.00022999999999999998,-5.9999999999999995e-05,2e-05,-1e-05,-0.00036,3
10250,10700,-0.00091,-0.00023999999999999998,-0.00013000000000000002,-0.00022999999999999998,-5.9999999999999995e-05,2e-05,-1e-05,-0.00036,3
10251,10701,-0.00091,-0.00023999999999999998,-0.00013000000000000002,-0.00022999999999999998,-5.9999999999999995e-05,2e-05,-1e-05,-0.00036,3
10252,10702,-0.00091,-0.00023999999999999998,-0.00013000000000000002,-0.00022999999999999998,-5.9999999999999995e-05,2e-05,-1e-05,-0.00036,3
10253,10703,-0.00091,-0.00023999999999999998,-0.00013000000000000002,-0.00022999999999999998,-5.9999999999999995e-05,2e-05,-1e-05,-0.00036,3
10254,10704,-0.00011,0.00027,0.00029,0.0001,-8e-05,-4e-05,2.9999999999999997e-05,5.9999999999999995e-05,3
10255,10705,0.00021,-0.0002,-2e-05,-9e-05,-0.0002,-0.00026000000000000003,0.0,0.0002,3
10256,10706,0.00021,-0.0002,-2e-05,-9e-05,-0.0002,-0.00026000000000000003,0.0,0.0002,3
10257,10707,0.00021,-0.0002,-2e-05,-9e-05,-0.0002,-0.00026000000000000003,0.0,0.0002,3
10258,10708,0.00021,-0.0002,-2e-05,-9e-05,-0.0002,-0.00026000000000000003,0.0,0.0002,3
10259,10712,0.00021,-0.0002,-2e-05,-9e-05,-0.0002,-0.00026000000000000003,0.0,0.0002,3
10260,10713,0.00021,-0.0002,-2e-05,-9e-05,-0.0002,-0.00026000000000000003,0.0,0.0002,3
10261,10714,0.00021,-0.0002,-2e-05,-9e-05,-0.0002,-0.00026000000000000003,0.0,0.0002,3
10262,10715,0.00021,-0.0002,-2e-05,-9e-05,-0.0002,-0.00026000000000000003,0.0,0.0002,3
10263,10716,0.00021,-0.0002,-2e-05,-9e-05,-0.0002,-0.00026000000000000003,0.0,0.0002,3
10264,10717,0.00013000000000000002,0.00029,0.00033999999999999997,-1e-05,-0.00016999999999999999,-0.00018999999999999998,-5.9999999999999995e-05,-0.00013000000000000002,3
10265,10718,0.00013000000000000002,0.00029,0.00033999999999999997,-1e-05,-0.00016999999999999999,-0.00018999999999999998,-5.9999999999999995e-05,-0.00013000000000000002,3
10266,10719,0.00013000000000000002,0.00029,0.00033999999999999997,-1e-05,-0.00016999999999999999,-0.00018999999999999998,-5.9999999999999995e-05,-0.00013000000000000002,3
10267,10720,0.00013000000000000002,0.00029,0.00033999999999999997,-1e-05,-0.00016999999999999999,-0.00018999999999999998,-5.9999999999999995e-05,-0.00013000000000000002,3
10268,10721,0.00013000000000000002,0.00029,0.00033999999999999997,-1e-05,-0.00016999999999999999,-0.00018999999999999998,-5.9999999999999995e-05,-0.00013000000000000002,3
10269,10722,0.00013000000000000002,0.00029,0.00033999999999999997,-1e-05,-0.00016999999999999999,-0.00018999999999999998,-5.9999999999999995e-05,-0.00013000000000000002,3
10270,10723,0.00013000000000000002,0.00029,0.00033999999999999997,-1e-05,-0.00016999999999999999,-0.00018999999999999998,-5.9999999999999995e-05,-0.00013000000000000002,3
10271,10724,0.00013000000000000002,0.00029,0.00033999999999999997,-1e-05,-0.00016999999999999999,-0.00018999999999999998,-5.9999999999999995e-05,-0.00013000000000000002,3
10272,10725,0.00013000000000000002,0.00029,0.00033999999999999997,-1e-05,-0.00016999999999999999,-0.00018999999999999998,-5.9999999999999995e-05,-0.00013000000000000002,3
10273,10726,0.00015,0.00013000000000000002,0.00015,-5e-05,-0.00015,-8e-05,-1e-05,-4e-05,3
10274,10727,0.00015,0.00013000000000000002,0.00015,-5e-05,-0.00015,-8e-05,-1e-05,-4e-05,3
10275,10728,0.00015,0.00013000000000000002,0.00015,-5e-05,-0.00015,-8e-05,-1e-05,-4e-05,3
10276,10729,0.00015,0.00013000000000000002,0.00015,-5e-05,-0.00015,-8e-05,-1e-05,-4e-05,3
10277,10730,0.00015,0.00013000000000000002,0.00015,-5e-05,-0.00015,-8e-05,-1e-05,-4e-05,3
10278,10731,0.00015,0.00013000000000000002,0.00015,-5e-05,-0.00015,-8e-05,-1e-05,-4e-05,3
10279,10733,0.00015,0.00013000000000000002,0.00015,-5e-05,-0.00015,-8e-05,-1e-05,-4e-05,3
10280,10734,0.00015,0.00013000000000000002,0.00015,-5e-05,-0.00015,-8e-05,-1e-05,-4e-05,3
10281,10735,0.00015,0.00013000000000000002,0.00015,-5e-05,-0.00015,-8e-05,-1e-05,-4e-05,3
10282,10736,0.00015,0.00013000000000000002,0.00015,-5e-05,-0.00015,-8e-05,-1e-05,-4e-05,3
10283,10738,0.00015,0.00013000000000000002,0.00015,-5e-05,-0.00015,-8e-05,-1e-05,-4e-05,3
10284,10739,0.00015,0.00013000000000000002,0.00015,-5e-05,-0.00015,-8e-05,-1e-05,-4e-05,3
10285,10740,0.00015,0.00013000000000000002,0.00015,-5e-05,-0.00015,-8e-05,-1e-05,-4e-05,3
10286,10741,0.00022999999999999998,-0.00018999999999999998,0.0001,0.0,-4e-05,-0.00015,-9e-05,2.9999999999999997e-05,3
10287,10742,0.00022999999999999998,-0.00018999999999999998,0.0001,0.0,-4e-05,-0.00015,-9e-05,2.9999999999999997e-05,3
10288,10743,0.00035,-0.00036,-0.00033,2.9999999999999997e-05,0.00018999999999999998,-2.9999999999999997e-05,1e-05,0.0,3
10289,10744,0.00035,-0.00036,-0.00033,2.9999999999999997e-05,0.00018999999999999998,-2.9999999999999997e-05,1e-05,0.0,3
10290,10745,0.00035,-0.00036,-0.00033,2.9999999999999997e-05,0.00018999999999999998,-2.9999999999999997e-05,1e-05,0.0,3
10291,10746,0.00035,-0.00036,-0.00033,2.9999999999999997e-05,0.00018999999999999998,-2.9999999999999997e-05,1e-05,0.0,3
10292,10748,0.00035,-0.00036,-0.00033,2.9999999999999997e-05,0.00018999999999999998,-2.9999999999999997e-05,1e-05,0.0,3
10293,10749,0.00035,-0.00036,-0.00033,2.9999999999999997e-05,0.00018999999999999998,-2.9999999999999997e-05,1e-05,0.0,3
10294,10750,0.00035,-0.00036,-0.00033,2.9999999999999997e-05,0.00018999999999999998,-2.9999999999999997e-05,1e-05,0.0,3
10295,10751,0.00035,-0.00036,-0.00033,2.9999999999999997e-05,0.00018999999999999998,-2.9999999999999997e-05,1e-05,0.0,3
10296,10752,0.00035,-0.00036,-0.00033,2.9999999999999997e-05,0.00018999999999999998,-2.9999999999999997e-05,1e-05,0.0,3
10297,10753,0.00035,-0.00036,-0.00033,2.9999999999999997e-05,0.00018999999999999998,-2.9999999999999997e-05,1e-05,0.0,3
10298,10754,0.00035,-0.00036,-0.00033,2.9999999999999997e-05,0.00018999999999999998,-2.9999999999999997e-05,1e-05,0.0,3
10299,10755,0.00035,-0.00036,-0.00033,2.9999999999999997e-05,0.00018999999999999998,-2.9999999999999997e-05,1e-05,0.0,3
10300,10756,0.00035,-0.00036,-0.00033,2.9999999999999997e-05,0.00018999999999999998,-2.9999999999999997e-05,1e-05,0.0,3
10301,10757,0.00035,-0.00036,-0.00033,2.9999999999999997e-05,0.00018999999999999998,-2.9999999999999997e-05,1e-05,0.0,3
10302,10758,0.00035,-0.00036,-0.00033,2.9999999999999997e-05,0.00018999999999999998,-2.9999999999999997e-05,1e-05,0.0,3
10303,10759,0.00035,-0.00036,-0.00033,2.9999999999999997e-05,0.00018999999999999998,-2.9999999999999997e-05,1e-05,0.0,3
10304,10760,0.00035,-0.00036,-0.00033,2.9999999999999997e-05,0.00018999999999999998,-2.9999999999999997e-05,1e-05,0.0,3
10305,10761,0.00035,-0.00036,-0.00033,2.9999999999999997e-05,0.00018999999999999998,-2.9999999999999997e-05,1e-05,0.0,3
10306,10762,0.00035,-0.00036,-0.00033,2.9999999999999997e-05,0.00018999999999999998,-2.9999999999999997e-05,1e-05,0.0,3
10307,10763,0.00035,-0.00036,-0.00033,2.9999999999999997e-05,0.00018999999999999998,-2.9999999999999997e-05,1e-05,0.0,3
10308,10764,0.00037999999999999997,0.00022999999999999998,0.00026000000000000003,5.9999999999999995e-05,-5.9999999999999995e-05,4e-05,-7e-05,-8e-05,3
10309,10765,-0.00041,0.00018,0.00018999999999999998,0.0001,2e-05,-0.00016,-2e-05,8e-05,3
10310,10766,-0.00041,0.00018,0.00018999999999999998,0.0001,2e-05,-0.00016,-2e-05,8e-05,3
10311,10767,-0.00041,0.00018,0.00018999999999999998,0.0001,2e-05,-0.00016,-2e-05,8e-05,3
10312,10768,-0.00041,0.00018,0.00018999999999999998,0.0001,2e-05,-0.00016,-2e-05,8e-05,3
10313,10769,-0.00041,0.00018,0.00018999999999999998,0.0001,2e-05,-0.00016,-2e-05,8e-05,3
10314,10770,-0.00041,0.00018,0.00018999999999999998,0.0001,2e-05,-0.00016,-2e-05,8e-05,3
10315,10771,-0.00041,0.00018,0.00018999999999999998,0.0001,2e-05,-0.00016,-2e-05,8e-05,3
10316,10772,-0.00041,0.00018,0.00018999999999999998,0.0001,2e-05,-0.00016,-2e-05,8e-05,3
10317,10773,-0.00041,0.00018,0.00018999999999999998,0.0001,2e-05,-0.00016,-2e-05,8e-05,3
10318,10774,-0.00041,0.00018,0.00018999999999999998,0.0001,2e-05,-0.00016,-2e-05,8e-05,3
10319,10775,-0.00041,0.00018,0.00018999999999999998,0.0001,2e-05,-0.00016,-2e-05,8e-05,3
10320,10776,-0.00041,0.00018,0.00018999999999999998,0.0001,2e-05,-0.00016,-2e-05,8e-05,3
10321,10777,-0.00054,-0.00033,-9e-05,-0.0001,5.9999999999999995e-05,-4e-05,-5.9999999999999995e-05,-0.00021,3
10322,10779,-0.00054,-0.00033,-9e-05,-0.0001,5.9999999999999995e-05,-4e-05,-5.9999999999999995e-05,-0.00021,3
10323,10780,-0.00054,-0.00033,-9e-05,-0.0001,5.9999999999999995e-05,-4e-05,-5.9999999999999995e-05,-0.00021,3
10324,10781,-0.00054,-0.00033,-9e-05,-0.0001,5.9999999999999995e-05,-4e-05,-5.9999999999999995e-05,-0.00021,3
10325,10782,-0.00054,-0.00033,-9e-05,-0.0001,5.9999999999999995e-05,-4e-05,-5.9999999999999995e-05,-0.00021,3
10326,10783,-0.00054,-0.00033,-9e-05,-0.0001,5.9999999999999995e-05,-4e-05,-5.9999999999999995e-05,-0.00021,3
10327,10784,-0.00054,-0.00033,-9e-05,-0.0001,5.9999999999999995e-05,-4e-05,-5.9999999999999995e-05,-0.00021,3
10328,10785,-0.00054,-0.00033,-9e-05,-0.0001,5.9999999999999995e-05,-4e-05,-5.9999999999999995e-05,-0.00021,3
10329,10786,-0.00054,-0.00033,-9e-05,-0.0001,5.9999999999999995e-05,-4e-05,-5.9999999999999995e-05,-0.00021,3
10330,10787,-0.00054,-0.00033,-9e-05,-0.0001,5.9999999999999995e-05,-4e-05,-5.9999999999999995e-05,-0.00021,3
10331,10788,-9e-05,-0.00031,-0.00042,-9e-05,-5.9999999999999995e-05,0.0001,-8e-05,-2e-05,3
10332,10789,-9e-05,-0.00031,-0.00042,-9e-05,-5.9999999999999995e-05,0.0001,-8e-05,-2e-05,3
10333,10790,-9e-05,-0.00031,-0.00042,-9e-05,-5.9999999999999995e-05,0.0001,-8e-05,-2e-05,3
10334,10791,-9e-05,-0.00031,-0.00042,-9e-05,-5.9999999999999995e-05,0.0001,-8e-05,-2e-05,3
10335,10792,-9e-05,-0.00031,-0.00042,-9e-05,-5.9999999999999995e-05,0.0001,-8e-05,-2e-05,3
10336,10793,-9e-05,-0.00031,-0.00042,-9e-05,-5.9999999999999995e-05,0.0001,-8e-05,-2e-05,3
10337,10794,-9e-05,-0.00031,-0.00042,-9e-05,-5.9999999999999995e-05,0.0001,-8e-05,-2e-05,3
10338,10795,-9e-05,-0.00031,-0.00042,-9e-05,-5.9999999999999995e-05,0.0001,-8e-05,-2e-05,3
10339,10796,-9e-05,-0.00031,-0.00042,-9e-05,-5.9999999999999995e-05,0.0001,-8e-05,-2e-05,3
10340,10797,-9e-05,-0.00031,-0.00042,-9e-05,-5.9999999999999995e-05,0.0001,-8e-05,-2e-05,3
10341,10798,-9e-05,-0.00031,-0.00042,-9e-05,-5.9999999999999995e-05,0.0001,-8e-05,-2e-05,3
10342,10799,-9e-05,-0.00031,-0.00042,-9e-05,-5.9999999999999995e-05,0.0001,-8e-05,-2e-05,3
10343,10800,-9e-05,-0.00031,-0.00042,-9e-05,-5.9999999999999995e-05,0.0001,-8e-05,-2e-05,3
10344,10801,-0.00018,1e-05,8e-05,0.0002,2e-05,5e-05,0.00013000000000000002,0.00015,3
10345,10802,-0.00018,1e-05,8e-05,0.0002,2e-05,5e-05,0.00013000000000000002,0.00015,3
10346,10803,7e-05,0.00022999999999999998,0.00041,0.0001,-2e-05,0.00011,5.9999999999999995e-05,0.00014,3
10347,10804,7e-05,0.00022999999999999998,0.00041,0.0001,-2e-05,0.00011,5.9999999999999995e-05,0.00014,3
10348,10805,7e-05,0.00022999999999999998,0.00041,0.0001,-2e-05,0.00011,5.9999999999999995e-05,0.00014,3
10349,10806,7e-05,0.00022999999999999998,0.00041,0.0001,-2e-05,0.00011,5.9999999999999995e-05,0.00014,3
10350,10807,7e-05,0.00022999999999999998,0.00041,0.0001,-2e-05,0.00011,5.9999999999999995e-05,0.00014,3
10351,10808,7e-05,0.00022999999999999998,0.00041,0.0001,-2e-05,0.00011,5.9999999999999995e-05,0.00014,3
10352,10809,7e-05,0.00022999999999999998,0.00041,0.0001,-2e-05,0.00011,5.9999999999999995e-05,0.00014,3
10353,10810,7e-05,0.00022999999999999998,0.00041,0.0001,-2e-05,0.00011,5.9999999999999995e-05,0.00014,3
10354,10811,7e-05,0.00022999999999999998,0.00041,0.0001,-2e-05,0.00011,5.9999999999999995e-05,0.00014,3
10355,10812,7e-05,0.00022999999999999998,0.00041,0.0001,-2e-05,0.00011,5.9999999999999995e-05,0.00014,3
10356,10813,7e-05,0.00022999999999999998,0.00041,0.0001,-2e-05,0.00011,5.9999999999999995e-05,0.00014,3
10357,10814,7e-05,0.00022999999999999998,0.00041,0.0001,-2e-05,0.00011,5.9999999999999995e-05,0.00014,3
10358,10815,7e-05,0.00022999999999999998,0.00041,0.0001,-2e-05,0.00011,5.9999999999999995e-05,0.00014,3
