,time,channel1,channel2,channel3,channel4,channel5,channel6,channel7,channel8,class
8747,9231,-0.00013000000000000002,-0.00013000000000000002,-1e-05,-5e-05,-0.00018,-0.0002,-2e-05,-0.00011999999999999999,3
8748,9232,-0.00013000000000000002,-0.00013000000000000002,-1e-05,-5e-05,-0.00018,-0.0002,-2e-05,-0.00011999999999999999,3
8749,9233,-0.00013000000000000002,-0.00013000000000000002,-1e-05,-5e-05,-0.00018,-0.0002,-2e-05,-0.00011999999999999999,3
8750,9234,-0.00013000000000000002,-0.00013000000000000002,-1e-05,-5e-05,-0.00018,-0.0002,-2e-05,-0.00011999999999999999,3
8751,9235,-0.00013000000000000002,-0.00013000000000000002,-1e-05,-5e-05,-0.00018,-0.0002,-2e-05,-0.00011999999999999999,3
8752,9237,-0.00013000000000000002,-0.00013000000000000002,-1e-05,-5e-05,-0.00018,-0.0002,-2e-05,-0.00011999999999999999,3
8753,9240,-0.00013000000000000002,-0.00013000000000000002,-1e-05,-5e-05,-0.00018,-0.0002,-2e-05,-0.00011999999999999999,3
8754,9241,-0.00013000000000000002,-0.00013000000000000002,-1e-05,-5e-05,-0.00018,-0.0002,-2e-05,-0.00011999999999999999,3
8755,9242,-0.00013000000000000002,-0.00013000000000000002,-1e-05,-5e-05,-0.00018,-0.0002,-2e-05,-0.00011999999999999999,3
8756,9243,-0.00013000000000000002,-0.00013000000000000002,-1e-05,-5e-05,-0.00018,-0.0002,-2e-05,-0.00011999999999999999,3
8757,9244,-0.00027,-0.00037,7e-05,-2e-05,-9e-05,-0.00011999999999999999,-0.00016999999999999999,-0.00011999999999999999,3
8758,9245,-0.00018999999999999998,-0.00081,-0.00018,1e-05,0.0005099999999999999,0.00056,2.9999999999999997e-05,-0.00013000000000000002,3
8759,9246,-0.00018999999999999998,-0.00081,-0.00018,1e-05,0.0005099999999999999,0.00056,2.9999999999999997e-05,-0.00013000000000000002,3
8760,9247,-0.00018999999999999998,-0.00081,-0.00018,1e-05,0.0005099999999999999,0.00056,2.9999999999999997e-05,-0.00013000000000000002,3
8761,9248,-0.00018999999999999998,-0.00081,-0.00018,1e-05,0.0005099999999999999,0.00056,2.9999999999999997e-05,-0.00013000000000000002,3
8762,9249,-0.00018999999999999998,-0.00081,-0.00018,1e-05,0.0005099999999999999,0.00056,2.9999999999999997e-05,-0.00013000000000000002,3
8763,9250,-0.00018999999999999998,-0.00081,-0.00018,1e-05,0.0005099999999999999,0.00056,2.9999999999999997e-05,-0.00013000000000000002,3
8764,9251,-0.00018999999999999998,-0.00081,-0.00018,1e-05,0.0005099999999999999,0.00056,2.9999999999999997e-05,-0.00013000000000000002,3
8765,9252,-0.00018999999999999998,-0.00081,-0.00018,1e-05,0.0005099999999999999,0.00056,2.9999999999999997e-05,-0.00013000000000000002,3
8766,9253,-0.00018999999999999998,-0.00081,-0.00018,1e-05,0.0005099999999999999,0.00056,2.9999999999999997e-05,-0.00013000000000000002,3
8767,9254,-0.00018999999999999998,-0.00081,-0.00018,1e-05,0.0005099999999999999,0.00056,2.9999999999999997e-05,-0.00013000000000000002,3
8768,9255,-0.00018999999999999998,-0.00081,-0.00018,1e-05,0.0005099999999999999,0.00056,2.9999999999999997e-05,-0.00013000000000000002,3
8769,9256,-0.00018999999999999998,-0.00081,-0.00018,1e-05,0.0005099999999999999,0.00056,2.9999999999999997e-05,-0.00013000000000000002,3
8770,9257,-0.00018999999999999998,-0.00081,-0.00018,1e-05,0.0005099999999999999,0.00056,2.9999999999999997e-05,-0.00013000000000000002,3
8771,9258,2e-05,0.00013000000000000002,-0.00014,-5.9999999999999995e-05,5e-05,2e-05,-0.00016,0.00015,3
8772,9259,2e-05,0.00013000000000000002,-0.00014,-5.9999999999999995e-05,5e-05,2e-05,-0.00016,0.00015,3
8773,9260,-8e-05,-0.00025,-2.9999999999999997e-05,-5e-05,-5e-05,0.00011999999999999999,-0.00014,0.00015,3
8774,9261,-8e-05,-0.00025,-2.9999999999999997e-05,-5e-05,-5e-05,0.00011999999999999999,-0.00014,0.00015,3
8775,9262,-8e-05,-0.00025,-2.9999999999999997e-05,-5e-05,-5e-05,0.00011999999999999999,-0.00014,0.00015,3
8776,9263,-8e-05,-0.00025,-2.9999999999999997e-05,-5e-05,-5e-05,0.00011999999999999999,-0.00014,0.00015,3
8777,9264,-8e-05,-0.00025,-2.9999999999999997e-05,-5e-05,-5e-05,0.00011999999999999999,-0.00014,0.00015,3
8778,9265,-8e-05,-0.00025,-2.9999999999999997e-05,-5e-05,-5e-05,0.00011999999999999999,-0.00014,0.00015,3
8779,9266,-8e-05,-0.00025,-2.9999999999999997e-05,-5e-05,-5e-05,0.00011999999999999999,-0.00014,0.00015,3
8780,9267,-8e-05,-0.00025,-2.9999999999999997e-05,-5e-05,-5e-05,0.00011999999999999999,-0.00014,0.00015,3
8781,9268,-8e-05,-0.00025,-2.9999999999999997e-05,-5e-05,-5e-05,0.00011999999999999999,-0.00014,0.00015,3
8782,9269,-8e-05,-0.00025,-2.9999999999999997e-05,-5e-05,-5e-05,0.00011999999999999999,-0.00014,0.00015,3
8783,9270,-8e-05,-0.00025,-2.9999999999999997e-05,-5e-05,-5e-05,0.00011999999999999999,-0.00014,0.00015,3
8784,9271,-8e-05,-0.00025,-2.9999999999999997e-05,-5e-05,-5e-05,0.00011999999999999999,-0.00014,0.00015,3
8785,9272,-8e-05,-0.00025,-2.9999999999999997e-05,-5e-05,-5e-05,0.00011999999999999999,-0.00014,0.00015,3
8786,9273,-8e-05,-0.00025,-2.9999999999999997e-05,-5e-05,-5e-05,0.00011999999999999999,-0.00014,0.00015,3
8787,9274,-8e-05,-0.00025,-2.9999999999999997e-05,-5e-05,-5e-05,0.00011999999999999999,-0.00014,0.00015,3
8788,9275,-8e-05,-0.00025,-2.9999999999999997e-05,-5e-05,-5e-05,0.00011999999999999999,-0.00014,0.00015,3
8789,9276,-8e-05,-0.00025,-2.9999999999999997e-05,-5e-05,-5e-05,0.00011999999999999999,-0.00014,0.00015,3
8790,9277,-8e-05,-0.00025,-2.9999999999999997e-05,-5e-05,-5e-05,0.00011999999999999999,-0.00014,0.00015,3
8791,9278,-8e-05,-0.00025,-2.9999999999999997e-05,-5e-05,-5e-05,0.00011999999999999999,-0.00014,0.00015,3
8792,9279,-8e-05,-0.00025,-2.9999999999999997e-05,-5e-05,-5e-05,0.00011999999999999999,-0.00014,0.00015,3
8793,9280,-2e-05,0.00058,2e-05,7e-05,0.00018999999999999998,0.00026000000000000003,2e-05,-0.0002,3
8794,9281,-2e-05,0.00058,2e-05,7e-05,0.00018999999999999998,0.00026000000000000003,2e-05,-0.0002,3
8795,9282,-2e-05,0.00058,2e-05,7e-05,0.00018999999999999998,0.00026000000000000003,2e-05,-0.0002,3
8796,9283,-2e-05,0.00058,2e-05,7e-05,0.00018999999999999998,0.00026000000000000003,2e-05,-0.0002,3
8797,9284,-2e-05,0.00058,2e-05,7e-05,0.00018999999999999998,0.00026000000000000003,2e-05,-0.0002,3
8798,9285,-2e-05,0.00058,2e-05,7e-05,0.00018999999999999998,0.00026000000000000003,2e-05,-0.0002,3
8799,9286,-2e-05,0.00058,2e-05,7e-05,0.00018999999999999998,0.00026000000000000003,2e-05,-0.0002,3
8800,9289,-0.00027,0.00043,-2e-05,-2.9999999999999997e-05,-0.00035,-0.00023999999999999998,-4e-05,0.00015,3
8801,9290,-0.00027,0.00043,-2e-05,-2.9999999999999997e-05,-0.00035,-0.00023999999999999998,-4e-05,0.00015,3
8802,9291,-0.00027,0.00043,-2e-05,-2.9999999999999997e-05,-0.00035,-0.00023999999999999998,-4e-05,0.00015,3
8803,9292,-0.00027,0.00043,-2e-05,-2.9999999999999997e-05,-0.00035,-0.00023999999999999998,-4e-05,0.00015,3
8804,9293,-0.00027,0.00043,-2e-05,-2.9999999999999997e-05,-0.00035,-0.00023999999999999998,-4e-05,0.00015,3
8805,9294,-0.00027,0.00043,-2e-05,-2.9999999999999997e-05,-0.00035,-0.00023999999999999998,-4e-05,0.00015,3
8806,9295,-0.00027,0.00043,-2e-05,-2.9999999999999997e-05,-0.00035,-0.00023999999999999998,-4e-05,0.00015,3
8807,9296,-0.00027,0.00043,-2e-05,-2.9999999999999997e-05,-0.00035,-0.00023999999999999998,-4e-05,0.00015,3
8808,9297,-0.00027,0.00043,-2e-05,-2.9999999999999997e-05,-0.00035,-0.00023999999999999998,-4e-05,0.00015,3
8809,9298,-0.00027,0.00043,-2e-05,-2.9999999999999997e-05,-0.00035,-0.00023999999999999998,-4e-05,0.00015,3
8810,9299,-0.00027,0.00043,-2e-05,-2.9999999999999997e-05,-0.00035,-0.00023999999999999998,-4e-05,0.00015,3
8811,9300,-0.00027,0.00043,-2e-05,-2.9999999999999997e-05,-0.00035,-0.00023999999999999998,-4e-05,0.00015,3
8812,9301,-0.00027,0.00043,-2e-05,-2.9999999999999997e-05,-0.00035,-0.00023999999999999998,-4e-05,0.00015,3
8813,9302,-0.00027,0.00043,-2e-05,-2.9999999999999997e-05,-0.00035,-0.00023999999999999998,-4e-05,0.00015,3
8814,9303,2.9999999999999997e-05,0.00015,-1e-05,-2e-05,-0.00018999999999999998,0.00014,-7e-05,-1e-05,3
8815,9304,-9e-05,-4e-05,-2e-05,0.0,0.00026000000000000003,0.0003,0.0001,1e-05,3
8816,9305,2e-05,0.0007099999999999999,8e-05,-2e-05,5e-05,-0.00032,-0.00021,0.00023999999999999998,3
8817,9306,2e-05,0.0007099999999999999,8e-05,-2e-05,5e-05,-0.00032,-0.00021,0.00023999999999999998,3
8818,9307,2e-05,0.0007099999999999999,8e-05,-2e-05,5e-05,-0.00032,-0.00021,0.00023999999999999998,3
8819,9308,2e-05,0.0007099999999999999,8e-05,-2e-05,5e-05,-0.00032,-0.00021,0.00023999999999999998,3
8820,9309,2e-05,0.0007099999999999999,8e-05,-2e-05,5e-05,-0.00032,-0.00021,0.00023999999999999998,3
8821,9310,2e-05,0.0007099999999999999,8e-05,-2e-05,5e-05,-0.00032,-0.00021,0.00023999999999999998,3
8822,9311,2e-05,0.0007099999999999999,8e-05,-2e-05,5e-05,-0.00032,-0.00021,0.00023999999999999998,3
8823,9312,2e-05,0.0007099999999999999,8e-05,-2e-05,5e-05,-0.00032,-0.00021,0.00023999999999999998,3
8824,9313,2e-05,0.0007099999999999999,8e-05,-2e-05,5e-05,-0.00032,-0.00021,0.00023999999999999998,3
8825,9314,2e-05,0.0007099999999999999,8e-05,-2e-05,5e-05,-0.00032,-0.00021,0.00023999999999999998,3
8826,9315,2e-05,0.0007099999999999999,8e-05,-2e-05,5e-05,-0.00032,-0.00021,0.00023999999999999998,3
8827,9316,2e-05,0.0007099999999999999,8e-05,-2e-05,5e-05,-0.00032,-0.00021,0.00023999999999999998,3
8828,9317,2e-05,0.0007099999999999999,8e-05,-2e-05,5e-05,-0.00032,-0.00021,0.00023999999999999998,3
8829,9318,2.9999999999999997e-05,0.00013000000000000002,-8e-05,-8e-05,-0.00015,-0.00033,-8e-05,0.00016999999999999999,3
8830,9319,9e-05,0.00032,7e-05,2.9999999999999997e-05,8e-05,0.00015,0.00021,5e-05,3
8831,9320,-2.9999999999999997e-05,-0.00026000000000000003,1e-05,7e-05,-1e-05,-0.00013000000000000002,-1e-05,0.00014,3
8832,9321,-2.9999999999999997e-05,-0.00026000000000000003,1e-05,7e-05,-1e-05,-0.00013000000000000002,-1e-05,0.00014,3
8833,9322,-2.9999999999999997e-05,-0.00026000000000000003,1e-05,7e-05,-1e-05,-0.00013000000000000002,-1e-05,0.00014,3
8834,9323,-2.9999999999999997e-05,-0.00026000000000000003,1e-05,7e-05,-1e-05,-0.00013000000000000002,-1e-05,0.00014,3
8835,9324,-2.9999999999999997e-05,-0.00026000000000000003,1e-05,7e-05,-1e-05,-0.00013000000000000002,-1e-05,0.00014,3
8836,9325,-2.9999999999999997e-05,-0.00026000000000000003,1e-05,7e-05,-1e-05,-0.00013000000000000002,-1e-05,0.00014,3
8837,9326,-2.9999999999999997e-05,-0.00026000000000000003,1e-05,7e-05,-1e-05,-0.00013000000000000002,-1e-05,0.00014,3
8838,9327,-2.9999999999999997e-05,-0.00026000000000000003,1e-05,7e-05,-1e-05,-0.00013000000000000002,-1e-05,0.00014,3
8839,9328,-2.9999999999999997e-05,-0.00026000000000000003,1e-05,7e-05,-1e-05,-0.00013000000000000002,-1e-05,0.00014,3
8840,9329,-2.9999999999999997e-05,-0.00026000000000000003,1e-05,7e-05,-1e-05,-0.00013000000000000002,-1e-05,0.00014,3
8841,9330,-2.9999999999999997e-05,-0.00026000000000000003,1e-05,7e-05,-1e-05,-0.00013000000000000002,-1e-05,0.00014,3
8842,9331,-2.9999999999999997e-05,-0.00026000000000000003,1e-05,7e-05,-1e-05,-0.00013000000000000002,-1e-05,0.00014,3
8843,9332,-2.9999999999999997e-05,-0.00026000000000000003,1e-05,7e-05,-1e-05,-0.00013000000000000002,-1e-05,0.00014,3
8844,9333,-2.9999999999999997e-05,-0.00026000000000000003,1e-05,7e-05,-1e-05,-0.00013000000000000002,-1e-05,0.00014,3
8845,9334,-2.9999999999999997e-05,-0.00026000000000000003,1e-05,7e-05,-1e-05,-0.00013000000000000002,-1e-05,0.00014,3
8846,9335,-2.9999999999999997e-05,-0.00026000000000000003,1e-05,7e-05,-1e-05,-0.00013000000000000002,-1e-05,0.00014,3
8847,9336,-2.9999999999999997e-05,-0.00026000000000000003,1e-05,7e-05,-1e-05,-0.00013000000000000002,-1e-05,0.00014,3
8848,9338,-2.9999999999999997e-05,-0.00026000000000000003,1e-05,7e-05,-1e-05,-0.00013000000000000002,-1e-05,0.00014,3
8849,9339,-2.9999999999999997e-05,-0.00026000000000000003,1e-05,7e-05,-1e-05,-0.00013000000000000002,-1e-05,0.00014,3
8850,9340,-2.9999999999999997e-05,-0.00026000000000000003,1e-05,7e-05,-1e-05,-0.00013000000000000002,-1e-05,0.00014,3
8851,9341,0.00023999999999999998,-2e-05,-5e-05,2e-05,-2.9999999999999997e-05,7e-05,5.9999999999999995e-05,0.00014,3
8852,9342,8e-05,0.00026000000000000003,7e-05,-4e-05,-0.00028,-0.00035,-2e-05,0.00053,3
8853,9343,8e-05,0.00026000000000000003,7e-05,-4e-05,-0.00028,-0.00035,-2e-05,0.00053,3
8854,9344,8e-05,0.00026000000000000003,7e-05,-4e-05,-0.00028,-0.00035,-2e-05,0.00053,3
8855,9345,8e-05,0.00026000000000000003,7e-05,-4e-05,-0.00028,-0.00035,-2e-05,0.00053,3
8856,9346,8e-05,0.00026000000000000003,7e-05,-4e-05,-0.00028,-0.00035,-2e-05,0.00053,3
8857,9347,8e-05,0.00026000000000000003,7e-05,-4e-05,-0.00028,-0.00035,-2e-05,0.00053,3
8858,9348,8e-05,0.00026000000000000003,7e-05,-4e-05,-0.00028,-0.00035,-2e-05,0.00053,3
8859,9349,8e-05,0.00026000000000000003,7e-05,-4e-05,-0.00028,-0.00035,-2e-05,0.00053,3
8860,9350,8e-05,0.00026000000000000003,7e-05,-4e-05,-0.00028,-0.00035,-2e-05,0.00053,3
8861,9351,8e-05,0.00026000000000000003,7e-05,-4e-05,-0.00028,-0.00035,-2e-05,0.00053,3
8862,9352,8e-05,0.00026000000000000003,7e-05,-4e-05,-0.00028,-0.00035,-2e-05,0.00053,3
8863,9353,8e-05,0.00026000000000000003,7e-05,-4e-05,-0.00028,-0.00035,-2e-05,0.00053,3
8864,9354,8e-05,0.00026000000000000003,7e-05,-4e-05,-0.00028,-0.00035,-2e-05,0.00053,3
8865,9355,8e-05,0.00026000000000000003,7e-05,-4e-05,-0.00028,-0.00035,-2e-05,0.00053,3
8866,9356,8e-05,0.00026000000000000003,7e-05,-4e-05,-0.00028,-0.00035,-2e-05,0.00053,3
8867,9357,8e-05,0.00026000000000000003,7e-05,-4e-05,-0.00028,-0.00035,-2e-05,0.00053,3
8868,9358,8e-05,0.00026000000000000003,7e-05,-4e-05,-0.00028,-0.00035,-2e-05,0.00053,3
8869,9359,8e-05,0.00026000000000000003,7e-05,-4e-05,-0.00028,-0.00035,-2e-05,0.00053,3
8870,9360,8e-05,0.00026000000000000003,7e-05,-4e-05,-0.00028,-0.00035,-2e-05,0.00053,3
8871,9361,8e-05,0.00026000000000000003,7e-05,-4e-05,-0.00028,-0.00035,-2e-05,0.00053,3
8872,9362,8e-05,0.00026000000000000003,7e-05,-4e-05,-0.00028,-0.00035,-2e-05,0.00053,3
8873,9363,8e-05,0.00026000000000000003,7e-05,-4e-05,-0.00028,-0.00035,-2e-05,0.00053,3
8874,9364,8e-05,0.00026000000000000003,7e-05,-4e-05,-0.00028,-0.00035,-2e-05,0.00053,3
8875,9365,0.0002,7e-05,5e-05,-1e-05,7e-05,0.00037999999999999997,0.00018999999999999998,0.00015,3
8876,9366,0.00014,-0.00026000000000000003,0.0,-4e-05,0.0,0.00027,0.00011,-0.00018999999999999998,3
8877,9367,0.00014,-0.00026000000000000003,0.0,-4e-05,0.0,0.00027,0.00011,-0.00018999999999999998,3
8878,9368,0.00014,-0.00026000000000000003,0.0,-4e-05,0.0,0.00027,0.00011,-0.00018999999999999998,3
8879,9369,0.00014,-0.00026000000000000003,0.0,-4e-05,0.0,0.00027,0.00011,-0.00018999999999999998,3
8880,9370,0.00014,-0.00026000000000000003,0.0,-4e-05,0.0,0.00027,0.00011,-0.00018999999999999998,3
8881,9371,0.00014,-0.00026000000000000003,0.0,-4e-05,0.0,0.00027,0.00011,-0.00018999999999999998,3
8882,9372,0.00014,-0.00026000000000000003,0.0,-4e-05,0.0,0.00027,0.00011,-0.00018999999999999998,3
8883,9373,0.00014,-0.00026000000000000003,0.0,-4e-05,0.0,0.00027,0.00011,-0.00018999999999999998,3
8884,9374,0.00014,-0.00026000000000000003,0.0,-4e-05,0.0,0.00027,0.00011,-0.00018999999999999998,3
8885,9375,0.00014,-0.00026000000000000003,0.0,-4e-05,0.0,0.00027,0.00011,-0.00018999999999999998,3
8886,9376,0.00014,-0.00026000000000000003,0.0,-4e-05,0.0,0.00027,0.00011,-0.00018999999999999998,3
8887,9377,-5e-05,-0.00056,-0.00015,-5e-05,-2.9999999999999997e-05,5.9999999999999995e-05,-9e-05,5e-05,3
8888,9378,-5e-05,-0.00056,-0.00015,-5e-05,-2.9999999999999997e-05,5.9999999999999995e-05,-9e-05,5e-05,3
8889,9379,-5e-05,-0.00056,-0.00015,-5e-05,-2.9999999999999997e-05,5.9999999999999995e-05,-9e-05,5e-05,3
8890,9380,-5e-05,-0.00056,-0.00015,-5e-05,-2.9999999999999997e-05,5.9999999999999995e-05,-9e-05,5e-05,3
8891,9381,-5e-05,-0.00056,-0.00015,-5e-05,-2.9999999999999997e-05,5.9999999999999995e-05,-9e-05,5e-05,3
8892,9382,-5e-05,-0.00056,-0.00015,-5e-05,-2.9999999999999997e-05,5.9999999999999995e-05,-9e-05,5e-05,3
8893,9383,-5e-05,-0.00056,-0.00015,-5e-05,-2.9999999999999997e-05,5.9999999999999995e-05,-9e-05,5e-05,3
8894,9384,8e-05,0.0001,0.00015,0.0,-1e-05,-0.00018,-5.9999999999999995e-05,-0.00015,3
8895,9385,8e-05,0.0001,0.00015,0.0,-1e-05,-0.00018,-5.9999999999999995e-05,-0.00015,3
8896,9386,8e-05,0.0001,0.00015,0.0,-1e-05,-0.00018,-5.9999999999999995e-05,-0.00015,3
8897,9388,8e-05,0.0001,0.00015,0.0,-1e-05,-0.00018,-5.9999999999999995e-05,-0.00015,3
8898,9390,8e-05,0.0001,0.00015,0.0,-1e-05,-0.00018,-5.9999999999999995e-05,-0.00015,3
8899,9391,8e-05,0.0001,0.00015,0.0,-1e-05,-0.00018,-5.9999999999999995e-05,-0.00015,3
8900,9392,8e-05,0.0001,0.00015,0.0,-1e-05,-0.00018,-5.9999999999999995e-05,-0.00015,3
8901,9393,8e-05,0.0001,0.00015,0.0,-1e-05,-0.00018,-5.9999999999999995e-05,-0.00015,3
8902,9394,8e-05,0.0001,0.00015,0.0,-1e-05,-0.00018,-5.9999999999999995e-05,-0.00015,3
8903,9395,8e-05,0.0001,0.00015,0.0,-1e-05,-0.00018,-5.9999999999999995e-05,-0.00015,3
8904,9396,8e-05,0.0001,0.00015,0.0,-1e-05,-0.00018,-5.9999999999999995e-05,-0.00015,3
8905,9397,8e-05,0.0001,0.00015,0.0,-1e-05,-0.00018,-5.9999999999999995e-05,-0.00015,3
8906,9398,8e-05,0.0001,0.00015,0.0,-1e-05,-0.00018,-5.9999999999999995e-05,-0.00015,3
8907,9399,8e-05,0.0001,0.00015,0.0,-1e-05,-0.00018,-5.9999999999999995e-05,-0.00015,3
8908,9400,8e-05,0.0001,0.00015,0.0,-1e-05,-0.00018,-5.9999999999999995e-05,-0.00015,3
8909,9401,-0.00011,-0.00021,0.00011,5.9999999999999995e-05,0.00056,0.0005099999999999999,0.00011999999999999999,-0.0001,3
8910,9402,-0.00011,-0.00021,0.00011,5.9999999999999995e-05,0.00056,0.0005099999999999999,0.00011999999999999999,-0.0001,3
8911,9403,-7e-05,-0.00037999999999999997,-5.9999999999999995e-05,-2e-05,-2.9999999999999997e-05,-7e-05,2.9999999999999997e-05,-0.00013000000000000002,3
8912,9404,-7e-05,-0.00037999999999999997,-5.9999999999999995e-05,-2e-05,-2.9999999999999997e-05,-7e-05,2.9999999999999997e-05,-0.00013000000000000002,3
8913,9405,-7e-05,-0.00037999999999999997,-5.9999999999999995e-05,-2e-05,-2.9999999999999997e-05,-7e-05,2.9999999999999997e-05,-0.00013000000000000002,3
8914,9406,-7e-05,-0.00037999999999999997,-5.9999999999999995e-05,-2e-05,-2.9999999999999997e-05,-7e-05,2.9999999999999997e-05,-0.00013000000000000002,3
8915,9407,-7e-05,-0.00037999999999999997,-5.9999999999999995e-05,-2e-05,-2.9999999999999997e-05,-7e-05,2.9999999999999997e-05,-0.00013000000000000002,3
8916,9408,-7e-05,-0.00037999999999999997,-5.9999999999999995e-05,-2e-05,-2.9999999999999997e-05,-7e-05,2.9999999999999997e-05,-0.00013000000000000002,3
8917,9409,-7e-05,-0.00037999999999999997,-5.9999999999999995e-05,-2e-05,-2.9999999999999997e-05,-7e-05,2.9999999999999997e-05,-0.00013000000000000002,3
8918,9410,-7e-05,-0.00037999999999999997,-5.9999999999999995e-05,-2e-05,-2.9999999999999997e-05,-7e-05,2.9999999999999997e-05,-0.00013000000000000002,3
8919,9411,-7e-05,-0.00037999999999999997,-5.9999999999999995e-05,-2e-05,-2.9999999999999997e-05,-7e-05,2.9999999999999997e-05,-0.00013000000000000002,3
8920,9412,-7e-05,-0.00037999999999999997,-5.9999999999999995e-05,-2e-05,-2.9999999999999997e-05,-7e-05,2.9999999999999997e-05,-0.00013000000000000002,3
8921,9413,-7e-05,-0.00037999999999999997,-5.9999999999999995e-05,-2e-05,-2.9999999999999997e-05,-7e-05,2.9999999999999997e-05,-0.00013000000000000002,3
8922,9414,-7e-05,-0.00037999999999999997,-5.9999999999999995e-05,-2e-05,-2.9999999999999997e-05,-7e-05,2.9999999999999997e-05,-0.00013000000000000002,3
8923,9415,-7e-05,-0.00037999999999999997,-5.9999999999999995e-05,-2e-05,-2.9999999999999997e-05,-7e-05,2.9999999999999997e-05,-0.00013000000000000002,3
8924,9416,-7e-05,-0.00037999999999999997,-5.9999999999999995e-05,-2e-05,-2.9999999999999997e-05,-7e-05,2.9999999999999997e-05,-0.00013000000000000002,3
8925,9417,-7e-05,-0.00037999999999999997,-5.9999999999999995e-05,-2e-05,-2.9999999999999997e-05,-7e-05,2.9999999999999997e-05,-0.00013000000000000002,3
8926,9418,-7e-05,-0.00037999999999999997,-5.9999999999999995e-05,-2e-05,-2.9999999999999997e-05,-7e-05,2.9999999999999997e-05,-0.00013000000000000002,3
8927,9419,-7e-05,-0.00037999999999999997,-5.9999999999999995e-05,-2e-05,-2.9999999999999997e-05,-7e-05,2.9999999999999997e-05,-0.00013000000000000002,3
8928,9420,-7e-05,-0.00037999999999999997,-5.9999999999999995e-05,-2e-05,-2.9999999999999997e-05,-7e-05,2.9999999999999997e-05,-0.00013000000000000002,3
8929,9421,-7e-05,-0.00037999999999999997,-5.9999999999999995e-05,-2e-05,-2.9999999999999997e-05,-7e-05,2.9999999999999997e-05,-0.00013000000000000002,3
8930,9422,-7e-05,-0.00037999999999999997,-5.9999999999999995e-05,-2e-05,-2.9999999999999997e-05,-7e-05,2.9999999999999997e-05,-0.00013000000000000002,3
8931,9423,-0.00013000000000000002,-0.00033,-0.00029,-4e-05,-2.9999999999999997e-05,4e-05,2.9999999999999997e-05,-0.00013000000000000002,3
8932,9424,-2.9999999999999997e-05,-5.9999999999999995e-05,5e-05,-4e-05,-9e-05,-2.9999999999999997e-05,-0.00018,0.0003,3
8933,9425,-4e-05,0.00031,2e-05,0.0,0.00011,0.00021,0.00016,-0.00049,3
8934,9426,-4e-05,0.00031,2e-05,0.0,0.00011,0.00021,0.00016,-0.00049,3
8935,9427,-4e-05,0.00031,2e-05,0.0,0.00011,0.00021,0.00016,-0.00049,3
8936,9428,-4e-05,0.00031,2e-05,0.0,0.00011,0.00021,0.00016,-0.00049,3
8937,9429,-4e-05,0.00031,2e-05,0.0,0.00011,0.00021,0.00016,-0.00049,3
8938,9430,-4e-05,0.00031,2e-05,0.0,0.00011,0.00021,0.00016,-0.00049,3
8939,9431,-4e-05,0.00031,2e-05,0.0,0.00011,0.00021,0.00016,-0.00049,3
8940,9432,-4e-05,0.00031,2e-05,0.0,0.00011,0.00021,0.00016,-0.00049,3
8941,9433,-4e-05,0.00031,2e-05,0.0,0.00011,0.00021,0.00016,-0.00049,3
8942,9434,-4e-05,0.00031,2e-05,0.0,0.00011,0.00021,0.00016,-0.00049,3
8943,9435,-4e-05,0.00031,2e-05,0.0,0.00011,0.00021,0.00016,-0.00049,3
8944,9436,-4e-05,0.00031,2e-05,0.0,0.00011,0.00021,0.00016,-0.00049,3
8945,9439,-5.9999999999999995e-05,-0.00022,-4e-05,1e-05,0.00028,0.00014,0.0,-4e-05,3
8946,9440,-5.9999999999999995e-05,-0.00022,-4e-05,1e-05,0.00028,0.00014,0.0,-4e-05,3
8947,9441,-5.9999999999999995e-05,-0.00022,-4e-05,1e-05,0.00028,0.00014,0.0,-4e-05,3
8948,9442,-5.9999999999999995e-05,-0.00022,-4e-05,1e-05,0.00028,0.00014,0.0,-4e-05,3
8949,9443,-5.9999999999999995e-05,-0.00022,-4e-05,1e-05,0.00028,0.00014,0.0,-4e-05,3
8950,9444,-4e-05,-0.00023999999999999998,-5.9999999999999995e-05,-4e-05,-9e-05,7e-05,-5e-05,2.9999999999999997e-05,3
8951,9445,-4e-05,-0.00023999999999999998,-5.9999999999999995e-05,-4e-05,-9e-05,7e-05,-5e-05,2.9999999999999997e-05,3
8952,9446,-4e-05,-0.00023999999999999998,-5.9999999999999995e-05,-4e-05,-9e-05,7e-05,-5e-05,2.9999999999999997e-05,3
8953,9447,-4e-05,-0.00023999999999999998,-5.9999999999999995e-05,-4e-05,-9e-05,7e-05,-5e-05,2.9999999999999997e-05,3
8954,9448,-4e-05,-0.00023999999999999998,-5.9999999999999995e-05,-4e-05,-9e-05,7e-05,-5e-05,2.9999999999999997e-05,3
8955,9449,-4e-05,-0.00023999999999999998,-5.9999999999999995e-05,-4e-05,-9e-05,7e-05,-5e-05,2.9999999999999997e-05,3
8956,9450,-4e-05,-0.00023999999999999998,-5.9999999999999995e-05,-4e-05,-9e-05,7e-05,-5e-05,2.9999999999999997e-05,3
8957,9451,-4e-05,-0.00023999999999999998,-5.9999999999999995e-05,-4e-05,-9e-05,7e-05,-5e-05,2.9999999999999997e-05,3
8958,9452,-4e-05,-0.00023999999999999998,-5.9999999999999995e-05,-4e-05,-9e-05,7e-05,-5e-05,2.9999999999999997e-05,3
8959,9453,-4e-05,-0.00023999999999999998,-5.9999999999999995e-05,-4e-05,-9e-05,7e-05,-5e-05,2.9999999999999997e-05,3
8960,9454,-4e-05,-0.00023999999999999998,-5.9999999999999995e-05,-4e-05,-9e-05,7e-05,-5e-05,2.9999999999999997e-05,3
8961,9455,-4e-05,-0.00023999999999999998,-5.9999999999999995e-05,-4e-05,-9e-05,7e-05,-5e-05,2.9999999999999997e-05,3
8962,9456,-4e-05,-0.00023999999999999998,-5.9999999999999995e-05,-4e-05,-9e-05,7e-05,-5e-05,2.9999999999999997e-05,3
8963,9457,-4e-05,-0.00023999999999999998,-5.9999999999999995e-05,-4e-05,-9e-05,7e-05,-5e-05,2.9999999999999997e-05,3
8964,9458,-4e-05,-0.00023999999999999998,-5.9999999999999995e-05,-4e-05,-9e-05,7e-05,-5e-05,2.9999999999999997e-05,3
8965,9459,-4e-05,-0.00023999999999999998,-5.9999999999999995e-05,-4e-05,-9e-05,7e-05,-5e-05,2.9999999999999997e-05,3
8966,9460,-4e-05,-0.00023999999999999998,-5.9999999999999995e-05,-4e-05,-9e-05,7e-05,-5e-05,2.9999999999999997e-05,3
8967,9461,-5e-05,-0.00047999999999999996,2.9999999999999997e-05,2e-05,-0.00027,-0.00036,-0.0001,-7e-05,3
8968,9462,2e-05,0.0,-1e-05,-1e-05,-0.0001,-0.00016,-5e-05,7e-05,3
8969,9463,2e-05,0.0,-1e-05,-1e-05,-0.0001,-0.00016,-5e-05,7e-05,3
8970,9464,2e-05,0.0,-1e-05,-1e-05,-0.0001,-0.00016,-5e-05,7e-05,3
8971,9465,2e-05,0.0,-1e-05,-1e-05,-0.0001,-0.00016,-5e-05,7e-05,3
8972,9466,2e-05,0.0,-1e-05,-1e-05,-0.0001,-0.00016,-5e-05,7e-05,3
8973,9467,2e-05,0.0,-1e-05,-1e-05,-0.0001,-0.00016,-5e-05,7e-05,3
8974,9468,2e-05,0.0,-1e-05,-1e-05,-0.0001,-0.00016,-5e-05,7e-05,3
8975,9469,2e-05,0.0,-1e-05,-1e-05,-0.0001,-0.00016,-5e-05,7e-05,3
8976,9470,2e-05,0.0,-1e-05,-1e-05,-0.0001,-0.00016,-5e-05,7e-05,3
8977,9471,2e-05,0.0,-1e-05,-1e-05,-0.0001,-0.00016,-5e-05,7e-05,3
8978,9472,2e-05,0.0,-1e-05,-1e-05,-0.0001,-0.00016,-5e-05,7e-05,3
8979,9473,2e-05,0.0,-1e-05,-1e-05,-0.0001,-0.00016,-5e-05,7e-05,3
8980,9474,2e-05,0.0,-1e-05,-1e-05,-0.0001,-0.00016,-5e-05,7e-05,3
8981,9475,2e-05,0.0,-1e-05,-1e-05,-0.0001,-0.00016,-5e-05,7e-05,3
8982,9476,2e-05,0.0,-1e-05,-1e-05,-0.0001,-0.00016,-5e-05,7e-05,3
8983,9477,2e-05,0.0,-1e-05,-1e-05,-0.0001,-0.00016,-5e-05,7e-05,3
8984,9478,2e-05,0.0,-1e-05,-1e-05,-0.0001,-0.00016,-5e-05,7e-05,3
8985,9479,2e-05,0.0,-1e-05,-1e-05,-0.0001,-0.00016,-5e-05,7e-05,3
8986,9480,2e-05,0.0,-1e-05,-1e-05,-0.0001,-0.00016,-5e-05,7e-05,3
8987,9481,2e-05,0.0,-1e-05,-1e-05,-0.0001,-0.00016,-5e-05,7e-05,3
8988,9482,2e-05,0.0,-1e-05,-1e-05,-0.0001,-0.00016,-5e-05,7e-05,3
8989,9483,-0.0003,0.00015,7e-05,2e-05,0.00031,0.00028,-2.9999999999999997e-05,0.00011,3
8990,9484,-0.0003,0.00015,7e-05,2e-05,0.00031,0.00028,-2.9999999999999997e-05,0.00011,3
8991,9485,2.9999999999999997e-05,-2.9999999999999997e-05,-0.00016,-7e-05,-9e-05,-0.0005099999999999999,-9e-05,-0.0001,3
8992,9486,2.9999999999999997e-05,-2.9999999999999997e-05,-0.00016,-7e-05,-9e-05,-0.0005099999999999999,-9e-05,-0.0001,3
8993,9489,2.9999999999999997e-05,-2.9999999999999997e-05,-0.00016,-7e-05,-9e-05,-0.0005099999999999999,-9e-05,-0.0001,3
8994,9490,2.9999999999999997e-05,-2.9999999999999997e-05,-0.00016,-7e-05,-9e-05,-0.0005099999999999999,-9e-05,-0.0001,3
8995,9491,2.9999999999999997e-05,-2.9999999999999997e-05,-0.00016,-7e-05,-9e-05,-0.0005099999999999999,-9e-05,-0.0001,3
8996,9492,2.9999999999999997e-05,-2.9999999999999997e-05,-0.00016,-7e-05,-9e-05,-0.0005099999999999999,-9e-05,-0.0001,3
8997,9493,2.9999999999999997e-05,-2.9999999999999997e-05,-0.00016,-7e-05,-9e-05,-0.0005099999999999999,-9e-05,-0.0001,3
8998,9494,2.9999999999999997e-05,-2.9999999999999997e-05,-0.00016,-7e-05,-9e-05,-0.0005099999999999999,-9e-05,-0.0001,3
8999,9496,2.9999999999999997e-05,-2.9999999999999997e-05,-0.00016,-7e-05,-9e-05,-0.0005099999999999999,-9e-05,-0.0001,3
9000,9497,2.9999999999999997e-05,-2.9999999999999997e-05,-0.00016,-7e-05,-9e-05,-0.0005099999999999999,-9e-05,-0.0001,3
9001,9498,-0.00014,-0.00047000000000000004,2e-05,-4e-05,-0.00023999999999999998,0.00011,2e-05,-8e-05,3
9002,9499,5.9999999999999995e-05,0.00014,-4e-05,-8e-05,-0.00037,-0.00022999999999999998,-5.9999999999999995e-05,-9e-05,3
9003,9501,5.9999999999999995e-05,0.00014,-4e-05,-8e-05,-0.00037,-0.00022999999999999998,-5.9999999999999995e-05,-9e-05,3
9004,9502,5.9999999999999995e-05,0.00014,-4e-05,-8e-05,-0.00037,-0.00022999999999999998,-5.9999999999999995e-05,-9e-05,3
9005,9503,5.9999999999999995e-05,0.00014,-4e-05,-8e-05,-0.00037,-0.00022999999999999998,-5.9999999999999995e-05,-9e-05,3
9006,9504,-0.00018,0.00022999999999999998,-2.9999999999999997e-05,-5.9999999999999995e-05,-0.00016999999999999999,-0.0002,1e-05,-0.00011999999999999999,3
9007,9505,-0.00018,0.00022999999999999998,-2.9999999999999997e-05,-5.9999999999999995e-05,-0.00016999999999999999,-0.0002,1e-05,-0.00011999999999999999,3
9008,9506,-0.00018,0.00022999999999999998,-2.9999999999999997e-05,-5.9999999999999995e-05,-0.00016999999999999999,-0.0002,1e-05,-0.00011999999999999999,3
9009,9507,-0.00018,0.00022999999999999998,-2.9999999999999997e-05,-5.9999999999999995e-05,-0.00016999999999999999,-0.0002,1e-05,-0.00011999999999999999,3
9010,9508,-0.00018,0.00022999999999999998,-2.9999999999999997e-05,-5.9999999999999995e-05,-0.00016999999999999999,-0.0002,1e-05,-0.00011999999999999999,3
9011,9509,-0.00018,0.00022999999999999998,-2.9999999999999997e-05,-5.9999999999999995e-05,-0.00016999999999999999,-0.0002,1e-05,-0.00011999999999999999,3
9012,9510,-0.00018,0.00022999999999999998,-2.9999999999999997e-05,-5.9999999999999995e-05,-0.00016999999999999999,-0.0002,1e-05,-0.00011999999999999999,3
9013,9511,-0.00018,0.00022999999999999998,-2.9999999999999997e-05,-5.9999999999999995e-05,-0.00016999999999999999,-0.0002,1e-05,-0.00011999999999999999,3
9014,9512,-0.00018,0.00022999999999999998,-2.9999999999999997e-05,-5.9999999999999995e-05,-0.00016999999999999999,-0.0002,1e-05,-0.00011999999999999999,3
9015,9513,-0.00018,0.00022999999999999998,-2.9999999999999997e-05,-5.9999999999999995e-05,-0.00016999999999999999,-0.0002,1e-05,-0.00011999999999999999,3
9016,9514,-0.00018,0.00022999999999999998,-2.9999999999999997e-05,-5.9999999999999995e-05,-0.00016999999999999999,-0.0002,1e-05,-0.00011999999999999999,3
9017,9515,-0.00018,0.00022999999999999998,-2.9999999999999997e-05,-5.9999999999999995e-05,-0.00016999999999999999,-0.0002,1e-05,-0.00011999999999999999,3
9018,9516,-0.00018,0.00022999999999999998,-2.9999999999999997e-05,-5.9999999999999995e-05,-0.00016999999999999999,-0.0002,1e-05,-0.00011999999999999999,3
9019,9517,-0.00018,0.00022999999999999998,-2.9999999999999997e-05,-5.9999999999999995e-05,-0.00016999999999999999,-0.0002,1e-05,-0.00011999999999999999,3
9020,9518,-0.00018,0.00022999999999999998,-2.9999999999999997e-05,-5.9999999999999995e-05,-0.00016999999999999999,-0.0002,1e-05,-0.00011999999999999999,3
9021,9519,-0.00018,0.00022999999999999998,-2.9999999999999997e-05,-5.9999999999999995e-05,-0.00016999999999999999,-0.0002,1e-05,-0.00011999999999999999,3
9022,9520,-0.00018,0.00022999999999999998,-2.9999999999999997e-05,-5.9999999999999995e-05,-0.00016999999999999999,-0.0002,1e-05,-0.00011999999999999999,3
9023,9521,-0.00018,0.00022999999999999998,-2.9999999999999997e-05,-5.9999999999999995e-05,-0.00016999999999999999,-0.0002,1e-05,-0.00011999999999999999,3
9024,9522,-7e-05,0.00023999999999999998,1e-05,2.9999999999999997e-05,0.0001,0.00011999999999999999,1e-05,0.00025,3
9025,9523,-7e-05,0.00023999999999999998,1e-05,2.9999999999999997e-05,0.0001,0.00011999999999999999,1e-05,0.00025,3
9026,9524,-7e-05,0.00023999999999999998,1e-05,2.9999999999999997e-05,0.0001,0.00011999999999999999,1e-05,0.00025,3
9027,9525,-7e-05,0.00023999999999999998,1e-05,2.9999999999999997e-05,0.0001,0.00011999999999999999,1e-05,0.00025,3
9028,9526,-7e-05,0.00023999999999999998,1e-05,2.9999999999999997e-05,0.0001,0.00011999999999999999,1e-05,0.00025,3
9029,9527,9e-05,2.9999999999999997e-05,-4e-05,-4e-05,-0.00013000000000000002,8e-05,5e-05,-5e-05,3
9030,9528,9e-05,2.9999999999999997e-05,-4e-05,-4e-05,-0.00013000000000000002,8e-05,5e-05,-5e-05,3
9031,9529,9e-05,2.9999999999999997e-05,-4e-05,-4e-05,-0.00013000000000000002,8e-05,5e-05,-5e-05,3
9032,9530,9e-05,2.9999999999999997e-05,-4e-05,-4e-05,-0.00013000000000000002,8e-05,5e-05,-5e-05,3
9033,9531,9e-05,2.9999999999999997e-05,-4e-05,-4e-05,-0.00013000000000000002,8e-05,5e-05,-5e-05,3
9034,9532,9e-05,2.9999999999999997e-05,-4e-05,-4e-05,-0.00013000000000000002,8e-05,5e-05,-5e-05,3
9035,9533,9e-05,2.9999999999999997e-05,-4e-05,-4e-05,-0.00013000000000000002,8e-05,5e-05,-5e-05,3
9036,9534,9e-05,2.9999999999999997e-05,-4e-05,-4e-05,-0.00013000000000000002,8e-05,5e-05,-5e-05,3
9037,9535,9e-05,2.9999999999999997e-05,-4e-05,-4e-05,-0.00013000000000000002,8e-05,5e-05,-5e-05,3
9038,9536,9e-05,2.9999999999999997e-05,-4e-05,-4e-05,-0.00013000000000000002,8e-05,5e-05,-5e-05,3
9039,9539,9e-05,2.9999999999999997e-05,-4e-05,-4e-05,-0.00013000000000000002,8e-05,5e-05,-5e-05,3
9040,9541,9e-05,2.9999999999999997e-05,-4e-05,-4e-05,-0.00013000000000000002,8e-05,5e-05,-5e-05,3
9041,9542,9e-05,2.9999999999999997e-05,-4e-05,-4e-05,-0.00013000000000000002,8e-05,5e-05,-5e-05,3
9042,9543,8e-05,-0.0004,7e-05,-1e-05,2.9999999999999997e-05,-0.00022999999999999998,0.00021,-0.00022999999999999998,3
9043,9544,8e-05,-0.0004,7e-05,-1e-05,2.9999999999999997e-05,-0.00022999999999999998,0.00021,-0.00022999999999999998,3
9044,9545,-0.00015,-0.00013000000000000002,-7e-05,2e-05,2.9999999999999997e-05,0.0,-0.00011,-7e-05,3
9045,9546,-0.00015,-0.00013000000000000002,-7e-05,2e-05,2.9999999999999997e-05,0.0,-0.00011,-7e-05,3
9046,9547,-0.00015,-0.00013000000000000002,-7e-05,2e-05,2.9999999999999997e-05,0.0,-0.00011,-7e-05,3
9047,9548,-0.00015,-0.00013000000000000002,-7e-05,2e-05,2.9999999999999997e-05,0.0,-0.00011,-7e-05,3
9048,9549,-0.00015,-0.00013000000000000002,-7e-05,2e-05,2.9999999999999997e-05,0.0,-0.00011,-7e-05,3
9049,9550,-0.00015,-0.00013000000000000002,-7e-05,2e-05,2.9999999999999997e-05,0.0,-0.00011,-7e-05,3
9050,9551,-0.00015,-0.00013000000000000002,-7e-05,2e-05,2.9999999999999997e-05,0.0,-0.00011,-7e-05,3
9051,9552,-0.00015,-0.00013000000000000002,-7e-05,2e-05,2.9999999999999997e-05,0.0,-0.00011,-7e-05,3
9052,9553,-0.00015,-0.00013000000000000002,-7e-05,2e-05,2.9999999999999997e-05,0.0,-0.00011,-7e-05,3
9053,9554,-0.00015,-0.00013000000000000002,-7e-05,2e-05,2.9999999999999997e-05,0.0,-0.00011,-7e-05,3
9054,9555,-0.00015,-0.00013000000000000002,-7e-05,2e-05,2.9999999999999997e-05,0.0,-0.00011,-7e-05,3
9055,9556,-0.00015,-0.00013000000000000002,-7e-05,2e-05,2.9999999999999997e-05,0.0,-0.00011,-7e-05,3
9056,9557,-0.00015,-0.00013000000000000002,-7e-05,2e-05,2.9999999999999997e-05,0.0,-0.00011,-7e-05,3
9057,9558,-0.00015,-0.00013000000000000002,-7e-05,2e-05,2.9999999999999997e-05,0.0,-0.00011,-7e-05,3
9058,9559,-0.00015,-0.00013000000000000002,-7e-05,2e-05,2.9999999999999997e-05,0.0,-0.00011,-7e-05,3
9059,9560,-0.00015,-0.00013000000000000002,-7e-05,2e-05,2.9999999999999997e-05,0.0,-0.00011,-7e-05,3
9060,9561,-0.00015,-0.00013000000000000002,-7e-05,2e-05,2.9999999999999997e-05,0.0,-0.00011,-7e-05,3
9061,9562,-0.00015,-0.00013000000000000002,-7e-05,2e-05,2.9999999999999997e-05,0.0,-0.00011,-7e-05,3
9062,9563,-0.00015,-0.00013000000000000002,-7e-05,2e-05,2.9999999999999997e-05,0.0,-0.00011,-7e-05,3
9063,9564,-0.00015,-0.00013000000000000002,-7e-05,2e-05,2.9999999999999997e-05,0.0,-0.00011,-7e-05,3
9064,9566,-0.00015,-0.00013000000000000002,-7e-05,2e-05,2.9999999999999997e-05,0.0,-0.00011,-7e-05,3
9065,9567,-0.00015,-0.00013000000000000002,-7e-05,2e-05,2.9999999999999997e-05,0.0,-0.00011,-7e-05,3
9066,9568,-0.00015,-0.00013000000000000002,-7e-05,2e-05,2.9999999999999997e-05,0.0,-0.00011,-7e-05,3
9067,9569,0.0,-0.00015,-1e-05,2e-05,0.00013000000000000002,0.0001,-9e-05,-0.0001,3
9068,9570,0.0,-0.00015,-1e-05,2e-05,0.00013000000000000002,0.0001,-9e-05,-0.0001,3
9069,9571,0.0,-0.00015,-1e-05,2e-05,0.00013000000000000002,0.0001,-9e-05,-0.0001,3
9070,9572,0.0,-0.00015,-1e-05,2e-05,0.00013000000000000002,0.0001,-9e-05,-0.0001,3
9071,9573,0.0,-0.00015,-1e-05,2e-05,0.00013000000000000002,0.0001,-9e-05,-0.0001,3
9072,9574,0.0,-0.00015,-1e-05,2e-05,0.00013000000000000002,0.0001,-9e-05,-0.0001,3
9073,9575,0.0,-0.00015,-1e-05,2e-05,0.00013000000000000002,0.0001,-9e-05,-0.0001,3
9074,9576,0.0,-0.00015,-1e-05,2e-05,0.00013000000000000002,0.0001,-9e-05,-0.0001,3
9075,9577,0.0,-0.00015,-1e-05,2e-05,0.00013000000000000002,0.0001,-9e-05,-0.0001,3
9076,9578,0.0,-0.00015,-1e-05,2e-05,0.00013000000000000002,0.0001,-9e-05,-0.0001,3
9077,9579,0.0,-0.00015,-1e-05,2e-05,0.00013000000000000002,0.0001,-9e-05,-0.0001,3
9078,9580,5.9999999999999995e-05,-0.00015,1e-05,5.9999999999999995e-05,0.00031,0.00018,0.00025,0.00037,3
9079,9581,0.0001,0.00013000000000000002,-5.9999999999999995e-05,-4e-05,-0.00011999999999999999,-8e-05,5e-05,0.00061,3
9080,9583,2.9999999999999997e-05,-7e-05,2.9999999999999997e-05,1e-05,5.9999999999999995e-05,0.00021,-5.9999999999999995e-05,5e-05,3
9081,9584,2.9999999999999997e-05,-7e-05,2.9999999999999997e-05,1e-05,5.9999999999999995e-05,0.00021,-5.9999999999999995e-05,5e-05,3
9082,9585,2.9999999999999997e-05,-7e-05,2.9999999999999997e-05,1e-05,5.9999999999999995e-05,0.00021,-5.9999999999999995e-05,5e-05,3
9083,9586,2.9999999999999997e-05,-7e-05,2.9999999999999997e-05,1e-05,5.9999999999999995e-05,0.00021,-5.9999999999999995e-05,5e-05,3
9084,9589,2.9999999999999997e-05,-7e-05,2.9999999999999997e-05,1e-05,5.9999999999999995e-05,0.00021,-5.9999999999999995e-05,5e-05,3
9085,9590,2.9999999999999997e-05,-7e-05,2.9999999999999997e-05,1e-05,5.9999999999999995e-05,0.00021,-5.9999999999999995e-05,5e-05,3
9086,9591,2.9999999999999997e-05,-7e-05,2.9999999999999997e-05,1e-05,5.9999999999999995e-05,0.00021,-5.9999999999999995e-05,5e-05,3
9087,9592,2.9999999999999997e-05,-7e-05,2.9999999999999997e-05,1e-05,5.9999999999999995e-05,0.00021,-5.9999999999999995e-05,5e-05,3
9088,9593,2.9999999999999997e-05,-7e-05,2.9999999999999997e-05,1e-05,5.9999999999999995e-05,0.00021,-5.9999999999999995e-05,5e-05,3
9089,9594,2.9999999999999997e-05,-7e-05,2.9999999999999997e-05,1e-05,5.9999999999999995e-05,0.00021,-5.9999999999999995e-05,5e-05,3
9090,9595,2.9999999999999997e-05,-7e-05,2.9999999999999997e-05,1e-05,5.9999999999999995e-05,0.00021,-5.9999999999999995e-05,5e-05,3
9091,9596,2.9999999999999997e-05,-7e-05,2.9999999999999997e-05,1e-05,5.9999999999999995e-05,0.00021,-5.9999999999999995e-05,5e-05,3
9092,9597,2.9999999999999997e-05,-7e-05,2.9999999999999997e-05,1e-05,5.9999999999999995e-05,0.00021,-5.9999999999999995e-05,5e-05,3
9093,9598,2.9999999999999997e-05,-7e-05,2.9999999999999997e-05,1e-05,5.9999999999999995e-05,0.00021,-5.9999999999999995e-05,5e-05,3
9094,9599,2.9999999999999997e-05,-7e-05,2.9999999999999997e-05,1e-05,5.9999999999999995e-05,0.00021,-5.9999999999999995e-05,5e-05,3
9095,9600,2.9999999999999997e-05,-7e-05,2.9999999999999997e-05,1e-05,5.9999999999999995e-05,0.00021,-5.9999999999999995e-05,5e-05,3
9096,9601,2.9999999999999997e-05,-7e-05,2.9999999999999997e-05,1e-05,5.9999999999999995e-05,0.00021,-5.9999999999999995e-05,5e-05,3
9097,9602,2.9999999999999997e-05,-7e-05,2.9999999999999997e-05,1e-05,5.9999999999999995e-05,0.00021,-5.9999999999999995e-05,5e-05,3
9098,9603,0.00023999999999999998,-0.00023999999999999998,1e-05,-2.9999999999999997e-05,2.9999999999999997e-05,2e-05,7e-05,8e-05,3
9099,9604,0.00023999999999999998,-0.00023999999999999998,1e-05,-2.9999999999999997e-05,2.9999999999999997e-05,2e-05,7e-05,8e-05,3
9100,9605,-0.00016999999999999999,0.00036,2e-05,-1e-05,-7e-05,-0.00036,-0.00011,0.00028,3
9101,9606,-0.00016999999999999999,0.00036,2e-05,-1e-05,-7e-05,-0.00036,-0.00011,0.00028,3
9102,9607,-0.00016999999999999999,0.00036,2e-05,-1e-05,-7e-05,-0.00036,-0.00011,0.00028,3
9103,9608,-0.00016999999999999999,0.00036,2e-05,-1e-05,-7e-05,-0.00036,-0.00011,0.00028,3
9104,9609,-0.00016999999999999999,0.00036,2e-05,-1e-05,-7e-05,-0.00036,-0.00011,0.00028,3
9105,9610,-0.00016999999999999999,0.00036,2e-05,-1e-05,-7e-05,-0.00036,-0.00011,0.00028,3
9106,9611,-0.00016999999999999999,0.00036,2e-05,-1e-05,-7e-05,-0.00036,-0.00011,0.00028,3
9107,9612,-0.00016999999999999999,0.00036,2e-05,-1e-05,-7e-05,-0.00036,-0.00011,0.00028,3
9108,9613,-0.00016999999999999999,0.00036,2e-05,-1e-05,-7e-05,-0.00036,-0.00011,0.00028,3
9109,9614,-0.00016999999999999999,0.00036,2e-05,-1e-05,-7e-05,-0.00036,-0.00011,0.00028,3
9110,9615,-0.00016999999999999999,0.00036,2e-05,-1e-05,-7e-05,-0.00036,-0.00011,0.00028,3
9111,9616,-0.00016999999999999999,0.00036,2e-05,-1e-05,-7e-05,-0.00036,-0.00011,0.00028,3
9112,9617,-0.00016999999999999999,0.00036,2e-05,-1e-05,-7e-05,-0.00036,-0.00011,0.00028,3
9113,9618,-5.9999999999999995e-05,0.00023999999999999998,0.0,-7e-05,-0.00022999999999999998,-0.00022999999999999998,-5.9999999999999995e-05,-0.00028,3
9114,9619,-5.9999999999999995e-05,0.00023999999999999998,0.0,-7e-05,-0.00022999999999999998,-0.00022999999999999998,-5.9999999999999995e-05,-0.00028,3
9115,9620,-5.9999999999999995e-05,0.00023999999999999998,0.0,-7e-05,-0.00022999999999999998,-0.00022999999999999998,-5.9999999999999995e-05,-0.00028,3
9116,9621,-5.9999999999999995e-05,0.00023999999999999998,0.0,-7e-05,-0.00022999999999999998,-0.00022999999999999998,-5.9999999999999995e-05,-0.00028,3
9117,9622,-5.9999999999999995e-05,0.00023999999999999998,0.0,-7e-05,-0.00022999999999999998,-0.00022999999999999998,-5.9999999999999995e-05,-0.00028,3
9118,9623,-5.9999999999999995e-05,0.00023999999999999998,0.0,-7e-05,-0.00022999999999999998,-0.00022999999999999998,-5.9999999999999995e-05,-0.00028,3
9119,9624,-5.9999999999999995e-05,0.00023999999999999998,0.0,-7e-05,-0.00022999999999999998,-0.00022999999999999998,-5.9999999999999995e-05,-0.00028,3
9120,9625,-5.9999999999999995e-05,0.00023999999999999998,0.0,-7e-05,-0.00022999999999999998,-0.00022999999999999998,-5.9999999999999995e-05,-0.00028,3
9121,9626,-5.9999999999999995e-05,0.00023999999999999998,0.0,-7e-05,-0.00022999999999999998,-0.00022999999999999998,-5.9999999999999995e-05,-0.00028,3
9122,9627,-5.9999999999999995e-05,0.00023999999999999998,0.0,-7e-05,-0.00022999999999999998,-0.00022999999999999998,-5.9999999999999995e-05,-0.00028,3
9123,9628,-5.9999999999999995e-05,0.00023999999999999998,0.0,-7e-05,-0.00022999999999999998,-0.00022999999999999998,-5.9999999999999995e-05,-0.00028,3
9124,9629,-5.9999999999999995e-05,0.00023999999999999998,0.0,-7e-05,-0.00022999999999999998,-0.00022999999999999998,-5.9999999999999995e-05,-0.00028,3
9125,9630,-5.9999999999999995e-05,0.00023999999999999998,0.0,-7e-05,-0.00022999999999999998,-0.00022999999999999998,-5.9999999999999995e-05,-0.00028,3
9126,9631,-5.9999999999999995e-05,0.00023999999999999998,0.0,-7e-05,-0.00022999999999999998,-0.00022999999999999998,-5.9999999999999995e-05,-0.00028,3
9127,9632,-5.9999999999999995e-05,0.00023999999999999998,0.0,-7e-05,-0.00022999999999999998,-0.00022999999999999998,-5.9999999999999995e-05,-0.00028,3
9128,9633,0.00018,2e-05,4e-05,4e-05,0.00045999999999999996,0.0007099999999999999,0.00014,-0.00025,3
9129,9634,0.00018,2e-05,4e-05,4e-05,0.00045999999999999996,0.0007099999999999999,0.00014,-0.00025,3
9130,9635,0.00018,2e-05,4e-05,4e-05,0.00045999999999999996,0.0007099999999999999,0.00014,-0.00025,3
9131,9636,0.00018,2e-05,4e-05,4e-05,0.00045999999999999996,0.0007099999999999999,0.00014,-0.00025,3
9132,9638,0.00018,2e-05,4e-05,4e-05,0.00045999999999999996,0.0007099999999999999,0.00014,-0.00025,3
9133,9640,0.00018,2e-05,4e-05,4e-05,0.00045999999999999996,0.0007099999999999999,0.00014,-0.00025,3
9134,9641,0.00018,2e-05,4e-05,4e-05,0.00045999999999999996,0.0007099999999999999,0.00014,-0.00025,3
9135,9642,0.00018,2e-05,4e-05,4e-05,0.00045999999999999996,0.0007099999999999999,0.00014,-0.00025,3
9136,9643,0.00018,2e-05,4e-05,4e-05,0.00045999999999999996,0.0007099999999999999,0.00014,-0.00025,3
9137,9644,0.00018,2e-05,4e-05,4e-05,0.00045999999999999996,0.0007099999999999999,0.00014,-0.00025,3
9138,9645,0.00018,2e-05,4e-05,4e-05,0.00045999999999999996,0.0007099999999999999,0.00014,-0.00025,3
9139,9646,0.00018,2e-05,4e-05,4e-05,0.00045999999999999996,0.0007099999999999999,0.00014,-0.00025,3
9140,9647,0.00018,2e-05,4e-05,4e-05,0.00045999999999999996,0.0007099999999999999,0.00014,-0.00025,3
9141,9648,0.00018,2e-05,4e-05,4e-05,0.00045999999999999996,0.0007099999999999999,0.00014,-0.00025,3
9142,9649,-2.9999999999999997e-05,2e-05,4e-05,2e-05,-0.0002,2e-05,-0.00011,-0.00013000000000000002,3
9143,9650,-2e-05,0.0001,0.0,-5e-05,-7e-05,-0.00033,1e-05,-0.0001,3
9144,9651,-2e-05,0.0001,0.0,-5e-05,-7e-05,-0.00033,1e-05,-0.0001,3
9145,9652,-2e-05,0.0001,0.0,-5e-05,-7e-05,-0.00033,1e-05,-0.0001,3
9146,9653,-2e-05,0.0001,0.0,-5e-05,-7e-05,-0.00033,1e-05,-0.0001,3
9147,9654,-2e-05,0.0001,0.0,-5e-05,-7e-05,-0.00033,1e-05,-0.0001,3
9148,9655,-2e-05,0.0001,0.0,-5e-05,-7e-05,-0.00033,1e-05,-0.0001,3
9149,9656,-2e-05,0.0001,0.0,-5e-05,-7e-05,-0.00033,1e-05,-0.0001,3
9150,9657,-2e-05,0.0001,0.0,-5e-05,-7e-05,-0.00033,1e-05,-0.0001,3
9151,9658,-2e-05,0.0001,0.0,-5e-05,-7e-05,-0.00033,1e-05,-0.0001,3
9152,9659,-2e-05,0.0001,0.0,-5e-05,-7e-05,-0.00033,1e-05,-0.0001,3
9153,9660,-2e-05,0.0001,0.0,-5e-05,-7e-05,-0.00033,1e-05,-0.0001,3
9154,9661,-2e-05,0.0001,0.0,-5e-05,-7e-05,-0.00033,1e-05,-0.0001,3
9155,9662,-2e-05,0.0001,0.0,-5e-05,-7e-05,-0.00033,1e-05,-0.0001,3
9156,9663,-0.00025,-9e-05,5e-05,5e-05,0.0005,0.00018,2.9999999999999997e-05,-0.00021,3
9157,9665,-0.00018,-0.00028,-8e-05,-4e-05,-0.00011,-9e-05,5e-05,-0.00027,3
9158,9666,-0.00018,-0.00028,-8e-05,-4e-05,-0.00011,-9e-05,5e-05,-0.00027,3
9159,9667,-0.00018,-0.00028,-8e-05,-4e-05,-0.00011,-9e-05,5e-05,-0.00027,3
9160,9668,-0.00018,-0.00028,-8e-05,-4e-05,-0.00011,-9e-05,5e-05,-0.00027,3
9161,9669,-0.00018,-0.00028,-8e-05,-4e-05,-0.00011,-9e-05,5e-05,-0.00027,3
9162,9670,-0.00018,-0.00028,-8e-05,-4e-05,-0.00011,-9e-05,5e-05,-0.00027,3
9163,9671,-0.00018,-0.00028,-8e-05,-4e-05,-0.00011,-9e-05,5e-05,-0.00027,3
9164,9672,-0.00018,-0.00028,-8e-05,-4e-05,-0.00011,-9e-05,5e-05,-0.00027,3
9165,9673,-0.00018,-0.00028,-8e-05,-4e-05,-0.00011,-9e-05,5e-05,-0.00027,3
9166,9674,-0.00018,-0.00028,-8e-05,-4e-05,-0.00011,-9e-05,5e-05,-0.00027,3
9167,9675,-0.00018,-0.00028,-8e-05,-4e-05,-0.00011,-9e-05,5e-05,-0.00027,3
9168,9676,-0.00018,-0.00028,-8e-05,-4e-05,-0.00011,-9e-05,5e-05,-0.00027,3
9169,9677,-0.00018,-0.00028,-8e-05,-4e-05,-0.00011,-9e-05,5e-05,-0.00027,3
9170,9678,-0.00018,-0.00028,-8e-05,-4e-05,-0.00011,-9e-05,5e-05,-0.00027,3
9171,9679,-0.00018,-0.00028,-8e-05,-4e-05,-0.00011,-9e-05,5e-05,-0.00027,3
9172,9680,-0.00018,-0.00028,-8e-05,-4e-05,-0.00011,-9e-05,5e-05,-0.00027,3
9173,9681,-0.00018,-0.00028,-8e-05,-4e-05,-0.00011,-9e-05,5e-05,-0.00027,3
9174,9682,-0.00018,-0.00028,-8e-05,-4e-05,-0.00011,-9e-05,5e-05,-0.00027,3
9175,9683,-0.00018,-0.00028,-8e-05,-4e-05,-0.00011,-9e-05,5e-05,-0.00027,3
9176,9684,-0.00018,-0.00028,-8e-05,-4e-05,-0.00011,-9e-05,5e-05,-0.00027,3
9177,9685,-0.00018,-0.00028,-8e-05,-4e-05,-0.00011,-9e-05,5e-05,-0.00027,3
9178,9686,7e-05,9e-05,0.0,-5e-05,-1e-05,0.00015,-9e-05,0.00027,3
9179,9689,-0.00028,0.00015,-4e-05,-2.9999999999999997e-05,-2e-05,9e-05,7e-05,0.0,3
9180,9690,-0.00028,0.00015,-4e-05,-2.9999999999999997e-05,-2e-05,9e-05,7e-05,0.0,3
9181,9691,-0.00028,0.00015,-4e-05,-2.9999999999999997e-05,-2e-05,9e-05,7e-05,0.0,3
9182,9692,-0.00028,0.00015,-4e-05,-2.9999999999999997e-05,-2e-05,9e-05,7e-05,0.0,3
9183,9693,-0.00028,0.00015,-4e-05,-2.9999999999999997e-05,-2e-05,9e-05,7e-05,0.0,3
9184,9694,-0.00028,0.00015,-4e-05,-2.9999999999999997e-05,-2e-05,9e-05,7e-05,0.0,3
9185,9695,-0.00028,0.00015,-4e-05,-2.9999999999999997e-05,-2e-05,9e-05,7e-05,0.0,3
9186,9696,-0.00028,0.00015,-4e-05,-2.9999999999999997e-05,-2e-05,9e-05,7e-05,0.0,3
9187,9697,-0.00028,0.00015,-4e-05,-2.9999999999999997e-05,-2e-05,9e-05,7e-05,0.0,3
9188,9698,-0.00028,0.00015,-4e-05,-2.9999999999999997e-05,-2e-05,9e-05,7e-05,0.0,3
9189,9699,-0.00028,0.00015,-4e-05,-2.9999999999999997e-05,-2e-05,9e-05,7e-05,0.0,3
9190,9700,-0.00028,0.00015,-4e-05,-2.9999999999999997e-05,-2e-05,9e-05,7e-05,0.0,3
9191,9701,-0.00028,0.00015,-4e-05,-2.9999999999999997e-05,-2e-05,9e-05,7e-05,0.0,3
9192,9702,-0.00028,0.00015,-4e-05,-2.9999999999999997e-05,-2e-05,9e-05,7e-05,0.0,3
9193,9703,-0.00028,0.00015,-4e-05,-2.9999999999999997e-05,-2e-05,9e-05,7e-05,0.0,3
9194,9704,-0.00028,0.00015,-4e-05,-2.9999999999999997e-05,-2e-05,9e-05,7e-05,0.0,3
9195,9705,-0.00028,0.00015,-4e-05,-2.9999999999999997e-05,-2e-05,9e-05,7e-05,0.0,3
9196,9706,-0.00028,0.00015,-4e-05,-2.9999999999999997e-05,-2e-05,9e-05,7e-05,0.0,3
9197,9707,-0.00028,0.00015,-4e-05,-2.9999999999999997e-05,-2e-05,9e-05,7e-05,0.0,3
9198,9708,0.0001,-0.0003,-4e-05,-1e-05,-5e-05,-2.9999999999999997e-05,1e-05,2.9999999999999997e-05,3
9199,9709,0.0001,-0.0003,-4e-05,-1e-05,-5e-05,-2.9999999999999997e-05,1e-05,2.9999999999999997e-05,3
9200,9710,8e-05,-0.00016999999999999999,5e-05,2.9999999999999997e-05,0.00044,0.00032,2.9999999999999997e-05,2.9999999999999997e-05,3
9201,9711,8e-05,-0.00016999999999999999,5e-05,2.9999999999999997e-05,0.00044,0.00032,2.9999999999999997e-05,2.9999999999999997e-05,3
9202,9712,8e-05,-0.00016999999999999999,5e-05,2.9999999999999997e-05,0.00044,0.00032,2.9999999999999997e-05,2.9999999999999997e-05,3
9203,9713,8e-05,-0.00016999999999999999,5e-05,2.9999999999999997e-05,0.00044,0.00032,2.9999999999999997e-05,2.9999999999999997e-05,3
9204,9714,8e-05,-0.00016999999999999999,5e-05,2.9999999999999997e-05,0.00044,0.00032,2.9999999999999997e-05,2.9999999999999997e-05,3
9205,9715,8e-05,-0.00016999999999999999,5e-05,2.9999999999999997e-05,0.00044,0.00032,2.9999999999999997e-05,2.9999999999999997e-05,3
9206,9716,8e-05,-0.00016999999999999999,5e-05,2.9999999999999997e-05,0.00044,0.00032,2.9999999999999997e-05,2.9999999999999997e-05,3
9207,9717,8e-05,-0.00016999999999999999,5e-05,2.9999999999999997e-05,0.00044,0.00032,2.9999999999999997e-05,2.9999999999999997e-05,3
9208,9718,8e-05,-0.00016999999999999999,5e-05,2.9999999999999997e-05,0.00044,0.00032,2.9999999999999997e-05,2.9999999999999997e-05,3
9209,9719,8e-05,-0.00016999999999999999,5e-05,2.9999999999999997e-05,0.00044,0.00032,2.9999999999999997e-05,2.9999999999999997e-05,3
9210,9720,8e-05,-0.00016999999999999999,5e-05,2.9999999999999997e-05,0.00044,0.00032,2.9999999999999997e-05,2.9999999999999997e-05,3
9211,9721,8e-05,-0.00016999999999999999,5e-05,2.9999999999999997e-05,0.00044,0.00032,2.9999999999999997e-05,2.9999999999999997e-05,3
9212,9722,8e-05,-0.00016999999999999999,5e-05,2.9999999999999997e-05,0.00044,0.00032,2.9999999999999997e-05,2.9999999999999997e-05,3
9213,9723,-2.9999999999999997e-05,0.00022,2e-05,2.9999999999999997e-05,-4e-05,-8e-05,-5.9999999999999995e-05,0.00011999999999999999,3
9214,9724,-2.9999999999999997e-05,0.00022,2e-05,2.9999999999999997e-05,-4e-05,-8e-05,-5.9999999999999995e-05,0.00011999999999999999,3
9215,9725,5e-05,-0.0002,-0.0001,-2.9999999999999997e-05,-0.00015,-8e-05,0.0001,0.00031,3
9216,9726,5e-05,-0.0002,-0.0001,-2.9999999999999997e-05,-0.00015,-8e-05,0.0001,0.00031,3
9217,9727,5e-05,-0.0002,-0.0001,-2.9999999999999997e-05,-0.00015,-8e-05,0.0001,0.00031,3
9218,9728,5e-05,-0.0002,-0.0001,-2.9999999999999997e-05,-0.00015,-8e-05,0.0001,0.00031,3
9219,9729,5e-05,-0.0002,-0.0001,-2.9999999999999997e-05,-0.00015,-8e-05,0.0001,0.00031,3
9220,9730,5e-05,-0.0002,-0.0001,-2.9999999999999997e-05,-0.00015,-8e-05,0.0001,0.00031,3
9221,9731,5e-05,-0.0002,-0.0001,-2.9999999999999997e-05,-0.00015,-8e-05,0.0001,0.00031,3
9222,9732,5e-05,-0.0002,-0.0001,-2.9999999999999997e-05,-0.00015,-8e-05,0.0001,0.00031,3
9223,9733,5e-05,-0.0002,-0.0001,-2.9999999999999997e-05,-0.00015,-8e-05,0.0001,0.00031,3
9224,9734,5e-05,-0.0002,-0.0001,-2.9999999999999997e-05,-0.00015,-8e-05,0.0001,0.00031,3
9225,9735,5e-05,-0.0002,-0.0001,-2.9999999999999997e-05,-0.00015,-8e-05,0.0001,0.00031,3
9226,9736,5e-05,-0.0002,-0.0001,-2.9999999999999997e-05,-0.00015,-8e-05,0.0001,0.00031,3
9227,9738,5e-05,-0.0002,-0.0001,-2.9999999999999997e-05,-0.00015,-8e-05,0.0001,0.00031,3
9228,9739,5e-05,-0.0002,-0.0001,-2.9999999999999997e-05,-0.00015,-8e-05,0.0001,0.00031,3
9229,9740,5e-05,-0.0002,-0.0001,-2.9999999999999997e-05,-0.00015,-8e-05,0.0001,0.00031,3
9230,9741,5e-05,-0.0002,-0.0001,-2.9999999999999997e-05,-0.00015,-8e-05,0.0001,0.00031,3
9231,9742,5e-05,-0.0002,-0.0001,-2.9999999999999997e-05,-0.00015,-8e-05,0.0001,0.00031,3
9232,9743,5e-05,-0.0002,-0.0001,-2.9999999999999997e-05,-0.00015,-8e-05,0.0001,0.00031,3
9233,9744,5e-05,-0.0002,-0.0001,-2.9999999999999997e-05,-0.00015,-8e-05,0.0001,0.00031,3
9234,9745,5e-05,-0.0002,-0.0001,-2.9999999999999997e-05,-0.00015,-8e-05,0.0001,0.00031,3
9235,9746,-0.00013000000000000002,1e-05,-5.9999999999999995e-05,2.9999999999999997e-05,0.00022999999999999998,0.00022999999999999998,-4e-05,-0.00018,3
9236,9747,-5.9999999999999995e-05,-0.00036,-0.00015,-2e-05,-4e-05,0.00011,2e-05,-7e-05,3
9237,9748,-5.9999999999999995e-05,-0.00036,-0.00015,-2e-05,-4e-05,0.00011,2e-05,-7e-05,3
9238,9749,-5.9999999999999995e-05,-0.00036,-0.00015,-2e-05,-4e-05,0.00011,2e-05,-7e-05,3
9239,9750,-5.9999999999999995e-05,-0.00036,-0.00015,-2e-05,-4e-05,0.00011,2e-05,-7e-05,3
9240,9751,-5.9999999999999995e-05,-0.00036,-0.00015,-2e-05,-4e-05,0.00011,2e-05,-7e-05,3
9241,9752,-5.9999999999999995e-05,-0.00036,-0.00015,-2e-05,-4e-05,0.00011,2e-05,-7e-05,3
9242,9753,-5.9999999999999995e-05,-0.00036,-0.00015,-2e-05,-4e-05,0.00011,2e-05,-7e-05,3
9243,9754,-5.9999999999999995e-05,-0.00036,-0.00015,-2e-05,-4e-05,0.00011,2e-05,-7e-05,3
9244,9755,-5.9999999999999995e-05,-0.00036,-0.00015,-2e-05,-4e-05,0.00011,2e-05,-7e-05,3
9245,9756,-5.9999999999999995e-05,-0.00036,-0.00015,-2e-05,-4e-05,0.00011,2e-05,-7e-05,3
9246,9757,-5.9999999999999995e-05,-0.00036,-0.00015,-2e-05,-4e-05,0.00011,2e-05,-7e-05,3
9247,9758,-5.9999999999999995e-05,-0.00036,-0.00015,-2e-05,-4e-05,0.00011,2e-05,-7e-05,3
9248,9759,-5.9999999999999995e-05,-0.00036,-0.00015,-2e-05,-4e-05,0.00011,2e-05,-7e-05,3
9249,9760,-5.9999999999999995e-05,-0.00036,-0.00015,-2e-05,-4e-05,0.00011,2e-05,-7e-05,3
9250,9761,2.9999999999999997e-05,0.0,-5.9999999999999995e-05,-7e-05,-0.00042,-0.00049,-0.00011999999999999999,0.00011999999999999999,3
9251,9762,0.00013000000000000002,0.00025,0.00011,5e-05,-1e-05,0.00022999999999999998,-0.00011999999999999999,-2e-05,3
9252,9764,0.00013000000000000002,0.00025,0.00011,5e-05,-1e-05,0.00022999999999999998,-0.00011999999999999999,-2e-05,3
9253,9765,0.00013000000000000002,0.00025,0.00011,5e-05,-1e-05,0.00022999999999999998,-0.00011999999999999999,-2e-05,3
9254,9766,0.00013000000000000002,0.00025,0.00011,5e-05,-1e-05,0.00022999999999999998,-0.00011999999999999999,-2e-05,3
9255,9767,0.00013000000000000002,0.00025,0.00011,5e-05,-1e-05,0.00022999999999999998,-0.00011999999999999999,-2e-05,3
9256,9768,0.00013000000000000002,0.00025,0.00011,5e-05,-1e-05,0.00022999999999999998,-0.00011999999999999999,-2e-05,3
9257,9769,0.00013000000000000002,0.00025,0.00011,5e-05,-1e-05,0.00022999999999999998,-0.00011999999999999999,-2e-05,3
9258,9770,0.00013000000000000002,0.00025,0.00011,5e-05,-1e-05,0.00022999999999999998,-0.00011999999999999999,-2e-05,3
9259,9771,0.00013000000000000002,0.00025,0.00011,5e-05,-1e-05,0.00022999999999999998,-0.00011999999999999999,-2e-05,3
9260,9772,0.00013000000000000002,0.00025,0.00011,5e-05,-1e-05,0.00022999999999999998,-0.00011999999999999999,-2e-05,3
9261,9773,0.00013000000000000002,0.00025,0.00011,5e-05,-1e-05,0.00022999999999999998,-0.00011999999999999999,-2e-05,3
9262,9774,0.00013000000000000002,0.00025,0.00011,5e-05,-1e-05,0.00022999999999999998,-0.00011999999999999999,-2e-05,3
9263,9775,0.00013000000000000002,0.00025,0.00011,5e-05,-1e-05,0.00022999999999999998,-0.00011999999999999999,-2e-05,3
9264,9776,0.00013000000000000002,0.00025,0.00011,5e-05,-1e-05,0.00022999999999999998,-0.00011999999999999999,-2e-05,3
9265,9777,0.00013000000000000002,0.00025,0.00011,5e-05,-1e-05,0.00022999999999999998,-0.00011999999999999999,-2e-05,3
9266,9778,0.00013000000000000002,0.00025,0.00011,5e-05,-1e-05,0.00022999999999999998,-0.00011999999999999999,-2e-05,3
9267,9779,0.00013000000000000002,0.00025,0.00011,5e-05,-1e-05,0.00022999999999999998,-0.00011999999999999999,-2e-05,3
9268,9780,0.00013000000000000002,0.00025,0.00011,5e-05,-1e-05,0.00022999999999999998,-0.00011999999999999999,-2e-05,3
9269,9781,0.00013000000000000002,0.00025,0.00011,5e-05,-1e-05,0.00022999999999999998,-0.00011999999999999999,-2e-05,3
9270,9782,0.00013000000000000002,0.00025,0.00011,5e-05,-1e-05,0.00022999999999999998,-0.00011999999999999999,-2e-05,3
9271,9783,0.0,-8e-05,-4e-05,-5e-05,-8e-05,-0.00022,5e-05,0.00016,3
9272,9784,1e-05,-0.0002,5.9999999999999995e-05,1e-05,-0.00014,-9e-05,5e-05,0.00016,3
9273,9785,8e-05,-5.9999999999999995e-05,0.0001,2.9999999999999997e-05,-9e-05,-0.00013000000000000002,-9e-05,-9e-05,3
9274,9786,8e-05,-5.9999999999999995e-05,0.0001,2.9999999999999997e-05,-9e-05,-0.00013000000000000002,-9e-05,-9e-05,3
9275,9788,8e-05,-5.9999999999999995e-05,0.0001,2.9999999999999997e-05,-9e-05,-0.00013000000000000002,-9e-05,-9e-05,3
9276,9790,8e-05,-5.9999999999999995e-05,0.0001,2.9999999999999997e-05,-9e-05,-0.00013000000000000002,-9e-05,-9e-05,3
9277,9791,8e-05,-5.9999999999999995e-05,0.0001,2.9999999999999997e-05,-9e-05,-0.00013000000000000002,-9e-05,-9e-05,3
9278,9792,8e-05,-5.9999999999999995e-05,0.0001,2.9999999999999997e-05,-9e-05,-0.00013000000000000002,-9e-05,-9e-05,3
9279,9793,8e-05,-5.9999999999999995e-05,0.0001,2.9999999999999997e-05,-9e-05,-0.00013000000000000002,-9e-05,-9e-05,3
9280,9794,8e-05,-5.9999999999999995e-05,0.0001,2.9999999999999997e-05,-9e-05,-0.00013000000000000002,-9e-05,-9e-05,3
9281,9795,8e-05,-5.9999999999999995e-05,0.0001,2.9999999999999997e-05,-9e-05,-0.00013000000000000002,-9e-05,-9e-05,3
9282,9796,8e-05,-5.9999999999999995e-05,0.0001,2.9999999999999997e-05,-9e-05,-0.00013000000000000002,-9e-05,-9e-05,3
9283,9797,5.9999999999999995e-05,-0.00014,2.9999999999999997e-05,-1e-05,0.00027,-1e-05,0.0,9e-05,3
9284,9798,5.9999999999999995e-05,-0.00014,2.9999999999999997e-05,-1e-05,0.00027,-1e-05,0.0,9e-05,3
9285,9799,5.9999999999999995e-05,-0.00014,2.9999999999999997e-05,-1e-05,0.00027,-1e-05,0.0,9e-05,3
9286,9800,5.9999999999999995e-05,-0.00014,2.9999999999999997e-05,-1e-05,0.00027,-1e-05,0.0,9e-05,3
9287,9801,5.9999999999999995e-05,-0.00014,2.9999999999999997e-05,-1e-05,0.00027,-1e-05,0.0,9e-05,3
9288,9802,5.9999999999999995e-05,-0.00014,2.9999999999999997e-05,-1e-05,0.00027,-1e-05,0.0,9e-05,3
9289,9803,5.9999999999999995e-05,-0.00014,2.9999999999999997e-05,-1e-05,0.00027,-1e-05,0.0,9e-05,3
9290,9804,5.9999999999999995e-05,-0.00014,2.9999999999999997e-05,-1e-05,0.00027,-1e-05,0.0,9e-05,3
9291,9805,5.9999999999999995e-05,-0.00014,2.9999999999999997e-05,-1e-05,0.00027,-1e-05,0.0,9e-05,3
9292,9806,0.00041,-0.00032,-2.9999999999999997e-05,-2e-05,5e-05,0.0,2.9999999999999997e-05,0.00032,3
9293,9807,0.00041,-0.00032,-2.9999999999999997e-05,-2e-05,5e-05,0.0,2.9999999999999997e-05,0.00032,3
9294,9808,0.00041,-0.00032,-2.9999999999999997e-05,-2e-05,5e-05,0.0,2.9999999999999997e-05,0.00032,3
9295,9809,0.00041,-0.00032,-2.9999999999999997e-05,-2e-05,5e-05,0.0,2.9999999999999997e-05,0.00032,3
9296,9810,0.00041,-0.00032,-2.9999999999999997e-05,-2e-05,5e-05,0.0,2.9999999999999997e-05,0.00032,3
9297,9811,0.00041,-0.00032,-2.9999999999999997e-05,-2e-05,5e-05,0.0,2.9999999999999997e-05,0.00032,3
9298,9812,0.00041,-0.00032,-2.9999999999999997e-05,-2e-05,5e-05,0.0,2.9999999999999997e-05,0.00032,3
9299,9813,0.00041,-0.00032,-2.9999999999999997e-05,-2e-05,5e-05,0.0,2.9999999999999997e-05,0.00032,3
9300,9814,0.00041,-0.00032,-2.9999999999999997e-05,-2e-05,5e-05,0.0,2.9999999999999997e-05,0.00032,3
9301,9815,0.00041,-0.00032,-2.9999999999999997e-05,-2e-05,5e-05,0.0,2.9999999999999997e-05,0.00032,3
9302,9816,0.00041,-0.00032,-2.9999999999999997e-05,-2e-05,5e-05,0.0,2.9999999999999997e-05,0.00032,3
9303,9817,0.00041,-0.00032,-2.9999999999999997e-05,-2e-05,5e-05,0.0,2.9999999999999997e-05,0.00032,3
9304,9818,0.00041,-0.00032,-2.9999999999999997e-05,-2e-05,5e-05,0.0,2.9999999999999997e-05,0.00032,3
9305,9819,0.00041,-0.00032,-2.9999999999999997e-05,-2e-05,5e-05,0.0,2.9999999999999997e-05,0.00032,3
9306,9820,0.00041,-0.00032,-2.9999999999999997e-05,-2e-05,5e-05,0.0,2.9999999999999997e-05,0.00032,3
9307,9821,0.0001,0.00026000000000000003,-2e-05,-4e-05,-8e-05,5e-05,8e-05,-9e-05,3
9308,9822,4e-05,0.00026000000000000003,0.00016999999999999999,8e-05,1e-05,-0.00011,-5.9999999999999995e-05,8e-05,3
9309,9823,4e-05,0.00026000000000000003,0.00016999999999999999,8e-05,1e-05,-0.00011,-5.9999999999999995e-05,8e-05,3
9310,9824,4e-05,0.00026000000000000003,0.00016999999999999999,8e-05,1e-05,-0.00011,-5.9999999999999995e-05,8e-05,3
9311,9825,4e-05,0.00026000000000000003,0.00016999999999999999,8e-05,1e-05,-0.00011,-5.9999999999999995e-05,8e-05,3
9312,9826,4e-05,0.00026000000000000003,0.00016999999999999999,8e-05,1e-05,-0.00011,-5.9999999999999995e-05,8e-05,3
9313,9827,4e-05,0.00026000000000000003,0.00016999999999999999,8e-05,1e-05,-0.00011,-5.9999999999999995e-05,8e-05,3
9314,9828,4e-05,0.00026000000000000003,0.00016999999999999999,8e-05,1e-05,-0.00011,-5.9999999999999995e-05,8e-05,3
9315,9829,4e-05,0.00026000000000000003,0.00016999999999999999,8e-05,1e-05,-0.00011,-5.9999999999999995e-05,8e-05,3
9316,9830,4e-05,0.00026000000000000003,0.00016999999999999999,8e-05,1e-05,-0.00011,-5.9999999999999995e-05,8e-05,3
9317,9831,4e-05,0.00026000000000000003,0.00016999999999999999,8e-05,1e-05,-0.00011,-5.9999999999999995e-05,8e-05,3
9318,9832,4e-05,0.00026000000000000003,0.00016999999999999999,8e-05,1e-05,-0.00011,-5.9999999999999995e-05,8e-05,3
9319,9833,4e-05,0.00026000000000000003,0.00016999999999999999,8e-05,1e-05,-0.00011,-5.9999999999999995e-05,8e-05,3
9320,9834,4e-05,0.00026000000000000003,0.00016999999999999999,8e-05,1e-05,-0.00011,-5.9999999999999995e-05,8e-05,3
9321,9835,4e-05,0.00026000000000000003,0.00016999999999999999,8e-05,1e-05,-0.00011,-5.9999999999999995e-05,8e-05,3
9322,9836,4e-05,0.00026000000000000003,0.00016999999999999999,8e-05,1e-05,-0.00011,-5.9999999999999995e-05,8e-05,3
9323,9838,4e-05,0.00026000000000000003,0.00016999999999999999,8e-05,1e-05,-0.00011,-5.9999999999999995e-05,8e-05,3
9324,9840,4e-05,0.00026000000000000003,0.00016999999999999999,8e-05,1e-05,-0.00011,-5.9999999999999995e-05,8e-05,3
9325,9841,4e-05,0.00026000000000000003,0.00016999999999999999,8e-05,1e-05,-0.00011,-5.9999999999999995e-05,8e-05,3
9326,9842,4e-05,0.00026000000000000003,0.00016999999999999999,8e-05,1e-05,-0.00011,-5.9999999999999995e-05,8e-05,3
9327,9843,-9e-05,0.00026000000000000003,1e-05,-2.9999999999999997e-05,-0.00016999999999999999,-0.00018,-8e-05,-2e-05,3
9328,9844,-8e-05,-0.00021,-2.9999999999999997e-05,0.0,-2.9999999999999997e-05,-2e-05,-8e-05,-9e-05,3
9329,9845,0.00025,0.0010199999999999999,0.00018,-4e-05,-0.00023999999999999998,-9e-05,1e-05,-0.00018999999999999998,3
9330,9846,0.00025,0.0010199999999999999,0.00018,-4e-05,-0.00023999999999999998,-9e-05,1e-05,-0.00018999999999999998,3
9331,9847,0.00025,0.0010199999999999999,0.00018,-4e-05,-0.00023999999999999998,-9e-05,1e-05,-0.00018999999999999998,3
9332,9848,0.00025,0.0010199999999999999,0.00018,-4e-05,-0.00023999999999999998,-9e-05,1e-05,-0.00018999999999999998,3
9333,9849,0.00025,0.0010199999999999999,0.00018,-4e-05,-0.00023999999999999998,-9e-05,1e-05,-0.00018999999999999998,3
9334,9850,0.00025,0.0010199999999999999,0.00018,-4e-05,-0.00023999999999999998,-9e-05,1e-05,-0.00018999999999999998,3
9335,9851,0.00025,0.0010199999999999999,0.00018,-4e-05,-0.00023999999999999998,-9e-05,1e-05,-0.00018999999999999998,3
9336,9852,0.00025,0.0010199999999999999,0.00018,-4e-05,-0.00023999999999999998,-9e-05,1e-05,-0.00018999999999999998,3
9337,9853,0.00025,0.0010199999999999999,0.00018,-4e-05,-0.00023999999999999998,-9e-05,1e-05,-0.00018999999999999998,3
9338,9854,0.00025,0.0010199999999999999,0.00018,-4e-05,-0.00023999999999999998,-9e-05,1e-05,-0.00018999999999999998,3
9339,9855,0.00025,0.0010199999999999999,0.00018,-4e-05,-0.00023999999999999998,-9e-05,1e-05,-0.00018999999999999998,3
9340,9856,0.00025,0.0010199999999999999,0.00018,-4e-05,-0.00023999999999999998,-9e-05,1e-05,-0.00018999999999999998,3
9341,9857,0.00011,0.0007,0.0,1e-05,0.0,9e-05,9e-05,0.00031,3
9342,9858,0.00011,0.0007,0.0,1e-05,0.0,9e-05,9e-05,0.00031,3
9343,9859,0.00011,0.0007,0.0,1e-05,0.0,9e-05,9e-05,0.00031,3
9344,9860,0.00011,0.0007,0.0,1e-05,0.0,9e-05,9e-05,0.00031,3
9345,9861,0.00011,0.0007,0.0,1e-05,0.0,9e-05,9e-05,0.00031,3
9346,9862,0.00011,0.0007,0.0,1e-05,0.0,9e-05,9e-05,0.00031,3
9347,9863,0.00011,0.0007,0.0,1e-05,0.0,9e-05,9e-05,0.00031,3
9348,9864,0.00011,0.0007,0.0,1e-05,0.0,9e-05,9e-05,0.00031,3
9349,9865,0.00011,0.0007,0.0,1e-05,0.0,9e-05,9e-05,0.00031,3
9350,9866,0.00011,0.0007,0.0,1e-05,0.0,9e-05,9e-05,0.00031,3
9351,9867,0.00011,0.0007,0.0,1e-05,0.0,9e-05,9e-05,0.00031,3
9352,9868,0.00011,0.0007,0.0,1e-05,0.0,9e-05,9e-05,0.00031,3
9353,9869,0.00011,0.0007,0.0,1e-05,0.0,9e-05,9e-05,0.00031,3
9354,9870,0.00011,0.0007,0.0,1e-05,0.0,9e-05,9e-05,0.00031,3
9355,9871,0.00011,0.0007,0.0,1e-05,0.0,9e-05,9e-05,0.00031,3
9356,9872,0.00011,0.0007,0.0,1e-05,0.0,9e-05,9e-05,0.00031,3
9357,9873,-0.00033,-0.00047999999999999996,-0.00021,-0.00013000000000000002,-0.00027,1e-05,-4e-05,-0.00018999999999999998,3
9358,9874,-0.00033,-0.00047999999999999996,-0.00021,-0.00013000000000000002,-0.00027,1e-05,-4e-05,-0.00018999999999999998,3
9359,9875,-0.00033,-0.00047999999999999996,-0.00021,-0.00013000000000000002,-0.00027,1e-05,-4e-05,-0.00018999999999999998,3
9360,9876,-0.00033,-0.00047999999999999996,-0.00021,-0.00013000000000000002,-0.00027,1e-05,-4e-05,-0.00018999999999999998,3
9361,9877,-0.00033,-0.00047999999999999996,-0.00021,-0.00013000000000000002,-0.00027,1e-05,-4e-05,-0.00018999999999999998,3
9362,9878,-0.00033,-0.00047999999999999996,-0.00021,-0.00013000000000000002,-0.00027,1e-05,-4e-05,-0.00018999999999999998,3
9363,9879,-0.00033,-0.00047999999999999996,-0.00021,-0.00013000000000000002,-0.00027,1e-05,-4e-05,-0.00018999999999999998,3
9364,9880,-0.00033,-0.00047999999999999996,-0.00021,-0.00013000000000000002,-0.00027,1e-05,-4e-05,-0.00018999999999999998,3
9365,9881,-2e-05,0.00013000000000000002,0.00011999999999999999,4e-05,-0.0001,-2.9999999999999997e-05,-5e-05,-0.00045999999999999996,3
9366,9882,-2.9999999999999997e-05,-0.00018999999999999998,-9e-05,2e-05,0.00043,0.0002,-2e-05,0.00022,3
9367,9883,-2.9999999999999997e-05,-0.00018999999999999998,-9e-05,2e-05,0.00043,0.0002,-2e-05,0.00022,3
9368,9884,-2.9999999999999997e-05,-0.00018999999999999998,-9e-05,2e-05,0.00043,0.0002,-2e-05,0.00022,3
9369,9885,-2.9999999999999997e-05,-0.00018999999999999998,-9e-05,2e-05,0.00043,0.0002,-2e-05,0.00022,3
9370,9886,-2.9999999999999997e-05,-0.00018999999999999998,-9e-05,2e-05,0.00043,0.0002,-2e-05,0.00022,3
9371,9889,-2.9999999999999997e-05,-0.00018999999999999998,-9e-05,2e-05,0.00043,0.0002,-2e-05,0.00022,3
9372,9890,-2.9999999999999997e-05,-0.00018999999999999998,-9e-05,2e-05,0.00043,0.0002,-2e-05,0.00022,3
9373,9891,-2.9999999999999997e-05,-0.00018999999999999998,-9e-05,2e-05,0.00043,0.0002,-2e-05,0.00022,3
9374,9892,-2.9999999999999997e-05,-0.00018999999999999998,-9e-05,2e-05,0.00043,0.0002,-2e-05,0.00022,3
9375,9893,-2.9999999999999997e-05,-0.00018999999999999998,-9e-05,2e-05,0.00043,0.0002,-2e-05,0.00022,3
9376,9894,-2.9999999999999997e-05,-0.00018999999999999998,-9e-05,2e-05,0.00043,0.0002,-2e-05,0.00022,3
9377,9895,-2.9999999999999997e-05,-0.00018999999999999998,-9e-05,2e-05,0.00043,0.0002,-2e-05,0.00022,3
9378,9896,-2.9999999999999997e-05,-0.00018999999999999998,-9e-05,2e-05,0.00043,0.0002,-2e-05,0.00022,3
9379,9897,-2.9999999999999997e-05,-0.00018999999999999998,-9e-05,2e-05,0.00043,0.0002,-2e-05,0.00022,3
9380,9898,-2.9999999999999997e-05,-0.00018999999999999998,-9e-05,2e-05,0.00043,0.0002,-2e-05,0.00022,3
9381,9899,-2.9999999999999997e-05,-0.00018999999999999998,-9e-05,2e-05,0.00043,0.0002,-2e-05,0.00022,3
9382,9900,-2.9999999999999997e-05,-0.00018999999999999998,-9e-05,2e-05,0.00043,0.0002,-2e-05,0.00022,3
9383,9901,-2.9999999999999997e-05,-0.00018999999999999998,-9e-05,2e-05,0.00043,0.0002,-2e-05,0.00022,3
9384,9902,-2.9999999999999997e-05,-0.00018999999999999998,-9e-05,2e-05,0.00043,0.0002,-2e-05,0.00022,3
9385,9903,-2.9999999999999997e-05,-0.00018999999999999998,-9e-05,2e-05,0.00043,0.0002,-2e-05,0.00022,3
9386,9904,-2.9999999999999997e-05,-0.00018999999999999998,-9e-05,2e-05,0.00043,0.0002,-2e-05,0.00022,3
9387,9905,-2.9999999999999997e-05,-0.00018999999999999998,-9e-05,2e-05,0.00043,0.0002,-2e-05,0.00022,3
9388,9906,-2.9999999999999997e-05,-0.00018999999999999998,-9e-05,2e-05,0.00043,0.0002,-2e-05,0.00022,3
9389,9907,-2.9999999999999997e-05,-0.00018999999999999998,-9e-05,2e-05,0.00043,0.0002,-2e-05,0.00022,3
9390,9908,-2.9999999999999997e-05,-0.00018999999999999998,-9e-05,2e-05,0.00043,0.0002,-2e-05,0.00022,3
9391,9909,-2.9999999999999997e-05,-0.00018999999999999998,-9e-05,2e-05,0.00043,0.0002,-2e-05,0.00022,3
9392,9910,-2.9999999999999997e-05,-0.00018999999999999998,-9e-05,2e-05,0.00043,0.0002,-2e-05,0.00022,3
9393,9911,-7e-05,0.00018999999999999998,4e-05,0.0,0.00014,-0.0003,-0.00013000000000000002,-0.0001,3
9394,9912,-0.00018999999999999998,0.00033999999999999997,-7e-05,1e-05,4e-05,-1e-05,2.9999999999999997e-05,-0.00047999999999999996,3
9395,9913,-0.00018999999999999998,0.00033999999999999997,-7e-05,1e-05,4e-05,-1e-05,2.9999999999999997e-05,-0.00047999999999999996,3
9396,9914,-0.00018999999999999998,0.00033999999999999997,-7e-05,1e-05,4e-05,-1e-05,2.9999999999999997e-05,-0.00047999999999999996,3
9397,9915,-0.00018999999999999998,0.00033999999999999997,-7e-05,1e-05,4e-05,-1e-05,2.9999999999999997e-05,-0.00047999999999999996,3
9398,9916,-0.00018999999999999998,0.00033999999999999997,-7e-05,1e-05,4e-05,-1e-05,2.9999999999999997e-05,-0.00047999999999999996,3
9399,9917,-0.00018999999999999998,0.00033999999999999997,-7e-05,1e-05,4e-05,-1e-05,2.9999999999999997e-05,-0.00047999999999999996,3
9400,9918,-0.00018999999999999998,0.00033999999999999997,-7e-05,1e-05,4e-05,-1e-05,2.9999999999999997e-05,-0.00047999999999999996,3
9401,9919,-0.00018999999999999998,0.00033999999999999997,-7e-05,1e-05,4e-05,-1e-05,2.9999999999999997e-05,-0.00047999999999999996,3
9402,9920,-0.00018999999999999998,0.00033999999999999997,-7e-05,1e-05,4e-05,-1e-05,2.9999999999999997e-05,-0.00047999999999999996,3
9403,9921,-0.00018999999999999998,0.00033999999999999997,-7e-05,1e-05,4e-05,-1e-05,2.9999999999999997e-05,-0.00047999999999999996,3
9404,9922,-0.00018999999999999998,0.00033999999999999997,-7e-05,1e-05,4e-05,-1e-05,2.9999999999999997e-05,-0.00047999999999999996,3
9405,9923,-0.00018999999999999998,0.00033999999999999997,-7e-05,1e-05,4e-05,-1e-05,2.9999999999999997e-05,-0.00047999999999999996,3
9406,9924,-0.00018999999999999998,0.00033999999999999997,-7e-05,1e-05,4e-05,-1e-05,2.9999999999999997e-05,-0.00047999999999999996,3
9407,9925,-0.00018999999999999998,0.00033999999999999997,-7e-05,1e-05,4e-05,-1e-05,2.9999999999999997e-05,-0.00047999999999999996,3
9408,9926,4e-05,0.0002,-1e-05,-8e-05,-9e-05,0.00018,2.9999999999999997e-05,0.0001,3
9409,9927,-5.9999999999999995e-05,0.00033,2e-05,-1e-05,-9e-05,2.9999999999999997e-05,0.00011999999999999999,0.0002,3
9410,9928,-5.9999999999999995e-05,0.00033,2e-05,-1e-05,-9e-05,2.9999999999999997e-05,0.00011999999999999999,0.0002,3
9411,9929,-5.9999999999999995e-05,0.00033,2e-05,-1e-05,-9e-05,2.9999999999999997e-05,0.00011999999999999999,0.0002,3
9412,9930,-5.9999999999999995e-05,0.00033,2e-05,-1e-05,-9e-05,2.9999999999999997e-05,0.00011999999999999999,0.0002,3
9413,9931,-5.9999999999999995e-05,0.00033,2e-05,-1e-05,-9e-05,2.9999999999999997e-05,0.00011999999999999999,0.0002,3
9414,9932,-5.9999999999999995e-05,0.00033,2e-05,-1e-05,-9e-05,2.9999999999999997e-05,0.00011999999999999999,0.0002,3
9415,9933,-5.9999999999999995e-05,0.00033,2e-05,-1e-05,-9e-05,2.9999999999999997e-05,0.00011999999999999999,0.0002,3
9416,9934,-5.9999999999999995e-05,0.00033,2e-05,-1e-05,-9e-05,2.9999999999999997e-05,0.00011999999999999999,0.0002,3
9417,9935,-5.9999999999999995e-05,0.00033,2e-05,-1e-05,-9e-05,2.9999999999999997e-05,0.00011999999999999999,0.0002,3
9418,9936,-5.9999999999999995e-05,0.00033,2e-05,-1e-05,-9e-05,2.9999999999999997e-05,0.00011999999999999999,0.0002,3
9419,9940,-5.9999999999999995e-05,0.00033,2e-05,-1e-05,-9e-05,2.9999999999999997e-05,0.00011999999999999999,0.0002,3
9420,9941,7e-05,-0.00032,5.9999999999999995e-05,2e-05,0.0,0.00045,-2e-05,8e-05,3
9421,9942,-2.9999999999999997e-05,-0.00016999999999999999,-4e-05,-5e-05,-0.00016999999999999999,5.9999999999999995e-05,0.00014,0.0,3
9422,9943,5e-05,5e-05,0.00018999999999999998,4e-05,-2e-05,-8e-05,1e-05,2.9999999999999997e-05,3
9423,9944,5e-05,5e-05,0.00018999999999999998,4e-05,-2e-05,-8e-05,1e-05,2.9999999999999997e-05,3
9424,9945,5e-05,5e-05,0.00018999999999999998,4e-05,-2e-05,-8e-05,1e-05,2.9999999999999997e-05,3
9425,9946,5e-05,5e-05,0.00018999999999999998,4e-05,-2e-05,-8e-05,1e-05,2.9999999999999997e-05,3
9426,9947,5e-05,5e-05,0.00018999999999999998,4e-05,-2e-05,-8e-05,1e-05,2.9999999999999997e-05,3
9427,9948,5e-05,5e-05,0.00018999999999999998,4e-05,-2e-05,-8e-05,1e-05,2.9999999999999997e-05,3
9428,9949,5e-05,5e-05,0.00018999999999999998,4e-05,-2e-05,-8e-05,1e-05,2.9999999999999997e-05,3
9429,9950,5e-05,5e-05,0.00018999999999999998,4e-05,-2e-05,-8e-05,1e-05,2.9999999999999997e-05,3
9430,9951,5e-05,5e-05,0.00018999999999999998,4e-05,-2e-05,-8e-05,1e-05,2.9999999999999997e-05,3
9431,9952,5e-05,5e-05,0.00018999999999999998,4e-05,-2e-05,-8e-05,1e-05,2.9999999999999997e-05,3
9432,9953,5e-05,5e-05,0.00018999999999999998,4e-05,-2e-05,-8e-05,1e-05,2.9999999999999997e-05,3
9433,9954,5e-05,5e-05,0.00018999999999999998,4e-05,-2e-05,-8e-05,1e-05,2.9999999999999997e-05,3
9434,9955,5e-05,5e-05,0.00018999999999999998,4e-05,-2e-05,-8e-05,1e-05,2.9999999999999997e-05,3
9435,9956,5e-05,5e-05,0.00018999999999999998,4e-05,-2e-05,-8e-05,1e-05,2.9999999999999997e-05,3
9436,9957,5e-05,5e-05,0.00018999999999999998,4e-05,-2e-05,-8e-05,1e-05,2.9999999999999997e-05,3
9437,9958,5e-05,5e-05,0.00018999999999999998,4e-05,-2e-05,-8e-05,1e-05,2.9999999999999997e-05,3
9438,9959,5e-05,5e-05,0.00018999999999999998,4e-05,-2e-05,-8e-05,1e-05,2.9999999999999997e-05,3
9439,9960,5e-05,5e-05,0.00018999999999999998,4e-05,-2e-05,-8e-05,1e-05,2.9999999999999997e-05,3
9440,9961,5e-05,5e-05,0.00018999999999999998,4e-05,-2e-05,-8e-05,1e-05,2.9999999999999997e-05,3
9441,9962,5e-05,5e-05,0.00018999999999999998,4e-05,-2e-05,-8e-05,1e-05,2.9999999999999997e-05,3
9442,9963,-5e-05,0.0005200000000000001,-0.0001,2.9999999999999997e-05,5e-05,0.00016999999999999999,0.0001,-0.00029,3
9443,9964,0.00015,-0.00066,-0.00016,-5e-05,5e-05,2e-05,-5e-05,0.00013000000000000002,3
9444,9965,0.00015,-0.00066,-0.00016,-5e-05,5e-05,2e-05,-5e-05,0.00013000000000000002,3
9445,9966,0.00015,-0.00066,-0.00016,-5e-05,5e-05,2e-05,-5e-05,0.00013000000000000002,3
9446,9967,0.00015,-0.00066,-0.00016,-5e-05,5e-05,2e-05,-5e-05,0.00013000000000000002,3
9447,9968,0.00015,-0.00066,-0.00016,-5e-05,5e-05,2e-05,-5e-05,0.00013000000000000002,3
9448,9969,0.0,0.0005,0.0,-1e-05,1e-05,-9e-05,-0.00016999999999999999,-0.00013000000000000002,3
9449,9970,0.0,0.0005,0.0,-1e-05,1e-05,-9e-05,-0.00016999999999999999,-0.00013000000000000002,3
9450,9971,0.0,0.0005,0.0,-1e-05,1e-05,-9e-05,-0.00016999999999999999,-0.00013000000000000002,3
9451,9972,0.0,0.0005,0.0,-1e-05,1e-05,-9e-05,-0.00016999999999999999,-0.00013000000000000002,3
9452,9973,0.0,0.0005,0.0,-1e-05,1e-05,-9e-05,-0.00016999999999999999,-0.00013000000000000002,3
9453,9974,0.0,0.0005,0.0,-1e-05,1e-05,-9e-05,-0.00016999999999999999,-0.00013000000000000002,3
9454,9975,0.0,0.0005,0.0,-1e-05,1e-05,-9e-05,-0.00016999999999999999,-0.00013000000000000002,3
9455,9976,0.0,0.0005,0.0,-1e-05,1e-05,-9e-05,-0.00016999999999999999,-0.00013000000000000002,3
9456,9977,-0.00018,0.00039,-0.00011999999999999999,-0.0001,-0.00023999999999999998,-0.00016,8e-05,-0.00018,3
9457,9978,-0.00018,0.00039,-0.00011999999999999999,-0.0001,-0.00023999999999999998,-0.00016,8e-05,-0.00018,3
9458,9979,-0.00018,0.00039,-0.00011999999999999999,-0.0001,-0.00023999999999999998,-0.00016,8e-05,-0.00018,3
9459,9980,-0.00018,0.00039,-0.00011999999999999999,-0.0001,-0.00023999999999999998,-0.00016,8e-05,-0.00018,3
9460,9981,-0.00018,0.00039,-0.00011999999999999999,-0.0001,-0.00023999999999999998,-0.00016,8e-05,-0.00018,3
9461,9982,-0.00018,0.00039,-0.00011999999999999999,-0.0001,-0.00023999999999999998,-0.00016,8e-05,-0.00018,3
9462,9983,-0.00018,0.00039,-0.00011999999999999999,-0.0001,-0.00023999999999999998,-0.00016,8e-05,-0.00018,3
9463,9984,-0.00018,0.00039,-0.00011999999999999999,-0.0001,-0.00023999999999999998,-0.00016,8e-05,-0.00018,3
9464,9985,-0.00018,0.00039,-0.00011999999999999999,-0.0001,-0.00023999999999999998,-0.00016,8e-05,-0.00018,3
9465,9986,8e-05,-0.0006,-1e-05,-4e-05,-0.00029,0.00014,5.9999999999999995e-05,-0.00018,3
9466,9989,8e-05,-0.0006,-1e-05,-4e-05,-0.00029,0.00014,5.9999999999999995e-05,-0.00018,3
9467,9990,8e-05,-0.0006,-1e-05,-4e-05,-0.00029,0.00014,5.9999999999999995e-05,-0.00018,3
9468,9991,8e-05,-0.0006,-1e-05,-4e-05,-0.00029,0.00014,5.9999999999999995e-05,-0.00018,3
9469,9992,8e-05,-0.0006,-1e-05,-4e-05,-0.00029,0.00014,5.9999999999999995e-05,-0.00018,3
9470,9993,8e-05,-0.0006,-1e-05,-4e-05,-0.00029,0.00014,5.9999999999999995e-05,-0.00018,3
9471,9994,8e-05,-0.0006,-1e-05,-4e-05,-0.00029,0.00014,5.9999999999999995e-05,-0.00018,3
9472,9995,8e-05,-0.0006,-1e-05,-4e-05,-0.00029,0.00014,5.9999999999999995e-05,-0.00018,3
9473,9996,8e-05,-0.0006,-1e-05,-4e-05,-0.00029,0.00014,5.9999999999999995e-05,-0.00018,3
9474,9997,8e-05,-0.0006,-1e-05,-4e-05,-0.00029,0.00014,5.9999999999999995e-05,-0.00018,3
9475,9998,8e-05,-0.0006,-1e-05,-4e-05,-0.00029,0.00014,5.9999999999999995e-05,-0.00018,3
9476,9999,8e-05,-0.0006,-1e-05,-4e-05,-0.00029,0.00014,5.9999999999999995e-05,-0.00018,3
9477,10000,8e-05,-0.0006,-1e-05,-4e-05,-0.00029,0.00014,5.9999999999999995e-05,-0.00018,3
9478,10001,-0.00025,-0.0001,-0.0002,-4e-05,0.00013000000000000002,-9e-05,-0.00018999999999999998,-0.0002,3
9479,10002,0.0,0.0005099999999999999,-2e-05,-2e-05,-0.00033,-0.00056,-0.00011,7e-05,3
9480,10003,0.0,0.0005099999999999999,-2e-05,-2e-05,-0.00033,-0.00056,-0.00011,7e-05,3
9481,10004,0.0,0.0005099999999999999,-2e-05,-2e-05,-0.00033,-0.00056,-0.00011,7e-05,3
9482,10005,0.0,0.0005099999999999999,-2e-05,-2e-05,-0.00033,-0.00056,-0.00011,7e-05,3
9483,10006,0.0,0.0005099999999999999,-2e-05,-2e-05,-0.00033,-0.00056,-0.00011,7e-05,3
9484,10007,0.0,0.0005099999999999999,-2e-05,-2e-05,-0.00033,-0.00056,-0.00011,7e-05,3
9485,10008,0.0,0.0005099999999999999,-2e-05,-2e-05,-0.00033,-0.00056,-0.00011,7e-05,3
9486,10009,0.0,0.0005099999999999999,-2e-05,-2e-05,-0.00033,-0.00056,-0.00011,7e-05,3
9487,10010,0.0,0.0005099999999999999,-2e-05,-2e-05,-0.00033,-0.00056,-0.00011,7e-05,3
9488,10011,0.0,0.0005099999999999999,-2e-05,-2e-05,-0.00033,-0.00056,-0.00011,7e-05,3
9489,10012,0.0,0.0005099999999999999,-2e-05,-2e-05,-0.00033,-0.00056,-0.00011,7e-05,3
9490,10013,0.0,0.0005099999999999999,-2e-05,-2e-05,-0.00033,-0.00056,-0.00011,7e-05,3
9491,10014,0.0,0.0005099999999999999,-2e-05,-2e-05,-0.00033,-0.00056,-0.00011,7e-05,3
9492,10015,0.0,0.0005099999999999999,-2e-05,-2e-05,-0.00033,-0.00056,-0.00011,7e-05,3
9493,10016,0.0,0.0005099999999999999,-2e-05,-2e-05,-0.00033,-0.00056,-0.00011,7e-05,3
9494,10017,0.0,0.0005099999999999999,-2e-05,-2e-05,-0.00033,-0.00056,-0.00011,7e-05,3
9495,10018,0.0,0.0005099999999999999,-2e-05,-2e-05,-0.00033,-0.00056,-0.00011,7e-05,3
9496,10019,0.0,0.0005099999999999999,-2e-05,-2e-05,-0.00033,-0.00056,-0.00011,7e-05,3
9497,10020,0.0,0.0005099999999999999,-2e-05,-2e-05,-0.00033,-0.00056,-0.00011,7e-05,3
9498,10021,0.0,0.0005099999999999999,-2e-05,-2e-05,-0.00033,-0.00056,-0.00011,7e-05,3
9499,10022,0.0,0.0005099999999999999,-2e-05,-2e-05,-0.00033,-0.00056,-0.00011,7e-05,3
9500,10023,9e-05,-5.9999999999999995e-05,-2e-05,0.0001,0.00064,0.0009199999999999999,0.0002,5.9999999999999995e-05,3
9501,10024,9e-05,-5.9999999999999995e-05,-2e-05,0.0001,0.00064,0.0009199999999999999,0.0002,5.9999999999999995e-05,3
9502,10025,-4e-05,-0.0009199999999999999,-7e-05,-2.9999999999999997e-05,-4e-05,-0.00022,-4e-05,2e-05,3
9503,10026,-4e-05,-0.0009199999999999999,-7e-05,-2.9999999999999997e-05,-4e-05,-0.00022,-4e-05,2e-05,3
9504,10027,-4e-05,-0.0009199999999999999,-7e-05,-2.9999999999999997e-05,-4e-05,-0.00022,-4e-05,2e-05,3
9505,10028,-4e-05,-0.0009199999999999999,-7e-05,-2.9999999999999997e-05,-4e-05,-0.00022,-4e-05,2e-05,3
9506,10029,-4e-05,-0.0009199999999999999,-7e-05,-2.9999999999999997e-05,-4e-05,-0.00022,-4e-05,2e-05,3
9507,10030,-4e-05,-0.0009199999999999999,-7e-05,-2.9999999999999997e-05,-4e-05,-0.00022,-4e-05,2e-05,3
9508,10031,-4e-05,-0.0009199999999999999,-7e-05,-2.9999999999999997e-05,-4e-05,-0.00022,-4e-05,2e-05,3
9509,10034,-4e-05,-0.0009199999999999999,-7e-05,-2.9999999999999997e-05,-4e-05,-0.00022,-4e-05,2e-05,3
9510,10035,-4e-05,-0.0009199999999999999,-7e-05,-2.9999999999999997e-05,-4e-05,-0.00022,-4e-05,2e-05,3
9511,10044,-5.9999999999999995e-05,-0.00018999999999999998,2.9999999999999997e-05,0.0,-0.00021,-0.00028,2.9999999999999997e-05,4e-05,3
9512,10045,-5.9999999999999995e-05,-0.00018999999999999998,2.9999999999999997e-05,0.0,-0.00021,-0.00028,2.9999999999999997e-05,4e-05,3
9513,10046,-5.9999999999999995e-05,-0.00014,-0.00016999999999999999,-7e-05,0.0002,0.00021,0.0001,0.00022999999999999998,3
9514,10047,-5.9999999999999995e-05,-0.00014,-0.00016999999999999999,-7e-05,0.0002,0.00021,0.0001,0.00022999999999999998,3
9515,10048,-5.9999999999999995e-05,-0.00014,-0.00016999999999999999,-7e-05,0.0002,0.00021,0.0001,0.00022999999999999998,3
9516,10049,-5.9999999999999995e-05,-0.00014,-0.00016999999999999999,-7e-05,0.0002,0.00021,0.0001,0.00022999999999999998,3
9517,10050,-5.9999999999999995e-05,-0.00014,-0.00016999999999999999,-7e-05,0.0002,0.00021,0.0001,0.00022999999999999998,3
9518,10051,-5.9999999999999995e-05,-0.00014,-0.00016999999999999999,-7e-05,0.0002,0.00021,0.0001,0.00022999999999999998,3
9519,10052,-5.9999999999999995e-05,-0.00014,-0.00016999999999999999,-7e-05,0.0002,0.00021,0.0001,0.00022999999999999998,3
9520,10053,-5.9999999999999995e-05,-0.00014,-0.00016999999999999999,-7e-05,0.0002,0.00021,0.0001,0.00022999999999999998,3
9521,10054,-5.9999999999999995e-05,-0.00014,-0.00016999999999999999,-7e-05,0.0002,0.00021,0.0001,0.00022999999999999998,3
9522,10055,-5.9999999999999995e-05,-0.00014,-0.00016999999999999999,-7e-05,0.0002,0.00021,0.0001,0.00022999999999999998,3
9523,10056,-5.9999999999999995e-05,-0.00014,-0.00016999999999999999,-7e-05,0.0002,0.00021,0.0001,0.00022999999999999998,3
9524,10057,-5.9999999999999995e-05,-0.00014,-0.00016999999999999999,-7e-05,0.0002,0.00021,0.0001,0.00022999999999999998,3
9525,10058,-5.9999999999999995e-05,-0.00014,-0.00016999999999999999,-7e-05,0.0002,0.00021,0.0001,0.00022999999999999998,3
9526,10059,-5.9999999999999995e-05,-0.00014,-0.00016999999999999999,-7e-05,0.0002,0.00021,0.0001,0.00022999999999999998,3
9527,10060,-7e-05,-0.0009,-1e-05,-5e-05,-0.00042,-0.00022,1e-05,-0.0001,3
9528,10061,-2.9999999999999997e-05,0.00042,2e-05,1e-05,0.00018,5.9999999999999995e-05,-0.00011,-2.9999999999999997e-05,3
9529,10062,-5e-05,-1e-05,4e-05,-1e-05,-2.9999999999999997e-05,0.0001,-0.00011,-7e-05,3
9530,10063,-5e-05,-1e-05,4e-05,-1e-05,-2.9999999999999997e-05,0.0001,-0.00011,-7e-05,3
9531,10064,-5e-05,-1e-05,4e-05,-1e-05,-2.9999999999999997e-05,0.0001,-0.00011,-7e-05,3
9532,10065,-5e-05,-1e-05,4e-05,-1e-05,-2.9999999999999997e-05,0.0001,-0.00011,-7e-05,3
9533,10066,-5e-05,-1e-05,4e-05,-1e-05,-2.9999999999999997e-05,0.0001,-0.00011,-7e-05,3
9534,10067,-5e-05,-1e-05,4e-05,-1e-05,-2.9999999999999997e-05,0.0001,-0.00011,-7e-05,3
9535,10068,-5e-05,-1e-05,4e-05,-1e-05,-2.9999999999999997e-05,0.0001,-0.00011,-7e-05,3
9536,10069,-5e-05,-1e-05,4e-05,-1e-05,-2.9999999999999997e-05,0.0001,-0.00011,-7e-05,3
9537,10070,-5e-05,-1e-05,4e-05,-1e-05,-2.9999999999999997e-05,0.0001,-0.00011,-7e-05,3
9538,10071,-5e-05,-1e-05,4e-05,-1e-05,-2.9999999999999997e-05,0.0001,-0.00011,-7e-05,3
9539,10072,-5e-05,-1e-05,4e-05,-1e-05,-2.9999999999999997e-05,0.0001,-0.00011,-7e-05,3
9540,10073,-5e-05,-1e-05,4e-05,-1e-05,-2.9999999999999997e-05,0.0001,-0.00011,-7e-05,3
9541,10074,-5e-05,-1e-05,4e-05,-1e-05,-2.9999999999999997e-05,0.0001,-0.00011,-7e-05,3
9542,10075,-5e-05,-1e-05,4e-05,-1e-05,-2.9999999999999997e-05,0.0001,-0.00011,-7e-05,3
9543,10076,-5e-05,-1e-05,4e-05,-1e-05,-2.9999999999999997e-05,0.0001,-0.00011,-7e-05,3
9544,10077,-5e-05,-1e-05,4e-05,-1e-05,-2.9999999999999997e-05,0.0001,-0.00011,-7e-05,3
9545,10078,-5e-05,-1e-05,4e-05,-1e-05,-2.9999999999999997e-05,0.0001,-0.00011,-7e-05,3
9546,10079,-5e-05,-1e-05,4e-05,-1e-05,-2.9999999999999997e-05,0.0001,-0.00011,-7e-05,3
9547,10080,-5e-05,-1e-05,4e-05,-1e-05,-2.9999999999999997e-05,0.0001,-0.00011,-7e-05,3
9548,10081,-5e-05,-1e-05,4e-05,-1e-05,-2.9999999999999997e-05,0.0001,-0.00011,-7e-05,3
9549,10082,-5e-05,-1e-05,4e-05,-1e-05,-2.9999999999999997e-05,0.0001,-0.00011,-7e-05,3
9550,10083,-5e-05,-1e-05,4e-05,-1e-05,-2.9999999999999997e-05,0.0001,-0.00011,-7e-05,3
9551,10084,0.00011999999999999999,-0.00015,-2e-05,-4e-05,-0.00014,-9e-05,-2.9999999999999997e-05,5.9999999999999995e-05,3
9552,10085,-2.9999999999999997e-05,8e-05,1e-05,-1e-05,-1e-05,-9e-05,7e-05,0.0,3
9553,10086,-2.9999999999999997e-05,8e-05,1e-05,-1e-05,-1e-05,-9e-05,7e-05,0.0,3
9554,10089,-2.9999999999999997e-05,8e-05,1e-05,-1e-05,-1e-05,-9e-05,7e-05,0.0,3
9555,10090,-2.9999999999999997e-05,8e-05,1e-05,-1e-05,-1e-05,-9e-05,7e-05,0.0,3
9556,10091,-2.9999999999999997e-05,8e-05,1e-05,-1e-05,-1e-05,-9e-05,7e-05,0.0,3
9557,10092,-2.9999999999999997e-05,8e-05,1e-05,-1e-05,-1e-05,-9e-05,7e-05,0.0,3
9558,10093,-2.9999999999999997e-05,8e-05,1e-05,-1e-05,-1e-05,-9e-05,7e-05,0.0,3
9559,10094,-2.9999999999999997e-05,8e-05,1e-05,-1e-05,-1e-05,-9e-05,7e-05,0.0,3
9560,10095,-2.9999999999999997e-05,8e-05,1e-05,-1e-05,-1e-05,-9e-05,7e-05,0.0,3
9561,10096,-2.9999999999999997e-05,8e-05,1e-05,-1e-05,-1e-05,-9e-05,7e-05,0.0,3
9562,10097,0.00011,0.00011,-1e-05,2e-05,-2e-05,5e-05,0.00011,-8e-05,3
9563,10098,0.00011,0.00011,-1e-05,2e-05,-2e-05,5e-05,0.00011,-8e-05,3
9564,10099,0.00011,0.00011,-1e-05,2e-05,-2e-05,5e-05,0.00011,-8e-05,3
9565,10100,0.00011,0.00011,-1e-05,2e-05,-2e-05,5e-05,0.00011,-8e-05,3
9566,10101,0.00011,0.00011,-1e-05,2e-05,-2e-05,5e-05,0.00011,-8e-05,3
9567,10102,0.00011,0.00011,-1e-05,2e-05,-2e-05,5e-05,0.00011,-8e-05,3
9568,10103,0.00011,0.00011,-1e-05,2e-05,-2e-05,5e-05,0.00011,-8e-05,3
9569,10104,0.00011,0.00011,-1e-05,2e-05,-2e-05,5e-05,0.00011,-8e-05,3
9570,10105,0.00011,0.00011,-1e-05,2e-05,-2e-05,5e-05,0.00011,-8e-05,3
9571,10106,-0.00025,-0.00014,-0.00026000000000000003,-2.9999999999999997e-05,-4e-05,9e-05,2.9999999999999997e-05,-0.00025,3
9572,10107,-0.00025,-0.00014,-0.00026000000000000003,-2.9999999999999997e-05,-4e-05,9e-05,2.9999999999999997e-05,-0.00025,3
9573,10108,-0.00025,-0.00014,-0.00026000000000000003,-2.9999999999999997e-05,-4e-05,9e-05,2.9999999999999997e-05,-0.00025,3
9574,10109,-0.00025,-0.00014,-0.00026000000000000003,-2.9999999999999997e-05,-4e-05,9e-05,2.9999999999999997e-05,-0.00025,3
9575,10110,-0.00025,-0.00014,-0.00026000000000000003,-2.9999999999999997e-05,-4e-05,9e-05,2.9999999999999997e-05,-0.00025,3
9576,10111,-0.00025,-0.00014,-0.00026000000000000003,-2.9999999999999997e-05,-4e-05,9e-05,2.9999999999999997e-05,-0.00025,3
9577,10112,-0.00025,-0.00014,-0.00026000000000000003,-2.9999999999999997e-05,-4e-05,9e-05,2.9999999999999997e-05,-0.00025,3
9578,10113,-0.00025,-0.00014,-0.00026000000000000003,-2.9999999999999997e-05,-4e-05,9e-05,2.9999999999999997e-05,-0.00025,3
9579,10114,-0.00025,-0.00014,-0.00026000000000000003,-2.9999999999999997e-05,-4e-05,9e-05,2.9999999999999997e-05,-0.00025,3
9580,10115,-0.00025,-0.00014,-0.00026000000000000003,-2.9999999999999997e-05,-4e-05,9e-05,2.9999999999999997e-05,-0.00025,3
9581,10116,-0.00025,-0.00014,-0.00026000000000000003,-2.9999999999999997e-05,-4e-05,9e-05,2.9999999999999997e-05,-0.00025,3
9582,10117,-0.00025,-0.00014,-0.00026000000000000003,-2.9999999999999997e-05,-4e-05,9e-05,2.9999999999999997e-05,-0.00025,3
9583,10118,-0.00025,-0.00014,-0.00026000000000000003,-2.9999999999999997e-05,-4e-05,9e-05,2.9999999999999997e-05,-0.00025,3
9584,10119,-0.00025,-0.00014,-0.00026000000000000003,-2.9999999999999997e-05,-4e-05,9e-05,2.9999999999999997e-05,-0.00025,3
9585,10120,4e-05,-5e-05,-7e-05,-5.9999999999999995e-05,-0.00023999999999999998,-0.00042,-9e-05,0.0003,3
9586,10121,4e-05,-5e-05,-7e-05,-5.9999999999999995e-05,-0.00023999999999999998,-0.00042,-9e-05,0.0003,3
9587,10122,4e-05,-5e-05,-7e-05,-5.9999999999999995e-05,-0.00023999999999999998,-0.00042,-9e-05,0.0003,3
9588,10123,4e-05,-5e-05,-7e-05,-5.9999999999999995e-05,-0.00023999999999999998,-0.00042,-9e-05,0.0003,3
9589,10124,4e-05,-5e-05,-7e-05,-5.9999999999999995e-05,-0.00023999999999999998,-0.00042,-9e-05,0.0003,3
9590,10125,4e-05,-5e-05,-7e-05,-5.9999999999999995e-05,-0.00023999999999999998,-0.00042,-9e-05,0.0003,3
9591,10126,4e-05,-5e-05,-7e-05,-5.9999999999999995e-05,-0.00023999999999999998,-0.00042,-9e-05,0.0003,3
9592,10127,4e-05,-5e-05,-7e-05,-5.9999999999999995e-05,-0.00023999999999999998,-0.00042,-9e-05,0.0003,3
9593,10128,1e-05,-2.9999999999999997e-05,-1e-05,-2.9999999999999997e-05,5e-05,8e-05,-2.9999999999999997e-05,0.0,3
9594,10129,1e-05,-2.9999999999999997e-05,-1e-05,-2.9999999999999997e-05,5e-05,8e-05,-2.9999999999999997e-05,0.0,3
9595,10130,1e-05,-2.9999999999999997e-05,-1e-05,-2.9999999999999997e-05,5e-05,8e-05,-2.9999999999999997e-05,0.0,3
9596,10131,1e-05,-2.9999999999999997e-05,-1e-05,-2.9999999999999997e-05,5e-05,8e-05,-2.9999999999999997e-05,0.0,3
9597,10132,1e-05,-2.9999999999999997e-05,-1e-05,-2.9999999999999997e-05,5e-05,8e-05,-2.9999999999999997e-05,0.0,3
9598,10133,1e-05,-2.9999999999999997e-05,-1e-05,-2.9999999999999997e-05,5e-05,8e-05,-2.9999999999999997e-05,0.0,3
9599,10134,1e-05,-2.9999999999999997e-05,-1e-05,-2.9999999999999997e-05,5e-05,8e-05,-2.9999999999999997e-05,0.0,3
9600,10135,1e-05,-2.9999999999999997e-05,-1e-05,-2.9999999999999997e-05,5e-05,8e-05,-2.9999999999999997e-05,0.0,3
9601,10136,1e-05,-2.9999999999999997e-05,-1e-05,-2.9999999999999997e-05,5e-05,8e-05,-2.9999999999999997e-05,0.0,3
9602,10138,1e-05,-2.9999999999999997e-05,-1e-05,-2.9999999999999997e-05,5e-05,8e-05,-2.9999999999999997e-05,0.0,3
9603,10140,1e-05,-2.9999999999999997e-05,-1e-05,-2.9999999999999997e-05,5e-05,8e-05,-2.9999999999999997e-05,0.0,3
9604,10141,1e-05,-2.9999999999999997e-05,-1e-05,-2.9999999999999997e-05,5e-05,8e-05,-2.9999999999999997e-05,0.0,3
9605,10142,1e-05,-2.9999999999999997e-05,-1e-05,-2.9999999999999997e-05,5e-05,8e-05,-2.9999999999999997e-05,0.0,3
9606,10143,-8e-05,-4e-05,-8e-05,-8e-05,-0.00023999999999999998,-0.00016,-4e-05,-9e-05,3
9607,10144,-8e-05,-4e-05,-8e-05,-8e-05,-0.00023999999999999998,-0.00016,-4e-05,-9e-05,3
9608,10145,-4e-05,-0.00061,-5e-05,2.9999999999999997e-05,0.00025,0.00015,-2.9999999999999997e-05,0.00016,3
9609,10146,-4e-05,-0.00061,-5e-05,2.9999999999999997e-05,0.00025,0.00015,-2.9999999999999997e-05,0.00016,3
9610,10147,-4e-05,-0.00061,-5e-05,2.9999999999999997e-05,0.00025,0.00015,-2.9999999999999997e-05,0.00016,3
9611,10148,-4e-05,-0.00061,-5e-05,2.9999999999999997e-05,0.00025,0.00015,-2.9999999999999997e-05,0.00016,3
9612,10149,-4e-05,-0.00061,-5e-05,2.9999999999999997e-05,0.00025,0.00015,-2.9999999999999997e-05,0.00016,3
9613,10150,-4e-05,-0.00061,-5e-05,2.9999999999999997e-05,0.00025,0.00015,-2.9999999999999997e-05,0.00016,3
9614,10151,-4e-05,-0.00061,-5e-05,2.9999999999999997e-05,0.00025,0.00015,-2.9999999999999997e-05,0.00016,3
9615,10152,-4e-05,-0.00061,-5e-05,2.9999999999999997e-05,0.00025,0.00015,-2.9999999999999997e-05,0.00016,3
9616,10153,-4e-05,-0.00061,-5e-05,2.9999999999999997e-05,0.00025,0.00015,-2.9999999999999997e-05,0.00016,3
9617,10154,-4e-05,-0.00061,-5e-05,2.9999999999999997e-05,0.00025,0.00015,-2.9999999999999997e-05,0.00016,3
9618,10155,-4e-05,-0.00061,-5e-05,2.9999999999999997e-05,0.00025,0.00015,-2.9999999999999997e-05,0.00016,3
9619,10156,-4e-05,-0.00061,-5e-05,2.9999999999999997e-05,0.00025,0.00015,-2.9999999999999997e-05,0.00016,3
9620,10157,-4e-05,-0.00061,-5e-05,2.9999999999999997e-05,0.00025,0.00015,-2.9999999999999997e-05,0.00016,3
9621,10158,-4e-05,-0.00061,-5e-05,2.9999999999999997e-05,0.00025,0.00015,-2.9999999999999997e-05,0.00016,3
9622,10159,-4e-05,-0.00061,-5e-05,2.9999999999999997e-05,0.00025,0.00015,-2.9999999999999997e-05,0.00016,3
9623,10160,-4e-05,-0.00061,-5e-05,2.9999999999999997e-05,0.00025,0.00015,-2.9999999999999997e-05,0.00016,3
9624,10161,-4e-05,-0.00061,-5e-05,2.9999999999999997e-05,0.00025,0.00015,-2.9999999999999997e-05,0.00016,3
9625,10162,-4e-05,-0.00061,-5e-05,2.9999999999999997e-05,0.00025,0.00015,-2.9999999999999997e-05,0.00016,3
9626,10163,-4e-05,-0.00061,-5e-05,2.9999999999999997e-05,0.00025,0.00015,-2.9999999999999997e-05,0.00016,3
9627,10164,-4e-05,-0.00061,-5e-05,2.9999999999999997e-05,0.00025,0.00015,-2.9999999999999997e-05,0.00016,3
9628,10165,-4e-05,-0.00061,-5e-05,2.9999999999999997e-05,0.00025,0.00015,-2.9999999999999997e-05,0.00016,3
9629,10166,-0.00023999999999999998,-0.00042,-9e-05,-5.9999999999999995e-05,-0.00037,-0.00029,2e-05,1e-05,3
9630,10167,-0.00023999999999999998,-0.00042,-9e-05,-5.9999999999999995e-05,-0.00037,-0.00029,2e-05,1e-05,3
9631,10168,-5e-05,0.00011,0.00011999999999999999,1e-05,0.0003,0.00022,0.00015,0.00025,3
9632,10169,-5e-05,0.00011,0.00011999999999999999,1e-05,0.0003,0.00022,0.00015,0.00025,3
9633,10170,-5e-05,0.00011,0.00011999999999999999,1e-05,0.0003,0.00022,0.00015,0.00025,3
9634,10171,-5e-05,0.00011,0.00011999999999999999,1e-05,0.0003,0.00022,0.00015,0.00025,3
9635,10172,-5e-05,0.00011,0.00011999999999999999,1e-05,0.0003,0.00022,0.00015,0.00025,3
9636,10173,-5e-05,0.00011,0.00011999999999999999,1e-05,0.0003,0.00022,0.00015,0.00025,3
9637,10174,-5e-05,0.00011,0.00011999999999999999,1e-05,0.0003,0.00022,0.00015,0.00025,3
9638,10175,-5e-05,0.00011,0.00011999999999999999,1e-05,0.0003,0.00022,0.00015,0.00025,3
9639,10176,-5e-05,0.00011,0.00011999999999999999,1e-05,0.0003,0.00022,0.00015,0.00025,3
9640,10177,-5e-05,0.00011,0.00011999999999999999,1e-05,0.0003,0.00022,0.00015,0.00025,3
9641,10178,-5e-05,0.00011,0.00011999999999999999,1e-05,0.0003,0.00022,0.00015,0.00025,3
9642,10179,-5e-05,0.00011,0.00011999999999999999,1e-05,0.0003,0.00022,0.00015,0.00025,3
9643,10180,-5e-05,0.00011,0.00011999999999999999,1e-05,0.0003,0.00022,0.00015,0.00025,3
9644,10181,9e-05,0.00047000000000000004,0.00014,2.9999999999999997e-05,0.0003,-8e-05,-5e-05,2e-05,3
9645,10182,-1e-05,5.9999999999999995e-05,-9e-05,-2.9999999999999997e-05,7e-05,0.00039,-4e-05,8e-05,3
9646,10183,-1e-05,5.9999999999999995e-05,-9e-05,-2.9999999999999997e-05,7e-05,0.00039,-4e-05,8e-05,3
9647,10184,-1e-05,5.9999999999999995e-05,-9e-05,-2.9999999999999997e-05,7e-05,0.00039,-4e-05,8e-05,3
9648,10185,-1e-05,5.9999999999999995e-05,-9e-05,-2.9999999999999997e-05,7e-05,0.00039,-4e-05,8e-05,3
9649,10186,-1e-05,5.9999999999999995e-05,-9e-05,-2.9999999999999997e-05,7e-05,0.00039,-4e-05,8e-05,3
9650,10188,-1e-05,5.9999999999999995e-05,-9e-05,-2.9999999999999997e-05,7e-05,0.00039,-4e-05,8e-05,3
9651,10190,-1e-05,5.9999999999999995e-05,-9e-05,-2.9999999999999997e-05,7e-05,0.00039,-4e-05,8e-05,3
9652,10191,-1e-05,5.9999999999999995e-05,-9e-05,-2.9999999999999997e-05,7e-05,0.00039,-4e-05,8e-05,3
9653,10192,-1e-05,5.9999999999999995e-05,-9e-05,-2.9999999999999997e-05,7e-05,0.00039,-4e-05,8e-05,3
9654,10193,-1e-05,5.9999999999999995e-05,-9e-05,-2.9999999999999997e-05,7e-05,0.00039,-4e-05,8e-05,3
9655,10194,-1e-05,5.9999999999999995e-05,-9e-05,-2.9999999999999997e-05,7e-05,0.00039,-4e-05,8e-05,3
9656,10195,-1e-05,5.9999999999999995e-05,-9e-05,-2.9999999999999997e-05,7e-05,0.00039,-4e-05,8e-05,3
9657,10196,-1e-05,5.9999999999999995e-05,-9e-05,-2.9999999999999997e-05,7e-05,0.00039,-4e-05,8e-05,3
9658,10197,-1e-05,5.9999999999999995e-05,-9e-05,-2.9999999999999997e-05,7e-05,0.00039,-4e-05,8e-05,3
9659,10198,-1e-05,5.9999999999999995e-05,-9e-05,-2.9999999999999997e-05,7e-05,0.00039,-4e-05,8e-05,3
9660,10199,-1e-05,5.9999999999999995e-05,-9e-05,-2.9999999999999997e-05,7e-05,0.00039,-4e-05,8e-05,3
9661,10200,-1e-05,5.9999999999999995e-05,-9e-05,-2.9999999999999997e-05,7e-05,0.00039,-4e-05,8e-05,3
9662,10201,-1e-05,5.9999999999999995e-05,-9e-05,-2.9999999999999997e-05,7e-05,0.00039,-4e-05,8e-05,3
9663,10202,-1e-05,5.9999999999999995e-05,-9e-05,-2.9999999999999997e-05,7e-05,0.00039,-4e-05,8e-05,3
9664,10203,1e-05,0.00016,0.00013000000000000002,0.0,0.00014,0.00011,5e-05,0.00014,3
9665,10204,1e-05,0.00016,0.00013000000000000002,0.0,0.00014,0.00011,5e-05,0.00014,3
9666,10205,-2.9999999999999997e-05,-0.00022,0.0002,5.9999999999999995e-05,0.00013000000000000002,-7e-05,2.9999999999999997e-05,5e-05,3
9667,10206,-2.9999999999999997e-05,-0.00022,0.0002,5.9999999999999995e-05,0.00013000000000000002,-7e-05,2.9999999999999997e-05,5e-05,3
9668,10207,-2.9999999999999997e-05,-0.00022,0.0002,5.9999999999999995e-05,0.00013000000000000002,-7e-05,2.9999999999999997e-05,5e-05,3
9669,10208,-2.9999999999999997e-05,-0.00022,0.0002,5.9999999999999995e-05,0.00013000000000000002,-7e-05,2.9999999999999997e-05,5e-05,3
9670,10209,-2.9999999999999997e-05,-0.00022,0.0002,5.9999999999999995e-05,0.00013000000000000002,-7e-05,2.9999999999999997e-05,5e-05,3
9671,10210,-2.9999999999999997e-05,-0.00022,0.0002,5.9999999999999995e-05,0.00013000000000000002,-7e-05,2.9999999999999997e-05,5e-05,3
9672,10211,-2.9999999999999997e-05,-0.00022,0.0002,5.9999999999999995e-05,0.00013000000000000002,-7e-05,2.9999999999999997e-05,5e-05,3
9673,10212,-2.9999999999999997e-05,-0.00022,0.0002,5.9999999999999995e-05,0.00013000000000000002,-7e-05,2.9999999999999997e-05,5e-05,3
9674,10213,-2.9999999999999997e-05,-0.00022,0.0002,5.9999999999999995e-05,0.00013000000000000002,-7e-05,2.9999999999999997e-05,5e-05,3
9675,10214,-2.9999999999999997e-05,-0.00022,0.0002,5.9999999999999995e-05,0.00013000000000000002,-7e-05,2.9999999999999997e-05,5e-05,3
9676,10215,-2.9999999999999997e-05,-0.00022,0.0002,5.9999999999999995e-05,0.00013000000000000002,-7e-05,2.9999999999999997e-05,5e-05,3
9677,10216,-2.9999999999999997e-05,-0.00022,0.0002,5.9999999999999995e-05,0.00013000000000000002,-7e-05,2.9999999999999997e-05,5e-05,3
9678,10217,-2.9999999999999997e-05,-0.00022,0.0002,5.9999999999999995e-05,0.00013000000000000002,-7e-05,2.9999999999999997e-05,5e-05,3
9679,10218,-2.9999999999999997e-05,-0.00022,0.0002,5.9999999999999995e-05,0.00013000000000000002,-7e-05,2.9999999999999997e-05,5e-05,3
9680,10219,-2.9999999999999997e-05,-0.00022,0.0002,5.9999999999999995e-05,0.00013000000000000002,-7e-05,2.9999999999999997e-05,5e-05,3
9681,10220,-2.9999999999999997e-05,-0.00022,0.0002,5.9999999999999995e-05,0.00013000000000000002,-7e-05,2.9999999999999997e-05,5e-05,3
9682,10221,-2.9999999999999997e-05,-0.00022,0.0002,5.9999999999999995e-05,0.00013000000000000002,-7e-05,2.9999999999999997e-05,5e-05,3
9683,10222,-2.9999999999999997e-05,-0.00022,0.0002,5.9999999999999995e-05,0.00013000000000000002,-7e-05,2.9999999999999997e-05,5e-05,3
9684,10223,-2.9999999999999997e-05,-0.00022,0.0002,5.9999999999999995e-05,0.00013000000000000002,-7e-05,2.9999999999999997e-05,5e-05,3
9685,10224,-2.9999999999999997e-05,-0.00022,0.0002,5.9999999999999995e-05,0.00013000000000000002,-7e-05,2.9999999999999997e-05,5e-05,3
9686,10225,-2.9999999999999997e-05,-0.00022,0.0002,5.9999999999999995e-05,0.00013000000000000002,-7e-05,2.9999999999999997e-05,5e-05,3
9687,10226,7e-05,-4e-05,2.9999999999999997e-05,-1e-05,-0.00011999999999999999,0.00016999999999999999,-0.00015,-0.00011,3
9688,10227,0.0002,0.00067,0.0002,0.00013000000000000002,0.00033999999999999997,1e-05,-2.9999999999999997e-05,0.00018999999999999998,3
9689,10228,0.0002,0.00067,0.0002,0.00013000000000000002,0.00033999999999999997,1e-05,-2.9999999999999997e-05,0.00018999999999999998,3
9690,10229,0.0002,0.00067,0.0002,0.00013000000000000002,0.00033999999999999997,1e-05,-2.9999999999999997e-05,0.00018999999999999998,3
9691,10230,0.0002,0.00067,0.0002,0.00013000000000000002,0.00033999999999999997,1e-05,-2.9999999999999997e-05,0.00018999999999999998,3
9692,10231,0.0002,0.00067,0.0002,0.00013000000000000002,0.00033999999999999997,1e-05,-2.9999999999999997e-05,0.00018999999999999998,3
9693,10232,0.0002,0.00067,0.0002,0.00013000000000000002,0.00033999999999999997,1e-05,-2.9999999999999997e-05,0.00018999999999999998,3
9694,10233,0.0002,0.00067,0.0002,0.00013000000000000002,0.00033999999999999997,1e-05,-2.9999999999999997e-05,0.00018999999999999998,3
9695,10234,0.0002,0.00067,0.0002,0.00013000000000000002,0.00033999999999999997,1e-05,-2.9999999999999997e-05,0.00018999999999999998,3
9696,10235,0.0002,0.00067,0.0002,0.00013000000000000002,0.00033999999999999997,1e-05,-2.9999999999999997e-05,0.00018999999999999998,3
9697,10236,0.0002,0.00067,0.0002,0.00013000000000000002,0.00033999999999999997,1e-05,-2.9999999999999997e-05,0.00018999999999999998,3
9698,10239,0.0002,0.00067,0.0002,0.00013000000000000002,0.00033999999999999997,1e-05,-2.9999999999999997e-05,0.00018999999999999998,3
9699,10240,0.0002,0.00067,0.0002,0.00013000000000000002,0.00033999999999999997,1e-05,-2.9999999999999997e-05,0.00018999999999999998,3
9700,10241,2.9999999999999997e-05,-0.00016,7e-05,-2e-05,4e-05,-0.00041,1e-05,-0.00011,3
9701,10242,0.00014,-0.0002,2e-05,0.0,5e-05,-0.00013000000000000002,-5e-05,-0.00011999999999999999,3
9702,10243,0.00014,-0.0002,2e-05,0.0,5e-05,-0.00013000000000000002,-5e-05,-0.00011999999999999999,3
9703,10244,0.00014,-0.0002,2e-05,0.0,5e-05,-0.00013000000000000002,-5e-05,-0.00011999999999999999,3
9704,10245,0.00014,-0.0002,2e-05,0.0,5e-05,-0.00013000000000000002,-5e-05,-0.00011999999999999999,3
9705,10246,0.00014,-0.0002,2e-05,0.0,5e-05,-0.00013000000000000002,-5e-05,-0.00011999999999999999,3
9706,10247,0.00014,-0.0002,2e-05,0.0,5e-05,-0.00013000000000000002,-5e-05,-0.00011999999999999999,3
9707,10248,0.00014,-0.0002,2e-05,0.0,5e-05,-0.00013000000000000002,-5e-05,-0.00011999999999999999,3
9708,10249,0.00014,-0.0002,2e-05,0.0,5e-05,-0.00013000000000000002,-5e-05,-0.00011999999999999999,3
9709,10250,0.00014,-0.0002,2e-05,0.0,5e-05,-0.00013000000000000002,-5e-05,-0.00011999999999999999,3
9710,10251,0.00014,-0.0002,2e-05,0.0,5e-05,-0.00013000000000000002,-5e-05,-0.00011999999999999999,3
9711,10252,0.00014,-0.0002,2e-05,0.0,5e-05,-0.00013000000000000002,-5e-05,-0.00011999999999999999,3
9712,10253,0.00014,-0.0002,2e-05,0.0,5e-05,-0.00013000000000000002,-5e-05,-0.00011999999999999999,3
9713,10254,0.00014,-0.0002,2e-05,0.0,5e-05,-0.00013000000000000002,-5e-05,-0.00011999999999999999,3
9714,10255,0.00014,-0.0002,2e-05,0.0,5e-05,-0.00013000000000000002,-5e-05,-0.00011999999999999999,3
9715,10256,0.00014,-0.0002,2e-05,0.0,5e-05,-0.00013000000000000002,-5e-05,-0.00011999999999999999,3
9716,10257,0.00014,-0.0002,2e-05,0.0,5e-05,-0.00013000000000000002,-5e-05,-0.00011999999999999999,3
9717,10258,0.00014,-0.0002,2e-05,0.0,5e-05,-0.00013000000000000002,-5e-05,-0.00011999999999999999,3
9718,10259,0.00014,-0.0002,2e-05,0.0,5e-05,-0.00013000000000000002,-5e-05,-0.00011999999999999999,3
9719,10260,0.00014,-0.0002,2e-05,0.0,5e-05,-0.00013000000000000002,-5e-05,-0.00011999999999999999,3
9720,10261,0.00014,-0.0002,2e-05,0.0,5e-05,-0.00013000000000000002,-5e-05,-0.00011999999999999999,3
9721,10262,0.00014,-0.0002,2e-05,0.0,5e-05,-0.00013000000000000002,-5e-05,-0.00011999999999999999,3
9722,10263,5e-05,0.00056,2e-05,2e-05,7e-05,0.00021,-2.9999999999999997e-05,-1e-05,3
9723,10264,5e-05,0.00056,2e-05,2e-05,7e-05,0.00021,-2.9999999999999997e-05,-1e-05,3
9724,10265,0.0,-0.00018,-7e-05,-7e-05,-4e-05,0.00033,2.9999999999999997e-05,-0.00011999999999999999,3
9725,10266,0.0,-0.00018,-7e-05,-7e-05,-4e-05,0.00033,2.9999999999999997e-05,-0.00011999999999999999,3
9726,10268,0.0,-0.00018,-7e-05,-7e-05,-4e-05,0.00033,2.9999999999999997e-05,-0.00011999999999999999,3
9727,10269,0.0,-0.00018,-7e-05,-7e-05,-4e-05,0.00033,2.9999999999999997e-05,-0.00011999999999999999,3
9728,10270,0.0,-0.00018,-7e-05,-7e-05,-4e-05,0.00033,2.9999999999999997e-05,-0.00011999999999999999,3
9729,10271,0.0,-0.00018,-7e-05,-7e-05,-4e-05,0.00033,2.9999999999999997e-05,-0.00011999999999999999,3
9730,10272,0.0,-0.00018,-7e-05,-7e-05,-4e-05,0.00033,2.9999999999999997e-05,-0.00011999999999999999,3
9731,10273,0.0,-0.00018,-7e-05,-7e-05,-4e-05,0.00033,2.9999999999999997e-05,-0.00011999999999999999,3
9732,10274,0.0,-0.00018,-7e-05,-7e-05,-4e-05,0.00033,2.9999999999999997e-05,-0.00011999999999999999,3
9733,10275,0.0,-0.00018,-7e-05,-7e-05,-4e-05,0.00033,2.9999999999999997e-05,-0.00011999999999999999,3
9734,10276,0.0,-0.00018,-7e-05,-7e-05,-4e-05,0.00033,2.9999999999999997e-05,-0.00011999999999999999,3
9735,10277,0.0,-0.00018,-7e-05,-7e-05,-4e-05,0.00033,2.9999999999999997e-05,-0.00011999999999999999,3
9736,10278,0.0,-0.00018,-7e-05,-7e-05,-4e-05,0.00033,2.9999999999999997e-05,-0.00011999999999999999,3
9737,10279,0.0,-0.00018,-7e-05,-7e-05,-4e-05,0.00033,2.9999999999999997e-05,-0.00011999999999999999,3
9738,10280,0.0,-0.00018,-7e-05,-7e-05,-4e-05,0.00033,2.9999999999999997e-05,-0.00011999999999999999,3
9739,10281,0.0,-0.00018,-7e-05,-7e-05,-4e-05,0.00033,2.9999999999999997e-05,-0.00011999999999999999,3
9740,10282,0.0,-0.00018,-7e-05,-7e-05,-4e-05,0.00033,2.9999999999999997e-05,-0.00011999999999999999,3
9741,10283,0.0,-0.00018,-7e-05,-7e-05,-4e-05,0.00033,2.9999999999999997e-05,-0.00011999999999999999,3
9742,10284,0.0,-0.00018,-7e-05,-7e-05,-4e-05,0.00033,2.9999999999999997e-05,-0.00011999999999999999,3
9743,10285,0.0,-0.00018,-7e-05,-7e-05,-4e-05,0.00033,2.9999999999999997e-05,-0.00011999999999999999,3
9744,10286,-5.9999999999999995e-05,-0.00058,-1e-05,1e-05,0.0,8e-05,5.9999999999999995e-05,1e-05,3
9745,10289,-0.00018999999999999998,-0.00025,-0.00013000000000000002,-1e-05,-0.00011,-0.00028,-2.9999999999999997e-05,-7e-05,3
9746,10290,-0.00018999999999999998,-0.00025,-0.00013000000000000002,-1e-05,-0.00011,-0.00028,-2.9999999999999997e-05,-7e-05,3
9747,10291,-0.00018999999999999998,-0.00025,-0.00013000000000000002,-1e-05,-0.00011,-0.00028,-2.9999999999999997e-05,-7e-05,3
9748,10292,-0.00018999999999999998,-0.00025,-0.00013000000000000002,-1e-05,-0.00011,-0.00028,-2.9999999999999997e-05,-7e-05,3
9749,10293,-0.00018999999999999998,-0.00025,-0.00013000000000000002,-1e-05,-0.00011,-0.00028,-2.9999999999999997e-05,-7e-05,3
9750,10294,-0.00018999999999999998,-0.00025,-0.00013000000000000002,-1e-05,-0.00011,-0.00028,-2.9999999999999997e-05,-7e-05,3
9751,10295,-0.00018999999999999998,-0.00025,-0.00013000000000000002,-1e-05,-0.00011,-0.00028,-2.9999999999999997e-05,-7e-05,3
9752,10296,-0.00018999999999999998,-0.00025,-0.00013000000000000002,-1e-05,-0.00011,-0.00028,-2.9999999999999997e-05,-7e-05,3
9753,10297,-0.00018999999999999998,-0.00025,-0.00013000000000000002,-1e-05,-0.00011,-0.00028,-2.9999999999999997e-05,-7e-05,3
9754,10298,-0.00018999999999999998,-0.00025,-0.00013000000000000002,-1e-05,-0.00011,-0.00028,-2.9999999999999997e-05,-7e-05,3
9755,10299,-0.00018999999999999998,-0.00025,-0.00013000000000000002,-1e-05,-0.00011,-0.00028,-2.9999999999999997e-05,-7e-05,3
9756,10300,-5e-05,2.9999999999999997e-05,-9e-05,-4e-05,-0.00014,0.00016999999999999999,-0.0001,-0.00028,3
9757,10301,5.9999999999999995e-05,0.00014,2.9999999999999997e-05,2.9999999999999997e-05,-0.00016,-9e-05,0.00011999999999999999,0.00015,3
9758,10302,5.9999999999999995e-05,0.00014,2.9999999999999997e-05,2.9999999999999997e-05,-0.00016,-9e-05,0.00011999999999999999,0.00015,3
9759,10303,5.9999999999999995e-05,0.00014,2.9999999999999997e-05,2.9999999999999997e-05,-0.00016,-9e-05,0.00011999999999999999,0.00015,3
9760,10304,5.9999999999999995e-05,0.00014,2.9999999999999997e-05,2.9999999999999997e-05,-0.00016,-9e-05,0.00011999999999999999,0.00015,3
9761,10305,5.9999999999999995e-05,0.00014,2.9999999999999997e-05,2.9999999999999997e-05,-0.00016,-9e-05,0.00011999999999999999,0.00015,3
9762,10306,5.9999999999999995e-05,0.00014,2.9999999999999997e-05,2.9999999999999997e-05,-0.00016,-9e-05,0.00011999999999999999,0.00015,3
9763,10307,0.00026000000000000003,5e-05,2e-05,-7e-05,2e-05,-2.9999999999999997e-05,5e-05,0.00032,3
9764,10308,0.00026000000000000003,5e-05,2e-05,-7e-05,2e-05,-2.9999999999999997e-05,5e-05,0.00032,3
9765,10309,0.00026000000000000003,5e-05,2e-05,-7e-05,2e-05,-2.9999999999999997e-05,5e-05,0.00032,3
9766,10310,0.00026000000000000003,5e-05,2e-05,-7e-05,2e-05,-2.9999999999999997e-05,5e-05,0.00032,3
9767,10311,0.00026000000000000003,5e-05,2e-05,-7e-05,2e-05,-2.9999999999999997e-05,5e-05,0.00032,3
9768,10312,0.00026000000000000003,5e-05,2e-05,-7e-05,2e-05,-2.9999999999999997e-05,5e-05,0.00032,3
9769,10313,0.00026000000000000003,5e-05,2e-05,-7e-05,2e-05,-2.9999999999999997e-05,5e-05,0.00032,3
9770,10314,0.00026000000000000003,5e-05,2e-05,-7e-05,2e-05,-2.9999999999999997e-05,5e-05,0.00032,3
9771,10315,0.00026000000000000003,5e-05,2e-05,-7e-05,2e-05,-2.9999999999999997e-05,5e-05,0.00032,3
9772,10316,0.00026000000000000003,5e-05,2e-05,-7e-05,2e-05,-2.9999999999999997e-05,5e-05,0.00032,3
9773,10317,0.00026000000000000003,5e-05,2e-05,-7e-05,2e-05,-2.9999999999999997e-05,5e-05,0.00032,3
9774,10318,0.00026000000000000003,5e-05,2e-05,-7e-05,2e-05,-2.9999999999999997e-05,5e-05,0.00032,3
9775,10319,0.00026000000000000003,5e-05,2e-05,-7e-05,2e-05,-2.9999999999999997e-05,5e-05,0.00032,3
9776,10320,0.00026000000000000003,5e-05,2e-05,-7e-05,2e-05,-2.9999999999999997e-05,5e-05,0.00032,3
9777,10321,0.00026000000000000003,5e-05,2e-05,-7e-05,2e-05,-2.9999999999999997e-05,5e-05,0.00032,3
9778,10322,0.00026000000000000003,5e-05,2e-05,-7e-05,2e-05,-2.9999999999999997e-05,5e-05,0.00032,3
9779,10323,-5e-05,-0.00026000000000000003,2.9999999999999997e-05,0.0,1e-05,-0.00013000000000000002,-4e-05,-0.00049,3
9780,10324,-5e-05,-0.00026000000000000003,2.9999999999999997e-05,0.0,1e-05,-0.00013000000000000002,-4e-05,-0.00049,3
9781,10325,-0.0001,-0.00014,4e-05,-2.9999999999999997e-05,-0.00047000000000000004,-0.00011,-0.00011999999999999999,0.00029,3
9782,10326,-0.0001,-0.00014,4e-05,-2.9999999999999997e-05,-0.00047000000000000004,-0.00011,-0.00011999999999999999,0.00029,3
9783,10327,-0.0001,-0.00014,4e-05,-2.9999999999999997e-05,-0.00047000000000000004,-0.00011,-0.00011999999999999999,0.00029,3
9784,10328,-0.0001,-0.00014,4e-05,-2.9999999999999997e-05,-0.00047000000000000004,-0.00011,-0.00011999999999999999,0.00029,3
9785,10329,-0.0001,-0.00014,4e-05,-2.9999999999999997e-05,-0.00047000000000000004,-0.00011,-0.00011999999999999999,0.00029,3
9786,10330,-0.0001,-0.00014,4e-05,-2.9999999999999997e-05,-0.00047000000000000004,-0.00011,-0.00011999999999999999,0.00029,3
9787,10331,-0.0001,-0.00014,4e-05,-2.9999999999999997e-05,-0.00047000000000000004,-0.00011,-0.00011999999999999999,0.00029,3
9788,10332,-0.0001,-0.00014,4e-05,-2.9999999999999997e-05,-0.00047000000000000004,-0.00011,-0.00011999999999999999,0.00029,3
9789,10333,-0.0001,-0.00014,4e-05,-2.9999999999999997e-05,-0.00047000000000000004,-0.00011,-0.00011999999999999999,0.00029,3
9790,10334,-0.0001,-0.00014,4e-05,-2.9999999999999997e-05,-0.00047000000000000004,-0.00011,-0.00011999999999999999,0.00029,3
9791,10335,-0.0001,-0.00014,4e-05,-2.9999999999999997e-05,-0.00047000000000000004,-0.00011,-0.00011999999999999999,0.00029,3
9792,10336,-0.0001,-0.00014,4e-05,-2.9999999999999997e-05,-0.00047000000000000004,-0.00011,-0.00011999999999999999,0.00029,3
9793,10339,-0.0001,-0.00014,4e-05,-2.9999999999999997e-05,-0.00047000000000000004,-0.00011,-0.00011999999999999999,0.00029,3
9794,10340,-0.0001,-0.00014,4e-05,-2.9999999999999997e-05,-0.00047000000000000004,-0.00011,-0.00011999999999999999,0.00029,3
9795,10341,-0.0001,-0.00014,4e-05,-2.9999999999999997e-05,-0.00047000000000000004,-0.00011,-0.00011999999999999999,0.00029,3
9796,10342,-0.0001,-0.00014,4e-05,-2.9999999999999997e-05,-0.00047000000000000004,-0.00011,-0.00011999999999999999,0.00029,3
9797,10343,-0.0001,-0.00014,4e-05,-2.9999999999999997e-05,-0.00047000000000000004,-0.00011,-0.00011999999999999999,0.00029,3
9798,10344,-0.0001,-0.00014,4e-05,-2.9999999999999997e-05,-0.00047000000000000004,-0.00011,-0.00011999999999999999,0.00029,3
9799,10345,-2e-05,8e-05,-5e-05,-4e-05,8e-05,0.00011,-5.9999999999999995e-05,0.00011,3
9800,10346,-2e-05,8e-05,-5e-05,-4e-05,8e-05,0.00011,-5.9999999999999995e-05,0.00011,3
9801,10347,-2e-05,8e-05,-5e-05,-4e-05,8e-05,0.00011,-5.9999999999999995e-05,0.00011,3
9802,10348,-2e-05,8e-05,-5e-05,-4e-05,8e-05,0.00011,-5.9999999999999995e-05,0.00011,3
9803,10349,-2e-05,8e-05,-5e-05,-4e-05,8e-05,0.00011,-5.9999999999999995e-05,0.00011,3
9804,10350,-2e-05,8e-05,-5e-05,-4e-05,8e-05,0.00011,-5.9999999999999995e-05,0.00011,3
9805,10351,-2e-05,8e-05,-5e-05,-4e-05,8e-05,0.00011,-5.9999999999999995e-05,0.00011,3
9806,10352,5.9999999999999995e-05,0.00016,7e-05,1e-05,-0.00021,0.0002,-5.9999999999999995e-05,-0.00015,3
9807,10353,5.9999999999999995e-05,0.00016,7e-05,1e-05,-0.00021,0.0002,-5.9999999999999995e-05,-0.00015,3
9808,10354,5.9999999999999995e-05,0.00016,7e-05,1e-05,-0.00021,0.0002,-5.9999999999999995e-05,-0.00015,3
9809,10355,5.9999999999999995e-05,0.00016,7e-05,1e-05,-0.00021,0.0002,-5.9999999999999995e-05,-0.00015,3
9810,10356,5.9999999999999995e-05,0.00016,7e-05,1e-05,-0.00021,0.0002,-5.9999999999999995e-05,-0.00015,3
9811,10357,5.9999999999999995e-05,0.00016,7e-05,1e-05,-0.00021,0.0002,-5.9999999999999995e-05,-0.00015,3
9812,10358,5.9999999999999995e-05,0.00016,7e-05,1e-05,-0.00021,0.0002,-5.9999999999999995e-05,-0.00015,3
9813,10359,5.9999999999999995e-05,0.00016,7e-05,1e-05,-0.00021,0.0002,-5.9999999999999995e-05,-0.00015,3
9814,10360,-0.00014,0.00011,-0.00011999999999999999,-2e-05,0.00023999999999999998,0.00033999999999999997,5.9999999999999995e-05,-2.9999999999999997e-05,3
9815,10361,-0.00014,0.00011,-0.00011999999999999999,-2e-05,0.00023999999999999998,0.00033999999999999997,5.9999999999999995e-05,-2.9999999999999997e-05,3
9816,10362,-0.00014,0.00011,-0.00011999999999999999,-2e-05,0.00023999999999999998,0.00033999999999999997,5.9999999999999995e-05,-2.9999999999999997e-05,3
9817,10363,-0.00014,0.00011,-0.00011999999999999999,-2e-05,0.00023999999999999998,0.00033999999999999997,5.9999999999999995e-05,-2.9999999999999997e-05,3
9818,10364,-0.00014,0.00011,-0.00011999999999999999,-2e-05,0.00023999999999999998,0.00033999999999999997,5.9999999999999995e-05,-2.9999999999999997e-05,3
9819,10365,-0.00014,0.00011,-0.00011999999999999999,-2e-05,0.00023999999999999998,0.00033999999999999997,5.9999999999999995e-05,-2.9999999999999997e-05,3
9820,10366,-0.00014,0.00011,-0.00011999999999999999,-2e-05,0.00023999999999999998,0.00033999999999999997,5.9999999999999995e-05,-2.9999999999999997e-05,3
9821,10367,0.00014,0.00023999999999999998,0.0001,4e-05,0.00013000000000000002,0.0,5.9999999999999995e-05,-0.00016999999999999999,3
9822,10368,0.00014,0.00023999999999999998,0.0001,4e-05,0.00013000000000000002,0.0,5.9999999999999995e-05,-0.00016999999999999999,3
9823,10369,0.00014,0.00023999999999999998,0.0001,4e-05,0.00013000000000000002,0.0,5.9999999999999995e-05,-0.00016999999999999999,3
9824,10370,0.00014,0.00023999999999999998,0.0001,4e-05,0.00013000000000000002,0.0,5.9999999999999995e-05,-0.00016999999999999999,3
9825,10371,0.00014,0.00023999999999999998,0.0001,4e-05,0.00013000000000000002,0.0,5.9999999999999995e-05,-0.00016999999999999999,3
9826,10372,0.00014,0.00023999999999999998,0.0001,4e-05,0.00013000000000000002,0.0,5.9999999999999995e-05,-0.00016999999999999999,3
9827,10373,0.00014,0.00023999999999999998,0.0001,4e-05,0.00013000000000000002,0.0,5.9999999999999995e-05,-0.00016999999999999999,3
9828,10374,0.00014,0.00023999999999999998,0.0001,4e-05,0.00013000000000000002,0.0,5.9999999999999995e-05,-0.00016999999999999999,3
9829,10375,0.00014,0.00023999999999999998,0.0001,4e-05,0.00013000000000000002,0.0,5.9999999999999995e-05,-0.00016999999999999999,3
9830,10376,0.00014,0.00023999999999999998,0.0001,4e-05,0.00013000000000000002,0.0,5.9999999999999995e-05,-0.00016999999999999999,3
9831,10377,0.00014,0.00023999999999999998,0.0001,4e-05,0.00013000000000000002,0.0,5.9999999999999995e-05,-0.00016999999999999999,3
9832,10378,0.00014,0.00023999999999999998,0.0001,4e-05,0.00013000000000000002,0.0,5.9999999999999995e-05,-0.00016999999999999999,3
9833,10379,0.00014,0.00023999999999999998,0.0001,4e-05,0.00013000000000000002,0.0,5.9999999999999995e-05,-0.00016999999999999999,3
9834,10380,0.00014,0.00023999999999999998,0.0001,4e-05,0.00013000000000000002,0.0,5.9999999999999995e-05,-0.00016999999999999999,3
9835,10381,0.00014,0.00023999999999999998,0.0001,4e-05,0.00013000000000000002,0.0,5.9999999999999995e-05,-0.00016999999999999999,3
9836,10382,0.00014,0.00023999999999999998,0.0001,4e-05,0.00013000000000000002,0.0,5.9999999999999995e-05,-0.00016999999999999999,3
9837,10383,0.00011,0.00015,9e-05,1e-05,-0.0001,0.00033,-1e-05,-0.00016,3
9838,10384,0.00011,0.00015,9e-05,1e-05,-0.0001,0.00033,-1e-05,-0.00016,3
9839,10385,0.00018,2.9999999999999997e-05,-0.00011999999999999999,0.0,-0.00022,-0.00015,1e-05,0.00029,3
9840,10386,0.0,-0.00039,-5e-05,-5.9999999999999995e-05,-2.9999999999999997e-05,-7e-05,2e-05,0.00037999999999999997,3
9841,10389,0.0,-0.00039,-5e-05,-5.9999999999999995e-05,-2.9999999999999997e-05,-7e-05,2e-05,0.00037999999999999997,3
9842,10390,0.0,-0.00039,-5e-05,-5.9999999999999995e-05,-2.9999999999999997e-05,-7e-05,2e-05,0.00037999999999999997,3
9843,10391,0.0,-0.00039,-5e-05,-5.9999999999999995e-05,-2.9999999999999997e-05,-7e-05,2e-05,0.00037999999999999997,3
9844,10392,0.0,-0.00039,-5e-05,-5.9999999999999995e-05,-2.9999999999999997e-05,-7e-05,2e-05,0.00037999999999999997,3
9845,10393,0.0,-0.00039,-5e-05,-5.9999999999999995e-05,-2.9999999999999997e-05,-7e-05,2e-05,0.00037999999999999997,3
9846,10394,0.0,-0.00039,-5e-05,-5.9999999999999995e-05,-2.9999999999999997e-05,-7e-05,2e-05,0.00037999999999999997,3
9847,10395,0.0,-0.00039,-5e-05,-5.9999999999999995e-05,-2.9999999999999997e-05,-7e-05,2e-05,0.00037999999999999997,3
9848,10396,0.0,-0.00039,-5e-05,-5.9999999999999995e-05,-2.9999999999999997e-05,-7e-05,2e-05,0.00037999999999999997,3
9849,10397,0.0,-0.00039,-5e-05,-5.9999999999999995e-05,-2.9999999999999997e-05,-7e-05,2e-05,0.00037999999999999997,3
9850,10398,0.0,-0.00039,-5e-05,-5.9999999999999995e-05,-2.9999999999999997e-05,-7e-05,2e-05,0.00037999999999999997,3
9851,10399,0.0,-0.00039,-5e-05,-5.9999999999999995e-05,-2.9999999999999997e-05,-7e-05,2e-05,0.00037999999999999997,3
9852,10400,0.0,-0.00039,-5e-05,-5.9999999999999995e-05,-2.9999999999999997e-05,-7e-05,2e-05,0.00037999999999999997,3
9853,10401,0.0,-0.00039,-5e-05,-5.9999999999999995e-05,-2.9999999999999997e-05,-7e-05,2e-05,0.00037999999999999997,3
9854,10402,0.0,-0.00039,-5e-05,-5.9999999999999995e-05,-2.9999999999999997e-05,-7e-05,2e-05,0.00037999999999999997,3
9855,10403,0.0,-0.00039,-5e-05,-5.9999999999999995e-05,-2.9999999999999997e-05,-7e-05,2e-05,0.00037999999999999997,3
9856,10404,0.0,-0.00039,-5e-05,-5.9999999999999995e-05,-2.9999999999999997e-05,-7e-05,2e-05,0.00037999999999999997,3
9857,10405,0.0,-0.00039,-5e-05,-5.9999999999999995e-05,-2.9999999999999997e-05,-7e-05,2e-05,0.00037999999999999997,3
9858,10406,-0.00016999999999999999,-0.00049,-0.00022999999999999998,-7e-05,-0.00022,-0.00036,-1e-05,-0.00064,3
9859,10407,-7e-05,2e-05,-5.9999999999999995e-05,1e-05,0.00029,-0.00011999999999999999,7e-05,-0.00011,3
9860,10408,-7e-05,2e-05,-5.9999999999999995e-05,1e-05,0.00029,-0.00011999999999999999,7e-05,-0.00011,3
9861,10409,-7e-05,2e-05,-5.9999999999999995e-05,1e-05,0.00029,-0.00011999999999999999,7e-05,-0.00011,3
9862,10410,-7e-05,2e-05,-5.9999999999999995e-05,1e-05,0.00029,-0.00011999999999999999,7e-05,-0.00011,3
9863,10411,-7e-05,2e-05,-5.9999999999999995e-05,1e-05,0.00029,-0.00011999999999999999,7e-05,-0.00011,3
9864,10412,-7e-05,2e-05,-5.9999999999999995e-05,1e-05,0.00029,-0.00011999999999999999,7e-05,-0.00011,3
9865,10413,-7e-05,2e-05,-5.9999999999999995e-05,1e-05,0.00029,-0.00011999999999999999,7e-05,-0.00011,3
9866,10414,-7e-05,2e-05,-5.9999999999999995e-05,1e-05,0.00029,-0.00011999999999999999,7e-05,-0.00011,3
9867,10415,-7e-05,2e-05,-5.9999999999999995e-05,1e-05,0.00029,-0.00011999999999999999,7e-05,-0.00011,3
9868,10416,-7e-05,2e-05,-5.9999999999999995e-05,1e-05,0.00029,-0.00011999999999999999,7e-05,-0.00011,3
9869,10417,-7e-05,2e-05,-5.9999999999999995e-05,1e-05,0.00029,-0.00011999999999999999,7e-05,-0.00011,3
9870,10418,-7e-05,2e-05,-5.9999999999999995e-05,1e-05,0.00029,-0.00011999999999999999,7e-05,-0.00011,3
9871,10419,-7e-05,2e-05,-5.9999999999999995e-05,1e-05,0.00029,-0.00011999999999999999,7e-05,-0.00011,3
9872,10420,-7e-05,2e-05,-5.9999999999999995e-05,1e-05,0.00029,-0.00011999999999999999,7e-05,-0.00011,3
9873,10421,-7e-05,2e-05,-5.9999999999999995e-05,1e-05,0.00029,-0.00011999999999999999,7e-05,-0.00011,3
9874,10422,-7e-05,2e-05,-5.9999999999999995e-05,1e-05,0.00029,-0.00011999999999999999,7e-05,-0.00011,3
9875,10423,-7e-05,2e-05,-5.9999999999999995e-05,1e-05,0.00029,-0.00011999999999999999,7e-05,-0.00011,3
9876,10424,-7e-05,2e-05,-5.9999999999999995e-05,1e-05,0.00029,-0.00011999999999999999,7e-05,-0.00011,3
9877,10425,-7e-05,2e-05,-5.9999999999999995e-05,1e-05,0.00029,-0.00011999999999999999,7e-05,-0.00011,3
