,time,channel1,channel2,channel3,channel4,channel5,channel6,channel7,channel8,class
9437,9925,-0.0005099999999999999,-2e-05,2e-05,0.00015,0.00011999999999999999,0.00029,-0.0001,1e-05,3
9438,9926,-0.0005099999999999999,-2e-05,2e-05,0.00015,0.00011999999999999999,0.00029,-0.0001,1e-05,3
9439,9927,-0.0005099999999999999,-2e-05,2e-05,0.00015,0.00011999999999999999,0.00029,-0.0001,1e-05,3
9440,9928,-0.0005099999999999999,-2e-05,2e-05,0.00015,0.00011999999999999999,0.00029,-0.0001,1e-05,3
9441,9929,-0.0005099999999999999,-2e-05,2e-05,0.00015,0.00011999999999999999,0.00029,-0.0001,1e-05,3
9442,9930,-0.0005099999999999999,-2e-05,2e-05,0.00015,0.00011999999999999999,0.00029,-0.0001,1e-05,3
9443,9931,-0.0005099999999999999,-2e-05,2e-05,0.00015,0.00011999999999999999,0.00029,-0.0001,1e-05,3
9444,9932,-0.0005099999999999999,-2e-05,2e-05,0.00015,0.00011999999999999999,0.00029,-0.0001,1e-05,3
9445,9933,-0.0005099999999999999,-2e-05,2e-05,0.00015,0.00011999999999999999,0.00029,-0.0001,1e-05,3
9446,9934,-0.0005099999999999999,-2e-05,2e-05,0.00015,0.00011999999999999999,0.00029,-0.0001,1e-05,3
9447,9935,-0.0005099999999999999,-2e-05,2e-05,0.00015,0.00011999999999999999,0.00029,-0.0001,1e-05,3
9448,9937,-0.0005099999999999999,-2e-05,2e-05,0.00015,0.00011999999999999999,0.00029,-0.0001,1e-05,3
9449,9939,2e-05,-0.0001,0.0,-0.00011,-0.00037,-0.00035,-0.00011,-2e-05,3
9450,9940,0.00014,2e-05,-2.9999999999999997e-05,4e-05,0.00035,0.00011,2.9999999999999997e-05,-5e-05,3
9451,9941,0.00014,2e-05,-2.9999999999999997e-05,4e-05,0.00035,0.00011,2.9999999999999997e-05,-5e-05,3
9452,9942,0.00014,2e-05,-2.9999999999999997e-05,4e-05,0.00035,0.00011,2.9999999999999997e-05,-5e-05,3
9453,9943,0.00014,2e-05,-2.9999999999999997e-05,4e-05,0.00035,0.00011,2.9999999999999997e-05,-5e-05,3
9454,9944,0.00014,2e-05,-2.9999999999999997e-05,4e-05,0.00035,0.00011,2.9999999999999997e-05,-5e-05,3
9455,9945,0.00014,2e-05,-2.9999999999999997e-05,4e-05,0.00035,0.00011,2.9999999999999997e-05,-5e-05,3
9456,9946,0.00014,2e-05,-2.9999999999999997e-05,4e-05,0.00035,0.00011,2.9999999999999997e-05,-5e-05,3
9457,9947,0.00014,2e-05,-2.9999999999999997e-05,4e-05,0.00035,0.00011,2.9999999999999997e-05,-5e-05,3
9458,9948,0.00014,2e-05,-2.9999999999999997e-05,4e-05,0.00035,0.00011,2.9999999999999997e-05,-5e-05,3
9459,9949,0.00014,2e-05,-2.9999999999999997e-05,4e-05,0.00035,0.00011,2.9999999999999997e-05,-5e-05,3
9460,9950,0.00014,2e-05,-2.9999999999999997e-05,4e-05,0.00035,0.00011,2.9999999999999997e-05,-5e-05,3
9461,9951,0.00014,2e-05,-2.9999999999999997e-05,4e-05,0.00035,0.00011,2.9999999999999997e-05,-5e-05,3
9462,9952,0.00014,2e-05,-2.9999999999999997e-05,4e-05,0.00035,0.00011,2.9999999999999997e-05,-5e-05,3
9463,9953,0.00014,2e-05,-2.9999999999999997e-05,4e-05,0.00035,0.00011,2.9999999999999997e-05,-5e-05,3
9464,9954,0.00014,2e-05,-2.9999999999999997e-05,4e-05,0.00035,0.00011,2.9999999999999997e-05,-5e-05,3
9465,9955,0.00014,2e-05,-2.9999999999999997e-05,4e-05,0.00035,0.00011,2.9999999999999997e-05,-5e-05,3
9466,9956,0.00014,2e-05,-2.9999999999999997e-05,4e-05,0.00035,0.00011,2.9999999999999997e-05,-5e-05,3
9467,9957,0.00014,2e-05,-2.9999999999999997e-05,4e-05,0.00035,0.00011,2.9999999999999997e-05,-5e-05,3
9468,9958,0.00014,2e-05,-2.9999999999999997e-05,4e-05,0.00035,0.00011,2.9999999999999997e-05,-5e-05,3
9469,9959,0.00014,2e-05,-2.9999999999999997e-05,4e-05,0.00035,0.00011,2.9999999999999997e-05,-5e-05,3
9470,9960,0.00035,7e-05,8e-05,1e-05,2e-05,0.00037,5e-05,9e-05,3
9471,9961,0.00035,7e-05,8e-05,1e-05,2e-05,0.00037,5e-05,9e-05,3
9472,9962,-0.00013000000000000002,-0.00014,-0.00011999999999999999,-0.00021,-1e-05,1e-05,1e-05,-0.00015,3
9473,9963,-0.00013000000000000002,-0.00014,-0.00011999999999999999,-0.00021,-1e-05,1e-05,1e-05,-0.00015,3
9474,9964,-0.00013000000000000002,-0.00014,-0.00011999999999999999,-0.00021,-1e-05,1e-05,1e-05,-0.00015,3
9475,9965,-0.00013000000000000002,-0.00014,-0.00011999999999999999,-0.00021,-1e-05,1e-05,1e-05,-0.00015,3
9476,9966,-0.00013000000000000002,-0.00014,-0.00011999999999999999,-0.00021,-1e-05,1e-05,1e-05,-0.00015,3
9477,9967,-0.00013000000000000002,-0.00014,-0.00011999999999999999,-0.00021,-1e-05,1e-05,1e-05,-0.00015,3
9478,9968,-0.00013000000000000002,-0.00014,-0.00011999999999999999,-0.00021,-1e-05,1e-05,1e-05,-0.00015,3
9479,9969,-0.00013000000000000002,-0.00014,-0.00011999999999999999,-0.00021,-1e-05,1e-05,1e-05,-0.00015,3
9480,9970,-0.00013000000000000002,-0.00014,-0.00011999999999999999,-0.00021,-1e-05,1e-05,1e-05,-0.00015,3
9481,9971,-0.00013000000000000002,-0.00014,-0.00011999999999999999,-0.00021,-1e-05,1e-05,1e-05,-0.00015,3
9482,9972,-0.00013000000000000002,-0.00014,-0.00011999999999999999,-0.00021,-1e-05,1e-05,1e-05,-0.00015,3
9483,9973,-0.00013000000000000002,-0.00014,-0.00011999999999999999,-0.00021,-1e-05,1e-05,1e-05,-0.00015,3
9484,9974,0.00015,-4e-05,4e-05,-0.00011,-0.00027,-0.00022,-5.9999999999999995e-05,5e-05,3
9485,9975,0.00015,-4e-05,4e-05,-0.00011,-0.00027,-0.00022,-5.9999999999999995e-05,5e-05,3
9486,9976,0.00015,-4e-05,4e-05,-0.00011,-0.00027,-0.00022,-5.9999999999999995e-05,5e-05,3
9487,9977,0.00015,-4e-05,4e-05,-0.00011,-0.00027,-0.00022,-5.9999999999999995e-05,5e-05,3
9488,9978,0.00015,-4e-05,4e-05,-0.00011,-0.00027,-0.00022,-5.9999999999999995e-05,5e-05,3
9489,9979,0.00015,-4e-05,4e-05,-0.00011,-0.00027,-0.00022,-5.9999999999999995e-05,5e-05,3
9490,9980,0.00015,-4e-05,4e-05,-0.00011,-0.00027,-0.00022,-5.9999999999999995e-05,5e-05,3
9491,9981,0.00015,-4e-05,4e-05,-0.00011,-0.00027,-0.00022,-5.9999999999999995e-05,5e-05,3
9492,9982,0.00015,-4e-05,4e-05,-0.00011,-0.00027,-0.00022,-5.9999999999999995e-05,5e-05,3
9493,9983,0.00013000000000000002,-2.9999999999999997e-05,-5.9999999999999995e-05,-0.00011,-0.00033,-0.00043,-0.00014,-8e-05,3
9494,9984,0.00013000000000000002,-2.9999999999999997e-05,-5.9999999999999995e-05,-0.00011,-0.00033,-0.00043,-0.00014,-8e-05,3
9495,9985,0.00013000000000000002,-2.9999999999999997e-05,-5.9999999999999995e-05,-0.00011,-0.00033,-0.00043,-0.00014,-8e-05,3
9496,9987,0.00013000000000000002,-2.9999999999999997e-05,-5.9999999999999995e-05,-0.00011,-0.00033,-0.00043,-0.00014,-8e-05,3
9497,9989,0.00013000000000000002,-2.9999999999999997e-05,-5.9999999999999995e-05,-0.00011,-0.00033,-0.00043,-0.00014,-8e-05,3
9498,9990,0.00013000000000000002,-2.9999999999999997e-05,-5.9999999999999995e-05,-0.00011,-0.00033,-0.00043,-0.00014,-8e-05,3
9499,9991,0.00013000000000000002,-2.9999999999999997e-05,-5.9999999999999995e-05,-0.00011,-0.00033,-0.00043,-0.00014,-8e-05,3
9500,9992,0.00013000000000000002,-2.9999999999999997e-05,-5.9999999999999995e-05,-0.00011,-0.00033,-0.00043,-0.00014,-8e-05,3
9501,9993,0.00013000000000000002,-2.9999999999999997e-05,-5.9999999999999995e-05,-0.00011,-0.00033,-0.00043,-0.00014,-8e-05,3
9502,9994,0.00013000000000000002,-2.9999999999999997e-05,-5.9999999999999995e-05,-0.00011,-0.00033,-0.00043,-0.00014,-8e-05,3
9503,9995,0.00013000000000000002,-2.9999999999999997e-05,-5.9999999999999995e-05,-0.00011,-0.00033,-0.00043,-0.00014,-8e-05,3
9504,9996,0.00013000000000000002,-2.9999999999999997e-05,-5.9999999999999995e-05,-0.00011,-0.00033,-0.00043,-0.00014,-8e-05,3
9505,9997,0.00013000000000000002,-2.9999999999999997e-05,-5.9999999999999995e-05,-0.00011,-0.00033,-0.00043,-0.00014,-8e-05,3
9506,9998,4e-05,-9e-05,-0.00011,0.0002,0.00021,-5.9999999999999995e-05,-0.00014,2e-05,3
9507,9999,0.00018999999999999998,2e-05,8e-05,-5e-05,-0.00041,-2e-05,0.0,2.9999999999999997e-05,3
9508,10000,-2.9999999999999997e-05,5.9999999999999995e-05,2e-05,-9e-05,0.00054,0.0002,0.0001,2e-05,3
9509,10001,-2.9999999999999997e-05,5.9999999999999995e-05,2e-05,-9e-05,0.00054,0.0002,0.0001,2e-05,3
9510,10002,-2.9999999999999997e-05,5.9999999999999995e-05,2e-05,-9e-05,0.00054,0.0002,0.0001,2e-05,3
9511,10003,-2.9999999999999997e-05,5.9999999999999995e-05,2e-05,-9e-05,0.00054,0.0002,0.0001,2e-05,3
9512,10004,-2.9999999999999997e-05,5.9999999999999995e-05,2e-05,-9e-05,0.00054,0.0002,0.0001,2e-05,3
9513,10005,-2.9999999999999997e-05,5.9999999999999995e-05,2e-05,-9e-05,0.00054,0.0002,0.0001,2e-05,3
9514,10006,-2.9999999999999997e-05,5.9999999999999995e-05,2e-05,-9e-05,0.00054,0.0002,0.0001,2e-05,3
9515,10007,-2.9999999999999997e-05,5.9999999999999995e-05,2e-05,-9e-05,0.00054,0.0002,0.0001,2e-05,3
9516,10008,-2.9999999999999997e-05,5.9999999999999995e-05,2e-05,-9e-05,0.00054,0.0002,0.0001,2e-05,3
9517,10009,-2.9999999999999997e-05,5.9999999999999995e-05,2e-05,-9e-05,0.00054,0.0002,0.0001,2e-05,3
9518,10010,-2.9999999999999997e-05,5.9999999999999995e-05,2e-05,-9e-05,0.00054,0.0002,0.0001,2e-05,3
9519,10011,-2.9999999999999997e-05,5.9999999999999995e-05,2e-05,-9e-05,0.00054,0.0002,0.0001,2e-05,3
9520,10012,-2.9999999999999997e-05,5.9999999999999995e-05,2e-05,-9e-05,0.00054,0.0002,0.0001,2e-05,3
9521,10013,-2.9999999999999997e-05,5.9999999999999995e-05,2e-05,-9e-05,0.00054,0.0002,0.0001,2e-05,3
9522,10014,-2.9999999999999997e-05,5.9999999999999995e-05,2e-05,-9e-05,0.00054,0.0002,0.0001,2e-05,3
9523,10015,-2.9999999999999997e-05,5.9999999999999995e-05,2e-05,-9e-05,0.00054,0.0002,0.0001,2e-05,3
9524,10016,-2.9999999999999997e-05,5.9999999999999995e-05,2e-05,-9e-05,0.00054,0.0002,0.0001,2e-05,3
9525,10017,-2.9999999999999997e-05,5.9999999999999995e-05,2e-05,-9e-05,0.00054,0.0002,0.0001,2e-05,3
9526,10018,-2.9999999999999997e-05,5.9999999999999995e-05,2e-05,-9e-05,0.00054,0.0002,0.0001,2e-05,3
9527,10019,-2.9999999999999997e-05,5.9999999999999995e-05,2e-05,-9e-05,0.00054,0.0002,0.0001,2e-05,3
9528,10020,2e-05,-4e-05,1e-05,-5e-05,-0.00022,-0.00016999999999999999,2.9999999999999997e-05,2.9999999999999997e-05,3
9529,10021,2e-05,-4e-05,1e-05,-5e-05,-0.00022,-0.00016999999999999999,2.9999999999999997e-05,2.9999999999999997e-05,3
9530,10022,0.00054,2.9999999999999997e-05,2e-05,0.00011,0.00014,0.00018,5.9999999999999995e-05,8e-05,3
9531,10023,0.00054,2.9999999999999997e-05,2e-05,0.00011,0.00014,0.00018,5.9999999999999995e-05,8e-05,3
9532,10024,0.00054,2.9999999999999997e-05,2e-05,0.00011,0.00014,0.00018,5.9999999999999995e-05,8e-05,3
9533,10025,0.00054,2.9999999999999997e-05,2e-05,0.00011,0.00014,0.00018,5.9999999999999995e-05,8e-05,3
9534,10026,0.00054,2.9999999999999997e-05,2e-05,0.00011,0.00014,0.00018,5.9999999999999995e-05,8e-05,3
9535,10027,0.00054,2.9999999999999997e-05,2e-05,0.00011,0.00014,0.00018,5.9999999999999995e-05,8e-05,3
9536,10028,0.00054,2.9999999999999997e-05,2e-05,0.00011,0.00014,0.00018,5.9999999999999995e-05,8e-05,3
9537,10029,0.00054,2.9999999999999997e-05,2e-05,0.00011,0.00014,0.00018,5.9999999999999995e-05,8e-05,3
9538,10030,0.00054,2.9999999999999997e-05,2e-05,0.00011,0.00014,0.00018,5.9999999999999995e-05,8e-05,3
9539,10031,0.00054,2.9999999999999997e-05,2e-05,0.00011,0.00014,0.00018,5.9999999999999995e-05,8e-05,3
9540,10033,0.00054,2.9999999999999997e-05,2e-05,0.00011,0.00014,0.00018,5.9999999999999995e-05,8e-05,3
9541,10034,0.00037,5.9999999999999995e-05,1e-05,-7e-05,2e-05,5e-05,2e-05,-2.9999999999999997e-05,3
9542,10035,0.00037,5.9999999999999995e-05,1e-05,-7e-05,2e-05,5e-05,2e-05,-2.9999999999999997e-05,3
9543,10043,-0.0005200000000000001,-7e-05,-5e-05,-7e-05,-0.00025,-0.00031,-2.9999999999999997e-05,-0.00016999999999999999,3
9544,10044,-0.0005200000000000001,-7e-05,-5e-05,-7e-05,-0.00025,-0.00031,-2.9999999999999997e-05,-0.00016999999999999999,3
9545,10045,-0.0005200000000000001,-7e-05,-5e-05,-7e-05,-0.00025,-0.00031,-2.9999999999999997e-05,-0.00016999999999999999,3
9546,10046,-0.0005200000000000001,-7e-05,-5e-05,-7e-05,-0.00025,-0.00031,-2.9999999999999997e-05,-0.00016999999999999999,3
9547,10047,-0.0005200000000000001,-7e-05,-5e-05,-7e-05,-0.00025,-0.00031,-2.9999999999999997e-05,-0.00016999999999999999,3
9548,10048,-0.0005200000000000001,-7e-05,-5e-05,-7e-05,-0.00025,-0.00031,-2.9999999999999997e-05,-0.00016999999999999999,3
9549,10049,-0.0005200000000000001,-7e-05,-5e-05,-7e-05,-0.00025,-0.00031,-2.9999999999999997e-05,-0.00016999999999999999,3
9550,10050,-0.0005200000000000001,-7e-05,-5e-05,-7e-05,-0.00025,-0.00031,-2.9999999999999997e-05,-0.00016999999999999999,3
9551,10051,-0.0005200000000000001,-7e-05,-5e-05,-7e-05,-0.00025,-0.00031,-2.9999999999999997e-05,-0.00016999999999999999,3
9552,10052,-0.0005200000000000001,-7e-05,-5e-05,-7e-05,-0.00025,-0.00031,-2.9999999999999997e-05,-0.00016999999999999999,3
9553,10053,-0.0005200000000000001,-7e-05,-5e-05,-7e-05,-0.00025,-0.00031,-2.9999999999999997e-05,-0.00016999999999999999,3
9554,10054,-0.0005200000000000001,-7e-05,-5e-05,-7e-05,-0.00025,-0.00031,-2.9999999999999997e-05,-0.00016999999999999999,3
9555,10055,-0.0005200000000000001,-7e-05,-5e-05,-7e-05,-0.00025,-0.00031,-2.9999999999999997e-05,-0.00016999999999999999,3
9556,10056,-0.0005200000000000001,-7e-05,-5e-05,-7e-05,-0.00025,-0.00031,-2.9999999999999997e-05,-0.00016999999999999999,3
9557,10057,-0.0005200000000000001,-7e-05,-5e-05,-7e-05,-0.00025,-0.00031,-2.9999999999999997e-05,-0.00016999999999999999,3
9558,10058,-5.9999999999999995e-05,-2e-05,-5e-05,-0.00016999999999999999,-8e-05,-5.9999999999999995e-05,0.00014,2.9999999999999997e-05,3
9559,10059,-8e-05,5.9999999999999995e-05,2e-05,9e-05,-0.00016999999999999999,-0.00021,-0.00018,-1e-05,3
9560,10060,8e-05,2e-05,0.0,2e-05,0.00025,0.00031,9e-05,0.00011999999999999999,3
9561,10061,8e-05,2e-05,0.0,2e-05,0.00025,0.00031,9e-05,0.00011999999999999999,3
9562,10062,8e-05,2e-05,0.0,2e-05,0.00025,0.00031,9e-05,0.00011999999999999999,3
9563,10063,8e-05,2e-05,0.0,2e-05,0.00025,0.00031,9e-05,0.00011999999999999999,3
9564,10064,8e-05,2e-05,0.0,2e-05,0.00025,0.00031,9e-05,0.00011999999999999999,3
9565,10065,8e-05,2e-05,0.0,2e-05,0.00025,0.00031,9e-05,0.00011999999999999999,3
9566,10066,8e-05,2e-05,0.0,2e-05,0.00025,0.00031,9e-05,0.00011999999999999999,3
9567,10067,8e-05,2e-05,0.0,2e-05,0.00025,0.00031,9e-05,0.00011999999999999999,3
9568,10068,8e-05,2e-05,0.0,2e-05,0.00025,0.00031,9e-05,0.00011999999999999999,3
9569,10069,8e-05,2e-05,0.0,2e-05,0.00025,0.00031,9e-05,0.00011999999999999999,3
9570,10070,8e-05,2e-05,0.0,2e-05,0.00025,0.00031,9e-05,0.00011999999999999999,3
9571,10071,8e-05,2e-05,0.0,2e-05,0.00025,0.00031,9e-05,0.00011999999999999999,3
9572,10072,8e-05,2e-05,0.0,2e-05,0.00025,0.00031,9e-05,0.00011999999999999999,3
9573,10073,8e-05,2e-05,0.0,2e-05,0.00025,0.00031,9e-05,0.00011999999999999999,3
9574,10074,8e-05,2e-05,0.0,2e-05,0.00025,0.00031,9e-05,0.00011999999999999999,3
9575,10075,8e-05,2e-05,0.0,2e-05,0.00025,0.00031,9e-05,0.00011999999999999999,3
9576,10076,8e-05,2e-05,0.0,2e-05,0.00025,0.00031,9e-05,0.00011999999999999999,3
9577,10077,8e-05,2e-05,0.0,2e-05,0.00025,0.00031,9e-05,0.00011999999999999999,3
9578,10078,8e-05,2e-05,0.0,2e-05,0.00025,0.00031,9e-05,0.00011999999999999999,3
9579,10079,8e-05,2e-05,0.0,2e-05,0.00025,0.00031,9e-05,0.00011999999999999999,3
9580,10080,-0.00035,-7e-05,-5.9999999999999995e-05,-0.00015,0.0001,-5.9999999999999995e-05,-5e-05,-8e-05,3
9581,10081,-0.00035,-7e-05,-5.9999999999999995e-05,-0.00015,0.0001,-5.9999999999999995e-05,-5e-05,-8e-05,3
9582,10082,9e-05,1e-05,1e-05,0.00011999999999999999,0.00035,0.00035,9e-05,2e-05,3
9583,10083,9e-05,1e-05,1e-05,0.00011999999999999999,0.00035,0.00035,9e-05,2e-05,3
9584,10084,9e-05,1e-05,1e-05,0.00011999999999999999,0.00035,0.00035,9e-05,2e-05,3
9585,10085,9e-05,1e-05,1e-05,0.00011999999999999999,0.00035,0.00035,9e-05,2e-05,3
9586,10087,9e-05,1e-05,1e-05,0.00011999999999999999,0.00035,0.00035,9e-05,2e-05,3
9587,10089,9e-05,1e-05,1e-05,0.00011999999999999999,0.00035,0.00035,9e-05,2e-05,3
9588,10090,9e-05,1e-05,1e-05,0.00011999999999999999,0.00035,0.00035,9e-05,2e-05,3
9589,10091,9e-05,1e-05,1e-05,0.00011999999999999999,0.00035,0.00035,9e-05,2e-05,3
9590,10092,9e-05,1e-05,1e-05,0.00011999999999999999,0.00035,0.00035,9e-05,2e-05,3
9591,10093,9e-05,1e-05,1e-05,0.00011999999999999999,0.00035,0.00035,9e-05,2e-05,3
9592,10094,0.00045,-1e-05,2.9999999999999997e-05,8e-05,0.00011999999999999999,0.00016,0.00016,-0.00016,3
9593,10095,0.00045,-1e-05,2.9999999999999997e-05,8e-05,0.00011999999999999999,0.00016,0.00016,-0.00016,3
9594,10096,0.00045,-1e-05,2.9999999999999997e-05,8e-05,0.00011999999999999999,0.00016,0.00016,-0.00016,3
9595,10097,0.00045,-1e-05,2.9999999999999997e-05,8e-05,0.00011999999999999999,0.00016,0.00016,-0.00016,3
9596,10098,0.00045,-1e-05,2.9999999999999997e-05,8e-05,0.00011999999999999999,0.00016,0.00016,-0.00016,3
9597,10099,0.00045,-1e-05,2.9999999999999997e-05,8e-05,0.00011999999999999999,0.00016,0.00016,-0.00016,3
9598,10100,0.00045,-1e-05,2.9999999999999997e-05,8e-05,0.00011999999999999999,0.00016,0.00016,-0.00016,3
9599,10101,0.00045,-1e-05,2.9999999999999997e-05,8e-05,0.00011999999999999999,0.00016,0.00016,-0.00016,3
9600,10102,0.00045,-1e-05,2.9999999999999997e-05,8e-05,0.00011999999999999999,0.00016,0.00016,-0.00016,3
9601,10103,7e-05,4e-05,7e-05,0.00028,0.00055,0.00041,1e-05,-9e-05,3
9602,10104,7e-05,4e-05,7e-05,0.00028,0.00055,0.00041,1e-05,-9e-05,3
9603,10105,7e-05,4e-05,7e-05,0.00028,0.00055,0.00041,1e-05,-9e-05,3
9604,10106,7e-05,4e-05,7e-05,0.00028,0.00055,0.00041,1e-05,-9e-05,3
9605,10107,7e-05,4e-05,7e-05,0.00028,0.00055,0.00041,1e-05,-9e-05,3
9606,10108,7e-05,4e-05,7e-05,0.00028,0.00055,0.00041,1e-05,-9e-05,3
9607,10109,7e-05,4e-05,7e-05,0.00028,0.00055,0.00041,1e-05,-9e-05,3
9608,10110,7e-05,4e-05,7e-05,0.00028,0.00055,0.00041,1e-05,-9e-05,3
9609,10111,7e-05,4e-05,7e-05,0.00028,0.00055,0.00041,1e-05,-9e-05,3
9610,10112,7e-05,4e-05,7e-05,0.00028,0.00055,0.00041,1e-05,-9e-05,3
9611,10113,7e-05,4e-05,7e-05,0.00028,0.00055,0.00041,1e-05,-9e-05,3
9612,10114,7e-05,4e-05,7e-05,0.00028,0.00055,0.00041,1e-05,-9e-05,3
9613,10115,7e-05,4e-05,7e-05,0.00028,0.00055,0.00041,1e-05,-9e-05,3
9614,10116,7e-05,4e-05,7e-05,0.00028,0.00055,0.00041,1e-05,-9e-05,3
9615,10117,7e-05,4e-05,7e-05,0.00028,0.00055,0.00041,1e-05,-9e-05,3
9616,10118,-9e-05,-9e-05,-7e-05,-0.00011999999999999999,-0.00014,1e-05,-5.9999999999999995e-05,0.0,3
9617,10119,-0.00047999999999999996,-1e-05,-5.9999999999999995e-05,-0.00016,-0.00036,-0.00037,-0.00031,-9e-05,3
9618,10120,-0.00047999999999999996,-1e-05,-5.9999999999999995e-05,-0.00016,-0.00036,-0.00037,-0.00031,-9e-05,3
9619,10121,-0.00047999999999999996,-1e-05,-5.9999999999999995e-05,-0.00016,-0.00036,-0.00037,-0.00031,-9e-05,3
9620,10122,-0.00047999999999999996,-1e-05,-5.9999999999999995e-05,-0.00016,-0.00036,-0.00037,-0.00031,-9e-05,3
9621,10123,-0.00047999999999999996,-1e-05,-5.9999999999999995e-05,-0.00016,-0.00036,-0.00037,-0.00031,-9e-05,3
9622,10124,-0.00047999999999999996,-1e-05,-5.9999999999999995e-05,-0.00016,-0.00036,-0.00037,-0.00031,-9e-05,3
9623,10125,-0.00047999999999999996,-1e-05,-5.9999999999999995e-05,-0.00016,-0.00036,-0.00037,-0.00031,-9e-05,3
9624,10126,-0.00047999999999999996,-1e-05,-5.9999999999999995e-05,-0.00016,-0.00036,-0.00037,-0.00031,-9e-05,3
9625,10127,-0.00047999999999999996,-1e-05,-5.9999999999999995e-05,-0.00016,-0.00036,-0.00037,-0.00031,-9e-05,3
9626,10128,-0.00047999999999999996,-1e-05,-5.9999999999999995e-05,-0.00016,-0.00036,-0.00037,-0.00031,-9e-05,3
9627,10129,-0.00047999999999999996,-1e-05,-5.9999999999999995e-05,-0.00016,-0.00036,-0.00037,-0.00031,-9e-05,3
9628,10130,-0.00047999999999999996,-1e-05,-5.9999999999999995e-05,-0.00016,-0.00036,-0.00037,-0.00031,-9e-05,3
9629,10131,-0.00047999999999999996,-1e-05,-5.9999999999999995e-05,-0.00016,-0.00036,-0.00037,-0.00031,-9e-05,3
9630,10132,-0.00047999999999999996,-1e-05,-5.9999999999999995e-05,-0.00016,-0.00036,-0.00037,-0.00031,-9e-05,3
9631,10133,-0.00047999999999999996,-1e-05,-5.9999999999999995e-05,-0.00016,-0.00036,-0.00037,-0.00031,-9e-05,3
9632,10134,-0.00047999999999999996,-1e-05,-5.9999999999999995e-05,-0.00016,-0.00036,-0.00037,-0.00031,-9e-05,3
9633,10135,-0.00047999999999999996,-1e-05,-5.9999999999999995e-05,-0.00016,-0.00036,-0.00037,-0.00031,-9e-05,3
9634,10137,-0.00047999999999999996,-1e-05,-5.9999999999999995e-05,-0.00016,-0.00036,-0.00037,-0.00031,-9e-05,3
9635,10139,-0.00047999999999999996,-1e-05,-5.9999999999999995e-05,-0.00016,-0.00036,-0.00037,-0.00031,-9e-05,3
9636,10140,-0.00018,0.0,0.0,4e-05,7e-05,-2e-05,-1e-05,-8e-05,3
9637,10141,-0.00013000000000000002,1e-05,8e-05,0.00016999999999999999,-7e-05,4e-05,-8e-05,-1e-05,3
9638,10142,0.00072,1e-05,-4e-05,-0.00013000000000000002,-0.00049,-0.00025,1e-05,0.00011,3
9639,10143,0.00072,1e-05,-4e-05,-0.00013000000000000002,-0.00049,-0.00025,1e-05,0.00011,3
9640,10144,0.00072,1e-05,-4e-05,-0.00013000000000000002,-0.00049,-0.00025,1e-05,0.00011,3
9641,10145,0.00072,1e-05,-4e-05,-0.00013000000000000002,-0.00049,-0.00025,1e-05,0.00011,3
9642,10146,0.00072,1e-05,-4e-05,-0.00013000000000000002,-0.00049,-0.00025,1e-05,0.00011,3
9643,10147,0.00072,1e-05,-4e-05,-0.00013000000000000002,-0.00049,-0.00025,1e-05,0.00011,3
9644,10148,0.00072,1e-05,-4e-05,-0.00013000000000000002,-0.00049,-0.00025,1e-05,0.00011,3
9645,10149,0.00072,1e-05,-4e-05,-0.00013000000000000002,-0.00049,-0.00025,1e-05,0.00011,3
9646,10150,0.00072,1e-05,-4e-05,-0.00013000000000000002,-0.00049,-0.00025,1e-05,0.00011,3
9647,10151,0.00072,1e-05,-4e-05,-0.00013000000000000002,-0.00049,-0.00025,1e-05,0.00011,3
9648,10152,0.00072,1e-05,-4e-05,-0.00013000000000000002,-0.00049,-0.00025,1e-05,0.00011,3
9649,10153,0.00072,1e-05,-4e-05,-0.00013000000000000002,-0.00049,-0.00025,1e-05,0.00011,3
9650,10154,0.00036,-2e-05,-5e-05,-5.9999999999999995e-05,-0.00031,-0.00022,-9e-05,2.9999999999999997e-05,3
9651,10155,0.00036,-2e-05,-5e-05,-5.9999999999999995e-05,-0.00031,-0.00022,-9e-05,2.9999999999999997e-05,3
9652,10156,0.00036,-2e-05,-5e-05,-5.9999999999999995e-05,-0.00031,-0.00022,-9e-05,2.9999999999999997e-05,3
9653,10157,0.00036,-2e-05,-5e-05,-5.9999999999999995e-05,-0.00031,-0.00022,-9e-05,2.9999999999999997e-05,3
9654,10158,0.00036,-2e-05,-5e-05,-5.9999999999999995e-05,-0.00031,-0.00022,-9e-05,2.9999999999999997e-05,3
9655,10159,0.00036,-2e-05,-5e-05,-5.9999999999999995e-05,-0.00031,-0.00022,-9e-05,2.9999999999999997e-05,3
9656,10160,0.00036,-2e-05,-5e-05,-5.9999999999999995e-05,-0.00031,-0.00022,-9e-05,2.9999999999999997e-05,3
9657,10161,0.00036,-2e-05,-5e-05,-5.9999999999999995e-05,-0.00031,-0.00022,-9e-05,2.9999999999999997e-05,3
9658,10162,0.00036,-2e-05,-5e-05,-5.9999999999999995e-05,-0.00031,-0.00022,-9e-05,2.9999999999999997e-05,3
9659,10163,0.0003,5.9999999999999995e-05,-1e-05,-5.9999999999999995e-05,-0.00035,-2e-05,8e-05,-5e-05,3
9660,10164,0.0003,5.9999999999999995e-05,-1e-05,-5.9999999999999995e-05,-0.00035,-2e-05,8e-05,-5e-05,3
9661,10165,0.0003,5.9999999999999995e-05,-1e-05,-5.9999999999999995e-05,-0.00035,-2e-05,8e-05,-5e-05,3
9662,10167,0.0003,5.9999999999999995e-05,-1e-05,-5.9999999999999995e-05,-0.00035,-2e-05,8e-05,-5e-05,3
9663,10168,0.0003,5.9999999999999995e-05,-1e-05,-5.9999999999999995e-05,-0.00035,-2e-05,8e-05,-5e-05,3
9664,10169,0.0003,5.9999999999999995e-05,-1e-05,-5.9999999999999995e-05,-0.00035,-2e-05,8e-05,-5e-05,3
9665,10170,0.0003,5.9999999999999995e-05,-1e-05,-5.9999999999999995e-05,-0.00035,-2e-05,8e-05,-5e-05,3
9666,10171,0.0003,5.9999999999999995e-05,-1e-05,-5.9999999999999995e-05,-0.00035,-2e-05,8e-05,-5e-05,3
9667,10172,0.0003,5.9999999999999995e-05,-1e-05,-5.9999999999999995e-05,-0.00035,-2e-05,8e-05,-5e-05,3
9668,10173,0.0003,5.9999999999999995e-05,-1e-05,-5.9999999999999995e-05,-0.00035,-2e-05,8e-05,-5e-05,3
9669,10174,0.0003,5.9999999999999995e-05,-1e-05,-5.9999999999999995e-05,-0.00035,-2e-05,8e-05,-5e-05,3
9670,10175,0.0003,5.9999999999999995e-05,-1e-05,-5.9999999999999995e-05,-0.00035,-2e-05,8e-05,-5e-05,3
9671,10176,0.0003,5.9999999999999995e-05,-1e-05,-5.9999999999999995e-05,-0.00035,-2e-05,8e-05,-5e-05,3
9672,10177,0.0003,5.9999999999999995e-05,-1e-05,-5.9999999999999995e-05,-0.00035,-2e-05,8e-05,-5e-05,3
9673,10178,-4e-05,0.0,0.0001,0.0001,0.00015,0.00021,-2.9999999999999997e-05,0.00013000000000000002,3
9674,10179,0.00013000000000000002,0.0,1e-05,0.00016,0.0,0.00011,0.0,-2e-05,3
9675,10180,0.00031,-2e-05,2e-05,-0.0002,-0.00031,-0.00029,-5.9999999999999995e-05,5e-05,3
9676,10181,0.00031,-2e-05,2e-05,-0.0002,-0.00031,-0.00029,-5.9999999999999995e-05,5e-05,3
9677,10182,0.00031,-2e-05,2e-05,-0.0002,-0.00031,-0.00029,-5.9999999999999995e-05,5e-05,3
9678,10183,0.00031,-2e-05,2e-05,-0.0002,-0.00031,-0.00029,-5.9999999999999995e-05,5e-05,3
9679,10184,0.00031,-2e-05,2e-05,-0.0002,-0.00031,-0.00029,-5.9999999999999995e-05,5e-05,3
9680,10185,0.00031,-2e-05,2e-05,-0.0002,-0.00031,-0.00029,-5.9999999999999995e-05,5e-05,3
9681,10187,0.00031,-2e-05,2e-05,-0.0002,-0.00031,-0.00029,-5.9999999999999995e-05,5e-05,3
9682,10189,0.00031,-2e-05,2e-05,-0.0002,-0.00031,-0.00029,-5.9999999999999995e-05,5e-05,3
9683,10190,0.00031,-2e-05,2e-05,-0.0002,-0.00031,-0.00029,-5.9999999999999995e-05,5e-05,3
9684,10191,0.00031,-2e-05,2e-05,-0.0002,-0.00031,-0.00029,-5.9999999999999995e-05,5e-05,3
9685,10192,0.00031,-2e-05,2e-05,-0.0002,-0.00031,-0.00029,-5.9999999999999995e-05,5e-05,3
9686,10193,0.00031,-2e-05,2e-05,-0.0002,-0.00031,-0.00029,-5.9999999999999995e-05,5e-05,3
9687,10194,0.00031,-2e-05,2e-05,-0.0002,-0.00031,-0.00029,-5.9999999999999995e-05,5e-05,3
9688,10195,0.00031,-2e-05,2e-05,-0.0002,-0.00031,-0.00029,-5.9999999999999995e-05,5e-05,3
9689,10196,0.00031,-2e-05,2e-05,-0.0002,-0.00031,-0.00029,-5.9999999999999995e-05,5e-05,3
9690,10197,0.00031,-2e-05,2e-05,-0.0002,-0.00031,-0.00029,-5.9999999999999995e-05,5e-05,3
9691,10198,0.00031,-2e-05,2e-05,-0.0002,-0.00031,-0.00029,-5.9999999999999995e-05,5e-05,3
9692,10199,0.00031,-2e-05,2e-05,-0.0002,-0.00031,-0.00029,-5.9999999999999995e-05,5e-05,3
9693,10200,0.00031,-2e-05,2e-05,-0.0002,-0.00031,-0.00029,-5.9999999999999995e-05,5e-05,3
9694,10201,-0.00035,0.0,2e-05,-2.9999999999999997e-05,0.00022,-2.9999999999999997e-05,-0.00033999999999999997,-2e-05,3
9695,10202,-0.00035,-8e-05,-1e-05,-8e-05,-0.00045999999999999996,7e-05,-4e-05,-5e-05,3
9696,10203,-0.00035,-8e-05,-1e-05,-8e-05,-0.00045999999999999996,7e-05,-4e-05,-5e-05,3
9697,10204,-0.00035,-8e-05,-1e-05,-8e-05,-0.00045999999999999996,7e-05,-4e-05,-5e-05,3
9698,10205,-0.00035,-8e-05,-1e-05,-8e-05,-0.00045999999999999996,7e-05,-4e-05,-5e-05,3
9699,10206,-0.00035,-8e-05,-1e-05,-8e-05,-0.00045999999999999996,7e-05,-4e-05,-5e-05,3
9700,10207,-0.00035,-8e-05,-1e-05,-8e-05,-0.00045999999999999996,7e-05,-4e-05,-5e-05,3
9701,10208,-0.00035,-8e-05,-1e-05,-8e-05,-0.00045999999999999996,7e-05,-4e-05,-5e-05,3
9702,10209,-0.00035,-8e-05,-1e-05,-8e-05,-0.00045999999999999996,7e-05,-4e-05,-5e-05,3
9703,10210,-0.00035,-8e-05,-1e-05,-8e-05,-0.00045999999999999996,7e-05,-4e-05,-5e-05,3
9704,10211,-0.00035,-8e-05,-1e-05,-8e-05,-0.00045999999999999996,7e-05,-4e-05,-5e-05,3
9705,10212,-0.00035,-8e-05,-1e-05,-8e-05,-0.00045999999999999996,7e-05,-4e-05,-5e-05,3
9706,10213,-0.00035,-8e-05,-1e-05,-8e-05,-0.00045999999999999996,7e-05,-4e-05,-5e-05,3
9707,10214,-0.00039,-5.9999999999999995e-05,-7e-05,-5e-05,-0.0001,-0.00016999999999999999,-5.9999999999999995e-05,-4e-05,3
9708,10215,-0.00039,-5.9999999999999995e-05,-7e-05,-5e-05,-0.0001,-0.00016999999999999999,-5.9999999999999995e-05,-4e-05,3
9709,10216,-0.00039,-5.9999999999999995e-05,-7e-05,-5e-05,-0.0001,-0.00016999999999999999,-5.9999999999999995e-05,-4e-05,3
9710,10217,-0.00039,-5.9999999999999995e-05,-7e-05,-5e-05,-0.0001,-0.00016999999999999999,-5.9999999999999995e-05,-4e-05,3
9711,10218,-0.00039,-5.9999999999999995e-05,-7e-05,-5e-05,-0.0001,-0.00016999999999999999,-5.9999999999999995e-05,-4e-05,3
9712,10219,-0.00039,-5.9999999999999995e-05,-7e-05,-5e-05,-0.0001,-0.00016999999999999999,-5.9999999999999995e-05,-4e-05,3
9713,10220,-0.00039,-5.9999999999999995e-05,-7e-05,-5e-05,-0.0001,-0.00016999999999999999,-5.9999999999999995e-05,-4e-05,3
9714,10221,-0.00039,-5.9999999999999995e-05,-7e-05,-5e-05,-0.0001,-0.00016999999999999999,-5.9999999999999995e-05,-4e-05,3
9715,10222,-0.00039,-5.9999999999999995e-05,-7e-05,-5e-05,-0.0001,-0.00016999999999999999,-5.9999999999999995e-05,-4e-05,3
9716,10223,-1e-05,-2e-05,-2.9999999999999997e-05,-2e-05,-0.00015,-0.00022,-4e-05,-5e-05,3
9717,10224,-1e-05,-2e-05,-2.9999999999999997e-05,-2e-05,-0.00015,-0.00022,-4e-05,-5e-05,3
9718,10225,-1e-05,-2e-05,-2.9999999999999997e-05,-2e-05,-0.00015,-0.00022,-4e-05,-5e-05,3
9719,10226,-1e-05,-2e-05,-2.9999999999999997e-05,-2e-05,-0.00015,-0.00022,-4e-05,-5e-05,3
9720,10227,-1e-05,-2e-05,-2.9999999999999997e-05,-2e-05,-0.00015,-0.00022,-4e-05,-5e-05,3
9721,10228,-1e-05,-2e-05,-2.9999999999999997e-05,-2e-05,-0.00015,-0.00022,-4e-05,-5e-05,3
9722,10229,-1e-05,-2e-05,-2.9999999999999997e-05,-2e-05,-0.00015,-0.00022,-4e-05,-5e-05,3
9723,10230,-1e-05,-2e-05,-2.9999999999999997e-05,-2e-05,-0.00015,-0.00022,-4e-05,-5e-05,3
9724,10231,-1e-05,-2e-05,-2.9999999999999997e-05,-2e-05,-0.00015,-0.00022,-4e-05,-5e-05,3
9725,10232,-1e-05,-2e-05,-2.9999999999999997e-05,-2e-05,-0.00015,-0.00022,-4e-05,-5e-05,3
9726,10233,-1e-05,-2e-05,-2.9999999999999997e-05,-2e-05,-0.00015,-0.00022,-4e-05,-5e-05,3
9727,10234,-1e-05,-2e-05,-2.9999999999999997e-05,-2e-05,-0.00015,-0.00022,-4e-05,-5e-05,3
9728,10235,-1e-05,-2e-05,-2.9999999999999997e-05,-2e-05,-0.00015,-0.00022,-4e-05,-5e-05,3
9729,10237,-1e-05,-2e-05,-2.9999999999999997e-05,-2e-05,-0.00015,-0.00022,-4e-05,-5e-05,3
9730,10239,0.00056,0.0001,-2e-05,2.9999999999999997e-05,-1e-05,1e-05,1e-05,8e-05,3
9731,10240,-0.0006799999999999999,-0.0002,-1e-05,0.00011,7e-05,-5e-05,0.00015,5e-05,3
9732,10241,-0.0006799999999999999,-0.0002,-1e-05,0.00011,7e-05,-5e-05,0.00015,5e-05,3
9733,10242,-0.0006799999999999999,-0.0002,-1e-05,0.00011,7e-05,-5e-05,0.00015,5e-05,3
9734,10243,-0.0006799999999999999,-0.0002,-1e-05,0.00011,7e-05,-5e-05,0.00015,5e-05,3
9735,10244,-0.0006799999999999999,-0.0002,-1e-05,0.00011,7e-05,-5e-05,0.00015,5e-05,3
9736,10245,-0.0006799999999999999,-0.0002,-1e-05,0.00011,7e-05,-5e-05,0.00015,5e-05,3
9737,10246,-0.0006799999999999999,-0.0002,-1e-05,0.00011,7e-05,-5e-05,0.00015,5e-05,3
9738,10247,-0.0006799999999999999,-0.0002,-1e-05,0.00011,7e-05,-5e-05,0.00015,5e-05,3
9739,10248,-0.0006799999999999999,-0.0002,-1e-05,0.00011,7e-05,-5e-05,0.00015,5e-05,3
9740,10249,-0.0006799999999999999,-0.0002,-1e-05,0.00011,7e-05,-5e-05,0.00015,5e-05,3
9741,10250,-0.0006799999999999999,-0.0002,-1e-05,0.00011,7e-05,-5e-05,0.00015,5e-05,3
9742,10251,-0.0006799999999999999,-0.0002,-1e-05,0.00011,7e-05,-5e-05,0.00015,5e-05,3
9743,10252,-0.0006799999999999999,-0.0002,-1e-05,0.00011,7e-05,-5e-05,0.00015,5e-05,3
9744,10253,-0.0006799999999999999,-0.0002,-1e-05,0.00011,7e-05,-5e-05,0.00015,5e-05,3
9745,10254,-0.0006799999999999999,-0.0002,-1e-05,0.00011,7e-05,-5e-05,0.00015,5e-05,3
9746,10255,-0.0006799999999999999,-0.0002,-1e-05,0.00011,7e-05,-5e-05,0.00015,5e-05,3
9747,10256,-0.0006799999999999999,-0.0002,-1e-05,0.00011,7e-05,-5e-05,0.00015,5e-05,3
9748,10257,-0.0006799999999999999,-0.0002,-1e-05,0.00011,7e-05,-5e-05,0.00015,5e-05,3
9749,10258,-0.0006799999999999999,-0.0002,-1e-05,0.00011,7e-05,-5e-05,0.00015,5e-05,3
9750,10259,-0.0006799999999999999,-0.0002,-1e-05,0.00011,7e-05,-5e-05,0.00015,5e-05,3
9751,10260,1e-05,-8e-05,-0.00011,-0.00047999999999999996,-0.0008699999999999999,-0.00047000000000000004,-0.00021,-0.00014,3
9752,10261,-9e-05,1e-05,-4e-05,0.00022,0.00029,0.0005200000000000001,5e-05,1e-05,3
9753,10262,0.00023999999999999998,0.0001,-4e-05,-5e-05,-0.00027,-0.0005,-2.9999999999999997e-05,-2e-05,3
9754,10263,0.00023999999999999998,0.0001,-4e-05,-5e-05,-0.00027,-0.0005,-2.9999999999999997e-05,-2e-05,3
9755,10264,0.00023999999999999998,0.0001,-4e-05,-5e-05,-0.00027,-0.0005,-2.9999999999999997e-05,-2e-05,3
9756,10265,0.00023999999999999998,0.0001,-4e-05,-5e-05,-0.00027,-0.0005,-2.9999999999999997e-05,-2e-05,3
9757,10266,0.00023999999999999998,0.0001,-4e-05,-5e-05,-0.00027,-0.0005,-2.9999999999999997e-05,-2e-05,3
9758,10267,0.00023999999999999998,0.0001,-4e-05,-5e-05,-0.00027,-0.0005,-2.9999999999999997e-05,-2e-05,3
9759,10268,0.00023999999999999998,0.0001,-4e-05,-5e-05,-0.00027,-0.0005,-2.9999999999999997e-05,-2e-05,3
9760,10269,0.00023999999999999998,0.0001,-4e-05,-5e-05,-0.00027,-0.0005,-2.9999999999999997e-05,-2e-05,3
9761,10270,0.00023999999999999998,0.0001,-4e-05,-5e-05,-0.00027,-0.0005,-2.9999999999999997e-05,-2e-05,3
9762,10271,0.00023999999999999998,0.0001,-4e-05,-5e-05,-0.00027,-0.0005,-2.9999999999999997e-05,-2e-05,3
9763,10272,0.00023999999999999998,0.0001,-4e-05,-5e-05,-0.00027,-0.0005,-2.9999999999999997e-05,-2e-05,3
9764,10273,0.00023999999999999998,0.0001,-4e-05,-5e-05,-0.00027,-0.0005,-2.9999999999999997e-05,-2e-05,3
9765,10274,0.00023999999999999998,0.0001,-4e-05,-5e-05,-0.00027,-0.0005,-2.9999999999999997e-05,-2e-05,3
9766,10275,0.00023999999999999998,0.0001,-4e-05,-5e-05,-0.00027,-0.0005,-2.9999999999999997e-05,-2e-05,3
9767,10276,0.00023999999999999998,0.0001,-4e-05,-5e-05,-0.00027,-0.0005,-2.9999999999999997e-05,-2e-05,3
9768,10277,0.00023999999999999998,0.0001,-4e-05,-5e-05,-0.00027,-0.0005,-2.9999999999999997e-05,-2e-05,3
9769,10278,0.00023999999999999998,0.0001,-4e-05,-5e-05,-0.00027,-0.0005,-2.9999999999999997e-05,-2e-05,3
9770,10279,0.00023999999999999998,0.0001,-4e-05,-5e-05,-0.00027,-0.0005,-2.9999999999999997e-05,-2e-05,3
9771,10280,0.00023999999999999998,0.0001,-4e-05,-5e-05,-0.00027,-0.0005,-2.9999999999999997e-05,-2e-05,3
9772,10281,0.00023999999999999998,0.0001,-4e-05,-5e-05,-0.00027,-0.0005,-2.9999999999999997e-05,-2e-05,3
9773,10282,0.00023999999999999998,0.0001,-4e-05,-5e-05,-0.00027,-0.0005,-2.9999999999999997e-05,-2e-05,3
9774,10283,-0.0001,-0.00025,-0.00018,-0.00018,-0.00025,-7e-05,0.00047000000000000004,-2.9999999999999997e-05,3
9775,10284,0.00011999999999999999,-0.00016,-8e-05,-5.9999999999999995e-05,-0.00026000000000000003,-4e-05,-0.0006,2e-05,3
9776,10285,-0.00058,-0.00011,1e-05,0.00018,0.00029,0.0004,0.00047999999999999996,-5e-05,3
9777,10287,-0.00058,-0.00011,1e-05,0.00018,0.00029,0.0004,0.00047999999999999996,-5e-05,3
9778,10289,-0.00058,-0.00011,1e-05,0.00018,0.00029,0.0004,0.00047999999999999996,-5e-05,3
9779,10290,-0.00058,-0.00011,1e-05,0.00018,0.00029,0.0004,0.00047999999999999996,-5e-05,3
9780,10291,-0.00058,-0.00011,1e-05,0.00018,0.00029,0.0004,0.00047999999999999996,-5e-05,3
9781,10292,-0.00058,-0.00011,1e-05,0.00018,0.00029,0.0004,0.00047999999999999996,-5e-05,3
9782,10293,-0.00058,-0.00011,1e-05,0.00018,0.00029,0.0004,0.00047999999999999996,-5e-05,3
9783,10294,-0.00058,-0.00011,1e-05,0.00018,0.00029,0.0004,0.00047999999999999996,-5e-05,3
9784,10295,-0.00058,-0.00011,1e-05,0.00018,0.00029,0.0004,0.00047999999999999996,-5e-05,3
9785,10296,-0.00058,-0.00011,1e-05,0.00018,0.00029,0.0004,0.00047999999999999996,-5e-05,3
9786,10297,-0.00058,-0.00011,1e-05,0.00018,0.00029,0.0004,0.00047999999999999996,-5e-05,3
9787,10298,0.00026000000000000003,0.00015,-2e-05,-0.00022999999999999998,-0.00018,9e-05,-0.00011999999999999999,2e-05,3
9788,10299,7e-05,4e-05,4e-05,-1e-05,0.00013000000000000002,1e-05,-9e-05,-1e-05,3
9789,10300,7e-05,4e-05,4e-05,-1e-05,0.00013000000000000002,1e-05,-9e-05,-1e-05,3
9790,10301,7e-05,4e-05,4e-05,-1e-05,0.00013000000000000002,1e-05,-9e-05,-1e-05,3
9791,10302,7e-05,4e-05,4e-05,-1e-05,0.00013000000000000002,1e-05,-9e-05,-1e-05,3
9792,10303,7e-05,4e-05,4e-05,-1e-05,0.00013000000000000002,1e-05,-9e-05,-1e-05,3
9793,10304,7e-05,4e-05,4e-05,-1e-05,0.00013000000000000002,1e-05,-9e-05,-1e-05,3
9794,10305,7e-05,4e-05,4e-05,-1e-05,0.00013000000000000002,1e-05,-9e-05,-1e-05,3
9795,10306,7e-05,4e-05,4e-05,-1e-05,0.00013000000000000002,1e-05,-9e-05,-1e-05,3
9796,10307,7e-05,4e-05,4e-05,-1e-05,0.00013000000000000002,1e-05,-9e-05,-1e-05,3
9797,10308,7e-05,4e-05,4e-05,-1e-05,0.00013000000000000002,1e-05,-9e-05,-1e-05,3
9798,10309,7e-05,4e-05,4e-05,-1e-05,0.00013000000000000002,1e-05,-9e-05,-1e-05,3
9799,10310,7e-05,4e-05,4e-05,-1e-05,0.00013000000000000002,1e-05,-9e-05,-1e-05,3
9800,10311,7e-05,4e-05,4e-05,-1e-05,0.00013000000000000002,1e-05,-9e-05,-1e-05,3
9801,10312,7e-05,4e-05,4e-05,-1e-05,0.00013000000000000002,1e-05,-9e-05,-1e-05,3
9802,10313,7e-05,4e-05,4e-05,-1e-05,0.00013000000000000002,1e-05,-9e-05,-1e-05,3
9803,10314,7e-05,4e-05,4e-05,-1e-05,0.00013000000000000002,1e-05,-9e-05,-1e-05,3
9804,10315,7e-05,4e-05,4e-05,-1e-05,0.00013000000000000002,1e-05,-9e-05,-1e-05,3
9805,10316,7e-05,4e-05,4e-05,-1e-05,0.00013000000000000002,1e-05,-9e-05,-1e-05,3
9806,10317,7e-05,4e-05,4e-05,-1e-05,0.00013000000000000002,1e-05,-9e-05,-1e-05,3
9807,10318,7e-05,4e-05,4e-05,-1e-05,0.00013000000000000002,1e-05,-9e-05,-1e-05,3
9808,10319,7e-05,4e-05,4e-05,-1e-05,0.00013000000000000002,1e-05,-9e-05,-1e-05,3
9809,10320,-0.0002,-4e-05,4e-05,2e-05,-4e-05,-2.9999999999999997e-05,5e-05,0.0,3
9810,10321,-0.0002,-4e-05,4e-05,2e-05,-4e-05,-2.9999999999999997e-05,5e-05,0.0,3
9811,10322,-9e-05,0.0,-2e-05,-5e-05,4e-05,0.00037999999999999997,-5.9999999999999995e-05,1e-05,3
9812,10323,-9e-05,0.0,-2e-05,-5e-05,4e-05,0.00037999999999999997,-5.9999999999999995e-05,1e-05,3
9813,10324,-9e-05,0.0,-2e-05,-5e-05,4e-05,0.00037999999999999997,-5.9999999999999995e-05,1e-05,3
9814,10325,-9e-05,0.0,-2e-05,-5e-05,4e-05,0.00037999999999999997,-5.9999999999999995e-05,1e-05,3
9815,10326,-9e-05,0.0,-2e-05,-5e-05,4e-05,0.00037999999999999997,-5.9999999999999995e-05,1e-05,3
9816,10327,-9e-05,0.0,-2e-05,-5e-05,4e-05,0.00037999999999999997,-5.9999999999999995e-05,1e-05,3
9817,10328,-9e-05,0.0,-2e-05,-5e-05,4e-05,0.00037999999999999997,-5.9999999999999995e-05,1e-05,3
9818,10329,-9e-05,0.0,-2e-05,-5e-05,4e-05,0.00037999999999999997,-5.9999999999999995e-05,1e-05,3
9819,10330,-9e-05,0.0,-2e-05,-5e-05,4e-05,0.00037999999999999997,-5.9999999999999995e-05,1e-05,3
9820,10331,-9e-05,0.0,-2e-05,-5e-05,4e-05,0.00037999999999999997,-5.9999999999999995e-05,1e-05,3
9821,10332,-9e-05,0.0,-2e-05,-5e-05,4e-05,0.00037999999999999997,-5.9999999999999995e-05,1e-05,3
9822,10333,-9e-05,0.0,-2e-05,-5e-05,4e-05,0.00037999999999999997,-5.9999999999999995e-05,1e-05,3
9823,10334,-9e-05,0.0,-2e-05,-5e-05,4e-05,0.00037999999999999997,-5.9999999999999995e-05,1e-05,3
9824,10335,-9e-05,0.0,-2e-05,-5e-05,4e-05,0.00037999999999999997,-5.9999999999999995e-05,1e-05,3
9825,10337,-9e-05,0.0,-2e-05,-5e-05,4e-05,0.00037999999999999997,-5.9999999999999995e-05,1e-05,3
9826,10339,-9e-05,0.0,-2e-05,-5e-05,4e-05,0.00037999999999999997,-5.9999999999999995e-05,1e-05,3
9827,10340,-9e-05,0.0,-2e-05,-5e-05,4e-05,0.00037999999999999997,-5.9999999999999995e-05,1e-05,3
9828,10341,-9e-05,0.0,-2e-05,-5e-05,4e-05,0.00037999999999999997,-5.9999999999999995e-05,1e-05,3
9829,10342,-9e-05,0.0,-2e-05,-5e-05,4e-05,0.00037999999999999997,-5.9999999999999995e-05,1e-05,3
9830,10343,0.0006,0.0001,1e-05,-2e-05,-5.9999999999999995e-05,-0.00018,-2.9999999999999997e-05,-9e-05,3
9831,10344,2.9999999999999997e-05,0.0,-1e-05,-0.00011999999999999999,-0.00031,-2e-05,-2.9999999999999997e-05,-1e-05,3
9832,10345,0.00037,0.0,-4e-05,5.9999999999999995e-05,-9e-05,-0.00022999999999999998,-0.0001,-5.9999999999999995e-05,3
9833,10346,0.00037,0.0,-4e-05,5.9999999999999995e-05,-9e-05,-0.00022999999999999998,-0.0001,-5.9999999999999995e-05,3
9834,10347,0.00037,0.0,-4e-05,5.9999999999999995e-05,-9e-05,-0.00022999999999999998,-0.0001,-5.9999999999999995e-05,3
9835,10348,0.00037,0.0,-4e-05,5.9999999999999995e-05,-9e-05,-0.00022999999999999998,-0.0001,-5.9999999999999995e-05,3
9836,10349,0.00037,0.0,-4e-05,5.9999999999999995e-05,-9e-05,-0.00022999999999999998,-0.0001,-5.9999999999999995e-05,3
9837,10350,0.00037,0.0,-4e-05,5.9999999999999995e-05,-9e-05,-0.00022999999999999998,-0.0001,-5.9999999999999995e-05,3
9838,10351,0.00037,0.0,-4e-05,5.9999999999999995e-05,-9e-05,-0.00022999999999999998,-0.0001,-5.9999999999999995e-05,3
9839,10352,0.00037,0.0,-4e-05,5.9999999999999995e-05,-9e-05,-0.00022999999999999998,-0.0001,-5.9999999999999995e-05,3
9840,10353,0.00037,0.0,-4e-05,5.9999999999999995e-05,-9e-05,-0.00022999999999999998,-0.0001,-5.9999999999999995e-05,3
9841,10354,0.00037,0.0,-4e-05,5.9999999999999995e-05,-9e-05,-0.00022999999999999998,-0.0001,-5.9999999999999995e-05,3
9842,10355,0.00037,0.0,-4e-05,5.9999999999999995e-05,-9e-05,-0.00022999999999999998,-0.0001,-5.9999999999999995e-05,3
9843,10356,0.00037,0.0,-4e-05,5.9999999999999995e-05,-9e-05,-0.00022999999999999998,-0.0001,-5.9999999999999995e-05,3
9844,10357,0.00037,0.0,-4e-05,5.9999999999999995e-05,-9e-05,-0.00022999999999999998,-0.0001,-5.9999999999999995e-05,3
9845,10358,-4e-05,-2e-05,-1e-05,-0.00016999999999999999,9e-05,-7e-05,5.9999999999999995e-05,1e-05,3
9846,10359,-2.9999999999999997e-05,0.0,0.0,-5e-05,1e-05,-0.00018,-5e-05,2.9999999999999997e-05,3
9847,10360,-2.9999999999999997e-05,0.0,0.0,-5e-05,1e-05,-0.00018,-5e-05,2.9999999999999997e-05,3
9848,10361,-2.9999999999999997e-05,0.0,0.0,-5e-05,1e-05,-0.00018,-5e-05,2.9999999999999997e-05,3
9849,10362,-2.9999999999999997e-05,0.0,0.0,-5e-05,1e-05,-0.00018,-5e-05,2.9999999999999997e-05,3
9850,10363,-2.9999999999999997e-05,0.0,0.0,-5e-05,1e-05,-0.00018,-5e-05,2.9999999999999997e-05,3
9851,10364,-2.9999999999999997e-05,0.0,0.0,-5e-05,1e-05,-0.00018,-5e-05,2.9999999999999997e-05,3
9852,10365,-2.9999999999999997e-05,0.0,0.0,-5e-05,1e-05,-0.00018,-5e-05,2.9999999999999997e-05,3
9853,10366,-2.9999999999999997e-05,0.0,0.0,-5e-05,1e-05,-0.00018,-5e-05,2.9999999999999997e-05,3
9854,10367,-2.9999999999999997e-05,0.0,0.0,-5e-05,1e-05,-0.00018,-5e-05,2.9999999999999997e-05,3
9855,10368,-2.9999999999999997e-05,0.0,0.0,-5e-05,1e-05,-0.00018,-5e-05,2.9999999999999997e-05,3
9856,10369,-2.9999999999999997e-05,0.0,0.0,-5e-05,1e-05,-0.00018,-5e-05,2.9999999999999997e-05,3
9857,10370,-2.9999999999999997e-05,0.0,0.0,-5e-05,1e-05,-0.00018,-5e-05,2.9999999999999997e-05,3
9858,10371,-2.9999999999999997e-05,0.0,0.0,-5e-05,1e-05,-0.00018,-5e-05,2.9999999999999997e-05,3
9859,10372,-2.9999999999999997e-05,0.0,0.0,-5e-05,1e-05,-0.00018,-5e-05,2.9999999999999997e-05,3
9860,10373,-2.9999999999999997e-05,0.0,0.0,-5e-05,1e-05,-0.00018,-5e-05,2.9999999999999997e-05,3
9861,10374,-2.9999999999999997e-05,0.0,0.0,-5e-05,1e-05,-0.00018,-5e-05,2.9999999999999997e-05,3
9862,10375,-2.9999999999999997e-05,0.0,0.0,-5e-05,1e-05,-0.00018,-5e-05,2.9999999999999997e-05,3
9863,10376,-2.9999999999999997e-05,0.0,0.0,-5e-05,1e-05,-0.00018,-5e-05,2.9999999999999997e-05,3
9864,10377,-2.9999999999999997e-05,0.0,0.0,-5e-05,1e-05,-0.00018,-5e-05,2.9999999999999997e-05,3
9865,10378,-2.9999999999999997e-05,0.0,0.0,-5e-05,1e-05,-0.00018,-5e-05,2.9999999999999997e-05,3
9866,10379,-2.9999999999999997e-05,0.0,0.0,-5e-05,1e-05,-0.00018,-5e-05,2.9999999999999997e-05,3
9867,10380,-0.00013000000000000002,-1e-05,5e-05,0.00021,0.00011999999999999999,0.00027,5e-05,0.00013000000000000002,3
9868,10381,-0.00013000000000000002,-1e-05,5e-05,0.00021,0.00011999999999999999,0.00027,5e-05,0.00013000000000000002,3
9869,10382,2e-05,-4e-05,-2e-05,2e-05,-0.00044,-8e-05,-0.00041,-0.00011999999999999999,3
9870,10383,2e-05,-4e-05,-2e-05,2e-05,-0.00044,-8e-05,-0.00041,-0.00011999999999999999,3
9871,10384,2e-05,-4e-05,-2e-05,2e-05,-0.00044,-8e-05,-0.00041,-0.00011999999999999999,3
9872,10385,2e-05,-4e-05,-2e-05,2e-05,-0.00044,-8e-05,-0.00041,-0.00011999999999999999,3
9873,10387,2e-05,-4e-05,-2e-05,2e-05,-0.00044,-8e-05,-0.00041,-0.00011999999999999999,3
9874,10389,2e-05,-4e-05,-2e-05,2e-05,-0.00044,-8e-05,-0.00041,-0.00011999999999999999,3
9875,10390,2e-05,-4e-05,-2e-05,2e-05,-0.00044,-8e-05,-0.00041,-0.00011999999999999999,3
9876,10391,2e-05,-4e-05,-2e-05,2e-05,-0.00044,-8e-05,-0.00041,-0.00011999999999999999,3
9877,10392,2e-05,-4e-05,-2e-05,2e-05,-0.00044,-8e-05,-0.00041,-0.00011999999999999999,3
9878,10393,2e-05,-4e-05,-2e-05,2e-05,-0.00044,-8e-05,-0.00041,-0.00011999999999999999,3
9879,10394,2e-05,-4e-05,-2e-05,2e-05,-0.00044,-8e-05,-0.00041,-0.00011999999999999999,3
9880,10395,2e-05,-4e-05,-2e-05,2e-05,-0.00044,-8e-05,-0.00041,-0.00011999999999999999,3
9881,10396,2e-05,-4e-05,-2e-05,2e-05,-0.00044,-8e-05,-0.00041,-0.00011999999999999999,3
9882,10397,2e-05,-4e-05,-2e-05,2e-05,-0.00044,-8e-05,-0.00041,-0.00011999999999999999,3
9883,10398,2e-05,-4e-05,-2e-05,2e-05,-0.00044,-8e-05,-0.00041,-0.00011999999999999999,3
9884,10399,2e-05,-4e-05,-2e-05,2e-05,-0.00044,-8e-05,-0.00041,-0.00011999999999999999,3
9885,10400,2e-05,-4e-05,-2e-05,2e-05,-0.00044,-8e-05,-0.00041,-0.00011999999999999999,3
9886,10401,2e-05,-4e-05,-2e-05,2e-05,-0.00044,-8e-05,-0.00041,-0.00011999999999999999,3
9887,10402,2e-05,-4e-05,-2e-05,2e-05,-0.00044,-8e-05,-0.00041,-0.00011999999999999999,3
9888,10403,-0.00059,-2.9999999999999997e-05,-5.9999999999999995e-05,0.0,-0.00026000000000000003,-0.0003,-8e-05,-2.9999999999999997e-05,3
9889,10404,-0.00016,0.0,-2e-05,-1e-05,4e-05,5e-05,5e-05,0.0001,3
9890,10405,0.00014,7e-05,0.0,2.9999999999999997e-05,-0.00016999999999999999,0.00011999999999999999,-8e-05,0.00021,3
9891,10406,0.00014,7e-05,0.0,2.9999999999999997e-05,-0.00016999999999999999,0.00011999999999999999,-8e-05,0.00021,3
9892,10407,0.00014,7e-05,0.0,2.9999999999999997e-05,-0.00016999999999999999,0.00011999999999999999,-8e-05,0.00021,3
9893,10408,0.00014,7e-05,0.0,2.9999999999999997e-05,-0.00016999999999999999,0.00011999999999999999,-8e-05,0.00021,3
9894,10409,0.00014,7e-05,0.0,2.9999999999999997e-05,-0.00016999999999999999,0.00011999999999999999,-8e-05,0.00021,3
9895,10410,0.00014,7e-05,0.0,2.9999999999999997e-05,-0.00016999999999999999,0.00011999999999999999,-8e-05,0.00021,3
9896,10411,0.00014,7e-05,0.0,2.9999999999999997e-05,-0.00016999999999999999,0.00011999999999999999,-8e-05,0.00021,3
9897,10412,0.00014,7e-05,0.0,2.9999999999999997e-05,-0.00016999999999999999,0.00011999999999999999,-8e-05,0.00021,3
9898,10413,0.00014,7e-05,0.0,2.9999999999999997e-05,-0.00016999999999999999,0.00011999999999999999,-8e-05,0.00021,3
9899,10414,0.00014,7e-05,0.0,2.9999999999999997e-05,-0.00016999999999999999,0.00011999999999999999,-8e-05,0.00021,3
9900,10415,0.00014,7e-05,0.0,2.9999999999999997e-05,-0.00016999999999999999,0.00011999999999999999,-8e-05,0.00021,3
9901,10416,0.00014,7e-05,0.0,2.9999999999999997e-05,-0.00016999999999999999,0.00011999999999999999,-8e-05,0.00021,3
9902,10417,0.00014,7e-05,0.0,2.9999999999999997e-05,-0.00016999999999999999,0.00011999999999999999,-8e-05,0.00021,3
9903,10418,5.9999999999999995e-05,-1e-05,2.9999999999999997e-05,0.0,-7e-05,-0.00018999999999999998,-0.00021,-5.9999999999999995e-05,3
9904,10419,2e-05,4e-05,-2.9999999999999997e-05,-0.00016999999999999999,-0.0005099999999999999,-0.00018999999999999998,0.00014,-8e-05,3
9905,10420,0.00027,-0.00016,-4e-05,2.9999999999999997e-05,0.0007099999999999999,0.00011999999999999999,-0.00021,-8e-05,3
9906,10421,0.00027,-0.00016,-4e-05,2.9999999999999997e-05,0.0007099999999999999,0.00011999999999999999,-0.00021,-8e-05,3
9907,10422,0.00027,-0.00016,-4e-05,2.9999999999999997e-05,0.0007099999999999999,0.00011999999999999999,-0.00021,-8e-05,3
9908,10423,0.00027,-0.00016,-4e-05,2.9999999999999997e-05,0.0007099999999999999,0.00011999999999999999,-0.00021,-8e-05,3
9909,10424,0.00027,-0.00016,-4e-05,2.9999999999999997e-05,0.0007099999999999999,0.00011999999999999999,-0.00021,-8e-05,3
9910,10425,0.00027,-0.00016,-4e-05,2.9999999999999997e-05,0.0007099999999999999,0.00011999999999999999,-0.00021,-8e-05,3
9911,10426,0.00027,-0.00016,-4e-05,2.9999999999999997e-05,0.0007099999999999999,0.00011999999999999999,-0.00021,-8e-05,3
9912,10427,0.00027,-0.00016,-4e-05,2.9999999999999997e-05,0.0007099999999999999,0.00011999999999999999,-0.00021,-8e-05,3
9913,10428,0.00027,-0.00016,-4e-05,2.9999999999999997e-05,0.0007099999999999999,0.00011999999999999999,-0.00021,-8e-05,3
9914,10429,0.00027,-0.00016,-4e-05,2.9999999999999997e-05,0.0007099999999999999,0.00011999999999999999,-0.00021,-8e-05,3
9915,10430,0.00027,-0.00016,-4e-05,2.9999999999999997e-05,0.0007099999999999999,0.00011999999999999999,-0.00021,-8e-05,3
9916,10431,0.00027,-0.00016,-4e-05,2.9999999999999997e-05,0.0007099999999999999,0.00011999999999999999,-0.00021,-8e-05,3
9917,10432,0.00027,-0.00016,-4e-05,2.9999999999999997e-05,0.0007099999999999999,0.00011999999999999999,-0.00021,-8e-05,3
9918,10433,0.00027,-0.00016,-4e-05,2.9999999999999997e-05,0.0007099999999999999,0.00011999999999999999,-0.00021,-8e-05,3
9919,10434,0.00027,-0.00016,-4e-05,2.9999999999999997e-05,0.0007099999999999999,0.00011999999999999999,-0.00021,-8e-05,3
9920,10435,0.00027,-0.00016,-4e-05,2.9999999999999997e-05,0.0007099999999999999,0.00011999999999999999,-0.00021,-8e-05,3
9921,10437,0.00027,-0.00016,-4e-05,2.9999999999999997e-05,0.0007099999999999999,0.00011999999999999999,-0.00021,-8e-05,3
9922,10439,0.00027,-0.00016,-4e-05,2.9999999999999997e-05,0.0007099999999999999,0.00011999999999999999,-0.00021,-8e-05,3
9923,10440,-0.00011999999999999999,2e-05,1e-05,-4e-05,-0.00033999999999999997,-0.00011999999999999999,2.9999999999999997e-05,0.00014,3
9924,10441,0.00011,-2.9999999999999997e-05,-1e-05,-5.9999999999999995e-05,-5.9999999999999995e-05,2e-05,2e-05,2e-05,3
9925,10442,0.0002,2e-05,4e-05,-0.00015,2.9999999999999997e-05,4e-05,2.9999999999999997e-05,2e-05,3
9926,10443,0.0002,2e-05,4e-05,-0.00015,2.9999999999999997e-05,4e-05,2.9999999999999997e-05,2e-05,3
9927,10444,0.0002,2e-05,4e-05,-0.00015,2.9999999999999997e-05,4e-05,2.9999999999999997e-05,2e-05,3
9928,10445,0.0002,2e-05,4e-05,-0.00015,2.9999999999999997e-05,4e-05,2.9999999999999997e-05,2e-05,3
9929,10446,0.0002,2e-05,4e-05,-0.00015,2.9999999999999997e-05,4e-05,2.9999999999999997e-05,2e-05,3
9930,10447,0.0002,2e-05,4e-05,-0.00015,2.9999999999999997e-05,4e-05,2.9999999999999997e-05,2e-05,3
9931,10448,0.0002,2e-05,4e-05,-0.00015,2.9999999999999997e-05,4e-05,2.9999999999999997e-05,2e-05,3
9932,10449,0.0002,2e-05,4e-05,-0.00015,2.9999999999999997e-05,4e-05,2.9999999999999997e-05,2e-05,3
9933,10450,0.0002,2e-05,4e-05,-0.00015,2.9999999999999997e-05,4e-05,2.9999999999999997e-05,2e-05,3
9934,10451,0.0002,2e-05,4e-05,-0.00015,2.9999999999999997e-05,4e-05,2.9999999999999997e-05,2e-05,3
9935,10452,0.0002,2e-05,4e-05,-0.00015,2.9999999999999997e-05,4e-05,2.9999999999999997e-05,2e-05,3
9936,10453,0.0002,2e-05,4e-05,-0.00015,2.9999999999999997e-05,4e-05,2.9999999999999997e-05,2e-05,3
9937,10454,0.0002,2e-05,4e-05,-0.00015,2.9999999999999997e-05,4e-05,2.9999999999999997e-05,2e-05,3
9938,10455,0.0002,2e-05,4e-05,-0.00015,2.9999999999999997e-05,4e-05,2.9999999999999997e-05,2e-05,3
9939,10456,0.0002,2e-05,4e-05,-0.00015,2.9999999999999997e-05,4e-05,2.9999999999999997e-05,2e-05,3
9940,10457,0.0002,2e-05,4e-05,-0.00015,2.9999999999999997e-05,4e-05,2.9999999999999997e-05,2e-05,3
9941,10458,0.0002,2e-05,4e-05,-0.00015,2.9999999999999997e-05,4e-05,2.9999999999999997e-05,2e-05,3
9942,10459,0.0002,2e-05,4e-05,-0.00015,2.9999999999999997e-05,4e-05,2.9999999999999997e-05,2e-05,3
9943,10460,0.0002,2e-05,4e-05,-0.00015,2.9999999999999997e-05,4e-05,2.9999999999999997e-05,2e-05,3
9944,10461,0.0002,2e-05,4e-05,-0.00015,2.9999999999999997e-05,4e-05,2.9999999999999997e-05,2e-05,3
9945,10462,0.0002,2e-05,4e-05,-0.00015,2.9999999999999997e-05,4e-05,2.9999999999999997e-05,2e-05,3
9946,10463,1e-05,-2.9999999999999997e-05,-5e-05,-0.00016999999999999999,-0.00045999999999999996,-0.00049,-0.00016,-0.00011999999999999999,3
9947,10464,0.00033,-1e-05,5e-05,0.00014,0.00085,0.00044,0.00022,5.9999999999999995e-05,3
9948,10465,-0.00033999999999999997,-2e-05,-8e-05,-0.00016,-0.0007099999999999999,-0.00043,-0.00022,-0.00011999999999999999,3
9949,10466,-0.00033999999999999997,-2e-05,-8e-05,-0.00016,-0.0007099999999999999,-0.00043,-0.00022,-0.00011999999999999999,3
9950,10467,-0.00033999999999999997,-2e-05,-8e-05,-0.00016,-0.0007099999999999999,-0.00043,-0.00022,-0.00011999999999999999,3
9951,10468,-0.00033999999999999997,-2e-05,-8e-05,-0.00016,-0.0007099999999999999,-0.00043,-0.00022,-0.00011999999999999999,3
9952,10469,-0.00033999999999999997,-2e-05,-8e-05,-0.00016,-0.0007099999999999999,-0.00043,-0.00022,-0.00011999999999999999,3
9953,10470,-0.00033999999999999997,-2e-05,-8e-05,-0.00016,-0.0007099999999999999,-0.00043,-0.00022,-0.00011999999999999999,3
9954,10471,-0.00033999999999999997,-2e-05,-8e-05,-0.00016,-0.0007099999999999999,-0.00043,-0.00022,-0.00011999999999999999,3
9955,10472,-0.00033999999999999997,-2e-05,-8e-05,-0.00016,-0.0007099999999999999,-0.00043,-0.00022,-0.00011999999999999999,3
9956,10473,-0.00033999999999999997,-2e-05,-8e-05,-0.00016,-0.0007099999999999999,-0.00043,-0.00022,-0.00011999999999999999,3
9957,10474,-0.00033999999999999997,-2e-05,-8e-05,-0.00016,-0.0007099999999999999,-0.00043,-0.00022,-0.00011999999999999999,3
9958,10475,-0.00033999999999999997,-2e-05,-8e-05,-0.00016,-0.0007099999999999999,-0.00043,-0.00022,-0.00011999999999999999,3
9959,10476,-0.00033999999999999997,-2e-05,-8e-05,-0.00016,-0.0007099999999999999,-0.00043,-0.00022,-0.00011999999999999999,3
9960,10477,-0.00033999999999999997,-2e-05,-8e-05,-0.00016,-0.0007099999999999999,-0.00043,-0.00022,-0.00011999999999999999,3
9961,10478,-0.00033999999999999997,-2e-05,-8e-05,-0.00016,-0.0007099999999999999,-0.00043,-0.00022,-0.00011999999999999999,3
9962,10479,-0.00033999999999999997,-2e-05,-8e-05,-0.00016,-0.0007099999999999999,-0.00043,-0.00022,-0.00011999999999999999,3
9963,10480,-0.00033999999999999997,-2e-05,-8e-05,-0.00016,-0.0007099999999999999,-0.00043,-0.00022,-0.00011999999999999999,3
9964,10481,-0.00033999999999999997,-2e-05,-8e-05,-0.00016,-0.0007099999999999999,-0.00043,-0.00022,-0.00011999999999999999,3
9965,10482,-0.00033999999999999997,-2e-05,-8e-05,-0.00016,-0.0007099999999999999,-0.00043,-0.00022,-0.00011999999999999999,3
9966,10483,-0.00033999999999999997,-2e-05,-8e-05,-0.00016,-0.0007099999999999999,-0.00043,-0.00022,-0.00011999999999999999,3
9967,10484,-0.00033999999999999997,-2e-05,-8e-05,-0.00016,-0.0007099999999999999,-0.00043,-0.00022,-0.00011999999999999999,3
9968,10485,-0.00018999999999999998,-1e-05,-1e-05,-7e-05,-0.00035,5.9999999999999995e-05,1e-05,-2e-05,3
9969,10487,-0.00023999999999999998,4e-05,4e-05,0.00015,0.0003,0.0001,0.00021,4e-05,3
9970,10489,-0.00023999999999999998,4e-05,4e-05,0.00015,0.0003,0.0001,0.00021,4e-05,3
9971,10490,-0.00023999999999999998,4e-05,4e-05,0.00015,0.0003,0.0001,0.00021,4e-05,3
9972,10491,-0.00023999999999999998,4e-05,4e-05,0.00015,0.0003,0.0001,0.00021,4e-05,3
9973,10492,-0.00023999999999999998,4e-05,4e-05,0.00015,0.0003,0.0001,0.00021,4e-05,3
9974,10493,-0.00023999999999999998,4e-05,4e-05,0.00015,0.0003,0.0001,0.00021,4e-05,3
9975,10494,-0.00023999999999999998,4e-05,4e-05,0.00015,0.0003,0.0001,0.00021,4e-05,3
9976,10495,-0.00023999999999999998,4e-05,4e-05,0.00015,0.0003,0.0001,0.00021,4e-05,3
9977,10496,-0.00023999999999999998,4e-05,4e-05,0.00015,0.0003,0.0001,0.00021,4e-05,3
9978,10497,-0.00023999999999999998,4e-05,4e-05,0.00015,0.0003,0.0001,0.00021,4e-05,3
9979,10498,-0.00023999999999999998,4e-05,4e-05,0.00015,0.0003,0.0001,0.00021,4e-05,3
9980,10499,-0.00023999999999999998,4e-05,4e-05,0.00015,0.0003,0.0001,0.00021,4e-05,3
9981,10500,0.00037999999999999997,4e-05,0.0001,0.00011999999999999999,0.00026000000000000003,0.00023999999999999998,0.00011,8e-05,3
9982,10501,0.00037999999999999997,4e-05,0.0001,0.00011999999999999999,0.00026000000000000003,0.00023999999999999998,0.00011,8e-05,3
9983,10502,-0.00027,-4e-05,-5.9999999999999995e-05,-4e-05,2e-05,-1e-05,4e-05,-0.0001,3
9984,10503,-0.00027,-4e-05,-5.9999999999999995e-05,-4e-05,2e-05,-1e-05,4e-05,-0.0001,3
9985,10504,-0.00027,-4e-05,-5.9999999999999995e-05,-4e-05,2e-05,-1e-05,4e-05,-0.0001,3
9986,10505,-0.00027,-4e-05,-5.9999999999999995e-05,-4e-05,2e-05,-1e-05,4e-05,-0.0001,3
9987,10506,-0.00027,-4e-05,-5.9999999999999995e-05,-4e-05,2e-05,-1e-05,4e-05,-0.0001,3
9988,10507,-0.00027,-4e-05,-5.9999999999999995e-05,-4e-05,2e-05,-1e-05,4e-05,-0.0001,3
9989,10508,-0.00027,-4e-05,-5.9999999999999995e-05,-4e-05,2e-05,-1e-05,4e-05,-0.0001,3
9990,10509,-0.00027,-4e-05,-5.9999999999999995e-05,-4e-05,2e-05,-1e-05,4e-05,-0.0001,3
9991,10510,-0.00027,-4e-05,-5.9999999999999995e-05,-4e-05,2e-05,-1e-05,4e-05,-0.0001,3
9992,10511,-0.00027,-4e-05,-5.9999999999999995e-05,-4e-05,2e-05,-1e-05,4e-05,-0.0001,3
9993,10512,-0.00027,-4e-05,-5.9999999999999995e-05,-4e-05,2e-05,-1e-05,4e-05,-0.0001,3
9994,10513,-0.00027,-4e-05,-5.9999999999999995e-05,-4e-05,2e-05,-1e-05,4e-05,-0.0001,3
9995,10514,-0.00027,-4e-05,-5.9999999999999995e-05,-4e-05,2e-05,-1e-05,4e-05,-0.0001,3
9996,10515,-0.00027,-4e-05,-5.9999999999999995e-05,-4e-05,2e-05,-1e-05,4e-05,-0.0001,3
9997,10516,-0.00027,-4e-05,-5.9999999999999995e-05,-4e-05,2e-05,-1e-05,4e-05,-0.0001,3
9998,10517,-0.00027,-4e-05,-5.9999999999999995e-05,-4e-05,2e-05,-1e-05,4e-05,-0.0001,3
9999,10518,-0.00027,-4e-05,-5.9999999999999995e-05,-4e-05,2e-05,-1e-05,4e-05,-0.0001,3
10000,10519,-0.00027,-4e-05,-5.9999999999999995e-05,-4e-05,2e-05,-1e-05,4e-05,-0.0001,3
10001,10520,-0.00027,-4e-05,-5.9999999999999995e-05,-4e-05,2e-05,-1e-05,4e-05,-0.0001,3
10002,10521,-0.00027,-4e-05,-5.9999999999999995e-05,-4e-05,2e-05,-1e-05,4e-05,-0.0001,3
10003,10522,-0.00027,-4e-05,-5.9999999999999995e-05,-4e-05,2e-05,-1e-05,4e-05,-0.0001,3
10004,10523,-0.00011999999999999999,0.0,-2.9999999999999997e-05,8e-05,1e-05,0.00021,7e-05,-1e-05,3
10005,10524,0.00011,2.9999999999999997e-05,-1e-05,-2e-05,0.00029,0.00042,-0.0001,-8e-05,3
10006,10525,0.00011,2.9999999999999997e-05,-1e-05,-2e-05,0.00029,0.00042,-0.0001,-8e-05,3
10007,10526,0.00011,2.9999999999999997e-05,-1e-05,-2e-05,0.00029,0.00042,-0.0001,-8e-05,3
10008,10527,0.00011,2.9999999999999997e-05,-1e-05,-2e-05,0.00029,0.00042,-0.0001,-8e-05,3
10009,10528,0.00011,2.9999999999999997e-05,-1e-05,-2e-05,0.00029,0.00042,-0.0001,-8e-05,3
10010,10529,0.00011,2.9999999999999997e-05,-1e-05,-2e-05,0.00029,0.00042,-0.0001,-8e-05,3
10011,10530,0.00011,2.9999999999999997e-05,-1e-05,-2e-05,0.00029,0.00042,-0.0001,-8e-05,3
10012,10531,0.00011,2.9999999999999997e-05,-1e-05,-2e-05,0.00029,0.00042,-0.0001,-8e-05,3
10013,10532,0.00011,2.9999999999999997e-05,-1e-05,-2e-05,0.00029,0.00042,-0.0001,-8e-05,3
10014,10533,0.00011,2.9999999999999997e-05,-1e-05,-2e-05,0.00029,0.00042,-0.0001,-8e-05,3
10015,10534,0.00011,2.9999999999999997e-05,-1e-05,-2e-05,0.00029,0.00042,-0.0001,-8e-05,3
10016,10535,0.00011,2.9999999999999997e-05,-1e-05,-2e-05,0.00029,0.00042,-0.0001,-8e-05,3
10017,10537,9e-05,-1e-05,0.0,-7e-05,-0.00021,-8e-05,0.00011999999999999999,2e-05,3
10018,10539,9e-05,-1e-05,0.0,-7e-05,-0.00021,-8e-05,0.00011999999999999999,2e-05,3
10019,10540,9e-05,-1e-05,0.0,-7e-05,-0.00021,-8e-05,0.00011999999999999999,2e-05,3
10020,10541,9e-05,-1e-05,0.0,-7e-05,-0.00021,-8e-05,0.00011999999999999999,2e-05,3
10021,10542,9e-05,-1e-05,0.0,-7e-05,-0.00021,-8e-05,0.00011999999999999999,2e-05,3
10022,10543,9e-05,-1e-05,0.0,-7e-05,-0.00021,-8e-05,0.00011999999999999999,2e-05,3
10023,10544,-0.00013000000000000002,-2e-05,-1e-05,0.00014,0.00036,0.00016,0.00015,1e-05,3
10024,10545,-0.00013000000000000002,-2e-05,-1e-05,0.00014,0.00036,0.00016,0.00015,1e-05,3
10025,10546,-0.00013000000000000002,-2e-05,-1e-05,0.00014,0.00036,0.00016,0.00015,1e-05,3
10026,10547,-0.00013000000000000002,-2e-05,-1e-05,0.00014,0.00036,0.00016,0.00015,1e-05,3
10027,10548,-0.00013000000000000002,-2e-05,-1e-05,0.00014,0.00036,0.00016,0.00015,1e-05,3
10028,10549,-0.00013000000000000002,-2e-05,-1e-05,0.00014,0.00036,0.00016,0.00015,1e-05,3
10029,10550,-0.00013000000000000002,-2e-05,-1e-05,0.00014,0.00036,0.00016,0.00015,1e-05,3
10030,10551,-0.00013000000000000002,-2e-05,-1e-05,0.00014,0.00036,0.00016,0.00015,1e-05,3
10031,10552,-0.00013000000000000002,-2e-05,-1e-05,0.00014,0.00036,0.00016,0.00015,1e-05,3
10032,10553,-0.00013000000000000002,-2e-05,-1e-05,0.00014,0.00036,0.00016,0.00015,1e-05,3
10033,10554,-0.00013000000000000002,-2e-05,-1e-05,0.00014,0.00036,0.00016,0.00015,1e-05,3
10034,10555,-0.00013000000000000002,-2e-05,-1e-05,0.00014,0.00036,0.00016,0.00015,1e-05,3
10035,10556,-0.00013000000000000002,-2e-05,-1e-05,0.00014,0.00036,0.00016,0.00015,1e-05,3
10036,10557,-0.00013000000000000002,-2e-05,-1e-05,0.00014,0.00036,0.00016,0.00015,1e-05,3
10037,10558,-0.00013000000000000002,-2e-05,-1e-05,0.00014,0.00036,0.00016,0.00015,1e-05,3
10038,10559,-0.00013000000000000002,-2e-05,-1e-05,0.00014,0.00036,0.00016,0.00015,1e-05,3
10039,10560,-5e-05,0.0,-1e-05,0.00013000000000000002,0.00013000000000000002,0.00011999999999999999,2.9999999999999997e-05,-4e-05,3
10040,10561,-5e-05,0.0,-1e-05,0.00013000000000000002,0.00013000000000000002,0.00011999999999999999,2.9999999999999997e-05,-4e-05,3
10041,10562,0.00013000000000000002,2e-05,-2e-05,-1e-05,-0.00033999999999999997,-0.00033999999999999997,0.00016,-4e-05,3
10042,10563,0.00013000000000000002,2e-05,-2e-05,-1e-05,-0.00033999999999999997,-0.00033999999999999997,0.00016,-4e-05,3
10043,10564,0.00013000000000000002,2e-05,-2e-05,-1e-05,-0.00033999999999999997,-0.00033999999999999997,0.00016,-4e-05,3
10044,10565,0.00013000000000000002,2e-05,-2e-05,-1e-05,-0.00033999999999999997,-0.00033999999999999997,0.00016,-4e-05,3
10045,10566,0.00013000000000000002,2e-05,-2e-05,-1e-05,-0.00033999999999999997,-0.00033999999999999997,0.00016,-4e-05,3
10046,10567,0.00013000000000000002,2e-05,-2e-05,-1e-05,-0.00033999999999999997,-0.00033999999999999997,0.00016,-4e-05,3
10047,10568,0.00013000000000000002,2e-05,-2e-05,-1e-05,-0.00033999999999999997,-0.00033999999999999997,0.00016,-4e-05,3
10048,10569,0.00013000000000000002,2e-05,-2e-05,-1e-05,-0.00033999999999999997,-0.00033999999999999997,0.00016,-4e-05,3
10049,10570,0.00013000000000000002,2e-05,-2e-05,-1e-05,-0.00033999999999999997,-0.00033999999999999997,0.00016,-4e-05,3
10050,10571,0.00013000000000000002,2e-05,-2e-05,-1e-05,-0.00033999999999999997,-0.00033999999999999997,0.00016,-4e-05,3
10051,10572,0.00013000000000000002,2e-05,-2e-05,-1e-05,-0.00033999999999999997,-0.00033999999999999997,0.00016,-4e-05,3
10052,10573,0.00013000000000000002,2e-05,-2e-05,-1e-05,-0.00033999999999999997,-0.00033999999999999997,0.00016,-4e-05,3
10053,10574,0.00013000000000000002,2e-05,-2e-05,-1e-05,-0.00033999999999999997,-0.00033999999999999997,0.00016,-4e-05,3
10054,10575,0.00013000000000000002,2e-05,-2e-05,-1e-05,-0.00033999999999999997,-0.00033999999999999997,0.00016,-4e-05,3
10055,10576,0.00013000000000000002,2e-05,-2e-05,-1e-05,-0.00033999999999999997,-0.00033999999999999997,0.00016,-4e-05,3
10056,10577,0.00013000000000000002,2e-05,-2e-05,-1e-05,-0.00033999999999999997,-0.00033999999999999997,0.00016,-4e-05,3
10057,10578,0.00013000000000000002,2e-05,-2e-05,-1e-05,-0.00033999999999999997,-0.00033999999999999997,0.00016,-4e-05,3
10058,10579,0.00013000000000000002,2e-05,-2e-05,-1e-05,-0.00033999999999999997,-0.00033999999999999997,0.00016,-4e-05,3
10059,10580,0.00013000000000000002,2e-05,-2e-05,-1e-05,-0.00033999999999999997,-0.00033999999999999997,0.00016,-4e-05,3
10060,10581,0.00013000000000000002,2e-05,-2e-05,-1e-05,-0.00033999999999999997,-0.00033999999999999997,0.00016,-4e-05,3
10061,10582,0.00013000000000000002,2e-05,-2e-05,-1e-05,-0.00033999999999999997,-0.00033999999999999997,0.00016,-4e-05,3
10062,10583,-5.9999999999999995e-05,-2e-05,-7e-05,-0.00028,-0.00045,-0.00042,-1e-05,-8e-05,3
10063,10584,0.0001,1e-05,2.9999999999999997e-05,2.9999999999999997e-05,-2e-05,0.00026000000000000003,5.9999999999999995e-05,7e-05,3
10064,10585,-0.00037,-4e-05,0.0,-1e-05,8e-05,-4e-05,-0.00013000000000000002,-2.9999999999999997e-05,3
10065,10587,-0.00037,-4e-05,0.0,-1e-05,8e-05,-4e-05,-0.00013000000000000002,-2.9999999999999997e-05,3
10066,10589,-0.00037,-4e-05,0.0,-1e-05,8e-05,-4e-05,-0.00013000000000000002,-2.9999999999999997e-05,3
10067,10590,-0.00037,-4e-05,0.0,-1e-05,8e-05,-4e-05,-0.00013000000000000002,-2.9999999999999997e-05,3
10068,10591,-0.00037,-4e-05,0.0,-1e-05,8e-05,-4e-05,-0.00013000000000000002,-2.9999999999999997e-05,3
10069,10592,-0.00037,-4e-05,0.0,-1e-05,8e-05,-4e-05,-0.00013000000000000002,-2.9999999999999997e-05,3
10070,10593,-0.00037,-4e-05,0.0,-1e-05,8e-05,-4e-05,-0.00013000000000000002,-2.9999999999999997e-05,3
10071,10594,-0.00037,-4e-05,0.0,-1e-05,8e-05,-4e-05,-0.00013000000000000002,-2.9999999999999997e-05,3
10072,10595,-0.00037,-4e-05,0.0,-1e-05,8e-05,-4e-05,-0.00013000000000000002,-2.9999999999999997e-05,3
10073,10596,-0.00037,-4e-05,0.0,-1e-05,8e-05,-4e-05,-0.00013000000000000002,-2.9999999999999997e-05,3
10074,10597,0.00011999999999999999,-2e-05,-2.9999999999999997e-05,4e-05,0.00021,-0.00028,-0.00016,-0.0001,3
10075,10598,0.00011999999999999999,-2e-05,-2.9999999999999997e-05,4e-05,0.00021,-0.00028,-0.00016,-0.0001,3
10076,10599,0.00011999999999999999,-2e-05,-2.9999999999999997e-05,4e-05,0.00021,-0.00028,-0.00016,-0.0001,3
10077,10600,0.00011999999999999999,-2e-05,-2.9999999999999997e-05,4e-05,0.00021,-0.00028,-0.00016,-0.0001,3
10078,10601,0.00011999999999999999,-2e-05,-2.9999999999999997e-05,4e-05,0.00021,-0.00028,-0.00016,-0.0001,3
10079,10602,0.00011999999999999999,-2e-05,-2.9999999999999997e-05,4e-05,0.00021,-0.00028,-0.00016,-0.0001,3
10080,10603,0.00011999999999999999,-2e-05,-2.9999999999999997e-05,4e-05,0.00021,-0.00028,-0.00016,-0.0001,3
10081,10604,0.00066,7e-05,0.0,-7e-05,5.9999999999999995e-05,0.00011999999999999999,0.0002,0.00011999999999999999,3
10082,10605,0.00066,7e-05,0.0,-7e-05,5.9999999999999995e-05,0.00011999999999999999,0.0002,0.00011999999999999999,3
10083,10606,0.00066,7e-05,0.0,-7e-05,5.9999999999999995e-05,0.00011999999999999999,0.0002,0.00011999999999999999,3
10084,10607,0.00066,7e-05,0.0,-7e-05,5.9999999999999995e-05,0.00011999999999999999,0.0002,0.00011999999999999999,3
10085,10608,0.00066,7e-05,0.0,-7e-05,5.9999999999999995e-05,0.00011999999999999999,0.0002,0.00011999999999999999,3
10086,10609,0.00066,7e-05,0.0,-7e-05,5.9999999999999995e-05,0.00011999999999999999,0.0002,0.00011999999999999999,3
10087,10610,0.00066,7e-05,0.0,-7e-05,5.9999999999999995e-05,0.00011999999999999999,0.0002,0.00011999999999999999,3
10088,10611,0.00066,7e-05,0.0,-7e-05,5.9999999999999995e-05,0.00011999999999999999,0.0002,0.00011999999999999999,3
10089,10612,0.00066,7e-05,0.0,-7e-05,5.9999999999999995e-05,0.00011999999999999999,0.0002,0.00011999999999999999,3
10090,10613,0.00066,7e-05,0.0,-7e-05,5.9999999999999995e-05,0.00011999999999999999,0.0002,0.00011999999999999999,3
10091,10614,0.00066,7e-05,0.0,-7e-05,5.9999999999999995e-05,0.00011999999999999999,0.0002,0.00011999999999999999,3
10092,10615,0.00066,7e-05,0.0,-7e-05,5.9999999999999995e-05,0.00011999999999999999,0.0002,0.00011999999999999999,3
10093,10616,0.00066,7e-05,0.0,-7e-05,5.9999999999999995e-05,0.00011999999999999999,0.0002,0.00011999999999999999,3
10094,10617,0.00066,7e-05,0.0,-7e-05,5.9999999999999995e-05,0.00011999999999999999,0.0002,0.00011999999999999999,3
10095,10618,0.00066,7e-05,0.0,-7e-05,5.9999999999999995e-05,0.00011999999999999999,0.0002,0.00011999999999999999,3
10096,10619,0.00066,7e-05,0.0,-7e-05,5.9999999999999995e-05,0.00011999999999999999,0.0002,0.00011999999999999999,3
10097,10620,-7e-05,4e-05,8e-05,0.0002,0.00047999999999999996,0.0002,2e-05,-5e-05,3
10098,10621,-7e-05,4e-05,8e-05,0.0002,0.00047999999999999996,0.0002,2e-05,-5e-05,3
10099,10622,0.00016,-4e-05,1e-05,-7e-05,-0.00035,-0.00036,-2.9999999999999997e-05,7e-05,3
10100,10623,0.00016,-4e-05,1e-05,-7e-05,-0.00035,-0.00036,-2.9999999999999997e-05,7e-05,3
10101,10624,0.00016,-4e-05,1e-05,-7e-05,-0.00035,-0.00036,-2.9999999999999997e-05,7e-05,3
10102,10625,0.00016,-4e-05,1e-05,-7e-05,-0.00035,-0.00036,-2.9999999999999997e-05,7e-05,3
10103,10626,0.00016,-4e-05,1e-05,-7e-05,-0.00035,-0.00036,-2.9999999999999997e-05,7e-05,3
10104,10627,0.00016,-4e-05,1e-05,-7e-05,-0.00035,-0.00036,-2.9999999999999997e-05,7e-05,3
10105,10628,0.00016,-4e-05,1e-05,-7e-05,-0.00035,-0.00036,-2.9999999999999997e-05,7e-05,3
10106,10629,0.00016,-4e-05,1e-05,-7e-05,-0.00035,-0.00036,-2.9999999999999997e-05,7e-05,3
10107,10630,0.00016,-4e-05,1e-05,-7e-05,-0.00035,-0.00036,-2.9999999999999997e-05,7e-05,3
10108,10631,0.00016,-4e-05,1e-05,-7e-05,-0.00035,-0.00036,-2.9999999999999997e-05,7e-05,3
10109,10632,0.00016,-4e-05,1e-05,-7e-05,-0.00035,-0.00036,-2.9999999999999997e-05,7e-05,3
10110,10633,0.00016,-4e-05,1e-05,-7e-05,-0.00035,-0.00036,-2.9999999999999997e-05,7e-05,3
10111,10634,0.00016,-4e-05,1e-05,-7e-05,-0.00035,-0.00036,-2.9999999999999997e-05,7e-05,3
10112,10635,0.00016,-4e-05,1e-05,-7e-05,-0.00035,-0.00036,-2.9999999999999997e-05,7e-05,3
10113,10637,0.00016,-4e-05,1e-05,-7e-05,-0.00035,-0.00036,-2.9999999999999997e-05,7e-05,3
10114,10639,0.00016,-4e-05,1e-05,-7e-05,-0.00035,-0.00036,-2.9999999999999997e-05,7e-05,3
10115,10640,0.00016,-4e-05,1e-05,-7e-05,-0.00035,-0.00036,-2.9999999999999997e-05,7e-05,3
10116,10641,0.00016,-4e-05,1e-05,-7e-05,-0.00035,-0.00036,-2.9999999999999997e-05,7e-05,3
10117,10642,0.00016,-4e-05,1e-05,-7e-05,-0.00035,-0.00036,-2.9999999999999997e-05,7e-05,3
10118,10643,0.0,-4e-05,-4e-05,5e-05,-2.9999999999999997e-05,-0.00026000000000000003,-8e-05,-4e-05,3
10119,10644,-2e-05,9e-05,0.00011,0.00021,0.00045999999999999996,0.0005200000000000001,0.0,4e-05,3
10120,10645,-0.00055,-4e-05,-2e-05,8e-05,0.0001,-9e-05,-5e-05,-0.0002,3
10121,10646,-0.00055,-4e-05,-2e-05,8e-05,0.0001,-9e-05,-5e-05,-0.0002,3
10122,10647,-0.00055,-4e-05,-2e-05,8e-05,0.0001,-9e-05,-5e-05,-0.0002,3
10123,10648,-0.00055,-4e-05,-2e-05,8e-05,0.0001,-9e-05,-5e-05,-0.0002,3
10124,10649,-0.00055,-4e-05,-2e-05,8e-05,0.0001,-9e-05,-5e-05,-0.0002,3
10125,10650,-0.00055,-4e-05,-2e-05,8e-05,0.0001,-9e-05,-5e-05,-0.0002,3
10126,10651,-0.00055,-4e-05,-2e-05,8e-05,0.0001,-9e-05,-5e-05,-0.0002,3
10127,10652,-0.00055,-4e-05,-2e-05,8e-05,0.0001,-9e-05,-5e-05,-0.0002,3
10128,10653,-0.00055,-4e-05,-2e-05,8e-05,0.0001,-9e-05,-5e-05,-0.0002,3
10129,10654,-0.00055,-4e-05,-2e-05,8e-05,0.0001,-9e-05,-5e-05,-0.0002,3
10130,10655,-0.00055,-4e-05,-2e-05,8e-05,0.0001,-9e-05,-5e-05,-0.0002,3
10131,10656,-0.00055,-4e-05,-2e-05,8e-05,0.0001,-9e-05,-5e-05,-0.0002,3
10132,10657,-0.00011,-2e-05,-1e-05,8e-05,0.00025,0.00021,-2.9999999999999997e-05,5.9999999999999995e-05,3
10133,10658,-0.00011,-2e-05,-1e-05,8e-05,0.00025,0.00021,-2.9999999999999997e-05,5.9999999999999995e-05,3
10134,10659,-0.00011,-2e-05,-1e-05,8e-05,0.00025,0.00021,-2.9999999999999997e-05,5.9999999999999995e-05,3
10135,10660,-0.00011,-2e-05,-1e-05,8e-05,0.00025,0.00021,-2.9999999999999997e-05,5.9999999999999995e-05,3
10136,10661,-0.00011,-2e-05,-1e-05,8e-05,0.00025,0.00021,-2.9999999999999997e-05,5.9999999999999995e-05,3
10137,10662,-0.00011,-2e-05,-1e-05,8e-05,0.00025,0.00021,-2.9999999999999997e-05,5.9999999999999995e-05,3
10138,10663,-0.00011,-2e-05,-1e-05,8e-05,0.00025,0.00021,-2.9999999999999997e-05,5.9999999999999995e-05,3
10139,10664,8e-05,4e-05,0.0,1e-05,-0.00013000000000000002,0.00026000000000000003,-5.9999999999999995e-05,-1e-05,3
10140,10665,8e-05,4e-05,0.0,1e-05,-0.00013000000000000002,0.00026000000000000003,-5.9999999999999995e-05,-1e-05,3
10141,10666,8e-05,4e-05,0.0,1e-05,-0.00013000000000000002,0.00026000000000000003,-5.9999999999999995e-05,-1e-05,3
10142,10667,8e-05,4e-05,0.0,1e-05,-0.00013000000000000002,0.00026000000000000003,-5.9999999999999995e-05,-1e-05,3
10143,10668,8e-05,4e-05,0.0,1e-05,-0.00013000000000000002,0.00026000000000000003,-5.9999999999999995e-05,-1e-05,3
10144,10669,8e-05,4e-05,0.0,1e-05,-0.00013000000000000002,0.00026000000000000003,-5.9999999999999995e-05,-1e-05,3
10145,10670,8e-05,4e-05,0.0,1e-05,-0.00013000000000000002,0.00026000000000000003,-5.9999999999999995e-05,-1e-05,3
10146,10671,8e-05,4e-05,0.0,1e-05,-0.00013000000000000002,0.00026000000000000003,-5.9999999999999995e-05,-1e-05,3
10147,10672,8e-05,4e-05,0.0,1e-05,-0.00013000000000000002,0.00026000000000000003,-5.9999999999999995e-05,-1e-05,3
10148,10673,8e-05,4e-05,0.0,1e-05,-0.00013000000000000002,0.00026000000000000003,-5.9999999999999995e-05,-1e-05,3
10149,10674,8e-05,4e-05,0.0,1e-05,-0.00013000000000000002,0.00026000000000000003,-5.9999999999999995e-05,-1e-05,3
10150,10675,8e-05,4e-05,0.0,1e-05,-0.00013000000000000002,0.00026000000000000003,-5.9999999999999995e-05,-1e-05,3
10151,10676,8e-05,4e-05,0.0,1e-05,-0.00013000000000000002,0.00026000000000000003,-5.9999999999999995e-05,-1e-05,3
10152,10677,8e-05,4e-05,0.0,1e-05,-0.00013000000000000002,0.00026000000000000003,-5.9999999999999995e-05,-1e-05,3
10153,10678,8e-05,4e-05,0.0,1e-05,-0.00013000000000000002,0.00026000000000000003,-5.9999999999999995e-05,-1e-05,3
10154,10679,8e-05,4e-05,0.0,1e-05,-0.00013000000000000002,0.00026000000000000003,-5.9999999999999995e-05,-1e-05,3
10155,10680,5e-05,-4e-05,-4e-05,7e-05,0.00053,4e-05,2.9999999999999997e-05,-4e-05,3
10156,10681,5e-05,-4e-05,-4e-05,7e-05,0.00053,4e-05,2.9999999999999997e-05,-4e-05,3
10157,10682,0.00013000000000000002,-2.9999999999999997e-05,-8e-05,-0.00035,-0.0005200000000000001,-0.00011,7e-05,5.9999999999999995e-05,3
10158,10683,0.00013000000000000002,-2.9999999999999997e-05,-8e-05,-0.00035,-0.0005200000000000001,-0.00011,7e-05,5.9999999999999995e-05,3
10159,10684,0.00013000000000000002,-2.9999999999999997e-05,-8e-05,-0.00035,-0.0005200000000000001,-0.00011,7e-05,5.9999999999999995e-05,3
10160,10685,0.00013000000000000002,-2.9999999999999997e-05,-8e-05,-0.00035,-0.0005200000000000001,-0.00011,7e-05,5.9999999999999995e-05,3
10161,10687,0.00013000000000000002,-2.9999999999999997e-05,-8e-05,-0.00035,-0.0005200000000000001,-0.00011,7e-05,5.9999999999999995e-05,3
10162,10689,0.00013000000000000002,-2.9999999999999997e-05,-8e-05,-0.00035,-0.0005200000000000001,-0.00011,7e-05,5.9999999999999995e-05,3
10163,10690,0.00013000000000000002,-2.9999999999999997e-05,-8e-05,-0.00035,-0.0005200000000000001,-0.00011,7e-05,5.9999999999999995e-05,3
10164,10691,0.00013000000000000002,-2.9999999999999997e-05,-8e-05,-0.00035,-0.0005200000000000001,-0.00011,7e-05,5.9999999999999995e-05,3
10165,10692,0.00013000000000000002,-2.9999999999999997e-05,-8e-05,-0.00035,-0.0005200000000000001,-0.00011,7e-05,5.9999999999999995e-05,3
10166,10693,0.00013000000000000002,-2.9999999999999997e-05,-8e-05,-0.00035,-0.0005200000000000001,-0.00011,7e-05,5.9999999999999995e-05,3
10167,10694,0.00013000000000000002,-2.9999999999999997e-05,-8e-05,-0.00035,-0.0005200000000000001,-0.00011,7e-05,5.9999999999999995e-05,3
10168,10695,0.00013000000000000002,-2.9999999999999997e-05,-8e-05,-0.00035,-0.0005200000000000001,-0.00011,7e-05,5.9999999999999995e-05,3
10169,10696,0.00013000000000000002,-2.9999999999999997e-05,-8e-05,-0.00035,-0.0005200000000000001,-0.00011,7e-05,5.9999999999999995e-05,3
10170,10697,0.00013000000000000002,-2.9999999999999997e-05,-8e-05,-0.00035,-0.0005200000000000001,-0.00011,7e-05,5.9999999999999995e-05,3
10171,10698,0.00013000000000000002,-2.9999999999999997e-05,-8e-05,-0.00035,-0.0005200000000000001,-0.00011,7e-05,5.9999999999999995e-05,3
10172,10699,0.00013000000000000002,-2.9999999999999997e-05,-8e-05,-0.00035,-0.0005200000000000001,-0.00011,7e-05,5.9999999999999995e-05,3
10173,10700,0.00013000000000000002,-2.9999999999999997e-05,-8e-05,-0.00035,-0.0005200000000000001,-0.00011,7e-05,5.9999999999999995e-05,3
10174,10701,0.00013000000000000002,-2.9999999999999997e-05,-8e-05,-0.00035,-0.0005200000000000001,-0.00011,7e-05,5.9999999999999995e-05,3
10175,10702,0.00013000000000000002,-2.9999999999999997e-05,-8e-05,-0.00035,-0.0005200000000000001,-0.00011,7e-05,5.9999999999999995e-05,3
10176,10703,-0.00033,-2e-05,0.0,-0.00016,-0.00011,0.00011999999999999999,8e-05,7e-05,3
10177,10704,0.00035,-4e-05,-4e-05,0.0,-0.00029,-0.0002,0.0,-7e-05,3
10178,10705,0.00026000000000000003,4e-05,2e-05,9e-05,4e-05,-0.0001,-1e-05,4e-05,3
10179,10706,0.00026000000000000003,4e-05,2e-05,9e-05,4e-05,-0.0001,-1e-05,4e-05,3
10180,10707,0.00026000000000000003,4e-05,2e-05,9e-05,4e-05,-0.0001,-1e-05,4e-05,3
10181,10708,0.00026000000000000003,4e-05,2e-05,9e-05,4e-05,-0.0001,-1e-05,4e-05,3
10182,10709,0.00026000000000000003,4e-05,2e-05,9e-05,4e-05,-0.0001,-1e-05,4e-05,3
10183,10710,0.00026000000000000003,4e-05,2e-05,9e-05,4e-05,-0.0001,-1e-05,4e-05,3
10184,10711,0.00026000000000000003,4e-05,2e-05,9e-05,4e-05,-0.0001,-1e-05,4e-05,3
10185,10712,0.00026000000000000003,4e-05,2e-05,9e-05,4e-05,-0.0001,-1e-05,4e-05,3
10186,10713,0.00026000000000000003,4e-05,2e-05,9e-05,4e-05,-0.0001,-1e-05,4e-05,3
10187,10714,0.00026000000000000003,4e-05,2e-05,9e-05,4e-05,-0.0001,-1e-05,4e-05,3
10188,10715,0.00026000000000000003,4e-05,2e-05,9e-05,4e-05,-0.0001,-1e-05,4e-05,3
10189,10716,0.00026000000000000003,4e-05,2e-05,9e-05,4e-05,-0.0001,-1e-05,4e-05,3
10190,10717,5.9999999999999995e-05,8e-05,-2e-05,4e-05,0.00084,0.00023999999999999998,-0.00015,-4e-05,3
10191,10718,5.9999999999999995e-05,8e-05,-2e-05,4e-05,0.00084,0.00023999999999999998,-0.00015,-4e-05,3
10192,10719,5.9999999999999995e-05,8e-05,-2e-05,4e-05,0.00084,0.00023999999999999998,-0.00015,-4e-05,3
10193,10720,5.9999999999999995e-05,8e-05,-2e-05,4e-05,0.00084,0.00023999999999999998,-0.00015,-4e-05,3
10194,10721,5.9999999999999995e-05,8e-05,-2e-05,4e-05,0.00084,0.00023999999999999998,-0.00015,-4e-05,3
10195,10722,5.9999999999999995e-05,8e-05,-2e-05,4e-05,0.00084,0.00023999999999999998,-0.00015,-4e-05,3
10196,10723,5.9999999999999995e-05,8e-05,-2e-05,4e-05,0.00084,0.00023999999999999998,-0.00015,-4e-05,3
10197,10724,-0.00032,-0.00018,1e-05,7e-05,1e-05,-8e-05,0.0,0.0,3
10198,10725,-0.00032,-0.00018,1e-05,7e-05,1e-05,-8e-05,0.0,0.0,3
10199,10726,-0.00032,-0.00018,1e-05,7e-05,1e-05,-8e-05,0.0,0.0,3
10200,10727,-0.00032,-0.00018,1e-05,7e-05,1e-05,-8e-05,0.0,0.0,3
10201,10728,-0.00032,-0.00018,1e-05,7e-05,1e-05,-8e-05,0.0,0.0,3
10202,10729,-0.00032,-0.00018,1e-05,7e-05,1e-05,-8e-05,0.0,0.0,3
10203,10730,-0.00032,-0.00018,1e-05,7e-05,1e-05,-8e-05,0.0,0.0,3
10204,10731,-0.00032,-0.00018,1e-05,7e-05,1e-05,-8e-05,0.0,0.0,3
10205,10732,-0.00032,-0.00018,1e-05,7e-05,1e-05,-8e-05,0.0,0.0,3
10206,10733,-0.00032,-0.00018,1e-05,7e-05,1e-05,-8e-05,0.0,0.0,3
10207,10734,-0.00032,-0.00018,1e-05,7e-05,1e-05,-8e-05,0.0,0.0,3
10208,10735,-0.00032,-0.00018,1e-05,7e-05,1e-05,-8e-05,0.0,0.0,3
10209,10737,-0.00032,-0.00018,1e-05,7e-05,1e-05,-8e-05,0.0,0.0,3
10210,10739,-0.00032,-0.00018,1e-05,7e-05,1e-05,-8e-05,0.0,0.0,3
10211,10740,9e-05,-2e-05,2.9999999999999997e-05,2e-05,-0.00023999999999999998,0.00026000000000000003,0.00011,-2.9999999999999997e-05,3
10212,10741,9e-05,-2e-05,2.9999999999999997e-05,2e-05,-0.00023999999999999998,0.00026000000000000003,0.00011,-2.9999999999999997e-05,3
10213,10742,0.0,5e-05,-2e-05,4e-05,5e-05,-2e-05,7e-05,1e-05,3
10214,10743,0.0,5e-05,-2e-05,4e-05,5e-05,-2e-05,7e-05,1e-05,3
10215,10744,0.0,5e-05,-2e-05,4e-05,5e-05,-2e-05,7e-05,1e-05,3
10216,10745,0.0,5e-05,-2e-05,4e-05,5e-05,-2e-05,7e-05,1e-05,3
10217,10746,0.0,5e-05,-2e-05,4e-05,5e-05,-2e-05,7e-05,1e-05,3
10218,10747,0.0,5e-05,-2e-05,4e-05,5e-05,-2e-05,7e-05,1e-05,3
10219,10748,0.0,5e-05,-2e-05,4e-05,5e-05,-2e-05,7e-05,1e-05,3
10220,10749,0.0,5e-05,-2e-05,4e-05,5e-05,-2e-05,7e-05,1e-05,3
10221,10750,0.0,5e-05,-2e-05,4e-05,5e-05,-2e-05,7e-05,1e-05,3
10222,10751,0.0,5e-05,-2e-05,4e-05,5e-05,-2e-05,7e-05,1e-05,3
10223,10752,0.0,5e-05,-2e-05,4e-05,5e-05,-2e-05,7e-05,1e-05,3
10224,10753,0.0,5e-05,-2e-05,4e-05,5e-05,-2e-05,7e-05,1e-05,3
10225,10754,0.0,5e-05,-2e-05,4e-05,5e-05,-2e-05,7e-05,1e-05,3
10226,10755,0.0,5e-05,-2e-05,4e-05,5e-05,-2e-05,7e-05,1e-05,3
10227,10756,0.0,5e-05,-2e-05,4e-05,5e-05,-2e-05,7e-05,1e-05,3
10228,10757,0.0,5e-05,-2e-05,4e-05,5e-05,-2e-05,7e-05,1e-05,3
10229,10758,0.0,5e-05,-2e-05,4e-05,5e-05,-2e-05,7e-05,1e-05,3
10230,10759,0.0,5e-05,-2e-05,4e-05,5e-05,-2e-05,7e-05,1e-05,3
10231,10760,0.0,5e-05,-2e-05,4e-05,5e-05,-2e-05,7e-05,1e-05,3
10232,10761,0.0,5e-05,-2e-05,4e-05,5e-05,-2e-05,7e-05,1e-05,3
10233,10762,0.0,5e-05,-2e-05,4e-05,5e-05,-2e-05,7e-05,1e-05,3
10234,10763,-0.00027,-5.9999999999999995e-05,-1e-05,5.9999999999999995e-05,-0.0002,-5e-05,-7e-05,-0.0001,3
10235,10764,2e-05,-1e-05,-1e-05,-2.9999999999999997e-05,-0.00011,-0.00013000000000000002,9e-05,2.9999999999999997e-05,3
10236,10765,0.00013000000000000002,-5e-05,-0.00011999999999999999,-0.00028,-0.00043,-0.00045,-7e-05,-7e-05,3
10237,10766,0.00013000000000000002,-5e-05,-0.00011999999999999999,-0.00028,-0.00043,-0.00045,-7e-05,-7e-05,3
10238,10767,0.00013000000000000002,-5e-05,-0.00011999999999999999,-0.00028,-0.00043,-0.00045,-7e-05,-7e-05,3
10239,10768,0.00013000000000000002,-5e-05,-0.00011999999999999999,-0.00028,-0.00043,-0.00045,-7e-05,-7e-05,3
10240,10769,0.00013000000000000002,-5e-05,-0.00011999999999999999,-0.00028,-0.00043,-0.00045,-7e-05,-7e-05,3
10241,10770,0.00013000000000000002,-5e-05,-0.00011999999999999999,-0.00028,-0.00043,-0.00045,-7e-05,-7e-05,3
10242,10771,0.00013000000000000002,-5e-05,-0.00011999999999999999,-0.00028,-0.00043,-0.00045,-7e-05,-7e-05,3
10243,10772,0.00013000000000000002,-5e-05,-0.00011999999999999999,-0.00028,-0.00043,-0.00045,-7e-05,-7e-05,3
10244,10773,0.00013000000000000002,-5e-05,-0.00011999999999999999,-0.00028,-0.00043,-0.00045,-7e-05,-7e-05,3
10245,10774,0.00013000000000000002,-5e-05,-0.00011999999999999999,-0.00028,-0.00043,-0.00045,-7e-05,-7e-05,3
10246,10775,0.00013000000000000002,-5e-05,-0.00011999999999999999,-0.00028,-0.00043,-0.00045,-7e-05,-7e-05,3
10247,10776,0.00022999999999999998,7e-05,5.9999999999999995e-05,0.00029,0.00054,0.00041,0.00018999999999999998,0.00015,3
10248,10777,0.00016999999999999999,-1e-05,-8e-05,-0.00026000000000000003,-0.0012,-0.00037999999999999997,-9e-05,-2.9999999999999997e-05,3
10249,10778,0.00016999999999999999,-1e-05,-8e-05,-0.00026000000000000003,-0.0012,-0.00037999999999999997,-9e-05,-2.9999999999999997e-05,3
10250,10779,0.00016999999999999999,-1e-05,-8e-05,-0.00026000000000000003,-0.0012,-0.00037999999999999997,-9e-05,-2.9999999999999997e-05,3
10251,10780,0.00016999999999999999,-1e-05,-8e-05,-0.00026000000000000003,-0.0012,-0.00037999999999999997,-9e-05,-2.9999999999999997e-05,3
10252,10781,0.00016999999999999999,-1e-05,-8e-05,-0.00026000000000000003,-0.0012,-0.00037999999999999997,-9e-05,-2.9999999999999997e-05,3
10253,10782,0.00016999999999999999,-1e-05,-8e-05,-0.00026000000000000003,-0.0012,-0.00037999999999999997,-9e-05,-2.9999999999999997e-05,3
10254,10783,0.00016999999999999999,-1e-05,-8e-05,-0.00026000000000000003,-0.0012,-0.00037999999999999997,-9e-05,-2.9999999999999997e-05,3
10255,10784,0.00016999999999999999,-1e-05,-8e-05,-0.00026000000000000003,-0.0012,-0.00037999999999999997,-9e-05,-2.9999999999999997e-05,3
10256,10785,0.00043,1e-05,2.9999999999999997e-05,0.0001,0.00066,9e-05,0.00013000000000000002,1e-05,3
10257,10787,-0.0005,-4e-05,-4e-05,-1e-05,-0.00031,-0.00022,-0.00018,-1e-05,3
10258,10789,-0.0005,-4e-05,-4e-05,-1e-05,-0.00031,-0.00022,-0.00018,-1e-05,3
10259,10790,-0.0005,-4e-05,-4e-05,-1e-05,-0.00031,-0.00022,-0.00018,-1e-05,3
10260,10791,-0.0005,-4e-05,-4e-05,-1e-05,-0.00031,-0.00022,-0.00018,-1e-05,3
10261,10792,-0.0005,-4e-05,-4e-05,-1e-05,-0.00031,-0.00022,-0.00018,-1e-05,3
10262,10793,-0.0005,-4e-05,-4e-05,-1e-05,-0.00031,-0.00022,-0.00018,-1e-05,3
10263,10794,-0.0005,-4e-05,-4e-05,-1e-05,-0.00031,-0.00022,-0.00018,-1e-05,3
10264,10795,-0.0005,-4e-05,-4e-05,-1e-05,-0.00031,-0.00022,-0.00018,-1e-05,3
10265,10796,-0.0005,-4e-05,-4e-05,-1e-05,-0.00031,-0.00022,-0.00018,-1e-05,3
10266,10797,-0.0005,-4e-05,-4e-05,-1e-05,-0.00031,-0.00022,-0.00018,-1e-05,3
10267,10798,-0.0005,-4e-05,-4e-05,-1e-05,-0.00031,-0.00022,-0.00018,-1e-05,3
10268,10799,-0.0005,-4e-05,-4e-05,-1e-05,-0.00031,-0.00022,-0.00018,-1e-05,3
10269,10800,-0.00018,-2.9999999999999997e-05,4e-05,8e-05,0.00015,8e-05,1e-05,-2.9999999999999997e-05,3
10270,10801,-0.00018,-2.9999999999999997e-05,4e-05,8e-05,0.00015,8e-05,1e-05,-2.9999999999999997e-05,3
10271,10802,-0.00018999999999999998,2e-05,4e-05,0.00011999999999999999,0.00065,0.0003,-5.9999999999999995e-05,1e-05,3
10272,10803,-0.00018999999999999998,2e-05,4e-05,0.00011999999999999999,0.00065,0.0003,-5.9999999999999995e-05,1e-05,3
10273,10804,-0.00018999999999999998,2e-05,4e-05,0.00011999999999999999,0.00065,0.0003,-5.9999999999999995e-05,1e-05,3
10274,10805,-0.00018999999999999998,2e-05,4e-05,0.00011999999999999999,0.00065,0.0003,-5.9999999999999995e-05,1e-05,3
10275,10806,-0.00018999999999999998,2e-05,4e-05,0.00011999999999999999,0.00065,0.0003,-5.9999999999999995e-05,1e-05,3
10276,10807,-0.00018999999999999998,2e-05,4e-05,0.00011999999999999999,0.00065,0.0003,-5.9999999999999995e-05,1e-05,3
10277,10808,-0.00018999999999999998,2e-05,4e-05,0.00011999999999999999,0.00065,0.0003,-5.9999999999999995e-05,1e-05,3
10278,10809,-0.00018999999999999998,2e-05,4e-05,0.00011999999999999999,0.00065,0.0003,-5.9999999999999995e-05,1e-05,3
10279,10810,-0.00018999999999999998,2e-05,4e-05,0.00011999999999999999,0.00065,0.0003,-5.9999999999999995e-05,1e-05,3
10280,10811,-0.00018999999999999998,2e-05,4e-05,0.00011999999999999999,0.00065,0.0003,-5.9999999999999995e-05,1e-05,3
10281,10812,-0.00018999999999999998,2e-05,4e-05,0.00011999999999999999,0.00065,0.0003,-5.9999999999999995e-05,1e-05,3
10282,10813,-0.00018999999999999998,2e-05,4e-05,0.00011999999999999999,0.00065,0.0003,-5.9999999999999995e-05,1e-05,3
10283,10814,-0.00018999999999999998,2e-05,4e-05,0.00011999999999999999,0.00065,0.0003,-5.9999999999999995e-05,1e-05,3
10284,10815,-0.00018999999999999998,2e-05,4e-05,0.00011999999999999999,0.00065,0.0003,-5.9999999999999995e-05,1e-05,3
10285,10816,-0.00018999999999999998,2e-05,4e-05,0.00011999999999999999,0.00065,0.0003,-5.9999999999999995e-05,1e-05,3
10286,10817,-0.00018999999999999998,2e-05,4e-05,0.00011999999999999999,0.00065,0.0003,-5.9999999999999995e-05,1e-05,3
10287,10818,-0.00018999999999999998,2e-05,4e-05,0.00011999999999999999,0.00065,0.0003,-5.9999999999999995e-05,1e-05,3
10288,10819,-0.00018999999999999998,2e-05,4e-05,0.00011999999999999999,0.00065,0.0003,-5.9999999999999995e-05,1e-05,3
10289,10820,-0.00018999999999999998,2e-05,4e-05,0.00011999999999999999,0.00065,0.0003,-5.9999999999999995e-05,1e-05,3
10290,10821,-0.00018999999999999998,2e-05,4e-05,0.00011999999999999999,0.00065,0.0003,-5.9999999999999995e-05,1e-05,3
10291,10822,-0.00018999999999999998,2e-05,4e-05,0.00011999999999999999,0.00065,0.0003,-5.9999999999999995e-05,1e-05,3
10292,10823,0.00037,0.0,0.0,1e-05,-0.00015,0.00015,8e-05,4e-05,3
10293,10824,-0.00029,-4e-05,1e-05,-2.9999999999999997e-05,-4e-05,-5.9999999999999995e-05,2.9999999999999997e-05,-2.9999999999999997e-05,3
10294,10825,8e-05,0.0,2.9999999999999997e-05,5e-05,7e-05,8e-05,-4e-05,0.0,3
10295,10826,8e-05,0.0,2.9999999999999997e-05,5e-05,7e-05,8e-05,-4e-05,0.0,3
10296,10827,8e-05,0.0,2.9999999999999997e-05,5e-05,7e-05,8e-05,-4e-05,0.0,3
10297,10828,8e-05,0.0,2.9999999999999997e-05,5e-05,7e-05,8e-05,-4e-05,0.0,3
10298,10829,8e-05,0.0,2.9999999999999997e-05,5e-05,7e-05,8e-05,-4e-05,0.0,3
10299,10830,8e-05,0.0,2.9999999999999997e-05,5e-05,7e-05,8e-05,-4e-05,0.0,3
10300,10831,8e-05,0.0,2.9999999999999997e-05,5e-05,7e-05,8e-05,-4e-05,0.0,3
10301,10832,8e-05,0.0,2.9999999999999997e-05,5e-05,7e-05,8e-05,-4e-05,0.0,3
10302,10833,8e-05,0.0,2.9999999999999997e-05,5e-05,7e-05,8e-05,-4e-05,0.0,3
10303,10834,8e-05,0.0,2.9999999999999997e-05,5e-05,7e-05,8e-05,-4e-05,0.0,3
10304,10835,8e-05,0.0,2.9999999999999997e-05,5e-05,7e-05,8e-05,-4e-05,0.0,3
10305,10837,0.00011999999999999999,-5.9999999999999995e-05,-2e-05,1e-05,-0.00018,-5.9999999999999995e-05,-1e-05,2e-05,3
10306,10839,0.00011999999999999999,-5.9999999999999995e-05,-2e-05,1e-05,-0.00018,-5.9999999999999995e-05,-1e-05,2e-05,3
10307,10840,0.00011999999999999999,-5.9999999999999995e-05,-2e-05,1e-05,-0.00018,-5.9999999999999995e-05,-1e-05,2e-05,3
10308,10841,0.00011999999999999999,-5.9999999999999995e-05,-2e-05,1e-05,-0.00018,-5.9999999999999995e-05,-1e-05,2e-05,3
10309,10842,0.00011999999999999999,-5.9999999999999995e-05,-2e-05,1e-05,-0.00018,-5.9999999999999995e-05,-1e-05,2e-05,3
10310,10843,0.00011999999999999999,-5.9999999999999995e-05,-2e-05,1e-05,-0.00018,-5.9999999999999995e-05,-1e-05,2e-05,3
10311,10844,0.00011999999999999999,-5.9999999999999995e-05,-2e-05,1e-05,-0.00018,-5.9999999999999995e-05,-1e-05,2e-05,3
10312,10845,0.00032,0.00013000000000000002,4e-05,8e-05,0.00045999999999999996,-0.00021,1e-05,4e-05,3
10313,10846,0.00032,0.00013000000000000002,4e-05,8e-05,0.00045999999999999996,-0.00021,1e-05,4e-05,3
10314,10847,0.00032,0.00013000000000000002,4e-05,8e-05,0.00045999999999999996,-0.00021,1e-05,4e-05,3
10315,10848,0.00032,0.00013000000000000002,4e-05,8e-05,0.00045999999999999996,-0.00021,1e-05,4e-05,3
10316,10849,0.00032,0.00013000000000000002,4e-05,8e-05,0.00045999999999999996,-0.00021,1e-05,4e-05,3
10317,10850,0.00032,0.00013000000000000002,4e-05,8e-05,0.00045999999999999996,-0.00021,1e-05,4e-05,3
10318,10851,0.00032,0.00013000000000000002,4e-05,8e-05,0.00045999999999999996,-0.00021,1e-05,4e-05,3
10319,10852,0.00032,0.00013000000000000002,4e-05,8e-05,0.00045999999999999996,-0.00021,1e-05,4e-05,3
10320,10853,0.00032,0.00013000000000000002,4e-05,8e-05,0.00045999999999999996,-0.00021,1e-05,4e-05,3
10321,10854,0.00032,0.00013000000000000002,4e-05,8e-05,0.00045999999999999996,-0.00021,1e-05,4e-05,3
10322,10855,0.00032,0.00013000000000000002,4e-05,8e-05,0.00045999999999999996,-0.00021,1e-05,4e-05,3
10323,10856,0.00032,0.00013000000000000002,4e-05,8e-05,0.00045999999999999996,-0.00021,1e-05,4e-05,3
10324,10857,0.00032,0.00013000000000000002,4e-05,8e-05,0.00045999999999999996,-0.00021,1e-05,4e-05,3
10325,10858,0.00032,0.00013000000000000002,4e-05,8e-05,0.00045999999999999996,-0.00021,1e-05,4e-05,3
10326,10859,0.00032,0.00013000000000000002,4e-05,8e-05,0.00045999999999999996,-0.00021,1e-05,4e-05,3
10327,10860,-0.00016,-7e-05,1e-05,-0.00039,0.00022999999999999998,9e-05,2e-05,-2e-05,3
10328,10861,-0.00016,-7e-05,1e-05,-0.00039,0.00022999999999999998,9e-05,2e-05,-2e-05,3
10329,10862,-9e-05,0.0,-2e-05,-0.0002,-0.00043,-5e-05,-8e-05,-5e-05,3
10330,10863,-9e-05,0.0,-2e-05,-0.0002,-0.00043,-5e-05,-8e-05,-5e-05,3
10331,10864,-9e-05,0.0,-2e-05,-0.0002,-0.00043,-5e-05,-8e-05,-5e-05,3
10332,10865,-9e-05,0.0,-2e-05,-0.0002,-0.00043,-5e-05,-8e-05,-5e-05,3
10333,10866,-9e-05,0.0,-2e-05,-0.0002,-0.00043,-5e-05,-8e-05,-5e-05,3
10334,10867,-9e-05,0.0,-2e-05,-0.0002,-0.00043,-5e-05,-8e-05,-5e-05,3
10335,10868,-9e-05,0.0,-2e-05,-0.0002,-0.00043,-5e-05,-8e-05,-5e-05,3
10336,10869,-9e-05,0.0,-2e-05,-0.0002,-0.00043,-5e-05,-8e-05,-5e-05,3
10337,10870,-9e-05,0.0,-2e-05,-0.0002,-0.00043,-5e-05,-8e-05,-5e-05,3
10338,10871,-9e-05,0.0,-2e-05,-0.0002,-0.00043,-5e-05,-8e-05,-5e-05,3
10339,10872,-9e-05,0.0,-2e-05,-0.0002,-0.00043,-5e-05,-8e-05,-5e-05,3
10340,10873,-9e-05,0.0,-2e-05,-0.0002,-0.00043,-5e-05,-8e-05,-5e-05,3
10341,10874,-9e-05,0.0,-2e-05,-0.0002,-0.00043,-5e-05,-8e-05,-5e-05,3
10342,10875,-9e-05,0.0,-2e-05,-0.0002,-0.00043,-5e-05,-8e-05,-5e-05,3
10343,10876,-9e-05,0.0,-2e-05,-0.0002,-0.00043,-5e-05,-8e-05,-5e-05,3
10344,10877,-9e-05,0.0,-2e-05,-0.0002,-0.00043,-5e-05,-8e-05,-5e-05,3
10345,10878,-9e-05,0.0,-2e-05,-0.0002,-0.00043,-5e-05,-8e-05,-5e-05,3
10346,10879,-9e-05,0.0,-2e-05,-0.0002,-0.00043,-5e-05,-8e-05,-5e-05,3
10347,10880,-9e-05,0.0,-2e-05,-0.0002,-0.00043,-5e-05,-8e-05,-5e-05,3
10348,10881,-9e-05,0.0,-2e-05,-0.0002,-0.00043,-5e-05,-8e-05,-5e-05,3
10349,10882,-9e-05,0.0,-2e-05,-0.0002,-0.00043,-5e-05,-8e-05,-5e-05,3
10350,10883,0.00011,2.9999999999999997e-05,-9e-05,-0.00025,0.00018999999999999998,0.0,4e-05,5e-05,3
10351,10884,-5.9999999999999995e-05,-5e-05,5.9999999999999995e-05,0.00022,-0.0005200000000000001,-0.00022,-8e-05,-4e-05,3
10352,10885,7e-05,-2.9999999999999997e-05,-1e-05,0.00022,0.00037,0.00022999999999999998,-2e-05,-2e-05,3
10353,10887,7e-05,-2.9999999999999997e-05,-1e-05,0.00022,0.00037,0.00022999999999999998,-2e-05,-2e-05,3
10354,10889,7e-05,-2.9999999999999997e-05,-1e-05,0.00022,0.00037,0.00022999999999999998,-2e-05,-2e-05,3
10355,10890,7e-05,-2.9999999999999997e-05,-1e-05,0.00022,0.00037,0.00022999999999999998,-2e-05,-2e-05,3
10356,10891,7e-05,-2.9999999999999997e-05,-1e-05,0.00022,0.00037,0.00022999999999999998,-2e-05,-2e-05,3
10357,10892,7e-05,-2.9999999999999997e-05,-1e-05,0.00022,0.00037,0.00022999999999999998,-2e-05,-2e-05,3
10358,10893,7e-05,-2.9999999999999997e-05,-1e-05,0.00022,0.00037,0.00022999999999999998,-2e-05,-2e-05,3
10359,10894,7e-05,-2.9999999999999997e-05,-1e-05,0.00022,0.00037,0.00022999999999999998,-2e-05,-2e-05,3
10360,10895,7e-05,-2.9999999999999997e-05,-1e-05,0.00022,0.00037,0.00022999999999999998,-2e-05,-2e-05,3
10361,10896,0.00013000000000000002,2e-05,5e-05,-1e-05,0.00018,0.00018,0.00011999999999999999,5.9999999999999995e-05,3
10362,10897,-4e-05,4e-05,1e-05,-9e-05,-7e-05,8e-05,1e-05,1e-05,3
10363,10898,-4e-05,4e-05,1e-05,-9e-05,-7e-05,8e-05,1e-05,1e-05,3
10364,10899,-4e-05,4e-05,1e-05,-9e-05,-7e-05,8e-05,1e-05,1e-05,3
10365,10900,-4e-05,4e-05,1e-05,-9e-05,-7e-05,8e-05,1e-05,1e-05,3
10366,10901,-4e-05,4e-05,1e-05,-9e-05,-7e-05,8e-05,1e-05,1e-05,3
10367,10902,-4e-05,4e-05,1e-05,-9e-05,-7e-05,8e-05,1e-05,1e-05,3
10368,10903,-4e-05,4e-05,1e-05,-9e-05,-7e-05,8e-05,1e-05,1e-05,3
10369,10904,-4e-05,4e-05,1e-05,-9e-05,-7e-05,8e-05,1e-05,1e-05,3
10370,10905,5.9999999999999995e-05,0.0,-5.9999999999999995e-05,7e-05,-0.00032,-2.9999999999999997e-05,9e-05,1e-05,3
10371,10906,5.9999999999999995e-05,0.0,-5.9999999999999995e-05,7e-05,-0.00032,-2.9999999999999997e-05,9e-05,1e-05,3
10372,10907,5.9999999999999995e-05,0.0,-5.9999999999999995e-05,7e-05,-0.00032,-2.9999999999999997e-05,9e-05,1e-05,3
10373,10908,5.9999999999999995e-05,0.0,-5.9999999999999995e-05,7e-05,-0.00032,-2.9999999999999997e-05,9e-05,1e-05,3
10374,10909,5.9999999999999995e-05,0.0,-5.9999999999999995e-05,7e-05,-0.00032,-2.9999999999999997e-05,9e-05,1e-05,3
10375,10910,5.9999999999999995e-05,0.0,-5.9999999999999995e-05,7e-05,-0.00032,-2.9999999999999997e-05,9e-05,1e-05,3
10376,10911,5.9999999999999995e-05,0.0,-5.9999999999999995e-05,7e-05,-0.00032,-2.9999999999999997e-05,9e-05,1e-05,3
10377,10912,5.9999999999999995e-05,0.0,-5.9999999999999995e-05,7e-05,-0.00032,-2.9999999999999997e-05,9e-05,1e-05,3
10378,10913,5.9999999999999995e-05,0.0,-5.9999999999999995e-05,7e-05,-0.00032,-2.9999999999999997e-05,9e-05,1e-05,3
10379,10914,5.9999999999999995e-05,0.0,-5.9999999999999995e-05,7e-05,-0.00032,-2.9999999999999997e-05,9e-05,1e-05,3
10380,10915,5.9999999999999995e-05,0.0,-5.9999999999999995e-05,7e-05,-0.00032,-2.9999999999999997e-05,9e-05,1e-05,3
10381,10916,5.9999999999999995e-05,0.0,-5.9999999999999995e-05,7e-05,-0.00032,-2.9999999999999997e-05,9e-05,1e-05,3
10382,10917,5.9999999999999995e-05,0.0,-5.9999999999999995e-05,7e-05,-0.00032,-2.9999999999999997e-05,9e-05,1e-05,3
10383,10918,5.9999999999999995e-05,0.0,-5.9999999999999995e-05,7e-05,-0.00032,-2.9999999999999997e-05,9e-05,1e-05,3
10384,10919,5.9999999999999995e-05,0.0,-5.9999999999999995e-05,7e-05,-0.00032,-2.9999999999999997e-05,9e-05,1e-05,3
10385,10920,-0.0002,-1e-05,5e-05,0.0002,0.00037999999999999997,0.00047000000000000004,1e-05,-5e-05,3
10386,10921,-0.0002,-1e-05,5e-05,0.0002,0.00037999999999999997,0.00047000000000000004,1e-05,-5e-05,3
10387,10922,0.00013000000000000002,-4e-05,-2e-05,-4e-05,2e-05,-0.0001,5.9999999999999995e-05,1e-05,3
10388,10923,0.00013000000000000002,-4e-05,-2e-05,-4e-05,2e-05,-0.0001,5.9999999999999995e-05,1e-05,3
10389,10924,0.00013000000000000002,-4e-05,-2e-05,-4e-05,2e-05,-0.0001,5.9999999999999995e-05,1e-05,3
10390,10925,0.00013000000000000002,-4e-05,-2e-05,-4e-05,2e-05,-0.0001,5.9999999999999995e-05,1e-05,3
10391,10926,0.00013000000000000002,-4e-05,-2e-05,-4e-05,2e-05,-0.0001,5.9999999999999995e-05,1e-05,3
10392,10927,0.00013000000000000002,-4e-05,-2e-05,-4e-05,2e-05,-0.0001,5.9999999999999995e-05,1e-05,3
10393,10928,0.00013000000000000002,-4e-05,-2e-05,-4e-05,2e-05,-0.0001,5.9999999999999995e-05,1e-05,3
10394,10929,0.00013000000000000002,-4e-05,-2e-05,-4e-05,2e-05,-0.0001,5.9999999999999995e-05,1e-05,3
10395,10930,0.00013000000000000002,-4e-05,-2e-05,-4e-05,2e-05,-0.0001,5.9999999999999995e-05,1e-05,3
10396,10931,0.00013000000000000002,-4e-05,-2e-05,-4e-05,2e-05,-0.0001,5.9999999999999995e-05,1e-05,3
10397,10932,0.00013000000000000002,-4e-05,-2e-05,-4e-05,2e-05,-0.0001,5.9999999999999995e-05,1e-05,3
10398,10933,0.00013000000000000002,-4e-05,-2e-05,-4e-05,2e-05,-0.0001,5.9999999999999995e-05,1e-05,3
10399,10934,0.00013000000000000002,-4e-05,-2e-05,-4e-05,2e-05,-0.0001,5.9999999999999995e-05,1e-05,3
10400,10935,0.00013000000000000002,-4e-05,-2e-05,-4e-05,2e-05,-0.0001,5.9999999999999995e-05,1e-05,3
10401,10937,0.00013000000000000002,-4e-05,-2e-05,-4e-05,2e-05,-0.0001,5.9999999999999995e-05,1e-05,3
10402,10940,0.00013000000000000002,-4e-05,-2e-05,-4e-05,2e-05,-0.0001,5.9999999999999995e-05,1e-05,3
10403,10941,0.00013000000000000002,-4e-05,-2e-05,-4e-05,2e-05,-0.0001,5.9999999999999995e-05,1e-05,3
10404,10942,0.00013000000000000002,-4e-05,-2e-05,-4e-05,2e-05,-0.0001,5.9999999999999995e-05,1e-05,3
10405,10943,0.00013000000000000002,-4e-05,-2e-05,-4e-05,2e-05,-0.0001,5.9999999999999995e-05,1e-05,3
10406,10944,0.00047000000000000004,4e-05,1e-05,5e-05,-0.00031,-0.0004,0.0001,1e-05,3
10407,10945,-0.00022999999999999998,-4e-05,2e-05,-4e-05,0.00043,0.00055,0.00026000000000000003,4e-05,3
10408,10946,-0.00022999999999999998,-4e-05,2e-05,-4e-05,0.00043,0.00055,0.00026000000000000003,4e-05,3
10409,10947,-0.00022999999999999998,-4e-05,2e-05,-4e-05,0.00043,0.00055,0.00026000000000000003,4e-05,3
10410,10948,-0.00022999999999999998,-4e-05,2e-05,-4e-05,0.00043,0.00055,0.00026000000000000003,4e-05,3
10411,10949,-0.00022999999999999998,-4e-05,2e-05,-4e-05,0.00043,0.00055,0.00026000000000000003,4e-05,3
10412,10950,-0.00022999999999999998,-4e-05,2e-05,-4e-05,0.00043,0.00055,0.00026000000000000003,4e-05,3
10413,10951,-0.00022999999999999998,-4e-05,2e-05,-4e-05,0.00043,0.00055,0.00026000000000000003,4e-05,3
10414,10952,-0.00022999999999999998,-4e-05,2e-05,-4e-05,0.00043,0.00055,0.00026000000000000003,4e-05,3
10415,10953,-0.00022999999999999998,-4e-05,2e-05,-4e-05,0.00043,0.00055,0.00026000000000000003,4e-05,3
10416,10954,-0.00022999999999999998,-4e-05,2e-05,-4e-05,0.00043,0.00055,0.00026000000000000003,4e-05,3
10417,10955,-0.00022999999999999998,-4e-05,2e-05,-4e-05,0.00043,0.00055,0.00026000000000000003,4e-05,3
10418,10956,-0.00022999999999999998,-4e-05,2e-05,-4e-05,0.00043,0.00055,0.00026000000000000003,4e-05,3
10419,10957,0.00025,4e-05,0.0,0.00014,-2.9999999999999997e-05,-2.9999999999999997e-05,4e-05,-1e-05,3
10420,10958,0.00025,4e-05,0.0,0.00014,-2.9999999999999997e-05,-2.9999999999999997e-05,4e-05,-1e-05,3
10421,10959,0.00025,4e-05,0.0,0.00014,-2.9999999999999997e-05,-2.9999999999999997e-05,4e-05,-1e-05,3
10422,10960,0.00025,4e-05,0.0,0.00014,-2.9999999999999997e-05,-2.9999999999999997e-05,4e-05,-1e-05,3
10423,10961,0.00025,4e-05,0.0,0.00014,-2.9999999999999997e-05,-2.9999999999999997e-05,4e-05,-1e-05,3
10424,10962,0.00025,4e-05,0.0,0.00014,-2.9999999999999997e-05,-2.9999999999999997e-05,4e-05,-1e-05,3
10425,10963,0.00025,4e-05,0.0,0.00014,-2.9999999999999997e-05,-2.9999999999999997e-05,4e-05,-1e-05,3
10426,10964,0.00025,4e-05,0.0,0.00014,-2.9999999999999997e-05,-2.9999999999999997e-05,4e-05,-1e-05,3
10427,10965,5e-05,1e-05,1e-05,1e-05,-2.9999999999999997e-05,-4e-05,2.9999999999999997e-05,0.0,3
10428,10966,5e-05,1e-05,1e-05,1e-05,-2.9999999999999997e-05,-4e-05,2.9999999999999997e-05,0.0,3
10429,10967,5e-05,1e-05,1e-05,1e-05,-2.9999999999999997e-05,-4e-05,2.9999999999999997e-05,0.0,3
10430,10968,5e-05,1e-05,1e-05,1e-05,-2.9999999999999997e-05,-4e-05,2.9999999999999997e-05,0.0,3
10431,10969,5e-05,1e-05,1e-05,1e-05,-2.9999999999999997e-05,-4e-05,2.9999999999999997e-05,0.0,3
10432,10970,5e-05,1e-05,1e-05,1e-05,-2.9999999999999997e-05,-4e-05,2.9999999999999997e-05,0.0,3
10433,10971,5e-05,1e-05,1e-05,1e-05,-2.9999999999999997e-05,-4e-05,2.9999999999999997e-05,0.0,3
10434,10972,5e-05,1e-05,1e-05,1e-05,-2.9999999999999997e-05,-4e-05,2.9999999999999997e-05,0.0,3
10435,10973,5e-05,1e-05,1e-05,1e-05,-2.9999999999999997e-05,-4e-05,2.9999999999999997e-05,0.0,3
10436,10974,5e-05,1e-05,1e-05,1e-05,-2.9999999999999997e-05,-4e-05,2.9999999999999997e-05,0.0,3
10437,10975,5e-05,1e-05,1e-05,1e-05,-2.9999999999999997e-05,-4e-05,2.9999999999999997e-05,0.0,3
10438,10976,5e-05,1e-05,1e-05,1e-05,-2.9999999999999997e-05,-4e-05,2.9999999999999997e-05,0.0,3
10439,10977,5e-05,1e-05,1e-05,1e-05,-2.9999999999999997e-05,-4e-05,2.9999999999999997e-05,0.0,3
10440,10978,5e-05,1e-05,1e-05,1e-05,-2.9999999999999997e-05,-4e-05,2.9999999999999997e-05,0.0,3
10441,10979,5e-05,1e-05,1e-05,1e-05,-2.9999999999999997e-05,-4e-05,2.9999999999999997e-05,0.0,3
10442,10980,-0.00057,-2.9999999999999997e-05,-2e-05,9e-05,0.00011999999999999999,-5e-05,-0.0001,-7e-05,3
10443,10981,-0.00057,-2.9999999999999997e-05,-2e-05,9e-05,0.00011999999999999999,-5e-05,-0.0001,-7e-05,3
10444,10982,-0.00015,-5e-05,-2e-05,-0.00016999999999999999,-0.00025,-0.0001,-7e-05,1e-05,3
10445,10983,-0.00015,-5e-05,-2e-05,-0.00016999999999999999,-0.00025,-0.0001,-7e-05,1e-05,3
10446,10984,-0.00015,-5e-05,-2e-05,-0.00016999999999999999,-0.00025,-0.0001,-7e-05,1e-05,3
10447,10985,-0.00015,-5e-05,-2e-05,-0.00016999999999999999,-0.00025,-0.0001,-7e-05,1e-05,3
10448,10987,-0.00015,-5e-05,-2e-05,-0.00016999999999999999,-0.00025,-0.0001,-7e-05,1e-05,3
10449,10989,-0.00015,-5e-05,-2e-05,-0.00016999999999999999,-0.00025,-0.0001,-7e-05,1e-05,3
10450,10990,-0.00015,-5e-05,-2e-05,-0.00016999999999999999,-0.00025,-0.0001,-7e-05,1e-05,3
10451,10991,-0.00015,-5e-05,-2e-05,-0.00016999999999999999,-0.00025,-0.0001,-7e-05,1e-05,3
10452,10992,-0.00015,-5e-05,-2e-05,-0.00016999999999999999,-0.00025,-0.0001,-7e-05,1e-05,3
10453,10993,-0.00015,-5e-05,-2e-05,-0.00016999999999999999,-0.00025,-0.0001,-7e-05,1e-05,3
10454,10994,-0.00015,-5e-05,-2e-05,-0.00016999999999999999,-0.00025,-0.0001,-7e-05,1e-05,3
10455,10995,-0.00015,-5e-05,-2e-05,-0.00016999999999999999,-0.00025,-0.0001,-7e-05,1e-05,3
10456,10996,-0.00015,-5e-05,-2e-05,-0.00016999999999999999,-0.00025,-0.0001,-7e-05,1e-05,3
10457,10997,-0.00015,-5e-05,-2e-05,-0.00016999999999999999,-0.00025,-0.0001,-7e-05,1e-05,3
10458,10998,-0.00015,-5e-05,-2e-05,-0.00016999999999999999,-0.00025,-0.0001,-7e-05,1e-05,3
10459,10999,-0.00015,-5e-05,-2e-05,-0.00016999999999999999,-0.00025,-0.0001,-7e-05,1e-05,3
10460,11000,-0.00015,-5e-05,-2e-05,-0.00016999999999999999,-0.00025,-0.0001,-7e-05,1e-05,3
10461,11001,-0.00015,-5e-05,-2e-05,-0.00016999999999999999,-0.00025,-0.0001,-7e-05,1e-05,3
10462,11002,-0.00015,-5e-05,-2e-05,-0.00016999999999999999,-0.00025,-0.0001,-7e-05,1e-05,3
10463,11003,-7e-05,-1e-05,0.0,-0.0001,0.00027,2.9999999999999997e-05,-8e-05,-1e-05,3
10464,11004,8e-05,1e-05,-5e-05,-1e-05,-0.00013000000000000002,0.0,5.9999999999999995e-05,0.0,3
10465,11005,0.00026000000000000003,2e-05,5e-05,0.0,-0.00031,-0.00031,-0.00011,5e-05,3
10466,11006,0.00026000000000000003,2e-05,5e-05,0.0,-0.00031,-0.00031,-0.00011,5e-05,3
10467,11007,0.00026000000000000003,2e-05,5e-05,0.0,-0.00031,-0.00031,-0.00011,5e-05,3
10468,11008,0.00026000000000000003,2e-05,5e-05,0.0,-0.00031,-0.00031,-0.00011,5e-05,3
10469,11009,0.00026000000000000003,2e-05,5e-05,0.0,-0.00031,-0.00031,-0.00011,5e-05,3
10470,11010,0.00026000000000000003,2e-05,5e-05,0.0,-0.00031,-0.00031,-0.00011,5e-05,3
10471,11011,0.00026000000000000003,2e-05,5e-05,0.0,-0.00031,-0.00031,-0.00011,5e-05,3
10472,11012,0.00026000000000000003,2e-05,5e-05,0.0,-0.00031,-0.00031,-0.00011,5e-05,3
10473,11013,0.00026000000000000003,2e-05,5e-05,0.0,-0.00031,-0.00031,-0.00011,5e-05,3
10474,11014,0.00026000000000000003,2e-05,5e-05,0.0,-0.00031,-0.00031,-0.00011,5e-05,3
10475,11015,0.00026000000000000003,2e-05,5e-05,0.0,-0.00031,-0.00031,-0.00011,5e-05,3
10476,11016,8e-05,-5e-05,-4e-05,5.9999999999999995e-05,-0.00031,-0.00033,-0.00011,-4e-05,3
10477,11017,8e-05,-5e-05,-4e-05,5.9999999999999995e-05,-0.00031,-0.00033,-0.00011,-4e-05,3
10478,11018,8e-05,-5e-05,-4e-05,5.9999999999999995e-05,-0.00031,-0.00033,-0.00011,-4e-05,3
10479,11019,8e-05,-5e-05,-4e-05,5.9999999999999995e-05,-0.00031,-0.00033,-0.00011,-4e-05,3
10480,11020,8e-05,-5e-05,-4e-05,5.9999999999999995e-05,-0.00031,-0.00033,-0.00011,-4e-05,3
10481,11021,8e-05,-5e-05,-4e-05,5.9999999999999995e-05,-0.00031,-0.00033,-0.00011,-4e-05,3
10482,11022,8e-05,-5e-05,-4e-05,5.9999999999999995e-05,-0.00031,-0.00033,-0.00011,-4e-05,3
10483,11023,8e-05,-5e-05,-4e-05,5.9999999999999995e-05,-0.00031,-0.00033,-0.00011,-4e-05,3
10484,11024,8e-05,-5e-05,-4e-05,5.9999999999999995e-05,-0.00031,-0.00033,-0.00011,-4e-05,3
10485,11025,-0.00013000000000000002,0.00022,0.0,-2e-05,0.00031,0.00044,7e-05,2.9999999999999997e-05,3
10486,11026,5e-05,-0.00015,0.00013000000000000002,-0.0001,-0.0001,-2.9999999999999997e-05,-4e-05,-2.9999999999999997e-05,3
10487,11027,5e-05,-0.00015,0.00013000000000000002,-0.0001,-0.0001,-2.9999999999999997e-05,-4e-05,-2.9999999999999997e-05,3
10488,11028,5e-05,-0.00015,0.00013000000000000002,-0.0001,-0.0001,-2.9999999999999997e-05,-4e-05,-2.9999999999999997e-05,3
10489,11029,5e-05,-0.00015,0.00013000000000000002,-0.0001,-0.0001,-2.9999999999999997e-05,-4e-05,-2.9999999999999997e-05,3
10490,11030,5e-05,-0.00015,0.00013000000000000002,-0.0001,-0.0001,-2.9999999999999997e-05,-4e-05,-2.9999999999999997e-05,3
10491,11031,5e-05,-0.00015,0.00013000000000000002,-0.0001,-0.0001,-2.9999999999999997e-05,-4e-05,-2.9999999999999997e-05,3
10492,11032,5e-05,-0.00015,0.00013000000000000002,-0.0001,-0.0001,-2.9999999999999997e-05,-4e-05,-2.9999999999999997e-05,3
10493,11033,5e-05,-0.00015,0.00013000000000000002,-0.0001,-0.0001,-2.9999999999999997e-05,-4e-05,-2.9999999999999997e-05,3
10494,11034,5e-05,-0.00015,0.00013000000000000002,-0.0001,-0.0001,-2.9999999999999997e-05,-4e-05,-2.9999999999999997e-05,3
10495,11035,5e-05,-0.00015,0.00013000000000000002,-0.0001,-0.0001,-2.9999999999999997e-05,-4e-05,-2.9999999999999997e-05,3
10496,11037,5e-05,-0.00015,0.00013000000000000002,-0.0001,-0.0001,-2.9999999999999997e-05,-4e-05,-2.9999999999999997e-05,3
10497,11039,5e-05,-0.00015,0.00013000000000000002,-0.0001,-0.0001,-2.9999999999999997e-05,-4e-05,-2.9999999999999997e-05,3
10498,11040,5.9999999999999995e-05,-0.00013000000000000002,-5.9999999999999995e-05,0.00011,0.00082,0.00021,4e-05,-1e-05,3
10499,11041,5.9999999999999995e-05,-0.00013000000000000002,-5.9999999999999995e-05,0.00011,0.00082,0.00021,4e-05,-1e-05,3
10500,11042,-2e-05,9e-05,1e-05,0.00011,0.00032,7e-05,-0.00011,-1e-05,3
10501,11043,-2e-05,9e-05,1e-05,0.00011,0.00032,7e-05,-0.00011,-1e-05,3
10502,11044,-2e-05,9e-05,1e-05,0.00011,0.00032,7e-05,-0.00011,-1e-05,3
10503,11045,-2e-05,9e-05,1e-05,0.00011,0.00032,7e-05,-0.00011,-1e-05,3
10504,11046,-2e-05,9e-05,1e-05,0.00011,0.00032,7e-05,-0.00011,-1e-05,3
10505,11047,-2e-05,9e-05,1e-05,0.00011,0.00032,7e-05,-0.00011,-1e-05,3
10506,11048,-2e-05,9e-05,1e-05,0.00011,0.00032,7e-05,-0.00011,-1e-05,3
10507,11049,-2e-05,9e-05,1e-05,0.00011,0.00032,7e-05,-0.00011,-1e-05,3
10508,11050,-2e-05,9e-05,1e-05,0.00011,0.00032,7e-05,-0.00011,-1e-05,3
10509,11051,-2e-05,9e-05,1e-05,0.00011,0.00032,7e-05,-0.00011,-1e-05,3
10510,11052,-2e-05,9e-05,1e-05,0.00011,0.00032,7e-05,-0.00011,-1e-05,3
10511,11053,-2e-05,9e-05,1e-05,0.00011,0.00032,7e-05,-0.00011,-1e-05,3
10512,11054,-2e-05,9e-05,1e-05,0.00011,0.00032,7e-05,-0.00011,-1e-05,3
10513,11055,-2e-05,9e-05,1e-05,0.00011,0.00032,7e-05,-0.00011,-1e-05,3
10514,11056,-2e-05,9e-05,1e-05,0.00011,0.00032,7e-05,-0.00011,-1e-05,3
10515,11057,-2e-05,9e-05,1e-05,0.00011,0.00032,7e-05,-0.00011,-1e-05,3
10516,11058,-2e-05,9e-05,1e-05,0.00011,0.00032,7e-05,-0.00011,-1e-05,3
10517,11059,-2e-05,9e-05,1e-05,0.00011,0.00032,7e-05,-0.00011,-1e-05,3
10518,11060,-2e-05,9e-05,1e-05,0.00011,0.00032,7e-05,-0.00011,-1e-05,3
10519,11061,-2e-05,9e-05,1e-05,0.00011,0.00032,7e-05,-0.00011,-1e-05,3
10520,11062,-2e-05,9e-05,1e-05,0.00011,0.00032,7e-05,-0.00011,-1e-05,3
10521,11063,-2e-05,-4e-05,-1e-05,-1e-05,-0.00029,-0.00018,-8e-05,-2.9999999999999997e-05,3
10522,11064,0.0005099999999999999,0.0,-5e-05,2.9999999999999997e-05,0.00021,-0.00018,5e-05,1e-05,3
10523,11065,0.0002,0.00013000000000000002,9e-05,5e-05,1e-05,0.00011,-1e-05,-2e-05,3
10524,11066,0.0002,0.00013000000000000002,9e-05,5e-05,1e-05,0.00011,-1e-05,-2e-05,3
10525,11067,0.0002,0.00013000000000000002,9e-05,5e-05,1e-05,0.00011,-1e-05,-2e-05,3
10526,11068,0.0002,0.00013000000000000002,9e-05,5e-05,1e-05,0.00011,-1e-05,-2e-05,3
10527,11069,0.0002,0.00013000000000000002,9e-05,5e-05,1e-05,0.00011,-1e-05,-2e-05,3
10528,11070,0.0002,0.00013000000000000002,9e-05,5e-05,1e-05,0.00011,-1e-05,-2e-05,3
10529,11071,0.0002,0.00013000000000000002,9e-05,5e-05,1e-05,0.00011,-1e-05,-2e-05,3
10530,11072,0.0002,0.00013000000000000002,9e-05,5e-05,1e-05,0.00011,-1e-05,-2e-05,3
10531,11073,0.0002,0.00013000000000000002,9e-05,5e-05,1e-05,0.00011,-1e-05,-2e-05,3
10532,11074,0.0002,0.00013000000000000002,9e-05,5e-05,1e-05,0.00011,-1e-05,-2e-05,3
10533,11075,0.0002,0.00013000000000000002,9e-05,5e-05,1e-05,0.00011,-1e-05,-2e-05,3
10534,11076,-0.00016,-0.00014,-8e-05,0.0,0.00011,2e-05,2e-05,-4e-05,3
10535,11077,-8e-05,2e-05,-0.00011,-2.9999999999999997e-05,-0.00037999999999999997,-0.00029,-0.00018999999999999998,-2e-05,3
10536,11078,-8e-05,2e-05,-0.00011,-2.9999999999999997e-05,-0.00037999999999999997,-0.00029,-0.00018999999999999998,-2e-05,3
10537,11079,-8e-05,2e-05,-0.00011,-2.9999999999999997e-05,-0.00037999999999999997,-0.00029,-0.00018999999999999998,-2e-05,3
10538,11080,-8e-05,2e-05,-0.00011,-2.9999999999999997e-05,-0.00037999999999999997,-0.00029,-0.00018999999999999998,-2e-05,3
10539,11081,-8e-05,2e-05,-0.00011,-2.9999999999999997e-05,-0.00037999999999999997,-0.00029,-0.00018999999999999998,-2e-05,3
10540,11082,-8e-05,2e-05,-0.00011,-2.9999999999999997e-05,-0.00037999999999999997,-0.00029,-0.00018999999999999998,-2e-05,3
10541,11083,-8e-05,2e-05,-0.00011,-2.9999999999999997e-05,-0.00037999999999999997,-0.00029,-0.00018999999999999998,-2e-05,3
10542,11084,-8e-05,2e-05,-0.00011,-2.9999999999999997e-05,-0.00037999999999999997,-0.00029,-0.00018999999999999998,-2e-05,3
10543,11085,7e-05,-4e-05,1e-05,-0.00011999999999999999,-0.00028,-0.0004,5.9999999999999995e-05,0.0,3
10544,11087,4e-05,5.9999999999999995e-05,0.0,0.00011,0.0002,0.00062,0.00013000000000000002,5e-05,3
10545,11089,4e-05,5.9999999999999995e-05,0.0,0.00011,0.0002,0.00062,0.00013000000000000002,5e-05,3
10546,11090,4e-05,5.9999999999999995e-05,0.0,0.00011,0.0002,0.00062,0.00013000000000000002,5e-05,3
10547,11091,4e-05,5.9999999999999995e-05,0.0,0.00011,0.0002,0.00062,0.00013000000000000002,5e-05,3
10548,11092,4e-05,5.9999999999999995e-05,0.0,0.00011,0.0002,0.00062,0.00013000000000000002,5e-05,3
10549,11093,4e-05,5.9999999999999995e-05,0.0,0.00011,0.0002,0.00062,0.00013000000000000002,5e-05,3
10550,11094,4e-05,5.9999999999999995e-05,0.0,0.00011,0.0002,0.00062,0.00013000000000000002,5e-05,3
10551,11095,4e-05,5.9999999999999995e-05,0.0,0.00011,0.0002,0.00062,0.00013000000000000002,5e-05,3
10552,11096,4e-05,5.9999999999999995e-05,0.0,0.00011,0.0002,0.00062,0.00013000000000000002,5e-05,3
10553,11097,4e-05,5.9999999999999995e-05,0.0,0.00011,0.0002,0.00062,0.00013000000000000002,5e-05,3
10554,11098,4e-05,5.9999999999999995e-05,0.0,0.00011,0.0002,0.00062,0.00013000000000000002,5e-05,3
10555,11099,4e-05,5.9999999999999995e-05,0.0,0.00011,0.0002,0.00062,0.00013000000000000002,5e-05,3
10556,11100,-5e-05,0.0,1e-05,-2e-05,5.9999999999999995e-05,9e-05,7e-05,-2e-05,3
10557,11101,-5e-05,0.0,1e-05,-2e-05,5.9999999999999995e-05,9e-05,7e-05,-2e-05,3
10558,11102,2e-05,-2e-05,-4e-05,1e-05,0.00039,9e-05,-5e-05,0.0,3
10559,11103,2e-05,-2e-05,-4e-05,1e-05,0.00039,9e-05,-5e-05,0.0,3
10560,11104,2e-05,-2e-05,-4e-05,1e-05,0.00039,9e-05,-5e-05,0.0,3
10561,11105,2e-05,-2e-05,-4e-05,1e-05,0.00039,9e-05,-5e-05,0.0,3
10562,11106,2e-05,-2e-05,-4e-05,1e-05,0.00039,9e-05,-5e-05,0.0,3
10563,11107,2e-05,-2e-05,-4e-05,1e-05,0.00039,9e-05,-5e-05,0.0,3
10564,11108,2e-05,-2e-05,-4e-05,1e-05,0.00039,9e-05,-5e-05,0.0,3
10565,11109,2e-05,-2e-05,-4e-05,1e-05,0.00039,9e-05,-5e-05,0.0,3
10566,11110,2e-05,-2e-05,-4e-05,1e-05,0.00039,9e-05,-5e-05,0.0,3
10567,11111,2e-05,-2e-05,-4e-05,1e-05,0.00039,9e-05,-5e-05,0.0,3
10568,11112,2e-05,-2e-05,-4e-05,1e-05,0.00039,9e-05,-5e-05,0.0,3
10569,11113,2e-05,-2e-05,-4e-05,1e-05,0.00039,9e-05,-5e-05,0.0,3
10570,11114,2e-05,-2e-05,-4e-05,1e-05,0.00039,9e-05,-5e-05,0.0,3
10571,11115,2e-05,-2e-05,-4e-05,1e-05,0.00039,9e-05,-5e-05,0.0,3
10572,11116,2e-05,-2e-05,-4e-05,1e-05,0.00039,9e-05,-5e-05,0.0,3
10573,11117,2e-05,-2e-05,-4e-05,1e-05,0.00039,9e-05,-5e-05,0.0,3
10574,11118,2e-05,-2e-05,-4e-05,1e-05,0.00039,9e-05,-5e-05,0.0,3
10575,11119,2e-05,-2e-05,-4e-05,1e-05,0.00039,9e-05,-5e-05,0.0,3
10576,11120,2e-05,-2e-05,-4e-05,1e-05,0.00039,9e-05,-5e-05,0.0,3
10577,11121,2e-05,-2e-05,-4e-05,1e-05,0.00039,9e-05,-5e-05,0.0,3
10578,11122,2e-05,-2e-05,-4e-05,1e-05,0.00039,9e-05,-5e-05,0.0,3
10579,11123,-0.00027,0.0,5e-05,5e-05,2.9999999999999997e-05,-5.9999999999999995e-05,-2e-05,-2.9999999999999997e-05,3
10580,11124,5e-05,-8e-05,-2e-05,-0.00016999999999999999,-0.00031,5e-05,0.0,-2.9999999999999997e-05,3
10581,11125,-0.00032,2e-05,-4e-05,9e-05,0.00015,0.00011999999999999999,7e-05,-1e-05,3
10582,11126,-0.00032,2e-05,-4e-05,9e-05,0.00015,0.00011999999999999999,7e-05,-1e-05,3
10583,11127,-0.00032,2e-05,-4e-05,9e-05,0.00015,0.00011999999999999999,7e-05,-1e-05,3
10584,11128,-0.00032,2e-05,-4e-05,9e-05,0.00015,0.00011999999999999999,7e-05,-1e-05,3
10585,11129,-0.00032,2e-05,-4e-05,9e-05,0.00015,0.00011999999999999999,7e-05,-1e-05,3
10586,11130,-0.00032,2e-05,-4e-05,9e-05,0.00015,0.00011999999999999999,7e-05,-1e-05,3
10587,11131,-0.00032,2e-05,-4e-05,9e-05,0.00015,0.00011999999999999999,7e-05,-1e-05,3
10588,11132,-0.00032,2e-05,-4e-05,9e-05,0.00015,0.00011999999999999999,7e-05,-1e-05,3
10589,11133,-0.00032,2e-05,-4e-05,9e-05,0.00015,0.00011999999999999999,7e-05,-1e-05,3
10590,11134,-0.00032,2e-05,-4e-05,9e-05,0.00015,0.00011999999999999999,7e-05,-1e-05,3
10591,11135,-0.00032,2e-05,-4e-05,9e-05,0.00015,0.00011999999999999999,7e-05,-1e-05,3
10592,11137,0.00032,-8e-05,-8e-05,-0.00018999999999999998,-0.00047000000000000004,-0.0002,-5e-05,-2e-05,3
10593,11139,0.00032,-8e-05,-8e-05,-0.00018999999999999998,-0.00047000000000000004,-0.0002,-5e-05,-2e-05,3
10594,11140,0.00032,-8e-05,-8e-05,-0.00018999999999999998,-0.00047000000000000004,-0.0002,-5e-05,-2e-05,3
10595,11141,0.00032,-8e-05,-8e-05,-0.00018999999999999998,-0.00047000000000000004,-0.0002,-5e-05,-2e-05,3
10596,11142,0.00032,-8e-05,-8e-05,-0.00018999999999999998,-0.00047000000000000004,-0.0002,-5e-05,-2e-05,3
10597,11143,0.00032,-8e-05,-8e-05,-0.00018999999999999998,-0.00047000000000000004,-0.0002,-5e-05,-2e-05,3
10598,11144,0.00032,-8e-05,-8e-05,-0.00018999999999999998,-0.00047000000000000004,-0.0002,-5e-05,-2e-05,3
10599,11145,-1e-05,-5e-05,-5.9999999999999995e-05,-7e-05,-0.00058,-0.00045,4e-05,-5.9999999999999995e-05,3
10600,11146,-1e-05,-5e-05,-5.9999999999999995e-05,-7e-05,-0.00058,-0.00045,4e-05,-5.9999999999999995e-05,3
10601,11147,-1e-05,-5e-05,-5.9999999999999995e-05,-7e-05,-0.00058,-0.00045,4e-05,-5.9999999999999995e-05,3
10602,11148,-1e-05,-5e-05,-5.9999999999999995e-05,-7e-05,-0.00058,-0.00045,4e-05,-5.9999999999999995e-05,3
10603,11149,-1e-05,-5e-05,-5.9999999999999995e-05,-7e-05,-0.00058,-0.00045,4e-05,-5.9999999999999995e-05,3
10604,11150,-1e-05,-5e-05,-5.9999999999999995e-05,-7e-05,-0.00058,-0.00045,4e-05,-5.9999999999999995e-05,3
10605,11151,-1e-05,-5e-05,-5.9999999999999995e-05,-7e-05,-0.00058,-0.00045,4e-05,-5.9999999999999995e-05,3
10606,11152,-1e-05,-5e-05,-5.9999999999999995e-05,-7e-05,-0.00058,-0.00045,4e-05,-5.9999999999999995e-05,3
10607,11153,-1e-05,-5e-05,-5.9999999999999995e-05,-7e-05,-0.00058,-0.00045,4e-05,-5.9999999999999995e-05,3
10608,11154,-1e-05,-5e-05,-5.9999999999999995e-05,-7e-05,-0.00058,-0.00045,4e-05,-5.9999999999999995e-05,3
10609,11155,-1e-05,-5e-05,-5.9999999999999995e-05,-7e-05,-0.00058,-0.00045,4e-05,-5.9999999999999995e-05,3
10610,11156,-1e-05,-5e-05,-5.9999999999999995e-05,-7e-05,-0.00058,-0.00045,4e-05,-5.9999999999999995e-05,3
10611,11157,-1e-05,-5e-05,-5.9999999999999995e-05,-7e-05,-0.00058,-0.00045,4e-05,-5.9999999999999995e-05,3
10612,11158,-1e-05,-5e-05,-5.9999999999999995e-05,-7e-05,-0.00058,-0.00045,4e-05,-5.9999999999999995e-05,3
10613,11159,-1e-05,-5e-05,-5.9999999999999995e-05,-7e-05,-0.00058,-0.00045,4e-05,-5.9999999999999995e-05,3
10614,11160,0.0002,4e-05,2.9999999999999997e-05,4e-05,-9e-05,2e-05,9e-05,5.9999999999999995e-05,3
10615,11161,0.0002,4e-05,2.9999999999999997e-05,4e-05,-9e-05,2e-05,9e-05,5.9999999999999995e-05,3
10616,11162,4e-05,0.0,2.9999999999999997e-05,0.00016999999999999999,0.00062,0.0005,0.00014,4e-05,3
10617,11163,4e-05,0.0,2.9999999999999997e-05,0.00016999999999999999,0.00062,0.0005,0.00014,4e-05,3
10618,11164,4e-05,0.0,2.9999999999999997e-05,0.00016999999999999999,0.00062,0.0005,0.00014,4e-05,3
10619,11165,4e-05,0.0,2.9999999999999997e-05,0.00016999999999999999,0.00062,0.0005,0.00014,4e-05,3
10620,11166,4e-05,0.0,2.9999999999999997e-05,0.00016999999999999999,0.00062,0.0005,0.00014,4e-05,3
10621,11167,4e-05,0.0,2.9999999999999997e-05,0.00016999999999999999,0.00062,0.0005,0.00014,4e-05,3
10622,11168,4e-05,0.0,2.9999999999999997e-05,0.00016999999999999999,0.00062,0.0005,0.00014,4e-05,3
10623,11169,4e-05,0.0,2.9999999999999997e-05,0.00016999999999999999,0.00062,0.0005,0.00014,4e-05,3
10624,11170,4e-05,0.0,2.9999999999999997e-05,0.00016999999999999999,0.00062,0.0005,0.00014,4e-05,3
10625,11171,4e-05,0.0,2.9999999999999997e-05,0.00016999999999999999,0.00062,0.0005,0.00014,4e-05,3
10626,11172,4e-05,0.0,2.9999999999999997e-05,0.00016999999999999999,0.00062,0.0005,0.00014,4e-05,3
10627,11173,4e-05,0.0,2.9999999999999997e-05,0.00016999999999999999,0.00062,0.0005,0.00014,4e-05,3
10628,11174,4e-05,0.0,2.9999999999999997e-05,0.00016999999999999999,0.00062,0.0005,0.00014,4e-05,3
10629,11175,4e-05,0.0,2.9999999999999997e-05,0.00016999999999999999,0.00062,0.0005,0.00014,4e-05,3
10630,11176,4e-05,0.0,2.9999999999999997e-05,0.00016999999999999999,0.00062,0.0005,0.00014,4e-05,3
10631,11177,4e-05,0.0,2.9999999999999997e-05,0.00016999999999999999,0.00062,0.0005,0.00014,4e-05,3
10632,11178,4e-05,0.0,2.9999999999999997e-05,0.00016999999999999999,0.00062,0.0005,0.00014,4e-05,3
10633,11179,4e-05,0.0,2.9999999999999997e-05,0.00016999999999999999,0.00062,0.0005,0.00014,4e-05,3
10634,11180,4e-05,0.0,2.9999999999999997e-05,0.00016999999999999999,0.00062,0.0005,0.00014,4e-05,3
10635,11182,4e-05,0.0,2.9999999999999997e-05,0.00016999999999999999,0.00062,0.0005,0.00014,4e-05,3
10636,11183,4e-05,0.0,2.9999999999999997e-05,0.00016999999999999999,0.00062,0.0005,0.00014,4e-05,3
10637,11184,-7e-05,1e-05,-4e-05,-2.9999999999999997e-05,-0.00025,0.00016,-0.00014,-2.9999999999999997e-05,3
10638,11185,0.00037,-5e-05,-4e-05,-0.0001,-0.00021,-0.00011,-0.00016,-1e-05,3
10639,11187,0.00037,-5e-05,-4e-05,-0.0001,-0.00021,-0.00011,-0.00016,-1e-05,3
10640,11189,0.00037,-5e-05,-4e-05,-0.0001,-0.00021,-0.00011,-0.00016,-1e-05,3
10641,11190,0.00037,-5e-05,-4e-05,-0.0001,-0.00021,-0.00011,-0.00016,-1e-05,3
10642,11191,0.00037,-5e-05,-4e-05,-0.0001,-0.00021,-0.00011,-0.00016,-1e-05,3
10643,11192,0.00037,-5e-05,-4e-05,-0.0001,-0.00021,-0.00011,-0.00016,-1e-05,3
10644,11193,0.00037,-5e-05,-4e-05,-0.0001,-0.00021,-0.00011,-0.00016,-1e-05,3
10645,11194,0.00037,-5e-05,-4e-05,-0.0001,-0.00021,-0.00011,-0.00016,-1e-05,3
10646,11195,0.00037,-5e-05,-4e-05,-0.0001,-0.00021,-0.00011,-0.00016,-1e-05,3
10647,11196,-0.00018,-2.9999999999999997e-05,-5.9999999999999995e-05,-2e-05,2.9999999999999997e-05,-0.00011,5e-05,2.9999999999999997e-05,3
10648,11197,-0.00098,-0.0001,-2.9999999999999997e-05,-1e-05,-0.0002,-0.00027,-2.9999999999999997e-05,-0.00011,3
10649,11198,-0.00098,-0.0001,-2.9999999999999997e-05,-1e-05,-0.0002,-0.00027,-2.9999999999999997e-05,-0.00011,3
10650,11199,-0.00098,-0.0001,-2.9999999999999997e-05,-1e-05,-0.0002,-0.00027,-2.9999999999999997e-05,-0.00011,3
10651,11200,-0.00098,-0.0001,-2.9999999999999997e-05,-1e-05,-0.0002,-0.00027,-2.9999999999999997e-05,-0.00011,3
10652,11201,-0.00098,-0.0001,-2.9999999999999997e-05,-1e-05,-0.0002,-0.00027,-2.9999999999999997e-05,-0.00011,3
10653,11202,-0.00098,-0.0001,-2.9999999999999997e-05,-1e-05,-0.0002,-0.00027,-2.9999999999999997e-05,-0.00011,3
10654,11203,-0.00098,-0.0001,-2.9999999999999997e-05,-1e-05,-0.0002,-0.00027,-2.9999999999999997e-05,-0.00011,3
10655,11204,-0.00098,-0.0001,-2.9999999999999997e-05,-1e-05,-0.0002,-0.00027,-2.9999999999999997e-05,-0.00011,3
10656,11205,9e-05,-2e-05,-5.9999999999999995e-05,-0.00016999999999999999,-0.00021,-5.9999999999999995e-05,7e-05,1e-05,3
10657,11207,9e-05,-2e-05,-5.9999999999999995e-05,-0.00016999999999999999,-0.00021,-5.9999999999999995e-05,7e-05,1e-05,3
10658,11208,9e-05,-2e-05,-5.9999999999999995e-05,-0.00016999999999999999,-0.00021,-5.9999999999999995e-05,7e-05,1e-05,3
10659,11209,9e-05,-2e-05,-5.9999999999999995e-05,-0.00016999999999999999,-0.00021,-5.9999999999999995e-05,7e-05,1e-05,3
10660,11210,9e-05,-2e-05,-5.9999999999999995e-05,-0.00016999999999999999,-0.00021,-5.9999999999999995e-05,7e-05,1e-05,3
