,time,channel1,channel2,channel3,channel4,channel5,channel6,channel7,channel8,class
9052,9375,9e-05,-2e-05,2.9999999999999997e-05,-8e-05,-0.0001,-0.00013000000000000002,5.9999999999999995e-05,9e-05,3
9053,9376,9e-05,-2e-05,2.9999999999999997e-05,-8e-05,-0.0001,-0.00013000000000000002,5.9999999999999995e-05,9e-05,3
9054,9377,9e-05,-2e-05,2.9999999999999997e-05,-8e-05,-0.0001,-0.00013000000000000002,5.9999999999999995e-05,9e-05,3
9055,9378,9e-05,-2e-05,2.9999999999999997e-05,-8e-05,-0.0001,-0.00013000000000000002,5.9999999999999995e-05,9e-05,3
9056,9379,9e-05,-2e-05,2.9999999999999997e-05,-8e-05,-0.0001,-0.00013000000000000002,5.9999999999999995e-05,9e-05,3
9057,9380,9e-05,-2e-05,2.9999999999999997e-05,-8e-05,-0.0001,-0.00013000000000000002,5.9999999999999995e-05,9e-05,3
9058,9381,9e-05,-2e-05,2.9999999999999997e-05,-8e-05,-0.0001,-0.00013000000000000002,5.9999999999999995e-05,9e-05,3
9059,9382,9e-05,-2e-05,2.9999999999999997e-05,-8e-05,-0.0001,-0.00013000000000000002,5.9999999999999995e-05,9e-05,3
9060,9383,9e-05,-2e-05,2.9999999999999997e-05,-8e-05,-0.0001,-0.00013000000000000002,5.9999999999999995e-05,9e-05,3
9061,9384,9e-05,-2e-05,2.9999999999999997e-05,-8e-05,-0.0001,-0.00013000000000000002,5.9999999999999995e-05,9e-05,3
9062,9385,9e-05,-2e-05,2.9999999999999997e-05,-8e-05,-0.0001,-0.00013000000000000002,5.9999999999999995e-05,9e-05,3
9063,9386,9e-05,-2e-05,2.9999999999999997e-05,-8e-05,-0.0001,-0.00013000000000000002,5.9999999999999995e-05,9e-05,3
9064,9388,-0.00021,-0.00013000000000000002,0.0,5.9999999999999995e-05,0.00018999999999999998,-0.00022,-0.00027,-0.00011999999999999999,3
9065,9389,-0.00021,-0.00013000000000000002,0.0,5.9999999999999995e-05,0.00018999999999999998,-0.00022,-0.00027,-0.00011999999999999999,3
9066,9390,-0.00021,-0.00013000000000000002,0.0,5.9999999999999995e-05,0.00018999999999999998,-0.00022,-0.00027,-0.00011999999999999999,3
9067,9392,-0.00021,-0.00013000000000000002,0.0,5.9999999999999995e-05,0.00018999999999999998,-0.00022,-0.00027,-0.00011999999999999999,3
9068,9393,-0.00021,-0.00013000000000000002,0.0,5.9999999999999995e-05,0.00018999999999999998,-0.00022,-0.00027,-0.00011999999999999999,3
9069,9394,-0.00021,-0.00013000000000000002,0.0,5.9999999999999995e-05,0.00018999999999999998,-0.00022,-0.00027,-0.00011999999999999999,3
9070,9395,-0.00021,-0.00013000000000000002,0.0,5.9999999999999995e-05,0.00018999999999999998,-0.00022,-0.00027,-0.00011999999999999999,3
9071,9396,-0.00021,-0.00013000000000000002,0.0,5.9999999999999995e-05,0.00018999999999999998,-0.00022,-0.00027,-0.00011999999999999999,3
9072,9397,-0.00021,-0.00013000000000000002,0.0,5.9999999999999995e-05,0.00018999999999999998,-0.00022,-0.00027,-0.00011999999999999999,3
9073,9398,-0.00021,-0.00013000000000000002,0.0,5.9999999999999995e-05,0.00018999999999999998,-0.00022,-0.00027,-0.00011999999999999999,3
9074,9399,-0.00021,-0.00013000000000000002,0.0,5.9999999999999995e-05,0.00018999999999999998,-0.00022,-0.00027,-0.00011999999999999999,3
9075,9400,-0.00021,-0.00013000000000000002,0.0,5.9999999999999995e-05,0.00018999999999999998,-0.00022,-0.00027,-0.00011999999999999999,3
9076,9401,-0.00021,-0.00013000000000000002,0.0,5.9999999999999995e-05,0.00018999999999999998,-0.00022,-0.00027,-0.00011999999999999999,3
9077,9402,5.9999999999999995e-05,1e-05,4e-05,-2e-05,-4e-05,0.0,-0.0001,-8e-05,3
9078,9403,-0.00023999999999999998,-0.00011999999999999999,-8e-05,-0.00011,-0.00014,-2e-05,-0.00013000000000000002,-0.00016,3
9079,9404,-0.00045,-0.00011999999999999999,-2e-05,-1e-05,0.00023999999999999998,-8e-05,-0.00014,-0.00021,3
9080,9405,-0.00045,-0.00011999999999999999,-2e-05,-1e-05,0.00023999999999999998,-8e-05,-0.00014,-0.00021,3
9081,9406,-0.00045,-0.00011999999999999999,-2e-05,-1e-05,0.00023999999999999998,-8e-05,-0.00014,-0.00021,3
9082,9407,-0.00045,-0.00011999999999999999,-2e-05,-1e-05,0.00023999999999999998,-8e-05,-0.00014,-0.00021,3
9083,9408,-0.00045,-0.00011999999999999999,-2e-05,-1e-05,0.00023999999999999998,-8e-05,-0.00014,-0.00021,3
9084,9409,-0.00045,-0.00011999999999999999,-2e-05,-1e-05,0.00023999999999999998,-8e-05,-0.00014,-0.00021,3
9085,9410,-0.00045,-0.00011999999999999999,-2e-05,-1e-05,0.00023999999999999998,-8e-05,-0.00014,-0.00021,3
9086,9411,-0.00045,-0.00011999999999999999,-2e-05,-1e-05,0.00023999999999999998,-8e-05,-0.00014,-0.00021,3
9087,9412,-0.00045,-0.00011999999999999999,-2e-05,-1e-05,0.00023999999999999998,-8e-05,-0.00014,-0.00021,3
9088,9413,-0.00045,-0.00011999999999999999,-2e-05,-1e-05,0.00023999999999999998,-8e-05,-0.00014,-0.00021,3
9089,9414,-0.00045,-0.00011999999999999999,-2e-05,-1e-05,0.00023999999999999998,-8e-05,-0.00014,-0.00021,3
9090,9415,-0.00045,-0.00011999999999999999,-2e-05,-1e-05,0.00023999999999999998,-8e-05,-0.00014,-0.00021,3
9091,9416,-0.00045,-0.00011999999999999999,-2e-05,-1e-05,0.00023999999999999998,-8e-05,-0.00014,-0.00021,3
9092,9417,-0.00045,-0.00011999999999999999,-2e-05,-1e-05,0.00023999999999999998,-8e-05,-0.00014,-0.00021,3
9093,9418,-0.00045,-0.00011999999999999999,-2e-05,-1e-05,0.00023999999999999998,-8e-05,-0.00014,-0.00021,3
9094,9419,-0.00045,-0.00011999999999999999,-2e-05,-1e-05,0.00023999999999999998,-8e-05,-0.00014,-0.00021,3
9095,9420,-0.00045,-0.00011999999999999999,-2e-05,-1e-05,0.00023999999999999998,-8e-05,-0.00014,-0.00021,3
9096,9421,-0.00045,-0.00011999999999999999,-2e-05,-1e-05,0.00023999999999999998,-8e-05,-0.00014,-0.00021,3
9097,9422,-0.00045,-0.00011999999999999999,-2e-05,-1e-05,0.00023999999999999998,-8e-05,-0.00014,-0.00021,3
9098,9423,-0.00045,-0.00011999999999999999,-2e-05,-1e-05,0.00023999999999999998,-8e-05,-0.00014,-0.00021,3
9099,9424,-0.00045,-0.00011999999999999999,-2e-05,-1e-05,0.00023999999999999998,-8e-05,-0.00014,-0.00021,3
9100,9425,-0.0001,0.0,2.9999999999999997e-05,0.00011,0.00026000000000000003,-0.00011,-0.00022999999999999998,-0.0002,3
9101,9426,1e-05,-2.9999999999999997e-05,2.9999999999999997e-05,1e-05,-5e-05,0.00016,-5.9999999999999995e-05,0.0,3
9102,9427,1e-05,-2.9999999999999997e-05,2.9999999999999997e-05,1e-05,-5e-05,0.00016,-5.9999999999999995e-05,0.0,3
9103,9428,1e-05,-2.9999999999999997e-05,2.9999999999999997e-05,1e-05,-5e-05,0.00016,-5.9999999999999995e-05,0.0,3
9104,9429,1e-05,-2.9999999999999997e-05,2.9999999999999997e-05,1e-05,-5e-05,0.00016,-5.9999999999999995e-05,0.0,3
9105,9430,1e-05,-2.9999999999999997e-05,2.9999999999999997e-05,1e-05,-5e-05,0.00016,-5.9999999999999995e-05,0.0,3
9106,9431,1e-05,-2.9999999999999997e-05,2.9999999999999997e-05,1e-05,-5e-05,0.00016,-5.9999999999999995e-05,0.0,3
9107,9432,1e-05,-2.9999999999999997e-05,2.9999999999999997e-05,1e-05,-5e-05,0.00016,-5.9999999999999995e-05,0.0,3
9108,9433,1e-05,-2.9999999999999997e-05,2.9999999999999997e-05,1e-05,-5e-05,0.00016,-5.9999999999999995e-05,0.0,3
9109,9434,1e-05,-2.9999999999999997e-05,2.9999999999999997e-05,1e-05,-5e-05,0.00016,-5.9999999999999995e-05,0.0,3
9110,9435,1e-05,-2.9999999999999997e-05,2.9999999999999997e-05,1e-05,-5e-05,0.00016,-5.9999999999999995e-05,0.0,3
9111,9436,1e-05,-2.9999999999999997e-05,2.9999999999999997e-05,1e-05,-5e-05,0.00016,-5.9999999999999995e-05,0.0,3
9112,9439,1e-05,-2.9999999999999997e-05,2.9999999999999997e-05,1e-05,-5e-05,0.00016,-5.9999999999999995e-05,0.0,3
9113,9440,1e-05,-2.9999999999999997e-05,2.9999999999999997e-05,1e-05,-5e-05,0.00016,-5.9999999999999995e-05,0.0,3
9114,9441,1e-05,-2.9999999999999997e-05,2.9999999999999997e-05,1e-05,-5e-05,0.00016,-5.9999999999999995e-05,0.0,3
9115,9442,1e-05,-2.9999999999999997e-05,2.9999999999999997e-05,1e-05,-5e-05,0.00016,-5.9999999999999995e-05,0.0,3
9116,9443,1e-05,-2.9999999999999997e-05,2.9999999999999997e-05,1e-05,-5e-05,0.00016,-5.9999999999999995e-05,0.0,3
9117,9444,1e-05,-2.9999999999999997e-05,2.9999999999999997e-05,1e-05,-5e-05,0.00016,-5.9999999999999995e-05,0.0,3
9118,9445,1e-05,-2.9999999999999997e-05,2.9999999999999997e-05,1e-05,-5e-05,0.00016,-5.9999999999999995e-05,0.0,3
9119,9446,1e-05,-2.9999999999999997e-05,2.9999999999999997e-05,1e-05,-5e-05,0.00016,-5.9999999999999995e-05,0.0,3
9120,9447,5.9999999999999995e-05,-4e-05,-4e-05,-1e-05,-0.00022,5.9999999999999995e-05,0.00011999999999999999,0.00016,3
9121,9448,0.00018,8e-05,1e-05,0.0,2.9999999999999997e-05,-7e-05,0.0001,0.00011,3
9122,9449,0.00018,8e-05,1e-05,0.0,2.9999999999999997e-05,-7e-05,0.0001,0.00011,3
9123,9450,0.00018,8e-05,1e-05,0.0,2.9999999999999997e-05,-7e-05,0.0001,0.00011,3
9124,9451,0.00018,8e-05,1e-05,0.0,2.9999999999999997e-05,-7e-05,0.0001,0.00011,3
9125,9452,0.00018,8e-05,1e-05,0.0,2.9999999999999997e-05,-7e-05,0.0001,0.00011,3
9126,9453,0.00018,8e-05,1e-05,0.0,2.9999999999999997e-05,-7e-05,0.0001,0.00011,3
9127,9454,0.00018,8e-05,1e-05,0.0,2.9999999999999997e-05,-7e-05,0.0001,0.00011,3
9128,9455,0.00018,8e-05,1e-05,0.0,2.9999999999999997e-05,-7e-05,0.0001,0.00011,3
9129,9456,0.00018,8e-05,1e-05,0.0,2.9999999999999997e-05,-7e-05,0.0001,0.00011,3
9130,9457,0.00018,8e-05,1e-05,0.0,2.9999999999999997e-05,-7e-05,0.0001,0.00011,3
9131,9458,0.00018,8e-05,1e-05,0.0,2.9999999999999997e-05,-7e-05,0.0001,0.00011,3
9132,9459,0.00018,8e-05,1e-05,0.0,2.9999999999999997e-05,-7e-05,0.0001,0.00011,3
9133,9460,0.00018,8e-05,1e-05,0.0,2.9999999999999997e-05,-7e-05,0.0001,0.00011,3
9134,9461,0.00018,8e-05,1e-05,0.0,2.9999999999999997e-05,-7e-05,0.0001,0.00011,3
9135,9462,0.00018,8e-05,1e-05,0.0,2.9999999999999997e-05,-7e-05,0.0001,0.00011,3
9136,9463,0.00018,8e-05,1e-05,0.0,2.9999999999999997e-05,-7e-05,0.0001,0.00011,3
9137,9464,2e-05,-0.0001,-8e-05,-0.00011999999999999999,-2e-05,-0.0002,-0.00018999999999999998,9e-05,3
9138,9465,2e-05,-0.0001,-8e-05,-0.00011999999999999999,-2e-05,-0.0002,-0.00018999999999999998,9e-05,3
9139,9466,2e-05,-0.0001,-8e-05,-0.00011999999999999999,-2e-05,-0.0002,-0.00018999999999999998,9e-05,3
9140,9467,2e-05,-0.0001,-8e-05,-0.00011999999999999999,-2e-05,-0.0002,-0.00018999999999999998,9e-05,3
9141,9468,2e-05,-0.0001,-8e-05,-0.00011999999999999999,-2e-05,-0.0002,-0.00018999999999999998,9e-05,3
9142,9469,2e-05,-0.0001,-8e-05,-0.00011999999999999999,-2e-05,-0.0002,-0.00018999999999999998,9e-05,3
9143,9470,2e-05,-0.0001,-8e-05,-0.00011999999999999999,-2e-05,-0.0002,-0.00018999999999999998,9e-05,3
9144,9471,2e-05,-0.0001,-8e-05,-0.00011999999999999999,-2e-05,-0.0002,-0.00018999999999999998,9e-05,3
9145,9472,2e-05,-0.0001,-8e-05,-0.00011999999999999999,-2e-05,-0.0002,-0.00018999999999999998,9e-05,3
9146,9473,2e-05,-0.0001,-8e-05,-0.00011999999999999999,-2e-05,-0.0002,-0.00018999999999999998,9e-05,3
9147,9474,2e-05,-0.0001,-8e-05,-0.00011999999999999999,-2e-05,-0.0002,-0.00018999999999999998,9e-05,3
9148,9475,2e-05,-0.0001,-8e-05,-0.00011999999999999999,-2e-05,-0.0002,-0.00018999999999999998,9e-05,3
9149,9476,2e-05,-0.0001,-8e-05,-0.00011999999999999999,-2e-05,-0.0002,-0.00018999999999999998,9e-05,3
9150,9477,2e-05,-0.0001,-8e-05,-0.00011999999999999999,-2e-05,-0.0002,-0.00018999999999999998,9e-05,3
9151,9478,2e-05,-0.0001,-8e-05,-0.00011999999999999999,-2e-05,-0.0002,-0.00018999999999999998,9e-05,3
9152,9479,2e-05,-0.0001,-8e-05,-0.00011999999999999999,-2e-05,-0.0002,-0.00018999999999999998,9e-05,3
9153,9480,2e-05,-0.0001,-8e-05,-0.00011999999999999999,-2e-05,-0.0002,-0.00018999999999999998,9e-05,3
9154,9481,2e-05,-0.0001,-8e-05,-0.00011999999999999999,-2e-05,-0.0002,-0.00018999999999999998,9e-05,3
9155,9482,2e-05,-0.0001,-8e-05,-0.00011999999999999999,-2e-05,-0.0002,-0.00018999999999999998,9e-05,3
9156,9483,2e-05,-0.0001,-8e-05,-0.00011999999999999999,-2e-05,-0.0002,-0.00018999999999999998,9e-05,3
9157,9484,0.00025,0.00016,2e-05,-2.9999999999999997e-05,-0.00015,5e-05,0.00014,0.0,3
9158,9485,-0.00013000000000000002,-0.00011999999999999999,-0.00011,-0.00013000000000000002,-0.00022999999999999998,0.0,2e-05,-0.00018,3
9159,9486,-0.00013000000000000002,-0.00011999999999999999,-0.00011,-0.00013000000000000002,-0.00022999999999999998,0.0,2e-05,-0.00018,3
9160,9488,-0.00013000000000000002,-0.00011999999999999999,-0.00011,-0.00013000000000000002,-0.00022999999999999998,0.0,2e-05,-0.00018,3
9161,9489,-0.00013000000000000002,-0.00011999999999999999,-0.00011,-0.00013000000000000002,-0.00022999999999999998,0.0,2e-05,-0.00018,3
9162,9490,-0.00013000000000000002,-0.00011999999999999999,-0.00011,-0.00013000000000000002,-0.00022999999999999998,0.0,2e-05,-0.00018,3
9163,9491,-0.00013000000000000002,-0.00011999999999999999,-0.00011,-0.00013000000000000002,-0.00022999999999999998,0.0,2e-05,-0.00018,3
9164,9492,-0.00013000000000000002,-0.00011999999999999999,-0.00011,-0.00013000000000000002,-0.00022999999999999998,0.0,2e-05,-0.00018,3
9165,9493,-0.00013000000000000002,-0.00011999999999999999,-0.00011,-0.00013000000000000002,-0.00022999999999999998,0.0,2e-05,-0.00018,3
9166,9494,-0.00013000000000000002,-0.00011999999999999999,-0.00011,-0.00013000000000000002,-0.00022999999999999998,0.0,2e-05,-0.00018,3
9167,9495,-0.00013000000000000002,-0.00011999999999999999,-0.00011,-0.00013000000000000002,-0.00022999999999999998,0.0,2e-05,-0.00018,3
9168,9496,-0.00013000000000000002,-0.00011999999999999999,-0.00011,-0.00013000000000000002,-0.00022999999999999998,0.0,2e-05,-0.00018,3
9169,9497,-0.00013000000000000002,-0.00011999999999999999,-0.00011,-0.00013000000000000002,-0.00022999999999999998,0.0,2e-05,-0.00018,3
9170,9498,-0.00013000000000000002,-0.00011999999999999999,-0.00011,-0.00013000000000000002,-0.00022999999999999998,0.0,2e-05,-0.00018,3
9171,9499,-0.00013000000000000002,-0.00011999999999999999,-0.00011,-0.00013000000000000002,-0.00022999999999999998,0.0,2e-05,-0.00018,3
9172,9500,-0.00013000000000000002,-0.00011999999999999999,-0.00011,-0.00013000000000000002,-0.00022999999999999998,0.0,2e-05,-0.00018,3
9173,9501,-0.00013000000000000002,-0.00011999999999999999,-0.00011,-0.00013000000000000002,-0.00022999999999999998,0.0,2e-05,-0.00018,3
9174,9502,-0.00013000000000000002,-0.00011999999999999999,-0.00011,-0.00013000000000000002,-0.00022999999999999998,0.0,2e-05,-0.00018,3
9175,9503,-0.00013000000000000002,-0.00011999999999999999,-0.00011,-0.00013000000000000002,-0.00022999999999999998,0.0,2e-05,-0.00018,3
9176,9504,-0.00013000000000000002,-0.00011999999999999999,-0.00011,-0.00013000000000000002,-0.00022999999999999998,0.0,2e-05,-0.00018,3
9177,9505,-0.00013000000000000002,-0.00011999999999999999,-0.00011,-0.00013000000000000002,-0.00022999999999999998,0.0,2e-05,-0.00018,3
9178,9506,-0.00013000000000000002,-0.00011999999999999999,-0.00011,-0.00013000000000000002,-0.00022999999999999998,0.0,2e-05,-0.00018,3
9179,9507,-2.9999999999999997e-05,0.0001,5e-05,-5.9999999999999995e-05,-0.00016999999999999999,0.00028,0.00025,9e-05,3
9180,9508,0.00022999999999999998,5.9999999999999995e-05,-2e-05,7e-05,-9e-05,0.0001,0.00026000000000000003,0.00029,3
9181,9509,0.00022999999999999998,5.9999999999999995e-05,-2e-05,7e-05,-9e-05,0.0001,0.00026000000000000003,0.00029,3
9182,9510,0.00022999999999999998,5.9999999999999995e-05,-2e-05,7e-05,-9e-05,0.0001,0.00026000000000000003,0.00029,3
9183,9511,0.00022999999999999998,5.9999999999999995e-05,-2e-05,7e-05,-9e-05,0.0001,0.00026000000000000003,0.00029,3
9184,9512,0.00022999999999999998,5.9999999999999995e-05,-2e-05,7e-05,-9e-05,0.0001,0.00026000000000000003,0.00029,3
9185,9513,0.00022999999999999998,5.9999999999999995e-05,-2e-05,7e-05,-9e-05,0.0001,0.00026000000000000003,0.00029,3
9186,9514,0.00022999999999999998,5.9999999999999995e-05,-2e-05,7e-05,-9e-05,0.0001,0.00026000000000000003,0.00029,3
9187,9515,0.00022999999999999998,5.9999999999999995e-05,-2e-05,7e-05,-9e-05,0.0001,0.00026000000000000003,0.00029,3
9188,9516,0.00022999999999999998,5.9999999999999995e-05,-2e-05,7e-05,-9e-05,0.0001,0.00026000000000000003,0.00029,3
9189,9517,0.00022999999999999998,5.9999999999999995e-05,-2e-05,7e-05,-9e-05,0.0001,0.00026000000000000003,0.00029,3
9190,9518,0.00022999999999999998,5.9999999999999995e-05,-2e-05,7e-05,-9e-05,0.0001,0.00026000000000000003,0.00029,3
9191,9519,0.00022999999999999998,5.9999999999999995e-05,-2e-05,7e-05,-9e-05,0.0001,0.00026000000000000003,0.00029,3
9192,9520,0.00022999999999999998,5.9999999999999995e-05,-2e-05,7e-05,-9e-05,0.0001,0.00026000000000000003,0.00029,3
9193,9521,0.00022999999999999998,5.9999999999999995e-05,-2e-05,7e-05,-9e-05,0.0001,0.00026000000000000003,0.00029,3
9194,9522,0.00026000000000000003,0.00011,5.9999999999999995e-05,5e-05,0.00015,-5.9999999999999995e-05,0.00022,0.00033,3
9195,9523,-1e-05,-4e-05,1e-05,7e-05,0.00028,0.00021,4e-05,-4e-05,3
9196,9524,-1e-05,-4e-05,1e-05,7e-05,0.00028,0.00021,4e-05,-4e-05,3
9197,9525,-1e-05,-4e-05,1e-05,7e-05,0.00028,0.00021,4e-05,-4e-05,3
9198,9526,-1e-05,-4e-05,1e-05,7e-05,0.00028,0.00021,4e-05,-4e-05,3
9199,9527,-1e-05,-4e-05,1e-05,7e-05,0.00028,0.00021,4e-05,-4e-05,3
9200,9528,-1e-05,-4e-05,1e-05,7e-05,0.00028,0.00021,4e-05,-4e-05,3
9201,9529,-1e-05,-4e-05,1e-05,7e-05,0.00028,0.00021,4e-05,-4e-05,3
9202,9530,-1e-05,-4e-05,1e-05,7e-05,0.00028,0.00021,4e-05,-4e-05,3
9203,9531,-1e-05,-4e-05,1e-05,7e-05,0.00028,0.00021,4e-05,-4e-05,3
9204,9532,-1e-05,-4e-05,1e-05,7e-05,0.00028,0.00021,4e-05,-4e-05,3
9205,9533,-1e-05,-4e-05,1e-05,7e-05,0.00028,0.00021,4e-05,-4e-05,3
9206,9534,-1e-05,-4e-05,1e-05,7e-05,0.00028,0.00021,4e-05,-4e-05,3
9207,9535,-1e-05,-4e-05,1e-05,7e-05,0.00028,0.00021,4e-05,-4e-05,3
9208,9536,-1e-05,-4e-05,1e-05,7e-05,0.00028,0.00021,4e-05,-4e-05,3
9209,9538,-1e-05,-4e-05,1e-05,7e-05,0.00028,0.00021,4e-05,-4e-05,3
9210,9539,-1e-05,-4e-05,1e-05,7e-05,0.00028,0.00021,4e-05,-4e-05,3
9211,9540,-1e-05,-4e-05,1e-05,7e-05,0.00028,0.00021,4e-05,-4e-05,3
9212,9541,-1e-05,-4e-05,1e-05,7e-05,0.00028,0.00021,4e-05,-4e-05,3
9213,9542,-1e-05,-4e-05,1e-05,7e-05,0.00028,0.00021,4e-05,-4e-05,3
9214,9543,-1e-05,-4e-05,1e-05,7e-05,0.00028,0.00021,4e-05,-4e-05,3
9215,9544,-1e-05,-4e-05,1e-05,7e-05,0.00028,0.00021,4e-05,-4e-05,3
9216,9545,4e-05,-4e-05,-5e-05,-7e-05,-0.0001,-0.00018999999999999998,-0.00011999999999999999,-0.00022,3
9217,9546,4e-05,-4e-05,-5e-05,-7e-05,-0.0001,-0.00018999999999999998,-0.00011999999999999999,-0.00022,3
9218,9547,4e-05,-4e-05,-5e-05,-7e-05,-0.0001,-0.00018999999999999998,-0.00011999999999999999,-0.00022,3
9219,9548,4e-05,-4e-05,-5e-05,-7e-05,-0.0001,-0.00018999999999999998,-0.00011999999999999999,-0.00022,3
9220,9549,4e-05,-4e-05,-5e-05,-7e-05,-0.0001,-0.00018999999999999998,-0.00011999999999999999,-0.00022,3
9221,9550,4e-05,-4e-05,-5e-05,-7e-05,-0.0001,-0.00018999999999999998,-0.00011999999999999999,-0.00022,3
9222,9551,4e-05,-4e-05,-5e-05,-7e-05,-0.0001,-0.00018999999999999998,-0.00011999999999999999,-0.00022,3
9223,9552,4e-05,-4e-05,-5e-05,-7e-05,-0.0001,-0.00018999999999999998,-0.00011999999999999999,-0.00022,3
9224,9553,4e-05,-4e-05,-5e-05,-7e-05,-0.0001,-0.00018999999999999998,-0.00011999999999999999,-0.00022,3
9225,9554,4e-05,-4e-05,-5e-05,-7e-05,-0.0001,-0.00018999999999999998,-0.00011999999999999999,-0.00022,3
9226,9555,4e-05,-4e-05,-5e-05,-7e-05,-0.0001,-0.00018999999999999998,-0.00011999999999999999,-0.00022,3
9227,9556,4e-05,-4e-05,-5e-05,-7e-05,-0.0001,-0.00018999999999999998,-0.00011999999999999999,-0.00022,3
9228,9557,4e-05,-4e-05,-5e-05,-7e-05,-0.0001,-0.00018999999999999998,-0.00011999999999999999,-0.00022,3
9229,9558,4e-05,-4e-05,-5e-05,-7e-05,-0.0001,-0.00018999999999999998,-0.00011999999999999999,-0.00022,3
9230,9559,4e-05,-4e-05,-5e-05,-7e-05,-0.0001,-0.00018999999999999998,-0.00011999999999999999,-0.00022,3
9231,9560,4e-05,-4e-05,-5e-05,-7e-05,-0.0001,-0.00018999999999999998,-0.00011999999999999999,-0.00022,3
9232,9561,4e-05,-4e-05,-5e-05,-7e-05,-0.0001,-0.00018999999999999998,-0.00011999999999999999,-0.00022,3
9233,9562,4e-05,-4e-05,-5e-05,-7e-05,-0.0001,-0.00018999999999999998,-0.00011999999999999999,-0.00022,3
9234,9563,4e-05,-4e-05,-5e-05,-7e-05,-0.0001,-0.00018999999999999998,-0.00011999999999999999,-0.00022,3
9235,9564,4e-05,-4e-05,-5e-05,-7e-05,-0.0001,-0.00018999999999999998,-0.00011999999999999999,-0.00022,3
9236,9565,4e-05,-4e-05,-5e-05,-7e-05,-0.0001,-0.00018999999999999998,-0.00011999999999999999,-0.00022,3
9237,9566,4e-05,-4e-05,-5e-05,-7e-05,-0.0001,-0.00018999999999999998,-0.00011999999999999999,-0.00022,3
9238,9567,0.0001,-0.00014,-1e-05,2.9999999999999997e-05,-0.00023999999999999998,0.00018,0.0002,0.00021,3
9239,9568,0.0,0.0,1e-05,0.0,0.0,-5.9999999999999995e-05,0.00037,5.9999999999999995e-05,3
9240,9569,0.0,0.0,1e-05,0.0,0.0,-5.9999999999999995e-05,0.00037,5.9999999999999995e-05,3
9241,9570,0.0,0.0,1e-05,0.0,0.0,-5.9999999999999995e-05,0.00037,5.9999999999999995e-05,3
9242,9571,0.0,0.0,1e-05,0.0,0.0,-5.9999999999999995e-05,0.00037,5.9999999999999995e-05,3
9243,9572,0.0,0.0,1e-05,0.0,0.0,-5.9999999999999995e-05,0.00037,5.9999999999999995e-05,3
9244,9573,0.0,0.0,1e-05,0.0,0.0,-5.9999999999999995e-05,0.00037,5.9999999999999995e-05,3
9245,9574,0.0,0.0,1e-05,0.0,0.0,-5.9999999999999995e-05,0.00037,5.9999999999999995e-05,3
9246,9575,0.0,0.0,1e-05,0.0,0.0,-5.9999999999999995e-05,0.00037,5.9999999999999995e-05,3
9247,9576,0.0,0.0,1e-05,0.0,0.0,-5.9999999999999995e-05,0.00037,5.9999999999999995e-05,3
9248,9577,0.0,0.0,1e-05,0.0,0.0,-5.9999999999999995e-05,0.00037,5.9999999999999995e-05,3
9249,9578,0.0,0.0,1e-05,0.0,0.0,-5.9999999999999995e-05,0.00037,5.9999999999999995e-05,3
9250,9579,0.0,0.0,1e-05,0.0,0.0,-5.9999999999999995e-05,0.00037,5.9999999999999995e-05,3
9251,9580,0.0,0.0,1e-05,0.0,0.0,-5.9999999999999995e-05,0.00037,5.9999999999999995e-05,3
9252,9581,0.0,0.0,1e-05,0.0,0.0,-5.9999999999999995e-05,0.00037,5.9999999999999995e-05,3
9253,9582,0.0,0.0,1e-05,0.0,0.0,-5.9999999999999995e-05,0.00037,5.9999999999999995e-05,3
9254,9583,-0.00073,-0.00043,-0.00013000000000000002,-0.00018999999999999998,-0.0002,-0.00011999999999999999,-9e-05,-0.00029,3
9255,9584,-0.00073,-0.00043,-0.00013000000000000002,-0.00018999999999999998,-0.0002,-0.00011999999999999999,-9e-05,-0.00029,3
9256,9585,-0.00073,-0.00043,-0.00013000000000000002,-0.00018999999999999998,-0.0002,-0.00011999999999999999,-9e-05,-0.00029,3
9257,9586,-0.00073,-0.00043,-0.00013000000000000002,-0.00018999999999999998,-0.0002,-0.00011999999999999999,-9e-05,-0.00029,3
9258,9588,-0.00073,-0.00043,-0.00013000000000000002,-0.00018999999999999998,-0.0002,-0.00011999999999999999,-9e-05,-0.00029,3
9259,9589,-0.00073,-0.00043,-0.00013000000000000002,-0.00018999999999999998,-0.0002,-0.00011999999999999999,-9e-05,-0.00029,3
9260,9590,-0.00016999999999999999,-2e-05,0.0,-9e-05,-0.00042,-0.00016,-0.00032,2e-05,3
9261,9591,-0.00016999999999999999,-2e-05,0.0,-9e-05,-0.00042,-0.00016,-0.00032,2e-05,3
9262,9592,-0.00016999999999999999,-2e-05,0.0,-9e-05,-0.00042,-0.00016,-0.00032,2e-05,3
9263,9593,-0.00016999999999999999,-2e-05,0.0,-9e-05,-0.00042,-0.00016,-0.00032,2e-05,3
9264,9594,-0.00016999999999999999,-2e-05,0.0,-9e-05,-0.00042,-0.00016,-0.00032,2e-05,3
9265,9595,-0.00016999999999999999,-2e-05,0.0,-9e-05,-0.00042,-0.00016,-0.00032,2e-05,3
9266,9596,-0.00016999999999999999,-2e-05,0.0,-9e-05,-0.00042,-0.00016,-0.00032,2e-05,3
9267,9597,-0.00016999999999999999,-2e-05,0.0,-9e-05,-0.00042,-0.00016,-0.00032,2e-05,3
9268,9598,-0.00016999999999999999,-2e-05,0.0,-9e-05,-0.00042,-0.00016,-0.00032,2e-05,3
9269,9599,-0.00016999999999999999,-2e-05,0.0,-9e-05,-0.00042,-0.00016,-0.00032,2e-05,3
9270,9600,-0.00016999999999999999,-2e-05,0.0,-9e-05,-0.00042,-0.00016,-0.00032,2e-05,3
9271,9601,-0.00016999999999999999,-2e-05,0.0,-9e-05,-0.00042,-0.00016,-0.00032,2e-05,3
9272,9602,-0.00016999999999999999,-2e-05,0.0,-9e-05,-0.00042,-0.00016,-0.00032,2e-05,3
9273,9603,-0.00016999999999999999,-2e-05,0.0,-9e-05,-0.00042,-0.00016,-0.00032,2e-05,3
9274,9604,-0.00016999999999999999,-2e-05,0.0,-9e-05,-0.00042,-0.00016,-0.00032,2e-05,3
9275,9605,-0.0001,0.00021,9e-05,0.00016999999999999999,0.00016999999999999999,2e-05,-4e-05,0.00016,3
9276,9606,2e-05,-1e-05,4e-05,8e-05,0.00018999999999999998,0.00043,0.0001,5e-05,3
9277,9607,2e-05,-1e-05,4e-05,8e-05,0.00018999999999999998,0.00043,0.0001,5e-05,3
9278,9608,2e-05,-1e-05,4e-05,8e-05,0.00018999999999999998,0.00043,0.0001,5e-05,3
9279,9609,2e-05,-1e-05,4e-05,8e-05,0.00018999999999999998,0.00043,0.0001,5e-05,3
9280,9610,2e-05,-1e-05,4e-05,8e-05,0.00018999999999999998,0.00043,0.0001,5e-05,3
9281,9611,2e-05,-1e-05,4e-05,8e-05,0.00018999999999999998,0.00043,0.0001,5e-05,3
9282,9612,2e-05,-1e-05,4e-05,8e-05,0.00018999999999999998,0.00043,0.0001,5e-05,3
9283,9613,2e-05,-1e-05,4e-05,8e-05,0.00018999999999999998,0.00043,0.0001,5e-05,3
9284,9614,2e-05,-1e-05,4e-05,8e-05,0.00018999999999999998,0.00043,0.0001,5e-05,3
9285,9615,2e-05,-1e-05,4e-05,8e-05,0.00018999999999999998,0.00043,0.0001,5e-05,3
9286,9616,2e-05,-1e-05,4e-05,8e-05,0.00018999999999999998,0.00043,0.0001,5e-05,3
9287,9617,2e-05,-1e-05,4e-05,8e-05,0.00018999999999999998,0.00043,0.0001,5e-05,3
9288,9618,2e-05,-1e-05,4e-05,8e-05,0.00018999999999999998,0.00043,0.0001,5e-05,3
9289,9619,2e-05,-1e-05,4e-05,8e-05,0.00018999999999999998,0.00043,0.0001,5e-05,3
9290,9620,2e-05,-1e-05,4e-05,8e-05,0.00018999999999999998,0.00043,0.0001,5e-05,3
9291,9621,2e-05,-1e-05,4e-05,8e-05,0.00018999999999999998,0.00043,0.0001,5e-05,3
9292,9622,2e-05,-1e-05,4e-05,8e-05,0.00018999999999999998,0.00043,0.0001,5e-05,3
9293,9623,2e-05,-1e-05,4e-05,8e-05,0.00018999999999999998,0.00043,0.0001,5e-05,3
9294,9624,2e-05,-1e-05,4e-05,8e-05,0.00018999999999999998,0.00043,0.0001,5e-05,3
9295,9625,2e-05,-1e-05,4e-05,8e-05,0.00018999999999999998,0.00043,0.0001,5e-05,3
9296,9626,2e-05,-1e-05,4e-05,8e-05,0.00018999999999999998,0.00043,0.0001,5e-05,3
9297,9627,0.0003,2e-05,2e-05,2e-05,0.00028,-1e-05,-0.00016,-2.9999999999999997e-05,3
9298,9628,-7e-05,-5.9999999999999995e-05,-5.9999999999999995e-05,1e-05,-2e-05,-0.00013000000000000002,-0.00013000000000000002,-0.00022,3
9299,9629,-7e-05,-5.9999999999999995e-05,-5.9999999999999995e-05,1e-05,-2e-05,-0.00013000000000000002,-0.00013000000000000002,-0.00022,3
9300,9630,-7e-05,-5.9999999999999995e-05,-5.9999999999999995e-05,1e-05,-2e-05,-0.00013000000000000002,-0.00013000000000000002,-0.00022,3
9301,9631,-7e-05,-5.9999999999999995e-05,-5.9999999999999995e-05,1e-05,-2e-05,-0.00013000000000000002,-0.00013000000000000002,-0.00022,3
9302,9632,-7e-05,-5.9999999999999995e-05,-5.9999999999999995e-05,1e-05,-2e-05,-0.00013000000000000002,-0.00013000000000000002,-0.00022,3
9303,9633,-7e-05,-5.9999999999999995e-05,-5.9999999999999995e-05,1e-05,-2e-05,-0.00013000000000000002,-0.00013000000000000002,-0.00022,3
9304,9634,-7e-05,-5.9999999999999995e-05,-5.9999999999999995e-05,1e-05,-2e-05,-0.00013000000000000002,-0.00013000000000000002,-0.00022,3
9305,9635,-7e-05,-5.9999999999999995e-05,-5.9999999999999995e-05,1e-05,-2e-05,-0.00013000000000000002,-0.00013000000000000002,-0.00022,3
9306,9636,-7e-05,-5.9999999999999995e-05,-5.9999999999999995e-05,1e-05,-2e-05,-0.00013000000000000002,-0.00013000000000000002,-0.00022,3
9307,9639,-7e-05,-5.9999999999999995e-05,-5.9999999999999995e-05,1e-05,-2e-05,-0.00013000000000000002,-0.00013000000000000002,-0.00022,3
9308,9640,-7e-05,-5.9999999999999995e-05,-5.9999999999999995e-05,1e-05,-2e-05,-0.00013000000000000002,-0.00013000000000000002,-0.00022,3
9309,9641,4e-05,8e-05,-9e-05,-0.00011999999999999999,-0.0002,-5.9999999999999995e-05,-0.00016999999999999999,-0.00037,3
9310,9642,4e-05,8e-05,-9e-05,-0.00011999999999999999,-0.0002,-5.9999999999999995e-05,-0.00016999999999999999,-0.00037,3
9311,9643,4e-05,8e-05,-9e-05,-0.00011999999999999999,-0.0002,-5.9999999999999995e-05,-0.00016999999999999999,-0.00037,3
9312,9644,4e-05,8e-05,-9e-05,-0.00011999999999999999,-0.0002,-5.9999999999999995e-05,-0.00016999999999999999,-0.00037,3
9313,9645,4e-05,8e-05,-9e-05,-0.00011999999999999999,-0.0002,-5.9999999999999995e-05,-0.00016999999999999999,-0.00037,3
9314,9646,4e-05,8e-05,-9e-05,-0.00011999999999999999,-0.0002,-5.9999999999999995e-05,-0.00016999999999999999,-0.00037,3
9315,9647,4e-05,8e-05,-9e-05,-0.00011999999999999999,-0.0002,-5.9999999999999995e-05,-0.00016999999999999999,-0.00037,3
9316,9648,4e-05,8e-05,-9e-05,-0.00011999999999999999,-0.0002,-5.9999999999999995e-05,-0.00016999999999999999,-0.00037,3
9317,9649,4e-05,8e-05,-9e-05,-0.00011999999999999999,-0.0002,-5.9999999999999995e-05,-0.00016999999999999999,-0.00037,3
9318,9650,2e-05,5.9999999999999995e-05,2.9999999999999997e-05,4e-05,-0.00018999999999999998,-0.00015,-0.00027,-0.00021,3
9319,9651,2e-05,5.9999999999999995e-05,2.9999999999999997e-05,4e-05,-0.00018999999999999998,-0.00015,-0.00027,-0.00021,3
9320,9652,2e-05,5.9999999999999995e-05,2.9999999999999997e-05,4e-05,-0.00018999999999999998,-0.00015,-0.00027,-0.00021,3
9321,9653,2e-05,5.9999999999999995e-05,2.9999999999999997e-05,4e-05,-0.00018999999999999998,-0.00015,-0.00027,-0.00021,3
9322,9654,2e-05,5.9999999999999995e-05,2.9999999999999997e-05,4e-05,-0.00018999999999999998,-0.00015,-0.00027,-0.00021,3
9323,9655,2e-05,5.9999999999999995e-05,2.9999999999999997e-05,4e-05,-0.00018999999999999998,-0.00015,-0.00027,-0.00021,3
9324,9656,2e-05,5.9999999999999995e-05,2.9999999999999997e-05,4e-05,-0.00018999999999999998,-0.00015,-0.00027,-0.00021,3
9325,9657,2e-05,5.9999999999999995e-05,2.9999999999999997e-05,4e-05,-0.00018999999999999998,-0.00015,-0.00027,-0.00021,3
9326,9658,2e-05,5.9999999999999995e-05,2.9999999999999997e-05,4e-05,-0.00018999999999999998,-0.00015,-0.00027,-0.00021,3
9327,9659,2e-05,5.9999999999999995e-05,2.9999999999999997e-05,4e-05,-0.00018999999999999998,-0.00015,-0.00027,-0.00021,3
9328,9660,2e-05,5.9999999999999995e-05,2.9999999999999997e-05,4e-05,-0.00018999999999999998,-0.00015,-0.00027,-0.00021,3
9329,9661,2e-05,5.9999999999999995e-05,2.9999999999999997e-05,4e-05,-0.00018999999999999998,-0.00015,-0.00027,-0.00021,3
9330,9662,2e-05,5.9999999999999995e-05,2.9999999999999997e-05,4e-05,-0.00018999999999999998,-0.00015,-0.00027,-0.00021,3
9331,9663,2e-05,5.9999999999999995e-05,2.9999999999999997e-05,4e-05,-0.00018999999999999998,-0.00015,-0.00027,-0.00021,3
9332,9664,9e-05,9e-05,2.9999999999999997e-05,-4e-05,-5e-05,5e-05,-0.00014,-0.00037,3
9333,9665,5.9999999999999995e-05,5e-05,4e-05,9e-05,0.00018,-0.00011999999999999999,0.00018,0.00032,3
9334,9666,5.9999999999999995e-05,5e-05,4e-05,9e-05,0.00018,-0.00011999999999999999,0.00018,0.00032,3
9335,9667,5.9999999999999995e-05,5e-05,4e-05,9e-05,0.00018,-0.00011999999999999999,0.00018,0.00032,3
9336,9668,5.9999999999999995e-05,5e-05,4e-05,9e-05,0.00018,-0.00011999999999999999,0.00018,0.00032,3
9337,9669,5.9999999999999995e-05,5e-05,4e-05,9e-05,0.00018,-0.00011999999999999999,0.00018,0.00032,3
9338,9670,5.9999999999999995e-05,5e-05,4e-05,9e-05,0.00018,-0.00011999999999999999,0.00018,0.00032,3
9339,9671,5.9999999999999995e-05,5e-05,4e-05,9e-05,0.00018,-0.00011999999999999999,0.00018,0.00032,3
9340,9672,5.9999999999999995e-05,5e-05,4e-05,9e-05,0.00018,-0.00011999999999999999,0.00018,0.00032,3
9341,9673,5.9999999999999995e-05,5e-05,4e-05,9e-05,0.00018,-0.00011999999999999999,0.00018,0.00032,3
9342,9674,5.9999999999999995e-05,5e-05,4e-05,9e-05,0.00018,-0.00011999999999999999,0.00018,0.00032,3
9343,9675,5.9999999999999995e-05,5e-05,4e-05,9e-05,0.00018,-0.00011999999999999999,0.00018,0.00032,3
9344,9676,5.9999999999999995e-05,5e-05,4e-05,9e-05,0.00018,-0.00011999999999999999,0.00018,0.00032,3
9345,9677,5.9999999999999995e-05,5e-05,4e-05,9e-05,0.00018,-0.00011999999999999999,0.00018,0.00032,3
9346,9678,5.9999999999999995e-05,5e-05,4e-05,9e-05,0.00018,-0.00011999999999999999,0.00018,0.00032,3
9347,9679,5.9999999999999995e-05,5e-05,4e-05,9e-05,0.00018,-0.00011999999999999999,0.00018,0.00032,3
9348,9680,5.9999999999999995e-05,5e-05,4e-05,9e-05,0.00018,-0.00011999999999999999,0.00018,0.00032,3
9349,9681,5.9999999999999995e-05,5e-05,4e-05,9e-05,0.00018,-0.00011999999999999999,0.00018,0.00032,3
9350,9682,5.9999999999999995e-05,5e-05,4e-05,9e-05,0.00018,-0.00011999999999999999,0.00018,0.00032,3
9351,9683,5.9999999999999995e-05,5e-05,4e-05,9e-05,0.00018,-0.00011999999999999999,0.00018,0.00032,3
9352,9684,5.9999999999999995e-05,5e-05,4e-05,9e-05,0.00018,-0.00011999999999999999,0.00018,0.00032,3
9353,9685,5.9999999999999995e-05,5e-05,4e-05,9e-05,0.00018,-0.00011999999999999999,0.00018,0.00032,3
9354,9686,5.9999999999999995e-05,5e-05,4e-05,9e-05,0.00018,-0.00011999999999999999,0.00018,0.00032,3
9355,9689,2.9999999999999997e-05,9e-05,4e-05,2.9999999999999997e-05,0.00022,9e-05,-5e-05,0.00013000000000000002,3
9356,9690,2.9999999999999997e-05,9e-05,4e-05,2.9999999999999997e-05,0.00022,9e-05,-5e-05,0.00013000000000000002,3
9357,9691,2.9999999999999997e-05,9e-05,4e-05,2.9999999999999997e-05,0.00022,9e-05,-5e-05,0.00013000000000000002,3
9358,9692,2.9999999999999997e-05,9e-05,4e-05,2.9999999999999997e-05,0.00022,9e-05,-5e-05,0.00013000000000000002,3
9359,9693,2.9999999999999997e-05,9e-05,4e-05,2.9999999999999997e-05,0.00022,9e-05,-5e-05,0.00013000000000000002,3
9360,9694,2.9999999999999997e-05,9e-05,4e-05,2.9999999999999997e-05,0.00022,9e-05,-5e-05,0.00013000000000000002,3
9361,9695,2.9999999999999997e-05,9e-05,4e-05,2.9999999999999997e-05,0.00022,9e-05,-5e-05,0.00013000000000000002,3
9362,9696,2.9999999999999997e-05,9e-05,4e-05,2.9999999999999997e-05,0.00022,9e-05,-5e-05,0.00013000000000000002,3
9363,9697,2.9999999999999997e-05,9e-05,4e-05,2.9999999999999997e-05,0.00022,9e-05,-5e-05,0.00013000000000000002,3
9364,9698,2.9999999999999997e-05,9e-05,4e-05,2.9999999999999997e-05,0.00022,9e-05,-5e-05,0.00013000000000000002,3
9365,9699,2.9999999999999997e-05,9e-05,4e-05,2.9999999999999997e-05,0.00022,9e-05,-5e-05,0.00013000000000000002,3
9366,9700,2.9999999999999997e-05,9e-05,4e-05,2.9999999999999997e-05,0.00022,9e-05,-5e-05,0.00013000000000000002,3
9367,9701,2e-05,-7e-05,-2.9999999999999997e-05,-2.9999999999999997e-05,-1e-05,1e-05,-8e-05,-7e-05,3
9368,9702,2e-05,-7e-05,-2.9999999999999997e-05,-2.9999999999999997e-05,-1e-05,1e-05,-8e-05,-7e-05,3
9369,9703,2e-05,-7e-05,-2.9999999999999997e-05,-2.9999999999999997e-05,-1e-05,1e-05,-8e-05,-7e-05,3
9370,9704,2e-05,-7e-05,-2.9999999999999997e-05,-2.9999999999999997e-05,-1e-05,1e-05,-8e-05,-7e-05,3
9371,9705,2e-05,-7e-05,-2.9999999999999997e-05,-2.9999999999999997e-05,-1e-05,1e-05,-8e-05,-7e-05,3
9372,9706,2e-05,-7e-05,-2.9999999999999997e-05,-2.9999999999999997e-05,-1e-05,1e-05,-8e-05,-7e-05,3
9373,9707,2e-05,-7e-05,-2.9999999999999997e-05,-2.9999999999999997e-05,-1e-05,1e-05,-8e-05,-7e-05,3
9374,9708,2e-05,-7e-05,-2.9999999999999997e-05,-2.9999999999999997e-05,-1e-05,1e-05,-8e-05,-7e-05,3
9375,9709,2e-05,-7e-05,-2.9999999999999997e-05,-2.9999999999999997e-05,-1e-05,1e-05,-8e-05,-7e-05,3
9376,9710,-0.00016999999999999999,-2e-05,-9e-05,1e-05,0.00016,-0.0001,-9e-05,-0.00039,3
9377,9711,-0.00016999999999999999,-2e-05,-9e-05,1e-05,0.00016,-0.0001,-9e-05,-0.00039,3
9378,9712,-0.00016999999999999999,-2e-05,-9e-05,1e-05,0.00016,-0.0001,-9e-05,-0.00039,3
9379,9713,-0.00016999999999999999,-2e-05,-9e-05,1e-05,0.00016,-0.0001,-9e-05,-0.00039,3
9380,9714,-0.00016999999999999999,-2e-05,-9e-05,1e-05,0.00016,-0.0001,-9e-05,-0.00039,3
9381,9715,-0.00016999999999999999,-2e-05,-9e-05,1e-05,0.00016,-0.0001,-9e-05,-0.00039,3
9382,9716,-0.00016999999999999999,-2e-05,-9e-05,1e-05,0.00016,-0.0001,-9e-05,-0.00039,3
9383,9717,-0.00016999999999999999,-2e-05,-9e-05,1e-05,0.00016,-0.0001,-9e-05,-0.00039,3
9384,9718,-0.00016999999999999999,-2e-05,-9e-05,1e-05,0.00016,-0.0001,-9e-05,-0.00039,3
9385,9719,-0.00016999999999999999,-2e-05,-9e-05,1e-05,0.00016,-0.0001,-9e-05,-0.00039,3
9386,9720,-0.00016999999999999999,-2e-05,-9e-05,1e-05,0.00016,-0.0001,-9e-05,-0.00039,3
9387,9721,-0.00016999999999999999,-2e-05,-9e-05,1e-05,0.00016,-0.0001,-9e-05,-0.00039,3
9388,9722,-0.00016999999999999999,-2e-05,-9e-05,1e-05,0.00016,-0.0001,-9e-05,-0.00039,3
9389,9723,-0.00016999999999999999,-2e-05,-9e-05,1e-05,0.00016,-0.0001,-9e-05,-0.00039,3
9390,9724,9e-05,-0.00011999999999999999,-2.9999999999999997e-05,-7e-05,-0.00031,-8e-05,-5.9999999999999995e-05,9e-05,3
9391,9725,0.00011999999999999999,-0.00014,-0.00016,-0.00016999999999999999,-0.00022,-0.00016,-5.9999999999999995e-05,0.00016999999999999999,3
9392,9726,0.00011999999999999999,-0.00014,-0.00016,-0.00016999999999999999,-0.00022,-0.00016,-5.9999999999999995e-05,0.00016999999999999999,3
9393,9727,0.00011999999999999999,-0.00014,-0.00016,-0.00016999999999999999,-0.00022,-0.00016,-5.9999999999999995e-05,0.00016999999999999999,3
9394,9728,0.00011999999999999999,-0.00014,-0.00016,-0.00016999999999999999,-0.00022,-0.00016,-5.9999999999999995e-05,0.00016999999999999999,3
9395,9729,0.00011999999999999999,-0.00014,-0.00016,-0.00016999999999999999,-0.00022,-0.00016,-5.9999999999999995e-05,0.00016999999999999999,3
9396,9730,0.00011999999999999999,-0.00014,-0.00016,-0.00016999999999999999,-0.00022,-0.00016,-5.9999999999999995e-05,0.00016999999999999999,3
9397,9731,0.00011999999999999999,-0.00014,-0.00016,-0.00016999999999999999,-0.00022,-0.00016,-5.9999999999999995e-05,0.00016999999999999999,3
9398,9732,0.00011999999999999999,-0.00014,-0.00016,-0.00016999999999999999,-0.00022,-0.00016,-5.9999999999999995e-05,0.00016999999999999999,3
9399,9733,0.00011999999999999999,-0.00014,-0.00016,-0.00016999999999999999,-0.00022,-0.00016,-5.9999999999999995e-05,0.00016999999999999999,3
9400,9734,0.00011999999999999999,-0.00014,-0.00016,-0.00016999999999999999,-0.00022,-0.00016,-5.9999999999999995e-05,0.00016999999999999999,3
9401,9735,0.00011999999999999999,-0.00014,-0.00016,-0.00016999999999999999,-0.00022,-0.00016,-5.9999999999999995e-05,0.00016999999999999999,3
9402,9736,0.00011999999999999999,-0.00014,-0.00016,-0.00016999999999999999,-0.00022,-0.00016,-5.9999999999999995e-05,0.00016999999999999999,3
9403,9739,0.00011999999999999999,-0.00014,-0.00016,-0.00016999999999999999,-0.00022,-0.00016,-5.9999999999999995e-05,0.00016999999999999999,3
9404,9740,0.00011999999999999999,-0.00014,-0.00016,-0.00016999999999999999,-0.00022,-0.00016,-5.9999999999999995e-05,0.00016999999999999999,3
9405,9741,0.00011999999999999999,-0.00014,-0.00016,-0.00016999999999999999,-0.00022,-0.00016,-5.9999999999999995e-05,0.00016999999999999999,3
9406,9742,0.00011999999999999999,-0.00014,-0.00016,-0.00016999999999999999,-0.00022,-0.00016,-5.9999999999999995e-05,0.00016999999999999999,3
9407,9743,0.00011999999999999999,-0.00014,-0.00016,-0.00016999999999999999,-0.00022,-0.00016,-5.9999999999999995e-05,0.00016999999999999999,3
9408,9744,0.00011999999999999999,-0.00014,-0.00016,-0.00016999999999999999,-0.00022,-0.00016,-5.9999999999999995e-05,0.00016999999999999999,3
9409,9745,0.00011999999999999999,-0.00014,-0.00016,-0.00016999999999999999,-0.00022,-0.00016,-5.9999999999999995e-05,0.00016999999999999999,3
9410,9746,0.00011999999999999999,-0.00014,-0.00016,-0.00016999999999999999,-0.00022,-0.00016,-5.9999999999999995e-05,0.00016999999999999999,3
9411,9747,0.00011,2e-05,5e-05,7e-05,5.9999999999999995e-05,-0.00014,7e-05,-4e-05,3
9412,9748,0.00014,8e-05,2.9999999999999997e-05,-2e-05,0.00016,0.00016,0.00013000000000000002,-1e-05,3
9413,9749,0.00014,8e-05,2.9999999999999997e-05,-2e-05,0.00016,0.00016,0.00013000000000000002,-1e-05,3
9414,9750,0.00014,8e-05,2.9999999999999997e-05,-2e-05,0.00016,0.00016,0.00013000000000000002,-1e-05,3
9415,9751,0.00014,8e-05,2.9999999999999997e-05,-2e-05,0.00016,0.00016,0.00013000000000000002,-1e-05,3
9416,9752,0.00014,8e-05,2.9999999999999997e-05,-2e-05,0.00016,0.00016,0.00013000000000000002,-1e-05,3
9417,9753,0.00014,8e-05,2.9999999999999997e-05,-2e-05,0.00016,0.00016,0.00013000000000000002,-1e-05,3
9418,9754,0.00014,8e-05,2.9999999999999997e-05,-2e-05,0.00016,0.00016,0.00013000000000000002,-1e-05,3
9419,9755,0.00014,8e-05,2.9999999999999997e-05,-2e-05,0.00016,0.00016,0.00013000000000000002,-1e-05,3
9420,9756,0.00014,8e-05,2.9999999999999997e-05,-2e-05,0.00016,0.00016,0.00013000000000000002,-1e-05,3
9421,9757,0.00014,8e-05,2.9999999999999997e-05,-2e-05,0.00016,0.00016,0.00013000000000000002,-1e-05,3
9422,9758,0.00014,8e-05,2.9999999999999997e-05,-2e-05,0.00016,0.00016,0.00013000000000000002,-1e-05,3
9423,9759,0.00014,8e-05,2.9999999999999997e-05,-2e-05,0.00016,0.00016,0.00013000000000000002,-1e-05,3
9424,9760,0.00014,8e-05,2.9999999999999997e-05,-2e-05,0.00016,0.00016,0.00013000000000000002,-1e-05,3
9425,9761,0.00014,8e-05,2.9999999999999997e-05,-2e-05,0.00016,0.00016,0.00013000000000000002,-1e-05,3
9426,9762,0.00014,8e-05,2.9999999999999997e-05,-2e-05,0.00016,0.00016,0.00013000000000000002,-1e-05,3
9427,9763,0.00014,8e-05,2.9999999999999997e-05,-2e-05,0.00016,0.00016,0.00013000000000000002,-1e-05,3
9428,9764,0.00014,8e-05,2.9999999999999997e-05,-2e-05,0.00016,0.00016,0.00013000000000000002,-1e-05,3
9429,9765,0.00014,8e-05,2.9999999999999997e-05,-2e-05,0.00016,0.00016,0.00013000000000000002,-1e-05,3
9430,9766,0.00014,8e-05,2.9999999999999997e-05,-2e-05,0.00016,0.00016,0.00013000000000000002,-1e-05,3
9431,9767,0.00014,8e-05,2.9999999999999997e-05,-2e-05,0.00016,0.00016,0.00013000000000000002,-1e-05,3
9432,9768,0.00014,8e-05,2.9999999999999997e-05,-2e-05,0.00016,0.00016,0.00013000000000000002,-1e-05,3
9433,9769,0.00014,8e-05,2.9999999999999997e-05,-2e-05,0.00016,0.00016,0.00013000000000000002,-1e-05,3
9434,9770,0.00016999999999999999,0.00011,-2e-05,-7e-05,-0.00022,-0.00014,-0.00029,0.0002,3
9435,9771,0.00016999999999999999,0.00011,-2e-05,-7e-05,-0.00022,-0.00014,-0.00029,0.0002,3
9436,9772,-0.00027,-0.00023999999999999998,-8e-05,-4e-05,0.00013000000000000002,0.00015,4e-05,-0.0002,3
9437,9773,-0.00027,-0.00023999999999999998,-8e-05,-4e-05,0.00013000000000000002,0.00015,4e-05,-0.0002,3
9438,9774,-0.00027,-0.00023999999999999998,-8e-05,-4e-05,0.00013000000000000002,0.00015,4e-05,-0.0002,3
9439,9775,-0.00027,-0.00023999999999999998,-8e-05,-4e-05,0.00013000000000000002,0.00015,4e-05,-0.0002,3
9440,9776,-0.00027,-0.00023999999999999998,-8e-05,-4e-05,0.00013000000000000002,0.00015,4e-05,-0.0002,3
9441,9777,-0.00027,-0.00023999999999999998,-8e-05,-4e-05,0.00013000000000000002,0.00015,4e-05,-0.0002,3
9442,9778,-0.00027,-0.00023999999999999998,-8e-05,-4e-05,0.00013000000000000002,0.00015,4e-05,-0.0002,3
9443,9779,-0.00027,-0.00023999999999999998,-8e-05,-4e-05,0.00013000000000000002,0.00015,4e-05,-0.0002,3
9444,9780,-0.00027,-0.00023999999999999998,-8e-05,-4e-05,0.00013000000000000002,0.00015,4e-05,-0.0002,3
9445,9781,-0.00027,-0.00023999999999999998,-8e-05,-4e-05,0.00013000000000000002,0.00015,4e-05,-0.0002,3
9446,9782,-0.00027,-0.00023999999999999998,-8e-05,-4e-05,0.00013000000000000002,0.00015,4e-05,-0.0002,3
9447,9783,-0.00027,-0.00023999999999999998,-8e-05,-4e-05,0.00013000000000000002,0.00015,4e-05,-0.0002,3
9448,9784,0.00014,-1e-05,2e-05,-2e-05,-5.9999999999999995e-05,4e-05,7e-05,0.00011,3
9449,9785,-9e-05,-2.9999999999999997e-05,-2.9999999999999997e-05,5.9999999999999995e-05,-0.00018999999999999998,0.00021,-4e-05,0.00011999999999999999,3
9450,9786,-9e-05,-2.9999999999999997e-05,-2.9999999999999997e-05,5.9999999999999995e-05,-0.00018999999999999998,0.00021,-4e-05,0.00011999999999999999,3
9451,9789,-9e-05,-2.9999999999999997e-05,-2.9999999999999997e-05,5.9999999999999995e-05,-0.00018999999999999998,0.00021,-4e-05,0.00011999999999999999,3
9452,9790,-9e-05,-2.9999999999999997e-05,-2.9999999999999997e-05,5.9999999999999995e-05,-0.00018999999999999998,0.00021,-4e-05,0.00011999999999999999,3
9453,9791,-9e-05,-2.9999999999999997e-05,-2.9999999999999997e-05,5.9999999999999995e-05,-0.00018999999999999998,0.00021,-4e-05,0.00011999999999999999,3
9454,9792,-9e-05,-2.9999999999999997e-05,-2.9999999999999997e-05,5.9999999999999995e-05,-0.00018999999999999998,0.00021,-4e-05,0.00011999999999999999,3
9455,9793,-9e-05,-2.9999999999999997e-05,-2.9999999999999997e-05,5.9999999999999995e-05,-0.00018999999999999998,0.00021,-4e-05,0.00011999999999999999,3
9456,9794,-9e-05,-2.9999999999999997e-05,-2.9999999999999997e-05,5.9999999999999995e-05,-0.00018999999999999998,0.00021,-4e-05,0.00011999999999999999,3
9457,9795,-9e-05,-2.9999999999999997e-05,-2.9999999999999997e-05,5.9999999999999995e-05,-0.00018999999999999998,0.00021,-4e-05,0.00011999999999999999,3
9458,9796,-9e-05,-2.9999999999999997e-05,-2.9999999999999997e-05,5.9999999999999995e-05,-0.00018999999999999998,0.00021,-4e-05,0.00011999999999999999,3
9459,9797,-9e-05,-2.9999999999999997e-05,-2.9999999999999997e-05,5.9999999999999995e-05,-0.00018999999999999998,0.00021,-4e-05,0.00011999999999999999,3
9460,9798,-9e-05,-2.9999999999999997e-05,-2.9999999999999997e-05,5.9999999999999995e-05,-0.00018999999999999998,0.00021,-4e-05,0.00011999999999999999,3
9461,9799,-9e-05,-2.9999999999999997e-05,-2.9999999999999997e-05,5.9999999999999995e-05,-0.00018999999999999998,0.00021,-4e-05,0.00011999999999999999,3
9462,9800,-9e-05,-2.9999999999999997e-05,-2.9999999999999997e-05,5.9999999999999995e-05,-0.00018999999999999998,0.00021,-4e-05,0.00011999999999999999,3
9463,9801,-9e-05,-2.9999999999999997e-05,-2.9999999999999997e-05,5.9999999999999995e-05,-0.00018999999999999998,0.00021,-4e-05,0.00011999999999999999,3
9464,9802,-9e-05,-2.9999999999999997e-05,-2.9999999999999997e-05,5.9999999999999995e-05,-0.00018999999999999998,0.00021,-4e-05,0.00011999999999999999,3
9465,9803,-9e-05,-2.9999999999999997e-05,-2.9999999999999997e-05,5.9999999999999995e-05,-0.00018999999999999998,0.00021,-4e-05,0.00011999999999999999,3
9466,9804,-9e-05,-2.9999999999999997e-05,-2.9999999999999997e-05,5.9999999999999995e-05,-0.00018999999999999998,0.00021,-4e-05,0.00011999999999999999,3
9467,9805,-9e-05,-2.9999999999999997e-05,-2.9999999999999997e-05,5.9999999999999995e-05,-0.00018999999999999998,0.00021,-4e-05,0.00011999999999999999,3
9468,9806,-9e-05,-2.9999999999999997e-05,-2.9999999999999997e-05,5.9999999999999995e-05,-0.00018999999999999998,0.00021,-4e-05,0.00011999999999999999,3
9469,9807,-5.9999999999999995e-05,-0.00014,-1e-05,0.00016,0.00043,0.0002,0.00016999999999999999,-2.9999999999999997e-05,3
9470,9808,0.0002,0.00016,2.9999999999999997e-05,5e-05,0.00021,-0.00014,0.00027,0.0005200000000000001,3
9471,9809,0.0002,0.00016,2.9999999999999997e-05,5e-05,0.00021,-0.00014,0.00027,0.0005200000000000001,3
9472,9810,0.0002,0.00016,2.9999999999999997e-05,5e-05,0.00021,-0.00014,0.00027,0.0005200000000000001,3
9473,9811,0.0002,0.00016,2.9999999999999997e-05,5e-05,0.00021,-0.00014,0.00027,0.0005200000000000001,3
9474,9812,0.0002,0.00016,2.9999999999999997e-05,5e-05,0.00021,-0.00014,0.00027,0.0005200000000000001,3
9475,9813,0.0002,0.00016,2.9999999999999997e-05,5e-05,0.00021,-0.00014,0.00027,0.0005200000000000001,3
9476,9814,0.0002,0.00016,2.9999999999999997e-05,5e-05,0.00021,-0.00014,0.00027,0.0005200000000000001,3
9477,9815,0.0002,0.00016,2.9999999999999997e-05,5e-05,0.00021,-0.00014,0.00027,0.0005200000000000001,3
9478,9816,0.0002,0.00016,2.9999999999999997e-05,5e-05,0.00021,-0.00014,0.00027,0.0005200000000000001,3
9479,9817,0.0002,0.00016,2.9999999999999997e-05,5e-05,0.00021,-0.00014,0.00027,0.0005200000000000001,3
9480,9818,0.0002,0.00016,2.9999999999999997e-05,5e-05,0.00021,-0.00014,0.00027,0.0005200000000000001,3
9481,9819,0.0002,0.00016,2.9999999999999997e-05,5e-05,0.00021,-0.00014,0.00027,0.0005200000000000001,3
9482,9820,0.0002,0.00016,2.9999999999999997e-05,5e-05,0.00021,-0.00014,0.00027,0.0005200000000000001,3
9483,9821,0.0002,0.00016,2.9999999999999997e-05,5e-05,0.00021,-0.00014,0.00027,0.0005200000000000001,3
9484,9822,5e-05,-5.9999999999999995e-05,-9e-05,-0.00014,-0.00033,-0.00018,-0.00014,-5.9999999999999995e-05,3
9485,9823,5e-05,-5.9999999999999995e-05,-9e-05,-0.00014,-0.00033,-0.00018,-0.00014,-5.9999999999999995e-05,3
9486,9824,5e-05,-5.9999999999999995e-05,-9e-05,-0.00014,-0.00033,-0.00018,-0.00014,-5.9999999999999995e-05,3
9487,9825,5e-05,-5.9999999999999995e-05,-9e-05,-0.00014,-0.00033,-0.00018,-0.00014,-5.9999999999999995e-05,3
9488,9826,5e-05,-5.9999999999999995e-05,-9e-05,-0.00014,-0.00033,-0.00018,-0.00014,-5.9999999999999995e-05,3
9489,9827,5e-05,-5.9999999999999995e-05,-9e-05,-0.00014,-0.00033,-0.00018,-0.00014,-5.9999999999999995e-05,3
9490,9828,5e-05,-5.9999999999999995e-05,-9e-05,-0.00014,-0.00033,-0.00018,-0.00014,-5.9999999999999995e-05,3
9491,9829,5e-05,-5.9999999999999995e-05,-9e-05,-0.00014,-0.00033,-0.00018,-0.00014,-5.9999999999999995e-05,3
9492,9830,9e-05,-2e-05,-5.9999999999999995e-05,7e-05,0.00018999999999999998,-5.9999999999999995e-05,-0.00016,-0.00022,3
9493,9831,9e-05,-2e-05,-5.9999999999999995e-05,7e-05,0.00018999999999999998,-5.9999999999999995e-05,-0.00016,-0.00022,3
9494,9832,9e-05,-2e-05,-5.9999999999999995e-05,7e-05,0.00018999999999999998,-5.9999999999999995e-05,-0.00016,-0.00022,3
9495,9833,9e-05,-2e-05,-5.9999999999999995e-05,7e-05,0.00018999999999999998,-5.9999999999999995e-05,-0.00016,-0.00022,3
9496,9834,9e-05,-2e-05,-5.9999999999999995e-05,7e-05,0.00018999999999999998,-5.9999999999999995e-05,-0.00016,-0.00022,3
9497,9835,9e-05,-2e-05,-5.9999999999999995e-05,7e-05,0.00018999999999999998,-5.9999999999999995e-05,-0.00016,-0.00022,3
9498,9836,9e-05,-2e-05,-5.9999999999999995e-05,7e-05,0.00018999999999999998,-5.9999999999999995e-05,-0.00016,-0.00022,3
9499,9839,9e-05,-2e-05,-5.9999999999999995e-05,7e-05,0.00018999999999999998,-5.9999999999999995e-05,-0.00016,-0.00022,3
9500,9840,9e-05,-2e-05,-5.9999999999999995e-05,7e-05,0.00018999999999999998,-5.9999999999999995e-05,-0.00016,-0.00022,3
9501,9841,9e-05,-2e-05,-5.9999999999999995e-05,7e-05,0.00018999999999999998,-5.9999999999999995e-05,-0.00016,-0.00022,3
9502,9842,9e-05,-2e-05,-5.9999999999999995e-05,7e-05,0.00018999999999999998,-5.9999999999999995e-05,-0.00016,-0.00022,3
9503,9843,9e-05,-2e-05,-5.9999999999999995e-05,7e-05,0.00018999999999999998,-5.9999999999999995e-05,-0.00016,-0.00022,3
9504,9844,9e-05,-2e-05,-5.9999999999999995e-05,7e-05,0.00018999999999999998,-5.9999999999999995e-05,-0.00016,-0.00022,3
9505,9845,-7e-05,5.9999999999999995e-05,9e-05,5.9999999999999995e-05,0.00021,0.00032,5.9999999999999995e-05,9e-05,3
9506,9846,-7e-05,5.9999999999999995e-05,9e-05,5.9999999999999995e-05,0.00021,0.00032,5.9999999999999995e-05,9e-05,3
9507,9847,-7e-05,5.9999999999999995e-05,9e-05,5.9999999999999995e-05,0.00021,0.00032,5.9999999999999995e-05,9e-05,3
9508,9848,-7e-05,5.9999999999999995e-05,9e-05,5.9999999999999995e-05,0.00021,0.00032,5.9999999999999995e-05,9e-05,3
9509,9849,-7e-05,5.9999999999999995e-05,9e-05,5.9999999999999995e-05,0.00021,0.00032,5.9999999999999995e-05,9e-05,3
9510,9850,-7e-05,5.9999999999999995e-05,9e-05,5.9999999999999995e-05,0.00021,0.00032,5.9999999999999995e-05,9e-05,3
9511,9851,-7e-05,5.9999999999999995e-05,9e-05,5.9999999999999995e-05,0.00021,0.00032,5.9999999999999995e-05,9e-05,3
9512,9852,-7e-05,5.9999999999999995e-05,9e-05,5.9999999999999995e-05,0.00021,0.00032,5.9999999999999995e-05,9e-05,3
9513,9853,-7e-05,5.9999999999999995e-05,9e-05,5.9999999999999995e-05,0.00021,0.00032,5.9999999999999995e-05,9e-05,3
9514,9854,-7e-05,5.9999999999999995e-05,9e-05,5.9999999999999995e-05,0.00021,0.00032,5.9999999999999995e-05,9e-05,3
9515,9855,-7e-05,5.9999999999999995e-05,9e-05,5.9999999999999995e-05,0.00021,0.00032,5.9999999999999995e-05,9e-05,3
9516,9856,-7e-05,5.9999999999999995e-05,9e-05,5.9999999999999995e-05,0.00021,0.00032,5.9999999999999995e-05,9e-05,3
9517,9857,-7e-05,5.9999999999999995e-05,9e-05,5.9999999999999995e-05,0.00021,0.00032,5.9999999999999995e-05,9e-05,3
9518,9858,-7e-05,5.9999999999999995e-05,9e-05,5.9999999999999995e-05,0.00021,0.00032,5.9999999999999995e-05,9e-05,3
9519,9859,-7e-05,5.9999999999999995e-05,9e-05,5.9999999999999995e-05,0.00021,0.00032,5.9999999999999995e-05,9e-05,3
9520,9860,-7e-05,5.9999999999999995e-05,9e-05,5.9999999999999995e-05,0.00021,0.00032,5.9999999999999995e-05,9e-05,3
9521,9861,-7e-05,5.9999999999999995e-05,9e-05,5.9999999999999995e-05,0.00021,0.00032,5.9999999999999995e-05,9e-05,3
9522,9862,-7e-05,5.9999999999999995e-05,9e-05,5.9999999999999995e-05,0.00021,0.00032,5.9999999999999995e-05,9e-05,3
9523,9863,-7e-05,5.9999999999999995e-05,9e-05,5.9999999999999995e-05,0.00021,0.00032,5.9999999999999995e-05,9e-05,3
9524,9864,-7e-05,5.9999999999999995e-05,9e-05,5.9999999999999995e-05,0.00021,0.00032,5.9999999999999995e-05,9e-05,3
9525,9865,-7e-05,5.9999999999999995e-05,9e-05,5.9999999999999995e-05,0.00021,0.00032,5.9999999999999995e-05,9e-05,3
9526,9866,-7e-05,5.9999999999999995e-05,9e-05,5.9999999999999995e-05,0.00021,0.00032,5.9999999999999995e-05,9e-05,3
9527,9867,-2.9999999999999997e-05,5e-05,0.0,-5.9999999999999995e-05,-0.00013000000000000002,2e-05,5.9999999999999995e-05,-0.00018,3
9528,9868,-0.00035,7e-05,9e-05,0.00016,0.00041,5e-05,2.9999999999999997e-05,-8e-05,3
9529,9869,-0.00035,7e-05,9e-05,0.00016,0.00041,5e-05,2.9999999999999997e-05,-8e-05,3
9530,9870,-0.00035,7e-05,9e-05,0.00016,0.00041,5e-05,2.9999999999999997e-05,-8e-05,3
9531,9871,-0.00035,7e-05,9e-05,0.00016,0.00041,5e-05,2.9999999999999997e-05,-8e-05,3
9532,9872,-0.00035,7e-05,9e-05,0.00016,0.00041,5e-05,2.9999999999999997e-05,-8e-05,3
9533,9873,-0.00035,7e-05,9e-05,0.00016,0.00041,5e-05,2.9999999999999997e-05,-8e-05,3
9534,9874,-0.00035,7e-05,9e-05,0.00016,0.00041,5e-05,2.9999999999999997e-05,-8e-05,3
9535,9875,-0.00035,7e-05,9e-05,0.00016,0.00041,5e-05,2.9999999999999997e-05,-8e-05,3
9536,9876,-0.00035,7e-05,9e-05,0.00016,0.00041,5e-05,2.9999999999999997e-05,-8e-05,3
9537,9877,-0.00035,7e-05,9e-05,0.00016,0.00041,5e-05,2.9999999999999997e-05,-8e-05,3
9538,9878,-0.00035,7e-05,9e-05,0.00016,0.00041,5e-05,2.9999999999999997e-05,-8e-05,3
9539,9879,-0.00035,7e-05,9e-05,0.00016,0.00041,5e-05,2.9999999999999997e-05,-8e-05,3
9540,9880,-0.00035,7e-05,9e-05,0.00016,0.00041,5e-05,2.9999999999999997e-05,-8e-05,3
9541,9881,5.9999999999999995e-05,-0.0001,-5e-05,-4e-05,-0.00016,-0.00014,-0.00022999999999999998,-0.00033,3
9542,9882,5.9999999999999995e-05,-0.0001,-5e-05,-4e-05,-0.00016,-0.00014,-0.00022999999999999998,-0.00033,3
9543,9883,5.9999999999999995e-05,-0.0001,-5e-05,-4e-05,-0.00016,-0.00014,-0.00022999999999999998,-0.00033,3
9544,9884,5.9999999999999995e-05,-0.0001,-5e-05,-4e-05,-0.00016,-0.00014,-0.00022999999999999998,-0.00033,3
9545,9885,5.9999999999999995e-05,-0.0001,-5e-05,-4e-05,-0.00016,-0.00014,-0.00022999999999999998,-0.00033,3
9546,9886,5.9999999999999995e-05,-0.0001,-5e-05,-4e-05,-0.00016,-0.00014,-0.00022999999999999998,-0.00033,3
9547,9889,5.9999999999999995e-05,-0.0001,-5e-05,-4e-05,-0.00016,-0.00014,-0.00022999999999999998,-0.00033,3
9548,9890,0.00016,0.00013000000000000002,-1e-05,-0.0001,-0.0001,0.00013000000000000002,0.00013000000000000002,-0.00014,3
9549,9891,0.00016,0.00013000000000000002,-1e-05,-0.0001,-0.0001,0.00013000000000000002,0.00013000000000000002,-0.00014,3
9550,9892,0.00016,0.00013000000000000002,-1e-05,-0.0001,-0.0001,0.00013000000000000002,0.00013000000000000002,-0.00014,3
9551,9893,0.00016,0.00013000000000000002,-1e-05,-0.0001,-0.0001,0.00013000000000000002,0.00013000000000000002,-0.00014,3
9552,9894,0.00016,0.00013000000000000002,-1e-05,-0.0001,-0.0001,0.00013000000000000002,0.00013000000000000002,-0.00014,3
9553,9895,0.00016,0.00013000000000000002,-1e-05,-0.0001,-0.0001,0.00013000000000000002,0.00013000000000000002,-0.00014,3
9554,9896,0.00016,0.00013000000000000002,-1e-05,-0.0001,-0.0001,0.00013000000000000002,0.00013000000000000002,-0.00014,3
9555,9897,0.00016,0.00013000000000000002,-1e-05,-0.0001,-0.0001,0.00013000000000000002,0.00013000000000000002,-0.00014,3
9556,9898,0.00016,0.00013000000000000002,-1e-05,-0.0001,-0.0001,0.00013000000000000002,0.00013000000000000002,-0.00014,3
9557,9899,0.00016,0.00013000000000000002,-1e-05,-0.0001,-0.0001,0.00013000000000000002,0.00013000000000000002,-0.00014,3
9558,9900,0.00016,0.00013000000000000002,-1e-05,-0.0001,-0.0001,0.00013000000000000002,0.00013000000000000002,-0.00014,3
9559,9901,0.00016,0.00013000000000000002,-1e-05,-0.0001,-0.0001,0.00013000000000000002,0.00013000000000000002,-0.00014,3
9560,9902,0.00016,0.00013000000000000002,-1e-05,-0.0001,-0.0001,0.00013000000000000002,0.00013000000000000002,-0.00014,3
9561,9903,0.00016,0.00013000000000000002,-1e-05,-0.0001,-0.0001,0.00013000000000000002,0.00013000000000000002,-0.00014,3
9562,9904,0.00016,0.00013000000000000002,-1e-05,-0.0001,-0.0001,0.00013000000000000002,0.00013000000000000002,-0.00014,3
9563,9905,0.00016,0.00013000000000000002,-1e-05,-0.0001,-0.0001,0.00013000000000000002,0.00013000000000000002,-0.00014,3
9564,9906,0.00032,9e-05,-0.00013000000000000002,-0.00022999999999999998,-0.00031,2e-05,-0.00011999999999999999,-9e-05,3
9565,9907,0.00032,9e-05,-0.00013000000000000002,-0.00022999999999999998,-0.00031,2e-05,-0.00011999999999999999,-9e-05,3
9566,9908,0.00032,9e-05,-0.00013000000000000002,-0.00022999999999999998,-0.00031,2e-05,-0.00011999999999999999,-9e-05,3
9567,9909,0.00032,9e-05,-0.00013000000000000002,-0.00022999999999999998,-0.00031,2e-05,-0.00011999999999999999,-9e-05,3
9568,9910,0.00032,9e-05,-0.00013000000000000002,-0.00022999999999999998,-0.00031,2e-05,-0.00011999999999999999,-9e-05,3
9569,9911,0.00032,9e-05,-0.00013000000000000002,-0.00022999999999999998,-0.00031,2e-05,-0.00011999999999999999,-9e-05,3
9570,9912,0.00032,9e-05,-0.00013000000000000002,-0.00022999999999999998,-0.00031,2e-05,-0.00011999999999999999,-9e-05,3
9571,9913,0.00032,9e-05,-0.00013000000000000002,-0.00022999999999999998,-0.00031,2e-05,-0.00011999999999999999,-9e-05,3
9572,9914,0.00032,9e-05,-0.00013000000000000002,-0.00022999999999999998,-0.00031,2e-05,-0.00011999999999999999,-9e-05,3
9573,9915,0.00032,9e-05,-0.00013000000000000002,-0.00022999999999999998,-0.00031,2e-05,-0.00011999999999999999,-9e-05,3
9574,9916,0.00032,9e-05,-0.00013000000000000002,-0.00022999999999999998,-0.00031,2e-05,-0.00011999999999999999,-9e-05,3
9575,9917,0.00032,9e-05,-0.00013000000000000002,-0.00022999999999999998,-0.00031,2e-05,-0.00011999999999999999,-9e-05,3
9576,9918,0.00032,9e-05,-0.00013000000000000002,-0.00022999999999999998,-0.00031,2e-05,-0.00011999999999999999,-9e-05,3
9577,9919,0.00032,9e-05,-0.00013000000000000002,-0.00022999999999999998,-0.00031,2e-05,-0.00011999999999999999,-9e-05,3
9578,9920,0.00032,9e-05,-0.00013000000000000002,-0.00022999999999999998,-0.00031,2e-05,-0.00011999999999999999,-9e-05,3
9579,9921,0.00032,9e-05,-0.00013000000000000002,-0.00022999999999999998,-0.00031,2e-05,-0.00011999999999999999,-9e-05,3
9580,9922,0.00032,9e-05,-0.00013000000000000002,-0.00022999999999999998,-0.00031,2e-05,-0.00011999999999999999,-9e-05,3
9581,9923,0.00032,9e-05,-0.00013000000000000002,-0.00022999999999999998,-0.00031,2e-05,-0.00011999999999999999,-9e-05,3
9582,9924,0.00032,9e-05,-0.00013000000000000002,-0.00022999999999999998,-0.00031,2e-05,-0.00011999999999999999,-9e-05,3
9583,9925,0.00032,9e-05,-0.00013000000000000002,-0.00022999999999999998,-0.00031,2e-05,-0.00011999999999999999,-9e-05,3
9584,9926,0.00032,9e-05,-0.00013000000000000002,-0.00022999999999999998,-0.00031,2e-05,-0.00011999999999999999,-9e-05,3
9585,9927,0.00027,0.00013000000000000002,2e-05,-0.00018999999999999998,-0.00028,-0.00022,9e-05,0.0006799999999999999,3
9586,9928,-0.00018,-0.00011,-5e-05,-4e-05,-0.0002,-0.00027,-9e-05,8e-05,3
9587,9929,-0.00018,-0.00011,-5e-05,-4e-05,-0.0002,-0.00027,-9e-05,8e-05,3
9588,9930,-0.00018,-0.00011,-5e-05,-4e-05,-0.0002,-0.00027,-9e-05,8e-05,3
9589,9931,-0.00018,-0.00011,-5e-05,-4e-05,-0.0002,-0.00027,-9e-05,8e-05,3
9590,9932,-0.00018,-0.00011,-5e-05,-4e-05,-0.0002,-0.00027,-9e-05,8e-05,3
9591,9933,-0.00018,-0.00011,-5e-05,-4e-05,-0.0002,-0.00027,-9e-05,8e-05,3
9592,9934,-0.00018,-0.00011,-5e-05,-4e-05,-0.0002,-0.00027,-9e-05,8e-05,3
9593,9935,-0.00018,-0.00011,-5e-05,-4e-05,-0.0002,-0.00027,-9e-05,8e-05,3
9594,9936,-0.00018,-0.00011,-5e-05,-4e-05,-0.0002,-0.00027,-9e-05,8e-05,3
9595,9938,-0.00018,-0.00011,-5e-05,-4e-05,-0.0002,-0.00027,-9e-05,8e-05,3
9596,9939,-0.00018,-0.00011,-5e-05,-4e-05,-0.0002,-0.00027,-9e-05,8e-05,3
9597,9940,-0.00018,-0.00011,-5e-05,-4e-05,-0.0002,-0.00027,-9e-05,8e-05,3
9598,9941,-0.00018,-0.00011,-5e-05,-4e-05,-0.0002,-0.00027,-9e-05,8e-05,3
9599,9942,-0.00018,-0.00011,-5e-05,-4e-05,-0.0002,-0.00027,-9e-05,8e-05,3
9600,9943,-0.00018,-0.00011,-5e-05,-4e-05,-0.0002,-0.00027,-9e-05,8e-05,3
9601,9944,-0.00018,-0.00011,-5e-05,-4e-05,-0.0002,-0.00027,-9e-05,8e-05,3
9602,9945,-0.00018,-0.00011,-5e-05,-4e-05,-0.0002,-0.00027,-9e-05,8e-05,3
9603,9946,-0.00018,-0.00011,-5e-05,-4e-05,-0.0002,-0.00027,-9e-05,8e-05,3
9604,9947,-0.00018,-0.00011,-5e-05,-4e-05,-0.0002,-0.00027,-9e-05,8e-05,3
9605,9948,-0.00018,-0.00011,-5e-05,-4e-05,-0.0002,-0.00027,-9e-05,8e-05,3
9606,9949,-0.00018,-0.00011,-5e-05,-4e-05,-0.0002,-0.00027,-9e-05,8e-05,3
9607,9950,2.9999999999999997e-05,9e-05,0.0,8e-05,0.00021,1e-05,-5e-05,0.00016,3
9608,9951,-4e-05,-9e-05,1e-05,-8e-05,5e-05,-0.00013000000000000002,-4e-05,2.9999999999999997e-05,3
9609,9952,-4e-05,-9e-05,1e-05,-8e-05,5e-05,-0.00013000000000000002,-4e-05,2.9999999999999997e-05,3
9610,9953,-4e-05,-9e-05,1e-05,-8e-05,5e-05,-0.00013000000000000002,-4e-05,2.9999999999999997e-05,3
9611,9954,-4e-05,-9e-05,1e-05,-8e-05,5e-05,-0.00013000000000000002,-4e-05,2.9999999999999997e-05,3
9612,9955,-4e-05,-9e-05,1e-05,-8e-05,5e-05,-0.00013000000000000002,-4e-05,2.9999999999999997e-05,3
9613,9956,-4e-05,-9e-05,1e-05,-8e-05,5e-05,-0.00013000000000000002,-4e-05,2.9999999999999997e-05,3
9614,9957,-4e-05,-9e-05,1e-05,-8e-05,5e-05,-0.00013000000000000002,-4e-05,2.9999999999999997e-05,3
9615,9958,-4e-05,-9e-05,1e-05,-8e-05,5e-05,-0.00013000000000000002,-4e-05,2.9999999999999997e-05,3
9616,9959,-4e-05,-9e-05,1e-05,-8e-05,5e-05,-0.00013000000000000002,-4e-05,2.9999999999999997e-05,3
9617,9960,-4e-05,-9e-05,1e-05,-8e-05,5e-05,-0.00013000000000000002,-4e-05,2.9999999999999997e-05,3
9618,9961,-4e-05,-9e-05,1e-05,-8e-05,5e-05,-0.00013000000000000002,-4e-05,2.9999999999999997e-05,3
9619,9962,-4e-05,-9e-05,1e-05,-8e-05,5e-05,-0.00013000000000000002,-4e-05,2.9999999999999997e-05,3
9620,9963,-4e-05,-9e-05,1e-05,-8e-05,5e-05,-0.00013000000000000002,-4e-05,2.9999999999999997e-05,3
9621,9964,2e-05,0.00011999999999999999,-2e-05,-5e-05,-0.00021,0.00011,0.00032,7e-05,3
9622,9965,-0.00028,-0.00014,-7e-05,-2e-05,4e-05,0.00021,0.00014,-0.00088,3
9623,9966,-0.00028,-0.00014,-7e-05,-2e-05,4e-05,0.00021,0.00014,-0.00088,3
9624,9967,-0.00028,-0.00014,-7e-05,-2e-05,4e-05,0.00021,0.00014,-0.00088,3
9625,9968,-0.00028,-0.00014,-7e-05,-2e-05,4e-05,0.00021,0.00014,-0.00088,3
9626,9969,-0.00028,-0.00014,-7e-05,-2e-05,4e-05,0.00021,0.00014,-0.00088,3
9627,9970,-0.00028,-0.00014,-7e-05,-2e-05,4e-05,0.00021,0.00014,-0.00088,3
9628,9971,-0.00028,-0.00014,-7e-05,-2e-05,4e-05,0.00021,0.00014,-0.00088,3
9629,9972,-0.00028,-0.00014,-7e-05,-2e-05,4e-05,0.00021,0.00014,-0.00088,3
9630,9973,-0.00028,-0.00014,-7e-05,-2e-05,4e-05,0.00021,0.00014,-0.00088,3
9631,9974,-0.00028,-0.00014,-7e-05,-2e-05,4e-05,0.00021,0.00014,-0.00088,3
9632,9975,-0.00028,-0.00014,-7e-05,-2e-05,4e-05,0.00021,0.00014,-0.00088,3
9633,9976,-0.00028,-0.00014,-7e-05,-2e-05,4e-05,0.00021,0.00014,-0.00088,3
9634,9977,-0.00028,-0.00014,-7e-05,-2e-05,4e-05,0.00021,0.00014,-0.00088,3
9635,9978,-0.00028,-0.00014,-7e-05,-2e-05,4e-05,0.00021,0.00014,-0.00088,3
9636,9979,-0.00028,-0.00014,-7e-05,-2e-05,4e-05,0.00021,0.00014,-0.00088,3
9637,9980,-0.00028,-0.00014,-7e-05,-2e-05,4e-05,0.00021,0.00014,-0.00088,3
9638,9981,-0.00028,-0.00014,-7e-05,-2e-05,4e-05,0.00021,0.00014,-0.00088,3
9639,9982,-0.00028,-0.00014,-7e-05,-2e-05,4e-05,0.00021,0.00014,-0.00088,3
9640,9983,-0.00028,-0.00014,-7e-05,-2e-05,4e-05,0.00021,0.00014,-0.00088,3
9641,9984,-0.00028,-0.00014,-7e-05,-2e-05,4e-05,0.00021,0.00014,-0.00088,3
9642,9985,-0.00028,-0.00014,-7e-05,-2e-05,4e-05,0.00021,0.00014,-0.00088,3
9643,9986,-0.00028,-0.00014,-7e-05,-2e-05,4e-05,0.00021,0.00014,-0.00088,3
9644,9989,-0.00011,2.9999999999999997e-05,8e-05,5.9999999999999995e-05,-4e-05,-0.00031,-0.0005,0.00016,3
9645,9990,-0.00011,2.9999999999999997e-05,8e-05,5.9999999999999995e-05,-4e-05,-0.00031,-0.0005,0.00016,3
9646,9991,-0.00011,2.9999999999999997e-05,8e-05,5.9999999999999995e-05,-4e-05,-0.00031,-0.0005,0.00016,3
9647,9992,-0.00011,2.9999999999999997e-05,8e-05,5.9999999999999995e-05,-4e-05,-0.00031,-0.0005,0.00016,3
9648,9993,-0.00011,2.9999999999999997e-05,8e-05,5.9999999999999995e-05,-4e-05,-0.00031,-0.0005,0.00016,3
9649,9994,-0.00011,2.9999999999999997e-05,8e-05,5.9999999999999995e-05,-4e-05,-0.00031,-0.0005,0.00016,3
9650,9995,-0.00011,2.9999999999999997e-05,8e-05,5.9999999999999995e-05,-4e-05,-0.00031,-0.0005,0.00016,3
9651,9996,-0.00011,2.9999999999999997e-05,8e-05,5.9999999999999995e-05,-4e-05,-0.00031,-0.0005,0.00016,3
9652,9997,-0.00011,2.9999999999999997e-05,8e-05,5.9999999999999995e-05,-4e-05,-0.00031,-0.0005,0.00016,3
9653,9998,-0.00011,2.9999999999999997e-05,8e-05,5.9999999999999995e-05,-4e-05,-0.00031,-0.0005,0.00016,3
9654,9999,-0.00011,2.9999999999999997e-05,8e-05,5.9999999999999995e-05,-4e-05,-0.00031,-0.0005,0.00016,3
9655,10000,-0.00011,2.9999999999999997e-05,8e-05,5.9999999999999995e-05,-4e-05,-0.00031,-0.0005,0.00016,3
9656,10001,-0.00011,2.9999999999999997e-05,8e-05,5.9999999999999995e-05,-4e-05,-0.00031,-0.0005,0.00016,3
9657,10002,-0.00011,2.9999999999999997e-05,8e-05,5.9999999999999995e-05,-4e-05,-0.00031,-0.0005,0.00016,3
9658,10003,-0.00011,2.9999999999999997e-05,8e-05,5.9999999999999995e-05,-4e-05,-0.00031,-0.0005,0.00016,3
9659,10004,-0.00011,2.9999999999999997e-05,8e-05,5.9999999999999995e-05,-4e-05,-0.00031,-0.0005,0.00016,3
9660,10005,-0.00011,2.9999999999999997e-05,8e-05,5.9999999999999995e-05,-4e-05,-0.00031,-0.0005,0.00016,3
9661,10006,-0.00011,2.9999999999999997e-05,8e-05,5.9999999999999995e-05,-4e-05,-0.00031,-0.0005,0.00016,3
9662,10007,-0.00011,2.9999999999999997e-05,8e-05,5.9999999999999995e-05,-4e-05,-0.00031,-0.0005,0.00016,3
9663,10008,-0.00011,2.9999999999999997e-05,8e-05,5.9999999999999995e-05,-4e-05,-0.00031,-0.0005,0.00016,3
9664,10009,-0.00011,2.9999999999999997e-05,8e-05,5.9999999999999995e-05,-4e-05,-0.00031,-0.0005,0.00016,3
9665,10010,-0.00011,2.9999999999999997e-05,8e-05,5.9999999999999995e-05,-4e-05,-0.00031,-0.0005,0.00016,3
9666,10011,-0.00011,2.9999999999999997e-05,8e-05,5.9999999999999995e-05,-4e-05,-0.00031,-0.0005,0.00016,3
9667,10012,-0.00011,2.9999999999999997e-05,8e-05,5.9999999999999995e-05,-4e-05,-0.00031,-0.0005,0.00016,3
9668,10013,-0.00011,2.9999999999999997e-05,8e-05,5.9999999999999995e-05,-4e-05,-0.00031,-0.0005,0.00016,3
9669,10014,-0.00011,2.9999999999999997e-05,8e-05,5.9999999999999995e-05,-4e-05,-0.00031,-0.0005,0.00016,3
9670,10015,-0.00011,2.9999999999999997e-05,8e-05,5.9999999999999995e-05,-4e-05,-0.00031,-0.0005,0.00016,3
9671,10016,-0.00011,2.9999999999999997e-05,8e-05,5.9999999999999995e-05,-4e-05,-0.00031,-0.0005,0.00016,3
9672,10017,-0.00011,2.9999999999999997e-05,8e-05,5.9999999999999995e-05,-4e-05,-0.00031,-0.0005,0.00016,3
9673,10018,-2.9999999999999997e-05,-0.00016,-5.9999999999999995e-05,-2.9999999999999997e-05,-5.9999999999999995e-05,-9e-05,-0.00018,-0.00011,3
9674,10019,7e-05,-0.00013000000000000002,-2e-05,-5e-05,-0.00022,-9e-05,0.0,0.00039,3
9675,10020,7e-05,-0.00013000000000000002,-2e-05,-5e-05,-0.00022,-9e-05,0.0,0.00039,3
9676,10021,7e-05,-0.00013000000000000002,-2e-05,-5e-05,-0.00022,-9e-05,0.0,0.00039,3
9677,10022,7e-05,-0.00013000000000000002,-2e-05,-5e-05,-0.00022,-9e-05,0.0,0.00039,3
9678,10023,7e-05,-0.00013000000000000002,-2e-05,-5e-05,-0.00022,-9e-05,0.0,0.00039,3
9679,10024,-4e-05,5.9999999999999995e-05,-2.9999999999999997e-05,2.9999999999999997e-05,0.0002,-0.00016,8e-05,-0.00047000000000000004,3
9680,10025,-0.00013000000000000002,7e-05,5e-05,0.00013000000000000002,0.00022,1e-05,0.00039,0.00015,3
9681,10026,-0.00013000000000000002,7e-05,5e-05,0.00013000000000000002,0.00022,1e-05,0.00039,0.00015,3
9682,10027,-0.00013000000000000002,7e-05,5e-05,0.00013000000000000002,0.00022,1e-05,0.00039,0.00015,3
9683,10028,-0.00013000000000000002,7e-05,5e-05,0.00013000000000000002,0.00022,1e-05,0.00039,0.00015,3
9684,10029,-0.00013000000000000002,7e-05,5e-05,0.00013000000000000002,0.00022,1e-05,0.00039,0.00015,3
9685,10030,-0.00013000000000000002,7e-05,5e-05,0.00013000000000000002,0.00022,1e-05,0.00039,0.00015,3
9686,10031,-0.00013000000000000002,7e-05,5e-05,0.00013000000000000002,0.00022,1e-05,0.00039,0.00015,3
9687,10033,-0.00013000000000000002,7e-05,5e-05,0.00013000000000000002,0.00022,1e-05,0.00039,0.00015,3
9688,10034,-0.00013000000000000002,7e-05,5e-05,0.00013000000000000002,0.00022,1e-05,0.00039,0.00015,3
9689,10035,-0.00013000000000000002,7e-05,5e-05,0.00013000000000000002,0.00022,1e-05,0.00039,0.00015,3
9690,10044,-0.00013000000000000002,7e-05,5e-05,0.00013000000000000002,0.00022,1e-05,0.00039,0.00015,3
9691,10045,-0.00013000000000000002,7e-05,5e-05,0.00013000000000000002,0.00022,1e-05,0.00039,0.00015,3
9692,10046,-0.00013000000000000002,7e-05,5e-05,0.00013000000000000002,0.00022,1e-05,0.00039,0.00015,3
9693,10047,1e-05,4e-05,-5.9999999999999995e-05,-9e-05,-0.00025,5.9999999999999995e-05,-0.00015,-0.0002,3
9694,10048,9e-05,-2e-05,5e-05,-8e-05,-0.00027,-1e-05,-0.00013000000000000002,4e-05,3
9695,10049,9e-05,-2e-05,5e-05,-8e-05,-0.00027,-1e-05,-0.00013000000000000002,4e-05,3
9696,10050,9e-05,-2e-05,5e-05,-8e-05,-0.00027,-1e-05,-0.00013000000000000002,4e-05,3
9697,10051,9e-05,-2e-05,5e-05,-8e-05,-0.00027,-1e-05,-0.00013000000000000002,4e-05,3
9698,10052,9e-05,-2e-05,5e-05,-8e-05,-0.00027,-1e-05,-0.00013000000000000002,4e-05,3
9699,10053,9e-05,-2e-05,5e-05,-8e-05,-0.00027,-1e-05,-0.00013000000000000002,4e-05,3
9700,10054,9e-05,-2e-05,5e-05,-8e-05,-0.00027,-1e-05,-0.00013000000000000002,4e-05,3
9701,10055,9e-05,-2e-05,5e-05,-8e-05,-0.00027,-1e-05,-0.00013000000000000002,4e-05,3
9702,10056,9e-05,-2e-05,5e-05,-8e-05,-0.00027,-1e-05,-0.00013000000000000002,4e-05,3
9703,10057,9e-05,-2e-05,5e-05,-8e-05,-0.00027,-1e-05,-0.00013000000000000002,4e-05,3
9704,10058,9e-05,-2e-05,5e-05,-8e-05,-0.00027,-1e-05,-0.00013000000000000002,4e-05,3
9705,10059,9e-05,-2e-05,5e-05,-8e-05,-0.00027,-1e-05,-0.00013000000000000002,4e-05,3
9706,10060,9e-05,-2e-05,5e-05,-8e-05,-0.00027,-1e-05,-0.00013000000000000002,4e-05,3
9707,10061,9e-05,-2e-05,5e-05,-8e-05,-0.00027,-1e-05,-0.00013000000000000002,4e-05,3
9708,10062,9e-05,-2e-05,5e-05,-8e-05,-0.00027,-1e-05,-0.00013000000000000002,4e-05,3
9709,10063,9e-05,-2e-05,5e-05,-8e-05,-0.00027,-1e-05,-0.00013000000000000002,4e-05,3
9710,10064,9e-05,-2e-05,5e-05,-8e-05,-0.00027,-1e-05,-0.00013000000000000002,4e-05,3
9711,10065,9e-05,-2e-05,5e-05,-8e-05,-0.00027,-1e-05,-0.00013000000000000002,4e-05,3
9712,10066,9e-05,-2e-05,5e-05,-8e-05,-0.00027,-1e-05,-0.00013000000000000002,4e-05,3
9713,10067,9e-05,-2e-05,5e-05,-8e-05,-0.00027,-1e-05,-0.00013000000000000002,4e-05,3
9714,10068,9e-05,-2e-05,5e-05,-8e-05,-0.00027,-1e-05,-0.00013000000000000002,4e-05,3
9715,10069,9e-05,-2e-05,5e-05,-8e-05,-0.00027,-1e-05,-0.00013000000000000002,4e-05,3
9716,10070,0.0,2.9999999999999997e-05,5e-05,0.00016,0.00021,4e-05,0.00027,0.00011,3
9717,10071,5e-05,-8e-05,2e-05,0.0,-0.00021,-1e-05,0.00018,0.0001,3
9718,10072,5e-05,-8e-05,2e-05,0.0,-0.00021,-1e-05,0.00018,0.0001,3
9719,10073,5e-05,-8e-05,2e-05,0.0,-0.00021,-1e-05,0.00018,0.0001,3
9720,10074,5e-05,-8e-05,2e-05,0.0,-0.00021,-1e-05,0.00018,0.0001,3
9721,10075,5e-05,-8e-05,2e-05,0.0,-0.00021,-1e-05,0.00018,0.0001,3
9722,10076,5e-05,-8e-05,2e-05,0.0,-0.00021,-1e-05,0.00018,0.0001,3
9723,10077,5e-05,-8e-05,2e-05,0.0,-0.00021,-1e-05,0.00018,0.0001,3
9724,10078,5e-05,-8e-05,2e-05,0.0,-0.00021,-1e-05,0.00018,0.0001,3
9725,10079,5e-05,-8e-05,2e-05,0.0,-0.00021,-1e-05,0.00018,0.0001,3
9726,10080,5e-05,-8e-05,2e-05,0.0,-0.00021,-1e-05,0.00018,0.0001,3
9727,10081,5e-05,-8e-05,2e-05,0.0,-0.00021,-1e-05,0.00018,0.0001,3
9728,10082,5e-05,-8e-05,2e-05,0.0,-0.00021,-1e-05,0.00018,0.0001,3
9729,10083,5e-05,-8e-05,2e-05,0.0,-0.00021,-1e-05,0.00018,0.0001,3
9730,10084,2e-05,2.9999999999999997e-05,0.00011999999999999999,5.9999999999999995e-05,0.0001,1e-05,0.00013000000000000002,2.9999999999999997e-05,3
9731,10085,0.0004,-1e-05,-9e-05,-0.00026000000000000003,-0.00033999999999999997,-0.00011999999999999999,-0.00013000000000000002,1e-05,3
9732,10086,0.0004,-1e-05,-9e-05,-0.00026000000000000003,-0.00033999999999999997,-0.00011999999999999999,-0.00013000000000000002,1e-05,3
9733,10088,0.0004,-1e-05,-9e-05,-0.00026000000000000003,-0.00033999999999999997,-0.00011999999999999999,-0.00013000000000000002,1e-05,3
9734,10089,0.0004,-1e-05,-9e-05,-0.00026000000000000003,-0.00033999999999999997,-0.00011999999999999999,-0.00013000000000000002,1e-05,3
9735,10090,0.0004,-1e-05,-9e-05,-0.00026000000000000003,-0.00033999999999999997,-0.00011999999999999999,-0.00013000000000000002,1e-05,3
9736,10091,0.0004,-1e-05,-9e-05,-0.00026000000000000003,-0.00033999999999999997,-0.00011999999999999999,-0.00013000000000000002,1e-05,3
9737,10092,0.0004,-1e-05,-9e-05,-0.00026000000000000003,-0.00033999999999999997,-0.00011999999999999999,-0.00013000000000000002,1e-05,3
9738,10093,0.0004,-1e-05,-9e-05,-0.00026000000000000003,-0.00033999999999999997,-0.00011999999999999999,-0.00013000000000000002,1e-05,3
9739,10094,0.0004,-1e-05,-9e-05,-0.00026000000000000003,-0.00033999999999999997,-0.00011999999999999999,-0.00013000000000000002,1e-05,3
9740,10095,0.0004,-1e-05,-9e-05,-0.00026000000000000003,-0.00033999999999999997,-0.00011999999999999999,-0.00013000000000000002,1e-05,3
9741,10096,0.0004,-1e-05,-9e-05,-0.00026000000000000003,-0.00033999999999999997,-0.00011999999999999999,-0.00013000000000000002,1e-05,3
9742,10097,0.0004,-1e-05,-9e-05,-0.00026000000000000003,-0.00033999999999999997,-0.00011999999999999999,-0.00013000000000000002,1e-05,3
9743,10098,0.0004,-1e-05,-9e-05,-0.00026000000000000003,-0.00033999999999999997,-0.00011999999999999999,-0.00013000000000000002,1e-05,3
9744,10099,0.0004,-1e-05,-9e-05,-0.00026000000000000003,-0.00033999999999999997,-0.00011999999999999999,-0.00013000000000000002,1e-05,3
9745,10100,0.0004,-1e-05,-9e-05,-0.00026000000000000003,-0.00033999999999999997,-0.00011999999999999999,-0.00013000000000000002,1e-05,3
9746,10101,0.0004,-1e-05,-9e-05,-0.00026000000000000003,-0.00033999999999999997,-0.00011999999999999999,-0.00013000000000000002,1e-05,3
9747,10102,0.0004,-1e-05,-9e-05,-0.00026000000000000003,-0.00033999999999999997,-0.00011999999999999999,-0.00013000000000000002,1e-05,3
9748,10103,0.0004,-1e-05,-9e-05,-0.00026000000000000003,-0.00033999999999999997,-0.00011999999999999999,-0.00013000000000000002,1e-05,3
9749,10104,0.0004,-1e-05,-9e-05,-0.00026000000000000003,-0.00033999999999999997,-0.00011999999999999999,-0.00013000000000000002,1e-05,3
9750,10105,0.0004,-1e-05,-9e-05,-0.00026000000000000003,-0.00033999999999999997,-0.00011999999999999999,-0.00013000000000000002,1e-05,3
9751,10106,0.0004,-1e-05,-9e-05,-0.00026000000000000003,-0.00033999999999999997,-0.00011999999999999999,-0.00013000000000000002,1e-05,3
9752,10107,0.0004,-1e-05,-9e-05,-0.00026000000000000003,-0.00033999999999999997,-0.00011999999999999999,-0.00013000000000000002,1e-05,3
9753,10108,0.0001,8e-05,4e-05,-2.9999999999999997e-05,-0.00023999999999999998,2.9999999999999997e-05,2e-05,5.9999999999999995e-05,3
9754,10109,-4e-05,-1e-05,-5e-05,-0.00014,-0.00022,2.9999999999999997e-05,-0.00016,-0.00014,3
9755,10110,-4e-05,-1e-05,-5e-05,-0.00014,-0.00022,2.9999999999999997e-05,-0.00016,-0.00014,3
9756,10111,-4e-05,-1e-05,-5e-05,-0.00014,-0.00022,2.9999999999999997e-05,-0.00016,-0.00014,3
9757,10112,-4e-05,-1e-05,-5e-05,-0.00014,-0.00022,2.9999999999999997e-05,-0.00016,-0.00014,3
9758,10113,-4e-05,-1e-05,-5e-05,-0.00014,-0.00022,2.9999999999999997e-05,-0.00016,-0.00014,3
9759,10114,-4e-05,-1e-05,-5e-05,-0.00014,-0.00022,2.9999999999999997e-05,-0.00016,-0.00014,3
9760,10115,-4e-05,-1e-05,-5e-05,-0.00014,-0.00022,2.9999999999999997e-05,-0.00016,-0.00014,3
9761,10116,-4e-05,-1e-05,-5e-05,-0.00014,-0.00022,2.9999999999999997e-05,-0.00016,-0.00014,3
9762,10117,-4e-05,-1e-05,-5e-05,-0.00014,-0.00022,2.9999999999999997e-05,-0.00016,-0.00014,3
9763,10118,-4e-05,-1e-05,-5e-05,-0.00014,-0.00022,2.9999999999999997e-05,-0.00016,-0.00014,3
9764,10119,-4e-05,-1e-05,-5e-05,-0.00014,-0.00022,2.9999999999999997e-05,-0.00016,-0.00014,3
9765,10120,-4e-05,-1e-05,-5e-05,-0.00014,-0.00022,2.9999999999999997e-05,-0.00016,-0.00014,3
9766,10121,-4e-05,-1e-05,-5e-05,-0.00014,-0.00022,2.9999999999999997e-05,-0.00016,-0.00014,3
9767,10122,-4e-05,-1e-05,-5e-05,-0.00014,-0.00022,2.9999999999999997e-05,-0.00016,-0.00014,3
9768,10123,-4e-05,-1e-05,-5e-05,-0.00014,-0.00022,2.9999999999999997e-05,-0.00016,-0.00014,3
9769,10124,-4e-05,-1e-05,-5e-05,-0.00014,-0.00022,2.9999999999999997e-05,-0.00016,-0.00014,3
9770,10125,-4e-05,-1e-05,-5e-05,-0.00014,-0.00022,2.9999999999999997e-05,-0.00016,-0.00014,3
9771,10126,-4e-05,-1e-05,-5e-05,-0.00014,-0.00022,2.9999999999999997e-05,-0.00016,-0.00014,3
9772,10127,-4e-05,-1e-05,-5e-05,-0.00014,-0.00022,2.9999999999999997e-05,-0.00016,-0.00014,3
9773,10128,-4e-05,-1e-05,-5e-05,-0.00014,-0.00022,2.9999999999999997e-05,-0.00016,-0.00014,3
9774,10129,-4e-05,-1e-05,-5e-05,-0.00014,-0.00022,2.9999999999999997e-05,-0.00016,-0.00014,3
9775,10130,-4e-05,-1e-05,-5e-05,-0.00014,-0.00022,2.9999999999999997e-05,-0.00016,-0.00014,3
9776,10131,-4e-05,-1e-05,-5e-05,-0.00014,-0.00022,2.9999999999999997e-05,-0.00016,-0.00014,3
9777,10132,-4e-05,-1e-05,-5e-05,-0.00014,-0.00022,2.9999999999999997e-05,-0.00016,-0.00014,3
9778,10133,-4e-05,-1e-05,-5e-05,-0.00014,-0.00022,2.9999999999999997e-05,-0.00016,-0.00014,3
9779,10134,-4e-05,-1e-05,-5e-05,-0.00014,-0.00022,2.9999999999999997e-05,-0.00016,-0.00014,3
9780,10135,-4e-05,-1e-05,-5e-05,-0.00014,-0.00022,2.9999999999999997e-05,-0.00016,-0.00014,3
9781,10136,-4e-05,-1e-05,-5e-05,-0.00014,-0.00022,2.9999999999999997e-05,-0.00016,-0.00014,3
9782,10139,-4e-05,-1e-05,-5e-05,-0.00014,-0.00022,2.9999999999999997e-05,-0.00016,-0.00014,3
9783,10140,-2e-05,2e-05,-2e-05,4e-05,-2e-05,0.0,0.00014,-7e-05,3
9784,10141,-2e-05,2e-05,-2e-05,4e-05,-2e-05,0.0,0.00014,-7e-05,3
9785,10142,-2e-05,2e-05,-2e-05,4e-05,-2e-05,0.0,0.00014,-7e-05,3
9786,10143,-2e-05,2e-05,-2e-05,4e-05,-2e-05,0.0,0.00014,-7e-05,3
9787,10144,-2e-05,2e-05,-2e-05,4e-05,-2e-05,0.0,0.00014,-7e-05,3
9788,10145,-0.00014,-0.00029,-7e-05,0.0,5.9999999999999995e-05,4e-05,2e-05,0.00018999999999999998,3
9789,10146,-0.00014,-0.00029,-7e-05,0.0,5.9999999999999995e-05,4e-05,2e-05,0.00018999999999999998,3
9790,10147,-0.00014,-0.00029,-7e-05,0.0,5.9999999999999995e-05,4e-05,2e-05,0.00018999999999999998,3
9791,10148,-0.00014,-0.00029,-7e-05,0.0,5.9999999999999995e-05,4e-05,2e-05,0.00018999999999999998,3
9792,10149,-0.00014,-0.00029,-7e-05,0.0,5.9999999999999995e-05,4e-05,2e-05,0.00018999999999999998,3
9793,10150,-0.00014,-0.00029,-7e-05,0.0,5.9999999999999995e-05,4e-05,2e-05,0.00018999999999999998,3
9794,10151,-0.00014,-0.00029,-7e-05,0.0,5.9999999999999995e-05,4e-05,2e-05,0.00018999999999999998,3
9795,10152,-0.00014,-0.00029,-7e-05,0.0,5.9999999999999995e-05,4e-05,2e-05,0.00018999999999999998,3
9796,10153,-0.00014,-0.00029,-7e-05,0.0,5.9999999999999995e-05,4e-05,2e-05,0.00018999999999999998,3
9797,10154,-0.00014,-0.00029,-7e-05,0.0,5.9999999999999995e-05,4e-05,2e-05,0.00018999999999999998,3
9798,10155,-0.00014,-0.00029,-7e-05,0.0,5.9999999999999995e-05,4e-05,2e-05,0.00018999999999999998,3
9799,10156,-0.00014,-0.00029,-7e-05,0.0,5.9999999999999995e-05,4e-05,2e-05,0.00018999999999999998,3
9800,10157,-0.00014,-0.00029,-7e-05,0.0,5.9999999999999995e-05,4e-05,2e-05,0.00018999999999999998,3
9801,10158,-0.00014,-0.00029,-7e-05,0.0,5.9999999999999995e-05,4e-05,2e-05,0.00018999999999999998,3
9802,10159,-0.00014,-0.00029,-7e-05,0.0,5.9999999999999995e-05,4e-05,2e-05,0.00018999999999999998,3
9803,10160,-0.00014,-0.00029,-7e-05,0.0,5.9999999999999995e-05,4e-05,2e-05,0.00018999999999999998,3
9804,10161,-0.00014,-0.00029,-7e-05,0.0,5.9999999999999995e-05,4e-05,2e-05,0.00018999999999999998,3
9805,10162,-0.00014,-0.00029,-7e-05,0.0,5.9999999999999995e-05,4e-05,2e-05,0.00018999999999999998,3
9806,10163,-0.00014,-0.00029,-7e-05,0.0,5.9999999999999995e-05,4e-05,2e-05,0.00018999999999999998,3
9807,10164,-0.00014,-0.00029,-7e-05,0.0,5.9999999999999995e-05,4e-05,2e-05,0.00018999999999999998,3
9808,10165,-0.00014,-0.00029,-7e-05,0.0,5.9999999999999995e-05,4e-05,2e-05,0.00018999999999999998,3
9809,10166,-0.00014,-0.00029,-7e-05,0.0,5.9999999999999995e-05,4e-05,2e-05,0.00018999999999999998,3
9810,10167,-0.00014,-0.00029,-7e-05,0.0,5.9999999999999995e-05,4e-05,2e-05,0.00018999999999999998,3
9811,10168,-0.00014,-0.00029,-7e-05,0.0,5.9999999999999995e-05,4e-05,2e-05,0.00018999999999999998,3
9812,10169,-0.00014,-0.00029,-7e-05,0.0,5.9999999999999995e-05,4e-05,2e-05,0.00018999999999999998,3
9813,10170,-0.00014,-0.00029,-7e-05,0.0,5.9999999999999995e-05,4e-05,2e-05,0.00018999999999999998,3
9814,10171,-0.00014,-0.00029,-7e-05,0.0,5.9999999999999995e-05,4e-05,2e-05,0.00018999999999999998,3
9815,10172,-0.00014,-0.00029,-7e-05,0.0,5.9999999999999995e-05,4e-05,2e-05,0.00018999999999999998,3
9816,10173,-0.00014,-0.00029,-7e-05,0.0,5.9999999999999995e-05,4e-05,2e-05,0.00018999999999999998,3
9817,10174,-0.00014,-0.00029,-7e-05,0.0,5.9999999999999995e-05,4e-05,2e-05,0.00018999999999999998,3
9818,10175,5.9999999999999995e-05,-4e-05,-2e-05,-4e-05,2.9999999999999997e-05,-5.9999999999999995e-05,0.0,-0.00022,3
9819,10176,-0.00011,0.0002,0.00011,7e-05,0.00016999999999999999,-2e-05,-5e-05,1e-05,3
9820,10177,-0.00011,0.0002,0.00011,7e-05,0.00016999999999999999,-2e-05,-5e-05,1e-05,3
9821,10178,-0.00011,0.0002,0.00011,7e-05,0.00016999999999999999,-2e-05,-5e-05,1e-05,3
9822,10179,-0.00011,0.0002,0.00011,7e-05,0.00016999999999999999,-2e-05,-5e-05,1e-05,3
9823,10180,-0.00011,0.0002,0.00011,7e-05,0.00016999999999999999,-2e-05,-5e-05,1e-05,3
9824,10181,-0.00011,0.0002,0.00011,7e-05,0.00016999999999999999,-2e-05,-5e-05,1e-05,3
9825,10182,-0.00011,0.0002,0.00011,7e-05,0.00016999999999999999,-2e-05,-5e-05,1e-05,3
9826,10183,-0.00011,0.0002,0.00011,7e-05,0.00016999999999999999,-2e-05,-5e-05,1e-05,3
9827,10184,-0.00011,0.0002,0.00011,7e-05,0.00016999999999999999,-2e-05,-5e-05,1e-05,3
9828,10185,-0.00011,0.0002,0.00011,7e-05,0.00016999999999999999,-2e-05,-5e-05,1e-05,3
9829,10186,-0.00011,0.0002,0.00011,7e-05,0.00016999999999999999,-2e-05,-5e-05,1e-05,3
9830,10188,-0.00011,0.0002,0.00011,7e-05,0.00016999999999999999,-2e-05,-5e-05,1e-05,3
9831,10189,-0.00011,0.0002,0.00011,7e-05,0.00016999999999999999,-2e-05,-5e-05,1e-05,3
9832,10190,-0.00016999999999999999,-4e-05,2e-05,-2e-05,-0.00014,-2e-05,9e-05,-0.00016999999999999999,3
9833,10191,0.0,4e-05,-8e-05,-8e-05,-0.00013000000000000002,-1e-05,-0.00015,-0.00039,3
9834,10192,0.0,4e-05,-8e-05,-8e-05,-0.00013000000000000002,-1e-05,-0.00015,-0.00039,3
9835,10193,0.0,4e-05,-8e-05,-8e-05,-0.00013000000000000002,-1e-05,-0.00015,-0.00039,3
9836,10194,0.0,4e-05,-8e-05,-8e-05,-0.00013000000000000002,-1e-05,-0.00015,-0.00039,3
9837,10195,0.0,4e-05,-8e-05,-8e-05,-0.00013000000000000002,-1e-05,-0.00015,-0.00039,3
9838,10196,0.0,4e-05,-8e-05,-8e-05,-0.00013000000000000002,-1e-05,-0.00015,-0.00039,3
9839,10197,0.0,4e-05,-8e-05,-8e-05,-0.00013000000000000002,-1e-05,-0.00015,-0.00039,3
9840,10198,0.0,4e-05,-8e-05,-8e-05,-0.00013000000000000002,-1e-05,-0.00015,-0.00039,3
9841,10199,0.0,4e-05,-8e-05,-8e-05,-0.00013000000000000002,-1e-05,-0.00015,-0.00039,3
9842,10200,0.0,4e-05,-8e-05,-8e-05,-0.00013000000000000002,-1e-05,-0.00015,-0.00039,3
9843,10201,0.0,4e-05,-8e-05,-8e-05,-0.00013000000000000002,-1e-05,-0.00015,-0.00039,3
9844,10202,0.0,4e-05,-8e-05,-8e-05,-0.00013000000000000002,-1e-05,-0.00015,-0.00039,3
9845,10203,0.0,4e-05,-8e-05,-8e-05,-0.00013000000000000002,-1e-05,-0.00015,-0.00039,3
9846,10204,0.0,4e-05,-8e-05,-8e-05,-0.00013000000000000002,-1e-05,-0.00015,-0.00039,3
9847,10205,-1e-05,7e-05,2.9999999999999997e-05,-8e-05,-0.00026000000000000003,-0.0002,-7e-05,4e-05,3
9848,10206,-1e-05,7e-05,2.9999999999999997e-05,-8e-05,-0.00026000000000000003,-0.0002,-7e-05,4e-05,3
9849,10207,7e-05,5e-05,-1e-05,7e-05,-4e-05,-0.00014,-0.00054,-0.0001,3
9850,10208,7e-05,5e-05,-1e-05,7e-05,-4e-05,-0.00014,-0.00054,-0.0001,3
9851,10209,7e-05,5e-05,-1e-05,7e-05,-4e-05,-0.00014,-0.00054,-0.0001,3
9852,10210,7e-05,5e-05,-1e-05,7e-05,-4e-05,-0.00014,-0.00054,-0.0001,3
9853,10211,7e-05,5e-05,-1e-05,7e-05,-4e-05,-0.00014,-0.00054,-0.0001,3
9854,10212,7e-05,5e-05,-1e-05,7e-05,-4e-05,-0.00014,-0.00054,-0.0001,3
9855,10213,7e-05,5e-05,-1e-05,7e-05,-4e-05,-0.00014,-0.00054,-0.0001,3
9856,10214,7e-05,5e-05,-1e-05,7e-05,-4e-05,-0.00014,-0.00054,-0.0001,3
9857,10215,7e-05,5e-05,-1e-05,7e-05,-4e-05,-0.00014,-0.00054,-0.0001,3
9858,10216,7e-05,5e-05,-1e-05,7e-05,-4e-05,-0.00014,-0.00054,-0.0001,3
9859,10217,7e-05,5e-05,-1e-05,7e-05,-4e-05,-0.00014,-0.00054,-0.0001,3
9860,10218,7e-05,5e-05,-1e-05,7e-05,-4e-05,-0.00014,-0.00054,-0.0001,3
9861,10219,7e-05,5e-05,-1e-05,7e-05,-4e-05,-0.00014,-0.00054,-0.0001,3
9862,10220,7e-05,5e-05,-1e-05,7e-05,-4e-05,-0.00014,-0.00054,-0.0001,3
9863,10221,7e-05,5e-05,-1e-05,7e-05,-4e-05,-0.00014,-0.00054,-0.0001,3
9864,10222,7e-05,5e-05,-1e-05,7e-05,-4e-05,-0.00014,-0.00054,-0.0001,3
9865,10223,7e-05,5e-05,-1e-05,7e-05,-4e-05,-0.00014,-0.00054,-0.0001,3
9866,10224,7e-05,5e-05,-1e-05,7e-05,-4e-05,-0.00014,-0.00054,-0.0001,3
9867,10225,7e-05,5e-05,-1e-05,7e-05,-4e-05,-0.00014,-0.00054,-0.0001,3
9868,10226,7e-05,5e-05,-1e-05,7e-05,-4e-05,-0.00014,-0.00054,-0.0001,3
9869,10227,7e-05,5e-05,-1e-05,7e-05,-4e-05,-0.00014,-0.00054,-0.0001,3
9870,10228,-9e-05,-0.00015,-1e-05,0.0,0.00018999999999999998,8e-05,5e-05,5.9999999999999995e-05,3
9871,10229,4e-05,-2.9999999999999997e-05,1e-05,0.00032,0.00042,0.0002,-7e-05,-4e-05,3
9872,10230,4e-05,-2.9999999999999997e-05,1e-05,0.00032,0.00042,0.0002,-7e-05,-4e-05,3
9873,10231,4e-05,-2.9999999999999997e-05,1e-05,0.00032,0.00042,0.0002,-7e-05,-4e-05,3
9874,10232,4e-05,-2.9999999999999997e-05,1e-05,0.00032,0.00042,0.0002,-7e-05,-4e-05,3
9875,10233,4e-05,-2.9999999999999997e-05,1e-05,0.00032,0.00042,0.0002,-7e-05,-4e-05,3
9876,10234,4e-05,-2.9999999999999997e-05,1e-05,0.00032,0.00042,0.0002,-7e-05,-4e-05,3
9877,10235,4e-05,-2.9999999999999997e-05,1e-05,0.00032,0.00042,0.0002,-7e-05,-4e-05,3
9878,10236,4e-05,-2.9999999999999997e-05,1e-05,0.00032,0.00042,0.0002,-7e-05,-4e-05,3
9879,10238,4e-05,-2.9999999999999997e-05,1e-05,0.00032,0.00042,0.0002,-7e-05,-4e-05,3
9880,10240,4e-05,-2.9999999999999997e-05,1e-05,0.00032,0.00042,0.0002,-7e-05,-4e-05,3
9881,10241,4e-05,-2.9999999999999997e-05,1e-05,0.00032,0.00042,0.0002,-7e-05,-4e-05,3
9882,10242,4e-05,-2.9999999999999997e-05,1e-05,0.00032,0.00042,0.0002,-7e-05,-4e-05,3
9883,10243,4e-05,-2.9999999999999997e-05,1e-05,0.00032,0.00042,0.0002,-7e-05,-4e-05,3
9884,10244,4e-05,-2.9999999999999997e-05,1e-05,0.00032,0.00042,0.0002,-7e-05,-4e-05,3
9885,10245,4e-05,-2.9999999999999997e-05,1e-05,0.00032,0.00042,0.0002,-7e-05,-4e-05,3
9886,10246,4e-05,-2.9999999999999997e-05,1e-05,0.00032,0.00042,0.0002,-7e-05,-4e-05,3
9887,10247,4e-05,-2.9999999999999997e-05,1e-05,0.00032,0.00042,0.0002,-7e-05,-4e-05,3
9888,10248,4e-05,-2.9999999999999997e-05,1e-05,0.00032,0.00042,0.0002,-7e-05,-4e-05,3
9889,10249,4e-05,-2.9999999999999997e-05,1e-05,0.00032,0.00042,0.0002,-7e-05,-4e-05,3
9890,10250,4e-05,-2.9999999999999997e-05,1e-05,0.00032,0.00042,0.0002,-7e-05,-4e-05,3
9891,10251,4e-05,-2.9999999999999997e-05,1e-05,0.00032,0.00042,0.0002,-7e-05,-4e-05,3
9892,10252,4e-05,-2.9999999999999997e-05,1e-05,0.00032,0.00042,0.0002,-7e-05,-4e-05,3
9893,10253,4e-05,-2.9999999999999997e-05,1e-05,0.00032,0.00042,0.0002,-7e-05,-4e-05,3
9894,10254,4e-05,-2.9999999999999997e-05,1e-05,0.00032,0.00042,0.0002,-7e-05,-4e-05,3
9895,10255,4e-05,-2.9999999999999997e-05,1e-05,0.00032,0.00042,0.0002,-7e-05,-4e-05,3
9896,10256,4e-05,-2.9999999999999997e-05,1e-05,0.00032,0.00042,0.0002,-7e-05,-4e-05,3
9897,10257,4e-05,-2.9999999999999997e-05,1e-05,0.00032,0.00042,0.0002,-7e-05,-4e-05,3
9898,10258,-0.00044,-0.00037999999999999997,-7e-05,-2.9999999999999997e-05,0.0,0.00018999999999999998,7e-05,-0.0004,3
9899,10259,0.00016,0.00011,0.00011,-9e-05,-0.00011999999999999999,-8e-05,-1e-05,4e-05,3
9900,10260,0.00016,0.00011,0.00011,-9e-05,-0.00011999999999999999,-8e-05,-1e-05,4e-05,3
9901,10261,0.00016,0.00011,0.00011,-9e-05,-0.00011999999999999999,-8e-05,-1e-05,4e-05,3
9902,10262,0.00016,0.00011,0.00011,-9e-05,-0.00011999999999999999,-8e-05,-1e-05,4e-05,3
9903,10263,0.00016,0.00011,0.00011,-9e-05,-0.00011999999999999999,-8e-05,-1e-05,4e-05,3
9904,10264,0.00016,0.00011,0.00011,-9e-05,-0.00011999999999999999,-8e-05,-1e-05,4e-05,3
9905,10265,-9e-05,-0.00011,-2.9999999999999997e-05,-5e-05,-2.9999999999999997e-05,1e-05,-0.00028,-0.0003,3
9906,10266,-9e-05,-0.00011,-2.9999999999999997e-05,-5e-05,-2.9999999999999997e-05,1e-05,-0.00028,-0.0003,3
9907,10267,-9e-05,-0.00011,-2.9999999999999997e-05,-5e-05,-2.9999999999999997e-05,1e-05,-0.00028,-0.0003,3
9908,10268,-9e-05,-0.00011,-2.9999999999999997e-05,-5e-05,-2.9999999999999997e-05,1e-05,-0.00028,-0.0003,3
9909,10269,-9e-05,-0.00011,-2.9999999999999997e-05,-5e-05,-2.9999999999999997e-05,1e-05,-0.00028,-0.0003,3
9910,10270,-9e-05,-0.00011,-2.9999999999999997e-05,-5e-05,-2.9999999999999997e-05,1e-05,-0.00028,-0.0003,3
9911,10271,-9e-05,-0.00011,-2.9999999999999997e-05,-5e-05,-2.9999999999999997e-05,1e-05,-0.00028,-0.0003,3
9912,10272,-9e-05,-0.00011,-2.9999999999999997e-05,-5e-05,-2.9999999999999997e-05,1e-05,-0.00028,-0.0003,3
9913,10273,-9e-05,-0.00011,-2.9999999999999997e-05,-5e-05,-2.9999999999999997e-05,1e-05,-0.00028,-0.0003,3
9914,10274,-9e-05,-0.00011,-2.9999999999999997e-05,-5e-05,-2.9999999999999997e-05,1e-05,-0.00028,-0.0003,3
9915,10275,-9e-05,-0.00011,-2.9999999999999997e-05,-5e-05,-2.9999999999999997e-05,1e-05,-0.00028,-0.0003,3
9916,10276,-9e-05,-0.00011,-2.9999999999999997e-05,-5e-05,-2.9999999999999997e-05,1e-05,-0.00028,-0.0003,3
9917,10277,-9e-05,-0.00011,-2.9999999999999997e-05,-5e-05,-2.9999999999999997e-05,1e-05,-0.00028,-0.0003,3
9918,10278,-9e-05,-0.00011,-2.9999999999999997e-05,-5e-05,-2.9999999999999997e-05,1e-05,-0.00028,-0.0003,3
9919,10280,-9e-05,-0.00011,-2.9999999999999997e-05,-5e-05,-2.9999999999999997e-05,1e-05,-0.00028,-0.0003,3
9920,10281,-9e-05,-0.00011,-2.9999999999999997e-05,-5e-05,-2.9999999999999997e-05,1e-05,-0.00028,-0.0003,3
9921,10282,-9e-05,-0.00011,-2.9999999999999997e-05,-5e-05,-2.9999999999999997e-05,1e-05,-0.00028,-0.0003,3
9922,10283,-9e-05,-0.00011,-2.9999999999999997e-05,-5e-05,-2.9999999999999997e-05,1e-05,-0.00028,-0.0003,3
9923,10284,-9e-05,-0.00011,-2.9999999999999997e-05,-5e-05,-2.9999999999999997e-05,1e-05,-0.00028,-0.0003,3
9924,10285,-9e-05,-0.00011,-2.9999999999999997e-05,-5e-05,-2.9999999999999997e-05,1e-05,-0.00028,-0.0003,3
9925,10286,-9e-05,-0.00011,-2.9999999999999997e-05,-5e-05,-2.9999999999999997e-05,1e-05,-0.00028,-0.0003,3
9926,10288,-5e-05,2.9999999999999997e-05,-8e-05,-4e-05,0.00013000000000000002,-0.00016,-0.00015,0.00023999999999999998,3
9927,10289,-5e-05,2.9999999999999997e-05,-8e-05,-4e-05,0.00013000000000000002,-0.00016,-0.00015,0.00023999999999999998,3
9928,10290,-5e-05,2.9999999999999997e-05,-8e-05,-4e-05,0.00013000000000000002,-0.00016,-0.00015,0.00023999999999999998,3
9929,10291,-5e-05,2.9999999999999997e-05,-8e-05,-4e-05,0.00013000000000000002,-0.00016,-0.00015,0.00023999999999999998,3
9930,10292,-5e-05,2.9999999999999997e-05,-8e-05,-4e-05,0.00013000000000000002,-0.00016,-0.00015,0.00023999999999999998,3
9931,10293,-5e-05,2.9999999999999997e-05,-8e-05,-4e-05,0.00013000000000000002,-0.00016,-0.00015,0.00023999999999999998,3
9932,10294,0.0,5.9999999999999995e-05,-2.9999999999999997e-05,4e-05,0.00031,-0.00018,0.00022,7e-05,3
9933,10296,0.0,5.9999999999999995e-05,-2.9999999999999997e-05,4e-05,0.00031,-0.00018,0.00022,7e-05,3
9934,10297,0.0,5.9999999999999995e-05,-2.9999999999999997e-05,4e-05,0.00031,-0.00018,0.00022,7e-05,3
9935,10298,0.0,5.9999999999999995e-05,-2.9999999999999997e-05,4e-05,0.00031,-0.00018,0.00022,7e-05,3
9936,10299,0.0,5.9999999999999995e-05,-2.9999999999999997e-05,4e-05,0.00031,-0.00018,0.00022,7e-05,3
9937,10300,0.0,5.9999999999999995e-05,-2.9999999999999997e-05,4e-05,0.00031,-0.00018,0.00022,7e-05,3
9938,10301,0.0,5.9999999999999995e-05,-2.9999999999999997e-05,4e-05,0.00031,-0.00018,0.00022,7e-05,3
9939,10302,0.0,5.9999999999999995e-05,-2.9999999999999997e-05,4e-05,0.00031,-0.00018,0.00022,7e-05,3
9940,10303,0.0,5.9999999999999995e-05,-2.9999999999999997e-05,4e-05,0.00031,-0.00018,0.00022,7e-05,3
9941,10304,0.0,5.9999999999999995e-05,-2.9999999999999997e-05,4e-05,0.00031,-0.00018,0.00022,7e-05,3
9942,10305,0.0,5.9999999999999995e-05,-2.9999999999999997e-05,4e-05,0.00031,-0.00018,0.00022,7e-05,3
9943,10306,0.0,5.9999999999999995e-05,-2.9999999999999997e-05,4e-05,0.00031,-0.00018,0.00022,7e-05,3
9944,10307,0.0,5.9999999999999995e-05,-2.9999999999999997e-05,4e-05,0.00031,-0.00018,0.00022,7e-05,3
9945,10308,0.0,5.9999999999999995e-05,-2.9999999999999997e-05,4e-05,0.00031,-0.00018,0.00022,7e-05,3
9946,10309,0.0,5.9999999999999995e-05,-2.9999999999999997e-05,4e-05,0.00031,-0.00018,0.00022,7e-05,3
9947,10310,-0.00011999999999999999,7e-05,-1e-05,4e-05,-5.9999999999999995e-05,0.00013000000000000002,0.00018,9e-05,3
9948,10311,-8e-05,-7e-05,-4e-05,-8e-05,-0.00027,-0.00016,-2e-05,0.00015,3
9949,10312,-8e-05,-7e-05,-4e-05,-8e-05,-0.00027,-0.00016,-2e-05,0.00015,3
9950,10313,-8e-05,-7e-05,-4e-05,-8e-05,-0.00027,-0.00016,-2e-05,0.00015,3
9951,10314,-8e-05,-7e-05,-4e-05,-8e-05,-0.00027,-0.00016,-2e-05,0.00015,3
9952,10315,-8e-05,-7e-05,-4e-05,-8e-05,-0.00027,-0.00016,-2e-05,0.00015,3
9953,10316,-8e-05,-7e-05,-4e-05,-8e-05,-0.00027,-0.00016,-2e-05,0.00015,3
9954,10317,-8e-05,-7e-05,-4e-05,-8e-05,-0.00027,-0.00016,-2e-05,0.00015,3
9955,10318,-8e-05,-7e-05,-4e-05,-8e-05,-0.00027,-0.00016,-2e-05,0.00015,3
9956,10319,-8e-05,-7e-05,-4e-05,-8e-05,-0.00027,-0.00016,-2e-05,0.00015,3
9957,10320,-8e-05,-7e-05,-4e-05,-8e-05,-0.00027,-0.00016,-2e-05,0.00015,3
9958,10321,-8e-05,-7e-05,-4e-05,-8e-05,-0.00027,-0.00016,-2e-05,0.00015,3
9959,10322,-8e-05,-7e-05,-4e-05,-8e-05,-0.00027,-0.00016,-2e-05,0.00015,3
9960,10323,-8e-05,-7e-05,-4e-05,-8e-05,-0.00027,-0.00016,-2e-05,0.00015,3
9961,10324,-8e-05,-7e-05,-4e-05,-8e-05,-0.00027,-0.00016,-2e-05,0.00015,3
9962,10325,0.00015,4e-05,1e-05,8e-05,-0.00025,5e-05,0.0004,-2.9999999999999997e-05,3
9963,10326,0.00015,4e-05,1e-05,8e-05,-0.00025,5e-05,0.0004,-2.9999999999999997e-05,3
9964,10327,0.00015,4e-05,1e-05,8e-05,-0.00025,5e-05,0.0004,-2.9999999999999997e-05,3
9965,10328,0.00015,4e-05,1e-05,8e-05,-0.00025,5e-05,0.0004,-2.9999999999999997e-05,3
9966,10329,0.00015,4e-05,1e-05,8e-05,-0.00025,5e-05,0.0004,-2.9999999999999997e-05,3
9967,10330,0.00015,4e-05,1e-05,8e-05,-0.00025,5e-05,0.0004,-2.9999999999999997e-05,3
9968,10331,0.00015,4e-05,1e-05,8e-05,-0.00025,5e-05,0.0004,-2.9999999999999997e-05,3
9969,10332,0.00015,4e-05,1e-05,8e-05,-0.00025,5e-05,0.0004,-2.9999999999999997e-05,3
9970,10333,0.00015,4e-05,1e-05,8e-05,-0.00025,5e-05,0.0004,-2.9999999999999997e-05,3
9971,10334,0.00015,4e-05,1e-05,8e-05,-0.00025,5e-05,0.0004,-2.9999999999999997e-05,3
9972,10335,0.00015,4e-05,1e-05,8e-05,-0.00025,5e-05,0.0004,-2.9999999999999997e-05,3
9973,10336,0.00015,4e-05,1e-05,8e-05,-0.00025,5e-05,0.0004,-2.9999999999999997e-05,3
9974,10338,0.00015,4e-05,1e-05,8e-05,-0.00025,5e-05,0.0004,-2.9999999999999997e-05,3
9975,10339,0.00015,4e-05,1e-05,8e-05,-0.00025,5e-05,0.0004,-2.9999999999999997e-05,3
9976,10340,0.00015,4e-05,1e-05,8e-05,-0.00025,5e-05,0.0004,-2.9999999999999997e-05,3
9977,10341,0.00015,4e-05,1e-05,8e-05,-0.00025,5e-05,0.0004,-2.9999999999999997e-05,3
9978,10342,0.00015,4e-05,1e-05,8e-05,-0.00025,5e-05,0.0004,-2.9999999999999997e-05,3
9979,10343,0.00015,4e-05,1e-05,8e-05,-0.00025,5e-05,0.0004,-2.9999999999999997e-05,3
9980,10344,0.00015,4e-05,1e-05,8e-05,-0.00025,5e-05,0.0004,-2.9999999999999997e-05,3
9981,10345,0.00015,4e-05,1e-05,8e-05,-0.00025,5e-05,0.0004,-2.9999999999999997e-05,3
9982,10346,0.00015,4e-05,1e-05,8e-05,-0.00025,5e-05,0.0004,-2.9999999999999997e-05,3
9983,10347,0.00015,4e-05,1e-05,8e-05,-0.00025,5e-05,0.0004,-2.9999999999999997e-05,3
9984,10348,-1e-05,2e-05,2.9999999999999997e-05,7e-05,0.00018,5.9999999999999995e-05,0.00014,0.00011999999999999999,3
9985,10349,-0.00013000000000000002,-2.9999999999999997e-05,5.9999999999999995e-05,5e-05,0.00011999999999999999,0.00027,0.00041,0.00023999999999999998,3
9986,10350,-0.00013000000000000002,-2.9999999999999997e-05,5.9999999999999995e-05,5e-05,0.00011999999999999999,0.00027,0.00041,0.00023999999999999998,3
9987,10351,-0.00013000000000000002,-2.9999999999999997e-05,5.9999999999999995e-05,5e-05,0.00011999999999999999,0.00027,0.00041,0.00023999999999999998,3
9988,10352,-0.00013000000000000002,-2.9999999999999997e-05,5.9999999999999995e-05,5e-05,0.00011999999999999999,0.00027,0.00041,0.00023999999999999998,3
9989,10353,-0.00013000000000000002,-2.9999999999999997e-05,5.9999999999999995e-05,5e-05,0.00011999999999999999,0.00027,0.00041,0.00023999999999999998,3
9990,10354,-0.00013000000000000002,-2.9999999999999997e-05,5.9999999999999995e-05,5e-05,0.00011999999999999999,0.00027,0.00041,0.00023999999999999998,3
9991,10355,-0.00013000000000000002,-2.9999999999999997e-05,5.9999999999999995e-05,5e-05,0.00011999999999999999,0.00027,0.00041,0.00023999999999999998,3
9992,10356,-0.00013000000000000002,-2.9999999999999997e-05,5.9999999999999995e-05,5e-05,0.00011999999999999999,0.00027,0.00041,0.00023999999999999998,3
9993,10357,-0.00013000000000000002,-2.9999999999999997e-05,5.9999999999999995e-05,5e-05,0.00011999999999999999,0.00027,0.00041,0.00023999999999999998,3
9994,10358,-0.00013000000000000002,-2.9999999999999997e-05,5.9999999999999995e-05,5e-05,0.00011999999999999999,0.00027,0.00041,0.00023999999999999998,3
9995,10359,-0.00013000000000000002,-2.9999999999999997e-05,5.9999999999999995e-05,5e-05,0.00011999999999999999,0.00027,0.00041,0.00023999999999999998,3
9996,10360,-0.00013000000000000002,-2.9999999999999997e-05,5.9999999999999995e-05,5e-05,0.00011999999999999999,0.00027,0.00041,0.00023999999999999998,3
9997,10361,-0.00013000000000000002,-2.9999999999999997e-05,5.9999999999999995e-05,5e-05,0.00011999999999999999,0.00027,0.00041,0.00023999999999999998,3
9998,10362,-0.00013000000000000002,-2.9999999999999997e-05,5.9999999999999995e-05,5e-05,0.00011999999999999999,0.00027,0.00041,0.00023999999999999998,3
9999,10363,-0.00013000000000000002,-2.9999999999999997e-05,5.9999999999999995e-05,5e-05,0.00011999999999999999,0.00027,0.00041,0.00023999999999999998,3
10000,10364,-0.00013000000000000002,-2.9999999999999997e-05,5.9999999999999995e-05,5e-05,0.00011999999999999999,0.00027,0.00041,0.00023999999999999998,3
10001,10365,-0.00013000000000000002,-2.9999999999999997e-05,5.9999999999999995e-05,5e-05,0.00011999999999999999,0.00027,0.00041,0.00023999999999999998,3
10002,10366,-0.00013000000000000002,-2.9999999999999997e-05,5.9999999999999995e-05,5e-05,0.00011999999999999999,0.00027,0.00041,0.00023999999999999998,3
10003,10367,-0.00013000000000000002,-2.9999999999999997e-05,5.9999999999999995e-05,5e-05,0.00011999999999999999,0.00027,0.00041,0.00023999999999999998,3
10004,10368,-0.00013000000000000002,-2.9999999999999997e-05,5.9999999999999995e-05,5e-05,0.00011999999999999999,0.00027,0.00041,0.00023999999999999998,3
10005,10369,-0.00013000000000000002,-2.9999999999999997e-05,5.9999999999999995e-05,5e-05,0.00011999999999999999,0.00027,0.00041,0.00023999999999999998,3
10006,10370,-0.00058,-0.0002,-8e-05,-0.00011999999999999999,-0.00018,-0.00023999999999999998,-0.00022,-0.00029,3
10007,10371,7e-05,5e-05,0.0,-2e-05,1e-05,-7e-05,-0.00027,-5.9999999999999995e-05,3
10008,10372,7e-05,5e-05,0.0,-2e-05,1e-05,-7e-05,-0.00027,-5.9999999999999995e-05,3
10009,10373,7e-05,5e-05,0.0,-2e-05,1e-05,-7e-05,-0.00027,-5.9999999999999995e-05,3
10010,10374,7e-05,5e-05,0.0,-2e-05,1e-05,-7e-05,-0.00027,-5.9999999999999995e-05,3
10011,10375,7e-05,5e-05,0.0,-2e-05,1e-05,-7e-05,-0.00027,-5.9999999999999995e-05,3
10012,10376,7e-05,5e-05,0.0,-2e-05,1e-05,-7e-05,-0.00027,-5.9999999999999995e-05,3
10013,10377,7e-05,5e-05,0.0,-2e-05,1e-05,-7e-05,-0.00027,-5.9999999999999995e-05,3
10014,10378,7e-05,5e-05,0.0,-2e-05,1e-05,-7e-05,-0.00027,-5.9999999999999995e-05,3
10015,10379,7e-05,5e-05,0.0,-2e-05,1e-05,-7e-05,-0.00027,-5.9999999999999995e-05,3
10016,10380,7e-05,5e-05,0.0,-2e-05,1e-05,-7e-05,-0.00027,-5.9999999999999995e-05,3
10017,10381,7e-05,5e-05,0.0,-2e-05,1e-05,-7e-05,-0.00027,-5.9999999999999995e-05,3
10018,10382,7e-05,5e-05,0.0,-2e-05,1e-05,-7e-05,-0.00027,-5.9999999999999995e-05,3
10019,10383,7e-05,5e-05,0.0,-2e-05,1e-05,-7e-05,-0.00027,-5.9999999999999995e-05,3
10020,10384,-4e-05,-9e-05,0.0,-5.9999999999999995e-05,-0.00011999999999999999,9e-05,0.00037999999999999997,0.00018999999999999998,3
10021,10385,5e-05,0.00011,0.0001,0.00016,0.00045999999999999996,0.00013000000000000002,-5.9999999999999995e-05,-0.00013000000000000002,3
10022,10386,5e-05,0.00011,0.0001,0.00016,0.00045999999999999996,0.00013000000000000002,-5.9999999999999995e-05,-0.00013000000000000002,3
10023,10388,5e-05,0.00011,0.0001,0.00016,0.00045999999999999996,0.00013000000000000002,-5.9999999999999995e-05,-0.00013000000000000002,3
10024,10389,5e-05,0.00011,0.0001,0.00016,0.00045999999999999996,0.00013000000000000002,-5.9999999999999995e-05,-0.00013000000000000002,3
10025,10390,5e-05,0.00011,0.0001,0.00016,0.00045999999999999996,0.00013000000000000002,-5.9999999999999995e-05,-0.00013000000000000002,3
10026,10391,5e-05,0.00011,0.0001,0.00016,0.00045999999999999996,0.00013000000000000002,-5.9999999999999995e-05,-0.00013000000000000002,3
10027,10392,5e-05,0.00011,0.0001,0.00016,0.00045999999999999996,0.00013000000000000002,-5.9999999999999995e-05,-0.00013000000000000002,3
10028,10393,5e-05,0.00011,0.0001,0.00016,0.00045999999999999996,0.00013000000000000002,-5.9999999999999995e-05,-0.00013000000000000002,3
10029,10394,5e-05,0.00011,0.0001,0.00016,0.00045999999999999996,0.00013000000000000002,-5.9999999999999995e-05,-0.00013000000000000002,3
10030,10395,5e-05,0.00011,0.0001,0.00016,0.00045999999999999996,0.00013000000000000002,-5.9999999999999995e-05,-0.00013000000000000002,3
10031,10396,5e-05,0.00011,0.0001,0.00016,0.00045999999999999996,0.00013000000000000002,-5.9999999999999995e-05,-0.00013000000000000002,3
10032,10397,5e-05,0.00011,0.0001,0.00016,0.00045999999999999996,0.00013000000000000002,-5.9999999999999995e-05,-0.00013000000000000002,3
10033,10398,5e-05,0.00011,0.0001,0.00016,0.00045999999999999996,0.00013000000000000002,-5.9999999999999995e-05,-0.00013000000000000002,3
10034,10399,5e-05,0.00011,0.0001,0.00016,0.00045999999999999996,0.00013000000000000002,-5.9999999999999995e-05,-0.00013000000000000002,3
10035,10400,5e-05,0.00011,0.0001,0.00016,0.00045999999999999996,0.00013000000000000002,-5.9999999999999995e-05,-0.00013000000000000002,3
10036,10401,5e-05,0.00011,0.0001,0.00016,0.00045999999999999996,0.00013000000000000002,-5.9999999999999995e-05,-0.00013000000000000002,3
10037,10402,5e-05,0.00011,0.0001,0.00016,0.00045999999999999996,0.00013000000000000002,-5.9999999999999995e-05,-0.00013000000000000002,3
10038,10403,5e-05,0.00011,0.0001,0.00016,0.00045999999999999996,0.00013000000000000002,-5.9999999999999995e-05,-0.00013000000000000002,3
10039,10404,5e-05,0.00011,0.0001,0.00016,0.00045999999999999996,0.00013000000000000002,-5.9999999999999995e-05,-0.00013000000000000002,3
10040,10405,5e-05,0.00011,0.0001,0.00016,0.00045999999999999996,0.00013000000000000002,-5.9999999999999995e-05,-0.00013000000000000002,3
10041,10406,5e-05,0.00011,0.0001,0.00016,0.00045999999999999996,0.00013000000000000002,-5.9999999999999995e-05,-0.00013000000000000002,3
10042,10407,5e-05,0.00011,0.0001,0.00016,0.00045999999999999996,0.00013000000000000002,-5.9999999999999995e-05,-0.00013000000000000002,3
10043,10408,5e-05,0.00011,0.0001,0.00016,0.00045999999999999996,0.00013000000000000002,-5.9999999999999995e-05,-0.00013000000000000002,3
10044,10409,5e-05,0.00011,0.0001,0.00016,0.00045999999999999996,0.00013000000000000002,-5.9999999999999995e-05,-0.00013000000000000002,3
10045,10410,5e-05,0.00011,0.0001,0.00016,0.00045999999999999996,0.00013000000000000002,-5.9999999999999995e-05,-0.00013000000000000002,3
10046,10411,5e-05,0.00011,0.0001,0.00016,0.00045999999999999996,0.00013000000000000002,-5.9999999999999995e-05,-0.00013000000000000002,3
10047,10412,5e-05,0.00011,0.0001,0.00016,0.00045999999999999996,0.00013000000000000002,-5.9999999999999995e-05,-0.00013000000000000002,3
10048,10413,5e-05,0.00011,0.0001,0.00016,0.00045999999999999996,0.00013000000000000002,-5.9999999999999995e-05,-0.00013000000000000002,3
10049,10414,5e-05,0.00011,0.0001,0.00016,0.00045999999999999996,0.00013000000000000002,-5.9999999999999995e-05,-0.00013000000000000002,3
10050,10415,0.00021,8e-05,-2.9999999999999997e-05,-1e-05,9e-05,-0.00021,4e-05,0.00014,3
10051,10416,-2e-05,-5.9999999999999995e-05,-9e-05,-0.00011,-0.00018,-0.00016999999999999999,5e-05,0.0001,3
10052,10417,-2e-05,-5.9999999999999995e-05,-9e-05,-0.00011,-0.00018,-0.00016999999999999999,5e-05,0.0001,3
10053,10418,-2e-05,-5.9999999999999995e-05,-9e-05,-0.00011,-0.00018,-0.00016999999999999999,5e-05,0.0001,3
10054,10419,-2e-05,-5.9999999999999995e-05,-9e-05,-0.00011,-0.00018,-0.00016999999999999999,5e-05,0.0001,3
10055,10420,-2e-05,-5.9999999999999995e-05,-9e-05,-0.00011,-0.00018,-0.00016999999999999999,5e-05,0.0001,3
10056,10422,-2e-05,-5.9999999999999995e-05,-9e-05,-0.00011,-0.00018,-0.00016999999999999999,5e-05,0.0001,3
10057,10423,-2e-05,-5.9999999999999995e-05,-9e-05,-0.00011,-0.00018,-0.00016999999999999999,5e-05,0.0001,3
10058,10424,-2e-05,-5.9999999999999995e-05,-9e-05,-0.00011,-0.00018,-0.00016999999999999999,5e-05,0.0001,3
10059,10425,-2e-05,-5.9999999999999995e-05,-9e-05,-0.00011,-0.00018,-0.00016999999999999999,5e-05,0.0001,3
10060,10426,-2e-05,-5.9999999999999995e-05,-9e-05,-0.00011,-0.00018,-0.00016999999999999999,5e-05,0.0001,3
10061,10427,-2e-05,-5.9999999999999995e-05,-9e-05,-0.00011,-0.00018,-0.00016999999999999999,5e-05,0.0001,3
10062,10428,-2e-05,-5.9999999999999995e-05,-9e-05,-0.00011,-0.00018,-0.00016999999999999999,5e-05,0.0001,3
10063,10429,-2e-05,-5.9999999999999995e-05,-9e-05,-0.00011,-0.00018,-0.00016999999999999999,5e-05,0.0001,3
10064,10430,-0.00039,-0.00022999999999999998,7e-05,0.0002,0.00054,0.00026000000000000003,0.0005099999999999999,0.00045,3
10065,10431,0.00028,-1e-05,-7e-05,-5e-05,1e-05,-0.00014,-0.00018,0.00036,3
10066,10432,0.00028,-1e-05,-7e-05,-5e-05,1e-05,-0.00014,-0.00018,0.00036,3
10067,10433,0.00028,-1e-05,-7e-05,-5e-05,1e-05,-0.00014,-0.00018,0.00036,3
10068,10434,0.00028,-1e-05,-7e-05,-5e-05,1e-05,-0.00014,-0.00018,0.00036,3
10069,10435,0.00028,-1e-05,-7e-05,-5e-05,1e-05,-0.00014,-0.00018,0.00036,3
10070,10436,0.00028,-1e-05,-7e-05,-5e-05,1e-05,-0.00014,-0.00018,0.00036,3
10071,10438,0.00028,-1e-05,-7e-05,-5e-05,1e-05,-0.00014,-0.00018,0.00036,3
10072,10439,0.00028,-1e-05,-7e-05,-5e-05,1e-05,-0.00014,-0.00018,0.00036,3
10073,10440,0.00028,-1e-05,-7e-05,-5e-05,1e-05,-0.00014,-0.00018,0.00036,3
10074,10441,0.00028,-1e-05,-7e-05,-5e-05,1e-05,-0.00014,-0.00018,0.00036,3
10075,10442,0.00028,-1e-05,-7e-05,-5e-05,1e-05,-0.00014,-0.00018,0.00036,3
10076,10443,0.00028,-1e-05,-7e-05,-5e-05,1e-05,-0.00014,-0.00018,0.00036,3
10077,10444,0.00028,-1e-05,-7e-05,-5e-05,1e-05,-0.00014,-0.00018,0.00036,3
10078,10445,0.00028,-1e-05,-7e-05,-5e-05,1e-05,-0.00014,-0.00018,0.00036,3
10079,10446,0.00028,-1e-05,-7e-05,-5e-05,1e-05,-0.00014,-0.00018,0.00036,3
10080,10447,0.00028,-1e-05,-7e-05,-5e-05,1e-05,-0.00014,-0.00018,0.00036,3
10081,10448,0.00028,-1e-05,-7e-05,-5e-05,1e-05,-0.00014,-0.00018,0.00036,3
10082,10449,0.00028,-1e-05,-7e-05,-5e-05,1e-05,-0.00014,-0.00018,0.00036,3
10083,10450,0.00028,-1e-05,-7e-05,-5e-05,1e-05,-0.00014,-0.00018,0.00036,3
10084,10451,0.00028,-1e-05,-7e-05,-5e-05,1e-05,-0.00014,-0.00018,0.00036,3
10085,10452,0.00028,-1e-05,-7e-05,-5e-05,1e-05,-0.00014,-0.00018,0.00036,3
10086,10453,5e-05,-0.0001,-2.9999999999999997e-05,4e-05,0.00022,-2.9999999999999997e-05,-1e-05,7e-05,3
10087,10454,-0.00015,-7e-05,-0.0001,-7e-05,-0.00021,0.00042,0.0002,0.0001,3
10088,10455,-0.00015,-7e-05,-0.0001,-7e-05,-0.00021,0.00042,0.0002,0.0001,3
10089,10456,-0.00015,-7e-05,-0.0001,-7e-05,-0.00021,0.00042,0.0002,0.0001,3
10090,10457,-0.00015,-7e-05,-0.0001,-7e-05,-0.00021,0.00042,0.0002,0.0001,3
10091,10458,-0.00015,-7e-05,-0.0001,-7e-05,-0.00021,0.00042,0.0002,0.0001,3
10092,10459,-0.00015,-7e-05,-0.0001,-7e-05,-0.00021,0.00042,0.0002,0.0001,3
10093,10460,-0.00015,-7e-05,-0.0001,-7e-05,-0.00021,0.00042,0.0002,0.0001,3
10094,10461,-0.00015,-7e-05,-0.0001,-7e-05,-0.00021,0.00042,0.0002,0.0001,3
10095,10462,-0.00015,-7e-05,-0.0001,-7e-05,-0.00021,0.00042,0.0002,0.0001,3
10096,10463,-0.00015,-7e-05,-0.0001,-7e-05,-0.00021,0.00042,0.0002,0.0001,3
10097,10464,-0.00015,-7e-05,-0.0001,-7e-05,-0.00021,0.00042,0.0002,0.0001,3
10098,10465,-0.00015,-7e-05,-0.0001,-7e-05,-0.00021,0.00042,0.0002,0.0001,3
10099,10466,-0.00015,-7e-05,-0.0001,-7e-05,-0.00021,0.00042,0.0002,0.0001,3
10100,10467,-0.00015,-7e-05,-0.0001,-7e-05,-0.00021,0.00042,0.0002,0.0001,3
10101,10468,-0.00011,-8e-05,-0.00013000000000000002,-0.00011999999999999999,-0.00032,-5.9999999999999995e-05,-0.00013000000000000002,-0.00028,3
10102,10469,-4e-05,8e-05,0.0,-0.0001,-0.00025,0.00011,0.00015,-0.00016,3
10103,10470,-4e-05,8e-05,0.0,-0.0001,-0.00025,0.00011,0.00015,-0.00016,3
10104,10471,-4e-05,8e-05,0.0,-0.0001,-0.00025,0.00011,0.00015,-0.00016,3
10105,10472,-4e-05,8e-05,0.0,-0.0001,-0.00025,0.00011,0.00015,-0.00016,3
10106,10473,-4e-05,8e-05,0.0,-0.0001,-0.00025,0.00011,0.00015,-0.00016,3
10107,10474,-4e-05,8e-05,0.0,-0.0001,-0.00025,0.00011,0.00015,-0.00016,3
10108,10475,-4e-05,8e-05,0.0,-0.0001,-0.00025,0.00011,0.00015,-0.00016,3
10109,10476,-4e-05,8e-05,0.0,-0.0001,-0.00025,0.00011,0.00015,-0.00016,3
10110,10477,-4e-05,8e-05,0.0,-0.0001,-0.00025,0.00011,0.00015,-0.00016,3
10111,10478,-4e-05,8e-05,0.0,-0.0001,-0.00025,0.00011,0.00015,-0.00016,3
10112,10479,-4e-05,8e-05,0.0,-0.0001,-0.00025,0.00011,0.00015,-0.00016,3
10113,10480,-4e-05,8e-05,0.0,-0.0001,-0.00025,0.00011,0.00015,-0.00016,3
10114,10481,-4e-05,8e-05,0.0,-0.0001,-0.00025,0.00011,0.00015,-0.00016,3
10115,10482,-4e-05,8e-05,0.0,-0.0001,-0.00025,0.00011,0.00015,-0.00016,3
10116,10483,-4e-05,8e-05,0.0,-0.0001,-0.00025,0.00011,0.00015,-0.00016,3
10117,10484,-4e-05,8e-05,0.0,-0.0001,-0.00025,0.00011,0.00015,-0.00016,3
10118,10485,-4e-05,8e-05,0.0,-0.0001,-0.00025,0.00011,0.00015,-0.00016,3
10119,10486,-4e-05,8e-05,0.0,-0.0001,-0.00025,0.00011,0.00015,-0.00016,3
10120,10488,-4e-05,8e-05,0.0,-0.0001,-0.00025,0.00011,0.00015,-0.00016,3
10121,10489,-4e-05,8e-05,0.0,-0.0001,-0.00025,0.00011,0.00015,-0.00016,3
10122,10490,-4e-05,8e-05,0.0,-0.0001,-0.00025,0.00011,0.00015,-0.00016,3
10123,10491,-0.00025,-1e-05,2.9999999999999997e-05,1e-05,-0.00023999999999999998,-0.00015,-0.00033,-0.00015,3
10124,10492,-0.00029,7e-05,2e-05,-2.9999999999999997e-05,0.00013000000000000002,-4e-05,-9e-05,-0.00037999999999999997,3
10125,10493,-0.00029,7e-05,2e-05,-2.9999999999999997e-05,0.00013000000000000002,-4e-05,-9e-05,-0.00037999999999999997,3
10126,10494,-0.00029,7e-05,2e-05,-2.9999999999999997e-05,0.00013000000000000002,-4e-05,-9e-05,-0.00037999999999999997,3
10127,10495,-0.00029,7e-05,2e-05,-2.9999999999999997e-05,0.00013000000000000002,-4e-05,-9e-05,-0.00037999999999999997,3
10128,10496,-0.00029,7e-05,2e-05,-2.9999999999999997e-05,0.00013000000000000002,-4e-05,-9e-05,-0.00037999999999999997,3
10129,10497,-0.00029,7e-05,2e-05,-2.9999999999999997e-05,0.00013000000000000002,-4e-05,-9e-05,-0.00037999999999999997,3
10130,10498,-0.00029,7e-05,2e-05,-2.9999999999999997e-05,0.00013000000000000002,-4e-05,-9e-05,-0.00037999999999999997,3
10131,10499,-0.00029,7e-05,2e-05,-2.9999999999999997e-05,0.00013000000000000002,-4e-05,-9e-05,-0.00037999999999999997,3
10132,10500,-0.00029,7e-05,2e-05,-2.9999999999999997e-05,0.00013000000000000002,-4e-05,-9e-05,-0.00037999999999999997,3
10133,10501,-0.00029,7e-05,2e-05,-2.9999999999999997e-05,0.00013000000000000002,-4e-05,-9e-05,-0.00037999999999999997,3
10134,10502,-0.00029,7e-05,2e-05,-2.9999999999999997e-05,0.00013000000000000002,-4e-05,-9e-05,-0.00037999999999999997,3
10135,10503,-0.00029,7e-05,2e-05,-2.9999999999999997e-05,0.00013000000000000002,-4e-05,-9e-05,-0.00037999999999999997,3
10136,10504,0.00043,2e-05,-2.9999999999999997e-05,-2.9999999999999997e-05,-2e-05,-0.00014,-0.00022999999999999998,-0.0001,3
10137,10505,0.00043,2e-05,-2.9999999999999997e-05,-2.9999999999999997e-05,-2e-05,-0.00014,-0.00022999999999999998,-0.0001,3
10138,10506,0.00043,2e-05,-2.9999999999999997e-05,-2.9999999999999997e-05,-2e-05,-0.00014,-0.00022999999999999998,-0.0001,3
10139,10507,0.00043,2e-05,-2.9999999999999997e-05,-2.9999999999999997e-05,-2e-05,-0.00014,-0.00022999999999999998,-0.0001,3
10140,10508,0.00043,2e-05,-2.9999999999999997e-05,-2.9999999999999997e-05,-2e-05,-0.00014,-0.00022999999999999998,-0.0001,3
10141,10509,0.00043,2e-05,-2.9999999999999997e-05,-2.9999999999999997e-05,-2e-05,-0.00014,-0.00022999999999999998,-0.0001,3
10142,10510,0.00043,2e-05,-2.9999999999999997e-05,-2.9999999999999997e-05,-2e-05,-0.00014,-0.00022999999999999998,-0.0001,3
10143,10511,0.00043,2e-05,-2.9999999999999997e-05,-2.9999999999999997e-05,-2e-05,-0.00014,-0.00022999999999999998,-0.0001,3
10144,10512,-0.00022,-7e-05,-1e-05,2.9999999999999997e-05,-0.00011999999999999999,-2.9999999999999997e-05,0.00013000000000000002,4e-05,3
10145,10513,-0.00022,-7e-05,-1e-05,2.9999999999999997e-05,-0.00011999999999999999,-2.9999999999999997e-05,0.00013000000000000002,4e-05,3
10146,10514,-0.00022,-7e-05,-1e-05,2.9999999999999997e-05,-0.00011999999999999999,-2.9999999999999997e-05,0.00013000000000000002,4e-05,3
10147,10515,-0.00022,-7e-05,-1e-05,2.9999999999999997e-05,-0.00011999999999999999,-2.9999999999999997e-05,0.00013000000000000002,4e-05,3
10148,10516,-0.00022,-7e-05,-1e-05,2.9999999999999997e-05,-0.00011999999999999999,-2.9999999999999997e-05,0.00013000000000000002,4e-05,3
10149,10517,-0.00022,-7e-05,-1e-05,2.9999999999999997e-05,-0.00011999999999999999,-2.9999999999999997e-05,0.00013000000000000002,4e-05,3
10150,10518,-0.00022,-7e-05,-1e-05,2.9999999999999997e-05,-0.00011999999999999999,-2.9999999999999997e-05,0.00013000000000000002,4e-05,3
10151,10519,-0.00022,-7e-05,-1e-05,2.9999999999999997e-05,-0.00011999999999999999,-2.9999999999999997e-05,0.00013000000000000002,4e-05,3
10152,10520,-0.00022,-7e-05,-1e-05,2.9999999999999997e-05,-0.00011999999999999999,-2.9999999999999997e-05,0.00013000000000000002,4e-05,3
10153,10521,-0.00022,-7e-05,-1e-05,2.9999999999999997e-05,-0.00011999999999999999,-2.9999999999999997e-05,0.00013000000000000002,4e-05,3
10154,10522,-0.00022,-7e-05,-1e-05,2.9999999999999997e-05,-0.00011999999999999999,-2.9999999999999997e-05,0.00013000000000000002,4e-05,3
10155,10523,-0.00022,-7e-05,-1e-05,2.9999999999999997e-05,-0.00011999999999999999,-2.9999999999999997e-05,0.00013000000000000002,4e-05,3
10156,10524,-0.00022,-7e-05,-1e-05,2.9999999999999997e-05,-0.00011999999999999999,-2.9999999999999997e-05,0.00013000000000000002,4e-05,3
10157,10525,-0.00022,-7e-05,-1e-05,2.9999999999999997e-05,-0.00011999999999999999,-2.9999999999999997e-05,0.00013000000000000002,4e-05,3
10158,10526,-0.00022,-7e-05,-1e-05,2.9999999999999997e-05,-0.00011999999999999999,-2.9999999999999997e-05,0.00013000000000000002,4e-05,3
10159,10527,-0.00022,-7e-05,-1e-05,2.9999999999999997e-05,-0.00011999999999999999,-2.9999999999999997e-05,0.00013000000000000002,4e-05,3
10160,10528,-0.00022,-7e-05,-1e-05,2.9999999999999997e-05,-0.00011999999999999999,-2.9999999999999997e-05,0.00013000000000000002,4e-05,3
10161,10529,-0.00022,-7e-05,-1e-05,2.9999999999999997e-05,-0.00011999999999999999,-2.9999999999999997e-05,0.00013000000000000002,4e-05,3
10162,10530,-0.00022,-7e-05,-1e-05,2.9999999999999997e-05,-0.00011999999999999999,-2.9999999999999997e-05,0.00013000000000000002,4e-05,3
10163,10531,-0.00022,-7e-05,-1e-05,2.9999999999999997e-05,-0.00011999999999999999,-2.9999999999999997e-05,0.00013000000000000002,4e-05,3
10164,10532,-0.00022,-7e-05,-1e-05,2.9999999999999997e-05,-0.00011999999999999999,-2.9999999999999997e-05,0.00013000000000000002,4e-05,3
10165,10533,-0.00022,-7e-05,-1e-05,2.9999999999999997e-05,-0.00011999999999999999,-2.9999999999999997e-05,0.00013000000000000002,4e-05,3
10166,10534,-0.00022,-7e-05,-1e-05,2.9999999999999997e-05,-0.00011999999999999999,-2.9999999999999997e-05,0.00013000000000000002,4e-05,3
10167,10535,0.00011,0.0002,5e-05,-2.9999999999999997e-05,-5e-05,-0.00022999999999999998,-0.00043,0.00018,3
10168,10536,0.00023999999999999998,5.9999999999999995e-05,7e-05,0.0,8e-05,-0.0002,-2e-05,0.00022,3
10169,10538,0.00023999999999999998,5.9999999999999995e-05,7e-05,0.0,8e-05,-0.0002,-2e-05,0.00022,3
10170,10539,0.00023999999999999998,5.9999999999999995e-05,7e-05,0.0,8e-05,-0.0002,-2e-05,0.00022,3
10171,10540,0.00023999999999999998,5.9999999999999995e-05,7e-05,0.0,8e-05,-0.0002,-2e-05,0.00022,3
10172,10541,0.00023999999999999998,5.9999999999999995e-05,7e-05,0.0,8e-05,-0.0002,-2e-05,0.00022,3
10173,10542,0.00023999999999999998,5.9999999999999995e-05,7e-05,0.0,8e-05,-0.0002,-2e-05,0.00022,3
10174,10543,0.00023999999999999998,5.9999999999999995e-05,7e-05,0.0,8e-05,-0.0002,-2e-05,0.00022,3
10175,10544,0.00023999999999999998,5.9999999999999995e-05,7e-05,0.0,8e-05,-0.0002,-2e-05,0.00022,3
10176,10545,0.00023999999999999998,5.9999999999999995e-05,7e-05,0.0,8e-05,-0.0002,-2e-05,0.00022,3
10177,10546,0.00023999999999999998,5.9999999999999995e-05,7e-05,0.0,8e-05,-0.0002,-2e-05,0.00022,3
10178,10547,0.00023999999999999998,5.9999999999999995e-05,7e-05,0.0,8e-05,-0.0002,-2e-05,0.00022,3
10179,10548,0.00023999999999999998,5.9999999999999995e-05,7e-05,0.0,8e-05,-0.0002,-2e-05,0.00022,3
10180,10549,0.00023999999999999998,5.9999999999999995e-05,7e-05,0.0,8e-05,-0.0002,-2e-05,0.00022,3
10181,10550,-9e-05,-5.9999999999999995e-05,-5.9999999999999995e-05,-0.0001,-0.00018999999999999998,-4e-05,0.0005200000000000001,0.0001,3
10182,10551,-5e-05,-5.9999999999999995e-05,-4e-05,-4e-05,0.00018999999999999998,-8e-05,-0.00014,-0.00022,3
10183,10552,-5e-05,-5.9999999999999995e-05,-4e-05,-4e-05,0.00018999999999999998,-8e-05,-0.00014,-0.00022,3
10184,10553,-5e-05,-5.9999999999999995e-05,-4e-05,-4e-05,0.00018999999999999998,-8e-05,-0.00014,-0.00022,3
10185,10554,-5e-05,-5.9999999999999995e-05,-4e-05,-4e-05,0.00018999999999999998,-8e-05,-0.00014,-0.00022,3
10186,10555,-5e-05,-5.9999999999999995e-05,-4e-05,-4e-05,0.00018999999999999998,-8e-05,-0.00014,-0.00022,3
10187,10556,-5e-05,-5.9999999999999995e-05,-4e-05,-4e-05,0.00018999999999999998,-8e-05,-0.00014,-0.00022,3
10188,10557,-5e-05,-5.9999999999999995e-05,-4e-05,-4e-05,0.00018999999999999998,-8e-05,-0.00014,-0.00022,3
10189,10558,-5e-05,-5.9999999999999995e-05,-4e-05,-4e-05,0.00018999999999999998,-8e-05,-0.00014,-0.00022,3
10190,10559,-5e-05,-5.9999999999999995e-05,-4e-05,-4e-05,0.00018999999999999998,-8e-05,-0.00014,-0.00022,3
10191,10560,-5e-05,-5.9999999999999995e-05,-4e-05,-4e-05,0.00018999999999999998,-8e-05,-0.00014,-0.00022,3
10192,10561,-5e-05,-5.9999999999999995e-05,-4e-05,-4e-05,0.00018999999999999998,-8e-05,-0.00014,-0.00022,3
10193,10562,-5e-05,-5.9999999999999995e-05,-4e-05,-4e-05,0.00018999999999999998,-8e-05,-0.00014,-0.00022,3
10194,10563,-5e-05,-5.9999999999999995e-05,-4e-05,-4e-05,0.00018999999999999998,-8e-05,-0.00014,-0.00022,3
10195,10564,-5e-05,-5.9999999999999995e-05,-4e-05,-4e-05,0.00018999999999999998,-8e-05,-0.00014,-0.00022,3
10196,10565,-5e-05,-5.9999999999999995e-05,-4e-05,-4e-05,0.00018999999999999998,-8e-05,-0.00014,-0.00022,3
10197,10566,-5e-05,-5.9999999999999995e-05,-4e-05,-4e-05,0.00018999999999999998,-8e-05,-0.00014,-0.00022,3
10198,10567,-5e-05,-5.9999999999999995e-05,-4e-05,-4e-05,0.00018999999999999998,-8e-05,-0.00014,-0.00022,3
10199,10568,-5e-05,-5.9999999999999995e-05,-4e-05,-4e-05,0.00018999999999999998,-8e-05,-0.00014,-0.00022,3
10200,10569,-5e-05,-5.9999999999999995e-05,-4e-05,-4e-05,0.00018999999999999998,-8e-05,-0.00014,-0.00022,3
10201,10570,-5e-05,-5.9999999999999995e-05,-4e-05,-4e-05,0.00018999999999999998,-8e-05,-0.00014,-0.00022,3
10202,10571,-5e-05,-5.9999999999999995e-05,-4e-05,-4e-05,0.00018999999999999998,-8e-05,-0.00014,-0.00022,3
10203,10572,-5e-05,-5.9999999999999995e-05,-4e-05,-4e-05,0.00018999999999999998,-8e-05,-0.00014,-0.00022,3
10204,10573,-0.00013000000000000002,-8e-05,-5.9999999999999995e-05,1e-05,5.9999999999999995e-05,4e-05,8e-05,-0.00013000000000000002,3
10205,10574,-0.00013000000000000002,-8e-05,-5.9999999999999995e-05,1e-05,5.9999999999999995e-05,4e-05,8e-05,-0.00013000000000000002,3
10206,10575,-0.00013000000000000002,-8e-05,-5.9999999999999995e-05,1e-05,5.9999999999999995e-05,4e-05,8e-05,-0.00013000000000000002,3
10207,10576,-0.00013000000000000002,-8e-05,-5.9999999999999995e-05,1e-05,5.9999999999999995e-05,4e-05,8e-05,-0.00013000000000000002,3
