,time,channel1,channel2,channel3,channel4,channel5,channel6,channel7,channel8,class
27657,28917,-2.9999999999999997e-05,0.00014,0.00061,0.00116,-8e-05,-0.00064,-0.00025,-9e-05,4
27658,28918,-2.9999999999999997e-05,0.00014,0.00061,0.00116,-8e-05,-0.00064,-0.00025,-9e-05,4
27659,28919,-2e-05,-0.00015,-5e-05,-0.00022,-0.00047000000000000004,0.00032,2.9999999999999997e-05,1e-05,4
27660,28920,-2e-05,-0.00015,-5e-05,-0.00022,-0.00047000000000000004,0.00032,2.9999999999999997e-05,1e-05,4
27661,28921,-2e-05,-0.00015,-5e-05,-0.00022,-0.00047000000000000004,0.00032,2.9999999999999997e-05,1e-05,4
27662,28922,-2e-05,-0.00015,-5e-05,-0.00022,-0.00047000000000000004,0.00032,2.9999999999999997e-05,1e-05,4
27663,28923,-2e-05,-0.00015,-5e-05,-0.00022,-0.00047000000000000004,0.00032,2.9999999999999997e-05,1e-05,4
27664,28924,-2e-05,-0.00015,-5e-05,-0.00022,-0.00047000000000000004,0.00032,2.9999999999999997e-05,1e-05,4
27665,28925,-2e-05,-0.00015,-5e-05,-0.00022,-0.00047000000000000004,0.00032,2.9999999999999997e-05,1e-05,4
27666,28926,-2e-05,-0.00015,-5e-05,-0.00022,-0.00047000000000000004,0.00032,2.9999999999999997e-05,1e-05,4
27667,28927,-5.9999999999999995e-05,-9e-05,-5e-05,-0.0007099999999999999,-0.00075,-0.00014,-8e-05,-4e-05,4
27668,28928,-5.9999999999999995e-05,-9e-05,-5e-05,-0.0007099999999999999,-0.00075,-0.00014,-8e-05,-4e-05,4
27669,28929,-5.9999999999999995e-05,-9e-05,-5e-05,-0.0007099999999999999,-0.00075,-0.00014,-8e-05,-4e-05,4
27670,28930,-5.9999999999999995e-05,-9e-05,-5e-05,-0.0007099999999999999,-0.00075,-0.00014,-8e-05,-4e-05,4
27671,28931,-5.9999999999999995e-05,-9e-05,-5e-05,-0.0007099999999999999,-0.00075,-0.00014,-8e-05,-4e-05,4
27672,28932,-5.9999999999999995e-05,-9e-05,-5e-05,-0.0007099999999999999,-0.00075,-0.00014,-8e-05,-4e-05,4
27673,28933,-5.9999999999999995e-05,-9e-05,-5e-05,-0.0007099999999999999,-0.00075,-0.00014,-8e-05,-4e-05,4
27674,28934,-5.9999999999999995e-05,-9e-05,-5e-05,-0.0007099999999999999,-0.00075,-0.00014,-8e-05,-4e-05,4
27675,28936,-5.9999999999999995e-05,-9e-05,-5e-05,-0.0007099999999999999,-0.00075,-0.00014,-8e-05,-4e-05,4
27676,28937,-5.9999999999999995e-05,-9e-05,-5e-05,-0.0007099999999999999,-0.00075,-0.00014,-8e-05,-4e-05,4
27677,28938,-5.9999999999999995e-05,-9e-05,-5e-05,-0.0007099999999999999,-0.00075,-0.00014,-8e-05,-4e-05,4
27678,28939,-5.9999999999999995e-05,-9e-05,-5e-05,-0.0007099999999999999,-0.00075,-0.00014,-8e-05,-4e-05,4
27679,28940,-5.9999999999999995e-05,-9e-05,-5e-05,-0.0007099999999999999,-0.00075,-0.00014,-8e-05,-4e-05,4
27680,28941,-5.9999999999999995e-05,-9e-05,-5e-05,-0.0007099999999999999,-0.00075,-0.00014,-8e-05,-4e-05,4
27681,28942,5e-05,5.9999999999999995e-05,0.00035,0.00021,2.9999999999999997e-05,-0.00037999999999999997,2e-05,4e-05,4
27682,28943,0.0001,0.00015,0.00047999999999999996,0.00029,0.00045,0.0009400000000000001,0.00033,0.00011999999999999999,4
27683,28944,0.0001,0.00015,0.00047999999999999996,0.00029,0.00045,0.0009400000000000001,0.00033,0.00011999999999999999,4
27684,28945,0.0001,0.00015,0.00047999999999999996,0.00029,0.00045,0.0009400000000000001,0.00033,0.00011999999999999999,4
27685,28946,0.0001,0.00015,0.00047999999999999996,0.00029,0.00045,0.0009400000000000001,0.00033,0.00011999999999999999,4
27686,28947,0.0001,0.00015,0.00047999999999999996,0.00029,0.00045,0.0009400000000000001,0.00033,0.00011999999999999999,4
27687,28948,0.0001,0.00015,0.00047999999999999996,0.00029,0.00045,0.0009400000000000001,0.00033,0.00011999999999999999,4
27688,28949,0.0001,0.00015,0.00047999999999999996,0.00029,0.00045,0.0009400000000000001,0.00033,0.00011999999999999999,4
27689,28950,0.0001,0.00015,0.00047999999999999996,0.00029,0.00045,0.0009400000000000001,0.00033,0.00011999999999999999,4
27690,28951,0.0001,0.00015,0.00047999999999999996,0.00029,0.00045,0.0009400000000000001,0.00033,0.00011999999999999999,4
27691,28952,0.0001,0.00015,0.00047999999999999996,0.00029,0.00045,0.0009400000000000001,0.00033,0.00011999999999999999,4
27692,28953,0.0001,0.00015,0.00047999999999999996,0.00029,0.00045,0.0009400000000000001,0.00033,0.00011999999999999999,4
27693,28954,0.0001,0.00015,0.00047999999999999996,0.00029,0.00045,0.0009400000000000001,0.00033,0.00011999999999999999,4
27694,28955,0.0001,0.00015,0.00047999999999999996,0.00029,0.00045,0.0009400000000000001,0.00033,0.00011999999999999999,4
27695,28956,0.0001,0.00015,0.00047999999999999996,0.00029,0.00045,0.0009400000000000001,0.00033,0.00011999999999999999,4
27696,28957,0.0001,0.00015,0.00047999999999999996,0.00029,0.00045,0.0009400000000000001,0.00033,0.00011999999999999999,4
27697,28958,0.0001,0.00015,0.00047999999999999996,0.00029,0.00045,0.0009400000000000001,0.00033,0.00011999999999999999,4
27698,28959,0.0001,0.00015,0.00047999999999999996,0.00029,0.00045,0.0009400000000000001,0.00033,0.00011999999999999999,4
27699,28960,0.0001,0.00015,0.00047999999999999996,0.00029,0.00045,0.0009400000000000001,0.00033,0.00011999999999999999,4
27700,28961,0.0001,0.00015,0.00047999999999999996,0.00029,0.00045,0.0009400000000000001,0.00033,0.00011999999999999999,4
27701,28962,0.0001,0.00015,0.00047999999999999996,0.00029,0.00045,0.0009400000000000001,0.00033,0.00011999999999999999,4
27702,28963,0.0001,0.00015,0.00047999999999999996,0.00029,0.00045,0.0009400000000000001,0.00033,0.00011999999999999999,4
27703,28964,0.0001,0.00015,0.00047999999999999996,0.00029,0.00045,0.0009400000000000001,0.00033,0.00011999999999999999,4
27704,28965,-5e-05,-0.0002,5.9999999999999995e-05,0.00014,-0.00082,-0.00047000000000000004,-2.9999999999999997e-05,0.0,4
27705,28966,7e-05,0.00011999999999999999,0.0001,0.00079,0.0007700000000000001,0.00022,9e-05,0.0001,4
27706,28967,7e-05,0.00011999999999999999,0.0001,0.00079,0.0007700000000000001,0.00022,9e-05,0.0001,4
27707,28968,7e-05,0.00011999999999999999,0.0001,0.00079,0.0007700000000000001,0.00022,9e-05,0.0001,4
27708,28969,7e-05,0.00011999999999999999,0.0001,0.00079,0.0007700000000000001,0.00022,9e-05,0.0001,4
27709,28970,7e-05,0.00011999999999999999,0.0001,0.00079,0.0007700000000000001,0.00022,9e-05,0.0001,4
27710,28971,7e-05,0.00011999999999999999,0.0001,0.00079,0.0007700000000000001,0.00022,9e-05,0.0001,4
27711,28972,7e-05,0.00011999999999999999,0.0001,0.00079,0.0007700000000000001,0.00022,9e-05,0.0001,4
27712,28973,7e-05,0.00011999999999999999,0.0001,0.00079,0.0007700000000000001,0.00022,9e-05,0.0001,4
27713,28974,7e-05,0.00011999999999999999,0.0001,0.00079,0.0007700000000000001,0.00022,9e-05,0.0001,4
27714,28975,7e-05,0.00011999999999999999,0.0001,0.00079,0.0007700000000000001,0.00022,9e-05,0.0001,4
27715,28976,7e-05,0.00011999999999999999,0.0001,0.00079,0.0007700000000000001,0.00022,9e-05,0.0001,4
27716,28977,7e-05,0.00011999999999999999,0.0001,0.00079,0.0007700000000000001,0.00022,9e-05,0.0001,4
27717,28978,7e-05,0.00011999999999999999,0.0001,0.00079,0.0007700000000000001,0.00022,9e-05,0.0001,4
27718,28979,-0.00014,-0.00021,-0.00033,0.00081,-0.00037,0.00016,-9e-05,-0.0001,4
27719,28980,-0.00014,-0.00021,-0.00033,0.00081,-0.00037,0.00016,-9e-05,-0.0001,4
27720,28981,-0.00014,-0.00021,-0.00033,0.00081,-0.00037,0.00016,-9e-05,-0.0001,4
27721,28982,-0.00014,-0.00021,-0.00033,0.00081,-0.00037,0.00016,-9e-05,-0.0001,4
27722,28983,-0.00014,-0.00021,-0.00033,0.00081,-0.00037,0.00016,-9e-05,-0.0001,4
27723,28984,-0.00014,-0.00021,-0.00033,0.00081,-0.00037,0.00016,-9e-05,-0.0001,4
27724,28985,-0.00014,-0.00021,-0.00033,0.00081,-0.00037,0.00016,-9e-05,-0.0001,4
27725,28986,-0.00014,-0.00021,-0.00033,0.00081,-0.00037,0.00016,-9e-05,-0.0001,4
27726,28989,-0.00011,-0.0001,-5e-05,0.00031,0.00075,-0.00015,0.0,-1e-05,4
27727,28990,-0.00011,-0.0001,-5e-05,0.00031,0.00075,-0.00015,0.0,-1e-05,4
27728,28991,-0.00011,-0.0001,-5e-05,0.00031,0.00075,-0.00015,0.0,-1e-05,4
27729,28992,-0.00011,-0.0001,-5e-05,0.00031,0.00075,-0.00015,0.0,-1e-05,4
27730,28993,-0.00011,-0.0001,-5e-05,0.00031,0.00075,-0.00015,0.0,-1e-05,4
27731,28994,-0.00011,-0.0001,-5e-05,0.00031,0.00075,-0.00015,0.0,-1e-05,4
27732,28995,-0.00011,-0.0001,-5e-05,0.00031,0.00075,-0.00015,0.0,-1e-05,4
27733,28996,-0.00011,-0.0001,-5e-05,0.00031,0.00075,-0.00015,0.0,-1e-05,4
27734,28997,-0.00011,-0.0001,-5e-05,0.00031,0.00075,-0.00015,0.0,-1e-05,4
27735,28998,-0.00011,-0.0001,-5e-05,0.00031,0.00075,-0.00015,0.0,-1e-05,4
27736,28999,-0.00011,-0.0001,-5e-05,0.00031,0.00075,-0.00015,0.0,-1e-05,4
27737,29000,-0.00011,-0.0001,-5e-05,0.00031,0.00075,-0.00015,0.0,-1e-05,4
27738,29001,-0.00011,-0.0001,-5e-05,0.00031,0.00075,-0.00015,0.0,-1e-05,4
27739,29002,-5e-05,1e-05,0.00016999999999999999,0.00085,0.0007700000000000001,0.00018,1e-05,-2e-05,4
27740,29003,5e-05,-2.9999999999999997e-05,-8e-05,0.00044,-0.00011999999999999999,-0.00037999999999999997,-9e-05,2e-05,4
27741,29004,5e-05,-2.9999999999999997e-05,-8e-05,0.00044,-0.00011999999999999999,-0.00037999999999999997,-9e-05,2e-05,4
27742,29005,5e-05,-2.9999999999999997e-05,-8e-05,0.00044,-0.00011999999999999999,-0.00037999999999999997,-9e-05,2e-05,4
27743,29006,5e-05,-2.9999999999999997e-05,-8e-05,0.00044,-0.00011999999999999999,-0.00037999999999999997,-9e-05,2e-05,4
27744,29007,5e-05,-2.9999999999999997e-05,-8e-05,0.00044,-0.00011999999999999999,-0.00037999999999999997,-9e-05,2e-05,4
27745,29008,5e-05,-2.9999999999999997e-05,-8e-05,0.00044,-0.00011999999999999999,-0.00037999999999999997,-9e-05,2e-05,4
27746,29009,5e-05,-2.9999999999999997e-05,-8e-05,0.00044,-0.00011999999999999999,-0.00037999999999999997,-9e-05,2e-05,4
27747,29010,5e-05,-2.9999999999999997e-05,-8e-05,0.00044,-0.00011999999999999999,-0.00037999999999999997,-9e-05,2e-05,4
27748,29011,5e-05,-2.9999999999999997e-05,-8e-05,0.00044,-0.00011999999999999999,-0.00037999999999999997,-9e-05,2e-05,4
27749,29012,5e-05,-2.9999999999999997e-05,-8e-05,0.00044,-0.00011999999999999999,-0.00037999999999999997,-9e-05,2e-05,4
27750,29013,5e-05,-2.9999999999999997e-05,-8e-05,0.00044,-0.00011999999999999999,-0.00037999999999999997,-9e-05,2e-05,4
27751,29014,5e-05,-2.9999999999999997e-05,-8e-05,0.00044,-0.00011999999999999999,-0.00037999999999999997,-9e-05,2e-05,4
27752,29015,5e-05,-2.9999999999999997e-05,-8e-05,0.00044,-0.00011999999999999999,-0.00037999999999999997,-9e-05,2e-05,4
27753,29016,5e-05,-2.9999999999999997e-05,-8e-05,0.00044,-0.00011999999999999999,-0.00037999999999999997,-9e-05,2e-05,4
27754,29017,5e-05,-2.9999999999999997e-05,-8e-05,0.00044,-0.00011999999999999999,-0.00037999999999999997,-9e-05,2e-05,4
27755,29018,5e-05,-2.9999999999999997e-05,-8e-05,0.00044,-0.00011999999999999999,-0.00037999999999999997,-9e-05,2e-05,4
27756,29019,5e-05,-2.9999999999999997e-05,-8e-05,0.00044,-0.00011999999999999999,-0.00037999999999999997,-9e-05,2e-05,4
27757,29020,5e-05,-2.9999999999999997e-05,-8e-05,0.00044,-0.00011999999999999999,-0.00037999999999999997,-9e-05,2e-05,4
27758,29021,5e-05,-2.9999999999999997e-05,-8e-05,0.00044,-0.00011999999999999999,-0.00037999999999999997,-9e-05,2e-05,4
27759,29022,5e-05,-2.9999999999999997e-05,-8e-05,0.00044,-0.00011999999999999999,-0.00037999999999999997,-9e-05,2e-05,4
27760,29023,5e-05,-2.9999999999999997e-05,-8e-05,0.00044,-0.00011999999999999999,-0.00037999999999999997,-9e-05,2e-05,4
27761,29024,5e-05,-2.9999999999999997e-05,-8e-05,0.00044,-0.00011999999999999999,-0.00037999999999999997,-9e-05,2e-05,4
27762,29025,1e-05,-5e-05,-0.00028,0.00061,0.00013000000000000002,5e-05,7e-05,2.9999999999999997e-05,4
27763,29026,-2e-05,0.0,-0.00022999999999999998,-0.00045999999999999996,-0.00043,-0.00013000000000000002,-2.9999999999999997e-05,-1e-05,4
27764,29027,-2e-05,0.0,-0.00022999999999999998,-0.00045999999999999996,-0.00043,-0.00013000000000000002,-2.9999999999999997e-05,-1e-05,4
27765,29028,-2e-05,0.0,-0.00022999999999999998,-0.00045999999999999996,-0.00043,-0.00013000000000000002,-2.9999999999999997e-05,-1e-05,4
27766,29029,-2e-05,0.0,-0.00022999999999999998,-0.00045999999999999996,-0.00043,-0.00013000000000000002,-2.9999999999999997e-05,-1e-05,4
27767,29030,-2e-05,0.0,-0.00022999999999999998,-0.00045999999999999996,-0.00043,-0.00013000000000000002,-2.9999999999999997e-05,-1e-05,4
27768,29031,-2e-05,0.0,-0.00022999999999999998,-0.00045999999999999996,-0.00043,-0.00013000000000000002,-2.9999999999999997e-05,-1e-05,4
27769,29032,-2e-05,0.0,-0.00022999999999999998,-0.00045999999999999996,-0.00043,-0.00013000000000000002,-2.9999999999999997e-05,-1e-05,4
27770,29033,-2e-05,0.0,-0.00022999999999999998,-0.00045999999999999996,-0.00043,-0.00013000000000000002,-2.9999999999999997e-05,-1e-05,4
27771,29034,-2e-05,0.0,-0.00022999999999999998,-0.00045999999999999996,-0.00043,-0.00013000000000000002,-2.9999999999999997e-05,-1e-05,4
27772,29035,-2e-05,0.0,-0.00022999999999999998,-0.00045999999999999996,-0.00043,-0.00013000000000000002,-2.9999999999999997e-05,-1e-05,4
27773,29036,-2e-05,0.0,-0.00022999999999999998,-0.00045999999999999996,-0.00043,-0.00013000000000000002,-2.9999999999999997e-05,-1e-05,4
27774,29040,-4e-05,-2e-05,5.9999999999999995e-05,0.00033999999999999997,-0.0003,0.00016,-9e-05,-7e-05,4
27775,29041,-4e-05,-2e-05,5.9999999999999995e-05,0.00033999999999999997,-0.0003,0.00016,-9e-05,-7e-05,4
27776,29042,-4e-05,-2e-05,5.9999999999999995e-05,0.00033999999999999997,-0.0003,0.00016,-9e-05,-7e-05,4
27777,29043,-4e-05,-2e-05,5.9999999999999995e-05,0.00033999999999999997,-0.0003,0.00016,-9e-05,-7e-05,4
27778,29044,-4e-05,-2e-05,5.9999999999999995e-05,0.00033999999999999997,-0.0003,0.00016,-9e-05,-7e-05,4
27779,29045,-4e-05,-2e-05,5.9999999999999995e-05,0.00033999999999999997,-0.0003,0.00016,-9e-05,-7e-05,4
27780,29046,-4e-05,-2e-05,5.9999999999999995e-05,0.00033999999999999997,-0.0003,0.00016,-9e-05,-7e-05,4
27781,29047,-4e-05,-2e-05,5.9999999999999995e-05,0.00033999999999999997,-0.0003,0.00016,-9e-05,-7e-05,4
27782,29048,5.9999999999999995e-05,2.9999999999999997e-05,-2.9999999999999997e-05,5.9999999999999995e-05,-0.00036,-0.00033999999999999997,5e-05,5e-05,4
27783,29049,5.9999999999999995e-05,2.9999999999999997e-05,-2.9999999999999997e-05,5.9999999999999995e-05,-0.00036,-0.00033999999999999997,5e-05,5e-05,4
27784,29050,5.9999999999999995e-05,2.9999999999999997e-05,-2.9999999999999997e-05,5.9999999999999995e-05,-0.00036,-0.00033999999999999997,5e-05,5e-05,4
27785,29051,5.9999999999999995e-05,2.9999999999999997e-05,-2.9999999999999997e-05,5.9999999999999995e-05,-0.00036,-0.00033999999999999997,5e-05,5e-05,4
27786,29052,5.9999999999999995e-05,2.9999999999999997e-05,-2.9999999999999997e-05,5.9999999999999995e-05,-0.00036,-0.00033999999999999997,5e-05,5e-05,4
27787,29053,5.9999999999999995e-05,2.9999999999999997e-05,-2.9999999999999997e-05,5.9999999999999995e-05,-0.00036,-0.00033999999999999997,5e-05,5e-05,4
27788,29054,5.9999999999999995e-05,2.9999999999999997e-05,-2.9999999999999997e-05,5.9999999999999995e-05,-0.00036,-0.00033999999999999997,5e-05,5e-05,4
27789,29055,5.9999999999999995e-05,2.9999999999999997e-05,-2.9999999999999997e-05,5.9999999999999995e-05,-0.00036,-0.00033999999999999997,5e-05,5e-05,4
27790,29056,5.9999999999999995e-05,2.9999999999999997e-05,-2.9999999999999997e-05,5.9999999999999995e-05,-0.00036,-0.00033999999999999997,5e-05,5e-05,4
27791,29057,5.9999999999999995e-05,2.9999999999999997e-05,-2.9999999999999997e-05,5.9999999999999995e-05,-0.00036,-0.00033999999999999997,5e-05,5e-05,4
27792,29058,5.9999999999999995e-05,2.9999999999999997e-05,-2.9999999999999997e-05,5.9999999999999995e-05,-0.00036,-0.00033999999999999997,5e-05,5e-05,4
27793,29059,5.9999999999999995e-05,2.9999999999999997e-05,-2.9999999999999997e-05,5.9999999999999995e-05,-0.00036,-0.00033999999999999997,5e-05,5e-05,4
27794,29060,5.9999999999999995e-05,2.9999999999999997e-05,-2.9999999999999997e-05,5.9999999999999995e-05,-0.00036,-0.00033999999999999997,5e-05,5e-05,4
27795,29061,5.9999999999999995e-05,2.9999999999999997e-05,-2.9999999999999997e-05,5.9999999999999995e-05,-0.00036,-0.00033999999999999997,5e-05,5e-05,4
27796,29062,5.9999999999999995e-05,2.9999999999999997e-05,-2.9999999999999997e-05,5.9999999999999995e-05,-0.00036,-0.00033999999999999997,5e-05,5e-05,4
27797,29063,-1e-05,4e-05,8e-05,0.00035,0.0009,5.9999999999999995e-05,8e-05,2e-05,4
27798,29064,-7e-05,-0.00016999999999999999,-0.00041,-0.00016,0.00035,0.00022999999999999998,4e-05,-2e-05,4
27799,29065,-7e-05,-0.00016999999999999999,-0.00041,-0.00016,0.00035,0.00022999999999999998,4e-05,-2e-05,4
27800,29066,-7e-05,-0.00016999999999999999,-0.00041,-0.00016,0.00035,0.00022999999999999998,4e-05,-2e-05,4
27801,29067,-7e-05,-0.00016999999999999999,-0.00041,-0.00016,0.00035,0.00022999999999999998,4e-05,-2e-05,4
27802,29068,-7e-05,-0.00016999999999999999,-0.00041,-0.00016,0.00035,0.00022999999999999998,4e-05,-2e-05,4
27803,29069,-7e-05,-0.00016999999999999999,-0.00041,-0.00016,0.00035,0.00022999999999999998,4e-05,-2e-05,4
27804,29070,-7e-05,-0.00016999999999999999,-0.00041,-0.00016,0.00035,0.00022999999999999998,4e-05,-2e-05,4
27805,29071,-7e-05,-0.00016999999999999999,-0.00041,-0.00016,0.00035,0.00022999999999999998,4e-05,-2e-05,4
27806,29072,-7e-05,-0.00016999999999999999,-0.00041,-0.00016,0.00035,0.00022999999999999998,4e-05,-2e-05,4
27807,29073,-7e-05,-0.00016999999999999999,-0.00041,-0.00016,0.00035,0.00022999999999999998,4e-05,-2e-05,4
27808,29074,-7e-05,-0.00016999999999999999,-0.00041,-0.00016,0.00035,0.00022999999999999998,4e-05,-2e-05,4
27809,29075,-7e-05,-0.00016999999999999999,-0.00041,-0.00016,0.00035,0.00022999999999999998,4e-05,-2e-05,4
27810,29076,-7e-05,-0.00016999999999999999,-0.00041,-0.00016,0.00035,0.00022999999999999998,4e-05,-2e-05,4
27811,29077,-7e-05,-0.00016999999999999999,-0.00041,-0.00016,0.00035,0.00022999999999999998,4e-05,-2e-05,4
27812,29078,-7e-05,-0.00016999999999999999,-0.00041,-0.00016,0.00035,0.00022999999999999998,4e-05,-2e-05,4
27813,29079,-7e-05,-0.00016999999999999999,-0.00041,-0.00016,0.00035,0.00022999999999999998,4e-05,-2e-05,4
27814,29080,-7e-05,-0.00016999999999999999,-0.00041,-0.00016,0.00035,0.00022999999999999998,4e-05,-2e-05,4
27815,29081,-7e-05,-0.00016999999999999999,-0.00041,-0.00016,0.00035,0.00022999999999999998,4e-05,-2e-05,4
27816,29082,-7e-05,-0.00016999999999999999,-0.00041,-0.00016,0.00035,0.00022999999999999998,4e-05,-2e-05,4
27817,29083,-7e-05,-0.00016999999999999999,-0.00041,-0.00016,0.00035,0.00022999999999999998,4e-05,-2e-05,4
27818,29084,-7e-05,-0.00016999999999999999,-0.00041,-0.00016,0.00035,0.00022999999999999998,4e-05,-2e-05,4
27819,29085,-7e-05,-0.00016999999999999999,-0.00041,-0.00016,0.00035,0.00022999999999999998,4e-05,-2e-05,4
27820,29086,-5.9999999999999995e-05,-0.0001,-9e-05,-0.00075,0.00014,5.9999999999999995e-05,0.0,-4e-05,4
27821,29088,-2.9999999999999997e-05,7e-05,0.00018999999999999998,-0.00022,-0.00031,-0.00037999999999999997,-0.00022,-9e-05,4
27822,29089,-2.9999999999999997e-05,7e-05,0.00018999999999999998,-0.00022,-0.00031,-0.00037999999999999997,-0.00022,-9e-05,4
27823,29090,-2.9999999999999997e-05,7e-05,0.00018999999999999998,-0.00022,-0.00031,-0.00037999999999999997,-0.00022,-9e-05,4
27824,29091,-2.9999999999999997e-05,7e-05,0.00018999999999999998,-0.00022,-0.00031,-0.00037999999999999997,-0.00022,-9e-05,4
27825,29092,-2.9999999999999997e-05,7e-05,0.00018999999999999998,-0.00022,-0.00031,-0.00037999999999999997,-0.00022,-9e-05,4
27826,29093,-2.9999999999999997e-05,7e-05,0.00018999999999999998,-0.00022,-0.00031,-0.00037999999999999997,-0.00022,-9e-05,4
27827,29094,-2.9999999999999997e-05,7e-05,0.00018999999999999998,-0.00022,-0.00031,-0.00037999999999999997,-0.00022,-9e-05,4
27828,29095,-2.9999999999999997e-05,7e-05,0.00018999999999999998,-0.00022,-0.00031,-0.00037999999999999997,-0.00022,-9e-05,4
27829,29096,-2.9999999999999997e-05,7e-05,0.00018999999999999998,-0.00022,-0.00031,-0.00037999999999999997,-0.00022,-9e-05,4
27830,29097,-2.9999999999999997e-05,7e-05,0.00018999999999999998,-0.00022,-0.00031,-0.00037999999999999997,-0.00022,-9e-05,4
27831,29098,-2.9999999999999997e-05,7e-05,0.00018999999999999998,-0.00022,-0.00031,-0.00037999999999999997,-0.00022,-9e-05,4
27832,29099,-2.9999999999999997e-05,7e-05,0.00018999999999999998,-0.00022,-0.00031,-0.00037999999999999997,-0.00022,-9e-05,4
27833,29100,-2.9999999999999997e-05,7e-05,0.00018999999999999998,-0.00022,-0.00031,-0.00037999999999999997,-0.00022,-9e-05,4
27834,29101,-2.9999999999999997e-05,7e-05,0.00018999999999999998,-0.00022,-0.00031,-0.00037999999999999997,-0.00022,-9e-05,4
27835,29102,-2.9999999999999997e-05,7e-05,0.00018999999999999998,-0.00022,-0.00031,-0.00037999999999999997,-0.00022,-9e-05,4
27836,29103,-2.9999999999999997e-05,7e-05,0.00018999999999999998,-0.00022,-0.00031,-0.00037999999999999997,-0.00022,-9e-05,4
27837,29104,-2.9999999999999997e-05,7e-05,0.00018999999999999998,-0.00022,-0.00031,-0.00037999999999999997,-0.00022,-9e-05,4
27838,29105,-2.9999999999999997e-05,7e-05,0.00018999999999999998,-0.00022,-0.00031,-0.00037999999999999997,-0.00022,-9e-05,4
27839,29106,-2.9999999999999997e-05,7e-05,0.00018999999999999998,-0.00022,-0.00031,-0.00037999999999999997,-0.00022,-9e-05,4
27840,29107,-2.9999999999999997e-05,7e-05,0.00018999999999999998,-0.00022,-0.00031,-0.00037999999999999997,-0.00022,-9e-05,4
27841,29108,-2.9999999999999997e-05,7e-05,0.00018999999999999998,-0.00022,-0.00031,-0.00037999999999999997,-0.00022,-9e-05,4
27842,29109,-5e-05,-5e-05,1e-05,-0.0007700000000000001,-8e-05,0.0002,9e-05,2e-05,4
27843,29110,-2.9999999999999997e-05,-9e-05,-0.00011,-0.0007700000000000001,-0.0007700000000000001,-0.00037,-0.00016999999999999999,-7e-05,4
27844,29111,-2.9999999999999997e-05,-9e-05,-0.00011,-0.0007700000000000001,-0.0007700000000000001,-0.00037,-0.00016999999999999999,-7e-05,4
27845,29112,-2.9999999999999997e-05,-9e-05,-0.00011,-0.0007700000000000001,-0.0007700000000000001,-0.00037,-0.00016999999999999999,-7e-05,4
27846,29113,-2.9999999999999997e-05,-9e-05,-0.00011,-0.0007700000000000001,-0.0007700000000000001,-0.00037,-0.00016999999999999999,-7e-05,4
27847,29114,-2.9999999999999997e-05,-9e-05,-0.00011,-0.0007700000000000001,-0.0007700000000000001,-0.00037,-0.00016999999999999999,-7e-05,4
27848,29115,-2.9999999999999997e-05,-9e-05,-0.00011,-0.0007700000000000001,-0.0007700000000000001,-0.00037,-0.00016999999999999999,-7e-05,4
27849,29116,-2.9999999999999997e-05,-9e-05,-0.00011,-0.0007700000000000001,-0.0007700000000000001,-0.00037,-0.00016999999999999999,-7e-05,4
27850,29117,-2.9999999999999997e-05,-9e-05,-0.00011,-0.0007700000000000001,-0.0007700000000000001,-0.00037,-0.00016999999999999999,-7e-05,4
27851,29118,-2.9999999999999997e-05,-9e-05,-0.00011,-0.0007700000000000001,-0.0007700000000000001,-0.00037,-0.00016999999999999999,-7e-05,4
27852,29119,-2.9999999999999997e-05,-9e-05,-0.00011,-0.0007700000000000001,-0.0007700000000000001,-0.00037,-0.00016999999999999999,-7e-05,4
27853,29120,-2.9999999999999997e-05,-9e-05,-0.00011,-0.0007700000000000001,-0.0007700000000000001,-0.00037,-0.00016999999999999999,-7e-05,4
27854,29121,-2.9999999999999997e-05,-9e-05,-0.00011,-0.0007700000000000001,-0.0007700000000000001,-0.00037,-0.00016999999999999999,-7e-05,4
27855,29122,-2.9999999999999997e-05,-9e-05,-0.00011,-0.0007700000000000001,-0.0007700000000000001,-0.00037,-0.00016999999999999999,-7e-05,4
27856,29123,4e-05,8e-05,0.00021,0.00015,-0.00016999999999999999,-0.00029,-4e-05,1e-05,4
27857,29124,-2e-05,-5.9999999999999995e-05,-0.0002,0.0004,-0.00022,-0.00016,-1e-05,0.0,4
27858,29125,-2e-05,-5.9999999999999995e-05,-0.0002,0.0004,-0.00022,-0.00016,-1e-05,0.0,4
27859,29126,-2e-05,-5.9999999999999995e-05,-0.0002,0.0004,-0.00022,-0.00016,-1e-05,0.0,4
27860,29127,-2e-05,-5.9999999999999995e-05,-0.0002,0.0004,-0.00022,-0.00016,-1e-05,0.0,4
27861,29128,-2e-05,-5.9999999999999995e-05,-0.0002,0.0004,-0.00022,-0.00016,-1e-05,0.0,4
27862,29129,-2e-05,-5.9999999999999995e-05,-0.0002,0.0004,-0.00022,-0.00016,-1e-05,0.0,4
27863,29130,-2e-05,-5.9999999999999995e-05,-0.0002,0.0004,-0.00022,-0.00016,-1e-05,0.0,4
27864,29131,-2e-05,-5.9999999999999995e-05,-0.0002,0.0004,-0.00022,-0.00016,-1e-05,0.0,4
27865,29132,-2e-05,-5.9999999999999995e-05,-0.0002,0.0004,-0.00022,-0.00016,-1e-05,0.0,4
27866,29133,-2e-05,-5.9999999999999995e-05,-0.0002,0.0004,-0.00022,-0.00016,-1e-05,0.0,4
27867,29134,-2e-05,-5.9999999999999995e-05,-0.0002,0.0004,-0.00022,-0.00016,-1e-05,0.0,4
27868,29135,-2e-05,-5.9999999999999995e-05,-0.0002,0.0004,-0.00022,-0.00016,-1e-05,0.0,4
27869,29136,-2e-05,-5.9999999999999995e-05,-0.0002,0.0004,-0.00022,-0.00016,-1e-05,0.0,4
27870,29139,-2e-05,-5.9999999999999995e-05,-0.0002,0.0004,-0.00022,-0.00016,-1e-05,0.0,4
27871,29140,-2e-05,-5.9999999999999995e-05,-0.0002,0.0004,-0.00022,-0.00016,-1e-05,0.0,4
27872,29141,-2e-05,-5.9999999999999995e-05,-0.0002,0.0004,-0.00022,-0.00016,-1e-05,0.0,4
27873,29142,-2e-05,-5.9999999999999995e-05,-0.0002,0.0004,-0.00022,-0.00016,-1e-05,0.0,4
27874,29143,-2e-05,-5.9999999999999995e-05,-0.0002,0.0004,-0.00022,-0.00016,-1e-05,0.0,4
27875,29144,-2e-05,-5.9999999999999995e-05,-0.0002,0.0004,-0.00022,-0.00016,-1e-05,0.0,4
27876,29145,-2e-05,-5.9999999999999995e-05,-0.0002,0.0004,-0.00022,-0.00016,-1e-05,0.0,4
27877,29146,9e-05,0.00016999999999999999,0.00022,0.0003,-0.00036,8e-05,0.00021,0.00013000000000000002,4
27878,29147,-5e-05,-5.9999999999999995e-05,-8e-05,-0.00047999999999999996,-0.00044,0.00037,2e-05,-4e-05,4
27879,29148,-5e-05,-5.9999999999999995e-05,-8e-05,-0.00047999999999999996,-0.00044,0.00037,2e-05,-4e-05,4
27880,29149,-5e-05,-5.9999999999999995e-05,-8e-05,-0.00047999999999999996,-0.00044,0.00037,2e-05,-4e-05,4
27881,29150,-5e-05,-5.9999999999999995e-05,-8e-05,-0.00047999999999999996,-0.00044,0.00037,2e-05,-4e-05,4
27882,29151,-5e-05,-5.9999999999999995e-05,-8e-05,-0.00047999999999999996,-0.00044,0.00037,2e-05,-4e-05,4
27883,29152,-5e-05,-5.9999999999999995e-05,-8e-05,-0.00047999999999999996,-0.00044,0.00037,2e-05,-4e-05,4
27884,29153,-5e-05,-5.9999999999999995e-05,-8e-05,-0.00047999999999999996,-0.00044,0.00037,2e-05,-4e-05,4
27885,29154,-5e-05,-5.9999999999999995e-05,-8e-05,-0.00047999999999999996,-0.00044,0.00037,2e-05,-4e-05,4
27886,29155,-5e-05,-5.9999999999999995e-05,-8e-05,-0.00047999999999999996,-0.00044,0.00037,2e-05,-4e-05,4
27887,29156,-5e-05,-5.9999999999999995e-05,-8e-05,-0.00047999999999999996,-0.00044,0.00037,2e-05,-4e-05,4
27888,29157,-5e-05,-5.9999999999999995e-05,-8e-05,-0.00047999999999999996,-0.00044,0.00037,2e-05,-4e-05,4
27889,29158,-5e-05,-5.9999999999999995e-05,-8e-05,-0.00047999999999999996,-0.00044,0.00037,2e-05,-4e-05,4
27890,29159,-5e-05,-5.9999999999999995e-05,-8e-05,-0.00047999999999999996,-0.00044,0.00037,2e-05,-4e-05,4
27891,29160,-5e-05,-5.9999999999999995e-05,-8e-05,-0.00047999999999999996,-0.00044,0.00037,2e-05,-4e-05,4
27892,29161,-5e-05,-5.9999999999999995e-05,-8e-05,-0.00047999999999999996,-0.00044,0.00037,2e-05,-4e-05,4
27893,29162,-5e-05,-5.9999999999999995e-05,-8e-05,-0.00047999999999999996,-0.00044,0.00037,2e-05,-4e-05,4
27894,29163,-5e-05,-5.9999999999999995e-05,-8e-05,-0.00047999999999999996,-0.00044,0.00037,2e-05,-4e-05,4
27895,29164,-5e-05,-5.9999999999999995e-05,-8e-05,-0.00047999999999999996,-0.00044,0.00037,2e-05,-4e-05,4
27896,29165,-5e-05,-5.9999999999999995e-05,-8e-05,-0.00047999999999999996,-0.00044,0.00037,2e-05,-4e-05,4
27897,29166,-5e-05,-5.9999999999999995e-05,-8e-05,-0.00047999999999999996,-0.00044,0.00037,2e-05,-4e-05,4
27898,29167,-5e-05,-5.9999999999999995e-05,-8e-05,-0.00047999999999999996,-0.00044,0.00037,2e-05,-4e-05,4
27899,29168,-5e-05,-5.9999999999999995e-05,-8e-05,-0.00047999999999999996,-0.00044,0.00037,2e-05,-4e-05,4
27900,29169,-2.9999999999999997e-05,-2e-05,0.00014,-0.00035,-0.0005099999999999999,0.00013000000000000002,-4e-05,-5.9999999999999995e-05,4
27901,29170,-5e-05,-0.00023999999999999998,-0.00045999999999999996,-0.00047999999999999996,0.00053,-1e-05,-9e-05,-5.9999999999999995e-05,4
27902,29171,-5e-05,-0.00023999999999999998,-0.00045999999999999996,-0.00047999999999999996,0.00053,-1e-05,-9e-05,-5.9999999999999995e-05,4
27903,29172,-5e-05,-0.00023999999999999998,-0.00045999999999999996,-0.00047999999999999996,0.00053,-1e-05,-9e-05,-5.9999999999999995e-05,4
27904,29173,-5e-05,-0.00023999999999999998,-0.00045999999999999996,-0.00047999999999999996,0.00053,-1e-05,-9e-05,-5.9999999999999995e-05,4
27905,29174,-5e-05,-0.00023999999999999998,-0.00045999999999999996,-0.00047999999999999996,0.00053,-1e-05,-9e-05,-5.9999999999999995e-05,4
27906,29175,-5e-05,-0.00023999999999999998,-0.00045999999999999996,-0.00047999999999999996,0.00053,-1e-05,-9e-05,-5.9999999999999995e-05,4
27907,29176,-5e-05,-0.00023999999999999998,-0.00045999999999999996,-0.00047999999999999996,0.00053,-1e-05,-9e-05,-5.9999999999999995e-05,4
27908,29177,-5e-05,-0.00023999999999999998,-0.00045999999999999996,-0.00047999999999999996,0.00053,-1e-05,-9e-05,-5.9999999999999995e-05,4
27909,29178,-5e-05,-0.00023999999999999998,-0.00045999999999999996,-0.00047999999999999996,0.00053,-1e-05,-9e-05,-5.9999999999999995e-05,4
27910,29179,-5e-05,-0.00023999999999999998,-0.00045999999999999996,-0.00047999999999999996,0.00053,-1e-05,-9e-05,-5.9999999999999995e-05,4
27911,29180,-5e-05,-0.00023999999999999998,-0.00045999999999999996,-0.00047999999999999996,0.00053,-1e-05,-9e-05,-5.9999999999999995e-05,4
27912,29181,-5e-05,-0.00023999999999999998,-0.00045999999999999996,-0.00047999999999999996,0.00053,-1e-05,-9e-05,-5.9999999999999995e-05,4
27913,29182,-5e-05,-0.00023999999999999998,-0.00045999999999999996,-0.00047999999999999996,0.00053,-1e-05,-9e-05,-5.9999999999999995e-05,4
27914,29183,4e-05,4e-05,-0.0002,-0.00016999999999999999,-0.00016999999999999999,-8e-05,-7e-05,2.9999999999999997e-05,4
27915,29184,-9e-05,-2e-05,0.00014,0.00018999999999999998,-0.00047999999999999996,-0.0007,-0.00026000000000000003,-0.00013000000000000002,4
27916,29185,-9e-05,-2e-05,0.00014,0.00018999999999999998,-0.00047999999999999996,-0.0007,-0.00026000000000000003,-0.00013000000000000002,4
27917,29186,-9e-05,-2e-05,0.00014,0.00018999999999999998,-0.00047999999999999996,-0.0007,-0.00026000000000000003,-0.00013000000000000002,4
27918,29188,-9e-05,-2e-05,0.00014,0.00018999999999999998,-0.00047999999999999996,-0.0007,-0.00026000000000000003,-0.00013000000000000002,4
27919,29189,-9e-05,-2e-05,0.00014,0.00018999999999999998,-0.00047999999999999996,-0.0007,-0.00026000000000000003,-0.00013000000000000002,4
27920,29190,-9e-05,-2e-05,0.00014,0.00018999999999999998,-0.00047999999999999996,-0.0007,-0.00026000000000000003,-0.00013000000000000002,4
27921,29191,-9e-05,-2e-05,0.00014,0.00018999999999999998,-0.00047999999999999996,-0.0007,-0.00026000000000000003,-0.00013000000000000002,4
27922,29192,-9e-05,-2e-05,0.00014,0.00018999999999999998,-0.00047999999999999996,-0.0007,-0.00026000000000000003,-0.00013000000000000002,4
27923,29193,-9e-05,-2e-05,0.00014,0.00018999999999999998,-0.00047999999999999996,-0.0007,-0.00026000000000000003,-0.00013000000000000002,4
27924,29194,-9e-05,-2e-05,0.00014,0.00018999999999999998,-0.00047999999999999996,-0.0007,-0.00026000000000000003,-0.00013000000000000002,4
27925,29195,-9e-05,-2e-05,0.00014,0.00018999999999999998,-0.00047999999999999996,-0.0007,-0.00026000000000000003,-0.00013000000000000002,4
27926,29196,-9e-05,-2e-05,0.00014,0.00018999999999999998,-0.00047999999999999996,-0.0007,-0.00026000000000000003,-0.00013000000000000002,4
27927,29197,-9e-05,-2e-05,0.00014,0.00018999999999999998,-0.00047999999999999996,-0.0007,-0.00026000000000000003,-0.00013000000000000002,4
27928,29198,-9e-05,-2e-05,0.00014,0.00018999999999999998,-0.00047999999999999996,-0.0007,-0.00026000000000000003,-0.00013000000000000002,4
27929,29199,-9e-05,-2e-05,0.00014,0.00018999999999999998,-0.00047999999999999996,-0.0007,-0.00026000000000000003,-0.00013000000000000002,4
27930,29200,-9e-05,-2e-05,0.00014,0.00018999999999999998,-0.00047999999999999996,-0.0007,-0.00026000000000000003,-0.00013000000000000002,4
27931,29201,-9e-05,-2e-05,0.00014,0.00018999999999999998,-0.00047999999999999996,-0.0007,-0.00026000000000000003,-0.00013000000000000002,4
27932,29202,-9e-05,-2e-05,0.00014,0.00018999999999999998,-0.00047999999999999996,-0.0007,-0.00026000000000000003,-0.00013000000000000002,4
27933,29203,-9e-05,-2e-05,0.00014,0.00018999999999999998,-0.00047999999999999996,-0.0007,-0.00026000000000000003,-0.00013000000000000002,4
27934,29204,-9e-05,-2e-05,0.00014,0.00018999999999999998,-0.00047999999999999996,-0.0007,-0.00026000000000000003,-0.00013000000000000002,4
27935,29205,-9e-05,-2e-05,0.00014,0.00018999999999999998,-0.00047999999999999996,-0.0007,-0.00026000000000000003,-0.00013000000000000002,4
27936,29206,-2.9999999999999997e-05,-0.00015,-0.00027,-0.00047000000000000004,0.0008699999999999999,0.00035,5e-05,0.0,4
27937,29207,7e-05,9e-05,2.9999999999999997e-05,-5.9999999999999995e-05,0.00115,-0.00022999999999999998,7e-05,0.0001,4
27938,29208,7e-05,9e-05,2.9999999999999997e-05,-5.9999999999999995e-05,0.00115,-0.00022999999999999998,7e-05,0.0001,4
27939,29209,7e-05,9e-05,2.9999999999999997e-05,-5.9999999999999995e-05,0.00115,-0.00022999999999999998,7e-05,0.0001,4
27940,29210,7e-05,9e-05,2.9999999999999997e-05,-5.9999999999999995e-05,0.00115,-0.00022999999999999998,7e-05,0.0001,4
27941,29211,7e-05,9e-05,2.9999999999999997e-05,-5.9999999999999995e-05,0.00115,-0.00022999999999999998,7e-05,0.0001,4
27942,29212,7e-05,9e-05,2.9999999999999997e-05,-5.9999999999999995e-05,0.00115,-0.00022999999999999998,7e-05,0.0001,4
27943,29213,7e-05,9e-05,2.9999999999999997e-05,-5.9999999999999995e-05,0.00115,-0.00022999999999999998,7e-05,0.0001,4
27944,29214,7e-05,9e-05,2.9999999999999997e-05,-5.9999999999999995e-05,0.00115,-0.00022999999999999998,7e-05,0.0001,4
27945,29215,7e-05,9e-05,2.9999999999999997e-05,-5.9999999999999995e-05,0.00115,-0.00022999999999999998,7e-05,0.0001,4
27946,29216,7e-05,9e-05,2.9999999999999997e-05,-5.9999999999999995e-05,0.00115,-0.00022999999999999998,7e-05,0.0001,4
27947,29217,7e-05,9e-05,2.9999999999999997e-05,-5.9999999999999995e-05,0.00115,-0.00022999999999999998,7e-05,0.0001,4
27948,29218,7e-05,9e-05,2.9999999999999997e-05,-5.9999999999999995e-05,0.00115,-0.00022999999999999998,7e-05,0.0001,4
27949,29219,7e-05,9e-05,2.9999999999999997e-05,-5.9999999999999995e-05,0.00115,-0.00022999999999999998,7e-05,0.0001,4
27950,29220,7e-05,9e-05,2.9999999999999997e-05,-5.9999999999999995e-05,0.00115,-0.00022999999999999998,7e-05,0.0001,4
27951,29221,7e-05,9e-05,2.9999999999999997e-05,-5.9999999999999995e-05,0.00115,-0.00022999999999999998,7e-05,0.0001,4
27952,29222,7e-05,9e-05,2.9999999999999997e-05,-5.9999999999999995e-05,0.00115,-0.00022999999999999998,7e-05,0.0001,4
27953,29223,7e-05,9e-05,2.9999999999999997e-05,-5.9999999999999995e-05,0.00115,-0.00022999999999999998,7e-05,0.0001,4
27954,29224,7e-05,9e-05,2.9999999999999997e-05,-5.9999999999999995e-05,0.00115,-0.00022999999999999998,7e-05,0.0001,4
27955,29225,7e-05,9e-05,2.9999999999999997e-05,-5.9999999999999995e-05,0.00115,-0.00022999999999999998,7e-05,0.0001,4
27956,29226,7e-05,9e-05,2.9999999999999997e-05,-5.9999999999999995e-05,0.00115,-0.00022999999999999998,7e-05,0.0001,4
27957,29227,7e-05,9e-05,2.9999999999999997e-05,-5.9999999999999995e-05,0.00115,-0.00022999999999999998,7e-05,0.0001,4
27958,29228,7e-05,9e-05,2.9999999999999997e-05,-5.9999999999999995e-05,0.00115,-0.00022999999999999998,7e-05,0.0001,4
27959,29229,5.9999999999999995e-05,5.9999999999999995e-05,-5e-05,-0.00047999999999999996,-0.00033,-0.00066,-0.0001,0.0,4
27960,29230,2.9999999999999997e-05,0.0001,0.00041,0.0009599999999999999,0.00039,0.00027,7e-05,1e-05,4
27961,29231,2.9999999999999997e-05,0.0001,0.00041,0.0009599999999999999,0.00039,0.00027,7e-05,1e-05,4
27962,29232,2.9999999999999997e-05,0.0001,0.00041,0.0009599999999999999,0.00039,0.00027,7e-05,1e-05,4
27963,29233,2.9999999999999997e-05,0.0001,0.00041,0.0009599999999999999,0.00039,0.00027,7e-05,1e-05,4
27964,29234,2.9999999999999997e-05,0.0001,0.00041,0.0009599999999999999,0.00039,0.00027,7e-05,1e-05,4
27965,29235,2.9999999999999997e-05,0.0001,0.00041,0.0009599999999999999,0.00039,0.00027,7e-05,1e-05,4
27966,29236,2.9999999999999997e-05,0.0001,0.00041,0.0009599999999999999,0.00039,0.00027,7e-05,1e-05,4
27967,29238,2.9999999999999997e-05,0.0001,0.00041,0.0009599999999999999,0.00039,0.00027,7e-05,1e-05,4
27968,29239,2.9999999999999997e-05,0.0001,0.00041,0.0009599999999999999,0.00039,0.00027,7e-05,1e-05,4
27969,29240,2.9999999999999997e-05,0.0001,0.00041,0.0009599999999999999,0.00039,0.00027,7e-05,1e-05,4
27970,29241,2.9999999999999997e-05,0.0001,0.00041,0.0009599999999999999,0.00039,0.00027,7e-05,1e-05,4
27971,29242,2.9999999999999997e-05,0.0001,0.00041,0.0009599999999999999,0.00039,0.00027,7e-05,1e-05,4
27972,29243,0.0,0.00016999999999999999,0.00033999999999999997,0.00011999999999999999,-0.0004,-0.0001,5.9999999999999995e-05,4e-05,4
27973,29244,0.0,-2e-05,5e-05,0.00018999999999999998,-0.0011099999999999999,0.00025,0.0001,2.9999999999999997e-05,4
27974,29245,0.0,-2e-05,5e-05,0.00018999999999999998,-0.0011099999999999999,0.00025,0.0001,2.9999999999999997e-05,4
27975,29246,0.0,-2e-05,5e-05,0.00018999999999999998,-0.0011099999999999999,0.00025,0.0001,2.9999999999999997e-05,4
27976,29247,0.0,-2e-05,5e-05,0.00018999999999999998,-0.0011099999999999999,0.00025,0.0001,2.9999999999999997e-05,4
27977,29248,0.0,-2e-05,5e-05,0.00018999999999999998,-0.0011099999999999999,0.00025,0.0001,2.9999999999999997e-05,4
27978,29249,0.0,-2e-05,5e-05,0.00018999999999999998,-0.0011099999999999999,0.00025,0.0001,2.9999999999999997e-05,4
27979,29250,0.0,-2e-05,5e-05,0.00018999999999999998,-0.0011099999999999999,0.00025,0.0001,2.9999999999999997e-05,4
27980,29251,0.0,-2e-05,5e-05,0.00018999999999999998,-0.0011099999999999999,0.00025,0.0001,2.9999999999999997e-05,4
27981,29252,0.0,-2e-05,5e-05,0.00018999999999999998,-0.0011099999999999999,0.00025,0.0001,2.9999999999999997e-05,4
27982,29253,0.0,-2e-05,5e-05,0.00018999999999999998,-0.0011099999999999999,0.00025,0.0001,2.9999999999999997e-05,4
27983,29254,0.0,-2e-05,5e-05,0.00018999999999999998,-0.0011099999999999999,0.00025,0.0001,2.9999999999999997e-05,4
27984,29255,0.0,-2e-05,5e-05,0.00018999999999999998,-0.0011099999999999999,0.00025,0.0001,2.9999999999999997e-05,4
27985,29256,0.0,-2e-05,5e-05,0.00018999999999999998,-0.0011099999999999999,0.00025,0.0001,2.9999999999999997e-05,4
27986,29257,0.0,-2e-05,5e-05,0.00018999999999999998,-0.0011099999999999999,0.00025,0.0001,2.9999999999999997e-05,4
27987,29258,0.0,-2e-05,5e-05,0.00018999999999999998,-0.0011099999999999999,0.00025,0.0001,2.9999999999999997e-05,4
27988,29259,0.0,-2e-05,5e-05,0.00018999999999999998,-0.0011099999999999999,0.00025,0.0001,2.9999999999999997e-05,4
27989,29260,0.0,-2e-05,5e-05,0.00018999999999999998,-0.0011099999999999999,0.00025,0.0001,2.9999999999999997e-05,4
27990,29261,0.0,-2e-05,5e-05,0.00018999999999999998,-0.0011099999999999999,0.00025,0.0001,2.9999999999999997e-05,4
27991,29262,0.0,-2e-05,5e-05,0.00018999999999999998,-0.0011099999999999999,0.00025,0.0001,2.9999999999999997e-05,4
27992,29263,0.0,-2e-05,5e-05,0.00018999999999999998,-0.0011099999999999999,0.00025,0.0001,2.9999999999999997e-05,4
27993,29265,0.0,-2e-05,5e-05,0.00018999999999999998,-0.0011099999999999999,0.00025,0.0001,2.9999999999999997e-05,4
27994,29266,-0.0001,-0.00011,-0.0002,-0.00091,-0.00095,-0.00056,-0.0002,-0.00016,4
27995,29267,8e-05,7e-05,-5.9999999999999995e-05,0.00013000000000000002,0.00109,0.00033,0.00022,9e-05,4
27996,29268,8e-05,7e-05,-5.9999999999999995e-05,0.00013000000000000002,0.00109,0.00033,0.00022,9e-05,4
27997,29269,8e-05,7e-05,-5.9999999999999995e-05,0.00013000000000000002,0.00109,0.00033,0.00022,9e-05,4
27998,29270,8e-05,7e-05,-5.9999999999999995e-05,0.00013000000000000002,0.00109,0.00033,0.00022,9e-05,4
27999,29271,8e-05,7e-05,-5.9999999999999995e-05,0.00013000000000000002,0.00109,0.00033,0.00022,9e-05,4
28000,29272,8e-05,7e-05,-5.9999999999999995e-05,0.00013000000000000002,0.00109,0.00033,0.00022,9e-05,4
28001,29273,8e-05,7e-05,-5.9999999999999995e-05,0.00013000000000000002,0.00109,0.00033,0.00022,9e-05,4
28002,29274,8e-05,7e-05,-5.9999999999999995e-05,0.00013000000000000002,0.00109,0.00033,0.00022,9e-05,4
28003,29275,8e-05,7e-05,-5.9999999999999995e-05,0.00013000000000000002,0.00109,0.00033,0.00022,9e-05,4
28004,29276,8e-05,7e-05,-5.9999999999999995e-05,0.00013000000000000002,0.00109,0.00033,0.00022,9e-05,4
28005,29277,8e-05,7e-05,-5.9999999999999995e-05,0.00013000000000000002,0.00109,0.00033,0.00022,9e-05,4
28006,29278,8e-05,7e-05,-5.9999999999999995e-05,0.00013000000000000002,0.00109,0.00033,0.00022,9e-05,4
28007,29279,8e-05,7e-05,-5.9999999999999995e-05,0.00013000000000000002,0.00109,0.00033,0.00022,9e-05,4
28008,29280,8e-05,7e-05,-5.9999999999999995e-05,0.00013000000000000002,0.00109,0.00033,0.00022,9e-05,4
28009,29281,8e-05,7e-05,-5.9999999999999995e-05,0.00013000000000000002,0.00109,0.00033,0.00022,9e-05,4
28010,29282,8e-05,7e-05,-5.9999999999999995e-05,0.00013000000000000002,0.00109,0.00033,0.00022,9e-05,4
28011,29283,8e-05,7e-05,-5.9999999999999995e-05,0.00013000000000000002,0.00109,0.00033,0.00022,9e-05,4
28012,29284,8e-05,7e-05,-5.9999999999999995e-05,0.00013000000000000002,0.00109,0.00033,0.00022,9e-05,4
28013,29285,8e-05,7e-05,-5.9999999999999995e-05,0.00013000000000000002,0.00109,0.00033,0.00022,9e-05,4
28014,29286,8e-05,7e-05,-5.9999999999999995e-05,0.00013000000000000002,0.00109,0.00033,0.00022,9e-05,4
28015,29288,8e-05,7e-05,-5.9999999999999995e-05,0.00013000000000000002,0.00109,0.00033,0.00022,9e-05,4
28016,29289,8e-05,7e-05,-5.9999999999999995e-05,0.00013000000000000002,0.00109,0.00033,0.00022,9e-05,4
28017,29290,0.00013000000000000002,0.00016999999999999999,0.00032,-0.00059,0.00084,0.0004,0.00014,0.00013000000000000002,4
28018,29291,-5e-05,-5e-05,-0.0005099999999999999,-0.0008900000000000001,0.00035,0.00059,0.00014,5e-05,4
28019,29292,-5e-05,-5e-05,-0.0005099999999999999,-0.0008900000000000001,0.00035,0.00059,0.00014,5e-05,4
28020,29293,-5e-05,-5e-05,-0.0005099999999999999,-0.0008900000000000001,0.00035,0.00059,0.00014,5e-05,4
28021,29294,-5e-05,-5e-05,-0.0005099999999999999,-0.0008900000000000001,0.00035,0.00059,0.00014,5e-05,4
28022,29295,-5e-05,-5e-05,-0.0005099999999999999,-0.0008900000000000001,0.00035,0.00059,0.00014,5e-05,4
28023,29296,-5e-05,-5e-05,-0.0005099999999999999,-0.0008900000000000001,0.00035,0.00059,0.00014,5e-05,4
28024,29297,-5e-05,-5e-05,-0.0005099999999999999,-0.0008900000000000001,0.00035,0.00059,0.00014,5e-05,4
28025,29298,-5e-05,-5e-05,-0.0005099999999999999,-0.0008900000000000001,0.00035,0.00059,0.00014,5e-05,4
28026,29299,-5e-05,-5e-05,-0.0005099999999999999,-0.0008900000000000001,0.00035,0.00059,0.00014,5e-05,4
28027,29300,-5e-05,-5e-05,-0.0005099999999999999,-0.0008900000000000001,0.00035,0.00059,0.00014,5e-05,4
28028,29301,-5e-05,-5e-05,-0.0005099999999999999,-0.0008900000000000001,0.00035,0.00059,0.00014,5e-05,4
28029,29302,-5e-05,-5e-05,-0.0005099999999999999,-0.0008900000000000001,0.00035,0.00059,0.00014,5e-05,4
28030,29303,5e-05,2.9999999999999997e-05,0.00021,0.00045999999999999996,0.0011099999999999999,0.00018999999999999998,0.0001,0.00011,4
28031,29304,-7e-05,-0.00011999999999999999,-0.00013000000000000002,-0.00013000000000000002,-0.00057,-0.00016999999999999999,-0.00011999999999999999,-9e-05,4
28032,29305,-7e-05,-0.00011999999999999999,-0.00013000000000000002,-0.00013000000000000002,-0.00057,-0.00016999999999999999,-0.00011999999999999999,-9e-05,4
28033,29306,-7e-05,-0.00011999999999999999,-0.00013000000000000002,-0.00013000000000000002,-0.00057,-0.00016999999999999999,-0.00011999999999999999,-9e-05,4
28034,29307,-7e-05,-0.00011999999999999999,-0.00013000000000000002,-0.00013000000000000002,-0.00057,-0.00016999999999999999,-0.00011999999999999999,-9e-05,4
28035,29308,-7e-05,-0.00011999999999999999,-0.00013000000000000002,-0.00013000000000000002,-0.00057,-0.00016999999999999999,-0.00011999999999999999,-9e-05,4
28036,29309,-7e-05,-0.00011999999999999999,-0.00013000000000000002,-0.00013000000000000002,-0.00057,-0.00016999999999999999,-0.00011999999999999999,-9e-05,4
28037,29310,-7e-05,-0.00011999999999999999,-0.00013000000000000002,-0.00013000000000000002,-0.00057,-0.00016999999999999999,-0.00011999999999999999,-9e-05,4
28038,29311,-7e-05,-0.00011999999999999999,-0.00013000000000000002,-0.00013000000000000002,-0.00057,-0.00016999999999999999,-0.00011999999999999999,-9e-05,4
28039,29312,-7e-05,-0.00011999999999999999,-0.00013000000000000002,-0.00013000000000000002,-0.00057,-0.00016999999999999999,-0.00011999999999999999,-9e-05,4
28040,29313,-7e-05,-0.00011999999999999999,-0.00013000000000000002,-0.00013000000000000002,-0.00057,-0.00016999999999999999,-0.00011999999999999999,-9e-05,4
28041,29314,-7e-05,-0.00011999999999999999,-0.00013000000000000002,-0.00013000000000000002,-0.00057,-0.00016999999999999999,-0.00011999999999999999,-9e-05,4
28042,29315,-7e-05,-0.00011999999999999999,-0.00013000000000000002,-0.00013000000000000002,-0.00057,-0.00016999999999999999,-0.00011999999999999999,-9e-05,4
28043,29316,-7e-05,-0.00011999999999999999,-0.00013000000000000002,-0.00013000000000000002,-0.00057,-0.00016999999999999999,-0.00011999999999999999,-9e-05,4
28044,29317,-7e-05,-0.00011999999999999999,-0.00013000000000000002,-0.00013000000000000002,-0.00057,-0.00016999999999999999,-0.00011999999999999999,-9e-05,4
28045,29318,-7e-05,-0.00011999999999999999,-0.00013000000000000002,-0.00013000000000000002,-0.00057,-0.00016999999999999999,-0.00011999999999999999,-9e-05,4
28046,29319,-7e-05,-0.00011999999999999999,-0.00013000000000000002,-0.00013000000000000002,-0.00057,-0.00016999999999999999,-0.00011999999999999999,-9e-05,4
28047,29320,-7e-05,-0.00011999999999999999,-0.00013000000000000002,-0.00013000000000000002,-0.00057,-0.00016999999999999999,-0.00011999999999999999,-9e-05,4
28048,29321,-7e-05,-0.00011999999999999999,-0.00013000000000000002,-0.00013000000000000002,-0.00057,-0.00016999999999999999,-0.00011999999999999999,-9e-05,4
28049,29322,-7e-05,-0.00011999999999999999,-0.00013000000000000002,-0.00013000000000000002,-0.00057,-0.00016999999999999999,-0.00011999999999999999,-9e-05,4
28050,29323,-7e-05,-0.00011999999999999999,-0.00013000000000000002,-0.00013000000000000002,-0.00057,-0.00016999999999999999,-0.00011999999999999999,-9e-05,4
28051,29324,-7e-05,-0.00011999999999999999,-0.00013000000000000002,-0.00013000000000000002,-0.00057,-0.00016999999999999999,-0.00011999999999999999,-9e-05,4
28052,29325,-7e-05,-0.00011999999999999999,-0.00013000000000000002,-0.00013000000000000002,-0.00057,-0.00016999999999999999,-0.00011999999999999999,-9e-05,4
28053,29326,-7e-05,-0.00011999999999999999,-0.00013000000000000002,-0.00013000000000000002,-0.00057,-0.00016999999999999999,-0.00011999999999999999,-9e-05,4
28054,29327,7e-05,0.00022999999999999998,0.00039,0.00015,-0.0007,-0.00022999999999999998,8e-05,5e-05,4
28055,29328,7e-05,0.00022999999999999998,0.00039,0.00015,-0.0007,-0.00022999999999999998,8e-05,5e-05,4
28056,29329,7e-05,0.00022999999999999998,0.00039,0.00015,-0.0007,-0.00022999999999999998,8e-05,5e-05,4
28057,29330,7e-05,0.00022999999999999998,0.00039,0.00015,-0.0007,-0.00022999999999999998,8e-05,5e-05,4
28058,29331,7e-05,0.00022999999999999998,0.00039,0.00015,-0.0007,-0.00022999999999999998,8e-05,5e-05,4
28059,29332,7e-05,0.00022999999999999998,0.00039,0.00015,-0.0007,-0.00022999999999999998,8e-05,5e-05,4
28060,29333,7e-05,0.00022999999999999998,0.00039,0.00015,-0.0007,-0.00022999999999999998,8e-05,5e-05,4
28061,29334,7e-05,0.00022999999999999998,0.00039,0.00015,-0.0007,-0.00022999999999999998,8e-05,5e-05,4
28062,29335,7e-05,0.00022999999999999998,0.00039,0.00015,-0.0007,-0.00022999999999999998,8e-05,5e-05,4
28063,29337,7e-05,0.00022999999999999998,0.00039,0.00015,-0.0007,-0.00022999999999999998,8e-05,5e-05,4
28064,29339,7e-05,0.00022999999999999998,0.00039,0.00015,-0.0007,-0.00022999999999999998,8e-05,5e-05,4
28065,29340,7e-05,0.00022999999999999998,0.00039,0.00015,-0.0007,-0.00022999999999999998,8e-05,5e-05,4
28066,29341,7e-05,0.00022999999999999998,0.00039,0.00015,-0.0007,-0.00022999999999999998,8e-05,5e-05,4
28067,29342,7e-05,0.00022999999999999998,0.00039,0.00015,-0.0007,-0.00022999999999999998,8e-05,5e-05,4
28068,29343,7e-05,0.00022999999999999998,0.00039,0.00015,-0.0007,-0.00022999999999999998,8e-05,5e-05,4
28069,29344,7e-05,0.00022999999999999998,0.00039,0.00015,-0.0007,-0.00022999999999999998,8e-05,5e-05,4
28070,29345,7e-05,0.00022999999999999998,0.00039,0.00015,-0.0007,-0.00022999999999999998,8e-05,5e-05,4
28071,29346,7e-05,0.00022999999999999998,0.00039,0.00015,-0.0007,-0.00022999999999999998,8e-05,5e-05,4
28072,29347,7e-05,0.00022999999999999998,0.00039,0.00015,-0.0007,-0.00022999999999999998,8e-05,5e-05,4
28073,29348,7e-05,0.00022999999999999998,0.00039,0.00015,-0.0007,-0.00022999999999999998,8e-05,5e-05,4
28074,29349,7e-05,0.00022999999999999998,0.00039,0.00015,-0.0007,-0.00022999999999999998,8e-05,5e-05,4
28075,29350,7e-05,0.00022999999999999998,0.00039,0.00015,-0.0007,-0.00022999999999999998,8e-05,5e-05,4
28076,29351,7e-05,0.00022999999999999998,0.00039,0.00015,-0.0007,-0.00022999999999999998,8e-05,5e-05,4
28077,29352,7e-05,0.00022999999999999998,0.00039,0.00015,-0.0007,-0.00022999999999999998,8e-05,5e-05,4
28078,29353,7e-05,0.00022999999999999998,0.00039,0.00015,-0.0007,-0.00022999999999999998,8e-05,5e-05,4
28079,29354,7e-05,0.00022999999999999998,0.00039,0.00015,-0.0007,-0.00022999999999999998,8e-05,5e-05,4
28080,29355,7e-05,0.00022999999999999998,0.00039,0.00015,-0.0007,-0.00022999999999999998,8e-05,5e-05,4
28081,29356,7e-05,0.00022999999999999998,0.00039,0.00015,-0.0007,-0.00022999999999999998,8e-05,5e-05,4
28082,29358,-2e-05,0.0,5.9999999999999995e-05,-0.00091,-0.0005,0.00078,0.0001,1e-05,4
28083,29359,-2e-05,0.0,5.9999999999999995e-05,-0.00091,-0.0005,0.00078,0.0001,1e-05,4
28084,29360,-2e-05,0.0,5.9999999999999995e-05,-0.00091,-0.0005,0.00078,0.0001,1e-05,4
28085,29361,-2e-05,0.0,5.9999999999999995e-05,-0.00091,-0.0005,0.00078,0.0001,1e-05,4
28086,29362,-2e-05,0.0,5.9999999999999995e-05,-0.00091,-0.0005,0.00078,0.0001,1e-05,4
28087,29363,5.9999999999999995e-05,0.00011,4e-05,-0.00018999999999999998,-0.00075,1e-05,-1e-05,2e-05,4
28088,29364,-0.00016,-0.00022,-0.0002,-0.00032,-0.00031,-0.00028,-0.00011999999999999999,-0.00018,4
28089,29365,-0.00016,-0.00022,-0.0002,-0.00032,-0.00031,-0.00028,-0.00011999999999999999,-0.00018,4
28090,29366,-0.00016,-0.00022,-0.0002,-0.00032,-0.00031,-0.00028,-0.00011999999999999999,-0.00018,4
28091,29367,-0.00016,-0.00022,-0.0002,-0.00032,-0.00031,-0.00028,-0.00011999999999999999,-0.00018,4
28092,29368,-0.00016,-0.00022,-0.0002,-0.00032,-0.00031,-0.00028,-0.00011999999999999999,-0.00018,4
28093,29369,-0.00016,-0.00022,-0.0002,-0.00032,-0.00031,-0.00028,-0.00011999999999999999,-0.00018,4
28094,29370,-0.00016,-0.00022,-0.0002,-0.00032,-0.00031,-0.00028,-0.00011999999999999999,-0.00018,4
28095,29371,-0.00016,-0.00022,-0.0002,-0.00032,-0.00031,-0.00028,-0.00011999999999999999,-0.00018,4
28096,29372,-0.00016,-0.00022,-0.0002,-0.00032,-0.00031,-0.00028,-0.00011999999999999999,-0.00018,4
28097,29373,-0.00016,-0.00022,-0.0002,-0.00032,-0.00031,-0.00028,-0.00011999999999999999,-0.00018,4
28098,29374,-0.00016,-0.00022,-0.0002,-0.00032,-0.00031,-0.00028,-0.00011999999999999999,-0.00018,4
28099,29375,-0.00016,-0.00022,-0.0002,-0.00032,-0.00031,-0.00028,-0.00011999999999999999,-0.00018,4
28100,29376,-0.00016,-0.00022,-0.0002,-0.00032,-0.00031,-0.00028,-0.00011999999999999999,-0.00018,4
28101,29377,-0.00016,-0.00022,-0.0002,-0.00032,-0.00031,-0.00028,-0.00011999999999999999,-0.00018,4
28102,29378,-0.00016,-0.00022,-0.0002,-0.00032,-0.00031,-0.00028,-0.00011999999999999999,-0.00018,4
28103,29379,-0.00016,-0.00022,-0.0002,-0.00032,-0.00031,-0.00028,-0.00011999999999999999,-0.00018,4
28104,29380,-0.00016,-0.00022,-0.0002,-0.00032,-0.00031,-0.00028,-0.00011999999999999999,-0.00018,4
28105,29381,-0.00016,-0.00022,-0.0002,-0.00032,-0.00031,-0.00028,-0.00011999999999999999,-0.00018,4
28106,29382,-0.00016,-0.00022,-0.0002,-0.00032,-0.00031,-0.00028,-0.00011999999999999999,-0.00018,4
28107,29383,-0.00016,-0.00022,-0.0002,-0.00032,-0.00031,-0.00028,-0.00011999999999999999,-0.00018,4
28108,29384,-0.00016,-0.00022,-0.0002,-0.00032,-0.00031,-0.00028,-0.00011999999999999999,-0.00018,4
28109,29385,-0.00016,-0.00022,-0.0002,-0.00032,-0.00031,-0.00028,-0.00011999999999999999,-0.00018,4
28110,29386,-0.00016,-0.00022,-0.0002,-0.00032,-0.00031,-0.00028,-0.00011999999999999999,-0.00018,4
28111,29388,-0.00014,-0.00025,-0.00058,-0.00018999999999999998,5e-05,-0.00023999999999999998,-0.00028,-0.00015,4
28112,29389,-0.00014,-0.00025,-0.00058,-0.00018999999999999998,5e-05,-0.00023999999999999998,-0.00028,-0.00015,4
28113,29390,-0.00014,-0.00025,-0.00058,-0.00018999999999999998,5e-05,-0.00023999999999999998,-0.00028,-0.00015,4
28114,29391,-0.00014,-0.00025,-0.00058,-0.00018999999999999998,5e-05,-0.00023999999999999998,-0.00028,-0.00015,4
28115,29392,-0.00014,-0.00025,-0.00058,-0.00018999999999999998,5e-05,-0.00023999999999999998,-0.00028,-0.00015,4
28116,29393,-0.00014,-0.00025,-0.00058,-0.00018999999999999998,5e-05,-0.00023999999999999998,-0.00028,-0.00015,4
28117,29394,-0.00014,-0.00025,-0.00058,-0.00018999999999999998,5e-05,-0.00023999999999999998,-0.00028,-0.00015,4
28118,29395,-0.00014,-0.00025,-0.00058,-0.00018999999999999998,5e-05,-0.00023999999999999998,-0.00028,-0.00015,4
28119,29396,-0.00014,-0.00025,-0.00058,-0.00018999999999999998,5e-05,-0.00023999999999999998,-0.00028,-0.00015,4
28120,29397,-0.00014,-0.00025,-0.00058,-0.00018999999999999998,5e-05,-0.00023999999999999998,-0.00028,-0.00015,4
28121,29398,-0.00014,-0.00025,-0.00058,-0.00018999999999999998,5e-05,-0.00023999999999999998,-0.00028,-0.00015,4
28122,29399,-0.00014,-0.00025,-0.00058,-0.00018999999999999998,5e-05,-0.00023999999999999998,-0.00028,-0.00015,4
28123,29400,-0.00014,-0.00025,-0.00058,-0.00018999999999999998,5e-05,-0.00023999999999999998,-0.00028,-0.00015,4
28124,29401,-0.00014,-0.00025,-0.00058,-0.00018999999999999998,5e-05,-0.00023999999999999998,-0.00028,-0.00015,4
28125,29402,-0.00014,-0.00025,-0.00058,-0.00018999999999999998,5e-05,-0.00023999999999999998,-0.00028,-0.00015,4
28126,29403,-0.00014,-0.00025,-0.00058,-0.00018999999999999998,5e-05,-0.00023999999999999998,-0.00028,-0.00015,4
28127,29404,-0.00014,-0.00025,-0.00058,-0.00018999999999999998,5e-05,-0.00023999999999999998,-0.00028,-0.00015,4
28128,29405,-0.00014,-0.00025,-0.00058,-0.00018999999999999998,5e-05,-0.00023999999999999998,-0.00028,-0.00015,4
28129,29406,-0.00014,-0.00025,-0.00058,-0.00018999999999999998,5e-05,-0.00023999999999999998,-0.00028,-0.00015,4
28130,29407,-0.00014,-0.00025,-0.00058,-0.00018999999999999998,5e-05,-0.00023999999999999998,-0.00028,-0.00015,4
28131,29408,-0.00014,-0.00025,-0.00058,-0.00018999999999999998,5e-05,-0.00023999999999999998,-0.00028,-0.00015,4
28132,29409,-0.00014,-0.00025,-0.00058,-0.00018999999999999998,5e-05,-0.00023999999999999998,-0.00028,-0.00015,4
28133,29410,-0.00014,-0.00025,-0.00058,-0.00018999999999999998,5e-05,-0.00023999999999999998,-0.00028,-0.00015,4
28134,29411,-0.00014,-0.00025,-0.00058,-0.00018999999999999998,5e-05,-0.00023999999999999998,-0.00028,-0.00015,4
28135,29412,-0.00014,-0.00025,-0.00058,-0.00018999999999999998,5e-05,-0.00023999999999999998,-0.00028,-0.00015,4
28136,29413,-0.00014,-0.00025,-0.00058,-0.00018999999999999998,5e-05,-0.00023999999999999998,-0.00028,-0.00015,4
28137,29414,-0.00014,-0.00025,-0.00058,-0.00018999999999999998,5e-05,-0.00023999999999999998,-0.00028,-0.00015,4
28138,29415,-0.00014,-0.00025,-0.00058,-0.00018999999999999998,5e-05,-0.00023999999999999998,-0.00028,-0.00015,4
28139,29416,0.0001,0.00018999999999999998,0.00031,-0.0010199999999999999,-0.00107,0.0009699999999999999,0.00021,0.0001,4
28140,29417,5e-05,9e-05,0.00037999999999999997,0.00114,0.0008900000000000001,4e-05,-2.9999999999999997e-05,0.0,4
28141,29418,5e-05,9e-05,0.00037999999999999997,0.00114,0.0008900000000000001,4e-05,-2.9999999999999997e-05,0.0,4
28142,29419,5e-05,9e-05,0.00037999999999999997,0.00114,0.0008900000000000001,4e-05,-2.9999999999999997e-05,0.0,4
28143,29420,5e-05,9e-05,0.00037999999999999997,0.00114,0.0008900000000000001,4e-05,-2.9999999999999997e-05,0.0,4
28144,29421,5e-05,9e-05,0.00037999999999999997,0.00114,0.0008900000000000001,4e-05,-2.9999999999999997e-05,0.0,4
28145,29422,5e-05,9e-05,0.00037999999999999997,0.00114,0.0008900000000000001,4e-05,-2.9999999999999997e-05,0.0,4
28146,29423,2e-05,0.00015,0.00018,0.00021,0.00023999999999999998,-2e-05,-4e-05,-1e-05,4
28147,29424,-5.9999999999999995e-05,-0.00011999999999999999,-0.00016,-0.00118,-0.00085,-0.00084,-0.00018,-7e-05,4
28148,29425,8e-05,0.00011999999999999999,0.00033999999999999997,0.00022,0.0007599999999999999,9e-05,-1e-05,2.9999999999999997e-05,4
28149,29426,8e-05,0.00011999999999999999,0.00033999999999999997,0.00022,0.0007599999999999999,9e-05,-1e-05,2.9999999999999997e-05,4
28150,29427,8e-05,0.00011999999999999999,0.00033999999999999997,0.00022,0.0007599999999999999,9e-05,-1e-05,2.9999999999999997e-05,4
28151,29428,8e-05,0.00011999999999999999,0.00033999999999999997,0.00022,0.0007599999999999999,9e-05,-1e-05,2.9999999999999997e-05,4
28152,29429,8e-05,0.00011999999999999999,0.00033999999999999997,0.00022,0.0007599999999999999,9e-05,-1e-05,2.9999999999999997e-05,4
28153,29430,8e-05,0.00011999999999999999,0.00033999999999999997,0.00022,0.0007599999999999999,9e-05,-1e-05,2.9999999999999997e-05,4
28154,29431,8e-05,0.00011999999999999999,0.00033999999999999997,0.00022,0.0007599999999999999,9e-05,-1e-05,2.9999999999999997e-05,4
28155,29432,8e-05,0.00011999999999999999,0.00033999999999999997,0.00022,0.0007599999999999999,9e-05,-1e-05,2.9999999999999997e-05,4
28156,29433,8e-05,0.00011999999999999999,0.00033999999999999997,0.00022,0.0007599999999999999,9e-05,-1e-05,2.9999999999999997e-05,4
28157,29434,8e-05,0.00011999999999999999,0.00033999999999999997,0.00022,0.0007599999999999999,9e-05,-1e-05,2.9999999999999997e-05,4
28158,29435,8e-05,0.00011999999999999999,0.00033999999999999997,0.00022,0.0007599999999999999,9e-05,-1e-05,2.9999999999999997e-05,4
28159,29436,8e-05,0.00011999999999999999,0.00033999999999999997,0.00022,0.0007599999999999999,9e-05,-1e-05,2.9999999999999997e-05,4
28160,29438,8e-05,0.00011999999999999999,0.00033999999999999997,0.00022,0.0007599999999999999,9e-05,-1e-05,2.9999999999999997e-05,4
28161,29439,8e-05,0.00011999999999999999,0.00033999999999999997,0.00022,0.0007599999999999999,9e-05,-1e-05,2.9999999999999997e-05,4
28162,29440,8e-05,0.00011999999999999999,0.00033999999999999997,0.00022,0.0007599999999999999,9e-05,-1e-05,2.9999999999999997e-05,4
28163,29441,8e-05,0.00011999999999999999,0.00033999999999999997,0.00022,0.0007599999999999999,9e-05,-1e-05,2.9999999999999997e-05,4
28164,29442,8e-05,0.00011999999999999999,0.00033999999999999997,0.00022,0.0007599999999999999,9e-05,-1e-05,2.9999999999999997e-05,4
28165,29443,8e-05,0.00011999999999999999,0.00033999999999999997,0.00022,0.0007599999999999999,9e-05,-1e-05,2.9999999999999997e-05,4
28166,29444,8e-05,0.00011999999999999999,0.00033999999999999997,0.00022,0.0007599999999999999,9e-05,-1e-05,2.9999999999999997e-05,4
28167,29445,8e-05,0.00011999999999999999,0.00033999999999999997,0.00022,0.0007599999999999999,9e-05,-1e-05,2.9999999999999997e-05,4
28168,29446,8e-05,0.00011999999999999999,0.00033999999999999997,0.00022,0.0007599999999999999,9e-05,-1e-05,2.9999999999999997e-05,4
28169,29447,7e-05,1e-05,-2.9999999999999997e-05,-0.00075,-0.00033,0.00025,0.00011999999999999999,7e-05,4
28170,29448,0.0,4e-05,0.00033999999999999997,0.00058,0.0003,0.00025,0.00011999999999999999,7e-05,4
28171,29449,0.0,4e-05,0.00033999999999999997,0.00058,0.0003,0.00025,0.00011999999999999999,7e-05,4
28172,29450,0.0,4e-05,0.00033999999999999997,0.00058,0.0003,0.00025,0.00011999999999999999,7e-05,4
28173,29451,0.0,4e-05,0.00033999999999999997,0.00058,0.0003,0.00025,0.00011999999999999999,7e-05,4
28174,29452,0.0,4e-05,0.00033999999999999997,0.00058,0.0003,0.00025,0.00011999999999999999,7e-05,4
28175,29453,0.0,4e-05,0.00033999999999999997,0.00058,0.0003,0.00025,0.00011999999999999999,7e-05,4
28176,29454,0.0,4e-05,0.00033999999999999997,0.00058,0.0003,0.00025,0.00011999999999999999,7e-05,4
28177,29455,0.0,4e-05,0.00033999999999999997,0.00058,0.0003,0.00025,0.00011999999999999999,7e-05,4
28178,29456,0.0,4e-05,0.00033999999999999997,0.00058,0.0003,0.00025,0.00011999999999999999,7e-05,4
28179,29457,0.0,4e-05,0.00033999999999999997,0.00058,0.0003,0.00025,0.00011999999999999999,7e-05,4
28180,29458,0.0,4e-05,0.00033999999999999997,0.00058,0.0003,0.00025,0.00011999999999999999,7e-05,4
28181,29459,0.0,4e-05,0.00033999999999999997,0.00058,0.0003,0.00025,0.00011999999999999999,7e-05,4
28182,29460,0.0,4e-05,0.00033999999999999997,0.00058,0.0003,0.00025,0.00011999999999999999,7e-05,4
28183,29461,0.0,4e-05,0.00033999999999999997,0.00058,0.0003,0.00025,0.00011999999999999999,7e-05,4
28184,29462,0.0,4e-05,0.00033999999999999997,0.00058,0.0003,0.00025,0.00011999999999999999,7e-05,4
28185,29463,0.0,4e-05,0.00033999999999999997,0.00058,0.0003,0.00025,0.00011999999999999999,7e-05,4
28186,29464,0.0,4e-05,0.00033999999999999997,0.00058,0.0003,0.00025,0.00011999999999999999,7e-05,4
28187,29465,0.0,4e-05,0.00033999999999999997,0.00058,0.0003,0.00025,0.00011999999999999999,7e-05,4
28188,29466,0.0,4e-05,0.00033999999999999997,0.00058,0.0003,0.00025,0.00011999999999999999,7e-05,4
28189,29467,0.0,4e-05,0.00033999999999999997,0.00058,0.0003,0.00025,0.00011999999999999999,7e-05,4
28190,29468,0.0,4e-05,0.00033999999999999997,0.00058,0.0003,0.00025,0.00011999999999999999,7e-05,4
28191,29469,-4e-05,-9e-05,8e-05,0.0005,-0.00079,0.0001,2e-05,-1e-05,4
28192,29470,-4e-05,-9e-05,8e-05,0.0005,-0.00079,0.0001,2e-05,-1e-05,4
28193,29471,-4e-05,-9e-05,8e-05,0.0005,-0.00079,0.0001,2e-05,-1e-05,4
28194,29472,-4e-05,-9e-05,8e-05,0.0005,-0.00079,0.0001,2e-05,-1e-05,4
28195,29473,-4e-05,-9e-05,8e-05,0.0005,-0.00079,0.0001,2e-05,-1e-05,4
28196,29474,-4e-05,-9e-05,8e-05,0.0005,-0.00079,0.0001,2e-05,-1e-05,4
28197,29475,-4e-05,-9e-05,8e-05,0.0005,-0.00079,0.0001,2e-05,-1e-05,4
28198,29476,7e-05,8e-05,2e-05,0.00031,-0.00029,0.0,4e-05,5e-05,4
28199,29477,7e-05,8e-05,2e-05,0.00031,-0.00029,0.0,4e-05,5e-05,4
28200,29478,7e-05,8e-05,2e-05,0.00031,-0.00029,0.0,4e-05,5e-05,4
28201,29479,7e-05,8e-05,2e-05,0.00031,-0.00029,0.0,4e-05,5e-05,4
28202,29480,7e-05,8e-05,2e-05,0.00031,-0.00029,0.0,4e-05,5e-05,4
28203,29481,7e-05,8e-05,2e-05,0.00031,-0.00029,0.0,4e-05,5e-05,4
28204,29482,7e-05,8e-05,2e-05,0.00031,-0.00029,0.0,4e-05,5e-05,4
28205,29483,1e-05,9e-05,0.00011999999999999999,0.00028,4e-05,-0.0007099999999999999,-0.00016,-5.9999999999999995e-05,4
28206,29484,-2e-05,-0.0001,-0.00039,-0.00072,-0.00093,-0.00033999999999999997,-9e-05,-2.9999999999999997e-05,4
28207,29485,-2e-05,-0.0001,-0.00039,-0.00072,-0.00093,-0.00033999999999999997,-9e-05,-2.9999999999999997e-05,4
28208,29486,-2e-05,-0.0001,-0.00039,-0.00072,-0.00093,-0.00033999999999999997,-9e-05,-2.9999999999999997e-05,4
28209,29488,-2e-05,-0.0001,-0.00039,-0.00072,-0.00093,-0.00033999999999999997,-9e-05,-2.9999999999999997e-05,4
28210,29489,-2e-05,-0.0001,-0.00039,-0.00072,-0.00093,-0.00033999999999999997,-9e-05,-2.9999999999999997e-05,4
28211,29490,-2e-05,-0.0001,-0.00039,-0.00072,-0.00093,-0.00033999999999999997,-9e-05,-2.9999999999999997e-05,4
28212,29491,-2e-05,-0.0001,-0.00039,-0.00072,-0.00093,-0.00033999999999999997,-9e-05,-2.9999999999999997e-05,4
28213,29492,-2e-05,-0.0001,-0.00039,-0.00072,-0.00093,-0.00033999999999999997,-9e-05,-2.9999999999999997e-05,4
28214,29493,-2e-05,-0.0001,-0.00039,-0.00072,-0.00093,-0.00033999999999999997,-9e-05,-2.9999999999999997e-05,4
28215,29494,-2e-05,-0.0001,-0.00039,-0.00072,-0.00093,-0.00033999999999999997,-9e-05,-2.9999999999999997e-05,4
28216,29495,-2e-05,-0.0001,-0.00039,-0.00072,-0.00093,-0.00033999999999999997,-9e-05,-2.9999999999999997e-05,4
28217,29496,-2e-05,-0.0001,-0.00039,-0.00072,-0.00093,-0.00033999999999999997,-9e-05,-2.9999999999999997e-05,4
28218,29497,-2e-05,-0.0001,-0.00039,-0.00072,-0.00093,-0.00033999999999999997,-9e-05,-2.9999999999999997e-05,4
28219,29498,-2e-05,-0.0001,-0.00039,-0.00072,-0.00093,-0.00033999999999999997,-9e-05,-2.9999999999999997e-05,4
28220,29499,-2e-05,-0.0001,-0.00039,-0.00072,-0.00093,-0.00033999999999999997,-9e-05,-2.9999999999999997e-05,4
28221,29500,-2e-05,-0.0001,-0.00039,-0.00072,-0.00093,-0.00033999999999999997,-9e-05,-2.9999999999999997e-05,4
28222,29501,-2e-05,-0.0001,-0.00039,-0.00072,-0.00093,-0.00033999999999999997,-9e-05,-2.9999999999999997e-05,4
28223,29502,-2e-05,-0.0001,-0.00039,-0.00072,-0.00093,-0.00033999999999999997,-9e-05,-2.9999999999999997e-05,4
28224,29503,-2e-05,-0.0001,-0.00039,-0.00072,-0.00093,-0.00033999999999999997,-9e-05,-2.9999999999999997e-05,4
28225,29504,-2e-05,-0.0001,-0.00039,-0.00072,-0.00093,-0.00033999999999999997,-9e-05,-2.9999999999999997e-05,4
28226,29505,-2e-05,-0.0001,-0.00039,-0.00072,-0.00093,-0.00033999999999999997,-9e-05,-2.9999999999999997e-05,4
28227,29506,-2e-05,5.9999999999999995e-05,0.00039,0.00045,0.00063,-0.00025,-7e-05,-5.9999999999999995e-05,4
28228,29507,-7e-05,-0.00011,-2e-05,-7e-05,-0.00059,-0.00011,-0.00015,-8e-05,4
28229,29508,-7e-05,-0.00011,-2e-05,-7e-05,-0.00059,-0.00011,-0.00015,-8e-05,4
28230,29509,-7e-05,-0.00011,-2e-05,-7e-05,-0.00059,-0.00011,-0.00015,-8e-05,4
28231,29510,-7e-05,-0.00011,-2e-05,-7e-05,-0.00059,-0.00011,-0.00015,-8e-05,4
28232,29511,-7e-05,-0.00011,-2e-05,-7e-05,-0.00059,-0.00011,-0.00015,-8e-05,4
28233,29512,-7e-05,-0.00011,-2e-05,-7e-05,-0.00059,-0.00011,-0.00015,-8e-05,4
28234,29513,-7e-05,-0.00011,-2e-05,-7e-05,-0.00059,-0.00011,-0.00015,-8e-05,4
28235,29514,-7e-05,-0.00011,-2e-05,-7e-05,-0.00059,-0.00011,-0.00015,-8e-05,4
28236,29515,-7e-05,-0.00011,-2e-05,-7e-05,-0.00059,-0.00011,-0.00015,-8e-05,4
28237,29516,-7e-05,-0.00011,-2e-05,-7e-05,-0.00059,-0.00011,-0.00015,-8e-05,4
28238,29517,-7e-05,-0.00011,-2e-05,-7e-05,-0.00059,-0.00011,-0.00015,-8e-05,4
28239,29518,-7e-05,-0.00011,-2e-05,-7e-05,-0.00059,-0.00011,-0.00015,-8e-05,4
28240,29519,-7e-05,-0.00011,-2e-05,-7e-05,-0.00059,-0.00011,-0.00015,-8e-05,4
28241,29520,-7e-05,-0.00011,-2e-05,-7e-05,-0.00059,-0.00011,-0.00015,-8e-05,4
28242,29521,-7e-05,-0.00011,-2e-05,-7e-05,-0.00059,-0.00011,-0.00015,-8e-05,4
28243,29522,-7e-05,-0.00011,-2e-05,-7e-05,-0.00059,-0.00011,-0.00015,-8e-05,4
28244,29523,-7e-05,-0.00011,-2e-05,-7e-05,-0.00059,-0.00011,-0.00015,-8e-05,4
28245,29524,-7e-05,-0.00011,-2e-05,-7e-05,-0.00059,-0.00011,-0.00015,-8e-05,4
28246,29525,-7e-05,-0.00011,-2e-05,-7e-05,-0.00059,-0.00011,-0.00015,-8e-05,4
28247,29526,-7e-05,-0.00011,-2e-05,-7e-05,-0.00059,-0.00011,-0.00015,-8e-05,4
28248,29527,-7e-05,-0.00011,-2e-05,-7e-05,-0.00059,-0.00011,-0.00015,-8e-05,4
28249,29528,-7e-05,-0.00011,-2e-05,-7e-05,-0.00059,-0.00011,-0.00015,-8e-05,4
28250,29529,-7e-05,-0.00011,-2e-05,-7e-05,-0.00059,-0.00011,-0.00015,-8e-05,4
28251,29530,4e-05,5e-05,0.0001,0.00049,0.00091,0.00045,2.9999999999999997e-05,-1e-05,4
28252,29531,0.0,0.0,0.00016,0.0010400000000000001,-0.00023999999999999998,-9e-05,-1e-05,-5.9999999999999995e-05,4
28253,29532,0.0,0.0,0.00016,0.0010400000000000001,-0.00023999999999999998,-9e-05,-1e-05,-5.9999999999999995e-05,4
28254,29533,0.0,0.0,0.00016,0.0010400000000000001,-0.00023999999999999998,-9e-05,-1e-05,-5.9999999999999995e-05,4
28255,29534,0.0,0.0,0.00016,0.0010400000000000001,-0.00023999999999999998,-9e-05,-1e-05,-5.9999999999999995e-05,4
28256,29535,0.0,0.0,0.00016,0.0010400000000000001,-0.00023999999999999998,-9e-05,-1e-05,-5.9999999999999995e-05,4
28257,29536,0.0,0.0,0.00016,0.0010400000000000001,-0.00023999999999999998,-9e-05,-1e-05,-5.9999999999999995e-05,4
28258,29538,0.0,0.0,0.00016,0.0010400000000000001,-0.00023999999999999998,-9e-05,-1e-05,-5.9999999999999995e-05,4
28259,29539,0.0,0.0,0.00016,0.0010400000000000001,-0.00023999999999999998,-9e-05,-1e-05,-5.9999999999999995e-05,4
28260,29540,0.0,0.0,0.00016,0.0010400000000000001,-0.00023999999999999998,-9e-05,-1e-05,-5.9999999999999995e-05,4
28261,29541,0.0,0.0,0.00016,0.0010400000000000001,-0.00023999999999999998,-9e-05,-1e-05,-5.9999999999999995e-05,4
28262,29542,0.0,0.0,0.00016,0.0010400000000000001,-0.00023999999999999998,-9e-05,-1e-05,-5.9999999999999995e-05,4
28263,29543,2e-05,0.00011999999999999999,-2e-05,0.00022,0.00055,-0.0001,-1e-05,2e-05,4
28264,29544,-2.9999999999999997e-05,-0.0001,2e-05,-0.00011999999999999999,0.00066,-0.00043,-4e-05,-2.9999999999999997e-05,4
28265,29545,-2.9999999999999997e-05,-0.0001,2e-05,-0.00011999999999999999,0.00066,-0.00043,-4e-05,-2.9999999999999997e-05,4
28266,29546,-2.9999999999999997e-05,-0.0001,2e-05,-0.00011999999999999999,0.00066,-0.00043,-4e-05,-2.9999999999999997e-05,4
28267,29547,-2.9999999999999997e-05,-0.0001,2e-05,-0.00011999999999999999,0.00066,-0.00043,-4e-05,-2.9999999999999997e-05,4
28268,29548,-2.9999999999999997e-05,-0.0001,2e-05,-0.00011999999999999999,0.00066,-0.00043,-4e-05,-2.9999999999999997e-05,4
28269,29549,-2.9999999999999997e-05,-0.0001,2e-05,-0.00011999999999999999,0.00066,-0.00043,-4e-05,-2.9999999999999997e-05,4
28270,29550,-2.9999999999999997e-05,-0.0001,2e-05,-0.00011999999999999999,0.00066,-0.00043,-4e-05,-2.9999999999999997e-05,4
28271,29551,-2.9999999999999997e-05,-0.0001,2e-05,-0.00011999999999999999,0.00066,-0.00043,-4e-05,-2.9999999999999997e-05,4
28272,29552,-2.9999999999999997e-05,-0.0001,2e-05,-0.00011999999999999999,0.00066,-0.00043,-4e-05,-2.9999999999999997e-05,4
28273,29553,-2.9999999999999997e-05,-0.0001,2e-05,-0.00011999999999999999,0.00066,-0.00043,-4e-05,-2.9999999999999997e-05,4
28274,29554,-2.9999999999999997e-05,-0.0001,2e-05,-0.00011999999999999999,0.00066,-0.00043,-4e-05,-2.9999999999999997e-05,4
28275,29555,-2.9999999999999997e-05,-0.0001,2e-05,-0.00011999999999999999,0.00066,-0.00043,-4e-05,-2.9999999999999997e-05,4
28276,29556,-2.9999999999999997e-05,-0.0001,2e-05,-0.00011999999999999999,0.00066,-0.00043,-4e-05,-2.9999999999999997e-05,4
28277,29557,-2.9999999999999997e-05,-0.0001,2e-05,-0.00011999999999999999,0.00066,-0.00043,-4e-05,-2.9999999999999997e-05,4
28278,29558,-2.9999999999999997e-05,-0.0001,2e-05,-0.00011999999999999999,0.00066,-0.00043,-4e-05,-2.9999999999999997e-05,4
28279,29559,-2.9999999999999997e-05,-0.0001,2e-05,-0.00011999999999999999,0.00066,-0.00043,-4e-05,-2.9999999999999997e-05,4
28280,29560,-2.9999999999999997e-05,-0.0001,2e-05,-0.00011999999999999999,0.00066,-0.00043,-4e-05,-2.9999999999999997e-05,4
28281,29561,-2.9999999999999997e-05,-0.0001,2e-05,-0.00011999999999999999,0.00066,-0.00043,-4e-05,-2.9999999999999997e-05,4
28282,29562,-2.9999999999999997e-05,-0.0001,2e-05,-0.00011999999999999999,0.00066,-0.00043,-4e-05,-2.9999999999999997e-05,4
28283,29563,-2.9999999999999997e-05,-0.0001,2e-05,-0.00011999999999999999,0.00066,-0.00043,-4e-05,-2.9999999999999997e-05,4
28284,29564,-2.9999999999999997e-05,-0.0001,2e-05,-0.00011999999999999999,0.00066,-0.00043,-4e-05,-2.9999999999999997e-05,4
28285,29565,-2.9999999999999997e-05,-0.0001,2e-05,-0.00011999999999999999,0.00066,-0.00043,-4e-05,-2.9999999999999997e-05,4
28286,29566,2.9999999999999997e-05,-2.9999999999999997e-05,-7e-05,0.00029,0.00045,0.00023999999999999998,5.9999999999999995e-05,2.9999999999999997e-05,4
28287,29567,2.9999999999999997e-05,-2.9999999999999997e-05,-7e-05,0.00029,0.00045,0.00023999999999999998,5.9999999999999995e-05,2.9999999999999997e-05,4
28288,29568,2.9999999999999997e-05,-2.9999999999999997e-05,-7e-05,0.00029,0.00045,0.00023999999999999998,5.9999999999999995e-05,2.9999999999999997e-05,4
28289,29569,2.9999999999999997e-05,-2.9999999999999997e-05,-7e-05,0.00029,0.00045,0.00023999999999999998,5.9999999999999995e-05,2.9999999999999997e-05,4
28290,29570,2.9999999999999997e-05,-2.9999999999999997e-05,-7e-05,0.00029,0.00045,0.00023999999999999998,5.9999999999999995e-05,2.9999999999999997e-05,4
28291,29571,2.9999999999999997e-05,-2.9999999999999997e-05,-7e-05,0.00029,0.00045,0.00023999999999999998,5.9999999999999995e-05,2.9999999999999997e-05,4
28292,29572,2.9999999999999997e-05,-2.9999999999999997e-05,-7e-05,0.00029,0.00045,0.00023999999999999998,5.9999999999999995e-05,2.9999999999999997e-05,4
28293,29573,0.0,5e-05,-0.0001,-0.00021,-0.00036,-8e-05,0.0,0.0,4
28294,29574,0.0,5e-05,-0.0001,-0.00021,-0.00036,-8e-05,0.0,0.0,4
28295,29575,0.0,5e-05,-0.0001,-0.00021,-0.00036,-8e-05,0.0,0.0,4
28296,29576,0.0,5e-05,-0.0001,-0.00021,-0.00036,-8e-05,0.0,0.0,4
28297,29577,0.0,5e-05,-0.0001,-0.00021,-0.00036,-8e-05,0.0,0.0,4
28298,29578,0.0,5e-05,-0.0001,-0.00021,-0.00036,-8e-05,0.0,0.0,4
28299,29579,0.0,5e-05,-0.0001,-0.00021,-0.00036,-8e-05,0.0,0.0,4
28300,29580,0.0,5e-05,-0.0001,-0.00021,-0.00036,-8e-05,0.0,0.0,4
28301,29581,0.0,5e-05,-0.0001,-0.00021,-0.00036,-8e-05,0.0,0.0,4
28302,29582,0.0,5e-05,-0.0001,-0.00021,-0.00036,-8e-05,0.0,0.0,4
28303,29583,0.0,5e-05,-0.0001,-0.00021,-0.00036,-8e-05,0.0,0.0,4
28304,29584,0.0,5e-05,-0.0001,-0.00021,-0.00036,-8e-05,0.0,0.0,4
28305,29585,0.0,5e-05,-0.0001,-0.00021,-0.00036,-8e-05,0.0,0.0,4
28306,29586,0.0,5e-05,-0.0001,-0.00021,-0.00036,-8e-05,0.0,0.0,4
28307,29588,0.0,5e-05,-0.0001,-0.00021,-0.00036,-8e-05,0.0,0.0,4
28308,29589,2.9999999999999997e-05,0.00013000000000000002,0.00018999999999999998,0.00042,-5e-05,0.00055,0.00018999999999999998,9e-05,4
28309,29590,5e-05,-4e-05,-0.00018,0.00067,0.00018999999999999998,0.0007599999999999999,0.00022999999999999998,7e-05,4
28310,29591,5e-05,-4e-05,-0.00018,0.00067,0.00018999999999999998,0.0007599999999999999,0.00022999999999999998,7e-05,4
28311,29592,5e-05,-4e-05,-0.00018,0.00067,0.00018999999999999998,0.0007599999999999999,0.00022999999999999998,7e-05,4
28312,29593,5e-05,-4e-05,-0.00018,0.00067,0.00018999999999999998,0.0007599999999999999,0.00022999999999999998,7e-05,4
28313,29594,5e-05,-4e-05,-0.00018,0.00067,0.00018999999999999998,0.0007599999999999999,0.00022999999999999998,7e-05,4
28314,29595,5e-05,-4e-05,-0.00018,0.00067,0.00018999999999999998,0.0007599999999999999,0.00022999999999999998,7e-05,4
28315,29596,5e-05,-4e-05,-0.00018,0.00067,0.00018999999999999998,0.0007599999999999999,0.00022999999999999998,7e-05,4
28316,29597,5e-05,-4e-05,-0.00018,0.00067,0.00018999999999999998,0.0007599999999999999,0.00022999999999999998,7e-05,4
28317,29598,5e-05,-4e-05,-0.00018,0.00067,0.00018999999999999998,0.0007599999999999999,0.00022999999999999998,7e-05,4
28318,29599,5e-05,-4e-05,-0.00018,0.00067,0.00018999999999999998,0.0007599999999999999,0.00022999999999999998,7e-05,4
28319,29600,5e-05,-4e-05,-0.00018,0.00067,0.00018999999999999998,0.0007599999999999999,0.00022999999999999998,7e-05,4
28320,29601,5e-05,-4e-05,-0.00018,0.00067,0.00018999999999999998,0.0007599999999999999,0.00022999999999999998,7e-05,4
28321,29602,5e-05,-4e-05,-0.00018,0.00067,0.00018999999999999998,0.0007599999999999999,0.00022999999999999998,7e-05,4
28322,29603,-0.00013000000000000002,-0.00022,-0.00054,-0.0004,-0.0009400000000000001,-0.00042,-0.00016,-0.0001,4
28323,29604,-5.9999999999999995e-05,7e-05,0.0002,-0.00032,-0.00022999999999999998,-0.00016999999999999999,-0.00011999999999999999,-5e-05,4
28324,29605,-5.9999999999999995e-05,7e-05,0.0002,-0.00032,-0.00022999999999999998,-0.00016999999999999999,-0.00011999999999999999,-5e-05,4
28325,29606,-5.9999999999999995e-05,7e-05,0.0002,-0.00032,-0.00022999999999999998,-0.00016999999999999999,-0.00011999999999999999,-5e-05,4
28326,29607,-5.9999999999999995e-05,7e-05,0.0002,-0.00032,-0.00022999999999999998,-0.00016999999999999999,-0.00011999999999999999,-5e-05,4
28327,29608,-5.9999999999999995e-05,7e-05,0.0002,-0.00032,-0.00022999999999999998,-0.00016999999999999999,-0.00011999999999999999,-5e-05,4
28328,29609,-5.9999999999999995e-05,7e-05,0.0002,-0.00032,-0.00022999999999999998,-0.00016999999999999999,-0.00011999999999999999,-5e-05,4
28329,29610,-5.9999999999999995e-05,7e-05,0.0002,-0.00032,-0.00022999999999999998,-0.00016999999999999999,-0.00011999999999999999,-5e-05,4
28330,29611,-5.9999999999999995e-05,7e-05,0.0002,-0.00032,-0.00022999999999999998,-0.00016999999999999999,-0.00011999999999999999,-5e-05,4
28331,29612,-5.9999999999999995e-05,7e-05,0.0002,-0.00032,-0.00022999999999999998,-0.00016999999999999999,-0.00011999999999999999,-5e-05,4
28332,29613,-5.9999999999999995e-05,7e-05,0.0002,-0.00032,-0.00022999999999999998,-0.00016999999999999999,-0.00011999999999999999,-5e-05,4
28333,29614,-5.9999999999999995e-05,7e-05,0.0002,-0.00032,-0.00022999999999999998,-0.00016999999999999999,-0.00011999999999999999,-5e-05,4
28334,29615,-5.9999999999999995e-05,7e-05,0.0002,-0.00032,-0.00022999999999999998,-0.00016999999999999999,-0.00011999999999999999,-5e-05,4
28335,29616,-5.9999999999999995e-05,7e-05,0.0002,-0.00032,-0.00022999999999999998,-0.00016999999999999999,-0.00011999999999999999,-5e-05,4
28336,29617,-5.9999999999999995e-05,7e-05,0.0002,-0.00032,-0.00022999999999999998,-0.00016999999999999999,-0.00011999999999999999,-5e-05,4
28337,29618,-5.9999999999999995e-05,7e-05,0.0002,-0.00032,-0.00022999999999999998,-0.00016999999999999999,-0.00011999999999999999,-5e-05,4
28338,29619,-5.9999999999999995e-05,7e-05,0.0002,-0.00032,-0.00022999999999999998,-0.00016999999999999999,-0.00011999999999999999,-5e-05,4
28339,29620,-5.9999999999999995e-05,7e-05,0.0002,-0.00032,-0.00022999999999999998,-0.00016999999999999999,-0.00011999999999999999,-5e-05,4
28340,29621,-5.9999999999999995e-05,7e-05,0.0002,-0.00032,-0.00022999999999999998,-0.00016999999999999999,-0.00011999999999999999,-5e-05,4
28341,29622,-5.9999999999999995e-05,7e-05,0.0002,-0.00032,-0.00022999999999999998,-0.00016999999999999999,-0.00011999999999999999,-5e-05,4
28342,29623,-5.9999999999999995e-05,7e-05,0.0002,-0.00032,-0.00022999999999999998,-0.00016999999999999999,-0.00011999999999999999,-5e-05,4
28343,29624,-5.9999999999999995e-05,7e-05,0.0002,-0.00032,-0.00022999999999999998,-0.00016999999999999999,-0.00011999999999999999,-5e-05,4
28344,29625,-5.9999999999999995e-05,7e-05,0.0002,-0.00032,-0.00022999999999999998,-0.00016999999999999999,-0.00011999999999999999,-5e-05,4
28345,29626,-5.9999999999999995e-05,7e-05,0.0002,-0.00032,-0.00022999999999999998,-0.00016999999999999999,-0.00011999999999999999,-5e-05,4
28346,29627,-5.9999999999999995e-05,7e-05,0.0002,-0.00032,-0.00022999999999999998,-0.00016999999999999999,-0.00011999999999999999,-5e-05,4
28347,29628,-5.9999999999999995e-05,7e-05,0.0002,-0.00032,-0.00022999999999999998,-0.00016999999999999999,-0.00011999999999999999,-5e-05,4
28348,29629,-5.9999999999999995e-05,7e-05,0.0002,-0.00032,-0.00022999999999999998,-0.00016999999999999999,-0.00011999999999999999,-5e-05,4
28349,29630,-5.9999999999999995e-05,7e-05,0.0002,-0.00032,-0.00022999999999999998,-0.00016999999999999999,-0.00011999999999999999,-5e-05,4
28350,29631,-5.9999999999999995e-05,7e-05,0.0002,-0.00032,-0.00022999999999999998,-0.00016999999999999999,-0.00011999999999999999,-5e-05,4
28351,29632,-5.9999999999999995e-05,7e-05,0.0002,-0.00032,-0.00022999999999999998,-0.00016999999999999999,-0.00011999999999999999,-5e-05,4
28352,29633,-5.9999999999999995e-05,7e-05,0.0002,-0.00032,-0.00022999999999999998,-0.00016999999999999999,-0.00011999999999999999,-5e-05,4
28353,29634,2e-05,-9e-05,0.0,-5.9999999999999995e-05,0.0005200000000000001,0.00031,8e-05,2e-05,4
28354,29635,-2e-05,-2e-05,4e-05,-0.00013000000000000002,0.0004,-0.00049,-7e-05,1e-05,4
28355,29636,-2e-05,-2e-05,4e-05,-0.00013000000000000002,0.0004,-0.00049,-7e-05,1e-05,4
28356,29638,-2e-05,-2e-05,4e-05,-0.00013000000000000002,0.0004,-0.00049,-7e-05,1e-05,4
28357,29640,-2e-05,-2e-05,4e-05,-0.00013000000000000002,0.0004,-0.00049,-7e-05,1e-05,4
28358,29641,-2e-05,-2e-05,4e-05,-0.00013000000000000002,0.0004,-0.00049,-7e-05,1e-05,4
28359,29642,-2e-05,-2e-05,4e-05,-0.00013000000000000002,0.0004,-0.00049,-7e-05,1e-05,4
28360,29643,-2e-05,-2e-05,4e-05,-0.00013000000000000002,0.0004,-0.00049,-7e-05,1e-05,4
28361,29644,-2e-05,-2e-05,4e-05,-0.00013000000000000002,0.0004,-0.00049,-7e-05,1e-05,4
28362,29645,-2e-05,-2e-05,4e-05,-0.00013000000000000002,0.0004,-0.00049,-7e-05,1e-05,4
28363,29646,-2e-05,-2e-05,4e-05,-0.00013000000000000002,0.0004,-0.00049,-7e-05,1e-05,4
28364,29647,-2e-05,-2e-05,4e-05,-0.00013000000000000002,0.0004,-0.00049,-7e-05,1e-05,4
28365,29648,-2e-05,-2e-05,4e-05,-0.00013000000000000002,0.0004,-0.00049,-7e-05,1e-05,4
28366,29649,9e-05,4e-05,0.00023999999999999998,0.0005,0.00082,0.00025,0.0,2.9999999999999997e-05,4
28367,29650,7e-05,0.00018999999999999998,0.00047999999999999996,0.0003,0.00106,0.0002,7e-05,8e-05,4
28368,29651,7e-05,0.00018999999999999998,0.00047999999999999996,0.0003,0.00106,0.0002,7e-05,8e-05,4
28369,29652,7e-05,0.00018999999999999998,0.00047999999999999996,0.0003,0.00106,0.0002,7e-05,8e-05,4
28370,29653,7e-05,0.00018999999999999998,0.00047999999999999996,0.0003,0.00106,0.0002,7e-05,8e-05,4
28371,29654,7e-05,0.00018999999999999998,0.00047999999999999996,0.0003,0.00106,0.0002,7e-05,8e-05,4
28372,29655,7e-05,0.00018999999999999998,0.00047999999999999996,0.0003,0.00106,0.0002,7e-05,8e-05,4
28373,29656,7e-05,0.00018999999999999998,0.00047999999999999996,0.0003,0.00106,0.0002,7e-05,8e-05,4
28374,29657,7e-05,0.00018999999999999998,0.00047999999999999996,0.0003,0.00106,0.0002,7e-05,8e-05,4
28375,29658,7e-05,0.00018999999999999998,0.00047999999999999996,0.0003,0.00106,0.0002,7e-05,8e-05,4
28376,29659,7e-05,0.00018999999999999998,0.00047999999999999996,0.0003,0.00106,0.0002,7e-05,8e-05,4
28377,29660,7e-05,0.00018999999999999998,0.00047999999999999996,0.0003,0.00106,0.0002,7e-05,8e-05,4
28378,29661,7e-05,0.00018999999999999998,0.00047999999999999996,0.0003,0.00106,0.0002,7e-05,8e-05,4
28379,29662,7e-05,0.00018999999999999998,0.00047999999999999996,0.0003,0.00106,0.0002,7e-05,8e-05,4
28380,29663,7e-05,0.00018999999999999998,0.00047999999999999996,0.0003,0.00106,0.0002,7e-05,8e-05,4
28381,29664,-7e-05,-0.00011,-0.00037,-0.00115,-0.0009699999999999999,7e-05,-0.0001,-5.9999999999999995e-05,4
28382,29665,1e-05,-5.9999999999999995e-05,-0.00035,-0.00064,0.00013000000000000002,0.00065,0.00018999999999999998,7e-05,4
28383,29666,1e-05,-5.9999999999999995e-05,-0.00035,-0.00064,0.00013000000000000002,0.00065,0.00018999999999999998,7e-05,4
28384,29667,1e-05,-5.9999999999999995e-05,-0.00035,-0.00064,0.00013000000000000002,0.00065,0.00018999999999999998,7e-05,4
28385,29668,1e-05,-5.9999999999999995e-05,-0.00035,-0.00064,0.00013000000000000002,0.00065,0.00018999999999999998,7e-05,4
28386,29669,1e-05,-5.9999999999999995e-05,-0.00035,-0.00064,0.00013000000000000002,0.00065,0.00018999999999999998,7e-05,4
28387,29670,1e-05,-5.9999999999999995e-05,-0.00035,-0.00064,0.00013000000000000002,0.00065,0.00018999999999999998,7e-05,4
28388,29671,1e-05,-5.9999999999999995e-05,-0.00035,-0.00064,0.00013000000000000002,0.00065,0.00018999999999999998,7e-05,4
28389,29672,1e-05,-5.9999999999999995e-05,-0.00035,-0.00064,0.00013000000000000002,0.00065,0.00018999999999999998,7e-05,4
28390,29673,1e-05,-5.9999999999999995e-05,-0.00035,-0.00064,0.00013000000000000002,0.00065,0.00018999999999999998,7e-05,4
28391,29674,1e-05,-5.9999999999999995e-05,-0.00035,-0.00064,0.00013000000000000002,0.00065,0.00018999999999999998,7e-05,4
28392,29675,1e-05,-5.9999999999999995e-05,-0.00035,-0.00064,0.00013000000000000002,0.00065,0.00018999999999999998,7e-05,4
28393,29676,1e-05,-5.9999999999999995e-05,-0.00035,-0.00064,0.00013000000000000002,0.00065,0.00018999999999999998,7e-05,4
28394,29677,1e-05,-5.9999999999999995e-05,-0.00035,-0.00064,0.00013000000000000002,0.00065,0.00018999999999999998,7e-05,4
28395,29678,1e-05,-5.9999999999999995e-05,-0.00035,-0.00064,0.00013000000000000002,0.00065,0.00018999999999999998,7e-05,4
28396,29679,1e-05,-5.9999999999999995e-05,-0.00035,-0.00064,0.00013000000000000002,0.00065,0.00018999999999999998,7e-05,4
28397,29680,1e-05,-5.9999999999999995e-05,-0.00035,-0.00064,0.00013000000000000002,0.00065,0.00018999999999999998,7e-05,4
28398,29681,1e-05,-5.9999999999999995e-05,-0.00035,-0.00064,0.00013000000000000002,0.00065,0.00018999999999999998,7e-05,4
28399,29682,1e-05,-5.9999999999999995e-05,-0.00035,-0.00064,0.00013000000000000002,0.00065,0.00018999999999999998,7e-05,4
28400,29683,1e-05,-5.9999999999999995e-05,-0.00035,-0.00064,0.00013000000000000002,0.00065,0.00018999999999999998,7e-05,4
28401,29684,1e-05,-5.9999999999999995e-05,-0.00035,-0.00064,0.00013000000000000002,0.00065,0.00018999999999999998,7e-05,4
28402,29685,1e-05,-5.9999999999999995e-05,-0.00035,-0.00064,0.00013000000000000002,0.00065,0.00018999999999999998,7e-05,4
28403,29687,-2e-05,-5.9999999999999995e-05,-0.00016999999999999999,-0.00033999999999999997,0.00022,0.00011,-2e-05,-4e-05,4
28404,29689,2.9999999999999997e-05,0.00016,0.0002,-0.00049,-0.00018,-0.0002,-0.00018999999999999998,-5.9999999999999995e-05,4
28405,29690,2.9999999999999997e-05,0.00016,0.0002,-0.00049,-0.00018,-0.0002,-0.00018999999999999998,-5.9999999999999995e-05,4
28406,29691,2.9999999999999997e-05,0.00016,0.0002,-0.00049,-0.00018,-0.0002,-0.00018999999999999998,-5.9999999999999995e-05,4
28407,29692,2.9999999999999997e-05,0.00016,0.0002,-0.00049,-0.00018,-0.0002,-0.00018999999999999998,-5.9999999999999995e-05,4
28408,29693,2.9999999999999997e-05,0.00016,0.0002,-0.00049,-0.00018,-0.0002,-0.00018999999999999998,-5.9999999999999995e-05,4
28409,29694,2.9999999999999997e-05,0.00016,0.0002,-0.00049,-0.00018,-0.0002,-0.00018999999999999998,-5.9999999999999995e-05,4
28410,29695,2.9999999999999997e-05,0.00016,0.0002,-0.00049,-0.00018,-0.0002,-0.00018999999999999998,-5.9999999999999995e-05,4
28411,29696,2.9999999999999997e-05,0.00016,0.0002,-0.00049,-0.00018,-0.0002,-0.00018999999999999998,-5.9999999999999995e-05,4
28412,29697,2.9999999999999997e-05,0.00016,0.0002,-0.00049,-0.00018,-0.0002,-0.00018999999999999998,-5.9999999999999995e-05,4
28413,29698,2.9999999999999997e-05,0.00016,0.0002,-0.00049,-0.00018,-0.0002,-0.00018999999999999998,-5.9999999999999995e-05,4
28414,29699,2.9999999999999997e-05,0.00016,0.0002,-0.00049,-0.00018,-0.0002,-0.00018999999999999998,-5.9999999999999995e-05,4
28415,29700,2.9999999999999997e-05,0.00016,0.0002,-0.00049,-0.00018,-0.0002,-0.00018999999999999998,-5.9999999999999995e-05,4
28416,29701,2.9999999999999997e-05,0.00016,0.0002,-0.00049,-0.00018,-0.0002,-0.00018999999999999998,-5.9999999999999995e-05,4
28417,29702,2.9999999999999997e-05,0.00016,0.0002,-0.00049,-0.00018,-0.0002,-0.00018999999999999998,-5.9999999999999995e-05,4
28418,29703,2.9999999999999997e-05,0.00016,0.0002,-0.00049,-0.00018,-0.0002,-0.00018999999999999998,-5.9999999999999995e-05,4
28419,29704,2.9999999999999997e-05,0.00016,0.0002,-0.00049,-0.00018,-0.0002,-0.00018999999999999998,-5.9999999999999995e-05,4
28420,29705,2.9999999999999997e-05,0.00016,0.0002,-0.00049,-0.00018,-0.0002,-0.00018999999999999998,-5.9999999999999995e-05,4
28421,29706,2.9999999999999997e-05,0.00016,0.0002,-0.00049,-0.00018,-0.0002,-0.00018999999999999998,-5.9999999999999995e-05,4
28422,29707,2.9999999999999997e-05,0.00016,0.0002,-0.00049,-0.00018,-0.0002,-0.00018999999999999998,-5.9999999999999995e-05,4
28423,29708,2.9999999999999997e-05,0.00016,0.0002,-0.00049,-0.00018,-0.0002,-0.00018999999999999998,-5.9999999999999995e-05,4
28424,29709,4e-05,5e-05,-0.00016,0.0,-0.00084,-0.00079,-0.00011999999999999999,-2.9999999999999997e-05,4
28425,29710,2.9999999999999997e-05,9e-05,0.00016999999999999999,0.0003,2.9999999999999997e-05,0.00065,0.00011,0.0,4
28426,29711,2.9999999999999997e-05,9e-05,0.00016999999999999999,0.0003,2.9999999999999997e-05,0.00065,0.00011,0.0,4
28427,29712,2.9999999999999997e-05,9e-05,0.00016999999999999999,0.0003,2.9999999999999997e-05,0.00065,0.00011,0.0,4
28428,29713,2.9999999999999997e-05,9e-05,0.00016999999999999999,0.0003,2.9999999999999997e-05,0.00065,0.00011,0.0,4
28429,29714,2.9999999999999997e-05,9e-05,0.00016999999999999999,0.0003,2.9999999999999997e-05,0.00065,0.00011,0.0,4
28430,29715,2.9999999999999997e-05,9e-05,0.00016999999999999999,0.0003,2.9999999999999997e-05,0.00065,0.00011,0.0,4
28431,29716,2.9999999999999997e-05,9e-05,0.00016999999999999999,0.0003,2.9999999999999997e-05,0.00065,0.00011,0.0,4
28432,29717,2.9999999999999997e-05,9e-05,0.00016999999999999999,0.0003,2.9999999999999997e-05,0.00065,0.00011,0.0,4
28433,29718,2.9999999999999997e-05,9e-05,0.00016999999999999999,0.0003,2.9999999999999997e-05,0.00065,0.00011,0.0,4
28434,29719,2.9999999999999997e-05,9e-05,0.00016999999999999999,0.0003,2.9999999999999997e-05,0.00065,0.00011,0.0,4
28435,29720,2.9999999999999997e-05,9e-05,0.00016999999999999999,0.0003,2.9999999999999997e-05,0.00065,0.00011,0.0,4
28436,29721,2.9999999999999997e-05,9e-05,0.00016999999999999999,0.0003,2.9999999999999997e-05,0.00065,0.00011,0.0,4
28437,29722,2.9999999999999997e-05,9e-05,0.00016999999999999999,0.0003,2.9999999999999997e-05,0.00065,0.00011,0.0,4
28438,29723,0.0,0.0001,0.00026000000000000003,-4e-05,-0.00047000000000000004,-0.00043,-0.00011999999999999999,-5e-05,4
28439,29724,-2e-05,-9e-05,2.9999999999999997e-05,0.00049,-0.0007099999999999999,-0.00022999999999999998,-0.00011999999999999999,-7e-05,4
28440,29725,-2e-05,-9e-05,2.9999999999999997e-05,0.00049,-0.0007099999999999999,-0.00022999999999999998,-0.00011999999999999999,-7e-05,4
28441,29726,-2e-05,-9e-05,2.9999999999999997e-05,0.00049,-0.0007099999999999999,-0.00022999999999999998,-0.00011999999999999999,-7e-05,4
28442,29727,-2e-05,-9e-05,2.9999999999999997e-05,0.00049,-0.0007099999999999999,-0.00022999999999999998,-0.00011999999999999999,-7e-05,4
28443,29728,-2e-05,-9e-05,2.9999999999999997e-05,0.00049,-0.0007099999999999999,-0.00022999999999999998,-0.00011999999999999999,-7e-05,4
28444,29729,-2e-05,-9e-05,2.9999999999999997e-05,0.00049,-0.0007099999999999999,-0.00022999999999999998,-0.00011999999999999999,-7e-05,4
28445,29730,-2e-05,-9e-05,2.9999999999999997e-05,0.00049,-0.0007099999999999999,-0.00022999999999999998,-0.00011999999999999999,-7e-05,4
28446,29731,-2e-05,-9e-05,2.9999999999999997e-05,0.00049,-0.0007099999999999999,-0.00022999999999999998,-0.00011999999999999999,-7e-05,4
28447,29732,-2e-05,-9e-05,2.9999999999999997e-05,0.00049,-0.0007099999999999999,-0.00022999999999999998,-0.00011999999999999999,-7e-05,4
28448,29733,-2e-05,-9e-05,2.9999999999999997e-05,0.00049,-0.0007099999999999999,-0.00022999999999999998,-0.00011999999999999999,-7e-05,4
28449,29734,-2e-05,-9e-05,2.9999999999999997e-05,0.00049,-0.0007099999999999999,-0.00022999999999999998,-0.00011999999999999999,-7e-05,4
28450,29735,-2e-05,-9e-05,2.9999999999999997e-05,0.00049,-0.0007099999999999999,-0.00022999999999999998,-0.00011999999999999999,-7e-05,4
28451,29736,-2e-05,-9e-05,2.9999999999999997e-05,0.00049,-0.0007099999999999999,-0.00022999999999999998,-0.00011999999999999999,-7e-05,4
28452,29738,-2e-05,-9e-05,2.9999999999999997e-05,0.00049,-0.0007099999999999999,-0.00022999999999999998,-0.00011999999999999999,-7e-05,4
28453,29739,-2e-05,-9e-05,2.9999999999999997e-05,0.00049,-0.0007099999999999999,-0.00022999999999999998,-0.00011999999999999999,-7e-05,4
28454,29740,-2e-05,-9e-05,2.9999999999999997e-05,0.00049,-0.0007099999999999999,-0.00022999999999999998,-0.00011999999999999999,-7e-05,4
28455,29741,-2e-05,-9e-05,2.9999999999999997e-05,0.00049,-0.0007099999999999999,-0.00022999999999999998,-0.00011999999999999999,-7e-05,4
28456,29742,-2e-05,-9e-05,2.9999999999999997e-05,0.00049,-0.0007099999999999999,-0.00022999999999999998,-0.00011999999999999999,-7e-05,4
28457,29743,-2e-05,-9e-05,2.9999999999999997e-05,0.00049,-0.0007099999999999999,-0.00022999999999999998,-0.00011999999999999999,-7e-05,4
28458,29744,-2e-05,-9e-05,2.9999999999999997e-05,0.00049,-0.0007099999999999999,-0.00022999999999999998,-0.00011999999999999999,-7e-05,4
28459,29745,-2e-05,-9e-05,2.9999999999999997e-05,0.00049,-0.0007099999999999999,-0.00022999999999999998,-0.00011999999999999999,-7e-05,4
28460,29746,-7e-05,-4e-05,-8e-05,-0.00018999999999999998,-0.00079,0.0,-5.9999999999999995e-05,-7e-05,4
28461,29747,-9e-05,-0.00018,-0.00033999999999999997,-0.00033,-0.00065,-0.00035,-0.00021,-0.0001,4
28462,29748,-9e-05,-0.00018,-0.00033999999999999997,-0.00033,-0.00065,-0.00035,-0.00021,-0.0001,4
28463,29749,-9e-05,-0.00018,-0.00033999999999999997,-0.00033,-0.00065,-0.00035,-0.00021,-0.0001,4
28464,29750,-9e-05,-0.00018,-0.00033999999999999997,-0.00033,-0.00065,-0.00035,-0.00021,-0.0001,4
28465,29751,-9e-05,-0.00018,-0.00033999999999999997,-0.00033,-0.00065,-0.00035,-0.00021,-0.0001,4
28466,29752,-9e-05,-0.00018,-0.00033999999999999997,-0.00033,-0.00065,-0.00035,-0.00021,-0.0001,4
28467,29753,-9e-05,-0.00018,-0.00033999999999999997,-0.00033,-0.00065,-0.00035,-0.00021,-0.0001,4
28468,29754,-9e-05,-0.00018,-0.00033999999999999997,-0.00033,-0.00065,-0.00035,-0.00021,-0.0001,4
28469,29755,-9e-05,-0.00018,-0.00033999999999999997,-0.00033,-0.00065,-0.00035,-0.00021,-0.0001,4
28470,29756,-9e-05,-0.00018,-0.00033999999999999997,-0.00033,-0.00065,-0.00035,-0.00021,-0.0001,4
28471,29757,-9e-05,-0.00018,-0.00033999999999999997,-0.00033,-0.00065,-0.00035,-0.00021,-0.0001,4
28472,29758,-9e-05,-0.00018,-0.00033999999999999997,-0.00033,-0.00065,-0.00035,-0.00021,-0.0001,4
28473,29759,-9e-05,-0.00018,-0.00033999999999999997,-0.00033,-0.00065,-0.00035,-0.00021,-0.0001,4
28474,29760,-9e-05,-0.00018,-0.00033999999999999997,-0.00033,-0.00065,-0.00035,-0.00021,-0.0001,4
28475,29761,-9e-05,-0.00018,-0.00033999999999999997,-0.00033,-0.00065,-0.00035,-0.00021,-0.0001,4
28476,29762,-9e-05,-0.00018,-0.00033999999999999997,-0.00033,-0.00065,-0.00035,-0.00021,-0.0001,4
28477,29763,-9e-05,-0.00018,-0.00033999999999999997,-0.00033,-0.00065,-0.00035,-0.00021,-0.0001,4
28478,29764,-9e-05,-0.00018,-0.00033999999999999997,-0.00033,-0.00065,-0.00035,-0.00021,-0.0001,4
28479,29765,-9e-05,-0.00018,-0.00033999999999999997,-0.00033,-0.00065,-0.00035,-0.00021,-0.0001,4
28480,29766,-9e-05,-0.00018,-0.00033999999999999997,-0.00033,-0.00065,-0.00035,-0.00021,-0.0001,4
28481,29767,-9e-05,-0.00018,-0.00033999999999999997,-0.00033,-0.00065,-0.00035,-0.00021,-0.0001,4
28482,29768,-9e-05,-0.00018,-0.00033999999999999997,-0.00033,-0.00065,-0.00035,-0.00021,-0.0001,4
28483,29769,-2e-05,8e-05,-2e-05,-0.00039,0.00066,0.00033999999999999997,0.0002,5e-05,4
28484,29770,0.0,0.0,-8e-05,-5e-05,0.0005,-2e-05,4e-05,0.0,4
28485,29771,0.0,0.0,-8e-05,-5e-05,0.0005,-2e-05,4e-05,0.0,4
28486,29772,0.0,0.0,-8e-05,-5e-05,0.0005,-2e-05,4e-05,0.0,4
28487,29773,0.0,0.0,-8e-05,-5e-05,0.0005,-2e-05,4e-05,0.0,4
28488,29774,0.0,0.0,-8e-05,-5e-05,0.0005,-2e-05,4e-05,0.0,4
28489,29775,0.0,0.0,-8e-05,-5e-05,0.0005,-2e-05,4e-05,0.0,4
28490,29776,0.0,0.0,-8e-05,-5e-05,0.0005,-2e-05,4e-05,0.0,4
28491,29777,0.0,0.0,-8e-05,-5e-05,0.0005,-2e-05,4e-05,0.0,4
28492,29778,0.0,0.0,-8e-05,-5e-05,0.0005,-2e-05,4e-05,0.0,4
28493,29779,0.0,0.0,-8e-05,-5e-05,0.0005,-2e-05,4e-05,0.0,4
28494,29780,0.0,0.0,-8e-05,-5e-05,0.0005,-2e-05,4e-05,0.0,4
28495,29781,0.0,0.0,-8e-05,-5e-05,0.0005,-2e-05,4e-05,0.0,4
28496,29782,0.0,0.0,-8e-05,-5e-05,0.0005,-2e-05,4e-05,0.0,4
28497,29783,0.0,-5.9999999999999995e-05,-0.00028,-0.00063,-2.9999999999999997e-05,-0.00037,-0.00014,-8e-05,4
28498,29784,0.0,-5.9999999999999995e-05,-0.00028,-0.00063,-2.9999999999999997e-05,-0.00037,-0.00014,-8e-05,4
28499,29785,0.0,-5.9999999999999995e-05,-0.00028,-0.00063,-2.9999999999999997e-05,-0.00037,-0.00014,-8e-05,4
28500,29786,0.0,-5.9999999999999995e-05,-0.00028,-0.00063,-2.9999999999999997e-05,-0.00037,-0.00014,-8e-05,4
28501,29788,0.0,-5.9999999999999995e-05,-0.00028,-0.00063,-2.9999999999999997e-05,-0.00037,-0.00014,-8e-05,4
28502,29789,0.0,-5.9999999999999995e-05,-0.00028,-0.00063,-2.9999999999999997e-05,-0.00037,-0.00014,-8e-05,4
28503,29790,0.0,-5.9999999999999995e-05,-0.00028,-0.00063,-2.9999999999999997e-05,-0.00037,-0.00014,-8e-05,4
28504,29791,2e-05,0.0,-0.00014,-0.00047000000000000004,0.0,-0.00011,4e-05,5e-05,4
28505,29792,2e-05,0.0,-0.00014,-0.00047000000000000004,0.0,-0.00011,4e-05,5e-05,4
28506,29793,2e-05,0.0,-0.00014,-0.00047000000000000004,0.0,-0.00011,4e-05,5e-05,4
28507,29794,2e-05,0.0,-0.00014,-0.00047000000000000004,0.0,-0.00011,4e-05,5e-05,4
28508,29795,2e-05,0.0,-0.00014,-0.00047000000000000004,0.0,-0.00011,4e-05,5e-05,4
28509,29796,2e-05,0.0,-0.00014,-0.00047000000000000004,0.0,-0.00011,4e-05,5e-05,4
28510,29797,2e-05,0.0,-0.00014,-0.00047000000000000004,0.0,-0.00011,4e-05,5e-05,4
28511,29798,2e-05,0.0,-0.00014,-0.00047000000000000004,0.0,-0.00011,4e-05,5e-05,4
28512,29799,2e-05,0.0,-0.00014,-0.00047000000000000004,0.0,-0.00011,4e-05,5e-05,4
28513,29800,2e-05,0.0,-0.00014,-0.00047000000000000004,0.0,-0.00011,4e-05,5e-05,4
28514,29801,2e-05,0.0,-0.00014,-0.00047000000000000004,0.0,-0.00011,4e-05,5e-05,4
28515,29802,2e-05,0.0,-0.00014,-0.00047000000000000004,0.0,-0.00011,4e-05,5e-05,4
28516,29803,2e-05,0.0,-0.00014,-0.00047000000000000004,0.0,-0.00011,4e-05,5e-05,4
28517,29804,2e-05,0.0,-0.00014,-0.00047000000000000004,0.0,-0.00011,4e-05,5e-05,4
28518,29805,2e-05,0.0,-0.00014,-0.00047000000000000004,0.0,-0.00011,4e-05,5e-05,4
28519,29806,5e-05,2.9999999999999997e-05,0.00022,0.00078,0.0012699999999999999,0.00057,2.9999999999999997e-05,0.0,4
28520,29807,5e-05,0.0001,-4e-05,-0.00119,-0.00123,-0.00025,-4e-05,2.9999999999999997e-05,4
28521,29808,5e-05,0.0001,-4e-05,-0.00119,-0.00123,-0.00025,-4e-05,2.9999999999999997e-05,4
28522,29809,5e-05,0.0001,-4e-05,-0.00119,-0.00123,-0.00025,-4e-05,2.9999999999999997e-05,4
28523,29810,5e-05,0.0001,-4e-05,-0.00119,-0.00123,-0.00025,-4e-05,2.9999999999999997e-05,4
28524,29811,5e-05,0.0001,-4e-05,-0.00119,-0.00123,-0.00025,-4e-05,2.9999999999999997e-05,4
28525,29812,5e-05,0.0001,-4e-05,-0.00119,-0.00123,-0.00025,-4e-05,2.9999999999999997e-05,4
28526,29813,5e-05,0.0001,-4e-05,-0.00119,-0.00123,-0.00025,-4e-05,2.9999999999999997e-05,4
28527,29814,5e-05,0.0001,-4e-05,-0.00119,-0.00123,-0.00025,-4e-05,2.9999999999999997e-05,4
28528,29815,5e-05,0.0001,-4e-05,-0.00119,-0.00123,-0.00025,-4e-05,2.9999999999999997e-05,4
28529,29816,5e-05,0.0001,-4e-05,-0.00119,-0.00123,-0.00025,-4e-05,2.9999999999999997e-05,4
28530,29817,5e-05,0.0001,-4e-05,-0.00119,-0.00123,-0.00025,-4e-05,2.9999999999999997e-05,4
28531,29818,5e-05,0.0001,-4e-05,-0.00119,-0.00123,-0.00025,-4e-05,2.9999999999999997e-05,4
28532,29819,5e-05,0.0001,-4e-05,-0.00119,-0.00123,-0.00025,-4e-05,2.9999999999999997e-05,4
28533,29820,5e-05,0.0001,-4e-05,-0.00119,-0.00123,-0.00025,-4e-05,2.9999999999999997e-05,4
28534,29821,5e-05,0.0001,-4e-05,-0.00119,-0.00123,-0.00025,-4e-05,2.9999999999999997e-05,4
28535,29822,5e-05,0.0001,-4e-05,-0.00119,-0.00123,-0.00025,-4e-05,2.9999999999999997e-05,4
28536,29823,5e-05,0.0001,-4e-05,-0.00119,-0.00123,-0.00025,-4e-05,2.9999999999999997e-05,4
28537,29824,5e-05,0.0001,-4e-05,-0.00119,-0.00123,-0.00025,-4e-05,2.9999999999999997e-05,4
28538,29825,5e-05,0.0001,-4e-05,-0.00119,-0.00123,-0.00025,-4e-05,2.9999999999999997e-05,4
28539,29826,5e-05,0.0001,-4e-05,-0.00119,-0.00123,-0.00025,-4e-05,2.9999999999999997e-05,4
28540,29827,5e-05,0.0001,-4e-05,-0.00119,-0.00123,-0.00025,-4e-05,2.9999999999999997e-05,4
28541,29828,5e-05,0.0001,-4e-05,-0.00119,-0.00123,-0.00025,-4e-05,2.9999999999999997e-05,4
28542,29829,5e-05,0.00016999999999999999,0.00047999999999999996,0.00086,0.00018,0.00035,-2.9999999999999997e-05,2e-05,4
28543,29830,-0.00011,-0.00014,2.9999999999999997e-05,0.00044,0.00081,0.0008699999999999999,0.00018999999999999998,0.0,4
28544,29831,-0.00011,-0.00014,2.9999999999999997e-05,0.00044,0.00081,0.0008699999999999999,0.00018999999999999998,0.0,4
28545,29832,-0.00011,-0.00014,2.9999999999999997e-05,0.00044,0.00081,0.0008699999999999999,0.00018999999999999998,0.0,4
28546,29833,-0.00011,-0.00014,2.9999999999999997e-05,0.00044,0.00081,0.0008699999999999999,0.00018999999999999998,0.0,4
28547,29834,-0.00011,-0.00014,2.9999999999999997e-05,0.00044,0.00081,0.0008699999999999999,0.00018999999999999998,0.0,4
28548,29835,-0.00011,-0.00014,2.9999999999999997e-05,0.00044,0.00081,0.0008699999999999999,0.00018999999999999998,0.0,4
28549,29836,-0.00011,-0.00014,2.9999999999999997e-05,0.00044,0.00081,0.0008699999999999999,0.00018999999999999998,0.0,4
28550,29838,-0.00011,-0.00014,2.9999999999999997e-05,0.00044,0.00081,0.0008699999999999999,0.00018999999999999998,0.0,4
28551,29839,-0.00011,-0.00014,2.9999999999999997e-05,0.00044,0.00081,0.0008699999999999999,0.00018999999999999998,0.0,4
28552,29840,-0.00011,-0.00014,2.9999999999999997e-05,0.00044,0.00081,0.0008699999999999999,0.00018999999999999998,0.0,4
28553,29841,-0.00011,-0.00014,2.9999999999999997e-05,0.00044,0.00081,0.0008699999999999999,0.00018999999999999998,0.0,4
28554,29842,-0.00011,-0.00014,2.9999999999999997e-05,0.00044,0.00081,0.0008699999999999999,0.00018999999999999998,0.0,4
28555,29843,-0.00011,-0.00014,2.9999999999999997e-05,0.00044,0.00081,0.0008699999999999999,0.00018999999999999998,0.0,4
28556,29844,-0.00011,-0.00014,2.9999999999999997e-05,0.00044,0.00081,0.0008699999999999999,0.00018999999999999998,0.0,4
28557,29845,-0.00011,-0.00014,2.9999999999999997e-05,0.00044,0.00081,0.0008699999999999999,0.00018999999999999998,0.0,4
28558,29846,-0.00011,-0.00014,2.9999999999999997e-05,0.00044,0.00081,0.0008699999999999999,0.00018999999999999998,0.0,4
28559,29847,-0.00011,-0.00014,2.9999999999999997e-05,0.00044,0.00081,0.0008699999999999999,0.00018999999999999998,0.0,4
28560,29848,-0.00011,-0.00014,2.9999999999999997e-05,0.00044,0.00081,0.0008699999999999999,0.00018999999999999998,0.0,4
28561,29849,-0.00011,-0.00014,2.9999999999999997e-05,0.00044,0.00081,0.0008699999999999999,0.00018999999999999998,0.0,4
28562,29850,-0.00011,-0.00014,2.9999999999999997e-05,0.00044,0.00081,0.0008699999999999999,0.00018999999999999998,0.0,4
28563,29851,-0.00011,-0.00014,2.9999999999999997e-05,0.00044,0.00081,0.0008699999999999999,0.00018999999999999998,0.0,4
28564,29852,-8e-05,-7e-05,-0.00011,-0.0006900000000000001,-0.00081,-0.00041,-0.00018,-7e-05,4
28565,29853,9e-05,0.00022,0.00027,0.00108,-0.00032,-0.00047000000000000004,-4e-05,1e-05,4
28566,29854,9e-05,0.00022,0.00027,0.00108,-0.00032,-0.00047000000000000004,-4e-05,1e-05,4
28567,29855,9e-05,0.00022,0.00027,0.00108,-0.00032,-0.00047000000000000004,-4e-05,1e-05,4
28568,29856,9e-05,0.00022,0.00027,0.00108,-0.00032,-0.00047000000000000004,-4e-05,1e-05,4
28569,29857,9e-05,0.00022,0.00027,0.00108,-0.00032,-0.00047000000000000004,-4e-05,1e-05,4
28570,29858,9e-05,0.00022,0.00027,0.00108,-0.00032,-0.00047000000000000004,-4e-05,1e-05,4
28571,29859,9e-05,0.00022,0.00027,0.00108,-0.00032,-0.00047000000000000004,-4e-05,1e-05,4
28572,29860,9e-05,0.00022,0.00027,0.00108,-0.00032,-0.00047000000000000004,-4e-05,1e-05,4
28573,29861,9e-05,0.00022,0.00027,0.00108,-0.00032,-0.00047000000000000004,-4e-05,1e-05,4
28574,29862,9e-05,0.00022,0.00027,0.00108,-0.00032,-0.00047000000000000004,-4e-05,1e-05,4
28575,29863,9e-05,0.00022,0.00027,0.00108,-0.00032,-0.00047000000000000004,-4e-05,1e-05,4
28576,29864,9e-05,0.00022,0.00027,0.00108,-0.00032,-0.00047000000000000004,-4e-05,1e-05,4
28577,29865,9e-05,0.00022,0.00027,0.00108,-0.00032,-0.00047000000000000004,-4e-05,1e-05,4
28578,29866,-8e-05,-0.00011,0.00014,-0.00045,-0.00016999999999999999,0.00047000000000000004,2e-05,-4e-05,4
28579,29867,0.0,0.0,-5.9999999999999995e-05,0.00016999999999999999,0.00049,0.0,-4e-05,-2e-05,4
28580,29868,0.0,0.0,-5.9999999999999995e-05,0.00016999999999999999,0.00049,0.0,-4e-05,-2e-05,4
28581,29869,0.0,0.0,-5.9999999999999995e-05,0.00016999999999999999,0.00049,0.0,-4e-05,-2e-05,4
28582,29870,0.0,0.0,-5.9999999999999995e-05,0.00016999999999999999,0.00049,0.0,-4e-05,-2e-05,4
28583,29871,0.0,0.0,-5.9999999999999995e-05,0.00016999999999999999,0.00049,0.0,-4e-05,-2e-05,4
28584,29872,0.0,0.0,-5.9999999999999995e-05,0.00016999999999999999,0.00049,0.0,-4e-05,-2e-05,4
28585,29873,0.0,0.0,-5.9999999999999995e-05,0.00016999999999999999,0.00049,0.0,-4e-05,-2e-05,4
28586,29874,0.0,0.0,-5.9999999999999995e-05,0.00016999999999999999,0.00049,0.0,-4e-05,-2e-05,4
28587,29875,0.0,0.0,-5.9999999999999995e-05,0.00016999999999999999,0.00049,0.0,-4e-05,-2e-05,4
28588,29876,0.0,0.0,-5.9999999999999995e-05,0.00016999999999999999,0.00049,0.0,-4e-05,-2e-05,4
28589,29877,0.0,0.0,-5.9999999999999995e-05,0.00016999999999999999,0.00049,0.0,-4e-05,-2e-05,4
28590,29878,0.0,0.0,-5.9999999999999995e-05,0.00016999999999999999,0.00049,0.0,-4e-05,-2e-05,4
28591,29879,0.0,0.0,-5.9999999999999995e-05,0.00016999999999999999,0.00049,0.0,-4e-05,-2e-05,4
28592,29880,0.0,0.0,-5.9999999999999995e-05,0.00016999999999999999,0.00049,0.0,-4e-05,-2e-05,4
28593,29881,0.0,0.0,-5.9999999999999995e-05,0.00016999999999999999,0.00049,0.0,-4e-05,-2e-05,4
28594,29882,0.0,0.0,-5.9999999999999995e-05,0.00016999999999999999,0.00049,0.0,-4e-05,-2e-05,4
28595,29883,0.0,0.0,-5.9999999999999995e-05,0.00016999999999999999,0.00049,0.0,-4e-05,-2e-05,4
28596,29884,0.0,0.0,-5.9999999999999995e-05,0.00016999999999999999,0.00049,0.0,-4e-05,-2e-05,4
28597,29885,0.0,0.0,-5.9999999999999995e-05,0.00016999999999999999,0.00049,0.0,-4e-05,-2e-05,4
28598,29886,0.0,0.0,-5.9999999999999995e-05,0.00016999999999999999,0.00049,0.0,-4e-05,-2e-05,4
28599,29888,-0.00011,-5.9999999999999995e-05,-0.00026000000000000003,-0.00112,-0.00075,-4e-05,-8e-05,-9e-05,4
28600,29890,2.9999999999999997e-05,5e-05,0.00023999999999999998,0.00023999999999999998,-8e-05,-0.00025,-2e-05,-2e-05,4
28601,29891,2.9999999999999997e-05,5e-05,0.00023999999999999998,0.00023999999999999998,-8e-05,-0.00025,-2e-05,-2e-05,4
28602,29892,2.9999999999999997e-05,5e-05,0.00023999999999999998,0.00023999999999999998,-8e-05,-0.00025,-2e-05,-2e-05,4
28603,29893,2.9999999999999997e-05,5e-05,0.00023999999999999998,0.00023999999999999998,-8e-05,-0.00025,-2e-05,-2e-05,4
28604,29894,2.9999999999999997e-05,5e-05,0.00023999999999999998,0.00023999999999999998,-8e-05,-0.00025,-2e-05,-2e-05,4
28605,29895,2.9999999999999997e-05,5e-05,0.00023999999999999998,0.00023999999999999998,-8e-05,-0.00025,-2e-05,-2e-05,4
28606,29896,2.9999999999999997e-05,5e-05,0.00023999999999999998,0.00023999999999999998,-8e-05,-0.00025,-2e-05,-2e-05,4
28607,29897,2.9999999999999997e-05,5e-05,0.00023999999999999998,0.00023999999999999998,-8e-05,-0.00025,-2e-05,-2e-05,4
28608,29898,2.9999999999999997e-05,5e-05,0.00023999999999999998,0.00023999999999999998,-8e-05,-0.00025,-2e-05,-2e-05,4
28609,29899,2.9999999999999997e-05,5e-05,0.00023999999999999998,0.00023999999999999998,-8e-05,-0.00025,-2e-05,-2e-05,4
28610,29900,2.9999999999999997e-05,5e-05,0.00023999999999999998,0.00023999999999999998,-8e-05,-0.00025,-2e-05,-2e-05,4
28611,29901,2.9999999999999997e-05,5e-05,0.00023999999999999998,0.00023999999999999998,-8e-05,-0.00025,-2e-05,-2e-05,4
28612,29902,2.9999999999999997e-05,5e-05,0.00023999999999999998,0.00023999999999999998,-8e-05,-0.00025,-2e-05,-2e-05,4
28613,29903,2.9999999999999997e-05,5e-05,0.00023999999999999998,0.00023999999999999998,-8e-05,-0.00025,-2e-05,-2e-05,4
28614,29904,2.9999999999999997e-05,5e-05,0.00023999999999999998,0.00023999999999999998,-8e-05,-0.00025,-2e-05,-2e-05,4
28615,29905,2.9999999999999997e-05,5e-05,0.00023999999999999998,0.00023999999999999998,-8e-05,-0.00025,-2e-05,-2e-05,4
28616,29906,2.9999999999999997e-05,5e-05,0.00023999999999999998,0.00023999999999999998,-8e-05,-0.00025,-2e-05,-2e-05,4
28617,29907,2.9999999999999997e-05,5e-05,0.00023999999999999998,0.00023999999999999998,-8e-05,-0.00025,-2e-05,-2e-05,4
28618,29908,2.9999999999999997e-05,5e-05,0.00023999999999999998,0.00023999999999999998,-8e-05,-0.00025,-2e-05,-2e-05,4
28619,29909,2.9999999999999997e-05,5e-05,0.00023999999999999998,0.00023999999999999998,-8e-05,-0.00025,-2e-05,-2e-05,4
28620,29910,2.9999999999999997e-05,5e-05,0.00023999999999999998,0.00023999999999999998,-8e-05,-0.00025,-2e-05,-2e-05,4
28621,29911,-1e-05,-8e-05,-0.00067,-0.0011,-0.00061,-0.00016999999999999999,-4e-05,-2.9999999999999997e-05,4
28622,29912,-8e-05,-0.00011,-0.00016,-8e-05,-0.00088,-0.00043,-0.00016999999999999999,-0.00011,4
28623,29913,-8e-05,-0.00011,-0.00016,-8e-05,-0.00088,-0.00043,-0.00016999999999999999,-0.00011,4
28624,29914,-8e-05,-0.00011,-0.00016,-8e-05,-0.00088,-0.00043,-0.00016999999999999999,-0.00011,4
28625,29915,-8e-05,-0.00011,-0.00016,-8e-05,-0.00088,-0.00043,-0.00016999999999999999,-0.00011,4
28626,29916,-8e-05,-0.00011,-0.00016,-8e-05,-0.00088,-0.00043,-0.00016999999999999999,-0.00011,4
28627,29917,-8e-05,-0.00011,-0.00016,-8e-05,-0.00088,-0.00043,-0.00016999999999999999,-0.00011,4
28628,29918,-8e-05,-0.00011,-0.00016,-8e-05,-0.00088,-0.00043,-0.00016999999999999999,-0.00011,4
28629,29919,-8e-05,-0.00011,-0.00016,-8e-05,-0.00088,-0.00043,-0.00016999999999999999,-0.00011,4
28630,29920,-8e-05,-0.00011,-0.00016,-8e-05,-0.00088,-0.00043,-0.00016999999999999999,-0.00011,4
28631,29921,-8e-05,-0.00011,-0.00016,-8e-05,-0.00088,-0.00043,-0.00016999999999999999,-0.00011,4
28632,29922,-8e-05,-0.00011,-0.00016,-8e-05,-0.00088,-0.00043,-0.00016999999999999999,-0.00011,4
28633,29923,-8e-05,-0.00011,-0.00016,-8e-05,-0.00088,-0.00043,-0.00016999999999999999,-0.00011,4
28634,29924,-8e-05,-0.00011,-0.00016,-8e-05,-0.00088,-0.00043,-0.00016999999999999999,-0.00011,4
28635,29925,-8e-05,-0.00011,-0.00016,-8e-05,-0.00088,-0.00043,-0.00016999999999999999,-0.00011,4
28636,29926,-4e-05,-2.9999999999999997e-05,-4e-05,0.00042,-4e-05,-0.00016,-7e-05,-8e-05,4
28637,29927,0.0,-0.00011,-0.00044,-0.00063,-0.0007599999999999999,-8e-05,0.00013000000000000002,5e-05,4
28638,29928,0.0,-0.00011,-0.00044,-0.00063,-0.0007599999999999999,-8e-05,0.00013000000000000002,5e-05,4
28639,29929,0.0,-0.00011,-0.00044,-0.00063,-0.0007599999999999999,-8e-05,0.00013000000000000002,5e-05,4
28640,29930,0.0,-0.00011,-0.00044,-0.00063,-0.0007599999999999999,-8e-05,0.00013000000000000002,5e-05,4
28641,29931,0.0,-0.00011,-0.00044,-0.00063,-0.0007599999999999999,-8e-05,0.00013000000000000002,5e-05,4
28642,29932,0.0,-0.00011,-0.00044,-0.00063,-0.0007599999999999999,-8e-05,0.00013000000000000002,5e-05,4
28643,29933,0.0,-0.00011,-0.00044,-0.00063,-0.0007599999999999999,-8e-05,0.00013000000000000002,5e-05,4
28644,29934,0.0,-0.00011,-0.00044,-0.00063,-0.0007599999999999999,-8e-05,0.00013000000000000002,5e-05,4
28645,29935,0.0,-0.00011,-0.00044,-0.00063,-0.0007599999999999999,-8e-05,0.00013000000000000002,5e-05,4
28646,29936,0.0,-0.00011,-0.00044,-0.00063,-0.0007599999999999999,-8e-05,0.00013000000000000002,5e-05,4
28647,29938,0.0,-0.00011,-0.00044,-0.00063,-0.0007599999999999999,-8e-05,0.00013000000000000002,5e-05,4
28648,29939,0.0,-0.00011,-0.00044,-0.00063,-0.0007599999999999999,-8e-05,0.00013000000000000002,5e-05,4
28649,29940,0.0,-0.00011,-0.00044,-0.00063,-0.0007599999999999999,-8e-05,0.00013000000000000002,5e-05,4
28650,29941,0.0,-0.00011,-0.00044,-0.00063,-0.0007599999999999999,-8e-05,0.00013000000000000002,5e-05,4
28651,29942,0.0,-0.00011,-0.00044,-0.00063,-0.0007599999999999999,-8e-05,0.00013000000000000002,5e-05,4
28652,29943,0.0,-0.00011,-0.00044,-0.00063,-0.0007599999999999999,-8e-05,0.00013000000000000002,5e-05,4
28653,29944,0.0,-0.00011,-0.00044,-0.00063,-0.0007599999999999999,-8e-05,0.00013000000000000002,5e-05,4
28654,29945,0.0,-0.00011,-0.00044,-0.00063,-0.0007599999999999999,-8e-05,0.00013000000000000002,5e-05,4
28655,29946,0.0,-0.00011,-0.00044,-0.00063,-0.0007599999999999999,-8e-05,0.00013000000000000002,5e-05,4
28656,29947,0.0,-0.00011,-0.00044,-0.00063,-0.0007599999999999999,-8e-05,0.00013000000000000002,5e-05,4
28657,29948,0.0,-0.00011,-0.00044,-0.00063,-0.0007599999999999999,-8e-05,0.00013000000000000002,5e-05,4
28658,29949,1e-05,7e-05,9e-05,7e-05,-2e-05,5e-05,-9e-05,-2e-05,4
28659,29950,-1e-05,-2e-05,-2.9999999999999997e-05,-0.0005,0.0008699999999999999,0.00037,-2.9999999999999997e-05,-4e-05,4
28660,29951,-1e-05,-2e-05,-2.9999999999999997e-05,-0.0005,0.0008699999999999999,0.00037,-2.9999999999999997e-05,-4e-05,4
28661,29952,-1e-05,-2e-05,-2.9999999999999997e-05,-0.0005,0.0008699999999999999,0.00037,-2.9999999999999997e-05,-4e-05,4
28662,29953,-1e-05,-2e-05,-2.9999999999999997e-05,-0.0005,0.0008699999999999999,0.00037,-2.9999999999999997e-05,-4e-05,4
28663,29954,-1e-05,-2e-05,-2.9999999999999997e-05,-0.0005,0.0008699999999999999,0.00037,-2.9999999999999997e-05,-4e-05,4
28664,29955,-1e-05,-2e-05,-2.9999999999999997e-05,-0.0005,0.0008699999999999999,0.00037,-2.9999999999999997e-05,-4e-05,4
28665,29956,-1e-05,-2e-05,-2.9999999999999997e-05,-0.0005,0.0008699999999999999,0.00037,-2.9999999999999997e-05,-4e-05,4
28666,29957,-1e-05,-2e-05,-2.9999999999999997e-05,-0.0005,0.0008699999999999999,0.00037,-2.9999999999999997e-05,-4e-05,4
28667,29958,-1e-05,-2e-05,-2.9999999999999997e-05,-0.0005,0.0008699999999999999,0.00037,-2.9999999999999997e-05,-4e-05,4
28668,29959,-1e-05,-2e-05,-2.9999999999999997e-05,-0.0005,0.0008699999999999999,0.00037,-2.9999999999999997e-05,-4e-05,4
28669,29960,-1e-05,-2e-05,-2.9999999999999997e-05,-0.0005,0.0008699999999999999,0.00037,-2.9999999999999997e-05,-4e-05,4
28670,29961,-1e-05,-2e-05,-2.9999999999999997e-05,-0.0005,0.0008699999999999999,0.00037,-2.9999999999999997e-05,-4e-05,4
28671,29962,-1e-05,-2e-05,-2.9999999999999997e-05,-0.0005,0.0008699999999999999,0.00037,-2.9999999999999997e-05,-4e-05,4
28672,29963,-2e-05,-0.00016999999999999999,-0.00018,4e-05,0.00018,-0.00018999999999999998,-2e-05,-1e-05,4
28673,29964,-2e-05,-0.00016999999999999999,-0.00018,4e-05,0.00018,-0.00018999999999999998,-2e-05,-1e-05,4
28674,29965,-2e-05,-0.00016999999999999999,-0.00018,4e-05,0.00018,-0.00018999999999999998,-2e-05,-1e-05,4
28675,29966,-2e-05,-0.00016999999999999999,-0.00018,4e-05,0.00018,-0.00018999999999999998,-2e-05,-1e-05,4
28676,29967,-2e-05,-0.00016999999999999999,-0.00018,4e-05,0.00018,-0.00018999999999999998,-2e-05,-1e-05,4
28677,29968,-2e-05,-0.00016999999999999999,-0.00018,4e-05,0.00018,-0.00018999999999999998,-2e-05,-1e-05,4
28678,29969,-2e-05,-0.00016999999999999999,-0.00018,4e-05,0.00018,-0.00018999999999999998,-2e-05,-1e-05,4
28679,29970,-2e-05,-0.00016999999999999999,-0.00018,4e-05,0.00018,-0.00018999999999999998,-2e-05,-1e-05,4
28680,29971,-2e-05,-9e-05,-0.00013000000000000002,0.0004,0.00018,-0.00028,-0.00015,-9e-05,4
28681,29972,-2e-05,-9e-05,-0.00013000000000000002,0.0004,0.00018,-0.00028,-0.00015,-9e-05,4
28682,29973,-2e-05,-9e-05,-0.00013000000000000002,0.0004,0.00018,-0.00028,-0.00015,-9e-05,4
28683,29974,-2e-05,-9e-05,-0.00013000000000000002,0.0004,0.00018,-0.00028,-0.00015,-9e-05,4
28684,29975,-2e-05,-9e-05,-0.00013000000000000002,0.0004,0.00018,-0.00028,-0.00015,-9e-05,4
28685,29976,-2e-05,-9e-05,-0.00013000000000000002,0.0004,0.00018,-0.00028,-0.00015,-9e-05,4
28686,29977,-2e-05,-9e-05,-0.00013000000000000002,0.0004,0.00018,-0.00028,-0.00015,-9e-05,4
28687,29978,-2e-05,-9e-05,-0.00013000000000000002,0.0004,0.00018,-0.00028,-0.00015,-9e-05,4
28688,29979,-2e-05,-9e-05,-0.00013000000000000002,0.0004,0.00018,-0.00028,-0.00015,-9e-05,4
28689,29980,-2e-05,-9e-05,-0.00013000000000000002,0.0004,0.00018,-0.00028,-0.00015,-9e-05,4
28690,29981,-2e-05,-9e-05,-0.00013000000000000002,0.0004,0.00018,-0.00028,-0.00015,-9e-05,4
28691,29982,-2e-05,-9e-05,-0.00013000000000000002,0.0004,0.00018,-0.00028,-0.00015,-9e-05,4
28692,29983,-2e-05,-9e-05,-0.00013000000000000002,0.0004,0.00018,-0.00028,-0.00015,-9e-05,4
28693,29984,-2e-05,-9e-05,-0.00013000000000000002,0.0004,0.00018,-0.00028,-0.00015,-9e-05,4
28694,29985,-2e-05,-9e-05,-0.00013000000000000002,0.0004,0.00018,-0.00028,-0.00015,-9e-05,4
28695,29986,-0.00016999999999999999,-0.00011999999999999999,-5e-05,0.00035,0.00066,0.00037999999999999997,0.00014,-2.9999999999999997e-05,4
28696,29989,-2.9999999999999997e-05,-5.9999999999999995e-05,2.9999999999999997e-05,-0.00016,0.00016999999999999999,0.00066,7e-05,0.0,4
28697,29990,-2.9999999999999997e-05,-5.9999999999999995e-05,2.9999999999999997e-05,-0.00016,0.00016999999999999999,0.00066,7e-05,0.0,4
28698,29991,-2.9999999999999997e-05,-5.9999999999999995e-05,2.9999999999999997e-05,-0.00016,0.00016999999999999999,0.00066,7e-05,0.0,4
28699,29992,-2.9999999999999997e-05,-5.9999999999999995e-05,2.9999999999999997e-05,-0.00016,0.00016999999999999999,0.00066,7e-05,0.0,4
28700,29993,-2.9999999999999997e-05,-5.9999999999999995e-05,2.9999999999999997e-05,-0.00016,0.00016999999999999999,0.00066,7e-05,0.0,4
28701,29994,-2.9999999999999997e-05,-5.9999999999999995e-05,2.9999999999999997e-05,-0.00016,0.00016999999999999999,0.00066,7e-05,0.0,4
28702,29995,-2.9999999999999997e-05,-5.9999999999999995e-05,2.9999999999999997e-05,-0.00016,0.00016999999999999999,0.00066,7e-05,0.0,4
28703,29996,-2.9999999999999997e-05,-5.9999999999999995e-05,2.9999999999999997e-05,-0.00016,0.00016999999999999999,0.00066,7e-05,0.0,4
28704,29997,-2.9999999999999997e-05,-5.9999999999999995e-05,2.9999999999999997e-05,-0.00016,0.00016999999999999999,0.00066,7e-05,0.0,4
28705,29998,-2.9999999999999997e-05,-5.9999999999999995e-05,2.9999999999999997e-05,-0.00016,0.00016999999999999999,0.00066,7e-05,0.0,4
28706,29999,-2.9999999999999997e-05,-5.9999999999999995e-05,2.9999999999999997e-05,-0.00016,0.00016999999999999999,0.00066,7e-05,0.0,4
28707,30000,-2.9999999999999997e-05,-5.9999999999999995e-05,2.9999999999999997e-05,-0.00016,0.00016999999999999999,0.00066,7e-05,0.0,4
28708,30001,-2.9999999999999997e-05,-5.9999999999999995e-05,2.9999999999999997e-05,-0.00016,0.00016999999999999999,0.00066,7e-05,0.0,4
28709,30002,-2.9999999999999997e-05,-5.9999999999999995e-05,2.9999999999999997e-05,-0.00016,0.00016999999999999999,0.00066,7e-05,0.0,4
28710,30003,-2.9999999999999997e-05,-5.9999999999999995e-05,2.9999999999999997e-05,-0.00016,0.00016999999999999999,0.00066,7e-05,0.0,4
28711,30004,-2.9999999999999997e-05,-5.9999999999999995e-05,2.9999999999999997e-05,-0.00016,0.00016999999999999999,0.00066,7e-05,0.0,4
28712,30005,-2.9999999999999997e-05,-5.9999999999999995e-05,2.9999999999999997e-05,-0.00016,0.00016999999999999999,0.00066,7e-05,0.0,4
28713,30006,-2.9999999999999997e-05,-5.9999999999999995e-05,2.9999999999999997e-05,-0.00016,0.00016999999999999999,0.00066,7e-05,0.0,4
28714,30007,-2.9999999999999997e-05,-5.9999999999999995e-05,2.9999999999999997e-05,-0.00016,0.00016999999999999999,0.00066,7e-05,0.0,4
28715,30008,-2.9999999999999997e-05,-5.9999999999999995e-05,2.9999999999999997e-05,-0.00016,0.00016999999999999999,0.00066,7e-05,0.0,4
28716,30009,-2.9999999999999997e-05,-5.9999999999999995e-05,2.9999999999999997e-05,-0.00016,0.00016999999999999999,0.00066,7e-05,0.0,4
28717,30010,0.0,2e-05,0.0002,0.00026000000000000003,-0.00016,0.0,5e-05,2.9999999999999997e-05,4
28718,30011,0.0,2e-05,0.0002,0.00026000000000000003,-0.00016,0.0,5e-05,2.9999999999999997e-05,4
28719,30012,0.0,2e-05,0.0002,0.00026000000000000003,-0.00016,0.0,5e-05,2.9999999999999997e-05,4
28720,30013,0.0,2e-05,0.0002,0.00026000000000000003,-0.00016,0.0,5e-05,2.9999999999999997e-05,4
28721,30014,0.0,2e-05,0.0002,0.00026000000000000003,-0.00016,0.0,5e-05,2.9999999999999997e-05,4
28722,30015,0.0,2e-05,0.0002,0.00026000000000000003,-0.00016,0.0,5e-05,2.9999999999999997e-05,4
28723,30016,0.0,2e-05,0.0002,0.00026000000000000003,-0.00016,0.0,5e-05,2.9999999999999997e-05,4
28724,30017,0.0,2e-05,0.0002,0.00026000000000000003,-0.00016,0.0,5e-05,2.9999999999999997e-05,4
28725,30018,0.0,2e-05,0.0002,0.00026000000000000003,-0.00016,0.0,5e-05,2.9999999999999997e-05,4
28726,30019,0.0,2e-05,0.0002,0.00026000000000000003,-0.00016,0.0,5e-05,2.9999999999999997e-05,4
28727,30020,0.0,2e-05,0.0002,0.00026000000000000003,-0.00016,0.0,5e-05,2.9999999999999997e-05,4
28728,30021,0.0,2e-05,0.0002,0.00026000000000000003,-0.00016,0.0,5e-05,2.9999999999999997e-05,4
28729,30022,9e-05,0.00013000000000000002,1e-05,-7e-05,-0.00022,-8e-05,-0.0001,-1e-05,4
28730,30023,-9e-05,-0.0001,-0.0001,-0.00037,-0.00025,5.9999999999999995e-05,2e-05,-4e-05,4
28731,30024,-9e-05,-0.0001,-0.0001,-0.00037,-0.00025,5.9999999999999995e-05,2e-05,-4e-05,4
28732,30025,-9e-05,-0.0001,-0.0001,-0.00037,-0.00025,5.9999999999999995e-05,2e-05,-4e-05,4
28733,30026,-9e-05,-0.0001,-0.0001,-0.00037,-0.00025,5.9999999999999995e-05,2e-05,-4e-05,4
28734,30027,-9e-05,-0.0001,-0.0001,-0.00037,-0.00025,5.9999999999999995e-05,2e-05,-4e-05,4
28735,30028,-9e-05,-0.0001,-0.0001,-0.00037,-0.00025,5.9999999999999995e-05,2e-05,-4e-05,4
28736,30029,-9e-05,-0.0001,-0.0001,-0.00037,-0.00025,5.9999999999999995e-05,2e-05,-4e-05,4
28737,30030,-9e-05,-0.0001,-0.0001,-0.00037,-0.00025,5.9999999999999995e-05,2e-05,-4e-05,4
28738,30031,-9e-05,-0.00011,-1e-05,2.9999999999999997e-05,4e-05,-0.00022999999999999998,-0.00015,-7e-05,4
28739,30032,-9e-05,-0.00011,-1e-05,2.9999999999999997e-05,4e-05,-0.00022999999999999998,-0.00015,-7e-05,4
28740,30033,-9e-05,-0.00011,-1e-05,2.9999999999999997e-05,4e-05,-0.00022999999999999998,-0.00015,-7e-05,4
28741,30034,-9e-05,-0.00011,-1e-05,2.9999999999999997e-05,4e-05,-0.00022999999999999998,-0.00015,-7e-05,4
