,time,channel1,channel2,channel3,channel4,channel5,channel6,channel7,channel8,class
17684,18440,-4e-05,-5.9999999999999995e-05,0.00021,0.00044,-0.00041,-0.00084,-0.00025,-9e-05,4
17685,18441,-4e-05,-5.9999999999999995e-05,0.00021,0.00044,-0.00041,-0.00084,-0.00025,-9e-05,4
17686,18442,-4e-05,-5.9999999999999995e-05,0.00021,0.00044,-0.00041,-0.00084,-0.00025,-9e-05,4
17687,18443,-4e-05,-5.9999999999999995e-05,0.00021,0.00044,-0.00041,-0.00084,-0.00025,-9e-05,4
17688,18444,-4e-05,-5.9999999999999995e-05,0.00021,0.00044,-0.00041,-0.00084,-0.00025,-9e-05,4
17689,18445,-4e-05,-5.9999999999999995e-05,0.00021,0.00044,-0.00041,-0.00084,-0.00025,-9e-05,4
17690,18446,-4e-05,-5.9999999999999995e-05,0.00021,0.00044,-0.00041,-0.00084,-0.00025,-9e-05,4
17691,18447,-4e-05,-5.9999999999999995e-05,0.00021,0.00044,-0.00041,-0.00084,-0.00025,-9e-05,4
17692,18448,-4e-05,-5.9999999999999995e-05,0.00021,0.00044,-0.00041,-0.00084,-0.00025,-9e-05,4
17693,18449,-4e-05,-5.9999999999999995e-05,0.00021,0.00044,-0.00041,-0.00084,-0.00025,-9e-05,4
17694,18450,-4e-05,-5.9999999999999995e-05,0.00021,0.00044,-0.00041,-0.00084,-0.00025,-9e-05,4
17695,18451,-4e-05,-5.9999999999999995e-05,0.00021,0.00044,-0.00041,-0.00084,-0.00025,-9e-05,4
17696,18452,-4e-05,-5.9999999999999995e-05,0.00021,0.00044,-0.00041,-0.00084,-0.00025,-9e-05,4
17697,18453,-4e-05,-5.9999999999999995e-05,0.00021,0.00044,-0.00041,-0.00084,-0.00025,-9e-05,4
17698,18454,-4e-05,-5.9999999999999995e-05,0.00021,0.00044,-0.00041,-0.00084,-0.00025,-9e-05,4
17699,18455,-4e-05,-5.9999999999999995e-05,0.00021,0.00044,-0.00041,-0.00084,-0.00025,-9e-05,4
17700,18456,-4e-05,-5.9999999999999995e-05,0.00021,0.00044,-0.00041,-0.00084,-0.00025,-9e-05,4
17701,18457,-4e-05,-5.9999999999999995e-05,0.00021,0.00044,-0.00041,-0.00084,-0.00025,-9e-05,4
17702,18458,-4e-05,-5.9999999999999995e-05,0.00021,0.00044,-0.00041,-0.00084,-0.00025,-9e-05,4
17703,18459,-4e-05,-5.9999999999999995e-05,0.00021,0.00044,-0.00041,-0.00084,-0.00025,-9e-05,4
17704,18460,-2e-05,0.00022,5.9999999999999995e-05,0.00037,0.0007,0.00037,9e-05,0.0,4
17705,18461,-2e-05,0.00022,5.9999999999999995e-05,0.00037,0.0007,0.00037,9e-05,0.0,4
17706,18462,-2e-05,0.00022,5.9999999999999995e-05,0.00037,0.0007,0.00037,9e-05,0.0,4
17707,18463,-2e-05,0.00022,5.9999999999999995e-05,0.00037,0.0007,0.00037,9e-05,0.0,4
17708,18464,-2e-05,0.00022,5.9999999999999995e-05,0.00037,0.0007,0.00037,9e-05,0.0,4
17709,18465,-2e-05,0.00022,5.9999999999999995e-05,0.00037,0.0007,0.00037,9e-05,0.0,4
17710,18466,-2e-05,0.00022,5.9999999999999995e-05,0.00037,0.0007,0.00037,9e-05,0.0,4
17711,18467,-2e-05,0.00022,5.9999999999999995e-05,0.00037,0.0007,0.00037,9e-05,0.0,4
17712,18468,-2e-05,0.00022,5.9999999999999995e-05,0.00037,0.0007,0.00037,9e-05,0.0,4
17713,18469,-2e-05,0.00022,5.9999999999999995e-05,0.00037,0.0007,0.00037,9e-05,0.0,4
17714,18470,-2e-05,0.00022,5.9999999999999995e-05,0.00037,0.0007,0.00037,9e-05,0.0,4
17715,18471,-2e-05,0.00022,5.9999999999999995e-05,0.00037,0.0007,0.00037,9e-05,0.0,4
17716,18472,-2e-05,0.00022,5.9999999999999995e-05,0.00037,0.0007,0.00037,9e-05,0.0,4
17717,18473,-0.00013000000000000002,-0.00016,-0.00023999999999999998,0.00084,-0.00035,0.00015,-8e-05,-0.00013000000000000002,4
17718,18474,0.00013000000000000002,-5.9999999999999995e-05,0.0002,-0.00026000000000000003,-0.00047999999999999996,-4e-05,0.00016999999999999999,0.00016,4
17719,18475,0.00013000000000000002,-5.9999999999999995e-05,0.0002,-0.00026000000000000003,-0.00047999999999999996,-4e-05,0.00016999999999999999,0.00016,4
17720,18476,0.00013000000000000002,-5.9999999999999995e-05,0.0002,-0.00026000000000000003,-0.00047999999999999996,-4e-05,0.00016999999999999999,0.00016,4
17721,18477,0.00013000000000000002,-5.9999999999999995e-05,0.0002,-0.00026000000000000003,-0.00047999999999999996,-4e-05,0.00016999999999999999,0.00016,4
17722,18478,0.00013000000000000002,-5.9999999999999995e-05,0.0002,-0.00026000000000000003,-0.00047999999999999996,-4e-05,0.00016999999999999999,0.00016,4
17723,18479,0.00013000000000000002,-5.9999999999999995e-05,0.0002,-0.00026000000000000003,-0.00047999999999999996,-4e-05,0.00016999999999999999,0.00016,4
17724,18480,0.00013000000000000002,-5.9999999999999995e-05,0.0002,-0.00026000000000000003,-0.00047999999999999996,-4e-05,0.00016999999999999999,0.00016,4
17725,18481,0.00013000000000000002,-5.9999999999999995e-05,0.0002,-0.00026000000000000003,-0.00047999999999999996,-4e-05,0.00016999999999999999,0.00016,4
17726,18482,0.00013000000000000002,-5.9999999999999995e-05,0.0002,-0.00026000000000000003,-0.00047999999999999996,-4e-05,0.00016999999999999999,0.00016,4
17727,18483,0.00013000000000000002,-5.9999999999999995e-05,0.0002,-0.00026000000000000003,-0.00047999999999999996,-4e-05,0.00016999999999999999,0.00016,4
17728,18484,0.00013000000000000002,-5.9999999999999995e-05,0.0002,-0.00026000000000000003,-0.00047999999999999996,-4e-05,0.00016999999999999999,0.00016,4
17729,18485,0.00013000000000000002,-5.9999999999999995e-05,0.0002,-0.00026000000000000003,-0.00047999999999999996,-4e-05,0.00016999999999999999,0.00016,4
17730,18486,0.00013000000000000002,-5.9999999999999995e-05,0.0002,-0.00026000000000000003,-0.00047999999999999996,-4e-05,0.00016999999999999999,0.00016,4
17731,18489,0.00013000000000000002,-5.9999999999999995e-05,0.0002,-0.00026000000000000003,-0.00047999999999999996,-4e-05,0.00016999999999999999,0.00016,4
17732,18490,0.00013000000000000002,-5.9999999999999995e-05,0.0002,-0.00026000000000000003,-0.00047999999999999996,-4e-05,0.00016999999999999999,0.00016,4
17733,18491,0.00013000000000000002,-5.9999999999999995e-05,0.0002,-0.00026000000000000003,-0.00047999999999999996,-4e-05,0.00016999999999999999,0.00016,4
17734,18492,0.00013000000000000002,-5.9999999999999995e-05,0.0002,-0.00026000000000000003,-0.00047999999999999996,-4e-05,0.00016999999999999999,0.00016,4
17735,18493,0.00013000000000000002,-5.9999999999999995e-05,0.0002,-0.00026000000000000003,-0.00047999999999999996,-4e-05,0.00016999999999999999,0.00016,4
17736,18494,0.00013000000000000002,-5.9999999999999995e-05,0.0002,-0.00026000000000000003,-0.00047999999999999996,-4e-05,0.00016999999999999999,0.00016,4
17737,18495,-0.00013000000000000002,-2e-05,-0.00014,5e-05,-0.00033999999999999997,0.00027,2e-05,-0.00011999999999999999,4
17738,18496,-0.00027,-0.00057,-0.00072,-0.00106,-0.0004,-0.00015,-0.00037,-0.00032,4
17739,18497,0.00014,-2e-05,0.00014,-0.0010400000000000001,-0.00091,0.00021,-0.00011,2.9999999999999997e-05,4
17740,18498,0.00014,-2e-05,0.00014,-0.0010400000000000001,-0.00091,0.00021,-0.00011,2.9999999999999997e-05,4
17741,18499,0.00014,-2e-05,0.00014,-0.0010400000000000001,-0.00091,0.00021,-0.00011,2.9999999999999997e-05,4
17742,18500,0.00014,-2e-05,0.00014,-0.0010400000000000001,-0.00091,0.00021,-0.00011,2.9999999999999997e-05,4
17743,18501,0.00014,-2e-05,0.00014,-0.0010400000000000001,-0.00091,0.00021,-0.00011,2.9999999999999997e-05,4
17744,18502,0.00014,-2e-05,0.00014,-0.0010400000000000001,-0.00091,0.00021,-0.00011,2.9999999999999997e-05,4
17745,18503,0.00014,-2e-05,0.00014,-0.0010400000000000001,-0.00091,0.00021,-0.00011,2.9999999999999997e-05,4
17746,18504,0.00014,-2e-05,0.00014,-0.0010400000000000001,-0.00091,0.00021,-0.00011,2.9999999999999997e-05,4
17747,18505,0.00014,-2e-05,0.00014,-0.0010400000000000001,-0.00091,0.00021,-0.00011,2.9999999999999997e-05,4
17748,18506,0.00014,-2e-05,0.00014,-0.0010400000000000001,-0.00091,0.00021,-0.00011,2.9999999999999997e-05,4
17749,18507,0.00014,-2e-05,0.00014,-0.0010400000000000001,-0.00091,0.00021,-0.00011,2.9999999999999997e-05,4
17750,18508,0.00014,-2e-05,0.00014,-0.0010400000000000001,-0.00091,0.00021,-0.00011,2.9999999999999997e-05,4
17751,18509,0.00014,-2e-05,0.00014,-0.0010400000000000001,-0.00091,0.00021,-0.00011,2.9999999999999997e-05,4
17752,18510,0.00014,-2e-05,0.00014,-0.0010400000000000001,-0.00091,0.00021,-0.00011,2.9999999999999997e-05,4
17753,18511,0.00014,-2e-05,0.00014,-0.0010400000000000001,-0.00091,0.00021,-0.00011,2.9999999999999997e-05,4
17754,18512,0.00014,-2e-05,0.00014,-0.0010400000000000001,-0.00091,0.00021,-0.00011,2.9999999999999997e-05,4
17755,18513,0.00014,-2e-05,0.00014,-0.0010400000000000001,-0.00091,0.00021,-0.00011,2.9999999999999997e-05,4
17756,18514,0.00014,-2e-05,0.00014,-0.0010400000000000001,-0.00091,0.00021,-0.00011,2.9999999999999997e-05,4
17757,18515,0.00014,-2e-05,0.00014,-0.0010400000000000001,-0.00091,0.00021,-0.00011,2.9999999999999997e-05,4
17758,18516,0.00014,-2e-05,0.00014,-0.0010400000000000001,-0.00091,0.00021,-0.00011,2.9999999999999997e-05,4
17759,18517,0.00014,-2e-05,0.00014,-0.0010400000000000001,-0.00091,0.00021,-0.00011,2.9999999999999997e-05,4
17760,18518,-1e-05,-0.0001,7e-05,-0.00023999999999999998,-8e-05,-0.00059,-0.00014,-8e-05,4
17761,18519,-0.00014,8e-05,-0.00022,-5e-05,0.0006,0.00074,5.9999999999999995e-05,-0.0001,4
17762,18520,-0.00014,8e-05,-0.00022,-5e-05,0.0006,0.00074,5.9999999999999995e-05,-0.0001,4
17763,18521,-0.00014,8e-05,-0.00022,-5e-05,0.0006,0.00074,5.9999999999999995e-05,-0.0001,4
17764,18522,-0.00014,8e-05,-0.00022,-5e-05,0.0006,0.00074,5.9999999999999995e-05,-0.0001,4
17765,18523,-0.00014,8e-05,-0.00022,-5e-05,0.0006,0.00074,5.9999999999999995e-05,-0.0001,4
17766,18524,-0.00014,8e-05,-0.00022,-5e-05,0.0006,0.00074,5.9999999999999995e-05,-0.0001,4
17767,18525,-0.00014,8e-05,-0.00022,-5e-05,0.0006,0.00074,5.9999999999999995e-05,-0.0001,4
17768,18526,-0.00014,8e-05,-0.00022,-5e-05,0.0006,0.00074,5.9999999999999995e-05,-0.0001,4
17769,18527,-0.00014,8e-05,-0.00022,-5e-05,0.0006,0.00074,5.9999999999999995e-05,-0.0001,4
17770,18528,-0.00014,8e-05,-0.00022,-5e-05,0.0006,0.00074,5.9999999999999995e-05,-0.0001,4
17771,18529,-0.00014,8e-05,-0.00022,-5e-05,0.0006,0.00074,5.9999999999999995e-05,-0.0001,4
17772,18530,-0.00014,8e-05,-0.00022,-5e-05,0.0006,0.00074,5.9999999999999995e-05,-0.0001,4
17773,18531,-0.00014,8e-05,-0.00022,-5e-05,0.0006,0.00074,5.9999999999999995e-05,-0.0001,4
17774,18532,-0.00014,8e-05,-0.00022,-5e-05,0.0006,0.00074,5.9999999999999995e-05,-0.0001,4
17775,18533,-9e-05,-0.00031,-0.00045999999999999996,-0.00128,-0.00128,-0.00049,-7e-05,-0.00011,4
17776,18534,-2e-05,0.00015,-9e-05,-0.00032,0.0007599999999999999,0.00054,0.00015,5.9999999999999995e-05,4
17777,18535,-2e-05,0.00015,-9e-05,-0.00032,0.0007599999999999999,0.00054,0.00015,5.9999999999999995e-05,4
17778,18536,-2e-05,0.00015,-9e-05,-0.00032,0.0007599999999999999,0.00054,0.00015,5.9999999999999995e-05,4
17779,18538,-2e-05,0.00015,-9e-05,-0.00032,0.0007599999999999999,0.00054,0.00015,5.9999999999999995e-05,4
17780,18540,-2e-05,0.00015,-9e-05,-0.00032,0.0007599999999999999,0.00054,0.00015,5.9999999999999995e-05,4
17781,18541,-2e-05,0.00015,-9e-05,-0.00032,0.0007599999999999999,0.00054,0.00015,5.9999999999999995e-05,4
17782,18542,-2e-05,0.00015,-9e-05,-0.00032,0.0007599999999999999,0.00054,0.00015,5.9999999999999995e-05,4
17783,18543,-2e-05,0.00015,-9e-05,-0.00032,0.0007599999999999999,0.00054,0.00015,5.9999999999999995e-05,4
17784,18544,-2e-05,0.00015,-9e-05,-0.00032,0.0007599999999999999,0.00054,0.00015,5.9999999999999995e-05,4
17785,18545,-2e-05,0.00015,-9e-05,-0.00032,0.0007599999999999999,0.00054,0.00015,5.9999999999999995e-05,4
17786,18546,-2e-05,0.00015,-9e-05,-0.00032,0.0007599999999999999,0.00054,0.00015,5.9999999999999995e-05,4
17787,18547,-2e-05,0.00015,-9e-05,-0.00032,0.0007599999999999999,0.00054,0.00015,5.9999999999999995e-05,4
17788,18548,-2e-05,0.00015,-9e-05,-0.00032,0.0007599999999999999,0.00054,0.00015,5.9999999999999995e-05,4
17789,18549,-2e-05,0.00015,-9e-05,-0.00032,0.0007599999999999999,0.00054,0.00015,5.9999999999999995e-05,4
17790,18550,-2e-05,0.00015,-9e-05,-0.00032,0.0007599999999999999,0.00054,0.00015,5.9999999999999995e-05,4
17791,18551,-2e-05,0.00015,-9e-05,-0.00032,0.0007599999999999999,0.00054,0.00015,5.9999999999999995e-05,4
17792,18552,-2e-05,0.00015,-9e-05,-0.00032,0.0007599999999999999,0.00054,0.00015,5.9999999999999995e-05,4
17793,18553,-2e-05,0.00015,-9e-05,-0.00032,0.0007599999999999999,0.00054,0.00015,5.9999999999999995e-05,4
17794,18554,-2e-05,0.00015,-9e-05,-0.00032,0.0007599999999999999,0.00054,0.00015,5.9999999999999995e-05,4
17795,18555,-2e-05,0.00015,-9e-05,-0.00032,0.0007599999999999999,0.00054,0.00015,5.9999999999999995e-05,4
17796,18556,0.00023999999999999998,0.00056,0.0011300000000000001,0.00117,0.00045999999999999996,0.00123,0.00037999999999999997,0.00022,4
17797,18557,-0.0001,-0.0005200000000000001,-0.0011300000000000001,-0.00062,-0.00074,-0.0001,-8e-05,-5.9999999999999995e-05,4
17798,18558,-0.0001,-0.0005200000000000001,-0.0011300000000000001,-0.00062,-0.00074,-0.0001,-8e-05,-5.9999999999999995e-05,4
17799,18559,-0.0001,-0.0005200000000000001,-0.0011300000000000001,-0.00062,-0.00074,-0.0001,-8e-05,-5.9999999999999995e-05,4
17800,18560,-0.0001,-0.0005200000000000001,-0.0011300000000000001,-0.00062,-0.00074,-0.0001,-8e-05,-5.9999999999999995e-05,4
17801,18561,-0.0001,-0.0005200000000000001,-0.0011300000000000001,-0.00062,-0.00074,-0.0001,-8e-05,-5.9999999999999995e-05,4
17802,18562,-0.0001,-0.0005200000000000001,-0.0011300000000000001,-0.00062,-0.00074,-0.0001,-8e-05,-5.9999999999999995e-05,4
17803,18563,-0.0001,-0.0005200000000000001,-0.0011300000000000001,-0.00062,-0.00074,-0.0001,-8e-05,-5.9999999999999995e-05,4
17804,18564,-0.0001,-0.0005200000000000001,-0.0011300000000000001,-0.00062,-0.00074,-0.0001,-8e-05,-5.9999999999999995e-05,4
17805,18565,-0.0001,-0.0005200000000000001,-0.0011300000000000001,-0.00062,-0.00074,-0.0001,-8e-05,-5.9999999999999995e-05,4
17806,18566,-0.0001,-0.0005200000000000001,-0.0011300000000000001,-0.00062,-0.00074,-0.0001,-8e-05,-5.9999999999999995e-05,4
17807,18567,-0.0001,-0.0005200000000000001,-0.0011300000000000001,-0.00062,-0.00074,-0.0001,-8e-05,-5.9999999999999995e-05,4
17808,18568,-0.0001,-0.0005200000000000001,-0.0011300000000000001,-0.00062,-0.00074,-0.0001,-8e-05,-5.9999999999999995e-05,4
17809,18569,-0.0001,-0.0005200000000000001,-0.0011300000000000001,-0.00062,-0.00074,-0.0001,-8e-05,-5.9999999999999995e-05,4
17810,18570,-0.0001,-0.0005200000000000001,-0.0011300000000000001,-0.00062,-0.00074,-0.0001,-8e-05,-5.9999999999999995e-05,4
17811,18571,-0.0001,-0.0005200000000000001,-0.0011300000000000001,-0.00062,-0.00074,-0.0001,-8e-05,-5.9999999999999995e-05,4
17812,18572,-0.0001,-0.0005200000000000001,-0.0011300000000000001,-0.00062,-0.00074,-0.0001,-8e-05,-5.9999999999999995e-05,4
17813,18573,-0.0001,-0.0005200000000000001,-0.0011300000000000001,-0.00062,-0.00074,-0.0001,-8e-05,-5.9999999999999995e-05,4
17814,18574,-0.0001,-0.0005200000000000001,-0.0011300000000000001,-0.00062,-0.00074,-0.0001,-8e-05,-5.9999999999999995e-05,4
17815,18575,-0.0001,-0.0005200000000000001,-0.0011300000000000001,-0.00062,-0.00074,-0.0001,-8e-05,-5.9999999999999995e-05,4
17816,18576,-0.0001,-0.0005200000000000001,-0.0011300000000000001,-0.00062,-0.00074,-0.0001,-8e-05,-5.9999999999999995e-05,4
17817,18577,-0.0001,-0.0005200000000000001,-0.0011300000000000001,-0.00062,-0.00074,-0.0001,-8e-05,-5.9999999999999995e-05,4
17818,18578,-0.0001,-0.0005200000000000001,-0.0011300000000000001,-0.00062,-0.00074,-0.0001,-8e-05,-5.9999999999999995e-05,4
17819,18579,7e-05,0.00015,0.0004,0.0004,9e-05,0.00067,-0.0001,1e-05,4
17820,18580,1e-05,-4e-05,0.00037999999999999997,0.00064,-0.00036,0.00025,0.0,1e-05,4
17821,18581,1e-05,-4e-05,0.00037999999999999997,0.00064,-0.00036,0.00025,0.0,1e-05,4
17822,18582,1e-05,-4e-05,0.00037999999999999997,0.00064,-0.00036,0.00025,0.0,1e-05,4
17823,18583,1e-05,-4e-05,0.00037999999999999997,0.00064,-0.00036,0.00025,0.0,1e-05,4
17824,18584,1e-05,-4e-05,0.00037999999999999997,0.00064,-0.00036,0.00025,0.0,1e-05,4
17825,18585,1e-05,-4e-05,0.00037999999999999997,0.00064,-0.00036,0.00025,0.0,1e-05,4
17826,18586,1e-05,-4e-05,0.00037999999999999997,0.00064,-0.00036,0.00025,0.0,1e-05,4
17827,18588,1e-05,-4e-05,0.00037999999999999997,0.00064,-0.00036,0.00025,0.0,1e-05,4
17828,18589,1e-05,-4e-05,0.00037999999999999997,0.00064,-0.00036,0.00025,0.0,1e-05,4
17829,18590,1e-05,-4e-05,0.00037999999999999997,0.00064,-0.00036,0.00025,0.0,1e-05,4
17830,18591,1e-05,-4e-05,0.00037999999999999997,0.00064,-0.00036,0.00025,0.0,1e-05,4
17831,18592,1e-05,-4e-05,0.00037999999999999997,0.00064,-0.00036,0.00025,0.0,1e-05,4
17832,18593,1e-05,-4e-05,0.00037999999999999997,0.00064,-0.00036,0.00025,0.0,1e-05,4
17833,18594,-9e-05,9e-05,0.0001,0.0009400000000000001,0.00025,-0.0007099999999999999,0.00028,2.9999999999999997e-05,4
17834,18595,-9e-05,9e-05,0.0001,0.0009400000000000001,0.00025,-0.0007099999999999999,0.00028,2.9999999999999997e-05,4
17835,18596,-9e-05,9e-05,0.0001,0.0009400000000000001,0.00025,-0.0007099999999999999,0.00028,2.9999999999999997e-05,4
17836,18597,-9e-05,9e-05,0.0001,0.0009400000000000001,0.00025,-0.0007099999999999999,0.00028,2.9999999999999997e-05,4
17837,18598,-9e-05,9e-05,0.0001,0.0009400000000000001,0.00025,-0.0007099999999999999,0.00028,2.9999999999999997e-05,4
17838,18599,-9e-05,9e-05,0.0001,0.0009400000000000001,0.00025,-0.0007099999999999999,0.00028,2.9999999999999997e-05,4
17839,18600,-9e-05,9e-05,0.0001,0.0009400000000000001,0.00025,-0.0007099999999999999,0.00028,2.9999999999999997e-05,4
17840,18601,-9e-05,9e-05,0.0001,0.0009400000000000001,0.00025,-0.0007099999999999999,0.00028,2.9999999999999997e-05,4
17841,18602,-9e-05,9e-05,0.0001,0.0009400000000000001,0.00025,-0.0007099999999999999,0.00028,2.9999999999999997e-05,4
17842,18603,-9e-05,9e-05,0.0001,0.0009400000000000001,0.00025,-0.0007099999999999999,0.00028,2.9999999999999997e-05,4
17843,18604,-9e-05,9e-05,0.0001,0.0009400000000000001,0.00025,-0.0007099999999999999,0.00028,2.9999999999999997e-05,4
17844,18605,-9e-05,9e-05,0.0001,0.0009400000000000001,0.00025,-0.0007099999999999999,0.00028,2.9999999999999997e-05,4
17845,18606,-9e-05,9e-05,0.0001,0.0009400000000000001,0.00025,-0.0007099999999999999,0.00028,2.9999999999999997e-05,4
17846,18607,-9e-05,9e-05,0.0001,0.0009400000000000001,0.00025,-0.0007099999999999999,0.00028,2.9999999999999997e-05,4
17847,18608,-9e-05,9e-05,0.0001,0.0009400000000000001,0.00025,-0.0007099999999999999,0.00028,2.9999999999999997e-05,4
17848,18609,-9e-05,9e-05,0.0001,0.0009400000000000001,0.00025,-0.0007099999999999999,0.00028,2.9999999999999997e-05,4
17849,18610,-9e-05,9e-05,0.0001,0.0009400000000000001,0.00025,-0.0007099999999999999,0.00028,2.9999999999999997e-05,4
17850,18611,-9e-05,9e-05,0.0001,0.0009400000000000001,0.00025,-0.0007099999999999999,0.00028,2.9999999999999997e-05,4
17851,18612,-9e-05,9e-05,0.0001,0.0009400000000000001,0.00025,-0.0007099999999999999,0.00028,2.9999999999999997e-05,4
17852,18613,-9e-05,9e-05,0.0001,0.0009400000000000001,0.00025,-0.0007099999999999999,0.00028,2.9999999999999997e-05,4
17853,18614,-9e-05,9e-05,0.0001,0.0009400000000000001,0.00025,-0.0007099999999999999,0.00028,2.9999999999999997e-05,4
17854,18615,-9e-05,9e-05,0.0001,0.0009400000000000001,0.00025,-0.0007099999999999999,0.00028,2.9999999999999997e-05,4
17855,18616,-5e-05,1e-05,0.00027,-0.00063,-0.00064,-0.0006900000000000001,-0.00023999999999999998,-0.00011,4
17856,18617,0.00025,0.00045,0.00079,0.00091,0.00067,0.00063,0.00029,0.00022,4
17857,18618,0.00025,0.00045,0.00079,0.00091,0.00067,0.00063,0.00029,0.00022,4
17858,18619,0.00025,0.00045,0.00079,0.00091,0.00067,0.00063,0.00029,0.00022,4
17859,18620,0.00025,0.00045,0.00079,0.00091,0.00067,0.00063,0.00029,0.00022,4
17860,18621,0.00025,0.00045,0.00079,0.00091,0.00067,0.00063,0.00029,0.00022,4
17861,18622,0.00025,0.00045,0.00079,0.00091,0.00067,0.00063,0.00029,0.00022,4
17862,18623,0.00025,0.00045,0.00079,0.00091,0.00067,0.00063,0.00029,0.00022,4
17863,18624,0.00025,0.00045,0.00079,0.00091,0.00067,0.00063,0.00029,0.00022,4
17864,18625,0.00025,0.00045,0.00079,0.00091,0.00067,0.00063,0.00029,0.00022,4
17865,18626,0.00025,0.00045,0.00079,0.00091,0.00067,0.00063,0.00029,0.00022,4
17866,18627,0.00025,0.00045,0.00079,0.00091,0.00067,0.00063,0.00029,0.00022,4
17867,18628,0.00025,0.00045,0.00079,0.00091,0.00067,0.00063,0.00029,0.00022,4
17868,18629,0.00025,0.00045,0.00079,0.00091,0.00067,0.00063,0.00029,0.00022,4
17869,18630,0.00025,0.00045,0.00079,0.00091,0.00067,0.00063,0.00029,0.00022,4
17870,18631,0.00025,0.00045,0.00079,0.00091,0.00067,0.00063,0.00029,0.00022,4
17871,18632,0.00025,0.00045,0.00079,0.00091,0.00067,0.00063,0.00029,0.00022,4
17872,18633,0.00025,0.00045,0.00079,0.00091,0.00067,0.00063,0.00029,0.00022,4
17873,18634,0.00025,0.00045,0.00079,0.00091,0.00067,0.00063,0.00029,0.00022,4
17874,18635,0.00025,0.00045,0.00079,0.00091,0.00067,0.00063,0.00029,0.00022,4
17875,18636,0.00025,0.00045,0.00079,0.00091,0.00067,0.00063,0.00029,0.00022,4
17876,18638,0.00025,0.00045,0.00079,0.00091,0.00067,0.00063,0.00029,0.00022,4
17877,18639,-5.9999999999999995e-05,-0.00016,-0.00022999999999999998,0.00031,-0.00045999999999999996,-0.00029,-4e-05,-2e-05,4
17878,18640,-1e-05,-5.9999999999999995e-05,2e-05,-5e-05,-0.00128,-0.0007599999999999999,-0.00025,-8e-05,4
17879,18641,-1e-05,-5.9999999999999995e-05,2e-05,-5e-05,-0.00128,-0.0007599999999999999,-0.00025,-8e-05,4
17880,18642,-1e-05,-5.9999999999999995e-05,2e-05,-5e-05,-0.00128,-0.0007599999999999999,-0.00025,-8e-05,4
17881,18643,-1e-05,-5.9999999999999995e-05,2e-05,-5e-05,-0.00128,-0.0007599999999999999,-0.00025,-8e-05,4
17882,18644,-1e-05,-5.9999999999999995e-05,2e-05,-5e-05,-0.00128,-0.0007599999999999999,-0.00025,-8e-05,4
17883,18645,-1e-05,-5.9999999999999995e-05,2e-05,-5e-05,-0.00128,-0.0007599999999999999,-0.00025,-8e-05,4
17884,18646,-1e-05,-5.9999999999999995e-05,2e-05,-5e-05,-0.00128,-0.0007599999999999999,-0.00025,-8e-05,4
17885,18647,-1e-05,-5.9999999999999995e-05,2e-05,-5e-05,-0.00128,-0.0007599999999999999,-0.00025,-8e-05,4
17886,18648,-1e-05,-5.9999999999999995e-05,2e-05,-5e-05,-0.00128,-0.0007599999999999999,-0.00025,-8e-05,4
17887,18649,-1e-05,-5.9999999999999995e-05,2e-05,-5e-05,-0.00128,-0.0007599999999999999,-0.00025,-8e-05,4
17888,18650,-1e-05,-5.9999999999999995e-05,2e-05,-5e-05,-0.00128,-0.0007599999999999999,-0.00025,-8e-05,4
17889,18651,-1e-05,-5.9999999999999995e-05,2e-05,-5e-05,-0.00128,-0.0007599999999999999,-0.00025,-8e-05,4
17890,18652,-0.00011999999999999999,-5.9999999999999995e-05,-0.00028,-0.00029,-0.0008,-0.00033,-0.0003,-0.00016999999999999999,4
17891,18653,0.00026000000000000003,0.00026000000000000003,0.0008699999999999999,0.0009699999999999999,0.00042,0.00026000000000000003,0.00031,0.0002,4
17892,18654,0.00026000000000000003,0.00026000000000000003,0.0008699999999999999,0.0009699999999999999,0.00042,0.00026000000000000003,0.00031,0.0002,4
17893,18655,0.00026000000000000003,0.00026000000000000003,0.0008699999999999999,0.0009699999999999999,0.00042,0.00026000000000000003,0.00031,0.0002,4
17894,18656,0.00026000000000000003,0.00026000000000000003,0.0008699999999999999,0.0009699999999999999,0.00042,0.00026000000000000003,0.00031,0.0002,4
17895,18657,0.00026000000000000003,0.00026000000000000003,0.0008699999999999999,0.0009699999999999999,0.00042,0.00026000000000000003,0.00031,0.0002,4
17896,18658,0.00026000000000000003,0.00026000000000000003,0.0008699999999999999,0.0009699999999999999,0.00042,0.00026000000000000003,0.00031,0.0002,4
17897,18659,0.00026000000000000003,0.00026000000000000003,0.0008699999999999999,0.0009699999999999999,0.00042,0.00026000000000000003,0.00031,0.0002,4
17898,18660,0.00026000000000000003,0.00026000000000000003,0.0008699999999999999,0.0009699999999999999,0.00042,0.00026000000000000003,0.00031,0.0002,4
17899,18661,-0.00015,-0.00021,-0.0004,-0.00057,-5e-05,0.00018999999999999998,-0.00037,-0.00022,4
17900,18662,-0.00015,-0.00021,-0.0004,-0.00057,-5e-05,0.00018999999999999998,-0.00037,-0.00022,4
17901,18663,-0.00015,-0.00021,-0.0004,-0.00057,-5e-05,0.00018999999999999998,-0.00037,-0.00022,4
17902,18664,-0.00015,-0.00021,-0.0004,-0.00057,-5e-05,0.00018999999999999998,-0.00037,-0.00022,4
17903,18665,-0.00015,-0.00021,-0.0004,-0.00057,-5e-05,0.00018999999999999998,-0.00037,-0.00022,4
17904,18666,-0.00015,-0.00021,-0.0004,-0.00057,-5e-05,0.00018999999999999998,-0.00037,-0.00022,4
17905,18667,-0.00015,-0.00021,-0.0004,-0.00057,-5e-05,0.00018999999999999998,-0.00037,-0.00022,4
17906,18668,-0.00015,-0.00021,-0.0004,-0.00057,-5e-05,0.00018999999999999998,-0.00037,-0.00022,4
17907,18669,-0.00015,-0.00021,-0.0004,-0.00057,-5e-05,0.00018999999999999998,-0.00037,-0.00022,4
17908,18670,-0.00015,-0.00021,-0.0004,-0.00057,-5e-05,0.00018999999999999998,-0.00037,-0.00022,4
17909,18671,-0.00015,-0.00021,-0.0004,-0.00057,-5e-05,0.00018999999999999998,-0.00037,-0.00022,4
17910,18672,-0.00015,-0.00021,-0.0004,-0.00057,-5e-05,0.00018999999999999998,-0.00037,-0.00022,4
17911,18673,-0.00015,-0.00021,-0.0004,-0.00057,-5e-05,0.00018999999999999998,-0.00037,-0.00022,4
17912,18674,-0.00015,-0.00021,-0.0004,-0.00057,-5e-05,0.00018999999999999998,-0.00037,-0.00022,4
17913,18675,-0.00015,-0.00021,-0.0004,-0.00057,-5e-05,0.00018999999999999998,-0.00037,-0.00022,4
17914,18676,-0.00028,-0.00037999999999999997,-0.0009,-0.00078,-0.00045,-0.0005099999999999999,-0.00044,-0.00029,4
17915,18678,-0.00028,-0.00037999999999999997,-0.0009,-0.00078,-0.00045,-0.0005099999999999999,-0.00044,-0.00029,4
17916,18679,-0.00028,-0.00037999999999999997,-0.0009,-0.00078,-0.00045,-0.0005099999999999999,-0.00044,-0.00029,4
17917,18680,-0.00028,-0.00037999999999999997,-0.0009,-0.00078,-0.00045,-0.0005099999999999999,-0.00044,-0.00029,4
17918,18681,-0.00028,-0.00037999999999999997,-0.0009,-0.00078,-0.00045,-0.0005099999999999999,-0.00044,-0.00029,4
17919,18682,-0.00028,-0.00037999999999999997,-0.0009,-0.00078,-0.00045,-0.0005099999999999999,-0.00044,-0.00029,4
17920,18683,-0.00028,-0.00037999999999999997,-0.0009,-0.00078,-0.00045,-0.0005099999999999999,-0.00044,-0.00029,4
17921,18684,-0.00028,-0.00037999999999999997,-0.0009,-0.00078,-0.00045,-0.0005099999999999999,-0.00044,-0.00029,4
17922,18685,-0.00028,-0.00037999999999999997,-0.0009,-0.00078,-0.00045,-0.0005099999999999999,-0.00044,-0.00029,4
17923,18686,-0.00028,-0.00037999999999999997,-0.0009,-0.00078,-0.00045,-0.0005099999999999999,-0.00044,-0.00029,4
17924,18688,-0.00028,-0.00037999999999999997,-0.0009,-0.00078,-0.00045,-0.0005099999999999999,-0.00044,-0.00029,4
17925,18689,-0.00028,-0.00037999999999999997,-0.0009,-0.00078,-0.00045,-0.0005099999999999999,-0.00044,-0.00029,4
17926,18690,-0.00028,-0.00037999999999999997,-0.0009,-0.00078,-0.00045,-0.0005099999999999999,-0.00044,-0.00029,4
17927,18691,-0.00028,-0.00037999999999999997,-0.0009,-0.00078,-0.00045,-0.0005099999999999999,-0.00044,-0.00029,4
17928,18692,-0.00028,-0.00037999999999999997,-0.0009,-0.00078,-0.00045,-0.0005099999999999999,-0.00044,-0.00029,4
17929,18693,-0.00028,-0.00037999999999999997,-0.0009,-0.00078,-0.00045,-0.0005099999999999999,-0.00044,-0.00029,4
17930,18694,-0.00028,-0.00037999999999999997,-0.0009,-0.00078,-0.00045,-0.0005099999999999999,-0.00044,-0.00029,4
17931,18695,-0.00028,-0.00037999999999999997,-0.0009,-0.00078,-0.00045,-0.0005099999999999999,-0.00044,-0.00029,4
17932,18696,-0.00028,-0.00037999999999999997,-0.0009,-0.00078,-0.00045,-0.0005099999999999999,-0.00044,-0.00029,4
17933,18697,-0.00028,-0.00037999999999999997,-0.0009,-0.00078,-0.00045,-0.0005099999999999999,-0.00044,-0.00029,4
17934,18698,-0.00028,-0.00037999999999999997,-0.0009,-0.00078,-0.00045,-0.0005099999999999999,-0.00044,-0.00029,4
17935,18699,0.00013000000000000002,0.00013000000000000002,0.00029,-0.00021,0.00013000000000000002,0.0008300000000000001,0.00032,0.00015,4
17936,18700,-0.00016,0.0,0.00031,0.00045999999999999996,0.00013000000000000002,0.00042,-0.00025,-0.00018999999999999998,4
17937,18701,-0.00016,0.0,0.00031,0.00045999999999999996,0.00013000000000000002,0.00042,-0.00025,-0.00018999999999999998,4
17938,18702,-0.00016,0.0,0.00031,0.00045999999999999996,0.00013000000000000002,0.00042,-0.00025,-0.00018999999999999998,4
17939,18703,-0.00016,0.0,0.00031,0.00045999999999999996,0.00013000000000000002,0.00042,-0.00025,-0.00018999999999999998,4
17940,18704,-0.00016,0.0,0.00031,0.00045999999999999996,0.00013000000000000002,0.00042,-0.00025,-0.00018999999999999998,4
17941,18705,-0.00016,0.0,0.00031,0.00045999999999999996,0.00013000000000000002,0.00042,-0.00025,-0.00018999999999999998,4
17942,18706,-0.00016,0.0,0.00031,0.00045999999999999996,0.00013000000000000002,0.00042,-0.00025,-0.00018999999999999998,4
17943,18707,-0.00016,0.0,0.00031,0.00045999999999999996,0.00013000000000000002,0.00042,-0.00025,-0.00018999999999999998,4
17944,18708,-0.00016,0.0,0.00031,0.00045999999999999996,0.00013000000000000002,0.00042,-0.00025,-0.00018999999999999998,4
17945,18709,-0.00016,0.0,0.00031,0.00045999999999999996,0.00013000000000000002,0.00042,-0.00025,-0.00018999999999999998,4
17946,18710,-0.00016,0.0,0.00031,0.00045999999999999996,0.00013000000000000002,0.00042,-0.00025,-0.00018999999999999998,4
17947,18711,-0.00016,0.0,0.00031,0.00045999999999999996,0.00013000000000000002,0.00042,-0.00025,-0.00018999999999999998,4
17948,18712,-0.00011,-0.00011,-0.00044,2e-05,0.00059,0.00029,8e-05,1e-05,4
17949,18713,-0.00011,-0.00011,-0.00044,2e-05,0.00059,0.00029,8e-05,1e-05,4
17950,18714,-0.00011,-0.00011,-0.00044,2e-05,0.00059,0.00029,8e-05,1e-05,4
17951,18715,-0.00011,-0.00011,-0.00044,2e-05,0.00059,0.00029,8e-05,1e-05,4
17952,18716,-0.00011,-0.00011,-0.00044,2e-05,0.00059,0.00029,8e-05,1e-05,4
17953,18717,-0.00011,-0.00011,-0.00044,2e-05,0.00059,0.00029,8e-05,1e-05,4
17954,18718,-0.00011,-0.00011,-0.00044,2e-05,0.00059,0.00029,8e-05,1e-05,4
17955,18719,-0.00011,-0.00011,-0.00044,2e-05,0.00059,0.00029,8e-05,1e-05,4
17956,18720,-0.00011,-0.00011,-0.00044,2e-05,0.00059,0.00029,8e-05,1e-05,4
17957,18721,0.0001,0.00018,0.00063,0.0006799999999999999,0.00029,0.0006799999999999999,0.00011,2.9999999999999997e-05,4
17958,18722,0.0001,0.00018,0.00063,0.0006799999999999999,0.00029,0.0006799999999999999,0.00011,2.9999999999999997e-05,4
17959,18723,0.0001,0.00018,0.00063,0.0006799999999999999,0.00029,0.0006799999999999999,0.00011,2.9999999999999997e-05,4
17960,18724,0.0001,0.00018,0.00063,0.0006799999999999999,0.00029,0.0006799999999999999,0.00011,2.9999999999999997e-05,4
17961,18725,0.0001,0.00018,0.00063,0.0006799999999999999,0.00029,0.0006799999999999999,0.00011,2.9999999999999997e-05,4
17962,18726,0.0001,0.00018,0.00063,0.0006799999999999999,0.00029,0.0006799999999999999,0.00011,2.9999999999999997e-05,4
17963,18727,0.0001,0.00018,0.00063,0.0006799999999999999,0.00029,0.0006799999999999999,0.00011,2.9999999999999997e-05,4
17964,18728,0.0001,0.00018,0.00063,0.0006799999999999999,0.00029,0.0006799999999999999,0.00011,2.9999999999999997e-05,4
17965,18729,0.0001,0.00018,0.00063,0.0006799999999999999,0.00029,0.0006799999999999999,0.00011,2.9999999999999997e-05,4
17966,18730,0.0001,0.00018,0.00063,0.0006799999999999999,0.00029,0.0006799999999999999,0.00011,2.9999999999999997e-05,4
17967,18731,0.0001,0.00018,0.00063,0.0006799999999999999,0.00029,0.0006799999999999999,0.00011,2.9999999999999997e-05,4
17968,18732,0.0001,0.00018,0.00063,0.0006799999999999999,0.00029,0.0006799999999999999,0.00011,2.9999999999999997e-05,4
17969,18733,0.0001,0.00018,0.00063,0.0006799999999999999,0.00029,0.0006799999999999999,0.00011,2.9999999999999997e-05,4
17970,18734,0.0001,0.00018,0.00063,0.0006799999999999999,0.00029,0.0006799999999999999,0.00011,2.9999999999999997e-05,4
17971,18735,0.00011,9e-05,4e-05,-0.001,-0.0006900000000000001,-2.9999999999999997e-05,0.00015,0.00013000000000000002,4
17972,18736,-5e-05,-0.00016999999999999999,-0.00028,-0.00045999999999999996,0.00018999999999999998,0.00032,4e-05,0.0,4
17973,18738,-1e-05,7e-05,0.00014,-0.00014,-0.00018999999999999998,-5.9999999999999995e-05,2e-05,4e-05,4
17974,18739,-1e-05,7e-05,0.00014,-0.00014,-0.00018999999999999998,-5.9999999999999995e-05,2e-05,4e-05,4
17975,18740,-1e-05,7e-05,0.00014,-0.00014,-0.00018999999999999998,-5.9999999999999995e-05,2e-05,4e-05,4
17976,18741,-1e-05,7e-05,0.00014,-0.00014,-0.00018999999999999998,-5.9999999999999995e-05,2e-05,4e-05,4
17977,18742,-1e-05,7e-05,0.00014,-0.00014,-0.00018999999999999998,-5.9999999999999995e-05,2e-05,4e-05,4
17978,18743,-1e-05,7e-05,0.00014,-0.00014,-0.00018999999999999998,-5.9999999999999995e-05,2e-05,4e-05,4
17979,18744,-1e-05,7e-05,0.00014,-0.00014,-0.00018999999999999998,-5.9999999999999995e-05,2e-05,4e-05,4
17980,18745,-1e-05,7e-05,0.00014,-0.00014,-0.00018999999999999998,-5.9999999999999995e-05,2e-05,4e-05,4
17981,18746,-1e-05,7e-05,0.00014,-0.00014,-0.00018999999999999998,-5.9999999999999995e-05,2e-05,4e-05,4
17982,18747,-1e-05,7e-05,0.00014,-0.00014,-0.00018999999999999998,-5.9999999999999995e-05,2e-05,4e-05,4
17983,18748,-1e-05,7e-05,0.00014,-0.00014,-0.00018999999999999998,-5.9999999999999995e-05,2e-05,4e-05,4
17984,18749,-1e-05,7e-05,0.00014,-0.00014,-0.00018999999999999998,-5.9999999999999995e-05,2e-05,4e-05,4
17985,18750,-1e-05,7e-05,0.00014,-0.00014,-0.00018999999999999998,-5.9999999999999995e-05,2e-05,4e-05,4
17986,18751,-1e-05,7e-05,0.00014,-0.00014,-0.00018999999999999998,-5.9999999999999995e-05,2e-05,4e-05,4
17987,18752,-1e-05,7e-05,0.00014,-0.00014,-0.00018999999999999998,-5.9999999999999995e-05,2e-05,4e-05,4
17988,18753,-1e-05,7e-05,0.00014,-0.00014,-0.00018999999999999998,-5.9999999999999995e-05,2e-05,4e-05,4
17989,18754,-1e-05,7e-05,0.00014,-0.00014,-0.00018999999999999998,-5.9999999999999995e-05,2e-05,4e-05,4
17990,18755,-1e-05,7e-05,0.00014,-0.00014,-0.00018999999999999998,-5.9999999999999995e-05,2e-05,4e-05,4
17991,18756,-1e-05,7e-05,0.00014,-0.00014,-0.00018999999999999998,-5.9999999999999995e-05,2e-05,4e-05,4
17992,18757,-1e-05,7e-05,0.00014,-0.00014,-0.00018999999999999998,-5.9999999999999995e-05,2e-05,4e-05,4
17993,18758,-1e-05,7e-05,0.00014,-0.00014,-0.00018999999999999998,-5.9999999999999995e-05,2e-05,4e-05,4
17994,18759,4e-05,-0.0001,-0.00016999999999999999,-0.00023999999999999998,-0.00114,-0.00032,0.00011,7e-05,4
17995,18760,0.0,0.00016999999999999999,0.00066,0.00061,0.00042,0.00106,7e-05,-1e-05,4
17996,18761,7e-05,-9e-05,-0.00022999999999999998,-0.00039,-0.00016999999999999999,-0.00033999999999999997,-1e-05,4e-05,4
17997,18762,7e-05,-9e-05,-0.00022999999999999998,-0.00039,-0.00016999999999999999,-0.00033999999999999997,-1e-05,4e-05,4
17998,18763,7e-05,-9e-05,-0.00022999999999999998,-0.00039,-0.00016999999999999999,-0.00033999999999999997,-1e-05,4e-05,4
17999,18764,7e-05,-9e-05,-0.00022999999999999998,-0.00039,-0.00016999999999999999,-0.00033999999999999997,-1e-05,4e-05,4
18000,18765,7e-05,-9e-05,-0.00022999999999999998,-0.00039,-0.00016999999999999999,-0.00033999999999999997,-1e-05,4e-05,4
18001,18766,7e-05,-9e-05,-0.00022999999999999998,-0.00039,-0.00016999999999999999,-0.00033999999999999997,-1e-05,4e-05,4
18002,18767,7e-05,-9e-05,-0.00022999999999999998,-0.00039,-0.00016999999999999999,-0.00033999999999999997,-1e-05,4e-05,4
18003,18768,7e-05,-9e-05,-0.00022999999999999998,-0.00039,-0.00016999999999999999,-0.00033999999999999997,-1e-05,4e-05,4
18004,18769,7e-05,-9e-05,-0.00022999999999999998,-0.00039,-0.00016999999999999999,-0.00033999999999999997,-1e-05,4e-05,4
18005,18770,7e-05,-9e-05,-0.00022999999999999998,-0.00039,-0.00016999999999999999,-0.00033999999999999997,-1e-05,4e-05,4
18006,18771,7e-05,-9e-05,-0.00022999999999999998,-0.00039,-0.00016999999999999999,-0.00033999999999999997,-1e-05,4e-05,4
18007,18772,0.0001,-0.0001,-2e-05,-1e-05,-0.00059,-0.00033999999999999997,0.00011,1e-05,4
18008,18773,-0.00011999999999999999,-0.00013000000000000002,-0.00044,-0.00062,0.00025,0.0005200000000000001,-5.9999999999999995e-05,-5e-05,4
18009,18774,-0.00011999999999999999,-0.00013000000000000002,-0.00044,-0.00062,0.00025,0.0005200000000000001,-5.9999999999999995e-05,-5e-05,4
18010,18775,-0.00011999999999999999,-0.00013000000000000002,-0.00044,-0.00062,0.00025,0.0005200000000000001,-5.9999999999999995e-05,-5e-05,4
18011,18776,-0.00011999999999999999,-0.00013000000000000002,-0.00044,-0.00062,0.00025,0.0005200000000000001,-5.9999999999999995e-05,-5e-05,4
18012,18777,-0.00011999999999999999,-0.00013000000000000002,-0.00044,-0.00062,0.00025,0.0005200000000000001,-5.9999999999999995e-05,-5e-05,4
18013,18778,-0.00011999999999999999,-0.00013000000000000002,-0.00044,-0.00062,0.00025,0.0005200000000000001,-5.9999999999999995e-05,-5e-05,4
18014,18779,-0.00011999999999999999,-0.00013000000000000002,-0.00044,-0.00062,0.00025,0.0005200000000000001,-5.9999999999999995e-05,-5e-05,4
18015,18780,-0.00011999999999999999,-0.00013000000000000002,-0.00044,-0.00062,0.00025,0.0005200000000000001,-5.9999999999999995e-05,-5e-05,4
18016,18781,0.00018,0.00014,8e-05,-0.00065,-0.00013000000000000002,-4e-05,0.00035,0.0002,4
18017,18782,0.00018,0.00014,8e-05,-0.00065,-0.00013000000000000002,-4e-05,0.00035,0.0002,4
18018,18783,0.00018,0.00014,8e-05,-0.00065,-0.00013000000000000002,-4e-05,0.00035,0.0002,4
18019,18784,0.00018,0.00014,8e-05,-0.00065,-0.00013000000000000002,-4e-05,0.00035,0.0002,4
18020,18785,0.00018,0.00014,8e-05,-0.00065,-0.00013000000000000002,-4e-05,0.00035,0.0002,4
18021,18786,0.00018,0.00014,8e-05,-0.00065,-0.00013000000000000002,-4e-05,0.00035,0.0002,4
18022,18788,0.00018,0.00014,8e-05,-0.00065,-0.00013000000000000002,-4e-05,0.00035,0.0002,4
18023,18789,0.00018,0.00014,8e-05,-0.00065,-0.00013000000000000002,-4e-05,0.00035,0.0002,4
18024,18790,0.00018,0.00014,8e-05,-0.00065,-0.00013000000000000002,-4e-05,0.00035,0.0002,4
18025,18791,0.00018,0.00014,8e-05,-0.00065,-0.00013000000000000002,-4e-05,0.00035,0.0002,4
18026,18792,0.00018,0.00014,8e-05,-0.00065,-0.00013000000000000002,-4e-05,0.00035,0.0002,4
18027,18793,0.00018,0.00014,8e-05,-0.00065,-0.00013000000000000002,-4e-05,0.00035,0.0002,4
18028,18794,0.00018,0.00014,8e-05,-0.00065,-0.00013000000000000002,-4e-05,0.00035,0.0002,4
18029,18795,0.00018,0.00014,8e-05,-0.00065,-0.00013000000000000002,-4e-05,0.00035,0.0002,4
18030,18796,-2.9999999999999997e-05,-0.00015,-0.00029,-0.0008300000000000001,-0.00047000000000000004,-0.00011,-0.00011,-7e-05,4
18031,18797,-2.9999999999999997e-05,-0.00015,-0.00029,-0.0008300000000000001,-0.00047000000000000004,-0.00011,-0.00011,-7e-05,4
18032,18798,-2.9999999999999997e-05,-0.00015,-0.00029,-0.0008300000000000001,-0.00047000000000000004,-0.00011,-0.00011,-7e-05,4
18033,18799,-2.9999999999999997e-05,-0.00015,-0.00029,-0.0008300000000000001,-0.00047000000000000004,-0.00011,-0.00011,-7e-05,4
18034,18800,-2.9999999999999997e-05,-0.00015,-0.00029,-0.0008300000000000001,-0.00047000000000000004,-0.00011,-0.00011,-7e-05,4
18035,18801,-2.9999999999999997e-05,-0.00015,-0.00029,-0.0008300000000000001,-0.00047000000000000004,-0.00011,-0.00011,-7e-05,4
18036,18802,-2.9999999999999997e-05,-0.00015,-0.00029,-0.0008300000000000001,-0.00047000000000000004,-0.00011,-0.00011,-7e-05,4
18037,18803,-2.9999999999999997e-05,-0.00015,-0.00029,-0.0008300000000000001,-0.00047000000000000004,-0.00011,-0.00011,-7e-05,4
18038,18804,-2.9999999999999997e-05,-0.00015,-0.00029,-0.0008300000000000001,-0.00047000000000000004,-0.00011,-0.00011,-7e-05,4
18039,18805,-2.9999999999999997e-05,-0.00015,-0.00029,-0.0008300000000000001,-0.00047000000000000004,-0.00011,-0.00011,-7e-05,4
18040,18806,-2.9999999999999997e-05,-0.00015,-0.00029,-0.0008300000000000001,-0.00047000000000000004,-0.00011,-0.00011,-7e-05,4
18041,18807,-2.9999999999999997e-05,-0.00015,-0.00029,-0.0008300000000000001,-0.00047000000000000004,-0.00011,-0.00011,-7e-05,4
18042,18808,-2.9999999999999997e-05,-0.00015,-0.00029,-0.0008300000000000001,-0.00047000000000000004,-0.00011,-0.00011,-7e-05,4
18043,18809,-2.9999999999999997e-05,-0.00015,-0.00029,-0.0008300000000000001,-0.00047000000000000004,-0.00011,-0.00011,-7e-05,4
18044,18810,-2.9999999999999997e-05,-0.00015,-0.00029,-0.0008300000000000001,-0.00047000000000000004,-0.00011,-0.00011,-7e-05,4
18045,18811,-2.9999999999999997e-05,-0.00015,-0.00029,-0.0008300000000000001,-0.00047000000000000004,-0.00011,-0.00011,-7e-05,4
18046,18812,-2.9999999999999997e-05,-0.00015,-0.00029,-0.0008300000000000001,-0.00047000000000000004,-0.00011,-0.00011,-7e-05,4
18047,18813,-2.9999999999999997e-05,-0.00015,-0.00029,-0.0008300000000000001,-0.00047000000000000004,-0.00011,-0.00011,-7e-05,4
18048,18814,-2.9999999999999997e-05,-0.00015,-0.00029,-0.0008300000000000001,-0.00047000000000000004,-0.00011,-0.00011,-7e-05,4
18049,18815,-2.9999999999999997e-05,-0.00015,-0.00029,-0.0008300000000000001,-0.00047000000000000004,-0.00011,-0.00011,-7e-05,4
18050,18816,-2.9999999999999997e-05,-0.00015,-0.00029,-0.0008300000000000001,-0.00047000000000000004,-0.00011,-0.00011,-7e-05,4
18051,18817,-2.9999999999999997e-05,-0.00015,-0.00029,-0.0008300000000000001,-0.00047000000000000004,-0.00011,-0.00011,-7e-05,4
18052,18818,-2.9999999999999997e-05,-0.00015,-0.00029,-0.0008300000000000001,-0.00047000000000000004,-0.00011,-0.00011,-7e-05,4
18053,18819,-5.9999999999999995e-05,4e-05,0.0,-0.00022,-7e-05,0.00025,-0.00011999999999999999,-5.9999999999999995e-05,4
18054,18820,5.9999999999999995e-05,0.00016,0.0005,0.0009599999999999999,-9e-05,-0.00028,5.9999999999999995e-05,5.9999999999999995e-05,4
18055,18821,5.9999999999999995e-05,0.00016,0.0005,0.0009599999999999999,-9e-05,-0.00028,5.9999999999999995e-05,5.9999999999999995e-05,4
18056,18822,5.9999999999999995e-05,0.00016,0.0005,0.0009599999999999999,-9e-05,-0.00028,5.9999999999999995e-05,5.9999999999999995e-05,4
18057,18823,5.9999999999999995e-05,0.00016,0.0005,0.0009599999999999999,-9e-05,-0.00028,5.9999999999999995e-05,5.9999999999999995e-05,4
18058,18824,5.9999999999999995e-05,0.00016,0.0005,0.0009599999999999999,-9e-05,-0.00028,5.9999999999999995e-05,5.9999999999999995e-05,4
18059,18825,5.9999999999999995e-05,0.00016,0.0005,0.0009599999999999999,-9e-05,-0.00028,5.9999999999999995e-05,5.9999999999999995e-05,4
18060,18826,5.9999999999999995e-05,0.00016,0.0005,0.0009599999999999999,-9e-05,-0.00028,5.9999999999999995e-05,5.9999999999999995e-05,4
18061,18827,5.9999999999999995e-05,0.00016,0.0005,0.0009599999999999999,-9e-05,-0.00028,5.9999999999999995e-05,5.9999999999999995e-05,4
18062,18828,5.9999999999999995e-05,0.00016,0.0005,0.0009599999999999999,-9e-05,-0.00028,5.9999999999999995e-05,5.9999999999999995e-05,4
18063,18829,5.9999999999999995e-05,0.00016,0.0005,0.0009599999999999999,-9e-05,-0.00028,5.9999999999999995e-05,5.9999999999999995e-05,4
18064,18830,5.9999999999999995e-05,0.00016,0.0005,0.0009599999999999999,-9e-05,-0.00028,5.9999999999999995e-05,5.9999999999999995e-05,4
18065,18831,5.9999999999999995e-05,0.00016,0.0005,0.0009599999999999999,-9e-05,-0.00028,5.9999999999999995e-05,5.9999999999999995e-05,4
18066,18832,-4e-05,-8e-05,-9e-05,-0.00082,-0.00062,0.00056,-0.00014,-0.00011,4
18067,18833,0.0,0.00018,0.00058,0.0006799999999999999,-4e-05,-0.00025,0.0001,4e-05,4
18068,18834,0.0,0.00018,0.00058,0.0006799999999999999,-4e-05,-0.00025,0.0001,4e-05,4
18069,18835,0.0,0.00018,0.00058,0.0006799999999999999,-4e-05,-0.00025,0.0001,4e-05,4
18070,18836,0.0,0.00018,0.00058,0.0006799999999999999,-4e-05,-0.00025,0.0001,4e-05,4
18071,18838,0.0,0.00018,0.00058,0.0006799999999999999,-4e-05,-0.00025,0.0001,4e-05,4
18072,18839,0.0,0.00018,0.00058,0.0006799999999999999,-4e-05,-0.00025,0.0001,4e-05,4
18073,18840,0.0,0.00018,0.00058,0.0006799999999999999,-4e-05,-0.00025,0.0001,4e-05,4
18074,18841,-5e-05,-7e-05,-0.00027,-0.00043,-0.0008699999999999999,-0.00086,-5e-05,-5e-05,4
18075,18843,-5e-05,-7e-05,-0.00027,-0.00043,-0.0008699999999999999,-0.00086,-5e-05,-5e-05,4
18076,18844,-5e-05,-7e-05,-0.00027,-0.00043,-0.0008699999999999999,-0.00086,-5e-05,-5e-05,4
18077,18845,-5e-05,-7e-05,-0.00027,-0.00043,-0.0008699999999999999,-0.00086,-5e-05,-5e-05,4
18078,18846,-5e-05,-7e-05,-0.00027,-0.00043,-0.0008699999999999999,-0.00086,-5e-05,-5e-05,4
18079,18847,-5e-05,-7e-05,-0.00027,-0.00043,-0.0008699999999999999,-0.00086,-5e-05,-5e-05,4
18080,18848,-5e-05,-7e-05,-0.00027,-0.00043,-0.0008699999999999999,-0.00086,-5e-05,-5e-05,4
18081,18849,-5e-05,-7e-05,-0.00027,-0.00043,-0.0008699999999999999,-0.00086,-5e-05,-5e-05,4
18082,18850,-5e-05,-7e-05,-0.00027,-0.00043,-0.0008699999999999999,-0.00086,-5e-05,-5e-05,4
18083,18851,-5e-05,-7e-05,-0.00027,-0.00043,-0.0008699999999999999,-0.00086,-5e-05,-5e-05,4
18084,18852,-5e-05,-7e-05,-0.00027,-0.00043,-0.0008699999999999999,-0.00086,-5e-05,-5e-05,4
18085,18853,-5e-05,-7e-05,-0.00027,-0.00043,-0.0008699999999999999,-0.00086,-5e-05,-5e-05,4
18086,18854,-5e-05,-7e-05,-0.00027,-0.00043,-0.0008699999999999999,-0.00086,-5e-05,-5e-05,4
18087,18855,-5e-05,-7e-05,-0.00027,-0.00043,-0.0008699999999999999,-0.00086,-5e-05,-5e-05,4
18088,18856,-9e-05,0.00016,0.00045,0.00016,-0.0012699999999999999,-0.00035,-5.9999999999999995e-05,-2.9999999999999997e-05,4
18089,18857,-9e-05,0.00016,0.00045,0.00016,-0.0012699999999999999,-0.00035,-5.9999999999999995e-05,-2.9999999999999997e-05,4
18090,18858,-9e-05,0.00016,0.00045,0.00016,-0.0012699999999999999,-0.00035,-5.9999999999999995e-05,-2.9999999999999997e-05,4
18091,18859,-9e-05,0.00016,0.00045,0.00016,-0.0012699999999999999,-0.00035,-5.9999999999999995e-05,-2.9999999999999997e-05,4
18092,18860,-9e-05,0.00016,0.00045,0.00016,-0.0012699999999999999,-0.00035,-5.9999999999999995e-05,-2.9999999999999997e-05,4
18093,18861,-9e-05,0.00016,0.00045,0.00016,-0.0012699999999999999,-0.00035,-5.9999999999999995e-05,-2.9999999999999997e-05,4
18094,18862,-9e-05,0.00016,0.00045,0.00016,-0.0012699999999999999,-0.00035,-5.9999999999999995e-05,-2.9999999999999997e-05,4
18095,18863,-9e-05,0.00016,0.00045,0.00016,-0.0012699999999999999,-0.00035,-5.9999999999999995e-05,-2.9999999999999997e-05,4
18096,18864,-9e-05,0.00016,0.00045,0.00016,-0.0012699999999999999,-0.00035,-5.9999999999999995e-05,-2.9999999999999997e-05,4
18097,18865,-9e-05,0.00016,0.00045,0.00016,-0.0012699999999999999,-0.00035,-5.9999999999999995e-05,-2.9999999999999997e-05,4
18098,18866,-9e-05,0.00016,0.00045,0.00016,-0.0012699999999999999,-0.00035,-5.9999999999999995e-05,-2.9999999999999997e-05,4
18099,18867,-9e-05,0.00016,0.00045,0.00016,-0.0012699999999999999,-0.00035,-5.9999999999999995e-05,-2.9999999999999997e-05,4
18100,18868,-9e-05,0.00016,0.00045,0.00016,-0.0012699999999999999,-0.00035,-5.9999999999999995e-05,-2.9999999999999997e-05,4
18101,18869,-9e-05,0.00016,0.00045,0.00016,-0.0012699999999999999,-0.00035,-5.9999999999999995e-05,-2.9999999999999997e-05,4
18102,18870,-9e-05,0.00016,0.00045,0.00016,-0.0012699999999999999,-0.00035,-5.9999999999999995e-05,-2.9999999999999997e-05,4
18103,18871,-9e-05,0.00016,0.00045,0.00016,-0.0012699999999999999,-0.00035,-5.9999999999999995e-05,-2.9999999999999997e-05,4
18104,18872,-9e-05,0.00016,0.00045,0.00016,-0.0012699999999999999,-0.00035,-5.9999999999999995e-05,-2.9999999999999997e-05,4
18105,18873,-9e-05,0.00016,0.00045,0.00016,-0.0012699999999999999,-0.00035,-5.9999999999999995e-05,-2.9999999999999997e-05,4
18106,18874,-9e-05,0.00016,0.00045,0.00016,-0.0012699999999999999,-0.00035,-5.9999999999999995e-05,-2.9999999999999997e-05,4
18107,18875,-9e-05,0.00016,0.00045,0.00016,-0.0012699999999999999,-0.00035,-5.9999999999999995e-05,-2.9999999999999997e-05,4
18108,18876,-9e-05,0.00016,0.00045,0.00016,-0.0012699999999999999,-0.00035,-5.9999999999999995e-05,-2.9999999999999997e-05,4
18109,18877,-9e-05,0.00016,0.00045,0.00016,-0.0012699999999999999,-0.00035,-5.9999999999999995e-05,-2.9999999999999997e-05,4
18110,18878,-9e-05,0.00016,0.00045,0.00016,-0.0012699999999999999,-0.00035,-5.9999999999999995e-05,-2.9999999999999997e-05,4
18111,18879,-7e-05,-0.0002,-0.00062,-0.00085,1e-05,-0.0007,1e-05,-7e-05,4
18112,18880,-7e-05,-0.0002,-0.00062,-0.00085,1e-05,-0.0007,1e-05,-7e-05,4
18113,18882,-7e-05,-0.0002,-0.00062,-0.00085,1e-05,-0.0007,1e-05,-7e-05,4
18114,18883,-7e-05,-0.0002,-0.00062,-0.00085,1e-05,-0.0007,1e-05,-7e-05,4
18115,18884,-7e-05,-0.0002,-0.00062,-0.00085,1e-05,-0.0007,1e-05,-7e-05,4
18116,18885,-7e-05,-0.0002,-0.00062,-0.00085,1e-05,-0.0007,1e-05,-7e-05,4
18117,18886,-7e-05,-0.0002,-0.00062,-0.00085,1e-05,-0.0007,1e-05,-7e-05,4
18118,18888,-7e-05,-0.0002,-0.00062,-0.00085,1e-05,-0.0007,1e-05,-7e-05,4
18119,18890,-7e-05,-0.0002,-0.00062,-0.00085,1e-05,-0.0007,1e-05,-7e-05,4
18120,18891,-7e-05,-0.0002,-0.00062,-0.00085,1e-05,-0.0007,1e-05,-7e-05,4
18121,18892,5.9999999999999995e-05,2e-05,-4e-05,0.00037999999999999997,0.00042,0.00016999999999999999,5.9999999999999995e-05,7e-05,4
18122,18893,5.9999999999999995e-05,2e-05,-4e-05,0.00037999999999999997,0.00042,0.00016999999999999999,5.9999999999999995e-05,7e-05,4
18123,18894,5.9999999999999995e-05,2e-05,-4e-05,0.00037999999999999997,0.00042,0.00016999999999999999,5.9999999999999995e-05,7e-05,4
18124,18895,5.9999999999999995e-05,2e-05,-4e-05,0.00037999999999999997,0.00042,0.00016999999999999999,5.9999999999999995e-05,7e-05,4
18125,18896,5.9999999999999995e-05,2e-05,-4e-05,0.00037999999999999997,0.00042,0.00016999999999999999,5.9999999999999995e-05,7e-05,4
18126,18897,5.9999999999999995e-05,2e-05,-4e-05,0.00037999999999999997,0.00042,0.00016999999999999999,5.9999999999999995e-05,7e-05,4
18127,18898,5.9999999999999995e-05,2e-05,-4e-05,0.00037999999999999997,0.00042,0.00016999999999999999,5.9999999999999995e-05,7e-05,4
18128,18899,5.9999999999999995e-05,2e-05,-4e-05,0.00037999999999999997,0.00042,0.00016999999999999999,5.9999999999999995e-05,7e-05,4
18129,18900,5.9999999999999995e-05,2e-05,-4e-05,0.00037999999999999997,0.00042,0.00016999999999999999,5.9999999999999995e-05,7e-05,4
18130,18901,9e-05,5.9999999999999995e-05,-2e-05,4e-05,0.00016,0.00018999999999999998,0.00044,0.00016,4
18131,18902,9e-05,5.9999999999999995e-05,-2e-05,4e-05,0.00016,0.00018999999999999998,0.00044,0.00016,4
18132,18903,9e-05,5.9999999999999995e-05,-2e-05,4e-05,0.00016,0.00018999999999999998,0.00044,0.00016,4
18133,18904,9e-05,5.9999999999999995e-05,-2e-05,4e-05,0.00016,0.00018999999999999998,0.00044,0.00016,4
18134,18905,9e-05,5.9999999999999995e-05,-2e-05,4e-05,0.00016,0.00018999999999999998,0.00044,0.00016,4
18135,18906,9e-05,5.9999999999999995e-05,-2e-05,4e-05,0.00016,0.00018999999999999998,0.00044,0.00016,4
18136,18907,9e-05,5.9999999999999995e-05,-2e-05,4e-05,0.00016,0.00018999999999999998,0.00044,0.00016,4
18137,18908,9e-05,5.9999999999999995e-05,-2e-05,4e-05,0.00016,0.00018999999999999998,0.00044,0.00016,4
18138,18909,9e-05,5.9999999999999995e-05,-2e-05,4e-05,0.00016,0.00018999999999999998,0.00044,0.00016,4
18139,18910,9e-05,5.9999999999999995e-05,-2e-05,4e-05,0.00016,0.00018999999999999998,0.00044,0.00016,4
18140,18911,9e-05,5.9999999999999995e-05,-2e-05,4e-05,0.00016,0.00018999999999999998,0.00044,0.00016,4
18141,18912,9e-05,5.9999999999999995e-05,-2e-05,4e-05,0.00016,0.00018999999999999998,0.00044,0.00016,4
18142,18913,9e-05,5.9999999999999995e-05,-2e-05,4e-05,0.00016,0.00018999999999999998,0.00044,0.00016,4
18143,18914,9e-05,5.9999999999999995e-05,-2e-05,4e-05,0.00016,0.00018999999999999998,0.00044,0.00016,4
18144,18915,9e-05,5.9999999999999995e-05,-2e-05,4e-05,0.00016,0.00018999999999999998,0.00044,0.00016,4
18145,18916,-0.00022,-0.00014,-0.00073,0.00016999999999999999,0.00047999999999999996,0.0009,5.9999999999999995e-05,-9e-05,4
18146,18917,-0.00022,-0.00014,-0.00073,0.00016999999999999999,0.00047999999999999996,0.0009,5.9999999999999995e-05,-9e-05,4
18147,18918,-0.00022,-0.00014,-0.00073,0.00016999999999999999,0.00047999999999999996,0.0009,5.9999999999999995e-05,-9e-05,4
18148,18919,-0.00022,-0.00014,-0.00073,0.00016999999999999999,0.00047999999999999996,0.0009,5.9999999999999995e-05,-9e-05,4
18149,18920,-0.00022,-0.00014,-0.00073,0.00016999999999999999,0.00047999999999999996,0.0009,5.9999999999999995e-05,-9e-05,4
18150,18921,-0.00022,-0.00014,-0.00073,0.00016999999999999999,0.00047999999999999996,0.0009,5.9999999999999995e-05,-9e-05,4
18151,18922,-0.00022,-0.00014,-0.00073,0.00016999999999999999,0.00047999999999999996,0.0009,5.9999999999999995e-05,-9e-05,4
18152,18923,-0.00022,-0.00014,-0.00073,0.00016999999999999999,0.00047999999999999996,0.0009,5.9999999999999995e-05,-9e-05,4
18153,18924,-0.00022,-0.00014,-0.00073,0.00016999999999999999,0.00047999999999999996,0.0009,5.9999999999999995e-05,-9e-05,4
18154,18925,-0.00022,-0.00014,-0.00073,0.00016999999999999999,0.00047999999999999996,0.0009,5.9999999999999995e-05,-9e-05,4
18155,18926,-0.00022,-0.00014,-0.00073,0.00016999999999999999,0.00047999999999999996,0.0009,5.9999999999999995e-05,-9e-05,4
18156,18927,-0.00022,-0.00014,-0.00073,0.00016999999999999999,0.00047999999999999996,0.0009,5.9999999999999995e-05,-9e-05,4
18157,18928,-0.00022,-0.00014,-0.00073,0.00016999999999999999,0.00047999999999999996,0.0009,5.9999999999999995e-05,-9e-05,4
18158,18929,-0.00022,-0.00014,-0.00073,0.00016999999999999999,0.00047999999999999996,0.0009,5.9999999999999995e-05,-9e-05,4
18159,18930,-0.00022,-0.00014,-0.00073,0.00016999999999999999,0.00047999999999999996,0.0009,5.9999999999999995e-05,-9e-05,4
18160,18931,-0.00022,-0.00014,-0.00073,0.00016999999999999999,0.00047999999999999996,0.0009,5.9999999999999995e-05,-9e-05,4
18161,18932,-0.00022,-0.00014,-0.00073,0.00016999999999999999,0.00047999999999999996,0.0009,5.9999999999999995e-05,-9e-05,4
18162,18933,-0.00022,-0.00014,-0.00073,0.00016999999999999999,0.00047999999999999996,0.0009,5.9999999999999995e-05,-9e-05,4
18163,18934,-0.00022,-0.00014,-0.00073,0.00016999999999999999,0.00047999999999999996,0.0009,5.9999999999999995e-05,-9e-05,4
18164,18935,-0.00022,-0.00014,-0.00073,0.00016999999999999999,0.00047999999999999996,0.0009,5.9999999999999995e-05,-9e-05,4
18165,18936,-0.00022,-0.00014,-0.00073,0.00016999999999999999,0.00047999999999999996,0.0009,5.9999999999999995e-05,-9e-05,4
18166,18939,8e-05,0.00021,0.00082,0.00091,-0.00062,0.00031,-0.00043,-9e-05,4
18167,18940,8e-05,0.00021,0.00082,0.00091,-0.00062,0.00031,-0.00043,-9e-05,4
18168,18941,8e-05,0.00021,0.00082,0.00091,-0.00062,0.00031,-0.00043,-9e-05,4
18169,18942,8e-05,0.00021,0.00082,0.00091,-0.00062,0.00031,-0.00043,-9e-05,4
18170,18943,8e-05,0.00021,0.00082,0.00091,-0.00062,0.00031,-0.00043,-9e-05,4
18171,18944,8e-05,0.00021,0.00082,0.00091,-0.00062,0.00031,-0.00043,-9e-05,4
18172,18945,8e-05,0.00021,0.00082,0.00091,-0.00062,0.00031,-0.00043,-9e-05,4
18173,18946,8e-05,0.00021,0.00082,0.00091,-0.00062,0.00031,-0.00043,-9e-05,4
18174,18947,8e-05,0.00021,0.00082,0.00091,-0.00062,0.00031,-0.00043,-9e-05,4
18175,18948,8e-05,0.00021,0.00082,0.00091,-0.00062,0.00031,-0.00043,-9e-05,4
18176,18949,8e-05,0.00021,0.00082,0.00091,-0.00062,0.00031,-0.00043,-9e-05,4
18177,18950,8e-05,0.00021,0.00082,0.00091,-0.00062,0.00031,-0.00043,-9e-05,4
18178,18951,8e-05,0.00021,0.00082,0.00091,-0.00062,0.00031,-0.00043,-9e-05,4
18179,18952,8e-05,0.00021,0.00082,0.00091,-0.00062,0.00031,-0.00043,-9e-05,4
18180,18953,8e-05,0.00021,0.00082,0.00091,-0.00062,0.00031,-0.00043,-9e-05,4
18181,18954,8e-05,0.00021,0.00082,0.00091,-0.00062,0.00031,-0.00043,-9e-05,4
18182,18955,8e-05,0.00021,0.00082,0.00091,-0.00062,0.00031,-0.00043,-9e-05,4
18183,18956,8e-05,0.00021,0.00082,0.00091,-0.00062,0.00031,-0.00043,-9e-05,4
18184,18957,8e-05,0.00021,0.00082,0.00091,-0.00062,0.00031,-0.00043,-9e-05,4
18185,18958,8e-05,0.00021,0.00082,0.00091,-0.00062,0.00031,-0.00043,-9e-05,4
18186,18959,8e-05,0.00021,0.00082,0.00091,-0.00062,0.00031,-0.00043,-9e-05,4
18187,18960,8e-05,0.00021,0.00082,0.00091,-0.00062,0.00031,-0.00043,-9e-05,4
18188,18961,4e-05,-1e-05,0.00021,1e-05,-0.00084,0.0005200000000000001,2e-05,-2e-05,4
18189,18962,0.0001,0.00018999999999999998,0.00049,-0.00032,-0.00078,-5.9999999999999995e-05,-0.00021,-1e-05,4
18190,18963,0.0001,0.00018999999999999998,0.00049,-0.00032,-0.00078,-5.9999999999999995e-05,-0.00021,-1e-05,4
18191,18964,0.0001,0.00018999999999999998,0.00049,-0.00032,-0.00078,-5.9999999999999995e-05,-0.00021,-1e-05,4
18192,18965,0.0001,0.00018999999999999998,0.00049,-0.00032,-0.00078,-5.9999999999999995e-05,-0.00021,-1e-05,4
18193,18966,0.0001,0.00018999999999999998,0.00049,-0.00032,-0.00078,-5.9999999999999995e-05,-0.00021,-1e-05,4
18194,18967,0.0001,0.00018999999999999998,0.00049,-0.00032,-0.00078,-5.9999999999999995e-05,-0.00021,-1e-05,4
18195,18968,0.0001,0.00018999999999999998,0.00049,-0.00032,-0.00078,-5.9999999999999995e-05,-0.00021,-1e-05,4
18196,18969,0.0001,0.00018999999999999998,0.00049,-0.00032,-0.00078,-5.9999999999999995e-05,-0.00021,-1e-05,4
18197,18970,0.0001,0.00018999999999999998,0.00049,-0.00032,-0.00078,-5.9999999999999995e-05,-0.00021,-1e-05,4
18198,18971,0.0001,0.00018999999999999998,0.00049,-0.00032,-0.00078,-5.9999999999999995e-05,-0.00021,-1e-05,4
18199,18972,0.0001,0.00018999999999999998,0.00049,-0.00032,-0.00078,-5.9999999999999995e-05,-0.00021,-1e-05,4
18200,18973,0.0001,0.00018999999999999998,0.00049,-0.00032,-0.00078,-5.9999999999999995e-05,-0.00021,-1e-05,4
18201,18974,0.0001,0.00018999999999999998,0.00049,-0.00032,-0.00078,-5.9999999999999995e-05,-0.00021,-1e-05,4
18202,18975,5.9999999999999995e-05,-8e-05,-0.00039,-0.00103,0.00065,0.00011,4e-05,5.9999999999999995e-05,4
18203,18976,-0.00022999999999999998,-0.00018,-0.00023999999999999998,0.00031,-0.00031,-0.00026000000000000003,-0.00013000000000000002,-0.00016,4
18204,18977,-0.00022999999999999998,-0.00018,-0.00023999999999999998,0.00031,-0.00031,-0.00026000000000000003,-0.00013000000000000002,-0.00016,4
18205,18978,-0.00022999999999999998,-0.00018,-0.00023999999999999998,0.00031,-0.00031,-0.00026000000000000003,-0.00013000000000000002,-0.00016,4
18206,18979,-0.00022999999999999998,-0.00018,-0.00023999999999999998,0.00031,-0.00031,-0.00026000000000000003,-0.00013000000000000002,-0.00016,4
18207,18980,-0.00022999999999999998,-0.00018,-0.00023999999999999998,0.00031,-0.00031,-0.00026000000000000003,-0.00013000000000000002,-0.00016,4
18208,18981,-0.00022999999999999998,-0.00018,-0.00023999999999999998,0.00031,-0.00031,-0.00026000000000000003,-0.00013000000000000002,-0.00016,4
18209,18982,-0.00022999999999999998,-0.00018,-0.00023999999999999998,0.00031,-0.00031,-0.00026000000000000003,-0.00013000000000000002,-0.00016,4
18210,18983,-0.00022999999999999998,-0.00018,-0.00023999999999999998,0.00031,-0.00031,-0.00026000000000000003,-0.00013000000000000002,-0.00016,4
18211,18984,-0.00022999999999999998,-0.00018,-0.00023999999999999998,0.00031,-0.00031,-0.00026000000000000003,-0.00013000000000000002,-0.00016,4
18212,18985,-0.00022999999999999998,-0.00018,-0.00023999999999999998,0.00031,-0.00031,-0.00026000000000000003,-0.00013000000000000002,-0.00016,4
18213,18986,-0.00022999999999999998,-0.00018,-0.00023999999999999998,0.00031,-0.00031,-0.00026000000000000003,-0.00013000000000000002,-0.00016,4
18214,18988,-0.00022999999999999998,-0.00018,-0.00023999999999999998,0.00031,-0.00031,-0.00026000000000000003,-0.00013000000000000002,-0.00016,4
18215,18989,-0.00022999999999999998,-0.00018,-0.00023999999999999998,0.00031,-0.00031,-0.00026000000000000003,-0.00013000000000000002,-0.00016,4
18216,18990,-0.00022999999999999998,-0.00018,-0.00023999999999999998,0.00031,-0.00031,-0.00026000000000000003,-0.00013000000000000002,-0.00016,4
18217,18991,-0.00022999999999999998,-0.00018,-0.00023999999999999998,0.00031,-0.00031,-0.00026000000000000003,-0.00013000000000000002,-0.00016,4
18218,18992,-0.00022999999999999998,-0.00018,-0.00023999999999999998,0.00031,-0.00031,-0.00026000000000000003,-0.00013000000000000002,-0.00016,4
18219,18993,-0.00022999999999999998,-0.00018,-0.00023999999999999998,0.00031,-0.00031,-0.00026000000000000003,-0.00013000000000000002,-0.00016,4
18220,18994,-0.00022999999999999998,-0.00018,-0.00023999999999999998,0.00031,-0.00031,-0.00026000000000000003,-0.00013000000000000002,-0.00016,4
18221,18995,-0.00022999999999999998,-0.00018,-0.00023999999999999998,0.00031,-0.00031,-0.00026000000000000003,-0.00013000000000000002,-0.00016,4
18222,18996,-0.00022999999999999998,-0.00018,-0.00023999999999999998,0.00031,-0.00031,-0.00026000000000000003,-0.00013000000000000002,-0.00016,4
18223,18997,-0.00022999999999999998,-0.00018,-0.00023999999999999998,0.00031,-0.00031,-0.00026000000000000003,-0.00013000000000000002,-0.00016,4
18224,18998,-0.00022999999999999998,-0.00018,-0.00023999999999999998,0.00031,-0.00031,-0.00026000000000000003,-0.00013000000000000002,-0.00016,4
18225,18999,1e-05,-0.00013000000000000002,-0.00053,-0.0001,5.9999999999999995e-05,0.00039,-1e-05,-2.9999999999999997e-05,4
18226,19000,0.00018999999999999998,0.00021,0.00031,0.00098,0.0012699999999999999,0.0006799999999999999,0.00018,0.00018,4
18227,19001,0.00018999999999999998,0.00021,0.00031,0.00098,0.0012699999999999999,0.0006799999999999999,0.00018,0.00018,4
18228,19002,0.00018999999999999998,0.00021,0.00031,0.00098,0.0012699999999999999,0.0006799999999999999,0.00018,0.00018,4
18229,19003,0.00018999999999999998,0.00021,0.00031,0.00098,0.0012699999999999999,0.0006799999999999999,0.00018,0.00018,4
18230,19004,0.00018999999999999998,0.00021,0.00031,0.00098,0.0012699999999999999,0.0006799999999999999,0.00018,0.00018,4
18231,19005,0.00018999999999999998,0.00021,0.00031,0.00098,0.0012699999999999999,0.0006799999999999999,0.00018,0.00018,4
18232,19006,0.00018999999999999998,0.00021,0.00031,0.00098,0.0012699999999999999,0.0006799999999999999,0.00018,0.00018,4
18233,19007,0.00018999999999999998,0.00021,0.00031,0.00098,0.0012699999999999999,0.0006799999999999999,0.00018,0.00018,4
18234,19008,0.00018999999999999998,0.00021,0.00031,0.00098,0.0012699999999999999,0.0006799999999999999,0.00018,0.00018,4
18235,19009,0.00018999999999999998,0.00021,0.00031,0.00098,0.0012699999999999999,0.0006799999999999999,0.00018,0.00018,4
18236,19010,0.00018999999999999998,0.00021,0.00031,0.00098,0.0012699999999999999,0.0006799999999999999,0.00018,0.00018,4
18237,19011,0.00018999999999999998,0.00021,0.00031,0.00098,0.0012699999999999999,0.0006799999999999999,0.00018,0.00018,4
18238,19012,0.00018999999999999998,0.00021,0.00031,0.00098,0.0012699999999999999,0.0006799999999999999,0.00018,0.00018,4
18239,19013,0.00018999999999999998,0.00021,0.00031,0.00098,0.0012699999999999999,0.0006799999999999999,0.00018,0.00018,4
18240,19014,0.00018999999999999998,0.00021,0.00031,0.00098,0.0012699999999999999,0.0006799999999999999,0.00018,0.00018,4
18241,19015,0.00018999999999999998,0.00021,0.00031,0.00098,0.0012699999999999999,0.0006799999999999999,0.00018,0.00018,4
18242,19016,0.00018999999999999998,0.00021,0.00031,0.00098,0.0012699999999999999,0.0006799999999999999,0.00018,0.00018,4
18243,19017,0.00018999999999999998,0.00021,0.00031,0.00098,0.0012699999999999999,0.0006799999999999999,0.00018,0.00018,4
18244,19018,0.00018999999999999998,0.00021,0.00031,0.00098,0.0012699999999999999,0.0006799999999999999,0.00018,0.00018,4
18245,19019,0.00018999999999999998,0.00021,0.00031,0.00098,0.0012699999999999999,0.0006799999999999999,0.00018,0.00018,4
18246,19020,0.00018999999999999998,0.00021,0.00031,0.00098,0.0012699999999999999,0.0006799999999999999,0.00018,0.00018,4
18247,19021,-0.00029,-0.00022999999999999998,-0.00066,-0.0008900000000000001,0.00013000000000000002,0.00016999999999999999,5.9999999999999995e-05,-0.00014,4
18248,19022,7e-05,-4e-05,-0.0001,-0.00065,-0.00018999999999999998,0.00013000000000000002,0.0,2.9999999999999997e-05,4
18249,19023,7e-05,-4e-05,-0.0001,-0.00065,-0.00018999999999999998,0.00013000000000000002,0.0,2.9999999999999997e-05,4
18250,19024,7e-05,-4e-05,-0.0001,-0.00065,-0.00018999999999999998,0.00013000000000000002,0.0,2.9999999999999997e-05,4
18251,19025,7e-05,-4e-05,-0.0001,-0.00065,-0.00018999999999999998,0.00013000000000000002,0.0,2.9999999999999997e-05,4
18252,19026,7e-05,-4e-05,-0.0001,-0.00065,-0.00018999999999999998,0.00013000000000000002,0.0,2.9999999999999997e-05,4
18253,19027,7e-05,-4e-05,-0.0001,-0.00065,-0.00018999999999999998,0.00013000000000000002,0.0,2.9999999999999997e-05,4
18254,19028,7e-05,-4e-05,-0.0001,-0.00065,-0.00018999999999999998,0.00013000000000000002,0.0,2.9999999999999997e-05,4
18255,19029,7e-05,-4e-05,-0.0001,-0.00065,-0.00018999999999999998,0.00013000000000000002,0.0,2.9999999999999997e-05,4
18256,19030,7e-05,-4e-05,-0.0001,-0.00065,-0.00018999999999999998,0.00013000000000000002,0.0,2.9999999999999997e-05,4
18257,19031,7e-05,-4e-05,-0.0001,-0.00065,-0.00018999999999999998,0.00013000000000000002,0.0,2.9999999999999997e-05,4
18258,19032,7e-05,-4e-05,-0.0001,-0.00065,-0.00018999999999999998,0.00013000000000000002,0.0,2.9999999999999997e-05,4
18259,19033,7e-05,-4e-05,-0.0001,-0.00065,-0.00018999999999999998,0.00013000000000000002,0.0,2.9999999999999997e-05,4
18260,19034,7e-05,-4e-05,-0.0001,-0.00065,-0.00018999999999999998,0.00013000000000000002,0.0,2.9999999999999997e-05,4
18261,19035,7e-05,-4e-05,-0.0001,-0.00065,-0.00018999999999999998,0.00013000000000000002,0.0,2.9999999999999997e-05,4
18262,19036,0.00016,0.00014,0.00016,0.00055,0.00121,0.00088,0.00035,0.00025,4
18263,19038,0.00016,0.00014,0.00016,0.00055,0.00121,0.00088,0.00035,0.00025,4
18264,19039,0.00016,0.00014,0.00016,0.00055,0.00121,0.00088,0.00035,0.00025,4
18265,19040,0.00016,0.00014,0.00016,0.00055,0.00121,0.00088,0.00035,0.00025,4
18266,19041,0.00016,0.00014,0.00016,0.00055,0.00121,0.00088,0.00035,0.00025,4
18267,19042,0.00016,0.00014,0.00016,0.00055,0.00121,0.00088,0.00035,0.00025,4
18268,19043,0.00016,0.00014,0.00016,0.00055,0.00121,0.00088,0.00035,0.00025,4
18269,19044,0.00016,0.00014,0.00016,0.00055,0.00121,0.00088,0.00035,0.00025,4
18270,19045,0.00016,0.00014,0.00016,0.00055,0.00121,0.00088,0.00035,0.00025,4
18271,19046,0.00016,0.00014,0.00016,0.00055,0.00121,0.00088,0.00035,0.00025,4
18272,19047,0.00016,0.00014,0.00016,0.00055,0.00121,0.00088,0.00035,0.00025,4
18273,19048,0.00016,0.00014,0.00016,0.00055,0.00121,0.00088,0.00035,0.00025,4
18274,19049,0.00016,0.00014,0.00016,0.00055,0.00121,0.00088,0.00035,0.00025,4
18275,19050,0.00016,0.00014,0.00016,0.00055,0.00121,0.00088,0.00035,0.00025,4
18276,19051,0.00016,0.00014,0.00016,0.00055,0.00121,0.00088,0.00035,0.00025,4
18277,19052,0.00016,0.00014,0.00016,0.00055,0.00121,0.00088,0.00035,0.00025,4
18278,19053,0.00016,0.00014,0.00016,0.00055,0.00121,0.00088,0.00035,0.00025,4
18279,19054,0.00016,0.00014,0.00016,0.00055,0.00121,0.00088,0.00035,0.00025,4
18280,19055,0.00016,0.00014,0.00016,0.00055,0.00121,0.00088,0.00035,0.00025,4
18281,19056,0.00016,0.00014,0.00016,0.00055,0.00121,0.00088,0.00035,0.00025,4
18282,19057,0.00016,0.00014,0.00016,0.00055,0.00121,0.00088,0.00035,0.00025,4
18283,19058,0.00016,0.00014,0.00016,0.00055,0.00121,0.00088,0.00035,0.00025,4
18284,19059,5.9999999999999995e-05,-8e-05,-0.00058,-0.00073,0.00091,-5e-05,9e-05,0.00011,4
18285,19060,-1e-05,-9e-05,-2e-05,-0.00013000000000000002,-0.00114,-0.00035,-0.00015,-5.9999999999999995e-05,4
18286,19061,-1e-05,-9e-05,-2e-05,-0.00013000000000000002,-0.00114,-0.00035,-0.00015,-5.9999999999999995e-05,4
18287,19062,-1e-05,-9e-05,-2e-05,-0.00013000000000000002,-0.00114,-0.00035,-0.00015,-5.9999999999999995e-05,4
18288,19063,-1e-05,-9e-05,-2e-05,-0.00013000000000000002,-0.00114,-0.00035,-0.00015,-5.9999999999999995e-05,4
18289,19064,-1e-05,-9e-05,-2e-05,-0.00013000000000000002,-0.00114,-0.00035,-0.00015,-5.9999999999999995e-05,4
18290,19065,-1e-05,-9e-05,-2e-05,-0.00013000000000000002,-0.00114,-0.00035,-0.00015,-5.9999999999999995e-05,4
18291,19066,-1e-05,-9e-05,-2e-05,-0.00013000000000000002,-0.00114,-0.00035,-0.00015,-5.9999999999999995e-05,4
18292,19067,-1e-05,-9e-05,-2e-05,-0.00013000000000000002,-0.00114,-0.00035,-0.00015,-5.9999999999999995e-05,4
18293,19068,-1e-05,-9e-05,-2e-05,-0.00013000000000000002,-0.00114,-0.00035,-0.00015,-5.9999999999999995e-05,4
18294,19069,-1e-05,-9e-05,-2e-05,-0.00013000000000000002,-0.00114,-0.00035,-0.00015,-5.9999999999999995e-05,4
18295,19070,-1e-05,-9e-05,-2e-05,-0.00013000000000000002,-0.00114,-0.00035,-0.00015,-5.9999999999999995e-05,4
18296,19071,-1e-05,-9e-05,-2e-05,-0.00013000000000000002,-0.00114,-0.00035,-0.00015,-5.9999999999999995e-05,4
18297,19072,-1e-05,-9e-05,-2e-05,-0.00013000000000000002,-0.00114,-0.00035,-0.00015,-5.9999999999999995e-05,4
18298,19073,-1e-05,-9e-05,-2e-05,-0.00013000000000000002,-0.00114,-0.00035,-0.00015,-5.9999999999999995e-05,4
18299,19074,-1e-05,-9e-05,-2e-05,-0.00013000000000000002,-0.00114,-0.00035,-0.00015,-5.9999999999999995e-05,4
18300,19075,-1e-05,-9e-05,-2e-05,-0.00013000000000000002,-0.00114,-0.00035,-0.00015,-5.9999999999999995e-05,4
18301,19076,-1e-05,-9e-05,-2e-05,-0.00013000000000000002,-0.00114,-0.00035,-0.00015,-5.9999999999999995e-05,4
18302,19077,-1e-05,-9e-05,-2e-05,-0.00013000000000000002,-0.00114,-0.00035,-0.00015,-5.9999999999999995e-05,4
18303,19078,-1e-05,-9e-05,-2e-05,-0.00013000000000000002,-0.00114,-0.00035,-0.00015,-5.9999999999999995e-05,4
18304,19079,-1e-05,-9e-05,-2e-05,-0.00013000000000000002,-0.00114,-0.00035,-0.00015,-5.9999999999999995e-05,4
18305,19080,-1e-05,-9e-05,-2e-05,-0.00013000000000000002,-0.00114,-0.00035,-0.00015,-5.9999999999999995e-05,4
18306,19081,0.00014,0.00026000000000000003,0.00033999999999999997,0.00063,0.00064,0.00059,0.00022,0.00015,4
18307,19082,4e-05,-0.0001,-0.00021,-0.00095,-0.00053,-0.00031,-0.0003,-0.00011,4
18308,19083,4e-05,-0.0001,-0.00021,-0.00095,-0.00053,-0.00031,-0.0003,-0.00011,4
18309,19084,4e-05,-0.0001,-0.00021,-0.00095,-0.00053,-0.00031,-0.0003,-0.00011,4
18310,19085,4e-05,-0.0001,-0.00021,-0.00095,-0.00053,-0.00031,-0.0003,-0.00011,4
18311,19086,4e-05,-0.0001,-0.00021,-0.00095,-0.00053,-0.00031,-0.0003,-0.00011,4
18312,19088,4e-05,-0.0001,-0.00021,-0.00095,-0.00053,-0.00031,-0.0003,-0.00011,4
18313,19090,4e-05,-0.0001,-0.00021,-0.00095,-0.00053,-0.00031,-0.0003,-0.00011,4
18314,19091,4e-05,-0.0001,-0.00021,-0.00095,-0.00053,-0.00031,-0.0003,-0.00011,4
18315,19092,4e-05,-0.0001,-0.00021,-0.00095,-0.00053,-0.00031,-0.0003,-0.00011,4
18316,19093,4e-05,-0.0001,-0.00021,-0.00095,-0.00053,-0.00031,-0.0003,-0.00011,4
18317,19094,4e-05,-0.0001,-0.00021,-0.00095,-0.00053,-0.00031,-0.0003,-0.00011,4
18318,19095,-0.00022999999999999998,-0.00026000000000000003,-0.0005,-0.00054,-0.00079,-0.00025,-0.00011,-0.00011,4
18319,19096,-9e-05,-5.9999999999999995e-05,0.00011,0.0008900000000000001,-0.00065,0.00039,-5.9999999999999995e-05,-8e-05,4
18320,19098,-9e-05,-5.9999999999999995e-05,0.00011,0.0008900000000000001,-0.00065,0.00039,-5.9999999999999995e-05,-8e-05,4
18321,19099,-9e-05,-5.9999999999999995e-05,0.00011,0.0008900000000000001,-0.00065,0.00039,-5.9999999999999995e-05,-8e-05,4
18322,19100,-9e-05,-5.9999999999999995e-05,0.00011,0.0008900000000000001,-0.00065,0.00039,-5.9999999999999995e-05,-8e-05,4
18323,19101,-9e-05,-5.9999999999999995e-05,0.00011,0.0008900000000000001,-0.00065,0.00039,-5.9999999999999995e-05,-8e-05,4
18324,19102,-9e-05,-5.9999999999999995e-05,0.00011,0.0008900000000000001,-0.00065,0.00039,-5.9999999999999995e-05,-8e-05,4
18325,19103,-9e-05,-5.9999999999999995e-05,0.00011,0.0008900000000000001,-0.00065,0.00039,-5.9999999999999995e-05,-8e-05,4
18326,19104,-9e-05,-5.9999999999999995e-05,0.00011,0.0008900000000000001,-0.00065,0.00039,-5.9999999999999995e-05,-8e-05,4
18327,19105,-9e-05,-5.9999999999999995e-05,0.00011,0.0008900000000000001,-0.00065,0.00039,-5.9999999999999995e-05,-8e-05,4
18328,19106,-9e-05,-5.9999999999999995e-05,0.00011,0.0008900000000000001,-0.00065,0.00039,-5.9999999999999995e-05,-8e-05,4
18329,19107,-9e-05,-5.9999999999999995e-05,0.00011,0.0008900000000000001,-0.00065,0.00039,-5.9999999999999995e-05,-8e-05,4
18330,19108,-9e-05,-5.9999999999999995e-05,0.00011,0.0008900000000000001,-0.00065,0.00039,-5.9999999999999995e-05,-8e-05,4
18331,19109,-9e-05,-5.9999999999999995e-05,0.00011,0.0008900000000000001,-0.00065,0.00039,-5.9999999999999995e-05,-8e-05,4
18332,19110,-9e-05,-5.9999999999999995e-05,0.00011,0.0008900000000000001,-0.00065,0.00039,-5.9999999999999995e-05,-8e-05,4
18333,19111,-9e-05,-5.9999999999999995e-05,0.00011,0.0008900000000000001,-0.00065,0.00039,-5.9999999999999995e-05,-8e-05,4
18334,19112,-9e-05,-5.9999999999999995e-05,0.00011,0.0008900000000000001,-0.00065,0.00039,-5.9999999999999995e-05,-8e-05,4
18335,19113,-9e-05,-5.9999999999999995e-05,0.00011,0.0008900000000000001,-0.00065,0.00039,-5.9999999999999995e-05,-8e-05,4
18336,19114,-9e-05,-5.9999999999999995e-05,0.00011,0.0008900000000000001,-0.00065,0.00039,-5.9999999999999995e-05,-8e-05,4
18337,19115,-9e-05,-5.9999999999999995e-05,0.00011,0.0008900000000000001,-0.00065,0.00039,-5.9999999999999995e-05,-8e-05,4
18338,19116,-9e-05,-5.9999999999999995e-05,0.00011,0.0008900000000000001,-0.00065,0.00039,-5.9999999999999995e-05,-8e-05,4
18339,19117,-9e-05,-5.9999999999999995e-05,0.00011,0.0008900000000000001,-0.00065,0.00039,-5.9999999999999995e-05,-8e-05,4
18340,19118,-9e-05,-5.9999999999999995e-05,0.00011,0.0008900000000000001,-0.00065,0.00039,-5.9999999999999995e-05,-8e-05,4
18341,19119,0.0,9e-05,0.00037,0.0008,0.0002,-0.00033,-0.00013000000000000002,-1e-05,4
18342,19120,-1e-05,-0.00016,-0.0004,0.00011999999999999999,-5e-05,-0.00067,0.00028,0.0001,4
18343,19121,-1e-05,-0.00016,-0.0004,0.00011999999999999999,-5e-05,-0.00067,0.00028,0.0001,4
18344,19122,-1e-05,-0.00016,-0.0004,0.00011999999999999999,-5e-05,-0.00067,0.00028,0.0001,4
18345,19123,-1e-05,-0.00016,-0.0004,0.00011999999999999999,-5e-05,-0.00067,0.00028,0.0001,4
18346,19124,-1e-05,-0.00016,-0.0004,0.00011999999999999999,-5e-05,-0.00067,0.00028,0.0001,4
18347,19125,-1e-05,-0.00016,-0.0004,0.00011999999999999999,-5e-05,-0.00067,0.00028,0.0001,4
18348,19126,-1e-05,-0.00016,-0.0004,0.00011999999999999999,-5e-05,-0.00067,0.00028,0.0001,4
18349,19127,-1e-05,-0.00016,-0.0004,0.00011999999999999999,-5e-05,-0.00067,0.00028,0.0001,4
18350,19128,-1e-05,-0.00016,-0.0004,0.00011999999999999999,-5e-05,-0.00067,0.00028,0.0001,4
18351,19129,-1e-05,-0.00016,-0.0004,0.00011999999999999999,-5e-05,-0.00067,0.00028,0.0001,4
18352,19130,-1e-05,-0.00016,-0.0004,0.00011999999999999999,-5e-05,-0.00067,0.00028,0.0001,4
18353,19131,-1e-05,-0.00016,-0.0004,0.00011999999999999999,-5e-05,-0.00067,0.00028,0.0001,4
18354,19132,-1e-05,-0.00016,-0.0004,0.00011999999999999999,-5e-05,-0.00067,0.00028,0.0001,4
18355,19133,-1e-05,-0.00016,-0.0004,0.00011999999999999999,-5e-05,-0.00067,0.00028,0.0001,4
18356,19134,-1e-05,-0.00016,-0.0004,0.00011999999999999999,-5e-05,-0.00067,0.00028,0.0001,4
18357,19135,-1e-05,-0.00016,-0.0004,0.00011999999999999999,-5e-05,-0.00067,0.00028,0.0001,4
18358,19136,-1e-05,-0.00016,-0.0004,0.00011999999999999999,-5e-05,-0.00067,0.00028,0.0001,4
18359,19139,-1e-05,-0.00016,-0.0004,0.00011999999999999999,-5e-05,-0.00067,0.00028,0.0001,4
18360,19140,-1e-05,-0.00016,-0.0004,0.00011999999999999999,-5e-05,-0.00067,0.00028,0.0001,4
18361,19141,2.9999999999999997e-05,0.0,0.0001,1e-05,0.00091,0.0007,9e-05,2.9999999999999997e-05,4
18362,19142,5e-05,4e-05,4e-05,-0.00025,-0.00032,0.00027,5e-05,2e-05,4
18363,19143,5e-05,4e-05,4e-05,-0.00025,-0.00032,0.00027,5e-05,2e-05,4
18364,19144,5e-05,4e-05,4e-05,-0.00025,-0.00032,0.00027,5e-05,2e-05,4
18365,19145,5e-05,4e-05,4e-05,-0.00025,-0.00032,0.00027,5e-05,2e-05,4
18366,19146,5e-05,4e-05,4e-05,-0.00025,-0.00032,0.00027,5e-05,2e-05,4
18367,19147,5e-05,4e-05,4e-05,-0.00025,-0.00032,0.00027,5e-05,2e-05,4
18368,19148,5e-05,4e-05,4e-05,-0.00025,-0.00032,0.00027,5e-05,2e-05,4
18369,19149,5e-05,4e-05,4e-05,-0.00025,-0.00032,0.00027,5e-05,2e-05,4
18370,19150,5e-05,4e-05,4e-05,-0.00025,-0.00032,0.00027,5e-05,2e-05,4
18371,19151,5e-05,4e-05,4e-05,-0.00025,-0.00032,0.00027,5e-05,2e-05,4
18372,19152,5e-05,4e-05,4e-05,-0.00025,-0.00032,0.00027,5e-05,2e-05,4
18373,19153,5e-05,4e-05,4e-05,-0.00025,-0.00032,0.00027,5e-05,2e-05,4
18374,19154,5e-05,4e-05,4e-05,-0.00025,-0.00032,0.00027,5e-05,2e-05,4
18375,19155,5e-05,4e-05,4e-05,-0.00025,-0.00032,0.00027,5e-05,2e-05,4
18376,19156,-0.0001,-0.00011999999999999999,0.0,0.00067,-0.0009400000000000001,-0.00021,0.00016,-8e-05,4
18377,19158,-0.0001,-0.00011999999999999999,0.0,0.00067,-0.0009400000000000001,-0.00021,0.00016,-8e-05,4
18378,19159,-0.0001,-0.00011999999999999999,0.0,0.00067,-0.0009400000000000001,-0.00021,0.00016,-8e-05,4
18379,19160,-0.0001,-0.00011999999999999999,0.0,0.00067,-0.0009400000000000001,-0.00021,0.00016,-8e-05,4
18380,19161,-0.0001,-0.00011999999999999999,0.0,0.00067,-0.0009400000000000001,-0.00021,0.00016,-8e-05,4
18381,19162,-0.0001,-0.00011999999999999999,0.0,0.00067,-0.0009400000000000001,-0.00021,0.00016,-8e-05,4
18382,19163,-0.0001,-0.00011999999999999999,0.0,0.00067,-0.0009400000000000001,-0.00021,0.00016,-8e-05,4
18383,19164,-0.0001,-0.00011999999999999999,0.0,0.00067,-0.0009400000000000001,-0.00021,0.00016,-8e-05,4
18384,19165,-0.0001,-0.00011999999999999999,0.0,0.00067,-0.0009400000000000001,-0.00021,0.00016,-8e-05,4
18385,19166,-0.0001,-0.00011999999999999999,0.0,0.00067,-0.0009400000000000001,-0.00021,0.00016,-8e-05,4
18386,19167,-0.0001,-0.00011999999999999999,0.0,0.00067,-0.0009400000000000001,-0.00021,0.00016,-8e-05,4
18387,19168,-0.0001,-0.00011999999999999999,0.0,0.00067,-0.0009400000000000001,-0.00021,0.00016,-8e-05,4
18388,19169,-0.0001,-0.00011999999999999999,0.0,0.00067,-0.0009400000000000001,-0.00021,0.00016,-8e-05,4
18389,19170,-0.0001,-0.00011999999999999999,0.0,0.00067,-0.0009400000000000001,-0.00021,0.00016,-8e-05,4
18390,19171,-0.0001,-0.00011999999999999999,0.0,0.00067,-0.0009400000000000001,-0.00021,0.00016,-8e-05,4
18391,19172,-0.0001,-0.00011999999999999999,0.0,0.00067,-0.0009400000000000001,-0.00021,0.00016,-8e-05,4
18392,19173,-0.0001,-0.00011999999999999999,0.0,0.00067,-0.0009400000000000001,-0.00021,0.00016,-8e-05,4
18393,19174,-0.0001,-0.00011999999999999999,0.0,0.00067,-0.0009400000000000001,-0.00021,0.00016,-8e-05,4
18394,19175,-0.0001,-0.00011999999999999999,0.0,0.00067,-0.0009400000000000001,-0.00021,0.00016,-8e-05,4
18395,19176,-0.0001,-0.00011999999999999999,0.0,0.00067,-0.0009400000000000001,-0.00021,0.00016,-8e-05,4
18396,19177,-0.0001,-0.00011999999999999999,0.0,0.00067,-0.0009400000000000001,-0.00021,0.00016,-8e-05,4
18397,19178,-0.0001,-0.00011999999999999999,0.0,0.00067,-0.0009400000000000001,-0.00021,0.00016,-8e-05,4
18398,19179,5.9999999999999995e-05,5.9999999999999995e-05,0.00016999999999999999,-0.00018,-0.0008,-0.00018,-0.00018,-2e-05,4
18399,19180,-2.9999999999999997e-05,-0.0001,-0.00029,0.00021,-5.9999999999999995e-05,-0.00036,-0.00011999999999999999,-2.9999999999999997e-05,4
18400,19181,-2.9999999999999997e-05,-0.0001,-0.00029,0.00021,-5.9999999999999995e-05,-0.00036,-0.00011999999999999999,-2.9999999999999997e-05,4
18401,19182,-2.9999999999999997e-05,-0.0001,-0.00029,0.00021,-5.9999999999999995e-05,-0.00036,-0.00011999999999999999,-2.9999999999999997e-05,4
18402,19183,-2.9999999999999997e-05,-0.0001,-0.00029,0.00021,-5.9999999999999995e-05,-0.00036,-0.00011999999999999999,-2.9999999999999997e-05,4
18403,19184,-2.9999999999999997e-05,-0.0001,-0.00029,0.00021,-5.9999999999999995e-05,-0.00036,-0.00011999999999999999,-2.9999999999999997e-05,4
18404,19185,-2.9999999999999997e-05,-0.0001,-0.00029,0.00021,-5.9999999999999995e-05,-0.00036,-0.00011999999999999999,-2.9999999999999997e-05,4
18405,19186,-2.9999999999999997e-05,-0.0001,-0.00029,0.00021,-5.9999999999999995e-05,-0.00036,-0.00011999999999999999,-2.9999999999999997e-05,4
18406,19188,-2.9999999999999997e-05,-0.0001,-0.00029,0.00021,-5.9999999999999995e-05,-0.00036,-0.00011999999999999999,-2.9999999999999997e-05,4
18407,19189,-2.9999999999999997e-05,-0.0001,-0.00029,0.00021,-5.9999999999999995e-05,-0.00036,-0.00011999999999999999,-2.9999999999999997e-05,4
18408,19190,-2.9999999999999997e-05,-0.0001,-0.00029,0.00021,-5.9999999999999995e-05,-0.00036,-0.00011999999999999999,-2.9999999999999997e-05,4
18409,19191,-2.9999999999999997e-05,-0.0001,-0.00029,0.00021,-5.9999999999999995e-05,-0.00036,-0.00011999999999999999,-2.9999999999999997e-05,4
18410,19192,-2.9999999999999997e-05,-0.0001,-0.00029,0.00021,-5.9999999999999995e-05,-0.00036,-0.00011999999999999999,-2.9999999999999997e-05,4
18411,19193,-2.9999999999999997e-05,-0.0001,-0.00029,0.00021,-5.9999999999999995e-05,-0.00036,-0.00011999999999999999,-2.9999999999999997e-05,4
18412,19194,-2.9999999999999997e-05,-0.0001,-0.00029,0.00021,-5.9999999999999995e-05,-0.00036,-0.00011999999999999999,-2.9999999999999997e-05,4
18413,19195,-2.9999999999999997e-05,-0.0001,-0.00029,0.00021,-5.9999999999999995e-05,-0.00036,-0.00011999999999999999,-2.9999999999999997e-05,4
18414,19196,-2.9999999999999997e-05,-0.0001,-0.00029,0.00021,-5.9999999999999995e-05,-0.00036,-0.00011999999999999999,-2.9999999999999997e-05,4
18415,19197,-2.9999999999999997e-05,-0.0001,-0.00029,0.00021,-5.9999999999999995e-05,-0.00036,-0.00011999999999999999,-2.9999999999999997e-05,4
18416,19198,-2.9999999999999997e-05,-0.0001,-0.00029,0.00021,-5.9999999999999995e-05,-0.00036,-0.00011999999999999999,-2.9999999999999997e-05,4
18417,19199,-2.9999999999999997e-05,-0.0001,-0.00029,0.00021,-5.9999999999999995e-05,-0.00036,-0.00011999999999999999,-2.9999999999999997e-05,4
18418,19200,-2.9999999999999997e-05,-0.0001,-0.00029,0.00021,-5.9999999999999995e-05,-0.00036,-0.00011999999999999999,-2.9999999999999997e-05,4
18419,19201,7e-05,0.00016999999999999999,0.0,0.0005099999999999999,0.00055,4e-05,0.0002,9e-05,4
18420,19202,0.0,-0.0001,-0.00055,-0.00128,-0.0003,-5.9999999999999995e-05,-2.9999999999999997e-05,0.0,4
18421,19203,0.0,-0.0001,-0.00055,-0.00128,-0.0003,-5.9999999999999995e-05,-2.9999999999999997e-05,0.0,4
18422,19204,0.0,-0.0001,-0.00055,-0.00128,-0.0003,-5.9999999999999995e-05,-2.9999999999999997e-05,0.0,4
18423,19205,0.0,-0.0001,-0.00055,-0.00128,-0.0003,-5.9999999999999995e-05,-2.9999999999999997e-05,0.0,4
18424,19206,0.0,-0.0001,-0.00055,-0.00128,-0.0003,-5.9999999999999995e-05,-2.9999999999999997e-05,0.0,4
18425,19207,0.0,-0.0001,-0.00055,-0.00128,-0.0003,-5.9999999999999995e-05,-2.9999999999999997e-05,0.0,4
18426,19208,0.0,-0.0001,-0.00055,-0.00128,-0.0003,-5.9999999999999995e-05,-2.9999999999999997e-05,0.0,4
18427,19209,0.0,-0.0001,-0.00055,-0.00128,-0.0003,-5.9999999999999995e-05,-2.9999999999999997e-05,0.0,4
18428,19210,0.0,-0.0001,-0.00055,-0.00128,-0.0003,-5.9999999999999995e-05,-2.9999999999999997e-05,0.0,4
18429,19211,0.0,-0.0001,-0.00055,-0.00128,-0.0003,-5.9999999999999995e-05,-2.9999999999999997e-05,0.0,4
18430,19212,0.0,-0.0001,-0.00055,-0.00128,-0.0003,-5.9999999999999995e-05,-2.9999999999999997e-05,0.0,4
18431,19213,0.0,-0.0001,-0.00055,-0.00128,-0.0003,-5.9999999999999995e-05,-2.9999999999999997e-05,0.0,4
18432,19214,0.0,-0.0001,-0.00055,-0.00128,-0.0003,-5.9999999999999995e-05,-2.9999999999999997e-05,0.0,4
18433,19215,0.0,-0.0001,-0.00055,-0.00128,-0.0003,-5.9999999999999995e-05,-2.9999999999999997e-05,0.0,4
18434,19216,0.00011,-2e-05,-4e-05,-0.00025,-0.0002,-5.9999999999999995e-05,0.00015,7e-05,4
18435,19217,-4e-05,5e-05,0.0002,2e-05,-0.00042,0.00016999999999999999,-0.00016,-4e-05,4
18436,19218,-4e-05,5e-05,0.0002,2e-05,-0.00042,0.00016999999999999999,-0.00016,-4e-05,4
18437,19219,-4e-05,5e-05,0.0002,2e-05,-0.00042,0.00016999999999999999,-0.00016,-4e-05,4
18438,19220,-4e-05,5e-05,0.0002,2e-05,-0.00042,0.00016999999999999999,-0.00016,-4e-05,4
18439,19221,-4e-05,5e-05,0.0002,2e-05,-0.00042,0.00016999999999999999,-0.00016,-4e-05,4
18440,19222,-4e-05,5e-05,0.0002,2e-05,-0.00042,0.00016999999999999999,-0.00016,-4e-05,4
18441,19223,-4e-05,5e-05,0.0002,2e-05,-0.00042,0.00016999999999999999,-0.00016,-4e-05,4
18442,19224,-4e-05,5e-05,0.0002,2e-05,-0.00042,0.00016999999999999999,-0.00016,-4e-05,4
18443,19225,-4e-05,5e-05,0.0002,2e-05,-0.00042,0.00016999999999999999,-0.00016,-4e-05,4
18444,19226,-4e-05,5e-05,0.0002,2e-05,-0.00042,0.00016999999999999999,-0.00016,-4e-05,4
18445,19227,-4e-05,5e-05,0.0002,2e-05,-0.00042,0.00016999999999999999,-0.00016,-4e-05,4
18446,19228,-4e-05,5e-05,0.0002,2e-05,-0.00042,0.00016999999999999999,-0.00016,-4e-05,4
18447,19229,-4e-05,5e-05,0.0002,2e-05,-0.00042,0.00016999999999999999,-0.00016,-4e-05,4
18448,19230,-4e-05,5e-05,0.0002,2e-05,-0.00042,0.00016999999999999999,-0.00016,-4e-05,4
18449,19231,-4e-05,5e-05,0.0002,2e-05,-0.00042,0.00016999999999999999,-0.00016,-4e-05,4
18450,19232,-4e-05,5e-05,0.0002,2e-05,-0.00042,0.00016999999999999999,-0.00016,-4e-05,4
18451,19233,-4e-05,5e-05,0.0002,2e-05,-0.00042,0.00016999999999999999,-0.00016,-4e-05,4
18452,19234,-4e-05,5e-05,0.0002,2e-05,-0.00042,0.00016999999999999999,-0.00016,-4e-05,4
18453,19235,-4e-05,5e-05,0.0002,2e-05,-0.00042,0.00016999999999999999,-0.00016,-4e-05,4
18454,19236,-4e-05,5e-05,0.0002,2e-05,-0.00042,0.00016999999999999999,-0.00016,-4e-05,4
18455,19239,2e-05,5e-05,0.0004,0.00047999999999999996,-0.00032,-0.00011,0.00018999999999999998,7e-05,4
18456,19240,-0.0002,-0.00018999999999999998,-0.00045,-0.00128,0.0003,0.0002,-0.00016999999999999999,-0.00018,4
18457,19242,-0.0002,-0.00018999999999999998,-0.00045,-0.00128,0.0003,0.0002,-0.00016999999999999999,-0.00018,4
18458,19243,-0.0002,-0.00018999999999999998,-0.00045,-0.00128,0.0003,0.0002,-0.00016999999999999999,-0.00018,4
18459,19244,-0.0002,-0.00018999999999999998,-0.00045,-0.00128,0.0003,0.0002,-0.00016999999999999999,-0.00018,4
18460,19245,-0.0002,-0.00018999999999999998,-0.00045,-0.00128,0.0003,0.0002,-0.00016999999999999999,-0.00018,4
18461,19246,-0.0002,-0.00018999999999999998,-0.00045,-0.00128,0.0003,0.0002,-0.00016999999999999999,-0.00018,4
18462,19247,-0.0002,-0.00018999999999999998,-0.00045,-0.00128,0.0003,0.0002,-0.00016999999999999999,-0.00018,4
18463,19248,-0.0002,-0.00018999999999999998,-0.00045,-0.00128,0.0003,0.0002,-0.00016999999999999999,-0.00018,4
18464,19249,-0.0002,-0.00018999999999999998,-0.00045,-0.00128,0.0003,0.0002,-0.00016999999999999999,-0.00018,4
18465,19250,-0.0002,-0.00018999999999999998,-0.00045,-0.00128,0.0003,0.0002,-0.00016999999999999999,-0.00018,4
18466,19251,-0.0002,-0.00018999999999999998,-0.00045,-0.00128,0.0003,0.0002,-0.00016999999999999999,-0.00018,4
18467,19252,-0.0002,-0.00018999999999999998,-0.00045,-0.00128,0.0003,0.0002,-0.00016999999999999999,-0.00018,4
18468,19253,-0.0002,-0.00018999999999999998,-0.00045,-0.00128,0.0003,0.0002,-0.00016999999999999999,-0.00018,4
18469,19254,-0.0002,-0.00018999999999999998,-0.00045,-0.00128,0.0003,0.0002,-0.00016999999999999999,-0.00018,4
18470,19255,-0.0002,-0.00018999999999999998,-0.00045,-0.00128,0.0003,0.0002,-0.00016999999999999999,-0.00018,4
18471,19256,-0.0002,-0.00018999999999999998,-0.00045,-0.00128,0.0003,0.0002,-0.00016999999999999999,-0.00018,4
18472,19257,-0.0002,-0.00018999999999999998,-0.00045,-0.00128,0.0003,0.0002,-0.00016999999999999999,-0.00018,4
18473,19258,-0.0002,-0.00018999999999999998,-0.00045,-0.00128,0.0003,0.0002,-0.00016999999999999999,-0.00018,4
18474,19259,-0.0002,-0.00018999999999999998,-0.00045,-0.00128,0.0003,0.0002,-0.00016999999999999999,-0.00018,4
18475,19260,-0.0002,-0.00018999999999999998,-0.00045,-0.00128,0.0003,0.0002,-0.00016999999999999999,-0.00018,4
18476,19261,-0.0002,-0.00018999999999999998,-0.00045,-0.00128,0.0003,0.0002,-0.00016999999999999999,-0.00018,4
18477,19262,-0.0002,-0.00018999999999999998,-0.00045,-0.00128,0.0003,0.0002,-0.00016999999999999999,-0.00018,4
18478,19263,2.9999999999999997e-05,-0.00014,0.00011,-0.00016999999999999999,-5.9999999999999995e-05,-2.9999999999999997e-05,0.0,-1e-05,4
18479,19264,7e-05,0.00021,0.00045999999999999996,0.00054,0.00045,0.00054,0.00028,0.00016,4
18480,19265,7e-05,0.00021,0.00045999999999999996,0.00054,0.00045,0.00054,0.00028,0.00016,4
18481,19266,7e-05,0.00021,0.00045999999999999996,0.00054,0.00045,0.00054,0.00028,0.00016,4
18482,19267,7e-05,0.00021,0.00045999999999999996,0.00054,0.00045,0.00054,0.00028,0.00016,4
18483,19268,7e-05,0.00021,0.00045999999999999996,0.00054,0.00045,0.00054,0.00028,0.00016,4
18484,19269,7e-05,0.00021,0.00045999999999999996,0.00054,0.00045,0.00054,0.00028,0.00016,4
18485,19270,7e-05,0.00021,0.00045999999999999996,0.00054,0.00045,0.00054,0.00028,0.00016,4
18486,19271,7e-05,0.00021,0.00045999999999999996,0.00054,0.00045,0.00054,0.00028,0.00016,4
18487,19272,7e-05,0.00021,0.00045999999999999996,0.00054,0.00045,0.00054,0.00028,0.00016,4
18488,19273,7e-05,0.00021,0.00045999999999999996,0.00054,0.00045,0.00054,0.00028,0.00016,4
18489,19274,7e-05,0.00021,0.00045999999999999996,0.00054,0.00045,0.00054,0.00028,0.00016,4
18490,19275,7e-05,0.00021,0.00045999999999999996,0.00054,0.00045,0.00054,0.00028,0.00016,4
18491,19276,7e-05,-2e-05,-0.00022999999999999998,0.00011999999999999999,0.00055,0.0004,0.00022,0.00011999999999999999,4
18492,19277,7e-05,-2e-05,-0.00022999999999999998,0.00011999999999999999,0.00055,0.0004,0.00022,0.00011999999999999999,4
18493,19278,7e-05,-2e-05,-0.00022999999999999998,0.00011999999999999999,0.00055,0.0004,0.00022,0.00011999999999999999,4
18494,19279,7e-05,-2e-05,-0.00022999999999999998,0.00011999999999999999,0.00055,0.0004,0.00022,0.00011999999999999999,4
18495,19280,7e-05,-2e-05,-0.00022999999999999998,0.00011999999999999999,0.00055,0.0004,0.00022,0.00011999999999999999,4
18496,19281,7e-05,-2e-05,-0.00022999999999999998,0.00011999999999999999,0.00055,0.0004,0.00022,0.00011999999999999999,4
18497,19282,7e-05,-2e-05,-0.00022999999999999998,0.00011999999999999999,0.00055,0.0004,0.00022,0.00011999999999999999,4
18498,19283,7e-05,-2e-05,-0.00022999999999999998,0.00011999999999999999,0.00055,0.0004,0.00022,0.00011999999999999999,4
18499,19284,7e-05,-2e-05,-0.00022999999999999998,0.00011999999999999999,0.00055,0.0004,0.00022,0.00011999999999999999,4
18500,19285,7e-05,-2e-05,-0.00022999999999999998,0.00011999999999999999,0.00055,0.0004,0.00022,0.00011999999999999999,4
18501,19286,7e-05,-2e-05,-0.00022999999999999998,0.00011999999999999999,0.00055,0.0004,0.00022,0.00011999999999999999,4
18502,19289,7e-05,-2e-05,-0.00022999999999999998,0.00011999999999999999,0.00055,0.0004,0.00022,0.00011999999999999999,4
18503,19290,7e-05,-2e-05,-0.00022999999999999998,0.00011999999999999999,0.00055,0.0004,0.00022,0.00011999999999999999,4
18504,19291,7e-05,-2e-05,-0.00022999999999999998,0.00011999999999999999,0.00055,0.0004,0.00022,0.00011999999999999999,4
18505,19292,7e-05,-2e-05,-0.00022999999999999998,0.00011999999999999999,0.00055,0.0004,0.00022,0.00011999999999999999,4
18506,19293,7e-05,-2e-05,-0.00022999999999999998,0.00011999999999999999,0.00055,0.0004,0.00022,0.00011999999999999999,4
18507,19294,7e-05,-2e-05,-0.00022999999999999998,0.00011999999999999999,0.00055,0.0004,0.00022,0.00011999999999999999,4
18508,19295,7e-05,-2e-05,-0.00022999999999999998,0.00011999999999999999,0.00055,0.0004,0.00022,0.00011999999999999999,4
18509,19296,7e-05,-2e-05,-0.00022999999999999998,0.00011999999999999999,0.00055,0.0004,0.00022,0.00011999999999999999,4
18510,19297,7e-05,-2e-05,-0.00022999999999999998,0.00011999999999999999,0.00055,0.0004,0.00022,0.00011999999999999999,4
18511,19298,7e-05,-2e-05,-0.00022999999999999998,0.00011999999999999999,0.00055,0.0004,0.00022,0.00011999999999999999,4
18512,19299,-5e-05,-0.00015,-0.00037,-0.00049,-0.00047000000000000004,-0.00011999999999999999,-0.00014,-0.00011999999999999999,4
18513,19300,2e-05,5.9999999999999995e-05,0.00039,0.00013000000000000002,-0.00026000000000000003,-0.00059,0.00016,1e-05,4
18514,19301,2e-05,5.9999999999999995e-05,0.00039,0.00013000000000000002,-0.00026000000000000003,-0.00059,0.00016,1e-05,4
18515,19302,2e-05,5.9999999999999995e-05,0.00039,0.00013000000000000002,-0.00026000000000000003,-0.00059,0.00016,1e-05,4
18516,19303,2e-05,5.9999999999999995e-05,0.00039,0.00013000000000000002,-0.00026000000000000003,-0.00059,0.00016,1e-05,4
18517,19304,2e-05,5.9999999999999995e-05,0.00039,0.00013000000000000002,-0.00026000000000000003,-0.00059,0.00016,1e-05,4
18518,19305,2e-05,5.9999999999999995e-05,0.00039,0.00013000000000000002,-0.00026000000000000003,-0.00059,0.00016,1e-05,4
18519,19306,2e-05,5.9999999999999995e-05,0.00039,0.00013000000000000002,-0.00026000000000000003,-0.00059,0.00016,1e-05,4
18520,19307,2e-05,5.9999999999999995e-05,0.00039,0.00013000000000000002,-0.00026000000000000003,-0.00059,0.00016,1e-05,4
18521,19308,2e-05,5.9999999999999995e-05,0.00039,0.00013000000000000002,-0.00026000000000000003,-0.00059,0.00016,1e-05,4
18522,19309,2e-05,5.9999999999999995e-05,0.00039,0.00013000000000000002,-0.00026000000000000003,-0.00059,0.00016,1e-05,4
18523,19310,2e-05,5.9999999999999995e-05,0.00039,0.00013000000000000002,-0.00026000000000000003,-0.00059,0.00016,1e-05,4
18524,19311,2e-05,5.9999999999999995e-05,0.00039,0.00013000000000000002,-0.00026000000000000003,-0.00059,0.00016,1e-05,4
18525,19312,2e-05,5.9999999999999995e-05,0.00039,0.00013000000000000002,-0.00026000000000000003,-0.00059,0.00016,1e-05,4
18526,19313,2e-05,5.9999999999999995e-05,0.00039,0.00013000000000000002,-0.00026000000000000003,-0.00059,0.00016,1e-05,4
18527,19314,2e-05,5.9999999999999995e-05,0.00039,0.00013000000000000002,-0.00026000000000000003,-0.00059,0.00016,1e-05,4
18528,19315,2e-05,5.9999999999999995e-05,0.00039,0.00013000000000000002,-0.00026000000000000003,-0.00059,0.00016,1e-05,4
18529,19316,2e-05,5.9999999999999995e-05,0.00039,0.00013000000000000002,-0.00026000000000000003,-0.00059,0.00016,1e-05,4
18530,19317,2e-05,5.9999999999999995e-05,0.00039,0.00013000000000000002,-0.00026000000000000003,-0.00059,0.00016,1e-05,4
18531,19318,2e-05,5.9999999999999995e-05,0.00039,0.00013000000000000002,-0.00026000000000000003,-0.00059,0.00016,1e-05,4
18532,19319,2e-05,5.9999999999999995e-05,0.00039,0.00013000000000000002,-0.00026000000000000003,-0.00059,0.00016,1e-05,4
18533,19320,2e-05,5.9999999999999995e-05,0.00039,0.00013000000000000002,-0.00026000000000000003,-0.00059,0.00016,1e-05,4
18534,19321,4e-05,8e-05,0.00027,0.0001,-0.00088,-0.0004,4e-05,5e-05,4
18535,19322,-2e-05,-5.9999999999999995e-05,-1e-05,0.00032,-0.00016999999999999999,-0.00035,-0.00014,-4e-05,4
18536,19323,-2e-05,-5.9999999999999995e-05,-1e-05,0.00032,-0.00016999999999999999,-0.00035,-0.00014,-4e-05,4
18537,19324,-2e-05,-5.9999999999999995e-05,-1e-05,0.00032,-0.00016999999999999999,-0.00035,-0.00014,-4e-05,4
18538,19325,-2e-05,-5.9999999999999995e-05,-1e-05,0.00032,-0.00016999999999999999,-0.00035,-0.00014,-4e-05,4
18539,19326,-2e-05,-5.9999999999999995e-05,-1e-05,0.00032,-0.00016999999999999999,-0.00035,-0.00014,-4e-05,4
18540,19327,-2e-05,-5.9999999999999995e-05,-1e-05,0.00032,-0.00016999999999999999,-0.00035,-0.00014,-4e-05,4
18541,19328,-2e-05,-5.9999999999999995e-05,-1e-05,0.00032,-0.00016999999999999999,-0.00035,-0.00014,-4e-05,4
18542,19329,-2e-05,-5.9999999999999995e-05,-1e-05,0.00032,-0.00016999999999999999,-0.00035,-0.00014,-4e-05,4
18543,19330,-2e-05,-5.9999999999999995e-05,-1e-05,0.00032,-0.00016999999999999999,-0.00035,-0.00014,-4e-05,4
18544,19331,-2e-05,-5.9999999999999995e-05,-1e-05,0.00032,-0.00016999999999999999,-0.00035,-0.00014,-4e-05,4
18545,19332,-2e-05,-5.9999999999999995e-05,-1e-05,0.00032,-0.00016999999999999999,-0.00035,-0.00014,-4e-05,4
18546,19333,-2e-05,-5.9999999999999995e-05,-1e-05,0.00032,-0.00016999999999999999,-0.00035,-0.00014,-4e-05,4
18547,19334,-2e-05,-5.9999999999999995e-05,-1e-05,0.00032,-0.00016999999999999999,-0.00035,-0.00014,-4e-05,4
18548,19335,-0.0002,-0.00028,-0.00062,-0.00032,-0.00065,0.00025,-0.00027,-0.00022,4
18549,19336,5e-05,8e-05,0.00027,5.9999999999999995e-05,-0.0005,-5e-05,-0.0001,-2e-05,4
18550,19339,5e-05,8e-05,0.00027,5.9999999999999995e-05,-0.0005,-5e-05,-0.0001,-2e-05,4
18551,19340,5e-05,8e-05,0.00027,5.9999999999999995e-05,-0.0005,-5e-05,-0.0001,-2e-05,4
18552,19341,5e-05,8e-05,0.00027,5.9999999999999995e-05,-0.0005,-5e-05,-0.0001,-2e-05,4
18553,19342,5e-05,8e-05,0.00027,5.9999999999999995e-05,-0.0005,-5e-05,-0.0001,-2e-05,4
18554,19343,5e-05,8e-05,0.00027,5.9999999999999995e-05,-0.0005,-5e-05,-0.0001,-2e-05,4
18555,19344,5e-05,8e-05,0.00027,5.9999999999999995e-05,-0.0005,-5e-05,-0.0001,-2e-05,4
18556,19345,5e-05,8e-05,0.00027,5.9999999999999995e-05,-0.0005,-5e-05,-0.0001,-2e-05,4
18557,19346,5e-05,8e-05,0.00027,5.9999999999999995e-05,-0.0005,-5e-05,-0.0001,-2e-05,4
18558,19347,5e-05,8e-05,0.00027,5.9999999999999995e-05,-0.0005,-5e-05,-0.0001,-2e-05,4
18559,19348,5e-05,8e-05,0.00027,5.9999999999999995e-05,-0.0005,-5e-05,-0.0001,-2e-05,4
18560,19349,5e-05,8e-05,0.00027,5.9999999999999995e-05,-0.0005,-5e-05,-0.0001,-2e-05,4
18561,19350,5e-05,8e-05,0.00027,5.9999999999999995e-05,-0.0005,-5e-05,-0.0001,-2e-05,4
18562,19351,5e-05,8e-05,0.00027,5.9999999999999995e-05,-0.0005,-5e-05,-0.0001,-2e-05,4
18563,19352,5e-05,8e-05,0.00027,5.9999999999999995e-05,-0.0005,-5e-05,-0.0001,-2e-05,4
18564,19353,5e-05,8e-05,0.00027,5.9999999999999995e-05,-0.0005,-5e-05,-0.0001,-2e-05,4
18565,19354,5e-05,8e-05,0.00027,5.9999999999999995e-05,-0.0005,-5e-05,-0.0001,-2e-05,4
18566,19355,5e-05,8e-05,0.00027,5.9999999999999995e-05,-0.0005,-5e-05,-0.0001,-2e-05,4
18567,19356,5e-05,8e-05,0.00027,5.9999999999999995e-05,-0.0005,-5e-05,-0.0001,-2e-05,4
18568,19357,5e-05,8e-05,0.00027,5.9999999999999995e-05,-0.0005,-5e-05,-0.0001,-2e-05,4
18569,19358,5e-05,8e-05,0.00027,5.9999999999999995e-05,-0.0005,-5e-05,-0.0001,-2e-05,4
18570,19359,2e-05,-7e-05,-4e-05,-8e-05,-0.0006900000000000001,-0.00013000000000000002,-0.00016,2.9999999999999997e-05,4
18571,19360,-0.00021,-0.00032,-0.00081,-0.00106,-0.00079,-0.00057,-0.00016999999999999999,-0.0002,4
18572,19361,-0.00021,-0.00032,-0.00081,-0.00106,-0.00079,-0.00057,-0.00016999999999999999,-0.0002,4
18573,19362,-0.00021,-0.00032,-0.00081,-0.00106,-0.00079,-0.00057,-0.00016999999999999999,-0.0002,4
18574,19363,-0.00021,-0.00032,-0.00081,-0.00106,-0.00079,-0.00057,-0.00016999999999999999,-0.0002,4
18575,19364,-0.00021,-0.00032,-0.00081,-0.00106,-0.00079,-0.00057,-0.00016999999999999999,-0.0002,4
18576,19365,-0.00021,-0.00032,-0.00081,-0.00106,-0.00079,-0.00057,-0.00016999999999999999,-0.0002,4
18577,19366,-0.00021,-0.00032,-0.00081,-0.00106,-0.00079,-0.00057,-0.00016999999999999999,-0.0002,4
18578,19367,-0.00021,-0.00032,-0.00081,-0.00106,-0.00079,-0.00057,-0.00016999999999999999,-0.0002,4
18579,19368,-0.00021,-0.00032,-0.00081,-0.00106,-0.00079,-0.00057,-0.00016999999999999999,-0.0002,4
18580,19369,-0.00021,-0.00032,-0.00081,-0.00106,-0.00079,-0.00057,-0.00016999999999999999,-0.0002,4
18581,19370,-0.00021,-0.00032,-0.00081,-0.00106,-0.00079,-0.00057,-0.00016999999999999999,-0.0002,4
18582,19371,-0.00021,-0.00032,-0.00081,-0.00106,-0.00079,-0.00057,-0.00016999999999999999,-0.0002,4
18583,19372,-0.00021,-0.00032,-0.00081,-0.00106,-0.00079,-0.00057,-0.00016999999999999999,-0.0002,4
18584,19373,-0.00021,-0.00032,-0.00081,-0.00106,-0.00079,-0.00057,-0.00016999999999999999,-0.0002,4
18585,19374,-0.00021,-0.00032,-0.00081,-0.00106,-0.00079,-0.00057,-0.00016999999999999999,-0.0002,4
18586,19375,-0.00021,-0.00032,-0.00081,-0.00106,-0.00079,-0.00057,-0.00016999999999999999,-0.0002,4
18587,19376,-0.00021,-0.00032,-0.00081,-0.00106,-0.00079,-0.00057,-0.00016999999999999999,-0.0002,4
18588,19377,-0.00021,-0.00032,-0.00081,-0.00106,-0.00079,-0.00057,-0.00016999999999999999,-0.0002,4
18589,19378,-0.00021,-0.00032,-0.00081,-0.00106,-0.00079,-0.00057,-0.00016999999999999999,-0.0002,4
18590,19379,-0.00021,-0.00032,-0.00081,-0.00106,-0.00079,-0.00057,-0.00016999999999999999,-0.0002,4
18591,19380,-0.00021,-0.00032,-0.00081,-0.00106,-0.00079,-0.00057,-0.00016999999999999999,-0.0002,4
18592,19381,-4e-05,-8e-05,-0.0002,-0.0003,-0.0005,-0.0003,1e-05,-2e-05,4
18593,19382,-2.9999999999999997e-05,-4e-05,-2.9999999999999997e-05,9e-05,7e-05,0.00018999999999999998,-9e-05,-9e-05,4
18594,19383,-2.9999999999999997e-05,-4e-05,-2.9999999999999997e-05,9e-05,7e-05,0.00018999999999999998,-9e-05,-9e-05,4
18595,19384,-2.9999999999999997e-05,-4e-05,-2.9999999999999997e-05,9e-05,7e-05,0.00018999999999999998,-9e-05,-9e-05,4
18596,19385,-2.9999999999999997e-05,-4e-05,-2.9999999999999997e-05,9e-05,7e-05,0.00018999999999999998,-9e-05,-9e-05,4
18597,19386,-2.9999999999999997e-05,-4e-05,-2.9999999999999997e-05,9e-05,7e-05,0.00018999999999999998,-9e-05,-9e-05,4
18598,19388,-2.9999999999999997e-05,-4e-05,-2.9999999999999997e-05,9e-05,7e-05,0.00018999999999999998,-9e-05,-9e-05,4
18599,19389,-2.9999999999999997e-05,-4e-05,-2.9999999999999997e-05,9e-05,7e-05,0.00018999999999999998,-9e-05,-9e-05,4
18600,19390,-2.9999999999999997e-05,-4e-05,-2.9999999999999997e-05,9e-05,7e-05,0.00018999999999999998,-9e-05,-9e-05,4
18601,19391,-2.9999999999999997e-05,-4e-05,-2.9999999999999997e-05,9e-05,7e-05,0.00018999999999999998,-9e-05,-9e-05,4
18602,19392,-2.9999999999999997e-05,-4e-05,-2.9999999999999997e-05,9e-05,7e-05,0.00018999999999999998,-9e-05,-9e-05,4
18603,19393,-2.9999999999999997e-05,-4e-05,-2.9999999999999997e-05,9e-05,7e-05,0.00018999999999999998,-9e-05,-9e-05,4
18604,19394,-2.9999999999999997e-05,-4e-05,-2.9999999999999997e-05,9e-05,7e-05,0.00018999999999999998,-9e-05,-9e-05,4
18605,19395,-2.9999999999999997e-05,-4e-05,-2.9999999999999997e-05,9e-05,7e-05,0.00018999999999999998,-9e-05,-9e-05,4
18606,19396,2e-05,8e-05,0.00029,0.00075,0.00026000000000000003,0.00016,0.00015,5e-05,4
18607,19397,9e-05,8e-05,0.00011999999999999999,-4e-05,0.0009699999999999999,0.0003,-8e-05,2.9999999999999997e-05,4
18608,19398,9e-05,8e-05,0.00011999999999999999,-4e-05,0.0009699999999999999,0.0003,-8e-05,2.9999999999999997e-05,4
18609,19399,9e-05,8e-05,0.00011999999999999999,-4e-05,0.0009699999999999999,0.0003,-8e-05,2.9999999999999997e-05,4
18610,19400,9e-05,8e-05,0.00011999999999999999,-4e-05,0.0009699999999999999,0.0003,-8e-05,2.9999999999999997e-05,4
18611,19401,9e-05,8e-05,0.00011999999999999999,-4e-05,0.0009699999999999999,0.0003,-8e-05,2.9999999999999997e-05,4
18612,19402,9e-05,8e-05,0.00011999999999999999,-4e-05,0.0009699999999999999,0.0003,-8e-05,2.9999999999999997e-05,4
18613,19403,9e-05,8e-05,0.00011999999999999999,-4e-05,0.0009699999999999999,0.0003,-8e-05,2.9999999999999997e-05,4
18614,19404,9e-05,8e-05,0.00011999999999999999,-4e-05,0.0009699999999999999,0.0003,-8e-05,2.9999999999999997e-05,4
18615,19405,9e-05,8e-05,0.00011999999999999999,-4e-05,0.0009699999999999999,0.0003,-8e-05,2.9999999999999997e-05,4
18616,19406,9e-05,8e-05,0.00011999999999999999,-4e-05,0.0009699999999999999,0.0003,-8e-05,2.9999999999999997e-05,4
18617,19407,9e-05,8e-05,0.00011999999999999999,-4e-05,0.0009699999999999999,0.0003,-8e-05,2.9999999999999997e-05,4
18618,19408,9e-05,8e-05,0.00011999999999999999,-4e-05,0.0009699999999999999,0.0003,-8e-05,2.9999999999999997e-05,4
18619,19409,9e-05,8e-05,0.00011999999999999999,-4e-05,0.0009699999999999999,0.0003,-8e-05,2.9999999999999997e-05,4
18620,19410,9e-05,8e-05,0.00011999999999999999,-4e-05,0.0009699999999999999,0.0003,-8e-05,2.9999999999999997e-05,4
18621,19411,9e-05,8e-05,0.00011999999999999999,-4e-05,0.0009699999999999999,0.0003,-8e-05,2.9999999999999997e-05,4
18622,19412,9e-05,8e-05,0.00011999999999999999,-4e-05,0.0009699999999999999,0.0003,-8e-05,2.9999999999999997e-05,4
18623,19413,9e-05,8e-05,0.00011999999999999999,-4e-05,0.0009699999999999999,0.0003,-8e-05,2.9999999999999997e-05,4
18624,19414,9e-05,8e-05,0.00011999999999999999,-4e-05,0.0009699999999999999,0.0003,-8e-05,2.9999999999999997e-05,4
18625,19415,9e-05,8e-05,0.00011999999999999999,-4e-05,0.0009699999999999999,0.0003,-8e-05,2.9999999999999997e-05,4
18626,19416,9e-05,8e-05,0.00011999999999999999,-4e-05,0.0009699999999999999,0.0003,-8e-05,2.9999999999999997e-05,4
18627,19417,9e-05,8e-05,0.00011999999999999999,-4e-05,0.0009699999999999999,0.0003,-8e-05,2.9999999999999997e-05,4
18628,19418,9e-05,8e-05,0.00011999999999999999,-4e-05,0.0009699999999999999,0.0003,-8e-05,2.9999999999999997e-05,4
18629,19419,-5e-05,-8e-05,0.00023999999999999998,-0.0005,0.00023999999999999998,-7e-05,-0.00023999999999999998,-0.00014,4
18630,19420,-2e-05,-0.00011,-0.00016,-0.00042,-0.00116,-0.00041,-0.00011,1e-05,4
18631,19422,-2e-05,-0.00011,-0.00016,-0.00042,-0.00116,-0.00041,-0.00011,1e-05,4
18632,19423,-2e-05,-0.00011,-0.00016,-0.00042,-0.00116,-0.00041,-0.00011,1e-05,4
18633,19424,-2e-05,-0.00011,-0.00016,-0.00042,-0.00116,-0.00041,-0.00011,1e-05,4
18634,19425,-2e-05,-0.00011,-0.00016,-0.00042,-0.00116,-0.00041,-0.00011,1e-05,4
18635,19426,-2e-05,-0.00011,-0.00016,-0.00042,-0.00116,-0.00041,-0.00011,1e-05,4
18636,19427,-2e-05,-0.00011,-0.00016,-0.00042,-0.00116,-0.00041,-0.00011,1e-05,4
18637,19428,-2e-05,-0.00011,-0.00016,-0.00042,-0.00116,-0.00041,-0.00011,1e-05,4
18638,19429,-2e-05,-0.00011,-0.00016,-0.00042,-0.00116,-0.00041,-0.00011,1e-05,4
18639,19430,-2e-05,-0.00011,-0.00016,-0.00042,-0.00116,-0.00041,-0.00011,1e-05,4
18640,19431,-2e-05,-0.00011,-0.00016,-0.00042,-0.00116,-0.00041,-0.00011,1e-05,4
18641,19432,-2e-05,-0.00011,-0.00016,-0.00042,-0.00116,-0.00041,-0.00011,1e-05,4
18642,19433,-2e-05,-0.00011,-0.00016,-0.00042,-0.00116,-0.00041,-0.00011,1e-05,4
18643,19434,-2e-05,-0.00011,-0.00016,-0.00042,-0.00116,-0.00041,-0.00011,1e-05,4
18644,19435,-2e-05,-0.00011,-0.00016,-0.00042,-0.00116,-0.00041,-0.00011,1e-05,4
18645,19436,-2e-05,-0.00011,-0.00016,-0.00042,-0.00116,-0.00041,-0.00011,1e-05,4
18646,19438,-2e-05,-0.00011,-0.00016,-0.00042,-0.00116,-0.00041,-0.00011,1e-05,4
18647,19439,-2e-05,-0.00011,-0.00016,-0.00042,-0.00116,-0.00041,-0.00011,1e-05,4
18648,19440,-2e-05,-0.00011,-0.00016,-0.00042,-0.00116,-0.00041,-0.00011,1e-05,4
18649,19441,0.00016999999999999999,0.00015,0.00015,-8e-05,8e-05,0.00021,2.9999999999999997e-05,0.0001,4
18650,19442,5e-05,4e-05,-0.00018,0.0008300000000000001,0.00073,0.00015,5e-05,5e-05,4
18651,19443,5e-05,4e-05,-0.00018,0.0008300000000000001,0.00073,0.00015,5e-05,5e-05,4
18652,19444,5e-05,4e-05,-0.00018,0.0008300000000000001,0.00073,0.00015,5e-05,5e-05,4
18653,19445,5e-05,4e-05,-0.00018,0.0008300000000000001,0.00073,0.00015,5e-05,5e-05,4
18654,19446,5e-05,4e-05,-0.00018,0.0008300000000000001,0.00073,0.00015,5e-05,5e-05,4
18655,19447,5e-05,4e-05,-0.00018,0.0008300000000000001,0.00073,0.00015,5e-05,5e-05,4
18656,19448,5e-05,4e-05,-0.00018,0.0008300000000000001,0.00073,0.00015,5e-05,5e-05,4
18657,19449,5e-05,4e-05,-0.00018,0.0008300000000000001,0.00073,0.00015,5e-05,5e-05,4
18658,19450,5e-05,4e-05,-0.00018,0.0008300000000000001,0.00073,0.00015,5e-05,5e-05,4
18659,19451,5e-05,4e-05,-0.00018,0.0008300000000000001,0.00073,0.00015,5e-05,5e-05,4
18660,19452,5e-05,4e-05,-0.00018,0.0008300000000000001,0.00073,0.00015,5e-05,5e-05,4
18661,19453,5e-05,4e-05,-0.00018,0.0008300000000000001,0.00073,0.00015,5e-05,5e-05,4
18662,19454,5e-05,4e-05,-0.00018,0.0008300000000000001,0.00073,0.00015,5e-05,5e-05,4
18663,19455,5e-05,4e-05,-0.00018,0.0008300000000000001,0.00073,0.00015,5e-05,5e-05,4
18664,19456,1e-05,-2.9999999999999997e-05,-0.00021,0.00045,0.0001,0.00033,-2e-05,-4e-05,4
18665,19457,-2e-05,8e-05,0.00035,-0.00014,-0.0008900000000000001,-0.00042,-0.0001,-5e-05,4
18666,19458,-2e-05,8e-05,0.00035,-0.00014,-0.0008900000000000001,-0.00042,-0.0001,-5e-05,4
18667,19459,-2e-05,8e-05,0.00035,-0.00014,-0.0008900000000000001,-0.00042,-0.0001,-5e-05,4
18668,19460,-2e-05,8e-05,0.00035,-0.00014,-0.0008900000000000001,-0.00042,-0.0001,-5e-05,4
18669,19461,-2e-05,8e-05,0.00035,-0.00014,-0.0008900000000000001,-0.00042,-0.0001,-5e-05,4
18670,19462,-2e-05,8e-05,0.00035,-0.00014,-0.0008900000000000001,-0.00042,-0.0001,-5e-05,4
18671,19463,-2e-05,8e-05,0.00035,-0.00014,-0.0008900000000000001,-0.00042,-0.0001,-5e-05,4
18672,19464,-2e-05,8e-05,0.00035,-0.00014,-0.0008900000000000001,-0.00042,-0.0001,-5e-05,4
18673,19465,-2e-05,8e-05,0.00035,-0.00014,-0.0008900000000000001,-0.00042,-0.0001,-5e-05,4
18674,19466,-2e-05,8e-05,0.00035,-0.00014,-0.0008900000000000001,-0.00042,-0.0001,-5e-05,4
18675,19467,-2e-05,8e-05,0.00035,-0.00014,-0.0008900000000000001,-0.00042,-0.0001,-5e-05,4
18676,19468,-2e-05,8e-05,0.00035,-0.00014,-0.0008900000000000001,-0.00042,-0.0001,-5e-05,4
18677,19469,-2e-05,8e-05,0.00035,-0.00014,-0.0008900000000000001,-0.00042,-0.0001,-5e-05,4
18678,19470,-2e-05,8e-05,0.00035,-0.00014,-0.0008900000000000001,-0.00042,-0.0001,-5e-05,4
18679,19471,-2e-05,8e-05,0.00035,-0.00014,-0.0008900000000000001,-0.00042,-0.0001,-5e-05,4
18680,19472,-2e-05,8e-05,0.00035,-0.00014,-0.0008900000000000001,-0.00042,-0.0001,-5e-05,4
18681,19473,-2e-05,8e-05,0.00035,-0.00014,-0.0008900000000000001,-0.00042,-0.0001,-5e-05,4
18682,19474,-2e-05,8e-05,0.00035,-0.00014,-0.0008900000000000001,-0.00042,-0.0001,-5e-05,4
18683,19475,-2e-05,8e-05,0.00035,-0.00014,-0.0008900000000000001,-0.00042,-0.0001,-5e-05,4
18684,19476,-2e-05,8e-05,0.00035,-0.00014,-0.0008900000000000001,-0.00042,-0.0001,-5e-05,4
18685,19477,-2e-05,8e-05,0.00035,-0.00014,-0.0008900000000000001,-0.00042,-0.0001,-5e-05,4
18686,19478,-2e-05,8e-05,0.00035,-0.00014,-0.0008900000000000001,-0.00042,-0.0001,-5e-05,4
18687,19479,-8e-05,-0.00014,-0.00049,-0.00015,-0.00065,-0.0007700000000000001,-0.00022999999999999998,-0.0001,4
18688,19480,8e-05,0.00022,0.00033999999999999997,0.00045,0.0007700000000000001,1e-05,0.00022999999999999998,0.00013000000000000002,4
18689,19481,-2.9999999999999997e-05,0.00011,0.0006900000000000001,0.00108,-0.00067,-0.00021,-7e-05,-2.9999999999999997e-05,4
18690,19482,-2.9999999999999997e-05,0.00011,0.0006900000000000001,0.00108,-0.00067,-0.00021,-7e-05,-2.9999999999999997e-05,4
18691,19483,-2.9999999999999997e-05,0.00011,0.0006900000000000001,0.00108,-0.00067,-0.00021,-7e-05,-2.9999999999999997e-05,4
18692,19484,-2.9999999999999997e-05,0.00011,0.0006900000000000001,0.00108,-0.00067,-0.00021,-7e-05,-2.9999999999999997e-05,4
18693,19485,-2.9999999999999997e-05,0.00011,0.0006900000000000001,0.00108,-0.00067,-0.00021,-7e-05,-2.9999999999999997e-05,4
18694,19486,-2.9999999999999997e-05,0.00011,0.0006900000000000001,0.00108,-0.00067,-0.00021,-7e-05,-2.9999999999999997e-05,4
18695,19489,-2.9999999999999997e-05,0.00011,0.0006900000000000001,0.00108,-0.00067,-0.00021,-7e-05,-2.9999999999999997e-05,4
18696,19490,-2.9999999999999997e-05,0.00011,0.0006900000000000001,0.00108,-0.00067,-0.00021,-7e-05,-2.9999999999999997e-05,4
18697,19491,-2.9999999999999997e-05,0.00011,0.0006900000000000001,0.00108,-0.00067,-0.00021,-7e-05,-2.9999999999999997e-05,4
18698,19492,-2.9999999999999997e-05,0.00011,0.0006900000000000001,0.00108,-0.00067,-0.00021,-7e-05,-2.9999999999999997e-05,4
18699,19493,-2.9999999999999997e-05,0.00011,0.0006900000000000001,0.00108,-0.00067,-0.00021,-7e-05,-2.9999999999999997e-05,4
18700,19494,-2.9999999999999997e-05,0.00011,0.0006900000000000001,0.00108,-0.00067,-0.00021,-7e-05,-2.9999999999999997e-05,4
18701,19495,-2.9999999999999997e-05,0.00011,0.0006900000000000001,0.00108,-0.00067,-0.00021,-7e-05,-2.9999999999999997e-05,4
18702,19496,-2.9999999999999997e-05,0.00011,0.0006900000000000001,0.00108,-0.00067,-0.00021,-7e-05,-2.9999999999999997e-05,4
18703,19497,-2.9999999999999997e-05,0.00011,0.0006900000000000001,0.00108,-0.00067,-0.00021,-7e-05,-2.9999999999999997e-05,4
18704,19498,-2.9999999999999997e-05,0.00011,0.0006900000000000001,0.00108,-0.00067,-0.00021,-7e-05,-2.9999999999999997e-05,4
18705,19499,-2.9999999999999997e-05,0.00011,0.0006900000000000001,0.00108,-0.00067,-0.00021,-7e-05,-2.9999999999999997e-05,4
18706,19500,-2.9999999999999997e-05,0.00011,0.0006900000000000001,0.00108,-0.00067,-0.00021,-7e-05,-2.9999999999999997e-05,4
18707,19501,4e-05,0.00016,0.0006799999999999999,0.0012699999999999999,0.0002,-0.00037,-0.00013000000000000002,-2e-05,4
18708,19502,5.9999999999999995e-05,1e-05,0.00014,-0.00047999999999999996,-7e-05,0.00027,0.00013000000000000002,5e-05,4
18709,19503,5.9999999999999995e-05,1e-05,0.00014,-0.00047999999999999996,-7e-05,0.00027,0.00013000000000000002,5e-05,4
18710,19504,5.9999999999999995e-05,1e-05,0.00014,-0.00047999999999999996,-7e-05,0.00027,0.00013000000000000002,5e-05,4
18711,19505,5.9999999999999995e-05,1e-05,0.00014,-0.00047999999999999996,-7e-05,0.00027,0.00013000000000000002,5e-05,4
18712,19506,5.9999999999999995e-05,1e-05,0.00014,-0.00047999999999999996,-7e-05,0.00027,0.00013000000000000002,5e-05,4
18713,19507,5.9999999999999995e-05,1e-05,0.00014,-0.00047999999999999996,-7e-05,0.00027,0.00013000000000000002,5e-05,4
18714,19508,5.9999999999999995e-05,1e-05,0.00014,-0.00047999999999999996,-7e-05,0.00027,0.00013000000000000002,5e-05,4
18715,19509,5.9999999999999995e-05,1e-05,0.00014,-0.00047999999999999996,-7e-05,0.00027,0.00013000000000000002,5e-05,4
18716,19510,5.9999999999999995e-05,1e-05,0.00014,-0.00047999999999999996,-7e-05,0.00027,0.00013000000000000002,5e-05,4
18717,19511,5.9999999999999995e-05,1e-05,0.00014,-0.00047999999999999996,-7e-05,0.00027,0.00013000000000000002,5e-05,4
18718,19512,5.9999999999999995e-05,1e-05,0.00014,-0.00047999999999999996,-7e-05,0.00027,0.00013000000000000002,5e-05,4
18719,19513,5.9999999999999995e-05,1e-05,0.00014,-0.00047999999999999996,-7e-05,0.00027,0.00013000000000000002,5e-05,4
18720,19514,5.9999999999999995e-05,1e-05,0.00014,-0.00047999999999999996,-7e-05,0.00027,0.00013000000000000002,5e-05,4
18721,19515,5.9999999999999995e-05,1e-05,0.00014,-0.00047999999999999996,-7e-05,0.00027,0.00013000000000000002,5e-05,4
18722,19516,4e-05,5e-05,0.00035,0.0009199999999999999,-0.00049,-1e-05,2e-05,-2.9999999999999997e-05,4
18723,19517,-7e-05,-0.0001,-5e-05,0.00014,0.00059,0.00098,0.00018,2.9999999999999997e-05,4
18724,19518,-7e-05,-0.0001,-5e-05,0.00014,0.00059,0.00098,0.00018,2.9999999999999997e-05,4
18725,19519,-7e-05,-0.0001,-5e-05,0.00014,0.00059,0.00098,0.00018,2.9999999999999997e-05,4
18726,19520,-7e-05,-0.0001,-5e-05,0.00014,0.00059,0.00098,0.00018,2.9999999999999997e-05,4
18727,19521,-7e-05,-0.0001,-5e-05,0.00014,0.00059,0.00098,0.00018,2.9999999999999997e-05,4
18728,19522,-7e-05,-0.0001,-5e-05,0.00014,0.00059,0.00098,0.00018,2.9999999999999997e-05,4
18729,19523,-7e-05,-0.0001,-5e-05,0.00014,0.00059,0.00098,0.00018,2.9999999999999997e-05,4
18730,19524,-7e-05,-0.0001,-5e-05,0.00014,0.00059,0.00098,0.00018,2.9999999999999997e-05,4
18731,19525,-7e-05,-0.0001,-5e-05,0.00014,0.00059,0.00098,0.00018,2.9999999999999997e-05,4
18732,19526,-7e-05,-0.0001,-5e-05,0.00014,0.00059,0.00098,0.00018,2.9999999999999997e-05,4
18733,19527,-7e-05,-0.0001,-5e-05,0.00014,0.00059,0.00098,0.00018,2.9999999999999997e-05,4
18734,19528,-7e-05,-0.0001,-5e-05,0.00014,0.00059,0.00098,0.00018,2.9999999999999997e-05,4
18735,19529,-7e-05,-0.0001,-5e-05,0.00014,0.00059,0.00098,0.00018,2.9999999999999997e-05,4
18736,19530,-7e-05,-0.0001,-5e-05,0.00014,0.00059,0.00098,0.00018,2.9999999999999997e-05,4
18737,19531,-7e-05,-0.0001,-5e-05,0.00014,0.00059,0.00098,0.00018,2.9999999999999997e-05,4
18738,19532,-7e-05,-0.0001,-5e-05,0.00014,0.00059,0.00098,0.00018,2.9999999999999997e-05,4
18739,19533,-7e-05,-0.0001,-5e-05,0.00014,0.00059,0.00098,0.00018,2.9999999999999997e-05,4
18740,19534,-7e-05,-0.0001,-5e-05,0.00014,0.00059,0.00098,0.00018,2.9999999999999997e-05,4
18741,19535,-7e-05,-0.0001,-5e-05,0.00014,0.00059,0.00098,0.00018,2.9999999999999997e-05,4
18742,19536,-7e-05,-0.0001,-5e-05,0.00014,0.00059,0.00098,0.00018,2.9999999999999997e-05,4
18743,19538,0.0,1e-05,0.00025,-0.00031,-0.00106,-0.00033999999999999997,-1e-05,-1e-05,4
18744,19539,-8e-05,0.0,0.0,0.00011,0.00041,-0.00031,-0.00016999999999999999,-5.9999999999999995e-05,4
18745,19540,0.00014,0.00026000000000000003,0.00039,0.00013000000000000002,-2.9999999999999997e-05,0.00045,0.00023999999999999998,0.00011,4
18746,19541,0.00014,0.00026000000000000003,0.00039,0.00013000000000000002,-2.9999999999999997e-05,0.00045,0.00023999999999999998,0.00011,4
18747,19542,0.00014,0.00026000000000000003,0.00039,0.00013000000000000002,-2.9999999999999997e-05,0.00045,0.00023999999999999998,0.00011,4
18748,19543,0.00014,0.00026000000000000003,0.00039,0.00013000000000000002,-2.9999999999999997e-05,0.00045,0.00023999999999999998,0.00011,4
18749,19544,0.00014,0.00026000000000000003,0.00039,0.00013000000000000002,-2.9999999999999997e-05,0.00045,0.00023999999999999998,0.00011,4
18750,19545,0.00014,0.00026000000000000003,0.00039,0.00013000000000000002,-2.9999999999999997e-05,0.00045,0.00023999999999999998,0.00011,4
18751,19546,0.00014,0.00026000000000000003,0.00039,0.00013000000000000002,-2.9999999999999997e-05,0.00045,0.00023999999999999998,0.00011,4
18752,19547,0.00014,0.00026000000000000003,0.00039,0.00013000000000000002,-2.9999999999999997e-05,0.00045,0.00023999999999999998,0.00011,4
18753,19548,0.00014,0.00026000000000000003,0.00039,0.00013000000000000002,-2.9999999999999997e-05,0.00045,0.00023999999999999998,0.00011,4
18754,19549,0.00014,0.00026000000000000003,0.00039,0.00013000000000000002,-2.9999999999999997e-05,0.00045,0.00023999999999999998,0.00011,4
18755,19550,0.00014,0.00026000000000000003,0.00039,0.00013000000000000002,-2.9999999999999997e-05,0.00045,0.00023999999999999998,0.00011,4
18756,19551,0.00014,0.00026000000000000003,0.00039,0.00013000000000000002,-2.9999999999999997e-05,0.00045,0.00023999999999999998,0.00011,4
18757,19552,0.00014,0.00026000000000000003,0.00039,0.00013000000000000002,-2.9999999999999997e-05,0.00045,0.00023999999999999998,0.00011,4
18758,19553,0.00014,0.00026000000000000003,0.00039,0.00013000000000000002,-2.9999999999999997e-05,0.00045,0.00023999999999999998,0.00011,4
18759,19554,0.00014,0.00026000000000000003,0.00039,0.00013000000000000002,-2.9999999999999997e-05,0.00045,0.00023999999999999998,0.00011,4
18760,19555,0.00014,0.00026000000000000003,0.00039,0.00013000000000000002,-2.9999999999999997e-05,0.00045,0.00023999999999999998,0.00011,4
18761,19556,0.00014,0.00026000000000000003,0.00039,0.00013000000000000002,-2.9999999999999997e-05,0.00045,0.00023999999999999998,0.00011,4
18762,19557,0.00014,0.00026000000000000003,0.00039,0.00013000000000000002,-2.9999999999999997e-05,0.00045,0.00023999999999999998,0.00011,4
18763,19558,0.00014,0.00026000000000000003,0.00039,0.00013000000000000002,-2.9999999999999997e-05,0.00045,0.00023999999999999998,0.00011,4
18764,19559,0.00014,0.00026000000000000003,0.00039,0.00013000000000000002,-2.9999999999999997e-05,0.00045,0.00023999999999999998,0.00011,4
18765,19560,0.00014,0.00026000000000000003,0.00039,0.00013000000000000002,-2.9999999999999997e-05,0.00045,0.00023999999999999998,0.00011,4
18766,19561,5e-05,-4e-05,-0.0002,-0.00043,0.00041,0.00043,1e-05,0.0,4
18767,19562,5e-05,-4e-05,-0.0002,-0.00043,0.00041,0.00043,1e-05,0.0,4
18768,19563,-5.9999999999999995e-05,-5e-05,-0.00025,-0.0006799999999999999,-7e-05,-0.00021,2.9999999999999997e-05,-2e-05,4
18769,19564,2e-05,2.9999999999999997e-05,-5e-05,0.00072,0.00029,7e-05,-0.00015,-4e-05,4
18770,19565,2e-05,2.9999999999999997e-05,-5e-05,0.00072,0.00029,7e-05,-0.00015,-4e-05,4
18771,19566,2e-05,2.9999999999999997e-05,-5e-05,0.00072,0.00029,7e-05,-0.00015,-4e-05,4
18772,19567,2e-05,2.9999999999999997e-05,-5e-05,0.00072,0.00029,7e-05,-0.00015,-4e-05,4
18773,19568,2e-05,2.9999999999999997e-05,-5e-05,0.00072,0.00029,7e-05,-0.00015,-4e-05,4
18774,19569,2e-05,2.9999999999999997e-05,-5e-05,0.00072,0.00029,7e-05,-0.00015,-4e-05,4
18775,19570,2e-05,2.9999999999999997e-05,-5e-05,0.00072,0.00029,7e-05,-0.00015,-4e-05,4
18776,19571,2e-05,2.9999999999999997e-05,-5e-05,0.00072,0.00029,7e-05,-0.00015,-4e-05,4
18777,19572,2e-05,2.9999999999999997e-05,-5e-05,0.00072,0.00029,7e-05,-0.00015,-4e-05,4
18778,19573,2e-05,2.9999999999999997e-05,-5e-05,0.00072,0.00029,7e-05,-0.00015,-4e-05,4
18779,19574,2e-05,2.9999999999999997e-05,-5e-05,0.00072,0.00029,7e-05,-0.00015,-4e-05,4
18780,19575,0.0002,0.00022,0.0005099999999999999,0.0008,0.00022,-5.9999999999999995e-05,5e-05,0.00011,4
18781,19576,0.0002,0.00022,0.0005099999999999999,0.0008,0.00022,-5.9999999999999995e-05,5e-05,0.00011,4
18782,19577,0.0002,0.00022,0.0005099999999999999,0.0008,0.00022,-5.9999999999999995e-05,5e-05,0.00011,4
18783,19578,0.0002,0.00022,0.0005099999999999999,0.0008,0.00022,-5.9999999999999995e-05,5e-05,0.00011,4
18784,19579,0.0002,0.00022,0.0005099999999999999,0.0008,0.00022,-5.9999999999999995e-05,5e-05,0.00011,4
18785,19580,0.0002,0.00022,0.0005099999999999999,0.0008,0.00022,-5.9999999999999995e-05,5e-05,0.00011,4
18786,19581,0.0002,0.00022,0.0005099999999999999,0.0008,0.00022,-5.9999999999999995e-05,5e-05,0.00011,4
18787,19582,0.0002,0.00022,0.0005099999999999999,0.0008,0.00022,-5.9999999999999995e-05,5e-05,0.00011,4
18788,19583,0.0002,0.00022,0.0005099999999999999,0.0008,0.00022,-5.9999999999999995e-05,5e-05,0.00011,4
18789,19584,-2.9999999999999997e-05,-5e-05,7e-05,-0.00067,-0.00108,-0.00128,-0.00018,-9e-05,4
18790,19585,-2.9999999999999997e-05,-5e-05,7e-05,-0.00067,-0.00108,-0.00128,-0.00018,-9e-05,4
18791,19586,-2.9999999999999997e-05,-5e-05,7e-05,-0.00067,-0.00108,-0.00128,-0.00018,-9e-05,4
18792,19589,-2.9999999999999997e-05,-5e-05,7e-05,-0.00067,-0.00108,-0.00128,-0.00018,-9e-05,4
18793,19590,-2.9999999999999997e-05,-5e-05,7e-05,-0.00067,-0.00108,-0.00128,-0.00018,-9e-05,4
18794,19591,-2.9999999999999997e-05,-5e-05,7e-05,-0.00067,-0.00108,-0.00128,-0.00018,-9e-05,4
18795,19592,-2.9999999999999997e-05,-5e-05,7e-05,-0.00067,-0.00108,-0.00128,-0.00018,-9e-05,4
18796,19593,-2.9999999999999997e-05,-5e-05,7e-05,-0.00067,-0.00108,-0.00128,-0.00018,-9e-05,4
18797,19594,-2.9999999999999997e-05,-5e-05,7e-05,-0.00067,-0.00108,-0.00128,-0.00018,-9e-05,4
