,time,channel1,channel2,channel3,channel4,channel5,channel6,channel7,channel8,class
14587,15007,-4e-05,-8e-05,-0.00013000000000000002,-0.00061,-8e-05,0.0004,2e-05,-5e-05,4
14588,15008,-4e-05,-8e-05,-0.00013000000000000002,-0.00061,-8e-05,0.0004,2e-05,-5e-05,4
14589,15009,-4e-05,-8e-05,-0.00013000000000000002,-0.00061,-8e-05,0.0004,2e-05,-5e-05,4
14590,15010,-4e-05,-8e-05,-0.00013000000000000002,-0.00061,-8e-05,0.0004,2e-05,-5e-05,4
14591,15011,2.9999999999999997e-05,1e-05,-0.00011999999999999999,-0.00041,0.00013000000000000002,2.9999999999999997e-05,5.9999999999999995e-05,2e-05,4
14592,15012,2.9999999999999997e-05,1e-05,-0.00011999999999999999,-0.00041,0.00013000000000000002,2.9999999999999997e-05,5.9999999999999995e-05,2e-05,4
14593,15013,-4e-05,-4e-05,-7e-05,-0.00018999999999999998,0.0005,-0.00028,-1e-05,-4e-05,4
14594,15014,-4e-05,-4e-05,-7e-05,-0.00018999999999999998,0.0005,-0.00028,-1e-05,-4e-05,4
14595,15015,-4e-05,-4e-05,-7e-05,-0.00018999999999999998,0.0005,-0.00028,-1e-05,-4e-05,4
14596,15016,-4e-05,-4e-05,-7e-05,-0.00018999999999999998,0.0005,-0.00028,-1e-05,-4e-05,4
14597,15017,-4e-05,-4e-05,-7e-05,-0.00018999999999999998,0.0005,-0.00028,-1e-05,-4e-05,4
14598,15018,-4e-05,-4e-05,-7e-05,-0.00018999999999999998,0.0005,-0.00028,-1e-05,-4e-05,4
14599,15019,-4e-05,-4e-05,-7e-05,-0.00018999999999999998,0.0005,-0.00028,-1e-05,-4e-05,4
14600,15020,-4e-05,-4e-05,-7e-05,-0.00018999999999999998,0.0005,-0.00028,-1e-05,-4e-05,4
14601,15021,-4e-05,-4e-05,-7e-05,-0.00018999999999999998,0.0005,-0.00028,-1e-05,-4e-05,4
14602,15022,-4e-05,-4e-05,-7e-05,-0.00018999999999999998,0.0005,-0.00028,-1e-05,-4e-05,4
14603,15023,-4e-05,-4e-05,-7e-05,-0.00018999999999999998,0.0005,-0.00028,-1e-05,-4e-05,4
14604,15024,-4e-05,-4e-05,-7e-05,-0.00018999999999999998,0.0005,-0.00028,-1e-05,-4e-05,4
14605,15025,1e-05,-5e-05,-9e-05,-8e-05,-0.00032,-5.9999999999999995e-05,-0.0001,-4e-05,4
14606,15026,-5e-05,-2e-05,2e-05,5e-05,-0.0002,-0.0011099999999999999,-5.9999999999999995e-05,-2e-05,4
14607,15027,-5e-05,-2e-05,2e-05,5e-05,-0.0002,-0.0011099999999999999,-5.9999999999999995e-05,-2e-05,4
14608,15028,-5e-05,-2e-05,2e-05,5e-05,-0.0002,-0.0011099999999999999,-5.9999999999999995e-05,-2e-05,4
14609,15029,-5e-05,-2e-05,2e-05,5e-05,-0.0002,-0.0011099999999999999,-5.9999999999999995e-05,-2e-05,4
14610,15030,-5e-05,-2e-05,2e-05,5e-05,-0.0002,-0.0011099999999999999,-5.9999999999999995e-05,-2e-05,4
14611,15031,-5e-05,-2e-05,2e-05,5e-05,-0.0002,-0.0011099999999999999,-5.9999999999999995e-05,-2e-05,4
14612,15033,1e-05,-1e-05,-2.9999999999999997e-05,-0.00027,-0.00044,0.00037,8e-05,4e-05,4
14613,15034,1e-05,-1e-05,-2.9999999999999997e-05,-0.00027,-0.00044,0.00037,8e-05,4e-05,4
14614,15035,1e-05,-1e-05,-2.9999999999999997e-05,-0.00027,-0.00044,0.00037,8e-05,4e-05,4
14615,15036,1e-05,-1e-05,-2.9999999999999997e-05,-0.00027,-0.00044,0.00037,8e-05,4e-05,4
14616,15039,1e-05,-1e-05,-2.9999999999999997e-05,-0.00027,-0.00044,0.00037,8e-05,4e-05,4
14617,15040,1e-05,-1e-05,-2.9999999999999997e-05,-0.00027,-0.00044,0.00037,8e-05,4e-05,4
14618,15041,1e-05,-1e-05,-2.9999999999999997e-05,-0.00027,-0.00044,0.00037,8e-05,4e-05,4
14619,15042,1e-05,-1e-05,-2.9999999999999997e-05,-0.00027,-0.00044,0.00037,8e-05,4e-05,4
14620,15043,1e-05,-1e-05,-2.9999999999999997e-05,-0.00027,-0.00044,0.00037,8e-05,4e-05,4
14621,15044,1e-05,-1e-05,-2.9999999999999997e-05,-0.00027,-0.00044,0.00037,8e-05,4e-05,4
14622,15045,1e-05,-1e-05,-2.9999999999999997e-05,-0.00027,-0.00044,0.00037,8e-05,4e-05,4
14623,15046,1e-05,-1e-05,-2.9999999999999997e-05,-0.00027,-0.00044,0.00037,8e-05,4e-05,4
14624,15047,1e-05,-1e-05,-2.9999999999999997e-05,-0.00027,-0.00044,0.00037,8e-05,4e-05,4
14625,15048,5e-05,5.9999999999999995e-05,0.0001,0.00029,0.0003,0.0,-2e-05,0.0,4
14626,15049,5e-05,5.9999999999999995e-05,0.0001,0.00029,0.0003,0.0,-2e-05,0.0,4
14627,15050,5e-05,5.9999999999999995e-05,0.0001,0.00029,0.0003,0.0,-2e-05,0.0,4
14628,15051,5e-05,5.9999999999999995e-05,0.0001,0.00029,0.0003,0.0,-2e-05,0.0,4
14629,15052,5e-05,5.9999999999999995e-05,0.0001,0.00029,0.0003,0.0,-2e-05,0.0,4
14630,15053,5e-05,5.9999999999999995e-05,0.0001,0.00029,0.0003,0.0,-2e-05,0.0,4
14631,15054,5e-05,5.9999999999999995e-05,0.0001,0.00029,0.0003,0.0,-2e-05,0.0,4
14632,15055,-2e-05,2.9999999999999997e-05,0.0,-0.00031,0.00011,-0.00011999999999999999,-0.00011,-5e-05,4
14633,15056,-2e-05,2.9999999999999997e-05,0.0,-0.00031,0.00011,-0.00011999999999999999,-0.00011,-5e-05,4
14634,15057,-2e-05,2.9999999999999997e-05,0.0,-0.00031,0.00011,-0.00011999999999999999,-0.00011,-5e-05,4
14635,15058,-2e-05,2.9999999999999997e-05,0.0,-0.00031,0.00011,-0.00011999999999999999,-0.00011,-5e-05,4
14636,15059,-2e-05,2.9999999999999997e-05,0.0,-0.00031,0.00011,-0.00011999999999999999,-0.00011,-5e-05,4
14637,15060,-2e-05,2.9999999999999997e-05,0.0,-0.00031,0.00011,-0.00011999999999999999,-0.00011,-5e-05,4
14638,15061,-2e-05,2.9999999999999997e-05,0.0,-0.00031,0.00011,-0.00011999999999999999,-0.00011,-5e-05,4
14639,15062,-2e-05,2.9999999999999997e-05,0.0,-0.00031,0.00011,-0.00011999999999999999,-0.00011,-5e-05,4
14640,15063,-2e-05,2.9999999999999997e-05,0.0,-0.00031,0.00011,-0.00011999999999999999,-0.00011,-5e-05,4
14641,15064,-2e-05,2.9999999999999997e-05,0.0,-0.00031,0.00011,-0.00011999999999999999,-0.00011,-5e-05,4
14642,15065,-2e-05,2.9999999999999997e-05,0.0,-0.00031,0.00011,-0.00011999999999999999,-0.00011,-5e-05,4
14643,15066,-2e-05,2.9999999999999997e-05,0.0,-0.00031,0.00011,-0.00011999999999999999,-0.00011,-5e-05,4
14644,15067,-2e-05,2.9999999999999997e-05,0.0,-0.00031,0.00011,-0.00011999999999999999,-0.00011,-5e-05,4
14645,15068,-2e-05,2.9999999999999997e-05,0.0,-0.00031,0.00011,-0.00011999999999999999,-0.00011,-5e-05,4
14646,15069,-2e-05,2.9999999999999997e-05,0.0,-0.00031,0.00011,-0.00011999999999999999,-0.00011,-5e-05,4
14647,15070,-2e-05,2.9999999999999997e-05,0.0,-0.00031,0.00011,-0.00011999999999999999,-0.00011,-5e-05,4
14648,15071,-2e-05,-8e-05,-2e-05,0.00028,0.0007099999999999999,0.00049,2.9999999999999997e-05,-1e-05,4
14649,15072,-2e-05,-8e-05,-2e-05,0.00028,0.0007099999999999999,0.00049,2.9999999999999997e-05,-1e-05,4
14650,15073,-1e-05,1e-05,0.00011999999999999999,0.00072,0.0003,-0.00045999999999999996,-7e-05,1e-05,4
14651,15074,-1e-05,1e-05,0.00011999999999999999,0.00072,0.0003,-0.00045999999999999996,-7e-05,1e-05,4
14652,15075,-1e-05,1e-05,0.00011999999999999999,0.00072,0.0003,-0.00045999999999999996,-7e-05,1e-05,4
14653,15076,-1e-05,1e-05,0.00011999999999999999,0.00072,0.0003,-0.00045999999999999996,-7e-05,1e-05,4
14654,15077,-1e-05,1e-05,0.00011999999999999999,0.00072,0.0003,-0.00045999999999999996,-7e-05,1e-05,4
14655,15078,-1e-05,1e-05,0.00011999999999999999,0.00072,0.0003,-0.00045999999999999996,-7e-05,1e-05,4
14656,15079,-1e-05,1e-05,0.00011999999999999999,0.00072,0.0003,-0.00045999999999999996,-7e-05,1e-05,4
14657,15080,-1e-05,1e-05,0.00011999999999999999,0.00072,0.0003,-0.00045999999999999996,-7e-05,1e-05,4
14658,15081,-1e-05,1e-05,0.00011999999999999999,0.00072,0.0003,-0.00045999999999999996,-7e-05,1e-05,4
14659,15082,-1e-05,1e-05,0.00011999999999999999,0.00072,0.0003,-0.00045999999999999996,-7e-05,1e-05,4
14660,15083,-1e-05,1e-05,0.00011999999999999999,0.00072,0.0003,-0.00045999999999999996,-7e-05,1e-05,4
14661,15084,-1e-05,1e-05,0.00011999999999999999,0.00072,0.0003,-0.00045999999999999996,-7e-05,1e-05,4
14662,15085,-1e-05,2e-05,2.9999999999999997e-05,9e-05,-0.00018,2e-05,-1e-05,-1e-05,4
14663,15086,-2e-05,0.0,-1e-05,-0.00011999999999999999,0.0005,-0.00011999999999999999,-1e-05,-2.9999999999999997e-05,4
14664,15088,-2e-05,0.0,-1e-05,-0.00011999999999999999,0.0005,-0.00011999999999999999,-1e-05,-2.9999999999999997e-05,4
14665,15089,-2e-05,0.0,-1e-05,-0.00011999999999999999,0.0005,-0.00011999999999999999,-1e-05,-2.9999999999999997e-05,4
14666,15090,-2e-05,0.0,-1e-05,-0.00011999999999999999,0.0005,-0.00011999999999999999,-1e-05,-2.9999999999999997e-05,4
14667,15091,-2e-05,0.0,-1e-05,-0.00011999999999999999,0.0005,-0.00011999999999999999,-1e-05,-2.9999999999999997e-05,4
14668,15092,4e-05,4e-05,0.00011,0.00053,-0.00027,-0.00041,-0.0001,4e-05,4
14669,15094,4e-05,4e-05,0.00011,0.00053,-0.00027,-0.00041,-0.0001,4e-05,4
14670,15095,4e-05,4e-05,0.00011,0.00053,-0.00027,-0.00041,-0.0001,4e-05,4
14671,15096,4e-05,4e-05,0.00011,0.00053,-0.00027,-0.00041,-0.0001,4e-05,4
14672,15097,4e-05,4e-05,0.00011,0.00053,-0.00027,-0.00041,-0.0001,4e-05,4
14673,15098,4e-05,4e-05,0.00011,0.00053,-0.00027,-0.00041,-0.0001,4e-05,4
14674,15099,4e-05,4e-05,0.00011,0.00053,-0.00027,-0.00041,-0.0001,4e-05,4
14675,15100,4e-05,4e-05,0.00011,0.00053,-0.00027,-0.00041,-0.0001,4e-05,4
14676,15101,4e-05,4e-05,0.00011,0.00053,-0.00027,-0.00041,-0.0001,4e-05,4
14677,15102,4e-05,4e-05,0.00011,0.00053,-0.00027,-0.00041,-0.0001,4e-05,4
14678,15103,4e-05,4e-05,0.00011,0.00053,-0.00027,-0.00041,-0.0001,4e-05,4
14679,15104,4e-05,4e-05,0.00011,0.00053,-0.00027,-0.00041,-0.0001,4e-05,4
14680,15105,4e-05,4e-05,0.00011,0.00053,-0.00027,-0.00041,-0.0001,4e-05,4
14681,15106,4e-05,4e-05,0.00011,0.00053,-0.00027,-0.00041,-0.0001,4e-05,4
14682,15107,4e-05,4e-05,0.00011,0.00053,-0.00027,-0.00041,-0.0001,4e-05,4
14683,15108,1e-05,1e-05,0.00011999999999999999,0.00014,-2e-05,0.0006,7e-05,2.9999999999999997e-05,4
14684,15109,1e-05,1e-05,0.00011999999999999999,0.00014,-2e-05,0.0006,7e-05,2.9999999999999997e-05,4
14685,15110,1e-05,1e-05,0.00011999999999999999,0.00014,-2e-05,0.0006,7e-05,2.9999999999999997e-05,4
14686,15111,1e-05,1e-05,0.00011999999999999999,0.00014,-2e-05,0.0006,7e-05,2.9999999999999997e-05,4
14687,15112,1e-05,1e-05,0.00011999999999999999,0.00014,-2e-05,0.0006,7e-05,2.9999999999999997e-05,4
14688,15113,1e-05,1e-05,0.00011999999999999999,0.00014,-2e-05,0.0006,7e-05,2.9999999999999997e-05,4
14689,15114,1e-05,1e-05,0.00011999999999999999,0.00014,-2e-05,0.0006,7e-05,2.9999999999999997e-05,4
14690,15115,1e-05,2e-05,5.9999999999999995e-05,0.00055,0.00073,2e-05,0.0,-2e-05,4
14691,15116,1e-05,2e-05,5.9999999999999995e-05,0.00055,0.00073,2e-05,0.0,-2e-05,4
14692,15117,1e-05,2e-05,5.9999999999999995e-05,0.00055,0.00073,2e-05,0.0,-2e-05,4
14693,15118,1e-05,2e-05,5.9999999999999995e-05,0.00055,0.00073,2e-05,0.0,-2e-05,4
14694,15119,1e-05,2e-05,5.9999999999999995e-05,0.00055,0.00073,2e-05,0.0,-2e-05,4
14695,15120,1e-05,2e-05,5.9999999999999995e-05,0.00055,0.00073,2e-05,0.0,-2e-05,4
14696,15121,1e-05,2e-05,5.9999999999999995e-05,0.00055,0.00073,2e-05,0.0,-2e-05,4
14697,15122,1e-05,2e-05,5.9999999999999995e-05,0.00055,0.00073,2e-05,0.0,-2e-05,4
14698,15123,1e-05,2e-05,5.9999999999999995e-05,0.00055,0.00073,2e-05,0.0,-2e-05,4
14699,15124,1e-05,2e-05,5.9999999999999995e-05,0.00055,0.00073,2e-05,0.0,-2e-05,4
14700,15125,1e-05,2e-05,5.9999999999999995e-05,0.00055,0.00073,2e-05,0.0,-2e-05,4
14701,15126,1e-05,2e-05,5.9999999999999995e-05,0.00055,0.00073,2e-05,0.0,-2e-05,4
14702,15127,1e-05,2e-05,5.9999999999999995e-05,0.00055,0.00073,2e-05,0.0,-2e-05,4
14703,15128,1e-05,2e-05,5.9999999999999995e-05,0.00055,0.00073,2e-05,0.0,-2e-05,4
14704,15129,1e-05,2e-05,5.9999999999999995e-05,0.00055,0.00073,2e-05,0.0,-2e-05,4
14705,15130,1e-05,2e-05,5.9999999999999995e-05,0.00055,0.00073,2e-05,0.0,-2e-05,4
14706,15131,4e-05,8e-05,0.00014,0.00022999999999999998,-0.00088,-0.00047000000000000004,-2e-05,2.9999999999999997e-05,4
14707,15132,4e-05,8e-05,0.00014,0.00022999999999999998,-0.00088,-0.00047000000000000004,-2e-05,2.9999999999999997e-05,4
14708,15133,1e-05,1e-05,1e-05,-0.00016999999999999999,7e-05,-0.00021,-0.00013000000000000002,-7e-05,4
14709,15134,1e-05,1e-05,1e-05,-0.00016999999999999999,7e-05,-0.00021,-0.00013000000000000002,-7e-05,4
14710,15135,1e-05,1e-05,1e-05,-0.00016999999999999999,7e-05,-0.00021,-0.00013000000000000002,-7e-05,4
14711,15136,1e-05,1e-05,1e-05,-0.00016999999999999999,7e-05,-0.00021,-0.00013000000000000002,-7e-05,4
14712,15138,1e-05,1e-05,1e-05,-0.00016999999999999999,7e-05,-0.00021,-0.00013000000000000002,-7e-05,4
14713,15139,1e-05,1e-05,1e-05,-0.00016999999999999999,7e-05,-0.00021,-0.00013000000000000002,-7e-05,4
14714,15140,1e-05,1e-05,1e-05,-0.00016999999999999999,7e-05,-0.00021,-0.00013000000000000002,-7e-05,4
14715,15141,1e-05,1e-05,1e-05,-0.00016999999999999999,7e-05,-0.00021,-0.00013000000000000002,-7e-05,4
14716,15142,1e-05,1e-05,1e-05,-0.00016999999999999999,7e-05,-0.00021,-0.00013000000000000002,-7e-05,4
14717,15143,1e-05,1e-05,1e-05,-0.00016999999999999999,7e-05,-0.00021,-0.00013000000000000002,-7e-05,4
14718,15144,1e-05,1e-05,1e-05,-0.00016999999999999999,7e-05,-0.00021,-0.00013000000000000002,-7e-05,4
14719,15145,0.0,0.0,2.9999999999999997e-05,0.00014,0.00015,0.00026000000000000003,2.9999999999999997e-05,4e-05,4
14720,15146,-5e-05,-2.9999999999999997e-05,-9e-05,-8e-05,0.0003,-5e-05,0.0,-9e-05,4
14721,15147,-5e-05,-2.9999999999999997e-05,-9e-05,-8e-05,0.0003,-5e-05,0.0,-9e-05,4
14722,15148,-5e-05,-2.9999999999999997e-05,-9e-05,-8e-05,0.0003,-5e-05,0.0,-9e-05,4
14723,15149,-5e-05,-2.9999999999999997e-05,-9e-05,-8e-05,0.0003,-5e-05,0.0,-9e-05,4
14724,15150,-5e-05,-2.9999999999999997e-05,-9e-05,-8e-05,0.0003,-5e-05,0.0,-9e-05,4
14725,15151,-5e-05,-2.9999999999999997e-05,-9e-05,-8e-05,0.0003,-5e-05,0.0,-9e-05,4
14726,15152,2e-05,2e-05,-1e-05,-0.00016999999999999999,-0.00032,-0.00044,1e-05,1e-05,4
14727,15153,2e-05,2e-05,-1e-05,-0.00016999999999999999,-0.00032,-0.00044,1e-05,1e-05,4
14728,15154,2e-05,2e-05,-1e-05,-0.00016999999999999999,-0.00032,-0.00044,1e-05,1e-05,4
14729,15155,2e-05,2e-05,-1e-05,-0.00016999999999999999,-0.00032,-0.00044,1e-05,1e-05,4
14730,15156,2e-05,2e-05,-1e-05,-0.00016999999999999999,-0.00032,-0.00044,1e-05,1e-05,4
14731,15157,2e-05,2e-05,-1e-05,-0.00016999999999999999,-0.00032,-0.00044,1e-05,1e-05,4
14732,15158,2e-05,2e-05,-1e-05,-0.00016999999999999999,-0.00032,-0.00044,1e-05,1e-05,4
14733,15159,2e-05,2e-05,-1e-05,-0.00016999999999999999,-0.00032,-0.00044,1e-05,1e-05,4
14734,15160,2e-05,2e-05,-1e-05,-0.00016999999999999999,-0.00032,-0.00044,1e-05,1e-05,4
14735,15161,2e-05,2e-05,-1e-05,-0.00016999999999999999,-0.00032,-0.00044,1e-05,1e-05,4
14736,15162,2e-05,2e-05,-1e-05,-0.00016999999999999999,-0.00032,-0.00044,1e-05,1e-05,4
14737,15163,2e-05,2e-05,-1e-05,-0.00016999999999999999,-0.00032,-0.00044,1e-05,1e-05,4
14738,15164,2e-05,2e-05,-1e-05,-0.00016999999999999999,-0.00032,-0.00044,1e-05,1e-05,4
14739,15165,2e-05,2e-05,-1e-05,-0.00016999999999999999,-0.00032,-0.00044,1e-05,1e-05,4
14740,15166,2e-05,2e-05,-1e-05,-0.00016999999999999999,-0.00032,-0.00044,1e-05,1e-05,4
14741,15167,2e-05,2e-05,-1e-05,-0.00016999999999999999,-0.00032,-0.00044,1e-05,1e-05,4
14742,15168,-1e-05,2.9999999999999997e-05,-2e-05,7e-05,-0.00078,-0.0001,-0.00011,-2e-05,4
14743,15169,-1e-05,2.9999999999999997e-05,-2e-05,7e-05,-0.00078,-0.0001,-0.00011,-2e-05,4
14744,15170,-1e-05,2.9999999999999997e-05,-2e-05,7e-05,-0.00078,-0.0001,-0.00011,-2e-05,4
14745,15171,-1e-05,2.9999999999999997e-05,-2e-05,7e-05,-0.00078,-0.0001,-0.00011,-2e-05,4
14746,15172,-1e-05,2.9999999999999997e-05,-2e-05,7e-05,-0.00078,-0.0001,-0.00011,-2e-05,4
14747,15173,-1e-05,2.9999999999999997e-05,-2e-05,7e-05,-0.00078,-0.0001,-0.00011,-2e-05,4
14748,15174,-1e-05,2.9999999999999997e-05,-2e-05,7e-05,-0.00078,-0.0001,-0.00011,-2e-05,4
14749,15175,-5e-05,-1e-05,-9e-05,-0.0003,-0.00027,0.0001,-8e-05,-2.9999999999999997e-05,4
14750,15176,-5e-05,-1e-05,-9e-05,-0.0003,-0.00027,0.0001,-8e-05,-2.9999999999999997e-05,4
14751,15177,-5e-05,-1e-05,-9e-05,-0.0003,-0.00027,0.0001,-8e-05,-2.9999999999999997e-05,4
14752,15178,-5e-05,-1e-05,-9e-05,-0.0003,-0.00027,0.0001,-8e-05,-2.9999999999999997e-05,4
14753,15179,-5e-05,-1e-05,-9e-05,-0.0003,-0.00027,0.0001,-8e-05,-2.9999999999999997e-05,4
14754,15180,-5e-05,-1e-05,-9e-05,-0.0003,-0.00027,0.0001,-8e-05,-2.9999999999999997e-05,4
14755,15181,-5e-05,-1e-05,-9e-05,-0.0003,-0.00027,0.0001,-8e-05,-2.9999999999999997e-05,4
14756,15182,-5e-05,-1e-05,-9e-05,-0.0003,-0.00027,0.0001,-8e-05,-2.9999999999999997e-05,4
14757,15183,-5e-05,-1e-05,-9e-05,-0.0003,-0.00027,0.0001,-8e-05,-2.9999999999999997e-05,4
14758,15184,-5e-05,-1e-05,-9e-05,-0.0003,-0.00027,0.0001,-8e-05,-2.9999999999999997e-05,4
14759,15185,-5e-05,-1e-05,-9e-05,-0.0003,-0.00027,0.0001,-8e-05,-2.9999999999999997e-05,4
14760,15186,-5e-05,-1e-05,-9e-05,-0.0003,-0.00027,0.0001,-8e-05,-2.9999999999999997e-05,4
14761,15188,-5e-05,-1e-05,-9e-05,-0.0003,-0.00027,0.0001,-8e-05,-2.9999999999999997e-05,4
14762,15189,-5e-05,-1e-05,-9e-05,-0.0003,-0.00027,0.0001,-8e-05,-2.9999999999999997e-05,4
14763,15190,-5e-05,-1e-05,-9e-05,-0.0003,-0.00027,0.0001,-8e-05,-2.9999999999999997e-05,4
14764,15191,-2e-05,-4e-05,-0.0001,-0.0005,-0.00011999999999999999,0.00013000000000000002,2.9999999999999997e-05,-2e-05,4
14765,15192,-2e-05,-4e-05,-0.0001,-0.0005,-0.00011999999999999999,0.00013000000000000002,2.9999999999999997e-05,-2e-05,4
14766,15193,2e-05,2e-05,9e-05,0.00061,0.00022,0.00028,7e-05,1e-05,4
14767,15194,2e-05,2e-05,9e-05,0.00061,0.00022,0.00028,7e-05,1e-05,4
14768,15195,2e-05,2e-05,9e-05,0.00061,0.00022,0.00028,7e-05,1e-05,4
14769,15196,2e-05,2e-05,9e-05,0.00061,0.00022,0.00028,7e-05,1e-05,4
14770,15197,2e-05,2e-05,9e-05,0.00061,0.00022,0.00028,7e-05,1e-05,4
14771,15198,2e-05,2e-05,9e-05,0.00061,0.00022,0.00028,7e-05,1e-05,4
14772,15199,2e-05,2e-05,9e-05,0.00061,0.00022,0.00028,7e-05,1e-05,4
14773,15200,2e-05,2e-05,9e-05,0.00061,0.00022,0.00028,7e-05,1e-05,4
14774,15201,2e-05,2e-05,9e-05,0.00061,0.00022,0.00028,7e-05,1e-05,4
14775,15202,2e-05,2e-05,9e-05,0.00061,0.00022,0.00028,7e-05,1e-05,4
14776,15203,2e-05,2e-05,9e-05,0.00061,0.00022,0.00028,7e-05,1e-05,4
14777,15204,2e-05,2e-05,9e-05,0.00061,0.00022,0.00028,7e-05,1e-05,4
14778,15205,-8e-05,-0.0001,-0.00022,-0.0007,-0.00036,-2e-05,-7e-05,-9e-05,4
14779,15206,5e-05,8e-05,0.00018999999999999998,0.00057,-0.00028,2e-05,2.9999999999999997e-05,8e-05,4
14780,15207,5e-05,8e-05,0.00018999999999999998,0.00057,-0.00028,2e-05,2.9999999999999997e-05,8e-05,4
14781,15208,5e-05,8e-05,0.00018999999999999998,0.00057,-0.00028,2e-05,2.9999999999999997e-05,8e-05,4
14782,15209,5e-05,8e-05,0.00018999999999999998,0.00057,-0.00028,2e-05,2.9999999999999997e-05,8e-05,4
14783,15210,5e-05,8e-05,0.00018999999999999998,0.00057,-0.00028,2e-05,2.9999999999999997e-05,8e-05,4
14784,15211,5e-05,8e-05,0.00018999999999999998,0.00057,-0.00028,2e-05,2.9999999999999997e-05,8e-05,4
14785,15212,-2.9999999999999997e-05,-9e-05,-0.00011,-0.0007700000000000001,-0.00074,-0.00081,-0.00013000000000000002,1e-05,4
14786,15213,-2.9999999999999997e-05,-9e-05,-0.00011,-0.0007700000000000001,-0.00074,-0.00081,-0.00013000000000000002,1e-05,4
14787,15214,-2.9999999999999997e-05,-9e-05,-0.00011,-0.0007700000000000001,-0.00074,-0.00081,-0.00013000000000000002,1e-05,4
14788,15215,-2.9999999999999997e-05,-9e-05,-0.00011,-0.0007700000000000001,-0.00074,-0.00081,-0.00013000000000000002,1e-05,4
14789,15216,-2.9999999999999997e-05,-9e-05,-0.00011,-0.0007700000000000001,-0.00074,-0.00081,-0.00013000000000000002,1e-05,4
14790,15217,-2.9999999999999997e-05,-9e-05,-0.00011,-0.0007700000000000001,-0.00074,-0.00081,-0.00013000000000000002,1e-05,4
14791,15218,-2.9999999999999997e-05,-9e-05,-0.00011,-0.0007700000000000001,-0.00074,-0.00081,-0.00013000000000000002,1e-05,4
14792,15219,-2.9999999999999997e-05,-9e-05,-0.00011,-0.0007700000000000001,-0.00074,-0.00081,-0.00013000000000000002,1e-05,4
14793,15220,-2.9999999999999997e-05,-9e-05,-0.00011,-0.0007700000000000001,-0.00074,-0.00081,-0.00013000000000000002,1e-05,4
14794,15221,-2.9999999999999997e-05,-9e-05,-0.00011,-0.0007700000000000001,-0.00074,-0.00081,-0.00013000000000000002,1e-05,4
14795,15222,-2.9999999999999997e-05,-9e-05,-0.00011,-0.0007700000000000001,-0.00074,-0.00081,-0.00013000000000000002,1e-05,4
14796,15223,-2.9999999999999997e-05,-9e-05,-0.00011,-0.0007700000000000001,-0.00074,-0.00081,-0.00013000000000000002,1e-05,4
14797,15224,-2.9999999999999997e-05,-9e-05,-0.00011,-0.0007700000000000001,-0.00074,-0.00081,-0.00013000000000000002,1e-05,4
14798,15225,-2.9999999999999997e-05,-9e-05,-0.00011,-0.0007700000000000001,-0.00074,-0.00081,-0.00013000000000000002,1e-05,4
14799,15226,-2.9999999999999997e-05,-9e-05,-0.00011,-0.0007700000000000001,-0.00074,-0.00081,-0.00013000000000000002,1e-05,4
14800,15227,-2.9999999999999997e-05,-9e-05,-0.00011,-0.0007700000000000001,-0.00074,-0.00081,-0.00013000000000000002,1e-05,4
14801,15228,1e-05,-5.9999999999999995e-05,-2e-05,2e-05,1e-05,0.0004,4e-05,0.0,4
14802,15229,1e-05,-5.9999999999999995e-05,-2e-05,2e-05,1e-05,0.0004,4e-05,0.0,4
14803,15230,1e-05,-5.9999999999999995e-05,-2e-05,2e-05,1e-05,0.0004,4e-05,0.0,4
14804,15231,1e-05,-5.9999999999999995e-05,-2e-05,2e-05,1e-05,0.0004,4e-05,0.0,4
14805,15232,1e-05,-5.9999999999999995e-05,-2e-05,2e-05,1e-05,0.0004,4e-05,0.0,4
14806,15233,1e-05,-5.9999999999999995e-05,-2e-05,2e-05,1e-05,0.0004,4e-05,0.0,4
14807,15234,1e-05,-5.9999999999999995e-05,-2e-05,2e-05,1e-05,0.0004,4e-05,0.0,4
14808,15235,1e-05,0.0,2.9999999999999997e-05,0.00018,-0.00018,-0.00018999999999999998,0.0,0.0,4
14809,15236,1e-05,0.0,2.9999999999999997e-05,0.00018,-0.00018,-0.00018999999999999998,0.0,0.0,4
14810,15239,1e-05,0.0,2.9999999999999997e-05,0.00018,-0.00018,-0.00018999999999999998,0.0,0.0,4
14811,15240,1e-05,0.0,2.9999999999999997e-05,0.00018,-0.00018,-0.00018999999999999998,0.0,0.0,4
14812,15241,1e-05,0.0,2.9999999999999997e-05,0.00018,-0.00018,-0.00018999999999999998,0.0,0.0,4
14813,15242,1e-05,0.0,2.9999999999999997e-05,0.00018,-0.00018,-0.00018999999999999998,0.0,0.0,4
14814,15243,1e-05,0.0,2.9999999999999997e-05,0.00018,-0.00018,-0.00018999999999999998,0.0,0.0,4
14815,15244,1e-05,0.0,2.9999999999999997e-05,0.00018,-0.00018,-0.00018999999999999998,0.0,0.0,4
14816,15245,1e-05,0.0,2.9999999999999997e-05,0.00018,-0.00018,-0.00018999999999999998,0.0,0.0,4
14817,15246,1e-05,0.0,2.9999999999999997e-05,0.00018,-0.00018,-0.00018999999999999998,0.0,0.0,4
14818,15247,1e-05,0.0,2.9999999999999997e-05,0.00018,-0.00018,-0.00018999999999999998,0.0,0.0,4
14819,15248,1e-05,0.0,2.9999999999999997e-05,0.00018,-0.00018,-0.00018999999999999998,0.0,0.0,4
14820,15249,1e-05,0.0,2.9999999999999997e-05,0.00018,-0.00018,-0.00018999999999999998,0.0,0.0,4
14821,15250,1e-05,0.0,2.9999999999999997e-05,0.00018,-0.00018,-0.00018999999999999998,0.0,0.0,4
14822,15251,-2e-05,-2.9999999999999997e-05,-1e-05,-5.9999999999999995e-05,0.0007700000000000001,0.00022999999999999998,5e-05,-5.9999999999999995e-05,4
14823,15252,-2e-05,-2.9999999999999997e-05,-1e-05,-5.9999999999999995e-05,0.0007700000000000001,0.00022999999999999998,5e-05,-5.9999999999999995e-05,4
14824,15253,-4e-05,-7e-05,-2.9999999999999997e-05,-5.9999999999999995e-05,-0.00036,0.00013000000000000002,0.0,-2.9999999999999997e-05,4
14825,15254,-4e-05,-7e-05,-2.9999999999999997e-05,-5.9999999999999995e-05,-0.00036,0.00013000000000000002,0.0,-2.9999999999999997e-05,4
14826,15255,-4e-05,-7e-05,-2.9999999999999997e-05,-5.9999999999999995e-05,-0.00036,0.00013000000000000002,0.0,-2.9999999999999997e-05,4
14827,15256,-4e-05,-7e-05,-2.9999999999999997e-05,-5.9999999999999995e-05,-0.00036,0.00013000000000000002,0.0,-2.9999999999999997e-05,4
14828,15257,-4e-05,-7e-05,-2.9999999999999997e-05,-5.9999999999999995e-05,-0.00036,0.00013000000000000002,0.0,-2.9999999999999997e-05,4
14829,15258,-4e-05,-7e-05,-2.9999999999999997e-05,-5.9999999999999995e-05,-0.00036,0.00013000000000000002,0.0,-2.9999999999999997e-05,4
14830,15259,-4e-05,-7e-05,-2.9999999999999997e-05,-5.9999999999999995e-05,-0.00036,0.00013000000000000002,0.0,-2.9999999999999997e-05,4
14831,15260,-4e-05,-7e-05,-2.9999999999999997e-05,-5.9999999999999995e-05,-0.00036,0.00013000000000000002,0.0,-2.9999999999999997e-05,4
14832,15261,-4e-05,-7e-05,-2.9999999999999997e-05,-5.9999999999999995e-05,-0.00036,0.00013000000000000002,0.0,-2.9999999999999997e-05,4
14833,15262,-4e-05,-7e-05,-2.9999999999999997e-05,-5.9999999999999995e-05,-0.00036,0.00013000000000000002,0.0,-2.9999999999999997e-05,4
14834,15263,-4e-05,-7e-05,-2.9999999999999997e-05,-5.9999999999999995e-05,-0.00036,0.00013000000000000002,0.0,-2.9999999999999997e-05,4
14835,15264,-4e-05,-7e-05,-2.9999999999999997e-05,-5.9999999999999995e-05,-0.00036,0.00013000000000000002,0.0,-2.9999999999999997e-05,4
14836,15265,-1e-05,-1e-05,-0.0001,-0.00018999999999999998,-4e-05,0.00018999999999999998,1e-05,-5e-05,4
14837,15266,-1e-05,-1e-05,-0.0001,-0.00018999999999999998,-4e-05,0.00018999999999999998,1e-05,-5e-05,4
14838,15267,-1e-05,-1e-05,-0.0001,-0.00018999999999999998,-4e-05,0.00018999999999999998,1e-05,-5e-05,4
14839,15268,-1e-05,-1e-05,-0.0001,-0.00018999999999999998,-4e-05,0.00018999999999999998,1e-05,-5e-05,4
14840,15269,-1e-05,-1e-05,-0.0001,-0.00018999999999999998,-4e-05,0.00018999999999999998,1e-05,-5e-05,4
14841,15270,-1e-05,-1e-05,-0.0001,-0.00018999999999999998,-4e-05,0.00018999999999999998,1e-05,-5e-05,4
14842,15271,-1e-05,-1e-05,-0.0001,-0.00018999999999999998,-4e-05,0.00018999999999999998,1e-05,-5e-05,4
14843,15272,-2.9999999999999997e-05,-2e-05,-7e-05,5e-05,-0.0001,-5e-05,-2.9999999999999997e-05,-5e-05,4
14844,15273,-2.9999999999999997e-05,-2e-05,-7e-05,5e-05,-0.0001,-5e-05,-2.9999999999999997e-05,-5e-05,4
14845,15274,-2.9999999999999997e-05,-2e-05,-7e-05,5e-05,-0.0001,-5e-05,-2.9999999999999997e-05,-5e-05,4
14846,15275,-2.9999999999999997e-05,-2e-05,-7e-05,5e-05,-0.0001,-5e-05,-2.9999999999999997e-05,-5e-05,4
14847,15276,-2.9999999999999997e-05,-2e-05,-7e-05,5e-05,-0.0001,-5e-05,-2.9999999999999997e-05,-5e-05,4
14848,15277,-2.9999999999999997e-05,-2e-05,-7e-05,5e-05,-0.0001,-5e-05,-2.9999999999999997e-05,-5e-05,4
14849,15278,-2.9999999999999997e-05,-2e-05,-7e-05,5e-05,-0.0001,-5e-05,-2.9999999999999997e-05,-5e-05,4
14850,15279,-2.9999999999999997e-05,-2e-05,-7e-05,5e-05,-0.0001,-5e-05,-2.9999999999999997e-05,-5e-05,4
14851,15280,-2.9999999999999997e-05,-2e-05,-7e-05,5e-05,-0.0001,-5e-05,-2.9999999999999997e-05,-5e-05,4
14852,15281,-2.9999999999999997e-05,-2e-05,-7e-05,5e-05,-0.0001,-5e-05,-2.9999999999999997e-05,-5e-05,4
14853,15282,-2.9999999999999997e-05,-2e-05,-7e-05,5e-05,-0.0001,-5e-05,-2.9999999999999997e-05,-5e-05,4
14854,15283,-2.9999999999999997e-05,-2e-05,-7e-05,5e-05,-0.0001,-5e-05,-2.9999999999999997e-05,-5e-05,4
14855,15284,-2.9999999999999997e-05,-2e-05,-7e-05,5e-05,-0.0001,-5e-05,-2.9999999999999997e-05,-5e-05,4
14856,15285,-2.9999999999999997e-05,-2e-05,-7e-05,5e-05,-0.0001,-5e-05,-2.9999999999999997e-05,-5e-05,4
14857,15286,-2.9999999999999997e-05,-2e-05,-7e-05,5e-05,-0.0001,-5e-05,-2.9999999999999997e-05,-5e-05,4
14858,15289,-2e-05,-5e-05,-8e-05,-0.00033,0.00072,7e-05,-5e-05,-1e-05,4
14859,15290,-2e-05,-5e-05,-8e-05,-0.00033,0.00072,7e-05,-5e-05,-1e-05,4
14860,15291,-2e-05,-5e-05,-8e-05,-0.00033,0.00072,7e-05,-5e-05,-1e-05,4
14861,15292,-2e-05,-5e-05,-8e-05,-0.00033,0.00072,7e-05,-5e-05,-1e-05,4
14862,15293,-2e-05,-5e-05,-8e-05,-0.00033,0.00072,7e-05,-5e-05,-1e-05,4
14863,15294,-2e-05,-5e-05,-8e-05,-0.00033,0.00072,7e-05,-5e-05,-1e-05,4
14864,15295,-2e-05,-5e-05,-8e-05,-0.00033,0.00072,7e-05,-5e-05,-1e-05,4
14865,15296,-2e-05,-5e-05,-8e-05,-0.00033,0.00072,7e-05,-5e-05,-1e-05,4
14866,15297,-2e-05,-5e-05,-8e-05,-0.00033,0.00072,7e-05,-5e-05,-1e-05,4
14867,15298,-2e-05,-5e-05,-8e-05,-0.00033,0.00072,7e-05,-5e-05,-1e-05,4
14868,15299,-2e-05,-5e-05,-8e-05,-0.00033,0.00072,7e-05,-5e-05,-1e-05,4
14869,15300,-2e-05,-5e-05,-8e-05,-0.00033,0.00072,7e-05,-5e-05,-1e-05,4
14870,15301,-2e-05,-5e-05,-8e-05,-0.00033,0.00072,7e-05,-5e-05,-1e-05,4
14871,15302,-2.9999999999999997e-05,-1e-05,1e-05,0.0004,-0.00081,-0.00081,-0.00014,-5e-05,4
14872,15303,-2.9999999999999997e-05,-1e-05,1e-05,0.0004,-0.00081,-0.00081,-0.00014,-5e-05,4
14873,15304,-2.9999999999999997e-05,-1e-05,1e-05,0.0004,-0.00081,-0.00081,-0.00014,-5e-05,4
14874,15305,-2.9999999999999997e-05,-1e-05,1e-05,0.0004,-0.00081,-0.00081,-0.00014,-5e-05,4
14875,15306,-2.9999999999999997e-05,-1e-05,1e-05,0.0004,-0.00081,-0.00081,-0.00014,-5e-05,4
14876,15307,-2.9999999999999997e-05,-1e-05,1e-05,0.0004,-0.00081,-0.00081,-0.00014,-5e-05,4
14877,15308,-2.9999999999999997e-05,-1e-05,1e-05,0.0004,-0.00081,-0.00081,-0.00014,-5e-05,4
14878,15309,-2.9999999999999997e-05,-1e-05,1e-05,0.0004,-0.00081,-0.00081,-0.00014,-5e-05,4
14879,15310,-2.9999999999999997e-05,-1e-05,1e-05,0.0004,-0.00081,-0.00081,-0.00014,-5e-05,4
14880,15311,-2.9999999999999997e-05,-1e-05,1e-05,0.0004,-0.00081,-0.00081,-0.00014,-5e-05,4
14881,15312,0.0,2.9999999999999997e-05,2.9999999999999997e-05,-0.00016999999999999999,4e-05,-0.00035,1e-05,4e-05,4
14882,15313,-2e-05,-2.9999999999999997e-05,-2.9999999999999997e-05,-8e-05,-0.00021,0.00039,4e-05,-1e-05,4
14883,15314,0.0,0.0,-2.9999999999999997e-05,-0.00041,5.9999999999999995e-05,0.00041,4e-05,0.0,4
14884,15315,0.0,0.0,-2.9999999999999997e-05,-0.00041,5.9999999999999995e-05,0.00041,4e-05,0.0,4
14885,15316,0.0,0.0,-2.9999999999999997e-05,-0.00041,5.9999999999999995e-05,0.00041,4e-05,0.0,4
14886,15317,0.0,0.0,-2.9999999999999997e-05,-0.00041,5.9999999999999995e-05,0.00041,4e-05,0.0,4
14887,15318,0.0,0.0,-2.9999999999999997e-05,-0.00041,5.9999999999999995e-05,0.00041,4e-05,0.0,4
14888,15319,0.0,0.0,-2.9999999999999997e-05,-0.00041,5.9999999999999995e-05,0.00041,4e-05,0.0,4
14889,15320,0.0,0.0,-2.9999999999999997e-05,-0.00041,5.9999999999999995e-05,0.00041,4e-05,0.0,4
14890,15321,0.0,0.0,-2.9999999999999997e-05,-0.00041,5.9999999999999995e-05,0.00041,4e-05,0.0,4
14891,15322,0.0,0.0,-2.9999999999999997e-05,-0.00041,5.9999999999999995e-05,0.00041,4e-05,0.0,4
14892,15323,0.0,0.0,-2.9999999999999997e-05,-0.00041,5.9999999999999995e-05,0.00041,4e-05,0.0,4
14893,15324,0.0,0.0,-2.9999999999999997e-05,-0.00041,5.9999999999999995e-05,0.00041,4e-05,0.0,4
14894,15325,-2e-05,-2e-05,0.0,8e-05,-0.0005,-0.00059,-1e-05,-2e-05,4
14895,15326,-2e-05,-2e-05,0.0,8e-05,-0.0005,-0.00059,-1e-05,-2e-05,4
14896,15327,-2e-05,-2e-05,0.0,8e-05,-0.0005,-0.00059,-1e-05,-2e-05,4
14897,15328,-2e-05,-2e-05,0.0,8e-05,-0.0005,-0.00059,-1e-05,-2e-05,4
14898,15329,-2e-05,-2e-05,0.0,8e-05,-0.0005,-0.00059,-1e-05,-2e-05,4
14899,15330,-2e-05,-2e-05,0.0,8e-05,-0.0005,-0.00059,-1e-05,-2e-05,4
14900,15331,-2e-05,-2e-05,0.0,8e-05,-0.0005,-0.00059,-1e-05,-2e-05,4
14901,15332,-2e-05,-2e-05,0.0,8e-05,-0.0005,-0.00059,-1e-05,-2e-05,4
14902,15333,-2e-05,-2e-05,0.0,8e-05,-0.0005,-0.00059,-1e-05,-2e-05,4
14903,15334,2e-05,1e-05,1e-05,0.00022999999999999998,0.00067,0.00067,5e-05,1e-05,4
14904,15335,2e-05,1e-05,1e-05,0.00022999999999999998,0.00067,0.00067,5e-05,1e-05,4
14905,15336,2e-05,1e-05,1e-05,0.00022999999999999998,0.00067,0.00067,5e-05,1e-05,4
14906,15339,2e-05,1e-05,1e-05,0.00022999999999999998,0.00067,0.00067,5e-05,1e-05,4
14907,15340,2e-05,1e-05,1e-05,0.00022999999999999998,0.00067,0.00067,5e-05,1e-05,4
14908,15341,2e-05,1e-05,1e-05,0.00022999999999999998,0.00067,0.00067,5e-05,1e-05,4
14909,15342,2e-05,1e-05,1e-05,0.00022999999999999998,0.00067,0.00067,5e-05,1e-05,4
14910,15343,2e-05,1e-05,1e-05,0.00022999999999999998,0.00067,0.00067,5e-05,1e-05,4
14911,15344,2e-05,1e-05,1e-05,0.00022999999999999998,0.00067,0.00067,5e-05,1e-05,4
14912,15345,2e-05,1e-05,1e-05,0.00022999999999999998,0.00067,0.00067,5e-05,1e-05,4
14913,15346,2e-05,1e-05,1e-05,0.00022999999999999998,0.00067,0.00067,5e-05,1e-05,4
14914,15347,2e-05,1e-05,1e-05,0.00022999999999999998,0.00067,0.00067,5e-05,1e-05,4
14915,15348,2e-05,1e-05,1e-05,0.00022999999999999998,0.00067,0.00067,5e-05,1e-05,4
14916,15349,-4e-05,-1e-05,-7e-05,0.00049,-0.00015,-5e-05,-5.9999999999999995e-05,0.0,4
14917,15350,-4e-05,-1e-05,-7e-05,0.00049,-0.00015,-5e-05,-5.9999999999999995e-05,0.0,4
14918,15351,-4e-05,-1e-05,-7e-05,0.00049,-0.00015,-5e-05,-5.9999999999999995e-05,0.0,4
14919,15352,-4e-05,-1e-05,-7e-05,0.00049,-0.00015,-5e-05,-5.9999999999999995e-05,0.0,4
14920,15353,-4e-05,-1e-05,-7e-05,0.00049,-0.00015,-5e-05,-5.9999999999999995e-05,0.0,4
14921,15354,-4e-05,-1e-05,-7e-05,0.00049,-0.00015,-5e-05,-5.9999999999999995e-05,0.0,4
14922,15355,0.0,-2e-05,0.0,-0.00032,-0.00013000000000000002,7e-05,-2e-05,0.0,4
14923,15356,0.0,-2e-05,0.0,-0.00032,-0.00013000000000000002,7e-05,-2e-05,0.0,4
14924,15357,0.0,-2e-05,0.0,-0.00032,-0.00013000000000000002,7e-05,-2e-05,0.0,4
14925,15358,0.0,-2e-05,0.0,-0.00032,-0.00013000000000000002,7e-05,-2e-05,0.0,4
14926,15359,0.0,-2e-05,0.0,-0.00032,-0.00013000000000000002,7e-05,-2e-05,0.0,4
14927,15360,0.0,-2e-05,0.0,-0.00032,-0.00013000000000000002,7e-05,-2e-05,0.0,4
14928,15361,0.0,-2e-05,0.0,-0.00032,-0.00013000000000000002,7e-05,-2e-05,0.0,4
14929,15362,0.0,-2e-05,0.0,-0.00032,-0.00013000000000000002,7e-05,-2e-05,0.0,4
14930,15363,0.0,-2e-05,0.0,-0.00032,-0.00013000000000000002,7e-05,-2e-05,0.0,4
14931,15364,0.0,-2e-05,0.0,-0.00032,-0.00013000000000000002,7e-05,-2e-05,0.0,4
14932,15365,0.0,-2e-05,0.0,-0.00032,-0.00013000000000000002,7e-05,-2e-05,0.0,4
14933,15366,0.0,-2e-05,0.0,-0.00032,-0.00013000000000000002,7e-05,-2e-05,0.0,4
14934,15367,0.0,-2e-05,0.0,-0.00032,-0.00013000000000000002,7e-05,-2e-05,0.0,4
14935,15368,0.0,-2e-05,0.0,-0.00032,-0.00013000000000000002,7e-05,-2e-05,0.0,4
14936,15369,0.0,-2e-05,0.0,-0.00032,-0.00013000000000000002,7e-05,-2e-05,0.0,4
14937,15370,1e-05,-2.9999999999999997e-05,-2.9999999999999997e-05,-0.00016999999999999999,9e-05,0.00037999999999999997,0.00014,1e-05,4
14938,15371,1e-05,2e-05,1e-05,0.00014,-0.00041,-0.00101,-5.9999999999999995e-05,0.0,4
14939,15372,-4e-05,-2e-05,-2e-05,-8e-05,-0.00018,0.00035,0.00013000000000000002,2.9999999999999997e-05,4
14940,15373,-4e-05,-2e-05,-2e-05,-8e-05,-0.00018,0.00035,0.00013000000000000002,2.9999999999999997e-05,4
14941,15374,-4e-05,-2e-05,-2e-05,-8e-05,-0.00018,0.00035,0.00013000000000000002,2.9999999999999997e-05,4
14942,15375,-4e-05,-2e-05,-2e-05,-8e-05,-0.00018,0.00035,0.00013000000000000002,2.9999999999999997e-05,4
14943,15376,-4e-05,-2e-05,-2e-05,-8e-05,-0.00018,0.00035,0.00013000000000000002,2.9999999999999997e-05,4
14944,15377,-4e-05,-2e-05,-2e-05,-8e-05,-0.00018,0.00035,0.00013000000000000002,2.9999999999999997e-05,4
14945,15378,-4e-05,-2e-05,-2e-05,-8e-05,-0.00018,0.00035,0.00013000000000000002,2.9999999999999997e-05,4
14946,15379,-4e-05,-2e-05,-2e-05,-8e-05,-0.00018,0.00035,0.00013000000000000002,2.9999999999999997e-05,4
14947,15380,-4e-05,-2e-05,-2e-05,-8e-05,-0.00018,0.00035,0.00013000000000000002,2.9999999999999997e-05,4
14948,15381,-4e-05,-2e-05,-2e-05,-8e-05,-0.00018,0.00035,0.00013000000000000002,2.9999999999999997e-05,4
14949,15382,-4e-05,-2e-05,-2e-05,-8e-05,-0.00018,0.00035,0.00013000000000000002,2.9999999999999997e-05,4
14950,15383,-4e-05,-2e-05,-2e-05,-8e-05,-0.00018,0.00035,0.00013000000000000002,2.9999999999999997e-05,4
14951,15384,-4e-05,-2e-05,-2e-05,-8e-05,-0.00018,0.00035,0.00013000000000000002,2.9999999999999997e-05,4
14952,15385,-4e-05,-2e-05,-2e-05,-8e-05,-0.00018,0.00035,0.00013000000000000002,2.9999999999999997e-05,4
14953,15386,0.0,-4e-05,-5.9999999999999995e-05,-0.00049,-0.00054,-0.00014,-2e-05,-1e-05,4
14954,15388,0.0,-4e-05,-5.9999999999999995e-05,-0.00049,-0.00054,-0.00014,-2e-05,-1e-05,4
14955,15389,0.0,-4e-05,-5.9999999999999995e-05,-0.00049,-0.00054,-0.00014,-2e-05,-1e-05,4
14956,15390,0.0,-4e-05,-5.9999999999999995e-05,-0.00049,-0.00054,-0.00014,-2e-05,-1e-05,4
14957,15391,0.0,-4e-05,-5.9999999999999995e-05,-0.00049,-0.00054,-0.00014,-2e-05,-1e-05,4
14958,15392,1e-05,5e-05,0.00011,0.00043,0.00016,0.00011,2.9999999999999997e-05,1e-05,4
14959,15393,1e-05,5e-05,0.00011,0.00043,0.00016,0.00011,2.9999999999999997e-05,1e-05,4
14960,15394,1e-05,5e-05,0.00011,0.00043,0.00016,0.00011,2.9999999999999997e-05,1e-05,4
14961,15395,1e-05,5e-05,0.00011,0.00043,0.00016,0.00011,2.9999999999999997e-05,1e-05,4
14962,15396,1e-05,5e-05,0.00011,0.00043,0.00016,0.00011,2.9999999999999997e-05,1e-05,4
14963,15397,1e-05,5e-05,0.00011,0.00043,0.00016,0.00011,2.9999999999999997e-05,1e-05,4
14964,15398,1e-05,5e-05,0.00011,0.00043,0.00016,0.00011,2.9999999999999997e-05,1e-05,4
14965,15399,1e-05,5e-05,0.00011,0.00043,0.00016,0.00011,2.9999999999999997e-05,1e-05,4
14966,15400,1e-05,5e-05,0.00011,0.00043,0.00016,0.00011,2.9999999999999997e-05,1e-05,4
14967,15401,1e-05,5e-05,0.00011,0.00043,0.00016,0.00011,2.9999999999999997e-05,1e-05,4
14968,15402,1e-05,5e-05,0.00011,0.00043,0.00016,0.00011,2.9999999999999997e-05,1e-05,4
14969,15403,1e-05,5e-05,0.00011,0.00043,0.00016,0.00011,2.9999999999999997e-05,1e-05,4
14970,15404,1e-05,5e-05,0.00011,0.00043,0.00016,0.00011,2.9999999999999997e-05,1e-05,4
14971,15405,1e-05,5e-05,0.00011,0.00043,0.00016,0.00011,2.9999999999999997e-05,1e-05,4
14972,15406,1e-05,5e-05,0.00011,0.00043,0.00016,0.00011,2.9999999999999997e-05,1e-05,4
14973,15407,1e-05,5e-05,0.00011,0.00043,0.00016,0.00011,2.9999999999999997e-05,1e-05,4
14974,15408,1e-05,5e-05,0.00011,0.00043,0.00016,0.00011,2.9999999999999997e-05,1e-05,4
14975,15409,0.0,0.0,1e-05,0.00047000000000000004,-0.0008900000000000001,-0.00025,-5.9999999999999995e-05,1e-05,4
14976,15410,0.0,0.0,1e-05,0.00047000000000000004,-0.0008900000000000001,-0.00025,-5.9999999999999995e-05,1e-05,4
14977,15411,0.0,0.0,1e-05,0.00047000000000000004,-0.0008900000000000001,-0.00025,-5.9999999999999995e-05,1e-05,4
14978,15412,0.0,0.0,1e-05,0.00047000000000000004,-0.0008900000000000001,-0.00025,-5.9999999999999995e-05,1e-05,4
14979,15413,0.0,0.0,1e-05,0.00047000000000000004,-0.0008900000000000001,-0.00025,-5.9999999999999995e-05,1e-05,4
14980,15414,0.0,0.0,1e-05,0.00047000000000000004,-0.0008900000000000001,-0.00025,-5.9999999999999995e-05,1e-05,4
14981,15415,0.0,-1e-05,2.9999999999999997e-05,-7e-05,-0.00053,-0.00016,4e-05,0.0,4
14982,15416,0.0,-1e-05,2.9999999999999997e-05,-7e-05,-0.00053,-0.00016,4e-05,0.0,4
14983,15417,0.0,-1e-05,2.9999999999999997e-05,-7e-05,-0.00053,-0.00016,4e-05,0.0,4
14984,15418,0.0,-1e-05,2.9999999999999997e-05,-7e-05,-0.00053,-0.00016,4e-05,0.0,4
14985,15419,0.0,-1e-05,2.9999999999999997e-05,-7e-05,-0.00053,-0.00016,4e-05,0.0,4
14986,15420,0.0,-1e-05,2.9999999999999997e-05,-7e-05,-0.00053,-0.00016,4e-05,0.0,4
14987,15421,0.0,-1e-05,2.9999999999999997e-05,-7e-05,-0.00053,-0.00016,4e-05,0.0,4
14988,15422,0.0,-1e-05,2.9999999999999997e-05,-7e-05,-0.00053,-0.00016,4e-05,0.0,4
14989,15423,0.0,-1e-05,2.9999999999999997e-05,-7e-05,-0.00053,-0.00016,4e-05,0.0,4
14990,15424,0.0,-1e-05,2.9999999999999997e-05,-7e-05,-0.00053,-0.00016,4e-05,0.0,4
14991,15425,0.0,-1e-05,2.9999999999999997e-05,-7e-05,-0.00053,-0.00016,4e-05,0.0,4
14992,15426,0.0,-1e-05,2.9999999999999997e-05,-7e-05,-0.00053,-0.00016,4e-05,0.0,4
14993,15427,0.0,-1e-05,2.9999999999999997e-05,-7e-05,-0.00053,-0.00016,4e-05,0.0,4
14994,15428,0.0,-1e-05,2.9999999999999997e-05,-7e-05,-0.00053,-0.00016,4e-05,0.0,4
14995,15429,0.0,-1e-05,2.9999999999999997e-05,-7e-05,-0.00053,-0.00016,4e-05,0.0,4
14996,15430,0.0,-1e-05,-2e-05,-0.00029,-0.00022999999999999998,-0.0003,-5.9999999999999995e-05,0.0,4
14997,15431,2e-05,4e-05,2.9999999999999997e-05,-0.00016,-0.00054,-0.00027,-4e-05,5e-05,4
14998,15432,2e-05,4e-05,2.9999999999999997e-05,-0.00016,-0.00054,-0.00027,-4e-05,5e-05,4
14999,15433,2e-05,4e-05,2.9999999999999997e-05,-0.00016,-0.00054,-0.00027,-4e-05,5e-05,4
15000,15434,2e-05,4e-05,2.9999999999999997e-05,-0.00016,-0.00054,-0.00027,-4e-05,5e-05,4
15001,15435,2e-05,4e-05,2.9999999999999997e-05,-0.00016,-0.00054,-0.00027,-4e-05,5e-05,4
15002,15436,2e-05,4e-05,2.9999999999999997e-05,-0.00016,-0.00054,-0.00027,-4e-05,5e-05,4
15003,15438,2e-05,4e-05,2.9999999999999997e-05,-0.00016,-0.00054,-0.00027,-4e-05,5e-05,4
15004,15439,2e-05,4e-05,2.9999999999999997e-05,-0.00016,-0.00054,-0.00027,-4e-05,5e-05,4
15005,15440,2e-05,4e-05,2.9999999999999997e-05,-0.00016,-0.00054,-0.00027,-4e-05,5e-05,4
15006,15441,2e-05,4e-05,2.9999999999999997e-05,-0.00016,-0.00054,-0.00027,-4e-05,5e-05,4
15007,15442,2e-05,4e-05,2.9999999999999997e-05,-0.00016,-0.00054,-0.00027,-4e-05,5e-05,4
15008,15443,2e-05,4e-05,2.9999999999999997e-05,-0.00016,-0.00054,-0.00027,-4e-05,5e-05,4
15009,15444,2e-05,4e-05,2.9999999999999997e-05,-0.00016,-0.00054,-0.00027,-4e-05,5e-05,4
15010,15445,2e-05,4e-05,2.9999999999999997e-05,-0.00016,-0.00054,-0.00027,-4e-05,5e-05,4
15011,15446,2.9999999999999997e-05,2e-05,5.9999999999999995e-05,0.00014,0.00016999999999999999,-4e-05,2.9999999999999997e-05,7e-05,4
15012,15447,2.9999999999999997e-05,2e-05,5.9999999999999995e-05,0.00014,0.00016999999999999999,-4e-05,2.9999999999999997e-05,7e-05,4
15013,15448,2.9999999999999997e-05,2e-05,5.9999999999999995e-05,0.00014,0.00016999999999999999,-4e-05,2.9999999999999997e-05,7e-05,4
15014,15449,2.9999999999999997e-05,2e-05,5.9999999999999995e-05,0.00014,0.00016999999999999999,-4e-05,2.9999999999999997e-05,7e-05,4
15015,15450,2.9999999999999997e-05,2e-05,5.9999999999999995e-05,0.00014,0.00016999999999999999,-4e-05,2.9999999999999997e-05,7e-05,4
15016,15451,2.9999999999999997e-05,2e-05,5.9999999999999995e-05,0.00014,0.00016999999999999999,-4e-05,2.9999999999999997e-05,7e-05,4
15017,15452,-2.9999999999999997e-05,-9e-05,-5.9999999999999995e-05,0.00044,0.00039,0.00016999999999999999,-1e-05,-2.9999999999999997e-05,4
15018,15453,-2.9999999999999997e-05,-9e-05,-5.9999999999999995e-05,0.00044,0.00039,0.00016999999999999999,-1e-05,-2.9999999999999997e-05,4
15019,15454,-2.9999999999999997e-05,-9e-05,-5.9999999999999995e-05,0.00044,0.00039,0.00016999999999999999,-1e-05,-2.9999999999999997e-05,4
15020,15455,-2.9999999999999997e-05,-9e-05,-5.9999999999999995e-05,0.00044,0.00039,0.00016999999999999999,-1e-05,-2.9999999999999997e-05,4
15021,15456,-2.9999999999999997e-05,-9e-05,-5.9999999999999995e-05,0.00044,0.00039,0.00016999999999999999,-1e-05,-2.9999999999999997e-05,4
15022,15457,-2.9999999999999997e-05,-9e-05,-5.9999999999999995e-05,0.00044,0.00039,0.00016999999999999999,-1e-05,-2.9999999999999997e-05,4
15023,15458,-2.9999999999999997e-05,-9e-05,-5.9999999999999995e-05,0.00044,0.00039,0.00016999999999999999,-1e-05,-2.9999999999999997e-05,4
15024,15459,-2.9999999999999997e-05,-9e-05,-5.9999999999999995e-05,0.00044,0.00039,0.00016999999999999999,-1e-05,-2.9999999999999997e-05,4
15025,15460,-2.9999999999999997e-05,-9e-05,-5.9999999999999995e-05,0.00044,0.00039,0.00016999999999999999,-1e-05,-2.9999999999999997e-05,4
15026,15461,-2.9999999999999997e-05,-9e-05,-5.9999999999999995e-05,0.00044,0.00039,0.00016999999999999999,-1e-05,-2.9999999999999997e-05,4
15027,15462,-2.9999999999999997e-05,-9e-05,-5.9999999999999995e-05,0.00044,0.00039,0.00016999999999999999,-1e-05,-2.9999999999999997e-05,4
15028,15463,-2.9999999999999997e-05,-9e-05,-5.9999999999999995e-05,0.00044,0.00039,0.00016999999999999999,-1e-05,-2.9999999999999997e-05,4
15029,15464,-2.9999999999999997e-05,-9e-05,-5.9999999999999995e-05,0.00044,0.00039,0.00016999999999999999,-1e-05,-2.9999999999999997e-05,4
15030,15465,-2.9999999999999997e-05,-9e-05,-5.9999999999999995e-05,0.00044,0.00039,0.00016999999999999999,-1e-05,-2.9999999999999997e-05,4
15031,15466,-2.9999999999999997e-05,-9e-05,-5.9999999999999995e-05,0.00044,0.00039,0.00016999999999999999,-1e-05,-2.9999999999999997e-05,4
15032,15467,-2.9999999999999997e-05,-9e-05,-5.9999999999999995e-05,0.00044,0.00039,0.00016999999999999999,-1e-05,-2.9999999999999997e-05,4
15033,15468,-2.9999999999999997e-05,-9e-05,-5.9999999999999995e-05,0.00044,0.00039,0.00016999999999999999,-1e-05,-2.9999999999999997e-05,4
15034,15469,-1e-05,5e-05,5e-05,0.00021,0.00058,-0.00028,-5.9999999999999995e-05,-4e-05,4
15035,15470,-1e-05,5e-05,5e-05,0.00021,0.00058,-0.00028,-5.9999999999999995e-05,-4e-05,4
15036,15471,-1e-05,5e-05,5e-05,0.00021,0.00058,-0.00028,-5.9999999999999995e-05,-4e-05,4
15037,15472,-1e-05,5e-05,5e-05,0.00021,0.00058,-0.00028,-5.9999999999999995e-05,-4e-05,4
15038,15473,-1e-05,5e-05,5e-05,0.00021,0.00058,-0.00028,-5.9999999999999995e-05,-4e-05,4
15039,15474,-1e-05,5e-05,5e-05,0.00021,0.00058,-0.00028,-5.9999999999999995e-05,-4e-05,4
15040,15475,-2e-05,-2.9999999999999997e-05,-7e-05,-5.9999999999999995e-05,-0.00021,0.00027,-2e-05,-2.9999999999999997e-05,4
15041,15476,-2e-05,-2.9999999999999997e-05,-7e-05,-5.9999999999999995e-05,-0.00021,0.00027,-2e-05,-2.9999999999999997e-05,4
15042,15477,-2e-05,-2.9999999999999997e-05,-7e-05,-5.9999999999999995e-05,-0.00021,0.00027,-2e-05,-2.9999999999999997e-05,4
15043,15478,-2e-05,-2.9999999999999997e-05,-7e-05,-5.9999999999999995e-05,-0.00021,0.00027,-2e-05,-2.9999999999999997e-05,4
15044,15479,-2e-05,-2.9999999999999997e-05,-7e-05,-5.9999999999999995e-05,-0.00021,0.00027,-2e-05,-2.9999999999999997e-05,4
15045,15480,-2e-05,-2.9999999999999997e-05,-7e-05,-5.9999999999999995e-05,-0.00021,0.00027,-2e-05,-2.9999999999999997e-05,4
15046,15481,-2e-05,-2.9999999999999997e-05,-7e-05,-5.9999999999999995e-05,-0.00021,0.00027,-2e-05,-2.9999999999999997e-05,4
15047,15482,-2e-05,-2.9999999999999997e-05,-7e-05,-5.9999999999999995e-05,-0.00021,0.00027,-2e-05,-2.9999999999999997e-05,4
15048,15483,-2e-05,-2.9999999999999997e-05,-7e-05,-5.9999999999999995e-05,-0.00021,0.00027,-2e-05,-2.9999999999999997e-05,4
15049,15484,-2e-05,-2.9999999999999997e-05,-7e-05,-5.9999999999999995e-05,-0.00021,0.00027,-2e-05,-2.9999999999999997e-05,4
15050,15485,-2e-05,-2.9999999999999997e-05,-7e-05,-5.9999999999999995e-05,-0.00021,0.00027,-2e-05,-2.9999999999999997e-05,4
15051,15486,-2e-05,-2.9999999999999997e-05,-7e-05,-5.9999999999999995e-05,-0.00021,0.00027,-2e-05,-2.9999999999999997e-05,4
15052,15488,-2e-05,-2.9999999999999997e-05,-7e-05,-5.9999999999999995e-05,-0.00021,0.00027,-2e-05,-2.9999999999999997e-05,4
15053,15489,-2e-05,-2.9999999999999997e-05,-7e-05,-5.9999999999999995e-05,-0.00021,0.00027,-2e-05,-2.9999999999999997e-05,4
15054,15490,0.0,1e-05,8e-05,0.00049,0.00022,-0.00011999999999999999,1e-05,-1e-05,4
15055,15491,0.0,-1e-05,1e-05,0.00029,0.00047000000000000004,0.0006,5.9999999999999995e-05,-2e-05,4
15056,15492,0.0,-1e-05,1e-05,0.00029,0.00047000000000000004,0.0006,5.9999999999999995e-05,-2e-05,4
15057,15493,0.0,-1e-05,1e-05,0.00029,0.00047000000000000004,0.0006,5.9999999999999995e-05,-2e-05,4
15058,15494,0.0,-1e-05,1e-05,0.00029,0.00047000000000000004,0.0006,5.9999999999999995e-05,-2e-05,4
15059,15495,0.0,-1e-05,1e-05,0.00029,0.00047000000000000004,0.0006,5.9999999999999995e-05,-2e-05,4
15060,15496,0.0,-1e-05,1e-05,0.00029,0.00047000000000000004,0.0006,5.9999999999999995e-05,-2e-05,4
15061,15497,0.0,-1e-05,1e-05,0.00029,0.00047000000000000004,0.0006,5.9999999999999995e-05,-2e-05,4
15062,15498,0.0,-1e-05,1e-05,0.00029,0.00047000000000000004,0.0006,5.9999999999999995e-05,-2e-05,4
15063,15499,0.0,-1e-05,1e-05,0.00029,0.00047000000000000004,0.0006,5.9999999999999995e-05,-2e-05,4
15064,15500,0.0,-1e-05,1e-05,0.00029,0.00047000000000000004,0.0006,5.9999999999999995e-05,-2e-05,4
15065,15501,0.0,-1e-05,1e-05,0.00029,0.00047000000000000004,0.0006,5.9999999999999995e-05,-2e-05,4
15066,15502,0.0,-1e-05,1e-05,0.00029,0.00047000000000000004,0.0006,5.9999999999999995e-05,-2e-05,4
15067,15503,0.0,-1e-05,1e-05,0.00029,0.00047000000000000004,0.0006,5.9999999999999995e-05,-2e-05,4
15068,15504,0.0,-1e-05,1e-05,0.00029,0.00047000000000000004,0.0006,5.9999999999999995e-05,-2e-05,4
15069,15505,0.0,-1e-05,1e-05,0.00029,0.00047000000000000004,0.0006,5.9999999999999995e-05,-2e-05,4
15070,15506,-1e-05,2e-05,4e-05,2.9999999999999997e-05,0.00021,0.0006,-1e-05,-4e-05,4
15071,15507,-1e-05,2e-05,4e-05,2.9999999999999997e-05,0.00021,0.0006,-1e-05,-4e-05,4
15072,15508,-1e-05,2e-05,4e-05,2.9999999999999997e-05,0.00021,0.0006,-1e-05,-4e-05,4
15073,15509,-1e-05,2e-05,4e-05,2.9999999999999997e-05,0.00021,0.0006,-1e-05,-4e-05,4
15074,15510,-1e-05,2e-05,4e-05,2.9999999999999997e-05,0.00021,0.0006,-1e-05,-4e-05,4
15075,15511,-1e-05,2e-05,4e-05,2.9999999999999997e-05,0.00021,0.0006,-1e-05,-4e-05,4
15076,15512,-4e-05,-5e-05,-0.00014,-0.00093,5.9999999999999995e-05,-5e-05,1e-05,0.0,4
15077,15513,-4e-05,-5e-05,-0.00014,-0.00093,5.9999999999999995e-05,-5e-05,1e-05,0.0,4
15078,15514,-4e-05,-5e-05,-0.00014,-0.00093,5.9999999999999995e-05,-5e-05,1e-05,0.0,4
15079,15515,-4e-05,-5e-05,-0.00014,-0.00093,5.9999999999999995e-05,-5e-05,1e-05,0.0,4
15080,15516,-4e-05,-5e-05,-0.00014,-0.00093,5.9999999999999995e-05,-5e-05,1e-05,0.0,4
15081,15517,-4e-05,-5e-05,-0.00014,-0.00093,5.9999999999999995e-05,-5e-05,1e-05,0.0,4
15082,15518,-4e-05,-5e-05,-0.00014,-0.00093,5.9999999999999995e-05,-5e-05,1e-05,0.0,4
15083,15519,-4e-05,-5e-05,-0.00014,-0.00093,5.9999999999999995e-05,-5e-05,1e-05,0.0,4
15084,15520,-4e-05,-5e-05,-0.00014,-0.00093,5.9999999999999995e-05,-5e-05,1e-05,0.0,4
15085,15521,-4e-05,-5e-05,-0.00014,-0.00093,5.9999999999999995e-05,-5e-05,1e-05,0.0,4
15086,15522,-4e-05,-5e-05,-0.00014,-0.00093,5.9999999999999995e-05,-5e-05,1e-05,0.0,4
15087,15523,-4e-05,-5e-05,-0.00014,-0.00093,5.9999999999999995e-05,-5e-05,1e-05,0.0,4
15088,15524,-4e-05,-5e-05,-0.00014,-0.00093,5.9999999999999995e-05,-5e-05,1e-05,0.0,4
15089,15525,-4e-05,-5e-05,-0.00014,-0.00093,5.9999999999999995e-05,-5e-05,1e-05,0.0,4
15090,15526,-4e-05,-5e-05,-0.00014,-0.00093,5.9999999999999995e-05,-5e-05,1e-05,0.0,4
15091,15527,-4e-05,-5e-05,-0.00014,-0.00093,5.9999999999999995e-05,-5e-05,1e-05,0.0,4
15092,15528,-4e-05,-5e-05,-0.00014,-0.00093,5.9999999999999995e-05,-5e-05,1e-05,0.0,4
15093,15529,-4e-05,-2.9999999999999997e-05,-7e-05,-0.0002,0.00033,0.00021,5e-05,-2e-05,4
15094,15530,-4e-05,-2.9999999999999997e-05,-7e-05,-0.0002,0.00033,0.00021,5e-05,-2e-05,4
15095,15531,-4e-05,-2.9999999999999997e-05,-7e-05,-0.0002,0.00033,0.00021,5e-05,-2e-05,4
15096,15532,-4e-05,-2.9999999999999997e-05,-7e-05,-0.0002,0.00033,0.00021,5e-05,-2e-05,4
15097,15533,-4e-05,-2.9999999999999997e-05,-7e-05,-0.0002,0.00033,0.00021,5e-05,-2e-05,4
15098,15534,-4e-05,-2.9999999999999997e-05,-7e-05,-0.0002,0.00033,0.00021,5e-05,-2e-05,4
15099,15535,-1e-05,0.0,-5e-05,4e-05,5e-05,-1e-05,7e-05,1e-05,4
15100,15536,-1e-05,0.0,-5e-05,4e-05,5e-05,-1e-05,7e-05,1e-05,4
15101,15538,-1e-05,0.0,-5e-05,4e-05,5e-05,-1e-05,7e-05,1e-05,4
15102,15539,-1e-05,0.0,-5e-05,4e-05,5e-05,-1e-05,7e-05,1e-05,4
15103,15540,-1e-05,0.0,-5e-05,4e-05,5e-05,-1e-05,7e-05,1e-05,4
15104,15541,-1e-05,0.0,-5e-05,4e-05,5e-05,-1e-05,7e-05,1e-05,4
15105,15542,-1e-05,0.0,-5e-05,4e-05,5e-05,-1e-05,7e-05,1e-05,4
15106,15543,-1e-05,0.0,-5e-05,4e-05,5e-05,-1e-05,7e-05,1e-05,4
15107,15544,-1e-05,0.0,-5e-05,4e-05,5e-05,-1e-05,7e-05,1e-05,4
15108,15545,-1e-05,0.0,-5e-05,4e-05,5e-05,-1e-05,7e-05,1e-05,4
15109,15546,-1e-05,0.0,-5e-05,4e-05,5e-05,-1e-05,7e-05,1e-05,4
15110,15547,-1e-05,0.0,-5e-05,4e-05,5e-05,-1e-05,7e-05,1e-05,4
15111,15548,-1e-05,0.0,-5e-05,4e-05,5e-05,-1e-05,7e-05,1e-05,4
15112,15549,-1e-05,0.0,-5e-05,4e-05,5e-05,-1e-05,7e-05,1e-05,4
15113,15550,-2.9999999999999997e-05,-7e-05,-9e-05,-0.00022,-4e-05,-7e-05,2.9999999999999997e-05,-2e-05,4
15114,15551,2.9999999999999997e-05,4e-05,4e-05,-0.00032,0.00028,-5e-05,-7e-05,2e-05,4
15115,15552,2.9999999999999997e-05,4e-05,4e-05,-0.00032,0.00028,-5e-05,-7e-05,2e-05,4
15116,15553,2.9999999999999997e-05,4e-05,4e-05,-0.00032,0.00028,-5e-05,-7e-05,2e-05,4
15117,15554,2.9999999999999997e-05,4e-05,4e-05,-0.00032,0.00028,-5e-05,-7e-05,2e-05,4
15118,15555,2.9999999999999997e-05,4e-05,4e-05,-0.00032,0.00028,-5e-05,-7e-05,2e-05,4
15119,15556,2.9999999999999997e-05,4e-05,4e-05,-0.00032,0.00028,-5e-05,-7e-05,2e-05,4
15120,15557,2.9999999999999997e-05,4e-05,4e-05,-0.00032,0.00028,-5e-05,-7e-05,2e-05,4
15121,15558,2.9999999999999997e-05,4e-05,4e-05,-0.00032,0.00028,-5e-05,-7e-05,2e-05,4
15122,15559,2.9999999999999997e-05,4e-05,4e-05,-0.00032,0.00028,-5e-05,-7e-05,2e-05,4
15123,15560,2.9999999999999997e-05,4e-05,4e-05,-0.00032,0.00028,-5e-05,-7e-05,2e-05,4
15124,15561,2.9999999999999997e-05,4e-05,4e-05,-0.00032,0.00028,-5e-05,-7e-05,2e-05,4
15125,15562,2.9999999999999997e-05,4e-05,4e-05,-0.00032,0.00028,-5e-05,-7e-05,2e-05,4
15126,15563,2.9999999999999997e-05,4e-05,4e-05,-0.00032,0.00028,-5e-05,-7e-05,2e-05,4
15127,15564,2.9999999999999997e-05,4e-05,4e-05,-0.00032,0.00028,-5e-05,-7e-05,2e-05,4
15128,15565,2.9999999999999997e-05,4e-05,4e-05,-0.00032,0.00028,-5e-05,-7e-05,2e-05,4
15129,15566,1e-05,-1e-05,-1e-05,-9e-05,-0.00033999999999999997,-0.0006799999999999999,0.0,0.0,4
15130,15567,1e-05,-1e-05,-1e-05,-9e-05,-0.00033999999999999997,-0.0006799999999999999,0.0,0.0,4
15131,15568,1e-05,-1e-05,-1e-05,-9e-05,-0.00033999999999999997,-0.0006799999999999999,0.0,0.0,4
15132,15569,1e-05,-1e-05,-1e-05,-9e-05,-0.00033999999999999997,-0.0006799999999999999,0.0,0.0,4
15133,15570,1e-05,-1e-05,-1e-05,-9e-05,-0.00033999999999999997,-0.0006799999999999999,0.0,0.0,4
15134,15571,1e-05,-1e-05,-1e-05,-9e-05,-0.00033999999999999997,-0.0006799999999999999,0.0,0.0,4
15135,15572,-2.9999999999999997e-05,1e-05,-2e-05,-0.00011999999999999999,-0.0001,0.00045,0.0,-1e-05,4
15136,15573,1e-05,-1e-05,2e-05,-7e-05,0.00015,-9e-05,7e-05,1e-05,4
15137,15574,1e-05,-1e-05,2e-05,-7e-05,0.00015,-9e-05,7e-05,1e-05,4
15138,15575,1e-05,-1e-05,2e-05,-7e-05,0.00015,-9e-05,7e-05,1e-05,4
15139,15576,1e-05,-1e-05,2e-05,-7e-05,0.00015,-9e-05,7e-05,1e-05,4
15140,15577,1e-05,-1e-05,2e-05,-7e-05,0.00015,-9e-05,7e-05,1e-05,4
15141,15578,1e-05,-1e-05,2e-05,-7e-05,0.00015,-9e-05,7e-05,1e-05,4
15142,15579,1e-05,-1e-05,2e-05,-7e-05,0.00015,-9e-05,7e-05,1e-05,4
15143,15580,1e-05,-1e-05,2e-05,-7e-05,0.00015,-9e-05,7e-05,1e-05,4
15144,15581,1e-05,-1e-05,2e-05,-7e-05,0.00015,-9e-05,7e-05,1e-05,4
15145,15582,1e-05,-1e-05,2e-05,-7e-05,0.00015,-9e-05,7e-05,1e-05,4
15146,15583,1e-05,-1e-05,2e-05,-7e-05,0.00015,-9e-05,7e-05,1e-05,4
15147,15584,1e-05,-1e-05,2e-05,-7e-05,0.00015,-9e-05,7e-05,1e-05,4
15148,15585,1e-05,-1e-05,2e-05,-7e-05,0.00015,-9e-05,7e-05,1e-05,4
15149,15586,1e-05,-1e-05,2e-05,-7e-05,0.00015,-9e-05,7e-05,1e-05,4
15150,15589,-1e-05,0.0,-2e-05,-0.00025,-9e-05,0.00025,0.0,-1e-05,4
15151,15590,-1e-05,0.0,-2e-05,-0.00025,-9e-05,0.00025,0.0,-1e-05,4
15152,15591,-1e-05,0.0,-2e-05,-0.00025,-9e-05,0.00025,0.0,-1e-05,4
15153,15592,-1e-05,0.0,-2e-05,-0.00025,-9e-05,0.00025,0.0,-1e-05,4
15154,15593,-1e-05,0.0,-2e-05,-0.00025,-9e-05,0.00025,0.0,-1e-05,4
15155,15594,-1e-05,0.0,-2e-05,-0.00025,-9e-05,0.00025,0.0,-1e-05,4
15156,15595,-1e-05,-2e-05,1e-05,0.0004,-0.0003,-0.00022,-5e-05,-2.9999999999999997e-05,4
15157,15596,-1e-05,-2e-05,1e-05,0.0004,-0.0003,-0.00022,-5e-05,-2.9999999999999997e-05,4
15158,15597,-1e-05,-2e-05,1e-05,0.0004,-0.0003,-0.00022,-5e-05,-2.9999999999999997e-05,4
15159,15598,-1e-05,-2e-05,1e-05,0.0004,-0.0003,-0.00022,-5e-05,-2.9999999999999997e-05,4
15160,15599,-1e-05,-2e-05,1e-05,0.0004,-0.0003,-0.00022,-5e-05,-2.9999999999999997e-05,4
15161,15600,-1e-05,-2e-05,1e-05,0.0004,-0.0003,-0.00022,-5e-05,-2.9999999999999997e-05,4
15162,15601,-1e-05,-2e-05,1e-05,0.0004,-0.0003,-0.00022,-5e-05,-2.9999999999999997e-05,4
15163,15602,-1e-05,-2e-05,1e-05,0.0004,-0.0003,-0.00022,-5e-05,-2.9999999999999997e-05,4
15164,15603,-1e-05,-2e-05,1e-05,0.0004,-0.0003,-0.00022,-5e-05,-2.9999999999999997e-05,4
15165,15604,-1e-05,-2e-05,1e-05,0.0004,-0.0003,-0.00022,-5e-05,-2.9999999999999997e-05,4
15166,15605,-1e-05,-2e-05,1e-05,0.0004,-0.0003,-0.00022,-5e-05,-2.9999999999999997e-05,4
15167,15606,-1e-05,-2e-05,1e-05,0.0004,-0.0003,-0.00022,-5e-05,-2.9999999999999997e-05,4
15168,15607,-1e-05,-2e-05,1e-05,0.0004,-0.0003,-0.00022,-5e-05,-2.9999999999999997e-05,4
15169,15608,-1e-05,-2e-05,1e-05,0.0004,-0.0003,-0.00022,-5e-05,-2.9999999999999997e-05,4
15170,15609,-1e-05,-2e-05,1e-05,0.0004,-0.0003,-0.00022,-5e-05,-2.9999999999999997e-05,4
15171,15610,-1e-05,-2e-05,1e-05,0.0004,-0.0003,-0.00022,-5e-05,-2.9999999999999997e-05,4
15172,15611,0.0,2.9999999999999997e-05,0.00015,0.00091,4e-05,0.00011,-2.9999999999999997e-05,2.9999999999999997e-05,4
15173,15612,0.0,2.9999999999999997e-05,0.00015,0.00091,4e-05,0.00011,-2.9999999999999997e-05,2.9999999999999997e-05,4
15174,15613,0.0,2.9999999999999997e-05,0.00015,0.00091,4e-05,0.00011,-2.9999999999999997e-05,2.9999999999999997e-05,4
15175,15614,0.0,2.9999999999999997e-05,0.00015,0.00091,4e-05,0.00011,-2.9999999999999997e-05,2.9999999999999997e-05,4
15176,15615,0.0,2.9999999999999997e-05,0.00015,0.00091,4e-05,0.00011,-2.9999999999999997e-05,2.9999999999999997e-05,4
15177,15616,0.0,2.9999999999999997e-05,0.00015,0.00091,4e-05,0.00011,-2.9999999999999997e-05,2.9999999999999997e-05,4
15178,15617,1e-05,-2e-05,-2.9999999999999997e-05,-0.00026000000000000003,-0.00053,-0.00037,-2.9999999999999997e-05,-1e-05,4
15179,15618,1e-05,-2e-05,-2.9999999999999997e-05,-0.00026000000000000003,-0.00053,-0.00037,-2.9999999999999997e-05,-1e-05,4
15180,15619,1e-05,-2e-05,-2.9999999999999997e-05,-0.00026000000000000003,-0.00053,-0.00037,-2.9999999999999997e-05,-1e-05,4
15181,15620,1e-05,-2e-05,-2.9999999999999997e-05,-0.00026000000000000003,-0.00053,-0.00037,-2.9999999999999997e-05,-1e-05,4
15182,15621,1e-05,-2e-05,-2.9999999999999997e-05,-0.00026000000000000003,-0.00053,-0.00037,-2.9999999999999997e-05,-1e-05,4
15183,15622,1e-05,-2e-05,-2.9999999999999997e-05,-0.00026000000000000003,-0.00053,-0.00037,-2.9999999999999997e-05,-1e-05,4
15184,15623,1e-05,-2e-05,-2.9999999999999997e-05,-0.00026000000000000003,-0.00053,-0.00037,-2.9999999999999997e-05,-1e-05,4
15185,15624,1e-05,-2e-05,-2.9999999999999997e-05,-0.00026000000000000003,-0.00053,-0.00037,-2.9999999999999997e-05,-1e-05,4
15186,15625,1e-05,-2e-05,-2.9999999999999997e-05,-0.00026000000000000003,-0.00053,-0.00037,-2.9999999999999997e-05,-1e-05,4
15187,15626,1e-05,-2e-05,-2.9999999999999997e-05,-0.00026000000000000003,-0.00053,-0.00037,-2.9999999999999997e-05,-1e-05,4
15188,15627,1e-05,-2e-05,-2.9999999999999997e-05,-0.00026000000000000003,-0.00053,-0.00037,-2.9999999999999997e-05,-1e-05,4
15189,15628,1e-05,-2e-05,-2.9999999999999997e-05,-0.00026000000000000003,-0.00053,-0.00037,-2.9999999999999997e-05,-1e-05,4
15190,15629,1e-05,-2e-05,-2.9999999999999997e-05,-0.00026000000000000003,-0.00053,-0.00037,-2.9999999999999997e-05,-1e-05,4
15191,15630,1e-05,-2e-05,-2.9999999999999997e-05,-0.00026000000000000003,-0.00053,-0.00037,-2.9999999999999997e-05,-1e-05,4
15192,15631,1e-05,-2e-05,-2.9999999999999997e-05,-0.00026000000000000003,-0.00053,-0.00037,-2.9999999999999997e-05,-1e-05,4
15193,15632,1e-05,-2e-05,-2.9999999999999997e-05,-0.00026000000000000003,-0.00053,-0.00037,-2.9999999999999997e-05,-1e-05,4
15194,15633,2.9999999999999997e-05,5e-05,0.0001,0.00013000000000000002,-0.00047999999999999996,0.00022999999999999998,-2.9999999999999997e-05,2e-05,4
15195,15634,-4e-05,0.0,-1e-05,5.9999999999999995e-05,-0.00022,8e-05,-7e-05,-5e-05,4
15196,15635,-4e-05,0.0,-1e-05,5.9999999999999995e-05,-0.00022,8e-05,-7e-05,-5e-05,4
15197,15636,-4e-05,0.0,-1e-05,5.9999999999999995e-05,-0.00022,8e-05,-7e-05,-5e-05,4
15198,15638,-4e-05,0.0,-1e-05,5.9999999999999995e-05,-0.00022,8e-05,-7e-05,-5e-05,4
15199,15639,-4e-05,0.0,-1e-05,5.9999999999999995e-05,-0.00022,8e-05,-7e-05,-5e-05,4
15200,15640,-4e-05,0.0,-1e-05,5.9999999999999995e-05,-0.00022,8e-05,-7e-05,-5e-05,4
15201,15641,-4e-05,0.0,-1e-05,5.9999999999999995e-05,-0.00022,8e-05,-7e-05,-5e-05,4
15202,15642,-4e-05,0.0,-1e-05,5.9999999999999995e-05,-0.00022,8e-05,-7e-05,-5e-05,4
15203,15643,-4e-05,0.0,-1e-05,5.9999999999999995e-05,-0.00022,8e-05,-7e-05,-5e-05,4
15204,15644,-4e-05,0.0,-1e-05,5.9999999999999995e-05,-0.00022,8e-05,-7e-05,-5e-05,4
15205,15645,-4e-05,0.0,-1e-05,5.9999999999999995e-05,-0.00022,8e-05,-7e-05,-5e-05,4
15206,15646,-4e-05,0.0,-1e-05,5.9999999999999995e-05,-0.00022,8e-05,-7e-05,-5e-05,4
15207,15647,-2e-05,-2.9999999999999997e-05,-9e-05,-0.00036,-0.00031,-0.00011999999999999999,-2e-05,-5e-05,4
15208,15648,-2e-05,-2.9999999999999997e-05,-9e-05,-0.00036,-0.00031,-0.00011999999999999999,-2e-05,-5e-05,4
15209,15649,-2e-05,-2.9999999999999997e-05,-9e-05,-0.00036,-0.00031,-0.00011999999999999999,-2e-05,-5e-05,4
15210,15650,-2e-05,-2.9999999999999997e-05,-9e-05,-0.00036,-0.00031,-0.00011999999999999999,-2e-05,-5e-05,4
15211,15651,-2e-05,-2.9999999999999997e-05,-9e-05,-0.00036,-0.00031,-0.00011999999999999999,-2e-05,-5e-05,4
15212,15652,-2e-05,-2.9999999999999997e-05,-9e-05,-0.00036,-0.00031,-0.00011999999999999999,-2e-05,-5e-05,4
15213,15653,-2e-05,-2.9999999999999997e-05,-9e-05,-0.00036,-0.00031,-0.00011999999999999999,-2e-05,-5e-05,4
15214,15654,-2e-05,-2.9999999999999997e-05,-9e-05,-0.00036,-0.00031,-0.00011999999999999999,-2e-05,-5e-05,4
15215,15655,1e-05,-1e-05,0.0,-0.00033999999999999997,0.00021,0.00016999999999999999,4e-05,2e-05,4
15216,15656,1e-05,-1e-05,0.0,-0.00033999999999999997,0.00021,0.00016999999999999999,4e-05,2e-05,4
15217,15657,1e-05,-1e-05,0.0,-0.00033999999999999997,0.00021,0.00016999999999999999,4e-05,2e-05,4
15218,15658,1e-05,-1e-05,0.0,-0.00033999999999999997,0.00021,0.00016999999999999999,4e-05,2e-05,4
15219,15659,1e-05,-1e-05,0.0,-0.00033999999999999997,0.00021,0.00016999999999999999,4e-05,2e-05,4
15220,15660,1e-05,-1e-05,0.0,-0.00033999999999999997,0.00021,0.00016999999999999999,4e-05,2e-05,4
15221,15661,1e-05,-1e-05,0.0,-0.00033999999999999997,0.00021,0.00016999999999999999,4e-05,2e-05,4
15222,15662,1e-05,-1e-05,0.0,-0.00033999999999999997,0.00021,0.00016999999999999999,4e-05,2e-05,4
15223,15663,1e-05,-1e-05,0.0,-0.00033999999999999997,0.00021,0.00016999999999999999,4e-05,2e-05,4
15224,15664,1e-05,-1e-05,0.0,-0.00033999999999999997,0.00021,0.00016999999999999999,4e-05,2e-05,4
15225,15665,1e-05,-1e-05,0.0,-0.00033999999999999997,0.00021,0.00016999999999999999,4e-05,2e-05,4
15226,15666,1e-05,-1e-05,0.0,-0.00033999999999999997,0.00021,0.00016999999999999999,4e-05,2e-05,4
15227,15667,1e-05,-1e-05,0.0,-0.00033999999999999997,0.00021,0.00016999999999999999,4e-05,2e-05,4
15228,15668,1e-05,-1e-05,0.0,-0.00033999999999999997,0.00021,0.00016999999999999999,4e-05,2e-05,4
15229,15669,1e-05,-1e-05,0.0,-0.00033999999999999997,0.00021,0.00016999999999999999,4e-05,2e-05,4
15230,15670,-2e-05,-5e-05,-2.9999999999999997e-05,-0.00028,-0.00072,-0.00047000000000000004,2.9999999999999997e-05,-2.9999999999999997e-05,4
15231,15671,-2e-05,-5e-05,-2.9999999999999997e-05,-0.00028,-0.00072,-0.00047000000000000004,2.9999999999999997e-05,-2.9999999999999997e-05,4
15232,15672,-2e-05,-5e-05,-2.9999999999999997e-05,-0.00028,-0.00072,-0.00047000000000000004,2.9999999999999997e-05,-2.9999999999999997e-05,4
15233,15673,-2e-05,-5e-05,-2.9999999999999997e-05,-0.00028,-0.00072,-0.00047000000000000004,2.9999999999999997e-05,-2.9999999999999997e-05,4
15234,15674,-2e-05,-5e-05,-2.9999999999999997e-05,-0.00028,-0.00072,-0.00047000000000000004,2.9999999999999997e-05,-2.9999999999999997e-05,4
15235,15675,-2e-05,-5e-05,-2.9999999999999997e-05,-0.00028,-0.00072,-0.00047000000000000004,2.9999999999999997e-05,-2.9999999999999997e-05,4
15236,15676,-2e-05,-5e-05,-2.9999999999999997e-05,-0.00028,-0.00072,-0.00047000000000000004,2.9999999999999997e-05,-2.9999999999999997e-05,4
15237,15677,0.0,1e-05,-5.9999999999999995e-05,-0.00025,0.0002,0.00061,-2e-05,2.9999999999999997e-05,4
15238,15678,0.0,1e-05,-5.9999999999999995e-05,-0.00025,0.0002,0.00061,-2e-05,2.9999999999999997e-05,4
15239,15679,0.0,1e-05,-5.9999999999999995e-05,-0.00025,0.0002,0.00061,-2e-05,2.9999999999999997e-05,4
15240,15680,0.0,1e-05,-5.9999999999999995e-05,-0.00025,0.0002,0.00061,-2e-05,2.9999999999999997e-05,4
15241,15681,0.0,1e-05,-5.9999999999999995e-05,-0.00025,0.0002,0.00061,-2e-05,2.9999999999999997e-05,4
15242,15682,0.0,1e-05,-5.9999999999999995e-05,-0.00025,0.0002,0.00061,-2e-05,2.9999999999999997e-05,4
15243,15683,0.0,1e-05,-5.9999999999999995e-05,-0.00025,0.0002,0.00061,-2e-05,2.9999999999999997e-05,4
15244,15684,0.0,1e-05,-5.9999999999999995e-05,-0.00025,0.0002,0.00061,-2e-05,2.9999999999999997e-05,4
15245,15685,0.0,1e-05,-5.9999999999999995e-05,-0.00025,0.0002,0.00061,-2e-05,2.9999999999999997e-05,4
15246,15686,-2e-05,0.0,-5.9999999999999995e-05,-0.00047999999999999996,5e-05,0.00011999999999999999,-4e-05,1e-05,4
15247,15688,-2e-05,0.0,-5.9999999999999995e-05,-0.00047999999999999996,5e-05,0.00011999999999999999,-4e-05,1e-05,4
15248,15689,-2e-05,0.0,-5.9999999999999995e-05,-0.00047999999999999996,5e-05,0.00011999999999999999,-4e-05,1e-05,4
15249,15690,-2e-05,0.0,-5.9999999999999995e-05,-0.00047999999999999996,5e-05,0.00011999999999999999,-4e-05,1e-05,4
15250,15691,-2e-05,0.0,-5.9999999999999995e-05,-0.00047999999999999996,5e-05,0.00011999999999999999,-4e-05,1e-05,4
15251,15692,0.0,1e-05,1e-05,-0.00037,-0.00023999999999999998,-0.00018999999999999998,-8e-05,-8e-05,4
15252,15693,0.0,1e-05,1e-05,-0.00037,-0.00023999999999999998,-0.00018999999999999998,-8e-05,-8e-05,4
15253,15694,0.0,1e-05,1e-05,-0.00037,-0.00023999999999999998,-0.00018999999999999998,-8e-05,-8e-05,4
15254,15695,0.0,1e-05,1e-05,-0.00037,-0.00023999999999999998,-0.00018999999999999998,-8e-05,-8e-05,4
15255,15696,0.0,1e-05,1e-05,-0.00037,-0.00023999999999999998,-0.00018999999999999998,-8e-05,-8e-05,4
15256,15697,0.0,1e-05,1e-05,-0.00037,-0.00023999999999999998,-0.00018999999999999998,-8e-05,-8e-05,4
15257,15698,0.0,1e-05,1e-05,-0.00037,-0.00023999999999999998,-0.00018999999999999998,-8e-05,-8e-05,4
15258,15699,0.0,1e-05,1e-05,-0.00037,-0.00023999999999999998,-0.00018999999999999998,-8e-05,-8e-05,4
15259,15700,0.0,1e-05,1e-05,-0.00037,-0.00023999999999999998,-0.00018999999999999998,-8e-05,-8e-05,4
15260,15701,0.0,1e-05,1e-05,-0.00037,-0.00023999999999999998,-0.00018999999999999998,-8e-05,-8e-05,4
15261,15702,0.0,1e-05,1e-05,-0.00037,-0.00023999999999999998,-0.00018999999999999998,-8e-05,-8e-05,4
15262,15703,0.0,1e-05,1e-05,-0.00037,-0.00023999999999999998,-0.00018999999999999998,-8e-05,-8e-05,4
15263,15704,0.0,1e-05,1e-05,-0.00037,-0.00023999999999999998,-0.00018999999999999998,-8e-05,-8e-05,4
15264,15705,0.0,1e-05,1e-05,-0.00037,-0.00023999999999999998,-0.00018999999999999998,-8e-05,-8e-05,4
15265,15706,0.0,1e-05,1e-05,-0.00037,-0.00023999999999999998,-0.00018999999999999998,-8e-05,-8e-05,4
15266,15707,-2.9999999999999997e-05,-2e-05,-9e-05,5.9999999999999995e-05,-7e-05,0.00063,5.9999999999999995e-05,1e-05,4
15267,15708,-2.9999999999999997e-05,-2e-05,-9e-05,5.9999999999999995e-05,-7e-05,0.00063,5.9999999999999995e-05,1e-05,4
15268,15709,-2.9999999999999997e-05,-2e-05,-9e-05,5.9999999999999995e-05,-7e-05,0.00063,5.9999999999999995e-05,1e-05,4
15269,15710,-2.9999999999999997e-05,-2e-05,-9e-05,5.9999999999999995e-05,-7e-05,0.00063,5.9999999999999995e-05,1e-05,4
15270,15711,-2.9999999999999997e-05,-2e-05,-9e-05,5.9999999999999995e-05,-7e-05,0.00063,5.9999999999999995e-05,1e-05,4
15271,15712,-2.9999999999999997e-05,-2e-05,-9e-05,5.9999999999999995e-05,-7e-05,0.00063,5.9999999999999995e-05,1e-05,4
15272,15713,-2.9999999999999997e-05,-2e-05,-9e-05,5.9999999999999995e-05,-7e-05,0.00063,5.9999999999999995e-05,1e-05,4
15273,15714,-2.9999999999999997e-05,-2e-05,-9e-05,5.9999999999999995e-05,-7e-05,0.00063,5.9999999999999995e-05,1e-05,4
15274,15715,-5e-05,-1e-05,-1e-05,0.00016,0.00105,9e-05,5e-05,-2e-05,4
15275,15716,-5e-05,-1e-05,-1e-05,0.00016,0.00105,9e-05,5e-05,-2e-05,4
15276,15717,-5e-05,-1e-05,-1e-05,0.00016,0.00105,9e-05,5e-05,-2e-05,4
15277,15718,-5e-05,-1e-05,-1e-05,0.00016,0.00105,9e-05,5e-05,-2e-05,4
15278,15719,-5e-05,-1e-05,-1e-05,0.00016,0.00105,9e-05,5e-05,-2e-05,4
15279,15720,-5e-05,-1e-05,-1e-05,0.00016,0.00105,9e-05,5e-05,-2e-05,4
15280,15721,-5e-05,-1e-05,-1e-05,0.00016,0.00105,9e-05,5e-05,-2e-05,4
15281,15722,-5e-05,-1e-05,-1e-05,0.00016,0.00105,9e-05,5e-05,-2e-05,4
15282,15723,-5e-05,-1e-05,-1e-05,0.00016,0.00105,9e-05,5e-05,-2e-05,4
15283,15724,-5e-05,-1e-05,-1e-05,0.00016,0.00105,9e-05,5e-05,-2e-05,4
15284,15725,-5e-05,-1e-05,-1e-05,0.00016,0.00105,9e-05,5e-05,-2e-05,4
15285,15726,-5e-05,-1e-05,-1e-05,0.00016,0.00105,9e-05,5e-05,-2e-05,4
15286,15727,-5e-05,-1e-05,-1e-05,0.00016,0.00105,9e-05,5e-05,-2e-05,4
15287,15728,-5e-05,-1e-05,-1e-05,0.00016,0.00105,9e-05,5e-05,-2e-05,4
15288,15729,-5e-05,-1e-05,-1e-05,0.00016,0.00105,9e-05,5e-05,-2e-05,4
15289,15730,-2e-05,2e-05,2e-05,-0.00015,0.00088,0.00021,-1e-05,-2.9999999999999997e-05,4
15290,15731,-2e-05,2e-05,2e-05,-0.00015,0.00088,0.00021,-1e-05,-2.9999999999999997e-05,4
15291,15732,-2e-05,2e-05,2e-05,-0.00015,0.00088,0.00021,-1e-05,-2.9999999999999997e-05,4
15292,15733,-2e-05,2e-05,2e-05,-0.00015,0.00088,0.00021,-1e-05,-2.9999999999999997e-05,4
15293,15734,-2e-05,2e-05,2e-05,-0.00015,0.00088,0.00021,-1e-05,-2.9999999999999997e-05,4
15294,15735,-2e-05,2e-05,2e-05,-0.00015,0.00088,0.00021,-1e-05,-2.9999999999999997e-05,4
15295,15736,-2e-05,2e-05,2e-05,-0.00015,0.00088,0.00021,-1e-05,-2.9999999999999997e-05,4
15296,15739,2e-05,1e-05,-2e-05,-5.9999999999999995e-05,-0.00033999999999999997,-0.00018999999999999998,-1e-05,1e-05,4
15297,15740,2e-05,1e-05,-2e-05,-5.9999999999999995e-05,-0.00033999999999999997,-0.00018999999999999998,-1e-05,1e-05,4
15298,15741,2e-05,1e-05,-2e-05,-5.9999999999999995e-05,-0.00033999999999999997,-0.00018999999999999998,-1e-05,1e-05,4
15299,15742,2e-05,1e-05,-2e-05,-5.9999999999999995e-05,-0.00033999999999999997,-0.00018999999999999998,-1e-05,1e-05,4
15300,15743,2e-05,1e-05,-2e-05,-5.9999999999999995e-05,-0.00033999999999999997,-0.00018999999999999998,-1e-05,1e-05,4
15301,15744,2e-05,1e-05,-2e-05,-5.9999999999999995e-05,-0.00033999999999999997,-0.00018999999999999998,-1e-05,1e-05,4
15302,15745,2e-05,1e-05,-2e-05,-5.9999999999999995e-05,-0.00033999999999999997,-0.00018999999999999998,-1e-05,1e-05,4
15303,15746,-2e-05,-1e-05,-5.9999999999999995e-05,-0.00013000000000000002,0.00037,9e-05,1e-05,-2e-05,4
15304,15747,-2e-05,-1e-05,-5.9999999999999995e-05,-0.00013000000000000002,0.00037,9e-05,1e-05,-2e-05,4
15305,15748,-2e-05,-1e-05,-5.9999999999999995e-05,-0.00013000000000000002,0.00037,9e-05,1e-05,-2e-05,4
15306,15749,-2e-05,-1e-05,-5.9999999999999995e-05,-0.00013000000000000002,0.00037,9e-05,1e-05,-2e-05,4
15307,15750,-2e-05,-1e-05,-5.9999999999999995e-05,-0.00013000000000000002,0.00037,9e-05,1e-05,-2e-05,4
15308,15751,-2e-05,-1e-05,-5.9999999999999995e-05,-0.00013000000000000002,0.00037,9e-05,1e-05,-2e-05,4
15309,15752,-1e-05,-2.9999999999999997e-05,0.0,-0.00016999999999999999,-0.0007700000000000001,8e-05,-0.0001,-1e-05,4
15310,15753,-1e-05,-2.9999999999999997e-05,0.0,-0.00016999999999999999,-0.0007700000000000001,8e-05,-0.0001,-1e-05,4
15311,15754,-1e-05,-2.9999999999999997e-05,0.0,-0.00016999999999999999,-0.0007700000000000001,8e-05,-0.0001,-1e-05,4
15312,15755,-1e-05,-2.9999999999999997e-05,0.0,-0.00016999999999999999,-0.0007700000000000001,8e-05,-0.0001,-1e-05,4
15313,15756,-1e-05,-2.9999999999999997e-05,0.0,-0.00016999999999999999,-0.0007700000000000001,8e-05,-0.0001,-1e-05,4
15314,15757,-1e-05,-2.9999999999999997e-05,0.0,-0.00016999999999999999,-0.0007700000000000001,8e-05,-0.0001,-1e-05,4
15315,15758,-1e-05,-2.9999999999999997e-05,0.0,-0.00016999999999999999,-0.0007700000000000001,8e-05,-0.0001,-1e-05,4
15316,15759,-1e-05,-2.9999999999999997e-05,0.0,-0.00016999999999999999,-0.0007700000000000001,8e-05,-0.0001,-1e-05,4
15317,15760,-1e-05,-2.9999999999999997e-05,0.0,-0.00016999999999999999,-0.0007700000000000001,8e-05,-0.0001,-1e-05,4
15318,15761,-1e-05,-2.9999999999999997e-05,0.0,-0.00016999999999999999,-0.0007700000000000001,8e-05,-0.0001,-1e-05,4
15319,15762,-1e-05,-2.9999999999999997e-05,0.0,-0.00016999999999999999,-0.0007700000000000001,8e-05,-0.0001,-1e-05,4
15320,15763,-1e-05,-2.9999999999999997e-05,0.0,-0.00016999999999999999,-0.0007700000000000001,8e-05,-0.0001,-1e-05,4
15321,15764,-1e-05,-2.9999999999999997e-05,0.0,-0.00016999999999999999,-0.0007700000000000001,8e-05,-0.0001,-1e-05,4
15322,15765,-1e-05,-2.9999999999999997e-05,0.0,-0.00016999999999999999,-0.0007700000000000001,8e-05,-0.0001,-1e-05,4
15323,15766,-1e-05,-2.9999999999999997e-05,0.0,-0.00016999999999999999,-0.0007700000000000001,8e-05,-0.0001,-1e-05,4
15324,15767,-2e-05,-2.9999999999999997e-05,-1e-05,0.0001,-0.00037999999999999997,-2e-05,-1e-05,-2e-05,4
15325,15768,-2e-05,-2.9999999999999997e-05,-1e-05,0.0001,-0.00037999999999999997,-2e-05,-1e-05,-2e-05,4
15326,15769,-2e-05,-2.9999999999999997e-05,-1e-05,0.0001,-0.00037999999999999997,-2e-05,-1e-05,-2e-05,4
15327,15770,-2e-05,-2.9999999999999997e-05,-1e-05,0.0001,-0.00037999999999999997,-2e-05,-1e-05,-2e-05,4
15328,15771,-2e-05,-2.9999999999999997e-05,-1e-05,0.0001,-0.00037999999999999997,-2e-05,-1e-05,-2e-05,4
15329,15772,-2e-05,-2.9999999999999997e-05,-1e-05,0.0001,-0.00037999999999999997,-2e-05,-1e-05,-2e-05,4
15330,15773,-2e-05,-2.9999999999999997e-05,-1e-05,0.0001,-0.00037999999999999997,-2e-05,-1e-05,-2e-05,4
15331,15774,-2e-05,-2.9999999999999997e-05,-1e-05,0.0001,-0.00037999999999999997,-2e-05,-1e-05,-2e-05,4
15332,15775,-2e-05,-2.9999999999999997e-05,-9e-05,-0.00011,1e-05,0.00027,2e-05,-1e-05,4
15333,15776,-2e-05,-2.9999999999999997e-05,-9e-05,-0.00011,1e-05,0.00027,2e-05,-1e-05,4
15334,15777,-2e-05,-2.9999999999999997e-05,-9e-05,-0.00011,1e-05,0.00027,2e-05,-1e-05,4
15335,15778,-2e-05,-2.9999999999999997e-05,-9e-05,-0.00011,1e-05,0.00027,2e-05,-1e-05,4
15336,15779,-2e-05,-2.9999999999999997e-05,-9e-05,-0.00011,1e-05,0.00027,2e-05,-1e-05,4
15337,15780,-2e-05,-2.9999999999999997e-05,-9e-05,-0.00011,1e-05,0.00027,2e-05,-1e-05,4
15338,15781,-2e-05,-2.9999999999999997e-05,-9e-05,-0.00011,1e-05,0.00027,2e-05,-1e-05,4
15339,15782,-2e-05,-2.9999999999999997e-05,-9e-05,-0.00011,1e-05,0.00027,2e-05,-1e-05,4
15340,15783,-2e-05,-2.9999999999999997e-05,-9e-05,-0.00011,1e-05,0.00027,2e-05,-1e-05,4
15341,15784,-2e-05,-2.9999999999999997e-05,-9e-05,-0.00011,1e-05,0.00027,2e-05,-1e-05,4
15342,15785,-2e-05,-2.9999999999999997e-05,-9e-05,-0.00011,1e-05,0.00027,2e-05,-1e-05,4
15343,15786,-2e-05,-2.9999999999999997e-05,-9e-05,-0.00011,1e-05,0.00027,2e-05,-1e-05,4
15344,15788,-2e-05,-2.9999999999999997e-05,-9e-05,-0.00011,1e-05,0.00027,2e-05,-1e-05,4
15345,15789,-2e-05,-2.9999999999999997e-05,-9e-05,-0.00011,1e-05,0.00027,2e-05,-1e-05,4
15346,15790,-2e-05,-4e-05,2e-05,0.00062,0.00026000000000000003,8e-05,0.0,-1e-05,4
15347,15791,-2e-05,-4e-05,2e-05,0.00062,0.00026000000000000003,8e-05,0.0,-1e-05,4
15348,15792,-2e-05,-4e-05,2e-05,0.00062,0.00026000000000000003,8e-05,0.0,-1e-05,4
15349,15793,-2e-05,-4e-05,2e-05,0.00062,0.00026000000000000003,8e-05,0.0,-1e-05,4
15350,15794,-2e-05,-4e-05,2e-05,0.00062,0.00026000000000000003,8e-05,0.0,-1e-05,4
15351,15795,-2e-05,-4e-05,2e-05,0.00062,0.00026000000000000003,8e-05,0.0,-1e-05,4
15352,15796,-2e-05,-4e-05,2e-05,0.00062,0.00026000000000000003,8e-05,0.0,-1e-05,4
15353,15797,-5e-05,-4e-05,-5e-05,-5e-05,-8e-05,0.00011999999999999999,-8e-05,-5e-05,4
15354,15798,-5e-05,-4e-05,-5e-05,-5e-05,-8e-05,0.00011999999999999999,-8e-05,-5e-05,4
15355,15799,-5e-05,-4e-05,-5e-05,-5e-05,-8e-05,0.00011999999999999999,-8e-05,-5e-05,4
15356,15800,-5e-05,-4e-05,-5e-05,-5e-05,-8e-05,0.00011999999999999999,-8e-05,-5e-05,4
15357,15801,-5e-05,-4e-05,-5e-05,-5e-05,-8e-05,0.00011999999999999999,-8e-05,-5e-05,4
15358,15802,-5e-05,-4e-05,-5e-05,-5e-05,-8e-05,0.00011999999999999999,-8e-05,-5e-05,4
15359,15803,-5e-05,-4e-05,-5e-05,-5e-05,-8e-05,0.00011999999999999999,-8e-05,-5e-05,4
15360,15804,-5e-05,-4e-05,-5e-05,-5e-05,-8e-05,0.00011999999999999999,-8e-05,-5e-05,4
15361,15805,-5e-05,-4e-05,-5e-05,-5e-05,-8e-05,0.00011999999999999999,-8e-05,-5e-05,4
15362,15806,-5e-05,-4e-05,-5e-05,-5e-05,-8e-05,0.00011999999999999999,-8e-05,-5e-05,4
15363,15807,-5e-05,-4e-05,-5e-05,-5e-05,-8e-05,0.00011999999999999999,-8e-05,-5e-05,4
15364,15808,-5e-05,-4e-05,-5e-05,-5e-05,-8e-05,0.00011999999999999999,-8e-05,-5e-05,4
15365,15809,-5e-05,-4e-05,-5e-05,-5e-05,-8e-05,0.00011999999999999999,-8e-05,-5e-05,4
15366,15810,-5e-05,-4e-05,-5e-05,-5e-05,-8e-05,0.00011999999999999999,-8e-05,-5e-05,4
15367,15811,-5e-05,-4e-05,-5e-05,-5e-05,-8e-05,0.00011999999999999999,-8e-05,-5e-05,4
15368,15812,-5e-05,-4e-05,-5e-05,-5e-05,-8e-05,0.00011999999999999999,-8e-05,-5e-05,4
15369,15813,-5e-05,-4e-05,-5e-05,-5e-05,-8e-05,0.00011999999999999999,-8e-05,-5e-05,4
15370,15814,-5e-05,-4e-05,-5e-05,-5e-05,-8e-05,0.00011999999999999999,-8e-05,-5e-05,4
15371,15815,-5e-05,-4e-05,-5e-05,-5e-05,-8e-05,0.00011999999999999999,-8e-05,-5e-05,4
15372,15816,-5e-05,-4e-05,-5e-05,-5e-05,-8e-05,0.00011999999999999999,-8e-05,-5e-05,4
15373,15817,-5e-05,-4e-05,-5e-05,-5e-05,-8e-05,0.00011999999999999999,-8e-05,-5e-05,4
15374,15818,-5e-05,-4e-05,-5e-05,-5e-05,-8e-05,0.00011999999999999999,-8e-05,-5e-05,4
15375,15819,-5e-05,-4e-05,-5e-05,-5e-05,-8e-05,0.00011999999999999999,-8e-05,-5e-05,4
15376,15820,-5e-05,-4e-05,-5e-05,-5e-05,-8e-05,0.00011999999999999999,-8e-05,-5e-05,4
15377,15821,1e-05,2e-05,1e-05,0.0,2e-05,-5.9999999999999995e-05,-4e-05,-4e-05,4
15378,15822,-2e-05,-2e-05,-4e-05,-0.00026000000000000003,-0.0005200000000000001,-0.00058,-0.00011,-5e-05,4
15379,15823,-2e-05,-2e-05,-4e-05,-0.00026000000000000003,-0.0005200000000000001,-0.00058,-0.00011,-5e-05,4
15380,15824,-2e-05,-2e-05,-4e-05,-0.00026000000000000003,-0.0005200000000000001,-0.00058,-0.00011,-5e-05,4
15381,15825,-2e-05,-2e-05,-4e-05,-0.00026000000000000003,-0.0005200000000000001,-0.00058,-0.00011,-5e-05,4
15382,15826,-2e-05,-2e-05,-4e-05,-0.00026000000000000003,-0.0005200000000000001,-0.00058,-0.00011,-5e-05,4
15383,15827,-2e-05,-2e-05,-4e-05,-0.00026000000000000003,-0.0005200000000000001,-0.00058,-0.00011,-5e-05,4
15384,15828,-2e-05,-2e-05,-4e-05,-0.00026000000000000003,-0.0005200000000000001,-0.00058,-0.00011,-5e-05,4
15385,15829,-2e-05,-2e-05,-4e-05,-0.00026000000000000003,-0.0005200000000000001,-0.00058,-0.00011,-5e-05,4
15386,15830,-2e-05,-2e-05,-4e-05,-0.00026000000000000003,-0.0005200000000000001,-0.00058,-0.00011,-5e-05,4
15387,15831,-2e-05,-2e-05,-4e-05,-0.00026000000000000003,-0.0005200000000000001,-0.00058,-0.00011,-5e-05,4
15388,15832,-2e-05,-2e-05,-4e-05,-0.00026000000000000003,-0.0005200000000000001,-0.00058,-0.00011,-5e-05,4
15389,15833,-2e-05,-2e-05,-4e-05,-0.00026000000000000003,-0.0005200000000000001,-0.00058,-0.00011,-5e-05,4
15390,15834,-2e-05,-2e-05,-4e-05,-0.00026000000000000003,-0.0005200000000000001,-0.00058,-0.00011,-5e-05,4
15391,15835,1e-05,1e-05,2.9999999999999997e-05,0.00015,5e-05,-4e-05,-2.9999999999999997e-05,-2.9999999999999997e-05,4
15392,15836,4e-05,7e-05,0.00013000000000000002,0.00022999999999999998,-0.0009,-0.0002,2e-05,2e-05,4
15393,15838,4e-05,7e-05,0.00013000000000000002,0.00022999999999999998,-0.0009,-0.0002,2e-05,2e-05,4
15394,15839,4e-05,7e-05,0.00013000000000000002,0.00022999999999999998,-0.0009,-0.0002,2e-05,2e-05,4
15395,15840,4e-05,7e-05,0.00013000000000000002,0.00022999999999999998,-0.0009,-0.0002,2e-05,2e-05,4
15396,15841,4e-05,7e-05,0.00013000000000000002,0.00022999999999999998,-0.0009,-0.0002,2e-05,2e-05,4
15397,15842,4e-05,7e-05,0.00013000000000000002,0.00022999999999999998,-0.0009,-0.0002,2e-05,2e-05,4
15398,15844,4e-05,7e-05,0.00013000000000000002,0.00022999999999999998,-0.0009,-0.0002,2e-05,2e-05,4
15399,15845,4e-05,7e-05,0.00013000000000000002,0.00022999999999999998,-0.0009,-0.0002,2e-05,2e-05,4
15400,15846,4e-05,7e-05,0.00013000000000000002,0.00022999999999999998,-0.0009,-0.0002,2e-05,2e-05,4
15401,15847,4e-05,7e-05,0.00013000000000000002,0.00022999999999999998,-0.0009,-0.0002,2e-05,2e-05,4
15402,15848,4e-05,7e-05,0.00013000000000000002,0.00022999999999999998,-0.0009,-0.0002,2e-05,2e-05,4
15403,15849,4e-05,7e-05,0.00013000000000000002,0.00022999999999999998,-0.0009,-0.0002,2e-05,2e-05,4
15404,15850,4e-05,7e-05,0.00013000000000000002,0.00022999999999999998,-0.0009,-0.0002,2e-05,2e-05,4
15405,15851,4e-05,7e-05,0.00013000000000000002,0.00022999999999999998,-0.0009,-0.0002,2e-05,2e-05,4
15406,15852,4e-05,7e-05,0.00013000000000000002,0.00022999999999999998,-0.0009,-0.0002,2e-05,2e-05,4
15407,15853,4e-05,7e-05,0.00013000000000000002,0.00022999999999999998,-0.0009,-0.0002,2e-05,2e-05,4
15408,15854,4e-05,7e-05,0.00013000000000000002,0.00022999999999999998,-0.0009,-0.0002,2e-05,2e-05,4
15409,15855,4e-05,7e-05,0.00013000000000000002,0.00022999999999999998,-0.0009,-0.0002,2e-05,2e-05,4
15410,15856,4e-05,7e-05,0.00013000000000000002,0.00022999999999999998,-0.0009,-0.0002,2e-05,2e-05,4
15411,15857,4e-05,7e-05,0.00013000000000000002,0.00022999999999999998,-0.0009,-0.0002,2e-05,2e-05,4
15412,15858,1e-05,-2.9999999999999997e-05,-2e-05,-0.00036,-0.0005,-9e-05,1e-05,2e-05,4
15413,15859,-2.9999999999999997e-05,-4e-05,-8e-05,-0.00062,9e-05,-0.00016999999999999999,5.9999999999999995e-05,0.0,4
15414,15860,-2.9999999999999997e-05,-4e-05,-8e-05,-0.00062,9e-05,-0.00016999999999999999,5.9999999999999995e-05,0.0,4
15415,15861,-2.9999999999999997e-05,-4e-05,-8e-05,-0.00062,9e-05,-0.00016999999999999999,5.9999999999999995e-05,0.0,4
15416,15862,-2.9999999999999997e-05,-4e-05,-8e-05,-0.00062,9e-05,-0.00016999999999999999,5.9999999999999995e-05,0.0,4
15417,15863,-2.9999999999999997e-05,-4e-05,-8e-05,-0.00062,9e-05,-0.00016999999999999999,5.9999999999999995e-05,0.0,4
15418,15864,-2.9999999999999997e-05,-4e-05,-8e-05,-0.00062,9e-05,-0.00016999999999999999,5.9999999999999995e-05,0.0,4
15419,15865,-2.9999999999999997e-05,-4e-05,-8e-05,-0.00062,9e-05,-0.00016999999999999999,5.9999999999999995e-05,0.0,4
15420,15866,-2.9999999999999997e-05,-4e-05,-8e-05,-0.00062,9e-05,-0.00016999999999999999,5.9999999999999995e-05,0.0,4
15421,15867,-2.9999999999999997e-05,-4e-05,-8e-05,-0.00062,9e-05,-0.00016999999999999999,5.9999999999999995e-05,0.0,4
15422,15868,-2.9999999999999997e-05,-4e-05,-8e-05,-0.00062,9e-05,-0.00016999999999999999,5.9999999999999995e-05,0.0,4
15423,15869,-2.9999999999999997e-05,-4e-05,-8e-05,-0.00062,9e-05,-0.00016999999999999999,5.9999999999999995e-05,0.0,4
15424,15870,-2.9999999999999997e-05,-4e-05,-8e-05,-0.00062,9e-05,-0.00016999999999999999,5.9999999999999995e-05,0.0,4
15425,15871,-2.9999999999999997e-05,-4e-05,-8e-05,-0.00062,9e-05,-0.00016999999999999999,5.9999999999999995e-05,0.0,4
15426,15872,-2.9999999999999997e-05,-4e-05,-8e-05,-0.00062,9e-05,-0.00016999999999999999,5.9999999999999995e-05,0.0,4
15427,15873,-2.9999999999999997e-05,-4e-05,-8e-05,-0.00062,9e-05,-0.00016999999999999999,5.9999999999999995e-05,0.0,4
15428,15874,-2.9999999999999997e-05,-4e-05,-8e-05,-0.00062,9e-05,-0.00016999999999999999,5.9999999999999995e-05,0.0,4
15429,15875,-2.9999999999999997e-05,-4e-05,-8e-05,-0.00062,9e-05,-0.00016999999999999999,5.9999999999999995e-05,0.0,4
15430,15876,-2.9999999999999997e-05,-4e-05,-8e-05,-0.00062,9e-05,-0.00016999999999999999,5.9999999999999995e-05,0.0,4
15431,15877,-2.9999999999999997e-05,-4e-05,-8e-05,-0.00062,9e-05,-0.00016999999999999999,5.9999999999999995e-05,0.0,4
15432,15878,-2.9999999999999997e-05,-4e-05,-8e-05,-0.00062,9e-05,-0.00016999999999999999,5.9999999999999995e-05,0.0,4
15433,15879,-2.9999999999999997e-05,-4e-05,-8e-05,-0.00062,9e-05,-0.00016999999999999999,5.9999999999999995e-05,0.0,4
15434,15880,-2.9999999999999997e-05,-4e-05,-8e-05,-0.00062,9e-05,-0.00016999999999999999,5.9999999999999995e-05,0.0,4
15435,15881,2e-05,2e-05,-0.00011,-0.0005200000000000001,-0.00067,-0.00058,-2e-05,-1e-05,4
15436,15882,-5e-05,-5.9999999999999995e-05,-5e-05,-0.00016,0.00029,-0.00022999999999999998,2e-05,-1e-05,4
15437,15883,-5e-05,-5.9999999999999995e-05,-5e-05,-0.00016,0.00029,-0.00022999999999999998,2e-05,-1e-05,4
15438,15884,-5e-05,-5.9999999999999995e-05,-5e-05,-0.00016,0.00029,-0.00022999999999999998,2e-05,-1e-05,4
15439,15885,-5e-05,-5.9999999999999995e-05,-5e-05,-0.00016,0.00029,-0.00022999999999999998,2e-05,-1e-05,4
15440,15886,-5e-05,-5.9999999999999995e-05,-5e-05,-0.00016,0.00029,-0.00022999999999999998,2e-05,-1e-05,4
15441,15888,-5e-05,-5.9999999999999995e-05,-5e-05,-0.00016,0.00029,-0.00022999999999999998,2e-05,-1e-05,4
15442,15889,-5e-05,-5.9999999999999995e-05,-5e-05,-0.00016,0.00029,-0.00022999999999999998,2e-05,-1e-05,4
15443,15890,-5e-05,-5.9999999999999995e-05,-5e-05,-0.00016,0.00029,-0.00022999999999999998,2e-05,-1e-05,4
15444,15891,-5e-05,-5.9999999999999995e-05,-5e-05,-0.00016,0.00029,-0.00022999999999999998,2e-05,-1e-05,4
15445,15892,-5e-05,-5.9999999999999995e-05,-5e-05,-0.00016,0.00029,-0.00022999999999999998,2e-05,-1e-05,4
15446,15893,-5e-05,-5.9999999999999995e-05,-5e-05,-0.00016,0.00029,-0.00022999999999999998,2e-05,-1e-05,4
15447,15894,-5e-05,-5.9999999999999995e-05,-5e-05,-0.00016,0.00029,-0.00022999999999999998,2e-05,-1e-05,4
15448,15895,1e-05,2.9999999999999997e-05,-5e-05,-0.00036,-0.0006,-0.00039,0.0,2e-05,4
15449,15896,-1e-05,2e-05,-2e-05,0.00037,0.0009,-7e-05,-1e-05,-1e-05,4
15450,15897,-1e-05,2e-05,-2e-05,0.00037,0.0009,-7e-05,-1e-05,-1e-05,4
15451,15898,-1e-05,2e-05,-2e-05,0.00037,0.0009,-7e-05,-1e-05,-1e-05,4
15452,15899,-1e-05,2e-05,-2e-05,0.00037,0.0009,-7e-05,-1e-05,-1e-05,4
15453,15900,-1e-05,2e-05,-2e-05,0.00037,0.0009,-7e-05,-1e-05,-1e-05,4
15454,15901,-1e-05,2e-05,-2e-05,0.00037,0.0009,-7e-05,-1e-05,-1e-05,4
15455,15902,-1e-05,2e-05,-2e-05,0.00037,0.0009,-7e-05,-1e-05,-1e-05,4
15456,15903,-1e-05,2e-05,-2e-05,0.00037,0.0009,-7e-05,-1e-05,-1e-05,4
15457,15904,-1e-05,2e-05,-2e-05,0.00037,0.0009,-7e-05,-1e-05,-1e-05,4
15458,15905,-1e-05,2e-05,-2e-05,0.00037,0.0009,-7e-05,-1e-05,-1e-05,4
15459,15906,-1e-05,2e-05,-2e-05,0.00037,0.0009,-7e-05,-1e-05,-1e-05,4
15460,15907,-1e-05,2e-05,-2e-05,0.00037,0.0009,-7e-05,-1e-05,-1e-05,4
15461,15908,-1e-05,2e-05,-2e-05,0.00037,0.0009,-7e-05,-1e-05,-1e-05,4
15462,15909,-1e-05,2e-05,-2e-05,0.00037,0.0009,-7e-05,-1e-05,-1e-05,4
15463,15910,-1e-05,2e-05,-2e-05,0.00037,0.0009,-7e-05,-1e-05,-1e-05,4
15464,15911,-1e-05,2e-05,-2e-05,0.00037,0.0009,-7e-05,-1e-05,-1e-05,4
15465,15912,-1e-05,2e-05,-2e-05,0.00037,0.0009,-7e-05,-1e-05,-1e-05,4
15466,15913,-1e-05,2e-05,-2e-05,0.00037,0.0009,-7e-05,-1e-05,-1e-05,4
15467,15914,-1e-05,2e-05,-2e-05,0.00037,0.0009,-7e-05,-1e-05,-1e-05,4
15468,15915,-1e-05,2e-05,-2e-05,0.00037,0.0009,-7e-05,-1e-05,-1e-05,4
15469,15916,-1e-05,2e-05,-2e-05,0.00037,0.0009,-7e-05,-1e-05,-1e-05,4
15470,15917,-1e-05,2e-05,-2e-05,0.00037,0.0009,-7e-05,-1e-05,-1e-05,4
15471,15918,-1e-05,-2e-05,4e-05,0.00021,5e-05,-0.0004,-5e-05,-1e-05,4
15472,15919,-2e-05,-1e-05,2e-05,0.0005,0.00018999999999999998,0.00049,2e-05,2e-05,4
15473,15920,-2e-05,-1e-05,2e-05,0.0005,0.00018999999999999998,0.00049,2e-05,2e-05,4
15474,15921,-2e-05,-1e-05,2e-05,0.0005,0.00018999999999999998,0.00049,2e-05,2e-05,4
15475,15922,-2e-05,-1e-05,2e-05,0.0005,0.00018999999999999998,0.00049,2e-05,2e-05,4
15476,15923,-2e-05,-1e-05,2e-05,0.0005,0.00018999999999999998,0.00049,2e-05,2e-05,4
15477,15924,-2e-05,-1e-05,2e-05,0.0005,0.00018999999999999998,0.00049,2e-05,2e-05,4
15478,15925,-2e-05,-1e-05,2e-05,0.0005,0.00018999999999999998,0.00049,2e-05,2e-05,4
15479,15926,-2e-05,-1e-05,2e-05,0.0005,0.00018999999999999998,0.00049,2e-05,2e-05,4
15480,15927,-2e-05,-1e-05,2e-05,0.0005,0.00018999999999999998,0.00049,2e-05,2e-05,4
15481,15928,-2e-05,-1e-05,2e-05,0.0005,0.00018999999999999998,0.00049,2e-05,2e-05,4
15482,15929,-2e-05,-1e-05,2e-05,0.0005,0.00018999999999999998,0.00049,2e-05,2e-05,4
15483,15930,-2e-05,-1e-05,2e-05,0.0005,0.00018999999999999998,0.00049,2e-05,2e-05,4
15484,15931,-2e-05,-1e-05,2e-05,0.0005,0.00018999999999999998,0.00049,2e-05,2e-05,4
15485,15932,-2e-05,-1e-05,2e-05,0.0005,0.00018999999999999998,0.00049,2e-05,2e-05,4
15486,15933,-2e-05,-1e-05,2e-05,0.0005,0.00018999999999999998,0.00049,2e-05,2e-05,4
15487,15934,-2e-05,-1e-05,2e-05,0.0005,0.00018999999999999998,0.00049,2e-05,2e-05,4
15488,15935,-2e-05,-1e-05,2e-05,0.0005,0.00018999999999999998,0.00049,2e-05,2e-05,4
15489,15936,-2e-05,-1e-05,2e-05,0.0005,0.00018999999999999998,0.00049,2e-05,2e-05,4
15490,15938,-2e-05,-1e-05,2e-05,0.0005,0.00018999999999999998,0.00049,2e-05,2e-05,4
15491,15939,-2e-05,-1e-05,2e-05,0.0005,0.00018999999999999998,0.00049,2e-05,2e-05,4
15492,15940,-2e-05,-1e-05,2e-05,0.0005,0.00018999999999999998,0.00049,2e-05,2e-05,4
15493,15941,2e-05,-1e-05,0.0,-0.0002,-0.00011999999999999999,-5e-05,2e-05,5e-05,4
15494,15942,2.9999999999999997e-05,1e-05,-2.9999999999999997e-05,-0.00044,8e-05,0.00061,4e-05,2.9999999999999997e-05,4
15495,15943,2.9999999999999997e-05,1e-05,-2.9999999999999997e-05,-0.00044,8e-05,0.00061,4e-05,2.9999999999999997e-05,4
15496,15944,2.9999999999999997e-05,1e-05,-2.9999999999999997e-05,-0.00044,8e-05,0.00061,4e-05,2.9999999999999997e-05,4
15497,15945,2.9999999999999997e-05,1e-05,-2.9999999999999997e-05,-0.00044,8e-05,0.00061,4e-05,2.9999999999999997e-05,4
15498,15946,2.9999999999999997e-05,1e-05,-2.9999999999999997e-05,-0.00044,8e-05,0.00061,4e-05,2.9999999999999997e-05,4
15499,15947,2.9999999999999997e-05,1e-05,-2.9999999999999997e-05,-0.00044,8e-05,0.00061,4e-05,2.9999999999999997e-05,4
15500,15948,2.9999999999999997e-05,1e-05,-2.9999999999999997e-05,-0.00044,8e-05,0.00061,4e-05,2.9999999999999997e-05,4
15501,15949,2.9999999999999997e-05,1e-05,-2.9999999999999997e-05,-0.00044,8e-05,0.00061,4e-05,2.9999999999999997e-05,4
15502,15950,2.9999999999999997e-05,1e-05,-2.9999999999999997e-05,-0.00044,8e-05,0.00061,4e-05,2.9999999999999997e-05,4
15503,15951,2.9999999999999997e-05,1e-05,-2.9999999999999997e-05,-0.00044,8e-05,0.00061,4e-05,2.9999999999999997e-05,4
15504,15952,2.9999999999999997e-05,1e-05,-2.9999999999999997e-05,-0.00044,8e-05,0.00061,4e-05,2.9999999999999997e-05,4
15505,15953,2.9999999999999997e-05,1e-05,-2.9999999999999997e-05,-0.00044,8e-05,0.00061,4e-05,2.9999999999999997e-05,4
15506,15954,2.9999999999999997e-05,1e-05,-2.9999999999999997e-05,-0.00044,8e-05,0.00061,4e-05,2.9999999999999997e-05,4
15507,15955,-1e-05,2.9999999999999997e-05,5e-05,0.00067,0.00037,-2e-05,-0.00011,-2.9999999999999997e-05,4
15508,15956,-2.9999999999999997e-05,-1e-05,1e-05,-1e-05,-0.00045,-1e-05,2e-05,4e-05,4
15509,15957,1e-05,-2.9999999999999997e-05,-9e-05,-0.00015,0.00021,-0.00029,0.0,-5.9999999999999995e-05,4
15510,15958,1e-05,-2.9999999999999997e-05,-9e-05,-0.00015,0.00021,-0.00029,0.0,-5.9999999999999995e-05,4
15511,15959,1e-05,-2.9999999999999997e-05,-9e-05,-0.00015,0.00021,-0.00029,0.0,-5.9999999999999995e-05,4
15512,15960,1e-05,-2.9999999999999997e-05,-9e-05,-0.00015,0.00021,-0.00029,0.0,-5.9999999999999995e-05,4
15513,15961,1e-05,-2.9999999999999997e-05,-9e-05,-0.00015,0.00021,-0.00029,0.0,-5.9999999999999995e-05,4
15514,15962,1e-05,-2.9999999999999997e-05,-9e-05,-0.00015,0.00021,-0.00029,0.0,-5.9999999999999995e-05,4
15515,15963,1e-05,-2.9999999999999997e-05,-9e-05,-0.00015,0.00021,-0.00029,0.0,-5.9999999999999995e-05,4
15516,15964,1e-05,-2.9999999999999997e-05,-9e-05,-0.00015,0.00021,-0.00029,0.0,-5.9999999999999995e-05,4
15517,15965,1e-05,-2.9999999999999997e-05,-9e-05,-0.00015,0.00021,-0.00029,0.0,-5.9999999999999995e-05,4
15518,15966,1e-05,-2.9999999999999997e-05,-9e-05,-0.00015,0.00021,-0.00029,0.0,-5.9999999999999995e-05,4
15519,15967,1e-05,-2.9999999999999997e-05,-9e-05,-0.00015,0.00021,-0.00029,0.0,-5.9999999999999995e-05,4
15520,15968,1e-05,-2.9999999999999997e-05,-9e-05,-0.00015,0.00021,-0.00029,0.0,-5.9999999999999995e-05,4
15521,15969,1e-05,-2.9999999999999997e-05,-9e-05,-0.00015,0.00021,-0.00029,0.0,-5.9999999999999995e-05,4
15522,15970,1e-05,-2.9999999999999997e-05,-9e-05,-0.00015,0.00021,-0.00029,0.0,-5.9999999999999995e-05,4
15523,15971,1e-05,-2.9999999999999997e-05,-9e-05,-0.00015,0.00021,-0.00029,0.0,-5.9999999999999995e-05,4
15524,15972,1e-05,-2.9999999999999997e-05,-9e-05,-0.00015,0.00021,-0.00029,0.0,-5.9999999999999995e-05,4
15525,15973,1e-05,-2.9999999999999997e-05,-9e-05,-0.00015,0.00021,-0.00029,0.0,-5.9999999999999995e-05,4
15526,15974,1e-05,-2.9999999999999997e-05,-9e-05,-0.00015,0.00021,-0.00029,0.0,-5.9999999999999995e-05,4
15527,15975,1e-05,-2.9999999999999997e-05,-9e-05,-0.00015,0.00021,-0.00029,0.0,-5.9999999999999995e-05,4
15528,15976,1e-05,-2.9999999999999997e-05,-9e-05,-0.00015,0.00021,-0.00029,0.0,-5.9999999999999995e-05,4
15529,15977,1e-05,-2.9999999999999997e-05,-9e-05,-0.00015,0.00021,-0.00029,0.0,-5.9999999999999995e-05,4
15530,15978,1e-05,8e-05,0.0001,0.00031,4e-05,0.0008,1e-05,1e-05,4
15531,15979,-4e-05,-2e-05,2e-05,0.00023999999999999998,-0.00022999999999999998,-0.0004,-5e-05,-1e-05,4
15532,15980,-4e-05,-2e-05,2e-05,0.00023999999999999998,-0.00022999999999999998,-0.0004,-5e-05,-1e-05,4
15533,15981,-4e-05,-2e-05,2e-05,0.00023999999999999998,-0.00022999999999999998,-0.0004,-5e-05,-1e-05,4
15534,15982,-4e-05,-2e-05,2e-05,0.00023999999999999998,-0.00022999999999999998,-0.0004,-5e-05,-1e-05,4
15535,15983,-4e-05,-2e-05,2e-05,0.00023999999999999998,-0.00022999999999999998,-0.0004,-5e-05,-1e-05,4
15536,15984,-4e-05,-2e-05,2e-05,0.00023999999999999998,-0.00022999999999999998,-0.0004,-5e-05,-1e-05,4
15537,15985,-4e-05,-2e-05,2e-05,0.00023999999999999998,-0.00022999999999999998,-0.0004,-5e-05,-1e-05,4
15538,15986,-4e-05,-2e-05,2e-05,0.00023999999999999998,-0.00022999999999999998,-0.0004,-5e-05,-1e-05,4
15539,15988,-4e-05,-2e-05,2e-05,0.00023999999999999998,-0.00022999999999999998,-0.0004,-5e-05,-1e-05,4
15540,15989,-4e-05,-2e-05,2e-05,0.00023999999999999998,-0.00022999999999999998,-0.0004,-5e-05,-1e-05,4
15541,15990,-4e-05,-2e-05,2e-05,0.00023999999999999998,-0.00022999999999999998,-0.0004,-5e-05,-1e-05,4
15542,15991,-4e-05,-2e-05,2e-05,0.00023999999999999998,-0.00022999999999999998,-0.0004,-5e-05,-1e-05,4
15543,15992,-4e-05,-2e-05,2e-05,0.00023999999999999998,-0.00022999999999999998,-0.0004,-5e-05,-1e-05,4
15544,15993,-4e-05,-2e-05,2e-05,0.00023999999999999998,-0.00022999999999999998,-0.0004,-5e-05,-1e-05,4
15545,15994,-4e-05,-2e-05,2e-05,0.00023999999999999998,-0.00022999999999999998,-0.0004,-5e-05,-1e-05,4
15546,15995,-4e-05,-2e-05,2e-05,0.00023999999999999998,-0.00022999999999999998,-0.0004,-5e-05,-1e-05,4
15547,15996,-4e-05,-2e-05,2e-05,0.00023999999999999998,-0.00022999999999999998,-0.0004,-5e-05,-1e-05,4
15548,15997,-4e-05,-2e-05,2e-05,0.00023999999999999998,-0.00022999999999999998,-0.0004,-5e-05,-1e-05,4
15549,15998,-4e-05,-2e-05,2e-05,0.00023999999999999998,-0.00022999999999999998,-0.0004,-5e-05,-1e-05,4
15550,15999,-4e-05,-2e-05,2e-05,0.00023999999999999998,-0.00022999999999999998,-0.0004,-5e-05,-1e-05,4
15551,16000,-4e-05,-2e-05,2e-05,0.00023999999999999998,-0.00022999999999999998,-0.0004,-5e-05,-1e-05,4
15552,16001,-4e-05,-2e-05,2e-05,0.00023999999999999998,-0.00022999999999999998,-0.0004,-5e-05,-1e-05,4
15553,16002,1e-05,-1e-05,-5e-05,-0.00041,-0.00042,0.00016,8e-05,-2e-05,4
15554,16003,2.9999999999999997e-05,5.9999999999999995e-05,0.00011999999999999999,0.00018,-2.9999999999999997e-05,7e-05,4e-05,2e-05,4
15555,16004,2.9999999999999997e-05,5.9999999999999995e-05,0.00011999999999999999,0.00018,-2.9999999999999997e-05,7e-05,4e-05,2e-05,4
15556,16005,2.9999999999999997e-05,5.9999999999999995e-05,0.00011999999999999999,0.00018,-2.9999999999999997e-05,7e-05,4e-05,2e-05,4
15557,16006,2.9999999999999997e-05,5.9999999999999995e-05,0.00011999999999999999,0.00018,-2.9999999999999997e-05,7e-05,4e-05,2e-05,4
15558,16007,2.9999999999999997e-05,5.9999999999999995e-05,0.00011999999999999999,0.00018,-2.9999999999999997e-05,7e-05,4e-05,2e-05,4
15559,16008,2.9999999999999997e-05,5.9999999999999995e-05,0.00011999999999999999,0.00018,-2.9999999999999997e-05,7e-05,4e-05,2e-05,4
15560,16009,2.9999999999999997e-05,5.9999999999999995e-05,0.00011999999999999999,0.00018,-2.9999999999999997e-05,7e-05,4e-05,2e-05,4
15561,16010,2.9999999999999997e-05,5.9999999999999995e-05,0.00011999999999999999,0.00018,-2.9999999999999997e-05,7e-05,4e-05,2e-05,4
15562,16011,2.9999999999999997e-05,5.9999999999999995e-05,0.00011999999999999999,0.00018,-2.9999999999999997e-05,7e-05,4e-05,2e-05,4
15563,16012,2.9999999999999997e-05,5.9999999999999995e-05,0.00011999999999999999,0.00018,-2.9999999999999997e-05,7e-05,4e-05,2e-05,4
15564,16013,2.9999999999999997e-05,5.9999999999999995e-05,0.00011999999999999999,0.00018,-2.9999999999999997e-05,7e-05,4e-05,2e-05,4
15565,16014,2.9999999999999997e-05,5.9999999999999995e-05,0.00011999999999999999,0.00018,-2.9999999999999997e-05,7e-05,4e-05,2e-05,4
15566,16015,-4e-05,-5e-05,-7e-05,-0.00045,-0.00049,0.00032,5e-05,-1e-05,4
15567,16016,-1e-05,-1e-05,2e-05,7e-05,-0.00059,-2.9999999999999997e-05,2e-05,1e-05,4
15568,16017,-1e-05,-1e-05,2e-05,7e-05,-0.00059,-2.9999999999999997e-05,2e-05,1e-05,4
15569,16018,-1e-05,-1e-05,2e-05,7e-05,-0.00059,-2.9999999999999997e-05,2e-05,1e-05,4
15570,16019,-1e-05,-1e-05,2e-05,7e-05,-0.00059,-2.9999999999999997e-05,2e-05,1e-05,4
15571,16020,-1e-05,-1e-05,2e-05,7e-05,-0.00059,-2.9999999999999997e-05,2e-05,1e-05,4
15572,16021,-1e-05,-1e-05,2e-05,7e-05,-0.00059,-2.9999999999999997e-05,2e-05,1e-05,4
15573,16022,-1e-05,-1e-05,2e-05,7e-05,-0.00059,-2.9999999999999997e-05,2e-05,1e-05,4
15574,16023,-1e-05,-1e-05,2e-05,7e-05,-0.00059,-2.9999999999999997e-05,2e-05,1e-05,4
15575,16024,-1e-05,-1e-05,2e-05,7e-05,-0.00059,-2.9999999999999997e-05,2e-05,1e-05,4
15576,16025,-1e-05,-1e-05,2e-05,7e-05,-0.00059,-2.9999999999999997e-05,2e-05,1e-05,4
15577,16026,-1e-05,-1e-05,2e-05,7e-05,-0.00059,-2.9999999999999997e-05,2e-05,1e-05,4
15578,16027,-1e-05,-1e-05,2e-05,7e-05,-0.00059,-2.9999999999999997e-05,2e-05,1e-05,4
15579,16028,-1e-05,-1e-05,2e-05,7e-05,-0.00059,-2.9999999999999997e-05,2e-05,1e-05,4
15580,16029,-1e-05,-1e-05,2e-05,7e-05,-0.00059,-2.9999999999999997e-05,2e-05,1e-05,4
15581,16030,-1e-05,-1e-05,2e-05,7e-05,-0.00059,-2.9999999999999997e-05,2e-05,1e-05,4
15582,16031,-1e-05,-1e-05,2e-05,7e-05,-0.00059,-2.9999999999999997e-05,2e-05,1e-05,4
15583,16032,-1e-05,-1e-05,2e-05,7e-05,-0.00059,-2.9999999999999997e-05,2e-05,1e-05,4
15584,16033,-1e-05,-1e-05,2e-05,7e-05,-0.00059,-2.9999999999999997e-05,2e-05,1e-05,4
15585,16034,-1e-05,-1e-05,2e-05,7e-05,-0.00059,-2.9999999999999997e-05,2e-05,1e-05,4
15586,16035,-1e-05,-1e-05,2e-05,7e-05,-0.00059,-2.9999999999999997e-05,2e-05,1e-05,4
15587,16036,-1e-05,-1e-05,2e-05,7e-05,-0.00059,-2.9999999999999997e-05,2e-05,1e-05,4
15588,16038,-2.9999999999999997e-05,-2.9999999999999997e-05,2.9999999999999997e-05,-0.00027,-0.00011,0.00011,-4e-05,-1e-05,4
15589,16039,2e-05,0.0,-2.9999999999999997e-05,0.00066,0.0008900000000000001,-0.00014,1e-05,1e-05,4
15590,16040,2e-05,0.0,-2.9999999999999997e-05,0.00066,0.0008900000000000001,-0.00014,1e-05,1e-05,4
15591,16041,2e-05,0.0,-2.9999999999999997e-05,0.00066,0.0008900000000000001,-0.00014,1e-05,1e-05,4
15592,16042,2e-05,0.0,-2.9999999999999997e-05,0.00066,0.0008900000000000001,-0.00014,1e-05,1e-05,4
15593,16043,2e-05,0.0,-2.9999999999999997e-05,0.00066,0.0008900000000000001,-0.00014,1e-05,1e-05,4
15594,16044,2e-05,0.0,-2.9999999999999997e-05,0.00066,0.0008900000000000001,-0.00014,1e-05,1e-05,4
15595,16045,2e-05,0.0,-2.9999999999999997e-05,0.00066,0.0008900000000000001,-0.00014,1e-05,1e-05,4
15596,16046,2e-05,0.0,-2.9999999999999997e-05,0.00066,0.0008900000000000001,-0.00014,1e-05,1e-05,4
15597,16047,2e-05,0.0,-2.9999999999999997e-05,0.00066,0.0008900000000000001,-0.00014,1e-05,1e-05,4
15598,16048,2e-05,0.0,-2.9999999999999997e-05,0.00066,0.0008900000000000001,-0.00014,1e-05,1e-05,4
15599,16049,2e-05,0.0,-2.9999999999999997e-05,0.00066,0.0008900000000000001,-0.00014,1e-05,1e-05,4
15600,16050,2e-05,0.0,-2.9999999999999997e-05,0.00066,0.0008900000000000001,-0.00014,1e-05,1e-05,4
15601,16051,2e-05,0.0,-2.9999999999999997e-05,0.00066,0.0008900000000000001,-0.00014,1e-05,1e-05,4
15602,16052,2e-05,0.0,-2.9999999999999997e-05,0.00066,0.0008900000000000001,-0.00014,1e-05,1e-05,4
15603,16053,2e-05,0.0,-2.9999999999999997e-05,0.00066,0.0008900000000000001,-0.00014,1e-05,1e-05,4
15604,16054,2e-05,0.0,-2.9999999999999997e-05,0.00066,0.0008900000000000001,-0.00014,1e-05,1e-05,4
15605,16055,2e-05,0.0,-2.9999999999999997e-05,0.00066,0.0008900000000000001,-0.00014,1e-05,1e-05,4
15606,16056,2e-05,0.0,-2.9999999999999997e-05,0.00066,0.0008900000000000001,-0.00014,1e-05,1e-05,4
15607,16057,2e-05,0.0,-2.9999999999999997e-05,0.00066,0.0008900000000000001,-0.00014,1e-05,1e-05,4
15608,16058,2e-05,0.0,-2.9999999999999997e-05,0.00066,0.0008900000000000001,-0.00014,1e-05,1e-05,4
15609,16059,2e-05,0.0,-2.9999999999999997e-05,0.00066,0.0008900000000000001,-0.00014,1e-05,1e-05,4
15610,16060,2e-05,0.0,-2.9999999999999997e-05,0.00066,0.0008900000000000001,-0.00014,1e-05,1e-05,4
15611,16061,-2e-05,-5.9999999999999995e-05,-9e-05,-0.00035,-0.00044,-0.00065,-2.9999999999999997e-05,-4e-05,4
15612,16062,-4e-05,-2.9999999999999997e-05,-1e-05,-8e-05,0.00026000000000000003,-0.00014,-0.0001,-4e-05,4
15613,16063,-4e-05,-2.9999999999999997e-05,-1e-05,-8e-05,0.00026000000000000003,-0.00014,-0.0001,-4e-05,4
15614,16064,-4e-05,-2.9999999999999997e-05,-1e-05,-8e-05,0.00026000000000000003,-0.00014,-0.0001,-4e-05,4
15615,16065,-4e-05,-2.9999999999999997e-05,-1e-05,-8e-05,0.00026000000000000003,-0.00014,-0.0001,-4e-05,4
15616,16066,-4e-05,-2.9999999999999997e-05,-1e-05,-8e-05,0.00026000000000000003,-0.00014,-0.0001,-4e-05,4
15617,16067,-4e-05,-2.9999999999999997e-05,-1e-05,-8e-05,0.00026000000000000003,-0.00014,-0.0001,-4e-05,4
15618,16068,-4e-05,-2.9999999999999997e-05,-1e-05,-8e-05,0.00026000000000000003,-0.00014,-0.0001,-4e-05,4
15619,16069,-4e-05,-2.9999999999999997e-05,-1e-05,-8e-05,0.00026000000000000003,-0.00014,-0.0001,-4e-05,4
15620,16070,-4e-05,-2.9999999999999997e-05,-1e-05,-8e-05,0.00026000000000000003,-0.00014,-0.0001,-4e-05,4
15621,16071,-4e-05,-2.9999999999999997e-05,-1e-05,-8e-05,0.00026000000000000003,-0.00014,-0.0001,-4e-05,4
15622,16072,-4e-05,-2.9999999999999997e-05,-1e-05,-8e-05,0.00026000000000000003,-0.00014,-0.0001,-4e-05,4
15623,16073,-4e-05,-2.9999999999999997e-05,-1e-05,-8e-05,0.00026000000000000003,-0.00014,-0.0001,-4e-05,4
15624,16074,-4e-05,-2.9999999999999997e-05,-1e-05,-8e-05,0.00026000000000000003,-0.00014,-0.0001,-4e-05,4
15625,16075,-2e-05,0.0,5e-05,0.00028,0.00066,0.00014,-5e-05,-2.9999999999999997e-05,4
15626,16076,-2.9999999999999997e-05,-4e-05,-5e-05,-0.00049,-0.0005,-0.00032,-2e-05,-1e-05,4
15627,16077,-2.9999999999999997e-05,-4e-05,-5e-05,-0.00049,-0.0005,-0.00032,-2e-05,-1e-05,4
15628,16078,-2.9999999999999997e-05,-4e-05,-5e-05,-0.00049,-0.0005,-0.00032,-2e-05,-1e-05,4
15629,16079,-2.9999999999999997e-05,-4e-05,-5e-05,-0.00049,-0.0005,-0.00032,-2e-05,-1e-05,4
15630,16080,-2.9999999999999997e-05,-4e-05,-5e-05,-0.00049,-0.0005,-0.00032,-2e-05,-1e-05,4
15631,16081,-2.9999999999999997e-05,-4e-05,-5e-05,-0.00049,-0.0005,-0.00032,-2e-05,-1e-05,4
15632,16082,-2.9999999999999997e-05,-4e-05,-5e-05,-0.00049,-0.0005,-0.00032,-2e-05,-1e-05,4
15633,16083,-2.9999999999999997e-05,-4e-05,-5e-05,-0.00049,-0.0005,-0.00032,-2e-05,-1e-05,4
15634,16084,-2.9999999999999997e-05,-4e-05,-5e-05,-0.00049,-0.0005,-0.00032,-2e-05,-1e-05,4
15635,16085,-2.9999999999999997e-05,-4e-05,-5e-05,-0.00049,-0.0005,-0.00032,-2e-05,-1e-05,4
15636,16086,-2.9999999999999997e-05,-4e-05,-5e-05,-0.00049,-0.0005,-0.00032,-2e-05,-1e-05,4
15637,16088,-2.9999999999999997e-05,-4e-05,-5e-05,-0.00049,-0.0005,-0.00032,-2e-05,-1e-05,4
15638,16089,-2.9999999999999997e-05,-4e-05,-5e-05,-0.00049,-0.0005,-0.00032,-2e-05,-1e-05,4
15639,16090,-2.9999999999999997e-05,-4e-05,-5e-05,-0.00049,-0.0005,-0.00032,-2e-05,-1e-05,4
15640,16091,-2.9999999999999997e-05,-4e-05,-5e-05,-0.00049,-0.0005,-0.00032,-2e-05,-1e-05,4
15641,16092,-2.9999999999999997e-05,-4e-05,-5e-05,-0.00049,-0.0005,-0.00032,-2e-05,-1e-05,4
15642,16093,-2.9999999999999997e-05,-4e-05,-5e-05,-0.00049,-0.0005,-0.00032,-2e-05,-1e-05,4
15643,16094,-2.9999999999999997e-05,-4e-05,-5e-05,-0.00049,-0.0005,-0.00032,-2e-05,-1e-05,4
15644,16095,-2.9999999999999997e-05,-4e-05,-5e-05,-0.00049,-0.0005,-0.00032,-2e-05,-1e-05,4
15645,16096,-2.9999999999999997e-05,-4e-05,-5e-05,-0.00049,-0.0005,-0.00032,-2e-05,-1e-05,4
15646,16097,-2.9999999999999997e-05,-4e-05,-5e-05,-0.00049,-0.0005,-0.00032,-2e-05,-1e-05,4
15647,16098,0.0,-1e-05,-4e-05,-4e-05,9e-05,0.00013000000000000002,-7e-05,-2e-05,4
15648,16099,-1e-05,1e-05,1e-05,-0.0002,-0.0004,-0.00011999999999999999,-2.9999999999999997e-05,4e-05,4
15649,16100,-1e-05,1e-05,1e-05,-0.0002,-0.0004,-0.00011999999999999999,-2.9999999999999997e-05,4e-05,4
15650,16101,-1e-05,1e-05,1e-05,-0.0002,-0.0004,-0.00011999999999999999,-2.9999999999999997e-05,4e-05,4
15651,16102,-1e-05,1e-05,1e-05,-0.0002,-0.0004,-0.00011999999999999999,-2.9999999999999997e-05,4e-05,4
15652,16103,-1e-05,1e-05,1e-05,-0.0002,-0.0004,-0.00011999999999999999,-2.9999999999999997e-05,4e-05,4
15653,16104,-1e-05,1e-05,1e-05,-0.0002,-0.0004,-0.00011999999999999999,-2.9999999999999997e-05,4e-05,4
15654,16105,-1e-05,1e-05,1e-05,-0.0002,-0.0004,-0.00011999999999999999,-2.9999999999999997e-05,4e-05,4
15655,16106,-1e-05,1e-05,1e-05,-0.0002,-0.0004,-0.00011999999999999999,-2.9999999999999997e-05,4e-05,4
15656,16107,-1e-05,1e-05,1e-05,-0.0002,-0.0004,-0.00011999999999999999,-2.9999999999999997e-05,4e-05,4
15657,16108,-1e-05,1e-05,1e-05,-0.0002,-0.0004,-0.00011999999999999999,-2.9999999999999997e-05,4e-05,4
15658,16109,-1e-05,1e-05,1e-05,-0.0002,-0.0004,-0.00011999999999999999,-2.9999999999999997e-05,4e-05,4
15659,16110,-1e-05,1e-05,1e-05,-0.0002,-0.0004,-0.00011999999999999999,-2.9999999999999997e-05,4e-05,4
15660,16111,-1e-05,1e-05,1e-05,-0.0002,-0.0004,-0.00011999999999999999,-2.9999999999999997e-05,4e-05,4
15661,16112,-1e-05,1e-05,1e-05,-0.0002,-0.0004,-0.00011999999999999999,-2.9999999999999997e-05,4e-05,4
15662,16113,-1e-05,1e-05,1e-05,-0.0002,-0.0004,-0.00011999999999999999,-2.9999999999999997e-05,4e-05,4
15663,16114,-1e-05,1e-05,1e-05,-0.0002,-0.0004,-0.00011999999999999999,-2.9999999999999997e-05,4e-05,4
15664,16115,-1e-05,1e-05,1e-05,-0.0002,-0.0004,-0.00011999999999999999,-2.9999999999999997e-05,4e-05,4
15665,16116,-1e-05,1e-05,1e-05,-0.0002,-0.0004,-0.00011999999999999999,-2.9999999999999997e-05,4e-05,4
15666,16117,-1e-05,1e-05,1e-05,-0.0002,-0.0004,-0.00011999999999999999,-2.9999999999999997e-05,4e-05,4
15667,16118,-1e-05,1e-05,1e-05,-0.0002,-0.0004,-0.00011999999999999999,-2.9999999999999997e-05,4e-05,4
15668,16119,-1e-05,1e-05,1e-05,-0.0002,-0.0004,-0.00011999999999999999,-2.9999999999999997e-05,4e-05,4
15669,16120,-1e-05,1e-05,1e-05,-0.0002,-0.0004,-0.00011999999999999999,-2.9999999999999997e-05,4e-05,4
15670,16121,2e-05,2e-05,1e-05,-0.00055,-0.00066,-0.00027,0.00011,2.9999999999999997e-05,4
15671,16122,-2e-05,-2e-05,-5e-05,2e-05,0.00029,0.00059,2e-05,-2e-05,4
15672,16123,-2e-05,-2e-05,-5e-05,2e-05,0.00029,0.00059,2e-05,-2e-05,4
15673,16124,-2e-05,-2e-05,-5e-05,2e-05,0.00029,0.00059,2e-05,-2e-05,4
15674,16125,-2e-05,-2e-05,-5e-05,2e-05,0.00029,0.00059,2e-05,-2e-05,4
15675,16126,-2e-05,-2e-05,-5e-05,2e-05,0.00029,0.00059,2e-05,-2e-05,4
15676,16127,-2e-05,-2e-05,-5e-05,2e-05,0.00029,0.00059,2e-05,-2e-05,4
15677,16128,-2e-05,-2e-05,-5e-05,2e-05,0.00029,0.00059,2e-05,-2e-05,4
15678,16129,-2e-05,-2e-05,-5e-05,2e-05,0.00029,0.00059,2e-05,-2e-05,4
15679,16130,-2e-05,-2e-05,-5e-05,2e-05,0.00029,0.00059,2e-05,-2e-05,4
15680,16131,-2e-05,-2e-05,-5e-05,2e-05,0.00029,0.00059,2e-05,-2e-05,4
15681,16132,-2e-05,-2e-05,-5e-05,2e-05,0.00029,0.00059,2e-05,-2e-05,4
15682,16133,-2e-05,-2e-05,-5e-05,2e-05,0.00029,0.00059,2e-05,-2e-05,4
15683,16134,-2e-05,-2e-05,-5e-05,2e-05,0.00029,0.00059,2e-05,-2e-05,4
15684,16135,-2e-05,-2e-05,-9e-05,-0.0006900000000000001,-0.00033,-0.00011,-2e-05,-1e-05,4
15685,16136,-1e-05,-2.9999999999999997e-05,1e-05,0.00033,0.00063,0.00042,4e-05,0.0,4
15686,16138,-1e-05,-2.9999999999999997e-05,1e-05,0.00033,0.00063,0.00042,4e-05,0.0,4
15687,16139,-1e-05,-2.9999999999999997e-05,1e-05,0.00033,0.00063,0.00042,4e-05,0.0,4
15688,16140,-1e-05,-2.9999999999999997e-05,1e-05,0.00033,0.00063,0.00042,4e-05,0.0,4
15689,16141,-1e-05,-2.9999999999999997e-05,1e-05,0.00033,0.00063,0.00042,4e-05,0.0,4
15690,16142,-1e-05,-2.9999999999999997e-05,1e-05,0.00033,0.00063,0.00042,4e-05,0.0,4
15691,16143,-1e-05,-2.9999999999999997e-05,1e-05,0.00033,0.00063,0.00042,4e-05,0.0,4
15692,16144,-1e-05,-2.9999999999999997e-05,1e-05,0.00033,0.00063,0.00042,4e-05,0.0,4
15693,16145,-1e-05,-2.9999999999999997e-05,1e-05,0.00033,0.00063,0.00042,4e-05,0.0,4
15694,16146,-1e-05,-2.9999999999999997e-05,1e-05,0.00033,0.00063,0.00042,4e-05,0.0,4
15695,16147,-1e-05,-2.9999999999999997e-05,1e-05,0.00033,0.00063,0.00042,4e-05,0.0,4
15696,16148,-1e-05,-2.9999999999999997e-05,1e-05,0.00033,0.00063,0.00042,4e-05,0.0,4
15697,16149,-1e-05,-2.9999999999999997e-05,1e-05,0.00033,0.00063,0.00042,4e-05,0.0,4
15698,16150,-1e-05,-2.9999999999999997e-05,1e-05,0.00033,0.00063,0.00042,4e-05,0.0,4
15699,16151,-1e-05,-2.9999999999999997e-05,1e-05,0.00033,0.00063,0.00042,4e-05,0.0,4
15700,16152,-1e-05,-2.9999999999999997e-05,1e-05,0.00033,0.00063,0.00042,4e-05,0.0,4
15701,16153,-1e-05,-2.9999999999999997e-05,1e-05,0.00033,0.00063,0.00042,4e-05,0.0,4
15702,16154,-1e-05,-2.9999999999999997e-05,1e-05,0.00033,0.00063,0.00042,4e-05,0.0,4
15703,16155,-1e-05,-2.9999999999999997e-05,1e-05,0.00033,0.00063,0.00042,4e-05,0.0,4
15704,16156,-1e-05,-2.9999999999999997e-05,1e-05,0.00033,0.00063,0.00042,4e-05,0.0,4
15705,16157,-1e-05,-2.9999999999999997e-05,1e-05,0.00033,0.00063,0.00042,4e-05,0.0,4
15706,16158,-5e-05,-5e-05,-9e-05,-0.00047000000000000004,-0.0005200000000000001,-0.00014,-5.9999999999999995e-05,-1e-05,4
15707,16159,-5e-05,-0.0001,-5.9999999999999995e-05,-4e-05,-0.00016999999999999999,-0.00035,-8e-05,-4e-05,4
15708,16160,-5e-05,-0.0001,-5.9999999999999995e-05,-4e-05,-0.00016999999999999999,-0.00035,-8e-05,-4e-05,4
15709,16161,-5e-05,-0.0001,-5.9999999999999995e-05,-4e-05,-0.00016999999999999999,-0.00035,-8e-05,-4e-05,4
15710,16162,-5e-05,-0.0001,-5.9999999999999995e-05,-4e-05,-0.00016999999999999999,-0.00035,-8e-05,-4e-05,4
15711,16163,-5e-05,-0.0001,-5.9999999999999995e-05,-4e-05,-0.00016999999999999999,-0.00035,-8e-05,-4e-05,4
15712,16164,-5e-05,-0.0001,-5.9999999999999995e-05,-4e-05,-0.00016999999999999999,-0.00035,-8e-05,-4e-05,4
15713,16165,-5e-05,-0.0001,-5.9999999999999995e-05,-4e-05,-0.00016999999999999999,-0.00035,-8e-05,-4e-05,4
15714,16166,-5e-05,-0.0001,-5.9999999999999995e-05,-4e-05,-0.00016999999999999999,-0.00035,-8e-05,-4e-05,4
15715,16167,-5e-05,-0.0001,-5.9999999999999995e-05,-4e-05,-0.00016999999999999999,-0.00035,-8e-05,-4e-05,4
15716,16168,-5e-05,-0.0001,-5.9999999999999995e-05,-4e-05,-0.00016999999999999999,-0.00035,-8e-05,-4e-05,4
15717,16169,-5e-05,-0.0001,-5.9999999999999995e-05,-4e-05,-0.00016999999999999999,-0.00035,-8e-05,-4e-05,4
15718,16170,-5e-05,-0.0001,-5.9999999999999995e-05,-4e-05,-0.00016999999999999999,-0.00035,-8e-05,-4e-05,4
15719,16171,-5e-05,-0.0001,-5.9999999999999995e-05,-4e-05,-0.00016999999999999999,-0.00035,-8e-05,-4e-05,4
15720,16172,-5e-05,-0.0001,-5.9999999999999995e-05,-4e-05,-0.00016999999999999999,-0.00035,-8e-05,-4e-05,4
15721,16173,-5e-05,-0.0001,-5.9999999999999995e-05,-4e-05,-0.00016999999999999999,-0.00035,-8e-05,-4e-05,4
15722,16174,-5e-05,-0.0001,-5.9999999999999995e-05,-4e-05,-0.00016999999999999999,-0.00035,-8e-05,-4e-05,4
15723,16175,-5e-05,-0.0001,-5.9999999999999995e-05,-4e-05,-0.00016999999999999999,-0.00035,-8e-05,-4e-05,4
15724,16176,-5e-05,-0.0001,-5.9999999999999995e-05,-4e-05,-0.00016999999999999999,-0.00035,-8e-05,-4e-05,4
15725,16177,-5e-05,-0.0001,-5.9999999999999995e-05,-4e-05,-0.00016999999999999999,-0.00035,-8e-05,-4e-05,4
15726,16178,-5e-05,-0.0001,-5.9999999999999995e-05,-4e-05,-0.00016999999999999999,-0.00035,-8e-05,-4e-05,4
15727,16179,-5e-05,-0.0001,-5.9999999999999995e-05,-4e-05,-0.00016999999999999999,-0.00035,-8e-05,-4e-05,4
15728,16180,-5e-05,-0.0001,-5.9999999999999995e-05,-4e-05,-0.00016999999999999999,-0.00035,-8e-05,-4e-05,4
15729,16181,0.0,0.0,4e-05,2e-05,0.00058,0.00036,5.9999999999999995e-05,1e-05,4
15730,16182,0.0,2.9999999999999997e-05,0.0,-0.00023999999999999998,-0.00039,0.00016999999999999999,0.0001,0.0,4
15731,16183,0.0,2.9999999999999997e-05,0.0,-0.00023999999999999998,-0.00039,0.00016999999999999999,0.0001,0.0,4
15732,16184,0.0,2.9999999999999997e-05,0.0,-0.00023999999999999998,-0.00039,0.00016999999999999999,0.0001,0.0,4
15733,16185,0.0,2.9999999999999997e-05,0.0,-0.00023999999999999998,-0.00039,0.00016999999999999999,0.0001,0.0,4
15734,16186,0.0,2.9999999999999997e-05,0.0,-0.00023999999999999998,-0.00039,0.00016999999999999999,0.0001,0.0,4
15735,16188,0.0,2.9999999999999997e-05,0.0,-0.00023999999999999998,-0.00039,0.00016999999999999999,0.0001,0.0,4
15736,16189,0.0,2.9999999999999997e-05,0.0,-0.00023999999999999998,-0.00039,0.00016999999999999999,0.0001,0.0,4
15737,16190,0.0,2.9999999999999997e-05,0.0,-0.00023999999999999998,-0.00039,0.00016999999999999999,0.0001,0.0,4
15738,16191,0.0,2.9999999999999997e-05,0.0,-0.00023999999999999998,-0.00039,0.00016999999999999999,0.0001,0.0,4
15739,16192,0.0,2.9999999999999997e-05,0.0,-0.00023999999999999998,-0.00039,0.00016999999999999999,0.0001,0.0,4
15740,16193,0.0,2.9999999999999997e-05,0.0,-0.00023999999999999998,-0.00039,0.00016999999999999999,0.0001,0.0,4
15741,16194,0.0,2.9999999999999997e-05,0.0,-0.00023999999999999998,-0.00039,0.00016999999999999999,0.0001,0.0,4
15742,16195,2.9999999999999997e-05,5e-05,0.00011,0.00049,0.00033,-0.00042,-2.9999999999999997e-05,2e-05,4
15743,16196,2.9999999999999997e-05,5e-05,0.00011,0.00049,0.00033,-0.00042,-2.9999999999999997e-05,2e-05,4
15744,16197,2.9999999999999997e-05,5e-05,0.00011,0.00049,0.00033,-0.00042,-2.9999999999999997e-05,2e-05,4
15745,16198,2.9999999999999997e-05,5e-05,0.00011,0.00049,0.00033,-0.00042,-2.9999999999999997e-05,2e-05,4
15746,16199,2.9999999999999997e-05,5e-05,0.00011,0.00049,0.00033,-0.00042,-2.9999999999999997e-05,2e-05,4
15747,16200,2.9999999999999997e-05,5e-05,0.00011,0.00049,0.00033,-0.00042,-2.9999999999999997e-05,2e-05,4
15748,16201,2.9999999999999997e-05,5e-05,0.00011,0.00049,0.00033,-0.00042,-2.9999999999999997e-05,2e-05,4
15749,16202,2.9999999999999997e-05,5e-05,0.00011,0.00049,0.00033,-0.00042,-2.9999999999999997e-05,2e-05,4
15750,16203,2.9999999999999997e-05,4e-05,5.9999999999999995e-05,7e-05,0.00075,0.00011999999999999999,2e-05,-2.9999999999999997e-05,4
15751,16204,2.9999999999999997e-05,4e-05,5.9999999999999995e-05,7e-05,0.00075,0.00011999999999999999,2e-05,-2.9999999999999997e-05,4
15752,16205,2.9999999999999997e-05,4e-05,5.9999999999999995e-05,7e-05,0.00075,0.00011999999999999999,2e-05,-2.9999999999999997e-05,4
15753,16206,2.9999999999999997e-05,4e-05,5.9999999999999995e-05,7e-05,0.00075,0.00011999999999999999,2e-05,-2.9999999999999997e-05,4
15754,16207,2.9999999999999997e-05,4e-05,5.9999999999999995e-05,7e-05,0.00075,0.00011999999999999999,2e-05,-2.9999999999999997e-05,4
15755,16208,2.9999999999999997e-05,4e-05,5.9999999999999995e-05,7e-05,0.00075,0.00011999999999999999,2e-05,-2.9999999999999997e-05,4
15756,16209,2.9999999999999997e-05,4e-05,5.9999999999999995e-05,7e-05,0.00075,0.00011999999999999999,2e-05,-2.9999999999999997e-05,4
15757,16210,2.9999999999999997e-05,4e-05,5.9999999999999995e-05,7e-05,0.00075,0.00011999999999999999,2e-05,-2.9999999999999997e-05,4
15758,16211,2.9999999999999997e-05,4e-05,5.9999999999999995e-05,7e-05,0.00075,0.00011999999999999999,2e-05,-2.9999999999999997e-05,4
15759,16212,2.9999999999999997e-05,4e-05,5.9999999999999995e-05,7e-05,0.00075,0.00011999999999999999,2e-05,-2.9999999999999997e-05,4
15760,16213,2.9999999999999997e-05,4e-05,5.9999999999999995e-05,7e-05,0.00075,0.00011999999999999999,2e-05,-2.9999999999999997e-05,4
15761,16214,2.9999999999999997e-05,4e-05,5.9999999999999995e-05,7e-05,0.00075,0.00011999999999999999,2e-05,-2.9999999999999997e-05,4
15762,16215,2.9999999999999997e-05,4e-05,5.9999999999999995e-05,7e-05,0.00075,0.00011999999999999999,2e-05,-2.9999999999999997e-05,4
15763,16216,2.9999999999999997e-05,4e-05,5.9999999999999995e-05,7e-05,0.00075,0.00011999999999999999,2e-05,-2.9999999999999997e-05,4
15764,16217,2.9999999999999997e-05,4e-05,5.9999999999999995e-05,7e-05,0.00075,0.00011999999999999999,2e-05,-2.9999999999999997e-05,4
15765,16218,1e-05,2e-05,2e-05,0.00018,-4e-05,0.0007099999999999999,4e-05,1e-05,4
15766,16219,-1e-05,2.9999999999999997e-05,0.00014,0.00098,0.00037999999999999997,-0.00027,-4e-05,2e-05,4
15767,16220,-1e-05,2.9999999999999997e-05,0.00014,0.00098,0.00037999999999999997,-0.00027,-4e-05,2e-05,4
15768,16221,-1e-05,2.9999999999999997e-05,0.00014,0.00098,0.00037999999999999997,-0.00027,-4e-05,2e-05,4
15769,16222,-1e-05,2.9999999999999997e-05,0.00014,0.00098,0.00037999999999999997,-0.00027,-4e-05,2e-05,4
15770,16223,-1e-05,2.9999999999999997e-05,0.00014,0.00098,0.00037999999999999997,-0.00027,-4e-05,2e-05,4
15771,16224,-1e-05,2.9999999999999997e-05,0.00014,0.00098,0.00037999999999999997,-0.00027,-4e-05,2e-05,4
15772,16225,-1e-05,2.9999999999999997e-05,0.00014,0.00098,0.00037999999999999997,-0.00027,-4e-05,2e-05,4
15773,16226,-1e-05,2.9999999999999997e-05,0.00014,0.00098,0.00037999999999999997,-0.00027,-4e-05,2e-05,4
15774,16227,-1e-05,2.9999999999999997e-05,0.00014,0.00098,0.00037999999999999997,-0.00027,-4e-05,2e-05,4
15775,16228,-1e-05,2.9999999999999997e-05,0.00014,0.00098,0.00037999999999999997,-0.00027,-4e-05,2e-05,4
15776,16229,-1e-05,2.9999999999999997e-05,0.00014,0.00098,0.00037999999999999997,-0.00027,-4e-05,2e-05,4
15777,16230,-1e-05,2.9999999999999997e-05,0.00014,0.00098,0.00037999999999999997,-0.00027,-4e-05,2e-05,4
15778,16231,-1e-05,2.9999999999999997e-05,0.00014,0.00098,0.00037999999999999997,-0.00027,-4e-05,2e-05,4
15779,16232,-1e-05,2.9999999999999997e-05,0.00014,0.00098,0.00037999999999999997,-0.00027,-4e-05,2e-05,4
15780,16233,-1e-05,2.9999999999999997e-05,0.00014,0.00098,0.00037999999999999997,-0.00027,-4e-05,2e-05,4
15781,16234,-1e-05,2.9999999999999997e-05,0.00014,0.00098,0.00037999999999999997,-0.00027,-4e-05,2e-05,4
15782,16235,-1e-05,2.9999999999999997e-05,0.00014,0.00098,0.00037999999999999997,-0.00027,-4e-05,2e-05,4
15783,16236,-1e-05,2.9999999999999997e-05,0.00014,0.00098,0.00037999999999999997,-0.00027,-4e-05,2e-05,4
15784,16238,-1e-05,2.9999999999999997e-05,0.00014,0.00098,0.00037999999999999997,-0.00027,-4e-05,2e-05,4
15785,16239,-1e-05,2.9999999999999997e-05,0.00014,0.00098,0.00037999999999999997,-0.00027,-4e-05,2e-05,4
15786,16240,-1e-05,2.9999999999999997e-05,0.00014,0.00098,0.00037999999999999997,-0.00027,-4e-05,2e-05,4
15787,16241,-7e-05,-8e-05,-0.00015,-0.00082,-0.00066,0.00011,-2.9999999999999997e-05,-5e-05,4
15788,16242,0.0,-2e-05,-2.9999999999999997e-05,-0.00022,-0.0008300000000000001,0.00045999999999999996,2e-05,1e-05,4
15789,16243,0.0,-2e-05,-2.9999999999999997e-05,-0.00022,-0.0008300000000000001,0.00045999999999999996,2e-05,1e-05,4
15790,16244,0.0,-2e-05,-2.9999999999999997e-05,-0.00022,-0.0008300000000000001,0.00045999999999999996,2e-05,1e-05,4
15791,16245,0.0,-2e-05,-2.9999999999999997e-05,-0.00022,-0.0008300000000000001,0.00045999999999999996,2e-05,1e-05,4
15792,16246,0.0,-2e-05,-2.9999999999999997e-05,-0.00022,-0.0008300000000000001,0.00045999999999999996,2e-05,1e-05,4
15793,16247,0.0,-2e-05,-2.9999999999999997e-05,-0.00022,-0.0008300000000000001,0.00045999999999999996,2e-05,1e-05,4
15794,16248,0.0,-2e-05,-2.9999999999999997e-05,-0.00022,-0.0008300000000000001,0.00045999999999999996,2e-05,1e-05,4
15795,16249,0.0,-2e-05,-2.9999999999999997e-05,-0.00022,-0.0008300000000000001,0.00045999999999999996,2e-05,1e-05,4
15796,16250,0.0,-2e-05,-2.9999999999999997e-05,-0.00022,-0.0008300000000000001,0.00045999999999999996,2e-05,1e-05,4
15797,16251,0.0,-2e-05,-2.9999999999999997e-05,-0.00022,-0.0008300000000000001,0.00045999999999999996,2e-05,1e-05,4
15798,16252,0.0,-2e-05,-2.9999999999999997e-05,-0.00022,-0.0008300000000000001,0.00045999999999999996,2e-05,1e-05,4
15799,16253,0.0,-2e-05,-2.9999999999999997e-05,-0.00022,-0.0008300000000000001,0.00045999999999999996,2e-05,1e-05,4
15800,16254,0.0,-2e-05,-2.9999999999999997e-05,-0.00022,-0.0008300000000000001,0.00045999999999999996,2e-05,1e-05,4
15801,16255,0.0,-2e-05,-2.9999999999999997e-05,-0.00022,-0.0008300000000000001,0.00045999999999999996,2e-05,1e-05,4
15802,16256,0.0,-2e-05,-2.9999999999999997e-05,-0.00022,-0.0008300000000000001,0.00045999999999999996,2e-05,1e-05,4
15803,16257,0.0,-2e-05,-2.9999999999999997e-05,-0.00022,-0.0008300000000000001,0.00045999999999999996,2e-05,1e-05,4
15804,16258,0.0,-2e-05,-2.9999999999999997e-05,-0.00022,-0.0008300000000000001,0.00045999999999999996,2e-05,1e-05,4
15805,16259,0.0,-2e-05,-2.9999999999999997e-05,-0.00022,-0.0008300000000000001,0.00045999999999999996,2e-05,1e-05,4
15806,16260,0.0,-2e-05,-2.9999999999999997e-05,-0.00022,-0.0008300000000000001,0.00045999999999999996,2e-05,1e-05,4
15807,16261,0.0,-2e-05,-2.9999999999999997e-05,-0.00022,-0.0008300000000000001,0.00045999999999999996,2e-05,1e-05,4
15808,16262,0.0,-2e-05,-2.9999999999999997e-05,-0.00022,-0.0008300000000000001,0.00045999999999999996,2e-05,1e-05,4
15809,16263,0.0,-2e-05,-2.9999999999999997e-05,-0.00022,-0.0008300000000000001,0.00045999999999999996,2e-05,1e-05,4
15810,16264,-2.9999999999999997e-05,-4e-05,-4e-05,5.9999999999999995e-05,2e-05,4e-05,2.9999999999999997e-05,-2e-05,4
15811,16265,-2.9999999999999997e-05,-4e-05,-4e-05,5.9999999999999995e-05,2e-05,4e-05,2.9999999999999997e-05,-2e-05,4
15812,16266,-2.9999999999999997e-05,-4e-05,-4e-05,5.9999999999999995e-05,2e-05,4e-05,2.9999999999999997e-05,-2e-05,4
15813,16267,-2.9999999999999997e-05,-4e-05,-4e-05,5.9999999999999995e-05,2e-05,4e-05,2.9999999999999997e-05,-2e-05,4
15814,16268,-2.9999999999999997e-05,-4e-05,-4e-05,5.9999999999999995e-05,2e-05,4e-05,2.9999999999999997e-05,-2e-05,4
