,time,channel1,channel2,channel3,channel4,channel5,channel6,channel7,channel8,class
16093,16847,8e-05,0.0001,0.00025,0.0007,0.00079,0.00035,8e-05,9e-05,4
16094,16848,8e-05,0.0001,0.00025,0.0007,0.00079,0.00035,8e-05,9e-05,4
16095,16849,8e-05,0.0001,0.00025,0.0007,0.00079,0.00035,8e-05,9e-05,4
16096,16850,8e-05,0.0001,0.00025,0.0007,0.00079,0.00035,8e-05,9e-05,4
16097,16851,8e-05,0.0001,0.00025,0.0007,0.00079,0.00035,8e-05,9e-05,4
16098,16852,8e-05,0.0001,0.00025,0.0007,0.00079,0.00035,8e-05,9e-05,4
16099,16853,1e-05,1e-05,0.00011999999999999999,0.00011999999999999999,0.00018,-0.00016999999999999999,-2.9999999999999997e-05,-2e-05,4
16100,16854,1e-05,1e-05,0.00011999999999999999,0.00011999999999999999,0.00018,-0.00016999999999999999,-2.9999999999999997e-05,-2e-05,4
16101,16855,1e-05,1e-05,0.00011999999999999999,0.00011999999999999999,0.00018,-0.00016999999999999999,-2.9999999999999997e-05,-2e-05,4
16102,16856,1e-05,1e-05,0.00011999999999999999,0.00011999999999999999,0.00018,-0.00016999999999999999,-2.9999999999999997e-05,-2e-05,4
16103,16857,1e-05,1e-05,0.00011999999999999999,0.00011999999999999999,0.00018,-0.00016999999999999999,-2.9999999999999997e-05,-2e-05,4
16104,16858,1e-05,1e-05,0.00011999999999999999,0.00011999999999999999,0.00018,-0.00016999999999999999,-2.9999999999999997e-05,-2e-05,4
16105,16859,1e-05,1e-05,0.00011999999999999999,0.00011999999999999999,0.00018,-0.00016999999999999999,-2.9999999999999997e-05,-2e-05,4
16106,16860,1e-05,1e-05,0.00011999999999999999,0.00011999999999999999,0.00018,-0.00016999999999999999,-2.9999999999999997e-05,-2e-05,4
16107,16861,1e-05,1e-05,0.00011999999999999999,0.00011999999999999999,0.00018,-0.00016999999999999999,-2.9999999999999997e-05,-2e-05,4
16108,16862,2e-05,-2e-05,-0.0001,0.00022999999999999998,-0.00036,-0.00016,0.0,2e-05,4
16109,16863,2e-05,-2e-05,-0.0001,0.00022999999999999998,-0.00036,-0.00016,0.0,2e-05,4
16110,16864,2e-05,-2e-05,-0.0001,0.00022999999999999998,-0.00036,-0.00016,0.0,2e-05,4
16111,16865,2e-05,-2e-05,-0.0001,0.00022999999999999998,-0.00036,-0.00016,0.0,2e-05,4
16112,16866,2e-05,-2e-05,-0.0001,0.00022999999999999998,-0.00036,-0.00016,0.0,2e-05,4
16113,16867,2e-05,-2e-05,-0.0001,0.00022999999999999998,-0.00036,-0.00016,0.0,2e-05,4
16114,16868,2e-05,-2e-05,-0.0001,0.00022999999999999998,-0.00036,-0.00016,0.0,2e-05,4
16115,16869,2e-05,-2e-05,-0.0001,0.00022999999999999998,-0.00036,-0.00016,0.0,2e-05,4
16116,16870,2e-05,-2e-05,-0.0001,0.00022999999999999998,-0.00036,-0.00016,0.0,2e-05,4
16117,16871,2e-05,-2e-05,-0.0001,0.00022999999999999998,-0.00036,-0.00016,0.0,2e-05,4
16118,16872,2e-05,-2e-05,-0.0001,0.00022999999999999998,-0.00036,-0.00016,0.0,2e-05,4
16119,16873,2e-05,-2e-05,-0.0001,0.00022999999999999998,-0.00036,-0.00016,0.0,2e-05,4
16120,16874,2e-05,-2e-05,-0.0001,0.00022999999999999998,-0.00036,-0.00016,0.0,2e-05,4
16121,16875,2e-05,-2e-05,-0.0001,0.00022999999999999998,-0.00036,-0.00016,0.0,2e-05,4
16122,16876,-1e-05,2e-05,7e-05,-0.00016999999999999999,-0.00062,-0.00011,-1e-05,-2.9999999999999997e-05,4
16123,16877,-2.9999999999999997e-05,-2.9999999999999997e-05,-0.00011999999999999999,0.00056,0.00037999999999999997,5.9999999999999995e-05,-4e-05,-4e-05,4
16124,16878,0.0,-1e-05,0.0,-0.00022999999999999998,-0.00011,0.0001,5.9999999999999995e-05,2e-05,4
16125,16879,0.0,-1e-05,0.0,-0.00022999999999999998,-0.00011,0.0001,5.9999999999999995e-05,2e-05,4
16126,16880,0.0,-1e-05,0.0,-0.00022999999999999998,-0.00011,0.0001,5.9999999999999995e-05,2e-05,4
16127,16881,0.0,-1e-05,0.0,-0.00022999999999999998,-0.00011,0.0001,5.9999999999999995e-05,2e-05,4
16128,16882,0.0,-1e-05,0.0,-0.00022999999999999998,-0.00011,0.0001,5.9999999999999995e-05,2e-05,4
16129,16883,0.0,-1e-05,0.0,-0.00022999999999999998,-0.00011,0.0001,5.9999999999999995e-05,2e-05,4
16130,16884,0.0,-1e-05,0.0,-0.00022999999999999998,-0.00011,0.0001,5.9999999999999995e-05,2e-05,4
16131,16885,0.0,-1e-05,0.0,-0.00022999999999999998,-0.00011,0.0001,5.9999999999999995e-05,2e-05,4
16132,16886,0.0,-1e-05,0.0,-0.00022999999999999998,-0.00011,0.0001,5.9999999999999995e-05,2e-05,4
16133,16888,0.0,-1e-05,0.0,-0.00022999999999999998,-0.00011,0.0001,5.9999999999999995e-05,2e-05,4
16134,16889,0.0,-1e-05,0.0,-0.00022999999999999998,-0.00011,0.0001,5.9999999999999995e-05,2e-05,4
16135,16890,0.0,-1e-05,0.0,-0.00022999999999999998,-0.00011,0.0001,5.9999999999999995e-05,2e-05,4
16136,16891,0.0,-1e-05,0.0,-0.00022999999999999998,-0.00011,0.0001,5.9999999999999995e-05,2e-05,4
16137,16892,0.0,-1e-05,0.0,-0.00022999999999999998,-0.00011,0.0001,5.9999999999999995e-05,2e-05,4
16138,16893,0.0,-1e-05,0.0,-0.00022999999999999998,-0.00011,0.0001,5.9999999999999995e-05,2e-05,4
16139,16894,0.0,-1e-05,0.0,-0.00022999999999999998,-0.00011,0.0001,5.9999999999999995e-05,2e-05,4
16140,16895,0.0,-1e-05,0.0,-0.00022999999999999998,-0.00011,0.0001,5.9999999999999995e-05,2e-05,4
16141,16896,0.0,-1e-05,0.0,-0.00022999999999999998,-0.00011,0.0001,5.9999999999999995e-05,2e-05,4
16142,16897,0.0,-1e-05,0.0,-0.00022999999999999998,-0.00011,0.0001,5.9999999999999995e-05,2e-05,4
16143,16898,0.0,-1e-05,0.0,-0.00022999999999999998,-0.00011,0.0001,5.9999999999999995e-05,2e-05,4
16144,16899,-2e-05,-5e-05,-5.9999999999999995e-05,-0.00037999999999999997,-0.00023999999999999998,2e-05,-2e-05,-2e-05,4
16145,16900,-2e-05,-5e-05,-5.9999999999999995e-05,-0.00037999999999999997,-0.00023999999999999998,2e-05,-2e-05,-2e-05,4
16146,16901,-2e-05,-2e-05,-2e-05,5e-05,0.0005,-0.00016,-2e-05,-5.9999999999999995e-05,4
16147,16902,-2e-05,-2e-05,-2e-05,5e-05,0.0005,-0.00016,-2e-05,-5.9999999999999995e-05,4
16148,16903,-2e-05,-2e-05,-2e-05,5e-05,0.0005,-0.00016,-2e-05,-5.9999999999999995e-05,4
16149,16904,-2e-05,-2e-05,-2e-05,5e-05,0.0005,-0.00016,-2e-05,-5.9999999999999995e-05,4
16150,16905,-2e-05,-2e-05,-2e-05,5e-05,0.0005,-0.00016,-2e-05,-5.9999999999999995e-05,4
16151,16906,-2e-05,-2e-05,-2e-05,5e-05,0.0005,-0.00016,-2e-05,-5.9999999999999995e-05,4
16152,16907,-2e-05,-2e-05,-2e-05,5e-05,0.0005,-0.00016,-2e-05,-5.9999999999999995e-05,4
16153,16908,-2e-05,-2e-05,-2e-05,5e-05,0.0005,-0.00016,-2e-05,-5.9999999999999995e-05,4
16154,16909,-2e-05,-2e-05,-2e-05,5e-05,0.0005,-0.00016,-2e-05,-5.9999999999999995e-05,4
16155,16910,-2e-05,-2e-05,-2e-05,5e-05,0.0005,-0.00016,-2e-05,-5.9999999999999995e-05,4
16156,16911,-2e-05,-2e-05,-2e-05,5e-05,0.0005,-0.00016,-2e-05,-5.9999999999999995e-05,4
16157,16912,-2e-05,-2e-05,-2e-05,5e-05,0.0005,-0.00016,-2e-05,-5.9999999999999995e-05,4
16158,16913,-2e-05,-2e-05,-2e-05,5e-05,0.0005,-0.00016,-2e-05,-5.9999999999999995e-05,4
16159,16914,-2e-05,-2e-05,-2e-05,5e-05,0.0005,-0.00016,-2e-05,-5.9999999999999995e-05,4
16160,16915,-2e-05,-2e-05,-2e-05,5e-05,0.0005,-0.00016,-2e-05,-5.9999999999999995e-05,4
16161,16916,-2e-05,-2e-05,-2e-05,5e-05,0.0005,-0.00016,-2e-05,-5.9999999999999995e-05,4
16162,16917,-2e-05,-2e-05,-2e-05,5e-05,0.0005,-0.00016,-2e-05,-5.9999999999999995e-05,4
16163,16918,-2e-05,-2e-05,-2e-05,5e-05,0.0005,-0.00016,-2e-05,-5.9999999999999995e-05,4
16164,16919,-2e-05,-2e-05,-2e-05,5e-05,0.0005,-0.00016,-2e-05,-5.9999999999999995e-05,4
16165,16920,-2e-05,-2e-05,-2e-05,5e-05,0.0005,-0.00016,-2e-05,-5.9999999999999995e-05,4
16166,16921,-4e-05,-1e-05,5e-05,-0.00015,-0.00072,-4e-05,-5.9999999999999995e-05,1e-05,4
16167,16922,-4e-05,-1e-05,5e-05,-0.00015,-0.00072,-4e-05,-5.9999999999999995e-05,1e-05,4
16168,16923,5.9999999999999995e-05,5e-05,0.0001,0.00031,-0.00016999999999999999,0.00023999999999999998,7e-05,1e-05,4
16169,16924,5.9999999999999995e-05,5e-05,0.0001,0.00031,-0.00016999999999999999,0.00023999999999999998,7e-05,1e-05,4
16170,16925,5.9999999999999995e-05,5e-05,0.0001,0.00031,-0.00016999999999999999,0.00023999999999999998,7e-05,1e-05,4
16171,16926,5.9999999999999995e-05,5e-05,0.0001,0.00031,-0.00016999999999999999,0.00023999999999999998,7e-05,1e-05,4
16172,16927,5.9999999999999995e-05,5e-05,0.0001,0.00031,-0.00016999999999999999,0.00023999999999999998,7e-05,1e-05,4
16173,16928,5.9999999999999995e-05,5e-05,0.0001,0.00031,-0.00016999999999999999,0.00023999999999999998,7e-05,1e-05,4
16174,16929,5.9999999999999995e-05,5e-05,0.0001,0.00031,-0.00016999999999999999,0.00023999999999999998,7e-05,1e-05,4
16175,16930,5.9999999999999995e-05,5e-05,0.0001,0.00031,-0.00016999999999999999,0.00023999999999999998,7e-05,1e-05,4
16176,16931,5.9999999999999995e-05,5e-05,0.0001,0.00031,-0.00016999999999999999,0.00023999999999999998,7e-05,1e-05,4
16177,16932,5.9999999999999995e-05,5e-05,0.0001,0.00031,-0.00016999999999999999,0.00023999999999999998,7e-05,1e-05,4
16178,16933,5.9999999999999995e-05,5e-05,0.0001,0.00031,-0.00016999999999999999,0.00023999999999999998,7e-05,1e-05,4
16179,16934,5.9999999999999995e-05,5e-05,0.0001,0.00031,-0.00016999999999999999,0.00023999999999999998,7e-05,1e-05,4
16180,16935,5.9999999999999995e-05,5e-05,0.0001,0.00031,-0.00016999999999999999,0.00023999999999999998,7e-05,1e-05,4
16181,16936,-2.9999999999999997e-05,-5.9999999999999995e-05,-2.9999999999999997e-05,5.9999999999999995e-05,-8e-05,-5.9999999999999995e-05,-5e-05,4e-05,4
16182,16938,5e-05,5e-05,-9e-05,8e-05,-0.00067,2.9999999999999997e-05,5.9999999999999995e-05,1e-05,4
16183,16939,-0.00014,-0.00015,-0.00028,-0.00016999999999999999,-0.00018999999999999998,-0.00037999999999999997,-0.00022999999999999998,-0.00014,4
16184,16940,-0.00014,-0.00015,-0.00028,-0.00016999999999999999,-0.00018999999999999998,-0.00037999999999999997,-0.00022999999999999998,-0.00014,4
16185,16941,-0.00014,-0.00015,-0.00028,-0.00016999999999999999,-0.00018999999999999998,-0.00037999999999999997,-0.00022999999999999998,-0.00014,4
16186,16942,-0.00014,-0.00015,-0.00028,-0.00016999999999999999,-0.00018999999999999998,-0.00037999999999999997,-0.00022999999999999998,-0.00014,4
16187,16943,-0.00014,-0.00015,-0.00028,-0.00016999999999999999,-0.00018999999999999998,-0.00037999999999999997,-0.00022999999999999998,-0.00014,4
16188,16944,-0.00014,-0.00015,-0.00028,-0.00016999999999999999,-0.00018999999999999998,-0.00037999999999999997,-0.00022999999999999998,-0.00014,4
16189,16945,-0.00014,-0.00015,-0.00028,-0.00016999999999999999,-0.00018999999999999998,-0.00037999999999999997,-0.00022999999999999998,-0.00014,4
16190,16946,-0.00014,-0.00015,-0.00028,-0.00016999999999999999,-0.00018999999999999998,-0.00037999999999999997,-0.00022999999999999998,-0.00014,4
16191,16947,-0.00014,-0.00015,-0.00028,-0.00016999999999999999,-0.00018999999999999998,-0.00037999999999999997,-0.00022999999999999998,-0.00014,4
16192,16948,-0.00014,-0.00015,-0.00028,-0.00016999999999999999,-0.00018999999999999998,-0.00037999999999999997,-0.00022999999999999998,-0.00014,4
16193,16949,-0.00014,-0.00015,-0.00028,-0.00016999999999999999,-0.00018999999999999998,-0.00037999999999999997,-0.00022999999999999998,-0.00014,4
16194,16950,-0.00014,-0.00015,-0.00028,-0.00016999999999999999,-0.00018999999999999998,-0.00037999999999999997,-0.00022999999999999998,-0.00014,4
16195,16951,-0.00014,-0.00015,-0.00028,-0.00016999999999999999,-0.00018999999999999998,-0.00037999999999999997,-0.00022999999999999998,-0.00014,4
16196,16952,-0.00014,-0.00015,-0.00028,-0.00016999999999999999,-0.00018999999999999998,-0.00037999999999999997,-0.00022999999999999998,-0.00014,4
16197,16953,-0.00014,-0.00015,-0.00028,-0.00016999999999999999,-0.00018999999999999998,-0.00037999999999999997,-0.00022999999999999998,-0.00014,4
16198,16954,-0.00014,-0.00015,-0.00028,-0.00016999999999999999,-0.00018999999999999998,-0.00037999999999999997,-0.00022999999999999998,-0.00014,4
16199,16955,-0.00014,-0.00015,-0.00028,-0.00016999999999999999,-0.00018999999999999998,-0.00037999999999999997,-0.00022999999999999998,-0.00014,4
16200,16956,-0.00014,-0.00015,-0.00028,-0.00016999999999999999,-0.00018999999999999998,-0.00037999999999999997,-0.00022999999999999998,-0.00014,4
16201,16957,-0.00014,-0.00015,-0.00028,-0.00016999999999999999,-0.00018999999999999998,-0.00037999999999999997,-0.00022999999999999998,-0.00014,4
16202,16958,-0.00014,-0.00015,-0.00028,-0.00016999999999999999,-0.00018999999999999998,-0.00037999999999999997,-0.00022999999999999998,-0.00014,4
16203,16959,2e-05,7e-05,7e-05,-0.00027,0.00023999999999999998,0.00014,4e-05,1e-05,4
16204,16960,-5e-05,-5e-05,-0.0001,-0.00037,0.00011,-0.00013000000000000002,-4e-05,-1e-05,4
16205,16961,-2e-05,2e-05,0.00013000000000000002,0.00075,-0.00026000000000000003,9e-05,4e-05,-2.9999999999999997e-05,4
16206,16962,-2e-05,2e-05,0.00013000000000000002,0.00075,-0.00026000000000000003,9e-05,4e-05,-2.9999999999999997e-05,4
16207,16963,-2e-05,2e-05,0.00013000000000000002,0.00075,-0.00026000000000000003,9e-05,4e-05,-2.9999999999999997e-05,4
16208,16964,-2e-05,2e-05,0.00013000000000000002,0.00075,-0.00026000000000000003,9e-05,4e-05,-2.9999999999999997e-05,4
16209,16965,-2e-05,2e-05,0.00013000000000000002,0.00075,-0.00026000000000000003,9e-05,4e-05,-2.9999999999999997e-05,4
16210,16966,-2e-05,2e-05,0.00013000000000000002,0.00075,-0.00026000000000000003,9e-05,4e-05,-2.9999999999999997e-05,4
16211,16967,-2e-05,2e-05,0.00013000000000000002,0.00075,-0.00026000000000000003,9e-05,4e-05,-2.9999999999999997e-05,4
16212,16968,-2e-05,2e-05,0.00013000000000000002,0.00075,-0.00026000000000000003,9e-05,4e-05,-2.9999999999999997e-05,4
16213,16969,-2e-05,2e-05,0.00013000000000000002,0.00075,-0.00026000000000000003,9e-05,4e-05,-2.9999999999999997e-05,4
16214,16970,-2e-05,2e-05,0.00013000000000000002,0.00075,-0.00026000000000000003,9e-05,4e-05,-2.9999999999999997e-05,4
16215,16971,-2e-05,2e-05,0.00013000000000000002,0.00075,-0.00026000000000000003,9e-05,4e-05,-2.9999999999999997e-05,4
16216,16972,-2e-05,2e-05,0.00013000000000000002,0.00075,-0.00026000000000000003,9e-05,4e-05,-2.9999999999999997e-05,4
16217,16973,-2e-05,2e-05,0.00013000000000000002,0.00075,-0.00026000000000000003,9e-05,4e-05,-2.9999999999999997e-05,4
16218,16974,-2e-05,2e-05,0.00013000000000000002,0.00075,-0.00026000000000000003,9e-05,4e-05,-2.9999999999999997e-05,4
16219,16975,-2e-05,2e-05,0.00013000000000000002,0.00075,-0.00026000000000000003,9e-05,4e-05,-2.9999999999999997e-05,4
16220,16976,-2e-05,2e-05,0.00013000000000000002,0.00075,-0.00026000000000000003,9e-05,4e-05,-2.9999999999999997e-05,4
16221,16977,-2e-05,2e-05,0.00013000000000000002,0.00075,-0.00026000000000000003,9e-05,4e-05,-2.9999999999999997e-05,4
16222,16978,-2e-05,2e-05,0.00013000000000000002,0.00075,-0.00026000000000000003,9e-05,4e-05,-2.9999999999999997e-05,4
16223,16979,-2e-05,2e-05,0.00013000000000000002,0.00075,-0.00026000000000000003,9e-05,4e-05,-2.9999999999999997e-05,4
16224,16980,-2e-05,2e-05,0.00013000000000000002,0.00075,-0.00026000000000000003,9e-05,4e-05,-2.9999999999999997e-05,4
16225,16981,-8e-05,-0.00015,-0.00037,-0.00035,0.00054,8e-05,-2.9999999999999997e-05,-5.9999999999999995e-05,4
16226,16982,2e-05,-2.9999999999999997e-05,7e-05,-0.00011,-0.0005099999999999999,-0.0002,-2e-05,4e-05,4
16227,16983,4e-05,5e-05,2e-05,-0.0004,-0.00047999999999999996,4e-05,1e-05,8e-05,4
16228,16984,4e-05,5e-05,2e-05,-0.0004,-0.00047999999999999996,4e-05,1e-05,8e-05,4
16229,16985,4e-05,5e-05,2e-05,-0.0004,-0.00047999999999999996,4e-05,1e-05,8e-05,4
16230,16986,4e-05,5e-05,2e-05,-0.0004,-0.00047999999999999996,4e-05,1e-05,8e-05,4
16231,16988,4e-05,5e-05,2e-05,-0.0004,-0.00047999999999999996,4e-05,1e-05,8e-05,4
16232,16989,4e-05,5e-05,2e-05,-0.0004,-0.00047999999999999996,4e-05,1e-05,8e-05,4
16233,16990,4e-05,5e-05,2e-05,-0.0004,-0.00047999999999999996,4e-05,1e-05,8e-05,4
16234,16991,4e-05,5e-05,2e-05,-0.0004,-0.00047999999999999996,4e-05,1e-05,8e-05,4
16235,16992,4e-05,5e-05,2e-05,-0.0004,-0.00047999999999999996,4e-05,1e-05,8e-05,4
16236,16993,4e-05,5e-05,2e-05,-0.0004,-0.00047999999999999996,4e-05,1e-05,8e-05,4
16237,16994,4e-05,5e-05,2e-05,-0.0004,-0.00047999999999999996,4e-05,1e-05,8e-05,4
16238,16995,4e-05,5e-05,2e-05,-0.0004,-0.00047999999999999996,4e-05,1e-05,8e-05,4
16239,16996,4e-05,5e-05,2e-05,-0.0004,-0.00047999999999999996,4e-05,1e-05,8e-05,4
16240,16997,4e-05,-2e-05,-8e-05,-0.00013000000000000002,-0.00027,-5.9999999999999995e-05,-2.9999999999999997e-05,-2e-05,4
16241,16998,1e-05,4e-05,4e-05,0.0003,1e-05,-0.00026000000000000003,-2.9999999999999997e-05,2e-05,4
16242,16999,1e-05,4e-05,4e-05,0.0003,1e-05,-0.00026000000000000003,-2.9999999999999997e-05,2e-05,4
16243,17000,1e-05,4e-05,4e-05,0.0003,1e-05,-0.00026000000000000003,-2.9999999999999997e-05,2e-05,4
16244,17001,1e-05,4e-05,4e-05,0.0003,1e-05,-0.00026000000000000003,-2.9999999999999997e-05,2e-05,4
16245,17002,1e-05,4e-05,4e-05,0.0003,1e-05,-0.00026000000000000003,-2.9999999999999997e-05,2e-05,4
16246,17003,1e-05,4e-05,4e-05,0.0003,1e-05,-0.00026000000000000003,-2.9999999999999997e-05,2e-05,4
16247,17004,1e-05,4e-05,4e-05,0.0003,1e-05,-0.00026000000000000003,-2.9999999999999997e-05,2e-05,4
16248,17005,1e-05,4e-05,4e-05,0.0003,1e-05,-0.00026000000000000003,-2.9999999999999997e-05,2e-05,4
16249,17006,1e-05,4e-05,4e-05,0.0003,1e-05,-0.00026000000000000003,-2.9999999999999997e-05,2e-05,4
16250,17007,1e-05,4e-05,4e-05,0.0003,1e-05,-0.00026000000000000003,-2.9999999999999997e-05,2e-05,4
16251,17008,1e-05,4e-05,4e-05,0.0003,1e-05,-0.00026000000000000003,-2.9999999999999997e-05,2e-05,4
16252,17009,1e-05,4e-05,4e-05,0.0003,1e-05,-0.00026000000000000003,-2.9999999999999997e-05,2e-05,4
16253,17010,1e-05,4e-05,4e-05,0.0003,1e-05,-0.00026000000000000003,-2.9999999999999997e-05,2e-05,4
16254,17011,1e-05,4e-05,4e-05,0.0003,1e-05,-0.00026000000000000003,-2.9999999999999997e-05,2e-05,4
16255,17012,1e-05,4e-05,4e-05,0.0003,1e-05,-0.00026000000000000003,-2.9999999999999997e-05,2e-05,4
16256,17013,1e-05,4e-05,4e-05,0.0003,1e-05,-0.00026000000000000003,-2.9999999999999997e-05,2e-05,4
16257,17014,1e-05,4e-05,4e-05,0.0003,1e-05,-0.00026000000000000003,-2.9999999999999997e-05,2e-05,4
16258,17015,1e-05,4e-05,4e-05,0.0003,1e-05,-0.00026000000000000003,-2.9999999999999997e-05,2e-05,4
16259,17016,1e-05,4e-05,4e-05,0.0003,1e-05,-0.00026000000000000003,-2.9999999999999997e-05,2e-05,4
16260,17017,1e-05,4e-05,4e-05,0.0003,1e-05,-0.00026000000000000003,-2.9999999999999997e-05,2e-05,4
16261,17018,1e-05,4e-05,4e-05,0.0003,1e-05,-0.00026000000000000003,-2.9999999999999997e-05,2e-05,4
16262,17019,8e-05,9e-05,0.00021,0.00045,0.00075,0.00029,8e-05,7e-05,4
16263,17020,0.0,-2e-05,-0.00025,-0.00086,-0.00056,-0.00013000000000000002,-1e-05,0.0,4
16264,17021,0.0,-2e-05,-0.00025,-0.00086,-0.00056,-0.00013000000000000002,-1e-05,0.0,4
16265,17022,0.0,-2e-05,-0.00025,-0.00086,-0.00056,-0.00013000000000000002,-1e-05,0.0,4
16266,17023,0.0,-2e-05,-0.00025,-0.00086,-0.00056,-0.00013000000000000002,-1e-05,0.0,4
16267,17024,0.0,-2e-05,-0.00025,-0.00086,-0.00056,-0.00013000000000000002,-1e-05,0.0,4
16268,17025,0.0,-2e-05,-0.00025,-0.00086,-0.00056,-0.00013000000000000002,-1e-05,0.0,4
16269,17026,0.0,-2e-05,-0.00025,-0.00086,-0.00056,-0.00013000000000000002,-1e-05,0.0,4
16270,17027,0.0,-2e-05,-0.00025,-0.00086,-0.00056,-0.00013000000000000002,-1e-05,0.0,4
16271,17028,0.0,-2e-05,-0.00025,-0.00086,-0.00056,-0.00013000000000000002,-1e-05,0.0,4
16272,17029,0.0,-2e-05,-0.00025,-0.00086,-0.00056,-0.00013000000000000002,-1e-05,0.0,4
16273,17030,0.0,-2e-05,-0.00025,-0.00086,-0.00056,-0.00013000000000000002,-1e-05,0.0,4
16274,17031,0.0,-2e-05,-0.00025,-0.00086,-0.00056,-0.00013000000000000002,-1e-05,0.0,4
16275,17032,0.0,-2e-05,-0.00025,-0.00086,-0.00056,-0.00013000000000000002,-1e-05,0.0,4
16276,17033,0.0,-2e-05,-0.00025,-0.00086,-0.00056,-0.00013000000000000002,-1e-05,0.0,4
16277,17034,0.0,-2e-05,-0.00025,-0.00086,-0.00056,-0.00013000000000000002,-1e-05,0.0,4
16278,17035,0.0,-2e-05,-0.00025,-0.00086,-0.00056,-0.00013000000000000002,-1e-05,0.0,4
16279,17036,0.0,-2e-05,-0.00025,-0.00086,-0.00056,-0.00013000000000000002,-1e-05,0.0,4
16280,17038,0.0,-2e-05,-0.00025,-0.00086,-0.00056,-0.00013000000000000002,-1e-05,0.0,4
16281,17039,0.0,-2e-05,-0.00025,-0.00086,-0.00056,-0.00013000000000000002,-1e-05,0.0,4
16282,17040,0.0,-2e-05,-0.00025,-0.00086,-0.00056,-0.00013000000000000002,-1e-05,0.0,4
16283,17041,4e-05,5e-05,0.00027,0.0003,0.00018999999999999998,2.9999999999999997e-05,2e-05,1e-05,4
16284,17042,-2e-05,-2e-05,-0.00014,0.00025,9e-05,-0.00016999999999999999,-4e-05,-1e-05,4
16285,17043,2e-05,5e-05,0.00018,0.00045,0.0005,0.00016,5.9999999999999995e-05,5.9999999999999995e-05,4
16286,17044,2e-05,5e-05,0.00018,0.00045,0.0005,0.00016,5.9999999999999995e-05,5.9999999999999995e-05,4
16287,17045,2e-05,5e-05,0.00018,0.00045,0.0005,0.00016,5.9999999999999995e-05,5.9999999999999995e-05,4
16288,17046,2e-05,5e-05,0.00018,0.00045,0.0005,0.00016,5.9999999999999995e-05,5.9999999999999995e-05,4
16289,17047,2e-05,5e-05,0.00018,0.00045,0.0005,0.00016,5.9999999999999995e-05,5.9999999999999995e-05,4
16290,17048,2e-05,5e-05,0.00018,0.00045,0.0005,0.00016,5.9999999999999995e-05,5.9999999999999995e-05,4
16291,17049,2e-05,5e-05,0.00018,0.00045,0.0005,0.00016,5.9999999999999995e-05,5.9999999999999995e-05,4
16292,17050,2e-05,5e-05,0.00018,0.00045,0.0005,0.00016,5.9999999999999995e-05,5.9999999999999995e-05,4
16293,17051,2e-05,5e-05,0.00018,0.00045,0.0005,0.00016,5.9999999999999995e-05,5.9999999999999995e-05,4
16294,17052,2e-05,5e-05,0.00018,0.00045,0.0005,0.00016,5.9999999999999995e-05,5.9999999999999995e-05,4
16295,17053,2e-05,5e-05,0.00018,0.00045,0.0005,0.00016,5.9999999999999995e-05,5.9999999999999995e-05,4
16296,17054,2e-05,5e-05,0.00018,0.00045,0.0005,0.00016,5.9999999999999995e-05,5.9999999999999995e-05,4
16297,17055,2e-05,5e-05,0.00018,0.00045,0.0005,0.00016,5.9999999999999995e-05,5.9999999999999995e-05,4
16298,17056,-2.9999999999999997e-05,-5e-05,-4e-05,-0.00039,-0.00061,-0.00016,-1e-05,-2e-05,4
16299,17057,-2.9999999999999997e-05,-5e-05,-4e-05,-0.00039,-0.00061,-0.00016,-1e-05,-2e-05,4
16300,17058,-2.9999999999999997e-05,-5e-05,-4e-05,-0.00039,-0.00061,-0.00016,-1e-05,-2e-05,4
16301,17059,-2.9999999999999997e-05,-5e-05,-4e-05,-0.00039,-0.00061,-0.00016,-1e-05,-2e-05,4
16302,17060,-2.9999999999999997e-05,-5e-05,-4e-05,-0.00039,-0.00061,-0.00016,-1e-05,-2e-05,4
16303,17061,-2.9999999999999997e-05,-5e-05,-4e-05,-0.00039,-0.00061,-0.00016,-1e-05,-2e-05,4
16304,17062,-2.9999999999999997e-05,-5e-05,-4e-05,-0.00039,-0.00061,-0.00016,-1e-05,-2e-05,4
16305,17063,-5e-05,-7e-05,-9e-05,-0.0007,-0.00075,0.00016999999999999999,4e-05,-8e-05,4
16306,17064,-5e-05,-7e-05,-9e-05,-0.0007,-0.00075,0.00016999999999999999,4e-05,-8e-05,4
16307,17065,-5e-05,-7e-05,-9e-05,-0.0007,-0.00075,0.00016999999999999999,4e-05,-8e-05,4
16308,17066,-5e-05,-7e-05,-9e-05,-0.0007,-0.00075,0.00016999999999999999,4e-05,-8e-05,4
16309,17067,-5e-05,-7e-05,-9e-05,-0.0007,-0.00075,0.00016999999999999999,4e-05,-8e-05,4
16310,17068,-5e-05,-7e-05,-9e-05,-0.0007,-0.00075,0.00016999999999999999,4e-05,-8e-05,4
16311,17069,-5e-05,-7e-05,-9e-05,-0.0007,-0.00075,0.00016999999999999999,4e-05,-8e-05,4
16312,17070,-5e-05,-7e-05,-9e-05,-0.0007,-0.00075,0.00016999999999999999,4e-05,-8e-05,4
16313,17071,-5e-05,-7e-05,-9e-05,-0.0007,-0.00075,0.00016999999999999999,4e-05,-8e-05,4
16314,17072,-5e-05,-7e-05,-9e-05,-0.0007,-0.00075,0.00016999999999999999,4e-05,-8e-05,4
16315,17073,-5e-05,-7e-05,-9e-05,-0.0007,-0.00075,0.00016999999999999999,4e-05,-8e-05,4
16316,17074,-5e-05,-7e-05,-9e-05,-0.0007,-0.00075,0.00016999999999999999,4e-05,-8e-05,4
16317,17075,-5e-05,-7e-05,-9e-05,-0.0007,-0.00075,0.00016999999999999999,4e-05,-8e-05,4
16318,17076,-5e-05,-7e-05,-9e-05,-0.0007,-0.00075,0.00016999999999999999,4e-05,-8e-05,4
16319,17077,-5e-05,-7e-05,-9e-05,-0.0007,-0.00075,0.00016999999999999999,4e-05,-8e-05,4
16320,17078,-5e-05,-7e-05,-9e-05,-0.0007,-0.00075,0.00016999999999999999,4e-05,-8e-05,4
16321,17079,-2.9999999999999997e-05,2e-05,2e-05,0.0006,-0.00025,-8e-05,-2.9999999999999997e-05,-1e-05,4
16322,17080,-2.9999999999999997e-05,-2e-05,-2e-05,-0.00044,-0.0005200000000000001,0.00011,-2.9999999999999997e-05,-5e-05,4
16323,17081,5e-05,9e-05,0.0002,-0.00028,0.0004,0.0004,0.00011999999999999999,0.00011,4
16324,17082,5e-05,9e-05,0.0002,-0.00028,0.0004,0.0004,0.00011999999999999999,0.00011,4
16325,17083,5e-05,9e-05,0.0002,-0.00028,0.0004,0.0004,0.00011999999999999999,0.00011,4
16326,17084,5e-05,9e-05,0.0002,-0.00028,0.0004,0.0004,0.00011999999999999999,0.00011,4
16327,17085,5e-05,9e-05,0.0002,-0.00028,0.0004,0.0004,0.00011999999999999999,0.00011,4
16328,17086,5e-05,9e-05,0.0002,-0.00028,0.0004,0.0004,0.00011999999999999999,0.00011,4
16329,17088,5e-05,9e-05,0.0002,-0.00028,0.0004,0.0004,0.00011999999999999999,0.00011,4
16330,17089,5e-05,9e-05,0.0002,-0.00028,0.0004,0.0004,0.00011999999999999999,0.00011,4
16331,17090,5e-05,9e-05,0.0002,-0.00028,0.0004,0.0004,0.00011999999999999999,0.00011,4
16332,17091,5e-05,9e-05,0.0002,-0.00028,0.0004,0.0004,0.00011999999999999999,0.00011,4
16333,17092,5e-05,9e-05,0.0002,-0.00028,0.0004,0.0004,0.00011999999999999999,0.00011,4
16334,17093,5e-05,9e-05,0.0002,-0.00028,0.0004,0.0004,0.00011999999999999999,0.00011,4
16335,17094,5e-05,9e-05,0.0002,-0.00028,0.0004,0.0004,0.00011999999999999999,0.00011,4
16336,17095,5e-05,9e-05,0.0002,-0.00028,0.0004,0.0004,0.00011999999999999999,0.00011,4
16337,17096,5e-05,9e-05,0.0002,-0.00028,0.0004,0.0004,0.00011999999999999999,0.00011,4
16338,17097,5e-05,9e-05,0.0002,-0.00028,0.0004,0.0004,0.00011999999999999999,0.00011,4
16339,17098,5e-05,9e-05,0.0002,-0.00028,0.0004,0.0004,0.00011999999999999999,0.00011,4
16340,17099,5e-05,9e-05,0.0002,-0.00028,0.0004,0.0004,0.00011999999999999999,0.00011,4
16341,17100,5e-05,9e-05,0.0002,-0.00028,0.0004,0.0004,0.00011999999999999999,0.00011,4
16342,17101,-8e-05,-0.00011,-0.00016999999999999999,-0.0006900000000000001,-0.00065,-0.00013000000000000002,-5e-05,-7e-05,4
16343,17103,-2e-05,-5e-05,-5.9999999999999995e-05,-0.00022,-0.00027,-0.00021,-7e-05,-7e-05,4
16344,17104,-2e-05,-5e-05,-5.9999999999999995e-05,-0.00022,-0.00027,-0.00021,-7e-05,-7e-05,4
16345,17105,-2e-05,-5e-05,-5.9999999999999995e-05,-0.00022,-0.00027,-0.00021,-7e-05,-7e-05,4
16346,17106,-2e-05,-5e-05,-5.9999999999999995e-05,-0.00022,-0.00027,-0.00021,-7e-05,-7e-05,4
16347,17107,-2e-05,-5e-05,-5.9999999999999995e-05,-0.00022,-0.00027,-0.00021,-7e-05,-7e-05,4
16348,17108,-2e-05,-5e-05,-5.9999999999999995e-05,-0.00022,-0.00027,-0.00021,-7e-05,-7e-05,4
16349,17109,-2e-05,-5e-05,-5.9999999999999995e-05,-0.00022,-0.00027,-0.00021,-7e-05,-7e-05,4
16350,17110,-2e-05,-5e-05,-5.9999999999999995e-05,-0.00022,-0.00027,-0.00021,-7e-05,-7e-05,4
16351,17111,-2e-05,-5e-05,-5.9999999999999995e-05,-0.00022,-0.00027,-0.00021,-7e-05,-7e-05,4
16352,17112,-2e-05,-5e-05,-5.9999999999999995e-05,-0.00022,-0.00027,-0.00021,-7e-05,-7e-05,4
16353,17113,-2e-05,-5e-05,-5.9999999999999995e-05,-0.00022,-0.00027,-0.00021,-7e-05,-7e-05,4
16354,17114,-2e-05,-5e-05,-5.9999999999999995e-05,-0.00022,-0.00027,-0.00021,-7e-05,-7e-05,4
16355,17115,-2e-05,-5e-05,-5.9999999999999995e-05,-0.00022,-0.00027,-0.00021,-7e-05,-7e-05,4
16356,17116,2.9999999999999997e-05,2.9999999999999997e-05,2e-05,-5e-05,0.0,-5.9999999999999995e-05,-2e-05,2.9999999999999997e-05,4
16357,17117,2.9999999999999997e-05,2.9999999999999997e-05,2e-05,-5e-05,0.0,-5.9999999999999995e-05,-2e-05,2.9999999999999997e-05,4
16358,17118,2.9999999999999997e-05,2.9999999999999997e-05,2e-05,-5e-05,0.0,-5.9999999999999995e-05,-2e-05,2.9999999999999997e-05,4
16359,17119,2.9999999999999997e-05,2.9999999999999997e-05,2e-05,-5e-05,0.0,-5.9999999999999995e-05,-2e-05,2.9999999999999997e-05,4
16360,17120,2.9999999999999997e-05,2.9999999999999997e-05,2e-05,-5e-05,0.0,-5.9999999999999995e-05,-2e-05,2.9999999999999997e-05,4
16361,17121,2.9999999999999997e-05,2.9999999999999997e-05,2e-05,-5e-05,0.0,-5.9999999999999995e-05,-2e-05,2.9999999999999997e-05,4
16362,17122,2e-05,8e-05,0.0001,0.00021,0.00018999999999999998,4e-05,2.9999999999999997e-05,5e-05,4
16363,17123,-9e-05,-0.00011,-0.00018,-0.00067,0.00037999999999999997,0.00011,-0.00011,-0.00011,4
16364,17124,-9e-05,-0.00011,-0.00018,-0.00067,0.00037999999999999997,0.00011,-0.00011,-0.00011,4
16365,17125,-9e-05,-0.00011,-0.00018,-0.00067,0.00037999999999999997,0.00011,-0.00011,-0.00011,4
16366,17126,-9e-05,-0.00011,-0.00018,-0.00067,0.00037999999999999997,0.00011,-0.00011,-0.00011,4
16367,17127,-9e-05,-0.00011,-0.00018,-0.00067,0.00037999999999999997,0.00011,-0.00011,-0.00011,4
16368,17128,-9e-05,-0.00011,-0.00018,-0.00067,0.00037999999999999997,0.00011,-0.00011,-0.00011,4
16369,17129,-9e-05,-0.00011,-0.00018,-0.00067,0.00037999999999999997,0.00011,-0.00011,-0.00011,4
16370,17130,-9e-05,-0.00011,-0.00018,-0.00067,0.00037999999999999997,0.00011,-0.00011,-0.00011,4
16371,17131,-9e-05,-0.00011,-0.00018,-0.00067,0.00037999999999999997,0.00011,-0.00011,-0.00011,4
16372,17132,-9e-05,-0.00011,-0.00018,-0.00067,0.00037999999999999997,0.00011,-0.00011,-0.00011,4
16373,17133,-9e-05,-0.00011,-0.00018,-0.00067,0.00037999999999999997,0.00011,-0.00011,-0.00011,4
16374,17134,-9e-05,-0.00011,-0.00018,-0.00067,0.00037999999999999997,0.00011,-0.00011,-0.00011,4
16375,17135,-9e-05,-0.00011,-0.00018,-0.00067,0.00037999999999999997,0.00011,-0.00011,-0.00011,4
16376,17136,-9e-05,-0.00011,-0.00018,-0.00067,0.00037999999999999997,0.00011,-0.00011,-0.00011,4
16377,17138,-9e-05,-0.00011,-0.00018,-0.00067,0.00037999999999999997,0.00011,-0.00011,-0.00011,4
16378,17139,-7e-05,-0.00011,-0.00016,0.00025,0.00032,0.00013000000000000002,-2e-05,-4e-05,4
16379,17140,-7e-05,-0.00011,-0.00016,0.00025,0.00032,0.00013000000000000002,-2e-05,-4e-05,4
16380,17141,0.0,5e-05,4e-05,1e-05,0.00042,-4e-05,-1e-05,-1e-05,4
16381,17142,0.0,5e-05,4e-05,1e-05,0.00042,-4e-05,-1e-05,-1e-05,4
16382,17143,0.0,5e-05,4e-05,1e-05,0.00042,-4e-05,-1e-05,-1e-05,4
16383,17144,0.0,5e-05,4e-05,1e-05,0.00042,-4e-05,-1e-05,-1e-05,4
16384,17145,0.0,5e-05,4e-05,1e-05,0.00042,-4e-05,-1e-05,-1e-05,4
16385,17146,0.0,5e-05,4e-05,1e-05,0.00042,-4e-05,-1e-05,-1e-05,4
16386,17147,0.0,5e-05,4e-05,1e-05,0.00042,-4e-05,-1e-05,-1e-05,4
16387,17148,0.0,5e-05,4e-05,1e-05,0.00042,-4e-05,-1e-05,-1e-05,4
16388,17149,0.0,5e-05,4e-05,1e-05,0.00042,-4e-05,-1e-05,-1e-05,4
16389,17150,0.0,5e-05,4e-05,1e-05,0.00042,-4e-05,-1e-05,-1e-05,4
16390,17151,0.0,5e-05,4e-05,1e-05,0.00042,-4e-05,-1e-05,-1e-05,4
16391,17152,0.0,5e-05,4e-05,1e-05,0.00042,-4e-05,-1e-05,-1e-05,4
16392,17153,0.0,5e-05,4e-05,1e-05,0.00042,-4e-05,-1e-05,-1e-05,4
16393,17154,0.0,5e-05,4e-05,1e-05,0.00042,-4e-05,-1e-05,-1e-05,4
16394,17155,0.0,5e-05,4e-05,1e-05,0.00042,-4e-05,-1e-05,-1e-05,4
16395,17156,0.0,5e-05,4e-05,1e-05,0.00042,-4e-05,-1e-05,-1e-05,4
16396,17157,0.0,5e-05,4e-05,1e-05,0.00042,-4e-05,-1e-05,-1e-05,4
16397,17158,0.0,5e-05,4e-05,1e-05,0.00042,-4e-05,-1e-05,-1e-05,4
16398,17159,0.0,5e-05,4e-05,1e-05,0.00042,-4e-05,-1e-05,-1e-05,4
16399,17160,0.0,5e-05,4e-05,1e-05,0.00042,-4e-05,-1e-05,-1e-05,4
16400,17161,-4e-05,0.0,2.9999999999999997e-05,0.0002,0.00117,0.00037,5.9999999999999995e-05,0.0,4
16401,17162,-4e-05,0.0,2.9999999999999997e-05,0.0002,0.00117,0.00037,5.9999999999999995e-05,0.0,4
16402,17163,-4e-05,-9e-05,-9e-05,0.00023999999999999998,5.9999999999999995e-05,-0.00023999999999999998,-0.0001,-5.9999999999999995e-05,4
16403,17164,-4e-05,-9e-05,-9e-05,0.00023999999999999998,5.9999999999999995e-05,-0.00023999999999999998,-0.0001,-5.9999999999999995e-05,4
16404,17165,-4e-05,-9e-05,-9e-05,0.00023999999999999998,5.9999999999999995e-05,-0.00023999999999999998,-0.0001,-5.9999999999999995e-05,4
16405,17166,-4e-05,-9e-05,-9e-05,0.00023999999999999998,5.9999999999999995e-05,-0.00023999999999999998,-0.0001,-5.9999999999999995e-05,4
16406,17167,-4e-05,-9e-05,-9e-05,0.00023999999999999998,5.9999999999999995e-05,-0.00023999999999999998,-0.0001,-5.9999999999999995e-05,4
16407,17168,-4e-05,-9e-05,-9e-05,0.00023999999999999998,5.9999999999999995e-05,-0.00023999999999999998,-0.0001,-5.9999999999999995e-05,4
16408,17169,-4e-05,-9e-05,-9e-05,0.00023999999999999998,5.9999999999999995e-05,-0.00023999999999999998,-0.0001,-5.9999999999999995e-05,4
16409,17170,-4e-05,-9e-05,-9e-05,0.00023999999999999998,5.9999999999999995e-05,-0.00023999999999999998,-0.0001,-5.9999999999999995e-05,4
16410,17171,-4e-05,-9e-05,-9e-05,0.00023999999999999998,5.9999999999999995e-05,-0.00023999999999999998,-0.0001,-5.9999999999999995e-05,4
16411,17172,-4e-05,-9e-05,-9e-05,0.00023999999999999998,5.9999999999999995e-05,-0.00023999999999999998,-0.0001,-5.9999999999999995e-05,4
16412,17173,-4e-05,-9e-05,-9e-05,0.00023999999999999998,5.9999999999999995e-05,-0.00023999999999999998,-0.0001,-5.9999999999999995e-05,4
16413,17174,-4e-05,-9e-05,-9e-05,0.00023999999999999998,5.9999999999999995e-05,-0.00023999999999999998,-0.0001,-5.9999999999999995e-05,4
16414,17175,-4e-05,-9e-05,-9e-05,0.00023999999999999998,5.9999999999999995e-05,-0.00023999999999999998,-0.0001,-5.9999999999999995e-05,4
16415,17176,2e-05,-1e-05,5.9999999999999995e-05,0.00033,0.0002,-0.00013000000000000002,-5e-05,-2.9999999999999997e-05,4
16416,17177,2e-05,-1e-05,5.9999999999999995e-05,0.00033,0.0002,-0.00013000000000000002,-5e-05,-2.9999999999999997e-05,4
16417,17178,2e-05,-1e-05,5.9999999999999995e-05,0.00033,0.0002,-0.00013000000000000002,-5e-05,-2.9999999999999997e-05,4
16418,17179,2e-05,-1e-05,5.9999999999999995e-05,0.00033,0.0002,-0.00013000000000000002,-5e-05,-2.9999999999999997e-05,4
16419,17180,2e-05,-1e-05,5.9999999999999995e-05,0.00033,0.0002,-0.00013000000000000002,-5e-05,-2.9999999999999997e-05,4
16420,17181,2e-05,-1e-05,5.9999999999999995e-05,0.00033,0.0002,-0.00013000000000000002,-5e-05,-2.9999999999999997e-05,4
16421,17182,2e-05,-1e-05,5.9999999999999995e-05,0.00033,0.0002,-0.00013000000000000002,-5e-05,-2.9999999999999997e-05,4
16422,17183,-1e-05,-5e-05,-0.00011,-5e-05,0.0,-0.00036,-8e-05,0.0,4
16423,17184,-1e-05,-5e-05,-0.00011,-5e-05,0.0,-0.00036,-8e-05,0.0,4
16424,17185,-1e-05,-5e-05,-0.00011,-5e-05,0.0,-0.00036,-8e-05,0.0,4
16425,17186,-1e-05,-5e-05,-0.00011,-5e-05,0.0,-0.00036,-8e-05,0.0,4
16426,17188,-1e-05,-5e-05,-0.00011,-5e-05,0.0,-0.00036,-8e-05,0.0,4
16427,17189,-1e-05,-5e-05,-0.00011,-5e-05,0.0,-0.00036,-8e-05,0.0,4
16428,17190,-1e-05,-5e-05,-0.00011,-5e-05,0.0,-0.00036,-8e-05,0.0,4
16429,17191,-1e-05,-5e-05,-0.00011,-5e-05,0.0,-0.00036,-8e-05,0.0,4
16430,17192,-1e-05,-5e-05,-0.00011,-5e-05,0.0,-0.00036,-8e-05,0.0,4
16431,17193,-1e-05,-5e-05,-0.00011,-5e-05,0.0,-0.00036,-8e-05,0.0,4
16432,17194,-1e-05,-5e-05,-0.00011,-5e-05,0.0,-0.00036,-8e-05,0.0,4
16433,17195,-1e-05,-5e-05,-0.00011,-5e-05,0.0,-0.00036,-8e-05,0.0,4
16434,17196,-1e-05,-5e-05,-0.00011,-5e-05,0.0,-0.00036,-8e-05,0.0,4
16435,17197,-1e-05,-5e-05,-0.00011,-5e-05,0.0,-0.00036,-8e-05,0.0,4
16436,17198,-1e-05,-5e-05,-0.00011,-5e-05,0.0,-0.00036,-8e-05,0.0,4
16437,17199,-1e-05,2e-05,7e-05,0.00023999999999999998,-0.00018999999999999998,-0.00016,-2e-05,-2.9999999999999997e-05,4
16438,17200,-1e-05,2e-05,7e-05,0.00023999999999999998,-0.00018999999999999998,-0.00016,-2e-05,-2.9999999999999997e-05,4
16439,17201,0.00015,0.00028,0.00055,0.001,0.0009,0.00036,0.0002,0.00015,4
16440,17202,0.00015,0.00028,0.00055,0.001,0.0009,0.00036,0.0002,0.00015,4
16441,17203,0.00015,0.00028,0.00055,0.001,0.0009,0.00036,0.0002,0.00015,4
16442,17204,0.00015,0.00028,0.00055,0.001,0.0009,0.00036,0.0002,0.00015,4
16443,17205,0.00015,0.00028,0.00055,0.001,0.0009,0.00036,0.0002,0.00015,4
16444,17206,0.00015,0.00028,0.00055,0.001,0.0009,0.00036,0.0002,0.00015,4
16445,17207,0.00015,0.00028,0.00055,0.001,0.0009,0.00036,0.0002,0.00015,4
16446,17208,0.00015,0.00028,0.00055,0.001,0.0009,0.00036,0.0002,0.00015,4
16447,17209,0.00015,0.00028,0.00055,0.001,0.0009,0.00036,0.0002,0.00015,4
16448,17210,0.00015,0.00028,0.00055,0.001,0.0009,0.00036,0.0002,0.00015,4
16449,17211,0.00015,0.00028,0.00055,0.001,0.0009,0.00036,0.0002,0.00015,4
16450,17212,0.00015,0.00028,0.00055,0.001,0.0009,0.00036,0.0002,0.00015,4
16451,17213,0.00015,0.00028,0.00055,0.001,0.0009,0.00036,0.0002,0.00015,4
16452,17214,0.00015,0.00028,0.00055,0.001,0.0009,0.00036,0.0002,0.00015,4
16453,17215,0.00015,0.00028,0.00055,0.001,0.0009,0.00036,0.0002,0.00015,4
16454,17216,0.00015,0.00028,0.00055,0.001,0.0009,0.00036,0.0002,0.00015,4
16455,17217,0.00015,0.00028,0.00055,0.001,0.0009,0.00036,0.0002,0.00015,4
16456,17218,0.00015,0.00028,0.00055,0.001,0.0009,0.00036,0.0002,0.00015,4
16457,17219,0.00015,0.00028,0.00055,0.001,0.0009,0.00036,0.0002,0.00015,4
16458,17220,0.00015,0.00028,0.00055,0.001,0.0009,0.00036,0.0002,0.00015,4
16459,17221,-1e-05,1e-05,0.00023999999999999998,-0.00054,0.00016,-7e-05,-2e-05,-2e-05,4
16460,17222,-1e-05,1e-05,0.00023999999999999998,-0.00054,0.00016,-7e-05,-2e-05,-2e-05,4
16461,17223,-2.9999999999999997e-05,-2e-05,-5e-05,-0.00022999999999999998,-0.0002,-0.0001,-2.9999999999999997e-05,0.0,4
16462,17224,-2.9999999999999997e-05,-2e-05,-5e-05,-0.00022999999999999998,-0.0002,-0.0001,-2.9999999999999997e-05,0.0,4
16463,17225,-2.9999999999999997e-05,-2e-05,-5e-05,-0.00022999999999999998,-0.0002,-0.0001,-2.9999999999999997e-05,0.0,4
16464,17226,-2.9999999999999997e-05,-2e-05,-5e-05,-0.00022999999999999998,-0.0002,-0.0001,-2.9999999999999997e-05,0.0,4
16465,17227,-2.9999999999999997e-05,-2e-05,-5e-05,-0.00022999999999999998,-0.0002,-0.0001,-2.9999999999999997e-05,0.0,4
16466,17228,-2.9999999999999997e-05,-2e-05,-5e-05,-0.00022999999999999998,-0.0002,-0.0001,-2.9999999999999997e-05,0.0,4
16467,17229,-2.9999999999999997e-05,-2e-05,-5e-05,-0.00022999999999999998,-0.0002,-0.0001,-2.9999999999999997e-05,0.0,4
16468,17230,-2.9999999999999997e-05,-2e-05,-5e-05,-0.00022999999999999998,-0.0002,-0.0001,-2.9999999999999997e-05,0.0,4
16469,17231,-2.9999999999999997e-05,-2e-05,-5e-05,-0.00022999999999999998,-0.0002,-0.0001,-2.9999999999999997e-05,0.0,4
16470,17232,-2.9999999999999997e-05,-2e-05,-5e-05,-0.00022999999999999998,-0.0002,-0.0001,-2.9999999999999997e-05,0.0,4
16471,17233,-2.9999999999999997e-05,-2e-05,-5e-05,-0.00022999999999999998,-0.0002,-0.0001,-2.9999999999999997e-05,0.0,4
16472,17234,-2.9999999999999997e-05,-2e-05,-5e-05,-0.00022999999999999998,-0.0002,-0.0001,-2.9999999999999997e-05,0.0,4
16473,17235,-2.9999999999999997e-05,-2e-05,-5e-05,-0.00022999999999999998,-0.0002,-0.0001,-2.9999999999999997e-05,0.0,4
16474,17236,-2e-05,-5.9999999999999995e-05,-8e-05,-1e-05,-0.0006,-0.00016,1e-05,-2.9999999999999997e-05,4
16475,17239,-1e-05,5e-05,0.00013000000000000002,0.0005200000000000001,0.00037999999999999997,7e-05,2.9999999999999997e-05,1e-05,4
16476,17240,-1e-05,5e-05,0.00013000000000000002,0.0005200000000000001,0.00037999999999999997,7e-05,2.9999999999999997e-05,1e-05,4
16477,17241,-1e-05,5e-05,0.00013000000000000002,0.0005200000000000001,0.00037999999999999997,7e-05,2.9999999999999997e-05,1e-05,4
16478,17242,-1e-05,5e-05,0.00013000000000000002,0.0005200000000000001,0.00037999999999999997,7e-05,2.9999999999999997e-05,1e-05,4
16479,17243,-1e-05,-2.9999999999999997e-05,0.0,0.00016999999999999999,0.00013000000000000002,0.00013000000000000002,2.9999999999999997e-05,0.0,4
16480,17244,-1e-05,-2.9999999999999997e-05,0.0,0.00016999999999999999,0.00013000000000000002,0.00013000000000000002,2.9999999999999997e-05,0.0,4
16481,17245,-1e-05,-2.9999999999999997e-05,0.0,0.00016999999999999999,0.00013000000000000002,0.00013000000000000002,2.9999999999999997e-05,0.0,4
16482,17246,-1e-05,-2.9999999999999997e-05,0.0,0.00016999999999999999,0.00013000000000000002,0.00013000000000000002,2.9999999999999997e-05,0.0,4
16483,17247,-1e-05,-2.9999999999999997e-05,0.0,0.00016999999999999999,0.00013000000000000002,0.00013000000000000002,2.9999999999999997e-05,0.0,4
16484,17248,-1e-05,-2.9999999999999997e-05,0.0,0.00016999999999999999,0.00013000000000000002,0.00013000000000000002,2.9999999999999997e-05,0.0,4
16485,17249,-1e-05,-2.9999999999999997e-05,0.0,0.00016999999999999999,0.00013000000000000002,0.00013000000000000002,2.9999999999999997e-05,0.0,4
16486,17250,-1e-05,-2.9999999999999997e-05,0.0,0.00016999999999999999,0.00013000000000000002,0.00013000000000000002,2.9999999999999997e-05,0.0,4
16487,17251,-1e-05,-2.9999999999999997e-05,0.0,0.00016999999999999999,0.00013000000000000002,0.00013000000000000002,2.9999999999999997e-05,0.0,4
16488,17252,-1e-05,-2.9999999999999997e-05,0.0,0.00016999999999999999,0.00013000000000000002,0.00013000000000000002,2.9999999999999997e-05,0.0,4
16489,17253,-1e-05,-2.9999999999999997e-05,0.0,0.00016999999999999999,0.00013000000000000002,0.00013000000000000002,2.9999999999999997e-05,0.0,4
16490,17254,-1e-05,-2.9999999999999997e-05,0.0,0.00016999999999999999,0.00013000000000000002,0.00013000000000000002,2.9999999999999997e-05,0.0,4
16491,17255,-1e-05,-2.9999999999999997e-05,0.0,0.00016999999999999999,0.00013000000000000002,0.00013000000000000002,2.9999999999999997e-05,0.0,4
16492,17256,-1e-05,-2.9999999999999997e-05,0.0,0.00016999999999999999,0.00013000000000000002,0.00013000000000000002,2.9999999999999997e-05,0.0,4
16493,17257,-1e-05,-2.9999999999999997e-05,0.0,0.00016999999999999999,0.00013000000000000002,0.00013000000000000002,2.9999999999999997e-05,0.0,4
16494,17258,-1e-05,-2.9999999999999997e-05,0.0,0.00016999999999999999,0.00013000000000000002,0.00013000000000000002,2.9999999999999997e-05,0.0,4
16495,17259,1e-05,0.0,-9e-05,-0.0004,-0.00013000000000000002,0.00016999999999999999,5e-05,4e-05,4
16496,17260,-2.9999999999999997e-05,-8e-05,-0.0002,-0.00082,-0.00066,-0.00027,-0.00011999999999999999,-8e-05,4
16497,17261,-2.9999999999999997e-05,-8e-05,-0.0002,-0.00082,-0.00066,-0.00027,-0.00011999999999999999,-8e-05,4
16498,17262,-2.9999999999999997e-05,-8e-05,-0.0002,-0.00082,-0.00066,-0.00027,-0.00011999999999999999,-8e-05,4
16499,17263,-2.9999999999999997e-05,-8e-05,-0.0002,-0.00082,-0.00066,-0.00027,-0.00011999999999999999,-8e-05,4
16500,17264,-2.9999999999999997e-05,-8e-05,-0.0002,-0.00082,-0.00066,-0.00027,-0.00011999999999999999,-8e-05,4
16501,17265,-2.9999999999999997e-05,-8e-05,-0.0002,-0.00082,-0.00066,-0.00027,-0.00011999999999999999,-8e-05,4
16502,17266,-2.9999999999999997e-05,-8e-05,-0.0002,-0.00082,-0.00066,-0.00027,-0.00011999999999999999,-8e-05,4
16503,17268,-2.9999999999999997e-05,-8e-05,-0.0002,-0.00082,-0.00066,-0.00027,-0.00011999999999999999,-8e-05,4
16504,17269,-2.9999999999999997e-05,-8e-05,-0.0002,-0.00082,-0.00066,-0.00027,-0.00011999999999999999,-8e-05,4
16505,17270,-2.9999999999999997e-05,-8e-05,-0.0002,-0.00082,-0.00066,-0.00027,-0.00011999999999999999,-8e-05,4
16506,17271,-2.9999999999999997e-05,-8e-05,-0.0002,-0.00082,-0.00066,-0.00027,-0.00011999999999999999,-8e-05,4
16507,17272,-2.9999999999999997e-05,-8e-05,-0.0002,-0.00082,-0.00066,-0.00027,-0.00011999999999999999,-8e-05,4
16508,17273,-2.9999999999999997e-05,-8e-05,-0.0002,-0.00082,-0.00066,-0.00027,-0.00011999999999999999,-8e-05,4
16509,17274,-2.9999999999999997e-05,-8e-05,-0.0002,-0.00082,-0.00066,-0.00027,-0.00011999999999999999,-8e-05,4
16510,17275,-2.9999999999999997e-05,-8e-05,-0.0002,-0.00082,-0.00066,-0.00027,-0.00011999999999999999,-8e-05,4
16511,17276,-2.9999999999999997e-05,-8e-05,-0.0002,-0.00082,-0.00066,-0.00027,-0.00011999999999999999,-8e-05,4
16512,17277,-2.9999999999999997e-05,-8e-05,-0.0002,-0.00082,-0.00066,-0.00027,-0.00011999999999999999,-8e-05,4
16513,17278,-2.9999999999999997e-05,-8e-05,-0.0002,-0.00082,-0.00066,-0.00027,-0.00011999999999999999,-8e-05,4
16514,17279,-2.9999999999999997e-05,-8e-05,-0.0002,-0.00082,-0.00066,-0.00027,-0.00011999999999999999,-8e-05,4
16515,17280,-2.9999999999999997e-05,-8e-05,-0.0002,-0.00082,-0.00066,-0.00027,-0.00011999999999999999,-8e-05,4
16516,17281,-5.9999999999999995e-05,0.0,5.9999999999999995e-05,-7e-05,-5.9999999999999995e-05,0.00021,1e-05,-2.9999999999999997e-05,4
16517,17282,-1e-05,-8e-05,-0.00011999999999999999,0.00016999999999999999,-4e-05,-0.0001,-2e-05,-2.9999999999999997e-05,4
16518,17283,-2.9999999999999997e-05,-5e-05,-8e-05,-0.00095,-0.0008699999999999999,-0.00029,-9e-05,-2e-05,4
16519,17284,-2.9999999999999997e-05,-5e-05,-8e-05,-0.00095,-0.0008699999999999999,-0.00029,-9e-05,-2e-05,4
16520,17285,-2.9999999999999997e-05,-5e-05,-8e-05,-0.00095,-0.0008699999999999999,-0.00029,-9e-05,-2e-05,4
16521,17287,-2.9999999999999997e-05,-5e-05,-8e-05,-0.00095,-0.0008699999999999999,-0.00029,-9e-05,-2e-05,4
16522,17289,-2.9999999999999997e-05,-5e-05,-8e-05,-0.00095,-0.0008699999999999999,-0.00029,-9e-05,-2e-05,4
16523,17290,-2.9999999999999997e-05,-5e-05,-8e-05,-0.00095,-0.0008699999999999999,-0.00029,-9e-05,-2e-05,4
16524,17291,-2.9999999999999997e-05,-5e-05,-8e-05,-0.00095,-0.0008699999999999999,-0.00029,-9e-05,-2e-05,4
16525,17292,-2.9999999999999997e-05,-5e-05,-8e-05,-0.00095,-0.0008699999999999999,-0.00029,-9e-05,-2e-05,4
16526,17293,-2.9999999999999997e-05,-5e-05,-8e-05,-0.00095,-0.0008699999999999999,-0.00029,-9e-05,-2e-05,4
16527,17294,-2.9999999999999997e-05,-5e-05,-8e-05,-0.00095,-0.0008699999999999999,-0.00029,-9e-05,-2e-05,4
16528,17295,-2.9999999999999997e-05,-5e-05,-8e-05,-0.00095,-0.0008699999999999999,-0.00029,-9e-05,-2e-05,4
16529,17296,-7e-05,-0.0001,-0.00022,2e-05,-0.00026000000000000003,-0.00031,-9e-05,-8e-05,4
16530,17297,-7e-05,-0.0001,-0.00022,2e-05,-0.00026000000000000003,-0.00031,-9e-05,-8e-05,4
16531,17298,-7e-05,-0.0001,-0.00022,2e-05,-0.00026000000000000003,-0.00031,-9e-05,-8e-05,4
16532,17299,-7e-05,-0.0001,-0.00022,2e-05,-0.00026000000000000003,-0.00031,-9e-05,-8e-05,4
16533,17300,-7e-05,-0.0001,-0.00022,2e-05,-0.00026000000000000003,-0.00031,-9e-05,-8e-05,4
16534,17301,-7e-05,-0.0001,-0.00022,2e-05,-0.00026000000000000003,-0.00031,-9e-05,-8e-05,4
16535,17302,-7e-05,-0.0001,-0.00022,2e-05,-0.00026000000000000003,-0.00031,-9e-05,-8e-05,4
16536,17303,-5e-05,-8e-05,-0.00018,-0.00016,-8e-05,2e-05,-7e-05,-7e-05,4
16537,17304,-5e-05,-8e-05,-0.00018,-0.00016,-8e-05,2e-05,-7e-05,-7e-05,4
16538,17305,-5e-05,-8e-05,-0.00018,-0.00016,-8e-05,2e-05,-7e-05,-7e-05,4
16539,17306,-5e-05,-8e-05,-0.00018,-0.00016,-8e-05,2e-05,-7e-05,-7e-05,4
16540,17307,-5e-05,-8e-05,-0.00018,-0.00016,-8e-05,2e-05,-7e-05,-7e-05,4
16541,17308,-5e-05,-8e-05,-0.00018,-0.00016,-8e-05,2e-05,-7e-05,-7e-05,4
16542,17309,-5e-05,-8e-05,-0.00018,-0.00016,-8e-05,2e-05,-7e-05,-7e-05,4
16543,17310,-5e-05,-8e-05,-0.00018,-0.00016,-8e-05,2e-05,-7e-05,-7e-05,4
16544,17311,-5e-05,-8e-05,-0.00018,-0.00016,-8e-05,2e-05,-7e-05,-7e-05,4
16545,17312,-5e-05,-8e-05,-0.00018,-0.00016,-8e-05,2e-05,-7e-05,-7e-05,4
16546,17313,-5e-05,-8e-05,-0.00018,-0.00016,-8e-05,2e-05,-7e-05,-7e-05,4
16547,17314,-5e-05,-8e-05,-0.00018,-0.00016,-8e-05,2e-05,-7e-05,-7e-05,4
16548,17315,-5e-05,-8e-05,-0.00018,-0.00016,-8e-05,2e-05,-7e-05,-7e-05,4
16549,17316,-5e-05,-8e-05,-0.00018,-0.00016,-8e-05,2e-05,-7e-05,-7e-05,4
16550,17317,-5e-05,-8e-05,-0.00018,-0.00016,-8e-05,2e-05,-7e-05,-7e-05,4
16551,17318,-5e-05,-8e-05,-0.00018,-0.00016,-8e-05,2e-05,-7e-05,-7e-05,4
16552,17319,-5e-05,-8e-05,-0.00018,-0.00016,-8e-05,2e-05,-7e-05,-7e-05,4
16553,17320,-2e-05,-4e-05,-0.00011,-0.00043,-0.00054,-1e-05,-4e-05,-2.9999999999999997e-05,4
16554,17321,-5e-05,-8e-05,4e-05,0.00047999999999999996,0.00072,0.00022999999999999998,4e-05,1e-05,4
16555,17322,-5e-05,-8e-05,4e-05,0.00047999999999999996,0.00072,0.00022999999999999998,4e-05,1e-05,4
16556,17323,-5e-05,-8e-05,4e-05,0.00047999999999999996,0.00072,0.00022999999999999998,4e-05,1e-05,4
16557,17324,-5e-05,-8e-05,4e-05,0.00047999999999999996,0.00072,0.00022999999999999998,4e-05,1e-05,4
16558,17325,-5e-05,-8e-05,4e-05,0.00047999999999999996,0.00072,0.00022999999999999998,4e-05,1e-05,4
16559,17326,-5e-05,-8e-05,4e-05,0.00047999999999999996,0.00072,0.00022999999999999998,4e-05,1e-05,4
16560,17327,-5e-05,-8e-05,4e-05,0.00047999999999999996,0.00072,0.00022999999999999998,4e-05,1e-05,4
16561,17328,-5e-05,-8e-05,4e-05,0.00047999999999999996,0.00072,0.00022999999999999998,4e-05,1e-05,4
16562,17329,-5e-05,-8e-05,4e-05,0.00047999999999999996,0.00072,0.00022999999999999998,4e-05,1e-05,4
16563,17330,-5e-05,-8e-05,4e-05,0.00047999999999999996,0.00072,0.00022999999999999998,4e-05,1e-05,4
16564,17331,-5e-05,-8e-05,4e-05,0.00047999999999999996,0.00072,0.00022999999999999998,4e-05,1e-05,4
16565,17332,-5e-05,-8e-05,4e-05,0.00047999999999999996,0.00072,0.00022999999999999998,4e-05,1e-05,4
16566,17333,-5e-05,-8e-05,4e-05,0.00047999999999999996,0.00072,0.00022999999999999998,4e-05,1e-05,4
16567,17334,-5e-05,-8e-05,4e-05,0.00047999999999999996,0.00072,0.00022999999999999998,4e-05,1e-05,4
16568,17335,-5e-05,-8e-05,4e-05,0.00047999999999999996,0.00072,0.00022999999999999998,4e-05,1e-05,4
16569,17337,-5e-05,-8e-05,4e-05,0.00047999999999999996,0.00072,0.00022999999999999998,4e-05,1e-05,4
16570,17339,-5e-05,-8e-05,4e-05,0.00047999999999999996,0.00072,0.00022999999999999998,4e-05,1e-05,4
16571,17340,-5e-05,-8e-05,4e-05,0.00047999999999999996,0.00072,0.00022999999999999998,4e-05,1e-05,4
16572,17341,1e-05,-0.0001,-0.00029,-0.00022,-0.00072,-0.00018999999999999998,-5.9999999999999995e-05,-2e-05,4
16573,17342,2.9999999999999997e-05,5e-05,9e-05,-0.00029,5.9999999999999995e-05,-9e-05,2.9999999999999997e-05,1e-05,4
16574,17343,2e-05,1e-05,-4e-05,-0.00016,-0.00067,2e-05,1e-05,2.9999999999999997e-05,4
16575,17344,2e-05,1e-05,-4e-05,-0.00016,-0.00067,2e-05,1e-05,2.9999999999999997e-05,4
16576,17345,2e-05,1e-05,-4e-05,-0.00016,-0.00067,2e-05,1e-05,2.9999999999999997e-05,4
16577,17346,2e-05,1e-05,-4e-05,-0.00016,-0.00067,2e-05,1e-05,2.9999999999999997e-05,4
16578,17347,2e-05,1e-05,-4e-05,-0.00016,-0.00067,2e-05,1e-05,2.9999999999999997e-05,4
16579,17348,2e-05,1e-05,-4e-05,-0.00016,-0.00067,2e-05,1e-05,2.9999999999999997e-05,4
16580,17349,2e-05,1e-05,-4e-05,-0.00016,-0.00067,2e-05,1e-05,2.9999999999999997e-05,4
16581,17350,2e-05,1e-05,-4e-05,-0.00016,-0.00067,2e-05,1e-05,2.9999999999999997e-05,4
16582,17351,2e-05,1e-05,-4e-05,-0.00016,-0.00067,2e-05,1e-05,2.9999999999999997e-05,4
16583,17352,2e-05,1e-05,-4e-05,-0.00016,-0.00067,2e-05,1e-05,2.9999999999999997e-05,4
16584,17353,2e-05,1e-05,-4e-05,-0.00016,-0.00067,2e-05,1e-05,2.9999999999999997e-05,4
16585,17354,2e-05,1e-05,-4e-05,-0.00016,-0.00067,2e-05,1e-05,2.9999999999999997e-05,4
16586,17355,2e-05,1e-05,-4e-05,-0.00016,-0.00067,2e-05,1e-05,2.9999999999999997e-05,4
16587,17356,4e-05,7e-05,0.00011999999999999999,0.00085,-0.0005099999999999999,-2.9999999999999997e-05,4e-05,2.9999999999999997e-05,4
16588,17357,4e-05,7e-05,0.00011999999999999999,0.00085,-0.0005099999999999999,-2.9999999999999997e-05,4e-05,2.9999999999999997e-05,4
16589,17358,4e-05,7e-05,0.00011999999999999999,0.00085,-0.0005099999999999999,-2.9999999999999997e-05,4e-05,2.9999999999999997e-05,4
16590,17359,4e-05,7e-05,0.00011999999999999999,0.00085,-0.0005099999999999999,-2.9999999999999997e-05,4e-05,2.9999999999999997e-05,4
16591,17360,4e-05,7e-05,0.00011999999999999999,0.00085,-0.0005099999999999999,-2.9999999999999997e-05,4e-05,2.9999999999999997e-05,4
16592,17362,4e-05,7e-05,0.00011999999999999999,0.00085,-0.0005099999999999999,-2.9999999999999997e-05,4e-05,2.9999999999999997e-05,4
16593,17363,-1e-05,1e-05,2.9999999999999997e-05,0.00018999999999999998,0.00026000000000000003,0.00018,4e-05,0.0,4
16594,17364,-1e-05,1e-05,2.9999999999999997e-05,0.00018999999999999998,0.00026000000000000003,0.00018,4e-05,0.0,4
16595,17365,-1e-05,1e-05,2.9999999999999997e-05,0.00018999999999999998,0.00026000000000000003,0.00018,4e-05,0.0,4
16596,17366,-1e-05,1e-05,2.9999999999999997e-05,0.00018999999999999998,0.00026000000000000003,0.00018,4e-05,0.0,4
16597,17367,-1e-05,1e-05,2.9999999999999997e-05,0.00018999999999999998,0.00026000000000000003,0.00018,4e-05,0.0,4
16598,17368,-1e-05,1e-05,2.9999999999999997e-05,0.00018999999999999998,0.00026000000000000003,0.00018,4e-05,0.0,4
16599,17369,-1e-05,1e-05,2.9999999999999997e-05,0.00018999999999999998,0.00026000000000000003,0.00018,4e-05,0.0,4
16600,17370,-1e-05,1e-05,2.9999999999999997e-05,0.00018999999999999998,0.00026000000000000003,0.00018,4e-05,0.0,4
16601,17371,-1e-05,1e-05,2.9999999999999997e-05,0.00018999999999999998,0.00026000000000000003,0.00018,4e-05,0.0,4
16602,17372,-1e-05,1e-05,2.9999999999999997e-05,0.00018999999999999998,0.00026000000000000003,0.00018,4e-05,0.0,4
16603,17373,-1e-05,1e-05,2.9999999999999997e-05,0.00018999999999999998,0.00026000000000000003,0.00018,4e-05,0.0,4
16604,17374,-1e-05,1e-05,2.9999999999999997e-05,0.00018999999999999998,0.00026000000000000003,0.00018,4e-05,0.0,4
16605,17375,-1e-05,1e-05,2.9999999999999997e-05,0.00018999999999999998,0.00026000000000000003,0.00018,4e-05,0.0,4
16606,17376,-1e-05,1e-05,2.9999999999999997e-05,0.00018999999999999998,0.00026000000000000003,0.00018,4e-05,0.0,4
16607,17377,-1e-05,1e-05,2.9999999999999997e-05,0.00018999999999999998,0.00026000000000000003,0.00018,4e-05,0.0,4
16608,17378,-1e-05,1e-05,2.9999999999999997e-05,0.00018999999999999998,0.00026000000000000003,0.00018,4e-05,0.0,4
16609,17379,-5.9999999999999995e-05,-5.9999999999999995e-05,-5.9999999999999995e-05,-7e-05,-0.0006,-0.00021,-5.9999999999999995e-05,-4e-05,4
16610,17380,-5.9999999999999995e-05,-5.9999999999999995e-05,-5.9999999999999995e-05,-7e-05,-0.0006,-0.00021,-5.9999999999999995e-05,-4e-05,4
16611,17381,0.0,-4e-05,-8e-05,0.00025,0.00055,7e-05,0.0,2e-05,4
16612,17382,0.0,-4e-05,-8e-05,0.00025,0.00055,7e-05,0.0,2e-05,4
16613,17383,0.0,-4e-05,-8e-05,0.00025,0.00055,7e-05,0.0,2e-05,4
16614,17384,0.0,-4e-05,-8e-05,0.00025,0.00055,7e-05,0.0,2e-05,4
16615,17385,0.0,-4e-05,-8e-05,0.00025,0.00055,7e-05,0.0,2e-05,4
16616,17387,0.0,-4e-05,-8e-05,0.00025,0.00055,7e-05,0.0,2e-05,4
16617,17389,0.0,-4e-05,-8e-05,0.00025,0.00055,7e-05,0.0,2e-05,4
16618,17390,0.0,-4e-05,-8e-05,0.00025,0.00055,7e-05,0.0,2e-05,4
16619,17391,0.0,-4e-05,-8e-05,0.00025,0.00055,7e-05,0.0,2e-05,4
16620,17392,0.0,-4e-05,-8e-05,0.00025,0.00055,7e-05,0.0,2e-05,4
16621,17393,0.0,-4e-05,-8e-05,0.00025,0.00055,7e-05,0.0,2e-05,4
16622,17394,0.0,-4e-05,-8e-05,0.00025,0.00055,7e-05,0.0,2e-05,4
16623,17395,0.0,-4e-05,-8e-05,0.00025,0.00055,7e-05,0.0,2e-05,4
16624,17396,0.0,-4e-05,-8e-05,0.00025,0.00055,7e-05,0.0,2e-05,4
16625,17397,0.0,-4e-05,-8e-05,0.00025,0.00055,7e-05,0.0,2e-05,4
16626,17398,0.0,-4e-05,-8e-05,0.00025,0.00055,7e-05,0.0,2e-05,4
16627,17399,0.0,-4e-05,-8e-05,0.00025,0.00055,7e-05,0.0,2e-05,4
16628,17400,0.0,-4e-05,-8e-05,0.00025,0.00055,7e-05,0.0,2e-05,4
16629,17401,2.9999999999999997e-05,5.9999999999999995e-05,2e-05,-0.00066,-5e-05,5e-05,-1e-05,2e-05,4
16630,17402,2.9999999999999997e-05,5.9999999999999995e-05,2e-05,-0.00066,-5e-05,5e-05,-1e-05,2e-05,4
16631,17403,1e-05,2.9999999999999997e-05,4e-05,-0.00018,-0.00065,-0.00022999999999999998,-2.9999999999999997e-05,-2.9999999999999997e-05,4
16632,17404,1e-05,2.9999999999999997e-05,4e-05,-0.00018,-0.00065,-0.00022999999999999998,-2.9999999999999997e-05,-2.9999999999999997e-05,4
16633,17405,1e-05,2.9999999999999997e-05,4e-05,-0.00018,-0.00065,-0.00022999999999999998,-2.9999999999999997e-05,-2.9999999999999997e-05,4
16634,17406,1e-05,2.9999999999999997e-05,4e-05,-0.00018,-0.00065,-0.00022999999999999998,-2.9999999999999997e-05,-2.9999999999999997e-05,4
16635,17408,1e-05,2.9999999999999997e-05,4e-05,-0.00018,-0.00065,-0.00022999999999999998,-2.9999999999999997e-05,-2.9999999999999997e-05,4
16636,17409,1e-05,2.9999999999999997e-05,4e-05,-0.00018,-0.00065,-0.00022999999999999998,-2.9999999999999997e-05,-2.9999999999999997e-05,4
16637,17410,1e-05,2.9999999999999997e-05,4e-05,-0.00018,-0.00065,-0.00022999999999999998,-2.9999999999999997e-05,-2.9999999999999997e-05,4
16638,17411,1e-05,2.9999999999999997e-05,4e-05,-0.00018,-0.00065,-0.00022999999999999998,-2.9999999999999997e-05,-2.9999999999999997e-05,4
16639,17412,1e-05,2.9999999999999997e-05,4e-05,-0.00018,-0.00065,-0.00022999999999999998,-2.9999999999999997e-05,-2.9999999999999997e-05,4
16640,17413,1e-05,2.9999999999999997e-05,4e-05,-0.00018,-0.00065,-0.00022999999999999998,-2.9999999999999997e-05,-2.9999999999999997e-05,4
16641,17414,1e-05,2.9999999999999997e-05,4e-05,-0.00018,-0.00065,-0.00022999999999999998,-2.9999999999999997e-05,-2.9999999999999997e-05,4
16642,17415,-1e-05,-1e-05,-1e-05,-4e-05,8e-05,-0.00015,-2.9999999999999997e-05,2e-05,4
16643,17416,-1e-05,-1e-05,-1e-05,-4e-05,8e-05,-0.00015,-2.9999999999999997e-05,2e-05,4
16644,17417,-1e-05,-1e-05,-1e-05,-4e-05,8e-05,-0.00015,-2.9999999999999997e-05,2e-05,4
16645,17418,-1e-05,-1e-05,-1e-05,-4e-05,8e-05,-0.00015,-2.9999999999999997e-05,2e-05,4
16646,17419,-1e-05,-1e-05,-1e-05,-4e-05,8e-05,-0.00015,-2.9999999999999997e-05,2e-05,4
16647,17420,-1e-05,-1e-05,-1e-05,-4e-05,8e-05,-0.00015,-2.9999999999999997e-05,2e-05,4
16648,17421,-1e-05,-1e-05,-1e-05,-4e-05,8e-05,-0.00015,-2.9999999999999997e-05,2e-05,4
16649,17422,-1e-05,-1e-05,-1e-05,-4e-05,8e-05,-0.00015,-2.9999999999999997e-05,2e-05,4
16650,17423,-1e-05,-1e-05,-1e-05,-4e-05,8e-05,-0.00015,-2.9999999999999997e-05,2e-05,4
16651,17424,2.9999999999999997e-05,2.9999999999999997e-05,-0.00013000000000000002,-0.00065,-0.00041,5e-05,7e-05,2e-05,4
16652,17425,2.9999999999999997e-05,2.9999999999999997e-05,-0.00013000000000000002,-0.00065,-0.00041,5e-05,7e-05,2e-05,4
16653,17426,2.9999999999999997e-05,2.9999999999999997e-05,-0.00013000000000000002,-0.00065,-0.00041,5e-05,7e-05,2e-05,4
16654,17427,2.9999999999999997e-05,2.9999999999999997e-05,-0.00013000000000000002,-0.00065,-0.00041,5e-05,7e-05,2e-05,4
16655,17428,2.9999999999999997e-05,2.9999999999999997e-05,-0.00013000000000000002,-0.00065,-0.00041,5e-05,7e-05,2e-05,4
16656,17429,2.9999999999999997e-05,2.9999999999999997e-05,-0.00013000000000000002,-0.00065,-0.00041,5e-05,7e-05,2e-05,4
16657,17430,2.9999999999999997e-05,2.9999999999999997e-05,-0.00013000000000000002,-0.00065,-0.00041,5e-05,7e-05,2e-05,4
16658,17431,2.9999999999999997e-05,2.9999999999999997e-05,-0.00013000000000000002,-0.00065,-0.00041,5e-05,7e-05,2e-05,4
16659,17432,2.9999999999999997e-05,2.9999999999999997e-05,-0.00013000000000000002,-0.00065,-0.00041,5e-05,7e-05,2e-05,4
16660,17433,2.9999999999999997e-05,2.9999999999999997e-05,-0.00013000000000000002,-0.00065,-0.00041,5e-05,7e-05,2e-05,4
16661,17434,2.9999999999999997e-05,2.9999999999999997e-05,-0.00013000000000000002,-0.00065,-0.00041,5e-05,7e-05,2e-05,4
16662,17435,2.9999999999999997e-05,2.9999999999999997e-05,-0.00013000000000000002,-0.00065,-0.00041,5e-05,7e-05,2e-05,4
16663,17436,2.9999999999999997e-05,2.9999999999999997e-05,-0.00013000000000000002,-0.00065,-0.00041,5e-05,7e-05,2e-05,4
16664,17439,0.0,-1e-05,1e-05,-0.00022999999999999998,-0.00033,-0.00018,-7e-05,-4e-05,4
16665,17440,-2e-05,-2e-05,0.0001,0.00045999999999999996,0.0006900000000000001,0.00021,2e-05,0.0,4
16666,17441,-5e-05,-5.9999999999999995e-05,-2.9999999999999997e-05,4e-05,-0.0007,-0.00013000000000000002,-4e-05,-5.9999999999999995e-05,4
16667,17442,-5e-05,-5.9999999999999995e-05,-2.9999999999999997e-05,4e-05,-0.0007,-0.00013000000000000002,-4e-05,-5.9999999999999995e-05,4
16668,17443,-5e-05,-5.9999999999999995e-05,-2.9999999999999997e-05,4e-05,-0.0007,-0.00013000000000000002,-4e-05,-5.9999999999999995e-05,4
16669,17444,-5e-05,-5.9999999999999995e-05,-2.9999999999999997e-05,4e-05,-0.0007,-0.00013000000000000002,-4e-05,-5.9999999999999995e-05,4
16670,17445,-5e-05,-5.9999999999999995e-05,-2.9999999999999997e-05,4e-05,-0.0007,-0.00013000000000000002,-4e-05,-5.9999999999999995e-05,4
16671,17446,-5e-05,-5.9999999999999995e-05,-2.9999999999999997e-05,4e-05,-0.0007,-0.00013000000000000002,-4e-05,-5.9999999999999995e-05,4
16672,17447,-5e-05,-5.9999999999999995e-05,-2.9999999999999997e-05,4e-05,-0.0007,-0.00013000000000000002,-4e-05,-5.9999999999999995e-05,4
16673,17448,-5e-05,-5.9999999999999995e-05,-2.9999999999999997e-05,4e-05,-0.0007,-0.00013000000000000002,-4e-05,-5.9999999999999995e-05,4
16674,17449,-5e-05,-5.9999999999999995e-05,-2.9999999999999997e-05,4e-05,-0.0007,-0.00013000000000000002,-4e-05,-5.9999999999999995e-05,4
16675,17450,-5e-05,-5.9999999999999995e-05,-2.9999999999999997e-05,4e-05,-0.0007,-0.00013000000000000002,-4e-05,-5.9999999999999995e-05,4
16676,17451,-5e-05,-5.9999999999999995e-05,-2.9999999999999997e-05,4e-05,-0.0007,-0.00013000000000000002,-4e-05,-5.9999999999999995e-05,4
16677,17452,-5e-05,-5.9999999999999995e-05,-2.9999999999999997e-05,4e-05,-0.0007,-0.00013000000000000002,-4e-05,-5.9999999999999995e-05,4
16678,17453,-5e-05,-5.9999999999999995e-05,-2.9999999999999997e-05,4e-05,-0.0007,-0.00013000000000000002,-4e-05,-5.9999999999999995e-05,4
16679,17454,-5e-05,-5.9999999999999995e-05,-2.9999999999999997e-05,4e-05,-0.0007,-0.00013000000000000002,-4e-05,-5.9999999999999995e-05,4
16680,17455,-5e-05,-5.9999999999999995e-05,-2.9999999999999997e-05,4e-05,-0.0007,-0.00013000000000000002,-4e-05,-5.9999999999999995e-05,4
16681,17456,-5e-05,-5.9999999999999995e-05,-2.9999999999999997e-05,4e-05,-0.0007,-0.00013000000000000002,-4e-05,-5.9999999999999995e-05,4
16682,17457,-5e-05,-5.9999999999999995e-05,-2.9999999999999997e-05,4e-05,-0.0007,-0.00013000000000000002,-4e-05,-5.9999999999999995e-05,4
16683,17458,-5e-05,-5.9999999999999995e-05,-2.9999999999999997e-05,4e-05,-0.0007,-0.00013000000000000002,-4e-05,-5.9999999999999995e-05,4
16684,17459,-5e-05,-5.9999999999999995e-05,-2.9999999999999997e-05,4e-05,-0.0007,-0.00013000000000000002,-4e-05,-5.9999999999999995e-05,4
16685,17460,-5e-05,-5.9999999999999995e-05,-2.9999999999999997e-05,4e-05,-0.0007,-0.00013000000000000002,-4e-05,-5.9999999999999995e-05,4
16686,17461,-5.9999999999999995e-05,-9e-05,-0.00013000000000000002,-0.00045,0.00018,5.9999999999999995e-05,-1e-05,-2e-05,4
16687,17462,-5.9999999999999995e-05,-9e-05,-0.00013000000000000002,-0.00045,0.00018,5.9999999999999995e-05,-1e-05,-2e-05,4
16688,17463,-2e-05,-5e-05,-2e-05,-4e-05,0.00011999999999999999,-0.0002,-5.9999999999999995e-05,-1e-05,4
16689,17464,-2e-05,-5e-05,-2e-05,-4e-05,0.00011999999999999999,-0.0002,-5.9999999999999995e-05,-1e-05,4
16690,17465,-2e-05,-5e-05,-2e-05,-4e-05,0.00011999999999999999,-0.0002,-5.9999999999999995e-05,-1e-05,4
16691,17466,-2e-05,-5e-05,-2e-05,-4e-05,0.00011999999999999999,-0.0002,-5.9999999999999995e-05,-1e-05,4
16692,17467,-2e-05,-5e-05,-2e-05,-4e-05,0.00011999999999999999,-0.0002,-5.9999999999999995e-05,-1e-05,4
16693,17468,-2e-05,-5e-05,-2e-05,-4e-05,0.00011999999999999999,-0.0002,-5.9999999999999995e-05,-1e-05,4
16694,17469,-2e-05,-5e-05,-2e-05,-4e-05,0.00011999999999999999,-0.0002,-5.9999999999999995e-05,-1e-05,4
16695,17470,-2e-05,-5e-05,-2e-05,-4e-05,0.00011999999999999999,-0.0002,-5.9999999999999995e-05,-1e-05,4
16696,17471,-2e-05,-5e-05,-2e-05,-4e-05,0.00011999999999999999,-0.0002,-5.9999999999999995e-05,-1e-05,4
16697,17472,-2e-05,-5e-05,-2e-05,-4e-05,0.00011999999999999999,-0.0002,-5.9999999999999995e-05,-1e-05,4
16698,17473,-2e-05,-5e-05,-2e-05,-4e-05,0.00011999999999999999,-0.0002,-5.9999999999999995e-05,-1e-05,4
16699,17474,-2e-05,-5e-05,-2e-05,-4e-05,0.00011999999999999999,-0.0002,-5.9999999999999995e-05,-1e-05,4
16700,17475,1e-05,0.0,-5.9999999999999995e-05,-0.00018999999999999998,-0.00028,5e-05,-2e-05,-1e-05,4
16701,17476,1e-05,0.0,-5.9999999999999995e-05,-0.00018999999999999998,-0.00028,5e-05,-2e-05,-1e-05,4
16702,17477,1e-05,0.0,-5.9999999999999995e-05,-0.00018999999999999998,-0.00028,5e-05,-2e-05,-1e-05,4
16703,17478,1e-05,0.0,-5.9999999999999995e-05,-0.00018999999999999998,-0.00028,5e-05,-2e-05,-1e-05,4
16704,17479,1e-05,0.0,-5.9999999999999995e-05,-0.00018999999999999998,-0.00028,5e-05,-2e-05,-1e-05,4
16705,17480,1e-05,0.0,-5.9999999999999995e-05,-0.00018999999999999998,-0.00028,5e-05,-2e-05,-1e-05,4
16706,17481,1e-05,0.0,-5.9999999999999995e-05,-0.00018999999999999998,-0.00028,5e-05,-2e-05,-1e-05,4
16707,17482,1e-05,0.0,-5.9999999999999995e-05,-0.00018999999999999998,-0.00028,5e-05,-2e-05,-1e-05,4
16708,17483,1e-05,0.0,-5.9999999999999995e-05,-0.00018999999999999998,-0.00028,5e-05,-2e-05,-1e-05,4
16709,17484,-1e-05,5.9999999999999995e-05,0.0001,0.0006900000000000001,0.00055,5e-05,-2e-05,0.0,4
16710,17485,-1e-05,5.9999999999999995e-05,0.0001,0.0006900000000000001,0.00055,5e-05,-2e-05,0.0,4
16711,17487,-1e-05,5.9999999999999995e-05,0.0001,0.0006900000000000001,0.00055,5e-05,-2e-05,0.0,4
16712,17489,-1e-05,5.9999999999999995e-05,0.0001,0.0006900000000000001,0.00055,5e-05,-2e-05,0.0,4
16713,17490,-1e-05,5.9999999999999995e-05,0.0001,0.0006900000000000001,0.00055,5e-05,-2e-05,0.0,4
16714,17491,-1e-05,5.9999999999999995e-05,0.0001,0.0006900000000000001,0.00055,5e-05,-2e-05,0.0,4
16715,17492,-1e-05,5.9999999999999995e-05,0.0001,0.0006900000000000001,0.00055,5e-05,-2e-05,0.0,4
16716,17493,-1e-05,5.9999999999999995e-05,0.0001,0.0006900000000000001,0.00055,5e-05,-2e-05,0.0,4
16717,17494,-1e-05,5.9999999999999995e-05,0.0001,0.0006900000000000001,0.00055,5e-05,-2e-05,0.0,4
16718,17495,-1e-05,5.9999999999999995e-05,0.0001,0.0006900000000000001,0.00055,5e-05,-2e-05,0.0,4
16719,17496,-1e-05,5.9999999999999995e-05,0.0001,0.0006900000000000001,0.00055,5e-05,-2e-05,0.0,4
16720,17497,-1e-05,5.9999999999999995e-05,0.0001,0.0006900000000000001,0.00055,5e-05,-2e-05,0.0,4
16721,17498,-1e-05,5.9999999999999995e-05,0.0001,0.0006900000000000001,0.00055,5e-05,-2e-05,0.0,4
16722,17499,1e-05,1e-05,5e-05,0.00021,-0.00047000000000000004,-0.0001,-2e-05,0.0,4
16723,17500,1e-05,1e-05,5e-05,0.00021,-0.00047000000000000004,-0.0001,-2e-05,0.0,4
16724,17501,2e-05,-1e-05,-5.9999999999999995e-05,-0.00016,-0.00036,0.00013000000000000002,2e-05,0.0,4
16725,17502,2e-05,-1e-05,-5.9999999999999995e-05,-0.00016,-0.00036,0.00013000000000000002,2e-05,0.0,4
16726,17503,2e-05,-1e-05,-5.9999999999999995e-05,-0.00016,-0.00036,0.00013000000000000002,2e-05,0.0,4
16727,17504,2e-05,-1e-05,-5.9999999999999995e-05,-0.00016,-0.00036,0.00013000000000000002,2e-05,0.0,4
16728,17505,2e-05,-1e-05,-5.9999999999999995e-05,-0.00016,-0.00036,0.00013000000000000002,2e-05,0.0,4
16729,17506,2e-05,-1e-05,-5.9999999999999995e-05,-0.00016,-0.00036,0.00013000000000000002,2e-05,0.0,4
16730,17507,2e-05,-1e-05,-5.9999999999999995e-05,-0.00016,-0.00036,0.00013000000000000002,2e-05,0.0,4
16731,17508,2e-05,-1e-05,-5.9999999999999995e-05,-0.00016,-0.00036,0.00013000000000000002,2e-05,0.0,4
16732,17509,2e-05,-1e-05,-5.9999999999999995e-05,-0.00016,-0.00036,0.00013000000000000002,2e-05,0.0,4
16733,17510,2e-05,-1e-05,-5.9999999999999995e-05,-0.00016,-0.00036,0.00013000000000000002,2e-05,0.0,4
16734,17511,2e-05,-1e-05,-5.9999999999999995e-05,-0.00016,-0.00036,0.00013000000000000002,2e-05,0.0,4
16735,17512,2e-05,-1e-05,-5.9999999999999995e-05,-0.00016,-0.00036,0.00013000000000000002,2e-05,0.0,4
16736,17513,2e-05,-1e-05,-5.9999999999999995e-05,-0.00016,-0.00036,0.00013000000000000002,2e-05,0.0,4
16737,17514,2e-05,-1e-05,-5.9999999999999995e-05,-0.00016,-0.00036,0.00013000000000000002,2e-05,0.0,4
16738,17515,2e-05,-1e-05,-5.9999999999999995e-05,-0.00016,-0.00036,0.00013000000000000002,2e-05,0.0,4
16739,17516,2e-05,-1e-05,-5.9999999999999995e-05,-0.00016,-0.00036,0.00013000000000000002,2e-05,0.0,4
16740,17517,2e-05,-1e-05,-5.9999999999999995e-05,-0.00016,-0.00036,0.00013000000000000002,2e-05,0.0,4
16741,17518,2e-05,-1e-05,-5.9999999999999995e-05,-0.00016,-0.00036,0.00013000000000000002,2e-05,0.0,4
16742,17519,2e-05,-1e-05,-5.9999999999999995e-05,-0.00016,-0.00036,0.00013000000000000002,2e-05,0.0,4
16743,17520,2e-05,-1e-05,-5.9999999999999995e-05,-0.00016,-0.00036,0.00013000000000000002,2e-05,0.0,4
16744,17521,2e-05,-2e-05,-4e-05,-0.0002,0.00037,0.00018,5.9999999999999995e-05,0.0,4
16745,17522,2e-05,-2e-05,-4e-05,-0.0002,0.00037,0.00018,5.9999999999999995e-05,0.0,4
16746,17523,-2.9999999999999997e-05,7e-05,0.0,0.00029,0.00109,0.00022999999999999998,0.0,-4e-05,4
16747,17524,-2.9999999999999997e-05,7e-05,0.0,0.00029,0.00109,0.00022999999999999998,0.0,-4e-05,4
16748,17525,-2.9999999999999997e-05,7e-05,0.0,0.00029,0.00109,0.00022999999999999998,0.0,-4e-05,4
16749,17526,-2.9999999999999997e-05,7e-05,0.0,0.00029,0.00109,0.00022999999999999998,0.0,-4e-05,4
16750,17527,-2.9999999999999997e-05,7e-05,0.0,0.00029,0.00109,0.00022999999999999998,0.0,-4e-05,4
16751,17528,-2.9999999999999997e-05,7e-05,0.0,0.00029,0.00109,0.00022999999999999998,0.0,-4e-05,4
16752,17529,-2.9999999999999997e-05,7e-05,0.0,0.00029,0.00109,0.00022999999999999998,0.0,-4e-05,4
16753,17530,-2.9999999999999997e-05,7e-05,0.0,0.00029,0.00109,0.00022999999999999998,0.0,-4e-05,4
16754,17531,-2.9999999999999997e-05,7e-05,0.0,0.00029,0.00109,0.00022999999999999998,0.0,-4e-05,4
16755,17532,-2.9999999999999997e-05,7e-05,0.0,0.00029,0.00109,0.00022999999999999998,0.0,-4e-05,4
16756,17533,-2.9999999999999997e-05,7e-05,0.0,0.00029,0.00109,0.00022999999999999998,0.0,-4e-05,4
16757,17534,-2.9999999999999997e-05,7e-05,0.0,0.00029,0.00109,0.00022999999999999998,0.0,-4e-05,4
16758,17535,-1e-05,-1e-05,-0.00011,-0.00026000000000000003,-0.00011999999999999999,-5.9999999999999995e-05,-4e-05,-4e-05,4
16759,17536,-1e-05,-1e-05,-0.00011,-0.00026000000000000003,-0.00011999999999999999,-5.9999999999999995e-05,-4e-05,-4e-05,4
16760,17538,-1e-05,-1e-05,-0.00011,-0.00026000000000000003,-0.00011999999999999999,-5.9999999999999995e-05,-4e-05,-4e-05,4
16761,17539,-1e-05,-1e-05,-0.00011,-0.00026000000000000003,-0.00011999999999999999,-5.9999999999999995e-05,-4e-05,-4e-05,4
16762,17540,-1e-05,-1e-05,-0.00011,-0.00026000000000000003,-0.00011999999999999999,-5.9999999999999995e-05,-4e-05,-4e-05,4
16763,17541,-1e-05,-1e-05,-0.00011,-0.00026000000000000003,-0.00011999999999999999,-5.9999999999999995e-05,-4e-05,-4e-05,4
16764,17542,-1e-05,-1e-05,-0.00011,-0.00026000000000000003,-0.00011999999999999999,-5.9999999999999995e-05,-4e-05,-4e-05,4
16765,17543,-1e-05,-1e-05,-0.00011,-0.00026000000000000003,-0.00011999999999999999,-5.9999999999999995e-05,-4e-05,-4e-05,4
16766,17544,-2.9999999999999997e-05,5e-05,0.0001,0.00018999999999999998,8e-05,7e-05,-2.9999999999999997e-05,-2e-05,4
16767,17545,-2.9999999999999997e-05,5e-05,0.0001,0.00018999999999999998,8e-05,7e-05,-2.9999999999999997e-05,-2e-05,4
16768,17546,-2.9999999999999997e-05,5e-05,0.0001,0.00018999999999999998,8e-05,7e-05,-2.9999999999999997e-05,-2e-05,4
16769,17547,-2.9999999999999997e-05,5e-05,0.0001,0.00018999999999999998,8e-05,7e-05,-2.9999999999999997e-05,-2e-05,4
16770,17548,-2.9999999999999997e-05,5e-05,0.0001,0.00018999999999999998,8e-05,7e-05,-2.9999999999999997e-05,-2e-05,4
16771,17549,-2.9999999999999997e-05,5e-05,0.0001,0.00018999999999999998,8e-05,7e-05,-2.9999999999999997e-05,-2e-05,4
16772,17550,-2.9999999999999997e-05,5e-05,0.0001,0.00018999999999999998,8e-05,7e-05,-2.9999999999999997e-05,-2e-05,4
16773,17551,-2.9999999999999997e-05,5e-05,0.0001,0.00018999999999999998,8e-05,7e-05,-2.9999999999999997e-05,-2e-05,4
16774,17552,-2.9999999999999997e-05,5e-05,0.0001,0.00018999999999999998,8e-05,7e-05,-2.9999999999999997e-05,-2e-05,4
16775,17553,-2.9999999999999997e-05,5e-05,0.0001,0.00018999999999999998,8e-05,7e-05,-2.9999999999999997e-05,-2e-05,4
16776,17554,-2.9999999999999997e-05,5e-05,0.0001,0.00018999999999999998,8e-05,7e-05,-2.9999999999999997e-05,-2e-05,4
16777,17555,-2.9999999999999997e-05,5e-05,0.0001,0.00018999999999999998,8e-05,7e-05,-2.9999999999999997e-05,-2e-05,4
16778,17556,-2.9999999999999997e-05,5e-05,0.0001,0.00018999999999999998,8e-05,7e-05,-2.9999999999999997e-05,-2e-05,4
16779,17557,-2.9999999999999997e-05,5e-05,0.0001,0.00018999999999999998,8e-05,7e-05,-2.9999999999999997e-05,-2e-05,4
16780,17558,-2.9999999999999997e-05,5e-05,0.0001,0.00018999999999999998,8e-05,7e-05,-2.9999999999999997e-05,-2e-05,4
16781,17559,1e-05,0.0,-4e-05,-2e-05,0.00026000000000000003,8e-05,2e-05,1e-05,4
16782,17560,7e-05,0.00011,0.0002,0.00073,-0.0007599999999999999,0.00015,7e-05,4e-05,4
16783,17561,-4e-05,-4e-05,-5.9999999999999995e-05,-0.00043,-0.00036,0.00014,-2e-05,0.0,4
16784,17562,-4e-05,-4e-05,-5.9999999999999995e-05,-0.00043,-0.00036,0.00014,-2e-05,0.0,4
16785,17563,-4e-05,-4e-05,-5.9999999999999995e-05,-0.00043,-0.00036,0.00014,-2e-05,0.0,4
16786,17564,-4e-05,-4e-05,-5.9999999999999995e-05,-0.00043,-0.00036,0.00014,-2e-05,0.0,4
16787,17565,-4e-05,-4e-05,-5.9999999999999995e-05,-0.00043,-0.00036,0.00014,-2e-05,0.0,4
16788,17566,-4e-05,-4e-05,-5.9999999999999995e-05,-0.00043,-0.00036,0.00014,-2e-05,0.0,4
16789,17567,-4e-05,-4e-05,-5.9999999999999995e-05,-0.00043,-0.00036,0.00014,-2e-05,0.0,4
16790,17568,-4e-05,-4e-05,-5.9999999999999995e-05,-0.00043,-0.00036,0.00014,-2e-05,0.0,4
16791,17569,-4e-05,-4e-05,-5.9999999999999995e-05,-0.00043,-0.00036,0.00014,-2e-05,0.0,4
16792,17570,-4e-05,-4e-05,-5.9999999999999995e-05,-0.00043,-0.00036,0.00014,-2e-05,0.0,4
16793,17571,-4e-05,-4e-05,-5.9999999999999995e-05,-0.00043,-0.00036,0.00014,-2e-05,0.0,4
16794,17572,-4e-05,-4e-05,-5.9999999999999995e-05,-0.00043,-0.00036,0.00014,-2e-05,0.0,4
16795,17573,-4e-05,-4e-05,-5.9999999999999995e-05,-0.00043,-0.00036,0.00014,-2e-05,0.0,4
16796,17574,-4e-05,-4e-05,-5.9999999999999995e-05,-0.00043,-0.00036,0.00014,-2e-05,0.0,4
16797,17575,-4e-05,-4e-05,-5.9999999999999995e-05,-0.00043,-0.00036,0.00014,-2e-05,0.0,4
16798,17576,-4e-05,-4e-05,-5.9999999999999995e-05,-0.00043,-0.00036,0.00014,-2e-05,0.0,4
16799,17577,-4e-05,-4e-05,-5.9999999999999995e-05,-0.00043,-0.00036,0.00014,-2e-05,0.0,4
16800,17578,-4e-05,-4e-05,-5.9999999999999995e-05,-0.00043,-0.00036,0.00014,-2e-05,0.0,4
16801,17579,-4e-05,-4e-05,-5.9999999999999995e-05,-0.00043,-0.00036,0.00014,-2e-05,0.0,4
16802,17580,-4e-05,-4e-05,-5.9999999999999995e-05,-0.00043,-0.00036,0.00014,-2e-05,0.0,4
16803,17581,-1e-05,-1e-05,-8e-05,5.9999999999999995e-05,5e-05,-0.0001,-4e-05,-5e-05,4
16804,17582,-1e-05,1e-05,0.0001,0.00014,0.00022999999999999998,-2e-05,-1e-05,2e-05,4
16805,17583,-1e-05,-8e-05,-5.9999999999999995e-05,-0.00022,-0.00042,-0.00029,-7e-05,-4e-05,4
16806,17584,-1e-05,-8e-05,-5.9999999999999995e-05,-0.00022,-0.00042,-0.00029,-7e-05,-4e-05,4
16807,17585,-1e-05,-8e-05,-5.9999999999999995e-05,-0.00022,-0.00042,-0.00029,-7e-05,-4e-05,4
16808,17586,-1e-05,-8e-05,-5.9999999999999995e-05,-0.00022,-0.00042,-0.00029,-7e-05,-4e-05,4
16809,17588,-1e-05,-8e-05,-5.9999999999999995e-05,-0.00022,-0.00042,-0.00029,-7e-05,-4e-05,4
16810,17589,-1e-05,-8e-05,-5.9999999999999995e-05,-0.00022,-0.00042,-0.00029,-7e-05,-4e-05,4
16811,17590,-1e-05,-8e-05,-5.9999999999999995e-05,-0.00022,-0.00042,-0.00029,-7e-05,-4e-05,4
16812,17591,-1e-05,-8e-05,-5.9999999999999995e-05,-0.00022,-0.00042,-0.00029,-7e-05,-4e-05,4
16813,17592,-1e-05,-8e-05,-5.9999999999999995e-05,-0.00022,-0.00042,-0.00029,-7e-05,-4e-05,4
16814,17593,-1e-05,-8e-05,-5.9999999999999995e-05,-0.00022,-0.00042,-0.00029,-7e-05,-4e-05,4
16815,17594,-1e-05,-8e-05,-5.9999999999999995e-05,-0.00022,-0.00042,-0.00029,-7e-05,-4e-05,4
16816,17595,-1e-05,-8e-05,-5.9999999999999995e-05,-0.00022,-0.00042,-0.00029,-7e-05,-4e-05,4
16817,17596,-1e-05,2e-05,2e-05,-0.0001,0.00045,0.0003,2.9999999999999997e-05,0.0,4
16818,17597,-1e-05,2e-05,2e-05,-0.0001,0.00045,0.0003,2.9999999999999997e-05,0.0,4
16819,17598,-1e-05,2e-05,2e-05,-0.0001,0.00045,0.0003,2.9999999999999997e-05,0.0,4
16820,17599,-1e-05,2e-05,2e-05,-0.0001,0.00045,0.0003,2.9999999999999997e-05,0.0,4
16821,17600,-1e-05,2e-05,2e-05,-0.0001,0.00045,0.0003,2.9999999999999997e-05,0.0,4
16822,17601,-1e-05,2e-05,2e-05,-0.0001,0.00045,0.0003,2.9999999999999997e-05,0.0,4
16823,17602,-1e-05,2e-05,2e-05,-0.0001,0.00045,0.0003,2.9999999999999997e-05,0.0,4
16824,17603,-1e-05,2e-05,2e-05,-0.0001,0.00045,0.0003,2.9999999999999997e-05,0.0,4
16825,17604,-2.9999999999999997e-05,-5e-05,-9e-05,-4e-05,-0.00043,0.00011,0.0,0.0,4
16826,17605,-2.9999999999999997e-05,-5e-05,-9e-05,-4e-05,-0.00043,0.00011,0.0,0.0,4
16827,17606,-2.9999999999999997e-05,-5e-05,-9e-05,-4e-05,-0.00043,0.00011,0.0,0.0,4
16828,17607,-2.9999999999999997e-05,-5e-05,-9e-05,-4e-05,-0.00043,0.00011,0.0,0.0,4
16829,17608,-2.9999999999999997e-05,-5e-05,-9e-05,-4e-05,-0.00043,0.00011,0.0,0.0,4
16830,17609,-2.9999999999999997e-05,-5e-05,-9e-05,-4e-05,-0.00043,0.00011,0.0,0.0,4
16831,17610,-2.9999999999999997e-05,-5e-05,-9e-05,-4e-05,-0.00043,0.00011,0.0,0.0,4
16832,17611,-2.9999999999999997e-05,-5e-05,-9e-05,-4e-05,-0.00043,0.00011,0.0,0.0,4
16833,17612,-2.9999999999999997e-05,-5e-05,-9e-05,-4e-05,-0.00043,0.00011,0.0,0.0,4
16834,17613,-2.9999999999999997e-05,-5e-05,-9e-05,-4e-05,-0.00043,0.00011,0.0,0.0,4
16835,17614,-2.9999999999999997e-05,-5e-05,-9e-05,-4e-05,-0.00043,0.00011,0.0,0.0,4
16836,17615,-2.9999999999999997e-05,-5e-05,-9e-05,-4e-05,-0.00043,0.00011,0.0,0.0,4
16837,17616,-2.9999999999999997e-05,-5e-05,-9e-05,-4e-05,-0.00043,0.00011,0.0,0.0,4
16838,17617,-2.9999999999999997e-05,-5e-05,-9e-05,-4e-05,-0.00043,0.00011,0.0,0.0,4
16839,17618,-2.9999999999999997e-05,-5e-05,-9e-05,-4e-05,-0.00043,0.00011,0.0,0.0,4
16840,17619,-2e-05,4e-05,0.00016,0.0004,-0.00032,-0.00011999999999999999,-5.9999999999999995e-05,-2e-05,4
16841,17620,-2e-05,4e-05,0.00016,0.0004,-0.00032,-0.00011999999999999999,-5.9999999999999995e-05,-2e-05,4
16842,17621,5e-05,-1e-05,0.00011999999999999999,0.00014,0.00062,0.00018999999999999998,0.0001,5.9999999999999995e-05,4
16843,17622,5e-05,-1e-05,0.00011999999999999999,0.00014,0.00062,0.00018999999999999998,0.0001,5.9999999999999995e-05,4
16844,17623,5e-05,-1e-05,0.00011999999999999999,0.00014,0.00062,0.00018999999999999998,0.0001,5.9999999999999995e-05,4
16845,17624,5e-05,-1e-05,0.00011999999999999999,0.00014,0.00062,0.00018999999999999998,0.0001,5.9999999999999995e-05,4
16846,17625,5e-05,-1e-05,0.00011999999999999999,0.00014,0.00062,0.00018999999999999998,0.0001,5.9999999999999995e-05,4
16847,17626,5e-05,-1e-05,0.00011999999999999999,0.00014,0.00062,0.00018999999999999998,0.0001,5.9999999999999995e-05,4
16848,17627,5e-05,-1e-05,0.00011999999999999999,0.00014,0.00062,0.00018999999999999998,0.0001,5.9999999999999995e-05,4
16849,17628,5e-05,-1e-05,0.00011999999999999999,0.00014,0.00062,0.00018999999999999998,0.0001,5.9999999999999995e-05,4
16850,17629,5e-05,-1e-05,0.00011999999999999999,0.00014,0.00062,0.00018999999999999998,0.0001,5.9999999999999995e-05,4
16851,17630,5e-05,-1e-05,0.00011999999999999999,0.00014,0.00062,0.00018999999999999998,0.0001,5.9999999999999995e-05,4
16852,17631,5e-05,-1e-05,0.00011999999999999999,0.00014,0.00062,0.00018999999999999998,0.0001,5.9999999999999995e-05,4
16853,17632,5e-05,-1e-05,0.00011999999999999999,0.00014,0.00062,0.00018999999999999998,0.0001,5.9999999999999995e-05,4
16854,17633,5e-05,-1e-05,0.00011999999999999999,0.00014,0.00062,0.00018999999999999998,0.0001,5.9999999999999995e-05,4
16855,17634,5e-05,-1e-05,0.00011999999999999999,0.00014,0.00062,0.00018999999999999998,0.0001,5.9999999999999995e-05,4
16856,17635,5e-05,-1e-05,0.00011999999999999999,0.00014,0.00062,0.00018999999999999998,0.0001,5.9999999999999995e-05,4
16857,17636,5e-05,-1e-05,0.00011999999999999999,0.00014,0.00062,0.00018999999999999998,0.0001,5.9999999999999995e-05,4
16858,17638,5e-05,-1e-05,0.00011999999999999999,0.00014,0.00062,0.00018999999999999998,0.0001,5.9999999999999995e-05,4
16859,17639,5e-05,-1e-05,0.00011999999999999999,0.00014,0.00062,0.00018999999999999998,0.0001,5.9999999999999995e-05,4
16860,17640,5e-05,-1e-05,0.00011999999999999999,0.00014,0.00062,0.00018999999999999998,0.0001,5.9999999999999995e-05,4
16861,17641,-8e-05,-8e-05,-0.00011999999999999999,-0.00064,-0.00029,-2.9999999999999997e-05,-7e-05,-4e-05,4
16862,17642,0.0,-1e-05,2e-05,9e-05,0.00021,-0.00011,0.0,-2e-05,4
16863,17643,2e-05,-1e-05,-0.00013000000000000002,-2.9999999999999997e-05,0.0,-0.00018999999999999998,-2e-05,1e-05,4
16864,17644,2e-05,-1e-05,-0.00013000000000000002,-2.9999999999999997e-05,0.0,-0.00018999999999999998,-2e-05,1e-05,4
16865,17645,2e-05,-1e-05,-0.00013000000000000002,-2.9999999999999997e-05,0.0,-0.00018999999999999998,-2e-05,1e-05,4
16866,17646,2e-05,-1e-05,-0.00013000000000000002,-2.9999999999999997e-05,0.0,-0.00018999999999999998,-2e-05,1e-05,4
16867,17647,2e-05,-1e-05,-0.00013000000000000002,-2.9999999999999997e-05,0.0,-0.00018999999999999998,-2e-05,1e-05,4
16868,17648,2e-05,-1e-05,-0.00013000000000000002,-2.9999999999999997e-05,0.0,-0.00018999999999999998,-2e-05,1e-05,4
16869,17649,2e-05,-1e-05,-0.00013000000000000002,-2.9999999999999997e-05,0.0,-0.00018999999999999998,-2e-05,1e-05,4
16870,17650,2e-05,-1e-05,-0.00013000000000000002,-2.9999999999999997e-05,0.0,-0.00018999999999999998,-2e-05,1e-05,4
16871,17651,2e-05,-1e-05,-0.00013000000000000002,-2.9999999999999997e-05,0.0,-0.00018999999999999998,-2e-05,1e-05,4
16872,17652,2e-05,-1e-05,-0.00013000000000000002,-2.9999999999999997e-05,0.0,-0.00018999999999999998,-2e-05,1e-05,4
16873,17653,2e-05,-1e-05,-0.00013000000000000002,-2.9999999999999997e-05,0.0,-0.00018999999999999998,-2e-05,1e-05,4
16874,17654,2e-05,-1e-05,-0.00013000000000000002,-2.9999999999999997e-05,0.0,-0.00018999999999999998,-2e-05,1e-05,4
16875,17655,0.0,-2.9999999999999997e-05,-2e-05,-8e-05,-5e-05,1e-05,-5e-05,-2.9999999999999997e-05,4
16876,17656,0.0,-2.9999999999999997e-05,-2e-05,-8e-05,-5e-05,1e-05,-5e-05,-2.9999999999999997e-05,4
16877,17657,0.0,-2.9999999999999997e-05,-2e-05,-8e-05,-5e-05,1e-05,-5e-05,-2.9999999999999997e-05,4
16878,17658,0.0,-2.9999999999999997e-05,-2e-05,-8e-05,-5e-05,1e-05,-5e-05,-2.9999999999999997e-05,4
16879,17659,0.0,-2.9999999999999997e-05,-2e-05,-8e-05,-5e-05,1e-05,-5e-05,-2.9999999999999997e-05,4
16880,17660,0.0,-2.9999999999999997e-05,-2e-05,-8e-05,-5e-05,1e-05,-5e-05,-2.9999999999999997e-05,4
16881,17661,0.0,-2.9999999999999997e-05,-2e-05,-8e-05,-5e-05,1e-05,-5e-05,-2.9999999999999997e-05,4
16882,17662,0.0,-2.9999999999999997e-05,-2e-05,-8e-05,-5e-05,1e-05,-5e-05,-2.9999999999999997e-05,4
16883,17663,0.0,-2.9999999999999997e-05,-2e-05,-8e-05,-5e-05,1e-05,-5e-05,-2.9999999999999997e-05,4
16884,17664,-2.9999999999999997e-05,-5.9999999999999995e-05,-0.00018,-0.00055,-0.0007,-0.00029,-5e-05,-5.9999999999999995e-05,4
16885,17665,-2.9999999999999997e-05,-5.9999999999999995e-05,-0.00018,-0.00055,-0.0007,-0.00029,-5e-05,-5.9999999999999995e-05,4
16886,17666,-2.9999999999999997e-05,-5.9999999999999995e-05,-0.00018,-0.00055,-0.0007,-0.00029,-5e-05,-5.9999999999999995e-05,4
16887,17667,-2.9999999999999997e-05,-5.9999999999999995e-05,-0.00018,-0.00055,-0.0007,-0.00029,-5e-05,-5.9999999999999995e-05,4
16888,17668,-2.9999999999999997e-05,-5.9999999999999995e-05,-0.00018,-0.00055,-0.0007,-0.00029,-5e-05,-5.9999999999999995e-05,4
16889,17669,-2.9999999999999997e-05,-5.9999999999999995e-05,-0.00018,-0.00055,-0.0007,-0.00029,-5e-05,-5.9999999999999995e-05,4
16890,17670,-2.9999999999999997e-05,-5.9999999999999995e-05,-0.00018,-0.00055,-0.0007,-0.00029,-5e-05,-5.9999999999999995e-05,4
16891,17671,-2.9999999999999997e-05,-5.9999999999999995e-05,-0.00018,-0.00055,-0.0007,-0.00029,-5e-05,-5.9999999999999995e-05,4
16892,17672,-2.9999999999999997e-05,-5.9999999999999995e-05,-0.00018,-0.00055,-0.0007,-0.00029,-5e-05,-5.9999999999999995e-05,4
16893,17673,-2.9999999999999997e-05,-5.9999999999999995e-05,-0.00018,-0.00055,-0.0007,-0.00029,-5e-05,-5.9999999999999995e-05,4
16894,17674,-2.9999999999999997e-05,-5.9999999999999995e-05,-0.00018,-0.00055,-0.0007,-0.00029,-5e-05,-5.9999999999999995e-05,4
16895,17675,-2.9999999999999997e-05,-5.9999999999999995e-05,-0.00018,-0.00055,-0.0007,-0.00029,-5e-05,-5.9999999999999995e-05,4
16896,17676,-2.9999999999999997e-05,-5.9999999999999995e-05,-0.00018,-0.00055,-0.0007,-0.00029,-5e-05,-5.9999999999999995e-05,4
16897,17677,-2.9999999999999997e-05,-5.9999999999999995e-05,-0.00018,-0.00055,-0.0007,-0.00029,-5e-05,-5.9999999999999995e-05,4
16898,17678,-2.9999999999999997e-05,-5.9999999999999995e-05,-0.00018,-0.00055,-0.0007,-0.00029,-5e-05,-5.9999999999999995e-05,4
16899,17679,2e-05,2e-05,-0.00011,-0.00047999999999999996,-0.00047000000000000004,-0.00011,-1e-05,2e-05,4
16900,17680,1e-05,1e-05,4e-05,0.00047999999999999996,0.00011,-4e-05,4e-05,2e-05,4
16901,17681,-4e-05,-2.9999999999999997e-05,7e-05,7e-05,-0.00026000000000000003,2.9999999999999997e-05,-4e-05,-5.9999999999999995e-05,4
16902,17682,-4e-05,-2.9999999999999997e-05,7e-05,7e-05,-0.00026000000000000003,2.9999999999999997e-05,-4e-05,-5.9999999999999995e-05,4
16903,17683,-4e-05,-2.9999999999999997e-05,7e-05,7e-05,-0.00026000000000000003,2.9999999999999997e-05,-4e-05,-5.9999999999999995e-05,4
16904,17684,-4e-05,-2.9999999999999997e-05,7e-05,7e-05,-0.00026000000000000003,2.9999999999999997e-05,-4e-05,-5.9999999999999995e-05,4
16905,17685,-4e-05,-2.9999999999999997e-05,7e-05,7e-05,-0.00026000000000000003,2.9999999999999997e-05,-4e-05,-5.9999999999999995e-05,4
16906,17686,-4e-05,-2.9999999999999997e-05,7e-05,7e-05,-0.00026000000000000003,2.9999999999999997e-05,-4e-05,-5.9999999999999995e-05,4
16907,17688,-4e-05,-2.9999999999999997e-05,7e-05,7e-05,-0.00026000000000000003,2.9999999999999997e-05,-4e-05,-5.9999999999999995e-05,4
16908,17689,-4e-05,-2.9999999999999997e-05,7e-05,7e-05,-0.00026000000000000003,2.9999999999999997e-05,-4e-05,-5.9999999999999995e-05,4
16909,17690,-4e-05,-2.9999999999999997e-05,7e-05,7e-05,-0.00026000000000000003,2.9999999999999997e-05,-4e-05,-5.9999999999999995e-05,4
16910,17691,-4e-05,-2.9999999999999997e-05,7e-05,7e-05,-0.00026000000000000003,2.9999999999999997e-05,-4e-05,-5.9999999999999995e-05,4
16911,17692,-4e-05,-2.9999999999999997e-05,7e-05,7e-05,-0.00026000000000000003,2.9999999999999997e-05,-4e-05,-5.9999999999999995e-05,4
16912,17693,-4e-05,-2.9999999999999997e-05,7e-05,7e-05,-0.00026000000000000003,2.9999999999999997e-05,-4e-05,-5.9999999999999995e-05,4
16913,17694,-4e-05,-2.9999999999999997e-05,7e-05,7e-05,-0.00026000000000000003,2.9999999999999997e-05,-4e-05,-5.9999999999999995e-05,4
16914,17695,-4e-05,-2.9999999999999997e-05,7e-05,7e-05,-0.00026000000000000003,2.9999999999999997e-05,-4e-05,-5.9999999999999995e-05,4
16915,17696,-4e-05,-2.9999999999999997e-05,7e-05,7e-05,-0.00026000000000000003,2.9999999999999997e-05,-4e-05,-5.9999999999999995e-05,4
16916,17697,-4e-05,-2.9999999999999997e-05,7e-05,7e-05,-0.00026000000000000003,2.9999999999999997e-05,-4e-05,-5.9999999999999995e-05,4
16917,17698,-4e-05,-2.9999999999999997e-05,7e-05,7e-05,-0.00026000000000000003,2.9999999999999997e-05,-4e-05,-5.9999999999999995e-05,4
16918,17699,-4e-05,-2.9999999999999997e-05,7e-05,7e-05,-0.00026000000000000003,2.9999999999999997e-05,-4e-05,-5.9999999999999995e-05,4
16919,17700,-4e-05,-2.9999999999999997e-05,7e-05,7e-05,-0.00026000000000000003,2.9999999999999997e-05,-4e-05,-5.9999999999999995e-05,4
16920,17701,-1e-05,-1e-05,-2e-05,4e-05,0.0004,0.00018999999999999998,4e-05,2e-05,4
16921,17702,-1e-05,-1e-05,-2e-05,4e-05,0.0004,0.00018999999999999998,4e-05,2e-05,4
16922,17703,0.0,5e-05,0.00011999999999999999,0.00095,0.00057,-0.00013000000000000002,-1e-05,0.0,4
16923,17704,0.0,5e-05,0.00011999999999999999,0.00095,0.00057,-0.00013000000000000002,-1e-05,0.0,4
16924,17705,0.0,5e-05,0.00011999999999999999,0.00095,0.00057,-0.00013000000000000002,-1e-05,0.0,4
16925,17706,0.0,5e-05,0.00011999999999999999,0.00095,0.00057,-0.00013000000000000002,-1e-05,0.0,4
16926,17707,0.0,5e-05,0.00011999999999999999,0.00095,0.00057,-0.00013000000000000002,-1e-05,0.0,4
16927,17708,0.0,5e-05,0.00011999999999999999,0.00095,0.00057,-0.00013000000000000002,-1e-05,0.0,4
16928,17709,0.0,5e-05,0.00011999999999999999,0.00095,0.00057,-0.00013000000000000002,-1e-05,0.0,4
16929,17710,0.0,5e-05,0.00011999999999999999,0.00095,0.00057,-0.00013000000000000002,-1e-05,0.0,4
16930,17711,0.0,5e-05,0.00011999999999999999,0.00095,0.00057,-0.00013000000000000002,-1e-05,0.0,4
16931,17712,0.0,5e-05,0.00011999999999999999,0.00095,0.00057,-0.00013000000000000002,-1e-05,0.0,4
16932,17713,0.0,5e-05,0.00011999999999999999,0.00095,0.00057,-0.00013000000000000002,-1e-05,0.0,4
16933,17714,0.0,5e-05,0.00011999999999999999,0.00095,0.00057,-0.00013000000000000002,-1e-05,0.0,4
16934,17715,0.0,5e-05,0.00011999999999999999,0.00095,0.00057,-0.00013000000000000002,-1e-05,0.0,4
16935,17716,0.0,5e-05,0.00011999999999999999,0.00095,0.00057,-0.00013000000000000002,-1e-05,0.0,4
16936,17717,0.0,5e-05,0.00011999999999999999,0.00095,0.00057,-0.00013000000000000002,-1e-05,0.0,4
16937,17718,0.0,5e-05,0.00011999999999999999,0.00095,0.00057,-0.00013000000000000002,-1e-05,0.0,4
16938,17719,0.0,5e-05,0.00011999999999999999,0.00095,0.00057,-0.00013000000000000002,-1e-05,0.0,4
16939,17720,0.0,5e-05,0.00011999999999999999,0.00095,0.00057,-0.00013000000000000002,-1e-05,0.0,4
16940,17721,0.0,5e-05,0.00011999999999999999,0.00095,0.00057,-0.00013000000000000002,-1e-05,0.0,4
16941,17722,0.0,5e-05,0.00011999999999999999,0.00095,0.00057,-0.00013000000000000002,-1e-05,0.0,4
16942,17723,0.0,5e-05,0.00011999999999999999,0.00095,0.00057,-0.00013000000000000002,-1e-05,0.0,4
16943,17724,-5e-05,-2e-05,8e-05,0.00079,0.0005200000000000001,2.9999999999999997e-05,-2.9999999999999997e-05,-5e-05,4
16944,17725,4e-05,1e-05,-9e-05,-0.00041,-0.00021,0.00011999999999999999,5e-05,5.9999999999999995e-05,4
16945,17726,-2e-05,5.9999999999999995e-05,0.00016999999999999999,0.00047000000000000004,0.0,-5.9999999999999995e-05,-2e-05,-2e-05,4
16946,17727,-2e-05,5.9999999999999995e-05,0.00016999999999999999,0.00047000000000000004,0.0,-5.9999999999999995e-05,-2e-05,-2e-05,4
16947,17728,-2e-05,5.9999999999999995e-05,0.00016999999999999999,0.00047000000000000004,0.0,-5.9999999999999995e-05,-2e-05,-2e-05,4
16948,17729,-2e-05,5.9999999999999995e-05,0.00016999999999999999,0.00047000000000000004,0.0,-5.9999999999999995e-05,-2e-05,-2e-05,4
16949,17730,-2e-05,5.9999999999999995e-05,0.00016999999999999999,0.00047000000000000004,0.0,-5.9999999999999995e-05,-2e-05,-2e-05,4
16950,17731,-2e-05,5.9999999999999995e-05,0.00016999999999999999,0.00047000000000000004,0.0,-5.9999999999999995e-05,-2e-05,-2e-05,4
16951,17732,-2e-05,5.9999999999999995e-05,0.00016999999999999999,0.00047000000000000004,0.0,-5.9999999999999995e-05,-2e-05,-2e-05,4
16952,17733,-2e-05,5.9999999999999995e-05,0.00016999999999999999,0.00047000000000000004,0.0,-5.9999999999999995e-05,-2e-05,-2e-05,4
16953,17734,-2e-05,5.9999999999999995e-05,0.00016999999999999999,0.00047000000000000004,0.0,-5.9999999999999995e-05,-2e-05,-2e-05,4
16954,17735,-2e-05,5.9999999999999995e-05,0.00016999999999999999,0.00047000000000000004,0.0,-5.9999999999999995e-05,-2e-05,-2e-05,4
16955,17736,-2e-05,5.9999999999999995e-05,0.00016999999999999999,0.00047000000000000004,0.0,-5.9999999999999995e-05,-2e-05,-2e-05,4
16956,17738,-2e-05,5.9999999999999995e-05,0.00016999999999999999,0.00047000000000000004,0.0,-5.9999999999999995e-05,-2e-05,-2e-05,4
16957,17739,-1e-05,-5.9999999999999995e-05,-0.00023999999999999998,-0.0009199999999999999,-0.00047000000000000004,-1e-05,-5e-05,-2.9999999999999997e-05,4
16958,17740,4e-05,4e-05,0.00023999999999999998,0.00063,0.00045,1e-05,1e-05,0.0,4
16959,17741,-5e-05,-4e-05,-7e-05,-0.00032,-0.00016,-8e-05,-4e-05,-2.9999999999999997e-05,4
16960,17742,-5e-05,-4e-05,-7e-05,-0.00032,-0.00016,-8e-05,-4e-05,-2.9999999999999997e-05,4
16961,17743,-5e-05,-4e-05,-7e-05,-0.00032,-0.00016,-8e-05,-4e-05,-2.9999999999999997e-05,4
16962,17744,-5e-05,-4e-05,-7e-05,-0.00032,-0.00016,-8e-05,-4e-05,-2.9999999999999997e-05,4
16963,17745,-5e-05,-4e-05,-7e-05,-0.00032,-0.00016,-8e-05,-4e-05,-2.9999999999999997e-05,4
16964,17746,-5e-05,-4e-05,-7e-05,-0.00032,-0.00016,-8e-05,-4e-05,-2.9999999999999997e-05,4
16965,17747,-5e-05,-4e-05,-7e-05,-0.00032,-0.00016,-8e-05,-4e-05,-2.9999999999999997e-05,4
16966,17748,-5e-05,-4e-05,-7e-05,-0.00032,-0.00016,-8e-05,-4e-05,-2.9999999999999997e-05,4
16967,17749,-5e-05,-4e-05,-7e-05,-0.00032,-0.00016,-8e-05,-4e-05,-2.9999999999999997e-05,4
16968,17750,-5e-05,-4e-05,-7e-05,-0.00032,-0.00016,-8e-05,-4e-05,-2.9999999999999997e-05,4
16969,17751,-5e-05,-4e-05,-7e-05,-0.00032,-0.00016,-8e-05,-4e-05,-2.9999999999999997e-05,4
16970,17752,-5e-05,-4e-05,-7e-05,-0.00032,-0.00016,-8e-05,-4e-05,-2.9999999999999997e-05,4
16971,17753,-5e-05,-4e-05,-7e-05,-0.00032,-0.00016,-8e-05,-4e-05,-2.9999999999999997e-05,4
16972,17754,-5e-05,-4e-05,-7e-05,-0.00032,-0.00016,-8e-05,-4e-05,-2.9999999999999997e-05,4
16973,17755,-5e-05,-4e-05,-7e-05,-0.00032,-0.00016,-8e-05,-4e-05,-2.9999999999999997e-05,4
16974,17756,-5e-05,-4e-05,-7e-05,-0.00032,-0.00016,-8e-05,-4e-05,-2.9999999999999997e-05,4
16975,17757,-5e-05,-4e-05,-7e-05,-0.00032,-0.00016,-8e-05,-4e-05,-2.9999999999999997e-05,4
16976,17758,-5e-05,-4e-05,-7e-05,-0.00032,-0.00016,-8e-05,-4e-05,-2.9999999999999997e-05,4
16977,17759,-5e-05,-4e-05,-7e-05,-0.00032,-0.00016,-8e-05,-4e-05,-2.9999999999999997e-05,4
16978,17760,-5e-05,-4e-05,-7e-05,-0.00032,-0.00016,-8e-05,-4e-05,-2.9999999999999997e-05,4
16979,17761,-4e-05,-2.9999999999999997e-05,2.9999999999999997e-05,-1e-05,0.00053,-2e-05,-5e-05,-5e-05,4
16980,17762,2.9999999999999997e-05,2e-05,2.9999999999999997e-05,-0.00033999999999999997,-0.00033999999999999997,-1e-05,0.0,2e-05,4
16981,17763,-4e-05,-0.00011999999999999999,-0.00026000000000000003,-0.00106,-0.0006900000000000001,-2e-05,-1e-05,-2e-05,4
16982,17764,-4e-05,-0.00011999999999999999,-0.00026000000000000003,-0.00106,-0.0006900000000000001,-2e-05,-1e-05,-2e-05,4
16983,17765,-4e-05,-0.00011999999999999999,-0.00026000000000000003,-0.00106,-0.0006900000000000001,-2e-05,-1e-05,-2e-05,4
16984,17766,-4e-05,-0.00011999999999999999,-0.00026000000000000003,-0.00106,-0.0006900000000000001,-2e-05,-1e-05,-2e-05,4
16985,17767,-4e-05,-0.00011999999999999999,-0.00026000000000000003,-0.00106,-0.0006900000000000001,-2e-05,-1e-05,-2e-05,4
16986,17768,-4e-05,-0.00011999999999999999,-0.00026000000000000003,-0.00106,-0.0006900000000000001,-2e-05,-1e-05,-2e-05,4
16987,17769,-4e-05,-0.00011999999999999999,-0.00026000000000000003,-0.00106,-0.0006900000000000001,-2e-05,-1e-05,-2e-05,4
16988,17770,-4e-05,-0.00011999999999999999,-0.00026000000000000003,-0.00106,-0.0006900000000000001,-2e-05,-1e-05,-2e-05,4
16989,17771,-4e-05,-0.00011999999999999999,-0.00026000000000000003,-0.00106,-0.0006900000000000001,-2e-05,-1e-05,-2e-05,4
16990,17772,-4e-05,-0.00011999999999999999,-0.00026000000000000003,-0.00106,-0.0006900000000000001,-2e-05,-1e-05,-2e-05,4
16991,17773,-4e-05,-0.00011999999999999999,-0.00026000000000000003,-0.00106,-0.0006900000000000001,-2e-05,-1e-05,-2e-05,4
16992,17774,-4e-05,-0.00011999999999999999,-0.00026000000000000003,-0.00106,-0.0006900000000000001,-2e-05,-1e-05,-2e-05,4
16993,17775,0.0,-1e-05,-2.9999999999999997e-05,-7e-05,-0.0006,0.0,-1e-05,0.0,4
16994,17776,0.0,-1e-05,-2.9999999999999997e-05,-7e-05,-0.0006,0.0,-1e-05,0.0,4
16995,17777,0.0,-1e-05,-2.9999999999999997e-05,-7e-05,-0.0006,0.0,-1e-05,0.0,4
16996,17778,0.0,-1e-05,-2.9999999999999997e-05,-7e-05,-0.0006,0.0,-1e-05,0.0,4
16997,17779,0.0,-1e-05,-2.9999999999999997e-05,-7e-05,-0.0006,0.0,-1e-05,0.0,4
16998,17780,0.0,-1e-05,-2.9999999999999997e-05,-7e-05,-0.0006,0.0,-1e-05,0.0,4
16999,17782,0.0,-1e-05,-2.9999999999999997e-05,-7e-05,-0.0006,0.0,-1e-05,0.0,4
17000,17783,0.0,-1e-05,-2.9999999999999997e-05,-7e-05,-0.0006,0.0,-1e-05,0.0,4
17001,17784,-2.9999999999999997e-05,-2e-05,2.9999999999999997e-05,-9e-05,0.00055,2e-05,2.9999999999999997e-05,1e-05,4
17002,17785,-2.9999999999999997e-05,-2e-05,2.9999999999999997e-05,-9e-05,0.00055,2e-05,2.9999999999999997e-05,1e-05,4
17003,17786,-2.9999999999999997e-05,-2e-05,2.9999999999999997e-05,-9e-05,0.00055,2e-05,2.9999999999999997e-05,1e-05,4
17004,17788,-2.9999999999999997e-05,-2e-05,2.9999999999999997e-05,-9e-05,0.00055,2e-05,2.9999999999999997e-05,1e-05,4
17005,17789,-2.9999999999999997e-05,-2e-05,2.9999999999999997e-05,-9e-05,0.00055,2e-05,2.9999999999999997e-05,1e-05,4
17006,17790,-2.9999999999999997e-05,-2e-05,2.9999999999999997e-05,-9e-05,0.00055,2e-05,2.9999999999999997e-05,1e-05,4
17007,17791,-2.9999999999999997e-05,-2e-05,2.9999999999999997e-05,-9e-05,0.00055,2e-05,2.9999999999999997e-05,1e-05,4
17008,17792,-2.9999999999999997e-05,-2e-05,2.9999999999999997e-05,-9e-05,0.00055,2e-05,2.9999999999999997e-05,1e-05,4
17009,17793,-2.9999999999999997e-05,-2e-05,2.9999999999999997e-05,-9e-05,0.00055,2e-05,2.9999999999999997e-05,1e-05,4
17010,17794,-2.9999999999999997e-05,-2e-05,2.9999999999999997e-05,-9e-05,0.00055,2e-05,2.9999999999999997e-05,1e-05,4
17011,17795,-2.9999999999999997e-05,-2e-05,2.9999999999999997e-05,-9e-05,0.00055,2e-05,2.9999999999999997e-05,1e-05,4
17012,17796,-2.9999999999999997e-05,-2e-05,2.9999999999999997e-05,-9e-05,0.00055,2e-05,2.9999999999999997e-05,1e-05,4
17013,17797,-2.9999999999999997e-05,-2e-05,2.9999999999999997e-05,-9e-05,0.00055,2e-05,2.9999999999999997e-05,1e-05,4
17014,17798,-2.9999999999999997e-05,-2e-05,2.9999999999999997e-05,-9e-05,0.00055,2e-05,2.9999999999999997e-05,1e-05,4
17015,17799,5.9999999999999995e-05,0.0001,0.00011,-4e-05,-0.00041,-4e-05,5.9999999999999995e-05,8e-05,4
17016,17800,5.9999999999999995e-05,0.0001,0.00011,-4e-05,-0.00041,-4e-05,5.9999999999999995e-05,8e-05,4
17017,17801,4e-05,0.00011999999999999999,0.00018,0.00112,0.0006900000000000001,0.00015,4e-05,2.9999999999999997e-05,4
17018,17802,4e-05,0.00011999999999999999,0.00018,0.00112,0.0006900000000000001,0.00015,4e-05,2.9999999999999997e-05,4
17019,17803,4e-05,0.00011999999999999999,0.00018,0.00112,0.0006900000000000001,0.00015,4e-05,2.9999999999999997e-05,4
17020,17804,4e-05,0.00011999999999999999,0.00018,0.00112,0.0006900000000000001,0.00015,4e-05,2.9999999999999997e-05,4
17021,17805,4e-05,0.00011999999999999999,0.00018,0.00112,0.0006900000000000001,0.00015,4e-05,2.9999999999999997e-05,4
17022,17806,4e-05,0.00011999999999999999,0.00018,0.00112,0.0006900000000000001,0.00015,4e-05,2.9999999999999997e-05,4
17023,17807,4e-05,0.00011999999999999999,0.00018,0.00112,0.0006900000000000001,0.00015,4e-05,2.9999999999999997e-05,4
17024,17808,4e-05,0.00011999999999999999,0.00018,0.00112,0.0006900000000000001,0.00015,4e-05,2.9999999999999997e-05,4
17025,17809,4e-05,0.00011999999999999999,0.00018,0.00112,0.0006900000000000001,0.00015,4e-05,2.9999999999999997e-05,4
17026,17810,4e-05,0.00011999999999999999,0.00018,0.00112,0.0006900000000000001,0.00015,4e-05,2.9999999999999997e-05,4
17027,17811,4e-05,0.00011999999999999999,0.00018,0.00112,0.0006900000000000001,0.00015,4e-05,2.9999999999999997e-05,4
17028,17812,4e-05,0.00011999999999999999,0.00018,0.00112,0.0006900000000000001,0.00015,4e-05,2.9999999999999997e-05,4
17029,17813,4e-05,0.00011999999999999999,0.00018,0.00112,0.0006900000000000001,0.00015,4e-05,2.9999999999999997e-05,4
17030,17814,4e-05,0.00011999999999999999,0.00018,0.00112,0.0006900000000000001,0.00015,4e-05,2.9999999999999997e-05,4
17031,17815,4e-05,0.00011999999999999999,0.00018,0.00112,0.0006900000000000001,0.00015,4e-05,2.9999999999999997e-05,4
17032,17816,4e-05,0.00011999999999999999,0.00018,0.00112,0.0006900000000000001,0.00015,4e-05,2.9999999999999997e-05,4
17033,17817,4e-05,0.00011999999999999999,0.00018,0.00112,0.0006900000000000001,0.00015,4e-05,2.9999999999999997e-05,4
17034,17818,4e-05,0.00011999999999999999,0.00018,0.00112,0.0006900000000000001,0.00015,4e-05,2.9999999999999997e-05,4
17035,17819,4e-05,0.00011999999999999999,0.00018,0.00112,0.0006900000000000001,0.00015,4e-05,2.9999999999999997e-05,4
17036,17820,4e-05,0.00011999999999999999,0.00018,0.00112,0.0006900000000000001,0.00015,4e-05,2.9999999999999997e-05,4
17037,17821,-1e-05,-4e-05,0.0,0.00027,0.00014,-7e-05,-2e-05,-4e-05,4
17038,17822,-1e-05,-4e-05,0.0,0.00027,0.00014,-7e-05,-2e-05,-4e-05,4
17039,17823,2e-05,0.0,-0.00011999999999999999,-0.00028,-0.0010199999999999999,2e-05,2.9999999999999997e-05,2.9999999999999997e-05,4
17040,17824,2e-05,0.0,-0.00011999999999999999,-0.00028,-0.0010199999999999999,2e-05,2.9999999999999997e-05,2.9999999999999997e-05,4
17041,17825,2e-05,0.0,-0.00011999999999999999,-0.00028,-0.0010199999999999999,2e-05,2.9999999999999997e-05,2.9999999999999997e-05,4
17042,17826,2e-05,0.0,-0.00011999999999999999,-0.00028,-0.0010199999999999999,2e-05,2.9999999999999997e-05,2.9999999999999997e-05,4
17043,17827,2e-05,0.0,-0.00011999999999999999,-0.00028,-0.0010199999999999999,2e-05,2.9999999999999997e-05,2.9999999999999997e-05,4
17044,17828,2e-05,0.0,-0.00011999999999999999,-0.00028,-0.0010199999999999999,2e-05,2.9999999999999997e-05,2.9999999999999997e-05,4
17045,17829,2e-05,0.0,-0.00011999999999999999,-0.00028,-0.0010199999999999999,2e-05,2.9999999999999997e-05,2.9999999999999997e-05,4
17046,17830,2e-05,0.0,-0.00011999999999999999,-0.00028,-0.0010199999999999999,2e-05,2.9999999999999997e-05,2.9999999999999997e-05,4
17047,17831,2e-05,0.0,-0.00011999999999999999,-0.00028,-0.0010199999999999999,2e-05,2.9999999999999997e-05,2.9999999999999997e-05,4
17048,17832,2e-05,0.0,-0.00011999999999999999,-0.00028,-0.0010199999999999999,2e-05,2.9999999999999997e-05,2.9999999999999997e-05,4
17049,17833,2e-05,0.0,-0.00011999999999999999,-0.00028,-0.0010199999999999999,2e-05,2.9999999999999997e-05,2.9999999999999997e-05,4
17050,17834,2e-05,0.0,-0.00011999999999999999,-0.00028,-0.0010199999999999999,2e-05,2.9999999999999997e-05,2.9999999999999997e-05,4
17051,17835,-5.9999999999999995e-05,-7e-05,4e-05,1e-05,-0.0001,-4e-05,-2e-05,-2e-05,4
17052,17836,-5.9999999999999995e-05,-7e-05,4e-05,1e-05,-0.0001,-4e-05,-2e-05,-2e-05,4
17053,17839,-5.9999999999999995e-05,-7e-05,4e-05,1e-05,-0.0001,-4e-05,-2e-05,-2e-05,4
17054,17840,-5.9999999999999995e-05,-7e-05,4e-05,1e-05,-0.0001,-4e-05,-2e-05,-2e-05,4
17055,17841,-5.9999999999999995e-05,-7e-05,4e-05,1e-05,-0.0001,-4e-05,-2e-05,-2e-05,4
17056,17842,-5.9999999999999995e-05,-7e-05,4e-05,1e-05,-0.0001,-4e-05,-2e-05,-2e-05,4
17057,17843,-5.9999999999999995e-05,-7e-05,4e-05,1e-05,-0.0001,-4e-05,-2e-05,-2e-05,4
17058,17844,-5.9999999999999995e-05,-0.00011,-0.00022,-0.0008300000000000001,-0.0010400000000000001,-7e-05,-5.9999999999999995e-05,-7e-05,4
17059,17845,-5.9999999999999995e-05,-0.00011,-0.00022,-0.0008300000000000001,-0.0010400000000000001,-7e-05,-5.9999999999999995e-05,-7e-05,4
17060,17846,-5.9999999999999995e-05,-0.00011,-0.00022,-0.0008300000000000001,-0.0010400000000000001,-7e-05,-5.9999999999999995e-05,-7e-05,4
17061,17847,-5.9999999999999995e-05,-0.00011,-0.00022,-0.0008300000000000001,-0.0010400000000000001,-7e-05,-5.9999999999999995e-05,-7e-05,4
17062,17848,-5.9999999999999995e-05,-0.00011,-0.00022,-0.0008300000000000001,-0.0010400000000000001,-7e-05,-5.9999999999999995e-05,-7e-05,4
17063,17849,-5.9999999999999995e-05,-0.00011,-0.00022,-0.0008300000000000001,-0.0010400000000000001,-7e-05,-5.9999999999999995e-05,-7e-05,4
17064,17850,-5.9999999999999995e-05,-0.00011,-0.00022,-0.0008300000000000001,-0.0010400000000000001,-7e-05,-5.9999999999999995e-05,-7e-05,4
17065,17851,-5.9999999999999995e-05,-0.00011,-0.00022,-0.0008300000000000001,-0.0010400000000000001,-7e-05,-5.9999999999999995e-05,-7e-05,4
17066,17852,-5.9999999999999995e-05,-0.00011,-0.00022,-0.0008300000000000001,-0.0010400000000000001,-7e-05,-5.9999999999999995e-05,-7e-05,4
17067,17853,-5.9999999999999995e-05,-0.00011,-0.00022,-0.0008300000000000001,-0.0010400000000000001,-7e-05,-5.9999999999999995e-05,-7e-05,4
17068,17854,-5.9999999999999995e-05,-0.00011,-0.00022,-0.0008300000000000001,-0.0010400000000000001,-7e-05,-5.9999999999999995e-05,-7e-05,4
17069,17855,-5.9999999999999995e-05,-0.00011,-0.00022,-0.0008300000000000001,-0.0010400000000000001,-7e-05,-5.9999999999999995e-05,-7e-05,4
17070,17856,-5.9999999999999995e-05,-0.00011,-0.00022,-0.0008300000000000001,-0.0010400000000000001,-7e-05,-5.9999999999999995e-05,-7e-05,4
17071,17857,-5.9999999999999995e-05,-0.00011,-0.00022,-0.0008300000000000001,-0.0010400000000000001,-7e-05,-5.9999999999999995e-05,-7e-05,4
17072,17858,-5.9999999999999995e-05,-0.00011,-0.00022,-0.0008300000000000001,-0.0010400000000000001,-7e-05,-5.9999999999999995e-05,-7e-05,4
17073,17859,-2.9999999999999997e-05,-2.9999999999999997e-05,2e-05,-0.00013000000000000002,0.00013000000000000002,-1e-05,-5e-05,-5e-05,4
17074,17860,-2.9999999999999997e-05,-2.9999999999999997e-05,2e-05,-0.00013000000000000002,0.00013000000000000002,-1e-05,-5e-05,-5e-05,4
17075,17861,-1e-05,-1e-05,8e-05,-1e-05,0.00015,-2e-05,-5.9999999999999995e-05,-4e-05,4
17076,17862,-1e-05,-1e-05,8e-05,-1e-05,0.00015,-2e-05,-5.9999999999999995e-05,-4e-05,4
17077,17863,-1e-05,-1e-05,8e-05,-1e-05,0.00015,-2e-05,-5.9999999999999995e-05,-4e-05,4
17078,17864,-1e-05,-1e-05,8e-05,-1e-05,0.00015,-2e-05,-5.9999999999999995e-05,-4e-05,4
17079,17865,-1e-05,-1e-05,8e-05,-1e-05,0.00015,-2e-05,-5.9999999999999995e-05,-4e-05,4
17080,17866,-1e-05,-1e-05,8e-05,-1e-05,0.00015,-2e-05,-5.9999999999999995e-05,-4e-05,4
17081,17867,-1e-05,-1e-05,8e-05,-1e-05,0.00015,-2e-05,-5.9999999999999995e-05,-4e-05,4
17082,17868,-1e-05,-1e-05,8e-05,-1e-05,0.00015,-2e-05,-5.9999999999999995e-05,-4e-05,4
17083,17869,-1e-05,-1e-05,8e-05,-1e-05,0.00015,-2e-05,-5.9999999999999995e-05,-4e-05,4
17084,17870,-1e-05,-1e-05,8e-05,-1e-05,0.00015,-2e-05,-5.9999999999999995e-05,-4e-05,4
17085,17871,-1e-05,-1e-05,8e-05,-1e-05,0.00015,-2e-05,-5.9999999999999995e-05,-4e-05,4
17086,17872,-1e-05,-1e-05,8e-05,-1e-05,0.00015,-2e-05,-5.9999999999999995e-05,-4e-05,4
17087,17873,-1e-05,-1e-05,8e-05,-1e-05,0.00015,-2e-05,-5.9999999999999995e-05,-4e-05,4
17088,17874,-1e-05,-1e-05,8e-05,-1e-05,0.00015,-2e-05,-5.9999999999999995e-05,-4e-05,4
17089,17875,-1e-05,-1e-05,8e-05,-1e-05,0.00015,-2e-05,-5.9999999999999995e-05,-4e-05,4
17090,17876,-1e-05,-1e-05,8e-05,-1e-05,0.00015,-2e-05,-5.9999999999999995e-05,-4e-05,4
17091,17877,-1e-05,-1e-05,8e-05,-1e-05,0.00015,-2e-05,-5.9999999999999995e-05,-4e-05,4
17092,17878,-1e-05,-1e-05,8e-05,-1e-05,0.00015,-2e-05,-5.9999999999999995e-05,-4e-05,4
17093,17879,-1e-05,-1e-05,8e-05,-1e-05,0.00015,-2e-05,-5.9999999999999995e-05,-4e-05,4
17094,17880,-1e-05,-1e-05,8e-05,-1e-05,0.00015,-2e-05,-5.9999999999999995e-05,-4e-05,4
17095,17881,-2e-05,-5e-05,-5e-05,0.00013000000000000002,2.9999999999999997e-05,9e-05,0.0,-2e-05,4
17096,17882,-2e-05,-5e-05,-5e-05,0.00013000000000000002,2.9999999999999997e-05,9e-05,0.0,-2e-05,4
17097,17883,2.9999999999999997e-05,7e-05,7e-05,0.00023999999999999998,4e-05,-0.00014,2e-05,2.9999999999999997e-05,4
17098,17884,2.9999999999999997e-05,7e-05,7e-05,0.00023999999999999998,4e-05,-0.00014,2e-05,2.9999999999999997e-05,4
17099,17885,2.9999999999999997e-05,7e-05,7e-05,0.00023999999999999998,4e-05,-0.00014,2e-05,2.9999999999999997e-05,4
17100,17886,2.9999999999999997e-05,7e-05,7e-05,0.00023999999999999998,4e-05,-0.00014,2e-05,2.9999999999999997e-05,4
17101,17889,2.9999999999999997e-05,7e-05,7e-05,0.00023999999999999998,4e-05,-0.00014,2e-05,2.9999999999999997e-05,4
17102,17890,2.9999999999999997e-05,7e-05,7e-05,0.00023999999999999998,4e-05,-0.00014,2e-05,2.9999999999999997e-05,4
17103,17891,2.9999999999999997e-05,7e-05,7e-05,0.00023999999999999998,4e-05,-0.00014,2e-05,2.9999999999999997e-05,4
17104,17892,2.9999999999999997e-05,7e-05,7e-05,0.00023999999999999998,4e-05,-0.00014,2e-05,2.9999999999999997e-05,4
17105,17893,2.9999999999999997e-05,7e-05,7e-05,0.00023999999999999998,4e-05,-0.00014,2e-05,2.9999999999999997e-05,4
17106,17894,2.9999999999999997e-05,7e-05,7e-05,0.00023999999999999998,4e-05,-0.00014,2e-05,2.9999999999999997e-05,4
17107,17895,2.9999999999999997e-05,7e-05,7e-05,0.00023999999999999998,4e-05,-0.00014,2e-05,2.9999999999999997e-05,4
17108,17896,2.9999999999999997e-05,7e-05,7e-05,0.00023999999999999998,4e-05,-0.00014,2e-05,2.9999999999999997e-05,4
17109,17897,2.9999999999999997e-05,7e-05,7e-05,0.00023999999999999998,4e-05,-0.00014,2e-05,2.9999999999999997e-05,4
17110,17898,2.9999999999999997e-05,7e-05,7e-05,0.00023999999999999998,4e-05,-0.00014,2e-05,2.9999999999999997e-05,4
17111,17899,2.9999999999999997e-05,7e-05,7e-05,0.00023999999999999998,4e-05,-0.00014,2e-05,2.9999999999999997e-05,4
17112,17900,2.9999999999999997e-05,7e-05,7e-05,0.00023999999999999998,4e-05,-0.00014,2e-05,2.9999999999999997e-05,4
17113,17901,2.9999999999999997e-05,7e-05,7e-05,0.00023999999999999998,4e-05,-0.00014,2e-05,2.9999999999999997e-05,4
17114,17902,2.9999999999999997e-05,7e-05,7e-05,0.00023999999999999998,4e-05,-0.00014,2e-05,2.9999999999999997e-05,4
17115,17903,2.9999999999999997e-05,7e-05,7e-05,0.00023999999999999998,4e-05,-0.00014,2e-05,2.9999999999999997e-05,4
17116,17904,-2e-05,-5e-05,-4e-05,-0.00079,-0.00032,-9e-05,-4e-05,-2e-05,4
17117,17905,-5.9999999999999995e-05,-7e-05,-0.0002,0.00011,0.00014,5e-05,-2e-05,-2.9999999999999997e-05,4
17118,17906,1e-05,-8e-05,-8e-05,-0.00023999999999999998,0.00023999999999999998,-0.00011,-5.9999999999999995e-05,-1e-05,4
17119,17907,1e-05,-8e-05,-8e-05,-0.00023999999999999998,0.00023999999999999998,-0.00011,-5.9999999999999995e-05,-1e-05,4
17120,17908,1e-05,-8e-05,-8e-05,-0.00023999999999999998,0.00023999999999999998,-0.00011,-5.9999999999999995e-05,-1e-05,4
17121,17909,1e-05,-8e-05,-8e-05,-0.00023999999999999998,0.00023999999999999998,-0.00011,-5.9999999999999995e-05,-1e-05,4
17122,17910,1e-05,-8e-05,-8e-05,-0.00023999999999999998,0.00023999999999999998,-0.00011,-5.9999999999999995e-05,-1e-05,4
17123,17911,1e-05,-8e-05,-8e-05,-0.00023999999999999998,0.00023999999999999998,-0.00011,-5.9999999999999995e-05,-1e-05,4
17124,17912,1e-05,-8e-05,-8e-05,-0.00023999999999999998,0.00023999999999999998,-0.00011,-5.9999999999999995e-05,-1e-05,4
17125,17913,1e-05,-8e-05,-8e-05,-0.00023999999999999998,0.00023999999999999998,-0.00011,-5.9999999999999995e-05,-1e-05,4
17126,17914,1e-05,-8e-05,-8e-05,-0.00023999999999999998,0.00023999999999999998,-0.00011,-5.9999999999999995e-05,-1e-05,4
17127,17915,1e-05,-8e-05,-8e-05,-0.00023999999999999998,0.00023999999999999998,-0.00011,-5.9999999999999995e-05,-1e-05,4
17128,17916,1e-05,-8e-05,-8e-05,-0.00023999999999999998,0.00023999999999999998,-0.00011,-5.9999999999999995e-05,-1e-05,4
17129,17917,1e-05,-8e-05,-8e-05,-0.00023999999999999998,0.00023999999999999998,-0.00011,-5.9999999999999995e-05,-1e-05,4
17130,17918,1e-05,-8e-05,-8e-05,-0.00023999999999999998,0.00023999999999999998,-0.00011,-5.9999999999999995e-05,-1e-05,4
17131,17919,2.9999999999999997e-05,5.9999999999999995e-05,-9e-05,4e-05,-0.00061,-0.00011999999999999999,2.9999999999999997e-05,4e-05,4
17132,17920,-7e-05,-0.00011999999999999999,-1e-05,0.00014,0.0009699999999999999,-7e-05,-8e-05,-5.9999999999999995e-05,4
17133,17921,0.0,-2e-05,2e-05,0.0003,-7e-05,-5e-05,-2.9999999999999997e-05,-1e-05,4
17134,17922,0.0,-2e-05,2e-05,0.0003,-7e-05,-5e-05,-2.9999999999999997e-05,-1e-05,4
17135,17923,0.0,-2e-05,2e-05,0.0003,-7e-05,-5e-05,-2.9999999999999997e-05,-1e-05,4
17136,17924,0.0,-2e-05,2e-05,0.0003,-7e-05,-5e-05,-2.9999999999999997e-05,-1e-05,4
17137,17925,0.0,-2e-05,2e-05,0.0003,-7e-05,-5e-05,-2.9999999999999997e-05,-1e-05,4
17138,17926,0.0,-2e-05,2e-05,0.0003,-7e-05,-5e-05,-2.9999999999999997e-05,-1e-05,4
17139,17927,0.0,-2e-05,2e-05,0.0003,-7e-05,-5e-05,-2.9999999999999997e-05,-1e-05,4
17140,17928,0.0,-2e-05,2e-05,0.0003,-7e-05,-5e-05,-2.9999999999999997e-05,-1e-05,4
17141,17929,0.0,-2e-05,2e-05,0.0003,-7e-05,-5e-05,-2.9999999999999997e-05,-1e-05,4
17142,17930,0.0,-2e-05,2e-05,0.0003,-7e-05,-5e-05,-2.9999999999999997e-05,-1e-05,4
17143,17931,0.0,-2e-05,2e-05,0.0003,-7e-05,-5e-05,-2.9999999999999997e-05,-1e-05,4
17144,17932,0.0,-2e-05,2e-05,0.0003,-7e-05,-5e-05,-2.9999999999999997e-05,-1e-05,4
17145,17933,0.0,-2e-05,2e-05,0.0003,-7e-05,-5e-05,-2.9999999999999997e-05,-1e-05,4
17146,17934,0.0,-2e-05,2e-05,0.0003,-7e-05,-5e-05,-2.9999999999999997e-05,-1e-05,4
17147,17935,0.0,-2e-05,2e-05,0.0003,-7e-05,-5e-05,-2.9999999999999997e-05,-1e-05,4
17148,17936,0.0,-2e-05,2e-05,0.0003,-7e-05,-5e-05,-2.9999999999999997e-05,-1e-05,4
17149,17938,0.0,-2e-05,2e-05,0.0003,-7e-05,-5e-05,-2.9999999999999997e-05,-1e-05,4
17150,17939,0.0,-2e-05,2e-05,0.0003,-7e-05,-5e-05,-2.9999999999999997e-05,-1e-05,4
17151,17940,0.0,-2e-05,2e-05,0.0003,-7e-05,-5e-05,-2.9999999999999997e-05,-1e-05,4
17152,17941,2.9999999999999997e-05,5.9999999999999995e-05,0.00014,0.0001,0.00021,0.0001,4e-05,2.9999999999999997e-05,4
17153,17942,2.9999999999999997e-05,5.9999999999999995e-05,0.00014,0.0001,0.00021,0.0001,4e-05,2.9999999999999997e-05,4
17154,17943,4e-05,0.00011999999999999999,0.00018999999999999998,0.00047000000000000004,0.00085,0.00026000000000000003,5.9999999999999995e-05,2.9999999999999997e-05,4
17155,17944,4e-05,0.00011999999999999999,0.00018999999999999998,0.00047000000000000004,0.00085,0.00026000000000000003,5.9999999999999995e-05,2.9999999999999997e-05,4
17156,17945,4e-05,0.00011999999999999999,0.00018999999999999998,0.00047000000000000004,0.00085,0.00026000000000000003,5.9999999999999995e-05,2.9999999999999997e-05,4
17157,17946,4e-05,0.00011999999999999999,0.00018999999999999998,0.00047000000000000004,0.00085,0.00026000000000000003,5.9999999999999995e-05,2.9999999999999997e-05,4
17158,17947,4e-05,0.00011999999999999999,0.00018999999999999998,0.00047000000000000004,0.00085,0.00026000000000000003,5.9999999999999995e-05,2.9999999999999997e-05,4
17159,17948,4e-05,0.00011999999999999999,0.00018999999999999998,0.00047000000000000004,0.00085,0.00026000000000000003,5.9999999999999995e-05,2.9999999999999997e-05,4
17160,17949,4e-05,0.00011999999999999999,0.00018999999999999998,0.00047000000000000004,0.00085,0.00026000000000000003,5.9999999999999995e-05,2.9999999999999997e-05,4
17161,17950,4e-05,0.00011999999999999999,0.00018999999999999998,0.00047000000000000004,0.00085,0.00026000000000000003,5.9999999999999995e-05,2.9999999999999997e-05,4
17162,17951,4e-05,0.00011999999999999999,0.00018999999999999998,0.00047000000000000004,0.00085,0.00026000000000000003,5.9999999999999995e-05,2.9999999999999997e-05,4
17163,17952,4e-05,0.00011999999999999999,0.00018999999999999998,0.00047000000000000004,0.00085,0.00026000000000000003,5.9999999999999995e-05,2.9999999999999997e-05,4
17164,17953,4e-05,0.00011999999999999999,0.00018999999999999998,0.00047000000000000004,0.00085,0.00026000000000000003,5.9999999999999995e-05,2.9999999999999997e-05,4
17165,17954,4e-05,0.00011999999999999999,0.00018999999999999998,0.00047000000000000004,0.00085,0.00026000000000000003,5.9999999999999995e-05,2.9999999999999997e-05,4
17166,17955,4e-05,0.00011999999999999999,0.00018999999999999998,0.00047000000000000004,0.00085,0.00026000000000000003,5.9999999999999995e-05,2.9999999999999997e-05,4
17167,17956,4e-05,0.00011999999999999999,0.00018999999999999998,0.00047000000000000004,0.00085,0.00026000000000000003,5.9999999999999995e-05,2.9999999999999997e-05,4
17168,17957,4e-05,0.00011999999999999999,0.00018999999999999998,0.00047000000000000004,0.00085,0.00026000000000000003,5.9999999999999995e-05,2.9999999999999997e-05,4
17169,17958,4e-05,0.00011999999999999999,0.00018999999999999998,0.00047000000000000004,0.00085,0.00026000000000000003,5.9999999999999995e-05,2.9999999999999997e-05,4
17170,17959,4e-05,0.00011999999999999999,0.00018999999999999998,0.00047000000000000004,0.00085,0.00026000000000000003,5.9999999999999995e-05,2.9999999999999997e-05,4
17171,17960,4e-05,0.00011999999999999999,0.00018999999999999998,0.00047000000000000004,0.00085,0.00026000000000000003,5.9999999999999995e-05,2.9999999999999997e-05,4
17172,17961,4e-05,0.00011999999999999999,0.00018999999999999998,0.00047000000000000004,0.00085,0.00026000000000000003,5.9999999999999995e-05,2.9999999999999997e-05,4
17173,17962,4e-05,0.00011999999999999999,0.00018999999999999998,0.00047000000000000004,0.00085,0.00026000000000000003,5.9999999999999995e-05,2.9999999999999997e-05,4
17174,17963,4e-05,0.00011999999999999999,0.00018999999999999998,0.00047000000000000004,0.00085,0.00026000000000000003,5.9999999999999995e-05,2.9999999999999997e-05,4
17175,17964,-4e-05,-4e-05,-7e-05,-0.0002,-0.00047000000000000004,-0.00014,-5.9999999999999995e-05,-2.9999999999999997e-05,4
17176,17965,-4e-05,-4e-05,-7e-05,-0.0002,-0.00047000000000000004,-0.00014,-5.9999999999999995e-05,-2.9999999999999997e-05,4
17177,17966,1e-05,2e-05,8e-05,-0.00037,-0.00018,-5.9999999999999995e-05,0.0,1e-05,4
17178,17967,1e-05,2e-05,8e-05,-0.00037,-0.00018,-5.9999999999999995e-05,0.0,1e-05,4
17179,17968,1e-05,2e-05,8e-05,-0.00037,-0.00018,-5.9999999999999995e-05,0.0,1e-05,4
17180,17969,1e-05,2e-05,8e-05,-0.00037,-0.00018,-5.9999999999999995e-05,0.0,1e-05,4
17181,17970,1e-05,2e-05,8e-05,-0.00037,-0.00018,-5.9999999999999995e-05,0.0,1e-05,4
17182,17971,1e-05,2e-05,8e-05,-0.00037,-0.00018,-5.9999999999999995e-05,0.0,1e-05,4
17183,17972,1e-05,2e-05,8e-05,-0.00037,-0.00018,-5.9999999999999995e-05,0.0,1e-05,4
17184,17973,1e-05,2e-05,8e-05,-0.00037,-0.00018,-5.9999999999999995e-05,0.0,1e-05,4
17185,17974,1e-05,2e-05,8e-05,-0.00037,-0.00018,-5.9999999999999995e-05,0.0,1e-05,4
17186,17975,1e-05,2e-05,8e-05,-0.00037,-0.00018,-5.9999999999999995e-05,0.0,1e-05,4
17187,17976,1e-05,2e-05,8e-05,-0.00037,-0.00018,-5.9999999999999995e-05,0.0,1e-05,4
17188,17977,1e-05,2e-05,8e-05,-0.00037,-0.00018,-5.9999999999999995e-05,0.0,1e-05,4
17189,17978,1e-05,2e-05,8e-05,-0.00037,-0.00018,-5.9999999999999995e-05,0.0,1e-05,4
17190,17979,-4e-05,-5e-05,-4e-05,-2.9999999999999997e-05,0.00021,-0.0001,-5e-05,-4e-05,4
17191,17980,-4e-05,-5e-05,-4e-05,-2.9999999999999997e-05,0.00021,-0.0001,-5e-05,-4e-05,4
17192,17981,2e-05,5e-05,0.00014,0.00075,0.00058,0.00023999999999999998,7e-05,4e-05,4
17193,17982,2e-05,5e-05,0.00014,0.00075,0.00058,0.00023999999999999998,7e-05,4e-05,4
17194,17983,2e-05,5e-05,0.00014,0.00075,0.00058,0.00023999999999999998,7e-05,4e-05,4
17195,17984,2e-05,5e-05,0.00014,0.00075,0.00058,0.00023999999999999998,7e-05,4e-05,4
17196,17985,2e-05,5e-05,0.00014,0.00075,0.00058,0.00023999999999999998,7e-05,4e-05,4
17197,17986,2e-05,5e-05,0.00014,0.00075,0.00058,0.00023999999999999998,7e-05,4e-05,4
17198,17989,2e-05,5e-05,0.00014,0.00075,0.00058,0.00023999999999999998,7e-05,4e-05,4
17199,17990,2e-05,5e-05,0.00014,0.00075,0.00058,0.00023999999999999998,7e-05,4e-05,4
17200,17991,2e-05,5e-05,0.00014,0.00075,0.00058,0.00023999999999999998,7e-05,4e-05,4
17201,17992,2e-05,5e-05,0.00014,0.00075,0.00058,0.00023999999999999998,7e-05,4e-05,4
17202,17993,2e-05,5e-05,0.00014,0.00075,0.00058,0.00023999999999999998,7e-05,4e-05,4
17203,17994,2e-05,5e-05,0.00014,0.00075,0.00058,0.00023999999999999998,7e-05,4e-05,4
17204,17995,2e-05,5e-05,0.00014,0.00075,0.00058,0.00023999999999999998,7e-05,4e-05,4
17205,17996,2e-05,5e-05,0.00014,0.00075,0.00058,0.00023999999999999998,7e-05,4e-05,4
17206,17997,2e-05,5e-05,0.00014,0.00075,0.00058,0.00023999999999999998,7e-05,4e-05,4
17207,17998,2e-05,5e-05,0.00014,0.00075,0.00058,0.00023999999999999998,7e-05,4e-05,4
17208,17999,2e-05,5e-05,0.00014,0.00075,0.00058,0.00023999999999999998,7e-05,4e-05,4
17209,18000,2e-05,5e-05,0.00014,0.00075,0.00058,0.00023999999999999998,7e-05,4e-05,4
17210,18001,0.0,-2e-05,-1e-05,0.00011999999999999999,0.00014,1e-05,2e-05,-5e-05,4
17211,18002,0.0,-2e-05,-1e-05,0.00011999999999999999,0.00014,1e-05,2e-05,-5e-05,4
17212,18003,-2.9999999999999997e-05,-0.00011,-0.0003,-0.00035,-0.00016,1e-05,0.0,-4e-05,4
17213,18004,-2.9999999999999997e-05,-0.00011,-0.0003,-0.00035,-0.00016,1e-05,0.0,-4e-05,4
17214,18005,-2.9999999999999997e-05,-0.00011,-0.0003,-0.00035,-0.00016,1e-05,0.0,-4e-05,4
17215,18006,-2.9999999999999997e-05,-0.00011,-0.0003,-0.00035,-0.00016,1e-05,0.0,-4e-05,4
17216,18007,-2.9999999999999997e-05,-0.00011,-0.0003,-0.00035,-0.00016,1e-05,0.0,-4e-05,4
17217,18008,-2.9999999999999997e-05,-0.00011,-0.0003,-0.00035,-0.00016,1e-05,0.0,-4e-05,4
17218,18009,-2.9999999999999997e-05,-0.00011,-0.0003,-0.00035,-0.00016,1e-05,0.0,-4e-05,4
17219,18010,-2.9999999999999997e-05,-0.00011,-0.0003,-0.00035,-0.00016,1e-05,0.0,-4e-05,4
17220,18011,-2.9999999999999997e-05,-0.00011,-0.0003,-0.00035,-0.00016,1e-05,0.0,-4e-05,4
17221,18012,-2.9999999999999997e-05,-0.00011,-0.0003,-0.00035,-0.00016,1e-05,0.0,-4e-05,4
17222,18013,-2.9999999999999997e-05,-0.00011,-0.0003,-0.00035,-0.00016,1e-05,0.0,-4e-05,4
17223,18014,-2.9999999999999997e-05,-0.00011,-0.0003,-0.00035,-0.00016,1e-05,0.0,-4e-05,4
17224,18015,-2.9999999999999997e-05,-0.00011,-0.0003,-0.00035,-0.00016,1e-05,0.0,-4e-05,4
17225,18017,-2.9999999999999997e-05,-0.00011,-0.0003,-0.00035,-0.00016,1e-05,0.0,-4e-05,4
17226,18018,-2.9999999999999997e-05,-0.00011,-0.0003,-0.00035,-0.00016,1e-05,0.0,-4e-05,4
17227,18019,-2.9999999999999997e-05,-0.00011,-0.0003,-0.00035,-0.00016,1e-05,0.0,-4e-05,4
17228,18020,-2.9999999999999997e-05,-0.00011,-0.0003,-0.00035,-0.00016,1e-05,0.0,-4e-05,4
17229,18021,-2.9999999999999997e-05,-0.00011,-0.0003,-0.00035,-0.00016,1e-05,0.0,-4e-05,4
17230,18023,-2.9999999999999997e-05,-0.00011,-0.0003,-0.00035,-0.00016,1e-05,0.0,-4e-05,4
17231,18024,8e-05,0.0,9e-05,-0.00027,4e-05,5e-05,4e-05,4e-05,4
17232,18025,8e-05,0.0,9e-05,-0.00027,4e-05,5e-05,4e-05,4e-05,4
17233,18026,-2e-05,5e-05,0.00018,0.00039,0.00039,-0.00018,-2.9999999999999997e-05,0.0,4
17234,18027,-2e-05,5e-05,0.00018,0.00039,0.00039,-0.00018,-2.9999999999999997e-05,0.0,4
17235,18028,-2e-05,5e-05,0.00018,0.00039,0.00039,-0.00018,-2.9999999999999997e-05,0.0,4
17236,18029,-2e-05,5e-05,0.00018,0.00039,0.00039,-0.00018,-2.9999999999999997e-05,0.0,4
17237,18030,-2e-05,5e-05,0.00018,0.00039,0.00039,-0.00018,-2.9999999999999997e-05,0.0,4
17238,18031,-2e-05,5e-05,0.00018,0.00039,0.00039,-0.00018,-2.9999999999999997e-05,0.0,4
17239,18032,-2e-05,5e-05,0.00018,0.00039,0.00039,-0.00018,-2.9999999999999997e-05,0.0,4
17240,18033,-2e-05,5e-05,0.00018,0.00039,0.00039,-0.00018,-2.9999999999999997e-05,0.0,4
17241,18034,-2e-05,5e-05,0.00018,0.00039,0.00039,-0.00018,-2.9999999999999997e-05,0.0,4
