,time,channel1,channel2,channel3,channel4,channel5,channel6,channel7,channel8,class
12659,13328,-5e-05,2e-05,-7e-05,-0.00011,-0.0008900000000000001,5e-05,-2e-05,-0.00022,4
12660,13329,-5e-05,2e-05,-7e-05,-0.00011,-0.0008900000000000001,5e-05,-2e-05,-0.00022,4
12661,13330,-5e-05,2e-05,-7e-05,-0.00011,-0.0008900000000000001,5e-05,-2e-05,-0.00022,4
12662,13331,-5e-05,2e-05,-7e-05,-0.00011,-0.0008900000000000001,5e-05,-2e-05,-0.00022,4
12663,13332,-5e-05,2e-05,-7e-05,-0.00011,-0.0008900000000000001,5e-05,-2e-05,-0.00022,4
12664,13333,-5e-05,2e-05,-7e-05,-0.00011,-0.0008900000000000001,5e-05,-2e-05,-0.00022,4
12665,13334,-5e-05,2e-05,-7e-05,-0.00011,-0.0008900000000000001,5e-05,-2e-05,-0.00022,4
12666,13335,-5e-05,2e-05,-7e-05,-0.00011,-0.0008900000000000001,5e-05,-2e-05,-0.00022,4
12667,13336,-5e-05,2e-05,-7e-05,-0.00011,-0.0008900000000000001,5e-05,-2e-05,-0.00022,4
12668,13339,2.9999999999999997e-05,5e-05,-0.00015,0.00033,0.00095,0.00062,1e-05,-0.00016,4
12669,13340,2.9999999999999997e-05,5e-05,-0.00015,0.00033,0.00095,0.00062,1e-05,-0.00016,4
12670,13341,-8e-05,-0.00011,-5e-05,-0.00011,0.00056,-0.0008900000000000001,4e-05,5e-05,4
12671,13342,-8e-05,-0.00011,-5e-05,-0.00011,0.00056,-0.0008900000000000001,4e-05,5e-05,4
12672,13343,-8e-05,-0.00011,-5e-05,-0.00011,0.00056,-0.0008900000000000001,4e-05,5e-05,4
12673,13344,-8e-05,-0.00011,-5e-05,-0.00011,0.00056,-0.0008900000000000001,4e-05,5e-05,4
12674,13345,-8e-05,-0.00011,-5e-05,-0.00011,0.00056,-0.0008900000000000001,4e-05,5e-05,4
12675,13346,-8e-05,-0.00011,-5e-05,-0.00011,0.00056,-0.0008900000000000001,4e-05,5e-05,4
12676,13347,-8e-05,-0.00011,-5e-05,-0.00011,0.00056,-0.0008900000000000001,4e-05,5e-05,4
12677,13348,-8e-05,-0.00011,-5e-05,-0.00011,0.00056,-0.0008900000000000001,4e-05,5e-05,4
12678,13349,-8e-05,-0.00011,-5e-05,-0.00011,0.00056,-0.0008900000000000001,4e-05,5e-05,4
12679,13350,-8e-05,-0.00011,-5e-05,-0.00011,0.00056,-0.0008900000000000001,4e-05,5e-05,4
12680,13351,-8e-05,-0.00011,-5e-05,-0.00011,0.00056,-0.0008900000000000001,4e-05,5e-05,4
12681,13352,0.0,7e-05,0.00011,0.00041,0.00108,0.00032,0.00014,-9e-05,4
12682,13353,5.9999999999999995e-05,5.9999999999999995e-05,0.00022999999999999998,0.0,-0.00053,0.00032,0.0001,0.00011,4
12683,13354,5.9999999999999995e-05,5.9999999999999995e-05,0.00022999999999999998,0.0,-0.00053,0.00032,0.0001,0.00011,4
12684,13355,5.9999999999999995e-05,5.9999999999999995e-05,0.00022999999999999998,0.0,-0.00053,0.00032,0.0001,0.00011,4
12685,13356,5.9999999999999995e-05,5.9999999999999995e-05,0.00022999999999999998,0.0,-0.00053,0.00032,0.0001,0.00011,4
12686,13357,5.9999999999999995e-05,5.9999999999999995e-05,0.00022999999999999998,0.0,-0.00053,0.00032,0.0001,0.00011,4
12687,13358,5.9999999999999995e-05,5.9999999999999995e-05,0.00022999999999999998,0.0,-0.00053,0.00032,0.0001,0.00011,4
12688,13359,5.9999999999999995e-05,5.9999999999999995e-05,0.00022999999999999998,0.0,-0.00053,0.00032,0.0001,0.00011,4
12689,13360,5.9999999999999995e-05,5.9999999999999995e-05,0.00022999999999999998,0.0,-0.00053,0.00032,0.0001,0.00011,4
12690,13361,5.9999999999999995e-05,5.9999999999999995e-05,0.00022999999999999998,0.0,-0.00053,0.00032,0.0001,0.00011,4
12691,13362,5.9999999999999995e-05,5.9999999999999995e-05,0.00022999999999999998,0.0,-0.00053,0.00032,0.0001,0.00011,4
12692,13363,5.9999999999999995e-05,5.9999999999999995e-05,0.00022999999999999998,0.0,-0.00053,0.00032,0.0001,0.00011,4
12693,13364,5.9999999999999995e-05,5.9999999999999995e-05,0.00022999999999999998,0.0,-0.00053,0.00032,0.0001,0.00011,4
12694,13365,5.9999999999999995e-05,5.9999999999999995e-05,0.00022999999999999998,0.0,-0.00053,0.00032,0.0001,0.00011,4
12695,13366,5.9999999999999995e-05,5.9999999999999995e-05,0.00022999999999999998,0.0,-0.00053,0.00032,0.0001,0.00011,4
12696,13367,5.9999999999999995e-05,5.9999999999999995e-05,0.00022999999999999998,0.0,-0.00053,0.00032,0.0001,0.00011,4
12697,13368,5.9999999999999995e-05,5.9999999999999995e-05,0.00022999999999999998,0.0,-0.00053,0.00032,0.0001,0.00011,4
12698,13369,2.9999999999999997e-05,-2.9999999999999997e-05,-8e-05,-2e-05,-0.00021,0.00029,-5.9999999999999995e-05,4e-05,4
12699,13370,2.9999999999999997e-05,-2.9999999999999997e-05,-8e-05,-2e-05,-0.00021,0.00029,-5.9999999999999995e-05,4e-05,4
12700,13371,2.9999999999999997e-05,-2.9999999999999997e-05,-8e-05,-2e-05,-0.00021,0.00029,-5.9999999999999995e-05,4e-05,4
12701,13372,2.9999999999999997e-05,-2.9999999999999997e-05,-8e-05,-2e-05,-0.00021,0.00029,-5.9999999999999995e-05,4e-05,4
12702,13373,2.9999999999999997e-05,-2.9999999999999997e-05,-8e-05,-2e-05,-0.00021,0.00029,-5.9999999999999995e-05,4e-05,4
12703,13374,2.9999999999999997e-05,-2.9999999999999997e-05,-8e-05,-2e-05,-0.00021,0.00029,-5.9999999999999995e-05,4e-05,4
12704,13375,2.9999999999999997e-05,-2.9999999999999997e-05,-8e-05,-2e-05,-0.00021,0.00029,-5.9999999999999995e-05,4e-05,4
12705,13376,-1e-05,-4e-05,0.0002,0.00018,0.00042,-1e-05,0.00013000000000000002,0.00016,4
12706,13377,-1e-05,-4e-05,0.0002,0.00018,0.00042,-1e-05,0.00013000000000000002,0.00016,4
12707,13378,-8e-05,-7e-05,-0.00028,-5.9999999999999995e-05,-0.0005200000000000001,2.9999999999999997e-05,-0.00015,-0.00015,4
12708,13379,-8e-05,-7e-05,-0.00028,-5.9999999999999995e-05,-0.0005200000000000001,2.9999999999999997e-05,-0.00015,-0.00015,4
12709,13380,-8e-05,-7e-05,-0.00028,-5.9999999999999995e-05,-0.0005200000000000001,2.9999999999999997e-05,-0.00015,-0.00015,4
12710,13381,-8e-05,-7e-05,-0.00028,-5.9999999999999995e-05,-0.0005200000000000001,2.9999999999999997e-05,-0.00015,-0.00015,4
12711,13382,-8e-05,-7e-05,-0.00028,-5.9999999999999995e-05,-0.0005200000000000001,2.9999999999999997e-05,-0.00015,-0.00015,4
12712,13383,-8e-05,-7e-05,-0.00028,-5.9999999999999995e-05,-0.0005200000000000001,2.9999999999999997e-05,-0.00015,-0.00015,4
12713,13384,-8e-05,-7e-05,-0.00028,-5.9999999999999995e-05,-0.0005200000000000001,2.9999999999999997e-05,-0.00015,-0.00015,4
12714,13385,-8e-05,-7e-05,-0.00028,-5.9999999999999995e-05,-0.0005200000000000001,2.9999999999999997e-05,-0.00015,-0.00015,4
12715,13386,-8e-05,-7e-05,-0.00028,-5.9999999999999995e-05,-0.0005200000000000001,2.9999999999999997e-05,-0.00015,-0.00015,4
12716,13389,-8e-05,-7e-05,-0.00028,-5.9999999999999995e-05,-0.0005200000000000001,2.9999999999999997e-05,-0.00015,-0.00015,4
12717,13390,-8e-05,-7e-05,-0.00028,-5.9999999999999995e-05,-0.0005200000000000001,2.9999999999999997e-05,-0.00015,-0.00015,4
12718,13391,-8e-05,-7e-05,-0.00028,-5.9999999999999995e-05,-0.0005200000000000001,2.9999999999999997e-05,-0.00015,-0.00015,4
12719,13392,-8e-05,-7e-05,-0.00028,-5.9999999999999995e-05,-0.0005200000000000001,2.9999999999999997e-05,-0.00015,-0.00015,4
12720,13393,-8e-05,-7e-05,-0.00028,-5.9999999999999995e-05,-0.0005200000000000001,2.9999999999999997e-05,-0.00015,-0.00015,4
12721,13394,-8e-05,-7e-05,-0.00028,-5.9999999999999995e-05,-0.0005200000000000001,2.9999999999999997e-05,-0.00015,-0.00015,4
12722,13395,-8e-05,-7e-05,-0.00028,-5.9999999999999995e-05,-0.0005200000000000001,2.9999999999999997e-05,-0.00015,-0.00015,4
12723,13396,-8e-05,-7e-05,-0.00028,-5.9999999999999995e-05,-0.0005200000000000001,2.9999999999999997e-05,-0.00015,-0.00015,4
12724,13397,-8e-05,-7e-05,-0.00028,-5.9999999999999995e-05,-0.0005200000000000001,2.9999999999999997e-05,-0.00015,-0.00015,4
12725,13398,-8e-05,-7e-05,-0.00028,-5.9999999999999995e-05,-0.0005200000000000001,2.9999999999999997e-05,-0.00015,-0.00015,4
12726,13399,9e-05,7e-05,0.00016999999999999999,0.00018999999999999998,0.0005200000000000001,0.00045999999999999996,0.00016999999999999999,0.00043,4
12727,13400,9e-05,7e-05,0.00016999999999999999,0.00018999999999999998,0.0005200000000000001,0.00045999999999999996,0.00016999999999999999,0.00043,4
12728,13401,-0.00018999999999999998,-0.00018,-0.00035,-0.00055,-0.0011099999999999999,-0.0009,-0.00035,-0.0009699999999999999,4
12729,13402,-0.00018999999999999998,-0.00018,-0.00035,-0.00055,-0.0011099999999999999,-0.0009,-0.00035,-0.0009699999999999999,4
12730,13403,-0.00018999999999999998,-0.00018,-0.00035,-0.00055,-0.0011099999999999999,-0.0009,-0.00035,-0.0009699999999999999,4
12731,13404,-0.00018999999999999998,-0.00018,-0.00035,-0.00055,-0.0011099999999999999,-0.0009,-0.00035,-0.0009699999999999999,4
12732,13405,-0.00018999999999999998,-0.00018,-0.00035,-0.00055,-0.0011099999999999999,-0.0009,-0.00035,-0.0009699999999999999,4
12733,13406,-0.00018999999999999998,-0.00018,-0.00035,-0.00055,-0.0011099999999999999,-0.0009,-0.00035,-0.0009699999999999999,4
12734,13407,-0.00018999999999999998,-0.00018,-0.00035,-0.00055,-0.0011099999999999999,-0.0009,-0.00035,-0.0009699999999999999,4
12735,13408,-0.00018999999999999998,-0.00018,-0.00035,-0.00055,-0.0011099999999999999,-0.0009,-0.00035,-0.0009699999999999999,4
12736,13409,-0.00018999999999999998,-0.00018,-0.00035,-0.00055,-0.0011099999999999999,-0.0009,-0.00035,-0.0009699999999999999,4
12737,13410,-0.00018999999999999998,-0.00018,-0.00035,-0.00055,-0.0011099999999999999,-0.0009,-0.00035,-0.0009699999999999999,4
12738,13411,-0.00018999999999999998,-0.00018,-0.00035,-0.00055,-0.0011099999999999999,-0.0009,-0.00035,-0.0009699999999999999,4
12739,13412,5e-05,-0.0001,0.00018,0.0004,-0.00045999999999999996,0.00022999999999999998,0.00027,0.00053,4
12740,13413,4e-05,-2e-05,-0.00013000000000000002,2.9999999999999997e-05,0.00025,0.00037,0.00016,-2e-05,4
12741,13414,4e-05,-2e-05,-0.00013000000000000002,2.9999999999999997e-05,0.00025,0.00037,0.00016,-2e-05,4
12742,13415,4e-05,-2e-05,-0.00013000000000000002,2.9999999999999997e-05,0.00025,0.00037,0.00016,-2e-05,4
12743,13416,4e-05,-2e-05,-0.00013000000000000002,2.9999999999999997e-05,0.00025,0.00037,0.00016,-2e-05,4
12744,13417,4e-05,-2e-05,-0.00013000000000000002,2.9999999999999997e-05,0.00025,0.00037,0.00016,-2e-05,4
12745,13418,4e-05,-2e-05,-0.00013000000000000002,2.9999999999999997e-05,0.00025,0.00037,0.00016,-2e-05,4
12746,13419,4e-05,-2e-05,-0.00013000000000000002,2.9999999999999997e-05,0.00025,0.00037,0.00016,-2e-05,4
12747,13420,4e-05,-2e-05,-0.00013000000000000002,2.9999999999999997e-05,0.00025,0.00037,0.00016,-2e-05,4
12748,13421,4e-05,-2e-05,-0.00013000000000000002,2.9999999999999997e-05,0.00025,0.00037,0.00016,-2e-05,4
12749,13422,4e-05,-2e-05,-0.00013000000000000002,2.9999999999999997e-05,0.00025,0.00037,0.00016,-2e-05,4
12750,13423,4e-05,-2e-05,-0.00013000000000000002,2.9999999999999997e-05,0.00025,0.00037,0.00016,-2e-05,4
12751,13424,4e-05,-2e-05,-0.00013000000000000002,2.9999999999999997e-05,0.00025,0.00037,0.00016,-2e-05,4
12752,13425,4e-05,-2e-05,-0.00013000000000000002,2.9999999999999997e-05,0.00025,0.00037,0.00016,-2e-05,4
12753,13426,4e-05,-2e-05,-0.00013000000000000002,2.9999999999999997e-05,0.00025,0.00037,0.00016,-2e-05,4
12754,13427,4e-05,-2e-05,-0.00013000000000000002,2.9999999999999997e-05,0.00025,0.00037,0.00016,-2e-05,4
12755,13428,4e-05,-2e-05,-0.00013000000000000002,2.9999999999999997e-05,0.00025,0.00037,0.00016,-2e-05,4
12756,13429,-2e-05,5e-05,-1e-05,-0.00011999999999999999,0.00011,-0.00026000000000000003,-0.00011999999999999999,1e-05,4
12757,13430,-2e-05,5e-05,-1e-05,-0.00011999999999999999,0.00011,-0.00026000000000000003,-0.00011999999999999999,1e-05,4
12758,13431,-2e-05,5e-05,-1e-05,-0.00011999999999999999,0.00011,-0.00026000000000000003,-0.00011999999999999999,1e-05,4
12759,13432,-2e-05,5e-05,-1e-05,-0.00011999999999999999,0.00011,-0.00026000000000000003,-0.00011999999999999999,1e-05,4
12760,13433,-2e-05,5e-05,-1e-05,-0.00011999999999999999,0.00011,-0.00026000000000000003,-0.00011999999999999999,1e-05,4
12761,13434,-2e-05,5e-05,-1e-05,-0.00011999999999999999,0.00011,-0.00026000000000000003,-0.00011999999999999999,1e-05,4
12762,13435,-2e-05,5e-05,-1e-05,-0.00011999999999999999,0.00011,-0.00026000000000000003,-0.00011999999999999999,1e-05,4
12763,13436,9e-05,0.00016,0.00028,0.00079,0.0009,0.00064,0.00033,7e-05,4
12764,13439,2e-05,0.0,0.00011,0.00016,0.00018,0.00047000000000000004,-5.9999999999999995e-05,-0.00018999999999999998,4
12765,13440,2e-05,0.0,0.00011,0.00016,0.00018,0.00047000000000000004,-5.9999999999999995e-05,-0.00018999999999999998,4
12766,13441,2e-05,0.0,0.00011,0.00016,0.00018,0.00047000000000000004,-5.9999999999999995e-05,-0.00018999999999999998,4
12767,13442,2e-05,0.0,0.00011,0.00016,0.00018,0.00047000000000000004,-5.9999999999999995e-05,-0.00018999999999999998,4
12768,13443,2e-05,0.0,0.00011,0.00016,0.00018,0.00047000000000000004,-5.9999999999999995e-05,-0.00018999999999999998,4
12769,13444,2e-05,0.0,0.00011,0.00016,0.00018,0.00047000000000000004,-5.9999999999999995e-05,-0.00018999999999999998,4
12770,13445,2e-05,0.0,0.00011,0.00016,0.00018,0.00047000000000000004,-5.9999999999999995e-05,-0.00018999999999999998,4
12771,13446,2e-05,0.0,0.00011,0.00016,0.00018,0.00047000000000000004,-5.9999999999999995e-05,-0.00018999999999999998,4
12772,13447,2e-05,0.0,0.00011,0.00016,0.00018,0.00047000000000000004,-5.9999999999999995e-05,-0.00018999999999999998,4
12773,13448,2e-05,0.0,0.00011,0.00016,0.00018,0.00047000000000000004,-5.9999999999999995e-05,-0.00018999999999999998,4
12774,13449,2e-05,0.0,0.00011,0.00016,0.00018,0.00047000000000000004,-5.9999999999999995e-05,-0.00018999999999999998,4
12775,13450,2e-05,0.0,0.00011,0.00016,0.00018,0.00047000000000000004,-5.9999999999999995e-05,-0.00018999999999999998,4
12776,13451,2e-05,0.0,0.00011,0.00016,0.00018,0.00047000000000000004,-5.9999999999999995e-05,-0.00018999999999999998,4
12777,13452,2e-05,0.0,0.00011,0.00016,0.00018,0.00047000000000000004,-5.9999999999999995e-05,-0.00018999999999999998,4
12778,13453,2e-05,0.0,0.00011,0.00016,0.00018,0.00047000000000000004,-5.9999999999999995e-05,-0.00018999999999999998,4
12779,13454,2e-05,0.0,0.00011,0.00016,0.00018,0.00047000000000000004,-5.9999999999999995e-05,-0.00018999999999999998,4
12780,13455,2e-05,0.0,0.00011,0.00016,0.00018,0.00047000000000000004,-5.9999999999999995e-05,-0.00018999999999999998,4
12781,13456,2e-05,0.0,0.00011,0.00016,0.00018,0.00047000000000000004,-5.9999999999999995e-05,-0.00018999999999999998,4
12782,13457,2e-05,0.0,0.00011,0.00016,0.00018,0.00047000000000000004,-5.9999999999999995e-05,-0.00018999999999999998,4
12783,13458,2e-05,0.0,0.00011,0.00016,0.00018,0.00047000000000000004,-5.9999999999999995e-05,-0.00018999999999999998,4
12784,13459,7e-05,5e-05,-0.00011,-0.00028,-0.00047999999999999996,-2.9999999999999997e-05,-7e-05,-2.9999999999999997e-05,4
12785,13460,-2e-05,-7e-05,-4e-05,2e-05,-2.9999999999999997e-05,-4e-05,5e-05,-1e-05,4
12786,13461,-9e-05,-5e-05,-5.9999999999999995e-05,-0.0002,4e-05,-0.00078,-0.00023999999999999998,-0.00016,4
12787,13462,-1e-05,2e-05,4e-05,0.00036,-0.00011,0.00021,0.0001,0.00037,4
12788,13463,-1e-05,2e-05,4e-05,0.00036,-0.00011,0.00021,0.0001,0.00037,4
12789,13464,-1e-05,2e-05,4e-05,0.00036,-0.00011,0.00021,0.0001,0.00037,4
12790,13465,-1e-05,2e-05,4e-05,0.00036,-0.00011,0.00021,0.0001,0.00037,4
12791,13466,-1e-05,2e-05,4e-05,0.00036,-0.00011,0.00021,0.0001,0.00037,4
12792,13467,-1e-05,2e-05,4e-05,0.00036,-0.00011,0.00021,0.0001,0.00037,4
12793,13468,-1e-05,2e-05,4e-05,0.00036,-0.00011,0.00021,0.0001,0.00037,4
12794,13469,-1e-05,2e-05,4e-05,0.00036,-0.00011,0.00021,0.0001,0.00037,4
12795,13470,-1e-05,2e-05,4e-05,0.00036,-0.00011,0.00021,0.0001,0.00037,4
12796,13471,-1e-05,2e-05,4e-05,0.00036,-0.00011,0.00021,0.0001,0.00037,4
12797,13472,-5.9999999999999995e-05,7e-05,0.00014,-5.9999999999999995e-05,0.0,0.00037999999999999997,-0.00011,-0.00033999999999999997,4
12798,13473,0.0001,2e-05,5.9999999999999995e-05,-7e-05,-0.00056,-0.00091,9e-05,0.00049,4
12799,13474,0.0001,2e-05,5.9999999999999995e-05,-7e-05,-0.00056,-0.00091,9e-05,0.00049,4
12800,13475,0.0001,2e-05,5.9999999999999995e-05,-7e-05,-0.00056,-0.00091,9e-05,0.00049,4
12801,13476,0.0001,2e-05,5.9999999999999995e-05,-7e-05,-0.00056,-0.00091,9e-05,0.00049,4
12802,13477,0.0001,2e-05,5.9999999999999995e-05,-7e-05,-0.00056,-0.00091,9e-05,0.00049,4
12803,13478,0.0001,2e-05,5.9999999999999995e-05,-7e-05,-0.00056,-0.00091,9e-05,0.00049,4
12804,13479,0.0001,2e-05,5.9999999999999995e-05,-7e-05,-0.00056,-0.00091,9e-05,0.00049,4
12805,13480,0.0001,2e-05,5.9999999999999995e-05,-7e-05,-0.00056,-0.00091,9e-05,0.00049,4
12806,13481,5.9999999999999995e-05,4e-05,1e-05,0.00022,0.00016999999999999999,0.00058,0.00018,0.00013000000000000002,4
12807,13482,5.9999999999999995e-05,4e-05,1e-05,0.00022,0.00016999999999999999,0.00058,0.00018,0.00013000000000000002,4
12808,13483,5.9999999999999995e-05,4e-05,1e-05,0.00022,0.00016999999999999999,0.00058,0.00018,0.00013000000000000002,4
12809,13484,5.9999999999999995e-05,4e-05,1e-05,0.00022,0.00016999999999999999,0.00058,0.00018,0.00013000000000000002,4
12810,13485,5.9999999999999995e-05,4e-05,1e-05,0.00022,0.00016999999999999999,0.00058,0.00018,0.00013000000000000002,4
12811,13486,5.9999999999999995e-05,4e-05,1e-05,0.00022,0.00016999999999999999,0.00058,0.00018,0.00013000000000000002,4
12812,13489,5.9999999999999995e-05,4e-05,1e-05,0.00022,0.00016999999999999999,0.00058,0.00018,0.00013000000000000002,4
12813,13490,5.9999999999999995e-05,4e-05,1e-05,0.00022,0.00016999999999999999,0.00058,0.00018,0.00013000000000000002,4
12814,13491,5.9999999999999995e-05,4e-05,1e-05,0.00022,0.00016999999999999999,0.00058,0.00018,0.00013000000000000002,4
12815,13492,5.9999999999999995e-05,4e-05,1e-05,0.00022,0.00016999999999999999,0.00058,0.00018,0.00013000000000000002,4
12816,13493,5.9999999999999995e-05,4e-05,1e-05,0.00022,0.00016999999999999999,0.00058,0.00018,0.00013000000000000002,4
12817,13494,5.9999999999999995e-05,4e-05,1e-05,0.00022,0.00016999999999999999,0.00058,0.00018,0.00013000000000000002,4
12818,13495,5.9999999999999995e-05,4e-05,1e-05,0.00022,0.00016999999999999999,0.00058,0.00018,0.00013000000000000002,4
12819,13496,5.9999999999999995e-05,4e-05,1e-05,0.00022,0.00016999999999999999,0.00058,0.00018,0.00013000000000000002,4
12820,13497,0.0,9e-05,-5e-05,0.00018999999999999998,0.00035,7e-05,-1e-05,-2e-05,4
12821,13498,-2.9999999999999997e-05,2e-05,5e-05,0.0003,0.00095,0.00057,0.0001,0.00015,4
12822,13499,4e-05,2.9999999999999997e-05,9e-05,0.00027,0.0007599999999999999,0.0001,0.00016999999999999999,0.00016,4
12823,13500,4e-05,2.9999999999999997e-05,9e-05,0.00027,0.0007599999999999999,0.0001,0.00016999999999999999,0.00016,4
12824,13501,4e-05,2.9999999999999997e-05,9e-05,0.00027,0.0007599999999999999,0.0001,0.00016999999999999999,0.00016,4
12825,13502,4e-05,2.9999999999999997e-05,9e-05,0.00027,0.0007599999999999999,0.0001,0.00016999999999999999,0.00016,4
12826,13503,4e-05,2.9999999999999997e-05,9e-05,0.00027,0.0007599999999999999,0.0001,0.00016999999999999999,0.00016,4
12827,13504,4e-05,2.9999999999999997e-05,9e-05,0.00027,0.0007599999999999999,0.0001,0.00016999999999999999,0.00016,4
12828,13505,4e-05,2.9999999999999997e-05,9e-05,0.00027,0.0007599999999999999,0.0001,0.00016999999999999999,0.00016,4
12829,13506,4e-05,2.9999999999999997e-05,9e-05,0.00027,0.0007599999999999999,0.0001,0.00016999999999999999,0.00016,4
12830,13507,4e-05,2.9999999999999997e-05,9e-05,0.00027,0.0007599999999999999,0.0001,0.00016999999999999999,0.00016,4
12831,13508,4e-05,2.9999999999999997e-05,9e-05,0.00027,0.0007599999999999999,0.0001,0.00016999999999999999,0.00016,4
12832,13509,4e-05,2.9999999999999997e-05,9e-05,0.00027,0.0007599999999999999,0.0001,0.00016999999999999999,0.00016,4
12833,13510,4e-05,2.9999999999999997e-05,9e-05,0.00027,0.0007599999999999999,0.0001,0.00016999999999999999,0.00016,4
12834,13511,4e-05,2.9999999999999997e-05,9e-05,0.00027,0.0007599999999999999,0.0001,0.00016999999999999999,0.00016,4
12835,13512,4e-05,2.9999999999999997e-05,9e-05,0.00027,0.0007599999999999999,0.0001,0.00016999999999999999,0.00016,4
12836,13513,4e-05,2.9999999999999997e-05,9e-05,0.00027,0.0007599999999999999,0.0001,0.00016999999999999999,0.00016,4
12837,13514,4e-05,2.9999999999999997e-05,9e-05,0.00027,0.0007599999999999999,0.0001,0.00016999999999999999,0.00016,4
12838,13515,4e-05,2.9999999999999997e-05,9e-05,0.00027,0.0007599999999999999,0.0001,0.00016999999999999999,0.00016,4
12839,13516,4e-05,2.9999999999999997e-05,9e-05,0.00027,0.0007599999999999999,0.0001,0.00016999999999999999,0.00016,4
12840,13517,4e-05,2.9999999999999997e-05,9e-05,0.00027,0.0007599999999999999,0.0001,0.00016999999999999999,0.00016,4
12841,13518,4e-05,2.9999999999999997e-05,9e-05,0.00027,0.0007599999999999999,0.0001,0.00016999999999999999,0.00016,4
12842,13519,4e-05,2.9999999999999997e-05,9e-05,0.00027,0.0007599999999999999,0.0001,0.00016999999999999999,0.00016,4
12843,13520,4e-05,2.9999999999999997e-05,9e-05,0.00027,0.0007599999999999999,0.0001,0.00016999999999999999,0.00016,4
12844,13521,4e-05,2.9999999999999997e-05,9e-05,0.00027,0.0007599999999999999,0.0001,0.00016999999999999999,0.00016,4
12845,13522,4e-05,2.9999999999999997e-05,9e-05,0.00027,0.0007599999999999999,0.0001,0.00016999999999999999,0.00016,4
12846,13523,4e-05,2.9999999999999997e-05,9e-05,0.00027,0.0007599999999999999,0.0001,0.00016999999999999999,0.00016,4
12847,13524,4e-05,2.9999999999999997e-05,9e-05,0.00027,0.0007599999999999999,0.0001,0.00016999999999999999,0.00016,4
12848,13525,4e-05,2.9999999999999997e-05,9e-05,0.00027,0.0007599999999999999,0.0001,0.00016999999999999999,0.00016,4
12849,13526,4e-05,2.9999999999999997e-05,9e-05,0.00027,0.0007599999999999999,0.0001,0.00016999999999999999,0.00016,4
12850,13527,2.9999999999999997e-05,7e-05,-0.0001,-0.00011,-0.0006799999999999999,0.00025,-0.00016,-0.0002,4
12851,13528,0.0,-7e-05,-4e-05,0.0001,0.00056,0.00016,5e-05,-0.00016999999999999999,4
12852,13529,-0.00015,-2.9999999999999997e-05,-0.00015,-0.00013000000000000002,0.00029,-0.00013000000000000002,-9e-05,-0.0004,4
12853,13530,-0.00015,-2.9999999999999997e-05,-0.00015,-0.00013000000000000002,0.00029,-0.00013000000000000002,-9e-05,-0.0004,4
12854,13531,-0.00015,-2.9999999999999997e-05,-0.00015,-0.00013000000000000002,0.00029,-0.00013000000000000002,-9e-05,-0.0004,4
12855,13532,0.00018999999999999998,0.00018,0.0002,0.00042,0.00095,0.00095,0.00045999999999999996,0.00026000000000000003,4
12856,13533,0.00018999999999999998,0.00018,0.0002,0.00042,0.00095,0.00095,0.00045999999999999996,0.00026000000000000003,4
12857,13534,0.00018999999999999998,0.00018,0.0002,0.00042,0.00095,0.00095,0.00045999999999999996,0.00026000000000000003,4
12858,13535,0.00018999999999999998,0.00018,0.0002,0.00042,0.00095,0.00095,0.00045999999999999996,0.00026000000000000003,4
12859,13536,0.00018999999999999998,0.00018,0.0002,0.00042,0.00095,0.00095,0.00045999999999999996,0.00026000000000000003,4
12860,13538,0.00018999999999999998,0.00018,0.0002,0.00042,0.00095,0.00095,0.00045999999999999996,0.00026000000000000003,4
12861,13540,0.00018999999999999998,0.00018,0.0002,0.00042,0.00095,0.00095,0.00045999999999999996,0.00026000000000000003,4
12862,13541,0.00018999999999999998,0.00018,0.0002,0.00042,0.00095,0.00095,0.00045999999999999996,0.00026000000000000003,4
12863,13542,0.00018999999999999998,0.00018,0.0002,0.00042,0.00095,0.00095,0.00045999999999999996,0.00026000000000000003,4
12864,13543,0.00018999999999999998,0.00018,0.0002,0.00042,0.00095,0.00095,0.00045999999999999996,0.00026000000000000003,4
12865,13544,0.00018999999999999998,0.00018,0.0002,0.00042,0.00095,0.00095,0.00045999999999999996,0.00026000000000000003,4
12866,13545,0.00018999999999999998,0.00018,0.0002,0.00042,0.00095,0.00095,0.00045999999999999996,0.00026000000000000003,4
12867,13546,0.00018999999999999998,0.00018,0.0002,0.00042,0.00095,0.00095,0.00045999999999999996,0.00026000000000000003,4
12868,13547,0.00018999999999999998,0.00018,0.0002,0.00042,0.00095,0.00095,0.00045999999999999996,0.00026000000000000003,4
12869,13548,0.00018999999999999998,0.00018,0.0002,0.00042,0.00095,0.00095,0.00045999999999999996,0.00026000000000000003,4
12870,13549,0.00018999999999999998,0.00018,0.0002,0.00042,0.00095,0.00095,0.00045999999999999996,0.00026000000000000003,4
12871,13550,0.00018999999999999998,0.00018,0.0002,0.00042,0.00095,0.00095,0.00045999999999999996,0.00026000000000000003,4
12872,13551,0.00018999999999999998,0.00018,0.0002,0.00042,0.00095,0.00095,0.00045999999999999996,0.00026000000000000003,4
12873,13552,0.00018999999999999998,0.00018,0.0002,0.00042,0.00095,0.00095,0.00045999999999999996,0.00026000000000000003,4
12874,13553,0.00018999999999999998,0.00018,0.0002,0.00042,0.00095,0.00095,0.00045999999999999996,0.00026000000000000003,4
12875,13554,0.00018999999999999998,0.00018,0.0002,0.00042,0.00095,0.00095,0.00045999999999999996,0.00026000000000000003,4
12876,13555,0.00018999999999999998,0.00018,0.0002,0.00042,0.00095,0.00095,0.00045999999999999996,0.00026000000000000003,4
12877,13556,0.00018999999999999998,0.00018,0.0002,0.00042,0.00095,0.00095,0.00045999999999999996,0.00026000000000000003,4
12878,13557,0.00018999999999999998,0.00018,0.0002,0.00042,0.00095,0.00095,0.00045999999999999996,0.00026000000000000003,4
12879,13558,0.0,0.00025,0.0001,0.00014,-0.0002,-0.00011999999999999999,0.0,-2e-05,4
12880,13559,1e-05,-7e-05,0.00011,-0.0002,-0.00028,-0.00013000000000000002,-0.00011,-0.00013000000000000002,4
12881,13560,1e-05,-7e-05,0.00011,-0.0002,-0.00028,-0.00013000000000000002,-0.00011,-0.00013000000000000002,4
12882,13561,1e-05,-7e-05,0.00011,-0.0002,-0.00028,-0.00013000000000000002,-0.00011,-0.00013000000000000002,4
12883,13562,1e-05,-7e-05,0.00011,-0.0002,-0.00028,-0.00013000000000000002,-0.00011,-0.00013000000000000002,4
12884,13563,1e-05,-7e-05,0.00011,-0.0002,-0.00028,-0.00013000000000000002,-0.00011,-0.00013000000000000002,4
12885,13564,1e-05,-7e-05,0.00011,-0.0002,-0.00028,-0.00013000000000000002,-0.00011,-0.00013000000000000002,4
12886,13565,1e-05,-7e-05,0.00011,-0.0002,-0.00028,-0.00013000000000000002,-0.00011,-0.00013000000000000002,4
12887,13566,1e-05,-7e-05,0.00011,-0.0002,-0.00028,-0.00013000000000000002,-0.00011,-0.00013000000000000002,4
12888,13567,1e-05,-7e-05,0.00011,-0.0002,-0.00028,-0.00013000000000000002,-0.00011,-0.00013000000000000002,4
12889,13568,1e-05,-7e-05,0.00011,-0.0002,-0.00028,-0.00013000000000000002,-0.00011,-0.00013000000000000002,4
12890,13569,1e-05,-7e-05,0.00011,-0.0002,-0.00028,-0.00013000000000000002,-0.00011,-0.00013000000000000002,4
12891,13570,0.0,-4e-05,0.00013000000000000002,-2e-05,0.00033999999999999997,2.9999999999999997e-05,-2.9999999999999997e-05,-2.9999999999999997e-05,4
12892,13571,0.0,-4e-05,0.00013000000000000002,-2e-05,0.00033999999999999997,2.9999999999999997e-05,-2.9999999999999997e-05,-2.9999999999999997e-05,4
12893,13572,0.0,-4e-05,0.00013000000000000002,-2e-05,0.00033999999999999997,2.9999999999999997e-05,-2.9999999999999997e-05,-2.9999999999999997e-05,4
12894,13573,0.0,-4e-05,0.00013000000000000002,-2e-05,0.00033999999999999997,2.9999999999999997e-05,-2.9999999999999997e-05,-2.9999999999999997e-05,4
12895,13574,0.0,-4e-05,0.00013000000000000002,-2e-05,0.00033999999999999997,2.9999999999999997e-05,-2.9999999999999997e-05,-2.9999999999999997e-05,4
12896,13575,0.0,-4e-05,0.00013000000000000002,-2e-05,0.00033999999999999997,2.9999999999999997e-05,-2.9999999999999997e-05,-2.9999999999999997e-05,4
12897,13576,0.0,-4e-05,0.00013000000000000002,-2e-05,0.00033999999999999997,2.9999999999999997e-05,-2.9999999999999997e-05,-2.9999999999999997e-05,4
12898,13577,0.0,-4e-05,0.00013000000000000002,-2e-05,0.00033999999999999997,2.9999999999999997e-05,-2.9999999999999997e-05,-2.9999999999999997e-05,4
12899,13578,0.0,-4e-05,0.00013000000000000002,-2e-05,0.00033999999999999997,2.9999999999999997e-05,-2.9999999999999997e-05,-2.9999999999999997e-05,4
12900,13579,0.0,-4e-05,0.00013000000000000002,-2e-05,0.00033999999999999997,2.9999999999999997e-05,-2.9999999999999997e-05,-2.9999999999999997e-05,4
12901,13580,0.0,-4e-05,0.00013000000000000002,-2e-05,0.00033999999999999997,2.9999999999999997e-05,-2.9999999999999997e-05,-2.9999999999999997e-05,4
12902,13581,0.0,-4e-05,0.00013000000000000002,-2e-05,0.00033999999999999997,2.9999999999999997e-05,-2.9999999999999997e-05,-2.9999999999999997e-05,4
12903,13582,0.0,-4e-05,0.00013000000000000002,-2e-05,0.00033999999999999997,2.9999999999999997e-05,-2.9999999999999997e-05,-2.9999999999999997e-05,4
12904,13583,0.0,-4e-05,0.00013000000000000002,-2e-05,0.00033999999999999997,2.9999999999999997e-05,-2.9999999999999997e-05,-2.9999999999999997e-05,4
12905,13584,0.0,-4e-05,0.00013000000000000002,-2e-05,0.00033999999999999997,2.9999999999999997e-05,-2.9999999999999997e-05,-2.9999999999999997e-05,4
12906,13585,0.0,-4e-05,0.00013000000000000002,-2e-05,0.00033999999999999997,2.9999999999999997e-05,-2.9999999999999997e-05,-2.9999999999999997e-05,4
12907,13586,0.0,-4e-05,0.00013000000000000002,-2e-05,0.00033999999999999997,2.9999999999999997e-05,-2.9999999999999997e-05,-2.9999999999999997e-05,4
12908,13589,-0.0001,-0.00014,-0.00022,-0.00018999999999999998,-0.0005,-8e-05,-0.00011,-1e-05,4
12909,13590,-0.0001,-0.00014,-0.00022,-0.00018999999999999998,-0.0005,-8e-05,-0.00011,-1e-05,4
12910,13591,-0.0001,-0.00014,-0.00022,-0.00018999999999999998,-0.0005,-8e-05,-0.00011,-1e-05,4
12911,13592,-1e-05,1e-05,7e-05,0.0001,0.00041,0.00047999999999999996,0.00011999999999999999,-0.00021,4
12912,13593,4e-05,-0.00013000000000000002,-0.00015,-0.00047999999999999996,-0.00086,-0.00079,-0.0003,0.00016999999999999999,4
12913,13594,4e-05,-0.00013000000000000002,-0.00015,-0.00047999999999999996,-0.00086,-0.00079,-0.0003,0.00016999999999999999,4
12914,13595,4e-05,-0.00013000000000000002,-0.00015,-0.00047999999999999996,-0.00086,-0.00079,-0.0003,0.00016999999999999999,4
12915,13596,4e-05,-0.00013000000000000002,-0.00015,-0.00047999999999999996,-0.00086,-0.00079,-0.0003,0.00016999999999999999,4
12916,13597,4e-05,-0.00013000000000000002,-0.00015,-0.00047999999999999996,-0.00086,-0.00079,-0.0003,0.00016999999999999999,4
12917,13598,4e-05,-0.00013000000000000002,-0.00015,-0.00047999999999999996,-0.00086,-0.00079,-0.0003,0.00016999999999999999,4
12918,13599,4e-05,-0.00013000000000000002,-0.00015,-0.00047999999999999996,-0.00086,-0.00079,-0.0003,0.00016999999999999999,4
12919,13600,4e-05,-0.00013000000000000002,-0.00015,-0.00047999999999999996,-0.00086,-0.00079,-0.0003,0.00016999999999999999,4
12920,13601,-1e-05,-5.9999999999999995e-05,0.00025,2.9999999999999997e-05,-0.00011,9e-05,-8e-05,-0.00011,4
12921,13602,-1e-05,-5.9999999999999995e-05,0.00025,2.9999999999999997e-05,-0.00011,9e-05,-8e-05,-0.00011,4
12922,13603,-0.0001,-0.00011999999999999999,-0.00025,-0.00023999999999999998,-0.0005,-0.00016999999999999999,-0.0001,-7e-05,4
12923,13604,-0.0001,-0.00011999999999999999,-0.00025,-0.00023999999999999998,-0.0005,-0.00016999999999999999,-0.0001,-7e-05,4
12924,13605,-0.0001,-0.00011999999999999999,-0.00025,-0.00023999999999999998,-0.0005,-0.00016999999999999999,-0.0001,-7e-05,4
12925,13606,-0.0001,-0.00011999999999999999,-0.00025,-0.00023999999999999998,-0.0005,-0.00016999999999999999,-0.0001,-7e-05,4
12926,13607,-0.0001,-0.00011999999999999999,-0.00025,-0.00023999999999999998,-0.0005,-0.00016999999999999999,-0.0001,-7e-05,4
12927,13608,-0.0001,-0.00011999999999999999,-0.00025,-0.00023999999999999998,-0.0005,-0.00016999999999999999,-0.0001,-7e-05,4
12928,13609,-0.0001,-0.00011999999999999999,-0.00025,-0.00023999999999999998,-0.0005,-0.00016999999999999999,-0.0001,-7e-05,4
12929,13612,-0.0001,-0.00011999999999999999,-0.00025,-0.00023999999999999998,-0.0005,-0.00016999999999999999,-0.0001,-7e-05,4
12930,13613,-0.0001,-0.00011999999999999999,-0.00025,-0.00023999999999999998,-0.0005,-0.00016999999999999999,-0.0001,-7e-05,4
12931,13614,-0.0001,-0.00011999999999999999,-0.00025,-0.00023999999999999998,-0.0005,-0.00016999999999999999,-0.0001,-7e-05,4
12932,13615,-0.0001,-0.00011999999999999999,-0.00025,-0.00023999999999999998,-0.0005,-0.00016999999999999999,-0.0001,-7e-05,4
12933,13616,-0.0001,-0.00011999999999999999,-0.00025,-0.00023999999999999998,-0.0005,-0.00016999999999999999,-0.0001,-7e-05,4
12934,13617,2.9999999999999997e-05,0.00011,-1e-05,2e-05,-0.00072,9e-05,-2.9999999999999997e-05,0.00011999999999999999,4
12935,13618,1e-05,-5e-05,2e-05,0.00015,0.00065,0.0,-2e-05,-9e-05,4
12936,13619,2e-05,4e-05,0.00013000000000000002,0.00014,0.00036,0.00037,2.9999999999999997e-05,-0.00015,4
12937,13620,2e-05,4e-05,0.00013000000000000002,0.00014,0.00036,0.00037,2.9999999999999997e-05,-0.00015,4
12938,13621,2e-05,4e-05,0.00013000000000000002,0.00014,0.00036,0.00037,2.9999999999999997e-05,-0.00015,4
12939,13622,2e-05,4e-05,0.00013000000000000002,0.00014,0.00036,0.00037,2.9999999999999997e-05,-0.00015,4
12940,13623,2e-05,4e-05,0.00013000000000000002,0.00014,0.00036,0.00037,2.9999999999999997e-05,-0.00015,4
12941,13624,2e-05,4e-05,0.00013000000000000002,0.00014,0.00036,0.00037,2.9999999999999997e-05,-0.00015,4
12942,13625,2e-05,4e-05,0.00013000000000000002,0.00014,0.00036,0.00037,2.9999999999999997e-05,-0.00015,4
12943,13626,2e-05,4e-05,0.00013000000000000002,0.00014,0.00036,0.00037,2.9999999999999997e-05,-0.00015,4
12944,13627,2e-05,4e-05,0.00013000000000000002,0.00014,0.00036,0.00037,2.9999999999999997e-05,-0.00015,4
12945,13628,2e-05,4e-05,0.00013000000000000002,0.00014,0.00036,0.00037,2.9999999999999997e-05,-0.00015,4
12946,13629,2e-05,4e-05,0.00013000000000000002,0.00014,0.00036,0.00037,2.9999999999999997e-05,-0.00015,4
12947,13630,2e-05,4e-05,0.00013000000000000002,0.00014,0.00036,0.00037,2.9999999999999997e-05,-0.00015,4
12948,13631,2e-05,4e-05,0.00013000000000000002,0.00014,0.00036,0.00037,2.9999999999999997e-05,-0.00015,4
12949,13632,2e-05,4e-05,0.00013000000000000002,0.00014,0.00036,0.00037,2.9999999999999997e-05,-0.00015,4
12950,13633,2e-05,4e-05,0.00013000000000000002,0.00014,0.00036,0.00037,2.9999999999999997e-05,-0.00015,4
12951,13634,2e-05,4e-05,0.00013000000000000002,0.00014,0.00036,0.00037,2.9999999999999997e-05,-0.00015,4
12952,13635,2e-05,4e-05,0.00013000000000000002,0.00014,0.00036,0.00037,2.9999999999999997e-05,-0.00015,4
12953,13636,2e-05,4e-05,0.00013000000000000002,0.00014,0.00036,0.00037,2.9999999999999997e-05,-0.00015,4
12954,13639,2e-05,4e-05,0.00013000000000000002,0.00014,0.00036,0.00037,2.9999999999999997e-05,-0.00015,4
12955,13640,2e-05,4e-05,0.00013000000000000002,0.00014,0.00036,0.00037,2.9999999999999997e-05,-0.00015,4
12956,13641,2e-05,4e-05,0.00013000000000000002,0.00014,0.00036,0.00037,2.9999999999999997e-05,-0.00015,4
12957,13642,2e-05,4e-05,0.00013000000000000002,0.00014,0.00036,0.00037,2.9999999999999997e-05,-0.00015,4
12958,13643,2e-05,4e-05,0.00013000000000000002,0.00014,0.00036,0.00037,2.9999999999999997e-05,-0.00015,4
12959,13644,2e-05,4e-05,0.00013000000000000002,0.00014,0.00036,0.00037,2.9999999999999997e-05,-0.00015,4
12960,13645,2e-05,4e-05,0.00013000000000000002,0.00014,0.00036,0.00037,2.9999999999999997e-05,-0.00015,4
12961,13646,-1e-05,2e-05,-0.00016,-0.0001,-0.00035,-0.00027,-0.00021,-0.00036,4
12962,13647,-1e-05,2e-05,-0.00016,-0.0001,-0.00035,-0.00027,-0.00021,-0.00036,4
12963,13648,-0.00013000000000000002,-0.0003,-0.00026000000000000003,-2.9999999999999997e-05,-2e-05,-0.00033999999999999997,4e-05,-5e-05,4
12964,13649,-0.00013000000000000002,-0.0003,-0.00026000000000000003,-2.9999999999999997e-05,-2e-05,-0.00033999999999999997,4e-05,-5e-05,4
12965,13650,-0.00013000000000000002,-0.0003,-0.00026000000000000003,-2.9999999999999997e-05,-2e-05,-0.00033999999999999997,4e-05,-5e-05,4
12966,13651,-0.00013000000000000002,-0.0003,-0.00026000000000000003,-2.9999999999999997e-05,-2e-05,-0.00033999999999999997,4e-05,-5e-05,4
12967,13652,-0.00013000000000000002,-0.0003,-0.00026000000000000003,-2.9999999999999997e-05,-2e-05,-0.00033999999999999997,4e-05,-5e-05,4
12968,13653,-0.00013000000000000002,-0.0003,-0.00026000000000000003,-2.9999999999999997e-05,-2e-05,-0.00033999999999999997,4e-05,-5e-05,4
12969,13654,-0.00013000000000000002,-0.0003,-0.00026000000000000003,-2.9999999999999997e-05,-2e-05,-0.00033999999999999997,4e-05,-5e-05,4
12970,13655,-0.00013000000000000002,-0.0003,-0.00026000000000000003,-2.9999999999999997e-05,-2e-05,-0.00033999999999999997,4e-05,-5e-05,4
12971,13656,-0.00013000000000000002,-0.0003,-0.00026000000000000003,-2.9999999999999997e-05,-2e-05,-0.00033999999999999997,4e-05,-5e-05,4
12972,13657,-0.00013000000000000002,-0.0003,-0.00026000000000000003,-2.9999999999999997e-05,-2e-05,-0.00033999999999999997,4e-05,-5e-05,4
12973,13658,-0.00013000000000000002,-0.0003,-0.00026000000000000003,-2.9999999999999997e-05,-2e-05,-0.00033999999999999997,4e-05,-5e-05,4
12974,13659,-0.00013000000000000002,-0.0003,-0.00026000000000000003,-2.9999999999999997e-05,-2e-05,-0.00033999999999999997,4e-05,-5e-05,4
12975,13660,-0.00013000000000000002,-0.0003,-0.00026000000000000003,-2.9999999999999997e-05,-2e-05,-0.00033999999999999997,4e-05,-5e-05,4
12976,13661,-0.00013000000000000002,-0.0003,-0.00026000000000000003,-2.9999999999999997e-05,-2e-05,-0.00033999999999999997,4e-05,-5e-05,4
12977,13662,-5.9999999999999995e-05,0.00011999999999999999,0.00011,-0.00015,-0.00105,-0.00063,-0.00026000000000000003,-0.00028,4
12978,13663,8e-05,0.0001,0.00032,8e-05,0.00045,0.00026000000000000003,5.9999999999999995e-05,0.00011999999999999999,4
12979,13664,8e-05,0.0001,0.00032,8e-05,0.00045,0.00026000000000000003,5.9999999999999995e-05,0.00011999999999999999,4
12980,13665,8e-05,0.0001,0.00032,8e-05,0.00045,0.00026000000000000003,5.9999999999999995e-05,0.00011999999999999999,4
12981,13666,8e-05,0.0001,0.00032,8e-05,0.00045,0.00026000000000000003,5.9999999999999995e-05,0.00011999999999999999,4
12982,13667,8e-05,0.0001,0.00032,8e-05,0.00045,0.00026000000000000003,5.9999999999999995e-05,0.00011999999999999999,4
12983,13668,8e-05,0.0001,0.00032,8e-05,0.00045,0.00026000000000000003,5.9999999999999995e-05,0.00011999999999999999,4
12984,13669,8e-05,0.0001,0.00032,8e-05,0.00045,0.00026000000000000003,5.9999999999999995e-05,0.00011999999999999999,4
12985,13670,8e-05,0.0001,0.00032,8e-05,0.00045,0.00026000000000000003,5.9999999999999995e-05,0.00011999999999999999,4
12986,13671,8e-05,0.0001,0.00032,8e-05,0.00045,0.00026000000000000003,5.9999999999999995e-05,0.00011999999999999999,4
12987,13672,8e-05,0.0001,0.00032,8e-05,0.00045,0.00026000000000000003,5.9999999999999995e-05,0.00011999999999999999,4
12988,13673,8e-05,0.0001,0.00032,8e-05,0.00045,0.00026000000000000003,5.9999999999999995e-05,0.00011999999999999999,4
12989,13674,8e-05,0.0001,0.00032,8e-05,0.00045,0.00026000000000000003,5.9999999999999995e-05,0.00011999999999999999,4
12990,13675,8e-05,0.0001,0.00032,8e-05,0.00045,0.00026000000000000003,5.9999999999999995e-05,0.00011999999999999999,4
12991,13676,1e-05,-1e-05,-0.00013000000000000002,-0.00014,-0.0006,-0.00015,-0.0001,-7e-05,4
12992,13677,-4e-05,-5.9999999999999995e-05,-0.00013000000000000002,-0.00013000000000000002,5e-05,8e-05,-4e-05,-4e-05,4
12993,13678,-4e-05,-5.9999999999999995e-05,-0.00013000000000000002,-0.00013000000000000002,5e-05,8e-05,-4e-05,-4e-05,4
12994,13679,-4e-05,-5.9999999999999995e-05,-0.00013000000000000002,-0.00013000000000000002,5e-05,8e-05,-4e-05,-4e-05,4
12995,13680,-4e-05,-5.9999999999999995e-05,-0.00013000000000000002,-0.00013000000000000002,5e-05,8e-05,-4e-05,-4e-05,4
12996,13681,-4e-05,-5.9999999999999995e-05,-0.00013000000000000002,-0.00013000000000000002,5e-05,8e-05,-4e-05,-4e-05,4
12997,13682,1e-05,2e-05,2e-05,7e-05,-0.00039,0.00022999999999999998,9e-05,-2e-05,4
12998,13683,-1e-05,1e-05,7e-05,-0.00023999999999999998,-0.00103,-0.00058,0.00014,0.0001,4
12999,13684,-1e-05,1e-05,7e-05,-0.00023999999999999998,-0.00103,-0.00058,0.00014,0.0001,4
13000,13685,-1e-05,1e-05,7e-05,-0.00023999999999999998,-0.00103,-0.00058,0.00014,0.0001,4
13001,13686,-1e-05,1e-05,7e-05,-0.00023999999999999998,-0.00103,-0.00058,0.00014,0.0001,4
13002,13689,-1e-05,1e-05,7e-05,-0.00023999999999999998,-0.00103,-0.00058,0.00014,0.0001,4
13003,13690,-1e-05,1e-05,7e-05,-0.00023999999999999998,-0.00103,-0.00058,0.00014,0.0001,4
13004,13691,-1e-05,1e-05,7e-05,-0.00023999999999999998,-0.00103,-0.00058,0.00014,0.0001,4
13005,13692,-1e-05,1e-05,7e-05,-0.00023999999999999998,-0.00103,-0.00058,0.00014,0.0001,4
13006,13693,-1e-05,1e-05,7e-05,-0.00023999999999999998,-0.00103,-0.00058,0.00014,0.0001,4
13007,13694,-1e-05,1e-05,7e-05,-0.00023999999999999998,-0.00103,-0.00058,0.00014,0.0001,4
13008,13695,-1e-05,1e-05,7e-05,-0.00023999999999999998,-0.00103,-0.00058,0.00014,0.0001,4
13009,13696,-1e-05,1e-05,7e-05,-0.00023999999999999998,-0.00103,-0.00058,0.00014,0.0001,4
13010,13697,-1e-05,1e-05,7e-05,-0.00023999999999999998,-0.00103,-0.00058,0.00014,0.0001,4
13011,13698,-1e-05,1e-05,7e-05,-0.00023999999999999998,-0.00103,-0.00058,0.00014,0.0001,4
13012,13699,-1e-05,1e-05,7e-05,-0.00023999999999999998,-0.00103,-0.00058,0.00014,0.0001,4
13013,13700,-1e-05,1e-05,7e-05,-0.00023999999999999998,-0.00103,-0.00058,0.00014,0.0001,4
13014,13701,-1e-05,1e-05,7e-05,-0.00023999999999999998,-0.00103,-0.00058,0.00014,0.0001,4
13015,13702,-1e-05,1e-05,7e-05,-0.00023999999999999998,-0.00103,-0.00058,0.00014,0.0001,4
13016,13703,-1e-05,1e-05,7e-05,-0.00023999999999999998,-0.00103,-0.00058,0.00014,0.0001,4
13017,13704,-1e-05,1e-05,7e-05,-0.00023999999999999998,-0.00103,-0.00058,0.00014,0.0001,4
13018,13705,-1e-05,1e-05,7e-05,-0.00023999999999999998,-0.00103,-0.00058,0.00014,0.0001,4
13019,13706,-5e-05,0.0,-2e-05,0.0001,0.0006799999999999999,0.00015,-0.00013000000000000002,-7e-05,4
13020,13707,-5e-05,0.0,-2e-05,0.0001,0.0006799999999999999,0.00015,-0.00013000000000000002,-7e-05,4
13021,13708,0.00011999999999999999,2.9999999999999997e-05,5.9999999999999995e-05,0.00013000000000000002,0.0005200000000000001,0.00043,8e-05,8e-05,4
13022,13709,0.00011999999999999999,2.9999999999999997e-05,5.9999999999999995e-05,0.00013000000000000002,0.0005200000000000001,0.00043,8e-05,8e-05,4
13023,13710,0.00011999999999999999,2.9999999999999997e-05,5.9999999999999995e-05,0.00013000000000000002,0.0005200000000000001,0.00043,8e-05,8e-05,4
13024,13711,0.00011999999999999999,2.9999999999999997e-05,5.9999999999999995e-05,0.00013000000000000002,0.0005200000000000001,0.00043,8e-05,8e-05,4
13025,13712,0.00011999999999999999,2.9999999999999997e-05,5.9999999999999995e-05,0.00013000000000000002,0.0005200000000000001,0.00043,8e-05,8e-05,4
13026,13713,0.00011999999999999999,2.9999999999999997e-05,5.9999999999999995e-05,0.00013000000000000002,0.0005200000000000001,0.00043,8e-05,8e-05,4
13027,13714,0.00011999999999999999,2.9999999999999997e-05,5.9999999999999995e-05,0.00013000000000000002,0.0005200000000000001,0.00043,8e-05,8e-05,4
13028,13715,0.00011999999999999999,2.9999999999999997e-05,5.9999999999999995e-05,0.00013000000000000002,0.0005200000000000001,0.00043,8e-05,8e-05,4
13029,13716,0.00011999999999999999,2.9999999999999997e-05,5.9999999999999995e-05,0.00013000000000000002,0.0005200000000000001,0.00043,8e-05,8e-05,4
13030,13717,0.00011999999999999999,2.9999999999999997e-05,5.9999999999999995e-05,0.00013000000000000002,0.0005200000000000001,0.00043,8e-05,8e-05,4
13031,13718,0.00011999999999999999,2.9999999999999997e-05,5.9999999999999995e-05,0.00013000000000000002,0.0005200000000000001,0.00043,8e-05,8e-05,4
13032,13719,0.00011999999999999999,2.9999999999999997e-05,5.9999999999999995e-05,0.00013000000000000002,0.0005200000000000001,0.00043,8e-05,8e-05,4
13033,13720,0.00011999999999999999,2.9999999999999997e-05,5.9999999999999995e-05,0.00013000000000000002,0.0005200000000000001,0.00043,8e-05,8e-05,4
13034,13721,-4e-05,-0.00021,-1e-05,-0.00023999999999999998,-0.00053,-0.00026000000000000003,-5.9999999999999995e-05,-0.00013000000000000002,4
13035,13722,-4e-05,-0.00021,-1e-05,-0.00023999999999999998,-0.00053,-0.00026000000000000003,-5.9999999999999995e-05,-0.00013000000000000002,4
13036,13723,2.9999999999999997e-05,8e-05,2e-05,9e-05,0.0004,0.00065,0.0001,0.00025,4
13037,13724,2.9999999999999997e-05,8e-05,2e-05,9e-05,0.0004,0.00065,0.0001,0.00025,4
13038,13725,2.9999999999999997e-05,8e-05,2e-05,9e-05,0.0004,0.00065,0.0001,0.00025,4
13039,13726,2.9999999999999997e-05,8e-05,2e-05,9e-05,0.0004,0.00065,0.0001,0.00025,4
13040,13727,2.9999999999999997e-05,8e-05,2e-05,9e-05,0.0004,0.00065,0.0001,0.00025,4
13041,13728,2.9999999999999997e-05,8e-05,2e-05,9e-05,0.0004,0.00065,0.0001,0.00025,4
13042,13729,2.9999999999999997e-05,8e-05,2e-05,9e-05,0.0004,0.00065,0.0001,0.00025,4
13043,13730,2.9999999999999997e-05,8e-05,2e-05,9e-05,0.0004,0.00065,0.0001,0.00025,4
13044,13731,2.9999999999999997e-05,8e-05,2e-05,9e-05,0.0004,0.00065,0.0001,0.00025,4
13045,13732,2.9999999999999997e-05,8e-05,2e-05,9e-05,0.0004,0.00065,0.0001,0.00025,4
13046,13733,2.9999999999999997e-05,8e-05,2e-05,9e-05,0.0004,0.00065,0.0001,0.00025,4
13047,13734,2.9999999999999997e-05,8e-05,2e-05,9e-05,0.0004,0.00065,0.0001,0.00025,4
13048,13735,2.9999999999999997e-05,8e-05,2e-05,9e-05,0.0004,0.00065,0.0001,0.00025,4
13049,13737,2e-05,-2.9999999999999997e-05,-2.9999999999999997e-05,5e-05,0.00108,8e-05,8e-05,1e-05,4
13050,13740,-7e-05,-5e-05,0.0,5.9999999999999995e-05,0.00011,-0.00023999999999999998,-0.00011999999999999999,-0.00025,4
13051,13741,-7e-05,-5e-05,0.0,5.9999999999999995e-05,0.00011,-0.00023999999999999998,-0.00011999999999999999,-0.00025,4
13052,13742,-7e-05,-5e-05,0.0,5.9999999999999995e-05,0.00011,-0.00023999999999999998,-0.00011999999999999999,-0.00025,4
13053,13743,-7e-05,-5e-05,0.0,5.9999999999999995e-05,0.00011,-0.00023999999999999998,-0.00011999999999999999,-0.00025,4
13054,13744,-7e-05,-5e-05,0.0,5.9999999999999995e-05,0.00011,-0.00023999999999999998,-0.00011999999999999999,-0.00025,4
13055,13745,-7e-05,-5e-05,0.0,5.9999999999999995e-05,0.00011,-0.00023999999999999998,-0.00011999999999999999,-0.00025,4
13056,13746,-7e-05,-5e-05,0.0,5.9999999999999995e-05,0.00011,-0.00023999999999999998,-0.00011999999999999999,-0.00025,4
13057,13747,-7e-05,-5e-05,0.0,5.9999999999999995e-05,0.00011,-0.00023999999999999998,-0.00011999999999999999,-0.00025,4
13058,13748,-7e-05,-5e-05,0.0,5.9999999999999995e-05,0.00011,-0.00023999999999999998,-0.00011999999999999999,-0.00025,4
13059,13749,-7e-05,-5e-05,0.0,5.9999999999999995e-05,0.00011,-0.00023999999999999998,-0.00011999999999999999,-0.00025,4
13060,13750,-7e-05,-5e-05,0.0,5.9999999999999995e-05,0.00011,-0.00023999999999999998,-0.00011999999999999999,-0.00025,4
13061,13751,-7e-05,-5e-05,0.0,5.9999999999999995e-05,0.00011,-0.00023999999999999998,-0.00011999999999999999,-0.00025,4
13062,13752,-7e-05,-5e-05,0.0,5.9999999999999995e-05,0.00011,-0.00023999999999999998,-0.00011999999999999999,-0.00025,4
13063,13753,-7e-05,-5e-05,0.0,5.9999999999999995e-05,0.00011,-0.00023999999999999998,-0.00011999999999999999,-0.00025,4
13064,13754,-7e-05,-5e-05,0.0,5.9999999999999995e-05,0.00011,-0.00023999999999999998,-0.00011999999999999999,-0.00025,4
13065,13755,-7e-05,-5e-05,0.0,5.9999999999999995e-05,0.00011,-0.00023999999999999998,-0.00011999999999999999,-0.00025,4
13066,13756,-7e-05,-5e-05,0.0,5.9999999999999995e-05,0.00011,-0.00023999999999999998,-0.00011999999999999999,-0.00025,4
13067,13757,-7e-05,-5e-05,0.0,5.9999999999999995e-05,0.00011,-0.00023999999999999998,-0.00011999999999999999,-0.00025,4
13068,13758,-7e-05,-5e-05,0.0,5.9999999999999995e-05,0.00011,-0.00023999999999999998,-0.00011999999999999999,-0.00025,4
13069,13759,-1e-05,5e-05,-2.9999999999999997e-05,0.00011999999999999999,-2.9999999999999997e-05,-0.00037,4e-05,-2e-05,4
13070,13760,-4e-05,1e-05,-4e-05,2.9999999999999997e-05,8e-05,-0.00057,-8e-05,-5e-05,4
13071,13761,-4e-05,1e-05,-4e-05,2.9999999999999997e-05,8e-05,-0.00057,-8e-05,-5e-05,4
13072,13762,-4e-05,1e-05,-4e-05,2.9999999999999997e-05,8e-05,-0.00057,-8e-05,-5e-05,4
13073,13763,-4e-05,1e-05,-4e-05,2.9999999999999997e-05,8e-05,-0.00057,-8e-05,-5e-05,4
13074,13764,-4e-05,1e-05,-4e-05,2.9999999999999997e-05,8e-05,-0.00057,-8e-05,-5e-05,4
13075,13765,-4e-05,1e-05,-4e-05,2.9999999999999997e-05,8e-05,-0.00057,-8e-05,-5e-05,4
13076,13766,-4e-05,1e-05,-4e-05,2.9999999999999997e-05,8e-05,-0.00057,-8e-05,-5e-05,4
13077,13767,-4e-05,1e-05,-4e-05,2.9999999999999997e-05,8e-05,-0.00057,-8e-05,-5e-05,4
13078,13768,-4e-05,1e-05,-4e-05,2.9999999999999997e-05,8e-05,-0.00057,-8e-05,-5e-05,4
13079,13769,-4e-05,1e-05,-4e-05,2.9999999999999997e-05,8e-05,-0.00057,-8e-05,-5e-05,4
13080,13770,-4e-05,1e-05,-4e-05,2.9999999999999997e-05,8e-05,-0.00057,-8e-05,-5e-05,4
13081,13771,-4e-05,1e-05,-4e-05,2.9999999999999997e-05,8e-05,-0.00057,-8e-05,-5e-05,4
13082,13772,-4e-05,1e-05,-4e-05,2.9999999999999997e-05,8e-05,-0.00057,-8e-05,-5e-05,4
13083,13773,-4e-05,1e-05,-4e-05,2.9999999999999997e-05,8e-05,-0.00057,-8e-05,-5e-05,4
13084,13774,-4e-05,1e-05,-4e-05,2.9999999999999997e-05,8e-05,-0.00057,-8e-05,-5e-05,4
13085,13775,-4e-05,1e-05,-4e-05,2.9999999999999997e-05,8e-05,-0.00057,-8e-05,-5e-05,4
13086,13776,-4e-05,1e-05,-4e-05,2.9999999999999997e-05,8e-05,-0.00057,-8e-05,-5e-05,4
13087,13777,-4e-05,1e-05,-4e-05,2.9999999999999997e-05,8e-05,-0.00057,-8e-05,-5e-05,4
13088,13778,-4e-05,1e-05,-4e-05,2.9999999999999997e-05,8e-05,-0.00057,-8e-05,-5e-05,4
13089,13779,-4e-05,1e-05,-4e-05,2.9999999999999997e-05,8e-05,-0.00057,-8e-05,-5e-05,4
13090,13780,-4e-05,1e-05,-4e-05,2.9999999999999997e-05,8e-05,-0.00057,-8e-05,-5e-05,4
13091,13781,-9e-05,-4e-05,-0.00011,-0.0001,2.9999999999999997e-05,-0.00018999999999999998,-5.9999999999999995e-05,-2.9999999999999997e-05,4
13092,13782,-9e-05,-4e-05,-0.00011,-0.0001,2.9999999999999997e-05,-0.00018999999999999998,-5.9999999999999995e-05,-2.9999999999999997e-05,4
13093,13783,7e-05,4e-05,-0.0002,0.00025,0.00078,0.00028,5.9999999999999995e-05,8e-05,4
13094,13784,7e-05,4e-05,-0.0002,0.00025,0.00078,0.00028,5.9999999999999995e-05,8e-05,4
13095,13785,7e-05,4e-05,-0.0002,0.00025,0.00078,0.00028,5.9999999999999995e-05,8e-05,4
13096,13786,7e-05,4e-05,-0.0002,0.00025,0.00078,0.00028,5.9999999999999995e-05,8e-05,4
13097,13788,7e-05,4e-05,-0.0002,0.00025,0.00078,0.00028,5.9999999999999995e-05,8e-05,4
13098,13790,7e-05,4e-05,-0.0002,0.00025,0.00078,0.00028,5.9999999999999995e-05,8e-05,4
13099,13791,7e-05,4e-05,-0.0002,0.00025,0.00078,0.00028,5.9999999999999995e-05,8e-05,4
13100,13792,7e-05,4e-05,-0.0002,0.00025,0.00078,0.00028,5.9999999999999995e-05,8e-05,4
13101,13793,7e-05,4e-05,-0.0002,0.00025,0.00078,0.00028,5.9999999999999995e-05,8e-05,4
13102,13794,7e-05,4e-05,-0.0002,0.00025,0.00078,0.00028,5.9999999999999995e-05,8e-05,4
13103,13795,7e-05,4e-05,-0.0002,0.00025,0.00078,0.00028,5.9999999999999995e-05,8e-05,4
13104,13796,7e-05,4e-05,-0.0002,0.00025,0.00078,0.00028,5.9999999999999995e-05,8e-05,4
13105,13797,-2.9999999999999997e-05,-2e-05,-4e-05,0.0,-5e-05,-0.00018,-9e-05,2.9999999999999997e-05,4
13106,13798,-2.9999999999999997e-05,-2e-05,-4e-05,0.0,-5e-05,-0.00018,-9e-05,2.9999999999999997e-05,4
13107,13799,-2.9999999999999997e-05,-2e-05,-4e-05,0.0,-5e-05,-0.00018,-9e-05,2.9999999999999997e-05,4
13108,13800,-2.9999999999999997e-05,-2e-05,-4e-05,0.0,-5e-05,-0.00018,-9e-05,2.9999999999999997e-05,4
13109,13801,-2.9999999999999997e-05,-2e-05,-4e-05,0.0,-5e-05,-0.00018,-9e-05,2.9999999999999997e-05,4
13110,13802,-2.9999999999999997e-05,-2e-05,-4e-05,0.0,-5e-05,-0.00018,-9e-05,2.9999999999999997e-05,4
13111,13803,-2.9999999999999997e-05,-2e-05,-4e-05,0.0,-5e-05,-0.00018,-9e-05,2.9999999999999997e-05,4
13112,13804,-7e-05,-7e-05,-5e-05,-5.9999999999999995e-05,-0.00021,0.00018,2.9999999999999997e-05,-0.00021,4
13113,13805,-7e-05,-7e-05,-5e-05,-5.9999999999999995e-05,-0.00021,0.00018,2.9999999999999997e-05,-0.00021,4
13114,13806,-7e-05,-7e-05,-5e-05,-5.9999999999999995e-05,-0.00021,0.00018,2.9999999999999997e-05,-0.00021,4
13115,13807,-7e-05,-7e-05,-5e-05,-5.9999999999999995e-05,-0.00021,0.00018,2.9999999999999997e-05,-0.00021,4
13116,13808,-7e-05,-7e-05,-5e-05,-5.9999999999999995e-05,-0.00021,0.00018,2.9999999999999997e-05,-0.00021,4
13117,13809,-7e-05,-7e-05,-5e-05,-5.9999999999999995e-05,-0.00021,0.00018,2.9999999999999997e-05,-0.00021,4
13118,13810,-7e-05,-7e-05,-5e-05,-5.9999999999999995e-05,-0.00021,0.00018,2.9999999999999997e-05,-0.00021,4
13119,13811,-7e-05,-7e-05,-5e-05,-5.9999999999999995e-05,-0.00021,0.00018,2.9999999999999997e-05,-0.00021,4
13120,13812,-7e-05,-7e-05,-5e-05,-5.9999999999999995e-05,-0.00021,0.00018,2.9999999999999997e-05,-0.00021,4
13121,13813,-7e-05,-7e-05,-5e-05,-5.9999999999999995e-05,-0.00021,0.00018,2.9999999999999997e-05,-0.00021,4
13122,13814,-7e-05,-7e-05,-5e-05,-5.9999999999999995e-05,-0.00021,0.00018,2.9999999999999997e-05,-0.00021,4
13123,13815,-7e-05,-7e-05,-5e-05,-5.9999999999999995e-05,-0.00021,0.00018,2.9999999999999997e-05,-0.00021,4
13124,13816,-7e-05,-7e-05,-5e-05,-5.9999999999999995e-05,-0.00021,0.00018,2.9999999999999997e-05,-0.00021,4
13125,13817,-7e-05,-7e-05,-5e-05,-5.9999999999999995e-05,-0.00021,0.00018,2.9999999999999997e-05,-0.00021,4
13126,13818,-7e-05,-7e-05,-5e-05,-5.9999999999999995e-05,-0.00021,0.00018,2.9999999999999997e-05,-0.00021,4
13127,13819,0.0,9e-05,0.00011999999999999999,5e-05,0.00025,-1e-05,-5e-05,-0.00022999999999999998,4
13128,13820,0.0,9e-05,0.00011999999999999999,5e-05,0.00025,-1e-05,-5e-05,-0.00022999999999999998,4
13129,13821,-5.9999999999999995e-05,-9e-05,0.00011999999999999999,-0.00014,-0.00086,-0.00054,-0.00016,-0.00014,4
13130,13822,-5.9999999999999995e-05,-9e-05,0.00011999999999999999,-0.00014,-0.00086,-0.00054,-0.00016,-0.00014,4
13131,13823,-5.9999999999999995e-05,-9e-05,0.00011999999999999999,-0.00014,-0.00086,-0.00054,-0.00016,-0.00014,4
13132,13824,-5.9999999999999995e-05,-9e-05,0.00011999999999999999,-0.00014,-0.00086,-0.00054,-0.00016,-0.00014,4
13133,13825,-5.9999999999999995e-05,-9e-05,0.00011999999999999999,-0.00014,-0.00086,-0.00054,-0.00016,-0.00014,4
13134,13826,-5.9999999999999995e-05,-9e-05,0.00011999999999999999,-0.00014,-0.00086,-0.00054,-0.00016,-0.00014,4
13135,13827,-5.9999999999999995e-05,-9e-05,0.00011999999999999999,-0.00014,-0.00086,-0.00054,-0.00016,-0.00014,4
13136,13828,-5.9999999999999995e-05,-9e-05,0.00011999999999999999,-0.00014,-0.00086,-0.00054,-0.00016,-0.00014,4
13137,13829,-5.9999999999999995e-05,-9e-05,0.00011999999999999999,-0.00014,-0.00086,-0.00054,-0.00016,-0.00014,4
13138,13830,-5.9999999999999995e-05,-9e-05,0.00011999999999999999,-0.00014,-0.00086,-0.00054,-0.00016,-0.00014,4
13139,13831,-5.9999999999999995e-05,-9e-05,0.00011999999999999999,-0.00014,-0.00086,-0.00054,-0.00016,-0.00014,4
13140,13832,-5.9999999999999995e-05,-9e-05,0.00011999999999999999,-0.00014,-0.00086,-0.00054,-0.00016,-0.00014,4
13141,13833,-5.9999999999999995e-05,-9e-05,0.00011999999999999999,-0.00014,-0.00086,-0.00054,-0.00016,-0.00014,4
13142,13834,-5.9999999999999995e-05,-9e-05,0.00011999999999999999,-0.00014,-0.00086,-0.00054,-0.00016,-0.00014,4
13143,13835,-5.9999999999999995e-05,-9e-05,0.00011999999999999999,-0.00014,-0.00086,-0.00054,-0.00016,-0.00014,4
13144,13836,-5.9999999999999995e-05,-9e-05,0.00011999999999999999,-0.00014,-0.00086,-0.00054,-0.00016,-0.00014,4
13145,13839,-5.9999999999999995e-05,-9e-05,0.00011999999999999999,-0.00014,-0.00086,-0.00054,-0.00016,-0.00014,4
13146,13840,-5.9999999999999995e-05,-9e-05,0.00011999999999999999,-0.00014,-0.00086,-0.00054,-0.00016,-0.00014,4
13147,13841,-1e-05,-7e-05,1e-05,-4e-05,-0.00013000000000000002,-0.00023999999999999998,-0.00018,-0.00021,4
13148,13842,-1e-05,-7e-05,1e-05,-4e-05,-0.00013000000000000002,-0.00023999999999999998,-0.00018,-0.00021,4
13149,13843,5.9999999999999995e-05,2e-05,0.0,-9e-05,-0.00049,7e-05,7e-05,0.00028,4
13150,13844,5.9999999999999995e-05,2e-05,0.0,-9e-05,-0.00049,7e-05,7e-05,0.00028,4
13151,13845,5.9999999999999995e-05,2e-05,0.0,-9e-05,-0.00049,7e-05,7e-05,0.00028,4
13152,13846,5.9999999999999995e-05,2e-05,0.0,-9e-05,-0.00049,7e-05,7e-05,0.00028,4
13153,13847,5.9999999999999995e-05,2e-05,0.0,-9e-05,-0.00049,7e-05,7e-05,0.00028,4
13154,13848,5.9999999999999995e-05,2e-05,0.0,-9e-05,-0.00049,7e-05,7e-05,0.00028,4
13155,13849,5.9999999999999995e-05,2e-05,0.0,-9e-05,-0.00049,7e-05,7e-05,0.00028,4
13156,13850,5.9999999999999995e-05,2e-05,0.0,-9e-05,-0.00049,7e-05,7e-05,0.00028,4
13157,13851,5.9999999999999995e-05,2e-05,0.0,-9e-05,-0.00049,7e-05,7e-05,0.00028,4
13158,13852,5.9999999999999995e-05,2e-05,0.0,-9e-05,-0.00049,7e-05,7e-05,0.00028,4
13159,13853,5.9999999999999995e-05,2e-05,0.0,-9e-05,-0.00049,7e-05,7e-05,0.00028,4
13160,13854,5.9999999999999995e-05,2e-05,0.0,-9e-05,-0.00049,7e-05,7e-05,0.00028,4
13161,13855,5.9999999999999995e-05,2e-05,0.0,-9e-05,-0.00049,7e-05,7e-05,0.00028,4
13162,13856,5e-05,8e-05,7e-05,0.00037999999999999997,2e-05,0.00027,0.00015,0.00018,4
13163,13857,5e-05,8e-05,7e-05,0.00037999999999999997,2e-05,0.00027,0.00015,0.00018,4
13164,13858,5e-05,8e-05,7e-05,0.00037999999999999997,2e-05,0.00027,0.00015,0.00018,4
13165,13859,5e-05,8e-05,7e-05,0.00037999999999999997,2e-05,0.00027,0.00015,0.00018,4
13166,13860,5e-05,8e-05,7e-05,0.00037999999999999997,2e-05,0.00027,0.00015,0.00018,4
13167,13861,5e-05,8e-05,7e-05,0.00037999999999999997,2e-05,0.00027,0.00015,0.00018,4
13168,13862,5e-05,8e-05,7e-05,0.00037999999999999997,2e-05,0.00027,0.00015,0.00018,4
13169,13863,5e-05,8e-05,7e-05,0.00037999999999999997,2e-05,0.00027,0.00015,0.00018,4
13170,13864,5e-05,8e-05,7e-05,0.00037999999999999997,2e-05,0.00027,0.00015,0.00018,4
13171,13865,5e-05,8e-05,7e-05,0.00037999999999999997,2e-05,0.00027,0.00015,0.00018,4
13172,13866,5e-05,8e-05,7e-05,0.00037999999999999997,2e-05,0.00027,0.00015,0.00018,4
13173,13867,5e-05,8e-05,7e-05,0.00037999999999999997,2e-05,0.00027,0.00015,0.00018,4
13174,13868,5e-05,8e-05,7e-05,0.00037999999999999997,2e-05,0.00027,0.00015,0.00018,4
13175,13869,5e-05,8e-05,7e-05,0.00037999999999999997,2e-05,0.00027,0.00015,0.00018,4
13176,13870,-2.9999999999999997e-05,8e-05,0.00028,0.0001,0.00039,0.00037,4e-05,-7e-05,4
13177,13871,-2.9999999999999997e-05,8e-05,0.00028,0.0001,0.00039,0.00037,4e-05,-7e-05,4
13178,13872,-2.9999999999999997e-05,8e-05,0.00028,0.0001,0.00039,0.00037,4e-05,-7e-05,4
13179,13873,-2.9999999999999997e-05,8e-05,0.00028,0.0001,0.00039,0.00037,4e-05,-7e-05,4
13180,13874,-2.9999999999999997e-05,8e-05,0.00028,0.0001,0.00039,0.00037,4e-05,-7e-05,4
13181,13875,-2.9999999999999997e-05,8e-05,0.00028,0.0001,0.00039,0.00037,4e-05,-7e-05,4
13182,13876,-2.9999999999999997e-05,8e-05,0.00028,0.0001,0.00039,0.00037,4e-05,-7e-05,4
13183,13877,-2.9999999999999997e-05,8e-05,0.00028,0.0001,0.00039,0.00037,4e-05,-7e-05,4
13184,13878,-2.9999999999999997e-05,8e-05,0.00028,0.0001,0.00039,0.00037,4e-05,-7e-05,4
13185,13880,1e-05,0.0,7e-05,-5e-05,-0.00015,-0.0002,-5e-05,1e-05,4
13186,13881,1e-05,-5e-05,-0.00021,4e-05,-0.00033,-9e-05,-2.9999999999999997e-05,0.00025,4
13187,13882,1e-05,-5e-05,-0.00021,4e-05,-0.00033,-9e-05,-2.9999999999999997e-05,0.00025,4
13188,13883,1e-05,-5e-05,-0.00021,4e-05,-0.00033,-9e-05,-2.9999999999999997e-05,0.00025,4
13189,13884,1e-05,-5e-05,-0.00021,4e-05,-0.00033,-9e-05,-2.9999999999999997e-05,0.00025,4
13190,13885,1e-05,-5e-05,-0.00021,4e-05,-0.00033,-9e-05,-2.9999999999999997e-05,0.00025,4
13191,13886,1e-05,-5e-05,-0.00021,4e-05,-0.00033,-9e-05,-2.9999999999999997e-05,0.00025,4
13192,13889,1e-05,-5e-05,-0.00021,4e-05,-0.00033,-9e-05,-2.9999999999999997e-05,0.00025,4
13193,13890,1e-05,-5e-05,-0.00021,4e-05,-0.00033,-9e-05,-2.9999999999999997e-05,0.00025,4
13194,13891,1e-05,-5e-05,-0.00021,4e-05,-0.00033,-9e-05,-2.9999999999999997e-05,0.00025,4
13195,13892,1e-05,-5e-05,-0.00021,4e-05,-0.00033,-9e-05,-2.9999999999999997e-05,0.00025,4
13196,13893,1e-05,-5e-05,-0.00021,4e-05,-0.00033,-9e-05,-2.9999999999999997e-05,0.00025,4
13197,13894,1e-05,-5e-05,-0.00021,4e-05,-0.00033,-9e-05,-2.9999999999999997e-05,0.00025,4
13198,13895,1e-05,-5e-05,-0.00021,4e-05,-0.00033,-9e-05,-2.9999999999999997e-05,0.00025,4
13199,13896,1e-05,-5e-05,-0.00021,4e-05,-0.00033,-9e-05,-2.9999999999999997e-05,0.00025,4
13200,13897,1e-05,-5e-05,-0.00021,4e-05,-0.00033,-9e-05,-2.9999999999999997e-05,0.00025,4
13201,13898,1e-05,-5e-05,-0.00021,4e-05,-0.00033,-9e-05,-2.9999999999999997e-05,0.00025,4
13202,13899,1e-05,-5e-05,-0.00021,4e-05,-0.00033,-9e-05,-2.9999999999999997e-05,0.00025,4
13203,13900,1e-05,-5e-05,-0.00021,4e-05,-0.00033,-9e-05,-2.9999999999999997e-05,0.00025,4
13204,13901,7e-05,2.9999999999999997e-05,8e-05,0.0001,0.00022,-0.00016,2.9999999999999997e-05,-5.9999999999999995e-05,4
13205,13902,7e-05,2.9999999999999997e-05,8e-05,0.0001,0.00022,-0.00016,2.9999999999999997e-05,-5.9999999999999995e-05,4
13206,13903,-4e-05,-0.00015,-0.00022,-0.00021,-0.0005099999999999999,-0.00045,-0.00015,-2e-05,4
13207,13905,-4e-05,-0.00015,-0.00022,-0.00021,-0.0005099999999999999,-0.00045,-0.00015,-2e-05,4
13208,13906,-4e-05,-0.00015,-0.00022,-0.00021,-0.0005099999999999999,-0.00045,-0.00015,-2e-05,4
13209,13907,-4e-05,-0.00015,-0.00022,-0.00021,-0.0005099999999999999,-0.00045,-0.00015,-2e-05,4
13210,13908,-4e-05,-0.00015,-0.00022,-0.00021,-0.0005099999999999999,-0.00045,-0.00015,-2e-05,4
13211,13909,-4e-05,-0.00015,-0.00022,-0.00021,-0.0005099999999999999,-0.00045,-0.00015,-2e-05,4
13212,13910,-4e-05,-0.00015,-0.00022,-0.00021,-0.0005099999999999999,-0.00045,-0.00015,-2e-05,4
13213,13911,-4e-05,-0.00015,-0.00022,-0.00021,-0.0005099999999999999,-0.00045,-0.00015,-2e-05,4
13214,13912,-4e-05,-0.00015,-0.00022,-0.00021,-0.0005099999999999999,-0.00045,-0.00015,-2e-05,4
13215,13913,-4e-05,-0.00015,-0.00022,-0.00021,-0.0005099999999999999,-0.00045,-0.00015,-2e-05,4
13216,13914,-4e-05,-0.00015,-0.00022,-0.00021,-0.0005099999999999999,-0.00045,-0.00015,-2e-05,4
13217,13915,-4e-05,-0.00015,-0.00022,-0.00021,-0.0005099999999999999,-0.00045,-0.00015,-2e-05,4
13218,13916,-2e-05,7e-05,-5.9999999999999995e-05,-0.00011999999999999999,9e-05,-0.00011,-4e-05,-0.00011,4
13219,13917,-2e-05,7e-05,-5.9999999999999995e-05,-0.00011999999999999999,9e-05,-0.00011,-4e-05,-0.00011,4
13220,13918,-2e-05,7e-05,-5.9999999999999995e-05,-0.00011999999999999999,9e-05,-0.00011,-4e-05,-0.00011,4
13221,13919,-2e-05,7e-05,-5.9999999999999995e-05,-0.00011999999999999999,9e-05,-0.00011,-4e-05,-0.00011,4
13222,13920,-2e-05,7e-05,-5.9999999999999995e-05,-0.00011999999999999999,9e-05,-0.00011,-4e-05,-0.00011,4
13223,13921,-2e-05,7e-05,-5.9999999999999995e-05,-0.00011999999999999999,9e-05,-0.00011,-4e-05,-0.00011,4
13224,13922,-5e-05,-7e-05,-2e-05,-0.00022,-0.00059,-0.00033,-5e-05,0.00016999999999999999,4
13225,13923,1e-05,9e-05,-5.9999999999999995e-05,-5.9999999999999995e-05,0.00041,0.00021,0.00011,-8e-05,4
13226,13924,1e-05,9e-05,-5.9999999999999995e-05,-5.9999999999999995e-05,0.00041,0.00021,0.00011,-8e-05,4
13227,13925,1e-05,9e-05,-5.9999999999999995e-05,-5.9999999999999995e-05,0.00041,0.00021,0.00011,-8e-05,4
13228,13926,1e-05,9e-05,-5.9999999999999995e-05,-5.9999999999999995e-05,0.00041,0.00021,0.00011,-8e-05,4
13229,13927,1e-05,9e-05,-5.9999999999999995e-05,-5.9999999999999995e-05,0.00041,0.00021,0.00011,-8e-05,4
13230,13928,1e-05,9e-05,-5.9999999999999995e-05,-5.9999999999999995e-05,0.00041,0.00021,0.00011,-8e-05,4
13231,13929,1e-05,9e-05,-5.9999999999999995e-05,-5.9999999999999995e-05,0.00041,0.00021,0.00011,-8e-05,4
13232,13930,1e-05,9e-05,-5.9999999999999995e-05,-5.9999999999999995e-05,0.00041,0.00021,0.00011,-8e-05,4
13233,13931,1e-05,9e-05,-5.9999999999999995e-05,-5.9999999999999995e-05,0.00041,0.00021,0.00011,-8e-05,4
13234,13932,1e-05,9e-05,-5.9999999999999995e-05,-5.9999999999999995e-05,0.00041,0.00021,0.00011,-8e-05,4
13235,13933,1e-05,9e-05,-5.9999999999999995e-05,-5.9999999999999995e-05,0.00041,0.00021,0.00011,-8e-05,4
13236,13934,1e-05,9e-05,-5.9999999999999995e-05,-5.9999999999999995e-05,0.00041,0.00021,0.00011,-8e-05,4
13237,13935,1e-05,9e-05,-5.9999999999999995e-05,-5.9999999999999995e-05,0.00041,0.00021,0.00011,-8e-05,4
13238,13936,1e-05,9e-05,-5.9999999999999995e-05,-5.9999999999999995e-05,0.00041,0.00021,0.00011,-8e-05,4
13239,13939,-2e-05,-2e-05,5e-05,0.00026000000000000003,0.00021,-0.0001,-1e-05,-0.00023999999999999998,4
13240,13940,1e-05,1e-05,-5.9999999999999995e-05,-0.0001,5e-05,0.0006,2e-05,0.0001,4
13241,13941,0.0,2.9999999999999997e-05,0.00016999999999999999,-8e-05,-0.00021,-0.00022,-2e-05,-5e-05,4
13242,13942,0.0,2.9999999999999997e-05,0.00016999999999999999,-8e-05,-0.00021,-0.00022,-2e-05,-5e-05,4
13243,13943,0.0,2.9999999999999997e-05,0.00016999999999999999,-8e-05,-0.00021,-0.00022,-2e-05,-5e-05,4
13244,13944,0.0,2.9999999999999997e-05,0.00016999999999999999,-8e-05,-0.00021,-0.00022,-2e-05,-5e-05,4
13245,13945,0.0,2.9999999999999997e-05,0.00016999999999999999,-8e-05,-0.00021,-0.00022,-2e-05,-5e-05,4
13246,13946,0.0,2.9999999999999997e-05,0.00016999999999999999,-8e-05,-0.00021,-0.00022,-2e-05,-5e-05,4
13247,13947,0.0,2.9999999999999997e-05,0.00016999999999999999,-8e-05,-0.00021,-0.00022,-2e-05,-5e-05,4
13248,13948,0.0,2.9999999999999997e-05,0.00016999999999999999,-8e-05,-0.00021,-0.00022,-2e-05,-5e-05,4
13249,13949,0.0,2.9999999999999997e-05,0.00016999999999999999,-8e-05,-0.00021,-0.00022,-2e-05,-5e-05,4
13250,13950,0.0,2.9999999999999997e-05,0.00016999999999999999,-8e-05,-0.00021,-0.00022,-2e-05,-5e-05,4
13251,13951,0.0,2.9999999999999997e-05,0.00016999999999999999,-8e-05,-0.00021,-0.00022,-2e-05,-5e-05,4
13252,13952,0.0,2.9999999999999997e-05,0.00016999999999999999,-8e-05,-0.00021,-0.00022,-2e-05,-5e-05,4
13253,13953,0.0,2.9999999999999997e-05,0.00016999999999999999,-8e-05,-0.00021,-0.00022,-2e-05,-5e-05,4
13254,13954,0.0,2.9999999999999997e-05,0.00016999999999999999,-8e-05,-0.00021,-0.00022,-2e-05,-5e-05,4
13255,13955,0.0,2.9999999999999997e-05,0.00016999999999999999,-8e-05,-0.00021,-0.00022,-2e-05,-5e-05,4
13256,13956,0.0,2.9999999999999997e-05,0.00016999999999999999,-8e-05,-0.00021,-0.00022,-2e-05,-5e-05,4
13257,13957,0.0,2.9999999999999997e-05,0.00016999999999999999,-8e-05,-0.00021,-0.00022,-2e-05,-5e-05,4
13258,13958,0.0,2.9999999999999997e-05,0.00016999999999999999,-8e-05,-0.00021,-0.00022,-2e-05,-5e-05,4
13259,13959,0.0,2.9999999999999997e-05,0.00016999999999999999,-8e-05,-0.00021,-0.00022,-2e-05,-5e-05,4
13260,13960,0.0,2.9999999999999997e-05,0.00016999999999999999,-8e-05,-0.00021,-0.00022,-2e-05,-5e-05,4
13261,13961,-4e-05,-0.00011,-0.00021,-0.00031,-0.0008,9e-05,-0.0001,2e-05,4
13262,13962,-4e-05,-0.00011,-0.00021,-0.00031,-0.0008,9e-05,-0.0001,2e-05,4
13263,13963,-4e-05,-0.00011,-0.00021,-0.00031,-0.0008,9e-05,-0.0001,2e-05,4
13264,13964,0.0,-0.00014,-0.00011,4e-05,0.00047999999999999996,0.0001,-0.00011,-2e-05,4
13265,13965,0.0,-0.00014,-0.00011,4e-05,0.00047999999999999996,0.0001,-0.00011,-2e-05,4
13266,13966,0.0,-0.00014,-0.00011,4e-05,0.00047999999999999996,0.0001,-0.00011,-2e-05,4
13267,13967,0.0,-0.00014,-0.00011,4e-05,0.00047999999999999996,0.0001,-0.00011,-2e-05,4
13268,13968,0.0,-0.00014,-0.00011,4e-05,0.00047999999999999996,0.0001,-0.00011,-2e-05,4
13269,13969,0.0,-0.00014,-0.00011,4e-05,0.00047999999999999996,0.0001,-0.00011,-2e-05,4
13270,13970,0.0,-0.00014,-0.00011,4e-05,0.00047999999999999996,0.0001,-0.00011,-2e-05,4
13271,13971,0.0,-0.00014,-0.00011,4e-05,0.00047999999999999996,0.0001,-0.00011,-2e-05,4
13272,13972,0.0,-0.00014,-0.00011,4e-05,0.00047999999999999996,0.0001,-0.00011,-2e-05,4
13273,13973,0.0,-0.00014,-0.00011,4e-05,0.00047999999999999996,0.0001,-0.00011,-2e-05,4
13274,13974,0.0,-0.00014,-0.00011,4e-05,0.00047999999999999996,0.0001,-0.00011,-2e-05,4
13275,13975,0.0,-0.00014,-0.00011,4e-05,0.00047999999999999996,0.0001,-0.00011,-2e-05,4
13276,13976,5e-05,1e-05,0.00014,0.00047000000000000004,0.0011,0.0003,0.00016,0.00033999999999999997,4
13277,13977,5e-05,1e-05,0.00014,0.00047000000000000004,0.0011,0.0003,0.00016,0.00033999999999999997,4
13278,13978,5e-05,1e-05,0.00014,0.00047000000000000004,0.0011,0.0003,0.00016,0.00033999999999999997,4
13279,13979,5e-05,1e-05,0.00014,0.00047000000000000004,0.0011,0.0003,0.00016,0.00033999999999999997,4
13280,13980,5e-05,1e-05,0.00014,0.00047000000000000004,0.0011,0.0003,0.00016,0.00033999999999999997,4
13281,13981,5e-05,1e-05,0.00014,0.00047000000000000004,0.0011,0.0003,0.00016,0.00033999999999999997,4
13282,13982,-7e-05,-1e-05,-4e-05,-2.9999999999999997e-05,0.00035,0.00036,-8e-05,-0.00036,4
13283,13983,-5e-05,5.9999999999999995e-05,9e-05,4e-05,-0.00016,-2e-05,-4e-05,-0.00022,4
13284,13984,-5e-05,5.9999999999999995e-05,9e-05,4e-05,-0.00016,-2e-05,-4e-05,-0.00022,4
13285,13985,-5e-05,5.9999999999999995e-05,9e-05,4e-05,-0.00016,-2e-05,-4e-05,-0.00022,4
13286,13986,-5e-05,5.9999999999999995e-05,9e-05,4e-05,-0.00016,-2e-05,-4e-05,-0.00022,4
13287,13989,-5e-05,5.9999999999999995e-05,9e-05,4e-05,-0.00016,-2e-05,-4e-05,-0.00022,4
13288,13990,-5e-05,5.9999999999999995e-05,9e-05,4e-05,-0.00016,-2e-05,-4e-05,-0.00022,4
13289,13991,-5e-05,5.9999999999999995e-05,9e-05,4e-05,-0.00016,-2e-05,-4e-05,-0.00022,4
13290,13992,-5e-05,5.9999999999999995e-05,9e-05,4e-05,-0.00016,-2e-05,-4e-05,-0.00022,4
13291,13993,-5e-05,5.9999999999999995e-05,9e-05,4e-05,-0.00016,-2e-05,-4e-05,-0.00022,4
13292,13994,-5e-05,5.9999999999999995e-05,9e-05,4e-05,-0.00016,-2e-05,-4e-05,-0.00022,4
13293,13995,-5e-05,5.9999999999999995e-05,9e-05,4e-05,-0.00016,-2e-05,-4e-05,-0.00022,4
13294,13996,-5e-05,5.9999999999999995e-05,9e-05,4e-05,-0.00016,-2e-05,-4e-05,-0.00022,4
13295,13997,-5e-05,5.9999999999999995e-05,9e-05,4e-05,-0.00016,-2e-05,-4e-05,-0.00022,4
13296,13998,-5e-05,5.9999999999999995e-05,9e-05,4e-05,-0.00016,-2e-05,-4e-05,-0.00022,4
13297,13999,-4e-05,-1e-05,-0.0001,-0.00016,-0.00073,-0.00036,-0.00015,-0.0002,4
13298,14000,-2e-05,5.9999999999999995e-05,1e-05,-0.00018999999999999998,-0.00065,5e-05,-5e-05,2.9999999999999997e-05,4
13299,14001,-2e-05,5.9999999999999995e-05,1e-05,-0.00018999999999999998,-0.00065,5e-05,-5e-05,2.9999999999999997e-05,4
13300,14002,-2e-05,5.9999999999999995e-05,1e-05,-0.00018999999999999998,-0.00065,5e-05,-5e-05,2.9999999999999997e-05,4
13301,14003,-2e-05,5.9999999999999995e-05,1e-05,-0.00018999999999999998,-0.00065,5e-05,-5e-05,2.9999999999999997e-05,4
13302,14004,-2e-05,5.9999999999999995e-05,1e-05,-0.00018999999999999998,-0.00065,5e-05,-5e-05,2.9999999999999997e-05,4
13303,14005,-2e-05,5.9999999999999995e-05,1e-05,-0.00018999999999999998,-0.00065,5e-05,-5e-05,2.9999999999999997e-05,4
13304,14006,-2e-05,5.9999999999999995e-05,1e-05,-0.00018999999999999998,-0.00065,5e-05,-5e-05,2.9999999999999997e-05,4
13305,14007,-2e-05,5.9999999999999995e-05,1e-05,-0.00018999999999999998,-0.00065,5e-05,-5e-05,2.9999999999999997e-05,4
13306,14008,-2e-05,5.9999999999999995e-05,1e-05,-0.00018999999999999998,-0.00065,5e-05,-5e-05,2.9999999999999997e-05,4
13307,14009,-2e-05,5.9999999999999995e-05,1e-05,-0.00018999999999999998,-0.00065,5e-05,-5e-05,2.9999999999999997e-05,4
13308,14010,-2e-05,5.9999999999999995e-05,1e-05,-0.00018999999999999998,-0.00065,5e-05,-5e-05,2.9999999999999997e-05,4
13309,14011,-2e-05,5.9999999999999995e-05,1e-05,-0.00018999999999999998,-0.00065,5e-05,-5e-05,2.9999999999999997e-05,4
13310,14012,-2e-05,5.9999999999999995e-05,1e-05,-0.00018999999999999998,-0.00065,5e-05,-5e-05,2.9999999999999997e-05,4
13311,14013,-2e-05,5.9999999999999995e-05,1e-05,-0.00018999999999999998,-0.00065,5e-05,-5e-05,2.9999999999999997e-05,4
13312,14014,-2e-05,5.9999999999999995e-05,1e-05,-0.00018999999999999998,-0.00065,5e-05,-5e-05,2.9999999999999997e-05,4
13313,14015,-2e-05,5.9999999999999995e-05,1e-05,-0.00018999999999999998,-0.00065,5e-05,-5e-05,2.9999999999999997e-05,4
13314,14016,-2e-05,5.9999999999999995e-05,1e-05,-0.00018999999999999998,-0.00065,5e-05,-5e-05,2.9999999999999997e-05,4
13315,14017,-2e-05,5.9999999999999995e-05,1e-05,-0.00018999999999999998,-0.00065,5e-05,-5e-05,2.9999999999999997e-05,4
13316,14018,-2e-05,5.9999999999999995e-05,1e-05,-0.00018999999999999998,-0.00065,5e-05,-5e-05,2.9999999999999997e-05,4
13317,14019,-2e-05,5.9999999999999995e-05,1e-05,-0.00018999999999999998,-0.00065,5e-05,-5e-05,2.9999999999999997e-05,4
13318,14020,-2e-05,5.9999999999999995e-05,1e-05,-0.00018999999999999998,-0.00065,5e-05,-5e-05,2.9999999999999997e-05,4
13319,14021,1e-05,-0.00016,-7e-05,-0.00015,-0.00049,-0.00035,2.9999999999999997e-05,0.00013000000000000002,4
13320,14022,1e-05,-0.00016,-7e-05,-0.00015,-0.00049,-0.00035,2.9999999999999997e-05,0.00013000000000000002,4
13321,14023,-2e-05,-4e-05,-1e-05,5e-05,1e-05,-0.00018999999999999998,-0.00011999999999999999,5e-05,4
13322,14024,-2e-05,-4e-05,-1e-05,5e-05,1e-05,-0.00018999999999999998,-0.00011999999999999999,5e-05,4
13323,14025,-2e-05,-4e-05,-1e-05,5e-05,1e-05,-0.00018999999999999998,-0.00011999999999999999,5e-05,4
13324,14026,-2e-05,-4e-05,-1e-05,5e-05,1e-05,-0.00018999999999999998,-0.00011999999999999999,5e-05,4
13325,14027,-2e-05,-4e-05,-1e-05,5e-05,1e-05,-0.00018999999999999998,-0.00011999999999999999,5e-05,4
13326,14028,-2e-05,-4e-05,-1e-05,5e-05,1e-05,-0.00018999999999999998,-0.00011999999999999999,5e-05,4
13327,14029,-2e-05,-4e-05,-1e-05,5e-05,1e-05,-0.00018999999999999998,-0.00011999999999999999,5e-05,4
13328,14030,-2e-05,-4e-05,-1e-05,5e-05,1e-05,-0.00018999999999999998,-0.00011999999999999999,5e-05,4
13329,14031,-2e-05,-4e-05,-1e-05,5e-05,1e-05,-0.00018999999999999998,-0.00011999999999999999,5e-05,4
13330,14032,-2e-05,-4e-05,-1e-05,5e-05,1e-05,-0.00018999999999999998,-0.00011999999999999999,5e-05,4
13331,14033,-2e-05,-4e-05,-1e-05,5e-05,1e-05,-0.00018999999999999998,-0.00011999999999999999,5e-05,4
13332,14034,-2e-05,-4e-05,-1e-05,5e-05,1e-05,-0.00018999999999999998,-0.00011999999999999999,5e-05,4
13333,14035,-2e-05,-4e-05,-1e-05,5e-05,1e-05,-0.00018999999999999998,-0.00011999999999999999,5e-05,4
13334,14036,-2e-05,5.9999999999999995e-05,0.0,2e-05,-0.00018,-0.00033,-1e-05,-8e-05,4
13335,14039,-2e-05,5.9999999999999995e-05,0.0,2e-05,-0.00018,-0.00033,-1e-05,-8e-05,4
13336,14040,-2e-05,5.9999999999999995e-05,0.0,2e-05,-0.00018,-0.00033,-1e-05,-8e-05,4
13337,14041,-2e-05,5.9999999999999995e-05,0.0,2e-05,-0.00018,-0.00033,-1e-05,-8e-05,4
13338,14042,-9e-05,-2.9999999999999997e-05,-5.9999999999999995e-05,-0.00045999999999999996,-0.00095,-0.00011999999999999999,-0.00025,-0.0002,4
13339,14043,1e-05,-5.9999999999999995e-05,-2.9999999999999997e-05,0.00021,-2e-05,0.00033999999999999997,0.00045999999999999996,8e-05,4
13340,14044,1e-05,-5.9999999999999995e-05,-2.9999999999999997e-05,0.00021,-2e-05,0.00033999999999999997,0.00045999999999999996,8e-05,4
13341,14045,1e-05,-5.9999999999999995e-05,-2.9999999999999997e-05,0.00021,-2e-05,0.00033999999999999997,0.00045999999999999996,8e-05,4
13342,14046,1e-05,-5.9999999999999995e-05,-2.9999999999999997e-05,0.00021,-2e-05,0.00033999999999999997,0.00045999999999999996,8e-05,4
13343,14047,1e-05,-5.9999999999999995e-05,-2.9999999999999997e-05,0.00021,-2e-05,0.00033999999999999997,0.00045999999999999996,8e-05,4
13344,14048,1e-05,-5.9999999999999995e-05,-2.9999999999999997e-05,0.00021,-2e-05,0.00033999999999999997,0.00045999999999999996,8e-05,4
13345,14049,1e-05,-5.9999999999999995e-05,-2.9999999999999997e-05,0.00021,-2e-05,0.00033999999999999997,0.00045999999999999996,8e-05,4
13346,14050,1e-05,-5.9999999999999995e-05,-2.9999999999999997e-05,0.00021,-2e-05,0.00033999999999999997,0.00045999999999999996,8e-05,4
13347,14051,1e-05,-5.9999999999999995e-05,-2.9999999999999997e-05,0.00021,-2e-05,0.00033999999999999997,0.00045999999999999996,8e-05,4
13348,14052,1e-05,-5.9999999999999995e-05,-2.9999999999999997e-05,0.00021,-2e-05,0.00033999999999999997,0.00045999999999999996,8e-05,4
13349,14053,1e-05,-5.9999999999999995e-05,-2.9999999999999997e-05,0.00021,-2e-05,0.00033999999999999997,0.00045999999999999996,8e-05,4
13350,14054,1e-05,-5.9999999999999995e-05,-2.9999999999999997e-05,0.00021,-2e-05,0.00033999999999999997,0.00045999999999999996,8e-05,4
13351,14055,1e-05,-5.9999999999999995e-05,-2.9999999999999997e-05,0.00021,-2e-05,0.00033999999999999997,0.00045999999999999996,8e-05,4
13352,14056,1e-05,-5.9999999999999995e-05,-2.9999999999999997e-05,0.00021,-2e-05,0.00033999999999999997,0.00045999999999999996,8e-05,4
13353,14057,1e-05,-5.9999999999999995e-05,-2.9999999999999997e-05,0.00021,-2e-05,0.00033999999999999997,0.00045999999999999996,8e-05,4
13354,14058,1e-05,-5.9999999999999995e-05,-2.9999999999999997e-05,0.00021,-2e-05,0.00033999999999999997,0.00045999999999999996,8e-05,4
13355,14059,1e-05,-5.9999999999999995e-05,-2.9999999999999997e-05,0.00021,-2e-05,0.00033999999999999997,0.00045999999999999996,8e-05,4
13356,14060,1e-05,-5.9999999999999995e-05,-2.9999999999999997e-05,0.00021,-2e-05,0.00033999999999999997,0.00045999999999999996,8e-05,4
13357,14061,1e-05,-5.9999999999999995e-05,-2.9999999999999997e-05,0.00021,-2e-05,0.00033999999999999997,0.00045999999999999996,8e-05,4
13358,14062,1e-05,-5.9999999999999995e-05,-2.9999999999999997e-05,0.00021,-2e-05,0.00033999999999999997,0.00045999999999999996,8e-05,4
13359,14063,1e-05,-5.9999999999999995e-05,-2.9999999999999997e-05,0.00021,-2e-05,0.00033999999999999997,0.00045999999999999996,8e-05,4
13360,14064,1e-05,-5.9999999999999995e-05,-2.9999999999999997e-05,0.00021,-2e-05,0.00033999999999999997,0.00045999999999999996,8e-05,4
13361,14065,1e-05,-5.9999999999999995e-05,-2.9999999999999997e-05,0.00021,-2e-05,0.00033999999999999997,0.00045999999999999996,8e-05,4
13362,14066,4e-05,0.0001,5.9999999999999995e-05,8e-05,-0.0003,7e-05,-0.00013000000000000002,-0.00037999999999999997,4
13363,14067,4e-05,0.0001,5.9999999999999995e-05,8e-05,-0.0003,7e-05,-0.00013000000000000002,-0.00037999999999999997,4
13364,14068,-2e-05,0.0,0.00011,4e-05,9e-05,-0.0002,-8e-05,-0.00014,4
13365,14069,-2e-05,0.0,0.00011,4e-05,9e-05,-0.0002,-8e-05,-0.00014,4
13366,14070,-2e-05,0.0,0.00011,4e-05,9e-05,-0.0002,-8e-05,-0.00014,4
13367,14071,-2e-05,0.0,0.00011,4e-05,9e-05,-0.0002,-8e-05,-0.00014,4
13368,14072,-2e-05,0.0,0.00011,4e-05,9e-05,-0.0002,-8e-05,-0.00014,4
13369,14073,-2e-05,0.0,0.00011,4e-05,9e-05,-0.0002,-8e-05,-0.00014,4
13370,14074,-2e-05,0.0,0.00011,4e-05,9e-05,-0.0002,-8e-05,-0.00014,4
13371,14075,-2e-05,0.0,0.00011,4e-05,9e-05,-0.0002,-8e-05,-0.00014,4
13372,14076,-2e-05,0.0,0.00011,4e-05,9e-05,-0.0002,-8e-05,-0.00014,4
13373,14077,-2e-05,0.0,0.00011,4e-05,9e-05,-0.0002,-8e-05,-0.00014,4
13374,14078,-2e-05,0.0,0.00011,4e-05,9e-05,-0.0002,-8e-05,-0.00014,4
13375,14079,-2e-05,0.0,0.00011,4e-05,9e-05,-0.0002,-8e-05,-0.00014,4
13376,14080,-2e-05,0.0,0.00011,4e-05,9e-05,-0.0002,-8e-05,-0.00014,4
13377,14081,-4e-05,1e-05,0.0001,-9e-05,-2e-05,0.00011,0.0,-2.9999999999999997e-05,4
13378,14082,-4e-05,1e-05,0.0001,-9e-05,-2e-05,0.00011,0.0,-2.9999999999999997e-05,4
13379,14083,-4e-05,5.9999999999999995e-05,-0.00022,-0.00015,-0.00022999999999999998,2e-05,-0.00011,2e-05,4
13380,14084,-4e-05,5.9999999999999995e-05,-0.00022,-0.00015,-0.00022999999999999998,2e-05,-0.00011,2e-05,4
13381,14085,-4e-05,5.9999999999999995e-05,-0.00022,-0.00015,-0.00022999999999999998,2e-05,-0.00011,2e-05,4
13382,14086,-4e-05,5.9999999999999995e-05,-0.00022,-0.00015,-0.00022999999999999998,2e-05,-0.00011,2e-05,4
13383,14089,-4e-05,5.9999999999999995e-05,-0.00022,-0.00015,-0.00022999999999999998,2e-05,-0.00011,2e-05,4
13384,14090,-4e-05,5.9999999999999995e-05,-0.00022,-0.00015,-0.00022999999999999998,2e-05,-0.00011,2e-05,4
13385,14091,-4e-05,5.9999999999999995e-05,-0.00022,-0.00015,-0.00022999999999999998,2e-05,-0.00011,2e-05,4
13386,14092,-4e-05,5.9999999999999995e-05,-0.00022,-0.00015,-0.00022999999999999998,2e-05,-0.00011,2e-05,4
13387,14093,-4e-05,5.9999999999999995e-05,-0.00022,-0.00015,-0.00022999999999999998,2e-05,-0.00011,2e-05,4
13388,14094,-4e-05,5.9999999999999995e-05,-0.00022,-0.00015,-0.00022999999999999998,2e-05,-0.00011,2e-05,4
13389,14095,-5.9999999999999995e-05,-4e-05,-0.00015,-7e-05,-0.00011999999999999999,-0.00032,-1e-05,8e-05,4
13390,14096,-5.9999999999999995e-05,-4e-05,-0.00015,-7e-05,-0.00011999999999999999,-0.00032,-1e-05,8e-05,4
13391,14097,-5.9999999999999995e-05,-4e-05,-0.00015,-7e-05,-0.00011999999999999999,-0.00032,-1e-05,8e-05,4
13392,14098,-5.9999999999999995e-05,-4e-05,-0.00015,-7e-05,-0.00011999999999999999,-0.00032,-1e-05,8e-05,4
13393,14099,-5.9999999999999995e-05,-4e-05,-0.00015,-7e-05,-0.00011999999999999999,-0.00032,-1e-05,8e-05,4
13394,14100,-5.9999999999999995e-05,-4e-05,-0.00015,-7e-05,-0.00011999999999999999,-0.00032,-1e-05,8e-05,4
13395,14101,-5.9999999999999995e-05,-4e-05,-0.00015,-7e-05,-0.00011999999999999999,-0.00032,-1e-05,8e-05,4
13396,14102,-5.9999999999999995e-05,-4e-05,-0.00015,-7e-05,-0.00011999999999999999,-0.00032,-1e-05,8e-05,4
13397,14103,-5.9999999999999995e-05,-4e-05,-0.00015,-7e-05,-0.00011999999999999999,-0.00032,-1e-05,8e-05,4
13398,14104,-5.9999999999999995e-05,-4e-05,-0.00015,-7e-05,-0.00011999999999999999,-0.00032,-1e-05,8e-05,4
13399,14105,-5.9999999999999995e-05,-4e-05,-0.00015,-7e-05,-0.00011999999999999999,-0.00032,-1e-05,8e-05,4
13400,14106,-5.9999999999999995e-05,-4e-05,-0.00015,-7e-05,-0.00011999999999999999,-0.00032,-1e-05,8e-05,4
13401,14107,-5.9999999999999995e-05,-4e-05,-0.00015,-7e-05,-0.00011999999999999999,-0.00032,-1e-05,8e-05,4
13402,14108,-5.9999999999999995e-05,-4e-05,-0.00015,-7e-05,-0.00011999999999999999,-0.00032,-1e-05,8e-05,4
13403,14109,-5.9999999999999995e-05,-4e-05,-0.00015,-7e-05,-0.00011999999999999999,-0.00032,-1e-05,8e-05,4
13404,14110,-5.9999999999999995e-05,-4e-05,-0.00015,-7e-05,-0.00011999999999999999,-0.00032,-1e-05,8e-05,4
13405,14111,5.9999999999999995e-05,0.00011,0.00023999999999999998,0.00014,-7e-05,-5.9999999999999995e-05,-4e-05,-5.9999999999999995e-05,4
13406,14112,5.9999999999999995e-05,0.00011,0.00023999999999999998,0.00014,-7e-05,-5.9999999999999995e-05,-4e-05,-5.9999999999999995e-05,4
13407,14113,5.9999999999999995e-05,0.00011,0.00023999999999999998,0.00014,-7e-05,-5.9999999999999995e-05,-4e-05,-5.9999999999999995e-05,4
13408,14114,5.9999999999999995e-05,0.00011,0.00023999999999999998,0.00014,-7e-05,-5.9999999999999995e-05,-4e-05,-5.9999999999999995e-05,4
13409,14115,5.9999999999999995e-05,0.00011,0.00023999999999999998,0.00014,-7e-05,-5.9999999999999995e-05,-4e-05,-5.9999999999999995e-05,4
13410,14116,5.9999999999999995e-05,0.00011,0.00023999999999999998,0.00014,-7e-05,-5.9999999999999995e-05,-4e-05,-5.9999999999999995e-05,4
13411,14117,5.9999999999999995e-05,0.00011,0.00023999999999999998,0.00014,-7e-05,-5.9999999999999995e-05,-4e-05,-5.9999999999999995e-05,4
13412,14118,5.9999999999999995e-05,0.00011,0.00023999999999999998,0.00014,-7e-05,-5.9999999999999995e-05,-4e-05,-5.9999999999999995e-05,4
13413,14119,-4e-05,-9e-05,-0.0001,-0.0002,-0.00016999999999999999,-0.00021,1e-05,-7e-05,4
13414,14120,1e-05,-0.00011999999999999999,-0.00022,-9e-05,-0.00011999999999999999,9e-05,0.0001,0.00018,4
13415,14121,-1e-05,0.00011,-1e-05,4e-05,0.00016999999999999999,1e-05,2e-05,-5e-05,4
13416,14122,-1e-05,0.00011,-1e-05,4e-05,0.00016999999999999999,1e-05,2e-05,-5e-05,4
13417,14123,-1e-05,0.00011,-1e-05,4e-05,0.00016999999999999999,1e-05,2e-05,-5e-05,4
13418,14124,-1e-05,0.00011,-1e-05,4e-05,0.00016999999999999999,1e-05,2e-05,-5e-05,4
13419,14125,-1e-05,0.00011,-1e-05,4e-05,0.00016999999999999999,1e-05,2e-05,-5e-05,4
13420,14126,-1e-05,0.00011,-1e-05,4e-05,0.00016999999999999999,1e-05,2e-05,-5e-05,4
13421,14127,-1e-05,0.00011,-1e-05,4e-05,0.00016999999999999999,1e-05,2e-05,-5e-05,4
13422,14128,-1e-05,0.00011,-1e-05,4e-05,0.00016999999999999999,1e-05,2e-05,-5e-05,4
13423,14129,-1e-05,0.00011,-1e-05,4e-05,0.00016999999999999999,1e-05,2e-05,-5e-05,4
13424,14130,-1e-05,0.00011,-1e-05,4e-05,0.00016999999999999999,1e-05,2e-05,-5e-05,4
13425,14131,-1e-05,0.00011,-1e-05,4e-05,0.00016999999999999999,1e-05,2e-05,-5e-05,4
13426,14132,-1e-05,0.00011,-1e-05,4e-05,0.00016999999999999999,1e-05,2e-05,-5e-05,4
13427,14133,-1e-05,0.00011,-1e-05,4e-05,0.00016999999999999999,1e-05,2e-05,-5e-05,4
13428,14134,-1e-05,0.00011,-1e-05,4e-05,0.00016999999999999999,1e-05,2e-05,-5e-05,4
13429,14135,-1e-05,0.00011,-1e-05,4e-05,0.00016999999999999999,1e-05,2e-05,-5e-05,4
13430,14136,-1e-05,0.00011,-1e-05,4e-05,0.00016999999999999999,1e-05,2e-05,-5e-05,4
13431,14139,-1e-05,0.00011,-1e-05,4e-05,0.00016999999999999999,1e-05,2e-05,-5e-05,4
13432,14140,-1e-05,-0.00011999999999999999,-5.9999999999999995e-05,-0.00022,-0.00028,0.00021,2.9999999999999997e-05,-7e-05,4
13433,14141,5.9999999999999995e-05,4e-05,8e-05,0.00026000000000000003,0.0007599999999999999,-4e-05,0.00015,0.00026000000000000003,4
13434,14142,5.9999999999999995e-05,4e-05,8e-05,0.00026000000000000003,0.0007599999999999999,-4e-05,0.00015,0.00026000000000000003,4
13435,14143,5.9999999999999995e-05,4e-05,8e-05,0.00026000000000000003,0.0007599999999999999,-4e-05,0.00015,0.00026000000000000003,4
13436,14144,5.9999999999999995e-05,4e-05,8e-05,0.00026000000000000003,0.0007599999999999999,-4e-05,0.00015,0.00026000000000000003,4
13437,14145,5.9999999999999995e-05,4e-05,8e-05,0.00026000000000000003,0.0007599999999999999,-4e-05,0.00015,0.00026000000000000003,4
13438,14146,5.9999999999999995e-05,4e-05,8e-05,0.00026000000000000003,0.0007599999999999999,-4e-05,0.00015,0.00026000000000000003,4
13439,14147,5.9999999999999995e-05,4e-05,8e-05,0.00026000000000000003,0.0007599999999999999,-4e-05,0.00015,0.00026000000000000003,4
13440,14148,5.9999999999999995e-05,4e-05,8e-05,0.00026000000000000003,0.0007599999999999999,-4e-05,0.00015,0.00026000000000000003,4
13441,14149,-2.9999999999999997e-05,-0.00011999999999999999,-0.00031,-0.00011,-0.00022999999999999998,-0.0003,-0.00015,-0.0002,4
13442,14150,-2.9999999999999997e-05,-0.00011999999999999999,-0.00031,-0.00011,-0.00022999999999999998,-0.0003,-0.00015,-0.0002,4
13443,14151,-2.9999999999999997e-05,-0.00011999999999999999,-0.00031,-0.00011,-0.00022999999999999998,-0.0003,-0.00015,-0.0002,4
13444,14152,-2.9999999999999997e-05,-0.00011999999999999999,-0.00031,-0.00011,-0.00022999999999999998,-0.0003,-0.00015,-0.0002,4
13445,14153,-2.9999999999999997e-05,-0.00011999999999999999,-0.00031,-0.00011,-0.00022999999999999998,-0.0003,-0.00015,-0.0002,4
13446,14154,-2.9999999999999997e-05,-0.00011999999999999999,-0.00031,-0.00011,-0.00022999999999999998,-0.0003,-0.00015,-0.0002,4
13447,14155,-5.9999999999999995e-05,0.0,0.0002,-2e-05,0.00011999999999999999,-0.00032,-5.9999999999999995e-05,5.9999999999999995e-05,4
13448,14156,-5.9999999999999995e-05,0.0,0.0002,-2e-05,0.00011999999999999999,-0.00032,-5.9999999999999995e-05,5.9999999999999995e-05,4
13449,14157,-5.9999999999999995e-05,0.0,0.0002,-2e-05,0.00011999999999999999,-0.00032,-5.9999999999999995e-05,5.9999999999999995e-05,4
13450,14158,-5.9999999999999995e-05,0.0,0.0002,-2e-05,0.00011999999999999999,-0.00032,-5.9999999999999995e-05,5.9999999999999995e-05,4
13451,14159,-5.9999999999999995e-05,0.0,0.0002,-2e-05,0.00011999999999999999,-0.00032,-5.9999999999999995e-05,5.9999999999999995e-05,4
13452,14160,-5.9999999999999995e-05,0.0,0.0002,-2e-05,0.00011999999999999999,-0.00032,-5.9999999999999995e-05,5.9999999999999995e-05,4
13453,14161,-5.9999999999999995e-05,0.0,0.0002,-2e-05,0.00011999999999999999,-0.00032,-5.9999999999999995e-05,5.9999999999999995e-05,4
13454,14162,-5.9999999999999995e-05,0.0,0.0002,-2e-05,0.00011999999999999999,-0.00032,-5.9999999999999995e-05,5.9999999999999995e-05,4
13455,14163,-5.9999999999999995e-05,0.0,0.0002,-2e-05,0.00011999999999999999,-0.00032,-5.9999999999999995e-05,5.9999999999999995e-05,4
13456,14164,0.0,-9e-05,-2.9999999999999997e-05,-0.00011999999999999999,-0.00013000000000000002,8e-05,5e-05,5e-05,4
13457,14166,0.0,-9e-05,-2.9999999999999997e-05,-0.00011999999999999999,-0.00013000000000000002,8e-05,5e-05,5e-05,4
13458,14167,0.0,-9e-05,-2.9999999999999997e-05,-0.00011999999999999999,-0.00013000000000000002,8e-05,5e-05,5e-05,4
13459,14168,0.0,-9e-05,-2.9999999999999997e-05,-0.00011999999999999999,-0.00013000000000000002,8e-05,5e-05,5e-05,4
13460,14169,0.0,-9e-05,-2.9999999999999997e-05,-0.00011999999999999999,-0.00013000000000000002,8e-05,5e-05,5e-05,4
13461,14170,0.0,-9e-05,-2.9999999999999997e-05,-0.00011999999999999999,-0.00013000000000000002,8e-05,5e-05,5e-05,4
13462,14171,0.0,-9e-05,-2.9999999999999997e-05,-0.00011999999999999999,-0.00013000000000000002,8e-05,5e-05,5e-05,4
13463,14172,0.0,-9e-05,-2.9999999999999997e-05,-0.00011999999999999999,-0.00013000000000000002,8e-05,5e-05,5e-05,4
13464,14173,0.0,-9e-05,-2.9999999999999997e-05,-0.00011999999999999999,-0.00013000000000000002,8e-05,5e-05,5e-05,4
13465,14174,0.0,-9e-05,-2.9999999999999997e-05,-0.00011999999999999999,-0.00013000000000000002,8e-05,5e-05,5e-05,4
13466,14175,0.0,-9e-05,-2.9999999999999997e-05,-0.00011999999999999999,-0.00013000000000000002,8e-05,5e-05,5e-05,4
13467,14176,0.0,-9e-05,-2.9999999999999997e-05,-0.00011999999999999999,-0.00013000000000000002,8e-05,5e-05,5e-05,4
13468,14177,0.0,-9e-05,-2.9999999999999997e-05,-0.00011999999999999999,-0.00013000000000000002,8e-05,5e-05,5e-05,4
13469,14178,0.0,-9e-05,-2.9999999999999997e-05,-0.00011999999999999999,-0.00013000000000000002,8e-05,5e-05,5e-05,4
13470,14179,4e-05,0.00011999999999999999,5e-05,8e-05,0.00018999999999999998,0.00029,0.00014,5e-05,4
13471,14180,4e-05,0.00011999999999999999,5e-05,8e-05,0.00018999999999999998,0.00029,0.00014,5e-05,4
13472,14181,1e-05,-2e-05,-1e-05,-0.0002,-0.0007099999999999999,7e-05,4e-05,0.00018,4
13473,14182,1e-05,-2e-05,-1e-05,-0.0002,-0.0007099999999999999,7e-05,4e-05,0.00018,4
13474,14183,1e-05,-2e-05,-1e-05,-0.0002,-0.0007099999999999999,7e-05,4e-05,0.00018,4
13475,14184,1e-05,-2e-05,-1e-05,-0.0002,-0.0007099999999999999,7e-05,4e-05,0.00018,4
13476,14185,1e-05,-2e-05,-1e-05,-0.0002,-0.0007099999999999999,7e-05,4e-05,0.00018,4
13477,14186,1e-05,-2e-05,-1e-05,-0.0002,-0.0007099999999999999,7e-05,4e-05,0.00018,4
13478,14189,1e-05,-2e-05,-1e-05,-0.0002,-0.0007099999999999999,7e-05,4e-05,0.00018,4
13479,14190,1e-05,-2e-05,-1e-05,-0.0002,-0.0007099999999999999,7e-05,4e-05,0.00018,4
13480,14191,1e-05,-2e-05,-1e-05,-0.0002,-0.0007099999999999999,7e-05,4e-05,0.00018,4
13481,14192,1e-05,-2e-05,-1e-05,-0.0002,-0.0007099999999999999,7e-05,4e-05,0.00018,4
13482,14193,1e-05,-2e-05,-1e-05,-0.0002,-0.0007099999999999999,7e-05,4e-05,0.00018,4
13483,14194,1e-05,-2e-05,-1e-05,-0.0002,-0.0007099999999999999,7e-05,4e-05,0.00018,4
13484,14195,1e-05,-2e-05,-1e-05,-0.0002,-0.0007099999999999999,7e-05,4e-05,0.00018,4
13485,14196,1e-05,-2e-05,-1e-05,-0.0002,-0.0007099999999999999,7e-05,4e-05,0.00018,4
13486,14197,1e-05,-2e-05,-1e-05,-0.0002,-0.0007099999999999999,7e-05,4e-05,0.00018,4
13487,14198,1e-05,-2e-05,-1e-05,-0.0002,-0.0007099999999999999,7e-05,4e-05,0.00018,4
13488,14199,1e-05,-2e-05,-1e-05,-0.0002,-0.0007099999999999999,7e-05,4e-05,0.00018,4
13489,14200,1e-05,-2e-05,-1e-05,-0.0002,-0.0007099999999999999,7e-05,4e-05,0.00018,4
13490,14201,0.0,5e-05,0.0,1e-05,0.0005,0.00047999999999999996,2.9999999999999997e-05,-0.00011999999999999999,4
13491,14202,0.0,5e-05,0.0,1e-05,0.0005,0.00047999999999999996,2.9999999999999997e-05,-0.00011999999999999999,4
13492,14203,-2e-05,-8e-05,-0.00013000000000000002,-0.0001,0.00028,-0.00015,-0.00011999999999999999,-7e-05,4
13493,14204,-2e-05,-8e-05,-0.00013000000000000002,-0.0001,0.00028,-0.00015,-0.00011999999999999999,-7e-05,4
13494,14205,-2e-05,-8e-05,-0.00013000000000000002,-0.0001,0.00028,-0.00015,-0.00011999999999999999,-7e-05,4
13495,14206,-2e-05,-8e-05,-0.00013000000000000002,-0.0001,0.00028,-0.00015,-0.00011999999999999999,-7e-05,4
13496,14207,-2e-05,-8e-05,-0.00013000000000000002,-0.0001,0.00028,-0.00015,-0.00011999999999999999,-7e-05,4
13497,14208,-2e-05,-8e-05,-0.00013000000000000002,-0.0001,0.00028,-0.00015,-0.00011999999999999999,-7e-05,4
13498,14209,-2e-05,-8e-05,-0.00013000000000000002,-0.0001,0.00028,-0.00015,-0.00011999999999999999,-7e-05,4
13499,14210,-2e-05,-8e-05,-0.00013000000000000002,-0.0001,0.00028,-0.00015,-0.00011999999999999999,-7e-05,4
13500,14211,-2e-05,-8e-05,-0.00013000000000000002,-0.0001,0.00028,-0.00015,-0.00011999999999999999,-7e-05,4
13501,14212,-2e-05,-8e-05,-0.00013000000000000002,-0.0001,0.00028,-0.00015,-0.00011999999999999999,-7e-05,4
13502,14213,-2e-05,-8e-05,-0.00013000000000000002,-0.0001,0.00028,-0.00015,-0.00011999999999999999,-7e-05,4
13503,14214,-2e-05,-8e-05,-0.00013000000000000002,-0.0001,0.00028,-0.00015,-0.00011999999999999999,-7e-05,4
13504,14215,9e-05,0.00016,0.00021,0.00011,-0.00049,-0.00014,0.0001,0.00039,4
13505,14216,9e-05,0.00016,0.00021,0.00011,-0.00049,-0.00014,0.0001,0.00039,4
13506,14217,9e-05,0.00016,0.00021,0.00011,-0.00049,-0.00014,0.0001,0.00039,4
13507,14218,9e-05,0.00016,0.00021,0.00011,-0.00049,-0.00014,0.0001,0.00039,4
13508,14219,9e-05,0.00016,0.00021,0.00011,-0.00049,-0.00014,0.0001,0.00039,4
13509,14220,9e-05,0.00016,0.00021,0.00011,-0.00049,-0.00014,0.0001,0.00039,4
13510,14221,9e-05,0.00016,0.00021,0.00011,-0.00049,-0.00014,0.0001,0.00039,4
13511,14222,9e-05,0.00016,0.00021,0.00011,-0.00049,-0.00014,0.0001,0.00039,4
13512,14223,9e-05,0.00016,0.00021,0.00011,-0.00049,-0.00014,0.0001,0.00039,4
13513,14224,2.9999999999999997e-05,-0.00011999999999999999,4e-05,2e-05,-5e-05,0.00022999999999999998,2.9999999999999997e-05,9e-05,4
13514,14225,2.9999999999999997e-05,-0.00011999999999999999,4e-05,2e-05,-5e-05,0.00022999999999999998,2.9999999999999997e-05,9e-05,4
13515,14226,2.9999999999999997e-05,-0.00011999999999999999,4e-05,2e-05,-5e-05,0.00022999999999999998,2.9999999999999997e-05,9e-05,4
13516,14227,2.9999999999999997e-05,-0.00011999999999999999,4e-05,2e-05,-5e-05,0.00022999999999999998,2.9999999999999997e-05,9e-05,4
13517,14228,2.9999999999999997e-05,-0.00011999999999999999,4e-05,2e-05,-5e-05,0.00022999999999999998,2.9999999999999997e-05,9e-05,4
13518,14229,2.9999999999999997e-05,-0.00011999999999999999,4e-05,2e-05,-5e-05,0.00022999999999999998,2.9999999999999997e-05,9e-05,4
13519,14230,2.9999999999999997e-05,-0.00011999999999999999,4e-05,2e-05,-5e-05,0.00022999999999999998,2.9999999999999997e-05,9e-05,4
13520,14231,2.9999999999999997e-05,-0.00011999999999999999,4e-05,2e-05,-5e-05,0.00022999999999999998,2.9999999999999997e-05,9e-05,4
13521,14232,2.9999999999999997e-05,-0.00011999999999999999,4e-05,2e-05,-5e-05,0.00022999999999999998,2.9999999999999997e-05,9e-05,4
13522,14233,2.9999999999999997e-05,-0.00011999999999999999,4e-05,2e-05,-5e-05,0.00022999999999999998,2.9999999999999997e-05,9e-05,4
13523,14234,2.9999999999999997e-05,-0.00011999999999999999,4e-05,2e-05,-5e-05,0.00022999999999999998,2.9999999999999997e-05,9e-05,4
13524,14235,2.9999999999999997e-05,-0.00011999999999999999,4e-05,2e-05,-5e-05,0.00022999999999999998,2.9999999999999997e-05,9e-05,4
13525,14236,2.9999999999999997e-05,-0.00011999999999999999,4e-05,2e-05,-5e-05,0.00022999999999999998,2.9999999999999997e-05,9e-05,4
13526,14239,-1e-05,-2e-05,0.00028,-7e-05,-0.00047000000000000004,-5.9999999999999995e-05,-0.00011,2.9999999999999997e-05,4
13527,14240,0.0,2e-05,-0.00015,0.00014,0.00072,0.00016999999999999999,5e-05,-0.0002,4
13528,14241,1e-05,8e-05,0.00022999999999999998,0.00013000000000000002,-2.9999999999999997e-05,0.00015,0.0001,0.0002,4
13529,14242,1e-05,8e-05,0.00022999999999999998,0.00013000000000000002,-2.9999999999999997e-05,0.00015,0.0001,0.0002,4
13530,14243,1e-05,8e-05,0.00022999999999999998,0.00013000000000000002,-2.9999999999999997e-05,0.00015,0.0001,0.0002,4
13531,14244,1e-05,8e-05,0.00022999999999999998,0.00013000000000000002,-2.9999999999999997e-05,0.00015,0.0001,0.0002,4
13532,14245,1e-05,8e-05,0.00022999999999999998,0.00013000000000000002,-2.9999999999999997e-05,0.00015,0.0001,0.0002,4
13533,14246,1e-05,8e-05,0.00022999999999999998,0.00013000000000000002,-2.9999999999999997e-05,0.00015,0.0001,0.0002,4
13534,14247,1e-05,8e-05,0.00022999999999999998,0.00013000000000000002,-2.9999999999999997e-05,0.00015,0.0001,0.0002,4
13535,14248,1e-05,8e-05,0.00022999999999999998,0.00013000000000000002,-2.9999999999999997e-05,0.00015,0.0001,0.0002,4
13536,14249,1e-05,8e-05,0.00022999999999999998,0.00013000000000000002,-2.9999999999999997e-05,0.00015,0.0001,0.0002,4
13537,14250,1e-05,8e-05,0.00022999999999999998,0.00013000000000000002,-2.9999999999999997e-05,0.00015,0.0001,0.0002,4
13538,14251,1e-05,8e-05,0.00022999999999999998,0.00013000000000000002,-2.9999999999999997e-05,0.00015,0.0001,0.0002,4
13539,14252,1e-05,8e-05,0.00022999999999999998,0.00013000000000000002,-2.9999999999999997e-05,0.00015,0.0001,0.0002,4
13540,14253,1e-05,8e-05,0.00022999999999999998,0.00013000000000000002,-2.9999999999999997e-05,0.00015,0.0001,0.0002,4
13541,14254,1e-05,8e-05,0.00022999999999999998,0.00013000000000000002,-2.9999999999999997e-05,0.00015,0.0001,0.0002,4
13542,14255,1e-05,8e-05,0.00022999999999999998,0.00013000000000000002,-2.9999999999999997e-05,0.00015,0.0001,0.0002,4
13543,14256,1e-05,8e-05,0.00022999999999999998,0.00013000000000000002,-2.9999999999999997e-05,0.00015,0.0001,0.0002,4
13544,14257,1e-05,8e-05,0.00022999999999999998,0.00013000000000000002,-2.9999999999999997e-05,0.00015,0.0001,0.0002,4
13545,14258,1e-05,8e-05,0.00022999999999999998,0.00013000000000000002,-2.9999999999999997e-05,0.00015,0.0001,0.0002,4
13546,14259,1e-05,8e-05,0.00022999999999999998,0.00013000000000000002,-2.9999999999999997e-05,0.00015,0.0001,0.0002,4
13547,14260,1e-05,8e-05,0.00022999999999999998,0.00013000000000000002,-2.9999999999999997e-05,0.00015,0.0001,0.0002,4
13548,14261,-5.9999999999999995e-05,-0.00014,-0.00035,-0.00023999999999999998,0.00029,0.00033999999999999997,-5.9999999999999995e-05,-0.00013000000000000002,4
13549,14262,-5.9999999999999995e-05,-0.00014,-0.00035,-0.00023999999999999998,0.00029,0.00033999999999999997,-5.9999999999999995e-05,-0.00013000000000000002,4
13550,14263,-5.9999999999999995e-05,-0.00014,-0.00035,-0.00023999999999999998,0.00029,0.00033999999999999997,-5.9999999999999995e-05,-0.00013000000000000002,4
13551,14264,-5e-05,-0.00011999999999999999,-2.9999999999999997e-05,0.00011999999999999999,9e-05,2.9999999999999997e-05,-0.00016,-2e-05,4
13552,14265,-5e-05,-0.00011999999999999999,-2.9999999999999997e-05,0.00011999999999999999,9e-05,2.9999999999999997e-05,-0.00016,-2e-05,4
13553,14266,-5e-05,-0.00011999999999999999,-2.9999999999999997e-05,0.00011999999999999999,9e-05,2.9999999999999997e-05,-0.00016,-2e-05,4
13554,14267,-5e-05,-0.00011999999999999999,-2.9999999999999997e-05,0.00011999999999999999,9e-05,2.9999999999999997e-05,-0.00016,-2e-05,4
13555,14268,-5e-05,-0.00011999999999999999,-2.9999999999999997e-05,0.00011999999999999999,9e-05,2.9999999999999997e-05,-0.00016,-2e-05,4
13556,14269,-5e-05,-0.00011999999999999999,-2.9999999999999997e-05,0.00011999999999999999,9e-05,2.9999999999999997e-05,-0.00016,-2e-05,4
13557,14270,-5e-05,-0.00011999999999999999,-2.9999999999999997e-05,0.00011999999999999999,9e-05,2.9999999999999997e-05,-0.00016,-2e-05,4
13558,14271,-5e-05,-0.00011999999999999999,-2.9999999999999997e-05,0.00011999999999999999,9e-05,2.9999999999999997e-05,-0.00016,-2e-05,4
13559,14272,-5e-05,-0.00011999999999999999,-2.9999999999999997e-05,0.00011999999999999999,9e-05,2.9999999999999997e-05,-0.00016,-2e-05,4
13560,14273,-5e-05,-0.00011999999999999999,-2.9999999999999997e-05,0.00011999999999999999,9e-05,2.9999999999999997e-05,-0.00016,-2e-05,4
13561,14274,-5e-05,-0.00011999999999999999,-2.9999999999999997e-05,0.00011999999999999999,9e-05,2.9999999999999997e-05,-0.00016,-2e-05,4
13562,14275,-9e-05,-8e-05,-0.00016,-2.9999999999999997e-05,0.00013000000000000002,-0.00026000000000000003,-0.00011999999999999999,-0.00016999999999999999,4
13563,14276,-9e-05,-8e-05,-0.00016,-2.9999999999999997e-05,0.00013000000000000002,-0.00026000000000000003,-0.00011999999999999999,-0.00016999999999999999,4
13564,14277,-9e-05,-8e-05,-0.00016,-2.9999999999999997e-05,0.00013000000000000002,-0.00026000000000000003,-0.00011999999999999999,-0.00016999999999999999,4
13565,14278,-9e-05,-8e-05,-0.00016,-2.9999999999999997e-05,0.00013000000000000002,-0.00026000000000000003,-0.00011999999999999999,-0.00016999999999999999,4
13566,14279,-9e-05,-8e-05,-0.00016,-2.9999999999999997e-05,0.00013000000000000002,-0.00026000000000000003,-0.00011999999999999999,-0.00016999999999999999,4
13567,14280,-9e-05,-8e-05,-0.00016,-2.9999999999999997e-05,0.00013000000000000002,-0.00026000000000000003,-0.00011999999999999999,-0.00016999999999999999,4
13568,14281,-9e-05,-8e-05,-0.00016,-2.9999999999999997e-05,0.00013000000000000002,-0.00026000000000000003,-0.00011999999999999999,-0.00016999999999999999,4
13569,14282,-9e-05,-8e-05,-0.00016,-2.9999999999999997e-05,0.00013000000000000002,-0.00026000000000000003,-0.00011999999999999999,-0.00016999999999999999,4
13570,14283,-9e-05,-8e-05,-0.00016,-2.9999999999999997e-05,0.00013000000000000002,-0.00026000000000000003,-0.00011999999999999999,-0.00016999999999999999,4
13571,14284,5e-05,-7e-05,-0.0002,2.9999999999999997e-05,0.00028,-0.00029,1e-05,-9e-05,4
13572,14285,5e-05,-7e-05,-0.0002,2.9999999999999997e-05,0.00028,-0.00029,1e-05,-9e-05,4
13573,14286,5e-05,-7e-05,-0.0002,2.9999999999999997e-05,0.00028,-0.00029,1e-05,-9e-05,4
13574,14289,5e-05,-7e-05,-0.0002,2.9999999999999997e-05,0.00028,-0.00029,1e-05,-9e-05,4
13575,14290,5e-05,-7e-05,-0.0002,2.9999999999999997e-05,0.00028,-0.00029,1e-05,-9e-05,4
13576,14291,5e-05,-7e-05,-0.0002,2.9999999999999997e-05,0.00028,-0.00029,1e-05,-9e-05,4
13577,14292,5e-05,-7e-05,-0.0002,2.9999999999999997e-05,0.00028,-0.00029,1e-05,-9e-05,4
13578,14293,5e-05,-7e-05,-0.0002,2.9999999999999997e-05,0.00028,-0.00029,1e-05,-9e-05,4
13579,14294,5e-05,-7e-05,-0.0002,2.9999999999999997e-05,0.00028,-0.00029,1e-05,-9e-05,4
13580,14295,5e-05,-7e-05,-0.0002,2.9999999999999997e-05,0.00028,-0.00029,1e-05,-9e-05,4
13581,14296,5e-05,-7e-05,-0.0002,2.9999999999999997e-05,0.00028,-0.00029,1e-05,-9e-05,4
13582,14297,5e-05,-7e-05,-0.0002,2.9999999999999997e-05,0.00028,-0.00029,1e-05,-9e-05,4
13583,14298,5e-05,-7e-05,-0.0002,2.9999999999999997e-05,0.00028,-0.00029,1e-05,-9e-05,4
13584,14299,-2e-05,5e-05,-5.9999999999999995e-05,0.0001,4e-05,0.0003,1e-05,8e-05,4
13585,14300,-2e-05,5e-05,-5.9999999999999995e-05,0.0001,4e-05,0.0003,1e-05,8e-05,4
13586,14301,5.9999999999999995e-05,0.00028,0.00047000000000000004,0.00037,-2e-05,0.00028,0.00015,4e-05,4
13587,14302,5.9999999999999995e-05,0.00028,0.00047000000000000004,0.00037,-2e-05,0.00028,0.00015,4e-05,4
13588,14303,5.9999999999999995e-05,0.00028,0.00047000000000000004,0.00037,-2e-05,0.00028,0.00015,4e-05,4
13589,14304,5.9999999999999995e-05,0.00028,0.00047000000000000004,0.00037,-2e-05,0.00028,0.00015,4e-05,4
13590,14305,5.9999999999999995e-05,0.00028,0.00047000000000000004,0.00037,-2e-05,0.00028,0.00015,4e-05,4
13591,14306,5.9999999999999995e-05,0.00028,0.00047000000000000004,0.00037,-2e-05,0.00028,0.00015,4e-05,4
13592,14307,5.9999999999999995e-05,0.00028,0.00047000000000000004,0.00037,-2e-05,0.00028,0.00015,4e-05,4
13593,14308,5.9999999999999995e-05,0.00028,0.00047000000000000004,0.00037,-2e-05,0.00028,0.00015,4e-05,4
13594,14309,5.9999999999999995e-05,0.00028,0.00047000000000000004,0.00037,-2e-05,0.00028,0.00015,4e-05,4
13595,14310,5.9999999999999995e-05,0.00028,0.00047000000000000004,0.00037,-2e-05,0.00028,0.00015,4e-05,4
13596,14311,5.9999999999999995e-05,0.00028,0.00047000000000000004,0.00037,-2e-05,0.00028,0.00015,4e-05,4
13597,14312,5.9999999999999995e-05,0.00028,0.00047000000000000004,0.00037,-2e-05,0.00028,0.00015,4e-05,4
13598,14313,5.9999999999999995e-05,0.00028,0.00047000000000000004,0.00037,-2e-05,0.00028,0.00015,4e-05,4
13599,14314,5.9999999999999995e-05,0.00028,0.00047000000000000004,0.00037,-2e-05,0.00028,0.00015,4e-05,4
13600,14315,5.9999999999999995e-05,0.00028,0.00047000000000000004,0.00037,-2e-05,0.00028,0.00015,4e-05,4
13601,14316,5.9999999999999995e-05,0.00028,0.00047000000000000004,0.00037,-2e-05,0.00028,0.00015,4e-05,4
13602,14317,5.9999999999999995e-05,0.00028,0.00047000000000000004,0.00037,-2e-05,0.00028,0.00015,4e-05,4
13603,14318,5.9999999999999995e-05,0.00028,0.00047000000000000004,0.00037,-2e-05,0.00028,0.00015,4e-05,4
13604,14319,5.9999999999999995e-05,0.00028,0.00047000000000000004,0.00037,-2e-05,0.00028,0.00015,4e-05,4
13605,14320,5.9999999999999995e-05,0.00028,0.00047000000000000004,0.00037,-2e-05,0.00028,0.00015,4e-05,4
13606,14321,5.9999999999999995e-05,0.00028,0.00047000000000000004,0.00037,-2e-05,0.00028,0.00015,4e-05,4
13607,14322,5.9999999999999995e-05,0.00028,0.00047000000000000004,0.00037,-2e-05,0.00028,0.00015,4e-05,4
13608,14323,5.9999999999999995e-05,0.00028,0.00047000000000000004,0.00037,-2e-05,0.00028,0.00015,4e-05,4
13609,14324,5.9999999999999995e-05,0.00028,0.00047000000000000004,0.00037,-2e-05,0.00028,0.00015,4e-05,4
13610,14325,5.9999999999999995e-05,0.00028,0.00047000000000000004,0.00037,-2e-05,0.00028,0.00015,4e-05,4
13611,14326,5.9999999999999995e-05,0.00028,0.00047000000000000004,0.00037,-2e-05,0.00028,0.00015,4e-05,4
13612,14327,5.9999999999999995e-05,0.00028,0.00047000000000000004,0.00037,-2e-05,0.00028,0.00015,4e-05,4
13613,14328,5.9999999999999995e-05,0.00028,0.00047000000000000004,0.00037,-2e-05,0.00028,0.00015,4e-05,4
13614,14329,-7e-05,-5e-05,-5e-05,-5e-05,-0.00011999999999999999,-0.00016999999999999999,-0.00015,-0.0004,4
13615,14330,-7e-05,-5e-05,-5e-05,-5e-05,-0.00011999999999999999,-0.00016999999999999999,-0.00015,-0.0004,4
13616,14331,-4e-05,-2.9999999999999997e-05,-8e-05,-7e-05,1e-05,-0.00016,5.9999999999999995e-05,0.00013000000000000002,4
13617,14332,-4e-05,-2.9999999999999997e-05,-8e-05,-7e-05,1e-05,-0.00016,5.9999999999999995e-05,0.00013000000000000002,4
13618,14333,-4e-05,-2.9999999999999997e-05,-8e-05,-7e-05,1e-05,-0.00016,5.9999999999999995e-05,0.00013000000000000002,4
13619,14334,-4e-05,-2.9999999999999997e-05,-8e-05,-7e-05,1e-05,-0.00016,5.9999999999999995e-05,0.00013000000000000002,4
13620,14335,-2e-05,-2e-05,9e-05,7e-05,4e-05,0.00023999999999999998,0.0002,-0.00013000000000000002,4
13621,14336,-2e-05,-2e-05,9e-05,7e-05,4e-05,0.00023999999999999998,0.0002,-0.00013000000000000002,4
13622,14338,-2e-05,-2e-05,9e-05,7e-05,4e-05,0.00023999999999999998,0.0002,-0.00013000000000000002,4
13623,14340,-2e-05,-2e-05,9e-05,7e-05,4e-05,0.00023999999999999998,0.0002,-0.00013000000000000002,4
13624,14341,-2e-05,-2e-05,9e-05,7e-05,4e-05,0.00023999999999999998,0.0002,-0.00013000000000000002,4
13625,14342,-2e-05,-2e-05,9e-05,7e-05,4e-05,0.00023999999999999998,0.0002,-0.00013000000000000002,4
13626,14343,-1e-05,-2.9999999999999997e-05,-7e-05,2.9999999999999997e-05,0.00014,0.00028,0.00018,0.00013000000000000002,4
13627,14344,-2.9999999999999997e-05,-8e-05,-5e-05,-9e-05,0.00015,0.00011,-0.00015,-9e-05,4
13628,14345,-2.9999999999999997e-05,-8e-05,-5e-05,-9e-05,0.00015,0.00011,-0.00015,-9e-05,4
13629,14346,-2.9999999999999997e-05,-8e-05,-5e-05,-9e-05,0.00015,0.00011,-0.00015,-9e-05,4
13630,14347,-2.9999999999999997e-05,-8e-05,-5e-05,-9e-05,0.00015,0.00011,-0.00015,-9e-05,4
13631,14348,-2.9999999999999997e-05,-8e-05,-5e-05,-9e-05,0.00015,0.00011,-0.00015,-9e-05,4
13632,14349,-2.9999999999999997e-05,-8e-05,-5e-05,-9e-05,0.00015,0.00011,-0.00015,-9e-05,4
13633,14350,-2.9999999999999997e-05,-8e-05,-5e-05,-9e-05,0.00015,0.00011,-0.00015,-9e-05,4
13634,14351,-2.9999999999999997e-05,-8e-05,-5e-05,-9e-05,0.00015,0.00011,-0.00015,-9e-05,4
13635,14352,-2.9999999999999997e-05,-8e-05,-5e-05,-9e-05,0.00015,0.00011,-0.00015,-9e-05,4
13636,14353,-2.9999999999999997e-05,-8e-05,-5e-05,-9e-05,0.00015,0.00011,-0.00015,-9e-05,4
13637,14354,-2.9999999999999997e-05,-8e-05,-5e-05,-9e-05,0.00015,0.00011,-0.00015,-9e-05,4
13638,14355,-2.9999999999999997e-05,-8e-05,-5e-05,-9e-05,0.00015,0.00011,-0.00015,-9e-05,4
13639,14356,-2.9999999999999997e-05,-8e-05,-5e-05,-9e-05,0.00015,0.00011,-0.00015,-9e-05,4
13640,14357,-2.9999999999999997e-05,-8e-05,-5e-05,-9e-05,0.00015,0.00011,-0.00015,-9e-05,4
13641,14358,-2.9999999999999997e-05,-8e-05,-5e-05,-9e-05,0.00015,0.00011,-0.00015,-9e-05,4
13642,14359,5e-05,5e-05,-0.00021,7e-05,0.0001,0.00015,9e-05,0.00011,4
13643,14360,5e-05,5e-05,-0.00021,7e-05,0.0001,0.00015,9e-05,0.00011,4
13644,14361,-0.00016999999999999999,-8e-05,-0.00016,-0.00018,-0.00016,-0.00018999999999999998,-5.9999999999999995e-05,-0.0005200000000000001,4
13645,14362,-0.00016999999999999999,-8e-05,-0.00016,-0.00018,-0.00016,-0.00018999999999999998,-5.9999999999999995e-05,-0.0005200000000000001,4
13646,14363,-0.00016999999999999999,-8e-05,-0.00016,-0.00018,-0.00016,-0.00018999999999999998,-5.9999999999999995e-05,-0.0005200000000000001,4
13647,14364,-0.00016999999999999999,-8e-05,-0.00016,-0.00018,-0.00016,-0.00018999999999999998,-5.9999999999999995e-05,-0.0005200000000000001,4
13648,14365,-0.00016999999999999999,-8e-05,-0.00016,-0.00018,-0.00016,-0.00018999999999999998,-5.9999999999999995e-05,-0.0005200000000000001,4
13649,14366,-0.00016999999999999999,-8e-05,-0.00016,-0.00018,-0.00016,-0.00018999999999999998,-5.9999999999999995e-05,-0.0005200000000000001,4
13650,14367,-0.00016999999999999999,-8e-05,-0.00016,-0.00018,-0.00016,-0.00018999999999999998,-5.9999999999999995e-05,-0.0005200000000000001,4
13651,14368,-0.00016999999999999999,-8e-05,-0.00016,-0.00018,-0.00016,-0.00018999999999999998,-5.9999999999999995e-05,-0.0005200000000000001,4
13652,14369,-0.00016999999999999999,-8e-05,-0.00016,-0.00018,-0.00016,-0.00018999999999999998,-5.9999999999999995e-05,-0.0005200000000000001,4
13653,14370,-0.00016999999999999999,-8e-05,-0.00016,-0.00018,-0.00016,-0.00018999999999999998,-5.9999999999999995e-05,-0.0005200000000000001,4
13654,14371,-0.00016999999999999999,-8e-05,-0.00016,-0.00018,-0.00016,-0.00018999999999999998,-5.9999999999999995e-05,-0.0005200000000000001,4
13655,14372,-0.00016999999999999999,-8e-05,-0.00016,-0.00018,-0.00016,-0.00018999999999999998,-5.9999999999999995e-05,-0.0005200000000000001,4
13656,14373,-0.00016999999999999999,-8e-05,-0.00016,-0.00018,-0.00016,-0.00018999999999999998,-5.9999999999999995e-05,-0.0005200000000000001,4
13657,14374,-0.00016999999999999999,-8e-05,-0.00016,-0.00018,-0.00016,-0.00018999999999999998,-5.9999999999999995e-05,-0.0005200000000000001,4
13658,14375,-0.00016999999999999999,-8e-05,-0.00016,-0.00018,-0.00016,-0.00018999999999999998,-5.9999999999999995e-05,-0.0005200000000000001,4
13659,14376,-0.00016999999999999999,-8e-05,-0.00016,-0.00018,-0.00016,-0.00018999999999999998,-5.9999999999999995e-05,-0.0005200000000000001,4
13660,14377,-0.00016999999999999999,-8e-05,-0.00016,-0.00018,-0.00016,-0.00018999999999999998,-5.9999999999999995e-05,-0.0005200000000000001,4
13661,14378,-0.00016999999999999999,-8e-05,-0.00016,-0.00018,-0.00016,-0.00018999999999999998,-5.9999999999999995e-05,-0.0005200000000000001,4
13662,14379,-0.00016999999999999999,-8e-05,-0.00016,-0.00018,-0.00016,-0.00018999999999999998,-5.9999999999999995e-05,-0.0005200000000000001,4
13663,14380,-0.00016999999999999999,-8e-05,-0.00016,-0.00018,-0.00016,-0.00018999999999999998,-5.9999999999999995e-05,-0.0005200000000000001,4
13664,14381,-0.00016999999999999999,-8e-05,-0.00016,-0.00018,-0.00016,-0.00018999999999999998,-5.9999999999999995e-05,-0.0005200000000000001,4
13665,14382,-0.00016999999999999999,-8e-05,-0.00016,-0.00018,-0.00016,-0.00018999999999999998,-5.9999999999999995e-05,-0.0005200000000000001,4
13666,14383,-0.00016999999999999999,-8e-05,-0.00016,-0.00018,-0.00016,-0.00018999999999999998,-5.9999999999999995e-05,-0.0005200000000000001,4
13667,14384,-0.00016999999999999999,-8e-05,-0.00016,-0.00018,-0.00016,-0.00018999999999999998,-5.9999999999999995e-05,-0.0005200000000000001,4
13668,14385,-0.00016999999999999999,-8e-05,-0.00016,-0.00018,-0.00016,-0.00018999999999999998,-5.9999999999999995e-05,-0.0005200000000000001,4
13669,14386,-0.00016999999999999999,-8e-05,-0.00016,-0.00018,-0.00016,-0.00018999999999999998,-5.9999999999999995e-05,-0.0005200000000000001,4
13670,14389,-9e-05,-0.00011999999999999999,-9e-05,-2.9999999999999997e-05,0.00053,-0.00033,-5.9999999999999995e-05,0.0,4
13671,14390,-1e-05,1e-05,-0.00016,-0.00013000000000000002,-0.00091,-0.00023999999999999998,-9e-05,-7e-05,4
13672,14391,-4e-05,7e-05,0.00026000000000000003,-0.0001,0.0003,-0.00029,-7e-05,-0.00015,4
13673,14392,-4e-05,7e-05,0.00026000000000000003,-0.0001,0.0003,-0.00029,-7e-05,-0.00015,4
13674,14393,-4e-05,7e-05,0.00026000000000000003,-0.0001,0.0003,-0.00029,-7e-05,-0.00015,4
13675,14394,-4e-05,7e-05,0.00026000000000000003,-0.0001,0.0003,-0.00029,-7e-05,-0.00015,4
13676,14395,0.0,-9e-05,-1e-05,-2e-05,0.00022999999999999998,5e-05,-8e-05,-7e-05,4
13677,14396,0.0,-9e-05,-1e-05,-2e-05,0.00022999999999999998,5e-05,-8e-05,-7e-05,4
13678,14397,0.0,-9e-05,-1e-05,-2e-05,0.00022999999999999998,5e-05,-8e-05,-7e-05,4
13679,14398,0.0,-9e-05,-1e-05,-2e-05,0.00022999999999999998,5e-05,-8e-05,-7e-05,4
13680,14399,0.0,-9e-05,-1e-05,-2e-05,0.00022999999999999998,5e-05,-8e-05,-7e-05,4
13681,14400,0.0,-9e-05,-1e-05,-2e-05,0.00022999999999999998,5e-05,-8e-05,-7e-05,4
13682,14401,0.0,-9e-05,-1e-05,-2e-05,0.00022999999999999998,5e-05,-8e-05,-7e-05,4
13683,14402,0.0,-9e-05,-1e-05,-2e-05,0.00022999999999999998,5e-05,-8e-05,-7e-05,4
13684,14403,0.0,-9e-05,-1e-05,-2e-05,0.00022999999999999998,5e-05,-8e-05,-7e-05,4
13685,14404,-1e-05,-5.9999999999999995e-05,-0.00026000000000000003,-0.00033999999999999997,-0.0008900000000000001,-0.00018999999999999998,-0.00014,-2e-05,4
13686,14405,-1e-05,-5.9999999999999995e-05,-0.00026000000000000003,-0.00033999999999999997,-0.0008900000000000001,-0.00018999999999999998,-0.00014,-2e-05,4
13687,14406,-1e-05,-5.9999999999999995e-05,-0.00026000000000000003,-0.00033999999999999997,-0.0008900000000000001,-0.00018999999999999998,-0.00014,-2e-05,4
13688,14407,-1e-05,-5.9999999999999995e-05,-0.00026000000000000003,-0.00033999999999999997,-0.0008900000000000001,-0.00018999999999999998,-0.00014,-2e-05,4
13689,14408,-1e-05,-5.9999999999999995e-05,-0.00026000000000000003,-0.00033999999999999997,-0.0008900000000000001,-0.00018999999999999998,-0.00014,-2e-05,4
13690,14409,-1e-05,-5.9999999999999995e-05,-0.00026000000000000003,-0.00033999999999999997,-0.0008900000000000001,-0.00018999999999999998,-0.00014,-2e-05,4
13691,14410,-1e-05,-5.9999999999999995e-05,-0.00026000000000000003,-0.00033999999999999997,-0.0008900000000000001,-0.00018999999999999998,-0.00014,-2e-05,4
13692,14411,-1e-05,-5.9999999999999995e-05,-0.00026000000000000003,-0.00033999999999999997,-0.0008900000000000001,-0.00018999999999999998,-0.00014,-2e-05,4
13693,14412,-1e-05,-5.9999999999999995e-05,-0.00026000000000000003,-0.00033999999999999997,-0.0008900000000000001,-0.00018999999999999998,-0.00014,-2e-05,4
13694,14413,-1e-05,-5.9999999999999995e-05,-0.00026000000000000003,-0.00033999999999999997,-0.0008900000000000001,-0.00018999999999999998,-0.00014,-2e-05,4
13695,14414,-1e-05,-5.9999999999999995e-05,-0.00026000000000000003,-0.00033999999999999997,-0.0008900000000000001,-0.00018999999999999998,-0.00014,-2e-05,4
13696,14415,-1e-05,-5.9999999999999995e-05,-0.00026000000000000003,-0.00033999999999999997,-0.0008900000000000001,-0.00018999999999999998,-0.00014,-2e-05,4
13697,14416,-1e-05,-5.9999999999999995e-05,-0.00026000000000000003,-0.00033999999999999997,-0.0008900000000000001,-0.00018999999999999998,-0.00014,-2e-05,4
13698,14417,-1e-05,-5.9999999999999995e-05,-0.00026000000000000003,-0.00033999999999999997,-0.0008900000000000001,-0.00018999999999999998,-0.00014,-2e-05,4
13699,14418,-1e-05,-5.9999999999999995e-05,-0.00026000000000000003,-0.00033999999999999997,-0.0008900000000000001,-0.00018999999999999998,-0.00014,-2e-05,4
13700,14419,8e-05,-0.00022,0.0001,-2.9999999999999997e-05,-0.00039,-5e-05,4e-05,8e-05,4
13701,14420,8e-05,-0.00022,0.0001,-2.9999999999999997e-05,-0.00039,-5e-05,4e-05,8e-05,4
13702,14421,5e-05,4e-05,-0.00011,0.0001,5e-05,-0.00015,8e-05,0.00022999999999999998,4
13703,14422,5e-05,4e-05,-0.00011,0.0001,5e-05,-0.00015,8e-05,0.00022999999999999998,4
13704,14423,5e-05,4e-05,-0.00011,0.0001,5e-05,-0.00015,8e-05,0.00022999999999999998,4
13705,14424,5e-05,4e-05,-0.00011,0.0001,5e-05,-0.00015,8e-05,0.00022999999999999998,4
13706,14425,5e-05,4e-05,-0.00011,0.0001,5e-05,-0.00015,8e-05,0.00022999999999999998,4
13707,14426,5e-05,4e-05,-0.00011,0.0001,5e-05,-0.00015,8e-05,0.00022999999999999998,4
13708,14427,5e-05,4e-05,-0.00011,0.0001,5e-05,-0.00015,8e-05,0.00022999999999999998,4
13709,14428,5e-05,4e-05,-0.00011,0.0001,5e-05,-0.00015,8e-05,0.00022999999999999998,4
13710,14429,5e-05,4e-05,-0.00011,0.0001,5e-05,-0.00015,8e-05,0.00022999999999999998,4
13711,14430,5e-05,4e-05,-0.00011,0.0001,5e-05,-0.00015,8e-05,0.00022999999999999998,4
13712,14431,5e-05,4e-05,-0.00011,0.0001,5e-05,-0.00015,8e-05,0.00022999999999999998,4
13713,14432,5e-05,4e-05,-0.00011,0.0001,5e-05,-0.00015,8e-05,0.00022999999999999998,4
13714,14433,5e-05,4e-05,-0.00011,0.0001,5e-05,-0.00015,8e-05,0.00022999999999999998,4
13715,14434,5e-05,4e-05,-0.00011,0.0001,5e-05,-0.00015,8e-05,0.00022999999999999998,4
13716,14435,5e-05,4e-05,-0.00011,0.0001,5e-05,-0.00015,8e-05,0.00022999999999999998,4
13717,14436,5e-05,4e-05,-0.00011,0.0001,5e-05,-0.00015,8e-05,0.00022999999999999998,4
13718,14439,5e-05,4e-05,-0.00011,0.0001,5e-05,-0.00015,8e-05,0.00022999999999999998,4
13719,14440,5e-05,4e-05,-0.00011,0.0001,5e-05,-0.00015,8e-05,0.00022999999999999998,4
13720,14441,5e-05,4e-05,-0.00011,0.0001,5e-05,-0.00015,8e-05,0.00022999999999999998,4
13721,14442,5e-05,4e-05,-0.00011,0.0001,5e-05,-0.00015,8e-05,0.00022999999999999998,4
13722,14443,5e-05,4e-05,-0.00011,0.0001,5e-05,-0.00015,8e-05,0.00022999999999999998,4
13723,14444,5e-05,4e-05,-0.00011,0.0001,5e-05,-0.00015,8e-05,0.00022999999999999998,4
13724,14445,5e-05,4e-05,-0.00011,0.0001,5e-05,-0.00015,8e-05,0.00022999999999999998,4
13725,14446,5e-05,4e-05,-0.00011,0.0001,5e-05,-0.00015,8e-05,0.00022999999999999998,4
13726,14447,5e-05,4e-05,-0.00011,0.0001,5e-05,-0.00015,8e-05,0.00022999999999999998,4
13727,14448,5e-05,4e-05,-0.00011,0.0001,5e-05,-0.00015,8e-05,0.00022999999999999998,4
13728,14449,0.00011,0.00022,0.00021,0.00045,0.00073,-0.0001,0.00015,0.0001,4
13729,14450,-4e-05,-8e-05,0.00015,2.9999999999999997e-05,-0.00021,4e-05,2.9999999999999997e-05,8e-05,4
13730,14451,-4e-05,-8e-05,0.00015,2.9999999999999997e-05,-0.00021,4e-05,2.9999999999999997e-05,8e-05,4
13731,14452,-4e-05,-8e-05,0.00015,2.9999999999999997e-05,-0.00021,4e-05,2.9999999999999997e-05,8e-05,4
13732,14453,-4e-05,-8e-05,0.00015,2.9999999999999997e-05,-0.00021,4e-05,2.9999999999999997e-05,8e-05,4
13733,14454,-4e-05,-8e-05,0.00015,2.9999999999999997e-05,-0.00021,4e-05,2.9999999999999997e-05,8e-05,4
13734,14455,-2.9999999999999997e-05,8e-05,8e-05,2e-05,0.00037,0.00018999999999999998,2.9999999999999997e-05,-2e-05,4
13735,14456,-2.9999999999999997e-05,8e-05,8e-05,2e-05,0.00037,0.00018999999999999998,2.9999999999999997e-05,-2e-05,4
13736,14457,-2.9999999999999997e-05,8e-05,8e-05,2e-05,0.00037,0.00018999999999999998,2.9999999999999997e-05,-2e-05,4
13737,14458,-2.9999999999999997e-05,8e-05,8e-05,2e-05,0.00037,0.00018999999999999998,2.9999999999999997e-05,-2e-05,4
13738,14459,-2.9999999999999997e-05,8e-05,8e-05,2e-05,0.00037,0.00018999999999999998,2.9999999999999997e-05,-2e-05,4
13739,14460,-2.9999999999999997e-05,8e-05,8e-05,2e-05,0.00037,0.00018999999999999998,2.9999999999999997e-05,-2e-05,4
13740,14461,-2.9999999999999997e-05,8e-05,8e-05,2e-05,0.00037,0.00018999999999999998,2.9999999999999997e-05,-2e-05,4
13741,14462,-2.9999999999999997e-05,8e-05,8e-05,2e-05,0.00037,0.00018999999999999998,2.9999999999999997e-05,-2e-05,4
13742,14463,-2.9999999999999997e-05,8e-05,8e-05,2e-05,0.00037,0.00018999999999999998,2.9999999999999997e-05,-2e-05,4
13743,14464,-2.9999999999999997e-05,8e-05,8e-05,2e-05,0.00037,0.00018999999999999998,2.9999999999999997e-05,-2e-05,4
13744,14465,2e-05,0.0,-1e-05,2.9999999999999997e-05,-8e-05,8e-05,-1e-05,-1e-05,4
13745,14466,2e-05,0.0,-1e-05,2.9999999999999997e-05,-8e-05,8e-05,-1e-05,-1e-05,4
13746,14467,2e-05,0.0,-1e-05,2.9999999999999997e-05,-8e-05,8e-05,-1e-05,-1e-05,4
13747,14468,2e-05,0.0,-1e-05,2.9999999999999997e-05,-8e-05,8e-05,-1e-05,-1e-05,4
13748,14469,2e-05,0.0,-1e-05,2.9999999999999997e-05,-8e-05,8e-05,-1e-05,-1e-05,4
13749,14470,2e-05,0.0,-1e-05,2.9999999999999997e-05,-8e-05,8e-05,-1e-05,-1e-05,4
13750,14471,2e-05,0.0,-1e-05,2.9999999999999997e-05,-8e-05,8e-05,-1e-05,-1e-05,4
13751,14472,2e-05,0.0,-1e-05,2.9999999999999997e-05,-8e-05,8e-05,-1e-05,-1e-05,4
13752,14473,2e-05,0.0,-1e-05,2.9999999999999997e-05,-8e-05,8e-05,-1e-05,-1e-05,4
13753,14474,2e-05,0.0,-1e-05,2.9999999999999997e-05,-8e-05,8e-05,-1e-05,-1e-05,4
13754,14475,2e-05,0.0,-1e-05,2.9999999999999997e-05,-8e-05,8e-05,-1e-05,-1e-05,4
13755,14476,2e-05,0.0,-1e-05,2.9999999999999997e-05,-8e-05,8e-05,-1e-05,-1e-05,4
13756,14477,2e-05,0.0,-1e-05,2.9999999999999997e-05,-8e-05,8e-05,-1e-05,-1e-05,4
13757,14478,2e-05,0.0,-1e-05,2.9999999999999997e-05,-8e-05,8e-05,-1e-05,-1e-05,4
13758,14479,-5e-05,-0.00013000000000000002,-5e-05,-0.0002,-0.0006799999999999999,-0.00011,-0.0002,-0.00025,4
13759,14480,-5e-05,-0.00013000000000000002,-5e-05,-0.0002,-0.0006799999999999999,-0.00011,-0.0002,-0.00025,4
13760,14481,-5e-05,-0.00013000000000000002,-5e-05,-0.0002,-0.0006799999999999999,-0.00011,-0.0002,-0.00025,4
13761,14482,2.9999999999999997e-05,4e-05,-2e-05,0.00014,-0.00027,0.00031,0.00026000000000000003,0.00022,4
13762,14483,2.9999999999999997e-05,4e-05,-2e-05,0.00014,-0.00027,0.00031,0.00026000000000000003,0.00022,4
