,time,channel1,channel2,channel3,channel4,channel5,channel6,channel7,channel8,class
15979,16543,-5e-05,-7e-05,-0.00011999999999999999,-0.00033,1e-05,-2.9999999999999997e-05,-4e-05,-4e-05,4
15980,16544,-5e-05,-7e-05,-0.00011999999999999999,-0.00033,1e-05,-2.9999999999999997e-05,-4e-05,-4e-05,4
15981,16545,-5e-05,-7e-05,-0.00011999999999999999,-0.00033,1e-05,-2.9999999999999997e-05,-4e-05,-4e-05,4
15982,16546,-5e-05,-7e-05,-0.00011999999999999999,-0.00033,1e-05,-2.9999999999999997e-05,-4e-05,-4e-05,4
15983,16547,-2.9999999999999997e-05,-0.00011999999999999999,-0.00021,-0.0003,-0.00011999999999999999,-1e-05,-0.00014,-2e-05,4
15984,16548,-2.9999999999999997e-05,-0.00011999999999999999,-0.00021,-0.0003,-0.00011999999999999999,-1e-05,-0.00014,-2e-05,4
15985,16549,-5.9999999999999995e-05,-5.9999999999999995e-05,-2e-05,0.0,0.00028,-0.00014,-0.00016,-9e-05,4
15986,16550,1e-05,5e-05,0.0001,0.00021,-0.00022999999999999998,-0.00027,-2e-05,2e-05,4
15987,16551,1e-05,5e-05,0.0001,0.00021,-0.00022999999999999998,-0.00027,-2e-05,2e-05,4
15988,16552,1e-05,5e-05,0.0001,0.00021,-0.00022999999999999998,-0.00027,-2e-05,2e-05,4
15989,16553,1e-05,5e-05,0.0001,0.00021,-0.00022999999999999998,-0.00027,-2e-05,2e-05,4
15990,16554,1e-05,5e-05,0.0001,0.00021,-0.00022999999999999998,-0.00027,-2e-05,2e-05,4
15991,16555,1e-05,5e-05,0.0001,0.00021,-0.00022999999999999998,-0.00027,-2e-05,2e-05,4
15992,16556,1e-05,5e-05,0.0001,0.00021,-0.00022999999999999998,-0.00027,-2e-05,2e-05,4
15993,16557,1e-05,5e-05,0.0001,0.00021,-0.00022999999999999998,-0.00027,-2e-05,2e-05,4
15994,16558,1e-05,5e-05,0.0001,0.00021,-0.00022999999999999998,-0.00027,-2e-05,2e-05,4
15995,16559,1e-05,5e-05,0.0001,0.00021,-0.00022999999999999998,-0.00027,-2e-05,2e-05,4
15996,16560,1e-05,5e-05,0.0001,0.00021,-0.00022999999999999998,-0.00027,-2e-05,2e-05,4
15997,16561,1e-05,5e-05,0.0001,0.00021,-0.00022999999999999998,-0.00027,-2e-05,2e-05,4
15998,16562,1e-05,5e-05,0.0001,0.00021,-0.00022999999999999998,-0.00027,-2e-05,2e-05,4
15999,16563,1e-05,5e-05,0.0001,0.00021,-0.00022999999999999998,-0.00027,-2e-05,2e-05,4
16000,16564,1e-05,5e-05,0.0001,0.00021,-0.00022999999999999998,-0.00027,-2e-05,2e-05,4
16001,16565,1e-05,5e-05,0.0001,0.00021,-0.00022999999999999998,-0.00027,-2e-05,2e-05,4
16002,16566,1e-05,5e-05,0.0001,0.00021,-0.00022999999999999998,-0.00027,-2e-05,2e-05,4
16003,16567,1e-05,5e-05,0.0001,0.00021,-0.00022999999999999998,-0.00027,-2e-05,2e-05,4
16004,16568,1e-05,5e-05,0.0001,0.00021,-0.00022999999999999998,-0.00027,-2e-05,2e-05,4
16005,16569,1e-05,5e-05,0.0001,0.00021,-0.00022999999999999998,-0.00027,-2e-05,2e-05,4
16006,16570,1e-05,5e-05,0.0001,0.00021,-0.00022999999999999998,-0.00027,-2e-05,2e-05,4
16007,16571,1e-05,5e-05,0.0001,0.00021,-0.00022999999999999998,-0.00027,-2e-05,2e-05,4
16008,16572,1e-05,5e-05,0.0001,0.00021,-0.00022999999999999998,-0.00027,-2e-05,2e-05,4
16009,16573,1e-05,5e-05,0.0001,0.00021,-0.00022999999999999998,-0.00027,-2e-05,2e-05,4
16010,16574,1e-05,5e-05,0.0001,0.00021,-0.00022999999999999998,-0.00027,-2e-05,2e-05,4
16011,16575,1e-05,5e-05,0.0001,0.00021,-0.00022999999999999998,-0.00027,-2e-05,2e-05,4
16012,16576,1e-05,5e-05,0.0001,0.00021,-0.00022999999999999998,-0.00027,-2e-05,2e-05,4
16013,16577,1e-05,5e-05,0.0001,0.00021,-0.00022999999999999998,-0.00027,-2e-05,2e-05,4
16014,16578,-5.9999999999999995e-05,-4e-05,-5e-05,0.00011999999999999999,5.9999999999999995e-05,-0.00015,-0.0001,-5.9999999999999995e-05,4
16015,16579,0.0,2e-05,7e-05,0.00018999999999999998,-7e-05,0.00042,0.00011999999999999999,2.9999999999999997e-05,4
16016,16580,0.0,2e-05,7e-05,0.00018999999999999998,-7e-05,0.00042,0.00011999999999999999,2.9999999999999997e-05,4
16017,16581,0.0,2e-05,7e-05,0.00018999999999999998,-7e-05,0.00042,0.00011999999999999999,2.9999999999999997e-05,4
16018,16582,0.0,2e-05,7e-05,0.00018999999999999998,-7e-05,0.00042,0.00011999999999999999,2.9999999999999997e-05,4
16019,16583,0.0,2e-05,7e-05,0.00018999999999999998,-7e-05,0.00042,0.00011999999999999999,2.9999999999999997e-05,4
16020,16584,2.9999999999999997e-05,2.9999999999999997e-05,5e-05,0.00021,0.00037999999999999997,0.00021,2e-05,0.0,4
16021,16585,-1e-05,-4e-05,-5.9999999999999995e-05,-5.9999999999999995e-05,0.00018999999999999998,7e-05,0.0,-1e-05,4
16022,16586,-1e-05,-4e-05,-5.9999999999999995e-05,-5.9999999999999995e-05,0.00018999999999999998,7e-05,0.0,-1e-05,4
16023,16588,-1e-05,-2.9999999999999997e-05,-0.00015,-0.00013000000000000002,-0.00064,-0.00018999999999999998,0.0,1e-05,4
16024,16590,-1e-05,-2.9999999999999997e-05,-0.00015,-0.00013000000000000002,-0.00064,-0.00018999999999999998,0.0,1e-05,4
16025,16591,-1e-05,-2.9999999999999997e-05,-0.00015,-0.00013000000000000002,-0.00064,-0.00018999999999999998,0.0,1e-05,4
16026,16592,-1e-05,-2.9999999999999997e-05,-0.00015,-0.00013000000000000002,-0.00064,-0.00018999999999999998,0.0,1e-05,4
16027,16593,-1e-05,-2.9999999999999997e-05,-0.00015,-0.00013000000000000002,-0.00064,-0.00018999999999999998,0.0,1e-05,4
16028,16594,-1e-05,-2.9999999999999997e-05,-0.00015,-0.00013000000000000002,-0.00064,-0.00018999999999999998,0.0,1e-05,4
16029,16595,-1e-05,-2.9999999999999997e-05,-0.00015,-0.00013000000000000002,-0.00064,-0.00018999999999999998,0.0,1e-05,4
16030,16596,-1e-05,-2.9999999999999997e-05,-0.00015,-0.00013000000000000002,-0.00064,-0.00018999999999999998,0.0,1e-05,4
16031,16597,-1e-05,-2.9999999999999997e-05,-0.00015,-0.00013000000000000002,-0.00064,-0.00018999999999999998,0.0,1e-05,4
16032,16598,-1e-05,-2.9999999999999997e-05,-0.00015,-0.00013000000000000002,-0.00064,-0.00018999999999999998,0.0,1e-05,4
16033,16599,-1e-05,-2.9999999999999997e-05,-0.00015,-0.00013000000000000002,-0.00064,-0.00018999999999999998,0.0,1e-05,4
16034,16600,-1e-05,-2.9999999999999997e-05,-0.00015,-0.00013000000000000002,-0.00064,-0.00018999999999999998,0.0,1e-05,4
16035,16601,-1e-05,-2.9999999999999997e-05,-0.00015,-0.00013000000000000002,-0.00064,-0.00018999999999999998,0.0,1e-05,4
16036,16602,-1e-05,-2.9999999999999997e-05,-0.00015,-0.00013000000000000002,-0.00064,-0.00018999999999999998,0.0,1e-05,4
16037,16603,-1e-05,-2.9999999999999997e-05,-0.00015,-0.00013000000000000002,-0.00064,-0.00018999999999999998,0.0,1e-05,4
16038,16604,-1e-05,-2.9999999999999997e-05,-0.00015,-0.00013000000000000002,-0.00064,-0.00018999999999999998,0.0,1e-05,4
16039,16605,-1e-05,-2.9999999999999997e-05,-0.00015,-0.00013000000000000002,-0.00064,-0.00018999999999999998,0.0,1e-05,4
16040,16606,-1e-05,-2.9999999999999997e-05,-0.00015,-0.00013000000000000002,-0.00064,-0.00018999999999999998,0.0,1e-05,4
16041,16607,-1e-05,-2.9999999999999997e-05,-0.00015,-0.00013000000000000002,-0.00064,-0.00018999999999999998,0.0,1e-05,4
16042,16608,-1e-05,-2.9999999999999997e-05,-0.00015,-0.00013000000000000002,-0.00064,-0.00018999999999999998,0.0,1e-05,4
16043,16609,-1e-05,-2.9999999999999997e-05,-0.00015,-0.00013000000000000002,-0.00064,-0.00018999999999999998,0.0,1e-05,4
16044,16610,-1e-05,-2.9999999999999997e-05,-0.00015,-0.00013000000000000002,-0.00064,-0.00018999999999999998,0.0,1e-05,4
16045,16611,-1e-05,-2.9999999999999997e-05,-0.00015,-0.00013000000000000002,-0.00064,-0.00018999999999999998,0.0,1e-05,4
16046,16612,-1e-05,-2.9999999999999997e-05,-0.00015,-0.00013000000000000002,-0.00064,-0.00018999999999999998,0.0,1e-05,4
16047,16613,-1e-05,-2.9999999999999997e-05,-0.00015,-0.00013000000000000002,-0.00064,-0.00018999999999999998,0.0,1e-05,4
16048,16614,-1e-05,-2.9999999999999997e-05,-0.00015,-0.00013000000000000002,-0.00064,-0.00018999999999999998,0.0,1e-05,4
16049,16615,-1e-05,-2.9999999999999997e-05,-0.00015,-0.00013000000000000002,-0.00064,-0.00018999999999999998,0.0,1e-05,4
16050,16616,-1e-05,-2.9999999999999997e-05,-0.00015,-0.00013000000000000002,-0.00064,-0.00018999999999999998,0.0,1e-05,4
16051,16617,-1e-05,-2.9999999999999997e-05,-0.00015,-0.00013000000000000002,-0.00064,-0.00018999999999999998,0.0,1e-05,4
16052,16618,-1e-05,-2.9999999999999997e-05,-0.00015,-0.00013000000000000002,-0.00064,-0.00018999999999999998,0.0,1e-05,4
16053,16619,-1e-05,-2.9999999999999997e-05,-0.00015,-0.00013000000000000002,-0.00064,-0.00018999999999999998,0.0,1e-05,4
16054,16620,-1e-05,-2.9999999999999997e-05,-0.00015,-0.00013000000000000002,-0.00064,-0.00018999999999999998,0.0,1e-05,4
16055,16621,-1e-05,-2.9999999999999997e-05,-0.00015,-0.00013000000000000002,-0.00064,-0.00018999999999999998,0.0,1e-05,4
16056,16622,9e-05,0.00016,0.00011999999999999999,8e-05,0.0006,0.00086,0.00026000000000000003,0.00014,4
16057,16623,2e-05,5.9999999999999995e-05,4e-05,-7e-05,0.0,-0.0002,0.00011999999999999999,7e-05,4
16058,16624,2e-05,5.9999999999999995e-05,4e-05,-7e-05,0.0,-0.0002,0.00011999999999999999,7e-05,4
16059,16625,2e-05,5.9999999999999995e-05,4e-05,-7e-05,0.0,-0.0002,0.00011999999999999999,7e-05,4
16060,16626,2e-05,5.9999999999999995e-05,4e-05,-7e-05,0.0,-0.0002,0.00011999999999999999,7e-05,4
16061,16627,2e-05,5.9999999999999995e-05,4e-05,-7e-05,0.0,-0.0002,0.00011999999999999999,7e-05,4
16062,16628,-2.9999999999999997e-05,-2e-05,0.0,0.0001,0.0005,0.00023999999999999998,-8e-05,-2.9999999999999997e-05,4
16063,16629,-7e-05,-0.00011999999999999999,-0.00011,-0.00028,-0.00075,-0.0007700000000000001,-0.00022,-0.00011999999999999999,4
16064,16630,-2e-05,-1e-05,2.9999999999999997e-05,-1e-05,0.00023999999999999998,-0.00013000000000000002,-7e-05,-2e-05,4
16065,16631,-2e-05,-1e-05,2.9999999999999997e-05,-1e-05,0.00023999999999999998,-0.00013000000000000002,-7e-05,-2e-05,4
16066,16632,-2e-05,-1e-05,2.9999999999999997e-05,-1e-05,0.00023999999999999998,-0.00013000000000000002,-7e-05,-2e-05,4
16067,16633,-2e-05,-1e-05,2.9999999999999997e-05,-1e-05,0.00023999999999999998,-0.00013000000000000002,-7e-05,-2e-05,4
16068,16634,-2e-05,-1e-05,2.9999999999999997e-05,-1e-05,0.00023999999999999998,-0.00013000000000000002,-7e-05,-2e-05,4
16069,16635,-2e-05,-1e-05,2.9999999999999997e-05,-1e-05,0.00023999999999999998,-0.00013000000000000002,-7e-05,-2e-05,4
16070,16636,-2e-05,-1e-05,2.9999999999999997e-05,-1e-05,0.00023999999999999998,-0.00013000000000000002,-7e-05,-2e-05,4
16071,16638,-2e-05,-1e-05,2.9999999999999997e-05,-1e-05,0.00023999999999999998,-0.00013000000000000002,-7e-05,-2e-05,4
16072,16639,-2e-05,-1e-05,2.9999999999999997e-05,-1e-05,0.00023999999999999998,-0.00013000000000000002,-7e-05,-2e-05,4
16073,16640,-2e-05,-1e-05,2.9999999999999997e-05,-1e-05,0.00023999999999999998,-0.00013000000000000002,-7e-05,-2e-05,4
16074,16641,-2e-05,-1e-05,2.9999999999999997e-05,-1e-05,0.00023999999999999998,-0.00013000000000000002,-7e-05,-2e-05,4
16075,16642,-2e-05,-1e-05,2.9999999999999997e-05,-1e-05,0.00023999999999999998,-0.00013000000000000002,-7e-05,-2e-05,4
16076,16643,-2e-05,-1e-05,2.9999999999999997e-05,-1e-05,0.00023999999999999998,-0.00013000000000000002,-7e-05,-2e-05,4
16077,16644,-7e-05,-2.9999999999999997e-05,-4e-05,-0.00014,-0.00037999999999999997,-0.00053,-0.00015,-5.9999999999999995e-05,4
16078,16645,-1e-05,-2.9999999999999997e-05,-7e-05,-1e-05,0.00029,0.00022999999999999998,4e-05,-1e-05,4
16079,16646,-1e-05,-2.9999999999999997e-05,-7e-05,-1e-05,0.00029,0.00022999999999999998,4e-05,-1e-05,4
16080,16647,-1e-05,-2.9999999999999997e-05,-7e-05,-1e-05,0.00029,0.00022999999999999998,4e-05,-1e-05,4
16081,16648,-1e-05,-2.9999999999999997e-05,-7e-05,-1e-05,0.00029,0.00022999999999999998,4e-05,-1e-05,4
16082,16649,-1e-05,-2.9999999999999997e-05,-7e-05,-1e-05,0.00029,0.00022999999999999998,4e-05,-1e-05,4
16083,16650,-1e-05,-2.9999999999999997e-05,-7e-05,-1e-05,0.00029,0.00022999999999999998,4e-05,-1e-05,4
16084,16651,-1e-05,-2.9999999999999997e-05,-7e-05,-1e-05,0.00029,0.00022999999999999998,4e-05,-1e-05,4
16085,16652,-1e-05,-2.9999999999999997e-05,-7e-05,-1e-05,0.00029,0.00022999999999999998,4e-05,-1e-05,4
16086,16653,-1e-05,-2.9999999999999997e-05,-7e-05,-1e-05,0.00029,0.00022999999999999998,4e-05,-1e-05,4
16087,16654,-1e-05,-2.9999999999999997e-05,-7e-05,-1e-05,0.00029,0.00022999999999999998,4e-05,-1e-05,4
16088,16655,-1e-05,-2.9999999999999997e-05,-7e-05,-1e-05,0.00029,0.00022999999999999998,4e-05,-1e-05,4
16089,16656,-1e-05,-2.9999999999999997e-05,-7e-05,-1e-05,0.00029,0.00022999999999999998,4e-05,-1e-05,4
16090,16657,-1e-05,-2.9999999999999997e-05,-7e-05,-1e-05,0.00029,0.00022999999999999998,4e-05,-1e-05,4
16091,16658,-1e-05,-2.9999999999999997e-05,-7e-05,-1e-05,0.00029,0.00022999999999999998,4e-05,-1e-05,4
16092,16659,-1e-05,-2.9999999999999997e-05,-7e-05,-1e-05,0.00029,0.00022999999999999998,4e-05,-1e-05,4
16093,16660,-1e-05,-2.9999999999999997e-05,-7e-05,-1e-05,0.00029,0.00022999999999999998,4e-05,-1e-05,4
16094,16661,-1e-05,-2.9999999999999997e-05,-7e-05,-1e-05,0.00029,0.00022999999999999998,4e-05,-1e-05,4
16095,16662,-1e-05,-2.9999999999999997e-05,-7e-05,-1e-05,0.00029,0.00022999999999999998,4e-05,-1e-05,4
16096,16663,-1e-05,-2.9999999999999997e-05,-7e-05,-1e-05,0.00029,0.00022999999999999998,4e-05,-1e-05,4
16097,16664,-1e-05,-2.9999999999999997e-05,-7e-05,-1e-05,0.00029,0.00022999999999999998,4e-05,-1e-05,4
16098,16665,-1e-05,-2.9999999999999997e-05,-7e-05,-1e-05,0.00029,0.00022999999999999998,4e-05,-1e-05,4
16099,16666,-1e-05,-2.9999999999999997e-05,-7e-05,-1e-05,0.00029,0.00022999999999999998,4e-05,-1e-05,4
16100,16667,-2e-05,4e-05,5e-05,0.00015,7e-05,0.00018,-4e-05,-2e-05,4
16101,16668,-2e-05,4e-05,5e-05,0.00015,7e-05,0.00018,-4e-05,-2e-05,4
16102,16670,-2e-05,4e-05,5e-05,0.00015,7e-05,0.00018,-4e-05,-2e-05,4
16103,16671,-2e-05,4e-05,5e-05,0.00015,7e-05,0.00018,-4e-05,-2e-05,4
16104,16672,-2.9999999999999997e-05,-2e-05,2e-05,0.00018,0.00027,-0.00021,-8e-05,-5e-05,4
16105,16673,-2.9999999999999997e-05,-2e-05,2e-05,0.00018,0.00027,-0.00021,-8e-05,-5e-05,4
16106,16674,-2.9999999999999997e-05,-2e-05,2e-05,0.00018,0.00027,-0.00021,-8e-05,-5e-05,4
16107,16675,-2.9999999999999997e-05,-2e-05,2e-05,0.00018,0.00027,-0.00021,-8e-05,-5e-05,4
16108,16676,-2.9999999999999997e-05,-2e-05,2e-05,0.00018,0.00027,-0.00021,-8e-05,-5e-05,4
16109,16677,-2.9999999999999997e-05,-2e-05,2e-05,0.00018,0.00027,-0.00021,-8e-05,-5e-05,4
16110,16678,-2.9999999999999997e-05,-2e-05,2e-05,0.00018,0.00027,-0.00021,-8e-05,-5e-05,4
16111,16679,-2.9999999999999997e-05,-2e-05,2e-05,0.00018,0.00027,-0.00021,-8e-05,-5e-05,4
16112,16680,-2.9999999999999997e-05,-2e-05,2e-05,0.00018,0.00027,-0.00021,-8e-05,-5e-05,4
16113,16681,-2.9999999999999997e-05,-2e-05,2e-05,0.00018,0.00027,-0.00021,-8e-05,-5e-05,4
16114,16683,-2.9999999999999997e-05,-2e-05,2e-05,0.00018,0.00027,-0.00021,-8e-05,-5e-05,4
16115,16684,-2.9999999999999997e-05,-2e-05,2e-05,0.00018,0.00027,-0.00021,-8e-05,-5e-05,4
16116,16685,-2.9999999999999997e-05,-2e-05,2e-05,0.00018,0.00027,-0.00021,-8e-05,-5e-05,4
16117,16686,-2.9999999999999997e-05,-2e-05,2e-05,0.00018,0.00027,-0.00021,-8e-05,-5e-05,4
16118,16688,-2.9999999999999997e-05,-2e-05,2e-05,0.00018,0.00027,-0.00021,-8e-05,-5e-05,4
16119,16689,5e-05,5.9999999999999995e-05,-4e-05,-0.00032,0.00057,0.00013000000000000002,9e-05,4e-05,4
16120,16690,5e-05,5.9999999999999995e-05,-4e-05,-0.00032,0.00057,0.00013000000000000002,9e-05,4e-05,4
16121,16691,-5e-05,-0.00011,-8e-05,4e-05,0.00082,0.00047000000000000004,-4e-05,-5e-05,4
16122,16692,-5e-05,-0.00011,-8e-05,4e-05,0.00082,0.00047000000000000004,-4e-05,-5e-05,4
16123,16693,-5e-05,-0.00011,-8e-05,4e-05,0.00082,0.00047000000000000004,-4e-05,-5e-05,4
16124,16694,-5e-05,-0.00011,-8e-05,4e-05,0.00082,0.00047000000000000004,-4e-05,-5e-05,4
16125,16695,-5e-05,-0.00011,-8e-05,4e-05,0.00082,0.00047000000000000004,-4e-05,-5e-05,4
16126,16696,-5e-05,-0.00011,-8e-05,4e-05,0.00082,0.00047000000000000004,-4e-05,-5e-05,4
16127,16697,-5e-05,-0.00011,-8e-05,4e-05,0.00082,0.00047000000000000004,-4e-05,-5e-05,4
16128,16698,-5e-05,-0.00011,-8e-05,4e-05,0.00082,0.00047000000000000004,-4e-05,-5e-05,4
16129,16699,-5e-05,-0.00011,-8e-05,4e-05,0.00082,0.00047000000000000004,-4e-05,-5e-05,4
16130,16700,-5e-05,-0.00011,-8e-05,4e-05,0.00082,0.00047000000000000004,-4e-05,-5e-05,4
16131,16701,-5e-05,-0.00011,-8e-05,4e-05,0.00082,0.00047000000000000004,-4e-05,-5e-05,4
16132,16702,-5e-05,-0.00011,-8e-05,4e-05,0.00082,0.00047000000000000004,-4e-05,-5e-05,4
16133,16703,-2e-05,-1e-05,2e-05,0.00018,0.00037999999999999997,0.00022999999999999998,0.0,-4e-05,4
16134,16704,-2e-05,-1e-05,2e-05,0.00018,0.00037999999999999997,0.00022999999999999998,0.0,-4e-05,4
16135,16705,-2e-05,-1e-05,2e-05,0.00018,0.00037999999999999997,0.00022999999999999998,0.0,-4e-05,4
16136,16706,-2e-05,-1e-05,2e-05,0.00018,0.00037999999999999997,0.00022999999999999998,0.0,-4e-05,4
16137,16707,-2e-05,-1e-05,2e-05,0.00018,0.00037999999999999997,0.00022999999999999998,0.0,-4e-05,4
16138,16708,-2e-05,-1e-05,2e-05,0.00018,0.00037999999999999997,0.00022999999999999998,0.0,-4e-05,4
16139,16709,-2e-05,-1e-05,2e-05,0.00018,0.00037999999999999997,0.00022999999999999998,0.0,-4e-05,4
16140,16710,-2e-05,-1e-05,2e-05,0.00018,0.00037999999999999997,0.00022999999999999998,0.0,-4e-05,4
16141,16711,-2e-05,-1e-05,2e-05,0.00018,0.00037999999999999997,0.00022999999999999998,0.0,-4e-05,4
16142,16712,0.0,-1e-05,1e-05,0.0,-0.00047000000000000004,-0.00018999999999999998,-8e-05,-1e-05,4
16143,16713,0.0,-1e-05,1e-05,0.0,-0.00047000000000000004,-0.00018999999999999998,-8e-05,-1e-05,4
16144,16714,0.0,-1e-05,1e-05,0.0,-0.00047000000000000004,-0.00018999999999999998,-8e-05,-1e-05,4
16145,16715,0.0,-1e-05,1e-05,0.0,-0.00047000000000000004,-0.00018999999999999998,-8e-05,-1e-05,4
16146,16716,0.0,-1e-05,1e-05,0.0,-0.00047000000000000004,-0.00018999999999999998,-8e-05,-1e-05,4
16147,16717,0.0,-1e-05,1e-05,0.0,-0.00047000000000000004,-0.00018999999999999998,-8e-05,-1e-05,4
16148,16718,0.0,-1e-05,1e-05,0.0,-0.00047000000000000004,-0.00018999999999999998,-8e-05,-1e-05,4
16149,16719,0.0,-1e-05,1e-05,0.0,-0.00047000000000000004,-0.00018999999999999998,-8e-05,-1e-05,4
16150,16720,0.0,-1e-05,1e-05,0.0,-0.00047000000000000004,-0.00018999999999999998,-8e-05,-1e-05,4
16151,16721,0.0,-1e-05,1e-05,0.0,-0.00047000000000000004,-0.00018999999999999998,-8e-05,-1e-05,4
16152,16722,0.0,-1e-05,1e-05,0.0,-0.00047000000000000004,-0.00018999999999999998,-8e-05,-1e-05,4
16153,16723,0.0,-1e-05,1e-05,0.0,-0.00047000000000000004,-0.00018999999999999998,-8e-05,-1e-05,4
16154,16724,0.0,-1e-05,1e-05,0.0,-0.00047000000000000004,-0.00018999999999999998,-8e-05,-1e-05,4
16155,16725,0.0,-1e-05,1e-05,0.0,-0.00047000000000000004,-0.00018999999999999998,-8e-05,-1e-05,4
16156,16726,0.0,-1e-05,4e-05,2e-05,-0.0003,0.00049,4e-05,-1e-05,4
16157,16727,7e-05,1e-05,8e-05,0.0005,0.0008,0.00022,8e-05,2.9999999999999997e-05,4
16158,16728,7e-05,1e-05,8e-05,0.0005,0.0008,0.00022,8e-05,2.9999999999999997e-05,4
16159,16729,7e-05,1e-05,8e-05,0.0005,0.0008,0.00022,8e-05,2.9999999999999997e-05,4
16160,16730,7e-05,1e-05,8e-05,0.0005,0.0008,0.00022,8e-05,2.9999999999999997e-05,4
16161,16731,7e-05,1e-05,8e-05,0.0005,0.0008,0.00022,8e-05,2.9999999999999997e-05,4
16162,16732,7e-05,1e-05,8e-05,0.0005,0.0008,0.00022,8e-05,2.9999999999999997e-05,4
16163,16733,7e-05,1e-05,8e-05,0.0005,0.0008,0.00022,8e-05,2.9999999999999997e-05,4
16164,16734,7e-05,1e-05,8e-05,0.0005,0.0008,0.00022,8e-05,2.9999999999999997e-05,4
16165,16735,7e-05,1e-05,8e-05,0.0005,0.0008,0.00022,8e-05,2.9999999999999997e-05,4
16166,16736,7e-05,1e-05,8e-05,0.0005,0.0008,0.00022,8e-05,2.9999999999999997e-05,4
16167,16738,7e-05,1e-05,8e-05,0.0005,0.0008,0.00022,8e-05,2.9999999999999997e-05,4
16168,16739,7e-05,1e-05,8e-05,0.0005,0.0008,0.00022,8e-05,2.9999999999999997e-05,4
16169,16740,7e-05,1e-05,8e-05,0.0005,0.0008,0.00022,8e-05,2.9999999999999997e-05,4
16170,16741,7e-05,1e-05,8e-05,0.0005,0.0008,0.00022,8e-05,2.9999999999999997e-05,4
16171,16742,7e-05,1e-05,8e-05,0.0005,0.0008,0.00022,8e-05,2.9999999999999997e-05,4
16172,16743,7e-05,1e-05,8e-05,0.0005,0.0008,0.00022,8e-05,2.9999999999999997e-05,4
16173,16744,7e-05,1e-05,8e-05,0.0005,0.0008,0.00022,8e-05,2.9999999999999997e-05,4
16174,16745,7e-05,1e-05,8e-05,0.0005,0.0008,0.00022,8e-05,2.9999999999999997e-05,4
16175,16746,7e-05,1e-05,8e-05,0.0005,0.0008,0.00022,8e-05,2.9999999999999997e-05,4
16176,16747,7e-05,1e-05,8e-05,0.0005,0.0008,0.00022,8e-05,2.9999999999999997e-05,4
16177,16748,-2.9999999999999997e-05,-5.9999999999999995e-05,-4e-05,0.00013000000000000002,0.00018,-0.0002,-4e-05,-2.9999999999999997e-05,4
16178,16749,-2.9999999999999997e-05,-5.9999999999999995e-05,-4e-05,0.00013000000000000002,0.00018,-0.0002,-4e-05,-2.9999999999999997e-05,4
16179,16750,-2.9999999999999997e-05,-5.9999999999999995e-05,-4e-05,0.00013000000000000002,0.00018,-0.0002,-4e-05,-2.9999999999999997e-05,4
16180,16751,-2.9999999999999997e-05,-5.9999999999999995e-05,-4e-05,0.00013000000000000002,0.00018,-0.0002,-4e-05,-2.9999999999999997e-05,4
16181,16752,-2.9999999999999997e-05,-5.9999999999999995e-05,-4e-05,0.00013000000000000002,0.00018,-0.0002,-4e-05,-2.9999999999999997e-05,4
16182,16753,-2.9999999999999997e-05,-5.9999999999999995e-05,-4e-05,0.00013000000000000002,0.00018,-0.0002,-4e-05,-2.9999999999999997e-05,4
16183,16754,-2.9999999999999997e-05,-5.9999999999999995e-05,-4e-05,0.00013000000000000002,0.00018,-0.0002,-4e-05,-2.9999999999999997e-05,4
16184,16755,-2.9999999999999997e-05,0.0,2e-05,2e-05,-0.00058,-0.00021,-9e-05,-2e-05,4
16185,16756,-2.9999999999999997e-05,0.0,2e-05,2e-05,-0.00058,-0.00021,-9e-05,-2e-05,4
16186,16757,-2.9999999999999997e-05,0.0,2e-05,2e-05,-0.00058,-0.00021,-9e-05,-2e-05,4
16187,16758,-2.9999999999999997e-05,0.0,2e-05,2e-05,-0.00058,-0.00021,-9e-05,-2e-05,4
16188,16759,-2.9999999999999997e-05,0.0,2e-05,2e-05,-0.00058,-0.00021,-9e-05,-2e-05,4
16189,16760,-2.9999999999999997e-05,0.0,2e-05,2e-05,-0.00058,-0.00021,-9e-05,-2e-05,4
16190,16761,-2.9999999999999997e-05,0.0,2e-05,2e-05,-0.00058,-0.00021,-9e-05,-2e-05,4
16191,16762,-2.9999999999999997e-05,0.0,2e-05,2e-05,-0.00058,-0.00021,-9e-05,-2e-05,4
16192,16763,2e-05,-1e-05,0.0,-8e-05,0.00045999999999999996,0.00023999999999999998,7e-05,0.0,4
16193,16764,2e-05,-1e-05,0.0,-8e-05,0.00045999999999999996,0.00023999999999999998,7e-05,0.0,4
16194,16765,2e-05,-1e-05,0.0,-8e-05,0.00045999999999999996,0.00023999999999999998,7e-05,0.0,4
16195,16766,2e-05,-1e-05,0.0,-8e-05,0.00045999999999999996,0.00023999999999999998,7e-05,0.0,4
16196,16767,2e-05,-1e-05,0.0,-8e-05,0.00045999999999999996,0.00023999999999999998,7e-05,0.0,4
16197,16768,2e-05,-1e-05,0.0,-8e-05,0.00045999999999999996,0.00023999999999999998,7e-05,0.0,4
16198,16769,2e-05,-1e-05,0.0,-8e-05,0.00045999999999999996,0.00023999999999999998,7e-05,0.0,4
16199,16770,0.0,-1e-05,-9e-05,-0.0001,0.00011,0.00027,-2.9999999999999997e-05,0.0,4
16200,16771,0.0,-1e-05,-9e-05,-0.0001,0.00011,0.00027,-2.9999999999999997e-05,0.0,4
16201,16772,0.0,-1e-05,-9e-05,-0.0001,0.00011,0.00027,-2.9999999999999997e-05,0.0,4
16202,16773,0.0,-1e-05,-9e-05,-0.0001,0.00011,0.00027,-2.9999999999999997e-05,0.0,4
16203,16774,0.0,-1e-05,-9e-05,-0.0001,0.00011,0.00027,-2.9999999999999997e-05,0.0,4
16204,16775,0.0,-1e-05,-9e-05,-0.0001,0.00011,0.00027,-2.9999999999999997e-05,0.0,4
16205,16776,0.0,-1e-05,-9e-05,-0.0001,0.00011,0.00027,-2.9999999999999997e-05,0.0,4
16206,16777,0.0,-1e-05,-9e-05,-0.0001,0.00011,0.00027,-2.9999999999999997e-05,0.0,4
16207,16778,0.0,-1e-05,-9e-05,-0.0001,0.00011,0.00027,-2.9999999999999997e-05,0.0,4
16208,16779,0.0,-1e-05,-9e-05,-0.0001,0.00011,0.00027,-2.9999999999999997e-05,0.0,4
16209,16780,0.0,-1e-05,-9e-05,-0.0001,0.00011,0.00027,-2.9999999999999997e-05,0.0,4
16210,16781,0.0,-1e-05,-9e-05,-0.0001,0.00011,0.00027,-2.9999999999999997e-05,0.0,4
16211,16782,0.0,-1e-05,-9e-05,-0.0001,0.00011,0.00027,-2.9999999999999997e-05,0.0,4
16212,16783,0.0,-1e-05,-9e-05,-0.0001,0.00011,0.00027,-2.9999999999999997e-05,0.0,4
16213,16784,0.0,-1e-05,-9e-05,-0.0001,0.00011,0.00027,-2.9999999999999997e-05,0.0,4
16214,16785,0.0,-1e-05,-9e-05,-0.0001,0.00011,0.00027,-2.9999999999999997e-05,0.0,4
16215,16787,0.0,-1e-05,-9e-05,-0.0001,0.00011,0.00027,-2.9999999999999997e-05,0.0,4
16216,16789,0.0,-1e-05,-9e-05,-0.0001,0.00011,0.00027,-2.9999999999999997e-05,0.0,4
16217,16790,0.0,-1e-05,-9e-05,-0.0001,0.00011,0.00027,-2.9999999999999997e-05,0.0,4
16218,16791,0.0,-1e-05,-9e-05,-0.0001,0.00011,0.00027,-2.9999999999999997e-05,0.0,4
16219,16792,0.0,-1e-05,-9e-05,-0.0001,0.00011,0.00027,-2.9999999999999997e-05,0.0,4
16220,16793,0.0,-1e-05,-9e-05,-0.0001,0.00011,0.00027,-2.9999999999999997e-05,0.0,4
16221,16794,0.0,-1e-05,-9e-05,-0.0001,0.00011,0.00027,-2.9999999999999997e-05,0.0,4
16222,16795,0.0,-1e-05,-9e-05,-0.0001,0.00011,0.00027,-2.9999999999999997e-05,0.0,4
16223,16796,0.0,-1e-05,-9e-05,-0.0001,0.00011,0.00027,-2.9999999999999997e-05,0.0,4
16224,16797,0.0,-1e-05,-9e-05,-0.0001,0.00011,0.00027,-2.9999999999999997e-05,0.0,4
16225,16798,0.0,-1e-05,-9e-05,-0.0001,0.00011,0.00027,-2.9999999999999997e-05,0.0,4
16226,16799,0.0,-1e-05,-9e-05,-0.0001,0.00011,0.00027,-2.9999999999999997e-05,0.0,4
16227,16800,0.0,-1e-05,-9e-05,-0.0001,0.00011,0.00027,-2.9999999999999997e-05,0.0,4
16228,16801,-5e-05,-2.9999999999999997e-05,-5.9999999999999995e-05,-4e-05,-0.00032,8e-05,-9e-05,-4e-05,4
16229,16802,-5e-05,-2.9999999999999997e-05,-5.9999999999999995e-05,-4e-05,-0.00032,8e-05,-9e-05,-4e-05,4
16230,16803,-5e-05,-5.9999999999999995e-05,-0.00011,2.9999999999999997e-05,-0.00016,-0.00021,-7e-05,-2.9999999999999997e-05,4
16231,16804,-5e-05,-5.9999999999999995e-05,-0.00011,2.9999999999999997e-05,-0.00016,-0.00021,-7e-05,-2.9999999999999997e-05,4
16232,16805,-5e-05,-5.9999999999999995e-05,-0.00011,2.9999999999999997e-05,-0.00016,-0.00021,-7e-05,-2.9999999999999997e-05,4
16233,16806,-5e-05,-5.9999999999999995e-05,-0.00011,2.9999999999999997e-05,-0.00016,-0.00021,-7e-05,-2.9999999999999997e-05,4
16234,16807,-5e-05,-5.9999999999999995e-05,-0.00011,2.9999999999999997e-05,-0.00016,-0.00021,-7e-05,-2.9999999999999997e-05,4
16235,16808,-4e-05,-2.9999999999999997e-05,-2.9999999999999997e-05,-0.00011,0.00037999999999999997,-0.00016,-5.9999999999999995e-05,-4e-05,4
16236,16809,2.9999999999999997e-05,4e-05,0.00013000000000000002,0.00036,0.00047999999999999996,0.00025,0.00011999999999999999,2.9999999999999997e-05,4
16237,16810,-4e-05,1e-05,7e-05,0.00018,0.0003,-0.00042,7e-05,-1e-05,4
16238,16811,-4e-05,1e-05,7e-05,0.00018,0.0003,-0.00042,7e-05,-1e-05,4
16239,16812,-4e-05,1e-05,7e-05,0.00018,0.0003,-0.00042,7e-05,-1e-05,4
16240,16813,-4e-05,1e-05,7e-05,0.00018,0.0003,-0.00042,7e-05,-1e-05,4
16241,16814,-4e-05,1e-05,7e-05,0.00018,0.0003,-0.00042,7e-05,-1e-05,4
16242,16815,-4e-05,1e-05,7e-05,0.00018,0.0003,-0.00042,7e-05,-1e-05,4
16243,16816,-4e-05,1e-05,7e-05,0.00018,0.0003,-0.00042,7e-05,-1e-05,4
16244,16817,-4e-05,1e-05,7e-05,0.00018,0.0003,-0.00042,7e-05,-1e-05,4
16245,16818,-4e-05,1e-05,7e-05,0.00018,0.0003,-0.00042,7e-05,-1e-05,4
16246,16819,-4e-05,1e-05,7e-05,0.00018,0.0003,-0.00042,7e-05,-1e-05,4
16247,16820,-4e-05,1e-05,7e-05,0.00018,0.0003,-0.00042,7e-05,-1e-05,4
16248,16821,-4e-05,1e-05,7e-05,0.00018,0.0003,-0.00042,7e-05,-1e-05,4
16249,16822,-4e-05,1e-05,7e-05,0.00018,0.0003,-0.00042,7e-05,-1e-05,4
16250,16823,-2e-05,-7e-05,-0.00011999999999999999,-8e-05,0.00055,-0.00018999999999999998,5e-05,-2e-05,4
16251,16824,-2.9999999999999997e-05,1e-05,-2e-05,4e-05,-0.00081,-0.0007599999999999999,-2.9999999999999997e-05,0.0,4
16252,16825,-2.9999999999999997e-05,1e-05,-2e-05,4e-05,-0.00081,-0.0007599999999999999,-2.9999999999999997e-05,0.0,4
16253,16826,-2.9999999999999997e-05,1e-05,-2e-05,4e-05,-0.00081,-0.0007599999999999999,-2.9999999999999997e-05,0.0,4
16254,16827,-2.9999999999999997e-05,1e-05,-2e-05,4e-05,-0.00081,-0.0007599999999999999,-2.9999999999999997e-05,0.0,4
16255,16828,-2.9999999999999997e-05,1e-05,-2e-05,4e-05,-0.00081,-0.0007599999999999999,-2.9999999999999997e-05,0.0,4
16256,16829,-2.9999999999999997e-05,1e-05,-2e-05,4e-05,-0.00081,-0.0007599999999999999,-2.9999999999999997e-05,0.0,4
16257,16830,-2.9999999999999997e-05,1e-05,-2e-05,4e-05,-0.00081,-0.0007599999999999999,-2.9999999999999997e-05,0.0,4
16258,16831,-2.9999999999999997e-05,1e-05,-2e-05,4e-05,-0.00081,-0.0007599999999999999,-2.9999999999999997e-05,0.0,4
16259,16832,-2.9999999999999997e-05,1e-05,-2e-05,4e-05,-0.00081,-0.0007599999999999999,-2.9999999999999997e-05,0.0,4
16260,16833,-2.9999999999999997e-05,1e-05,-2e-05,4e-05,-0.00081,-0.0007599999999999999,-2.9999999999999997e-05,0.0,4
16261,16834,-2.9999999999999997e-05,1e-05,-2e-05,4e-05,-0.00081,-0.0007599999999999999,-2.9999999999999997e-05,0.0,4
16262,16835,-2.9999999999999997e-05,1e-05,-2e-05,4e-05,-0.00081,-0.0007599999999999999,-2.9999999999999997e-05,0.0,4
16263,16837,-2.9999999999999997e-05,1e-05,-2e-05,4e-05,-0.00081,-0.0007599999999999999,-2.9999999999999997e-05,0.0,4
16264,16839,-2.9999999999999997e-05,1e-05,-2e-05,4e-05,-0.00081,-0.0007599999999999999,-2.9999999999999997e-05,0.0,4
16265,16840,-2.9999999999999997e-05,1e-05,-2e-05,4e-05,-0.00081,-0.0007599999999999999,-2.9999999999999997e-05,0.0,4
16266,16841,-2.9999999999999997e-05,1e-05,-2e-05,4e-05,-0.00081,-0.0007599999999999999,-2.9999999999999997e-05,0.0,4
16267,16842,-2.9999999999999997e-05,1e-05,-2e-05,4e-05,-0.00081,-0.0007599999999999999,-2.9999999999999997e-05,0.0,4
16268,16843,-2.9999999999999997e-05,1e-05,-2e-05,4e-05,-0.00081,-0.0007599999999999999,-2.9999999999999997e-05,0.0,4
16269,16844,-2.9999999999999997e-05,1e-05,-2e-05,4e-05,-0.00081,-0.0007599999999999999,-2.9999999999999997e-05,0.0,4
16270,16845,-2.9999999999999997e-05,1e-05,-2e-05,4e-05,-0.00081,-0.0007599999999999999,-2.9999999999999997e-05,0.0,4
16271,16846,-2.9999999999999997e-05,1e-05,-2e-05,4e-05,-0.00081,-0.0007599999999999999,-2.9999999999999997e-05,0.0,4
16272,16847,4e-05,8e-05,9e-05,0.00027,-0.00016,2.9999999999999997e-05,9e-05,7e-05,4
16273,16848,1e-05,1e-05,-1e-05,-0.00011,0.00029,-0.0003,-7e-05,-1e-05,4
16274,16849,-2.9999999999999997e-05,-1e-05,2e-05,0.00016,0.00022999999999999998,-0.00043,-0.00013000000000000002,-5.9999999999999995e-05,4
16275,16850,-2.9999999999999997e-05,-1e-05,2e-05,0.00016,0.00022999999999999998,-0.00043,-0.00013000000000000002,-5.9999999999999995e-05,4
16276,16851,-2.9999999999999997e-05,-1e-05,2e-05,0.00016,0.00022999999999999998,-0.00043,-0.00013000000000000002,-5.9999999999999995e-05,4
16277,16852,-2.9999999999999997e-05,-1e-05,2e-05,0.00016,0.00022999999999999998,-0.00043,-0.00013000000000000002,-5.9999999999999995e-05,4
16278,16853,-2.9999999999999997e-05,-1e-05,2e-05,0.00016,0.00022999999999999998,-0.00043,-0.00013000000000000002,-5.9999999999999995e-05,4
16279,16854,-2.9999999999999997e-05,-1e-05,2e-05,0.00016,0.00022999999999999998,-0.00043,-0.00013000000000000002,-5.9999999999999995e-05,4
16280,16855,-2.9999999999999997e-05,-1e-05,2e-05,0.00016,0.00022999999999999998,-0.00043,-0.00013000000000000002,-5.9999999999999995e-05,4
16281,16856,-2.9999999999999997e-05,-1e-05,2e-05,0.00016,0.00022999999999999998,-0.00043,-0.00013000000000000002,-5.9999999999999995e-05,4
16282,16857,-2.9999999999999997e-05,-1e-05,2e-05,0.00016,0.00022999999999999998,-0.00043,-0.00013000000000000002,-5.9999999999999995e-05,4
16283,16858,-2.9999999999999997e-05,-1e-05,2e-05,0.00016,0.00022999999999999998,-0.00043,-0.00013000000000000002,-5.9999999999999995e-05,4
16284,16859,-2.9999999999999997e-05,-1e-05,2e-05,0.00016,0.00022999999999999998,-0.00043,-0.00013000000000000002,-5.9999999999999995e-05,4
16285,16860,-2.9999999999999997e-05,-1e-05,2e-05,0.00016,0.00022999999999999998,-0.00043,-0.00013000000000000002,-5.9999999999999995e-05,4
16286,16861,-2.9999999999999997e-05,-1e-05,2e-05,0.00016,0.00022999999999999998,-0.00043,-0.00013000000000000002,-5.9999999999999995e-05,4
16287,16862,-2.9999999999999997e-05,-1e-05,2e-05,0.00016,0.00022999999999999998,-0.00043,-0.00013000000000000002,-5.9999999999999995e-05,4
16288,16863,-2.9999999999999997e-05,-1e-05,2e-05,0.00016,0.00022999999999999998,-0.00043,-0.00013000000000000002,-5.9999999999999995e-05,4
16289,16864,-2.9999999999999997e-05,-1e-05,2e-05,0.00016,0.00022999999999999998,-0.00043,-0.00013000000000000002,-5.9999999999999995e-05,4
16290,16865,-2.9999999999999997e-05,-1e-05,2e-05,0.00016,0.00022999999999999998,-0.00043,-0.00013000000000000002,-5.9999999999999995e-05,4
16291,16866,-2.9999999999999997e-05,-1e-05,2e-05,0.00016,0.00022999999999999998,-0.00043,-0.00013000000000000002,-5.9999999999999995e-05,4
16292,16867,-2.9999999999999997e-05,-1e-05,2e-05,0.00016,0.00022999999999999998,-0.00043,-0.00013000000000000002,-5.9999999999999995e-05,4
16293,16868,-2.9999999999999997e-05,-1e-05,2e-05,0.00016,0.00022999999999999998,-0.00043,-0.00013000000000000002,-5.9999999999999995e-05,4
16294,16869,-2.9999999999999997e-05,-1e-05,2e-05,0.00016,0.00022999999999999998,-0.00043,-0.00013000000000000002,-5.9999999999999995e-05,4
16295,16870,-2.9999999999999997e-05,-1e-05,2e-05,0.00016,0.00022999999999999998,-0.00043,-0.00013000000000000002,-5.9999999999999995e-05,4
16296,16871,-2.9999999999999997e-05,-4e-05,-4e-05,-0.00011,-0.00059,2.9999999999999997e-05,-4e-05,-2e-05,4
16297,16872,-2.9999999999999997e-05,-4e-05,-4e-05,-0.00011,-0.00059,2.9999999999999997e-05,-4e-05,-2e-05,4
16298,16873,-2.9999999999999997e-05,-4e-05,-4e-05,-0.00011,-0.00059,2.9999999999999997e-05,-4e-05,-2e-05,4
16299,16874,-2.9999999999999997e-05,-4e-05,-4e-05,-0.00011,-0.00059,2.9999999999999997e-05,-4e-05,-2e-05,4
16300,16875,-2.9999999999999997e-05,-4e-05,-4e-05,-0.00011,-0.00059,2.9999999999999997e-05,-4e-05,-2e-05,4
16301,16876,-2.9999999999999997e-05,-4e-05,-4e-05,-0.00011,-0.00059,2.9999999999999997e-05,-4e-05,-2e-05,4
16302,16877,-2.9999999999999997e-05,-4e-05,-4e-05,-0.00011,-0.00059,2.9999999999999997e-05,-4e-05,-2e-05,4
16303,16878,-2.9999999999999997e-05,-4e-05,-4e-05,-0.00011,-0.00059,2.9999999999999997e-05,-4e-05,-2e-05,4
16304,16879,-2.9999999999999997e-05,-4e-05,-4e-05,-0.00011,-0.00059,2.9999999999999997e-05,-4e-05,-2e-05,4
16305,16880,-2.9999999999999997e-05,-4e-05,-4e-05,-0.00011,-0.00059,2.9999999999999997e-05,-4e-05,-2e-05,4
16306,16881,-2.9999999999999997e-05,-4e-05,-4e-05,-0.00011,-0.00059,2.9999999999999997e-05,-4e-05,-2e-05,4
16307,16882,-2.9999999999999997e-05,-4e-05,-4e-05,-0.00011,-0.00059,2.9999999999999997e-05,-4e-05,-2e-05,4
16308,16883,0.0,-1e-05,-5.9999999999999995e-05,-0.00033999999999999997,-7e-05,1e-05,2e-05,-2e-05,4
16309,16884,0.0,-1e-05,-5.9999999999999995e-05,-0.00033999999999999997,-7e-05,1e-05,2e-05,-2e-05,4
16310,16885,0.0,-1e-05,-5.9999999999999995e-05,-0.00033999999999999997,-7e-05,1e-05,2e-05,-2e-05,4
16311,16886,0.0,-1e-05,-5.9999999999999995e-05,-0.00033999999999999997,-7e-05,1e-05,2e-05,-2e-05,4
16312,16888,0.0,-1e-05,-5.9999999999999995e-05,-0.00033999999999999997,-7e-05,1e-05,2e-05,-2e-05,4
16313,16889,0.0,-1e-05,-5.9999999999999995e-05,-0.00033999999999999997,-7e-05,1e-05,2e-05,-2e-05,4
16314,16890,0.0,1e-05,0.0,-0.0003,-0.00088,-0.00043,-2e-05,2.9999999999999997e-05,4
16315,16891,0.0,1e-05,0.0,-0.0003,-0.00088,-0.00043,-2e-05,2.9999999999999997e-05,4
16316,16892,0.0,1e-05,0.0,-0.0003,-0.00088,-0.00043,-2e-05,2.9999999999999997e-05,4
16317,16893,0.0,1e-05,0.0,-0.0003,-0.00088,-0.00043,-2e-05,2.9999999999999997e-05,4
16318,16894,0.0,1e-05,0.0,-0.0003,-0.00088,-0.00043,-2e-05,2.9999999999999997e-05,4
16319,16895,0.0,1e-05,0.0,-0.0003,-0.00088,-0.00043,-2e-05,2.9999999999999997e-05,4
16320,16896,0.0,1e-05,0.0,-0.0003,-0.00088,-0.00043,-2e-05,2.9999999999999997e-05,4
16321,16897,0.0,1e-05,0.0,-0.0003,-0.00088,-0.00043,-2e-05,2.9999999999999997e-05,4
16322,16898,0.0,1e-05,0.0,-0.0003,-0.00088,-0.00043,-2e-05,2.9999999999999997e-05,4
16323,16899,0.0,1e-05,0.0,-0.0003,-0.00088,-0.00043,-2e-05,2.9999999999999997e-05,4
16324,16900,0.0,1e-05,0.0,-0.0003,-0.00088,-0.00043,-2e-05,2.9999999999999997e-05,4
16325,16901,0.0,1e-05,0.0,-0.0003,-0.00088,-0.00043,-2e-05,2.9999999999999997e-05,4
16326,16902,0.0,1e-05,0.0,-0.0003,-0.00088,-0.00043,-2e-05,2.9999999999999997e-05,4
16327,16903,0.0,1e-05,0.0,-0.0003,-0.00088,-0.00043,-2e-05,2.9999999999999997e-05,4
16328,16904,0.0,1e-05,0.0,-0.0003,-0.00088,-0.00043,-2e-05,2.9999999999999997e-05,4
16329,16905,0.0,1e-05,0.0,-0.0003,-0.00088,-0.00043,-2e-05,2.9999999999999997e-05,4
16330,16906,-1e-05,-2e-05,-5e-05,-1e-05,1e-05,-0.00018,0.0,-1e-05,4
16331,16907,-1e-05,-2e-05,-5e-05,-1e-05,1e-05,-0.00018,0.0,-1e-05,4
16332,16908,1e-05,2e-05,8e-05,0.00016999999999999999,-4e-05,9e-05,0.0,0.0,4
16333,16909,1e-05,2e-05,8e-05,0.00016999999999999999,-4e-05,9e-05,0.0,0.0,4
16334,16910,1e-05,2e-05,8e-05,0.00016999999999999999,-4e-05,9e-05,0.0,0.0,4
16335,16911,1e-05,2e-05,8e-05,0.00016999999999999999,-4e-05,9e-05,0.0,0.0,4
16336,16912,1e-05,2e-05,8e-05,0.00016999999999999999,-4e-05,9e-05,0.0,0.0,4
16337,16913,1e-05,2e-05,8e-05,0.00016999999999999999,-4e-05,9e-05,0.0,0.0,4
16338,16914,1e-05,2e-05,8e-05,0.00016999999999999999,-4e-05,9e-05,0.0,0.0,4
16339,16915,1e-05,2e-05,8e-05,0.00016999999999999999,-4e-05,9e-05,0.0,0.0,4
16340,16916,1e-05,2e-05,8e-05,0.00016999999999999999,-4e-05,9e-05,0.0,0.0,4
16341,16917,1e-05,2e-05,8e-05,0.00016999999999999999,-4e-05,9e-05,0.0,0.0,4
16342,16918,1e-05,2e-05,8e-05,0.00016999999999999999,-4e-05,9e-05,0.0,0.0,4
16343,16919,1e-05,2e-05,8e-05,0.00016999999999999999,-4e-05,9e-05,0.0,0.0,4
16344,16920,1e-05,2e-05,8e-05,0.00016999999999999999,-4e-05,9e-05,0.0,0.0,4
16345,16921,1e-05,2e-05,8e-05,0.00016999999999999999,-4e-05,9e-05,0.0,0.0,4
16346,16922,1e-05,2e-05,8e-05,0.00016999999999999999,-4e-05,9e-05,0.0,0.0,4
16347,16923,1e-05,2e-05,8e-05,0.00016999999999999999,-4e-05,9e-05,0.0,0.0,4
16348,16924,1e-05,2e-05,8e-05,0.00016999999999999999,-4e-05,9e-05,0.0,0.0,4
16349,16925,1e-05,2e-05,8e-05,0.00016999999999999999,-4e-05,9e-05,0.0,0.0,4
16350,16926,1e-05,2e-05,8e-05,0.00016999999999999999,-4e-05,9e-05,0.0,0.0,4
16351,16927,1e-05,2e-05,8e-05,0.00016999999999999999,-4e-05,9e-05,0.0,0.0,4
16352,16928,1e-05,2e-05,8e-05,0.00016999999999999999,-4e-05,9e-05,0.0,0.0,4
16353,16929,-7e-05,-9e-05,-5e-05,0.00014,0.0009,-0.0002,-0.00018,-0.0001,4
16354,16930,-7e-05,-9e-05,-5e-05,0.00014,0.0009,-0.0002,-0.00018,-0.0001,4
16355,16931,1e-05,2.9999999999999997e-05,7e-05,5.9999999999999995e-05,0.00026000000000000003,1e-05,4e-05,1e-05,4
16356,16932,1e-05,2.9999999999999997e-05,7e-05,5.9999999999999995e-05,0.00026000000000000003,1e-05,4e-05,1e-05,4
16357,16933,1e-05,2.9999999999999997e-05,7e-05,5.9999999999999995e-05,0.00026000000000000003,1e-05,4e-05,1e-05,4
16358,16934,1e-05,2.9999999999999997e-05,7e-05,5.9999999999999995e-05,0.00026000000000000003,1e-05,4e-05,1e-05,4
16359,16935,1e-05,2.9999999999999997e-05,7e-05,5.9999999999999995e-05,0.00026000000000000003,1e-05,4e-05,1e-05,4
16360,16937,1e-05,2.9999999999999997e-05,7e-05,5.9999999999999995e-05,0.00026000000000000003,1e-05,4e-05,1e-05,4
16361,16939,1e-05,2.9999999999999997e-05,7e-05,5.9999999999999995e-05,0.00026000000000000003,1e-05,4e-05,1e-05,4
16362,16940,1e-05,2.9999999999999997e-05,7e-05,5.9999999999999995e-05,0.00026000000000000003,1e-05,4e-05,1e-05,4
16363,16941,1e-05,2.9999999999999997e-05,7e-05,5.9999999999999995e-05,0.00026000000000000003,1e-05,4e-05,1e-05,4
16364,16942,1e-05,2.9999999999999997e-05,7e-05,5.9999999999999995e-05,0.00026000000000000003,1e-05,4e-05,1e-05,4
16365,16943,-1e-05,-2.9999999999999997e-05,2e-05,0.0002,0.00022999999999999998,0.00011999999999999999,2.9999999999999997e-05,1e-05,4
16366,16944,-1e-05,-2.9999999999999997e-05,2e-05,0.0002,0.00022999999999999998,0.00011999999999999999,2.9999999999999997e-05,1e-05,4
16367,16945,-1e-05,-2.9999999999999997e-05,2e-05,0.0002,0.00022999999999999998,0.00011999999999999999,2.9999999999999997e-05,1e-05,4
16368,16946,-1e-05,-2.9999999999999997e-05,2e-05,0.0002,0.00022999999999999998,0.00011999999999999999,2.9999999999999997e-05,1e-05,4
16369,16947,-1e-05,-2.9999999999999997e-05,2e-05,0.0002,0.00022999999999999998,0.00011999999999999999,2.9999999999999997e-05,1e-05,4
16370,16948,-1e-05,-2.9999999999999997e-05,2e-05,0.0002,0.00022999999999999998,0.00011999999999999999,2.9999999999999997e-05,1e-05,4
16371,16949,-1e-05,-2.9999999999999997e-05,2e-05,0.0002,0.00022999999999999998,0.00011999999999999999,2.9999999999999997e-05,1e-05,4
16372,16950,1e-05,-2e-05,2e-05,-5e-05,4e-05,0.0010400000000000001,0.00022,2.9999999999999997e-05,4
16373,16951,1e-05,-2e-05,2e-05,-5e-05,4e-05,0.0010400000000000001,0.00022,2.9999999999999997e-05,4
16374,16952,1e-05,-2e-05,2e-05,-5e-05,4e-05,0.0010400000000000001,0.00022,2.9999999999999997e-05,4
16375,16953,1e-05,-2e-05,2e-05,-5e-05,4e-05,0.0010400000000000001,0.00022,2.9999999999999997e-05,4
16376,16954,1e-05,-2e-05,2e-05,-5e-05,4e-05,0.0010400000000000001,0.00022,2.9999999999999997e-05,4
16377,16955,1e-05,-2e-05,2e-05,-5e-05,4e-05,0.0010400000000000001,0.00022,2.9999999999999997e-05,4
16378,16956,1e-05,-2e-05,2e-05,-5e-05,4e-05,0.0010400000000000001,0.00022,2.9999999999999997e-05,4
16379,16957,1e-05,-2e-05,2e-05,-5e-05,4e-05,0.0010400000000000001,0.00022,2.9999999999999997e-05,4
16380,16958,1e-05,-2e-05,2e-05,-5e-05,4e-05,0.0010400000000000001,0.00022,2.9999999999999997e-05,4
16381,16959,1e-05,-2e-05,2e-05,-5e-05,4e-05,0.0010400000000000001,0.00022,2.9999999999999997e-05,4
16382,16960,1e-05,-2e-05,2e-05,-5e-05,4e-05,0.0010400000000000001,0.00022,2.9999999999999997e-05,4
16383,16961,1e-05,-2e-05,2e-05,-5e-05,4e-05,0.0010400000000000001,0.00022,2.9999999999999997e-05,4
16384,16963,1e-05,-2e-05,2e-05,-5e-05,4e-05,0.0010400000000000001,0.00022,2.9999999999999997e-05,4
16385,16964,1e-05,-2e-05,2e-05,-5e-05,4e-05,0.0010400000000000001,0.00022,2.9999999999999997e-05,4
16386,16965,1e-05,-2e-05,2e-05,-5e-05,4e-05,0.0010400000000000001,0.00022,2.9999999999999997e-05,4
16387,16966,-7e-05,-7e-05,-5.9999999999999995e-05,-0.00016999999999999999,-0.00047999999999999996,-0.00018999999999999998,-0.00011,-7e-05,4
16388,16967,0.0,-1e-05,-9e-05,-0.00045,-0.0008900000000000001,0.00021,5.9999999999999995e-05,2e-05,4
16389,16969,0.0,-1e-05,-9e-05,-0.00045,-0.0008900000000000001,0.00021,5.9999999999999995e-05,2e-05,4
16390,16970,0.0,-1e-05,-9e-05,-0.00045,-0.0008900000000000001,0.00021,5.9999999999999995e-05,2e-05,4
16391,16971,0.0,-1e-05,-9e-05,-0.00045,-0.0008900000000000001,0.00021,5.9999999999999995e-05,2e-05,4
16392,16972,-4e-05,-2e-05,-5e-05,0.0,0.00044,-0.0001,-9e-05,-5.9999999999999995e-05,4
16393,16973,-4e-05,-2e-05,-5e-05,0.0,0.00044,-0.0001,-9e-05,-5.9999999999999995e-05,4
16394,16974,-4e-05,-2e-05,-5e-05,0.0,0.00044,-0.0001,-9e-05,-5.9999999999999995e-05,4
16395,16975,-4e-05,-2e-05,-5e-05,0.0,0.00044,-0.0001,-9e-05,-5.9999999999999995e-05,4
16396,16976,-4e-05,-2e-05,-5e-05,0.0,0.00044,-0.0001,-9e-05,-5.9999999999999995e-05,4
16397,16977,-4e-05,-2e-05,-5e-05,0.0,0.00044,-0.0001,-9e-05,-5.9999999999999995e-05,4
16398,16978,-4e-05,-2e-05,-5e-05,0.0,0.00044,-0.0001,-9e-05,-5.9999999999999995e-05,4
16399,16979,-4e-05,-2e-05,-5e-05,0.0,0.00044,-0.0001,-9e-05,-5.9999999999999995e-05,4
16400,16980,-4e-05,-2e-05,-5e-05,0.0,0.00044,-0.0001,-9e-05,-5.9999999999999995e-05,4
16401,16981,-4e-05,-2e-05,-5e-05,0.0,0.00044,-0.0001,-9e-05,-5.9999999999999995e-05,4
16402,16982,-4e-05,-2e-05,-5e-05,0.0,0.00044,-0.0001,-9e-05,-5.9999999999999995e-05,4
16403,16983,-4e-05,-2e-05,-5e-05,0.0,0.00044,-0.0001,-9e-05,-5.9999999999999995e-05,4
16404,16984,-4e-05,-2e-05,-5e-05,0.0,0.00044,-0.0001,-9e-05,-5.9999999999999995e-05,4
16405,16985,-4e-05,-2e-05,-5e-05,0.0,0.00044,-0.0001,-9e-05,-5.9999999999999995e-05,4
16406,16986,-4e-05,-2e-05,-5e-05,0.0,0.00044,-0.0001,-9e-05,-5.9999999999999995e-05,4
16407,16988,-4e-05,-2e-05,-5e-05,0.0,0.00044,-0.0001,-9e-05,-5.9999999999999995e-05,4
16408,16989,8e-05,9e-05,0.00011999999999999999,-0.00011999999999999999,-0.00022,5e-05,0.00018,0.00014,4
16409,16990,8e-05,9e-05,0.00011999999999999999,-0.00011999999999999999,-0.00022,5e-05,0.00018,0.00014,4
16410,16991,8e-05,9e-05,0.00011999999999999999,-0.00011999999999999999,-0.00022,5e-05,0.00018,0.00014,4
16411,16992,8e-05,9e-05,0.00011999999999999999,-0.00011999999999999999,-0.00022,5e-05,0.00018,0.00014,4
16412,16993,8e-05,9e-05,0.00011999999999999999,-0.00011999999999999999,-0.00022,5e-05,0.00018,0.00014,4
16413,16994,8e-05,9e-05,0.00011999999999999999,-0.00011999999999999999,-0.00022,5e-05,0.00018,0.00014,4
16414,16995,8e-05,9e-05,0.00011999999999999999,-0.00011999999999999999,-0.00022,5e-05,0.00018,0.00014,4
16415,16996,-5.9999999999999995e-05,-5.9999999999999995e-05,-5.9999999999999995e-05,-0.00011999999999999999,-0.00032,-5.9999999999999995e-05,-0.00015,-9e-05,4
16416,16997,-5.9999999999999995e-05,-5.9999999999999995e-05,-5.9999999999999995e-05,-0.00011999999999999999,-0.00032,-5.9999999999999995e-05,-0.00015,-9e-05,4
16417,16998,-5.9999999999999995e-05,-5.9999999999999995e-05,-5.9999999999999995e-05,-0.00011999999999999999,-0.00032,-5.9999999999999995e-05,-0.00015,-9e-05,4
16418,16999,-5.9999999999999995e-05,-5.9999999999999995e-05,-5.9999999999999995e-05,-0.00011999999999999999,-0.00032,-5.9999999999999995e-05,-0.00015,-9e-05,4
16419,17000,-5.9999999999999995e-05,-5.9999999999999995e-05,-5.9999999999999995e-05,-0.00011999999999999999,-0.00032,-5.9999999999999995e-05,-0.00015,-9e-05,4
16420,17001,-5.9999999999999995e-05,-5.9999999999999995e-05,-5.9999999999999995e-05,-0.00011999999999999999,-0.00032,-5.9999999999999995e-05,-0.00015,-9e-05,4
16421,17002,-5.9999999999999995e-05,-5.9999999999999995e-05,-5.9999999999999995e-05,-0.00011999999999999999,-0.00032,-5.9999999999999995e-05,-0.00015,-9e-05,4
16422,17003,-2.9999999999999997e-05,-2e-05,-1e-05,7e-05,-0.00011,-0.00021,-8e-05,-7e-05,4
16423,17004,-2.9999999999999997e-05,-2e-05,-1e-05,7e-05,-0.00011,-0.00021,-8e-05,-7e-05,4
16424,17005,-2.9999999999999997e-05,-2e-05,-1e-05,7e-05,-0.00011,-0.00021,-8e-05,-7e-05,4
16425,17006,-2.9999999999999997e-05,-2e-05,-1e-05,7e-05,-0.00011,-0.00021,-8e-05,-7e-05,4
16426,17007,-2.9999999999999997e-05,-2e-05,-1e-05,7e-05,-0.00011,-0.00021,-8e-05,-7e-05,4
16427,17008,-2.9999999999999997e-05,-2e-05,-1e-05,7e-05,-0.00011,-0.00021,-8e-05,-7e-05,4
16428,17009,-2.9999999999999997e-05,-2e-05,-1e-05,7e-05,-0.00011,-0.00021,-8e-05,-7e-05,4
16429,17010,-2e-05,-5.9999999999999995e-05,-9e-05,0.00018999999999999998,0.0009400000000000001,-0.00039,-9e-05,-2e-05,4
16430,17011,-2e-05,-5.9999999999999995e-05,-9e-05,0.00018999999999999998,0.0009400000000000001,-0.00039,-9e-05,-2e-05,4
16431,17012,-2e-05,-5.9999999999999995e-05,-9e-05,0.00018999999999999998,0.0009400000000000001,-0.00039,-9e-05,-2e-05,4
16432,17013,-2e-05,-5.9999999999999995e-05,-9e-05,0.00018999999999999998,0.0009400000000000001,-0.00039,-9e-05,-2e-05,4
16433,17014,-2e-05,-5.9999999999999995e-05,-9e-05,0.00018999999999999998,0.0009400000000000001,-0.00039,-9e-05,-2e-05,4
16434,17015,-2e-05,-5.9999999999999995e-05,-9e-05,0.00018999999999999998,0.0009400000000000001,-0.00039,-9e-05,-2e-05,4
16435,17016,-2e-05,-5.9999999999999995e-05,-9e-05,0.00018999999999999998,0.0009400000000000001,-0.00039,-9e-05,-2e-05,4
16436,17017,-2e-05,-5.9999999999999995e-05,-9e-05,0.00018999999999999998,0.0009400000000000001,-0.00039,-9e-05,-2e-05,4
16437,17018,-2e-05,-5.9999999999999995e-05,-9e-05,0.00018999999999999998,0.0009400000000000001,-0.00039,-9e-05,-2e-05,4
16438,17019,-2e-05,-5.9999999999999995e-05,-9e-05,0.00018999999999999998,0.0009400000000000001,-0.00039,-9e-05,-2e-05,4
16439,17020,-2e-05,-5.9999999999999995e-05,-9e-05,0.00018999999999999998,0.0009400000000000001,-0.00039,-9e-05,-2e-05,4
16440,17021,-2e-05,-5.9999999999999995e-05,-9e-05,0.00018999999999999998,0.0009400000000000001,-0.00039,-9e-05,-2e-05,4
16441,17022,-2e-05,-5.9999999999999995e-05,-9e-05,0.00018999999999999998,0.0009400000000000001,-0.00039,-9e-05,-2e-05,4
16442,17023,-2e-05,-5.9999999999999995e-05,-9e-05,0.00018999999999999998,0.0009400000000000001,-0.00039,-9e-05,-2e-05,4
16443,17024,-2e-05,-5.9999999999999995e-05,-9e-05,0.00018999999999999998,0.0009400000000000001,-0.00039,-9e-05,-2e-05,4
16444,17025,-2e-05,-5.9999999999999995e-05,-9e-05,0.00018999999999999998,0.0009400000000000001,-0.00039,-9e-05,-2e-05,4
16445,17026,-4e-05,-4e-05,-4e-05,5e-05,9e-05,0.00039,-2.9999999999999997e-05,-5e-05,4
16446,17027,-4e-05,-4e-05,-4e-05,5e-05,9e-05,0.00039,-2.9999999999999997e-05,-5e-05,4
16447,17028,0.0,4e-05,2e-05,0.00016,0.00022,0.0001,1e-05,-2.9999999999999997e-05,4
16448,17029,0.0,4e-05,2e-05,0.00016,0.00022,0.0001,1e-05,-2.9999999999999997e-05,4
16449,17030,0.0,4e-05,2e-05,0.00016,0.00022,0.0001,1e-05,-2.9999999999999997e-05,4
16450,17031,0.0,4e-05,2e-05,0.00016,0.00022,0.0001,1e-05,-2.9999999999999997e-05,4
16451,17032,0.0,4e-05,2e-05,0.00016,0.00022,0.0001,1e-05,-2.9999999999999997e-05,4
16452,17033,0.0,4e-05,2e-05,0.00016,0.00022,0.0001,1e-05,-2.9999999999999997e-05,4
16453,17034,0.0,4e-05,2e-05,0.00016,0.00022,0.0001,1e-05,-2.9999999999999997e-05,4
16454,17035,0.0,4e-05,2e-05,0.00016,0.00022,0.0001,1e-05,-2.9999999999999997e-05,4
16455,17036,0.0,4e-05,2e-05,0.00016,0.00022,0.0001,1e-05,-2.9999999999999997e-05,4
16456,17039,0.0,4e-05,2e-05,0.00016,0.00022,0.0001,1e-05,-2.9999999999999997e-05,4
16457,17040,0.0,4e-05,2e-05,0.00016,0.00022,0.0001,1e-05,-2.9999999999999997e-05,4
16458,17041,0.0,4e-05,2e-05,0.00016,0.00022,0.0001,1e-05,-2.9999999999999997e-05,4
16459,17042,0.0,4e-05,2e-05,0.00016,0.00022,0.0001,1e-05,-2.9999999999999997e-05,4
16460,17043,0.0,4e-05,2e-05,0.00016,0.00022,0.0001,1e-05,-2.9999999999999997e-05,4
16461,17044,0.0,4e-05,2e-05,0.00016,0.00022,0.0001,1e-05,-2.9999999999999997e-05,4
16462,17045,0.0,4e-05,2e-05,0.00016,0.00022,0.0001,1e-05,-2.9999999999999997e-05,4
16463,17046,0.0,4e-05,2e-05,0.00016,0.00022,0.0001,1e-05,-2.9999999999999997e-05,4
16464,17047,0.0,4e-05,2e-05,0.00016,0.00022,0.0001,1e-05,-2.9999999999999997e-05,4
16465,17048,0.0,4e-05,2e-05,0.00016,0.00022,0.0001,1e-05,-2.9999999999999997e-05,4
16466,17049,-2e-05,-5.9999999999999995e-05,-5.9999999999999995e-05,0.0001,0.00011,-0.00029,-0.00013000000000000002,-2.9999999999999997e-05,4
16467,17050,-2e-05,-5.9999999999999995e-05,-5.9999999999999995e-05,0.0001,0.00011,-0.00029,-0.00013000000000000002,-2.9999999999999997e-05,4
16468,17051,1e-05,-2.9999999999999997e-05,-9e-05,-0.00057,-0.00109,-4e-05,-4e-05,0.0,4
16469,17052,1e-05,-2.9999999999999997e-05,-9e-05,-0.00057,-0.00109,-4e-05,-4e-05,0.0,4
16470,17053,1e-05,-2.9999999999999997e-05,-9e-05,-0.00057,-0.00109,-4e-05,-4e-05,0.0,4
16471,17054,1e-05,-2.9999999999999997e-05,-9e-05,-0.00057,-0.00109,-4e-05,-4e-05,0.0,4
16472,17055,1e-05,-2.9999999999999997e-05,-9e-05,-0.00057,-0.00109,-4e-05,-4e-05,0.0,4
16473,17056,1e-05,-2.9999999999999997e-05,-9e-05,-0.00057,-0.00109,-4e-05,-4e-05,0.0,4
16474,17058,1e-05,-2.9999999999999997e-05,-9e-05,-0.00057,-0.00109,-4e-05,-4e-05,0.0,4
16475,17059,1e-05,-2.9999999999999997e-05,-9e-05,-0.00057,-0.00109,-4e-05,-4e-05,0.0,4
16476,17060,1e-05,-2.9999999999999997e-05,-9e-05,-0.00057,-0.00109,-4e-05,-4e-05,0.0,4
16477,17061,1e-05,-2.9999999999999997e-05,-9e-05,-0.00057,-0.00109,-4e-05,-4e-05,0.0,4
16478,17062,-5.9999999999999995e-05,-5e-05,-5e-05,-5.9999999999999995e-05,-0.00023999999999999998,-0.00043,-0.00018,-7e-05,4
16479,17063,-5.9999999999999995e-05,-5e-05,-5e-05,-5.9999999999999995e-05,-0.00023999999999999998,-0.00043,-0.00018,-7e-05,4
16480,17064,-5.9999999999999995e-05,-5e-05,-5e-05,-5.9999999999999995e-05,-0.00023999999999999998,-0.00043,-0.00018,-7e-05,4
16481,17065,-5.9999999999999995e-05,-5e-05,-5e-05,-5.9999999999999995e-05,-0.00023999999999999998,-0.00043,-0.00018,-7e-05,4
16482,17066,-5.9999999999999995e-05,-5e-05,-5e-05,-5.9999999999999995e-05,-0.00023999999999999998,-0.00043,-0.00018,-7e-05,4
16483,17067,-5.9999999999999995e-05,-5e-05,-5e-05,-5.9999999999999995e-05,-0.00023999999999999998,-0.00043,-0.00018,-7e-05,4
16484,17068,-5.9999999999999995e-05,-5e-05,-5e-05,-5.9999999999999995e-05,-0.00023999999999999998,-0.00043,-0.00018,-7e-05,4
16485,17069,-5.9999999999999995e-05,-5e-05,-5e-05,-5.9999999999999995e-05,-0.00023999999999999998,-0.00043,-0.00018,-7e-05,4
16486,17070,-5.9999999999999995e-05,-5e-05,-5e-05,-5.9999999999999995e-05,-0.00023999999999999998,-0.00043,-0.00018,-7e-05,4
16487,17071,-5.9999999999999995e-05,-5e-05,-5e-05,-5.9999999999999995e-05,-0.00023999999999999998,-0.00043,-0.00018,-7e-05,4
16488,17072,-5.9999999999999995e-05,-5e-05,-5e-05,-5.9999999999999995e-05,-0.00023999999999999998,-0.00043,-0.00018,-7e-05,4
16489,17073,-5.9999999999999995e-05,-5e-05,-5e-05,-5.9999999999999995e-05,-0.00023999999999999998,-0.00043,-0.00018,-7e-05,4
16490,17074,-5.9999999999999995e-05,-5e-05,-5e-05,-5.9999999999999995e-05,-0.00023999999999999998,-0.00043,-0.00018,-7e-05,4
16491,17075,-5.9999999999999995e-05,-5e-05,-5e-05,-5.9999999999999995e-05,-0.00023999999999999998,-0.00043,-0.00018,-7e-05,4
16492,17076,-5.9999999999999995e-05,-5e-05,-5e-05,-5.9999999999999995e-05,-0.00023999999999999998,-0.00043,-0.00018,-7e-05,4
16493,17077,7e-05,9e-05,9e-05,-0.0004,-0.00037,0.0001,0.00016,0.00011,4
16494,17078,7e-05,9e-05,9e-05,-0.0004,-0.00037,0.0001,0.00016,0.00011,4
16495,17079,7e-05,9e-05,9e-05,-0.0004,-0.00037,0.0001,0.00016,0.00011,4
16496,17080,7e-05,9e-05,9e-05,-0.0004,-0.00037,0.0001,0.00016,0.00011,4
16497,17081,7e-05,9e-05,9e-05,-0.0004,-0.00037,0.0001,0.00016,0.00011,4
16498,17082,7e-05,9e-05,9e-05,-0.0004,-0.00037,0.0001,0.00016,0.00011,4
16499,17083,7e-05,9e-05,9e-05,-0.0004,-0.00037,0.0001,0.00016,0.00011,4
16500,17084,7e-05,9e-05,9e-05,-0.0004,-0.00037,0.0001,0.00016,0.00011,4
16501,17085,7e-05,9e-05,9e-05,-0.0004,-0.00037,0.0001,0.00016,0.00011,4
16502,17086,7e-05,9e-05,9e-05,-0.0004,-0.00037,0.0001,0.00016,0.00011,4
16503,17089,2e-05,2.9999999999999997e-05,0.00011,0.00062,0.00037,-0.00033999999999999997,-2.9999999999999997e-05,-2e-05,4
16504,17090,2e-05,2.9999999999999997e-05,0.00011,0.00062,0.00037,-0.00033999999999999997,-2.9999999999999997e-05,-2e-05,4
16505,17091,2e-05,2.9999999999999997e-05,0.00011,0.00062,0.00037,-0.00033999999999999997,-2.9999999999999997e-05,-2e-05,4
16506,17092,2e-05,2.9999999999999997e-05,0.00011,0.00062,0.00037,-0.00033999999999999997,-2.9999999999999997e-05,-2e-05,4
16507,17093,2e-05,2.9999999999999997e-05,0.00011,0.00062,0.00037,-0.00033999999999999997,-2.9999999999999997e-05,-2e-05,4
16508,17094,2e-05,2.9999999999999997e-05,0.00011,0.00062,0.00037,-0.00033999999999999997,-2.9999999999999997e-05,-2e-05,4
16509,17095,2e-05,2.9999999999999997e-05,0.00011,0.00062,0.00037,-0.00033999999999999997,-2.9999999999999997e-05,-2e-05,4
16510,17096,2e-05,2.9999999999999997e-05,0.00011,0.00062,0.00037,-0.00033999999999999997,-2.9999999999999997e-05,-2e-05,4
16511,17097,2e-05,2.9999999999999997e-05,0.00011,0.00062,0.00037,-0.00033999999999999997,-2.9999999999999997e-05,-2e-05,4
16512,17098,2e-05,2.9999999999999997e-05,0.00011,0.00062,0.00037,-0.00033999999999999997,-2.9999999999999997e-05,-2e-05,4
16513,17099,2e-05,2.9999999999999997e-05,0.00011,0.00062,0.00037,-0.00033999999999999997,-2.9999999999999997e-05,-2e-05,4
16514,17100,2e-05,2.9999999999999997e-05,0.00011,0.00062,0.00037,-0.00033999999999999997,-2.9999999999999997e-05,-2e-05,4
16515,17101,2e-05,2.9999999999999997e-05,0.00011,0.00062,0.00037,-0.00033999999999999997,-2.9999999999999997e-05,-2e-05,4
16516,17102,2e-05,2.9999999999999997e-05,0.00011,0.00062,0.00037,-0.00033999999999999997,-2.9999999999999997e-05,-2e-05,4
16517,17103,2e-05,2.9999999999999997e-05,0.00011,0.00062,0.00037,-0.00033999999999999997,-2.9999999999999997e-05,-2e-05,4
16518,17104,2e-05,2.9999999999999997e-05,0.00011,0.00062,0.00037,-0.00033999999999999997,-2.9999999999999997e-05,-2e-05,4
16519,17105,2e-05,2.9999999999999997e-05,0.00011,0.00062,0.00037,-0.00033999999999999997,-2.9999999999999997e-05,-2e-05,4
16520,17106,2e-05,2.9999999999999997e-05,0.00011,0.00062,0.00037,-0.00033999999999999997,-2.9999999999999997e-05,-2e-05,4
16521,17107,2e-05,2.9999999999999997e-05,0.00011,0.00062,0.00037,-0.00033999999999999997,-2.9999999999999997e-05,-2e-05,4
16522,17108,2e-05,2.9999999999999997e-05,0.00011,0.00062,0.00037,-0.00033999999999999997,-2.9999999999999997e-05,-2e-05,4
16523,17109,2e-05,2.9999999999999997e-05,0.00011,0.00062,0.00037,-0.00033999999999999997,-2.9999999999999997e-05,-2e-05,4
16524,17110,2e-05,2.9999999999999997e-05,0.00011,0.00062,0.00037,-0.00033999999999999997,-2.9999999999999997e-05,-2e-05,4
16525,17111,2e-05,2.9999999999999997e-05,0.00011,0.00062,0.00037,-0.00033999999999999997,-2.9999999999999997e-05,-2e-05,4
16526,17112,2e-05,2.9999999999999997e-05,0.00011,0.00062,0.00037,-0.00033999999999999997,-2.9999999999999997e-05,-2e-05,4
16527,17113,2e-05,2.9999999999999997e-05,0.00011,0.00062,0.00037,-0.00033999999999999997,-2.9999999999999997e-05,-2e-05,4
16528,17114,2e-05,2.9999999999999997e-05,0.00011,0.00062,0.00037,-0.00033999999999999997,-2.9999999999999997e-05,-2e-05,4
16529,17115,2e-05,2.9999999999999997e-05,0.00011,0.00062,0.00037,-0.00033999999999999997,-2.9999999999999997e-05,-2e-05,4
16530,17116,2e-05,2.9999999999999997e-05,0.00011,0.00062,0.00037,-0.00033999999999999997,-2.9999999999999997e-05,-2e-05,4
16531,17117,2e-05,2.9999999999999997e-05,0.00011,0.00062,0.00037,-0.00033999999999999997,-2.9999999999999997e-05,-2e-05,4
16532,17118,2e-05,2.9999999999999997e-05,0.00011,0.00062,0.00037,-0.00033999999999999997,-2.9999999999999997e-05,-2e-05,4
16533,17119,2e-05,2.9999999999999997e-05,0.00011,0.00062,0.00037,-0.00033999999999999997,-2.9999999999999997e-05,-2e-05,4
16534,17120,2e-05,2.9999999999999997e-05,0.00011,0.00062,0.00037,-0.00033999999999999997,-2.9999999999999997e-05,-2e-05,4
16535,17121,2e-05,2.9999999999999997e-05,0.00011,0.00062,0.00037,-0.00033999999999999997,-2.9999999999999997e-05,-2e-05,4
16536,17122,2e-05,2.9999999999999997e-05,0.00011,0.00062,0.00037,-0.00033999999999999997,-2.9999999999999997e-05,-2e-05,4
16537,17123,2e-05,2.9999999999999997e-05,0.00011,0.00062,0.00037,-0.00033999999999999997,-2.9999999999999997e-05,-2e-05,4
16538,17124,2.9999999999999997e-05,0.0,0.0001,0.00033,0.00074,2.9999999999999997e-05,2.9999999999999997e-05,-1e-05,4
16539,17125,2.9999999999999997e-05,0.0,0.0001,0.00033,0.00074,2.9999999999999997e-05,2.9999999999999997e-05,-1e-05,4
16540,17126,-2e-05,-2.9999999999999997e-05,1e-05,-0.00015,-0.00025,0.00042,2e-05,-1e-05,4
16541,17127,4e-05,4e-05,8e-05,-0.0001,0.00016999999999999999,-2.9999999999999997e-05,5.9999999999999995e-05,4e-05,4
16542,17128,4e-05,4e-05,8e-05,-0.0001,0.00016999999999999999,-2.9999999999999997e-05,5.9999999999999995e-05,4e-05,4
16543,17129,4e-05,4e-05,8e-05,-0.0001,0.00016999999999999999,-2.9999999999999997e-05,5.9999999999999995e-05,4e-05,4
16544,17130,0.0,1e-05,2e-05,7e-05,-0.0001,-0.0001,7e-05,2.9999999999999997e-05,4
16545,17131,-2.9999999999999997e-05,-9e-05,-0.00011999999999999999,-7e-05,0.00043,-0.00013000000000000002,-9e-05,-4e-05,4
16546,17132,-2.9999999999999997e-05,-9e-05,-0.00011999999999999999,-7e-05,0.00043,-0.00013000000000000002,-9e-05,-4e-05,4
16547,17133,-2.9999999999999997e-05,-9e-05,-0.00011999999999999999,-7e-05,0.00043,-0.00013000000000000002,-9e-05,-4e-05,4
16548,17134,-2.9999999999999997e-05,-9e-05,-0.00011999999999999999,-7e-05,0.00043,-0.00013000000000000002,-9e-05,-4e-05,4
16549,17135,-2.9999999999999997e-05,-9e-05,-0.00011999999999999999,-7e-05,0.00043,-0.00013000000000000002,-9e-05,-4e-05,4
16550,17136,-2.9999999999999997e-05,-9e-05,-0.00011999999999999999,-7e-05,0.00043,-0.00013000000000000002,-9e-05,-4e-05,4
16551,17139,-2.9999999999999997e-05,-9e-05,-0.00011999999999999999,-7e-05,0.00043,-0.00013000000000000002,-9e-05,-4e-05,4
16552,17140,-2.9999999999999997e-05,-9e-05,-0.00011999999999999999,-7e-05,0.00043,-0.00013000000000000002,-9e-05,-4e-05,4
16553,17141,-2.9999999999999997e-05,-9e-05,-0.00011999999999999999,-7e-05,0.00043,-0.00013000000000000002,-9e-05,-4e-05,4
16554,17142,-2.9999999999999997e-05,-9e-05,-0.00011999999999999999,-7e-05,0.00043,-0.00013000000000000002,-9e-05,-4e-05,4
16555,17143,-2.9999999999999997e-05,-9e-05,-0.00011999999999999999,-7e-05,0.00043,-0.00013000000000000002,-9e-05,-4e-05,4
16556,17144,-2.9999999999999997e-05,-9e-05,-0.00011999999999999999,-7e-05,0.00043,-0.00013000000000000002,-9e-05,-4e-05,4
16557,17145,-2.9999999999999997e-05,-9e-05,-0.00011999999999999999,-7e-05,0.00043,-0.00013000000000000002,-9e-05,-4e-05,4
16558,17146,0.0,2.9999999999999997e-05,2.9999999999999997e-05,8e-05,0.00016,2.9999999999999997e-05,-8e-05,-2.9999999999999997e-05,4
16559,17147,0.0,2.9999999999999997e-05,2.9999999999999997e-05,8e-05,0.00016,2.9999999999999997e-05,-8e-05,-2.9999999999999997e-05,4
16560,17148,4e-05,5e-05,8e-05,9e-05,-0.00021,0.00022999999999999998,0.00013000000000000002,2.9999999999999997e-05,4
16561,17149,4e-05,5e-05,8e-05,9e-05,-0.00021,0.00022999999999999998,0.00013000000000000002,2.9999999999999997e-05,4
16562,17150,4e-05,5e-05,8e-05,9e-05,-0.00021,0.00022999999999999998,0.00013000000000000002,2.9999999999999997e-05,4
16563,17151,4e-05,5e-05,8e-05,9e-05,-0.00021,0.00022999999999999998,0.00013000000000000002,2.9999999999999997e-05,4
16564,17152,4e-05,5e-05,8e-05,9e-05,-0.00021,0.00022999999999999998,0.00013000000000000002,2.9999999999999997e-05,4
16565,17153,4e-05,5e-05,8e-05,9e-05,-0.00021,0.00022999999999999998,0.00013000000000000002,2.9999999999999997e-05,4
16566,17154,4e-05,5e-05,8e-05,9e-05,-0.00021,0.00022999999999999998,0.00013000000000000002,2.9999999999999997e-05,4
16567,17155,4e-05,5e-05,8e-05,9e-05,-0.00021,0.00022999999999999998,0.00013000000000000002,2.9999999999999997e-05,4
16568,17156,4e-05,5e-05,8e-05,9e-05,-0.00021,0.00022999999999999998,0.00013000000000000002,2.9999999999999997e-05,4
16569,17157,4e-05,5e-05,8e-05,9e-05,-0.00021,0.00022999999999999998,0.00013000000000000002,2.9999999999999997e-05,4
16570,17158,4e-05,5e-05,8e-05,9e-05,-0.00021,0.00022999999999999998,0.00013000000000000002,2.9999999999999997e-05,4
16571,17159,4e-05,5e-05,8e-05,9e-05,-0.00021,0.00022999999999999998,0.00013000000000000002,2.9999999999999997e-05,4
16572,17160,4e-05,5e-05,8e-05,9e-05,-0.00021,0.00022999999999999998,0.00013000000000000002,2.9999999999999997e-05,4
16573,17161,4e-05,5e-05,8e-05,9e-05,-0.00021,0.00022999999999999998,0.00013000000000000002,2.9999999999999997e-05,4
16574,17162,4e-05,5e-05,8e-05,9e-05,-0.00021,0.00022999999999999998,0.00013000000000000002,2.9999999999999997e-05,4
16575,17163,4e-05,5e-05,8e-05,9e-05,-0.00021,0.00022999999999999998,0.00013000000000000002,2.9999999999999997e-05,4
16576,17164,4e-05,5e-05,8e-05,9e-05,-0.00021,0.00022999999999999998,0.00013000000000000002,2.9999999999999997e-05,4
16577,17165,4e-05,5e-05,8e-05,9e-05,-0.00021,0.00022999999999999998,0.00013000000000000002,2.9999999999999997e-05,4
16578,17166,4e-05,5e-05,8e-05,9e-05,-0.00021,0.00022999999999999998,0.00013000000000000002,2.9999999999999997e-05,4
16579,17167,4e-05,5e-05,8e-05,9e-05,-0.00021,0.00022999999999999998,0.00013000000000000002,2.9999999999999997e-05,4
16580,17168,-2.9999999999999997e-05,-4e-05,-5e-05,0.0,4e-05,-0.00025,-8e-05,-4e-05,4
16581,17169,-2.9999999999999997e-05,-2.9999999999999997e-05,-5.9999999999999995e-05,1e-05,0.0001,-0.00036,-0.00011,-2.9999999999999997e-05,4
16582,17170,-2.9999999999999997e-05,-2.9999999999999997e-05,-5.9999999999999995e-05,1e-05,0.0001,-0.00036,-0.00011,-2.9999999999999997e-05,4
16583,17171,-2e-05,-4e-05,-4e-05,0.00011999999999999999,0.00045,7e-05,-2e-05,-2e-05,4
16584,17172,-2e-05,-4e-05,-4e-05,0.00011999999999999999,0.00045,7e-05,-2e-05,-2e-05,4
16585,17173,-2e-05,-4e-05,-4e-05,0.00011999999999999999,0.00045,7e-05,-2e-05,-2e-05,4
16586,17174,-2e-05,-4e-05,-4e-05,0.00011999999999999999,0.00045,7e-05,-2e-05,-2e-05,4
16587,17175,-2e-05,-4e-05,-4e-05,0.00011999999999999999,0.00045,7e-05,-2e-05,-2e-05,4
16588,17176,-2e-05,-4e-05,-4e-05,0.00011999999999999999,0.00045,7e-05,-2e-05,-2e-05,4
16589,17177,-2e-05,-4e-05,-4e-05,0.00011999999999999999,0.00045,7e-05,-2e-05,-2e-05,4
16590,17178,-2e-05,-4e-05,-4e-05,0.00011999999999999999,0.00045,7e-05,-2e-05,-2e-05,4
16591,17179,-2e-05,-4e-05,-4e-05,0.00011999999999999999,0.00045,7e-05,-2e-05,-2e-05,4
16592,17180,-2e-05,-4e-05,-4e-05,0.00011999999999999999,0.00045,7e-05,-2e-05,-2e-05,4
16593,17181,-2e-05,-4e-05,-4e-05,0.00011999999999999999,0.00045,7e-05,-2e-05,-2e-05,4
16594,17182,5.9999999999999995e-05,0.00011999999999999999,9e-05,-0.00023999999999999998,-0.0007099999999999999,-4e-05,7e-05,8e-05,4
16595,17183,5.9999999999999995e-05,0.00011999999999999999,9e-05,-0.00023999999999999998,-0.0007099999999999999,-4e-05,7e-05,8e-05,4
16596,17184,5.9999999999999995e-05,0.00011999999999999999,9e-05,-0.00023999999999999998,-0.0007099999999999999,-4e-05,7e-05,8e-05,4
16597,17185,5.9999999999999995e-05,0.00011999999999999999,9e-05,-0.00023999999999999998,-0.0007099999999999999,-4e-05,7e-05,8e-05,4
16598,17186,5.9999999999999995e-05,0.00011999999999999999,9e-05,-0.00023999999999999998,-0.0007099999999999999,-4e-05,7e-05,8e-05,4
16599,17188,5.9999999999999995e-05,0.00011999999999999999,9e-05,-0.00023999999999999998,-0.0007099999999999999,-4e-05,7e-05,8e-05,4
16600,17189,5.9999999999999995e-05,0.00011999999999999999,9e-05,-0.00023999999999999998,-0.0007099999999999999,-4e-05,7e-05,8e-05,4
16601,17190,5.9999999999999995e-05,0.00011999999999999999,9e-05,-0.00023999999999999998,-0.0007099999999999999,-4e-05,7e-05,8e-05,4
16602,17191,-2.9999999999999997e-05,-7e-05,-4e-05,2e-05,0.00042,0.00047999999999999996,4e-05,-1e-05,4
16603,17192,-2.9999999999999997e-05,-7e-05,-4e-05,2e-05,0.00042,0.00047999999999999996,4e-05,-1e-05,4
16604,17193,-2.9999999999999997e-05,-7e-05,-4e-05,2e-05,0.00042,0.00047999999999999996,4e-05,-1e-05,4
16605,17194,-2.9999999999999997e-05,-7e-05,-4e-05,2e-05,0.00042,0.00047999999999999996,4e-05,-1e-05,4
16606,17195,-2.9999999999999997e-05,-7e-05,-4e-05,2e-05,0.00042,0.00047999999999999996,4e-05,-1e-05,4
16607,17196,-2.9999999999999997e-05,-7e-05,-4e-05,2e-05,0.00042,0.00047999999999999996,4e-05,-1e-05,4
16608,17197,-2.9999999999999997e-05,-7e-05,-4e-05,2e-05,0.00042,0.00047999999999999996,4e-05,-1e-05,4
16609,17198,-2.9999999999999997e-05,-7e-05,-4e-05,2e-05,0.00042,0.00047999999999999996,4e-05,-1e-05,4
16610,17199,-2.9999999999999997e-05,-7e-05,-4e-05,2e-05,0.00042,0.00047999999999999996,4e-05,-1e-05,4
16611,17200,-2.9999999999999997e-05,-7e-05,-4e-05,2e-05,0.00042,0.00047999999999999996,4e-05,-1e-05,4
16612,17201,-2.9999999999999997e-05,-7e-05,-4e-05,2e-05,0.00042,0.00047999999999999996,4e-05,-1e-05,4
16613,17202,-2.9999999999999997e-05,-7e-05,-4e-05,2e-05,0.00042,0.00047999999999999996,4e-05,-1e-05,4
16614,17203,-2.9999999999999997e-05,-7e-05,-4e-05,2e-05,0.00042,0.00047999999999999996,4e-05,-1e-05,4
16615,17204,-2.9999999999999997e-05,-7e-05,-4e-05,2e-05,0.00042,0.00047999999999999996,4e-05,-1e-05,4
16616,17205,-2.9999999999999997e-05,-7e-05,-4e-05,2e-05,0.00042,0.00047999999999999996,4e-05,-1e-05,4
16617,17206,-2.9999999999999997e-05,-7e-05,-4e-05,2e-05,0.00042,0.00047999999999999996,4e-05,-1e-05,4
16618,17207,0.0,2.9999999999999997e-05,4e-05,0.00013000000000000002,4e-05,-2e-05,5.9999999999999995e-05,0.0,4
16619,17208,0.0,2e-05,2.9999999999999997e-05,0.0,-0.0002,8e-05,-2e-05,0.0,4
16620,17209,0.0,2e-05,2.9999999999999997e-05,0.0,-0.0002,8e-05,-2e-05,0.0,4
16621,17210,0.0,2e-05,2.9999999999999997e-05,0.0,-0.0002,8e-05,-2e-05,0.0,4
16622,17211,0.0,2e-05,2.9999999999999997e-05,0.0,-0.0002,8e-05,-2e-05,0.0,4
16623,17212,0.0,2e-05,2.9999999999999997e-05,0.0,-0.0002,8e-05,-2e-05,0.0,4
16624,17213,0.0,2e-05,2.9999999999999997e-05,0.0,-0.0002,8e-05,-2e-05,0.0,4
16625,17214,0.0,2e-05,2.9999999999999997e-05,0.0,-0.0002,8e-05,-2e-05,0.0,4
16626,17215,0.0,2e-05,2.9999999999999997e-05,0.0,-0.0002,8e-05,-2e-05,0.0,4
16627,17216,0.0,2e-05,2.9999999999999997e-05,0.0,-0.0002,8e-05,-2e-05,0.0,4
16628,17217,0.0,2e-05,2.9999999999999997e-05,0.0,-0.0002,8e-05,-2e-05,0.0,4
16629,17218,0.0,2e-05,2.9999999999999997e-05,0.0,-0.0002,8e-05,-2e-05,0.0,4
16630,17219,0.0,2e-05,2.9999999999999997e-05,0.0,-0.0002,8e-05,-2e-05,0.0,4
16631,17220,0.0,2e-05,2.9999999999999997e-05,0.0,-0.0002,8e-05,-2e-05,0.0,4
16632,17221,0.0,2e-05,2.9999999999999997e-05,0.0,-0.0002,8e-05,-2e-05,0.0,4
16633,17222,0.0,2e-05,2.9999999999999997e-05,0.0,-0.0002,8e-05,-2e-05,0.0,4
16634,17223,0.0,2e-05,2.9999999999999997e-05,0.0,-0.0002,8e-05,-2e-05,0.0,4
16635,17224,0.0,2e-05,2.9999999999999997e-05,0.0,-0.0002,8e-05,-2e-05,0.0,4
16636,17225,0.0,2e-05,2.9999999999999997e-05,0.0,-0.0002,8e-05,-2e-05,0.0,4
16637,17226,0.0,2e-05,2.9999999999999997e-05,0.0,-0.0002,8e-05,-2e-05,0.0,4
16638,17227,0.0,2e-05,2.9999999999999997e-05,0.0,-0.0002,8e-05,-2e-05,0.0,4
16639,17228,-4e-05,-1e-05,5.9999999999999995e-05,1e-05,-0.00013000000000000002,0.0,2.9999999999999997e-05,0.0,4
16640,17229,-2.9999999999999997e-05,-7e-05,-7e-05,0.0001,8e-05,0.00039,8e-05,0.0,4
16641,17230,0.0,0.0,-5.9999999999999995e-05,-0.00035,0.0,-0.00022,-1e-05,2e-05,4
16642,17231,0.0,0.0,-5.9999999999999995e-05,-0.00035,0.0,-0.00022,-1e-05,2e-05,4
16643,17232,0.0,0.0,-5.9999999999999995e-05,-0.00035,0.0,-0.00022,-1e-05,2e-05,4
16644,17233,0.0,0.0,-5.9999999999999995e-05,-0.00035,0.0,-0.00022,-1e-05,2e-05,4
16645,17234,0.0,0.0,-5.9999999999999995e-05,-0.00035,0.0,-0.00022,-1e-05,2e-05,4
16646,17235,0.0,0.0,-5.9999999999999995e-05,-0.00035,0.0,-0.00022,-1e-05,2e-05,4
16647,17236,0.0,0.0,-5.9999999999999995e-05,-0.00035,0.0,-0.00022,-1e-05,2e-05,4
16648,17238,0.0,0.0,-5.9999999999999995e-05,-0.00035,0.0,-0.00022,-1e-05,2e-05,4
16649,17239,0.0,0.0,-5.9999999999999995e-05,-0.00035,0.0,-0.00022,-1e-05,2e-05,4
16650,17240,0.0,0.0,-5.9999999999999995e-05,-0.00035,0.0,-0.00022,-1e-05,2e-05,4
16651,17241,0.0,0.0,-5.9999999999999995e-05,-0.00035,0.0,-0.00022,-1e-05,2e-05,4
16652,17242,-4e-05,-4e-05,-0.00011,-4e-05,-0.00022999999999999998,-0.0001,-9e-05,-5.9999999999999995e-05,4
16653,17243,-4e-05,-4e-05,-0.00011,-4e-05,-0.00022999999999999998,-0.0001,-9e-05,-5.9999999999999995e-05,4
16654,17244,-4e-05,-4e-05,-0.00011,-4e-05,-0.00022999999999999998,-0.0001,-9e-05,-5.9999999999999995e-05,4
16655,17245,-4e-05,-4e-05,-0.00011,-4e-05,-0.00022999999999999998,-0.0001,-9e-05,-5.9999999999999995e-05,4
16656,17246,-4e-05,-4e-05,-0.00011,-4e-05,-0.00022999999999999998,-0.0001,-9e-05,-5.9999999999999995e-05,4
16657,17247,-4e-05,-4e-05,-0.00011,-4e-05,-0.00022999999999999998,-0.0001,-9e-05,-5.9999999999999995e-05,4
16658,17248,-4e-05,-4e-05,-0.00011,-4e-05,-0.00022999999999999998,-0.0001,-9e-05,-5.9999999999999995e-05,4
16659,17249,-4e-05,-4e-05,-0.00011,-4e-05,-0.00022999999999999998,-0.0001,-9e-05,-5.9999999999999995e-05,4
16660,17250,-4e-05,-4e-05,-0.00011,-4e-05,-0.00022999999999999998,-0.0001,-9e-05,-5.9999999999999995e-05,4
16661,17251,2e-05,7e-05,8e-05,-2.9999999999999997e-05,-0.0005099999999999999,0.0,4e-05,4e-05,4
16662,17252,2e-05,7e-05,8e-05,-2.9999999999999997e-05,-0.0005099999999999999,0.0,4e-05,4e-05,4
16663,17253,2e-05,7e-05,8e-05,-2.9999999999999997e-05,-0.0005099999999999999,0.0,4e-05,4e-05,4
16664,17254,2e-05,7e-05,8e-05,-2.9999999999999997e-05,-0.0005099999999999999,0.0,4e-05,4e-05,4
16665,17255,2e-05,7e-05,8e-05,-2.9999999999999997e-05,-0.0005099999999999999,0.0,4e-05,4e-05,4
16666,17256,2e-05,7e-05,8e-05,-2.9999999999999997e-05,-0.0005099999999999999,0.0,4e-05,4e-05,4
16667,17257,2e-05,7e-05,8e-05,-2.9999999999999997e-05,-0.0005099999999999999,0.0,4e-05,4e-05,4
16668,17258,2e-05,7e-05,8e-05,-2.9999999999999997e-05,-0.0005099999999999999,0.0,4e-05,4e-05,4
16669,17259,2e-05,7e-05,8e-05,-2.9999999999999997e-05,-0.0005099999999999999,0.0,4e-05,4e-05,4
16670,17260,2e-05,7e-05,8e-05,-2.9999999999999997e-05,-0.0005099999999999999,0.0,4e-05,4e-05,4
16671,17261,2e-05,7e-05,8e-05,-2.9999999999999997e-05,-0.0005099999999999999,0.0,4e-05,4e-05,4
16672,17262,2e-05,7e-05,8e-05,-2.9999999999999997e-05,-0.0005099999999999999,0.0,4e-05,4e-05,4
16673,17263,2e-05,7e-05,8e-05,-2.9999999999999997e-05,-0.0005099999999999999,0.0,4e-05,4e-05,4
16674,17264,2e-05,7e-05,8e-05,-2.9999999999999997e-05,-0.0005099999999999999,0.0,4e-05,4e-05,4
16675,17265,2e-05,7e-05,8e-05,-2.9999999999999997e-05,-0.0005099999999999999,0.0,4e-05,4e-05,4
16676,17266,4e-05,4e-05,1e-05,0.00014,0.0005,-0.00011,5e-05,5.9999999999999995e-05,4
16677,17267,-2e-05,-2.9999999999999997e-05,-5.9999999999999995e-05,-0.00018999999999999998,-0.00053,-0.00042,-7e-05,-4e-05,4
16678,17268,-2.9999999999999997e-05,0.0,4e-05,0.00014,0.00023999999999999998,-9e-05,-0.00011999999999999999,-7e-05,4
16679,17269,-2.9999999999999997e-05,0.0,4e-05,0.00014,0.00023999999999999998,-9e-05,-0.00011999999999999999,-7e-05,4
16680,17270,-2.9999999999999997e-05,0.0,4e-05,0.00014,0.00023999999999999998,-9e-05,-0.00011999999999999999,-7e-05,4
16681,17271,-2.9999999999999997e-05,0.0,4e-05,0.00014,0.00023999999999999998,-9e-05,-0.00011999999999999999,-7e-05,4
16682,17272,-2.9999999999999997e-05,0.0,4e-05,0.00014,0.00023999999999999998,-9e-05,-0.00011999999999999999,-7e-05,4
16683,17273,-2.9999999999999997e-05,0.0,4e-05,0.00014,0.00023999999999999998,-9e-05,-0.00011999999999999999,-7e-05,4
16684,17274,-2.9999999999999997e-05,0.0,4e-05,0.00014,0.00023999999999999998,-9e-05,-0.00011999999999999999,-7e-05,4
16685,17275,-2.9999999999999997e-05,0.0,4e-05,0.00014,0.00023999999999999998,-9e-05,-0.00011999999999999999,-7e-05,4
16686,17276,-2.9999999999999997e-05,0.0,4e-05,0.00014,0.00023999999999999998,-9e-05,-0.00011999999999999999,-7e-05,4
16687,17277,-2.9999999999999997e-05,0.0,4e-05,0.00014,0.00023999999999999998,-9e-05,-0.00011999999999999999,-7e-05,4
16688,17278,-2.9999999999999997e-05,0.0,4e-05,0.00014,0.00023999999999999998,-9e-05,-0.00011999999999999999,-7e-05,4
16689,17279,-2.9999999999999997e-05,0.0,4e-05,0.00014,0.00023999999999999998,-9e-05,-0.00011999999999999999,-7e-05,4
16690,17280,-2.9999999999999997e-05,0.0,4e-05,0.00014,0.00023999999999999998,-9e-05,-0.00011999999999999999,-7e-05,4
16691,17281,-2.9999999999999997e-05,0.0,4e-05,0.00014,0.00023999999999999998,-9e-05,-0.00011999999999999999,-7e-05,4
16692,17282,-2.9999999999999997e-05,0.0,4e-05,0.00014,0.00023999999999999998,-9e-05,-0.00011999999999999999,-7e-05,4
16693,17283,-2.9999999999999997e-05,0.0,4e-05,0.00014,0.00023999999999999998,-9e-05,-0.00011999999999999999,-7e-05,4
16694,17284,-2.9999999999999997e-05,0.0,4e-05,0.00014,0.00023999999999999998,-9e-05,-0.00011999999999999999,-7e-05,4
16695,17285,-2.9999999999999997e-05,0.0,4e-05,0.00014,0.00023999999999999998,-9e-05,-0.00011999999999999999,-7e-05,4
16696,17286,-2.9999999999999997e-05,0.0,4e-05,0.00014,0.00023999999999999998,-9e-05,-0.00011999999999999999,-7e-05,4
16697,17288,-1e-05,-1e-05,-2e-05,-2e-05,-0.00026000000000000003,-7e-05,-1e-05,-2e-05,4
16698,17289,2e-05,-2e-05,-1e-05,2e-05,0.00025,0.00022,5.9999999999999995e-05,2e-05,4
16699,17291,-2.9999999999999997e-05,-5.9999999999999995e-05,-0.00011,-1e-05,0.00022999999999999998,-0.0001,-4e-05,-5.9999999999999995e-05,4
16700,17292,-2.9999999999999997e-05,-5.9999999999999995e-05,-0.00011,-1e-05,0.00022999999999999998,-0.0001,-4e-05,-5.9999999999999995e-05,4
16701,17293,-2.9999999999999997e-05,-5.9999999999999995e-05,-0.00011,-1e-05,0.00022999999999999998,-0.0001,-4e-05,-5.9999999999999995e-05,4
16702,17294,-2.9999999999999997e-05,-5.9999999999999995e-05,-0.00011,-1e-05,0.00022999999999999998,-0.0001,-4e-05,-5.9999999999999995e-05,4
16703,17295,-2.9999999999999997e-05,-5.9999999999999995e-05,-0.00011,-1e-05,0.00022999999999999998,-0.0001,-4e-05,-5.9999999999999995e-05,4
16704,17296,-2.9999999999999997e-05,-5.9999999999999995e-05,-0.00011,-1e-05,0.00022999999999999998,-0.0001,-4e-05,-5.9999999999999995e-05,4
16705,17297,-2.9999999999999997e-05,-5.9999999999999995e-05,-0.00011,-1e-05,0.00022999999999999998,-0.0001,-4e-05,-5.9999999999999995e-05,4
16706,17298,-2.9999999999999997e-05,-5.9999999999999995e-05,-0.00011,-1e-05,0.00022999999999999998,-0.0001,-4e-05,-5.9999999999999995e-05,4
16707,17299,-2.9999999999999997e-05,-5.9999999999999995e-05,-0.00011,-1e-05,0.00022999999999999998,-0.0001,-4e-05,-5.9999999999999995e-05,4
16708,17300,-2.9999999999999997e-05,-5.9999999999999995e-05,-0.00011,-1e-05,0.00022999999999999998,-0.0001,-4e-05,-5.9999999999999995e-05,4
16709,17301,-2.9999999999999997e-05,-5.9999999999999995e-05,-0.00011,-1e-05,0.00022999999999999998,-0.0001,-4e-05,-5.9999999999999995e-05,4
16710,17302,-2.9999999999999997e-05,-2e-05,2.9999999999999997e-05,0.00011999999999999999,0.00011,-0.00028,-5e-05,-5e-05,4
16711,17303,-2.9999999999999997e-05,-2e-05,2.9999999999999997e-05,0.00011999999999999999,0.00011,-0.00028,-5e-05,-5e-05,4
16712,17304,-2.9999999999999997e-05,-2e-05,2.9999999999999997e-05,0.00011999999999999999,0.00011,-0.00028,-5e-05,-5e-05,4
16713,17305,-2.9999999999999997e-05,-2e-05,2.9999999999999997e-05,0.00011999999999999999,0.00011,-0.00028,-5e-05,-5e-05,4
16714,17306,-2.9999999999999997e-05,-2e-05,2.9999999999999997e-05,0.00011999999999999999,0.00011,-0.00028,-5e-05,-5e-05,4
16715,17307,-2.9999999999999997e-05,-2e-05,2.9999999999999997e-05,0.00011999999999999999,0.00011,-0.00028,-5e-05,-5e-05,4
16716,17308,-2.9999999999999997e-05,-2e-05,2.9999999999999997e-05,0.00011999999999999999,0.00011,-0.00028,-5e-05,-5e-05,4
16717,17309,-2.9999999999999997e-05,-2e-05,2.9999999999999997e-05,0.00011999999999999999,0.00011,-0.00028,-5e-05,-5e-05,4
16718,17310,-2.9999999999999997e-05,-2e-05,2.9999999999999997e-05,0.00011999999999999999,0.00011,-0.00028,-5e-05,-5e-05,4
16719,17311,-1e-05,-4e-05,-2.9999999999999997e-05,4e-05,-9e-05,0.00016999999999999999,-5e-05,-5e-05,4
16720,17312,-1e-05,-4e-05,-2.9999999999999997e-05,4e-05,-9e-05,0.00016999999999999999,-5e-05,-5e-05,4
16721,17313,-1e-05,-4e-05,-2.9999999999999997e-05,4e-05,-9e-05,0.00016999999999999999,-5e-05,-5e-05,4
16722,17314,-1e-05,-4e-05,-2.9999999999999997e-05,4e-05,-9e-05,0.00016999999999999999,-5e-05,-5e-05,4
16723,17315,-1e-05,-4e-05,-2.9999999999999997e-05,4e-05,-9e-05,0.00016999999999999999,-5e-05,-5e-05,4
16724,17316,-1e-05,-4e-05,-2.9999999999999997e-05,4e-05,-9e-05,0.00016999999999999999,-5e-05,-5e-05,4
16725,17317,-1e-05,-4e-05,-2.9999999999999997e-05,4e-05,-9e-05,0.00016999999999999999,-5e-05,-5e-05,4
16726,17318,-1e-05,-4e-05,-2.9999999999999997e-05,4e-05,-9e-05,0.00016999999999999999,-5e-05,-5e-05,4
16727,17319,-1e-05,-4e-05,-2.9999999999999997e-05,4e-05,-9e-05,0.00016999999999999999,-5e-05,-5e-05,4
16728,17320,-1e-05,-4e-05,-2.9999999999999997e-05,4e-05,-9e-05,0.00016999999999999999,-5e-05,-5e-05,4
16729,17321,-1e-05,-4e-05,-2.9999999999999997e-05,4e-05,-9e-05,0.00016999999999999999,-5e-05,-5e-05,4
16730,17322,-1e-05,-4e-05,-2.9999999999999997e-05,4e-05,-9e-05,0.00016999999999999999,-5e-05,-5e-05,4
16731,17323,-1e-05,-4e-05,-2.9999999999999997e-05,4e-05,-9e-05,0.00016999999999999999,-5e-05,-5e-05,4
16732,17324,-1e-05,-4e-05,-2.9999999999999997e-05,4e-05,-9e-05,0.00016999999999999999,-5e-05,-5e-05,4
16733,17325,-1e-05,-4e-05,-2.9999999999999997e-05,4e-05,-9e-05,0.00016999999999999999,-5e-05,-5e-05,4
16734,17326,-5e-05,-5.9999999999999995e-05,-2e-05,-2.9999999999999997e-05,0.0001,-2e-05,-7e-05,-5.9999999999999995e-05,4
16735,17327,-5e-05,-5.9999999999999995e-05,-2e-05,-2.9999999999999997e-05,0.0001,-2e-05,-7e-05,-5.9999999999999995e-05,4
16736,17328,-2e-05,-5e-05,-0.0001,5e-05,-0.00011999999999999999,-1e-05,1e-05,2.9999999999999997e-05,4
16737,17329,-2e-05,-5e-05,-0.0001,5e-05,-0.00011999999999999999,-1e-05,1e-05,2.9999999999999997e-05,4
16738,17330,-2e-05,-5e-05,-0.0001,5e-05,-0.00011999999999999999,-1e-05,1e-05,2.9999999999999997e-05,4
16739,17331,-2e-05,-5e-05,-0.0001,5e-05,-0.00011999999999999999,-1e-05,1e-05,2.9999999999999997e-05,4
16740,17332,-2e-05,-5e-05,-0.0001,5e-05,-0.00011999999999999999,-1e-05,1e-05,2.9999999999999997e-05,4
16741,17333,-2e-05,-5e-05,-0.0001,5e-05,-0.00011999999999999999,-1e-05,1e-05,2.9999999999999997e-05,4
16742,17334,-2e-05,-5e-05,-0.0001,5e-05,-0.00011999999999999999,-1e-05,1e-05,2.9999999999999997e-05,4
16743,17335,-2e-05,-5e-05,-0.0001,5e-05,-0.00011999999999999999,-1e-05,1e-05,2.9999999999999997e-05,4
16744,17336,-2e-05,-5e-05,-0.0001,5e-05,-0.00011999999999999999,-1e-05,1e-05,2.9999999999999997e-05,4
16745,17338,-2e-05,-5e-05,-0.0001,5e-05,-0.00011999999999999999,-1e-05,1e-05,2.9999999999999997e-05,4
16746,17339,-2e-05,-5e-05,-0.0001,5e-05,-0.00011999999999999999,-1e-05,1e-05,2.9999999999999997e-05,4
16747,17340,-2e-05,-5e-05,-0.0001,5e-05,-0.00011999999999999999,-1e-05,1e-05,2.9999999999999997e-05,4
16748,17341,-2e-05,-5e-05,-0.0001,5e-05,-0.00011999999999999999,-1e-05,1e-05,2.9999999999999997e-05,4
16749,17342,-2e-05,-5e-05,-0.0001,5e-05,-0.00011999999999999999,-1e-05,1e-05,2.9999999999999997e-05,4
16750,17343,-2e-05,-5e-05,-0.0001,5e-05,-0.00011999999999999999,-1e-05,1e-05,2.9999999999999997e-05,4
16751,17344,-2e-05,-5e-05,-0.0001,5e-05,-0.00011999999999999999,-1e-05,1e-05,2.9999999999999997e-05,4
16752,17345,-2e-05,-5e-05,-0.0001,5e-05,-0.00011999999999999999,-1e-05,1e-05,2.9999999999999997e-05,4
16753,17346,-2e-05,-5e-05,-0.0001,5e-05,-0.00011999999999999999,-1e-05,1e-05,2.9999999999999997e-05,4
16754,17347,-2e-05,-5e-05,-0.0001,5e-05,-0.00011999999999999999,-1e-05,1e-05,2.9999999999999997e-05,4
16755,17348,-1e-05,-5e-05,-2e-05,2.9999999999999997e-05,-8e-05,-4e-05,-7e-05,-5.9999999999999995e-05,4
16756,17349,-1e-05,-5e-05,-2e-05,2.9999999999999997e-05,-8e-05,-4e-05,-7e-05,-5.9999999999999995e-05,4
16757,17350,-1e-05,-5e-05,-2e-05,2.9999999999999997e-05,-8e-05,-4e-05,-7e-05,-5.9999999999999995e-05,4
16758,17351,-1e-05,-5e-05,-2e-05,2.9999999999999997e-05,-8e-05,-4e-05,-7e-05,-5.9999999999999995e-05,4
16759,17352,-1e-05,-5e-05,-2e-05,2.9999999999999997e-05,-8e-05,-4e-05,-7e-05,-5.9999999999999995e-05,4
16760,17353,-1e-05,-5e-05,-2e-05,2.9999999999999997e-05,-8e-05,-4e-05,-7e-05,-5.9999999999999995e-05,4
16761,17354,-1e-05,-5e-05,-2e-05,2.9999999999999997e-05,-8e-05,-4e-05,-7e-05,-5.9999999999999995e-05,4
16762,17355,-1e-05,-5e-05,-2e-05,2.9999999999999997e-05,-8e-05,-4e-05,-7e-05,-5.9999999999999995e-05,4
16763,17356,-4e-05,-5e-05,-5e-05,4e-05,0.00047999999999999996,-0.00027,-7e-05,-5.9999999999999995e-05,4
16764,17357,-4e-05,-5e-05,-5e-05,4e-05,0.00047999999999999996,-0.00027,-7e-05,-5.9999999999999995e-05,4
16765,17358,-4e-05,-5e-05,-5e-05,4e-05,0.00047999999999999996,-0.00027,-7e-05,-5.9999999999999995e-05,4
16766,17359,-4e-05,-5e-05,-5e-05,4e-05,0.00047999999999999996,-0.00027,-7e-05,-5.9999999999999995e-05,4
16767,17360,-4e-05,-5e-05,-5e-05,4e-05,0.00047999999999999996,-0.00027,-7e-05,-5.9999999999999995e-05,4
16768,17361,-4e-05,-5e-05,-5e-05,4e-05,0.00047999999999999996,-0.00027,-7e-05,-5.9999999999999995e-05,4
16769,17362,1e-05,4e-05,4e-05,-1e-05,-1e-05,0.00027,9e-05,4e-05,4
16770,17363,1e-05,4e-05,4e-05,-1e-05,-1e-05,0.00027,9e-05,4e-05,4
16771,17364,1e-05,4e-05,4e-05,-1e-05,-1e-05,0.00027,9e-05,4e-05,4
16772,17365,1e-05,4e-05,4e-05,-1e-05,-1e-05,0.00027,9e-05,4e-05,4
16773,17366,1e-05,4e-05,4e-05,-1e-05,-1e-05,0.00027,9e-05,4e-05,4
16774,17367,1e-05,4e-05,4e-05,-1e-05,-1e-05,0.00027,9e-05,4e-05,4
16775,17368,1e-05,4e-05,4e-05,-1e-05,-1e-05,0.00027,9e-05,4e-05,4
16776,17369,1e-05,4e-05,4e-05,-1e-05,-1e-05,0.00027,9e-05,4e-05,4
16777,17370,1e-05,4e-05,4e-05,-1e-05,-1e-05,0.00027,9e-05,4e-05,4
16778,17371,0.0,1e-05,0.0,-2e-05,9e-05,0.0,2e-05,0.0,4
16779,17372,0.0,1e-05,0.0,-2e-05,9e-05,0.0,2e-05,0.0,4
16780,17373,0.0,1e-05,0.0,-2e-05,9e-05,0.0,2e-05,0.0,4
16781,17374,0.0,1e-05,0.0,-2e-05,9e-05,0.0,2e-05,0.0,4
16782,17375,0.0,1e-05,0.0,-2e-05,9e-05,0.0,2e-05,0.0,4
16783,17376,0.0,1e-05,0.0,-2e-05,9e-05,0.0,2e-05,0.0,4
16784,17377,0.0,1e-05,0.0,-2e-05,9e-05,0.0,2e-05,0.0,4
16785,17378,0.0,1e-05,0.0,-2e-05,9e-05,0.0,2e-05,0.0,4
16786,17379,0.0,1e-05,0.0,-2e-05,9e-05,0.0,2e-05,0.0,4
16787,17380,0.0,1e-05,0.0,-2e-05,9e-05,0.0,2e-05,0.0,4
16788,17381,0.0,1e-05,0.0,-2e-05,9e-05,0.0,2e-05,0.0,4
16789,17382,0.0,1e-05,0.0,-2e-05,9e-05,0.0,2e-05,0.0,4
16790,17383,0.0,1e-05,0.0,-2e-05,9e-05,0.0,2e-05,0.0,4
16791,17385,0.0,1e-05,0.0,-2e-05,9e-05,0.0,2e-05,0.0,4
16792,17386,0.0,1e-05,0.0,-2e-05,9e-05,0.0,2e-05,0.0,4
16793,17389,0.0,1e-05,0.0,-2e-05,9e-05,0.0,2e-05,0.0,4
16794,17390,0.0,1e-05,0.0,-2e-05,9e-05,0.0,2e-05,0.0,4
16795,17391,0.0,1e-05,0.0,-2e-05,9e-05,0.0,2e-05,0.0,4
16796,17392,0.0,1e-05,0.0,-2e-05,9e-05,0.0,2e-05,0.0,4
16797,17393,0.0,1e-05,0.0,-2e-05,9e-05,0.0,2e-05,0.0,4
16798,17394,0.0,1e-05,0.0,-2e-05,9e-05,0.0,2e-05,0.0,4
16799,17395,0.0,1e-05,0.0,-2e-05,9e-05,0.0,2e-05,0.0,4
16800,17396,0.0,1e-05,0.0,-2e-05,9e-05,0.0,2e-05,0.0,4
16801,17397,0.0,1e-05,0.0,-2e-05,9e-05,0.0,2e-05,0.0,4
16802,17398,0.0,1e-05,0.0,-2e-05,9e-05,0.0,2e-05,0.0,4
16803,17399,0.0,1e-05,0.0,-2e-05,9e-05,0.0,2e-05,0.0,4
16804,17400,0.0,1e-05,0.0,-2e-05,9e-05,0.0,2e-05,0.0,4
16805,17401,-2.9999999999999997e-05,-2.9999999999999997e-05,-5e-05,-0.00011999999999999999,-0.00029,1e-05,-0.00015,-5.9999999999999995e-05,4
16806,17402,-2.9999999999999997e-05,-2.9999999999999997e-05,-5e-05,-0.00011999999999999999,-0.00029,1e-05,-0.00015,-5.9999999999999995e-05,4
16807,17403,2e-05,1e-05,0.0,-0.00027,-0.0007599999999999999,-0.0001,2.9999999999999997e-05,2e-05,4
16808,17404,2e-05,1e-05,0.0,-0.00027,-0.0007599999999999999,-0.0001,2.9999999999999997e-05,2e-05,4
16809,17405,2e-05,1e-05,0.0,-0.00027,-0.0007599999999999999,-0.0001,2.9999999999999997e-05,2e-05,4
16810,17406,2e-05,1e-05,0.0,-0.00027,-0.0007599999999999999,-0.0001,2.9999999999999997e-05,2e-05,4
16811,17407,2e-05,1e-05,0.0,-0.00027,-0.0007599999999999999,-0.0001,2.9999999999999997e-05,2e-05,4
16812,17408,-4e-05,-4e-05,-1e-05,0.00027,5.9999999999999995e-05,0.00075,2e-05,-4e-05,4
16813,17409,1e-05,0.0,-2e-05,1e-05,0.00011999999999999999,4e-05,4e-05,0.0,4
16814,17410,-2.9999999999999997e-05,2.9999999999999997e-05,5.9999999999999995e-05,-5e-05,-0.0006799999999999999,0.0,-2e-05,-2.9999999999999997e-05,4
16815,17411,-2.9999999999999997e-05,2.9999999999999997e-05,5.9999999999999995e-05,-5e-05,-0.0006799999999999999,0.0,-2e-05,-2.9999999999999997e-05,4
16816,17412,-2.9999999999999997e-05,2.9999999999999997e-05,5.9999999999999995e-05,-5e-05,-0.0006799999999999999,0.0,-2e-05,-2.9999999999999997e-05,4
16817,17413,-2.9999999999999997e-05,2.9999999999999997e-05,5.9999999999999995e-05,-5e-05,-0.0006799999999999999,0.0,-2e-05,-2.9999999999999997e-05,4
16818,17414,-2.9999999999999997e-05,2.9999999999999997e-05,5.9999999999999995e-05,-5e-05,-0.0006799999999999999,0.0,-2e-05,-2.9999999999999997e-05,4
16819,17415,-2.9999999999999997e-05,2.9999999999999997e-05,5.9999999999999995e-05,-5e-05,-0.0006799999999999999,0.0,-2e-05,-2.9999999999999997e-05,4
16820,17416,-2.9999999999999997e-05,2.9999999999999997e-05,5.9999999999999995e-05,-5e-05,-0.0006799999999999999,0.0,-2e-05,-2.9999999999999997e-05,4
16821,17417,-2.9999999999999997e-05,2.9999999999999997e-05,5.9999999999999995e-05,-5e-05,-0.0006799999999999999,0.0,-2e-05,-2.9999999999999997e-05,4
16822,17418,-2.9999999999999997e-05,2.9999999999999997e-05,5.9999999999999995e-05,-5e-05,-0.0006799999999999999,0.0,-2e-05,-2.9999999999999997e-05,4
16823,17419,-2.9999999999999997e-05,2.9999999999999997e-05,5.9999999999999995e-05,-5e-05,-0.0006799999999999999,0.0,-2e-05,-2.9999999999999997e-05,4
16824,17420,-2.9999999999999997e-05,2.9999999999999997e-05,5.9999999999999995e-05,-5e-05,-0.0006799999999999999,0.0,-2e-05,-2.9999999999999997e-05,4
16825,17421,-2.9999999999999997e-05,2.9999999999999997e-05,5.9999999999999995e-05,-5e-05,-0.0006799999999999999,0.0,-2e-05,-2.9999999999999997e-05,4
16826,17422,-5e-05,-8e-05,-9e-05,5e-05,-0.00015,0.0,-9e-05,-5e-05,4
16827,17423,-5e-05,-8e-05,-9e-05,5e-05,-0.00015,0.0,-9e-05,-5e-05,4
16828,17424,-5e-05,-8e-05,-9e-05,5e-05,-0.00015,0.0,-9e-05,-5e-05,4
16829,17425,-5e-05,-8e-05,-9e-05,5e-05,-0.00015,0.0,-9e-05,-5e-05,4
16830,17426,-5e-05,-8e-05,-9e-05,5e-05,-0.00015,0.0,-9e-05,-5e-05,4
16831,17427,-5e-05,-8e-05,-9e-05,5e-05,-0.00015,0.0,-9e-05,-5e-05,4
16832,17428,-5e-05,-8e-05,-9e-05,5e-05,-0.00015,0.0,-9e-05,-5e-05,4
16833,17429,-5e-05,-8e-05,-9e-05,5e-05,-0.00015,0.0,-9e-05,-5e-05,4
16834,17430,-5e-05,-8e-05,-9e-05,5e-05,-0.00015,0.0,-9e-05,-5e-05,4
16835,17431,-5e-05,-8e-05,-9e-05,5e-05,-0.00015,0.0,-9e-05,-5e-05,4
16836,17432,-5e-05,-8e-05,-9e-05,5e-05,-0.00015,0.0,-9e-05,-5e-05,4
16837,17433,-5e-05,-8e-05,-9e-05,5e-05,-0.00015,0.0,-9e-05,-5e-05,4
16838,17434,-5e-05,-8e-05,-9e-05,5e-05,-0.00015,0.0,-9e-05,-5e-05,4
16839,17435,-5e-05,-8e-05,-9e-05,5e-05,-0.00015,0.0,-9e-05,-5e-05,4
16840,17436,-5e-05,-8e-05,-9e-05,5e-05,-0.00015,0.0,-9e-05,-5e-05,4
16841,17440,-5e-05,-8e-05,-9e-05,5e-05,-0.00015,0.0,-9e-05,-5e-05,4
16842,17441,-5e-05,-8e-05,-9e-05,5e-05,-0.00015,0.0,-9e-05,-5e-05,4
16843,17442,-5e-05,-8e-05,-9e-05,5e-05,-0.00015,0.0,-9e-05,-5e-05,4
16844,17443,-5e-05,-8e-05,-9e-05,5e-05,-0.00015,0.0,-9e-05,-5e-05,4
16845,17444,-5e-05,-8e-05,-9e-05,5e-05,-0.00015,0.0,-9e-05,-5e-05,4
16846,17445,-5e-05,-8e-05,-9e-05,5e-05,-0.00015,0.0,-9e-05,-5e-05,4
16847,17446,-5e-05,-8e-05,-9e-05,5e-05,-0.00015,0.0,-9e-05,-5e-05,4
16848,17447,-5e-05,-8e-05,-9e-05,5e-05,-0.00015,0.0,-9e-05,-5e-05,4
16849,17448,-2.9999999999999997e-05,-7e-05,-5.9999999999999995e-05,8e-05,0.00018,-0.0001,-5e-05,-2.9999999999999997e-05,4
16850,17449,-2e-05,-4e-05,-5e-05,-1e-05,0.00033,0.00031,-1e-05,-1e-05,4
16851,17450,-2e-05,-4e-05,-5e-05,-1e-05,0.00033,0.00031,-1e-05,-1e-05,4
16852,17451,-2e-05,-4e-05,-5e-05,-1e-05,0.00033,0.00031,-1e-05,-1e-05,4
16853,17452,-1e-05,-7e-05,-4e-05,-7e-05,0.00026000000000000003,0.00025,2e-05,0.0,4
16854,17453,-1e-05,-7e-05,-4e-05,-7e-05,0.00026000000000000003,0.00025,2e-05,0.0,4
16855,17454,-1e-05,-7e-05,-4e-05,-7e-05,0.00026000000000000003,0.00025,2e-05,0.0,4
16856,17455,-1e-05,-7e-05,-4e-05,-7e-05,0.00026000000000000003,0.00025,2e-05,0.0,4
16857,17456,-1e-05,-7e-05,-4e-05,-7e-05,0.00026000000000000003,0.00025,2e-05,0.0,4
16858,17457,-1e-05,-7e-05,-4e-05,-7e-05,0.00026000000000000003,0.00025,2e-05,0.0,4
16859,17458,-1e-05,-7e-05,-4e-05,-7e-05,0.00026000000000000003,0.00025,2e-05,0.0,4
16860,17459,-1e-05,-7e-05,-4e-05,-7e-05,0.00026000000000000003,0.00025,2e-05,0.0,4
16861,17460,-1e-05,-7e-05,-4e-05,-7e-05,0.00026000000000000003,0.00025,2e-05,0.0,4
16862,17461,-1e-05,-7e-05,-4e-05,-7e-05,0.00026000000000000003,0.00025,2e-05,0.0,4
16863,17462,-1e-05,-7e-05,-4e-05,-7e-05,0.00026000000000000003,0.00025,2e-05,0.0,4
16864,17463,-1e-05,-7e-05,-4e-05,-7e-05,0.00026000000000000003,0.00025,2e-05,0.0,4
16865,17464,-1e-05,-7e-05,-4e-05,-7e-05,0.00026000000000000003,0.00025,2e-05,0.0,4
16866,17465,-1e-05,-7e-05,-4e-05,-7e-05,0.00026000000000000003,0.00025,2e-05,0.0,4
16867,17466,-1e-05,-7e-05,-4e-05,-7e-05,0.00026000000000000003,0.00025,2e-05,0.0,4
16868,17467,-1e-05,-7e-05,-4e-05,-7e-05,0.00026000000000000003,0.00025,2e-05,0.0,4
16869,17468,0.0,1e-05,-5e-05,-0.00022,-0.00014,-0.00036,-2.9999999999999997e-05,0.0,4
16870,17469,0.0,1e-05,-5e-05,-0.00022,-0.00014,-0.00036,-2.9999999999999997e-05,0.0,4
16871,17470,-1e-05,-5e-05,-2.9999999999999997e-05,-4e-05,0.00033,0.00032,2.9999999999999997e-05,0.0,4
16872,17471,-1e-05,-5e-05,-2.9999999999999997e-05,-4e-05,0.00033,0.00032,2.9999999999999997e-05,0.0,4
16873,17472,-1e-05,-5e-05,-2.9999999999999997e-05,-4e-05,0.00033,0.00032,2.9999999999999997e-05,0.0,4
16874,17473,-1e-05,-5e-05,-2.9999999999999997e-05,-4e-05,0.00033,0.00032,2.9999999999999997e-05,0.0,4
16875,17474,-1e-05,-5e-05,-2.9999999999999997e-05,-4e-05,0.00033,0.00032,2.9999999999999997e-05,0.0,4
16876,17475,-1e-05,-5e-05,-2.9999999999999997e-05,-4e-05,0.00033,0.00032,2.9999999999999997e-05,0.0,4
16877,17476,-1e-05,-5e-05,-2.9999999999999997e-05,-4e-05,0.00033,0.00032,2.9999999999999997e-05,0.0,4
16878,17478,-1e-05,-5e-05,-2.9999999999999997e-05,-4e-05,0.00033,0.00032,2.9999999999999997e-05,0.0,4
16879,17479,-1e-05,-5e-05,-2.9999999999999997e-05,-4e-05,0.00033,0.00032,2.9999999999999997e-05,0.0,4
16880,17480,-1e-05,-5e-05,-2.9999999999999997e-05,-4e-05,0.00033,0.00032,2.9999999999999997e-05,0.0,4
16881,17481,-1e-05,-5e-05,-2.9999999999999997e-05,-4e-05,0.00033,0.00032,2.9999999999999997e-05,0.0,4
16882,17482,-1e-05,-5e-05,-2.9999999999999997e-05,-4e-05,0.00033,0.00032,2.9999999999999997e-05,0.0,4
16883,17483,-1e-05,-5e-05,-2.9999999999999997e-05,-4e-05,0.00033,0.00032,2.9999999999999997e-05,0.0,4
16884,17484,-1e-05,-5e-05,-2.9999999999999997e-05,-4e-05,0.00033,0.00032,2.9999999999999997e-05,0.0,4
16885,17485,-1e-05,-5e-05,-2.9999999999999997e-05,-4e-05,0.00033,0.00032,2.9999999999999997e-05,0.0,4
16886,17486,-1e-05,-5e-05,-2.9999999999999997e-05,-4e-05,0.00033,0.00032,2.9999999999999997e-05,0.0,4
16887,17489,-1e-05,-5e-05,-2.9999999999999997e-05,-4e-05,0.00033,0.00032,2.9999999999999997e-05,0.0,4
16888,17491,-1e-05,-2.9999999999999997e-05,0.0,2e-05,0.00033999999999999997,2.9999999999999997e-05,-5e-05,-4e-05,4
16889,17492,-1e-05,-2.9999999999999997e-05,0.0,2e-05,0.00033999999999999997,2.9999999999999997e-05,-5e-05,-4e-05,4
16890,17493,0.0,4e-05,5.9999999999999995e-05,-8e-05,-0.0003,5.9999999999999995e-05,1e-05,1e-05,4
16891,17494,0.0,4e-05,5.9999999999999995e-05,-8e-05,-0.0003,5.9999999999999995e-05,1e-05,1e-05,4
16892,17495,0.0,4e-05,5.9999999999999995e-05,-8e-05,-0.0003,5.9999999999999995e-05,1e-05,1e-05,4
16893,17496,0.0,4e-05,5.9999999999999995e-05,-8e-05,-0.0003,5.9999999999999995e-05,1e-05,1e-05,4
16894,17497,0.0,4e-05,5.9999999999999995e-05,-8e-05,-0.0003,5.9999999999999995e-05,1e-05,1e-05,4
16895,17498,0.0,4e-05,5.9999999999999995e-05,-8e-05,-0.0003,5.9999999999999995e-05,1e-05,1e-05,4
16896,17499,0.0,4e-05,5.9999999999999995e-05,-8e-05,-0.0003,5.9999999999999995e-05,1e-05,1e-05,4
16897,17500,0.0,4e-05,5.9999999999999995e-05,-8e-05,-0.0003,5.9999999999999995e-05,1e-05,1e-05,4
16898,17501,0.0,4e-05,5.9999999999999995e-05,-8e-05,-0.0003,5.9999999999999995e-05,1e-05,1e-05,4
16899,17502,0.0,4e-05,5.9999999999999995e-05,-8e-05,-0.0003,5.9999999999999995e-05,1e-05,1e-05,4
16900,17503,0.0,4e-05,5.9999999999999995e-05,-8e-05,-0.0003,5.9999999999999995e-05,1e-05,1e-05,4
16901,17504,0.0,4e-05,5.9999999999999995e-05,-8e-05,-0.0003,5.9999999999999995e-05,1e-05,1e-05,4
16902,17505,0.0,4e-05,5.9999999999999995e-05,-8e-05,-0.0003,5.9999999999999995e-05,1e-05,1e-05,4
16903,17506,-1e-05,2e-05,-2.9999999999999997e-05,-0.00018,-0.0005,-7e-05,-1e-05,1e-05,4
16904,17507,-1e-05,2e-05,-2.9999999999999997e-05,-0.00018,-0.0005,-7e-05,-1e-05,1e-05,4
16905,17508,-2.9999999999999997e-05,-5e-05,-5e-05,-2.9999999999999997e-05,-2e-05,-0.00015,-5e-05,-5e-05,4
16906,17509,-2.9999999999999997e-05,-5e-05,-5e-05,-2.9999999999999997e-05,-2e-05,-0.00015,-5e-05,-5e-05,4
16907,17510,-2.9999999999999997e-05,-5e-05,-5e-05,-2.9999999999999997e-05,-2e-05,-0.00015,-5e-05,-5e-05,4
16908,17511,-2.9999999999999997e-05,-5e-05,-5e-05,-2.9999999999999997e-05,-2e-05,-0.00015,-5e-05,-5e-05,4
16909,17512,-2.9999999999999997e-05,-5e-05,-5e-05,-2.9999999999999997e-05,-2e-05,-0.00015,-5e-05,-5e-05,4
16910,17513,-2.9999999999999997e-05,-5e-05,-5e-05,-2.9999999999999997e-05,-2e-05,-0.00015,-5e-05,-5e-05,4
16911,17514,-2.9999999999999997e-05,-5e-05,-5e-05,-2.9999999999999997e-05,-2e-05,-0.00015,-5e-05,-5e-05,4
16912,17515,-2.9999999999999997e-05,-5e-05,-5e-05,-2.9999999999999997e-05,-2e-05,-0.00015,-5e-05,-5e-05,4
16913,17516,-2.9999999999999997e-05,-5e-05,-5e-05,-2.9999999999999997e-05,-2e-05,-0.00015,-5e-05,-5e-05,4
16914,17517,-2.9999999999999997e-05,-5e-05,-5e-05,-2.9999999999999997e-05,-2e-05,-0.00015,-5e-05,-5e-05,4
16915,17518,-2.9999999999999997e-05,-5e-05,-5e-05,-2.9999999999999997e-05,-2e-05,-0.00015,-5e-05,-5e-05,4
16916,17519,-2.9999999999999997e-05,-5e-05,-5e-05,-2.9999999999999997e-05,-2e-05,-0.00015,-5e-05,-5e-05,4
16917,17520,-2.9999999999999997e-05,-5e-05,-5e-05,-2.9999999999999997e-05,-2e-05,-0.00015,-5e-05,-5e-05,4
16918,17521,-2.9999999999999997e-05,-5e-05,-5e-05,-2.9999999999999997e-05,-2e-05,-0.00015,-5e-05,-5e-05,4
16919,17522,-2.9999999999999997e-05,-5e-05,-5e-05,-2.9999999999999997e-05,-2e-05,-0.00015,-5e-05,-5e-05,4
16920,17523,-2.9999999999999997e-05,-5e-05,-5e-05,-2.9999999999999997e-05,-2e-05,-0.00015,-5e-05,-5e-05,4
16921,17524,-2.9999999999999997e-05,-5e-05,-5e-05,-2.9999999999999997e-05,-2e-05,-0.00015,-5e-05,-5e-05,4
16922,17525,-2.9999999999999997e-05,-5e-05,-5e-05,-2.9999999999999997e-05,-2e-05,-0.00015,-5e-05,-5e-05,4
16923,17526,-2.9999999999999997e-05,-5e-05,-5e-05,-2.9999999999999997e-05,-2e-05,-0.00015,-5e-05,-5e-05,4
16924,17527,-2.9999999999999997e-05,-5e-05,-5e-05,-2.9999999999999997e-05,-2e-05,-0.00015,-5e-05,-5e-05,4
16925,17528,-1e-05,-1e-05,-2.9999999999999997e-05,-0.00011,-2.9999999999999997e-05,0.00029,2e-05,0.0,4
16926,17529,2e-05,4e-05,4e-05,9e-05,2e-05,-0.00047000000000000004,4e-05,1e-05,4
16927,17530,2e-05,4e-05,4e-05,9e-05,2e-05,-0.00047000000000000004,4e-05,1e-05,4
16928,17531,2e-05,4e-05,4e-05,9e-05,2e-05,-0.00047000000000000004,4e-05,1e-05,4
16929,17532,2e-05,4e-05,4e-05,9e-05,2e-05,-0.00047000000000000004,4e-05,1e-05,4
16930,17533,2e-05,4e-05,4e-05,9e-05,2e-05,-0.00047000000000000004,4e-05,1e-05,4
16931,17534,2e-05,4e-05,4e-05,9e-05,2e-05,-0.00047000000000000004,4e-05,1e-05,4
16932,17535,2e-05,4e-05,4e-05,9e-05,2e-05,-0.00047000000000000004,4e-05,1e-05,4
16933,17536,2e-05,4e-05,4e-05,9e-05,2e-05,-0.00047000000000000004,4e-05,1e-05,4
16934,17538,2e-05,4e-05,4e-05,9e-05,2e-05,-0.00047000000000000004,4e-05,1e-05,4
16935,17539,2e-05,4e-05,4e-05,9e-05,2e-05,-0.00047000000000000004,4e-05,1e-05,4
16936,17540,2e-05,4e-05,4e-05,9e-05,2e-05,-0.00047000000000000004,4e-05,1e-05,4
16937,17541,2e-05,4e-05,4e-05,9e-05,2e-05,-0.00047000000000000004,4e-05,1e-05,4
16938,17542,2e-05,4e-05,4e-05,9e-05,2e-05,-0.00047000000000000004,4e-05,1e-05,4
16939,17543,2e-05,4e-05,4e-05,9e-05,2e-05,-0.00047000000000000004,4e-05,1e-05,4
16940,17544,2e-05,4e-05,4e-05,9e-05,2e-05,-0.00047000000000000004,4e-05,1e-05,4
16941,17545,2e-05,4e-05,4e-05,9e-05,2e-05,-0.00047000000000000004,4e-05,1e-05,4
16942,17546,2e-05,4e-05,4e-05,9e-05,2e-05,-0.00047000000000000004,4e-05,1e-05,4
16943,17547,2e-05,4e-05,4e-05,9e-05,2e-05,-0.00047000000000000004,4e-05,1e-05,4
16944,17548,2e-05,4e-05,4e-05,9e-05,2e-05,-0.00047000000000000004,4e-05,1e-05,4
16945,17549,2e-05,4e-05,4e-05,9e-05,2e-05,-0.00047000000000000004,4e-05,1e-05,4
16946,17550,-2e-05,-2.9999999999999997e-05,2e-05,0.00013000000000000002,0.00045,-0.00028,-0.00011,-2.9999999999999997e-05,4
16947,17551,-4e-05,-4e-05,-2.9999999999999997e-05,0.00014,0.00055,-0.00013000000000000002,-0.00011999999999999999,-8e-05,4
16948,17552,-4e-05,-4e-05,-2.9999999999999997e-05,0.00014,0.00055,-0.00013000000000000002,-0.00011999999999999999,-8e-05,4
16949,17553,-4e-05,-4e-05,-2.9999999999999997e-05,0.00014,0.00055,-0.00013000000000000002,-0.00011999999999999999,-8e-05,4
16950,17554,-4e-05,-4e-05,-2.9999999999999997e-05,0.00014,0.00055,-0.00013000000000000002,-0.00011999999999999999,-8e-05,4
16951,17555,-4e-05,-4e-05,-2.9999999999999997e-05,0.00014,0.00055,-0.00013000000000000002,-0.00011999999999999999,-8e-05,4
16952,17556,-4e-05,-4e-05,-2.9999999999999997e-05,0.00014,0.00055,-0.00013000000000000002,-0.00011999999999999999,-8e-05,4
16953,17557,-4e-05,-4e-05,-2.9999999999999997e-05,0.00014,0.00055,-0.00013000000000000002,-0.00011999999999999999,-8e-05,4
16954,17558,-4e-05,-4e-05,-2.9999999999999997e-05,0.00014,0.00055,-0.00013000000000000002,-0.00011999999999999999,-8e-05,4
16955,17559,-4e-05,-4e-05,-2.9999999999999997e-05,0.00014,0.00055,-0.00013000000000000002,-0.00011999999999999999,-8e-05,4
16956,17560,-4e-05,-4e-05,-2.9999999999999997e-05,0.00014,0.00055,-0.00013000000000000002,-0.00011999999999999999,-8e-05,4
16957,17561,-4e-05,-4e-05,-2.9999999999999997e-05,0.00014,0.00055,-0.00013000000000000002,-0.00011999999999999999,-8e-05,4
16958,17562,-4e-05,-4e-05,-2.9999999999999997e-05,0.00014,0.00055,-0.00013000000000000002,-0.00011999999999999999,-8e-05,4
16959,17563,-4e-05,-4e-05,-2.9999999999999997e-05,0.00014,0.00055,-0.00013000000000000002,-0.00011999999999999999,-8e-05,4
16960,17564,-4e-05,-4e-05,-2.9999999999999997e-05,0.00014,0.00055,-0.00013000000000000002,-0.00011999999999999999,-8e-05,4
16961,17565,1e-05,-5.9999999999999995e-05,-5.9999999999999995e-05,0.00011999999999999999,0.00053,2e-05,5e-05,1e-05,4
16962,17566,1e-05,5e-05,5e-05,2e-05,-0.00022999999999999998,0.00011999999999999999,4e-05,1e-05,4
16963,17567,1e-05,5e-05,5e-05,2e-05,-0.00022999999999999998,0.00011999999999999999,4e-05,1e-05,4
16964,17568,1e-05,5e-05,5e-05,2e-05,-0.00022999999999999998,0.00011999999999999999,4e-05,1e-05,4
16965,17569,1e-05,5e-05,5e-05,2e-05,-0.00022999999999999998,0.00011999999999999999,4e-05,1e-05,4
16966,17570,1e-05,5e-05,5e-05,2e-05,-0.00022999999999999998,0.00011999999999999999,4e-05,1e-05,4
16967,17571,1e-05,5e-05,5e-05,2e-05,-0.00022999999999999998,0.00011999999999999999,4e-05,1e-05,4
16968,17572,1e-05,5e-05,5e-05,2e-05,-0.00022999999999999998,0.00011999999999999999,4e-05,1e-05,4
16969,17573,1e-05,5e-05,5e-05,2e-05,-0.00022999999999999998,0.00011999999999999999,4e-05,1e-05,4
16970,17574,1e-05,5e-05,5e-05,2e-05,-0.00022999999999999998,0.00011999999999999999,4e-05,1e-05,4
16971,17575,1e-05,5e-05,5e-05,2e-05,-0.00022999999999999998,0.00011999999999999999,4e-05,1e-05,4
16972,17576,1e-05,5e-05,5e-05,2e-05,-0.00022999999999999998,0.00011999999999999999,4e-05,1e-05,4
16973,17577,1e-05,5e-05,5e-05,2e-05,-0.00022999999999999998,0.00011999999999999999,4e-05,1e-05,4
16974,17578,1e-05,5e-05,5e-05,2e-05,-0.00022999999999999998,0.00011999999999999999,4e-05,1e-05,4
16975,17579,1e-05,5e-05,5e-05,2e-05,-0.00022999999999999998,0.00011999999999999999,4e-05,1e-05,4
16976,17580,1e-05,5e-05,5e-05,2e-05,-0.00022999999999999998,0.00011999999999999999,4e-05,1e-05,4
16977,17581,1e-05,5e-05,5e-05,2e-05,-0.00022999999999999998,0.00011999999999999999,4e-05,1e-05,4
16978,17582,1e-05,5e-05,5e-05,2e-05,-0.00022999999999999998,0.00011999999999999999,4e-05,1e-05,4
16979,17583,1e-05,5e-05,5e-05,2e-05,-0.00022999999999999998,0.00011999999999999999,4e-05,1e-05,4
16980,17584,1e-05,5e-05,5e-05,2e-05,-0.00022999999999999998,0.00011999999999999999,4e-05,1e-05,4
16981,17585,1e-05,5e-05,5e-05,2e-05,-0.00022999999999999998,0.00011999999999999999,4e-05,1e-05,4
16982,17586,1e-05,5e-05,5e-05,2e-05,-0.00022999999999999998,0.00011999999999999999,4e-05,1e-05,4
16983,17589,-2e-05,-2e-05,1e-05,-0.00016999999999999999,-0.00066,-0.00022999999999999998,1e-05,0.0,4
16984,17590,-2e-05,-2e-05,1e-05,-0.00016999999999999999,-0.00066,-0.00022999999999999998,1e-05,0.0,4
16985,17591,-2e-05,-2e-05,1e-05,-0.00016999999999999999,-0.00066,-0.00022999999999999998,1e-05,0.0,4
16986,17592,-2e-05,-2e-05,1e-05,-0.00016999999999999999,-0.00066,-0.00022999999999999998,1e-05,0.0,4
16987,17593,-2e-05,-2e-05,1e-05,-0.00016999999999999999,-0.00066,-0.00022999999999999998,1e-05,0.0,4
16988,17594,-2e-05,-2e-05,1e-05,-0.00016999999999999999,-0.00066,-0.00022999999999999998,1e-05,0.0,4
16989,17595,-2e-05,-2e-05,1e-05,-0.00016999999999999999,-0.00066,-0.00022999999999999998,1e-05,0.0,4
16990,17596,-2e-05,-2e-05,1e-05,-0.00016999999999999999,-0.00066,-0.00022999999999999998,1e-05,0.0,4
16991,17597,-2e-05,-2e-05,1e-05,-0.00016999999999999999,-0.00066,-0.00022999999999999998,1e-05,0.0,4
16992,17598,-2e-05,-2e-05,1e-05,-0.00016999999999999999,-0.00066,-0.00022999999999999998,1e-05,0.0,4
16993,17599,-2e-05,-2e-05,1e-05,-0.00016999999999999999,-0.00066,-0.00022999999999999998,1e-05,0.0,4
16994,17600,-2e-05,-2e-05,1e-05,-0.00016999999999999999,-0.00066,-0.00022999999999999998,1e-05,0.0,4
16995,17601,-2e-05,-2e-05,1e-05,-0.00016999999999999999,-0.00066,-0.00022999999999999998,1e-05,0.0,4
16996,17602,-2e-05,-2e-05,1e-05,-0.00016999999999999999,-0.00066,-0.00022999999999999998,1e-05,0.0,4
16997,17603,-2e-05,-2e-05,1e-05,-0.00016999999999999999,-0.00066,-0.00022999999999999998,1e-05,0.0,4
16998,17604,-2e-05,-2e-05,1e-05,-0.00016999999999999999,-0.00066,-0.00022999999999999998,1e-05,0.0,4
16999,17605,-2e-05,-2e-05,1e-05,-0.00016999999999999999,-0.00066,-0.00022999999999999998,1e-05,0.0,4
17000,17606,-2e-05,-2e-05,1e-05,-0.00016999999999999999,-0.00066,-0.00022999999999999998,1e-05,0.0,4
17001,17607,-2e-05,-2e-05,1e-05,-0.00016999999999999999,-0.00066,-0.00022999999999999998,1e-05,0.0,4
17002,17608,-2e-05,-2e-05,1e-05,-0.00016999999999999999,-0.00066,-0.00022999999999999998,1e-05,0.0,4
17003,17609,-2e-05,-2e-05,1e-05,-0.00016999999999999999,-0.00066,-0.00022999999999999998,1e-05,0.0,4
17004,17610,2e-05,5e-05,5.9999999999999995e-05,-5.9999999999999995e-05,0.0,0.00014,1e-05,2e-05,4
17005,17611,-1e-05,-1e-05,-5e-05,0.00015,0.00035,0.00037,0.0,0.0,4
17006,17612,-1e-05,-1e-05,-5e-05,0.00015,0.00035,0.00037,0.0,0.0,4
17007,17613,-1e-05,-1e-05,-5e-05,0.00015,0.00035,0.00037,0.0,0.0,4
17008,17614,-1e-05,-1e-05,-5e-05,0.00015,0.00035,0.00037,0.0,0.0,4
17009,17615,-1e-05,-1e-05,-5e-05,0.00015,0.00035,0.00037,0.0,0.0,4
17010,17616,-1e-05,-1e-05,-5e-05,0.00015,0.00035,0.00037,0.0,0.0,4
17011,17617,-1e-05,-1e-05,-5e-05,0.00015,0.00035,0.00037,0.0,0.0,4
17012,17619,-1e-05,-1e-05,-5e-05,0.00015,0.00035,0.00037,0.0,0.0,4
17013,17620,-1e-05,-1e-05,-5e-05,0.00015,0.00035,0.00037,0.0,0.0,4
17014,17621,-1e-05,-1e-05,-5e-05,0.00015,0.00035,0.00037,0.0,0.0,4
17015,17622,-1e-05,-1e-05,-5e-05,0.00015,0.00035,0.00037,0.0,0.0,4
17016,17623,-1e-05,-1e-05,-5e-05,0.00015,0.00035,0.00037,0.0,0.0,4
17017,17624,-1e-05,-1e-05,-5e-05,0.00015,0.00035,0.00037,0.0,0.0,4
17018,17625,-1e-05,-1e-05,-5e-05,0.00015,0.00035,0.00037,0.0,0.0,4
17019,17626,-1e-05,-1e-05,-5e-05,0.00015,0.00035,0.00037,0.0,0.0,4
17020,17627,-1e-05,-1e-05,-5e-05,0.00015,0.00035,0.00037,0.0,0.0,4
17021,17628,-1e-05,-1e-05,-5e-05,0.00015,0.00035,0.00037,0.0,0.0,4
17022,17629,-1e-05,-1e-05,-5e-05,0.00015,0.00035,0.00037,0.0,0.0,4
17023,17630,-1e-05,-1e-05,-5e-05,0.00015,0.00035,0.00037,0.0,0.0,4
17024,17631,-1e-05,-1e-05,-5e-05,0.00015,0.00035,0.00037,0.0,0.0,4
17025,17632,-1e-05,-1e-05,-5e-05,0.00015,0.00035,0.00037,0.0,0.0,4
17026,17633,-1e-05,-1e-05,-5e-05,0.00015,0.00035,0.00037,0.0,0.0,4
17027,17634,1e-05,0.0,0.0,7e-05,-0.0008900000000000001,-0.00039,-4e-05,1e-05,4
17028,17635,1e-05,0.0,0.0,7e-05,-0.0008900000000000001,-0.00039,-4e-05,1e-05,4
17029,17636,1e-05,0.0,0.0,7e-05,-0.0008900000000000001,-0.00039,-4e-05,1e-05,4
17030,17638,1e-05,0.0,0.0,7e-05,-0.0008900000000000001,-0.00039,-4e-05,1e-05,4
17031,17639,1e-05,0.0,0.0,7e-05,-0.0008900000000000001,-0.00039,-4e-05,1e-05,4
17032,17641,1e-05,0.0,0.0,7e-05,-0.0008900000000000001,-0.00039,-4e-05,1e-05,4
17033,17642,1e-05,0.0,0.0,7e-05,-0.0008900000000000001,-0.00039,-4e-05,1e-05,4
17034,17643,1e-05,0.0,0.0,7e-05,-0.0008900000000000001,-0.00039,-4e-05,1e-05,4
17035,17644,1e-05,0.0,0.0,7e-05,-0.0008900000000000001,-0.00039,-4e-05,1e-05,4
17036,17645,1e-05,0.0,0.0,7e-05,-0.0008900000000000001,-0.00039,-4e-05,1e-05,4
17037,17646,1e-05,0.0,0.0,7e-05,-0.0008900000000000001,-0.00039,-4e-05,1e-05,4
17038,17647,1e-05,0.0,0.0,7e-05,-0.0008900000000000001,-0.00039,-4e-05,1e-05,4
17039,17648,1e-05,-1e-05,-2e-05,-0.00023999999999999998,-0.00042,-0.00013000000000000002,2.9999999999999997e-05,5e-05,4
17040,17649,-5e-05,-2e-05,-4e-05,1e-05,-0.00015,-0.00014,0.0,-2.9999999999999997e-05,4
17041,17650,-5e-05,-2e-05,-4e-05,1e-05,-0.00015,-0.00014,0.0,-2.9999999999999997e-05,4
17042,17651,-5e-05,-2e-05,-4e-05,1e-05,-0.00015,-0.00014,0.0,-2.9999999999999997e-05,4
17043,17652,-5e-05,-2e-05,-4e-05,1e-05,-0.00015,-0.00014,0.0,-2.9999999999999997e-05,4
17044,17653,-5e-05,-2e-05,-4e-05,1e-05,-0.00015,-0.00014,0.0,-2.9999999999999997e-05,4
17045,17654,-5e-05,-2e-05,-4e-05,1e-05,-0.00015,-0.00014,0.0,-2.9999999999999997e-05,4
17046,17655,-5e-05,-2e-05,-4e-05,1e-05,-0.00015,-0.00014,0.0,-2.9999999999999997e-05,4
17047,17656,-5e-05,-2e-05,-4e-05,1e-05,-0.00015,-0.00014,0.0,-2.9999999999999997e-05,4
17048,17657,-5e-05,-2e-05,-4e-05,1e-05,-0.00015,-0.00014,0.0,-2.9999999999999997e-05,4
17049,17658,-5e-05,-2e-05,-4e-05,1e-05,-0.00015,-0.00014,0.0,-2.9999999999999997e-05,4
17050,17659,-5e-05,-2e-05,-4e-05,1e-05,-0.00015,-0.00014,0.0,-2.9999999999999997e-05,4
17051,17660,-5e-05,-2e-05,-4e-05,1e-05,-0.00015,-0.00014,0.0,-2.9999999999999997e-05,4
17052,17661,-5e-05,-2e-05,-4e-05,1e-05,-0.00015,-0.00014,0.0,-2.9999999999999997e-05,4
17053,17662,-5e-05,-2e-05,-4e-05,1e-05,-0.00015,-0.00014,0.0,-2.9999999999999997e-05,4
17054,17663,-5e-05,-2e-05,-4e-05,1e-05,-0.00015,-0.00014,0.0,-2.9999999999999997e-05,4
17055,17664,-5e-05,-2e-05,-4e-05,1e-05,-0.00015,-0.00014,0.0,-2.9999999999999997e-05,4
17056,17665,-5e-05,-2e-05,-4e-05,1e-05,-0.00015,-0.00014,0.0,-2.9999999999999997e-05,4
17057,17666,-5e-05,-2e-05,-4e-05,1e-05,-0.00015,-0.00014,0.0,-2.9999999999999997e-05,4
17058,17667,-5e-05,-2e-05,-4e-05,1e-05,-0.00015,-0.00014,0.0,-2.9999999999999997e-05,4
17059,17668,-5e-05,-2e-05,-4e-05,1e-05,-0.00015,-0.00014,0.0,-2.9999999999999997e-05,4
17060,17669,-5e-05,-2e-05,-4e-05,1e-05,-0.00015,-0.00014,0.0,-2.9999999999999997e-05,4
17061,17670,-5e-05,-2e-05,-4e-05,1e-05,-0.00015,-0.00014,0.0,-2.9999999999999997e-05,4
17062,17671,-5e-05,-2e-05,-4e-05,1e-05,-0.00015,-0.00014,0.0,-2.9999999999999997e-05,4
17063,17672,-5e-05,-2e-05,-4e-05,1e-05,-0.00015,-0.00014,0.0,-2.9999999999999997e-05,4
17064,17673,-5e-05,-2e-05,-4e-05,1e-05,-0.00015,-0.00014,0.0,-2.9999999999999997e-05,4
17065,17674,-5e-05,-2e-05,-4e-05,1e-05,-0.00015,-0.00014,0.0,-2.9999999999999997e-05,4
17066,17675,-5e-05,-2e-05,-4e-05,1e-05,-0.00015,-0.00014,0.0,-2.9999999999999997e-05,4
17067,17676,-5e-05,-2e-05,-4e-05,1e-05,-0.00015,-0.00014,0.0,-2.9999999999999997e-05,4
17068,17677,-5e-05,-2e-05,-4e-05,1e-05,-0.00015,-0.00014,0.0,-2.9999999999999997e-05,4
17069,17678,-2e-05,-4e-05,0.0,9e-05,-5.9999999999999995e-05,0.00011,4e-05,0.0,4
17070,17679,1e-05,4e-05,4e-05,7e-05,0.0005,-0.00014,4e-05,2.9999999999999997e-05,4
17071,17680,1e-05,4e-05,4e-05,7e-05,0.0005,-0.00014,4e-05,2.9999999999999997e-05,4
17072,17681,1e-05,4e-05,4e-05,7e-05,0.0005,-0.00014,4e-05,2.9999999999999997e-05,4
17073,17682,1e-05,4e-05,4e-05,7e-05,0.0005,-0.00014,4e-05,2.9999999999999997e-05,4
17074,17683,1e-05,4e-05,4e-05,7e-05,0.0005,-0.00014,4e-05,2.9999999999999997e-05,4
17075,17684,1e-05,4e-05,4e-05,7e-05,0.0005,-0.00014,4e-05,2.9999999999999997e-05,4
17076,17685,2.9999999999999997e-05,4e-05,8e-05,0.00018,0.0003,5e-05,5e-05,1e-05,4
17077,17686,-5.9999999999999995e-05,-5.9999999999999995e-05,-8e-05,-0.00021,0.00025,-0.00033,-5e-05,0.0,4
17078,17688,-5.9999999999999995e-05,-5.9999999999999995e-05,-8e-05,-0.00021,0.00025,-0.00033,-5e-05,0.0,4
17079,17689,-5.9999999999999995e-05,-5.9999999999999995e-05,-8e-05,-0.00021,0.00025,-0.00033,-5e-05,0.0,4
17080,17690,-5.9999999999999995e-05,-5.9999999999999995e-05,-8e-05,-0.00021,0.00025,-0.00033,-5e-05,0.0,4
17081,17691,-5.9999999999999995e-05,-5.9999999999999995e-05,-8e-05,-0.00021,0.00025,-0.00033,-5e-05,0.0,4
17082,17692,-5.9999999999999995e-05,-5.9999999999999995e-05,-8e-05,-0.00021,0.00025,-0.00033,-5e-05,0.0,4
17083,17693,-5.9999999999999995e-05,-5.9999999999999995e-05,-8e-05,-0.00021,0.00025,-0.00033,-5e-05,0.0,4
17084,17694,-5.9999999999999995e-05,-5.9999999999999995e-05,-8e-05,-0.00021,0.00025,-0.00033,-5e-05,0.0,4
17085,17695,-5.9999999999999995e-05,-5.9999999999999995e-05,-8e-05,-0.00021,0.00025,-0.00033,-5e-05,0.0,4
17086,17696,-5.9999999999999995e-05,-5.9999999999999995e-05,-8e-05,-0.00021,0.00025,-0.00033,-5e-05,0.0,4
17087,17697,-5.9999999999999995e-05,-5.9999999999999995e-05,-8e-05,-0.00021,0.00025,-0.00033,-5e-05,0.0,4
17088,17698,-5.9999999999999995e-05,-5.9999999999999995e-05,-8e-05,-0.00021,0.00025,-0.00033,-5e-05,0.0,4
17089,17699,-5.9999999999999995e-05,-5.9999999999999995e-05,-8e-05,-0.00021,0.00025,-0.00033,-5e-05,0.0,4
17090,17700,-5.9999999999999995e-05,-5.9999999999999995e-05,-8e-05,-0.00021,0.00025,-0.00033,-5e-05,0.0,4
17091,17701,-5.9999999999999995e-05,-5.9999999999999995e-05,-8e-05,-0.00021,0.00025,-0.00033,-5e-05,0.0,4
17092,17702,-5.9999999999999995e-05,-5.9999999999999995e-05,-8e-05,-0.00021,0.00025,-0.00033,-5e-05,0.0,4
17093,17703,-5.9999999999999995e-05,-5.9999999999999995e-05,-8e-05,-0.00021,0.00025,-0.00033,-5e-05,0.0,4
17094,17704,-5.9999999999999995e-05,-5.9999999999999995e-05,-8e-05,-0.00021,0.00025,-0.00033,-5e-05,0.0,4
17095,17705,-5.9999999999999995e-05,-5.9999999999999995e-05,-8e-05,-0.00021,0.00025,-0.00033,-5e-05,0.0,4
17096,17706,-5.9999999999999995e-05,-5.9999999999999995e-05,-8e-05,-0.00021,0.00025,-0.00033,-5e-05,0.0,4
17097,17707,-5.9999999999999995e-05,-5.9999999999999995e-05,-8e-05,-0.00021,0.00025,-0.00033,-5e-05,0.0,4
17098,17708,0.0,1e-05,-1e-05,-1e-05,-8e-05,0.00025,2e-05,1e-05,4
17099,17709,0.0,4e-05,5e-05,0.00016999999999999999,0.00028,-1e-05,-8e-05,-2.9999999999999997e-05,4
17100,17710,0.0,4e-05,5e-05,0.00016999999999999999,0.00028,-1e-05,-8e-05,-2.9999999999999997e-05,4
17101,17711,0.0,4e-05,5e-05,0.00016999999999999999,0.00028,-1e-05,-8e-05,-2.9999999999999997e-05,4
17102,17712,0.0,4e-05,5e-05,0.00016999999999999999,0.00028,-1e-05,-8e-05,-2.9999999999999997e-05,4
17103,17713,0.0,4e-05,5e-05,0.00016999999999999999,0.00028,-1e-05,-8e-05,-2.9999999999999997e-05,4
17104,17714,0.0,4e-05,5e-05,0.00016999999999999999,0.00028,-1e-05,-8e-05,-2.9999999999999997e-05,4
17105,17715,0.0,4e-05,5e-05,0.00016999999999999999,0.00028,-1e-05,-8e-05,-2.9999999999999997e-05,4
17106,17716,0.0,4e-05,5e-05,0.00016999999999999999,0.00028,-1e-05,-8e-05,-2.9999999999999997e-05,4
17107,17717,0.0,4e-05,5e-05,0.00016999999999999999,0.00028,-1e-05,-8e-05,-2.9999999999999997e-05,4
17108,17718,0.0,4e-05,5e-05,0.00016999999999999999,0.00028,-1e-05,-8e-05,-2.9999999999999997e-05,4
17109,17719,0.0,4e-05,5e-05,0.00016999999999999999,0.00028,-1e-05,-8e-05,-2.9999999999999997e-05,4
17110,17720,0.0,4e-05,5e-05,0.00016999999999999999,0.00028,-1e-05,-8e-05,-2.9999999999999997e-05,4
17111,17721,0.0,4e-05,5e-05,0.00016999999999999999,0.00028,-1e-05,-8e-05,-2.9999999999999997e-05,4
17112,17722,0.0,4e-05,5e-05,0.00016999999999999999,0.00028,-1e-05,-8e-05,-2.9999999999999997e-05,4
17113,17723,0.0,4e-05,5e-05,0.00016999999999999999,0.00028,-1e-05,-8e-05,-2.9999999999999997e-05,4
17114,17724,0.0,4e-05,5e-05,0.00016999999999999999,0.00028,-1e-05,-8e-05,-2.9999999999999997e-05,4
17115,17725,0.0,4e-05,5e-05,0.00016999999999999999,0.00028,-1e-05,-8e-05,-2.9999999999999997e-05,4
17116,17726,0.0,4e-05,5e-05,0.00016999999999999999,0.00028,-1e-05,-8e-05,-2.9999999999999997e-05,4
17117,17727,0.0,4e-05,5e-05,0.00016999999999999999,0.00028,-1e-05,-8e-05,-2.9999999999999997e-05,4
17118,17728,0.0,4e-05,5e-05,0.00016999999999999999,0.00028,-1e-05,-8e-05,-2.9999999999999997e-05,4
17119,17729,0.0,4e-05,5e-05,0.00016999999999999999,0.00028,-1e-05,-8e-05,-2.9999999999999997e-05,4
17120,17730,0.0,-2e-05,-0.00014,-0.00022999999999999998,-0.00044,-0.00028,0.0,2e-05,4
17121,17731,-1e-05,-7e-05,-7e-05,-0.00011999999999999999,-5.9999999999999995e-05,0.00014,-4e-05,-2.9999999999999997e-05,4
17122,17732,-1e-05,-7e-05,-7e-05,-0.00011999999999999999,-5.9999999999999995e-05,0.00014,-4e-05,-2.9999999999999997e-05,4
17123,17733,-1e-05,-7e-05,-7e-05,-0.00011999999999999999,-5.9999999999999995e-05,0.00014,-4e-05,-2.9999999999999997e-05,4
17124,17734,-1e-05,-7e-05,-7e-05,-0.00011999999999999999,-5.9999999999999995e-05,0.00014,-4e-05,-2.9999999999999997e-05,4
17125,17735,-1e-05,-7e-05,-7e-05,-0.00011999999999999999,-5.9999999999999995e-05,0.00014,-4e-05,-2.9999999999999997e-05,4
17126,17736,-1e-05,-7e-05,-7e-05,-0.00011999999999999999,-5.9999999999999995e-05,0.00014,-4e-05,-2.9999999999999997e-05,4
17127,17739,-1e-05,-7e-05,-7e-05,-0.00011999999999999999,-5.9999999999999995e-05,0.00014,-4e-05,-2.9999999999999997e-05,4
17128,17740,-1e-05,-7e-05,-7e-05,-0.00011999999999999999,-5.9999999999999995e-05,0.00014,-4e-05,-2.9999999999999997e-05,4
17129,17741,-1e-05,-7e-05,-7e-05,-0.00011999999999999999,-5.9999999999999995e-05,0.00014,-4e-05,-2.9999999999999997e-05,4
17130,17742,-1e-05,-7e-05,-7e-05,-0.00011999999999999999,-5.9999999999999995e-05,0.00014,-4e-05,-2.9999999999999997e-05,4
17131,17743,-1e-05,-7e-05,-7e-05,-0.00011999999999999999,-5.9999999999999995e-05,0.00014,-4e-05,-2.9999999999999997e-05,4
17132,17744,-1e-05,-7e-05,-7e-05,-0.00011999999999999999,-5.9999999999999995e-05,0.00014,-4e-05,-2.9999999999999997e-05,4
17133,17745,-1e-05,-7e-05,-7e-05,-0.00011999999999999999,-5.9999999999999995e-05,0.00014,-4e-05,-2.9999999999999997e-05,4
17134,17746,-1e-05,-7e-05,-7e-05,-0.00011999999999999999,-5.9999999999999995e-05,0.00014,-4e-05,-2.9999999999999997e-05,4
17135,17747,-1e-05,-7e-05,-7e-05,-0.00011999999999999999,-5.9999999999999995e-05,0.00014,-4e-05,-2.9999999999999997e-05,4
17136,17748,-1e-05,-7e-05,-7e-05,-0.00011999999999999999,-5.9999999999999995e-05,0.00014,-4e-05,-2.9999999999999997e-05,4
17137,17749,-1e-05,-7e-05,-7e-05,-0.00011999999999999999,-5.9999999999999995e-05,0.00014,-4e-05,-2.9999999999999997e-05,4
17138,17750,-1e-05,-7e-05,-7e-05,-0.00011999999999999999,-5.9999999999999995e-05,0.00014,-4e-05,-2.9999999999999997e-05,4
17139,17751,-1e-05,-7e-05,-7e-05,-0.00011999999999999999,-5.9999999999999995e-05,0.00014,-4e-05,-2.9999999999999997e-05,4
17140,17752,-1e-05,-7e-05,-7e-05,-0.00011999999999999999,-5.9999999999999995e-05,0.00014,-4e-05,-2.9999999999999997e-05,4
17141,17753,-4e-05,1e-05,4e-05,7e-05,-4e-05,-0.00022999999999999998,-5e-05,-2.9999999999999997e-05,4
17142,17754,1e-05,-1e-05,-4e-05,-5e-05,0.00026000000000000003,0.00056,5e-05,-1e-05,4
17143,17755,1e-05,-1e-05,-4e-05,-5e-05,0.00026000000000000003,0.00056,5e-05,-1e-05,4
17144,17756,1e-05,-1e-05,-4e-05,-5e-05,0.00026000000000000003,0.00056,5e-05,-1e-05,4
17145,17757,1e-05,-1e-05,-4e-05,-5e-05,0.00026000000000000003,0.00056,5e-05,-1e-05,4
17146,17758,1e-05,-1e-05,-4e-05,-5e-05,0.00026000000000000003,0.00056,5e-05,-1e-05,4
17147,17759,1e-05,-1e-05,-4e-05,-5e-05,0.00026000000000000003,0.00056,5e-05,-1e-05,4
17148,17760,1e-05,-1e-05,-4e-05,-5e-05,0.00026000000000000003,0.00056,5e-05,-1e-05,4
17149,17761,1e-05,-1e-05,-4e-05,-5e-05,0.00026000000000000003,0.00056,5e-05,-1e-05,4
17150,17762,1e-05,-1e-05,-4e-05,-5e-05,0.00026000000000000003,0.00056,5e-05,-1e-05,4
17151,17763,1e-05,-1e-05,-4e-05,-5e-05,0.00026000000000000003,0.00056,5e-05,-1e-05,4
17152,17764,1e-05,-1e-05,-4e-05,-5e-05,0.00026000000000000003,0.00056,5e-05,-1e-05,4
17153,17765,1e-05,-1e-05,-4e-05,-5e-05,0.00026000000000000003,0.00056,5e-05,-1e-05,4
17154,17766,1e-05,-1e-05,-4e-05,-5e-05,0.00026000000000000003,0.00056,5e-05,-1e-05,4
17155,17767,1e-05,-1e-05,-4e-05,-5e-05,0.00026000000000000003,0.00056,5e-05,-1e-05,4
17156,17768,0.0,1e-05,5.9999999999999995e-05,0.00021,0.00067,0.00047000000000000004,0.0001,1e-05,4
17157,17769,-2.9999999999999997e-05,-1e-05,5.9999999999999995e-05,0.0,-0.00062,-0.00033,-8e-05,-4e-05,4
17158,17770,-2.9999999999999997e-05,-1e-05,5.9999999999999995e-05,0.0,-0.00062,-0.00033,-8e-05,-4e-05,4
17159,17771,-2.9999999999999997e-05,-1e-05,5.9999999999999995e-05,0.0,-0.00062,-0.00033,-8e-05,-4e-05,4
17160,17772,-2.9999999999999997e-05,-1e-05,5.9999999999999995e-05,0.0,-0.00062,-0.00033,-8e-05,-4e-05,4
17161,17773,-2.9999999999999997e-05,-1e-05,5.9999999999999995e-05,0.0,-0.00062,-0.00033,-8e-05,-4e-05,4
17162,17774,-2.9999999999999997e-05,-1e-05,5.9999999999999995e-05,0.0,-0.00062,-0.00033,-8e-05,-4e-05,4
17163,17775,-2.9999999999999997e-05,-1e-05,5.9999999999999995e-05,0.0,-0.00062,-0.00033,-8e-05,-4e-05,4
17164,17776,-2.9999999999999997e-05,-1e-05,5.9999999999999995e-05,0.0,-0.00062,-0.00033,-8e-05,-4e-05,4
17165,17777,-2.9999999999999997e-05,-1e-05,5.9999999999999995e-05,0.0,-0.00062,-0.00033,-8e-05,-4e-05,4
17166,17778,-2.9999999999999997e-05,-1e-05,5.9999999999999995e-05,0.0,-0.00062,-0.00033,-8e-05,-4e-05,4
17167,17779,-2.9999999999999997e-05,-1e-05,5.9999999999999995e-05,0.0,-0.00062,-0.00033,-8e-05,-4e-05,4
17168,17780,-2.9999999999999997e-05,-1e-05,5.9999999999999995e-05,0.0,-0.00062,-0.00033,-8e-05,-4e-05,4
17169,17781,-2.9999999999999997e-05,-1e-05,5.9999999999999995e-05,0.0,-0.00062,-0.00033,-8e-05,-4e-05,4
17170,17782,-2.9999999999999997e-05,-1e-05,5.9999999999999995e-05,0.0,-0.00062,-0.00033,-8e-05,-4e-05,4
17171,17783,-2.9999999999999997e-05,-1e-05,5.9999999999999995e-05,0.0,-0.00062,-0.00033,-8e-05,-4e-05,4
17172,17784,-2.9999999999999997e-05,-1e-05,5.9999999999999995e-05,0.0,-0.00062,-0.00033,-8e-05,-4e-05,4
17173,17785,-2.9999999999999997e-05,-1e-05,5.9999999999999995e-05,0.0,-0.00062,-0.00033,-8e-05,-4e-05,4
17174,17786,-2.9999999999999997e-05,-1e-05,5.9999999999999995e-05,0.0,-0.00062,-0.00033,-8e-05,-4e-05,4
17175,17788,-2.9999999999999997e-05,-1e-05,5.9999999999999995e-05,0.0,-0.00062,-0.00033,-8e-05,-4e-05,4
17176,17790,-2e-05,-8e-05,-5e-05,0.00029,0.00098,0.0,-5e-05,-2e-05,4
17177,17791,5e-05,5e-05,1e-05,0.0001,0.00041,0.00011999999999999999,5e-05,5e-05,4
17178,17792,5e-05,5e-05,1e-05,0.0001,0.00041,0.00011999999999999999,5e-05,5e-05,4
17179,17793,5e-05,5e-05,1e-05,0.0001,0.00041,0.00011999999999999999,5e-05,5e-05,4
17180,17794,5e-05,5e-05,1e-05,0.0001,0.00041,0.00011999999999999999,5e-05,5e-05,4
17181,17795,5e-05,5e-05,1e-05,0.0001,0.00041,0.00011999999999999999,5e-05,5e-05,4
17182,17796,5e-05,5e-05,1e-05,0.0001,0.00041,0.00011999999999999999,5e-05,5e-05,4
17183,17797,5e-05,5e-05,1e-05,0.0001,0.00041,0.00011999999999999999,5e-05,5e-05,4
