,time,channel1,channel2,channel3,channel4,channel5,channel6,channel7,channel8,class
18263,18919,7e-05,1e-05,-0.00026000000000000003,-0.00116,-0.00115,-0.0011,0.00028,0.00015,4
18264,18920,7e-05,1e-05,-0.00026000000000000003,-0.00116,-0.00115,-0.0011,0.00028,0.00015,4
18265,18921,7e-05,1e-05,-0.00026000000000000003,-0.00116,-0.00115,-0.0011,0.00028,0.00015,4
18266,18922,7e-05,1e-05,-0.00026000000000000003,-0.00116,-0.00115,-0.0011,0.00028,0.00015,4
18267,18923,7e-05,1e-05,-0.00026000000000000003,-0.00116,-0.00115,-0.0011,0.00028,0.00015,4
18268,18924,-4e-05,-2.9999999999999997e-05,-2e-05,1e-05,-0.00064,0.00063,0.00013000000000000002,-2e-05,4
18269,18925,-4e-05,-1e-05,0.00016,0.0007099999999999999,0.00035,0.0002,-8e-05,-8e-05,4
18270,18926,-4e-05,-1e-05,0.00016,0.0007099999999999999,0.00035,0.0002,-8e-05,-8e-05,4
18271,18927,-4e-05,-1e-05,0.00016,0.0007099999999999999,0.00035,0.0002,-8e-05,-8e-05,4
18272,18928,-4e-05,-1e-05,0.00016,0.0007099999999999999,0.00035,0.0002,-8e-05,-8e-05,4
18273,18929,-4e-05,-1e-05,0.00016,0.0007099999999999999,0.00035,0.0002,-8e-05,-8e-05,4
18274,18930,-4e-05,-1e-05,0.00016,0.0007099999999999999,0.00035,0.0002,-8e-05,-8e-05,4
18275,18931,-4e-05,-1e-05,0.00016,0.0007099999999999999,0.00035,0.0002,-8e-05,-8e-05,4
18276,18932,-4e-05,-1e-05,0.00016,0.0007099999999999999,0.00035,0.0002,-8e-05,-8e-05,4
18277,18933,-4e-05,-1e-05,0.00016,0.0007099999999999999,0.00035,0.0002,-8e-05,-8e-05,4
18278,18934,-4e-05,-1e-05,0.00016,0.0007099999999999999,0.00035,0.0002,-8e-05,-8e-05,4
18279,18935,-4e-05,-1e-05,0.00016,0.0007099999999999999,0.00035,0.0002,-8e-05,-8e-05,4
18280,18936,-4e-05,-1e-05,0.00016,0.0007099999999999999,0.00035,0.0002,-8e-05,-8e-05,4
18281,18938,5.9999999999999995e-05,8e-05,0.00018999999999999998,0.00063,0.0003,-0.0004,8e-05,5.9999999999999995e-05,4
18282,18939,5.9999999999999995e-05,8e-05,0.00018999999999999998,0.00063,0.0003,-0.0004,8e-05,5.9999999999999995e-05,4
18283,18940,5.9999999999999995e-05,8e-05,0.00018999999999999998,0.00063,0.0003,-0.0004,8e-05,5.9999999999999995e-05,4
18284,18941,5.9999999999999995e-05,8e-05,0.00018999999999999998,0.00063,0.0003,-0.0004,8e-05,5.9999999999999995e-05,4
18285,18942,5.9999999999999995e-05,8e-05,0.00018999999999999998,0.00063,0.0003,-0.0004,8e-05,5.9999999999999995e-05,4
18286,18943,5.9999999999999995e-05,8e-05,0.00018999999999999998,0.00063,0.0003,-0.0004,8e-05,5.9999999999999995e-05,4
18287,18944,5.9999999999999995e-05,8e-05,0.00018999999999999998,0.00063,0.0003,-0.0004,8e-05,5.9999999999999995e-05,4
18288,18945,5.9999999999999995e-05,8e-05,0.00018999999999999998,0.00063,0.0003,-0.0004,8e-05,5.9999999999999995e-05,4
18289,18946,5.9999999999999995e-05,8e-05,0.00018999999999999998,0.00063,0.0003,-0.0004,8e-05,5.9999999999999995e-05,4
18290,18947,-5.9999999999999995e-05,-4e-05,-5.9999999999999995e-05,-0.00054,-0.00036,8e-05,-0.00014,-9e-05,4
18291,18948,-5.9999999999999995e-05,-4e-05,-5.9999999999999995e-05,-0.00054,-0.00036,8e-05,-0.00014,-9e-05,4
18292,18949,-5.9999999999999995e-05,-4e-05,-5.9999999999999995e-05,-0.00054,-0.00036,8e-05,-0.00014,-9e-05,4
18293,18950,-5.9999999999999995e-05,-4e-05,-5.9999999999999995e-05,-0.00054,-0.00036,8e-05,-0.00014,-9e-05,4
18294,18951,-5.9999999999999995e-05,-4e-05,-5.9999999999999995e-05,-0.00054,-0.00036,8e-05,-0.00014,-9e-05,4
18295,18952,-5.9999999999999995e-05,-4e-05,-5.9999999999999995e-05,-0.00054,-0.00036,8e-05,-0.00014,-9e-05,4
18296,18953,-5.9999999999999995e-05,-4e-05,-5.9999999999999995e-05,-0.00054,-0.00036,8e-05,-0.00014,-9e-05,4
18297,18954,-5.9999999999999995e-05,-4e-05,-5.9999999999999995e-05,-0.00054,-0.00036,8e-05,-0.00014,-9e-05,4
18298,18955,-5.9999999999999995e-05,-4e-05,-5.9999999999999995e-05,-0.00054,-0.00036,8e-05,-0.00014,-9e-05,4
18299,18956,-5.9999999999999995e-05,-4e-05,-5.9999999999999995e-05,-0.00054,-0.00036,8e-05,-0.00014,-9e-05,4
18300,18957,-5.9999999999999995e-05,-4e-05,-5.9999999999999995e-05,-0.00054,-0.00036,8e-05,-0.00014,-9e-05,4
18301,18958,-5.9999999999999995e-05,-4e-05,-5.9999999999999995e-05,-0.00054,-0.00036,8e-05,-0.00014,-9e-05,4
18302,18959,-5.9999999999999995e-05,-4e-05,-5.9999999999999995e-05,-0.00054,-0.00036,8e-05,-0.00014,-9e-05,4
18303,18960,-5.9999999999999995e-05,-4e-05,-5.9999999999999995e-05,-0.00054,-0.00036,8e-05,-0.00014,-9e-05,4
18304,18961,0.0,0.0,-5e-05,-5.9999999999999995e-05,-0.00085,-0.00018,2.9999999999999997e-05,1e-05,4
18305,18962,4e-05,4e-05,-2e-05,-9e-05,0.00037,-0.00056,0.0001,5.9999999999999995e-05,4
18306,18963,4e-05,4e-05,-2e-05,-9e-05,0.00037,-0.00056,0.0001,5.9999999999999995e-05,4
18307,18964,4e-05,4e-05,-2e-05,-9e-05,0.00037,-0.00056,0.0001,5.9999999999999995e-05,4
18308,18965,4e-05,4e-05,-2e-05,-9e-05,0.00037,-0.00056,0.0001,5.9999999999999995e-05,4
18309,18966,4e-05,4e-05,-2e-05,-9e-05,0.00037,-0.00056,0.0001,5.9999999999999995e-05,4
18310,18967,4e-05,4e-05,-2e-05,-9e-05,0.00037,-0.00056,0.0001,5.9999999999999995e-05,4
18311,18968,4e-05,4e-05,-2e-05,-9e-05,0.00037,-0.00056,0.0001,5.9999999999999995e-05,4
18312,18969,4e-05,4e-05,-2e-05,-9e-05,0.00037,-0.00056,0.0001,5.9999999999999995e-05,4
18313,18970,4e-05,4e-05,-2e-05,-9e-05,0.00037,-0.00056,0.0001,5.9999999999999995e-05,4
18314,18971,4e-05,4e-05,-2e-05,-9e-05,0.00037,-0.00056,0.0001,5.9999999999999995e-05,4
18315,18972,4e-05,4e-05,-2e-05,-9e-05,0.00037,-0.00056,0.0001,5.9999999999999995e-05,4
18316,18973,4e-05,4e-05,-2e-05,-9e-05,0.00037,-0.00056,0.0001,5.9999999999999995e-05,4
18317,18974,4e-05,4e-05,-2e-05,-9e-05,0.00037,-0.00056,0.0001,5.9999999999999995e-05,4
18318,18975,4e-05,4e-05,-2e-05,-9e-05,0.00037,-0.00056,0.0001,5.9999999999999995e-05,4
18319,18976,4e-05,4e-05,-2e-05,-9e-05,0.00037,-0.00056,0.0001,5.9999999999999995e-05,4
18320,18977,4e-05,4e-05,-2e-05,-9e-05,0.00037,-0.00056,0.0001,5.9999999999999995e-05,4
18321,18978,4e-05,4e-05,-2e-05,-9e-05,0.00037,-0.00056,0.0001,5.9999999999999995e-05,4
18322,18979,4e-05,4e-05,-2e-05,-9e-05,0.00037,-0.00056,0.0001,5.9999999999999995e-05,4
18323,18980,4e-05,4e-05,-2e-05,-9e-05,0.00037,-0.00056,0.0001,5.9999999999999995e-05,4
18324,18981,4e-05,4e-05,-2e-05,-9e-05,0.00037,-0.00056,0.0001,5.9999999999999995e-05,4
18325,18982,4e-05,4e-05,-2e-05,-9e-05,0.00037,-0.00056,0.0001,5.9999999999999995e-05,4
18326,18983,4e-05,4e-05,-2e-05,-9e-05,0.00037,-0.00056,0.0001,5.9999999999999995e-05,4
18327,18984,-9e-05,-0.00013000000000000002,-0.00026000000000000003,-0.0004,-0.0004,0.00072,-0.00018,-0.00011,4
18328,18985,-8e-05,-9e-05,-4e-05,0.00072,-0.00088,2e-05,-0.00016999999999999999,-0.0001,4
18329,18986,-8e-05,-9e-05,-4e-05,0.00072,-0.00088,2e-05,-0.00016999999999999999,-0.0001,4
18330,18988,-8e-05,-9e-05,-4e-05,0.00072,-0.00088,2e-05,-0.00016999999999999999,-0.0001,4
18331,18989,-8e-05,-9e-05,-4e-05,0.00072,-0.00088,2e-05,-0.00016999999999999999,-0.0001,4
18332,18990,-8e-05,-9e-05,-4e-05,0.00072,-0.00088,2e-05,-0.00016999999999999999,-0.0001,4
18333,18991,-8e-05,-9e-05,-4e-05,0.00072,-0.00088,2e-05,-0.00016999999999999999,-0.0001,4
18334,18992,-8e-05,-9e-05,-4e-05,0.00072,-0.00088,2e-05,-0.00016999999999999999,-0.0001,4
18335,18993,-8e-05,-9e-05,-4e-05,0.00072,-0.00088,2e-05,-0.00016999999999999999,-0.0001,4
18336,18994,-8e-05,-9e-05,-4e-05,0.00072,-0.00088,2e-05,-0.00016999999999999999,-0.0001,4
18337,18995,-8e-05,-9e-05,-4e-05,0.00072,-0.00088,2e-05,-0.00016999999999999999,-0.0001,4
18338,18996,-8e-05,-9e-05,-4e-05,0.00072,-0.00088,2e-05,-0.00016999999999999999,-0.0001,4
18339,18997,-8e-05,-9e-05,-4e-05,0.00072,-0.00088,2e-05,-0.00016999999999999999,-0.0001,4
18340,18998,-8e-05,-9e-05,-4e-05,0.00072,-0.00088,2e-05,-0.00016999999999999999,-0.0001,4
18341,18999,0.0,4e-05,0.00018999999999999998,0.00078,-0.00049,-0.00061,-2e-05,0.0,4
18342,19000,-5e-05,0.0,8e-05,0.00054,-0.00037,0.00013000000000000002,-0.00014,-8e-05,4
18343,19001,-5e-05,0.0,8e-05,0.00054,-0.00037,0.00013000000000000002,-0.00014,-8e-05,4
18344,19002,-5e-05,0.0,8e-05,0.00054,-0.00037,0.00013000000000000002,-0.00014,-8e-05,4
18345,19003,-5e-05,0.0,8e-05,0.00054,-0.00037,0.00013000000000000002,-0.00014,-8e-05,4
18346,19004,-5e-05,0.0,8e-05,0.00054,-0.00037,0.00013000000000000002,-0.00014,-8e-05,4
18347,19005,-5e-05,0.0,8e-05,0.00054,-0.00037,0.00013000000000000002,-0.00014,-8e-05,4
18348,19006,-5e-05,0.0,8e-05,0.00054,-0.00037,0.00013000000000000002,-0.00014,-8e-05,4
18349,19007,-5e-05,0.0,8e-05,0.00054,-0.00037,0.00013000000000000002,-0.00014,-8e-05,4
18350,19008,-5e-05,0.0,8e-05,0.00054,-0.00037,0.00013000000000000002,-0.00014,-8e-05,4
18351,19009,-5e-05,0.0,8e-05,0.00054,-0.00037,0.00013000000000000002,-0.00014,-8e-05,4
18352,19010,-5e-05,0.0,8e-05,0.00054,-0.00037,0.00013000000000000002,-0.00014,-8e-05,4
18353,19011,-5e-05,0.0,8e-05,0.00054,-0.00037,0.00013000000000000002,-0.00014,-8e-05,4
18354,19012,-5e-05,0.0,8e-05,0.00054,-0.00037,0.00013000000000000002,-0.00014,-8e-05,4
18355,19013,-5e-05,0.0,8e-05,0.00054,-0.00037,0.00013000000000000002,-0.00014,-8e-05,4
18356,19014,-5e-05,0.0,8e-05,0.00054,-0.00037,0.00013000000000000002,-0.00014,-8e-05,4
18357,19015,-5e-05,0.0,8e-05,0.00054,-0.00037,0.00013000000000000002,-0.00014,-8e-05,4
18358,19016,-5e-05,0.0,8e-05,0.00054,-0.00037,0.00013000000000000002,-0.00014,-8e-05,4
18359,19017,-5e-05,0.0,8e-05,0.00054,-0.00037,0.00013000000000000002,-0.00014,-8e-05,4
18360,19018,-5e-05,0.0,8e-05,0.00054,-0.00037,0.00013000000000000002,-0.00014,-8e-05,4
18361,19019,-5e-05,0.0,8e-05,0.00054,-0.00037,0.00013000000000000002,-0.00014,-8e-05,4
18362,19020,-5e-05,0.0,8e-05,0.00054,-0.00037,0.00013000000000000002,-0.00014,-8e-05,4
18363,19021,0.0,1e-05,9e-05,-0.00013000000000000002,-0.00022,-0.00025,-2e-05,2e-05,4
18364,19022,-5e-05,-4e-05,7e-05,0.00107,0.00079,-0.00015,-0.0001,-7e-05,4
18365,19023,-5e-05,-4e-05,7e-05,0.00107,0.00079,-0.00015,-0.0001,-7e-05,4
18366,19024,-5e-05,-4e-05,7e-05,0.00107,0.00079,-0.00015,-0.0001,-7e-05,4
18367,19025,-5e-05,-4e-05,7e-05,0.00107,0.00079,-0.00015,-0.0001,-7e-05,4
18368,19026,-5e-05,-4e-05,7e-05,0.00107,0.00079,-0.00015,-0.0001,-7e-05,4
18369,19027,-5e-05,-4e-05,7e-05,0.00107,0.00079,-0.00015,-0.0001,-7e-05,4
18370,19028,-5e-05,-4e-05,7e-05,0.00107,0.00079,-0.00015,-0.0001,-7e-05,4
18371,19029,-5e-05,-4e-05,7e-05,0.00107,0.00079,-0.00015,-0.0001,-7e-05,4
18372,19030,-5e-05,-4e-05,7e-05,0.00107,0.00079,-0.00015,-0.0001,-7e-05,4
18373,19031,-5e-05,-4e-05,7e-05,0.00107,0.00079,-0.00015,-0.0001,-7e-05,4
18374,19032,-5e-05,-4e-05,7e-05,0.00107,0.00079,-0.00015,-0.0001,-7e-05,4
18375,19033,-5e-05,-4e-05,7e-05,0.00107,0.00079,-0.00015,-0.0001,-7e-05,4
18376,19034,-5e-05,-4e-05,7e-05,0.00107,0.00079,-0.00015,-0.0001,-7e-05,4
18377,19035,-5e-05,-4e-05,7e-05,0.00107,0.00079,-0.00015,-0.0001,-7e-05,4
18378,19036,-5e-05,-4e-05,7e-05,0.00107,0.00079,-0.00015,-0.0001,-7e-05,4
18379,19038,-5e-05,-4e-05,7e-05,0.00107,0.00079,-0.00015,-0.0001,-7e-05,4
18380,19040,-5e-05,-4e-05,7e-05,0.00107,0.00079,-0.00015,-0.0001,-7e-05,4
18381,19041,-5e-05,-4e-05,7e-05,0.00107,0.00079,-0.00015,-0.0001,-7e-05,4
18382,19042,-5e-05,-4e-05,7e-05,0.00107,0.00079,-0.00015,-0.0001,-7e-05,4
18383,19043,-5e-05,-4e-05,7e-05,0.00107,0.00079,-0.00015,-0.0001,-7e-05,4
18384,19044,-2e-05,-2e-05,2e-05,-0.00028,-0.00021,0.0008,0.00011999999999999999,-2e-05,4
18385,19045,2.9999999999999997e-05,2.9999999999999997e-05,2.9999999999999997e-05,-5.9999999999999995e-05,0.0005200000000000001,-0.0009599999999999999,-9e-05,2.9999999999999997e-05,4
18386,19046,2.9999999999999997e-05,2.9999999999999997e-05,2.9999999999999997e-05,-5.9999999999999995e-05,0.0005200000000000001,-0.0009599999999999999,-9e-05,2.9999999999999997e-05,4
18387,19047,2.9999999999999997e-05,2.9999999999999997e-05,2.9999999999999997e-05,-5.9999999999999995e-05,0.0005200000000000001,-0.0009599999999999999,-9e-05,2.9999999999999997e-05,4
18388,19048,2.9999999999999997e-05,2.9999999999999997e-05,2.9999999999999997e-05,-5.9999999999999995e-05,0.0005200000000000001,-0.0009599999999999999,-9e-05,2.9999999999999997e-05,4
18389,19049,2.9999999999999997e-05,2.9999999999999997e-05,2.9999999999999997e-05,-5.9999999999999995e-05,0.0005200000000000001,-0.0009599999999999999,-9e-05,2.9999999999999997e-05,4
18390,19050,2.9999999999999997e-05,2.9999999999999997e-05,2.9999999999999997e-05,-5.9999999999999995e-05,0.0005200000000000001,-0.0009599999999999999,-9e-05,2.9999999999999997e-05,4
18391,19051,2.9999999999999997e-05,2.9999999999999997e-05,2.9999999999999997e-05,-5.9999999999999995e-05,0.0005200000000000001,-0.0009599999999999999,-9e-05,2.9999999999999997e-05,4
18392,19052,2.9999999999999997e-05,2.9999999999999997e-05,2.9999999999999997e-05,-5.9999999999999995e-05,0.0005200000000000001,-0.0009599999999999999,-9e-05,2.9999999999999997e-05,4
18393,19053,2.9999999999999997e-05,2.9999999999999997e-05,2.9999999999999997e-05,-5.9999999999999995e-05,0.0005200000000000001,-0.0009599999999999999,-9e-05,2.9999999999999997e-05,4
18394,19054,2.9999999999999997e-05,2.9999999999999997e-05,2.9999999999999997e-05,-5.9999999999999995e-05,0.0005200000000000001,-0.0009599999999999999,-9e-05,2.9999999999999997e-05,4
18395,19055,2.9999999999999997e-05,2.9999999999999997e-05,2.9999999999999997e-05,-5.9999999999999995e-05,0.0005200000000000001,-0.0009599999999999999,-9e-05,2.9999999999999997e-05,4
18396,19056,2.9999999999999997e-05,2.9999999999999997e-05,2.9999999999999997e-05,-5.9999999999999995e-05,0.0005200000000000001,-0.0009599999999999999,-9e-05,2.9999999999999997e-05,4
18397,19057,2.9999999999999997e-05,2.9999999999999997e-05,2.9999999999999997e-05,-5.9999999999999995e-05,0.0005200000000000001,-0.0009599999999999999,-9e-05,2.9999999999999997e-05,4
18398,19058,-2.9999999999999997e-05,-9e-05,-0.00033,-0.0008900000000000001,0.00059,-5.9999999999999995e-05,-9e-05,-7e-05,4
18399,19059,-2.9999999999999997e-05,-9e-05,-0.00033,-0.0008900000000000001,0.00059,-5.9999999999999995e-05,-9e-05,-7e-05,4
18400,19060,-2.9999999999999997e-05,-9e-05,-0.00033,-0.0008900000000000001,0.00059,-5.9999999999999995e-05,-9e-05,-7e-05,4
18401,19061,-2.9999999999999997e-05,-9e-05,-0.00033,-0.0008900000000000001,0.00059,-5.9999999999999995e-05,-9e-05,-7e-05,4
18402,19062,-2.9999999999999997e-05,-9e-05,-0.00033,-0.0008900000000000001,0.00059,-5.9999999999999995e-05,-9e-05,-7e-05,4
18403,19063,-2.9999999999999997e-05,-9e-05,-0.00033,-0.0008900000000000001,0.00059,-5.9999999999999995e-05,-9e-05,-7e-05,4
18404,19064,-2.9999999999999997e-05,-9e-05,-0.00033,-0.0008900000000000001,0.00059,-5.9999999999999995e-05,-9e-05,-7e-05,4
18405,19065,-2.9999999999999997e-05,-9e-05,-0.00033,-0.0008900000000000001,0.00059,-5.9999999999999995e-05,-9e-05,-7e-05,4
18406,19066,-2e-05,0.0,0.0,0.00054,0.001,0.0007,-2e-05,-5e-05,4
18407,19067,-2e-05,0.0,0.0,0.00054,0.001,0.0007,-2e-05,-5e-05,4
18408,19068,-2e-05,0.0,0.0,0.00054,0.001,0.0007,-2e-05,-5e-05,4
18409,19069,-2e-05,0.0,0.0,0.00054,0.001,0.0007,-2e-05,-5e-05,4
18410,19070,-2e-05,0.0,0.0,0.00054,0.001,0.0007,-2e-05,-5e-05,4
18411,19071,-2e-05,0.0,0.0,0.00054,0.001,0.0007,-2e-05,-5e-05,4
18412,19072,-2e-05,0.0,0.0,0.00054,0.001,0.0007,-2e-05,-5e-05,4
18413,19073,-2e-05,0.0,0.0,0.00054,0.001,0.0007,-2e-05,-5e-05,4
18414,19074,-2e-05,0.0,0.0,0.00054,0.001,0.0007,-2e-05,-5e-05,4
18415,19075,-2e-05,0.0,0.0,0.00054,0.001,0.0007,-2e-05,-5e-05,4
18416,19076,-2e-05,0.0,0.0,0.00054,0.001,0.0007,-2e-05,-5e-05,4
18417,19077,-2e-05,0.0,0.0,0.00054,0.001,0.0007,-2e-05,-5e-05,4
18418,19078,-2e-05,0.0,0.0,0.00054,0.001,0.0007,-2e-05,-5e-05,4
18419,19079,-2e-05,0.0,0.0,0.00054,0.001,0.0007,-2e-05,-5e-05,4
18420,19080,-2e-05,0.0,0.0,0.00054,0.001,0.0007,-2e-05,-5e-05,4
18421,19081,-5e-05,-4e-05,-4e-05,-0.00023999999999999998,0.00081,0.00067,-8e-05,-5.9999999999999995e-05,4
18422,19082,-1e-05,-4e-05,-0.0001,-0.00035,9e-05,-0.0007599999999999999,-7e-05,-2.9999999999999997e-05,4
18423,19083,-1e-05,-4e-05,-0.0001,-0.00035,9e-05,-0.0007599999999999999,-7e-05,-2.9999999999999997e-05,4
18424,19085,-1e-05,-4e-05,-0.0001,-0.00035,9e-05,-0.0007599999999999999,-7e-05,-2.9999999999999997e-05,4
18425,19087,-1e-05,-4e-05,-0.0001,-0.00035,9e-05,-0.0007599999999999999,-7e-05,-2.9999999999999997e-05,4
18426,19089,-1e-05,-4e-05,-0.0001,-0.00035,9e-05,-0.0007599999999999999,-7e-05,-2.9999999999999997e-05,4
18427,19090,-1e-05,-4e-05,-0.0001,-0.00035,9e-05,-0.0007599999999999999,-7e-05,-2.9999999999999997e-05,4
18428,19091,-1e-05,-4e-05,-0.0001,-0.00035,9e-05,-0.0007599999999999999,-7e-05,-2.9999999999999997e-05,4
18429,19092,-1e-05,-4e-05,-0.0001,-0.00035,9e-05,-0.0007599999999999999,-7e-05,-2.9999999999999997e-05,4
18430,19093,-1e-05,-4e-05,-0.0001,-0.00035,9e-05,-0.0007599999999999999,-7e-05,-2.9999999999999997e-05,4
18431,19094,-1e-05,-4e-05,-0.0001,-0.00035,9e-05,-0.0007599999999999999,-7e-05,-2.9999999999999997e-05,4
18432,19095,-1e-05,-4e-05,-0.0001,-0.00035,9e-05,-0.0007599999999999999,-7e-05,-2.9999999999999997e-05,4
18433,19096,-1e-05,-4e-05,-0.0001,-0.00035,9e-05,-0.0007599999999999999,-7e-05,-2.9999999999999997e-05,4
18434,19097,-1e-05,-4e-05,-0.0001,-0.00035,9e-05,-0.0007599999999999999,-7e-05,-2.9999999999999997e-05,4
18435,19098,-1e-05,-4e-05,-0.0001,-0.00035,9e-05,-0.0007599999999999999,-7e-05,-2.9999999999999997e-05,4
18436,19099,-1e-05,-4e-05,-0.0001,-0.00035,9e-05,-0.0007599999999999999,-7e-05,-2.9999999999999997e-05,4
18437,19100,-1e-05,-4e-05,-0.0001,-0.00035,9e-05,-0.0007599999999999999,-7e-05,-2.9999999999999997e-05,4
18438,19101,-1e-05,-4e-05,-0.0001,-0.00035,9e-05,-0.0007599999999999999,-7e-05,-2.9999999999999997e-05,4
18439,19102,-1e-05,-4e-05,-0.0001,-0.00035,9e-05,-0.0007599999999999999,-7e-05,-2.9999999999999997e-05,4
18440,19103,-1e-05,-4e-05,-0.0001,-0.00035,9e-05,-0.0007599999999999999,-7e-05,-2.9999999999999997e-05,4
18441,19104,-5.9999999999999995e-05,-7e-05,-0.00011999999999999999,0.00016999999999999999,-0.00018999999999999998,-0.00042,-7e-05,-5.9999999999999995e-05,4
18442,19105,-8e-05,-0.0001,-0.0001,-0.0005200000000000001,-0.00081,0.00045,1e-05,-5e-05,4
18443,19106,-8e-05,-0.0001,-0.0001,-0.0005200000000000001,-0.00081,0.00045,1e-05,-5e-05,4
18444,19107,-8e-05,-0.0001,-0.0001,-0.0005200000000000001,-0.00081,0.00045,1e-05,-5e-05,4
18445,19108,-8e-05,-0.0001,-0.0001,-0.0005200000000000001,-0.00081,0.00045,1e-05,-5e-05,4
18446,19109,-8e-05,-0.0001,-0.0001,-0.0005200000000000001,-0.00081,0.00045,1e-05,-5e-05,4
18447,19110,-8e-05,-0.0001,-0.0001,-0.0005200000000000001,-0.00081,0.00045,1e-05,-5e-05,4
18448,19111,-8e-05,-0.0001,-0.0001,-0.0005200000000000001,-0.00081,0.00045,1e-05,-5e-05,4
18449,19112,-8e-05,-0.0001,-0.0001,-0.0005200000000000001,-0.00081,0.00045,1e-05,-5e-05,4
18450,19113,-8e-05,-0.0001,-0.0001,-0.0005200000000000001,-0.00081,0.00045,1e-05,-5e-05,4
18451,19114,-8e-05,-0.0001,-0.0001,-0.0005200000000000001,-0.00081,0.00045,1e-05,-5e-05,4
18452,19115,-8e-05,-0.0001,-0.0001,-0.0005200000000000001,-0.00081,0.00045,1e-05,-5e-05,4
18453,19116,-8e-05,-0.0001,-0.0001,-0.0005200000000000001,-0.00081,0.00045,1e-05,-5e-05,4
18454,19117,-8e-05,-0.0001,-0.0001,-0.0005200000000000001,-0.00081,0.00045,1e-05,-5e-05,4
18455,19118,0.0,-2.9999999999999997e-05,-8e-05,0.00022999999999999998,0.00086,0.00035,-4e-05,-1e-05,4
18456,19119,0.0,-2.9999999999999997e-05,-8e-05,0.00022999999999999998,0.00086,0.00035,-4e-05,-1e-05,4
18457,19120,0.0,-2.9999999999999997e-05,-8e-05,0.00022999999999999998,0.00086,0.00035,-4e-05,-1e-05,4
18458,19121,0.0,-2.9999999999999997e-05,-8e-05,0.00022999999999999998,0.00086,0.00035,-4e-05,-1e-05,4
18459,19122,0.0,-2.9999999999999997e-05,-8e-05,0.00022999999999999998,0.00086,0.00035,-4e-05,-1e-05,4
18460,19123,0.0,-2.9999999999999997e-05,-8e-05,0.00022999999999999998,0.00086,0.00035,-4e-05,-1e-05,4
18461,19124,0.0,-2.9999999999999997e-05,-8e-05,0.00022999999999999998,0.00086,0.00035,-4e-05,-1e-05,4
18462,19125,0.0,-2.9999999999999997e-05,-8e-05,0.00022999999999999998,0.00086,0.00035,-4e-05,-1e-05,4
18463,19126,2e-05,1e-05,9e-05,0.00022999999999999998,-5.9999999999999995e-05,-0.00014,1e-05,2.9999999999999997e-05,4
18464,19127,2e-05,1e-05,9e-05,0.00022999999999999998,-5.9999999999999995e-05,-0.00014,1e-05,2.9999999999999997e-05,4
18465,19128,2e-05,1e-05,9e-05,0.00022999999999999998,-5.9999999999999995e-05,-0.00014,1e-05,2.9999999999999997e-05,4
18466,19129,2e-05,1e-05,9e-05,0.00022999999999999998,-5.9999999999999995e-05,-0.00014,1e-05,2.9999999999999997e-05,4
18467,19130,2e-05,1e-05,9e-05,0.00022999999999999998,-5.9999999999999995e-05,-0.00014,1e-05,2.9999999999999997e-05,4
18468,19131,2e-05,1e-05,9e-05,0.00022999999999999998,-5.9999999999999995e-05,-0.00014,1e-05,2.9999999999999997e-05,4
18469,19132,2e-05,1e-05,9e-05,0.00022999999999999998,-5.9999999999999995e-05,-0.00014,1e-05,2.9999999999999997e-05,4
18470,19133,2e-05,1e-05,9e-05,0.00022999999999999998,-5.9999999999999995e-05,-0.00014,1e-05,2.9999999999999997e-05,4
18471,19134,2e-05,1e-05,9e-05,0.00022999999999999998,-5.9999999999999995e-05,-0.00014,1e-05,2.9999999999999997e-05,4
18472,19135,2e-05,1e-05,9e-05,0.00022999999999999998,-5.9999999999999995e-05,-0.00014,1e-05,2.9999999999999997e-05,4
18473,19136,2e-05,1e-05,9e-05,0.00022999999999999998,-5.9999999999999995e-05,-0.00014,1e-05,2.9999999999999997e-05,4
18474,19138,2e-05,1e-05,9e-05,0.00022999999999999998,-5.9999999999999995e-05,-0.00014,1e-05,2.9999999999999997e-05,4
18475,19139,2e-05,1e-05,9e-05,0.00022999999999999998,-5.9999999999999995e-05,-0.00014,1e-05,2.9999999999999997e-05,4
18476,19140,2e-05,1e-05,9e-05,0.00022999999999999998,-5.9999999999999995e-05,-0.00014,1e-05,2.9999999999999997e-05,4
18477,19141,0.0,1e-05,8e-05,0.00041,-0.0003,-0.00067,1e-05,-2e-05,4
18478,19142,4e-05,2.9999999999999997e-05,-7e-05,-0.00128,-0.00067,0.00033999999999999997,2.9999999999999997e-05,5.9999999999999995e-05,4
18479,19143,4e-05,2.9999999999999997e-05,-7e-05,-0.00128,-0.00067,0.00033999999999999997,2.9999999999999997e-05,5.9999999999999995e-05,4
18480,19144,4e-05,2.9999999999999997e-05,-7e-05,-0.00128,-0.00067,0.00033999999999999997,2.9999999999999997e-05,5.9999999999999995e-05,4
18481,19145,4e-05,2.9999999999999997e-05,-7e-05,-0.00128,-0.00067,0.00033999999999999997,2.9999999999999997e-05,5.9999999999999995e-05,4
18482,19146,4e-05,2.9999999999999997e-05,-7e-05,-0.00128,-0.00067,0.00033999999999999997,2.9999999999999997e-05,5.9999999999999995e-05,4
18483,19147,4e-05,2.9999999999999997e-05,-7e-05,-0.00128,-0.00067,0.00033999999999999997,2.9999999999999997e-05,5.9999999999999995e-05,4
18484,19148,4e-05,2.9999999999999997e-05,-7e-05,-0.00128,-0.00067,0.00033999999999999997,2.9999999999999997e-05,5.9999999999999995e-05,4
18485,19149,4e-05,2.9999999999999997e-05,-7e-05,-0.00128,-0.00067,0.00033999999999999997,2.9999999999999997e-05,5.9999999999999995e-05,4
18486,19150,4e-05,2.9999999999999997e-05,-7e-05,-0.00128,-0.00067,0.00033999999999999997,2.9999999999999997e-05,5.9999999999999995e-05,4
18487,19151,4e-05,2.9999999999999997e-05,-7e-05,-0.00128,-0.00067,0.00033999999999999997,2.9999999999999997e-05,5.9999999999999995e-05,4
18488,19152,4e-05,2.9999999999999997e-05,-7e-05,-0.00128,-0.00067,0.00033999999999999997,2.9999999999999997e-05,5.9999999999999995e-05,4
18489,19153,4e-05,2.9999999999999997e-05,-7e-05,-0.00128,-0.00067,0.00033999999999999997,2.9999999999999997e-05,5.9999999999999995e-05,4
18490,19154,4e-05,2.9999999999999997e-05,-7e-05,-0.00128,-0.00067,0.00033999999999999997,2.9999999999999997e-05,5.9999999999999995e-05,4
18491,19155,4e-05,2.9999999999999997e-05,-7e-05,-0.00128,-0.00067,0.00033999999999999997,2.9999999999999997e-05,5.9999999999999995e-05,4
18492,19156,4e-05,2.9999999999999997e-05,-7e-05,-0.00128,-0.00067,0.00033999999999999997,2.9999999999999997e-05,5.9999999999999995e-05,4
18493,19157,4e-05,2.9999999999999997e-05,-7e-05,-0.00128,-0.00067,0.00033999999999999997,2.9999999999999997e-05,5.9999999999999995e-05,4
18494,19158,4e-05,2.9999999999999997e-05,-7e-05,-0.00128,-0.00067,0.00033999999999999997,2.9999999999999997e-05,5.9999999999999995e-05,4
18495,19159,4e-05,2.9999999999999997e-05,-7e-05,-0.00128,-0.00067,0.00033999999999999997,2.9999999999999997e-05,5.9999999999999995e-05,4
18496,19160,4e-05,2.9999999999999997e-05,-7e-05,-0.00128,-0.00067,0.00033999999999999997,2.9999999999999997e-05,5.9999999999999995e-05,4
18497,19161,4e-05,2.9999999999999997e-05,-7e-05,-0.00128,-0.00067,0.00033999999999999997,2.9999999999999997e-05,5.9999999999999995e-05,4
18498,19162,4e-05,2.9999999999999997e-05,-7e-05,-0.00128,-0.00067,0.00033999999999999997,2.9999999999999997e-05,5.9999999999999995e-05,4
18499,19163,4e-05,2.9999999999999997e-05,-7e-05,-0.00128,-0.00067,0.00033999999999999997,2.9999999999999997e-05,5.9999999999999995e-05,4
18500,19164,-5e-05,-8e-05,-0.00011,0.00047999999999999996,0.00055,0.00016,-9e-05,-7e-05,4
18501,19165,-2e-05,-2e-05,4e-05,0.00064,-0.00075,-0.00032,-4e-05,-4e-05,4
18502,19166,-2e-05,-2e-05,4e-05,0.00064,-0.00075,-0.00032,-4e-05,-4e-05,4
18503,19167,-2e-05,-2e-05,4e-05,0.00064,-0.00075,-0.00032,-4e-05,-4e-05,4
18504,19168,-2e-05,-2e-05,4e-05,0.00064,-0.00075,-0.00032,-4e-05,-4e-05,4
18505,19169,-2e-05,-2e-05,4e-05,0.00064,-0.00075,-0.00032,-4e-05,-4e-05,4
18506,19170,-2e-05,-2e-05,4e-05,0.00064,-0.00075,-0.00032,-4e-05,-4e-05,4
18507,19171,-2e-05,-2e-05,4e-05,0.00064,-0.00075,-0.00032,-4e-05,-4e-05,4
18508,19172,-2e-05,-2e-05,4e-05,0.00064,-0.00075,-0.00032,-4e-05,-4e-05,4
18509,19173,-2e-05,-2e-05,4e-05,0.00064,-0.00075,-0.00032,-4e-05,-4e-05,4
18510,19174,-2e-05,-2e-05,4e-05,0.00064,-0.00075,-0.00032,-4e-05,-4e-05,4
18511,19175,-2e-05,-2e-05,4e-05,0.00064,-0.00075,-0.00032,-4e-05,-4e-05,4
18512,19176,-2e-05,-2e-05,4e-05,0.00064,-0.00075,-0.00032,-4e-05,-4e-05,4
18513,19177,-2e-05,-2e-05,4e-05,0.00064,-0.00075,-0.00032,-4e-05,-4e-05,4
18514,19178,-2.9999999999999997e-05,-4e-05,-5e-05,0.00014,0.0002,-0.00028,1e-05,-1e-05,4
18515,19179,-2.9999999999999997e-05,-4e-05,-5e-05,0.00014,0.0002,-0.00028,1e-05,-1e-05,4
18516,19180,-2.9999999999999997e-05,-4e-05,-5e-05,0.00014,0.0002,-0.00028,1e-05,-1e-05,4
18517,19181,-2.9999999999999997e-05,-4e-05,-5e-05,0.00014,0.0002,-0.00028,1e-05,-1e-05,4
18518,19182,-2.9999999999999997e-05,-4e-05,-5e-05,0.00014,0.0002,-0.00028,1e-05,-1e-05,4
18519,19183,-2.9999999999999997e-05,-4e-05,-5e-05,0.00014,0.0002,-0.00028,1e-05,-1e-05,4
18520,19184,-2.9999999999999997e-05,-4e-05,-5e-05,0.00014,0.0002,-0.00028,1e-05,-1e-05,4
18521,19185,-2.9999999999999997e-05,-4e-05,-5e-05,0.00014,0.0002,-0.00028,1e-05,-1e-05,4
18522,19186,2.9999999999999997e-05,1e-05,-7e-05,-0.0011,-0.0009400000000000001,-0.00022,0.00011,5e-05,4
18523,19188,1e-05,2.9999999999999997e-05,9e-05,-0.00027,9e-05,-0.00023999999999999998,-2e-05,0.0,4
18524,19189,1e-05,2.9999999999999997e-05,9e-05,-0.00027,9e-05,-0.00023999999999999998,-2e-05,0.0,4
18525,19190,1e-05,2.9999999999999997e-05,9e-05,-0.00027,9e-05,-0.00023999999999999998,-2e-05,0.0,4
18526,19191,1e-05,2.9999999999999997e-05,9e-05,-0.00027,9e-05,-0.00023999999999999998,-2e-05,0.0,4
18527,19192,1e-05,2.9999999999999997e-05,9e-05,-0.00027,9e-05,-0.00023999999999999998,-2e-05,0.0,4
18528,19193,1e-05,2.9999999999999997e-05,9e-05,-0.00027,9e-05,-0.00023999999999999998,-2e-05,0.0,4
18529,19194,1e-05,2.9999999999999997e-05,9e-05,-0.00027,9e-05,-0.00023999999999999998,-2e-05,0.0,4
18530,19195,1e-05,2.9999999999999997e-05,9e-05,-0.00027,9e-05,-0.00023999999999999998,-2e-05,0.0,4
18531,19196,1e-05,2.9999999999999997e-05,9e-05,-0.00027,9e-05,-0.00023999999999999998,-2e-05,0.0,4
18532,19197,1e-05,2.9999999999999997e-05,9e-05,-0.00027,9e-05,-0.00023999999999999998,-2e-05,0.0,4
18533,19198,1e-05,2.9999999999999997e-05,9e-05,-0.00027,9e-05,-0.00023999999999999998,-2e-05,0.0,4
18534,19199,1e-05,2.9999999999999997e-05,9e-05,-0.00027,9e-05,-0.00023999999999999998,-2e-05,0.0,4
18535,19200,1e-05,2.9999999999999997e-05,9e-05,-0.00027,9e-05,-0.00023999999999999998,-2e-05,0.0,4
18536,19201,0.0,0.0,-2e-05,-0.00022,-5.9999999999999995e-05,-0.00033,0.00021,4e-05,4
18537,19202,-2.9999999999999997e-05,-2.9999999999999997e-05,-0.0001,-0.00027,4e-05,0.00042,7e-05,-1e-05,4
18538,19203,-2.9999999999999997e-05,-2.9999999999999997e-05,-0.0001,-0.00027,4e-05,0.00042,7e-05,-1e-05,4
18539,19204,-2.9999999999999997e-05,-2.9999999999999997e-05,-0.0001,-0.00027,4e-05,0.00042,7e-05,-1e-05,4
18540,19205,-2.9999999999999997e-05,-2.9999999999999997e-05,-0.0001,-0.00027,4e-05,0.00042,7e-05,-1e-05,4
18541,19206,-2.9999999999999997e-05,-2.9999999999999997e-05,-0.0001,-0.00027,4e-05,0.00042,7e-05,-1e-05,4
18542,19207,-2.9999999999999997e-05,-2.9999999999999997e-05,-0.0001,-0.00027,4e-05,0.00042,7e-05,-1e-05,4
18543,19208,-2.9999999999999997e-05,-2.9999999999999997e-05,-0.0001,-0.00027,4e-05,0.00042,7e-05,-1e-05,4
18544,19209,-2.9999999999999997e-05,-2.9999999999999997e-05,-0.0001,-0.00027,4e-05,0.00042,7e-05,-1e-05,4
18545,19210,-2.9999999999999997e-05,-2.9999999999999997e-05,-0.0001,-0.00027,4e-05,0.00042,7e-05,-1e-05,4
18546,19211,-2.9999999999999997e-05,-2.9999999999999997e-05,-0.0001,-0.00027,4e-05,0.00042,7e-05,-1e-05,4
18547,19212,-2.9999999999999997e-05,-2.9999999999999997e-05,-0.0001,-0.00027,4e-05,0.00042,7e-05,-1e-05,4
18548,19213,-2.9999999999999997e-05,-2.9999999999999997e-05,-0.0001,-0.00027,4e-05,0.00042,7e-05,-1e-05,4
18549,19214,-2.9999999999999997e-05,-2.9999999999999997e-05,-0.0001,-0.00027,4e-05,0.00042,7e-05,-1e-05,4
18550,19215,-2.9999999999999997e-05,-2.9999999999999997e-05,-0.0001,-0.00027,4e-05,0.00042,7e-05,-1e-05,4
18551,19216,-2.9999999999999997e-05,-2.9999999999999997e-05,-0.0001,-0.00027,4e-05,0.00042,7e-05,-1e-05,4
18552,19217,-2.9999999999999997e-05,-2.9999999999999997e-05,-0.0001,-0.00027,4e-05,0.00042,7e-05,-1e-05,4
18553,19218,-2.9999999999999997e-05,-2.9999999999999997e-05,-0.0001,-0.00027,4e-05,0.00042,7e-05,-1e-05,4
18554,19219,-2.9999999999999997e-05,-2.9999999999999997e-05,-0.0001,-0.00027,4e-05,0.00042,7e-05,-1e-05,4
18555,19220,-2.9999999999999997e-05,-2.9999999999999997e-05,-0.0001,-0.00027,4e-05,0.00042,7e-05,-1e-05,4
18556,19221,-2.9999999999999997e-05,-2.9999999999999997e-05,-0.0001,-0.00027,4e-05,0.00042,7e-05,-1e-05,4
18557,19222,-2.9999999999999997e-05,-2.9999999999999997e-05,-0.0001,-0.00027,4e-05,0.00042,7e-05,-1e-05,4
18558,19223,-2.9999999999999997e-05,-2.9999999999999997e-05,-0.0001,-0.00027,4e-05,0.00042,7e-05,-1e-05,4
18559,19224,0.0001,0.00011,0.00016,0.00014,-0.00013000000000000002,-0.0004,0.00011999999999999999,0.00011,4
18560,19225,0.0,-1e-05,4e-05,0.00073,0.00107,0.00103,0.00011,-1e-05,4
18561,19226,0.0,-1e-05,4e-05,0.00073,0.00107,0.00103,0.00011,-1e-05,4
18562,19227,0.0,-1e-05,4e-05,0.00073,0.00107,0.00103,0.00011,-1e-05,4
18563,19228,0.0,-1e-05,4e-05,0.00073,0.00107,0.00103,0.00011,-1e-05,4
18564,19229,0.0,-1e-05,4e-05,0.00073,0.00107,0.00103,0.00011,-1e-05,4
18565,19230,0.0,-1e-05,4e-05,0.00073,0.00107,0.00103,0.00011,-1e-05,4
18566,19231,0.0,-1e-05,4e-05,0.00073,0.00107,0.00103,0.00011,-1e-05,4
18567,19232,0.0,-1e-05,4e-05,0.00073,0.00107,0.00103,0.00011,-1e-05,4
18568,19233,0.0,-1e-05,4e-05,0.00073,0.00107,0.00103,0.00011,-1e-05,4
18569,19234,0.0,-1e-05,4e-05,0.00073,0.00107,0.00103,0.00011,-1e-05,4
18570,19235,0.0,-1e-05,4e-05,0.00073,0.00107,0.00103,0.00011,-1e-05,4
18571,19236,0.0,-1e-05,4e-05,0.00073,0.00107,0.00103,0.00011,-1e-05,4
18572,19238,0.0,-2e-05,5e-05,0.00016999999999999999,-0.00037999999999999997,-0.00081,-5.9999999999999995e-05,0.0,4
18573,19239,0.0,-2e-05,5e-05,0.00016999999999999999,-0.00037999999999999997,-0.00081,-5.9999999999999995e-05,0.0,4
18574,19240,0.0,-2e-05,5e-05,0.00016999999999999999,-0.00037999999999999997,-0.00081,-5.9999999999999995e-05,0.0,4
18575,19241,0.0,-2e-05,5e-05,0.00016999999999999999,-0.00037999999999999997,-0.00081,-5.9999999999999995e-05,0.0,4
18576,19242,0.0,-2e-05,5e-05,0.00016999999999999999,-0.00037999999999999997,-0.00081,-5.9999999999999995e-05,0.0,4
18577,19243,0.0,-2e-05,5e-05,0.00016999999999999999,-0.00037999999999999997,-0.00081,-5.9999999999999995e-05,0.0,4
18578,19244,0.0,-2e-05,5e-05,0.00016999999999999999,-0.00037999999999999997,-0.00081,-5.9999999999999995e-05,0.0,4
18579,19245,0.0,-2e-05,5e-05,0.00016999999999999999,-0.00037999999999999997,-0.00081,-5.9999999999999995e-05,0.0,4
18580,19246,-4e-05,-5.9999999999999995e-05,-0.0001,0.00025,-0.00018999999999999998,-0.0010199999999999999,-0.00011,-5e-05,4
18581,19247,-4e-05,-5.9999999999999995e-05,-0.0001,0.00025,-0.00018999999999999998,-0.0010199999999999999,-0.00011,-5e-05,4
18582,19248,-4e-05,-5.9999999999999995e-05,-0.0001,0.00025,-0.00018999999999999998,-0.0010199999999999999,-0.00011,-5e-05,4
18583,19249,-4e-05,-5.9999999999999995e-05,-0.0001,0.00025,-0.00018999999999999998,-0.0010199999999999999,-0.00011,-5e-05,4
18584,19250,-4e-05,-5.9999999999999995e-05,-0.0001,0.00025,-0.00018999999999999998,-0.0010199999999999999,-0.00011,-5e-05,4
18585,19251,-4e-05,-5.9999999999999995e-05,-0.0001,0.00025,-0.00018999999999999998,-0.0010199999999999999,-0.00011,-5e-05,4
18586,19252,-4e-05,-5.9999999999999995e-05,-0.0001,0.00025,-0.00018999999999999998,-0.0010199999999999999,-0.00011,-5e-05,4
18587,19253,-4e-05,-5.9999999999999995e-05,-0.0001,0.00025,-0.00018999999999999998,-0.0010199999999999999,-0.00011,-5e-05,4
18588,19254,-4e-05,-5.9999999999999995e-05,-0.0001,0.00025,-0.00018999999999999998,-0.0010199999999999999,-0.00011,-5e-05,4
18589,19255,-4e-05,-5.9999999999999995e-05,-0.0001,0.00025,-0.00018999999999999998,-0.0010199999999999999,-0.00011,-5e-05,4
18590,19256,-4e-05,-5.9999999999999995e-05,-0.0001,0.00025,-0.00018999999999999998,-0.0010199999999999999,-0.00011,-5e-05,4
18591,19257,-4e-05,-5.9999999999999995e-05,-0.0001,0.00025,-0.00018999999999999998,-0.0010199999999999999,-0.00011,-5e-05,4
18592,19258,-4e-05,-5.9999999999999995e-05,-0.0001,0.00025,-0.00018999999999999998,-0.0010199999999999999,-0.00011,-5e-05,4
18593,19259,-4e-05,-5.9999999999999995e-05,-0.0001,0.00025,-0.00018999999999999998,-0.0010199999999999999,-0.00011,-5e-05,4
18594,19260,-4e-05,-5.9999999999999995e-05,-0.0001,0.00025,-0.00018999999999999998,-0.0010199999999999999,-0.00011,-5e-05,4
18595,19261,-2.9999999999999997e-05,-4e-05,-0.00015,-0.00074,1e-05,0.00066,-5e-05,-5e-05,4
18596,19262,0.0,-1e-05,-2.9999999999999997e-05,1e-05,-0.00043,-0.00042,4e-05,-1e-05,4
18597,19264,0.0,-1e-05,-2.9999999999999997e-05,1e-05,-0.00043,-0.00042,4e-05,-1e-05,4
18598,19265,0.0,-1e-05,-2.9999999999999997e-05,1e-05,-0.00043,-0.00042,4e-05,-1e-05,4
18599,19266,0.0,-1e-05,-2.9999999999999997e-05,1e-05,-0.00043,-0.00042,4e-05,-1e-05,4
18600,19267,0.0,-1e-05,-2.9999999999999997e-05,1e-05,-0.00043,-0.00042,4e-05,-1e-05,4
18601,19268,0.0,-1e-05,-2.9999999999999997e-05,1e-05,-0.00043,-0.00042,4e-05,-1e-05,4
18602,19269,0.0,-1e-05,-2.9999999999999997e-05,1e-05,-0.00043,-0.00042,4e-05,-1e-05,4
18603,19270,0.0,-1e-05,-2.9999999999999997e-05,1e-05,-0.00043,-0.00042,4e-05,-1e-05,4
18604,19271,0.0,-1e-05,-2.9999999999999997e-05,1e-05,-0.00043,-0.00042,4e-05,-1e-05,4
18605,19272,0.0,-1e-05,-2.9999999999999997e-05,1e-05,-0.00043,-0.00042,4e-05,-1e-05,4
18606,19275,0.0,-1e-05,-2.9999999999999997e-05,1e-05,-0.00043,-0.00042,4e-05,-1e-05,4
18607,19276,0.0,-1e-05,-2.9999999999999997e-05,1e-05,-0.00043,-0.00042,4e-05,-1e-05,4
18608,19277,0.0,-1e-05,-2.9999999999999997e-05,1e-05,-0.00043,-0.00042,4e-05,-1e-05,4
18609,19278,0.0,-1e-05,-2.9999999999999997e-05,1e-05,-0.00043,-0.00042,4e-05,-1e-05,4
18610,19279,0.0,-1e-05,-2.9999999999999997e-05,1e-05,-0.00043,-0.00042,4e-05,-1e-05,4
18611,19280,0.0,-1e-05,-2.9999999999999997e-05,1e-05,-0.00043,-0.00042,4e-05,-1e-05,4
18612,19281,0.0,-1e-05,-2.9999999999999997e-05,1e-05,-0.00043,-0.00042,4e-05,-1e-05,4
18613,19282,0.0,-1e-05,-2.9999999999999997e-05,1e-05,-0.00043,-0.00042,4e-05,-1e-05,4
18614,19283,0.0,-1e-05,-2.9999999999999997e-05,1e-05,-0.00043,-0.00042,4e-05,-1e-05,4
18615,19284,-4e-05,-5.9999999999999995e-05,-0.00011999999999999999,-0.00027,0.00028,-0.00053,-4e-05,-5e-05,4
18616,19285,1e-05,4e-05,0.00011999999999999999,0.0002,0.00035,-0.00014,-0.00014,-2.9999999999999997e-05,4
18617,19286,1e-05,4e-05,0.00011999999999999999,0.0002,0.00035,-0.00014,-0.00014,-2.9999999999999997e-05,4
18618,19288,1e-05,4e-05,0.00011999999999999999,0.0002,0.00035,-0.00014,-0.00014,-2.9999999999999997e-05,4
18619,19290,1e-05,4e-05,0.00011999999999999999,0.0002,0.00035,-0.00014,-0.00014,-2.9999999999999997e-05,4
18620,19291,1e-05,4e-05,0.00011999999999999999,0.0002,0.00035,-0.00014,-0.00014,-2.9999999999999997e-05,4
18621,19292,1e-05,4e-05,0.00011999999999999999,0.0002,0.00035,-0.00014,-0.00014,-2.9999999999999997e-05,4
18622,19293,1e-05,4e-05,0.00011999999999999999,0.0002,0.00035,-0.00014,-0.00014,-2.9999999999999997e-05,4
18623,19294,1e-05,4e-05,0.00011999999999999999,0.0002,0.00035,-0.00014,-0.00014,-2.9999999999999997e-05,4
18624,19295,1e-05,4e-05,0.00011999999999999999,0.0002,0.00035,-0.00014,-0.00014,-2.9999999999999997e-05,4
18625,19296,1e-05,4e-05,0.00011999999999999999,0.0002,0.00035,-0.00014,-0.00014,-2.9999999999999997e-05,4
18626,19297,1e-05,4e-05,0.00011999999999999999,0.0002,0.00035,-0.00014,-0.00014,-2.9999999999999997e-05,4
18627,19298,-2.9999999999999997e-05,-4e-05,-0.00011999999999999999,0.00018999999999999998,0.00022,-0.0001,-0.00013000000000000002,-2.9999999999999997e-05,4
18628,19299,-2.9999999999999997e-05,-4e-05,-0.00011999999999999999,0.00018999999999999998,0.00022,-0.0001,-0.00013000000000000002,-2.9999999999999997e-05,4
18629,19300,-2.9999999999999997e-05,-4e-05,-0.00011999999999999999,0.00018999999999999998,0.00022,-0.0001,-0.00013000000000000002,-2.9999999999999997e-05,4
18630,19301,-2.9999999999999997e-05,-4e-05,-0.00011999999999999999,0.00018999999999999998,0.00022,-0.0001,-0.00013000000000000002,-2.9999999999999997e-05,4
18631,19302,-2.9999999999999997e-05,-4e-05,-0.00011999999999999999,0.00018999999999999998,0.00022,-0.0001,-0.00013000000000000002,-2.9999999999999997e-05,4
18632,19303,-2.9999999999999997e-05,-4e-05,-0.00011999999999999999,0.00018999999999999998,0.00022,-0.0001,-0.00013000000000000002,-2.9999999999999997e-05,4
18633,19304,-2.9999999999999997e-05,-4e-05,-0.00011999999999999999,0.00018999999999999998,0.00022,-0.0001,-0.00013000000000000002,-2.9999999999999997e-05,4
18634,19305,-2.9999999999999997e-05,-4e-05,-0.00011999999999999999,0.00018999999999999998,0.00022,-0.0001,-0.00013000000000000002,-2.9999999999999997e-05,4
18635,19306,-2.9999999999999997e-05,-4e-05,-0.00011999999999999999,0.00018999999999999998,0.00022,-0.0001,-0.00013000000000000002,-2.9999999999999997e-05,4
18636,19307,-2.9999999999999997e-05,-4e-05,-0.00011999999999999999,0.00018999999999999998,0.00022,-0.0001,-0.00013000000000000002,-2.9999999999999997e-05,4
18637,19308,-2.9999999999999997e-05,-4e-05,-0.00011999999999999999,0.00018999999999999998,0.00022,-0.0001,-0.00013000000000000002,-2.9999999999999997e-05,4
18638,19309,-2.9999999999999997e-05,-4e-05,-0.00011999999999999999,0.00018999999999999998,0.00022,-0.0001,-0.00013000000000000002,-2.9999999999999997e-05,4
18639,19310,-2.9999999999999997e-05,-4e-05,-0.00011999999999999999,0.00018999999999999998,0.00022,-0.0001,-0.00013000000000000002,-2.9999999999999997e-05,4
18640,19311,-2.9999999999999997e-05,-4e-05,-0.00011999999999999999,0.00018999999999999998,0.00022,-0.0001,-0.00013000000000000002,-2.9999999999999997e-05,4
18641,19312,-2.9999999999999997e-05,-4e-05,-0.00011999999999999999,0.00018999999999999998,0.00022,-0.0001,-0.00013000000000000002,-2.9999999999999997e-05,4
18642,19313,-2.9999999999999997e-05,-4e-05,-0.00011999999999999999,0.00018999999999999998,0.00022,-0.0001,-0.00013000000000000002,-2.9999999999999997e-05,4
18643,19314,-1e-05,-1e-05,-5e-05,-0.00026000000000000003,0.001,0.00057,-1e-05,-2e-05,4
18644,19315,-1e-05,-1e-05,-5e-05,-0.00026000000000000003,0.001,0.00057,-1e-05,-2e-05,4
18645,19316,-1e-05,-1e-05,-5e-05,-0.00026000000000000003,0.001,0.00057,-1e-05,-2e-05,4
18646,19317,-1e-05,-1e-05,-5e-05,-0.00026000000000000003,0.001,0.00057,-1e-05,-2e-05,4
18647,19318,-1e-05,-1e-05,-5e-05,-0.00026000000000000003,0.001,0.00057,-1e-05,-2e-05,4
18648,19319,-1e-05,-1e-05,-5e-05,-0.00026000000000000003,0.001,0.00057,-1e-05,-2e-05,4
18649,19320,-1e-05,-1e-05,-5e-05,-0.00026000000000000003,0.001,0.00057,-1e-05,-2e-05,4
18650,19321,-1e-05,-1e-05,-5e-05,-0.00026000000000000003,0.001,0.00057,-1e-05,-2e-05,4
18651,19322,8e-05,7e-05,-7e-05,-0.00075,-0.00128,-0.00013000000000000002,0.00011999999999999999,8e-05,4
18652,19323,8e-05,7e-05,-7e-05,-0.00075,-0.00128,-0.00013000000000000002,0.00011999999999999999,8e-05,4
18653,19324,8e-05,7e-05,-7e-05,-0.00075,-0.00128,-0.00013000000000000002,0.00011999999999999999,8e-05,4
18654,19325,8e-05,7e-05,-7e-05,-0.00075,-0.00128,-0.00013000000000000002,0.00011999999999999999,8e-05,4
18655,19326,8e-05,7e-05,-7e-05,-0.00075,-0.00128,-0.00013000000000000002,0.00011999999999999999,8e-05,4
18656,19327,8e-05,7e-05,-7e-05,-0.00075,-0.00128,-0.00013000000000000002,0.00011999999999999999,8e-05,4
18657,19328,8e-05,7e-05,-7e-05,-0.00075,-0.00128,-0.00013000000000000002,0.00011999999999999999,8e-05,4
18658,19329,8e-05,7e-05,-7e-05,-0.00075,-0.00128,-0.00013000000000000002,0.00011999999999999999,8e-05,4
18659,19330,8e-05,7e-05,-7e-05,-0.00075,-0.00128,-0.00013000000000000002,0.00011999999999999999,8e-05,4
18660,19331,8e-05,7e-05,-7e-05,-0.00075,-0.00128,-0.00013000000000000002,0.00011999999999999999,8e-05,4
18661,19332,8e-05,7e-05,-7e-05,-0.00075,-0.00128,-0.00013000000000000002,0.00011999999999999999,8e-05,4
18662,19333,8e-05,7e-05,-7e-05,-0.00075,-0.00128,-0.00013000000000000002,0.00011999999999999999,8e-05,4
18663,19334,8e-05,7e-05,-7e-05,-0.00075,-0.00128,-0.00013000000000000002,0.00011999999999999999,8e-05,4
18664,19335,8e-05,7e-05,-7e-05,-0.00075,-0.00128,-0.00013000000000000002,0.00011999999999999999,8e-05,4
18665,19336,8e-05,7e-05,-7e-05,-0.00075,-0.00128,-0.00013000000000000002,0.00011999999999999999,8e-05,4
18666,19338,8e-05,7e-05,-7e-05,-0.00075,-0.00128,-0.00013000000000000002,0.00011999999999999999,8e-05,4
18667,19340,8e-05,7e-05,-7e-05,-0.00075,-0.00128,-0.00013000000000000002,0.00011999999999999999,8e-05,4
18668,19341,8e-05,7e-05,-7e-05,-0.00075,-0.00128,-0.00013000000000000002,0.00011999999999999999,8e-05,4
18669,19342,8e-05,7e-05,-7e-05,-0.00075,-0.00128,-0.00013000000000000002,0.00011999999999999999,8e-05,4
18670,19343,8e-05,7e-05,-7e-05,-0.00075,-0.00128,-0.00013000000000000002,0.00011999999999999999,8e-05,4
18671,19344,-5e-05,-5e-05,-1e-05,0.00032,-0.0006,4e-05,-2e-05,-4e-05,4
18672,19345,-2e-05,0.0,8e-05,0.00043,-0.00044,-0.0008300000000000001,7e-05,-2e-05,4
18673,19346,-2e-05,0.0,8e-05,0.00043,-0.00044,-0.0008300000000000001,7e-05,-2e-05,4
18674,19347,-2e-05,0.0,8e-05,0.00043,-0.00044,-0.0008300000000000001,7e-05,-2e-05,4
18675,19348,-2e-05,0.0,8e-05,0.00043,-0.00044,-0.0008300000000000001,7e-05,-2e-05,4
18676,19349,-2e-05,0.0,8e-05,0.00043,-0.00044,-0.0008300000000000001,7e-05,-2e-05,4
18677,19350,-2e-05,0.0,8e-05,0.00043,-0.00044,-0.0008300000000000001,7e-05,-2e-05,4
18678,19351,-2e-05,0.0,8e-05,0.00043,-0.00044,-0.0008300000000000001,7e-05,-2e-05,4
18679,19352,-2e-05,0.0,8e-05,0.00043,-0.00044,-0.0008300000000000001,7e-05,-2e-05,4
18680,19353,-2e-05,0.0,8e-05,0.00043,-0.00044,-0.0008300000000000001,7e-05,-2e-05,4
18681,19354,-2e-05,0.0,8e-05,0.00043,-0.00044,-0.0008300000000000001,7e-05,-2e-05,4
18682,19355,-2e-05,0.0,8e-05,0.00043,-0.00044,-0.0008300000000000001,7e-05,-2e-05,4
18683,19356,-2e-05,0.0,8e-05,0.00043,-0.00044,-0.0008300000000000001,7e-05,-2e-05,4
18684,19357,-2e-05,0.0,8e-05,0.00043,-0.00044,-0.0008300000000000001,7e-05,-2e-05,4
18685,19358,-2e-05,0.0,8e-05,0.00043,-0.00044,-0.0008300000000000001,7e-05,-2e-05,4
18686,19359,-2e-05,0.0,8e-05,0.00043,-0.00044,-0.0008300000000000001,7e-05,-2e-05,4
18687,19360,-2e-05,0.0,8e-05,0.00043,-0.00044,-0.0008300000000000001,7e-05,-2e-05,4
18688,19361,-2e-05,0.0,8e-05,0.00043,-0.00044,-0.0008300000000000001,7e-05,-2e-05,4
18689,19362,-2e-05,0.0,8e-05,0.00043,-0.00044,-0.0008300000000000001,7e-05,-2e-05,4
18690,19363,-2e-05,0.0,8e-05,0.00043,-0.00044,-0.0008300000000000001,7e-05,-2e-05,4
18691,19364,-2e-05,0.0,8e-05,0.00043,-0.00044,-0.0008300000000000001,7e-05,-2e-05,4
18692,19365,-2e-05,0.0,8e-05,0.00043,-0.00044,-0.0008300000000000001,7e-05,-2e-05,4
18693,19366,-2e-05,0.0,8e-05,0.00043,-0.00044,-0.0008300000000000001,7e-05,-2e-05,4
18694,19367,-2e-05,-2.9999999999999997e-05,0.0,0.00011999999999999999,-0.00079,-0.0005099999999999999,4e-05,0.0,4
18695,19368,-7e-05,-8e-05,-0.00011999999999999999,0.00011999999999999999,7e-05,-0.00035,-0.00011999999999999999,-5.9999999999999995e-05,4
18696,19369,-7e-05,-8e-05,-0.00011999999999999999,0.00011999999999999999,7e-05,-0.00035,-0.00011999999999999999,-5.9999999999999995e-05,4
18697,19370,-7e-05,-8e-05,-0.00011999999999999999,0.00011999999999999999,7e-05,-0.00035,-0.00011999999999999999,-5.9999999999999995e-05,4
18698,19371,-7e-05,-8e-05,-0.00011999999999999999,0.00011999999999999999,7e-05,-0.00035,-0.00011999999999999999,-5.9999999999999995e-05,4
18699,19372,-7e-05,-8e-05,-0.00011999999999999999,0.00011999999999999999,7e-05,-0.00035,-0.00011999999999999999,-5.9999999999999995e-05,4
18700,19373,-7e-05,-8e-05,-0.00011999999999999999,0.00011999999999999999,7e-05,-0.00035,-0.00011999999999999999,-5.9999999999999995e-05,4
18701,19374,-7e-05,-8e-05,-0.00011999999999999999,0.00011999999999999999,7e-05,-0.00035,-0.00011999999999999999,-5.9999999999999995e-05,4
18702,19375,-7e-05,-8e-05,-0.00011999999999999999,0.00011999999999999999,7e-05,-0.00035,-0.00011999999999999999,-5.9999999999999995e-05,4
18703,19376,-7e-05,-8e-05,-0.00011999999999999999,0.00011999999999999999,7e-05,-0.00035,-0.00011999999999999999,-5.9999999999999995e-05,4
18704,19377,-7e-05,-8e-05,-0.00011999999999999999,0.00011999999999999999,7e-05,-0.00035,-0.00011999999999999999,-5.9999999999999995e-05,4
18705,19378,-7e-05,-8e-05,-0.00011999999999999999,0.00011999999999999999,7e-05,-0.00035,-0.00011999999999999999,-5.9999999999999995e-05,4
18706,19379,-7e-05,-8e-05,-0.00011999999999999999,0.00011999999999999999,7e-05,-0.00035,-0.00011999999999999999,-5.9999999999999995e-05,4
18707,19380,-7e-05,-8e-05,-0.00011999999999999999,0.00011999999999999999,7e-05,-0.00035,-0.00011999999999999999,-5.9999999999999995e-05,4
18708,19381,-2.9999999999999997e-05,-2.9999999999999997e-05,-0.00016999999999999999,-0.00075,0.0007,5e-05,-5.9999999999999995e-05,-2.9999999999999997e-05,4
18709,19382,1e-05,-1e-05,-8e-05,-0.00064,0.00035,0.00117,0.00011,1e-05,4
18710,19383,1e-05,-1e-05,-8e-05,-0.00064,0.00035,0.00117,0.00011,1e-05,4
18711,19384,1e-05,-1e-05,-8e-05,-0.00064,0.00035,0.00117,0.00011,1e-05,4
18712,19385,1e-05,-1e-05,-8e-05,-0.00064,0.00035,0.00117,0.00011,1e-05,4
18713,19386,1e-05,-1e-05,-8e-05,-0.00064,0.00035,0.00117,0.00011,1e-05,4
18714,19389,1e-05,-1e-05,-8e-05,-0.00064,0.00035,0.00117,0.00011,1e-05,4
18715,19390,1e-05,-1e-05,-8e-05,-0.00064,0.00035,0.00117,0.00011,1e-05,4
18716,19391,1e-05,-1e-05,-8e-05,-0.00064,0.00035,0.00117,0.00011,1e-05,4
18717,19392,1e-05,-1e-05,-8e-05,-0.00064,0.00035,0.00117,0.00011,1e-05,4
18718,19393,1e-05,-1e-05,-8e-05,-0.00064,0.00035,0.00117,0.00011,1e-05,4
18719,19394,1e-05,-1e-05,-8e-05,-0.00064,0.00035,0.00117,0.00011,1e-05,4
18720,19395,1e-05,-1e-05,-8e-05,-0.00064,0.00035,0.00117,0.00011,1e-05,4
18721,19396,1e-05,-1e-05,-8e-05,-0.00064,0.00035,0.00117,0.00011,1e-05,4
18722,19397,1e-05,-1e-05,-8e-05,-0.00064,0.00035,0.00117,0.00011,1e-05,4
18723,19398,1e-05,-1e-05,-8e-05,-0.00064,0.00035,0.00117,0.00011,1e-05,4
18724,19399,1e-05,-1e-05,-8e-05,-0.00064,0.00035,0.00117,0.00011,1e-05,4
18725,19400,1e-05,-1e-05,-8e-05,-0.00064,0.00035,0.00117,0.00011,1e-05,4
18726,19401,1e-05,-1e-05,-8e-05,-0.00064,0.00035,0.00117,0.00011,1e-05,4
18727,19402,1e-05,-1e-05,-8e-05,-0.00064,0.00035,0.00117,0.00011,1e-05,4
18728,19403,1e-05,-1e-05,-8e-05,-0.00064,0.00035,0.00117,0.00011,1e-05,4
18729,19404,-1e-05,0.0,4e-05,0.00033,0.00018,-0.00011999999999999999,1e-05,0.0,4
18730,19405,-2.9999999999999997e-05,-7e-05,-0.00013000000000000002,0.00011,0.00013000000000000002,-5e-05,-7e-05,-5.9999999999999995e-05,4
18731,19406,-2.9999999999999997e-05,-7e-05,-0.00013000000000000002,0.00011,0.00013000000000000002,-5e-05,-7e-05,-5.9999999999999995e-05,4
18732,19407,-2.9999999999999997e-05,-7e-05,-0.00013000000000000002,0.00011,0.00013000000000000002,-5e-05,-7e-05,-5.9999999999999995e-05,4
18733,19408,-2.9999999999999997e-05,-7e-05,-0.00013000000000000002,0.00011,0.00013000000000000002,-5e-05,-7e-05,-5.9999999999999995e-05,4
18734,19409,-2.9999999999999997e-05,-7e-05,-0.00013000000000000002,0.00011,0.00013000000000000002,-5e-05,-7e-05,-5.9999999999999995e-05,4
18735,19410,-2.9999999999999997e-05,-7e-05,-0.00013000000000000002,0.00011,0.00013000000000000002,-5e-05,-7e-05,-5.9999999999999995e-05,4
18736,19411,-2.9999999999999997e-05,-7e-05,-0.00013000000000000002,0.00011,0.00013000000000000002,-5e-05,-7e-05,-5.9999999999999995e-05,4
18737,19412,-2.9999999999999997e-05,-7e-05,-0.00013000000000000002,0.00011,0.00013000000000000002,-5e-05,-7e-05,-5.9999999999999995e-05,4
18738,19413,-2.9999999999999997e-05,-7e-05,-0.00013000000000000002,0.00011,0.00013000000000000002,-5e-05,-7e-05,-5.9999999999999995e-05,4
18739,19414,-2.9999999999999997e-05,-7e-05,-0.00013000000000000002,0.00011,0.00013000000000000002,-5e-05,-7e-05,-5.9999999999999995e-05,4
18740,19415,-2.9999999999999997e-05,-7e-05,-0.00013000000000000002,0.00011,0.00013000000000000002,-5e-05,-7e-05,-5.9999999999999995e-05,4
18741,19416,-2.9999999999999997e-05,-7e-05,-0.00013000000000000002,0.00011,0.00013000000000000002,-5e-05,-7e-05,-5.9999999999999995e-05,4
18742,19417,-2.9999999999999997e-05,-7e-05,-0.00013000000000000002,0.00011,0.00013000000000000002,-5e-05,-7e-05,-5.9999999999999995e-05,4
18743,19418,-2.9999999999999997e-05,-7e-05,-0.00013000000000000002,0.00011,0.00013000000000000002,-5e-05,-7e-05,-5.9999999999999995e-05,4
18744,19419,-2.9999999999999997e-05,-7e-05,-0.00013000000000000002,0.00011,0.00013000000000000002,-5e-05,-7e-05,-5.9999999999999995e-05,4
18745,19420,-2.9999999999999997e-05,-7e-05,-0.00013000000000000002,0.00011,0.00013000000000000002,-5e-05,-7e-05,-5.9999999999999995e-05,4
18746,19421,-2.9999999999999997e-05,-7e-05,-0.00013000000000000002,0.00011,0.00013000000000000002,-5e-05,-7e-05,-5.9999999999999995e-05,4
18747,19422,-2.9999999999999997e-05,-7e-05,-0.00013000000000000002,0.00011,0.00013000000000000002,-5e-05,-7e-05,-5.9999999999999995e-05,4
18748,19423,-2.9999999999999997e-05,-7e-05,-0.00013000000000000002,0.00011,0.00013000000000000002,-5e-05,-7e-05,-5.9999999999999995e-05,4
18749,19424,-2.9999999999999997e-05,-7e-05,-0.00013000000000000002,0.00011,0.00013000000000000002,-5e-05,-7e-05,-5.9999999999999995e-05,4
18750,19425,-2.9999999999999997e-05,-7e-05,-0.00013000000000000002,0.00011,0.00013000000000000002,-5e-05,-7e-05,-5.9999999999999995e-05,4
18751,19426,-2.9999999999999997e-05,-7e-05,-0.00013000000000000002,0.00011,0.00013000000000000002,-5e-05,-7e-05,-5.9999999999999995e-05,4
18752,19427,5e-05,4e-05,-5e-05,-0.00035,0.00016999999999999999,-0.00011999999999999999,0.00011,7e-05,4
18753,19428,-5.9999999999999995e-05,-7e-05,-5.9999999999999995e-05,0.00022999999999999998,-0.00053,-0.00054,-0.00021,-5e-05,4
18754,19429,-5.9999999999999995e-05,-7e-05,-5.9999999999999995e-05,0.00022999999999999998,-0.00053,-0.00054,-0.00021,-5e-05,4
18755,19430,-5.9999999999999995e-05,-7e-05,-5.9999999999999995e-05,0.00022999999999999998,-0.00053,-0.00054,-0.00021,-5e-05,4
18756,19431,-5.9999999999999995e-05,-7e-05,-5.9999999999999995e-05,0.00022999999999999998,-0.00053,-0.00054,-0.00021,-5e-05,4
18757,19432,-5.9999999999999995e-05,-7e-05,-5.9999999999999995e-05,0.00022999999999999998,-0.00053,-0.00054,-0.00021,-5e-05,4
18758,19433,-5.9999999999999995e-05,-7e-05,-5.9999999999999995e-05,0.00022999999999999998,-0.00053,-0.00054,-0.00021,-5e-05,4
18759,19434,-5.9999999999999995e-05,-7e-05,-5.9999999999999995e-05,0.00022999999999999998,-0.00053,-0.00054,-0.00021,-5e-05,4
18760,19435,-5.9999999999999995e-05,-7e-05,-5.9999999999999995e-05,0.00022999999999999998,-0.00053,-0.00054,-0.00021,-5e-05,4
18761,19436,-5.9999999999999995e-05,-7e-05,-5.9999999999999995e-05,0.00022999999999999998,-0.00053,-0.00054,-0.00021,-5e-05,4
18762,19439,-5.9999999999999995e-05,-7e-05,-5.9999999999999995e-05,0.00022999999999999998,-0.00053,-0.00054,-0.00021,-5e-05,4
18763,19440,-5.9999999999999995e-05,-7e-05,-5.9999999999999995e-05,0.00022999999999999998,-0.00053,-0.00054,-0.00021,-5e-05,4
18764,19441,9e-05,9e-05,7e-05,0.0003,0.00039,0.00023999999999999998,0.00033,0.00013000000000000002,4
18765,19442,-2e-05,-2e-05,-0.00014,-0.00073,-8e-05,0.00023999999999999998,-2.9999999999999997e-05,-2.9999999999999997e-05,4
18766,19443,-2e-05,-2e-05,-0.00014,-0.00073,-8e-05,0.00023999999999999998,-2.9999999999999997e-05,-2.9999999999999997e-05,4
18767,19444,-2e-05,-2e-05,-0.00014,-0.00073,-8e-05,0.00023999999999999998,-2.9999999999999997e-05,-2.9999999999999997e-05,4
18768,19445,-2e-05,-2e-05,-0.00014,-0.00073,-8e-05,0.00023999999999999998,-2.9999999999999997e-05,-2.9999999999999997e-05,4
18769,19446,-2e-05,-2e-05,-0.00014,-0.00073,-8e-05,0.00023999999999999998,-2.9999999999999997e-05,-2.9999999999999997e-05,4
18770,19447,-2e-05,-2e-05,-0.00014,-0.00073,-8e-05,0.00023999999999999998,-2.9999999999999997e-05,-2.9999999999999997e-05,4
18771,19448,-2e-05,-2e-05,-0.00014,-0.00073,-8e-05,0.00023999999999999998,-2.9999999999999997e-05,-2.9999999999999997e-05,4
18772,19449,-2e-05,-2e-05,-0.00014,-0.00073,-8e-05,0.00023999999999999998,-2.9999999999999997e-05,-2.9999999999999997e-05,4
18773,19450,-2e-05,-2e-05,-0.00014,-0.00073,-8e-05,0.00023999999999999998,-2.9999999999999997e-05,-2.9999999999999997e-05,4
18774,19451,-2e-05,-2e-05,-0.00014,-0.00073,-8e-05,0.00023999999999999998,-2.9999999999999997e-05,-2.9999999999999997e-05,4
18775,19452,-2e-05,-2e-05,-0.00014,-0.00073,-8e-05,0.00023999999999999998,-2.9999999999999997e-05,-2.9999999999999997e-05,4
18776,19453,-2e-05,-2e-05,-0.00014,-0.00073,-8e-05,0.00023999999999999998,-2.9999999999999997e-05,-2.9999999999999997e-05,4
18777,19454,-2e-05,-2e-05,-0.00014,-0.00073,-8e-05,0.00023999999999999998,-2.9999999999999997e-05,-2.9999999999999997e-05,4
18778,19455,-2e-05,-2e-05,-0.00014,-0.00073,-8e-05,0.00023999999999999998,-2.9999999999999997e-05,-2.9999999999999997e-05,4
18779,19456,-2e-05,-2e-05,-0.00014,-0.00073,-8e-05,0.00023999999999999998,-2.9999999999999997e-05,-2.9999999999999997e-05,4
18780,19457,-2e-05,-2e-05,-0.00014,-0.00073,-8e-05,0.00023999999999999998,-2.9999999999999997e-05,-2.9999999999999997e-05,4
18781,19458,-2e-05,-2e-05,-0.00014,-0.00073,-8e-05,0.00023999999999999998,-2.9999999999999997e-05,-2.9999999999999997e-05,4
18782,19459,-2e-05,-2e-05,-0.00014,-0.00073,-8e-05,0.00023999999999999998,-2.9999999999999997e-05,-2.9999999999999997e-05,4
18783,19460,-2e-05,-2e-05,-0.00014,-0.00073,-8e-05,0.00023999999999999998,-2.9999999999999997e-05,-2.9999999999999997e-05,4
18784,19461,-2e-05,-2e-05,-0.00014,-0.00073,-8e-05,0.00023999999999999998,-2.9999999999999997e-05,-2.9999999999999997e-05,4
18785,19462,-2e-05,-2e-05,-0.00014,-0.00073,-8e-05,0.00023999999999999998,-2.9999999999999997e-05,-2.9999999999999997e-05,4
18786,19463,-2e-05,-2e-05,-0.00014,-0.00073,-8e-05,0.00023999999999999998,-2.9999999999999997e-05,-2.9999999999999997e-05,4
18787,19464,1e-05,1e-05,5e-05,0.00023999999999999998,0.00033,0.00018,-2e-05,-4e-05,4
18788,19465,0.0,2e-05,0.00011999999999999999,0.00078,-0.00059,-0.00065,2.9999999999999997e-05,1e-05,4
18789,19466,0.0,2e-05,0.00011999999999999999,0.00078,-0.00059,-0.00065,2.9999999999999997e-05,1e-05,4
18790,19467,0.0,2e-05,0.00011999999999999999,0.00078,-0.00059,-0.00065,2.9999999999999997e-05,1e-05,4
18791,19468,0.0,2e-05,0.00011999999999999999,0.00078,-0.00059,-0.00065,2.9999999999999997e-05,1e-05,4
18792,19469,0.0,2e-05,0.00011999999999999999,0.00078,-0.00059,-0.00065,2.9999999999999997e-05,1e-05,4
18793,19470,0.0,2e-05,0.00011999999999999999,0.00078,-0.00059,-0.00065,2.9999999999999997e-05,1e-05,4
18794,19471,0.0,2e-05,0.00011999999999999999,0.00078,-0.00059,-0.00065,2.9999999999999997e-05,1e-05,4
18795,19472,0.0,2e-05,0.00011999999999999999,0.00078,-0.00059,-0.00065,2.9999999999999997e-05,1e-05,4
18796,19473,0.0,2e-05,0.00011999999999999999,0.00078,-0.00059,-0.00065,2.9999999999999997e-05,1e-05,4
18797,19474,0.0,2e-05,0.00011999999999999999,0.00078,-0.00059,-0.00065,2.9999999999999997e-05,1e-05,4
18798,19475,0.0,2e-05,0.00011999999999999999,0.00078,-0.00059,-0.00065,2.9999999999999997e-05,1e-05,4
18799,19476,0.0,2e-05,0.00011999999999999999,0.00078,-0.00059,-0.00065,2.9999999999999997e-05,1e-05,4
18800,19477,0.0,2e-05,0.00011999999999999999,0.00078,-0.00059,-0.00065,2.9999999999999997e-05,1e-05,4
18801,19478,0.0,2e-05,0.00011999999999999999,0.00078,-0.00059,-0.00065,2.9999999999999997e-05,1e-05,4
18802,19479,0.0,2e-05,0.00011999999999999999,0.00078,-0.00059,-0.00065,2.9999999999999997e-05,1e-05,4
18803,19480,0.0,2e-05,0.00011999999999999999,0.00078,-0.00059,-0.00065,2.9999999999999997e-05,1e-05,4
18804,19481,0.0,2e-05,0.00011999999999999999,0.00078,-0.00059,-0.00065,2.9999999999999997e-05,1e-05,4
18805,19482,0.0,2e-05,0.00011999999999999999,0.00078,-0.00059,-0.00065,2.9999999999999997e-05,1e-05,4
18806,19483,0.0,2e-05,0.00011999999999999999,0.00078,-0.00059,-0.00065,2.9999999999999997e-05,1e-05,4
18807,19484,0.0,2e-05,0.00011999999999999999,0.00078,-0.00059,-0.00065,2.9999999999999997e-05,1e-05,4
18808,19485,0.0,2e-05,0.00011999999999999999,0.00078,-0.00059,-0.00065,2.9999999999999997e-05,1e-05,4
18809,19486,0.0,2e-05,0.00011999999999999999,0.00078,-0.00059,-0.00065,2.9999999999999997e-05,1e-05,4
18810,19489,1e-05,-1e-05,1e-05,-0.00028,0.00056,0.0008900000000000001,0.00016,2.9999999999999997e-05,4
18811,19490,1e-05,-1e-05,1e-05,-0.00028,0.00056,0.0008900000000000001,0.00016,2.9999999999999997e-05,4
18812,19491,1e-05,-1e-05,1e-05,-0.00028,0.00056,0.0008900000000000001,0.00016,2.9999999999999997e-05,4
18813,19492,1e-05,-1e-05,1e-05,-0.00028,0.00056,0.0008900000000000001,0.00016,2.9999999999999997e-05,4
18814,19493,1e-05,-1e-05,1e-05,-0.00028,0.00056,0.0008900000000000001,0.00016,2.9999999999999997e-05,4
18815,19494,1e-05,-1e-05,1e-05,-0.00028,0.00056,0.0008900000000000001,0.00016,2.9999999999999997e-05,4
18816,19495,1e-05,-1e-05,1e-05,-0.00028,0.00056,0.0008900000000000001,0.00016,2.9999999999999997e-05,4
18817,19496,1e-05,-1e-05,1e-05,-0.00028,0.00056,0.0008900000000000001,0.00016,2.9999999999999997e-05,4
18818,19497,1e-05,-1e-05,1e-05,-0.00028,0.00056,0.0008900000000000001,0.00016,2.9999999999999997e-05,4
18819,19498,1e-05,-1e-05,1e-05,-0.00028,0.00056,0.0008900000000000001,0.00016,2.9999999999999997e-05,4
18820,19499,1e-05,-1e-05,1e-05,-0.00028,0.00056,0.0008900000000000001,0.00016,2.9999999999999997e-05,4
18821,19500,1e-05,-1e-05,1e-05,-0.00028,0.00056,0.0008900000000000001,0.00016,2.9999999999999997e-05,4
18822,19501,-2e-05,1e-05,5.9999999999999995e-05,0.00011999999999999999,-0.0009400000000000001,0.00054,0.0,-1e-05,4
18823,19502,-2e-05,-2e-05,-1e-05,-2e-05,0.0006,-0.00047999999999999996,-7e-05,-2.9999999999999997e-05,4
18824,19503,-2e-05,-2e-05,-1e-05,-2e-05,0.0006,-0.00047999999999999996,-7e-05,-2.9999999999999997e-05,4
18825,19504,-2e-05,-2e-05,-1e-05,-2e-05,0.0006,-0.00047999999999999996,-7e-05,-2.9999999999999997e-05,4
18826,19505,-2e-05,-2e-05,-1e-05,-2e-05,0.0006,-0.00047999999999999996,-7e-05,-2.9999999999999997e-05,4
18827,19506,-2e-05,-2e-05,-1e-05,-2e-05,0.0006,-0.00047999999999999996,-7e-05,-2.9999999999999997e-05,4
18828,19507,-2e-05,-2e-05,-1e-05,-2e-05,0.0006,-0.00047999999999999996,-7e-05,-2.9999999999999997e-05,4
18829,19508,-2e-05,-2e-05,-1e-05,-2e-05,0.0006,-0.00047999999999999996,-7e-05,-2.9999999999999997e-05,4
18830,19509,-2e-05,-2e-05,-1e-05,-2e-05,0.0006,-0.00047999999999999996,-7e-05,-2.9999999999999997e-05,4
18831,19510,-2e-05,-2e-05,-1e-05,-2e-05,0.0006,-0.00047999999999999996,-7e-05,-2.9999999999999997e-05,4
18832,19511,-2e-05,-2e-05,-1e-05,-2e-05,0.0006,-0.00047999999999999996,-7e-05,-2.9999999999999997e-05,4
18833,19512,-2e-05,-2e-05,-1e-05,-2e-05,0.0006,-0.00047999999999999996,-7e-05,-2.9999999999999997e-05,4
18834,19513,-2e-05,-2e-05,-1e-05,-2e-05,0.0006,-0.00047999999999999996,-7e-05,-2.9999999999999997e-05,4
18835,19514,-2e-05,-2e-05,-1e-05,-2e-05,0.0006,-0.00047999999999999996,-7e-05,-2.9999999999999997e-05,4
18836,19515,-2e-05,-2e-05,-1e-05,-2e-05,0.0006,-0.00047999999999999996,-7e-05,-2.9999999999999997e-05,4
18837,19516,-2e-05,-2e-05,-1e-05,-2e-05,0.0006,-0.00047999999999999996,-7e-05,-2.9999999999999997e-05,4
18838,19517,-2e-05,-2e-05,-1e-05,-2e-05,0.0006,-0.00047999999999999996,-7e-05,-2.9999999999999997e-05,4
18839,19518,-2e-05,-2e-05,-1e-05,-2e-05,0.0006,-0.00047999999999999996,-7e-05,-2.9999999999999997e-05,4
18840,19519,-2e-05,-2e-05,-1e-05,-2e-05,0.0006,-0.00047999999999999996,-7e-05,-2.9999999999999997e-05,4
18841,19520,-2e-05,-2e-05,-1e-05,-2e-05,0.0006,-0.00047999999999999996,-7e-05,-2.9999999999999997e-05,4
18842,19521,-2e-05,-2e-05,-1e-05,-2e-05,0.0006,-0.00047999999999999996,-7e-05,-2.9999999999999997e-05,4
18843,19522,-2e-05,-2e-05,-1e-05,-2e-05,0.0006,-0.00047999999999999996,-7e-05,-2.9999999999999997e-05,4
18844,19523,-2e-05,-2e-05,-1e-05,-2e-05,0.0006,-0.00047999999999999996,-7e-05,-2.9999999999999997e-05,4
18845,19524,-2e-05,-2e-05,-1e-05,-2e-05,0.0006,-0.00047999999999999996,-7e-05,-2.9999999999999997e-05,4
18846,19525,4e-05,4e-05,0.00011,0.00018999999999999998,-0.00085,-0.00045999999999999996,-7e-05,2e-05,4
18847,19526,4e-05,4e-05,0.00011,0.00018999999999999998,-0.00085,-0.00045999999999999996,-7e-05,2e-05,4
18848,19527,4e-05,4e-05,0.00011,0.00018999999999999998,-0.00085,-0.00045999999999999996,-7e-05,2e-05,4
18849,19528,4e-05,4e-05,0.00011,0.00018999999999999998,-0.00085,-0.00045999999999999996,-7e-05,2e-05,4
18850,19529,4e-05,4e-05,0.00011,0.00018999999999999998,-0.00085,-0.00045999999999999996,-7e-05,2e-05,4
18851,19530,4e-05,4e-05,0.00011,0.00018999999999999998,-0.00085,-0.00045999999999999996,-7e-05,2e-05,4
18852,19531,4e-05,4e-05,0.00011,0.00018999999999999998,-0.00085,-0.00045999999999999996,-7e-05,2e-05,4
18853,19532,4e-05,4e-05,0.00011,0.00018999999999999998,-0.00085,-0.00045999999999999996,-7e-05,2e-05,4
18854,19533,4e-05,4e-05,0.00011,0.00018999999999999998,-0.00085,-0.00045999999999999996,-7e-05,2e-05,4
18855,19534,4e-05,4e-05,0.00011,0.00018999999999999998,-0.00085,-0.00045999999999999996,-7e-05,2e-05,4
18856,19535,4e-05,4e-05,0.00011,0.00018999999999999998,-0.00085,-0.00045999999999999996,-7e-05,2e-05,4
18857,19536,4e-05,4e-05,0.00011,0.00018999999999999998,-0.00085,-0.00045999999999999996,-7e-05,2e-05,4
18858,19539,4e-05,4e-05,0.00011,0.00018999999999999998,-0.00085,-0.00045999999999999996,-7e-05,2e-05,4
18859,19540,4e-05,4e-05,0.00011,0.00018999999999999998,-0.00085,-0.00045999999999999996,-7e-05,2e-05,4
18860,19541,4e-05,4e-05,0.00011,0.00018999999999999998,-0.00085,-0.00045999999999999996,-7e-05,2e-05,4
18861,19542,4e-05,4e-05,0.00011,0.00018999999999999998,-0.00085,-0.00045999999999999996,-7e-05,2e-05,4
18862,19543,4e-05,4e-05,0.00011,0.00018999999999999998,-0.00085,-0.00045999999999999996,-7e-05,2e-05,4
18863,19544,4e-05,4e-05,0.00011,0.00018999999999999998,-0.00085,-0.00045999999999999996,-7e-05,2e-05,4
18864,19545,4e-05,4e-05,0.00011,0.00018999999999999998,-0.00085,-0.00045999999999999996,-7e-05,2e-05,4
18865,19546,4e-05,4e-05,0.00011,0.00018999999999999998,-0.00085,-0.00045999999999999996,-7e-05,2e-05,4
18866,19547,-2.9999999999999997e-05,-7e-05,-0.00016,-0.0007099999999999999,-0.00022999999999999998,-0.00018999999999999998,-7e-05,1e-05,4
18867,19548,1e-05,1e-05,-1e-05,0.00018,0.0005,0.00014,-1e-05,0.0,4
18868,19549,1e-05,1e-05,-1e-05,0.00018,0.0005,0.00014,-1e-05,0.0,4
18869,19550,1e-05,1e-05,-1e-05,0.00018,0.0005,0.00014,-1e-05,0.0,4
18870,19551,1e-05,1e-05,-1e-05,0.00018,0.0005,0.00014,-1e-05,0.0,4
18871,19552,1e-05,1e-05,-1e-05,0.00018,0.0005,0.00014,-1e-05,0.0,4
18872,19553,1e-05,1e-05,-1e-05,0.00018,0.0005,0.00014,-1e-05,0.0,4
18873,19554,1e-05,1e-05,-1e-05,0.00018,0.0005,0.00014,-1e-05,0.0,4
18874,19555,1e-05,1e-05,-1e-05,0.00018,0.0005,0.00014,-1e-05,0.0,4
18875,19556,1e-05,1e-05,-1e-05,0.00018,0.0005,0.00014,-1e-05,0.0,4
18876,19557,1e-05,1e-05,-1e-05,0.00018,0.0005,0.00014,-1e-05,0.0,4
18877,19558,1e-05,1e-05,-1e-05,0.00018,0.0005,0.00014,-1e-05,0.0,4
18878,19559,1e-05,1e-05,-1e-05,0.00018,0.0005,0.00014,-1e-05,0.0,4
18879,19560,1e-05,1e-05,-1e-05,0.00018,0.0005,0.00014,-1e-05,0.0,4
18880,19561,-1e-05,-1e-05,2e-05,-0.00015,-0.00018999999999999998,5.9999999999999995e-05,-4e-05,-4e-05,4
18881,19562,-1e-05,2e-05,0.00025,0.0004,-0.00073,-0.00015,-2.9999999999999997e-05,-2.9999999999999997e-05,4
18882,19563,-1e-05,2e-05,0.00025,0.0004,-0.00073,-0.00015,-2.9999999999999997e-05,-2.9999999999999997e-05,4
18883,19564,-1e-05,2e-05,0.00025,0.0004,-0.00073,-0.00015,-2.9999999999999997e-05,-2.9999999999999997e-05,4
18884,19565,-1e-05,2e-05,0.00025,0.0004,-0.00073,-0.00015,-2.9999999999999997e-05,-2.9999999999999997e-05,4
18885,19566,-1e-05,2e-05,0.00025,0.0004,-0.00073,-0.00015,-2.9999999999999997e-05,-2.9999999999999997e-05,4
18886,19567,-1e-05,2e-05,0.00025,0.0004,-0.00073,-0.00015,-2.9999999999999997e-05,-2.9999999999999997e-05,4
18887,19568,-1e-05,2e-05,0.00025,0.0004,-0.00073,-0.00015,-2.9999999999999997e-05,-2.9999999999999997e-05,4
18888,19569,-1e-05,2e-05,0.00025,0.0004,-0.00073,-0.00015,-2.9999999999999997e-05,-2.9999999999999997e-05,4
18889,19570,-1e-05,2e-05,0.00025,0.0004,-0.00073,-0.00015,-2.9999999999999997e-05,-2.9999999999999997e-05,4
18890,19571,-1e-05,2e-05,0.00025,0.0004,-0.00073,-0.00015,-2.9999999999999997e-05,-2.9999999999999997e-05,4
18891,19572,-1e-05,2e-05,0.00025,0.0004,-0.00073,-0.00015,-2.9999999999999997e-05,-2.9999999999999997e-05,4
18892,19573,-1e-05,2e-05,0.00025,0.0004,-0.00073,-0.00015,-2.9999999999999997e-05,-2.9999999999999997e-05,4
18893,19574,-1e-05,2e-05,0.00025,0.0004,-0.00073,-0.00015,-2.9999999999999997e-05,-2.9999999999999997e-05,4
18894,19575,-1e-05,2e-05,0.00025,0.0004,-0.00073,-0.00015,-2.9999999999999997e-05,-2.9999999999999997e-05,4
18895,19576,-1e-05,2e-05,0.00025,0.0004,-0.00073,-0.00015,-2.9999999999999997e-05,-2.9999999999999997e-05,4
18896,19577,-1e-05,2e-05,0.00025,0.0004,-0.00073,-0.00015,-2.9999999999999997e-05,-2.9999999999999997e-05,4
18897,19578,-1e-05,2e-05,0.00025,0.0004,-0.00073,-0.00015,-2.9999999999999997e-05,-2.9999999999999997e-05,4
18898,19579,-1e-05,2e-05,0.00025,0.0004,-0.00073,-0.00015,-2.9999999999999997e-05,-2.9999999999999997e-05,4
18899,19580,-1e-05,2e-05,0.00025,0.0004,-0.00073,-0.00015,-2.9999999999999997e-05,-2.9999999999999997e-05,4
18900,19581,-1e-05,2e-05,0.00025,0.0004,-0.00073,-0.00015,-2.9999999999999997e-05,-2.9999999999999997e-05,4
18901,19582,-1e-05,2e-05,0.00025,0.0004,-0.00073,-0.00015,-2.9999999999999997e-05,-2.9999999999999997e-05,4
18902,19583,-1e-05,2e-05,0.00025,0.0004,-0.00073,-0.00015,-2.9999999999999997e-05,-2.9999999999999997e-05,4
18903,19584,-1e-05,2e-05,0.00025,0.0004,-0.00073,-0.00015,-2.9999999999999997e-05,-2.9999999999999997e-05,4
18904,19585,-1e-05,2e-05,0.00025,0.0004,-0.00073,-0.00015,-2.9999999999999997e-05,-2.9999999999999997e-05,4
18905,19586,-1e-05,2e-05,0.00025,0.0004,-0.00073,-0.00015,-2.9999999999999997e-05,-2.9999999999999997e-05,4
18906,19589,-1e-05,2e-05,0.00025,0.0004,-0.00073,-0.00015,-2.9999999999999997e-05,-2.9999999999999997e-05,4
18907,19590,-1e-05,2e-05,0.00025,0.0004,-0.00073,-0.00015,-2.9999999999999997e-05,-2.9999999999999997e-05,4
18908,19591,-1e-05,2e-05,0.00025,0.0004,-0.00073,-0.00015,-2.9999999999999997e-05,-2.9999999999999997e-05,4
18909,19592,2e-05,5e-05,0.00018,0.00035,-0.00041,-0.00022999999999999998,0.0,2e-05,4
18910,19593,2.9999999999999997e-05,5e-05,9e-05,0.00033999999999999997,0.00036,-0.00028,1e-05,4e-05,4
18911,19594,2.9999999999999997e-05,5e-05,9e-05,0.00033999999999999997,0.00036,-0.00028,1e-05,4e-05,4
18912,19595,2.9999999999999997e-05,5e-05,9e-05,0.00033999999999999997,0.00036,-0.00028,1e-05,4e-05,4
18913,19596,2.9999999999999997e-05,5e-05,9e-05,0.00033999999999999997,0.00036,-0.00028,1e-05,4e-05,4
18914,19597,2.9999999999999997e-05,5e-05,9e-05,0.00033999999999999997,0.00036,-0.00028,1e-05,4e-05,4
18915,19598,2.9999999999999997e-05,5e-05,9e-05,0.00033999999999999997,0.00036,-0.00028,1e-05,4e-05,4
18916,19599,2.9999999999999997e-05,5e-05,9e-05,0.00033999999999999997,0.00036,-0.00028,1e-05,4e-05,4
18917,19600,2.9999999999999997e-05,5e-05,9e-05,0.00033999999999999997,0.00036,-0.00028,1e-05,4e-05,4
18918,19601,2.9999999999999997e-05,5e-05,9e-05,0.00033999999999999997,0.00036,-0.00028,1e-05,4e-05,4
18919,19602,2.9999999999999997e-05,5e-05,9e-05,0.00033999999999999997,0.00036,-0.00028,1e-05,4e-05,4
18920,19603,2.9999999999999997e-05,5e-05,9e-05,0.00033999999999999997,0.00036,-0.00028,1e-05,4e-05,4
18921,19604,2.9999999999999997e-05,5e-05,9e-05,0.00033999999999999997,0.00036,-0.00028,1e-05,4e-05,4
18922,19605,2.9999999999999997e-05,5e-05,9e-05,0.00033999999999999997,0.00036,-0.00028,1e-05,4e-05,4
18923,19606,2.9999999999999997e-05,5e-05,9e-05,0.00033999999999999997,0.00036,-0.00028,1e-05,4e-05,4
18924,19607,-5.9999999999999995e-05,-5e-05,-2e-05,0.00018999999999999998,-9e-05,0.00011,-5.9999999999999995e-05,-8e-05,4
18925,19608,0.0,2e-05,0.00011,0.0007099999999999999,0.0006900000000000001,0.0006,1e-05,-2.9999999999999997e-05,4
18926,19609,0.0,2e-05,0.00011,0.0007099999999999999,0.0006900000000000001,0.0006,1e-05,-2.9999999999999997e-05,4
18927,19610,0.0,2e-05,0.00011,0.0007099999999999999,0.0006900000000000001,0.0006,1e-05,-2.9999999999999997e-05,4
18928,19611,0.0,2e-05,0.00011,0.0007099999999999999,0.0006900000000000001,0.0006,1e-05,-2.9999999999999997e-05,4
18929,19612,0.0,2e-05,0.00011,0.0007099999999999999,0.0006900000000000001,0.0006,1e-05,-2.9999999999999997e-05,4
18930,19613,0.0,2e-05,0.00011,0.0007099999999999999,0.0006900000000000001,0.0006,1e-05,-2.9999999999999997e-05,4
18931,19614,0.0,2e-05,0.00011,0.0007099999999999999,0.0006900000000000001,0.0006,1e-05,-2.9999999999999997e-05,4
18932,19615,0.0,2e-05,0.00011,0.0007099999999999999,0.0006900000000000001,0.0006,1e-05,-2.9999999999999997e-05,4
18933,19616,0.0,2e-05,0.00011,0.0007099999999999999,0.0006900000000000001,0.0006,1e-05,-2.9999999999999997e-05,4
18934,19617,0.0,2e-05,0.00011,0.0007099999999999999,0.0006900000000000001,0.0006,1e-05,-2.9999999999999997e-05,4
18935,19618,0.0,2e-05,0.00011,0.0007099999999999999,0.0006900000000000001,0.0006,1e-05,-2.9999999999999997e-05,4
18936,19619,0.0,2e-05,0.00011,0.0007099999999999999,0.0006900000000000001,0.0006,1e-05,-2.9999999999999997e-05,4
18937,19620,0.0,2e-05,0.00011,0.0007099999999999999,0.0006900000000000001,0.0006,1e-05,-2.9999999999999997e-05,4
18938,19621,-1e-05,-4e-05,-0.00013000000000000002,9e-05,0.0012699999999999999,-0.00031,-5e-05,-4e-05,4
18939,19622,2e-05,2.9999999999999997e-05,8e-05,-0.00023999999999999998,-0.00093,-0.00045,2e-05,2.9999999999999997e-05,4
18940,19623,-2e-05,-2.9999999999999997e-05,-8e-05,-0.00011999999999999999,-5.9999999999999995e-05,0.00011,-1e-05,0.0,4
18941,19624,-2e-05,-2.9999999999999997e-05,-8e-05,-0.00011999999999999999,-5.9999999999999995e-05,0.00011,-1e-05,0.0,4
18942,19625,-2e-05,-2.9999999999999997e-05,-8e-05,-0.00011999999999999999,-5.9999999999999995e-05,0.00011,-1e-05,0.0,4
18943,19626,-2e-05,-2.9999999999999997e-05,-8e-05,-0.00011999999999999999,-5.9999999999999995e-05,0.00011,-1e-05,0.0,4
18944,19627,-2e-05,-2.9999999999999997e-05,-8e-05,-0.00011999999999999999,-5.9999999999999995e-05,0.00011,-1e-05,0.0,4
18945,19628,-2e-05,-2.9999999999999997e-05,-8e-05,-0.00011999999999999999,-5.9999999999999995e-05,0.00011,-1e-05,0.0,4
18946,19629,-2e-05,-2.9999999999999997e-05,-8e-05,-0.00011999999999999999,-5.9999999999999995e-05,0.00011,-1e-05,0.0,4
18947,19630,-2e-05,-2.9999999999999997e-05,-8e-05,-0.00011999999999999999,-5.9999999999999995e-05,0.00011,-1e-05,0.0,4
18948,19631,-2e-05,-2.9999999999999997e-05,-8e-05,-0.00011999999999999999,-5.9999999999999995e-05,0.00011,-1e-05,0.0,4
18949,19632,-2e-05,-2.9999999999999997e-05,-8e-05,-0.00011999999999999999,-5.9999999999999995e-05,0.00011,-1e-05,0.0,4
18950,19633,-2e-05,-2.9999999999999997e-05,-8e-05,-0.00011999999999999999,-5.9999999999999995e-05,0.00011,-1e-05,0.0,4
18951,19634,-2e-05,-2.9999999999999997e-05,-8e-05,-0.00011999999999999999,-5.9999999999999995e-05,0.00011,-1e-05,0.0,4
18952,19635,-2e-05,-2.9999999999999997e-05,-8e-05,-0.00011999999999999999,-5.9999999999999995e-05,0.00011,-1e-05,0.0,4
18953,19636,-2e-05,-2.9999999999999997e-05,-8e-05,-0.00011999999999999999,-5.9999999999999995e-05,0.00011,-1e-05,0.0,4
18954,19639,-2e-05,-2.9999999999999997e-05,-8e-05,-0.00011999999999999999,-5.9999999999999995e-05,0.00011,-1e-05,0.0,4
18955,19640,-2e-05,-2.9999999999999997e-05,-8e-05,-0.00011999999999999999,-5.9999999999999995e-05,0.00011,-1e-05,0.0,4
18956,19641,-2e-05,-2.9999999999999997e-05,-8e-05,-0.00011999999999999999,-5.9999999999999995e-05,0.00011,-1e-05,0.0,4
18957,19642,-2e-05,-2.9999999999999997e-05,-8e-05,-0.00011999999999999999,-5.9999999999999995e-05,0.00011,-1e-05,0.0,4
18958,19643,-2e-05,-2.9999999999999997e-05,-8e-05,-0.00011999999999999999,-5.9999999999999995e-05,0.00011,-1e-05,0.0,4
18959,19644,-2e-05,-2.9999999999999997e-05,-8e-05,-0.00011999999999999999,-5.9999999999999995e-05,0.00011,-1e-05,0.0,4
18960,19645,-2e-05,-2.9999999999999997e-05,-8e-05,-0.00011999999999999999,-5.9999999999999995e-05,0.00011,-1e-05,0.0,4
18961,19646,-2e-05,-2.9999999999999997e-05,-8e-05,-0.00011999999999999999,-5.9999999999999995e-05,0.00011,-1e-05,0.0,4
18962,19647,-2e-05,-2.9999999999999997e-05,-8e-05,-0.00011999999999999999,-5.9999999999999995e-05,0.00011,-1e-05,0.0,4
18963,19648,-2e-05,-2.9999999999999997e-05,-8e-05,-0.00011999999999999999,-5.9999999999999995e-05,0.00011,-1e-05,0.0,4
18964,19649,-2e-05,-2.9999999999999997e-05,-8e-05,-0.00011999999999999999,-5.9999999999999995e-05,0.00011,-1e-05,0.0,4
18965,19650,-2e-05,-2.9999999999999997e-05,-8e-05,-0.00011999999999999999,-5.9999999999999995e-05,0.00011,-1e-05,0.0,4
18966,19651,-2e-05,-2.9999999999999997e-05,-8e-05,-0.00011999999999999999,-5.9999999999999995e-05,0.00011,-1e-05,0.0,4
18967,19652,0.0,-1e-05,5e-05,0.0005,0.0004,-0.00011999999999999999,-2e-05,1e-05,4
18968,19653,-5e-05,-9e-05,-0.00018,-0.0006900000000000001,0.00037,0.00067,-9e-05,-5e-05,4
18969,19654,-5e-05,-9e-05,-0.00018,-0.0006900000000000001,0.00037,0.00067,-9e-05,-5e-05,4
18970,19655,-5e-05,-9e-05,-0.00018,-0.0006900000000000001,0.00037,0.00067,-9e-05,-5e-05,4
18971,19656,-5e-05,-9e-05,-0.00018,-0.0006900000000000001,0.00037,0.00067,-9e-05,-5e-05,4
18972,19657,-5e-05,-9e-05,-0.00018,-0.0006900000000000001,0.00037,0.00067,-9e-05,-5e-05,4
18973,19658,-5e-05,-9e-05,-0.00018,-0.0006900000000000001,0.00037,0.00067,-9e-05,-5e-05,4
18974,19659,-5e-05,-9e-05,-0.00018,-0.0006900000000000001,0.00037,0.00067,-9e-05,-5e-05,4
18975,19660,-5e-05,-9e-05,-0.00018,-0.0006900000000000001,0.00037,0.00067,-9e-05,-5e-05,4
18976,19661,-5e-05,-9e-05,-0.00018,-0.0006900000000000001,0.00037,0.00067,-9e-05,-5e-05,4
18977,19662,-5e-05,-9e-05,-0.00018,-0.0006900000000000001,0.00037,0.00067,-9e-05,-5e-05,4
18978,19663,-5e-05,-9e-05,-0.00018,-0.0006900000000000001,0.00037,0.00067,-9e-05,-5e-05,4
18979,19664,-5e-05,-9e-05,-0.00018,-0.0006900000000000001,0.00037,0.00067,-9e-05,-5e-05,4
18980,19665,-5e-05,-9e-05,-0.00018,-0.0006900000000000001,0.00037,0.00067,-9e-05,-5e-05,4
18981,19666,-5e-05,-9e-05,-0.00018,-0.0006900000000000001,0.00037,0.00067,-9e-05,-5e-05,4
18982,19667,-2e-05,-2.9999999999999997e-05,-0.00011999999999999999,-0.00067,-0.00018,-0.00062,-9e-05,-2e-05,4
18983,19668,0.0,2e-05,5e-05,0.00043,-0.00085,-0.0003,-1e-05,-1e-05,4
18984,19669,0.0,2e-05,5e-05,0.00043,-0.00085,-0.0003,-1e-05,-1e-05,4
18985,19670,0.0,2e-05,5e-05,0.00043,-0.00085,-0.0003,-1e-05,-1e-05,4
18986,19671,0.0,2e-05,5e-05,0.00043,-0.00085,-0.0003,-1e-05,-1e-05,4
18987,19672,0.0,2e-05,5e-05,0.00043,-0.00085,-0.0003,-1e-05,-1e-05,4
18988,19673,0.0,2e-05,5e-05,0.00043,-0.00085,-0.0003,-1e-05,-1e-05,4
18989,19674,0.0,2e-05,5e-05,0.00043,-0.00085,-0.0003,-1e-05,-1e-05,4
18990,19675,0.0,2e-05,5e-05,0.00043,-0.00085,-0.0003,-1e-05,-1e-05,4
18991,19676,0.0,2e-05,5e-05,0.00043,-0.00085,-0.0003,-1e-05,-1e-05,4
18992,19677,0.0,2e-05,5e-05,0.00043,-0.00085,-0.0003,-1e-05,-1e-05,4
18993,19678,0.0,2e-05,5e-05,0.00043,-0.00085,-0.0003,-1e-05,-1e-05,4
18994,19679,0.0,2e-05,5e-05,0.00043,-0.00085,-0.0003,-1e-05,-1e-05,4
18995,19680,0.0,2e-05,5e-05,0.00043,-0.00085,-0.0003,-1e-05,-1e-05,4
18996,19681,0.0,2e-05,5e-05,0.00043,-0.00085,-0.0003,-1e-05,-1e-05,4
18997,19682,1e-05,2.9999999999999997e-05,0.00018,0.0010199999999999999,0.00047999999999999996,8e-05,8e-05,4e-05,4
18998,19683,0.0,-2e-05,-4e-05,0.0003,0.00031,-0.00039,0.0,1e-05,4
18999,19684,0.0,-2e-05,-4e-05,0.0003,0.00031,-0.00039,0.0,1e-05,4
19000,19685,0.0,-2e-05,-4e-05,0.0003,0.00031,-0.00039,0.0,1e-05,4
19001,19686,0.0,-2e-05,-4e-05,0.0003,0.00031,-0.00039,0.0,1e-05,4
19002,19689,0.0,-2e-05,-4e-05,0.0003,0.00031,-0.00039,0.0,1e-05,4
19003,19690,0.0,-2e-05,-4e-05,0.0003,0.00031,-0.00039,0.0,1e-05,4
19004,19691,0.0,-2e-05,-4e-05,0.0003,0.00031,-0.00039,0.0,1e-05,4
19005,19692,0.0,-2e-05,-4e-05,0.0003,0.00031,-0.00039,0.0,1e-05,4
19006,19693,0.0,-2e-05,-4e-05,0.0003,0.00031,-0.00039,0.0,1e-05,4
19007,19694,0.0,-2e-05,-4e-05,0.0003,0.00031,-0.00039,0.0,1e-05,4
19008,19695,0.0,-2e-05,-4e-05,0.0003,0.00031,-0.00039,0.0,1e-05,4
19009,19696,0.0,-2e-05,-4e-05,0.0003,0.00031,-0.00039,0.0,1e-05,4
19010,19697,0.0,-2e-05,-4e-05,0.0003,0.00031,-0.00039,0.0,1e-05,4
19011,19698,0.0,-2e-05,-4e-05,0.0003,0.00031,-0.00039,0.0,1e-05,4
19012,19699,0.0,-2e-05,-4e-05,0.0003,0.00031,-0.00039,0.0,1e-05,4
19013,19700,0.0,-2e-05,-4e-05,0.0003,0.00031,-0.00039,0.0,1e-05,4
19014,19701,0.0,-2e-05,-4e-05,0.0003,0.00031,-0.00039,0.0,1e-05,4
19015,19702,0.0,-2e-05,-4e-05,0.0003,0.00031,-0.00039,0.0,1e-05,4
19016,19703,0.0,-2e-05,-4e-05,0.0003,0.00031,-0.00039,0.0,1e-05,4
19017,19704,-1e-05,-5.9999999999999995e-05,-0.00031,-0.00062,9e-05,-0.00047000000000000004,9e-05,1e-05,4
19018,19705,2e-05,2.9999999999999997e-05,0.00015,0.0008,0.00062,0.00025,0.00011,-1e-05,4
19019,19706,2e-05,2.9999999999999997e-05,0.00015,0.0008,0.00062,0.00025,0.00011,-1e-05,4
19020,19707,2e-05,2.9999999999999997e-05,0.00015,0.0008,0.00062,0.00025,0.00011,-1e-05,4
19021,19708,2e-05,2.9999999999999997e-05,0.00015,0.0008,0.00062,0.00025,0.00011,-1e-05,4
19022,19709,2e-05,2.9999999999999997e-05,0.00015,0.0008,0.00062,0.00025,0.00011,-1e-05,4
19023,19710,2e-05,2.9999999999999997e-05,0.00015,0.0008,0.00062,0.00025,0.00011,-1e-05,4
19024,19711,2e-05,2.9999999999999997e-05,0.00015,0.0008,0.00062,0.00025,0.00011,-1e-05,4
19025,19712,2e-05,2.9999999999999997e-05,0.00015,0.0008,0.00062,0.00025,0.00011,-1e-05,4
19026,19713,2e-05,2.9999999999999997e-05,0.00015,0.0008,0.00062,0.00025,0.00011,-1e-05,4
19027,19714,2e-05,2.9999999999999997e-05,0.00015,0.0008,0.00062,0.00025,0.00011,-1e-05,4
19028,19715,2e-05,2.9999999999999997e-05,0.00015,0.0008,0.00062,0.00025,0.00011,-1e-05,4
19029,19716,2e-05,2.9999999999999997e-05,0.00015,0.0008,0.00062,0.00025,0.00011,-1e-05,4
19030,19717,2e-05,2.9999999999999997e-05,0.00015,0.0008,0.00062,0.00025,0.00011,-1e-05,4
19031,19718,2e-05,2.9999999999999997e-05,0.00015,0.0008,0.00062,0.00025,0.00011,-1e-05,4
19032,19719,2e-05,2.9999999999999997e-05,0.00015,0.0008,0.00062,0.00025,0.00011,-1e-05,4
19033,19720,2e-05,2.9999999999999997e-05,0.00015,0.0008,0.00062,0.00025,0.00011,-1e-05,4
19034,19721,2e-05,2.9999999999999997e-05,0.00015,0.0008,0.00062,0.00025,0.00011,-1e-05,4
19035,19722,2e-05,2.9999999999999997e-05,0.00015,0.0008,0.00062,0.00025,0.00011,-1e-05,4
19036,19723,2e-05,2.9999999999999997e-05,0.00015,0.0008,0.00062,0.00025,0.00011,-1e-05,4
19037,19724,2e-05,2.9999999999999997e-05,0.00015,0.0008,0.00062,0.00025,0.00011,-1e-05,4
19038,19725,2e-05,2.9999999999999997e-05,0.00015,0.0008,0.00062,0.00025,0.00011,-1e-05,4
19039,19726,2e-05,2.9999999999999997e-05,0.00015,0.0008,0.00062,0.00025,0.00011,-1e-05,4
19040,19727,-1e-05,0.0,-9e-05,-0.00063,0.00053,-5.9999999999999995e-05,-1e-05,2.9999999999999997e-05,4
19041,19728,-8e-05,-0.00013000000000000002,-0.00022,-0.00037,0.00056,0.00086,2.9999999999999997e-05,-5.9999999999999995e-05,4
19042,19729,-8e-05,-0.00013000000000000002,-0.00022,-0.00037,0.00056,0.00086,2.9999999999999997e-05,-5.9999999999999995e-05,4
19043,19730,-8e-05,-0.00013000000000000002,-0.00022,-0.00037,0.00056,0.00086,2.9999999999999997e-05,-5.9999999999999995e-05,4
19044,19731,-8e-05,-0.00013000000000000002,-0.00022,-0.00037,0.00056,0.00086,2.9999999999999997e-05,-5.9999999999999995e-05,4
19045,19732,-8e-05,-0.00013000000000000002,-0.00022,-0.00037,0.00056,0.00086,2.9999999999999997e-05,-5.9999999999999995e-05,4
19046,19733,-8e-05,-0.00013000000000000002,-0.00022,-0.00037,0.00056,0.00086,2.9999999999999997e-05,-5.9999999999999995e-05,4
19047,19734,-8e-05,-0.00013000000000000002,-0.00022,-0.00037,0.00056,0.00086,2.9999999999999997e-05,-5.9999999999999995e-05,4
19048,19735,-8e-05,-0.00013000000000000002,-0.00022,-0.00037,0.00056,0.00086,2.9999999999999997e-05,-5.9999999999999995e-05,4
19049,19736,-8e-05,-0.00013000000000000002,-0.00022,-0.00037,0.00056,0.00086,2.9999999999999997e-05,-5.9999999999999995e-05,4
19050,19738,-8e-05,-0.00013000000000000002,-0.00022,-0.00037,0.00056,0.00086,2.9999999999999997e-05,-5.9999999999999995e-05,4
19051,19739,-8e-05,-0.00013000000000000002,-0.00022,-0.00037,0.00056,0.00086,2.9999999999999997e-05,-5.9999999999999995e-05,4
19052,19740,-8e-05,-0.00013000000000000002,-0.00022,-0.00037,0.00056,0.00086,2.9999999999999997e-05,-5.9999999999999995e-05,4
19053,19741,-8e-05,-0.00013000000000000002,-0.00022,-0.00037,0.00056,0.00086,2.9999999999999997e-05,-5.9999999999999995e-05,4
19054,19742,-1e-05,-5.9999999999999995e-05,-5e-05,-0.00036,0.00105,0.0002,0.00011999999999999999,0.0,4
19055,19743,2e-05,2e-05,-5e-05,-0.00036,-0.00058,0.00091,2e-05,2.9999999999999997e-05,4
19056,19744,2e-05,2e-05,-5e-05,-0.00036,-0.00058,0.00091,2e-05,2.9999999999999997e-05,4
19057,19745,2e-05,2e-05,-5e-05,-0.00036,-0.00058,0.00091,2e-05,2.9999999999999997e-05,4
19058,19746,2e-05,2e-05,-5e-05,-0.00036,-0.00058,0.00091,2e-05,2.9999999999999997e-05,4
19059,19747,2e-05,2e-05,-5e-05,-0.00036,-0.00058,0.00091,2e-05,2.9999999999999997e-05,4
19060,19748,2e-05,2e-05,-5e-05,-0.00036,-0.00058,0.00091,2e-05,2.9999999999999997e-05,4
19061,19749,2e-05,2e-05,-5e-05,-0.00036,-0.00058,0.00091,2e-05,2.9999999999999997e-05,4
19062,19750,2e-05,2e-05,-5e-05,-0.00036,-0.00058,0.00091,2e-05,2.9999999999999997e-05,4
19063,19751,2e-05,2e-05,-5e-05,-0.00036,-0.00058,0.00091,2e-05,2.9999999999999997e-05,4
19064,19752,2e-05,2e-05,-5e-05,-0.00036,-0.00058,0.00091,2e-05,2.9999999999999997e-05,4
19065,19753,2e-05,2e-05,-5e-05,-0.00036,-0.00058,0.00091,2e-05,2.9999999999999997e-05,4
19066,19754,2e-05,2e-05,-5e-05,-0.00036,-0.00058,0.00091,2e-05,2.9999999999999997e-05,4
19067,19755,2e-05,2e-05,-5e-05,-0.00036,-0.00058,0.00091,2e-05,2.9999999999999997e-05,4
19068,19756,2e-05,2e-05,-5e-05,-0.00036,-0.00058,0.00091,2e-05,2.9999999999999997e-05,4
19069,19757,2e-05,2e-05,-5e-05,-0.00036,-0.00058,0.00091,2e-05,2.9999999999999997e-05,4
19070,19758,2e-05,2e-05,-5e-05,-0.00036,-0.00058,0.00091,2e-05,2.9999999999999997e-05,4
19071,19759,2e-05,2e-05,-5e-05,-0.00036,-0.00058,0.00091,2e-05,2.9999999999999997e-05,4
19072,19760,2e-05,2e-05,-5e-05,-0.00036,-0.00058,0.00091,2e-05,2.9999999999999997e-05,4
19073,19761,2e-05,2e-05,-5e-05,-0.00036,-0.00058,0.00091,2e-05,2.9999999999999997e-05,4
19074,19762,2e-05,2e-05,-5e-05,-0.00036,-0.00058,0.00091,2e-05,2.9999999999999997e-05,4
19075,19763,2e-05,2e-05,-5e-05,-0.00036,-0.00058,0.00091,2e-05,2.9999999999999997e-05,4
19076,19764,-4e-05,-2e-05,2e-05,0.00013000000000000002,0.00014,-0.00022999999999999998,-9e-05,-7e-05,4
19077,19765,0.0,2.9999999999999997e-05,2.9999999999999997e-05,0.00022,-0.00045999999999999996,-2.9999999999999997e-05,-2e-05,2.9999999999999997e-05,4
19078,19766,0.0,2.9999999999999997e-05,2.9999999999999997e-05,0.00022,-0.00045999999999999996,-2.9999999999999997e-05,-2e-05,2.9999999999999997e-05,4
19079,19767,0.0,2.9999999999999997e-05,2.9999999999999997e-05,0.00022,-0.00045999999999999996,-2.9999999999999997e-05,-2e-05,2.9999999999999997e-05,4
19080,19768,0.0,2.9999999999999997e-05,2.9999999999999997e-05,0.00022,-0.00045999999999999996,-2.9999999999999997e-05,-2e-05,2.9999999999999997e-05,4
19081,19769,0.0,2.9999999999999997e-05,2.9999999999999997e-05,0.00022,-0.00045999999999999996,-2.9999999999999997e-05,-2e-05,2.9999999999999997e-05,4
19082,19770,0.0,2.9999999999999997e-05,2.9999999999999997e-05,0.00022,-0.00045999999999999996,-2.9999999999999997e-05,-2e-05,2.9999999999999997e-05,4
19083,19771,0.0,2.9999999999999997e-05,2.9999999999999997e-05,0.00022,-0.00045999999999999996,-2.9999999999999997e-05,-2e-05,2.9999999999999997e-05,4
19084,19772,0.0,2.9999999999999997e-05,2.9999999999999997e-05,0.00022,-0.00045999999999999996,-2.9999999999999997e-05,-2e-05,2.9999999999999997e-05,4
19085,19773,0.0,2.9999999999999997e-05,2.9999999999999997e-05,0.00022,-0.00045999999999999996,-2.9999999999999997e-05,-2e-05,2.9999999999999997e-05,4
19086,19774,0.0,2.9999999999999997e-05,2.9999999999999997e-05,0.00022,-0.00045999999999999996,-2.9999999999999997e-05,-2e-05,2.9999999999999997e-05,4
19087,19775,0.0,2.9999999999999997e-05,2.9999999999999997e-05,0.00022,-0.00045999999999999996,-2.9999999999999997e-05,-2e-05,2.9999999999999997e-05,4
19088,19776,0.0,2.9999999999999997e-05,2.9999999999999997e-05,0.00022,-0.00045999999999999996,-2.9999999999999997e-05,-2e-05,2.9999999999999997e-05,4
19089,19777,0.0,2.9999999999999997e-05,2.9999999999999997e-05,0.00022,-0.00045999999999999996,-2.9999999999999997e-05,-2e-05,2.9999999999999997e-05,4
19090,19778,0.0,2.9999999999999997e-05,2.9999999999999997e-05,0.00022,-0.00045999999999999996,-2.9999999999999997e-05,-2e-05,2.9999999999999997e-05,4
19091,19779,0.0,2.9999999999999997e-05,2.9999999999999997e-05,0.00022,-0.00045999999999999996,-2.9999999999999997e-05,-2e-05,2.9999999999999997e-05,4
19092,19780,0.0,2.9999999999999997e-05,2.9999999999999997e-05,0.00022,-0.00045999999999999996,-2.9999999999999997e-05,-2e-05,2.9999999999999997e-05,4
19093,19781,0.0,2.9999999999999997e-05,2.9999999999999997e-05,0.00022,-0.00045999999999999996,-2.9999999999999997e-05,-2e-05,2.9999999999999997e-05,4
19094,19782,0.0,2.9999999999999997e-05,2.9999999999999997e-05,0.00022,-0.00045999999999999996,-2.9999999999999997e-05,-2e-05,2.9999999999999997e-05,4
19095,19783,0.0,2.9999999999999997e-05,2.9999999999999997e-05,0.00022,-0.00045999999999999996,-2.9999999999999997e-05,-2e-05,2.9999999999999997e-05,4
19096,19784,0.0,2.9999999999999997e-05,2.9999999999999997e-05,0.00022,-0.00045999999999999996,-2.9999999999999997e-05,-2e-05,2.9999999999999997e-05,4
19097,19785,0.0,2.9999999999999997e-05,2.9999999999999997e-05,0.00022,-0.00045999999999999996,-2.9999999999999997e-05,-2e-05,2.9999999999999997e-05,4
19098,19786,0.0,2.9999999999999997e-05,2.9999999999999997e-05,0.00022,-0.00045999999999999996,-2.9999999999999997e-05,-2e-05,2.9999999999999997e-05,4
19099,19789,-7e-05,-8e-05,-0.00023999999999999998,-0.00033,-0.00081,-0.00031,-0.00011,-9e-05,4
19100,19790,-7e-05,-8e-05,-0.00023999999999999998,-0.00033,-0.00081,-0.00031,-0.00011,-9e-05,4
19101,19791,-7e-05,-8e-05,-0.00023999999999999998,-0.00033,-0.00081,-0.00031,-0.00011,-9e-05,4
19102,19792,-7e-05,-8e-05,-0.00023999999999999998,-0.00033,-0.00081,-0.00031,-0.00011,-9e-05,4
19103,19793,-7e-05,-8e-05,-0.00023999999999999998,-0.00033,-0.00081,-0.00031,-0.00011,-9e-05,4
19104,19794,-7e-05,-8e-05,-0.00023999999999999998,-0.00033,-0.00081,-0.00031,-0.00011,-9e-05,4
19105,19795,-7e-05,-8e-05,-0.00023999999999999998,-0.00033,-0.00081,-0.00031,-0.00011,-9e-05,4
19106,19796,-7e-05,-8e-05,-0.00023999999999999998,-0.00033,-0.00081,-0.00031,-0.00011,-9e-05,4
19107,19797,-7e-05,-8e-05,-0.00023999999999999998,-0.00033,-0.00081,-0.00031,-0.00011,-9e-05,4
19108,19798,-7e-05,-8e-05,-0.00023999999999999998,-0.00033,-0.00081,-0.00031,-0.00011,-9e-05,4
19109,19799,-7e-05,-8e-05,-0.00023999999999999998,-0.00033,-0.00081,-0.00031,-0.00011,-9e-05,4
19110,19800,-7e-05,-8e-05,-0.00023999999999999998,-0.00033,-0.00081,-0.00031,-0.00011,-9e-05,4
19111,19801,-7e-05,-8e-05,-0.00023999999999999998,-0.00033,-0.00081,-0.00031,-0.00011,-9e-05,4
19112,19802,5e-05,0.0,-0.00027,-0.00036,0.0004,-0.00061,7e-05,5e-05,4
19113,19803,-1e-05,-1e-05,0.0001,-5.9999999999999995e-05,-0.00041,-0.00059,4e-05,2e-05,4
19114,19804,-1e-05,-1e-05,0.0001,-5.9999999999999995e-05,-0.00041,-0.00059,4e-05,2e-05,4
19115,19805,-1e-05,-1e-05,0.0001,-5.9999999999999995e-05,-0.00041,-0.00059,4e-05,2e-05,4
19116,19806,-1e-05,-1e-05,0.0001,-5.9999999999999995e-05,-0.00041,-0.00059,4e-05,2e-05,4
19117,19807,-1e-05,-1e-05,0.0001,-5.9999999999999995e-05,-0.00041,-0.00059,4e-05,2e-05,4
19118,19808,-1e-05,-1e-05,0.0001,-5.9999999999999995e-05,-0.00041,-0.00059,4e-05,2e-05,4
19119,19809,-1e-05,-1e-05,0.0001,-5.9999999999999995e-05,-0.00041,-0.00059,4e-05,2e-05,4
19120,19810,-1e-05,-1e-05,0.0001,-5.9999999999999995e-05,-0.00041,-0.00059,4e-05,2e-05,4
19121,19811,-1e-05,-1e-05,0.0001,-5.9999999999999995e-05,-0.00041,-0.00059,4e-05,2e-05,4
19122,19812,-1e-05,-1e-05,0.0001,-5.9999999999999995e-05,-0.00041,-0.00059,4e-05,2e-05,4
19123,19813,-1e-05,-1e-05,0.0001,-5.9999999999999995e-05,-0.00041,-0.00059,4e-05,2e-05,4
19124,19814,-1e-05,-1e-05,0.0001,-5.9999999999999995e-05,-0.00041,-0.00059,4e-05,2e-05,4
19125,19815,-1e-05,-1e-05,0.0001,-5.9999999999999995e-05,-0.00041,-0.00059,4e-05,2e-05,4
19126,19816,-1e-05,-1e-05,0.0001,-5.9999999999999995e-05,-0.00041,-0.00059,4e-05,2e-05,4
19127,19817,-1e-05,-1e-05,0.0001,-5.9999999999999995e-05,-0.00041,-0.00059,4e-05,2e-05,4
19128,19818,-1e-05,-1e-05,0.0001,-5.9999999999999995e-05,-0.00041,-0.00059,4e-05,2e-05,4
19129,19819,-1e-05,-1e-05,0.0001,-5.9999999999999995e-05,-0.00041,-0.00059,4e-05,2e-05,4
19130,19820,-1e-05,-1e-05,0.0001,-5.9999999999999995e-05,-0.00041,-0.00059,4e-05,2e-05,4
19131,19821,-1e-05,-1e-05,0.0001,-5.9999999999999995e-05,-0.00041,-0.00059,4e-05,2e-05,4
19132,19822,-1e-05,-1e-05,0.0001,-5.9999999999999995e-05,-0.00041,-0.00059,4e-05,2e-05,4
19133,19823,-1e-05,-1e-05,0.0001,-5.9999999999999995e-05,-0.00041,-0.00059,4e-05,2e-05,4
19134,19824,2e-05,1e-05,2e-05,1e-05,0.00028,-0.00037,-2e-05,-1e-05,4
19135,19825,2e-05,1e-05,2e-05,1e-05,0.00028,-0.00037,-2e-05,-1e-05,4
19136,19826,2e-05,1e-05,2e-05,1e-05,0.00028,-0.00037,-2e-05,-1e-05,4
19137,19827,2e-05,1e-05,2e-05,1e-05,0.00028,-0.00037,-2e-05,-1e-05,4
19138,19828,2e-05,1e-05,2e-05,1e-05,0.00028,-0.00037,-2e-05,-1e-05,4
19139,19829,2e-05,1e-05,2e-05,1e-05,0.00028,-0.00037,-2e-05,-1e-05,4
19140,19830,2e-05,1e-05,2e-05,1e-05,0.00028,-0.00037,-2e-05,-1e-05,4
19141,19831,2.9999999999999997e-05,2.9999999999999997e-05,2.9999999999999997e-05,5.9999999999999995e-05,-0.00042,-0.00013000000000000002,1e-05,4e-05,4
19142,19832,2.9999999999999997e-05,2.9999999999999997e-05,2.9999999999999997e-05,5.9999999999999995e-05,-0.00042,-0.00013000000000000002,1e-05,4e-05,4
19143,19833,2.9999999999999997e-05,2.9999999999999997e-05,2.9999999999999997e-05,5.9999999999999995e-05,-0.00042,-0.00013000000000000002,1e-05,4e-05,4
19144,19834,2.9999999999999997e-05,2.9999999999999997e-05,2.9999999999999997e-05,5.9999999999999995e-05,-0.00042,-0.00013000000000000002,1e-05,4e-05,4
19145,19835,2.9999999999999997e-05,2.9999999999999997e-05,2.9999999999999997e-05,5.9999999999999995e-05,-0.00042,-0.00013000000000000002,1e-05,4e-05,4
19146,19836,2.9999999999999997e-05,2.9999999999999997e-05,2.9999999999999997e-05,5.9999999999999995e-05,-0.00042,-0.00013000000000000002,1e-05,4e-05,4
19147,19838,2.9999999999999997e-05,2.9999999999999997e-05,2.9999999999999997e-05,5.9999999999999995e-05,-0.00042,-0.00013000000000000002,1e-05,4e-05,4
19148,19839,2.9999999999999997e-05,2.9999999999999997e-05,2.9999999999999997e-05,5.9999999999999995e-05,-0.00042,-0.00013000000000000002,1e-05,4e-05,4
19149,19840,2.9999999999999997e-05,2.9999999999999997e-05,2.9999999999999997e-05,5.9999999999999995e-05,-0.00042,-0.00013000000000000002,1e-05,4e-05,4
19150,19841,2.9999999999999997e-05,2.9999999999999997e-05,2.9999999999999997e-05,5.9999999999999995e-05,-0.00042,-0.00013000000000000002,1e-05,4e-05,4
19151,19842,2.9999999999999997e-05,2.9999999999999997e-05,2.9999999999999997e-05,5.9999999999999995e-05,-0.00042,-0.00013000000000000002,1e-05,4e-05,4
19152,19843,2.9999999999999997e-05,2.9999999999999997e-05,2.9999999999999997e-05,5.9999999999999995e-05,-0.00042,-0.00013000000000000002,1e-05,4e-05,4
19153,19844,2.9999999999999997e-05,2.9999999999999997e-05,2.9999999999999997e-05,5.9999999999999995e-05,-0.00042,-0.00013000000000000002,1e-05,4e-05,4
19154,19845,2.9999999999999997e-05,2.9999999999999997e-05,2.9999999999999997e-05,5.9999999999999995e-05,-0.00042,-0.00013000000000000002,1e-05,4e-05,4
19155,19846,2.9999999999999997e-05,2.9999999999999997e-05,2.9999999999999997e-05,5.9999999999999995e-05,-0.00042,-0.00013000000000000002,1e-05,4e-05,4
19156,19847,2e-05,0.0,2.9999999999999997e-05,-0.0005200000000000001,0.0003,0.0007700000000000001,0.00015,7e-05,4
19157,19848,-4e-05,-4e-05,-7e-05,0.00047000000000000004,0.00011999999999999999,0.00021,0.0001,-2.9999999999999997e-05,4
19158,19849,-4e-05,-4e-05,-7e-05,0.00047000000000000004,0.00011999999999999999,0.00021,0.0001,-2.9999999999999997e-05,4
19159,19850,-4e-05,-4e-05,-7e-05,0.00047000000000000004,0.00011999999999999999,0.00021,0.0001,-2.9999999999999997e-05,4
19160,19851,-4e-05,-4e-05,-7e-05,0.00047000000000000004,0.00011999999999999999,0.00021,0.0001,-2.9999999999999997e-05,4
19161,19852,-4e-05,-4e-05,-7e-05,0.00047000000000000004,0.00011999999999999999,0.00021,0.0001,-2.9999999999999997e-05,4
19162,19853,-4e-05,-4e-05,-7e-05,0.00047000000000000004,0.00011999999999999999,0.00021,0.0001,-2.9999999999999997e-05,4
19163,19854,-4e-05,-4e-05,-7e-05,0.00047000000000000004,0.00011999999999999999,0.00021,0.0001,-2.9999999999999997e-05,4
19164,19855,-4e-05,-4e-05,-7e-05,0.00047000000000000004,0.00011999999999999999,0.00021,0.0001,-2.9999999999999997e-05,4
19165,19856,-4e-05,-4e-05,-7e-05,0.00047000000000000004,0.00011999999999999999,0.00021,0.0001,-2.9999999999999997e-05,4
19166,19857,-4e-05,-4e-05,-7e-05,0.00047000000000000004,0.00011999999999999999,0.00021,0.0001,-2.9999999999999997e-05,4
19167,19858,-4e-05,-4e-05,-7e-05,0.00047000000000000004,0.00011999999999999999,0.00021,0.0001,-2.9999999999999997e-05,4
19168,19859,-4e-05,-4e-05,-7e-05,0.00047000000000000004,0.00011999999999999999,0.00021,0.0001,-2.9999999999999997e-05,4
19169,19860,-4e-05,-4e-05,-7e-05,0.00047000000000000004,0.00011999999999999999,0.00021,0.0001,-2.9999999999999997e-05,4
19170,19861,-4e-05,-4e-05,-7e-05,0.00047000000000000004,0.00011999999999999999,0.00021,0.0001,-2.9999999999999997e-05,4
19171,19862,-2e-05,-2e-05,-4e-05,0.00022999999999999998,0.00042,0.00035,2e-05,0.0,4
19172,19863,-2e-05,-2e-05,-4e-05,0.00022999999999999998,0.00042,0.00035,2e-05,0.0,4
19173,19864,-2e-05,-2e-05,-4e-05,0.00022999999999999998,0.00042,0.00035,2e-05,0.0,4
19174,19865,-2e-05,-2e-05,-4e-05,0.00022999999999999998,0.00042,0.00035,2e-05,0.0,4
19175,19866,-2e-05,-2e-05,-4e-05,0.00022999999999999998,0.00042,0.00035,2e-05,0.0,4
19176,19867,-2e-05,-2e-05,-4e-05,0.00022999999999999998,0.00042,0.00035,2e-05,0.0,4
19177,19868,-2e-05,-2e-05,-4e-05,0.00022999999999999998,0.00042,0.00035,2e-05,0.0,4
19178,19869,1e-05,-4e-05,-5.9999999999999995e-05,-0.00015,8e-05,0.00047999999999999996,-1e-05,0.0,4
19179,19870,1e-05,-4e-05,-5.9999999999999995e-05,-0.00015,8e-05,0.00047999999999999996,-1e-05,0.0,4
19180,19871,1e-05,-4e-05,-5.9999999999999995e-05,-0.00015,8e-05,0.00047999999999999996,-1e-05,0.0,4
19181,19872,1e-05,-4e-05,-5.9999999999999995e-05,-0.00015,8e-05,0.00047999999999999996,-1e-05,0.0,4
19182,19873,1e-05,-4e-05,-5.9999999999999995e-05,-0.00015,8e-05,0.00047999999999999996,-1e-05,0.0,4
19183,19874,1e-05,-4e-05,-5.9999999999999995e-05,-0.00015,8e-05,0.00047999999999999996,-1e-05,0.0,4
19184,19875,1e-05,-4e-05,-5.9999999999999995e-05,-0.00015,8e-05,0.00047999999999999996,-1e-05,0.0,4
19185,19876,1e-05,-4e-05,-5.9999999999999995e-05,-0.00015,8e-05,0.00047999999999999996,-1e-05,0.0,4
19186,19877,1e-05,-4e-05,-5.9999999999999995e-05,-0.00015,8e-05,0.00047999999999999996,-1e-05,0.0,4
19187,19878,1e-05,-4e-05,-5.9999999999999995e-05,-0.00015,8e-05,0.00047999999999999996,-1e-05,0.0,4
19188,19879,1e-05,-4e-05,-5.9999999999999995e-05,-0.00015,8e-05,0.00047999999999999996,-1e-05,0.0,4
19189,19880,1e-05,-4e-05,-5.9999999999999995e-05,-0.00015,8e-05,0.00047999999999999996,-1e-05,0.0,4
19190,19881,1e-05,-4e-05,-5.9999999999999995e-05,-0.00015,8e-05,0.00047999999999999996,-1e-05,0.0,4
19191,19882,1e-05,-4e-05,-5.9999999999999995e-05,-0.00015,8e-05,0.00047999999999999996,-1e-05,0.0,4
19192,19883,1e-05,-4e-05,-5.9999999999999995e-05,-0.00015,8e-05,0.00047999999999999996,-1e-05,0.0,4
19193,19884,1e-05,-4e-05,-5.9999999999999995e-05,-0.00015,8e-05,0.00047999999999999996,-1e-05,0.0,4
19194,19885,-0.0001,1e-05,0.0001,0.00045999999999999996,0.00074,-0.00029,-2e-05,-2e-05,4
19195,19886,-0.0001,1e-05,0.0001,0.00045999999999999996,0.00074,-0.00029,-2e-05,-2e-05,4
19196,19888,-0.0001,1e-05,0.0001,0.00045999999999999996,0.00074,-0.00029,-2e-05,-2e-05,4
19197,19889,-0.0001,1e-05,0.0001,0.00045999999999999996,0.00074,-0.00029,-2e-05,-2e-05,4
19198,19890,-0.0001,1e-05,0.0001,0.00045999999999999996,0.00074,-0.00029,-2e-05,-2e-05,4
19199,19891,-0.0001,1e-05,0.0001,0.00045999999999999996,0.00074,-0.00029,-2e-05,-2e-05,4
19200,19892,-0.0001,1e-05,0.0001,0.00045999999999999996,0.00074,-0.00029,-2e-05,-2e-05,4
19201,19893,-0.0001,1e-05,0.0001,0.00045999999999999996,0.00074,-0.00029,-2e-05,-2e-05,4
19202,19894,-0.0001,1e-05,0.0001,0.00045999999999999996,0.00074,-0.00029,-2e-05,-2e-05,4
19203,19895,-0.0001,1e-05,0.0001,0.00045999999999999996,0.00074,-0.00029,-2e-05,-2e-05,4
19204,19896,-0.0001,1e-05,0.0001,0.00045999999999999996,0.00074,-0.00029,-2e-05,-2e-05,4
19205,19897,-0.0001,1e-05,0.0001,0.00045999999999999996,0.00074,-0.00029,-2e-05,-2e-05,4
19206,19898,-0.0001,1e-05,0.0001,0.00045999999999999996,0.00074,-0.00029,-2e-05,-2e-05,4
19207,19899,-0.0001,1e-05,0.0001,0.00045999999999999996,0.00074,-0.00029,-2e-05,-2e-05,4
19208,19900,-0.0001,1e-05,0.0001,0.00045999999999999996,0.00074,-0.00029,-2e-05,-2e-05,4
19209,19901,-0.0001,1e-05,0.0001,0.00045999999999999996,0.00074,-0.00029,-2e-05,-2e-05,4
19210,19902,-0.0001,1e-05,0.0001,0.00045999999999999996,0.00074,-0.00029,-2e-05,-2e-05,4
19211,19903,-0.0001,1e-05,0.0001,0.00045999999999999996,0.00074,-0.00029,-2e-05,-2e-05,4
19212,19904,-0.0001,1e-05,0.0001,0.00045999999999999996,0.00074,-0.00029,-2e-05,-2e-05,4
19213,19905,-0.0001,1e-05,0.0001,0.00045999999999999996,0.00074,-0.00029,-2e-05,-2e-05,4
19214,19906,-0.0001,1e-05,0.0001,0.00045999999999999996,0.00074,-0.00029,-2e-05,-2e-05,4
19215,19907,-2e-05,-7e-05,-0.00011,-5e-05,-0.00112,0.00022,2e-05,-2.9999999999999997e-05,4
19216,19908,2.9999999999999997e-05,2.9999999999999997e-05,8e-05,-0.00031,-0.00065,0.00067,9e-05,-1e-05,4
19217,19909,2.9999999999999997e-05,2.9999999999999997e-05,8e-05,-0.00031,-0.00065,0.00067,9e-05,-1e-05,4
19218,19910,2.9999999999999997e-05,2.9999999999999997e-05,8e-05,-0.00031,-0.00065,0.00067,9e-05,-1e-05,4
19219,19911,2.9999999999999997e-05,2.9999999999999997e-05,8e-05,-0.00031,-0.00065,0.00067,9e-05,-1e-05,4
19220,19912,2.9999999999999997e-05,2.9999999999999997e-05,8e-05,-0.00031,-0.00065,0.00067,9e-05,-1e-05,4
19221,19913,2.9999999999999997e-05,2.9999999999999997e-05,8e-05,-0.00031,-0.00065,0.00067,9e-05,-1e-05,4
19222,19914,2.9999999999999997e-05,2.9999999999999997e-05,8e-05,-0.00031,-0.00065,0.00067,9e-05,-1e-05,4
19223,19915,2.9999999999999997e-05,2.9999999999999997e-05,8e-05,-0.00031,-0.00065,0.00067,9e-05,-1e-05,4
19224,19916,2.9999999999999997e-05,2.9999999999999997e-05,8e-05,-0.00031,-0.00065,0.00067,9e-05,-1e-05,4
19225,19917,2.9999999999999997e-05,2.9999999999999997e-05,8e-05,-0.00031,-0.00065,0.00067,9e-05,-1e-05,4
19226,19918,2.9999999999999997e-05,2.9999999999999997e-05,8e-05,-0.00031,-0.00065,0.00067,9e-05,-1e-05,4
19227,19919,2.9999999999999997e-05,2.9999999999999997e-05,8e-05,-0.00031,-0.00065,0.00067,9e-05,-1e-05,4
19228,19920,2.9999999999999997e-05,2.9999999999999997e-05,8e-05,-0.00031,-0.00065,0.00067,9e-05,-1e-05,4
19229,19921,2e-05,2e-05,5e-05,0.00018999999999999998,0.00016,-0.0003,-0.00018999999999999998,-5.9999999999999995e-05,4
19230,19922,-0.00016,-4e-05,-5e-05,-0.00033999999999999997,-0.00067,-9e-05,5.9999999999999995e-05,-1e-05,4
19231,19923,-0.00011999999999999999,-5e-05,-0.00022,-0.00085,-0.00037,-0.00045,-0.00011999999999999999,-1e-05,4
19232,19924,-0.00011999999999999999,-5e-05,-0.00022,-0.00085,-0.00037,-0.00045,-0.00011999999999999999,-1e-05,4
19233,19925,-0.00011999999999999999,-5e-05,-0.00022,-0.00085,-0.00037,-0.00045,-0.00011999999999999999,-1e-05,4
19234,19926,-0.00011999999999999999,-5e-05,-0.00022,-0.00085,-0.00037,-0.00045,-0.00011999999999999999,-1e-05,4
19235,19927,-0.00011999999999999999,-5e-05,-0.00022,-0.00085,-0.00037,-0.00045,-0.00011999999999999999,-1e-05,4
19236,19928,-0.00011999999999999999,-5e-05,-0.00022,-0.00085,-0.00037,-0.00045,-0.00011999999999999999,-1e-05,4
19237,19929,-0.00011999999999999999,-5e-05,-0.00022,-0.00085,-0.00037,-0.00045,-0.00011999999999999999,-1e-05,4
19238,19930,-0.00011999999999999999,-5e-05,-0.00022,-0.00085,-0.00037,-0.00045,-0.00011999999999999999,-1e-05,4
19239,19931,-0.00011999999999999999,-5e-05,-0.00022,-0.00085,-0.00037,-0.00045,-0.00011999999999999999,-1e-05,4
19240,19932,-0.00011999999999999999,-5e-05,-0.00022,-0.00085,-0.00037,-0.00045,-0.00011999999999999999,-1e-05,4
19241,19933,-0.00011999999999999999,-5e-05,-0.00022,-0.00085,-0.00037,-0.00045,-0.00011999999999999999,-1e-05,4
19242,19934,-0.00011999999999999999,-5e-05,-0.00022,-0.00085,-0.00037,-0.00045,-0.00011999999999999999,-1e-05,4
19243,19935,-0.00011999999999999999,-5e-05,-0.00022,-0.00085,-0.00037,-0.00045,-0.00011999999999999999,-1e-05,4
19244,19936,-0.00011999999999999999,-5e-05,-0.00022,-0.00085,-0.00037,-0.00045,-0.00011999999999999999,-1e-05,4
19245,19938,-0.00011999999999999999,-5e-05,-0.00022,-0.00085,-0.00037,-0.00045,-0.00011999999999999999,-1e-05,4
19246,19939,-0.00011999999999999999,-5e-05,-0.00022,-0.00085,-0.00037,-0.00045,-0.00011999999999999999,-1e-05,4
19247,19940,-0.00011999999999999999,-5e-05,-0.00022,-0.00085,-0.00037,-0.00045,-0.00011999999999999999,-1e-05,4
19248,19941,-0.00011999999999999999,-5e-05,-0.00022,-0.00085,-0.00037,-0.00045,-0.00011999999999999999,-1e-05,4
19249,19942,-0.00011999999999999999,-5e-05,-0.00022,-0.00085,-0.00037,-0.00045,-0.00011999999999999999,-1e-05,4
19250,19943,-0.00011999999999999999,-5e-05,-0.00022,-0.00085,-0.00037,-0.00045,-0.00011999999999999999,-1e-05,4
19251,19944,-0.00011999999999999999,-5e-05,-0.00022,-0.00085,-0.00037,-0.00045,-0.00011999999999999999,-1e-05,4
19252,19945,-4e-05,-7e-05,-0.00016,-0.00037999999999999997,0.00014,-0.00045,-7e-05,-5e-05,4
19253,19946,-4e-05,-7e-05,-0.00016,-0.00037999999999999997,0.00014,-0.00045,-7e-05,-5e-05,4
19254,19947,-4e-05,-7e-05,-0.00016,-0.00037999999999999997,0.00014,-0.00045,-7e-05,-5e-05,4
19255,19948,-4e-05,-7e-05,-0.00016,-0.00037999999999999997,0.00014,-0.00045,-7e-05,-5e-05,4
19256,19949,-4e-05,-7e-05,-0.00016,-0.00037999999999999997,0.00014,-0.00045,-7e-05,-5e-05,4
19257,19950,-4e-05,-7e-05,-0.00016,-0.00037999999999999997,0.00014,-0.00045,-7e-05,-5e-05,4
19258,19951,-4e-05,-7e-05,-0.00016,-0.00037999999999999997,0.00014,-0.00045,-7e-05,-5e-05,4
19259,19952,-4e-05,-7e-05,-0.00016,-0.00037999999999999997,0.00014,-0.00045,-7e-05,-5e-05,4
19260,19953,-4e-05,-7e-05,-0.00016,-0.00037999999999999997,0.00014,-0.00045,-7e-05,-5e-05,4
19261,19954,-4e-05,-7e-05,-0.00016,-0.00037999999999999997,0.00014,-0.00045,-7e-05,-5e-05,4
19262,19955,-4e-05,-7e-05,-0.00016,-0.00037999999999999997,0.00014,-0.00045,-7e-05,-5e-05,4
19263,19956,-4e-05,-7e-05,-0.00016,-0.00037999999999999997,0.00014,-0.00045,-7e-05,-5e-05,4
19264,19957,-4e-05,-7e-05,-0.00016,-0.00037999999999999997,0.00014,-0.00045,-7e-05,-5e-05,4
19265,19958,-4e-05,-7e-05,-0.00016,-0.00037999999999999997,0.00014,-0.00045,-7e-05,-5e-05,4
19266,19959,-4e-05,-7e-05,-0.00016,-0.00037999999999999997,0.00014,-0.00045,-7e-05,-5e-05,4
19267,19960,-4e-05,-7e-05,-0.00016,-0.00037999999999999997,0.00014,-0.00045,-7e-05,-5e-05,4
19268,19961,-4e-05,-7e-05,-0.00016,-0.00037999999999999997,0.00014,-0.00045,-7e-05,-5e-05,4
19269,19962,-4e-05,-7e-05,-0.00016,-0.00037999999999999997,0.00014,-0.00045,-7e-05,-5e-05,4
19270,19963,-4e-05,-7e-05,-0.00016,-0.00037999999999999997,0.00014,-0.00045,-7e-05,-5e-05,4
19271,19964,-4e-05,-7e-05,-0.00016,-0.00037999999999999997,0.00014,-0.00045,-7e-05,-5e-05,4
19272,19965,-4e-05,-7e-05,-0.00016,-0.00037999999999999997,0.00014,-0.00045,-7e-05,-5e-05,4
19273,19966,-4e-05,-7e-05,-0.00016,-0.00037999999999999997,0.00014,-0.00045,-7e-05,-5e-05,4
19274,19967,-0.0001,-1e-05,1e-05,0.00022,0.00026000000000000003,5e-05,-0.00018999999999999998,-4e-05,4
19275,19968,0.00011999999999999999,5.9999999999999995e-05,0.0002,0.00119,0.0002,-0.00062,-2.9999999999999997e-05,-1e-05,4
19276,19969,0.00011999999999999999,5.9999999999999995e-05,0.0002,0.00119,0.0002,-0.00062,-2.9999999999999997e-05,-1e-05,4
19277,19970,0.00011999999999999999,5.9999999999999995e-05,0.0002,0.00119,0.0002,-0.00062,-2.9999999999999997e-05,-1e-05,4
19278,19971,0.00011999999999999999,5.9999999999999995e-05,0.0002,0.00119,0.0002,-0.00062,-2.9999999999999997e-05,-1e-05,4
19279,19972,0.00011999999999999999,5.9999999999999995e-05,0.0002,0.00119,0.0002,-0.00062,-2.9999999999999997e-05,-1e-05,4
19280,19973,0.00011999999999999999,5.9999999999999995e-05,0.0002,0.00119,0.0002,-0.00062,-2.9999999999999997e-05,-1e-05,4
19281,19974,0.00011999999999999999,5.9999999999999995e-05,0.0002,0.00119,0.0002,-0.00062,-2.9999999999999997e-05,-1e-05,4
19282,19975,0.00011999999999999999,5.9999999999999995e-05,0.0002,0.00119,0.0002,-0.00062,-2.9999999999999997e-05,-1e-05,4
19283,19976,0.00011999999999999999,5.9999999999999995e-05,0.0002,0.00119,0.0002,-0.00062,-2.9999999999999997e-05,-1e-05,4
19284,19977,0.00011999999999999999,5.9999999999999995e-05,0.0002,0.00119,0.0002,-0.00062,-2.9999999999999997e-05,-1e-05,4
19285,19978,0.00011999999999999999,5.9999999999999995e-05,0.0002,0.00119,0.0002,-0.00062,-2.9999999999999997e-05,-1e-05,4
19286,19979,0.00011999999999999999,5.9999999999999995e-05,0.0002,0.00119,0.0002,-0.00062,-2.9999999999999997e-05,-1e-05,4
19287,19980,0.00011999999999999999,5.9999999999999995e-05,0.0002,0.00119,0.0002,-0.00062,-2.9999999999999997e-05,-1e-05,4
19288,19981,-5.9999999999999995e-05,0.0,0.00011,0.0008,0.00023999999999999998,0.00026000000000000003,-5.9999999999999995e-05,-4e-05,4
19289,19982,-7e-05,-2.9999999999999997e-05,5e-05,0.00016999999999999999,-0.00015,-0.00082,-0.00011,-5.9999999999999995e-05,4
19290,19983,-7e-05,-2.9999999999999997e-05,5e-05,0.00016999999999999999,-0.00015,-0.00082,-0.00011,-5.9999999999999995e-05,4
19291,19984,-7e-05,-2.9999999999999997e-05,5e-05,0.00016999999999999999,-0.00015,-0.00082,-0.00011,-5.9999999999999995e-05,4
19292,19985,-7e-05,-2.9999999999999997e-05,5e-05,0.00016999999999999999,-0.00015,-0.00082,-0.00011,-5.9999999999999995e-05,4
19293,19986,-7e-05,-2.9999999999999997e-05,5e-05,0.00016999999999999999,-0.00015,-0.00082,-0.00011,-5.9999999999999995e-05,4
19294,19988,-7e-05,-2.9999999999999997e-05,5e-05,0.00016999999999999999,-0.00015,-0.00082,-0.00011,-5.9999999999999995e-05,4
19295,19989,-7e-05,-2.9999999999999997e-05,5e-05,0.00016999999999999999,-0.00015,-0.00082,-0.00011,-5.9999999999999995e-05,4
19296,19990,-7e-05,-2.9999999999999997e-05,5e-05,0.00016999999999999999,-0.00015,-0.00082,-0.00011,-5.9999999999999995e-05,4
19297,19991,-7e-05,-2.9999999999999997e-05,5e-05,0.00016999999999999999,-0.00015,-0.00082,-0.00011,-5.9999999999999995e-05,4
19298,19992,-7e-05,-2.9999999999999997e-05,5e-05,0.00016999999999999999,-0.00015,-0.00082,-0.00011,-5.9999999999999995e-05,4
19299,19993,-7e-05,-2.9999999999999997e-05,5e-05,0.00016999999999999999,-0.00015,-0.00082,-0.00011,-5.9999999999999995e-05,4
19300,19994,-7e-05,-2.9999999999999997e-05,5e-05,0.00016999999999999999,-0.00015,-0.00082,-0.00011,-5.9999999999999995e-05,4
19301,19995,-7e-05,-2.9999999999999997e-05,5e-05,0.00016999999999999999,-0.00015,-0.00082,-0.00011,-5.9999999999999995e-05,4
19302,19996,-7e-05,-2.9999999999999997e-05,5e-05,0.00016999999999999999,-0.00015,-0.00082,-0.00011,-5.9999999999999995e-05,4
19303,19997,-7e-05,-2.9999999999999997e-05,5e-05,0.00016999999999999999,-0.00015,-0.00082,-0.00011,-5.9999999999999995e-05,4
19304,19998,-7e-05,-2.9999999999999997e-05,5e-05,0.00016999999999999999,-0.00015,-0.00082,-0.00011,-5.9999999999999995e-05,4
19305,19999,-7e-05,-2.9999999999999997e-05,5e-05,0.00016999999999999999,-0.00015,-0.00082,-0.00011,-5.9999999999999995e-05,4
19306,20000,-7e-05,-2.9999999999999997e-05,5e-05,0.00016999999999999999,-0.00015,-0.00082,-0.00011,-5.9999999999999995e-05,4
19307,20001,-7e-05,-2.9999999999999997e-05,5e-05,0.00016999999999999999,-0.00015,-0.00082,-0.00011,-5.9999999999999995e-05,4
19308,20002,-7e-05,-2.9999999999999997e-05,5e-05,0.00016999999999999999,-0.00015,-0.00082,-0.00011,-5.9999999999999995e-05,4
19309,20003,-7e-05,-2.9999999999999997e-05,5e-05,0.00016999999999999999,-0.00015,-0.00082,-0.00011,-5.9999999999999995e-05,4
19310,20004,-7e-05,-2.9999999999999997e-05,5e-05,0.00016999999999999999,-0.00015,-0.00082,-0.00011,-5.9999999999999995e-05,4
19311,20005,2e-05,-1e-05,-2e-05,-0.0005099999999999999,-0.00032,0.00028,-5e-05,1e-05,4
19312,20007,2e-05,-1e-05,-2e-05,-0.0005099999999999999,-0.00032,0.00028,-5e-05,1e-05,4
19313,20008,2e-05,-1e-05,-2e-05,-0.0005099999999999999,-0.00032,0.00028,-5e-05,1e-05,4
19314,20009,2e-05,-1e-05,-2e-05,-0.0005099999999999999,-0.00032,0.00028,-5e-05,1e-05,4
19315,20010,2e-05,-1e-05,-2e-05,-0.0005099999999999999,-0.00032,0.00028,-5e-05,1e-05,4
19316,20011,2e-05,-1e-05,-2e-05,-0.0005099999999999999,-0.00032,0.00028,-5e-05,1e-05,4
19317,20012,2e-05,-1e-05,-2e-05,-0.0005099999999999999,-0.00032,0.00028,-5e-05,1e-05,4
19318,20013,2e-05,-1e-05,-2e-05,-0.0005099999999999999,-0.00032,0.00028,-5e-05,1e-05,4
19319,20014,2e-05,-1e-05,-2e-05,-0.0005099999999999999,-0.00032,0.00028,-5e-05,1e-05,4
19320,20015,2e-05,-1e-05,-2e-05,-0.0005099999999999999,-0.00032,0.00028,-5e-05,1e-05,4
19321,20016,2e-05,-1e-05,-2e-05,-0.0005099999999999999,-0.00032,0.00028,-5e-05,1e-05,4
19322,20017,2e-05,-1e-05,-2e-05,-0.0005099999999999999,-0.00032,0.00028,-5e-05,1e-05,4
19323,20018,2e-05,-1e-05,-2e-05,-0.0005099999999999999,-0.00032,0.00028,-5e-05,1e-05,4
19324,20019,2e-05,-1e-05,-2e-05,-0.0005099999999999999,-0.00032,0.00028,-5e-05,1e-05,4
19325,20020,2e-05,-1e-05,-2e-05,-0.0005099999999999999,-0.00032,0.00028,-5e-05,1e-05,4
19326,20021,2e-05,-1e-05,-2e-05,-0.0005099999999999999,-0.00032,0.00028,-5e-05,1e-05,4
19327,20022,2e-05,-1e-05,-2e-05,-0.0005099999999999999,-0.00032,0.00028,-5e-05,1e-05,4
19328,20023,2e-05,-1e-05,-2e-05,-0.0005099999999999999,-0.00032,0.00028,-5e-05,1e-05,4
19329,20024,2e-05,-1e-05,-2e-05,-0.0005099999999999999,-0.00032,0.00028,-5e-05,1e-05,4
19330,20025,2e-05,-1e-05,-2e-05,-0.0005099999999999999,-0.00032,0.00028,-5e-05,1e-05,4
19331,20026,2e-05,-1e-05,-2e-05,-0.0005099999999999999,-0.00032,0.00028,-5e-05,1e-05,4
19332,20027,2.9999999999999997e-05,2e-05,1e-05,-0.0007599999999999999,0.00037999999999999997,-0.00021,-5e-05,-2e-05,4
19333,20028,2.9999999999999997e-05,2e-05,0.00018,-9e-05,0.0009400000000000001,-0.00014,2.9999999999999997e-05,1e-05,4
19334,20029,2.9999999999999997e-05,2e-05,0.00018,-9e-05,0.0009400000000000001,-0.00014,2.9999999999999997e-05,1e-05,4
19335,20030,2.9999999999999997e-05,2e-05,0.00018,-9e-05,0.0009400000000000001,-0.00014,2.9999999999999997e-05,1e-05,4
19336,20031,2.9999999999999997e-05,2e-05,0.00018,-9e-05,0.0009400000000000001,-0.00014,2.9999999999999997e-05,1e-05,4
19337,20033,2.9999999999999997e-05,2e-05,0.00018,-9e-05,0.0009400000000000001,-0.00014,2.9999999999999997e-05,1e-05,4
19338,20034,2.9999999999999997e-05,2e-05,0.00018,-9e-05,0.0009400000000000001,-0.00014,2.9999999999999997e-05,1e-05,4
19339,20035,2.9999999999999997e-05,2e-05,0.00018,-9e-05,0.0009400000000000001,-0.00014,2.9999999999999997e-05,1e-05,4
19340,20042,2.9999999999999997e-05,2e-05,0.00018,-9e-05,0.0009400000000000001,-0.00014,2.9999999999999997e-05,1e-05,4
19341,20043,2.9999999999999997e-05,2e-05,0.00018,-9e-05,0.0009400000000000001,-0.00014,2.9999999999999997e-05,1e-05,4
19342,20044,2.9999999999999997e-05,2e-05,0.00018,-9e-05,0.0009400000000000001,-0.00014,2.9999999999999997e-05,1e-05,4
19343,20045,2.9999999999999997e-05,2e-05,0.00018,-9e-05,0.0009400000000000001,-0.00014,2.9999999999999997e-05,1e-05,4
19344,20046,2.9999999999999997e-05,2e-05,0.00018,-9e-05,0.0009400000000000001,-0.00014,2.9999999999999997e-05,1e-05,4
19345,20047,2.9999999999999997e-05,2e-05,0.00018,-9e-05,0.0009400000000000001,-0.00014,2.9999999999999997e-05,1e-05,4
19346,20048,2.9999999999999997e-05,2e-05,0.00018,-9e-05,0.0009400000000000001,-0.00014,2.9999999999999997e-05,1e-05,4
19347,20049,2.9999999999999997e-05,2e-05,0.00018,-9e-05,0.0009400000000000001,-0.00014,2.9999999999999997e-05,1e-05,4
19348,20050,-1e-05,-1e-05,-4e-05,0.00022999999999999998,-0.00035,9e-05,0.0,0.0,4
19349,20051,-1e-05,-1e-05,-4e-05,0.00022999999999999998,-0.00035,9e-05,0.0,0.0,4
19350,20052,-1e-05,-1e-05,-4e-05,0.00022999999999999998,-0.00035,9e-05,0.0,0.0,4
19351,20053,-1e-05,-1e-05,-4e-05,0.00022999999999999998,-0.00035,9e-05,0.0,0.0,4
19352,20054,-1e-05,-1e-05,-4e-05,0.00022999999999999998,-0.00035,9e-05,0.0,0.0,4
19353,20055,-1e-05,-1e-05,-4e-05,0.00022999999999999998,-0.00035,9e-05,0.0,0.0,4
19354,20056,-1e-05,-1e-05,-4e-05,0.00022999999999999998,-0.00035,9e-05,0.0,0.0,4
19355,20057,-1e-05,-1e-05,-4e-05,0.00022999999999999998,-0.00035,9e-05,0.0,0.0,4
19356,20058,-1e-05,-1e-05,-4e-05,0.00022999999999999998,-0.00035,9e-05,0.0,0.0,4
19357,20059,-1e-05,-1e-05,-4e-05,0.00022999999999999998,-0.00035,9e-05,0.0,0.0,4
19358,20060,-1e-05,-1e-05,-4e-05,0.00022999999999999998,-0.00035,9e-05,0.0,0.0,4
19359,20061,-1e-05,-1e-05,-4e-05,0.00022999999999999998,-0.00035,9e-05,0.0,0.0,4
19360,20062,-1e-05,-1e-05,-4e-05,0.00022999999999999998,-0.00035,9e-05,0.0,0.0,4
19361,20063,-1e-05,-1e-05,-4e-05,0.00022999999999999998,-0.00035,9e-05,0.0,0.0,4
19362,20064,-1e-05,-1e-05,-4e-05,0.00022999999999999998,-0.00035,9e-05,0.0,0.0,4
19363,20065,4e-05,0.0,-2e-05,-0.00035,-0.00035,0.00016999999999999999,9e-05,2.9999999999999997e-05,4
19364,20066,4e-05,0.0,-2e-05,-0.00035,-0.00035,0.00016999999999999999,9e-05,2.9999999999999997e-05,4
19365,20067,4e-05,0.0,-2e-05,-0.00035,-0.00035,0.00016999999999999999,9e-05,2.9999999999999997e-05,4
19366,20068,4e-05,0.0,-2e-05,-0.00035,-0.00035,0.00016999999999999999,9e-05,2.9999999999999997e-05,4
19367,20069,4e-05,0.0,-2e-05,-0.00035,-0.00035,0.00016999999999999999,9e-05,2.9999999999999997e-05,4
19368,20070,4e-05,0.0,-2e-05,-0.00035,-0.00035,0.00016999999999999999,9e-05,2.9999999999999997e-05,4
19369,20071,4e-05,0.0,-2e-05,-0.00035,-0.00035,0.00016999999999999999,9e-05,2.9999999999999997e-05,4
19370,20072,4e-05,0.0,-2e-05,-0.00035,-0.00035,0.00016999999999999999,9e-05,2.9999999999999997e-05,4
19371,20073,4e-05,0.0,-2e-05,-0.00035,-0.00035,0.00016999999999999999,9e-05,2.9999999999999997e-05,4
19372,20074,4e-05,0.0,-2e-05,-0.00035,-0.00035,0.00016999999999999999,9e-05,2.9999999999999997e-05,4
19373,20075,4e-05,0.0,-2e-05,-0.00035,-0.00035,0.00016999999999999999,9e-05,2.9999999999999997e-05,4
19374,20076,4e-05,0.0,-2e-05,-0.00035,-0.00035,0.00016999999999999999,9e-05,2.9999999999999997e-05,4
19375,20077,4e-05,0.0,-2e-05,-0.00035,-0.00035,0.00016999999999999999,9e-05,2.9999999999999997e-05,4
19376,20078,4e-05,0.0,-2e-05,-0.00035,-0.00035,0.00016999999999999999,9e-05,2.9999999999999997e-05,4
19377,20079,4e-05,0.0,-2e-05,-0.00035,-0.00035,0.00016999999999999999,9e-05,2.9999999999999997e-05,4
19378,20080,4e-05,0.0,-2e-05,-0.00035,-0.00035,0.00016999999999999999,9e-05,2.9999999999999997e-05,4
19379,20081,4e-05,0.0,-2e-05,-0.00035,-0.00035,0.00016999999999999999,9e-05,2.9999999999999997e-05,4
19380,20082,4e-05,0.0,-2e-05,-0.00035,-0.00035,0.00016999999999999999,9e-05,2.9999999999999997e-05,4
19381,20083,4e-05,0.0,-2e-05,-0.00035,-0.00035,0.00016999999999999999,9e-05,2.9999999999999997e-05,4
19382,20084,4e-05,0.0,-2e-05,-0.00035,-0.00035,0.00016999999999999999,9e-05,2.9999999999999997e-05,4
19383,20085,4e-05,0.0,-2e-05,-0.00035,-0.00035,0.00016999999999999999,9e-05,2.9999999999999997e-05,4
19384,20086,4e-05,0.0,-2e-05,-0.00035,-0.00035,0.00016999999999999999,9e-05,2.9999999999999997e-05,4
19385,20089,0.0,-2.9999999999999997e-05,-0.00016999999999999999,-0.00026000000000000003,0.0,0.00029,0.0001,5.9999999999999995e-05,4
19386,20090,0.0,-2.9999999999999997e-05,-0.00016999999999999999,-0.00026000000000000003,0.0,0.00029,0.0001,5.9999999999999995e-05,4
19387,20091,0.0,-2.9999999999999997e-05,-0.00016999999999999999,-0.00026000000000000003,0.0,0.00029,0.0001,5.9999999999999995e-05,4
19388,20092,0.0,-2.9999999999999997e-05,-0.00016999999999999999,-0.00026000000000000003,0.0,0.00029,0.0001,5.9999999999999995e-05,4
19389,20093,0.0,-2.9999999999999997e-05,-0.00016999999999999999,-0.00026000000000000003,0.0,0.00029,0.0001,5.9999999999999995e-05,4
19390,20094,0.0,-2.9999999999999997e-05,-0.00016999999999999999,-0.00026000000000000003,0.0,0.00029,0.0001,5.9999999999999995e-05,4
19391,20095,0.0,-2.9999999999999997e-05,-0.00016999999999999999,-0.00026000000000000003,0.0,0.00029,0.0001,5.9999999999999995e-05,4
19392,20096,0.0,-2.9999999999999997e-05,-0.00016999999999999999,-0.00026000000000000003,0.0,0.00029,0.0001,5.9999999999999995e-05,4
19393,20097,0.0,-2.9999999999999997e-05,-0.00016999999999999999,-0.00026000000000000003,0.0,0.00029,0.0001,5.9999999999999995e-05,4
19394,20098,0.0,-2.9999999999999997e-05,-0.00016999999999999999,-0.00026000000000000003,0.0,0.00029,0.0001,5.9999999999999995e-05,4
19395,20099,0.0,-2.9999999999999997e-05,-0.00016999999999999999,-0.00026000000000000003,0.0,0.00029,0.0001,5.9999999999999995e-05,4
19396,20100,0.0,-2.9999999999999997e-05,-0.00016999999999999999,-0.00026000000000000003,0.0,0.00029,0.0001,5.9999999999999995e-05,4
19397,20101,0.0,-1e-05,5e-05,0.00033,2e-05,-0.00033,-1e-05,0.0,4
19398,20102,0.0,-1e-05,5e-05,0.00033,2e-05,-0.00033,-1e-05,0.0,4
19399,20103,0.0,-1e-05,5e-05,0.00033,2e-05,-0.00033,-1e-05,0.0,4
19400,20104,0.0,-1e-05,5e-05,0.00033,2e-05,-0.00033,-1e-05,0.0,4
19401,20105,0.0,-1e-05,5e-05,0.00033,2e-05,-0.00033,-1e-05,0.0,4
19402,20106,0.0,-1e-05,5e-05,0.00033,2e-05,-0.00033,-1e-05,0.0,4
19403,20107,0.0,-1e-05,5e-05,0.00033,2e-05,-0.00033,-1e-05,0.0,4
19404,20108,0.0,-1e-05,5e-05,0.00033,2e-05,-0.00033,-1e-05,0.0,4
19405,20109,-1e-05,-2e-05,-0.00018,-0.0005099999999999999,-0.00082,-0.00112,-5.9999999999999995e-05,2e-05,4
19406,20110,-1e-05,-2e-05,-0.00018,-0.0005099999999999999,-0.00082,-0.00112,-5.9999999999999995e-05,2e-05,4
19407,20111,-1e-05,-2e-05,-0.00018,-0.0005099999999999999,-0.00082,-0.00112,-5.9999999999999995e-05,2e-05,4
19408,20112,-1e-05,-2e-05,-0.00018,-0.0005099999999999999,-0.00082,-0.00112,-5.9999999999999995e-05,2e-05,4
19409,20113,-1e-05,-2e-05,-0.00018,-0.0005099999999999999,-0.00082,-0.00112,-5.9999999999999995e-05,2e-05,4
19410,20114,-1e-05,-2e-05,-0.00018,-0.0005099999999999999,-0.00082,-0.00112,-5.9999999999999995e-05,2e-05,4
19411,20115,-1e-05,-2e-05,-0.00018,-0.0005099999999999999,-0.00082,-0.00112,-5.9999999999999995e-05,2e-05,4
19412,20116,-1e-05,-2e-05,-0.00018,-0.0005099999999999999,-0.00082,-0.00112,-5.9999999999999995e-05,2e-05,4
19413,20117,-1e-05,-2e-05,-0.00018,-0.0005099999999999999,-0.00082,-0.00112,-5.9999999999999995e-05,2e-05,4
19414,20118,-1e-05,-2e-05,-0.00018,-0.0005099999999999999,-0.00082,-0.00112,-5.9999999999999995e-05,2e-05,4
19415,20119,-1e-05,-2e-05,-0.00018,-0.0005099999999999999,-0.00082,-0.00112,-5.9999999999999995e-05,2e-05,4
19416,20120,-1e-05,-2e-05,-0.00018,-0.0005099999999999999,-0.00082,-0.00112,-5.9999999999999995e-05,2e-05,4
19417,20121,-1e-05,-2e-05,-0.00018,-0.0005099999999999999,-0.00082,-0.00112,-5.9999999999999995e-05,2e-05,4
19418,20122,-1e-05,-2e-05,-0.00018,-0.0005099999999999999,-0.00082,-0.00112,-5.9999999999999995e-05,2e-05,4
19419,20123,-1e-05,-2e-05,-0.00018,-0.0005099999999999999,-0.00082,-0.00112,-5.9999999999999995e-05,2e-05,4
19420,20124,-1e-05,-2e-05,-0.00018,-0.0005099999999999999,-0.00082,-0.00112,-5.9999999999999995e-05,2e-05,4
